# Temperatura_=_56.7
# Concentracion g/m^3_=_15000.0
# C_Vs_to_Am_M_A/Vsm_=_65563218390.804596
# pendiente_HvsI_1/m_=_3716.3
# ordenada_HvsI_A/m_=_1297.0
# frecuencia_Hz_=_301596.30063758016

Tiempo_(s)	Campo_(V.s)	Magnetizacion_(V.s)	Campo_(kA/m)	Magnetizacion_(A/m)
0.000000e+00	-5.386293e-06	-6.516817e-09	-3.833683e+01	-4.254210e+02
1.000000e-08	-5.383466e-06	-6.511947e-09	-3.831671e+01	-4.252530e+02
2.000000e-08	-5.378825e-06	-6.504986e-09	-3.828368e+01	-4.250207e+02
3.000000e-08	-5.372524e-06	-6.497160e-09	-3.823884e+01	-4.247098e+02
4.000000e-08	-5.364661e-06	-6.488544e-09	-3.818287e+01	-4.243009e+02
5.000000e-08	-5.355019e-06	-6.479843e-09	-3.811424e+01	-4.237755e+02
6.000000e-08	-5.343313e-06	-6.470890e-09	-3.803092e+01	-4.231225e+02
7.000000e-08	-5.329719e-06	-6.463867e-09	-3.793417e+01	-4.223428e+02
8.000000e-08	-5.314059e-06	-6.455325e-09	-3.782271e+01	-4.214515e+02
9.000000e-08	-5.296094e-06	-6.451509e-09	-3.769484e+01	-4.204761e+02
1.000000e-07	-5.276056e-06	-6.444331e-09	-3.755222e+01	-4.194515e+02
1.100000e-07	-5.254094e-06	-6.414565e-09	-3.739591e+01	-4.184121e+02
1.200000e-07	-5.230453e-06	-6.381313e-09	-3.722765e+01	-4.173832e+02
1.300000e-07	-5.205339e-06	-6.351169e-09	-3.704890e+01	-4.163750e+02
1.400000e-07	-5.178612e-06	-6.311448e-09	-3.685866e+01	-4.153784e+02
1.500000e-07	-5.150222e-06	-6.321116e-09	-3.665660e+01	-4.143662e+02
1.600000e-07	-5.120367e-06	-6.337003e-09	-3.644411e+01	-4.132978e+02
1.700000e-07	-5.088970e-06	-6.314992e-09	-3.622064e+01	-4.121280e+02
1.800000e-07	-5.055460e-06	-6.311457e-09	-3.598213e+01	-4.108157e+02
1.900000e-07	-5.020050e-06	-6.243871e-09	-3.573010e+01	-4.093331e+02
2.000000e-07	-4.983198e-06	-6.149860e-09	-3.546781e+01	-4.076704e+02
2.100000e-07	-4.944621e-06	-6.143799e-09	-3.519324e+01	-4.058374e+02
2.200000e-07	-4.904234e-06	-6.141287e-09	-3.490579e+01	-4.038595e+02
2.300000e-07	-4.861868e-06	-6.117419e-09	-3.460425e+01	-4.017716e+02
2.400000e-07	-4.817543e-06	-6.091598e-09	-3.428876e+01	-3.996087e+02
2.500000e-07	-4.771503e-06	-6.053324e-09	-3.396108e+01	-3.973980e+02
2.600000e-07	-4.723560e-06	-6.032356e-09	-3.361985e+01	-3.951531e+02
2.700000e-07	-4.673532e-06	-6.004904e-09	-3.326377e+01	-3.928717e+02
2.800000e-07	-4.621476e-06	-5.972756e-09	-3.289326e+01	-3.905380e+02
2.900000e-07	-4.567573e-06	-5.913504e-09	-3.250961e+01	-3.881274e+02
3.000000e-07	-4.512020e-06	-5.841279e-09	-3.211421e+01	-3.856143e+02
3.100000e-07	-4.454785e-06	-5.821006e-09	-3.170684e+01	-3.829786e+02
3.200000e-07	-4.395756e-06	-5.803187e-09	-3.128671e+01	-3.802108e+02
3.300000e-07	-4.335175e-06	-5.763500e-09	-3.085552e+01	-3.773140e+02
3.400000e-07	-4.273172e-06	-5.706314e-09	-3.041421e+01	-3.743024e+02
3.500000e-07	-4.209745e-06	-5.632948e-09	-2.996277e+01	-3.711965e+02
3.600000e-07	-4.144809e-06	-5.589509e-09	-2.950060e+01	-3.680175e+02
3.700000e-07	-4.078196e-06	-5.563653e-09	-2.902648e+01	-3.647813e+02
3.800000e-07	-4.010051e-06	-5.523015e-09	-2.854146e+01	-3.614944e+02
3.900000e-07	-3.940535e-06	-5.465125e-09	-2.804668e+01	-3.581524e+02
4.000000e-07	-3.869728e-06	-5.396977e-09	-2.754271e+01	-3.547415e+02
4.100000e-07	-3.797675e-06	-5.332596e-09	-2.702987e+01	-3.512425e+02
4.200000e-07	-3.724210e-06	-5.274449e-09	-2.650699e+01	-3.476353e+02
4.300000e-07	-3.649168e-06	-5.232717e-09	-2.597288e+01	-3.439044e+02
4.400000e-07	-3.572633e-06	-5.191460e-09	-2.542814e+01	-3.400418e+02
4.500000e-07	-3.494660e-06	-5.128615e-09	-2.487317e+01	-3.360480e+02
4.600000e-07	-3.415237e-06	-5.049451e-09	-2.430788e+01	-3.319312e+02
4.700000e-07	-3.334523e-06	-4.982973e-09	-2.373340e+01	-3.277038e+02
4.800000e-07	-3.252623e-06	-4.931909e-09	-2.315048e+01	-3.233788e+02
4.900000e-07	-3.169591e-06	-4.859440e-09	-2.255950e+01	-3.189660e+02
5.000000e-07	-3.085574e-06	-4.776277e-09	-2.196151e+01	-3.144694e+02
5.100000e-07	-3.000629e-06	-4.702682e-09	-2.135692e+01	-3.098869e+02
5.200000e-07	-2.914698e-06	-4.635275e-09	-2.074530e+01	-3.052114e+02
5.300000e-07	-2.827786e-06	-4.570036e-09	-2.012671e+01	-3.004330e+02
5.400000e-07	-2.740006e-06	-4.505267e-09	-1.950194e+01	-2.955419e+02
5.500000e-07	-2.651269e-06	-4.427868e-09	-1.887035e+01	-2.905304e+02
5.600000e-07	-2.561425e-06	-4.331357e-09	-1.823089e+01	-2.853949e+02
5.700000e-07	-2.470493e-06	-4.240316e-09	-1.758369e+01	-2.801351e+02
5.800000e-07	-2.378635e-06	-4.167883e-09	-1.692989e+01	-2.747531e+02
5.900000e-07	-2.285973e-06	-4.093805e-09	-1.627036e+01	-2.692517e+02
6.000000e-07	-2.192485e-06	-4.003140e-09	-1.560497e+01	-2.636326e+02
6.100000e-07	-2.098223e-06	-3.910057e-09	-1.493406e+01	-2.578954e+02
6.200000e-07	-2.003240e-06	-3.820498e-09	-1.425802e+01	-2.520377e+02
6.300000e-07	-1.907551e-06	-3.728094e-09	-1.357695e+01	-2.460557e+02
6.400000e-07	-1.811193e-06	-3.639033e-09	-1.289113e+01	-2.399458e+02
6.500000e-07	-1.714113e-06	-3.553535e-09	-1.220017e+01	-2.337064e+02
6.600000e-07	-1.616250e-06	-3.458488e-09	-1.150363e+01	-2.273381e+02
6.700000e-07	-1.517740e-06	-3.349759e-09	-1.080248e+01	-2.208441e+02
6.800000e-07	-1.418668e-06	-3.241517e-09	-1.009734e+01	-2.142288e+02
6.900000e-07	-1.319097e-06	-3.140685e-09	-9.388646e+00	-2.074964e+02
7.000000e-07	-1.219113e-06	-3.038998e-09	-8.677012e+00	-2.006480e+02
7.100000e-07	-1.118778e-06	-2.930756e-09	-7.962882e+00	-1.936813e+02
7.200000e-07	-1.018125e-06	-2.819480e-09	-7.246481e+00	-1.865889e+02
7.300000e-07	-9.171767e-07	-2.709403e-09	-6.527987e+00	-1.793598e+02
7.400000e-07	-8.159598e-07	-2.600341e-09	-5.807577e+00	-1.719806e+02
7.500000e-07	-7.144170e-07	-2.491508e-09	-5.084849e+00	-1.644378e+02
7.600000e-07	-6.125659e-07	-2.376627e-09	-4.359926e+00	-1.567200e+02
7.700000e-07	-5.105425e-07	-2.251653e-09	-3.633776e+00	-1.488193e+02
7.800000e-07	-4.084028e-07	-2.122430e-09	-2.906799e+00	-1.407312e+02
7.900000e-07	-3.060840e-07	-1.994883e-09	-2.178547e+00	-1.324538e+02
8.000000e-07	-2.036733e-07	-1.869723e-09	-1.449641e+00	-1.239862e+02
8.100000e-07	-1.011924e-07	-1.742035e-09	-7.202348e-01	-1.153258e+02
8.200000e-07	1.442731e-09	-1.606275e-09	1.026861e-02	-1.064674e+02
8.300000e-07	1.041019e-07	-1.462960e-09	7.409435e-01	-9.740187e+01
8.400000e-07	2.067066e-07	-1.317255e-09	1.471230e+00	-8.811730e+01
8.500000e-07	3.092443e-07	-1.173704e-09	2.201040e+00	-7.860062e+01
8.600000e-07	4.117011e-07	-1.029133e-09	2.930274e+00	-6.884000e+01
8.700000e-07	5.140506e-07	-8.764379e-10	3.658745e+00	-5.882714e+01
8.800000e-07	6.162482e-07	-7.144044e-10	4.386134e+00	-4.855872e+01
8.900000e-07	7.182219e-07	-5.489709e-10	5.111930e+00	-3.803656e+01
9.000000e-07	8.198638e-07	-3.823611e-10	5.835364e+00	-2.726643e+01
9.100000e-07	9.211901e-07	-2.133079e-10	6.556552e+00	-1.625591e+01
9.200000e-07	1.022172e-06	-4.302075e-11	7.275289e+00	-5.012100e+00
9.300000e-07	1.122818e-06	1.307208e-10	7.991632e+00	6.460058e+00
9.400000e-07	1.223168e-06	3.091557e-10	8.705875e+00	1.815796e+01
9.500000e-07	1.323178e-06	4.900620e-10	9.417693e+00	3.007972e+01
9.600000e-07	1.422788e-06	6.717384e-10	1.012667e+01	4.222092e+01
9.700000e-07	1.521894e-06	8.555950e-10	1.083205e+01	5.457035e+01
9.800000e-07	1.620310e-06	1.044015e-09	1.153252e+01	6.710579e+01
9.900000e-07	1.717890e-06	1.236627e-09	1.222705e+01	7.979112e+01
1.000000e-06	1.814660e-06	1.429604e-09	1.291581e+01	9.257548e+01
1.010000e-06	1.910674e-06	1.621104e-09	1.359919e+01	1.053952e+02
1.020000e-06	2.006016e-06	1.810751e-09	1.427778e+01	1.181782e+02
1.030000e-06	2.100682e-06	1.999749e-09	1.495156e+01	1.308499e+02
1.040000e-06	2.194586e-06	2.189189e-09	1.561992e+01	1.433403e+02
1.050000e-06	2.287743e-06	2.375944e-09	1.628297e+01	1.555895e+02
1.060000e-06	2.380229e-06	2.557417e-09	1.694123e+01	1.675517e+02
1.070000e-06	2.472084e-06	2.731190e-09	1.759501e+01	1.791968e+02
1.080000e-06	2.563121e-06	2.900499e-09	1.824296e+01	1.905087e+02
1.090000e-06	2.652988e-06	3.068858e-09	1.888259e+01	2.014821e+02
1.100000e-06	2.741661e-06	3.233675e-09	1.951372e+01	2.121178e+02
1.110000e-06	2.829375e-06	3.392656e-09	2.013802e+01	2.224186e+02
1.120000e-06	2.916175e-06	3.545001e-09	2.075582e+01	2.323854e+02
1.130000e-06	3.002002e-06	3.690695e-09	2.136669e+01	2.420156e+02
1.140000e-06	3.086835e-06	3.831335e-09	2.197049e+01	2.513040e+02
1.150000e-06	3.170790e-06	3.967579e-09	2.256803e+01	2.602437e+02
1.160000e-06	3.253774e-06	4.098235e-09	2.315867e+01	2.688288e+02
1.170000e-06	3.335505e-06	4.220863e-09	2.374039e+01	2.770571e+02
1.180000e-06	3.415979e-06	4.337421e-09	2.431316e+01	2.849312e+02
1.190000e-06	3.495247e-06	4.450489e-09	2.487735e+01	2.924593e+02
1.200000e-06	3.573295e-06	4.560909e-09	2.543285e+01	2.996539e+02
1.210000e-06	3.650129e-06	4.668530e-09	2.597972e+01	3.065309e+02
1.220000e-06	3.725650e-06	4.769414e-09	2.651724e+01	3.131074e+02
1.230000e-06	3.799543e-06	4.861788e-09	2.704317e+01	3.194004e+02
1.240000e-06	3.871818e-06	4.948746e-09	2.755758e+01	3.254262e+02
1.250000e-06	3.942677e-06	5.035284e-09	2.806193e+01	3.312000e+02
1.260000e-06	4.012103e-06	5.122078e-09	2.855606e+01	3.367370e+02
1.270000e-06	4.080225e-06	5.204665e-09	2.904092e+01	3.420522e+02
1.280000e-06	4.146925e-06	5.282323e-09	2.951566e+01	3.471615e+02
1.290000e-06	4.211896e-06	5.357102e-09	2.997809e+01	3.520802e+02
1.300000e-06	4.275298e-06	5.429170e-09	3.042935e+01	3.568224e+02
1.310000e-06	4.337320e-06	5.500331e-09	3.087079e+01	3.613992e+02
1.320000e-06	4.397930e-06	5.568951e-09	3.130218e+01	3.658168e+02
1.330000e-06	4.457123e-06	5.632195e-09	3.172349e+01	3.700761e+02
1.340000e-06	4.514586e-06	5.691220e-09	3.213248e+01	3.741722e+02
1.350000e-06	4.570256e-06	5.747066e-09	3.252870e+01	3.780966e+02
1.360000e-06	4.624328e-06	5.801489e-09	3.291356e+01	3.818396e+02
1.370000e-06	4.676693e-06	5.853509e-09	3.328627e+01	3.853927e+02
1.380000e-06	4.726990e-06	5.902420e-09	3.364425e+01	3.887520e+02
1.390000e-06	4.775222e-06	5.950820e-09	3.398755e+01	3.919193e+02
1.400000e-06	4.821794e-06	5.997771e-09	3.431902e+01	3.949027e+02
1.410000e-06	4.866833e-06	6.040431e-09	3.463959e+01	3.977143e+02
1.420000e-06	4.910319e-06	6.079494e-09	3.494910e+01	4.003683e+02
1.430000e-06	4.951919e-06	6.116375e-09	3.524519e+01	4.028776e+02
1.440000e-06	4.991611e-06	6.149232e-09	3.552769e+01	4.052511e+02
1.450000e-06	5.029690e-06	6.177539e-09	3.579871e+01	4.074923e+02
1.460000e-06	5.066263e-06	6.205080e-09	3.605902e+01	4.095998e+02
1.470000e-06	5.101060e-06	6.234342e-09	3.630669e+01	4.115689e+02
1.480000e-06	5.133817e-06	6.262867e-09	3.653984e+01	4.133950e+02
1.490000e-06	5.164757e-06	6.288482e-09	3.676006e+01	4.150756e+02
1.500000e-06	5.194033e-06	6.311649e-09	3.696843e+01	4.166137e+02
1.510000e-06	5.221585e-06	6.333299e-09	3.716453e+01	4.180175e+02
1.520000e-06	5.247153e-06	6.352780e-09	3.734651e+01	4.192997e+02
1.530000e-06	5.270691e-06	6.369616e-09	3.751403e+01	4.204746e+02
1.540000e-06	5.292404e-06	6.384821e-09	3.766858e+01	4.215547e+02
1.550000e-06	5.312448e-06	6.398669e-09	3.781125e+01	4.225472e+02
1.560000e-06	5.330628e-06	6.411177e-09	3.794064e+01	4.234527e+02
1.570000e-06	5.346754e-06	6.422180e-09	3.805541e+01	4.242646e+02
1.580000e-06	5.360909e-06	6.432990e-09	3.815616e+01	4.249719e+02
1.590000e-06	5.373059e-06	6.444260e-09	3.824264e+01	4.255624e+02
1.600000e-06	5.382989e-06	6.453645e-09	3.831332e+01	4.260270e+02
1.610000e-06	5.390810e-06	6.461262e-09	3.836898e+01	4.263635e+02
1.620000e-06	5.396817e-06	6.467453e-09	3.841174e+01	4.265778e+02
1.630000e-06	5.401043e-06	6.471689e-09	3.844181e+01	4.266833e+02
1.640000e-06	5.403341e-06	6.472741e-09	3.845817e+01	4.266976e+02
1.650000e-06	5.403598e-06	6.472540e-09	3.846000e+01	4.266378e+02
1.660000e-06	5.402050e-06	6.472826e-09	3.844898e+01	4.265159e+02
1.670000e-06	5.398879e-06	6.469933e-09	3.842641e+01	4.263346e+02
1.680000e-06	5.393964e-06	6.465030e-09	3.839143e+01	4.260866e+02
1.690000e-06	5.387117e-06	6.460664e-09	3.834269e+01	4.257561e+02
1.700000e-06	5.378525e-06	6.456893e-09	3.828154e+01	4.253233e+02
1.710000e-06	5.368408e-06	6.451830e-09	3.820954e+01	4.247709e+02
1.720000e-06	5.356571e-06	6.440359e-09	3.812529e+01	4.240898e+02
1.730000e-06	5.342748e-06	6.423775e-09	3.802690e+01	4.232841e+02
1.740000e-06	5.326846e-06	6.400589e-09	3.791372e+01	4.223718e+02
1.750000e-06	5.308580e-06	6.377250e-09	3.778371e+01	4.213826e+02
1.760000e-06	5.287598e-06	6.378719e-09	3.763437e+01	4.203518e+02
1.770000e-06	5.264355e-06	6.374458e-09	3.746894e+01	4.193125e+02
1.780000e-06	5.239900e-06	6.366016e-09	3.729489e+01	4.182876e+02
1.790000e-06	5.214707e-06	6.361208e-09	3.711557e+01	4.172830e+02
1.800000e-06	5.188092e-06	6.298663e-09	3.692614e+01	4.162856e+02
1.810000e-06	5.159229e-06	6.277389e-09	3.672071e+01	4.152647e+02
1.820000e-06	5.128503e-06	6.281862e-09	3.650202e+01	4.141781e+02
1.830000e-06	5.096077e-06	6.232681e-09	3.627122e+01	4.129805e+02
1.840000e-06	5.061709e-06	6.275248e-09	3.602661e+01	4.116332e+02
1.850000e-06	5.025803e-06	6.321191e-09	3.577105e+01	4.101119e+02
1.860000e-06	4.988107e-06	6.266323e-09	3.550275e+01	4.084109e+02
1.870000e-06	4.948494e-06	6.228455e-09	3.522080e+01	4.065439e+02
1.880000e-06	4.907271e-06	6.160993e-09	3.492740e+01	4.045391e+02
1.890000e-06	4.864212e-06	6.115787e-09	3.462093e+01	4.024320e+02
1.900000e-06	4.819496e-06	6.114742e-09	3.430267e+01	4.002567e+02
1.910000e-06	4.773027e-06	6.068686e-09	3.397192e+01	3.980377e+02
1.920000e-06	4.724510e-06	6.058866e-09	3.362660e+01	3.957854e+02
1.930000e-06	4.674362e-06	6.012929e-09	3.326968e+01	3.934942e+02
1.940000e-06	4.622480e-06	5.962099e-09	3.290041e+01	3.911459e+02
1.950000e-06	4.568491e-06	5.969003e-09	3.251614e+01	3.887151e+02
1.960000e-06	4.512536e-06	5.913456e-09	3.211789e+01	3.861768e+02
1.970000e-06	4.454880e-06	5.847329e-09	3.170752e+01	3.835128e+02
1.980000e-06	4.395820e-06	5.779759e-09	3.128716e+01	3.807164e+02
1.990000e-06	4.335333e-06	5.755695e-09	3.085665e+01	3.777932e+02
2.000000e-06	4.273126e-06	5.765386e-09	3.041389e+01	3.747592e+02
2.010000e-06	4.209264e-06	5.689419e-09	2.995935e+01	3.716357e+02
2.020000e-06	4.143902e-06	5.638469e-09	2.949414e+01	3.684431e+02
2.030000e-06	4.077102e-06	5.588642e-09	2.901869e+01	3.651955e+02
2.040000e-06	4.008866e-06	5.515519e-09	2.853302e+01	3.618972e+02
2.050000e-06	3.939179e-06	5.471488e-09	2.803703e+01	3.585415e+02
2.060000e-06	3.868001e-06	5.438916e-09	2.753042e+01	3.551132e+02
2.070000e-06	3.795433e-06	5.419404e-09	2.701392e+01	3.515922e+02
2.080000e-06	3.721623e-06	5.328255e-09	2.648857e+01	3.479593e+02
2.090000e-06	3.646419e-06	5.232165e-09	2.595332e+01	3.442003e+02
2.100000e-06	3.569684e-06	5.185243e-09	2.540716e+01	3.403089e+02
2.110000e-06	3.491353e-06	5.142507e-09	2.484963e+01	3.362875e+02
2.120000e-06	3.411692e-06	5.086518e-09	2.428265e+01	3.321456e+02
2.130000e-06	3.330947e-06	5.013915e-09	2.370795e+01	3.278959e+02
2.140000e-06	3.249039e-06	4.966804e-09	2.312497e+01	3.235512e+02
2.150000e-06	3.166058e-06	4.892517e-09	2.253435e+01	3.191199e+02
2.160000e-06	3.082080e-06	4.813500e-09	2.193664e+01	3.146050e+02
2.170000e-06	2.996959e-06	4.757072e-09	2.133080e+01	3.100030e+02
2.180000e-06	2.910494e-06	4.680784e-09	2.071538e+01	3.053060e+02
2.190000e-06	2.822789e-06	4.585715e-09	2.009114e+01	3.005039e+02
2.200000e-06	2.734119e-06	4.500681e-09	1.946003e+01	2.955872e+02
2.210000e-06	2.644594e-06	4.454312e-09	1.882285e+01	2.905490e+02
2.220000e-06	2.554202e-06	4.396008e-09	1.817948e+01	2.853865e+02
2.230000e-06	2.462945e-06	4.306886e-09	1.752996e+01	2.800999e+02
2.240000e-06	2.370868e-06	4.215753e-09	1.687461e+01	2.746918e+02
2.250000e-06	2.277957e-06	4.129375e-09	1.621331e+01	2.691648e+02
2.260000e-06	2.184240e-06	4.038885e-09	1.554628e+01	2.635202e+02
2.270000e-06	2.089615e-06	3.952559e-09	1.487279e+01	2.577571e+02
2.280000e-06	1.993957e-06	3.873455e-09	1.419195e+01	2.518728e+02
2.290000e-06	1.897559e-06	3.777337e-09	1.350584e+01	2.458633e+02
2.300000e-06	1.800680e-06	3.666678e-09	1.281630e+01	2.397255e+02
2.310000e-06	1.703292e-06	3.564025e-09	1.212315e+01	2.334579e+02
2.320000e-06	1.605335e-06	3.480829e-09	1.142594e+01	2.270620e+02
2.330000e-06	1.506849e-06	3.396261e-09	1.072497e+01	2.205414e+02
2.340000e-06	1.407903e-06	3.295106e-09	1.002072e+01	2.139004e+02
2.350000e-06	1.308527e-06	3.186345e-09	9.313418e+00	2.071428e+02
2.360000e-06	1.208792e-06	3.078317e-09	8.603556e+00	2.002691e+02
2.370000e-06	1.108736e-06	2.971447e-09	7.891405e+00	1.932759e+02
2.380000e-06	1.008373e-06	2.865350e-09	7.177071e+00	1.861550e+02
2.390000e-06	9.076368e-07	2.754968e-09	6.460086e+00	1.788945e+02
2.400000e-06	8.064570e-07	2.635912e-09	5.739942e+00	1.714810e+02
2.410000e-06	7.049725e-07	2.515839e-09	5.017628e+00	1.639013e+02
2.420000e-06	6.032806e-07	2.397770e-09	4.293838e+00	1.561446e+02
2.430000e-06	5.013299e-07	2.284696e-09	3.568205e+00	1.482036e+02
2.440000e-06	3.990895e-07	2.168734e-09	2.840511e+00	1.400747e+02
2.450000e-06	2.966179e-07	2.039104e-09	2.111172e+00	1.317564e+02
2.460000e-06	1.939941e-07	1.900009e-09	1.380749e+00	1.232474e+02
2.470000e-06	9.125104e-08	1.762362e-09	6.494775e-01	1.145449e+02
2.480000e-06	-1.156782e-08	1.630739e-09	-8.233374e-02	1.056426e+02
2.490000e-06	-1.143485e-07	1.498765e-09	-8.138732e-01	9.653093e+01
2.500000e-06	-2.170445e-07	1.356464e-09	-1.544810e+00	8.719740e+01
2.510000e-06	-3.196927e-07	1.205424e-09	-2.275406e+00	7.762904e+01
2.520000e-06	-4.222514e-07	1.055204e-09	-3.005366e+00	6.781460e+01
2.530000e-06	-5.246507e-07	9.052289e-10	-3.734191e+00	5.774676e+01
2.540000e-06	-6.268014e-07	7.545525e-10	-4.461246e+00	4.742334e+01
2.550000e-06	-7.286684e-07	5.999574e-10	-5.186283e+00	3.684714e+01
2.560000e-06	-8.301369e-07	4.351692e-10	-5.908483e+00	2.602452e+01
2.570000e-06	-9.311974e-07	2.617729e-10	-6.627779e+00	1.496316e+01
2.580000e-06	-1.031872e-06	8.738875e-11	-7.344328e+00	3.669773e+00
2.590000e-06	-1.132081e-06	-8.460217e-11	-8.057567e+00	-7.851231e+00
2.600000e-06	-1.231890e-06	-2.611865e-10	-8.767954e+00	-1.959760e+01
2.610000e-06	-1.331312e-06	-4.478122e-10	-9.475584e+00	-3.156724e+01
2.620000e-06	-1.430282e-06	-6.379335e-10	-1.018000e+01	-4.375464e+01
2.630000e-06	-1.528790e-06	-8.277696e-10	-1.088113e+01	-5.614655e+01
2.640000e-06	-1.626761e-06	-1.019384e-09	-1.157844e+01	-6.871797e+01
2.650000e-06	-1.724131e-06	-1.214730e-09	-1.227147e+01	-8.142960e+01
2.660000e-06	-1.820920e-06	-1.414617e-09	-1.296036e+01	-9.422759e+01
2.670000e-06	-1.917179e-06	-1.617127e-09	-1.364548e+01	-1.070460e+02
2.680000e-06	-2.012907e-06	-1.818229e-09	-1.432682e+01	-1.198117e+02
2.690000e-06	-2.107972e-06	-2.012443e-09	-1.500345e+01	-1.324505e+02
2.700000e-06	-2.202091e-06	-2.201469e-09	-1.567334e+01	-1.448941e+02
2.710000e-06	-2.295165e-06	-2.387764e-09	-1.633579e+01	-1.570854e+02
2.720000e-06	-2.387318e-06	-2.571954e-09	-1.699169e+01	-1.689820e+02
2.730000e-06	-2.478633e-06	-2.750447e-09	-1.764162e+01	-1.805570e+02
2.740000e-06	-2.569065e-06	-2.918444e-09	-1.828527e+01	-1.917968e+02
2.750000e-06	-2.658536e-06	-3.080267e-09	-1.892208e+01	-2.026980e+02
2.760000e-06	-2.747111e-06	-3.240163e-09	-1.955251e+01	-2.132621e+02
2.770000e-06	-2.834944e-06	-3.399717e-09	-2.017765e+01	-2.234916e+02
2.780000e-06	-2.921873e-06	-3.556281e-09	-2.079637e+01	-2.333869e+02
2.790000e-06	-3.007587e-06	-3.703449e-09	-2.140644e+01	-2.429448e+02
2.800000e-06	-3.092078e-06	-3.840537e-09	-2.200780e+01	-2.521593e+02
2.810000e-06	-3.175493e-06	-3.971275e-09	-2.260151e+01	-2.610237e+02
2.820000e-06	-3.257911e-06	-4.099325e-09	-2.318812e+01	-2.695328e+02
2.830000e-06	-3.339269e-06	-4.224863e-09	-2.376718e+01	-2.776851e+02
2.840000e-06	-3.419558e-06	-4.346729e-09	-2.433863e+01	-2.854845e+02
2.850000e-06	-3.498667e-06	-4.464079e-09	-2.490169e+01	-2.929402e+02
2.860000e-06	-3.576295e-06	-4.575808e-09	-2.545421e+01	-3.000656e+02
2.870000e-06	-3.652377e-06	-4.681271e-09	-2.599572e+01	-3.068771e+02
2.880000e-06	-3.727070e-06	-4.783367e-09	-2.652735e+01	-3.133918e+02
2.890000e-06	-3.800402e-06	-4.880693e-09	-2.704929e+01	-3.196265e+02
2.900000e-06	-3.872424e-06	-4.969668e-09	-2.756190e+01	-3.255974e+02
2.910000e-06	-3.942973e-06	-5.053278e-09	-2.806403e+01	-3.313195e+02
2.920000e-06	-4.011916e-06	-5.136786e-09	-2.855473e+01	-3.368079e+02
2.930000e-06	-4.079425e-06	-5.219575e-09	-2.903523e+01	-3.420780e+02
2.940000e-06	-4.145525e-06	-5.297414e-09	-2.950569e+01	-3.471455e+02
