# Temperatura_=_66.08
# Concentracion g/m^3_=_15000.0
# C_Vs_to_Am_M_A/Vsm_=_65563218390.804596
# pendiente_HvsI_1/m_=_3716.3
# ordenada_HvsI_A/m_=_1297.0
# frecuencia_Hz_=_301588.8353661406

Tiempo_(s)	Campo_(V.s)	Magnetizacion_(V.s)	Campo_(kA/m)	Magnetizacion_(A/m)
0.000000e+00	-5.382366e-06	-6.896711e-09	-3.834332e+01	-4.506127e+02
1.000000e-08	-5.381039e-06	-6.894086e-09	-3.833387e+01	-4.504657e+02
2.000000e-08	-5.377774e-06	-6.887272e-09	-3.831061e+01	-4.502487e+02
3.000000e-08	-5.372801e-06	-6.882361e-09	-3.827518e+01	-4.499570e+02
4.000000e-08	-5.366230e-06	-6.874050e-09	-3.822837e+01	-4.495798e+02
5.000000e-08	-5.358051e-06	-6.862215e-09	-3.817011e+01	-4.491017e+02
6.000000e-08	-5.347999e-06	-6.851408e-09	-3.809850e+01	-4.485073e+02
7.000000e-08	-5.335889e-06	-6.838129e-09	-3.801223e+01	-4.477853e+02
8.000000e-08	-5.321855e-06	-6.832728e-09	-3.791225e+01	-4.469325e+02
9.000000e-08	-5.305672e-06	-6.854163e-09	-3.779696e+01	-4.459567e+02
1.000000e-07	-5.287198e-06	-6.821100e-09	-3.766536e+01	-4.448764e+02
1.100000e-07	-5.266730e-06	-6.786501e-09	-3.751955e+01	-4.437188e+02
1.200000e-07	-5.244422e-06	-6.776394e-09	-3.736062e+01	-4.425152e+02
1.300000e-07	-5.220556e-06	-6.700124e-09	-3.719061e+01	-4.412942e+02
1.400000e-07	-5.195227e-06	-6.725140e-09	-3.701016e+01	-4.400764e+02
1.500000e-07	-5.168154e-06	-6.773662e-09	-3.681730e+01	-4.388689e+02
1.600000e-07	-5.139473e-06	-6.618360e-09	-3.661298e+01	-4.376632e+02
1.700000e-07	-5.109350e-06	-6.684786e-09	-3.639839e+01	-4.364359e+02
1.800000e-07	-5.077548e-06	-6.694449e-09	-3.617184e+01	-4.351521e+02
1.900000e-07	-5.043632e-06	-6.552079e-09	-3.593022e+01	-4.337722e+02
2.000000e-07	-5.007937e-06	-6.666958e-09	-3.567593e+01	-4.322583e+02
2.100000e-07	-4.970732e-06	-6.581344e-09	-3.541089e+01	-4.305812e+02
2.200000e-07	-4.931753e-06	-6.438156e-09	-3.513321e+01	-4.287252e+02
2.300000e-07	-4.890967e-06	-6.500866e-09	-3.484265e+01	-4.266900e+02
2.400000e-07	-4.848179e-06	-6.462245e-09	-3.453784e+01	-4.244894e+02
2.500000e-07	-4.803536e-06	-6.439876e-09	-3.421981e+01	-4.221474e+02
2.600000e-07	-4.757186e-06	-6.443276e-09	-3.388962e+01	-4.196929e+02
2.700000e-07	-4.708910e-06	-6.323036e-09	-3.354570e+01	-4.171529e+02
2.800000e-07	-4.658527e-06	-6.296089e-09	-3.318678e+01	-4.145474e+02
2.900000e-07	-4.606005e-06	-6.282001e-09	-3.281262e+01	-4.118865e+02
3.000000e-07	-4.551665e-06	-6.245273e-09	-3.242551e+01	-4.091689e+02
3.100000e-07	-4.495830e-06	-6.210739e-09	-3.202775e+01	-4.063842e+02
3.200000e-07	-4.438304e-06	-6.156102e-09	-3.161794e+01	-4.035164e+02
3.300000e-07	-4.378954e-06	-6.081918e-09	-3.119514e+01	-4.005480e+02
3.400000e-07	-4.317998e-06	-6.016856e-09	-3.076089e+01	-3.974645e+02
3.500000e-07	-4.255642e-06	-6.028900e-09	-3.031668e+01	-3.942577e+02
3.600000e-07	-4.192015e-06	-5.970975e-09	-2.986341e+01	-3.909265e+02
3.700000e-07	-4.126865e-06	-5.882562e-09	-2.939928e+01	-3.874767e+02
3.800000e-07	-4.059929e-06	-5.844860e-09	-2.892244e+01	-3.839188e+02
3.900000e-07	-3.991402e-06	-5.790329e-09	-2.843426e+01	-3.802648e+02
4.000000e-07	-3.921571e-06	-5.740849e-09	-2.793680e+01	-3.765253e+02
4.100000e-07	-3.850572e-06	-5.681865e-09	-2.743101e+01	-3.727067e+02
4.200000e-07	-3.778421e-06	-5.616553e-09	-2.691702e+01	-3.688101e+02
4.300000e-07	-3.704837e-06	-5.544067e-09	-2.639281e+01	-3.648315e+02
4.400000e-07	-3.629573e-06	-5.472040e-09	-2.585663e+01	-3.607622e+02
4.500000e-07	-3.552776e-06	-5.433891e-09	-2.530954e+01	-3.565918e+02
4.600000e-07	-3.474633e-06	-5.393864e-09	-2.475286e+01	-3.523097e+02
4.700000e-07	-3.395142e-06	-5.319929e-09	-2.418658e+01	-3.479071e+02
4.800000e-07	-3.314338e-06	-5.216520e-09	-2.361094e+01	-3.433790e+02
4.900000e-07	-3.232316e-06	-5.136330e-09	-2.302663e+01	-3.387237e+02
5.000000e-07	-3.149125e-06	-5.084447e-09	-2.243398e+01	-3.339435e+02
5.100000e-07	-3.064934e-06	-5.011636e-09	-2.183422e+01	-3.290429e+02
5.200000e-07	-2.979846e-06	-4.936806e-09	-2.122806e+01	-3.240279e+02
5.300000e-07	-2.893774e-06	-4.856588e-09	-2.061489e+01	-3.189042e+02
5.400000e-07	-2.806717e-06	-4.765723e-09	-1.999471e+01	-3.136764e+02
5.500000e-07	-2.718796e-06	-4.685587e-09	-1.936837e+01	-3.083467e+02
5.600000e-07	-2.629966e-06	-4.610982e-09	-1.873556e+01	-3.029148e+02
5.700000e-07	-2.539977e-06	-4.529547e-09	-1.809449e+01	-2.973776e+02
5.800000e-07	-2.448846e-06	-4.431657e-09	-1.744528e+01	-2.917297e+02
5.900000e-07	-2.356843e-06	-4.339611e-09	-1.678986e+01	-2.859643e+02
6.000000e-07	-2.264062e-06	-4.257936e-09	-1.612891e+01	-2.800735e+02
6.100000e-07	-2.170479e-06	-4.173278e-09	-1.546223e+01	-2.740500e+02
6.200000e-07	-2.076125e-06	-4.076141e-09	-1.479006e+01	-2.678876e+02
6.300000e-07	-1.981056e-06	-3.973740e-09	-1.411280e+01	-2.615827e+02
6.400000e-07	-1.885361e-06	-3.871289e-09	-1.343108e+01	-2.551344e+02
6.500000e-07	-1.789027e-06	-3.770223e-09	-1.274481e+01	-2.485447e+02
6.600000e-07	-1.691972e-06	-3.677354e-09	-1.205340e+01	-2.418181e+02
6.700000e-07	-1.594161e-06	-3.577935e-09	-1.135661e+01	-2.349605e+02
6.800000e-07	-1.495561e-06	-3.464707e-09	-1.065420e+01	-2.279778e+02
6.900000e-07	-1.396305e-06	-3.343859e-09	-9.947106e+00	-2.208742e+02
7.000000e-07	-1.296607e-06	-3.231387e-09	-9.236874e+00	-2.136509e+02
7.100000e-07	-1.196563e-06	-3.126766e-09	-8.524166e+00	-2.063051e+02
7.200000e-07	-1.096207e-06	-3.018297e-09	-7.809249e+00	-1.988296e+02
7.300000e-07	-9.955685e-07	-2.903508e-09	-7.092309e+00	-1.912140e+02
7.400000e-07	-8.946532e-07	-2.783396e-09	-6.373401e+00	-1.834455e+02
7.500000e-07	-7.934476e-07	-2.659655e-09	-5.652424e+00	-1.755109e+02
7.600000e-07	-6.919404e-07	-2.535875e-09	-4.929299e+00	-1.673983e+02
7.700000e-07	-5.901656e-07	-2.411404e-09	-4.204268e+00	-1.590985e+02
7.800000e-07	-4.881387e-07	-2.280338e-09	-3.477441e+00	-1.506055e+02
7.900000e-07	-3.859843e-07	-2.142841e-09	-2.749706e+00	-1.419163e+02
8.000000e-07	-2.837317e-07	-2.003773e-09	-2.021270e+00	-1.330297e+02
8.100000e-07	-1.813282e-07	-1.869833e-09	-1.291760e+00	-1.239453e+02
8.200000e-07	-7.882893e-08	-1.733625e-09	-5.615678e-01	-1.146612e+02
8.300000e-07	2.371740e-08	-1.587634e-09	1.689599e-01	-1.051735e+02
8.400000e-07	1.262509e-07	-1.434331e-09	8.993959e-01	-9.547579e+01
8.500000e-07	2.287603e-07	-1.277136e-09	1.629660e+00	-8.555930e+01
8.600000e-07	3.311999e-07	-1.120984e-09	2.359428e+00	-7.541441e+01
8.700000e-07	4.335525e-07	-9.647233e-10	3.088575e+00	-6.503202e+01
8.800000e-07	5.357756e-07	-8.042301e-10	3.816801e+00	-5.440496e+01
8.900000e-07	6.378220e-07	-6.352628e-10	4.543767e+00	-4.352890e+01
9.000000e-07	7.396800e-07	-4.613433e-10	5.269391e+00	-3.240253e+01
9.100000e-07	8.412636e-07	-2.858188e-10	5.993060e+00	-2.102693e+01
9.200000e-07	9.425156e-07	-1.084052e-10	6.714367e+00	-9.404541e+00
9.300000e-07	1.043434e-06	7.074206e-11	7.433296e+00	2.461914e+00
9.400000e-07	1.144033e-06	2.543873e-10	8.149955e+00	1.456985e+01
9.500000e-07	1.244342e-06	4.409090e-10	8.864538e+00	2.691627e+01
9.600000e-07	1.344286e-06	6.296244e-10	9.576527e+00	3.949600e+01
9.700000e-07	1.443691e-06	8.203179e-10	1.028468e+01	5.229892e+01
9.800000e-07	1.542439e-06	1.015245e-09	1.098814e+01	6.530665e+01
9.900000e-07	1.640430e-06	1.215106e-09	1.168623e+01	7.848955e+01
1.000000e-06	1.737634e-06	1.417429e-09	1.237869e+01	9.180484e+01
1.010000e-06	1.834140e-06	1.619529e-09	1.306619e+01	1.051965e+02
1.020000e-06	1.929982e-06	1.820132e-09	1.374896e+01	1.185975e+02
1.030000e-06	2.025125e-06	2.019837e-09	1.442674e+01	1.319336e+02
1.040000e-06	2.119531e-06	2.218179e-09	1.509928e+01	1.451295e+02
1.050000e-06	2.213207e-06	2.413554e-09	1.576662e+01	1.581145e+02
1.060000e-06	2.306196e-06	2.604722e-09	1.642906e+01	1.708283e+02
1.070000e-06	2.398527e-06	2.791763e-09	1.708681e+01	1.832250e+02
1.080000e-06	2.490133e-06	2.974377e-09	1.773940e+01	1.952748e+02
1.090000e-06	2.580723e-06	3.152591e-09	1.838476e+01	2.069630e+02
1.100000e-06	2.670052e-06	3.327768e-09	1.902113e+01	2.182875e+02
1.110000e-06	2.758309e-06	3.497381e-09	1.964986e+01	2.292538e+02
1.120000e-06	2.845712e-06	3.660070e-09	2.027250e+01	2.398707e+02
1.130000e-06	2.932222e-06	3.816256e-09	2.088880e+01	2.501456e+02
1.140000e-06	3.017801e-06	3.967920e-09	2.149845e+01	2.600822e+02
1.150000e-06	3.102451e-06	4.115284e-09	2.210149e+01	2.696791e+02
1.160000e-06	3.186145e-06	4.256312e-09	2.269771e+01	2.789304e+02
1.170000e-06	3.268698e-06	4.390051e-09	2.328581e+01	2.878287e+02
1.180000e-06	3.350030e-06	4.517813e-09	2.386521e+01	2.963671e+02
1.190000e-06	3.430162e-06	4.640909e-09	2.443606e+01	3.045420e+02
1.200000e-06	3.509075e-06	4.758062e-09	2.499822e+01	3.123555e+02
1.210000e-06	3.586764e-06	4.871422e-09	2.555167e+01	3.198158e+02
1.220000e-06	3.663227e-06	4.980949e-09	2.609638e+01	3.269370e+02
1.230000e-06	3.738281e-06	5.084427e-09	2.663106e+01	3.337374e+02
1.240000e-06	3.811703e-06	5.180462e-09	2.715411e+01	3.402380e+02
1.250000e-06	3.883619e-06	5.272284e-09	2.766643e+01	3.464608e+02
1.260000e-06	3.954136e-06	5.362783e-09	2.816878e+01	3.524265e+02
1.270000e-06	4.023296e-06	5.451746e-09	2.866147e+01	3.581547e+02
1.280000e-06	4.091147e-06	5.536524e-09	2.914483e+01	3.636624e+02
1.290000e-06	4.157420e-06	5.617425e-09	2.961696e+01	3.689649e+02
1.300000e-06	4.221989e-06	5.695197e-09	3.007694e+01	3.740755e+02
1.310000e-06	4.285049e-06	5.770200e-09	3.052617e+01	3.790055e+02
1.320000e-06	4.346699e-06	5.842838e-09	3.096535e+01	3.837640e+02
1.330000e-06	4.407007e-06	5.912374e-09	3.139498e+01	3.883573e+02
1.340000e-06	4.465759e-06	5.980262e-09	3.181353e+01	3.927886e+02
1.350000e-06	4.522696e-06	6.045305e-09	3.221914e+01	3.970576e+02
1.360000e-06	4.577951e-06	6.107106e-09	3.261277e+01	4.011605e+02
1.370000e-06	4.631539e-06	6.166912e-09	3.299452e+01	4.050914e+02
1.380000e-06	4.683257e-06	6.223369e-09	3.336296e+01	4.088431e+02
1.390000e-06	4.733007e-06	6.275701e-09	3.371737e+01	4.124087e+02
1.400000e-06	4.780937e-06	6.325465e-09	3.405881e+01	4.157835e+02
1.410000e-06	4.827205e-06	6.372737e-09	3.438843e+01	4.189660e+02
1.420000e-06	4.871914e-06	6.416575e-09	3.470693e+01	4.219582e+02
1.430000e-06	4.914945e-06	6.458051e-09	3.501347e+01	4.247658e+02
1.440000e-06	4.956094e-06	6.497583e-09	3.530661e+01	4.273966e+02
1.450000e-06	4.995493e-06	6.534601e-09	3.558728e+01	4.298601e+02
1.460000e-06	5.033235e-06	6.568772e-09	3.585616e+01	4.321652e+02
1.470000e-06	5.069296e-06	6.599547e-09	3.611305e+01	4.343203e+02
1.480000e-06	5.103477e-06	6.627849e-09	3.635655e+01	4.363318e+02
1.490000e-06	5.135766e-06	6.654329e-09	3.658657e+01	4.382050e+02
1.500000e-06	5.166340e-06	6.678994e-09	3.680438e+01	4.399442e+02
1.510000e-06	5.195306e-06	6.702092e-09	3.701073e+01	4.415535e+02
1.520000e-06	5.222558e-06	6.723941e-09	3.720487e+01	4.430369e+02
1.530000e-06	5.247742e-06	6.745286e-09	3.738428e+01	4.443988e+02
1.540000e-06	5.270863e-06	6.765509e-09	3.754899e+01	4.456433e+02
1.550000e-06	5.292211e-06	6.783144e-09	3.770107e+01	4.467734e+02
1.560000e-06	5.311854e-06	6.798698e-09	3.784100e+01	4.477904e+02
1.570000e-06	5.329595e-06	6.812097e-09	3.796739e+01	4.486935e+02
1.580000e-06	5.345337e-06	6.823038e-09	3.807953e+01	4.494801e+02
1.590000e-06	5.359116e-06	6.832833e-09	3.817769e+01	4.501466e+02
1.600000e-06	5.370784e-06	6.842307e-09	3.826082e+01	4.506899e+02
1.610000e-06	5.380235e-06	6.850758e-09	3.832814e+01	4.511093e+02
1.620000e-06	5.387606e-06	6.857255e-09	3.838065e+01	4.514079e+02
1.630000e-06	5.393147e-06	6.861480e-09	3.842012e+01	4.515928e+02
1.640000e-06	5.396931e-06	6.864187e-09	3.844708e+01	4.516747e+02
1.650000e-06	5.398744e-06	6.867748e-09	3.846000e+01	4.516660e+02
1.660000e-06	5.398639e-06	6.868825e-09	3.845925e+01	4.515780e+02
1.670000e-06	5.396818e-06	6.867121e-09	3.844628e+01	4.514184e+02
1.680000e-06	5.393343e-06	6.864728e-09	3.842152e+01	4.511883e+02
1.690000e-06	5.388078e-06	6.859083e-09	3.838402e+01	4.508822e+02
1.700000e-06	5.380901e-06	6.854568e-09	3.833289e+01	4.504879e+02
1.710000e-06	5.372018e-06	6.847972e-09	3.826961e+01	4.499900e+02
1.720000e-06	5.361577e-06	6.839192e-09	3.819522e+01	4.493733e+02
1.730000e-06	5.349300e-06	6.833623e-09	3.810776e+01	4.486276e+02
1.740000e-06	5.334958e-06	6.774611e-09	3.800559e+01	4.477518e+02
1.750000e-06	5.318562e-06	6.776651e-09	3.788879e+01	4.467554e+02
1.760000e-06	5.299730e-06	6.785110e-09	3.775463e+01	4.456590e+02
1.770000e-06	5.278188e-06	6.756396e-09	3.760117e+01	4.444907e+02
1.780000e-06	5.254664e-06	6.816871e-09	3.743359e+01	4.432818e+02
1.790000e-06	5.230117e-06	6.711095e-09	3.725872e+01	4.420601e+02
1.800000e-06	5.204682e-06	6.645770e-09	3.707752e+01	4.408438e+02
1.810000e-06	5.177549e-06	6.756313e-09	3.688423e+01	4.396376e+02
1.820000e-06	5.148225e-06	6.599328e-09	3.667533e+01	4.384299e+02
1.830000e-06	5.117168e-06	6.637848e-09	3.645408e+01	4.371950e+02
1.840000e-06	5.084382e-06	6.736047e-09	3.622052e+01	4.358969e+02
1.850000e-06	5.049798e-06	6.523674e-09	3.597415e+01	4.344955e+02
1.860000e-06	5.013620e-06	6.633826e-09	3.571642e+01	4.329540e+02
1.870000e-06	4.975544e-06	6.688626e-09	3.544517e+01	4.312455e+02
1.880000e-06	4.935666e-06	6.502930e-09	3.516109e+01	4.293569e+02
1.890000e-06	4.894131e-06	6.564462e-09	3.486519e+01	4.272906e+02
1.900000e-06	4.850769e-06	6.450321e-09	3.455629e+01	4.250625e+02
1.910000e-06	4.805656e-06	6.395754e-09	3.423491e+01	4.226982e+02
1.920000e-06	4.758597e-06	6.489464e-09	3.389967e+01	4.202264e+02
1.930000e-06	4.709728e-06	6.337435e-09	3.355153e+01	4.176733e+02
1.940000e-06	4.659330e-06	6.381323e-09	3.319250e+01	4.150573e+02
1.950000e-06	4.606981e-06	6.321510e-09	3.281957e+01	4.123864e+02
1.960000e-06	4.552560e-06	6.192071e-09	3.243189e+01	4.096576e+02
1.970000e-06	4.496295e-06	6.220104e-09	3.203106e+01	4.068592e+02
1.980000e-06	4.438391e-06	6.165732e-09	3.161856e+01	4.039744e+02
1.990000e-06	4.379076e-06	6.167394e-09	3.119601e+01	4.009862e+02
2.000000e-06	4.318191e-06	6.055549e-09	3.076227e+01	3.978810e+02
2.010000e-06	4.255617e-06	6.004798e-09	3.031650e+01	3.946516e+02
2.020000e-06	4.191446e-06	6.015381e-09	2.985935e+01	3.912984e+02
2.030000e-06	4.125798e-06	5.882314e-09	2.939168e+01	3.878283e+02
2.040000e-06	4.058759e-06	5.882837e-09	2.891411e+01	3.842522e+02
2.050000e-06	3.990252e-06	5.833022e-09	2.842607e+01	3.805820e+02
2.060000e-06	3.920188e-06	5.759153e-09	2.792695e+01	3.768278e+02
2.070000e-06	3.848645e-06	5.691712e-09	2.741728e+01	3.729952e+02
2.080000e-06	3.775825e-06	5.621655e-09	2.689852e+01	3.690843e+02
2.090000e-06	3.701708e-06	5.619152e-09	2.637052e+01	3.650899e+02
2.100000e-06	3.626171e-06	5.510285e-09	2.583240e+01	3.610033e+02
2.110000e-06	3.549046e-06	5.422432e-09	2.528298e+01	3.568135e+02
2.120000e-06	3.470409e-06	5.360561e-09	2.472278e+01	3.525102e+02
2.130000e-06	3.390597e-06	5.321660e-09	2.415420e+01	3.480853e+02
2.140000e-06	3.309636e-06	5.264108e-09	2.357744e+01	3.435342e+02
2.150000e-06	3.227555e-06	5.178537e-09	2.299271e+01	3.388562e+02
2.160000e-06	3.144479e-06	5.127965e-09	2.240089e+01	3.340539e+02
2.170000e-06	3.060371e-06	5.017762e-09	2.180171e+01	3.291323e+02
2.180000e-06	2.974963e-06	4.937061e-09	2.119328e+01	3.240972e+02
2.190000e-06	2.888214e-06	4.876773e-09	2.057529e+01	3.189545e+02
2.200000e-06	2.800470e-06	4.807927e-09	1.995021e+01	3.137082e+02
2.210000e-06	2.711842e-06	4.723737e-09	1.931883e+01	3.083601e+02
2.220000e-06	2.622286e-06	4.621101e-09	1.868085e+01	3.029095e+02
2.230000e-06	2.531801e-06	4.544448e-09	1.803624e+01	2.973528e+02
2.240000e-06	2.440513e-06	4.461415e-09	1.738592e+01	2.916844e+02
2.250000e-06	2.348464e-06	4.379274e-09	1.673018e+01	2.858969e+02
2.260000e-06	2.255527e-06	4.290332e-09	1.606810e+01	2.799827e+02
2.270000e-06	2.161650e-06	4.195249e-09	1.539933e+01	2.739346e+02
2.280000e-06	2.066783e-06	4.091894e-09	1.472351e+01	2.677468e+02
2.290000e-06	1.971058e-06	3.999255e-09	1.404158e+01	2.614161e+02
2.300000e-06	1.874653e-06	3.910446e-09	1.335480e+01	2.549421e+02
2.310000e-06	1.777710e-06	3.804030e-09	1.266419e+01	2.483273e+02
2.320000e-06	1.680283e-06	3.692740e-09	1.197013e+01	2.415767e+02
2.330000e-06	1.582303e-06	3.584001e-09	1.127214e+01	2.346962e+02
2.340000e-06	1.483789e-06	3.489193e-09	1.057033e+01	2.276915e+02
2.350000e-06	1.384836e-06	3.391123e-09	9.865403e+00	2.205664e+02
2.360000e-06	1.285560e-06	3.284391e-09	9.158174e+00	2.133213e+02
2.370000e-06	1.186008e-06	3.165863e-09	8.448980e+00	2.059527e+02
2.380000e-06	1.086111e-06	3.037250e-09	7.737321e+00	1.984529e+02
2.390000e-06	9.858527e-07	2.914621e-09	7.023095e+00	1.908108e+02
2.400000e-06	8.851930e-07	2.803892e-09	6.306008e+00	1.830134e+02
2.410000e-06	7.840561e-07	2.692946e-09	5.585521e+00	1.750476e+02
2.420000e-06	6.825403e-07	2.568797e-09	4.862335e+00	1.669020e+02
2.430000e-06	5.807460e-07	2.434700e-09	4.137164e+00	1.585678e+02
2.440000e-06	4.787136e-07	2.301888e-09	3.410298e+00	1.500398e+02
2.450000e-06	3.764770e-07	2.174872e-09	2.681977e+00	1.413152e+02
2.460000e-06	2.740574e-07	2.042583e-09	1.952352e+00	1.323932e+02
2.470000e-06	1.715083e-07	1.903758e-09	1.221804e+00	1.232730e+02
2.480000e-06	6.883766e-08	1.758031e-09	4.903912e-01	1.139528e+02
2.490000e-06	-3.392613e-08	1.609506e-09	-2.416856e-01	1.044280e+02
2.500000e-06	-1.366584e-07	1.465542e-09	-9.735379e-01	9.469163e+01
2.510000e-06	-2.392856e-07	1.320179e-09	-1.704642e+00	8.473487e+01
2.520000e-06	-3.417674e-07	1.166791e-09	-2.434709e+00	7.454802e+01
2.530000e-06	-4.441509e-07	1.004320e-09	-3.164077e+00	6.412219e+01
2.540000e-06	-5.464419e-07	8.390632e-10	-3.892786e+00	5.345070e+01
2.550000e-06	-6.484804e-07	6.766750e-10	-4.619696e+00	4.252976e+01
2.560000e-06	-7.501389e-07	5.148284e-10	-5.343898e+00	3.135856e+01
2.570000e-06	-8.514310e-07	3.450077e-10	-6.065491e+00	1.993851e+01
2.580000e-06	-9.523261e-07	1.642076e-10	-6.784256e+00	8.272145e+00
2.590000e-06	-1.052774e-06	-2.465673e-11	-7.499832e+00	-3.637810e+00
2.600000e-06	-1.152804e-06	-2.159850e-10	-8.212432e+00	-1.578878e+01
2.610000e-06	-1.252429e-06	-4.042241e-10	-8.922154e+00	-2.817753e+01
2.620000e-06	-1.351661e-06	-5.938428e-10	-9.629066e+00	-4.079825e+01
2.630000e-06	-1.450469e-06	-7.909671e-10	-1.033297e+01	-5.363957e+01
2.640000e-06	-1.548815e-06	-9.946913e-10	-1.103357e+01	-6.668131e+01
2.650000e-06	-1.646600e-06	-1.200414e-09	-1.173018e+01	-7.989157e+01
2.660000e-06	-1.743723e-06	-1.406328e-09	-1.242207e+01	-9.322516e+01
2.670000e-06	-1.840234e-06	-1.612672e-09	-1.310960e+01	-1.066239e+02
2.680000e-06	-1.936177e-06	-1.819965e-09	-1.379309e+01	-1.200190e+02
2.690000e-06	-2.031549e-06	-2.028956e-09	-1.447251e+01	-1.333358e+02
2.700000e-06	-2.126291e-06	-2.235818e-09	-1.514744e+01	-1.464991e+02
2.710000e-06	-2.220152e-06	-2.434932e-09	-1.581609e+01	-1.594399e+02
2.720000e-06	-2.312984e-06	-2.626707e-09	-1.647742e+01	-1.721002e+02
2.730000e-06	-2.404842e-06	-2.814526e-09	-1.713180e+01	-1.844369e+02
2.740000e-06	-2.495880e-06	-2.997288e-09	-1.778035e+01	-1.964230e+02
2.750000e-06	-2.586073e-06	-3.174784e-09	-1.842287e+01	-2.080463e+02
2.760000e-06	-2.675300e-06	-3.347340e-09	-1.905852e+01	-2.193065e+02
2.770000e-06	-2.763631e-06	-3.513902e-09	-1.968777e+01	-2.302099e+02
2.780000e-06	-2.851168e-06	-3.674682e-09	-2.031138e+01	-2.407654e+02
2.790000e-06	-2.937806e-06	-3.830397e-09	-2.092857e+01	-2.509801e+02
2.800000e-06	-3.023255e-06	-3.981263e-09	-2.153730e+01	-2.608564e+02
2.810000e-06	-3.107448e-06	-4.125642e-09	-2.213708e+01	-2.703923e+02
2.820000e-06	-3.190571e-06	-4.263022e-09	-2.272924e+01	-2.795814e+02
2.830000e-06	-3.272684e-06	-4.395896e-09	-2.331421e+01	-2.884160e+02
2.840000e-06	-3.353695e-06	-4.526666e-09	-2.389132e+01	-2.968897e+02
2.850000e-06	-3.433603e-06	-4.654759e-09	-2.446057e+01	-3.050000e+02
2.860000e-06	-3.512280e-06	-4.777872e-09	-2.502105e+01	-3.127498e+02
2.870000e-06	-3.589457e-06	-4.893041e-09	-2.557085e+01	-3.201486e+02
2.880000e-06	-3.665186e-06	-5.001473e-09	-2.611034e+01	-3.272112e+02
2.890000e-06	-3.739528e-06	-5.104517e-09	-2.663995e+01	-3.339567e+02
2.900000e-06	-3.812454e-06	-5.202640e-09	-2.715946e+01	-3.404064e+02
2.910000e-06	-3.884079e-06	-5.297525e-09	-2.766970e+01	-3.465819e+02
2.920000e-06	-3.954285e-06	-5.387618e-09	-2.816985e+01	-3.525041e+02
2.930000e-06	-4.022873e-06	-5.473148e-09	-2.865846e+01	-3.581918e+02
2.940000e-06	-4.089988e-06	-5.555893e-09	-2.913658e+01	-3.636620e+02
