# Temperatura_=_75.96
# Concentracion g/m^3_=_15000.0
# C_Vs_to_Am_M_A/Vsm_=_65563218390.804596
# pendiente_HvsI_1/m_=_3716.3
# ordenada_HvsI_A/m_=_1297.0
# frecuencia_Hz_=_301589.9406395593

Tiempo_(s)	Campo_(V.s)	Magnetizacion_(V.s)	Campo_(kA/m)	Magnetizacion_(A/m)
0.000000e+00	-5.380636e-06	-7.595506e-09	-3.834043e+01	-4.965513e+02
1.000000e-08	-5.378040e-06	-7.592388e-09	-3.832193e+01	-4.963223e+02
2.000000e-08	-5.373602e-06	-7.584500e-09	-3.829032e+01	-4.960302e+02
3.000000e-08	-5.367550e-06	-7.576811e-09	-3.824719e+01	-4.956632e+02
4.000000e-08	-5.359933e-06	-7.569576e-09	-3.819291e+01	-4.952000e+02
5.000000e-08	-5.350487e-06	-7.559635e-09	-3.812560e+01	-4.946155e+02
6.000000e-08	-5.338992e-06	-7.546569e-09	-3.804369e+01	-4.938871e+02
7.000000e-08	-5.325613e-06	-7.526078e-09	-3.794837e+01	-4.930018e+02
8.000000e-08	-5.310133e-06	-7.513479e-09	-3.783806e+01	-4.919612e+02
9.000000e-08	-5.292378e-06	-7.551518e-09	-3.771154e+01	-4.907831e+02
1.000000e-07	-5.272601e-06	-7.539449e-09	-3.757062e+01	-4.894991e+02
1.100000e-07	-5.250922e-06	-7.476862e-09	-3.741614e+01	-4.881485e+02
1.200000e-07	-5.227528e-06	-7.445821e-09	-3.724944e+01	-4.867701e+02
1.300000e-07	-5.202657e-06	-7.351863e-09	-3.707222e+01	-4.853935e+02
1.400000e-07	-5.176171e-06	-7.339332e-09	-3.688349e+01	-4.840319e+02
1.500000e-07	-5.147985e-06	-7.450854e-09	-3.668265e+01	-4.826787e+02
1.600000e-07	-5.118322e-06	-7.334916e-09	-3.647128e+01	-4.813076e+02
1.700000e-07	-5.087119e-06	-7.324815e-09	-3.624894e+01	-4.798780e+02
1.800000e-07	-5.053863e-06	-7.382112e-09	-3.601197e+01	-4.783428e+02
1.900000e-07	-5.018674e-06	-7.194099e-09	-3.576122e+01	-4.766574e+02
2.000000e-07	-4.982054e-06	-7.205861e-09	-3.550029e+01	-4.747886e+02
2.100000e-07	-4.943674e-06	-7.243299e-09	-3.522681e+01	-4.727197e+02
2.200000e-07	-4.903464e-06	-7.134933e-09	-3.494028e+01	-4.704528e+02
2.300000e-07	-4.861342e-06	-7.135841e-09	-3.464014e+01	-4.680062e+02
2.400000e-07	-4.817255e-06	-7.082464e-09	-3.432599e+01	-4.654092e+02
2.500000e-07	-4.771480e-06	-7.010128e-09	-3.399982e+01	-4.626943e+02
2.600000e-07	-4.723841e-06	-7.016712e-09	-3.366035e+01	-4.598901e+02
2.700000e-07	-4.674064e-06	-6.962984e-09	-3.330566e+01	-4.570155e+02
2.800000e-07	-4.622176e-06	-6.947135e-09	-3.293593e+01	-4.540773e+02
2.900000e-07	-4.568422e-06	-6.878963e-09	-3.255290e+01	-4.510705e+02
3.000000e-07	-4.513067e-06	-6.783357e-09	-3.215846e+01	-4.479815e+02
3.100000e-07	-4.456076e-06	-6.765386e-09	-3.175236e+01	-4.447933e+02
3.200000e-07	-4.397230e-06	-6.743805e-09	-3.133305e+01	-4.414904e+02
3.300000e-07	-4.336768e-06	-6.688659e-09	-3.090222e+01	-4.380629e+02
3.400000e-07	-4.274896e-06	-6.600740e-09	-3.046134e+01	-4.345080e+02
3.500000e-07	-4.211687e-06	-6.553584e-09	-3.001093e+01	-4.308303e+02
3.600000e-07	-4.147070e-06	-6.507299e-09	-2.955050e+01	-4.270388e+02
3.700000e-07	-4.080725e-06	-6.449515e-09	-2.907775e+01	-4.231435e+02
3.800000e-07	-4.012738e-06	-6.408648e-09	-2.859330e+01	-4.191522e+02
3.900000e-07	-3.943396e-06	-6.329000e-09	-2.809919e+01	-4.150680e+02
4.000000e-07	-3.872844e-06	-6.244161e-09	-2.759646e+01	-4.108884e+02
4.100000e-07	-3.801083e-06	-6.174680e-09	-2.708512e+01	-4.066061e+02
4.200000e-07	-3.727873e-06	-6.124032e-09	-2.656346e+01	-4.022112e+02
4.300000e-07	-3.653040e-06	-6.077369e-09	-2.603022e+01	-3.976940e+02
4.400000e-07	-3.576718e-06	-6.000535e-09	-2.548638e+01	-3.930473e+02
4.500000e-07	-3.498981e-06	-5.914852e-09	-2.493245e+01	-3.882682e+02
4.600000e-07	-3.419796e-06	-5.829349e-09	-2.436821e+01	-3.833578e+02
4.700000e-07	-3.339287e-06	-5.761315e-09	-2.379453e+01	-3.783207e+02
4.800000e-07	-3.257586e-06	-5.698653e-09	-2.321236e+01	-3.731629e+02
4.900000e-07	-3.174767e-06	-5.613915e-09	-2.262222e+01	-3.678895e+02
5.000000e-07	-3.090924e-06	-5.522278e-09	-2.202479e+01	-3.625034e+02
5.100000e-07	-3.006214e-06	-5.427991e-09	-2.142118e+01	-3.570046e+02
5.200000e-07	-2.920563e-06	-5.343899e-09	-2.081086e+01	-3.513899e+02
5.300000e-07	-2.833886e-06	-5.265271e-09	-2.019323e+01	-3.456542e+02
5.400000e-07	-2.746332e-06	-5.183003e-09	-1.956935e+01	-3.397920e+02
5.500000e-07	-2.657849e-06	-5.090079e-09	-1.893885e+01	-3.337986e+02
5.600000e-07	-2.568149e-06	-4.982017e-09	-1.829969e+01	-3.276707e+02
5.700000e-07	-2.477289e-06	-4.881891e-09	-1.765225e+01	-3.214069e+02
5.800000e-07	-2.385569e-06	-4.794739e-09	-1.699869e+01	-3.150068e+02
5.900000e-07	-2.293126e-06	-4.703569e-09	-1.633997e+01	-3.084705e+02
6.000000e-07	-2.199941e-06	-4.591850e-09	-1.567597e+01	-3.017973e+02
6.100000e-07	-2.105936e-06	-4.478645e-09	-1.500613e+01	-2.949854e+02
6.200000e-07	-2.011182e-06	-4.373973e-09	-1.433095e+01	-2.880320e+02
6.300000e-07	-1.915718e-06	-4.269021e-09	-1.365070e+01	-2.809338e+02
6.400000e-07	-1.819532e-06	-4.164234e-09	-1.296531e+01	-2.736880e+02
6.500000e-07	-1.722637e-06	-4.057675e-09	-1.227488e+01	-2.662929e+02
6.600000e-07	-1.625002e-06	-3.940995e-09	-1.157917e+01	-2.587485e+02
6.700000e-07	-1.526645e-06	-3.810645e-09	-1.087831e+01	-2.510559e+02
6.800000e-07	-1.427698e-06	-3.685639e-09	-1.017325e+01	-2.432166e+02
6.900000e-07	-1.328295e-06	-3.570311e-09	-9.464945e+00	-2.352311e+02
7.000000e-07	-1.228444e-06	-3.452426e-09	-8.753439e+00	-2.270977e+02
7.100000e-07	-1.128217e-06	-3.324446e-09	-8.039262e+00	-2.188114e+02
7.200000e-07	-1.027716e-06	-3.190649e-09	-7.323124e+00	-2.103641e+02
7.300000e-07	-9.269599e-07	-3.059001e-09	-6.605176e+00	-2.017453e+02
7.400000e-07	-8.259101e-07	-2.928121e-09	-5.885132e+00	-1.929439e+02
7.500000e-07	-7.245693e-07	-2.794491e-09	-5.163015e+00	-1.839499e+02
7.600000e-07	-6.229513e-07	-2.653375e-09	-4.438922e+00	-1.747559e+02
7.700000e-07	-5.211267e-07	-2.503358e-09	-3.713357e+00	-1.653584e+02
7.800000e-07	-4.191410e-07	-2.349598e-09	-2.986645e+00	-1.557573e+02
7.900000e-07	-3.169600e-07	-2.199469e-09	-2.258540e+00	-1.459545e+02
8.000000e-07	-2.146527e-07	-2.049812e-09	-1.529536e+00	-1.359524e+02
8.100000e-07	-1.122566e-07	-1.895272e-09	-7.998994e-01	-1.257515e+02
8.200000e-07	-9.797896e-09	-1.733416e-09	-6.981621e-02	-1.153486e+02
8.300000e-07	9.269338e-08	-1.565647e-09	6.604990e-01	-1.047363e+02
8.400000e-07	1.951919e-07	-1.397068e-09	1.390866e+00	-9.390354e+01
8.500000e-07	2.976493e-07	-1.229334e-09	2.120940e+00	-8.283660e+01
8.600000e-07	4.000461e-07	-1.059502e-09	2.850582e+00	-7.152168e+01
8.700000e-07	5.023033e-07	-8.820655e-10	3.579229e+00	-5.994678e+01
8.800000e-07	6.044023e-07	-6.971171e-10	4.306749e+00	-4.810320e+01
8.900000e-07	7.063337e-07	-5.098243e-10	5.033074e+00	-3.598602e+01
9.000000e-07	8.079744e-07	-3.222994e-10	5.757329e+00	-2.359357e+01
9.100000e-07	9.092874e-07	-1.325309e-10	6.479248e+00	-1.092610e+01
9.200000e-07	1.010248e-06	6.056130e-11	7.198658e+00	2.015506e+00
9.300000e-07	1.110871e-06	2.586746e-10	7.915655e+00	1.523043e+01
9.400000e-07	1.211220e-06	4.636027e-10	8.630712e+00	2.871736e+01
9.500000e-07	1.311241e-06	6.717150e-10	9.343421e+00	4.247235e+01
9.600000e-07	1.410778e-06	8.813718e-10	1.005268e+01	5.648550e+01
9.700000e-07	1.509742e-06	1.094785e-09	1.075787e+01	7.073692e+01
9.800000e-07	1.608038e-06	1.314166e-09	1.145829e+01	8.519322e+01
9.900000e-07	1.705607e-06	1.538524e-09	1.215353e+01	9.980529e+01
1.000000e-06	1.802446e-06	1.762818e-09	1.284357e+01	1.145086e+02
1.010000e-06	1.898469e-06	1.985144e-09	1.352779e+01	1.292258e+02
1.020000e-06	1.993730e-06	2.203833e-09	1.420659e+01	1.438725e+02
1.030000e-06	2.088344e-06	2.419182e-09	1.488077e+01	1.583633e+02
1.040000e-06	2.182236e-06	2.634090e-09	1.554981e+01	1.726197e+02
1.050000e-06	2.275354e-06	2.846303e-09	1.621333e+01	1.865760e+02
1.060000e-06	2.367769e-06	3.052780e-09	1.687185e+01	2.001831e+02
1.070000e-06	2.459507e-06	3.250058e-09	1.752554e+01	2.134102e+02
1.080000e-06	2.550456e-06	3.440169e-09	1.817361e+01	2.262426e+02
1.090000e-06	2.640330e-06	3.627653e-09	1.881402e+01	2.386784e+02
1.100000e-06	2.729063e-06	3.812032e-09	1.944630e+01	2.507229e+02
1.110000e-06	2.816759e-06	3.990422e-09	2.007119e+01	2.623840e+02
1.120000e-06	2.903506e-06	4.161591e-09	2.068931e+01	2.736683e+02
1.130000e-06	2.989294e-06	4.327115e-09	2.130061e+01	2.845786e+02
1.140000e-06	3.074127e-06	4.488258e-09	2.190510e+01	2.951144e+02
1.150000e-06	3.158092e-06	4.644035e-09	2.250340e+01	3.052731e+02
1.160000e-06	3.241045e-06	4.793233e-09	2.309450e+01	3.150522e+02
1.170000e-06	3.322783e-06	4.936595e-09	2.367693e+01	3.244518e+02
1.180000e-06	3.403238e-06	5.073907e-09	2.425022e+01	3.334757e+02
1.190000e-06	3.482464e-06	5.204449e-09	2.481476e+01	3.421318e+02
1.200000e-06	3.560503e-06	5.329931e-09	2.537084e+01	3.504310e+02
1.210000e-06	3.637378e-06	5.452510e-09	2.591862e+01	3.583856e+02
1.220000e-06	3.712941e-06	5.567853e-09	2.645706e+01	3.660080e+02
1.230000e-06	3.786918e-06	5.674839e-09	2.698419e+01	3.733088e+02
1.240000e-06	3.859245e-06	5.775623e-09	2.749956e+01	3.802974e+02
1.250000e-06	3.930149e-06	5.875671e-09	2.800480e+01	3.869827e+02
1.260000e-06	3.999715e-06	5.975468e-09	2.850050e+01	3.933749e+02
1.270000e-06	4.067974e-06	6.070702e-09	2.898689e+01	3.994868e+02
1.280000e-06	4.134792e-06	6.160262e-09	2.946301e+01	4.053355e+02
1.290000e-06	4.199856e-06	6.245611e-09	2.992663e+01	4.109416e+02
1.300000e-06	4.263321e-06	6.327882e-09	3.037886e+01	4.163285e+02
1.310000e-06	4.325405e-06	6.407041e-09	3.082125e+01	4.215189e+02
1.320000e-06	4.386129e-06	6.484747e-09	3.125395e+01	4.265324e+02
1.330000e-06	4.445463e-06	6.559066e-09	3.167673e+01	4.313824e+02
1.340000e-06	4.503100e-06	6.629009e-09	3.208744e+01	4.360743e+02
1.350000e-06	4.558908e-06	6.696621e-09	3.248510e+01	4.406056e+02
1.360000e-06	4.613098e-06	6.763503e-09	3.287124e+01	4.449677e+02
1.370000e-06	4.665592e-06	6.827457e-09	3.324530e+01	4.491484e+02
1.380000e-06	4.716105e-06	6.887179e-09	3.360523e+01	4.531363e+02
1.390000e-06	4.764625e-06	6.944153e-09	3.395097e+01	4.569234e+02
1.400000e-06	4.811390e-06	6.999239e-09	3.428420e+01	4.605073e+02
1.410000e-06	4.856550e-06	7.051812e-09	3.460599e+01	4.638917e+02
1.420000e-06	4.900148e-06	7.100062e-09	3.491665e+01	4.670848e+02
1.430000e-06	4.941926e-06	7.144644e-09	3.521435e+01	4.700973e+02
1.440000e-06	4.981791e-06	7.186048e-09	3.549841e+01	4.729388e+02
1.450000e-06	5.020018e-06	7.225372e-09	3.577081e+01	4.756162e+02
1.460000e-06	5.056681e-06	7.262931e-09	3.603205e+01	4.781318e+02
1.470000e-06	5.091566e-06	7.299758e-09	3.628063e+01	4.804846e+02
1.480000e-06	5.124482e-06	7.333614e-09	3.651518e+01	4.826714e+02
1.490000e-06	5.155599e-06	7.361303e-09	3.673690e+01	4.846897e+02
1.500000e-06	5.185068e-06	7.386250e-09	3.694689e+01	4.865401e+02
1.510000e-06	5.212871e-06	7.411005e-09	3.714500e+01	4.882278e+02
1.520000e-06	5.238697e-06	7.435434e-09	3.732903e+01	4.897625e+02
1.530000e-06	5.262410e-06	7.458332e-09	3.749800e+01	4.911567e+02
1.540000e-06	5.284260e-06	7.478115e-09	3.765370e+01	4.924228e+02
1.550000e-06	5.304434e-06	7.494857e-09	3.779745e+01	4.935702e+02
1.560000e-06	5.322825e-06	7.510386e-09	3.792850e+01	4.946025e+02
1.570000e-06	5.339173e-06	7.524419e-09	3.804498e+01	4.955172e+02
1.580000e-06	5.353535e-06	7.535784e-09	3.814732e+01	4.963064e+02
1.590000e-06	5.365873e-06	7.545798e-09	3.823524e+01	4.969598e+02
1.600000e-06	5.375974e-06	7.553466e-09	3.830722e+01	4.974688e+02
1.610000e-06	5.383985e-06	7.559567e-09	3.836430e+01	4.978305e+02
1.620000e-06	5.390120e-06	7.565064e-09	3.840801e+01	4.980496e+02
1.630000e-06	5.394521e-06	7.569893e-09	3.843938e+01	4.981394e+02
1.640000e-06	5.397012e-06	7.572084e-09	3.845713e+01	4.981192e+02
1.650000e-06	5.397415e-06	7.574715e-09	3.846000e+01	4.980102e+02
1.660000e-06	5.396048e-06	7.573678e-09	3.845025e+01	4.978299e+02
1.670000e-06	5.393048e-06	7.565626e-09	3.842888e+01	4.975873e+02
1.680000e-06	5.388360e-06	7.560344e-09	3.839547e+01	4.972800e+02
1.690000e-06	5.381758e-06	7.553954e-09	3.834843e+01	4.968940e+02
1.700000e-06	5.373315e-06	7.546434e-09	3.828827e+01	4.964065e+02
1.710000e-06	5.363336e-06	7.540136e-09	3.821716e+01	4.957924e+02
1.720000e-06	5.351674e-06	7.536876e-09	3.813406e+01	4.950305e+02
1.730000e-06	5.338078e-06	7.540466e-09	3.803718e+01	4.941107e+02
1.740000e-06	5.322424e-06	7.459275e-09	3.792564e+01	4.930382e+02
1.750000e-06	5.304425e-06	7.418565e-09	3.779738e+01	4.918339e+02
1.760000e-06	5.283698e-06	7.446827e-09	3.764969e+01	4.905317e+02
1.770000e-06	5.260606e-06	7.428903e-09	3.748515e+01	4.891716e+02
1.780000e-06	5.236227e-06	7.508548e-09	3.731143e+01	4.877911e+02
1.790000e-06	5.211177e-06	7.431643e-09	3.713294e+01	4.864168e+02
1.800000e-06	5.184816e-06	7.268335e-09	3.694510e+01	4.850578e+02
1.810000e-06	5.156183e-06	7.401547e-09	3.674107e+01	4.837031e+02
1.820000e-06	5.125651e-06	7.301794e-09	3.652350e+01	4.823228e+02
1.830000e-06	5.093588e-06	7.215873e-09	3.629503e+01	4.808741e+02
1.840000e-06	5.059568e-06	7.415322e-09	3.605262e+01	4.793097e+02
1.850000e-06	5.023868e-06	7.273665e-09	3.579824e+01	4.775868e+02
1.860000e-06	4.986409e-06	7.223658e-09	3.553132e+01	4.756754e+02
1.870000e-06	4.947003e-06	7.300622e-09	3.525053e+01	4.735628e+02
1.880000e-06	4.905969e-06	7.119934e-09	3.495813e+01	4.712549e+02
1.890000e-06	4.863118e-06	7.181507e-09	3.465280e+01	4.687730e+02
1.900000e-06	4.818659e-06	7.158066e-09	3.433600e+01	4.661476e+02
1.910000e-06	4.772492e-06	7.045351e-09	3.400703e+01	4.634109e+02
1.920000e-06	4.724213e-06	7.110618e-09	3.366301e+01	4.605899e+02
1.930000e-06	4.674307e-06	6.922763e-09	3.330740e+01	4.577011e+02
1.940000e-06	4.622759e-06	6.935187e-09	3.294008e+01	4.547485e+02
1.950000e-06	4.569069e-06	6.984711e-09	3.255750e+01	4.517250e+02
1.960000e-06	4.513344e-06	6.845096e-09	3.216043e+01	4.486157e+02
1.970000e-06	4.455917e-06	6.813757e-09	3.175123e+01	4.454036e+02
1.980000e-06	4.397110e-06	6.708371e-09	3.133219e+01	4.420742e+02
1.990000e-06	4.336869e-06	6.717054e-09	3.090293e+01	4.386188e+02
2.000000e-06	4.274908e-06	6.672937e-09	3.046142e+01	4.350366e+02
2.010000e-06	4.211289e-06	6.573995e-09	3.000810e+01	4.313332e+02
2.020000e-06	4.146151e-06	6.584374e-09	2.954395e+01	4.275181e+02
2.030000e-06	4.079608e-06	6.451121e-09	2.906979e+01	4.236012e+02
2.040000e-06	4.011642e-06	6.399773e-09	2.858549e+01	4.195895e+02
2.050000e-06	3.942180e-06	6.356282e-09	2.809052e+01	4.154848e+02
2.060000e-06	3.871228e-06	6.308914e-09	2.758495e+01	4.112835e+02
2.070000e-06	3.798909e-06	6.263200e-09	2.706963e+01	4.069774e+02
2.080000e-06	3.725325e-06	6.119273e-09	2.654530e+01	4.025566e+02
2.090000e-06	3.650404e-06	6.072834e-09	2.601144e+01	3.980117e+02
2.100000e-06	3.573977e-06	6.011173e-09	2.546685e+01	3.933363e+02
2.110000e-06	3.495879e-06	5.957583e-09	2.491035e+01	3.885283e+02
2.120000e-06	3.416372e-06	5.881041e-09	2.434381e+01	3.835899e+02
2.130000e-06	3.335774e-06	5.784560e-09	2.376950e+01	3.785259e+02
2.140000e-06	3.254059e-06	5.719834e-09	2.318723e+01	3.733424e+02
2.150000e-06	3.171274e-06	5.612482e-09	2.259733e+01	3.680443e+02
2.160000e-06	3.087506e-06	5.550907e-09	2.200043e+01	3.626337e+02
2.170000e-06	3.002597e-06	5.481578e-09	2.139540e+01	3.571100e+02
2.180000e-06	2.916376e-06	5.393526e-09	2.078103e+01	3.514693e+02
2.190000e-06	2.828938e-06	5.280978e-09	2.015797e+01	3.457065e+02
2.200000e-06	2.740502e-06	5.178410e-09	1.952781e+01	3.398161e+02
2.210000e-06	2.651184e-06	5.118608e-09	1.889136e+01	3.337936e+02
2.220000e-06	2.560997e-06	5.032972e-09	1.824872e+01	3.276362e+02
2.230000e-06	2.469940e-06	4.927851e-09	1.759988e+01	3.213427e+02
2.240000e-06	2.378070e-06	4.816973e-09	1.694526e+01	3.149130e+02
2.250000e-06	2.285370e-06	4.722947e-09	1.628471e+01	3.083470e+02
2.260000e-06	2.191808e-06	4.621693e-09	1.561802e+01	3.016437e+02
2.270000e-06	2.097315e-06	4.522660e-09	1.494470e+01	2.948013e+02
2.280000e-06	2.001874e-06	4.424737e-09	1.426462e+01	2.878167e+02
2.290000e-06	1.905664e-06	4.309798e-09	1.357906e+01	2.806866e+02
2.300000e-06	1.808901e-06	4.183150e-09	1.288956e+01	2.734085e+02
2.310000e-06	1.711702e-06	4.063098e-09	1.219696e+01	2.659809e+02
2.320000e-06	1.613933e-06	3.966204e-09	1.150029e+01	2.584041e+02
2.330000e-06	1.515592e-06	3.859521e-09	1.079955e+01	2.506794e+02
2.340000e-06	1.416815e-06	3.734550e-09	1.009571e+01	2.428084e+02
2.350000e-06	1.317623e-06	3.600852e-09	9.388897e+00	2.347910e+02
2.360000e-06	1.218075e-06	3.474273e-09	8.679555e+00	2.266249e+02
2.370000e-06	1.118226e-06	3.353407e-09	7.968069e+00	2.183044e+02
2.380000e-06	1.018076e-06	3.229839e-09	7.254433e+00	2.098208e+02
2.390000e-06	9.175414e-07	3.098549e-09	6.538063e+00	2.011633e+02
2.400000e-06	8.165235e-07	2.956731e-09	5.818247e+00	1.923209e+02
2.410000e-06	7.151430e-07	2.812631e-09	5.095847e+00	1.832841e+02
2.420000e-06	6.134951e-07	2.671440e-09	4.371541e+00	1.740462e+02
2.430000e-06	5.115847e-07	2.536462e-09	3.645365e+00	1.646045e+02
2.440000e-06	4.095333e-07	2.397465e-09	2.918184e+00	1.549595e+02
2.450000e-06	3.073348e-07	2.246061e-09	2.189955e+00	1.451134e+02
2.460000e-06	2.049594e-07	2.086347e-09	1.460465e+00	1.350683e+02
2.470000e-06	1.024575e-07	1.931306e-09	7.300744e-01	1.248240e+02
2.480000e-06	-1.217591e-10	1.780118e-09	-8.676106e-04	1.143766e+02
2.490000e-06	-1.027006e-07	1.622645e-09	-7.318070e-01	1.037176e+02
2.500000e-06	-2.052679e-07	1.454020e-09	-1.462663e+00	9.283537e+01
2.510000e-06	-3.077980e-07	1.278538e-09	-2.193256e+00	8.171595e+01
2.520000e-06	-4.102080e-07	1.104712e-09	-2.922992e+00	7.034577e+01
2.530000e-06	-5.124892e-07	9.303795e-10	-3.651810e+00	5.871343e+01
2.540000e-06	-6.145671e-07	7.529690e-10	-4.379180e+00	4.681104e+01
2.550000e-06	-7.163245e-07	5.690965e-10	-5.104265e+00	3.463446e+01
2.560000e-06	-8.177446e-07	3.752367e-10	-5.826948e+00	2.218254e+01
2.570000e-06	-9.187643e-07	1.743101e-10	-6.546777e+00	9.455787e+00
2.580000e-06	-1.019332e-06	-2.691770e-11	-7.263385e+00	-3.544923e+00
2.590000e-06	-1.119515e-06	-2.273658e-10	-7.977252e+00	-1.681876e+01
2.600000e-06	-1.219350e-06	-4.334520e-10	-8.688637e+00	-3.036408e+01
2.610000e-06	-1.318732e-06	-6.494141e-10	-9.396797e+00	-4.417597e+01
2.620000e-06	-1.417657e-06	-8.708780e-10	-1.010170e+01	-5.824273e+01
2.630000e-06	-1.516157e-06	-1.091982e-09	-1.080358e+01	-7.254185e+01
2.640000e-06	-1.614108e-06	-1.311334e-09	-1.150154e+01	-8.703668e+01
2.650000e-06	-1.711453e-06	-1.532347e-09	-1.219519e+01	-1.016747e+02
2.660000e-06	-1.808226e-06	-1.758395e-09	-1.288476e+01	-1.163883e+02
2.670000e-06	-1.904442e-06	-1.988368e-09	-1.357036e+01	-1.310981e+02
2.680000e-06	-2.000082e-06	-2.216868e-09	-1.425185e+01	-1.457189e+02
2.690000e-06	-2.095044e-06	-2.438110e-09	-1.492852e+01	-1.601662e+02
2.700000e-06	-2.189085e-06	-2.653324e-09	-1.559861e+01	-1.743638e+02
2.710000e-06	-2.282174e-06	-2.866010e-09	-1.626194e+01	-1.882492e+02
2.720000e-06	-2.374367e-06	-3.077461e-09	-1.691887e+01	-2.017774e+02
2.730000e-06	-2.465633e-06	-3.282316e-09	-1.756920e+01	-2.149211e+02
2.740000e-06	-2.556053e-06	-3.476226e-09	-1.821350e+01	-2.276688e+02
2.750000e-06	-2.645530e-06	-3.662140e-09	-1.885108e+01	-2.400206e+02
2.760000e-06	-2.734128e-06	-3.844469e-09	-1.948239e+01	-2.519828e+02
2.770000e-06	-2.822003e-06	-4.025188e-09	-2.010856e+01	-2.635632e+02
2.780000e-06	-2.908934e-06	-4.201009e-09	-2.072800e+01	-2.747676e+02
2.790000e-06	-2.994663e-06	-4.366047e-09	-2.133887e+01	-2.855983e+02
2.800000e-06	-3.079193e-06	-4.520729e-09	-2.194120e+01	-2.960540e+02
2.810000e-06	-3.162632e-06	-4.669547e-09	-2.253575e+01	-3.061320e+02
2.820000e-06	-3.245042e-06	-4.815304e-09	-2.312298e+01	-3.158302e+02
2.830000e-06	-3.326401e-06	-4.958928e-09	-2.370271e+01	-3.251493e+02
2.840000e-06	-3.406742e-06	-5.097798e-09	-2.427519e+01	-3.340941e+02
2.850000e-06	-3.485943e-06	-5.230731e-09	-2.483955e+01	-3.426731e+02
2.860000e-06	-3.563641e-06	-5.357139e-09	-2.539320e+01	-3.508979e+02
2.870000e-06	-3.639760e-06	-5.478181e-09	-2.593559e+01	-3.587808e+02
2.880000e-06	-3.714440e-06	-5.596361e-09	-2.646774e+01	-3.663339e+02
2.890000e-06	-3.787785e-06	-5.708330e-09	-2.699036e+01	-3.735675e+02
2.900000e-06	-3.859881e-06	-5.812581e-09	-2.750410e+01	-3.804908e+02
2.910000e-06	-3.930607e-06	-5.912735e-09	-2.800807e+01	-3.871129e+02
2.920000e-06	-3.999713e-06	-6.009703e-09	-2.850049e+01	-3.934442e+02
2.930000e-06	-4.067295e-06	-6.102441e-09	-2.898205e+01	-3.994987e+02
2.940000e-06	-4.133489e-06	-6.190613e-09	-2.945373e+01	-4.052939e+02
