# Temperatura_=_70.47
# Concentracion g/m^3_=_15000.0
# C_Vs_to_Am_M_A/Vsm_=_65563218390.804596
# pendiente_HvsI_1/m_=_3716.3
# ordenada_HvsI_A/m_=_1297.0
# frecuencia_Hz_=_301577.37871438806

Tiempo_(s)	Campo_(V.s)	Magnetizacion_(V.s)	Campo_(kA/m)	Magnetizacion_(A/m)
0.000000e+00	-5.369563e-06	-7.087818e-09	-3.833917e+01	-4.633681e+02
1.000000e-08	-5.366525e-06	-7.083899e-09	-3.831748e+01	-4.631653e+02
2.000000e-08	-5.361693e-06	-7.076984e-09	-3.828298e+01	-4.629075e+02
3.000000e-08	-5.355277e-06	-7.070886e-09	-3.823717e+01	-4.625796e+02
4.000000e-08	-5.347351e-06	-7.062068e-09	-3.818057e+01	-4.621584e+02
5.000000e-08	-5.337527e-06	-7.051248e-09	-3.811043e+01	-4.616182e+02
6.000000e-08	-5.325575e-06	-7.038432e-09	-3.802509e+01	-4.609387e+02
7.000000e-08	-5.311783e-06	-7.016639e-09	-3.792661e+01	-4.601108e+02
8.000000e-08	-5.295867e-06	-7.026268e-09	-3.781298e+01	-4.591405e+02
9.000000e-08	-5.277656e-06	-7.059923e-09	-3.768295e+01	-4.580494e+02
1.000000e-07	-5.257426e-06	-7.022270e-09	-3.753851e+01	-4.568705e+02
1.100000e-07	-5.235303e-06	-6.969727e-09	-3.738054e+01	-4.556411e+02
1.200000e-07	-5.211623e-06	-6.919885e-09	-3.721147e+01	-4.543943e+02
1.300000e-07	-5.186506e-06	-6.829597e-09	-3.703213e+01	-4.531510e+02
1.400000e-07	-5.159652e-06	-6.918497e-09	-3.684039e+01	-4.519137e+02
1.500000e-07	-5.131113e-06	-6.953544e-09	-3.663662e+01	-4.506656e+02
1.600000e-07	-5.101175e-06	-6.819332e-09	-3.642286e+01	-4.493729e+02
1.700000e-07	-5.069656e-06	-6.891634e-09	-3.619781e+01	-4.479922e+02
1.800000e-07	-5.035908e-06	-6.850053e-09	-3.595684e+01	-4.464787e+02
1.900000e-07	-5.000321e-06	-6.723051e-09	-3.570275e+01	-4.447962e+02
2.000000e-07	-4.963375e-06	-6.781647e-09	-3.543895e+01	-4.429238e+02
2.100000e-07	-4.924657e-06	-6.674207e-09	-3.516250e+01	-4.408595e+02
2.200000e-07	-4.884159e-06	-6.589863e-09	-3.487334e+01	-4.386197e+02
2.300000e-07	-4.841689e-06	-6.666899e-09	-3.457010e+01	-4.362337e+02
2.400000e-07	-4.797279e-06	-6.642025e-09	-3.425301e+01	-4.337369e+02
2.500000e-07	-4.751159e-06	-6.626996e-09	-3.392371e+01	-4.311619e+02
2.600000e-07	-4.703134e-06	-6.555751e-09	-3.358081e+01	-4.285318e+02
2.700000e-07	-4.653051e-06	-6.457462e-09	-3.322321e+01	-4.258558e+02
2.800000e-07	-4.600885e-06	-6.462658e-09	-3.285074e+01	-4.231285e+02
2.900000e-07	-4.546870e-06	-6.435384e-09	-3.246507e+01	-4.203334e+02
3.000000e-07	-4.491341e-06	-6.378447e-09	-3.206859e+01	-4.174479e+02
3.100000e-07	-4.434155e-06	-6.325203e-09	-3.166027e+01	-4.144497e+02
3.200000e-07	-4.375070e-06	-6.267073e-09	-3.123840e+01	-4.113231e+02
3.300000e-07	-4.314374e-06	-6.202252e-09	-3.080503e+01	-4.080619e+02
3.400000e-07	-4.252244e-06	-6.162950e-09	-3.036141e+01	-4.046701e+02
3.500000e-07	-4.188794e-06	-6.154993e-09	-2.990837e+01	-4.011601e+02
3.600000e-07	-4.123905e-06	-6.072998e-09	-2.944506e+01	-3.975483e+02
3.700000e-07	-4.057300e-06	-5.986402e-09	-2.896949e+01	-3.938499e+02
3.800000e-07	-3.989123e-06	-5.950245e-09	-2.848271e+01	-3.900754e+02
3.900000e-07	-3.919585e-06	-5.896831e-09	-2.798620e+01	-3.862274e+02
4.000000e-07	-3.848789e-06	-5.835741e-09	-2.748070e+01	-3.823009e+02
4.100000e-07	-3.776814e-06	-5.757284e-09	-2.696680e+01	-3.782847e+02
4.200000e-07	-3.703464e-06	-5.692982e-09	-2.644307e+01	-3.741651e+02
4.300000e-07	-3.628529e-06	-5.632777e-09	-2.590803e+01	-3.699293e+02
4.400000e-07	-3.552080e-06	-5.578874e-09	-2.536218e+01	-3.655685e+02
4.500000e-07	-3.474235e-06	-5.531715e-09	-2.480636e+01	-3.610796e+02
4.600000e-07	-3.395003e-06	-5.461656e-09	-2.424063e+01	-3.564649e+02
4.700000e-07	-3.314434e-06	-5.363488e-09	-2.366536e+01	-3.517309e+02
4.800000e-07	-3.232636e-06	-5.263354e-09	-2.308131e+01	-3.468852e+02
4.900000e-07	-3.149713e-06	-5.202993e-09	-2.248924e+01	-3.419343e+02
5.000000e-07	-3.065791e-06	-5.142819e-09	-2.189003e+01	-3.368815e+02
5.100000e-07	-2.980981e-06	-5.061152e-09	-2.128448e+01	-3.317264e+02
5.200000e-07	-2.895188e-06	-4.970547e-09	-2.067191e+01	-3.264650e+02
5.300000e-07	-2.808381e-06	-4.879692e-09	-2.005210e+01	-3.210914e+02
5.400000e-07	-2.720761e-06	-4.801445e-09	-1.942648e+01	-3.155997e+02
5.500000e-07	-2.632254e-06	-4.729352e-09	-1.879453e+01	-3.099853e+02
5.600000e-07	-2.542570e-06	-4.643217e-09	-1.815419e+01	-3.042460e+02
5.700000e-07	-2.451718e-06	-4.539675e-09	-1.750549e+01	-2.983815e+02
5.800000e-07	-2.359946e-06	-4.435251e-09	-1.685023e+01	-2.923932e+02
5.900000e-07	-2.267395e-06	-4.344453e-09	-1.618941e+01	-2.862820e+02
6.000000e-07	-2.174050e-06	-4.258911e-09	-1.552292e+01	-2.800480e+02
6.100000e-07	-2.079891e-06	-4.163262e-09	-1.485061e+01	-2.736889e+02
6.200000e-07	-1.985067e-06	-4.059771e-09	-1.417356e+01	-2.672009e+02
6.300000e-07	-1.889638e-06	-3.955164e-09	-1.349219e+01	-2.605792e+02
6.400000e-07	-1.793572e-06	-3.855667e-09	-1.280627e+01	-2.538197e+02
6.500000e-07	-1.696816e-06	-3.761273e-09	-1.211542e+01	-2.469198e+02
6.600000e-07	-1.599345e-06	-3.660025e-09	-1.141947e+01	-2.398798e+02
6.700000e-07	-1.501199e-06	-3.539761e-09	-1.071870e+01	-2.327023e+02
6.800000e-07	-1.402412e-06	-3.410510e-09	-1.001335e+01	-2.253916e+02
6.900000e-07	-1.303098e-06	-3.291088e-09	-9.304238e+00	-2.179518e+02
7.000000e-07	-1.203335e-06	-3.183860e-09	-8.591924e+00	-2.103847e+02
7.100000e-07	-1.103198e-06	-3.074161e-09	-7.876932e+00	-2.026887e+02
7.200000e-07	-1.002800e-06	-2.952181e-09	-7.160081e+00	-1.948577e+02
7.300000e-07	-9.021598e-07	-2.826682e-09	-6.441504e+00	-1.868816e+02
7.400000e-07	-8.012343e-07	-2.701652e-09	-5.720887e+00	-1.787476e+02
7.500000e-07	-6.999904e-07	-2.579086e-09	-4.997996e+00	-1.704417e+02
7.600000e-07	-5.985360e-07	-2.454694e-09	-4.273602e+00	-1.619511e+02
7.700000e-07	-4.969077e-07	-2.319732e-09	-3.547967e+00	-1.532657e+02
7.800000e-07	-3.950446e-07	-2.175319e-09	-2.820655e+00	-1.443783e+02
7.900000e-07	-2.930064e-07	-2.028162e-09	-2.092092e+00	-1.352848e+02
8.000000e-07	-1.908604e-07	-1.885924e-09	-1.362760e+00	-1.259831e+02
8.100000e-07	-8.861658e-08	-1.746460e-09	-6.327305e-01	-1.164711e+02
8.200000e-07	1.366641e-08	-1.599586e-09	9.757940e-02	-1.067460e+02
8.300000e-07	1.159642e-07	-1.441519e-09	8.279950e-01	-9.680357e+01
8.400000e-07	2.182618e-07	-1.280723e-09	1.558409e+00	-8.663782e+01
8.500000e-07	3.204941e-07	-1.122698e-09	2.288357e+00	-7.624222e+01
8.600000e-07	4.226682e-07	-9.645134e-10	3.017890e+00	-6.561075e+01
8.700000e-07	5.246949e-07	-7.983535e-10	3.746370e+00	-5.473899e+01
8.800000e-07	6.265504e-07	-6.231702e-10	4.473628e+00	-4.362470e+01
8.900000e-07	7.281949e-07	-4.458753e-10	5.199378e+00	-3.226759e+01
9.000000e-07	8.295185e-07	-2.674300e-10	5.922838e+00	-2.066828e+01
9.100000e-07	9.305288e-07	-8.728112e-11	6.644061e+00	-8.827049e+00
9.200000e-07	1.031244e-06	9.431727e-11	7.363176e+00	3.257255e+00
9.300000e-07	1.131646e-06	2.791113e-10	8.080060e+00	1.558735e+01
9.400000e-07	1.231704e-06	4.700401e-10	8.794478e+00	2.816624e+01
9.500000e-07	1.331357e-06	6.635947e-10	9.506012e+00	4.099453e+01
9.600000e-07	1.430501e-06	8.574347e-10	1.021391e+01	5.406646e+01
9.700000e-07	1.529104e-06	1.055463e-09	1.091795e+01	6.736576e+01
9.800000e-07	1.627024e-06	1.259304e-09	1.161710e+01	8.086199e+01
9.900000e-07	1.724117e-06	1.468453e-09	1.231036e+01	9.450871e+01
1.000000e-06	1.820423e-06	1.678071e-09	1.299798e+01	1.082440e+02
1.010000e-06	1.916019e-06	1.885200e-09	1.368055e+01	1.219937e+02
1.020000e-06	2.010983e-06	2.089092e-09	1.435860e+01	1.356768e+02
1.030000e-06	2.105302e-06	2.291397e-09	1.503205e+01	1.492126e+02
1.040000e-06	2.198872e-06	2.493146e-09	1.570015e+01	1.625272e+02
1.050000e-06	2.291709e-06	2.690219e-09	1.636301e+01	1.755600e+02
1.060000e-06	2.383827e-06	2.881606e-09	1.702075e+01	1.882664e+02
1.070000e-06	2.475160e-06	3.066598e-09	1.767287e+01	2.006195e+02
1.080000e-06	2.565651e-06	3.247643e-09	1.831898e+01	2.126070e+02
1.090000e-06	2.655073e-06	3.427309e-09	1.895746e+01	2.242281e+02
1.100000e-06	2.743343e-06	3.602792e-09	1.958772e+01	2.354878e+02
1.110000e-06	2.830625e-06	3.770517e-09	2.021092e+01	2.463922e+02
1.120000e-06	2.917011e-06	3.931051e-09	2.082773e+01	2.569455e+02
1.130000e-06	3.002476e-06	4.087056e-09	2.143795e+01	2.671474e+02
1.140000e-06	3.087024e-06	4.237638e-09	2.204163e+01	2.769940e+02
1.150000e-06	3.170658e-06	4.381687e-09	2.263879e+01	2.864794e+02
1.160000e-06	3.253191e-06	4.519142e-09	2.322808e+01	2.955981e+02
1.170000e-06	3.334437e-06	4.652681e-09	2.380818e+01	3.043475e+02
1.180000e-06	3.414409e-06	4.779876e-09	2.437919e+01	3.127294e+02
1.190000e-06	3.493206e-06	4.900142e-09	2.494181e+01	3.207505e+02
1.200000e-06	3.570811e-06	5.016856e-09	2.549592e+01	3.284217e+02
1.210000e-06	3.647168e-06	5.130424e-09	2.604112e+01	3.357570e+02
1.220000e-06	3.722201e-06	5.237137e-09	2.657686e+01	3.427717e+02
1.230000e-06	3.795592e-06	5.336262e-09	2.710087e+01	3.494817e+02
1.240000e-06	3.867395e-06	5.430949e-09	2.761356e+01	3.559024e+02
1.250000e-06	3.937868e-06	5.523862e-09	2.811674e+01	3.620498e+02
1.260000e-06	4.006976e-06	5.614427e-09	2.861018e+01	3.679405e+02
1.270000e-06	4.074777e-06	5.701571e-09	2.909428e+01	3.735928e+02
1.280000e-06	4.141062e-06	5.785866e-09	2.956756e+01	3.790262e+02
1.290000e-06	4.205601e-06	5.866905e-09	3.002838e+01	3.842606e+02
1.300000e-06	4.268605e-06	5.945328e-09	3.047823e+01	3.893146e+02
1.310000e-06	4.330232e-06	6.020591e-09	3.091825e+01	3.942032e+02
1.320000e-06	4.390536e-06	6.092554e-09	3.134883e+01	3.989354e+02
1.330000e-06	4.449422e-06	6.160359e-09	3.176928e+01	4.035130e+02
1.340000e-06	4.506524e-06	6.225822e-09	3.217699e+01	4.079309e+02
1.350000e-06	4.561838e-06	6.290021e-09	3.257194e+01	4.121780e+02
1.360000e-06	4.615508e-06	6.351884e-09	3.295515e+01	4.162409e+02
1.370000e-06	4.667396e-06	6.410627e-09	3.332563e+01	4.201070e+02
1.380000e-06	4.717237e-06	6.466321e-09	3.368150e+01	4.237679e+02
1.390000e-06	4.765169e-06	6.518829e-09	3.402374e+01	4.272221e+02
1.400000e-06	4.811486e-06	6.567398e-09	3.435445e+01	4.304753e+02
1.410000e-06	4.856249e-06	6.614157e-09	3.467406e+01	4.335393e+02
1.420000e-06	4.899456e-06	6.659169e-09	3.498256e+01	4.364294e+02
1.430000e-06	4.940746e-06	6.699980e-09	3.527738e+01	4.391607e+02
1.440000e-06	4.980169e-06	6.736821e-09	3.555887e+01	4.417451e+02
1.450000e-06	5.017998e-06	6.771679e-09	3.582897e+01	4.441889e+02
1.460000e-06	5.054225e-06	6.805360e-09	3.608763e+01	4.464928e+02
1.470000e-06	5.088636e-06	6.836956e-09	3.633332e+01	4.486527e+02
1.480000e-06	5.121098e-06	6.866557e-09	3.656511e+01	4.506631e+02
1.490000e-06	5.151787e-06	6.894846e-09	3.678423e+01	4.525198e+02
1.500000e-06	5.180817e-06	6.921303e-09	3.699151e+01	4.542226e+02
1.510000e-06	5.208153e-06	6.945499e-09	3.718669e+01	4.557767e+02
1.520000e-06	5.233440e-06	6.967116e-09	3.736724e+01	4.571920e+02
1.530000e-06	5.256701e-06	6.986103e-09	3.753332e+01	4.584807e+02
1.540000e-06	5.278206e-06	7.003071e-09	3.768687e+01	4.596545e+02
1.550000e-06	5.298006e-06	7.018145e-09	3.782825e+01	4.607207e+02
1.560000e-06	5.315874e-06	7.032642e-09	3.795583e+01	4.616805e+02
1.570000e-06	5.331685e-06	7.046099e-09	3.806872e+01	4.625289e+02
1.580000e-06	5.345572e-06	7.057026e-09	3.816787e+01	4.632558e+02
1.590000e-06	5.357433e-06	7.067547e-09	3.825256e+01	4.638503e+02
1.600000e-06	5.367077e-06	7.076387e-09	3.832142e+01	4.643048e+02
1.610000e-06	5.374645e-06	7.084060e-09	3.837546e+01	4.646183e+02
1.620000e-06	5.380391e-06	7.090331e-09	3.841648e+01	4.647987e+02
1.630000e-06	5.384386e-06	7.092757e-09	3.844501e+01	4.648623e+02
1.640000e-06	5.386443e-06	7.093888e-09	3.845969e+01	4.648305e+02
1.650000e-06	5.386485e-06	7.095514e-09	3.846000e+01	4.647249e+02
1.660000e-06	5.384790e-06	7.092677e-09	3.844789e+01	4.645619e+02
1.670000e-06	5.381443e-06	7.088334e-09	3.842399e+01	4.643475e+02
1.680000e-06	5.376279e-06	7.084667e-09	3.838712e+01	4.640759e+02
1.690000e-06	5.369173e-06	7.081360e-09	3.833639e+01	4.637298e+02
1.700000e-06	5.360366e-06	7.079037e-09	3.827350e+01	4.632847e+02
1.710000e-06	5.350089e-06	7.076194e-09	3.820013e+01	4.627157e+02
1.720000e-06	5.338133e-06	7.077288e-09	3.811476e+01	4.620043e+02
1.730000e-06	5.324152e-06	7.060904e-09	3.801493e+01	4.611443e+02
1.740000e-06	5.308043e-06	6.974529e-09	3.789992e+01	4.601454e+02
1.750000e-06	5.289526e-06	6.968798e-09	3.776770e+01	4.590320e+02
1.760000e-06	5.268288e-06	6.985719e-09	3.761606e+01	4.578387e+02
1.770000e-06	5.244868e-06	6.999097e-09	3.744884e+01	4.566027e+02
1.780000e-06	5.220301e-06	7.071793e-09	3.727343e+01	4.553551e+02
1.790000e-06	5.195039e-06	6.907706e-09	3.709305e+01	4.541131e+02
1.800000e-06	5.168192e-06	6.858292e-09	3.690136e+01	4.528751e+02
1.810000e-06	5.139017e-06	6.947036e-09	3.669305e+01	4.516203e+02
1.820000e-06	5.108155e-06	6.775006e-09	3.647270e+01	4.503122e+02
1.830000e-06	5.075661e-06	6.827085e-09	3.624068e+01	4.489062e+02
1.840000e-06	5.041224e-06	6.899724e-09	3.599480e+01	4.473587e+02
1.850000e-06	5.005286e-06	6.721678e-09	3.573820e+01	4.456362e+02
1.860000e-06	4.967477e-06	6.828722e-09	3.546824e+01	4.437218e+02
1.870000e-06	4.927773e-06	6.803612e-09	3.518475e+01	4.416176e+02
1.880000e-06	4.886515e-06	6.622836e-09	3.489017e+01	4.393431e+02
1.890000e-06	4.843372e-06	6.659243e-09	3.458212e+01	4.369300e+02
1.900000e-06	4.798638e-06	6.538828e-09	3.426272e+01	4.344135e+02
1.910000e-06	4.752065e-06	6.575592e-09	3.393018e+01	4.318247e+02
1.920000e-06	4.703436e-06	6.606868e-09	3.358296e+01	4.291841e+02
1.930000e-06	4.653253e-06	6.428889e-09	3.322466e+01	4.264976e+02
1.940000e-06	4.601254e-06	6.481506e-09	3.285337e+01	4.237571e+02
1.950000e-06	4.547176e-06	6.405654e-09	3.246725e+01	4.209442e+02
1.960000e-06	4.491195e-06	6.314221e-09	3.206755e+01	4.180358e+02
1.970000e-06	4.433544e-06	6.318735e-09	3.165591e+01	4.150107e+02
1.980000e-06	4.374499e-06	6.264432e-09	3.123433e+01	4.118550e+02
1.990000e-06	4.313940e-06	6.259757e-09	3.080193e+01	4.085647e+02
2.000000e-06	4.251680e-06	6.119228e-09	3.035739e+01	4.051459e+02
2.010000e-06	4.187774e-06	6.104162e-09	2.990109e+01	4.016123e+02
2.020000e-06	4.122352e-06	6.097270e-09	2.943397e+01	3.979803e+02
2.030000e-06	4.055571e-06	5.967263e-09	2.895715e+01	3.942646e+02
2.040000e-06	3.987462e-06	5.958981e-09	2.847084e+01	3.904739e+02
2.050000e-06	3.917886e-06	5.887555e-09	2.797406e+01	3.866094e+02
2.060000e-06	3.846734e-06	5.840218e-09	2.746604e+01	3.826643e+02
2.070000e-06	3.774239e-06	5.762479e-09	2.694841e+01	3.786267e+02
2.080000e-06	3.700513e-06	5.681288e-09	2.642200e+01	3.744828e+02
2.090000e-06	3.625382e-06	5.656000e-09	2.588556e+01	3.702203e+02
2.100000e-06	3.548788e-06	5.546862e-09	2.533867e+01	3.658317e+02
2.110000e-06	3.470550e-06	5.475621e-09	2.478004e+01	3.613150e+02
2.120000e-06	3.390901e-06	5.422079e-09	2.421134e+01	3.566738e+02
2.130000e-06	3.310243e-06	5.381679e-09	2.363544e+01	3.519148e+02
2.140000e-06	3.228460e-06	5.306791e-09	2.305150e+01	3.470456e+02
2.150000e-06	3.145588e-06	5.210302e-09	2.245978e+01	3.420723e+02
2.160000e-06	3.061761e-06	5.131401e-09	2.186126e+01	3.369974e+02
2.170000e-06	2.976772e-06	5.038017e-09	2.125443e+01	3.318194e+02
2.180000e-06	2.890397e-06	4.972696e-09	2.063770e+01	3.265341e+02
2.190000e-06	2.802867e-06	4.890805e-09	2.001273e+01	3.211353e+02
2.200000e-06	2.714452e-06	4.809195e-09	1.938143e+01	3.156172e+02
2.210000e-06	2.625138e-06	4.721507e-09	1.874372e+01	3.099757e+02
2.220000e-06	2.534917e-06	4.631036e-09	1.809954e+01	3.042090e+02
2.230000e-06	2.443879e-06	4.551908e-09	1.744952e+01	2.983175e+02
2.240000e-06	2.352045e-06	4.463539e-09	1.679382e+01	2.923023e+02
2.250000e-06	2.259388e-06	4.376080e-09	1.613224e+01	2.861645e+02
2.260000e-06	2.165886e-06	4.273087e-09	1.546462e+01	2.799035e+02
2.270000e-06	2.071378e-06	4.163186e-09	1.478983e+01	2.735167e+02
2.280000e-06	1.975888e-06	4.060070e-09	1.410802e+01	2.670001e+02
2.290000e-06	1.879706e-06	3.965996e-09	1.342127e+01	2.603488e+02
2.300000e-06	1.783089e-06	3.862642e-09	1.273142e+01	2.535588e+02
2.310000e-06	1.686072e-06	3.750310e-09	1.203871e+01	2.466284e+02
2.320000e-06	1.588438e-06	3.642564e-09	1.134159e+01	2.395582e+02
2.330000e-06	1.490173e-06	3.544026e-09	1.063997e+01	2.323514e+02
2.340000e-06	1.391424e-06	3.445516e-09	9.934896e+00	2.250123e+02
2.350000e-06	1.292289e-06	3.330622e-09	9.227061e+00	2.175447e+02
2.360000e-06	1.192865e-06	3.209155e-09	8.517168e+00	2.099498e+02
2.370000e-06	1.093070e-06	3.083833e-09	7.804619e+00	2.022251e+02
2.380000e-06	9.929400e-07	2.958869e-09	7.089683e+00	1.943636e+02
2.390000e-06	8.924719e-07	2.841722e-09	6.372331e+00	1.863545e+02
2.400000e-06	7.916211e-07	2.725655e-09	5.652247e+00	1.781843e+02
2.410000e-06	6.904427e-07	2.599819e-09	4.929824e+00	1.698394e+02
2.420000e-06	5.889884e-07	2.463430e-09	4.205431e+00	1.613074e+02
2.430000e-06	4.873364e-07	2.328948e-09	3.479627e+00	1.525788e+02
2.440000e-06	3.854889e-07	2.202272e-09	2.752426e+00	1.436471e+02
2.450000e-06	2.835008e-07	2.069494e-09	2.024222e+00	1.345087e+02
2.460000e-06	1.813884e-07	1.922910e-09	1.295130e+00	1.251616e+02
2.470000e-06	7.912640e-08	1.772095e-09	5.649697e-01	1.156038e+02
2.480000e-06	-2.324940e-08	1.621791e-09	-1.660028e-01	1.058322e+02
2.490000e-06	-1.255872e-07	1.472906e-09	-8.967043e-01	9.584203e+01
2.500000e-06	-2.278350e-07	1.322889e-09	-1.626763e+00	8.562715e+01
2.510000e-06	-3.300122e-07	1.167995e-09	-2.356317e+00	7.518106e+01
2.520000e-06	-4.320529e-07	1.006442e-09	-3.084898e+00	6.449797e+01
2.530000e-06	-5.339437e-07	8.369040e-10	-3.812407e+00	5.357393e+01
2.540000e-06	-6.356767e-07	6.662211e-10	-4.538790e+00	4.240716e+01
2.550000e-06	-7.371675e-07	4.981277e-10	-5.263444e+00	3.099766e+01
2.560000e-06	-8.383058e-07	3.231748e-10	-5.985580e+00	1.934610e+01
2.570000e-06	-9.390292e-07	1.369470e-10	-6.704754e+00	7.452519e+00
2.580000e-06	-1.039284e-06	-5.366207e-11	-7.420584e+00	-4.684609e+00
2.590000e-06	-1.139120e-06	-2.440273e-10	-8.133420e+00	-1.706822e+01
2.600000e-06	-1.238590e-06	-4.359727e-10	-8.843646e+00	-2.970108e+01
2.610000e-06	-1.337672e-06	-6.316286e-10	-9.551098e+00	-4.258278e+01
2.620000e-06	-1.436346e-06	-8.341106e-10	-1.025564e+01	-5.570566e+01
2.630000e-06	-1.534522e-06	-1.043005e-09	-1.095663e+01	-6.905067e+01
2.640000e-06	-1.632092e-06	-1.252961e-09	-1.165328e+01	-8.258404e+01
2.650000e-06	-1.729087e-06	-1.462155e-09	-1.234584e+01	-9.625586e+01
2.660000e-06	-1.825591e-06	-1.672804e-09	-1.303488e+01	-1.100012e+02
2.670000e-06	-1.921562e-06	-1.887542e-09	-1.372013e+01	-1.237440e+02
2.680000e-06	-2.016873e-06	-2.103290e-09	-1.440066e+01	-1.374027e+02
2.690000e-06	-2.111412e-06	-2.314468e-09	-1.507567e+01	-1.508973e+02
2.700000e-06	-2.205128e-06	-2.517178e-09	-1.574482e+01	-1.641565e+02
2.710000e-06	-2.297854e-06	-2.711220e-09	-1.640689e+01	-1.771229e+02
2.720000e-06	-2.389572e-06	-2.901961e-09	-1.706176e+01	-1.897558e+02
2.730000e-06	-2.480480e-06	-3.091191e-09	-1.771085e+01	-2.020315e+02
2.740000e-06	-2.570505e-06	-3.275981e-09	-1.835364e+01	-2.139408e+02
2.750000e-06	-2.659618e-06	-3.452248e-09	-1.898992e+01	-2.254843e+02
2.760000e-06	-2.747873e-06	-3.622152e-09	-1.962006e+01	-2.366678e+02
2.770000e-06	-2.835341e-06	-3.789586e-09	-2.024459e+01	-2.474972e+02
2.780000e-06	-2.921919e-06	-3.951106e-09	-2.086277e+01	-2.579757e+02
2.790000e-06	-3.007302e-06	-4.104603e-09	-2.147241e+01	-2.681023e+02
2.800000e-06	-3.091454e-06	-4.249515e-09	-2.207327e+01	-2.778725e+02
2.810000e-06	-3.174528e-06	-4.388293e-09	-2.266642e+01	-2.872802e+02
2.820000e-06	-3.256578e-06	-4.522879e-09	-2.325227e+01	-2.963203e+02
2.830000e-06	-3.337589e-06	-4.656086e-09	-2.383069e+01	-3.049910e+02
2.840000e-06	-3.417547e-06	-4.789721e-09	-2.440160e+01	-3.132953e+02
2.850000e-06	-3.496317e-06	-4.916832e-09	-2.496402e+01	-3.212407e+02
2.860000e-06	-3.573581e-06	-5.033241e-09	-2.551570e+01	-3.288391e+02
2.870000e-06	-3.649263e-06	-5.141776e-09	-2.605608e+01	-3.361049e+02
2.880000e-06	-3.723489e-06	-5.247623e-09	-2.658605e+01	-3.430534e+02
2.890000e-06	-3.796364e-06	-5.350151e-09	-2.710639e+01	-3.497005e+02
2.900000e-06	-3.867995e-06	-5.447142e-09	-2.761784e+01	-3.560617e+02
2.910000e-06	-3.938208e-06	-5.540828e-09	-2.811917e+01	-3.621530e+02
2.920000e-06	-4.006838e-06	-5.629551e-09	-2.860919e+01	-3.679916e+02
2.930000e-06	-4.073991e-06	-5.714093e-09	-2.908867e+01	-3.735957e+02
2.940000e-06	-4.139721e-06	-5.796621e-09	-2.955798e+01	-3.789852e+02
