# Temperatura_=_27.4
# Concentracion g/m^3_=_15000.0
# C_Vs_to_Am_M_A/Vsm_=_65563218390.804596
# pendiente_HvsI_1/m_=_3716.3
# ordenada_HvsI_A/m_=_1297.0
# frecuencia_Hz_=_301598.4450952487

Tiempo_(s)	Campo_(V.s)	Magnetizacion_(V.s)	Campo_(kA/m)	Magnetizacion_(A/m)
0.000000e+00	-5.372246e-06	-5.645442e-09	-3.833524e+01	-3.683402e+02
1.000000e-08	-5.369696e-06	-5.645467e-09	-3.831704e+01	-3.682503e+02
2.000000e-08	-5.365318e-06	-5.638604e-09	-3.828580e+01	-3.681170e+02
3.000000e-08	-5.359355e-06	-5.631127e-09	-3.824325e+01	-3.679329e+02
4.000000e-08	-5.351887e-06	-5.625582e-09	-3.818997e+01	-3.676850e+02
5.000000e-08	-5.342601e-06	-5.618610e-09	-3.812370e+01	-3.673579e+02
6.000000e-08	-5.331194e-06	-5.609102e-09	-3.804230e+01	-3.669386e+02
7.000000e-08	-5.317948e-06	-5.592229e-09	-3.794778e+01	-3.664205e+02
8.000000e-08	-5.302730e-06	-5.580984e-09	-3.783919e+01	-3.658065e+02
9.000000e-08	-5.285222e-06	-5.630618e-09	-3.771426e+01	-3.651091e+02
1.000000e-07	-5.265600e-06	-5.637238e-09	-3.757424e+01	-3.643493e+02
1.100000e-07	-5.244065e-06	-5.583245e-09	-3.742057e+01	-3.635514e+02
1.200000e-07	-5.220772e-06	-5.567592e-09	-3.725436e+01	-3.627383e+02
1.300000e-07	-5.195967e-06	-5.471283e-09	-3.707735e+01	-3.619253e+02
1.400000e-07	-5.169601e-06	-5.439572e-09	-3.688921e+01	-3.611160e+02
1.500000e-07	-5.141554e-06	-5.594716e-09	-3.668907e+01	-3.603007e+02
1.600000e-07	-5.112037e-06	-5.483138e-09	-3.647845e+01	-3.594573e+02
1.700000e-07	-5.081023e-06	-5.452190e-09	-3.625713e+01	-3.585556e+02
1.800000e-07	-5.047945e-06	-5.566021e-09	-3.602110e+01	-3.575632e+02
1.900000e-07	-5.012877e-06	-5.375623e-09	-3.577086e+01	-3.564523e+02
2.000000e-07	-4.976344e-06	-5.371317e-09	-3.551017e+01	-3.552052e+02
2.100000e-07	-4.938105e-06	-5.449126e-09	-3.523730e+01	-3.538177e+02
2.200000e-07	-4.898072e-06	-5.322420e-09	-3.495164e+01	-3.522993e+02
2.300000e-07	-4.856146e-06	-5.324207e-09	-3.465246e+01	-3.506706e+02
2.400000e-07	-4.812225e-06	-5.331589e-09	-3.433905e+01	-3.489579e+02
2.500000e-07	-4.766590e-06	-5.272976e-09	-3.401341e+01	-3.471868e+02
2.600000e-07	-4.719083e-06	-5.285159e-09	-3.367440e+01	-3.453767e+02
2.700000e-07	-4.669561e-06	-5.231529e-09	-3.332102e+01	-3.435364e+02
2.800000e-07	-4.617974e-06	-5.216821e-09	-3.295291e+01	-3.416628e+02
2.900000e-07	-4.564391e-06	-5.188254e-09	-3.257056e+01	-3.397425e+02
3.000000e-07	-4.509184e-06	-5.124769e-09	-3.217661e+01	-3.377560e+02
3.100000e-07	-4.452357e-06	-5.115718e-09	-3.177110e+01	-3.356828e+02
3.200000e-07	-4.393695e-06	-5.106359e-09	-3.135250e+01	-3.335069e+02
3.300000e-07	-4.333447e-06	-5.064724e-09	-3.092258e+01	-3.312201e+02
3.400000e-07	-4.271774e-06	-4.978152e-09	-3.048250e+01	-3.288243e+02
3.500000e-07	-4.208706e-06	-4.954562e-09	-3.003246e+01	-3.263299e+02
3.600000e-07	-4.144209e-06	-4.949643e-09	-2.957222e+01	-3.237531e+02
3.700000e-07	-4.078062e-06	-4.897864e-09	-2.910021e+01	-3.211110e+02
3.800000e-07	-4.010317e-06	-4.865247e-09	-2.861680e+01	-3.184172e+02
3.900000e-07	-3.941161e-06	-4.821652e-09	-2.812331e+01	-3.156787e+02
4.000000e-07	-3.870732e-06	-4.760050e-09	-2.762075e+01	-3.128938e+02
4.100000e-07	-3.799111e-06	-4.703448e-09	-2.710968e+01	-3.100534e+02
4.200000e-07	-3.726170e-06	-4.670182e-09	-2.658918e+01	-3.071432e+02
4.300000e-07	-3.651616e-06	-4.646001e-09	-2.605718e+01	-3.041473e+02
4.400000e-07	-3.575465e-06	-4.592364e-09	-2.551378e+01	-3.010523e+02
4.500000e-07	-3.497987e-06	-4.538397e-09	-2.496092e+01	-2.978502e+02
4.600000e-07	-3.419157e-06	-4.485502e-09	-2.439840e+01	-2.945392e+02
4.700000e-07	-3.338940e-06	-4.438346e-09	-2.382599e+01	-2.911239e+02
4.800000e-07	-3.257458e-06	-4.390477e-09	-2.324455e+01	-2.876129e+02
4.900000e-07	-3.174784e-06	-4.325143e-09	-2.265461e+01	-2.840158e+02
5.000000e-07	-3.091041e-06	-4.269578e-09	-2.205703e+01	-2.803407e+02
5.100000e-07	-3.006435e-06	-4.211300e-09	-2.145331e+01	-2.765911e+02
5.200000e-07	-2.920960e-06	-4.151300e-09	-2.084337e+01	-2.727655e+02
5.300000e-07	-2.834481e-06	-4.093978e-09	-2.022627e+01	-2.688577e+02
5.400000e-07	-2.747071e-06	-4.034652e-09	-1.960253e+01	-2.648583e+02
5.500000e-07	-2.658772e-06	-3.969834e-09	-1.897245e+01	-2.607571e+02
5.600000e-07	-2.569367e-06	-3.895624e-09	-1.833448e+01	-2.565453e+02
5.700000e-07	-2.478712e-06	-3.829803e-09	-1.768758e+01	-2.522176e+02
5.800000e-07	-2.387053e-06	-3.772418e-09	-1.703352e+01	-2.477725e+02
5.900000e-07	-2.294715e-06	-3.710895e-09	-1.637461e+01	-2.432123e+02
6.000000e-07	-2.201646e-06	-3.632302e-09	-1.571049e+01	-2.385418e+02
6.100000e-07	-2.107716e-06	-3.551798e-09	-1.504023e+01	-2.337665e+02
6.200000e-07	-2.013034e-06	-3.476919e-09	-1.436460e+01	-2.288911e+02
6.300000e-07	-1.917689e-06	-3.401292e-09	-1.368423e+01	-2.239181e+02
6.400000e-07	-1.821776e-06	-3.327844e-09	-1.299982e+01	-2.188473e+02
6.500000e-07	-1.725175e-06	-3.252884e-09	-1.231049e+01	-2.136762e+02
6.600000e-07	-1.627714e-06	-3.171409e-09	-1.161504e+01	-2.084001e+02
6.700000e-07	-1.529505e-06	-3.080186e-09	-1.091423e+01	-2.030135e+02
6.800000e-07	-1.430663e-06	-2.991883e-09	-1.020891e+01	-1.975108e+02
6.900000e-07	-1.331357e-06	-2.910566e-09	-9.500287e+00	-1.918865e+02
7.000000e-07	-1.231683e-06	-2.826546e-09	-8.789039e+00	-1.861357e+02
7.100000e-07	-1.131632e-06	-2.735074e-09	-8.075095e+00	-1.802538e+02
7.200000e-07	-1.031318e-06	-2.639203e-09	-7.359272e+00	-1.742365e+02
7.300000e-07	-9.307673e-07	-2.542605e-09	-6.641764e+00	-1.680797e+02
7.400000e-07	-8.299215e-07	-2.446856e-09	-5.922149e+00	-1.617792e+02
7.500000e-07	-7.287628e-07	-2.351934e-09	-5.200302e+00	-1.553318e+02
7.600000e-07	-6.273016e-07	-2.253766e-09	-4.476295e+00	-1.487350e+02
7.700000e-07	-5.255914e-07	-2.150617e-09	-3.750512e+00	-1.419874e+02
7.800000e-07	-4.236731e-07	-2.043770e-09	-3.023244e+00	-1.350892e+02
7.900000e-07	-3.216467e-07	-1.936543e-09	-2.295204e+00	-1.280407e+02
8.000000e-07	-2.195054e-07	-1.829188e-09	-1.566345e+00	-1.208423e+02
8.100000e-07	-1.172222e-07	-1.720346e-09	-8.364732e-01	-1.134924e+02
8.200000e-07	-1.485031e-08	-1.606834e-09	-1.059687e-01	-1.059868e+02
8.300000e-07	8.757599e-08	-1.487535e-09	6.249242e-01	-9.831814e+01
8.400000e-07	1.899512e-07	-1.367008e-09	1.355453e+00	-9.047522e+01
8.500000e-07	2.922817e-07	-1.248193e-09	2.085662e+00	-8.244444e+01
8.600000e-07	3.945421e-07	-1.127607e-09	2.815372e+00	-7.421107e+01
8.700000e-07	4.966630e-07	-9.978175e-10	3.544085e+00	-6.576117e+01
8.800000e-07	5.985970e-07	-8.612102e-10	4.271465e+00	-5.708347e+01
8.900000e-07	7.003194e-07	-7.234664e-10	4.997335e+00	-4.817078e+01
9.000000e-07	8.018175e-07	-5.848103e-10	5.721605e+00	-3.902055e+01
9.100000e-07	9.030023e-07	-4.434487e-10	6.443639e+00	-2.963466e+01
9.200000e-07	1.003833e-06	-2.983175e-10	7.163145e+00	-2.001836e+01
9.300000e-07	1.104298e-06	-1.483573e-10	7.880047e+00	-1.017909e+01
9.400000e-07	1.204481e-06	8.252243e-12	8.594925e+00	-1.252781e-01
9.500000e-07	1.304374e-06	1.674470e-10	9.307748e+00	1.013409e+01
9.600000e-07	1.403883e-06	3.260595e-10	1.001782e+01	2.058909e+01
9.700000e-07	1.502840e-06	4.860375e-10	1.072395e+01	3.122755e+01
9.800000e-07	1.601011e-06	6.511234e-10	1.142449e+01	4.203319e+01
9.900000e-07	1.698322e-06	8.217950e-10	1.211888e+01	5.298365e+01
1.000000e-06	1.794813e-06	9.934615e-10	1.280741e+01	6.404905e+01
1.010000e-06	1.890620e-06	1.164386e-09	1.349107e+01	7.519165e+01
1.020000e-06	1.985793e-06	1.334432e-09	1.417021e+01	8.636680e+01
1.030000e-06	2.080298e-06	1.504320e-09	1.484458e+01	9.752523e+01
1.040000e-06	2.174065e-06	1.675124e-09	1.551368e+01	1.086162e+02
1.050000e-06	2.267059e-06	1.844072e-09	1.617727e+01	1.195911e+02
1.060000e-06	2.359387e-06	2.009828e-09	1.683610e+01	1.304063e+02
1.070000e-06	2.451108e-06	2.170420e-09	1.749060e+01	1.410255e+02
1.080000e-06	2.542028e-06	2.328089e-09	1.813939e+01	1.514198e+02
1.090000e-06	2.631727e-06	2.485090e-09	1.877946e+01	1.615675e+02
1.100000e-06	2.720169e-06	2.638826e-09	1.941057e+01	1.714519e+02
1.110000e-06	2.807681e-06	2.785753e-09	2.003503e+01	1.810589e+02
1.120000e-06	2.894366e-06	2.926240e-09	2.065360e+01	1.903749e+02
1.130000e-06	2.980152e-06	3.062046e-09	2.126575e+01	1.993857e+02
1.140000e-06	3.064990e-06	3.192958e-09	2.187114e+01	2.080761e+02
1.150000e-06	3.148913e-06	3.319117e-09	2.246999e+01	2.164316e+02
1.160000e-06	3.231864e-06	3.440933e-09	2.306192e+01	2.244399e+02
1.170000e-06	3.313559e-06	3.555493e-09	2.364488e+01	2.320939e+02
1.180000e-06	3.393985e-06	3.664130e-09	2.421878e+01	2.393933e+02
1.190000e-06	3.473223e-06	3.767976e-09	2.478420e+01	2.463462e+02
1.200000e-06	3.551207e-06	3.867731e-09	2.534068e+01	2.529688e+02
1.210000e-06	3.628017e-06	3.965662e-09	2.588878e+01	2.592839e+02
1.220000e-06	3.703556e-06	4.058651e-09	2.642782e+01	2.653184e+02
1.230000e-06	3.777465e-06	4.145887e-09	2.695521e+01	2.711002e+02
1.240000e-06	3.849680e-06	4.226895e-09	2.747053e+01	2.766555e+02
1.250000e-06	3.920499e-06	4.307093e-09	2.797588e+01	2.820060e+02
1.260000e-06	3.989996e-06	4.387996e-09	2.847179e+01	2.871677e+02
1.270000e-06	4.058191e-06	4.465290e-09	2.895842e+01	2.921506e+02
1.280000e-06	4.124992e-06	4.537372e-09	2.943510e+01	2.969596e+02
1.290000e-06	4.190115e-06	4.605256e-09	2.989980e+01	3.015955e+02
1.300000e-06	4.253635e-06	4.670582e-09	3.035306e+01	3.060569e+02
1.310000e-06	4.315695e-06	4.735870e-09	3.079591e+01	3.103415e+02
1.320000e-06	4.376365e-06	4.800610e-09	3.122884e+01	3.144474e+02
1.330000e-06	4.435722e-06	4.859778e-09	3.165240e+01	3.183736e+02
1.340000e-06	4.493384e-06	4.913116e-09	3.206387e+01	3.221199e+02
1.350000e-06	4.549220e-06	4.965448e-09	3.246230e+01	3.256875e+02
1.360000e-06	4.603423e-06	5.017457e-09	3.284908e+01	3.290782e+02
1.370000e-06	4.655915e-06	5.064264e-09	3.322365e+01	3.322946e+02
1.380000e-06	4.706409e-06	5.105868e-09	3.358396e+01	3.353400e+02
1.390000e-06	4.754866e-06	5.147163e-09	3.392975e+01	3.382183e+02
1.400000e-06	4.801595e-06	5.187519e-09	3.426320e+01	3.409340e+02
1.410000e-06	4.846749e-06	5.224977e-09	3.458540e+01	3.434920e+02
1.420000e-06	4.890435e-06	5.260681e-09	3.489714e+01	3.458973e+02
1.430000e-06	4.932286e-06	5.293373e-09	3.519578e+01	3.481549e+02
1.440000e-06	4.972188e-06	5.322497e-09	3.548051e+01	3.502690e+02
1.450000e-06	5.010448e-06	5.347923e-09	3.575353e+01	3.522435e+02
1.460000e-06	5.047124e-06	5.372593e-09	3.601524e+01	3.540818e+02
1.470000e-06	5.082136e-06	5.398828e-09	3.626508e+01	3.557876e+02
1.480000e-06	5.115193e-06	5.422703e-09	3.650097e+01	3.573655e+02
1.490000e-06	5.146395e-06	5.443136e-09	3.672362e+01	3.588215e+02
1.500000e-06	5.175946e-06	5.461756e-09	3.693448e+01	3.601634e+02
1.510000e-06	5.203822e-06	5.480587e-09	3.713340e+01	3.614002e+02
1.520000e-06	5.229657e-06	5.499481e-09	3.731776e+01	3.625418e+02
1.530000e-06	5.253389e-06	5.516345e-09	3.748710e+01	3.635967e+02
1.540000e-06	5.275351e-06	5.530479e-09	3.764382e+01	3.645712e+02
1.550000e-06	5.295623e-06	5.541752e-09	3.778848e+01	3.654677e+02
1.560000e-06	5.314030e-06	5.551653e-09	3.791982e+01	3.662846e+02
1.570000e-06	5.330375e-06	5.561761e-09	3.803646e+01	3.670161e+02
1.580000e-06	5.344753e-06	5.572055e-09	3.813906e+01	3.676544e+02
1.590000e-06	5.357251e-06	5.581453e-09	3.822824e+01	3.681914e+02
1.600000e-06	5.367576e-06	5.588961e-09	3.830192e+01	3.686219e+02
1.610000e-06	5.375716e-06	5.595763e-09	3.836001e+01	3.689453e+02
1.620000e-06	5.381971e-06	5.602215e-09	3.840464e+01	3.691669e+02
1.630000e-06	5.386486e-06	5.607057e-09	3.843686e+01	3.692976e+02
1.640000e-06	5.389132e-06	5.608508e-09	3.845574e+01	3.693520e+02
1.650000e-06	5.389729e-06	5.610915e-09	3.846000e+01	3.693450e+02
1.660000e-06	5.388496e-06	5.611760e-09	3.845120e+01	3.692889e+02
1.670000e-06	5.385575e-06	5.608503e-09	3.843036e+01	3.691898e+02
1.680000e-06	5.381008e-06	5.607936e-09	3.839777e+01	3.690463e+02
1.690000e-06	5.374533e-06	5.605389e-09	3.835156e+01	3.688496e+02
1.700000e-06	5.366211e-06	5.602767e-09	3.829218e+01	3.685859e+02
1.710000e-06	5.356346e-06	5.602490e-09	3.822178e+01	3.682398e+02
1.720000e-06	5.344822e-06	5.604602e-09	3.813955e+01	3.677995e+02
1.730000e-06	5.331382e-06	5.616741e-09	3.804364e+01	3.672601e+02
1.740000e-06	5.315868e-06	5.544868e-09	3.793294e+01	3.666267e+02
1.750000e-06	5.298064e-06	5.503052e-09	3.780590e+01	3.659139e+02
1.760000e-06	5.277562e-06	5.541083e-09	3.765960e+01	3.651436e+02
1.770000e-06	5.254614e-06	5.528417e-09	3.749584e+01	3.643406e+02
1.780000e-06	5.230273e-06	5.624525e-09	3.732215e+01	3.635264e+02
1.790000e-06	5.205277e-06	5.575893e-09	3.714379e+01	3.627142e+02
1.800000e-06	5.179021e-06	5.389952e-09	3.695643e+01	3.619048e+02
1.810000e-06	5.150514e-06	5.534968e-09	3.675301e+01	3.610855e+02
1.820000e-06	5.120073e-06	5.459423e-09	3.653579e+01	3.602322e+02
1.830000e-06	5.088084e-06	5.339185e-09	3.630752e+01	3.593136e+02
1.840000e-06	5.054165e-06	5.572574e-09	3.606548e+01	3.582977e+02
1.850000e-06	5.018603e-06	5.458265e-09	3.581172e+01	3.571586e+02
1.860000e-06	4.981361e-06	5.369803e-09	3.554597e+01	3.558811e+02
1.870000e-06	4.942128e-06	5.504495e-09	3.526601e+01	3.544641e+02
1.880000e-06	4.901259e-06	5.342447e-09	3.497437e+01	3.529199e+02
1.890000e-06	4.858587e-06	5.346086e-09	3.466988e+01	3.512708e+02
1.900000e-06	4.814147e-06	5.349775e-09	3.435276e+01	3.495434e+02
1.910000e-06	4.768017e-06	5.261999e-09	3.402359e+01	3.477625e+02
1.920000e-06	4.719864e-06	5.356485e-09	3.367998e+01	3.459455e+02
1.930000e-06	4.670059e-06	5.198062e-09	3.332458e+01	3.440985e+02
1.940000e-06	4.618601e-06	5.200647e-09	3.295738e+01	3.422161e+02
1.950000e-06	4.565048e-06	5.276254e-09	3.257524e+01	3.402832e+02
1.960000e-06	4.509526e-06	5.138834e-09	3.217905e+01	3.382797e+02
1.970000e-06	4.452269e-06	5.117980e-09	3.177048e+01	3.361855e+02
1.980000e-06	4.393556e-06	5.058800e-09	3.135151e+01	3.339860e+02
1.990000e-06	4.333425e-06	5.087323e-09	3.092243e+01	3.316752e+02
2.000000e-06	4.271660e-06	5.055482e-09	3.048169e+01	3.292570e+02
2.010000e-06	4.208246e-06	4.948419e-09	3.002918e+01	3.267434e+02
2.020000e-06	4.143317e-06	4.993285e-09	2.956586e+01	3.241510e+02
2.030000e-06	4.076985e-06	4.891353e-09	2.909253e+01	3.214967e+02
2.040000e-06	4.009199e-06	4.835407e-09	2.860882e+01	3.187929e+02
2.050000e-06	3.939945e-06	4.835493e-09	2.811464e+01	3.160447e+02
2.060000e-06	3.869176e-06	4.811246e-09	2.760965e+01	3.132488e+02
2.070000e-06	3.796958e-06	4.779105e-09	2.709431e+01	3.103946e+02
2.080000e-06	3.723416e-06	4.658283e-09	2.656953e+01	3.074671e+02
2.090000e-06	3.648534e-06	4.632913e-09	2.603519e+01	3.044509e+02
2.100000e-06	3.572315e-06	4.598873e-09	2.549130e+01	3.013333e+02
2.110000e-06	3.494514e-06	4.552760e-09	2.493614e+01	2.981075e+02
2.120000e-06	3.415214e-06	4.500480e-09	2.437026e+01	2.947735e+02
2.130000e-06	3.334811e-06	4.441883e-09	2.379652e+01	2.913367e+02
2.140000e-06	3.253300e-06	4.412474e-09	2.321488e+01	2.878063e+02
2.150000e-06	3.170692e-06	4.328172e-09	2.262541e+01	2.841919e+02
2.160000e-06	3.087080e-06	4.284670e-09	2.202876e+01	2.805005e+02
2.170000e-06	3.002392e-06	4.241435e-09	2.142445e+01	2.767348e+02
2.180000e-06	2.916386e-06	4.175433e-09	2.081073e+01	2.728921e+02
2.190000e-06	2.829079e-06	4.097752e-09	2.018773e+01	2.689654e+02
2.200000e-06	2.740830e-06	4.030219e-09	1.955800e+01	2.649448e+02
2.210000e-06	2.651722e-06	3.998475e-09	1.892214e+01	2.608204e+02
2.220000e-06	2.561684e-06	3.936348e-09	1.827965e+01	2.565840e+02
2.230000e-06	2.470747e-06	3.855511e-09	1.763075e+01	2.522309e+02
2.240000e-06	2.379068e-06	3.778375e-09	1.697654e+01	2.477607e+02
2.250000e-06	2.286588e-06	3.719006e-09	1.631662e+01	2.431763e+02
2.260000e-06	2.193256e-06	3.649135e-09	1.565062e+01	2.384828e+02
2.270000e-06	2.098998e-06	3.575859e-09	1.497802e+01	2.336855e+02
2.280000e-06	2.003709e-06	3.505187e-09	1.429805e+01	2.287889e+02
2.290000e-06	1.907610e-06	3.421947e-09	1.361231e+01	2.237949e+02
2.300000e-06	1.810949e-06	3.332768e-09	1.292256e+01	2.187028e+02
2.310000e-06	1.713822e-06	3.249564e-09	1.222948e+01	2.135094e+02
2.320000e-06	1.616145e-06	3.186787e-09	1.153248e+01	2.082100e+02
2.330000e-06	1.517932e-06	3.115741e-09	1.083165e+01	2.027989e+02
2.340000e-06	1.419241e-06	3.027212e-09	1.012741e+01	1.972704e+02
2.350000e-06	1.320062e-06	2.933123e-09	9.419694e+00	1.916192e+02
2.360000e-06	1.220508e-06	2.845039e-09	8.709296e+00	1.858405e+02
2.370000e-06	1.120776e-06	2.758764e-09	7.997628e+00	1.799299e+02
2.380000e-06	1.020824e-06	2.668680e-09	7.284390e+00	1.738829e+02
2.390000e-06	9.204969e-07	2.573733e-09	6.568477e+00	1.676954e+02
2.400000e-06	8.198102e-07	2.472527e-09	5.849997e+00	1.613636e+02
2.410000e-06	7.187523e-07	2.371147e-09	5.128869e+00	1.548842e+02
2.420000e-06	6.173857e-07	2.269780e-09	4.405537e+00	1.482550e+02
2.430000e-06	5.157734e-07	2.170950e-09	3.680453e+00	1.414750e+02
2.440000e-06	4.139057e-07	2.068428e-09	2.953546e+00	1.345443e+02
2.450000e-06	3.118139e-07	1.957201e-09	2.225040e+00	1.274636e+02
2.460000e-06	2.095387e-07	1.840596e-09	1.495225e+00	1.202328e+02
2.470000e-06	1.071609e-07	1.726593e-09	7.646780e-01	1.128498e+02
2.480000e-06	4.680607e-09	1.616091e-09	3.339985e-02	1.053099e+02
2.490000e-06	-9.784734e-08	1.500065e-09	-6.982185e-01	9.760480e+01
2.500000e-06	-2.002966e-07	1.374982e-09	-1.429276e+00	8.972269e+01
2.510000e-06	-3.025926e-07	1.247892e-09	-2.159239e+00	8.164959e+01
2.520000e-06	-4.047427e-07	1.123222e-09	-2.888161e+00	7.337078e+01
2.530000e-06	-5.067776e-07	9.949934e-10	-3.616261e+00	6.487275e+01
2.540000e-06	-6.086132e-07	8.636196e-10	-4.342938e+00	5.614499e+01
2.550000e-06	-7.101943e-07	7.291865e-10	-5.067800e+00	4.718131e+01
2.560000e-06	-8.114352e-07	5.876022e-10	-5.790234e+00	3.798015e+01
2.570000e-06	-9.121748e-07	4.409824e-10	-6.509092e+00	2.854419e+01
2.580000e-06	-1.012503e-06	2.935533e-10	-7.225016e+00	1.887930e+01
2.590000e-06	-1.112558e-06	1.477801e-10	-7.938986e+00	8.993174e+00
2.600000e-06	-1.212268e-06	-3.399089e-12	-8.650492e+00	-1.105607e+00
2.610000e-06	-1.311555e-06	-1.633813e-10	-9.358990e+00	-1.140793e+01
2.620000e-06	-1.410434e-06	-3.260201e-10	-1.006457e+01	-2.190352e+01
2.630000e-06	-1.508862e-06	-4.894336e-10	-1.076693e+01	-3.257951e+01
2.640000e-06	-1.606711e-06	-6.529774e-10	-1.146516e+01	-4.341845e+01
2.650000e-06	-1.703941e-06	-8.162062e-10	-1.215898e+01	-5.439647e+01
2.660000e-06	-1.800569e-06	-9.805854e-10	-1.284849e+01	-6.548200e+01
2.670000e-06	-1.896645e-06	-1.149912e-09	-1.353407e+01	-7.663568e+01
2.680000e-06	-1.992258e-06	-1.323246e-09	-1.421634e+01	-8.781164e+01
2.690000e-06	-2.087227e-06	-1.493775e-09	-1.489402e+01	-9.896003e+01
2.700000e-06	-2.181168e-06	-1.661036e-09	-1.556437e+01	-1.100303e+02
2.710000e-06	-2.273989e-06	-1.827734e-09	-1.622672e+01	-1.209745e+02
2.720000e-06	-2.365897e-06	-1.994497e-09	-1.688255e+01	-1.317507e+02
2.730000e-06	-2.457076e-06	-2.156123e-09	-1.753319e+01	-1.423239e+02
2.740000e-06	-2.547413e-06	-2.309993e-09	-1.817782e+01	-1.526672e+02
2.750000e-06	-2.636760e-06	-2.458857e-09	-1.881538e+01	-1.627599e+02
2.760000e-06	-2.725258e-06	-2.605698e-09	-1.944688e+01	-1.725862e+02
2.770000e-06	-2.813059e-06	-2.753062e-09	-2.007341e+01	-1.821321e+02
2.780000e-06	-2.900026e-06	-2.899016e-09	-2.069399e+01	-1.913841e+02
2.790000e-06	-2.985735e-06	-3.038589e-09	-2.130559e+01	-2.003276e+02
2.800000e-06	-3.070132e-06	-3.170074e-09	-2.190783e+01	-2.089476e+02
2.810000e-06	-3.153526e-06	-3.296031e-09	-2.250291e+01	-2.172298e+02
2.820000e-06	-3.235963e-06	-3.417914e-09	-2.309117e+01	-2.251627e+02
2.830000e-06	-3.317344e-06	-3.534560e-09	-2.367188e+01	-2.327406e+02
2.840000e-06	-3.397661e-06	-3.647194e-09	-2.424501e+01	-2.399649e+02
2.850000e-06	-3.476820e-06	-3.754773e-09	-2.480988e+01	-2.468456e+02
2.860000e-06	-3.554476e-06	-3.854995e-09	-2.536401e+01	-2.534003e+02
2.870000e-06	-3.630595e-06	-3.949637e-09	-2.590718e+01	-2.596531e+02
2.880000e-06	-3.705304e-06	-4.042427e-09	-2.644029e+01	-2.656312e+02
2.890000e-06	-3.778621e-06	-4.133295e-09	-2.696346e+01	-2.713626e+02
2.900000e-06	-3.850688e-06	-4.218802e-09	-2.747772e+01	-2.768725e+02
2.910000e-06	-3.921379e-06	-4.298526e-09	-2.798216e+01	-2.821816e+02
2.920000e-06	-3.990401e-06	-4.375291e-09	-2.847468e+01	-2.873044e+02
2.930000e-06	-4.057926e-06	-4.451482e-09	-2.895653e+01	-2.922500e+02
2.940000e-06	-4.124152e-06	-4.525759e-09	-2.942910e+01	-2.970220e+02
