# Temperatura_=_72.28
# Concentracion g/m^3_=_15000.0
# C_Vs_to_Am_M_A/Vsm_=_65563218390.804596
# pendiente_HvsI_1/m_=_3716.3
# ordenada_HvsI_A/m_=_1297.0
# frecuencia_Hz_=_301583.88595380686

Tiempo_(s)	Campo_(V.s)	Magnetizacion_(V.s)	Campo_(kA/m)	Magnetizacion_(A/m)
0.000000e+00	-5.359381e-06	-7.175326e-09	-3.833745e+01	-4.683467e+02
1.000000e-08	-5.356467e-06	-7.168892e-09	-3.831660e+01	-4.681433e+02
2.000000e-08	-5.351738e-06	-7.162897e-09	-3.828278e+01	-4.678813e+02
3.000000e-08	-5.345348e-06	-7.155449e-09	-3.823706e+01	-4.675470e+02
4.000000e-08	-5.337401e-06	-7.146045e-09	-3.818022e+01	-4.671173e+02
5.000000e-08	-5.327658e-06	-7.136446e-09	-3.811053e+01	-4.665656e+02
6.000000e-08	-5.315864e-06	-7.126870e-09	-3.802616e+01	-4.658689e+02
7.000000e-08	-5.302119e-06	-7.122347e-09	-3.792784e+01	-4.650150e+02
8.000000e-08	-5.286148e-06	-7.105776e-09	-3.781359e+01	-4.640073e+02
9.000000e-08	-5.267908e-06	-7.090530e-09	-3.768311e+01	-4.628669e+02
1.000000e-07	-5.247739e-06	-7.084077e-09	-3.753884e+01	-4.616287e+02
1.100000e-07	-5.225764e-06	-7.045803e-09	-3.738164e+01	-4.603361e+02
1.200000e-07	-5.202169e-06	-7.010987e-09	-3.721286e+01	-4.590312e+02
1.300000e-07	-5.177096e-06	-7.015282e-09	-3.703350e+01	-4.577456e+02
1.400000e-07	-5.150397e-06	-6.970262e-09	-3.684252e+01	-4.564931e+02
1.500000e-07	-5.122042e-06	-6.956812e-09	-3.663968e+01	-4.552654e+02
1.600000e-07	-5.092166e-06	-6.962077e-09	-3.642597e+01	-4.540329e+02
1.700000e-07	-5.060684e-06	-6.893281e-09	-3.620077e+01	-4.527498e+02
1.800000e-07	-5.027140e-06	-6.900525e-09	-3.596082e+01	-4.513630e+02
1.900000e-07	-4.991722e-06	-6.897943e-09	-3.570746e+01	-4.498216e+02
2.000000e-07	-4.954868e-06	-6.814958e-09	-3.544383e+01	-4.480868e+02
2.100000e-07	-4.916270e-06	-6.781654e-09	-3.516773e+01	-4.461382e+02
2.200000e-07	-4.875830e-06	-6.741772e-09	-3.487844e+01	-4.439763e+02
2.300000e-07	-4.833431e-06	-6.699700e-09	-3.457516e+01	-4.416209e+02
2.400000e-07	-4.789103e-06	-6.697098e-09	-3.425806e+01	-4.391054e+02
2.500000e-07	-4.743099e-06	-6.664229e-09	-3.392898e+01	-4.364683e+02
2.600000e-07	-4.695250e-06	-6.613598e-09	-3.358669e+01	-4.337457e+02
2.700000e-07	-4.645379e-06	-6.551001e-09	-3.322995e+01	-4.309639e+02
2.800000e-07	-4.593441e-06	-6.524704e-09	-3.285843e+01	-4.281354e+02
2.900000e-07	-4.539586e-06	-6.504614e-09	-3.247318e+01	-4.252588e+02
3.000000e-07	-4.484119e-06	-6.446840e-09	-3.207641e+01	-4.223208e+02
3.100000e-07	-4.427091e-06	-6.394054e-09	-3.166846e+01	-4.193013e+02
3.200000e-07	-4.368247e-06	-6.322677e-09	-3.124754e+01	-4.161792e+02
3.300000e-07	-4.307681e-06	-6.269780e-09	-3.081428e+01	-4.129371e+02
3.400000e-07	-4.245681e-06	-6.241621e-09	-3.037078e+01	-4.095649e+02
3.500000e-07	-4.182329e-06	-6.193721e-09	-2.991760e+01	-4.060610e+02
3.600000e-07	-4.117594e-06	-6.140847e-09	-2.945453e+01	-4.024310e+02
3.700000e-07	-4.051242e-06	-6.076237e-09	-2.897989e+01	-3.986852e+02
3.800000e-07	-3.983280e-06	-6.014031e-09	-2.849374e+01	-3.948356e+02
3.900000e-07	-3.913917e-06	-5.958027e-09	-2.799756e+01	-3.908921e+02
4.000000e-07	-3.843295e-06	-5.895538e-09	-2.749238e+01	-3.868610e+02
4.100000e-07	-3.771533e-06	-5.828461e-09	-2.697904e+01	-3.827439e+02
4.200000e-07	-3.698458e-06	-5.748223e-09	-2.645631e+01	-3.785382e+02
4.300000e-07	-3.623786e-06	-5.684796e-09	-2.592216e+01	-3.742384e+02
4.400000e-07	-3.547534e-06	-5.633964e-09	-2.537670e+01	-3.698377e+02
4.500000e-07	-3.469874e-06	-5.581731e-09	-2.482117e+01	-3.653298e+02
4.600000e-07	-3.390817e-06	-5.512551e-09	-2.425565e+01	-3.607093e+02
4.700000e-07	-3.310346e-06	-5.418219e-09	-2.368001e+01	-3.559729e+02
4.800000e-07	-3.228619e-06	-5.333928e-09	-2.309540e+01	-3.511184e+02
4.900000e-07	-3.145836e-06	-5.261389e-09	-2.250322e+01	-3.461449e+02
5.000000e-07	-3.062079e-06	-5.190195e-09	-2.190408e+01	-3.410522e+02
5.100000e-07	-2.977480e-06	-5.113315e-09	-2.129891e+01	-3.358404e+02
5.200000e-07	-2.891956e-06	-5.029221e-09	-2.068713e+01	-3.305101e+02
5.300000e-07	-2.805339e-06	-4.936709e-09	-2.006753e+01	-3.250622e+02
5.400000e-07	-2.717780e-06	-4.848050e-09	-1.944119e+01	-3.194981e+02
5.500000e-07	-2.629393e-06	-4.769915e-09	-1.880893e+01	-3.138191e+02
5.600000e-07	-2.540018e-06	-4.687071e-09	-1.816960e+01	-3.080261e+02
5.700000e-07	-2.449458e-06	-4.591805e-09	-1.752179e+01	-3.021187e+02
5.800000e-07	-2.357826e-06	-4.489200e-09	-1.686632e+01	-2.960945e+02
5.900000e-07	-2.265431e-06	-4.394704e-09	-1.620539e+01	-2.899491e+02
6.000000e-07	-2.172358e-06	-4.304356e-09	-1.553961e+01	-2.836758e+02
6.100000e-07	-2.078479e-06	-4.206654e-09	-1.486806e+01	-2.772670e+02
6.200000e-07	-1.983866e-06	-4.103138e-09	-1.419126e+01	-2.707155e+02
6.300000e-07	-1.888592e-06	-3.997323e-09	-1.350973e+01	-2.640164e+02
6.400000e-07	-1.792674e-06	-3.893059e-09	-1.282360e+01	-2.571680e+02
6.500000e-07	-1.696146e-06	-3.793144e-09	-1.213310e+01	-2.501728e+02
6.600000e-07	-1.598891e-06	-3.689730e-09	-1.143741e+01	-2.430369e+02
6.700000e-07	-1.500882e-06	-3.572067e-09	-1.073631e+01	-2.357683e+02
6.800000e-07	-1.402190e-06	-3.446368e-09	-1.003033e+01	-2.283749e+02
6.900000e-07	-1.302938e-06	-3.326270e-09	-9.320354e+00	-2.208614e+02
7.000000e-07	-1.203309e-06	-3.216128e-09	-8.607669e+00	-2.132278e+02
7.100000e-07	-1.103383e-06	-3.106819e-09	-7.892868e+00	-2.054677e+02
7.200000e-07	-1.003147e-06	-2.989272e-09	-7.175846e+00	-1.975689e+02
7.300000e-07	-9.026260e-07	-2.863474e-09	-6.456786e+00	-1.895150e+02
7.400000e-07	-8.018644e-07	-2.733874e-09	-5.736005e+00	-1.812878e+02
7.500000e-07	-7.008512e-07	-2.604263e-09	-5.013424e+00	-1.728706e+02
7.600000e-07	-5.995393e-07	-2.474970e-09	-4.288706e+00	-1.642508e+02
7.700000e-07	-4.980182e-07	-2.342008e-09	-3.562491e+00	-1.554212e+02
7.800000e-07	-3.962971e-07	-2.199317e-09	-2.834846e+00	-1.463800e+02
7.900000e-07	-2.943931e-07	-2.051821e-09	-2.105893e+00	-1.371296e+02
8.000000e-07	-1.924222e-07	-1.905678e-09	-1.376460e+00	-1.276741e+02
8.100000e-07	-9.033449e-08	-1.760087e-09	-6.461929e-01	-1.180166e+02
8.200000e-07	1.183240e-08	-1.611029e-09	8.464111e-02	-1.081572e+02
8.300000e-07	1.139798e-07	-1.455027e-09	8.153359e-01	-9.809148e+01
8.400000e-07	2.160505e-07	-1.292966e-09	1.545482e+00	-8.781117e+01
8.500000e-07	3.180722e-07	-1.129829e-09	2.275277e+00	-7.730533e+01
8.600000e-07	4.200741e-07	-9.665441e-10	3.004931e+00	-6.656276e+01
8.700000e-07	5.219152e-07	-7.984444e-10	3.733435e+00	-5.557416e+01
8.800000e-07	6.235824e-07	-6.234313e-10	4.460694e+00	-4.433373e+01
8.900000e-07	7.250557e-07	-4.450151e-10	5.186567e+00	-3.283960e+01
9.000000e-07	8.262403e-07	-2.646223e-10	5.910374e+00	-2.109304e+01
9.100000e-07	9.270852e-07	-8.094777e-11	6.631752e+00	-9.096806e+00
9.200000e-07	1.027607e-06	1.033442e-10	7.350814e+00	3.146593e+00
9.300000e-07	1.127871e-06	2.891530e-10	8.068040e+00	1.563600e+01
9.400000e-07	1.227837e-06	4.793041e-10	8.783128e+00	2.837130e+01
9.500000e-07	1.327394e-06	6.746265e-10	9.495296e+00	4.135137e+01
9.600000e-07	1.426430e-06	8.726243e-10	1.020373e+01	5.457050e+01
9.700000e-07	1.524773e-06	1.073135e-09	1.090721e+01	6.801407e+01
9.800000e-07	1.622314e-06	1.279526e-09	1.160495e+01	8.165430e+01
9.900000e-07	1.719098e-06	1.491705e-09	1.229728e+01	9.544759e+01
1.000000e-06	1.815222e-06	1.703500e-09	1.298489e+01	1.093341e+02
1.010000e-06	1.910745e-06	1.913140e-09	1.366820e+01	1.232403e+02
1.020000e-06	2.005601e-06	2.120677e-09	1.434674e+01	1.370840e+02
1.030000e-06	2.099731e-06	2.324164e-09	1.502008e+01	1.507810e+02
1.040000e-06	2.193128e-06	2.523907e-09	1.568818e+01	1.642534e+02
1.050000e-06	2.285829e-06	2.719970e-09	1.635130e+01	1.774353e+02
1.060000e-06	2.377886e-06	2.912998e-09	1.700982e+01	1.902780e+02
1.070000e-06	2.469212e-06	3.100362e-09	1.766310e+01	2.027511e+02
1.080000e-06	2.559508e-06	3.282843e-09	1.830902e+01	2.148417e+02
1.090000e-06	2.648617e-06	3.462648e-09	1.894645e+01	2.265499e+02
1.100000e-06	2.736702e-06	3.639703e-09	1.957655e+01	2.378837e+02
1.110000e-06	2.823929e-06	3.809968e-09	2.020051e+01	2.488537e+02
1.120000e-06	2.910234e-06	3.971765e-09	2.081788e+01	2.594685e+02
1.130000e-06	2.995561e-06	4.126636e-09	2.142826e+01	2.697322e+02
1.140000e-06	3.079958e-06	4.274782e-09	2.203197e+01	2.796441e+02
1.150000e-06	3.163439e-06	4.416901e-09	2.262914e+01	2.891997e+02
1.160000e-06	3.245795e-06	4.555607e-09	2.321826e+01	2.983936e+02
1.170000e-06	3.326846e-06	4.690880e-09	2.379805e+01	3.072224e+02
1.180000e-06	3.406726e-06	4.821599e-09	2.436945e+01	3.156863e+02
1.190000e-06	3.485464e-06	4.946601e-09	2.493269e+01	3.237907e+02
1.200000e-06	3.563012e-06	5.064846e-09	2.548742e+01	3.315455e+02
1.210000e-06	3.639324e-06	5.178405e-09	2.603331e+01	3.389645e+02
1.220000e-06	3.714150e-06	5.284411e-09	2.656856e+01	3.460631e+02
1.230000e-06	3.787324e-06	5.382243e-09	2.709200e+01	3.528575e+02
1.240000e-06	3.859062e-06	5.475455e-09	2.760517e+01	3.593631e+02
1.250000e-06	3.929469e-06	5.568163e-09	2.810881e+01	3.655953e+02
1.260000e-06	3.998494e-06	5.661330e-09	2.860257e+01	3.715691e+02
1.270000e-06	4.066216e-06	5.751925e-09	2.908700e+01	3.773003e+02
1.280000e-06	4.132421e-06	5.837661e-09	2.956059e+01	3.828060e+02
1.290000e-06	4.196911e-06	5.919319e-09	3.002191e+01	3.881036e+02
1.300000e-06	4.259885e-06	5.997849e-09	3.047238e+01	3.932102e+02
1.310000e-06	4.321460e-06	6.073350e-09	3.091285e+01	3.981407e+02
1.320000e-06	4.381667e-06	6.144615e-09	3.134354e+01	4.029055e+02
1.330000e-06	4.440395e-06	6.212410e-09	3.176364e+01	4.075093e+02
1.340000e-06	4.497381e-06	6.277953e-09	3.217127e+01	4.119505e+02
1.350000e-06	4.552632e-06	6.341499e-09	3.256651e+01	4.162220e+02
1.360000e-06	4.606269e-06	6.404475e-09	3.295019e+01	4.203134e+02
1.370000e-06	4.658083e-06	6.464711e-09	3.332083e+01	4.242141e+02
1.380000e-06	4.707819e-06	6.520953e-09	3.367661e+01	4.279161e+02
1.390000e-06	4.755696e-06	6.574185e-09	3.401909e+01	4.314166e+02
1.400000e-06	4.801932e-06	6.623042e-09	3.434983e+01	4.347189e+02
1.410000e-06	4.846607e-06	6.666923e-09	3.466940e+01	4.378319e+02
1.420000e-06	4.889728e-06	6.707780e-09	3.497787e+01	4.407681e+02
1.430000e-06	4.930977e-06	6.746864e-09	3.527293e+01	4.435406e+02
1.440000e-06	4.970363e-06	6.784131e-09	3.555467e+01	4.461605e+02
1.450000e-06	5.008138e-06	6.820196e-09	3.582489e+01	4.486343e+02
1.460000e-06	5.044337e-06	6.855971e-09	3.608383e+01	4.509639e+02
1.470000e-06	5.078675e-06	6.890449e-09	3.632946e+01	4.531471e+02
1.480000e-06	5.111052e-06	6.921776e-09	3.656107e+01	4.551797e+02
1.490000e-06	5.141686e-06	6.949753e-09	3.678020e+01	4.570589e+02
1.500000e-06	5.170658e-06	6.974379e-09	3.698745e+01	4.587852e+02
1.510000e-06	5.197966e-06	6.994840e-09	3.718280e+01	4.603639e+02
1.520000e-06	5.223256e-06	7.013250e-09	3.736370e+01	4.618047e+02
1.530000e-06	5.246476e-06	7.032628e-09	3.752980e+01	4.631197e+02
1.540000e-06	5.267937e-06	7.052133e-09	3.768332e+01	4.643204e+02
1.550000e-06	5.287730e-06	7.068944e-09	3.782490e+01	4.654149e+02
1.560000e-06	5.305652e-06	7.083099e-09	3.795310e+01	4.664048e+02
1.570000e-06	5.321502e-06	7.096605e-09	3.806649e+01	4.672855e+02
1.580000e-06	5.335428e-06	7.108864e-09	3.816611e+01	4.680474e+02
1.590000e-06	5.347309e-06	7.119043e-09	3.825109e+01	4.686789e+02
1.600000e-06	5.356888e-06	7.126656e-09	3.831962e+01	4.691707e+02
1.610000e-06	5.364446e-06	7.132823e-09	3.837368e+01	4.695200e+02
1.620000e-06	5.370232e-06	7.138196e-09	3.841507e+01	4.697321e+02
1.630000e-06	5.374253e-06	7.141679e-09	3.844383e+01	4.698213e+02
1.640000e-06	5.376379e-06	7.142445e-09	3.845904e+01	4.698076e+02
1.650000e-06	5.376513e-06	7.142223e-09	3.846000e+01	4.697124e+02
1.660000e-06	5.374880e-06	7.142840e-09	3.844832e+01	4.695529e+02
1.670000e-06	5.371590e-06	7.138968e-09	3.842478e+01	4.693371e+02
1.680000e-06	5.366569e-06	7.134571e-09	3.838887e+01	4.690607e+02
1.690000e-06	5.359636e-06	7.132888e-09	3.833927e+01	4.687077e+02
1.700000e-06	5.350903e-06	7.128428e-09	3.827680e+01	4.682537e+02
1.710000e-06	5.340595e-06	7.118994e-09	3.820307e+01	4.676722e+02
1.720000e-06	5.328563e-06	7.099805e-09	3.811699e+01	4.669419e+02
1.730000e-06	5.314561e-06	7.088620e-09	3.801684e+01	4.660537e+02
1.740000e-06	5.298502e-06	7.076236e-09	3.790196e+01	4.650149e+02
1.750000e-06	5.280032e-06	7.045605e-09	3.776984e+01	4.638497e+02
1.760000e-06	5.258858e-06	7.046307e-09	3.761837e+01	4.625958e+02
1.770000e-06	5.235545e-06	7.031351e-09	3.745161e+01	4.612968e+02
1.780000e-06	5.211072e-06	7.001159e-09	3.727654e+01	4.599934e+02
1.790000e-06	5.185824e-06	7.015752e-09	3.709594e+01	4.587141e+02
1.800000e-06	5.159050e-06	6.938318e-09	3.690441e+01	4.574679e+02
1.810000e-06	5.130146e-06	6.909216e-09	3.669766e+01	4.562419e+02
1.820000e-06	5.099490e-06	6.937226e-09	3.647836e+01	4.550024e+02
1.830000e-06	5.067093e-06	6.836712e-09	3.624661e+01	4.537013e+02
1.840000e-06	5.032802e-06	6.842442e-09	3.600132e+01	4.522849e+02
1.850000e-06	4.996932e-06	6.891326e-09	3.574473e+01	4.507044e+02
1.860000e-06	4.959206e-06	6.824105e-09	3.547486e+01	4.489244e+02
1.870000e-06	4.919596e-06	6.829193e-09	3.519152e+01	4.469288e+02
1.880000e-06	4.878377e-06	6.780815e-09	3.489667e+01	4.447229e+02
1.890000e-06	4.835327e-06	6.705838e-09	3.458871e+01	4.423297e+02
1.900000e-06	4.790645e-06	6.690240e-09	3.426909e+01	4.397844e+02
1.910000e-06	4.744191e-06	6.621963e-09	3.393679e+01	4.371258e+02
1.920000e-06	4.695733e-06	6.641653e-09	3.359015e+01	4.343883e+02
1.930000e-06	4.645629e-06	6.590088e-09	3.323174e+01	4.315954e+02
1.940000e-06	4.593751e-06	6.492088e-09	3.286064e+01	4.287569e+02
1.950000e-06	4.539849e-06	6.490141e-09	3.247506e+01	4.258681e+02
1.960000e-06	4.484026e-06	6.424652e-09	3.207574e+01	4.229140e+02
1.970000e-06	4.426490e-06	6.397496e-09	3.166417e+01	4.198739e+02
1.980000e-06	4.367514e-06	6.353933e-09	3.124229e+01	4.167269e+02
1.990000e-06	4.307064e-06	6.287323e-09	3.080988e+01	4.134570e+02
2.000000e-06	4.244950e-06	6.252712e-09	3.036555e+01	4.100561e+02
2.010000e-06	4.181239e-06	6.160044e-09	2.990981e+01	4.065240e+02
2.020000e-06	4.116057e-06	6.134846e-09	2.944354e+01	4.028678e+02
2.030000e-06	4.049484e-06	6.086717e-09	2.896732e+01	3.990984e+02
2.040000e-06	3.981452e-06	6.019753e-09	2.848066e+01	3.952275e+02
2.050000e-06	3.911919e-06	5.965472e-09	2.798327e+01	3.912645e+02
2.060000e-06	3.840900e-06	5.882189e-09	2.747524e+01	3.872146e+02
2.070000e-06	3.768477e-06	5.853540e-09	2.695718e+01	3.830784e+02
2.080000e-06	3.694854e-06	5.777258e-09	2.643053e+01	3.788526e+02
2.090000e-06	3.619940e-06	5.703997e-09	2.589465e+01	3.745314e+02
2.100000e-06	3.543531e-06	5.630733e-09	2.534807e+01	3.701078e+02
2.110000e-06	3.465565e-06	5.549119e-09	2.479034e+01	3.655757e+02
2.120000e-06	3.386212e-06	5.504792e-09	2.422271e+01	3.609302e+02
2.130000e-06	3.305720e-06	5.429669e-09	2.364692e+01	3.561682e+02
2.140000e-06	3.224135e-06	5.368266e-09	2.306332e+01	3.512879e+02
2.150000e-06	3.141452e-06	5.285597e-09	2.247186e+01	3.462884e+02
2.160000e-06	3.057750e-06	5.192707e-09	2.187311e+01	3.411698e+02
2.170000e-06	2.972988e-06	5.110863e-09	2.126678e+01	3.359321e+02
2.180000e-06	2.886891e-06	5.039436e-09	2.065090e+01	3.305761e+02
2.190000e-06	2.799464e-06	4.972079e-09	2.002551e+01	3.251028e+02
2.200000e-06	2.711129e-06	4.878802e-09	1.939361e+01	3.195135e+02
2.210000e-06	2.621974e-06	4.787871e-09	1.875586e+01	3.138096e+02
2.220000e-06	2.531885e-06	4.697831e-09	1.811142e+01	3.079918e+02
2.230000e-06	2.440939e-06	4.613879e-09	1.746086e+01	3.020592e+02
2.240000e-06	2.349215e-06	4.522083e-09	1.680473e+01	2.960091e+02
2.250000e-06	2.256766e-06	4.429298e-09	1.614340e+01	2.898365e+02
2.260000e-06	2.163477e-06	4.335708e-09	1.547608e+01	2.835344e+02
2.270000e-06	2.069160e-06	4.232063e-09	1.480139e+01	2.770951e+02
2.280000e-06	1.973830e-06	4.132362e-09	1.411947e+01	2.705119e+02
2.290000e-06	1.877766e-06	4.035142e-09	1.343229e+01	2.637804e+02
2.300000e-06	1.781276e-06	3.932995e-09	1.274207e+01	2.568998e+02
2.310000e-06	1.684297e-06	3.818233e-09	1.204834e+01	2.498734e+02
2.320000e-06	1.586685e-06	3.705453e-09	1.135009e+01	2.427080e+02
2.330000e-06	1.488534e-06	3.602209e-09	1.064799e+01	2.354116e+02
2.340000e-06	1.389948e-06	3.499244e-09	9.942763e+00	2.279918e+02
2.350000e-06	1.290971e-06	3.384958e-09	9.234746e+00	2.204524e+02
2.360000e-06	1.191663e-06	3.262982e-09	8.524363e+00	2.127920e+02
2.370000e-06	1.092066e-06	3.137733e-09	7.811912e+00	2.050030e+02
2.380000e-06	9.921186e-07	3.012777e-09	7.096957e+00	1.970720e+02
2.390000e-06	8.917950e-07	2.895293e-09	6.379309e+00	1.889820e+02
2.400000e-06	7.911428e-07	2.776995e-09	5.659310e+00	1.807150e+02
2.410000e-06	6.902223e-07	2.649041e-09	4.937391e+00	1.722549e+02
2.420000e-06	5.891818e-07	2.509508e-09	4.214615e+00	1.635902e+02
2.430000e-06	4.879569e-07	2.370022e-09	3.490519e+00	1.547147e+02
2.440000e-06	3.864013e-07	2.236886e-09	2.764058e+00	1.456280e+02
2.450000e-06	2.846183e-07	2.102075e-09	2.035970e+00	1.363329e+02
2.460000e-06	1.826729e-07	1.959575e-09	1.306721e+00	1.268335e+02
2.470000e-06	8.057088e-08	1.810337e-09	5.763505e-01	1.171325e+02
2.480000e-06	-2.157133e-08	1.657308e-09	-1.543069e-01	1.072289e+02
2.490000e-06	-1.236562e-07	1.506222e-09	-8.845544e-01	9.711765e+01
2.500000e-06	-2.257183e-07	1.355031e-09	-1.614639e+00	8.678956e+01
2.510000e-06	-3.277497e-07	1.197287e-09	-2.344503e+00	7.623350e+01
2.520000e-06	-4.296060e-07	1.032240e-09	-3.073116e+00	6.543847e+01
2.530000e-06	-5.312526e-07	8.595035e-10	-3.800228e+00	5.439585e+01
2.540000e-06	-6.326915e-07	6.864308e-10	-4.525854e+00	4.310067e+01
2.550000e-06	-7.338287e-07	5.163178e-10	-5.249323e+00	3.155185e+01
2.560000e-06	-8.346291e-07	3.413277e-10	-5.970382e+00	1.975112e+01
2.570000e-06	-9.350351e-07	1.560643e-10	-6.688620e+00	7.701332e+00
2.580000e-06	-1.035113e-06	-3.713802e-11	-7.404507e+00	-4.595244e+00
2.590000e-06	-1.134928e-06	-2.321410e-10	-8.118522e+00	-1.713776e+01
2.600000e-06	-1.234347e-06	-4.275280e-10	-8.829700e+00	-2.992611e+01
2.610000e-06	-1.333283e-06	-6.267941e-10	-9.537422e+00	-4.295854e+01
2.620000e-06	-1.431753e-06	-8.320696e-10	-1.024181e+01	-5.622780e+01
2.630000e-06	-1.529746e-06	-1.043544e-09	-1.094279e+01	-6.971677e+01
2.640000e-06	-1.627177e-06	-1.256833e-09	-1.163974e+01	-8.339445e+01
2.650000e-06	-1.724005e-06	-1.468603e-09	-1.233238e+01	-9.721370e+01
2.660000e-06	-1.820284e-06	-1.679733e-09	-1.302110e+01	-1.111115e+02
2.670000e-06	-1.916077e-06	-1.892628e-09	-1.370634e+01	-1.250118e+02
2.680000e-06	-2.011309e-06	-2.108366e-09	-1.438757e+01	-1.388314e+02
2.690000e-06	-2.105744e-06	-2.322334e-09	-1.506309e+01	-1.524870e+02
2.700000e-06	-2.199165e-06	-2.529699e-09	-1.573137e+01	-1.659025e+02
2.710000e-06	-2.291638e-06	-2.730100e-09	-1.639285e+01	-1.790156e+02
2.720000e-06	-2.383296e-06	-2.926242e-09	-1.704852e+01	-1.917814e+02
2.730000e-06	-2.474108e-06	-3.117504e-09	-1.769812e+01	-2.041736e+02
2.740000e-06	-2.563995e-06	-3.301841e-09	-1.834112e+01	-2.161823e+02
2.750000e-06	-2.652952e-06	-3.478450e-09	-1.897746e+01	-2.278098e+02
2.760000e-06	-2.741121e-06	-3.649128e-09	-1.960816e+01	-2.390652e+02
2.770000e-06	-2.828528e-06	-3.816004e-09	-2.023341e+01	-2.499589e+02
2.780000e-06	-2.914890e-06	-3.978979e-09	-2.085118e+01	-2.604987e+02
2.790000e-06	-3.000006e-06	-4.134028e-09	-2.146005e+01	-2.706877e+02
2.800000e-06	-3.084020e-06	-4.280264e-09	-2.206103e+01	-2.805241e+02
2.810000e-06	-3.167029e-06	-4.421316e-09	-2.265482e+01	-2.900030e+02
2.820000e-06	-3.248941e-06	-4.559829e-09	-2.324077e+01	-2.991193e+02
2.830000e-06	-3.329750e-06	-4.695142e-09	-2.381882e+01	-3.078701e+02
2.840000e-06	-3.409555e-06	-4.825504e-09	-2.438969e+01	-3.162568e+02
2.850000e-06	-3.488164e-06	-4.951713e-09	-2.495201e+01	-3.242857e+02
2.860000e-06	-3.565235e-06	-5.071720e-09	-2.550332e+01	-3.319677e+02
2.870000e-06	-3.640801e-06	-5.184608e-09	-2.604387e+01	-3.393171e+02
2.880000e-06	-3.714967e-06	-5.293305e-09	-2.657440e+01	-3.463496e+02
2.890000e-06	-3.787781e-06	-5.397546e-09	-2.709526e+01	-3.530812e+02
2.900000e-06	-3.859340e-06	-5.497109e-09	-2.760715e+01	-3.595274e+02
2.910000e-06	-3.929396e-06	-5.591397e-09	-2.810829e+01	-3.657033e+02
2.920000e-06	-3.997869e-06	-5.680903e-09	-2.859810e+01	-3.716242e+02
2.930000e-06	-4.064962e-06	-5.767350e-09	-2.907804e+01	-3.773061e+02
2.940000e-06	-4.130675e-06	-5.849868e-09	-2.954810e+01	-3.827661e+02
