# Temperatura_=_66.76
# Concentracion g/m^3_=_15000.0
# C_Vs_to_Am_M_A/Vsm_=_65563218390.804596
# pendiente_HvsI_1/m_=_3716.3
# ordenada_HvsI_A/m_=_1297.0
# frecuencia_Hz_=_301591.5835197227

Tiempo_(s)	Campo_(V.s)	Magnetizacion_(V.s)	Campo_(kA/m)	Magnetizacion_(A/m)
0.000000e+00	-5.380460e-06	-6.970723e-09	-3.833676e+01	-4.559536e+02
1.000000e-08	-5.377465e-06	-6.965592e-09	-3.831541e+01	-4.557516e+02
2.000000e-08	-5.372667e-06	-6.960659e-09	-3.828122e+01	-4.554787e+02
3.000000e-08	-5.366264e-06	-6.955155e-09	-3.823560e+01	-4.551285e+02
4.000000e-08	-5.358313e-06	-6.946493e-09	-3.817895e+01	-4.546880e+02
5.000000e-08	-5.348518e-06	-6.936056e-09	-3.810916e+01	-4.541402e+02
6.000000e-08	-5.336665e-06	-6.924415e-09	-3.802470e+01	-4.534687e+02
7.000000e-08	-5.322944e-06	-6.914455e-09	-3.792694e+01	-4.526628e+02
8.000000e-08	-5.307032e-06	-6.913987e-09	-3.781356e+01	-4.517210e+02
9.000000e-08	-5.288773e-06	-6.910907e-09	-3.768346e+01	-4.506539e+02
1.000000e-07	-5.268526e-06	-6.886905e-09	-3.753921e+01	-4.494830e+02
1.100000e-07	-5.246427e-06	-6.850973e-09	-3.738174e+01	-4.482382e+02
1.200000e-07	-5.222709e-06	-6.808190e-09	-3.721275e+01	-4.469513e+02
1.300000e-07	-5.197504e-06	-6.785885e-09	-3.703316e+01	-4.456503e+02
1.400000e-07	-5.170630e-06	-6.801686e-09	-3.684168e+01	-4.443529e+02
1.500000e-07	-5.142124e-06	-6.783601e-09	-3.663856e+01	-4.430617e+02
1.600000e-07	-5.112199e-06	-6.748470e-09	-3.642534e+01	-4.417637e+02
1.700000e-07	-5.080686e-06	-6.731624e-09	-3.620081e+01	-4.404310e+02
1.800000e-07	-5.046990e-06	-6.687438e-09	-3.596072e+01	-4.390267e+02
1.900000e-07	-5.011424e-06	-6.670769e-09	-3.570731e+01	-4.375106e+02
2.000000e-07	-4.974437e-06	-6.660466e-09	-3.544377e+01	-4.358472e+02
2.100000e-07	-4.935717e-06	-6.590633e-09	-3.516788e+01	-4.340115e+02
2.200000e-07	-4.895230e-06	-6.557684e-09	-3.487940e+01	-4.319929e+02
2.300000e-07	-4.852752e-06	-6.554838e-09	-3.457674e+01	-4.297964e+02
2.400000e-07	-4.808293e-06	-6.515361e-09	-3.425996e+01	-4.274397e+02
2.500000e-07	-4.762119e-06	-6.493659e-09	-3.393096e+01	-4.249489e+02
2.600000e-07	-4.714097e-06	-6.446631e-09	-3.358880e+01	-4.223527e+02
2.700000e-07	-4.664009e-06	-6.364945e-09	-3.323191e+01	-4.196765e+02
2.800000e-07	-4.611765e-06	-6.338403e-09	-3.285966e+01	-4.169377e+02
2.900000e-07	-4.557595e-06	-6.325354e-09	-3.247369e+01	-4.141434e+02
3.000000e-07	-4.501898e-06	-6.275139e-09	-3.207684e+01	-4.112909e+02
3.100000e-07	-4.444561e-06	-6.229901e-09	-3.166830e+01	-4.083695e+02
3.200000e-07	-4.385378e-06	-6.178896e-09	-3.124661e+01	-4.053643e+02
3.300000e-07	-4.324615e-06	-6.111123e-09	-3.081367e+01	-4.022604e+02
3.400000e-07	-4.262419e-06	-6.071541e-09	-3.037051e+01	-3.990461e+02
3.500000e-07	-4.198901e-06	-6.043293e-09	-2.991793e+01	-3.957152e+02
3.600000e-07	-4.133907e-06	-5.984939e-09	-2.945484e+01	-3.922677e+02
3.700000e-07	-4.067198e-06	-5.918524e-09	-2.897952e+01	-3.887086e+02
3.800000e-07	-3.998940e-06	-5.860474e-09	-2.849317e+01	-3.850461e+02
3.900000e-07	-3.929305e-06	-5.802099e-09	-2.799701e+01	-3.812887e+02
4.000000e-07	-3.858399e-06	-5.748526e-09	-2.749179e+01	-3.774435e+02
4.100000e-07	-3.786305e-06	-5.690300e-09	-2.697811e+01	-3.735142e+02
4.200000e-07	-3.712840e-06	-5.623253e-09	-2.645466e+01	-3.695005e+02
4.300000e-07	-3.637712e-06	-5.561107e-09	-2.591935e+01	-3.653985e+02
4.400000e-07	-3.561010e-06	-5.502766e-09	-2.537284e+01	-3.612018e+02
4.500000e-07	-3.482925e-06	-5.441660e-09	-2.481647e+01	-3.569028e+02
4.600000e-07	-3.403414e-06	-5.376531e-09	-2.424994e+01	-3.524940e+02
4.700000e-07	-3.322620e-06	-5.294750e-09	-2.367427e+01	-3.479691e+02
4.800000e-07	-3.240645e-06	-5.210800e-09	-2.309019e+01	-3.433240e+02
4.900000e-07	-3.157571e-06	-5.145880e-09	-2.249826e+01	-3.385565e+02
5.000000e-07	-3.073538e-06	-5.081026e-09	-2.189952e+01	-3.336664e+02
5.100000e-07	-2.988594e-06	-5.006097e-09	-2.129427e+01	-3.286551e+02
5.200000e-07	-2.902662e-06	-4.925588e-09	-2.068199e+01	-3.235249e+02
5.300000e-07	-2.815696e-06	-4.836895e-09	-2.006235e+01	-3.182786e+02
5.400000e-07	-2.727865e-06	-4.749435e-09	-1.943654e+01	-3.129186e+02
5.500000e-07	-2.639146e-06	-4.668857e-09	-1.880440e+01	-3.074467e+02
5.600000e-07	-2.549253e-06	-4.588186e-09	-1.816389e+01	-3.018631e+02
5.700000e-07	-2.458191e-06	-4.499020e-09	-1.751506e+01	-2.961665e+02
5.800000e-07	-2.366268e-06	-4.403535e-09	-1.686009e+01	-2.903538e+02
5.900000e-07	-2.273600e-06	-4.312486e-09	-1.619981e+01	-2.844202e+02
6.000000e-07	-2.180150e-06	-4.224369e-09	-1.553396e+01	-2.783597e+02
6.100000e-07	-2.085915e-06	-4.131599e-09	-1.486252e+01	-2.721662e+02
6.200000e-07	-1.990956e-06	-4.034314e-09	-1.418592e+01	-2.658344e+02
6.300000e-07	-1.895374e-06	-3.934224e-09	-1.350488e+01	-2.593606e+02
6.400000e-07	-1.799161e-06	-3.832685e-09	-1.281935e+01	-2.527439e+02
6.500000e-07	-1.702202e-06	-3.731126e-09	-1.212850e+01	-2.459857e+02
6.600000e-07	-1.604455e-06	-3.626754e-09	-1.143203e+01	-2.390900e+02
6.700000e-07	-1.506008e-06	-3.515610e-09	-1.073058e+01	-2.320612e+02
6.800000e-07	-1.406890e-06	-3.398760e-09	-1.002435e+01	-2.249033e+02
6.900000e-07	-1.307267e-06	-3.283565e-09	-9.314515e+00	-2.176182e+02
7.000000e-07	-1.207320e-06	-3.176146e-09	-8.602375e+00	-2.102038e+02
7.100000e-07	-1.107058e-06	-3.068404e-09	-7.887988e+00	-2.026542e+02
7.200000e-07	-1.006523e-06	-2.951583e-09	-7.171658e+00	-1.949595e+02
7.300000e-07	-9.056801e-07	-2.830106e-09	-6.453135e+00	-1.871074e+02
7.400000e-07	-8.045276e-07	-2.705266e-09	-5.732405e+00	-1.790848e+02
7.500000e-07	-7.030775e-07	-2.578249e-09	-5.009555e+00	-1.708798e+02
7.600000e-07	-6.013315e-07	-2.450451e-09	-4.284596e+00	-1.624831e+02
7.700000e-07	-4.993754e-07	-2.320445e-09	-3.558140e+00	-1.538892e+02
7.800000e-07	-3.972618e-07	-2.185688e-09	-2.830563e+00	-1.450956e+02
7.900000e-07	-2.949997e-07	-2.045152e-09	-2.101926e+00	-1.361019e+02
8.000000e-07	-1.926454e-07	-1.903346e-09	-1.372633e+00	-1.269081e+02
8.100000e-07	-9.019864e-08	-1.762254e-09	-6.426817e-01	-1.175125e+02
8.200000e-07	1.226068e-08	-1.616256e-09	8.735956e-02	-1.079107e+02
8.300000e-07	1.147320e-07	-1.461885e-09	8.174862e-01	-9.809490e+01
8.400000e-07	2.172421e-07	-1.303280e-09	1.547889e+00	-8.805476e+01
8.500000e-07	3.197127e-07	-1.144647e-09	2.278011e+00	-7.777902e+01
8.600000e-07	4.221135e-07	-9.852233e-10	3.007635e+00	-6.725752e+01
8.700000e-07	5.243025e-07	-8.202756e-10	3.735750e+00	-5.648327e+01
8.800000e-07	6.262819e-07	-6.494205e-10	4.462372e+00	-4.545361e+01
8.900000e-07	7.280884e-07	-4.753216e-10	5.187762e+00	-3.417040e+01
9.000000e-07	8.296624e-07	-2.978489e-10	5.911495e+00	-2.263898e+01
9.100000e-07	9.308997e-07	-1.176923e-10	6.632829e+00	-1.086633e+01
9.200000e-07	1.031777e-06	6.307040e-11	7.351601e+00	1.140961e+00
9.300000e-07	1.132390e-06	2.471974e-10	8.068488e+00	1.337813e+01
9.400000e-07	1.232713e-06	4.356408e-10	8.783305e+00	2.584236e+01
9.500000e-07	1.332686e-06	6.281748e-10	9.495632e+00	3.853127e+01
9.600000e-07	1.432176e-06	8.226745e-10	1.020451e+01	5.143980e+01
9.700000e-07	1.531002e-06	1.018933e-09	1.090867e+01	6.455603e+01
9.800000e-07	1.629067e-06	1.219227e-09	1.160740e+01	7.785699e+01
9.900000e-07	1.726334e-06	1.423236e-09	1.230044e+01	9.130540e+01
1.000000e-06	1.822864e-06	1.627331e-09	1.298823e+01	1.048485e+02
1.010000e-06	1.918705e-06	1.832000e-09	1.367112e+01	1.184196e+02
1.020000e-06	2.013880e-06	2.036121e-09	1.434926e+01	1.319419e+02
1.030000e-06	2.108434e-06	2.236781e-09	1.502297e+01	1.453349e+02
1.040000e-06	2.202247e-06	2.434529e-09	1.569141e+01	1.585217e+02
1.050000e-06	2.295271e-06	2.628520e-09	1.635423e+01	1.714352e+02
1.060000e-06	2.387638e-06	2.819467e-09	1.701236e+01	1.840242e+02
1.070000e-06	2.479316e-06	3.005410e-09	1.766558e+01	1.962552e+02
1.080000e-06	2.570039e-06	3.184538e-09	1.831199e+01	2.081120e+02
1.090000e-06	2.659554e-06	3.359168e-09	1.894981e+01	2.195927e+02
1.100000e-06	2.747923e-06	3.528810e-09	1.957945e+01	2.307047e+02
1.110000e-06	2.835345e-06	3.693267e-09	2.020235e+01	2.414585e+02
1.120000e-06	2.921898e-06	3.853308e-09	2.081905e+01	2.518631e+02
1.130000e-06	3.007548e-06	4.008226e-09	2.142933e+01	2.619221e+02
1.140000e-06	3.092258e-06	4.157379e-09	2.203290e+01	2.716333e+02
1.150000e-06	3.176062e-06	4.299808e-09	2.263002e+01	2.809894e+02
1.160000e-06	3.258800e-06	4.435892e-09	2.321954e+01	2.899809e+02
1.170000e-06	3.340295e-06	4.566277e-09	2.380021e+01	2.985999e+02
1.180000e-06	3.420601e-06	4.690186e-09	2.437240e+01	3.068435e+02
1.190000e-06	3.499684e-06	4.806827e-09	2.493589e+01	3.147157e+02
1.200000e-06	3.577503e-06	4.919739e-09	2.549036e+01	3.222287e+02
1.210000e-06	3.654096e-06	5.030375e-09	2.603609e+01	3.294014e+02
1.220000e-06	3.729310e-06	5.134904e-09	2.657201e+01	3.362572e+02
1.230000e-06	3.802935e-06	5.231853e-09	2.709660e+01	3.428213e+02
1.240000e-06	3.875014e-06	5.324139e-09	2.761018e+01	3.491175e+02
1.250000e-06	3.945664e-06	5.415249e-09	2.811358e+01	3.551670e+02
1.260000e-06	4.014897e-06	5.505569e-09	2.860687e+01	3.609869e+02
1.270000e-06	4.082825e-06	5.591780e-09	2.909087e+01	3.665905e+02
1.280000e-06	4.149322e-06	5.673028e-09	2.956467e+01	3.719885e+02
1.290000e-06	4.214137e-06	5.750677e-09	3.002649e+01	3.771900e+02
1.300000e-06	4.277405e-06	5.825947e-09	3.047728e+01	3.822032e+02
1.310000e-06	4.339202e-06	5.899715e-09	3.091760e+01	3.870360e+02
1.320000e-06	4.399601e-06	5.971497e-09	3.134796e+01	3.916957e+02
1.330000e-06	4.458539e-06	6.040147e-09	3.176790e+01	3.961880e+02
1.340000e-06	4.515685e-06	6.105473e-09	3.217507e+01	4.005162e+02
1.350000e-06	4.571100e-06	6.168369e-09	3.256992e+01	4.046809e+02
1.360000e-06	4.624940e-06	6.228810e-09	3.295353e+01	4.086795e+02
1.370000e-06	4.677005e-06	6.285704e-09	3.332451e+01	4.125073e+02
1.380000e-06	4.726983e-06	6.338926e-09	3.368061e+01	4.161589e+02
1.390000e-06	4.775024e-06	6.390288e-09	3.402291e+01	4.196296e+02
1.400000e-06	4.821465e-06	6.439748e-09	3.435381e+01	4.229170e+02
1.410000e-06	4.866357e-06	6.485968e-09	3.467368e+01	4.260217e+02
1.420000e-06	4.909621e-06	6.530503e-09	3.498194e+01	4.289473e+02
1.430000e-06	4.950985e-06	6.572858e-09	3.527667e+01	4.316998e+02
1.440000e-06	4.990507e-06	6.611750e-09	3.555826e+01	4.342861e+02
1.450000e-06	5.028409e-06	6.647539e-09	3.582833e+01	4.367126e+02
1.460000e-06	5.064754e-06	6.680684e-09	3.608729e+01	4.389847e+02
1.470000e-06	5.099284e-06	6.711489e-09	3.633332e+01	4.411056e+02
1.480000e-06	5.131805e-06	6.739868e-09	3.656504e+01	4.430774e+02
1.490000e-06	5.162575e-06	6.765338e-09	3.678428e+01	4.449019e+02
1.500000e-06	5.191699e-06	6.788110e-09	3.699180e+01	4.465815e+02
1.510000e-06	5.219046e-06	6.810121e-09	3.718665e+01	4.481203e+02
1.520000e-06	5.244355e-06	6.832384e-09	3.736698e+01	4.495248e+02
1.530000e-06	5.267664e-06	6.854000e-09	3.753306e+01	4.508027e+02
1.540000e-06	5.289179e-06	6.874433e-09	3.768636e+01	4.519620e+02
1.550000e-06	5.308960e-06	6.892794e-09	3.782730e+01	4.530093e+02
1.560000e-06	5.326839e-06	6.908710e-09	3.795469e+01	4.539486e+02
1.570000e-06	5.342681e-06	6.921209e-09	3.806757e+01	4.547802e+02
1.580000e-06	5.356616e-06	6.930156e-09	3.816686e+01	4.555009e+02
1.590000e-06	5.368516e-06	6.938272e-09	3.825165e+01	4.561057e+02
1.600000e-06	5.378193e-06	6.946344e-09	3.832060e+01	4.565898e+02
1.610000e-06	5.385852e-06	6.954029e-09	3.837517e+01	4.569509e+02
1.620000e-06	5.391694e-06	6.961669e-09	3.841680e+01	4.571908e+02
1.630000e-06	5.395737e-06	6.968848e-09	3.844561e+01	4.573167e+02
1.640000e-06	5.397747e-06	6.973759e-09	3.845993e+01	4.573395e+02
1.650000e-06	5.397757e-06	6.975842e-09	3.846000e+01	4.572722e+02
1.660000e-06	5.396063e-06	6.975037e-09	3.844793e+01	4.571263e+02
1.670000e-06	5.392736e-06	6.971789e-09	3.842422e+01	4.569089e+02
1.680000e-06	5.387661e-06	6.966054e-09	3.838806e+01	4.566198e+02
1.690000e-06	5.380644e-06	6.960086e-09	3.833807e+01	4.562512e+02
1.700000e-06	5.371908e-06	6.954977e-09	3.827582e+01	4.557888e+02
1.710000e-06	5.361631e-06	6.948715e-09	3.820259e+01	4.552154e+02
1.720000e-06	5.349535e-06	6.940366e-09	3.811641e+01	4.545154e+02
1.730000e-06	5.335405e-06	6.918528e-09	3.801573e+01	4.536797e+02
1.740000e-06	5.319269e-06	6.883047e-09	3.790076e+01	4.527094e+02
1.750000e-06	5.300773e-06	6.870343e-09	3.776897e+01	4.516175e+02
1.760000e-06	5.279551e-06	6.874185e-09	3.761776e+01	4.504277e+02
1.770000e-06	5.256169e-06	6.883805e-09	3.745116e+01	4.491708e+02
1.780000e-06	5.231607e-06	6.872641e-09	3.727615e+01	4.478785e+02
1.790000e-06	5.206339e-06	6.808014e-09	3.709611e+01	4.465769e+02
1.800000e-06	5.179508e-06	6.768335e-09	3.690493e+01	4.452807e+02
1.810000e-06	5.150312e-06	6.757023e-09	3.669691e+01	4.439893e+02
1.820000e-06	5.119369e-06	6.727226e-09	3.647643e+01	4.426862e+02
1.830000e-06	5.086805e-06	6.717908e-09	3.624441e+01	4.413412e+02
1.840000e-06	5.052338e-06	6.695000e-09	3.599883e+01	4.399158e+02
1.850000e-06	5.016365e-06	6.663893e-09	3.574251e+01	4.383705e+02
1.860000e-06	4.978549e-06	6.675646e-09	3.547306e+01	4.366714e+02
1.870000e-06	4.938855e-06	6.625671e-09	3.519024e+01	4.347965e+02
1.880000e-06	4.897597e-06	6.569195e-09	3.489627e+01	4.327386e+02
1.890000e-06	4.854440e-06	6.561325e-09	3.458876e+01	4.305055e+02
1.900000e-06	4.809590e-06	6.483791e-09	3.426920e+01	4.281172e+02
1.910000e-06	4.762909e-06	6.466493e-09	3.393659e+01	4.256011e+02
1.920000e-06	4.714260e-06	6.483202e-09	3.358995e+01	4.229855e+02
1.930000e-06	4.664065e-06	6.400333e-09	3.323231e+01	4.202944e+02
1.940000e-06	4.612014e-06	6.352205e-09	3.286143e+01	4.175430e+02
1.950000e-06	4.557865e-06	6.318096e-09	3.247562e+01	4.147364e+02
1.960000e-06	4.501885e-06	6.251522e-09	3.207675e+01	4.118699e+02
1.970000e-06	4.444197e-06	6.210638e-09	3.166571e+01	4.089315e+02
1.980000e-06	4.385081e-06	6.185793e-09	3.124450e+01	4.059060e+02
1.990000e-06	4.324445e-06	6.145825e-09	3.081245e+01	4.027788e+02
2.000000e-06	4.262034e-06	6.069029e-09	3.036776e+01	3.995395e+02
2.010000e-06	4.198017e-06	6.018209e-09	2.991163e+01	3.961830e+02
2.020000e-06	4.132560e-06	5.980643e-09	2.944524e+01	3.927107e+02
2.030000e-06	4.065727e-06	5.921448e-09	2.896904e+01	3.891283e+02
2.040000e-06	3.997450e-06	5.875807e-09	2.848255e+01	3.854443e+02
2.050000e-06	3.927589e-06	5.809181e-09	2.798479e+01	3.816673e+02
2.060000e-06	3.856260e-06	5.745855e-09	2.747655e+01	3.778035e+02
2.070000e-06	3.783649e-06	5.687888e-09	2.695919e+01	3.738558e+02
2.080000e-06	3.709722e-06	5.619701e-09	2.643245e+01	3.698233e+02
2.090000e-06	3.634417e-06	5.570912e-09	2.589588e+01	3.657013e+02
2.100000e-06	3.557541e-06	5.501523e-09	2.534813e+01	3.614829e+02
2.110000e-06	3.479023e-06	5.423319e-09	2.478867e+01	3.571606e+02
2.120000e-06	3.399250e-06	5.368340e-09	2.422027e+01	3.527270e+02
2.130000e-06	3.318469e-06	5.307610e-09	2.364469e+01	3.481763e+02
2.140000e-06	3.236613e-06	5.234080e-09	2.306145e+01	3.435047e+02
2.150000e-06	3.153674e-06	5.157603e-09	2.247050e+01	3.387104e+02
2.160000e-06	3.069710e-06	5.077671e-09	2.187224e+01	3.337938e+02
2.170000e-06	2.984490e-06	4.996696e-09	2.126504e+01	3.287564e+02
2.180000e-06	2.897861e-06	4.926094e-09	2.064779e+01	3.236008e+02
2.190000e-06	2.810139e-06	4.855166e-09	2.002275e+01	3.183295e+02
2.200000e-06	2.721564e-06	4.774451e-09	1.939164e+01	3.129451e+02
2.210000e-06	2.632112e-06	4.684842e-09	1.875427e+01	3.074489e+02
2.220000e-06	2.541685e-06	4.596375e-09	1.810997e+01	3.018408e+02
2.230000e-06	2.450432e-06	4.515012e-09	1.745977e+01	2.961193e+02
2.240000e-06	2.358522e-06	4.427772e-09	1.680490e+01	2.902808e+02
2.250000e-06	2.265749e-06	4.337766e-09	1.614387e+01	2.843202e+02
2.260000e-06	2.171989e-06	4.244058e-09	1.547582e+01	2.782313e+02
2.270000e-06	2.077244e-06	4.142442e-09	1.480074e+01	2.720082e+02
2.280000e-06	1.981633e-06	4.043088e-09	1.411950e+01	2.656458e+02
2.290000e-06	1.885370e-06	3.951037e-09	1.343360e+01	2.591410e+02
2.300000e-06	1.788552e-06	3.855039e-09	1.274376e+01	2.524934e+02
2.310000e-06	1.691243e-06	3.747750e-09	1.205041e+01	2.457050e+02
2.320000e-06	1.593363e-06	3.638351e-09	1.135300e+01	2.387799e+02
2.330000e-06	1.494900e-06	3.537708e-09	1.065143e+01	2.317228e+02
2.340000e-06	1.395930e-06	3.434657e-09	9.946252e+00	2.245373e+02
2.350000e-06	1.296577e-06	3.319081e-09	9.238348e+00	2.172244e+02
2.360000e-06	1.196979e-06	3.202859e-09	8.528691e+00	2.097813e+02
2.370000e-06	1.097178e-06	3.085918e-09	7.817595e+00	2.022011e+02
2.380000e-06	9.970673e-07	2.965149e-09	7.104285e+00	1.944734e+02
2.390000e-06	8.964728e-07	2.848020e-09	6.387531e+00	1.865855e+02
2.400000e-06	7.953977e-07	2.731991e-09	5.667353e+00	1.785244e+02
2.410000e-06	6.939548e-07	2.608039e-09	4.944554e+00	1.702786e+02
2.420000e-06	5.922576e-07	2.471554e-09	4.219943e+00	1.618396e+02
2.430000e-06	4.903296e-07	2.335212e-09	3.493687e+00	1.532026e+02
2.440000e-06	3.882108e-07	2.206719e-09	2.766072e+00	1.443658e+02
2.450000e-06	2.858725e-07	2.073436e-09	2.036894e+00	1.353288e+02
2.460000e-06	1.833240e-07	1.931136e-09	1.306217e+00	1.260916e+02
2.470000e-06	8.064793e-08	1.786102e-09	5.746312e-01	1.166520e+02
2.480000e-06	-2.205401e-08	1.640113e-09	-1.571388e-01	1.070047e+02
2.490000e-06	-1.247013e-07	1.492948e-09	-8.885191e-01	9.714136e+01
2.500000e-06	-2.273491e-07	1.342940e-09	-1.619904e+00	8.705131e+01
2.510000e-06	-3.299327e-07	1.187461e-09	-2.350830e+00	7.672329e+01
2.520000e-06	-4.323789e-07	1.027770e-09	-3.080778e+00	6.614771e+01
2.530000e-06	-5.346681e-07	8.620166e-10	-3.809607e+00	5.531841e+01
2.540000e-06	-6.366817e-07	6.924782e-10	-4.536473e+00	4.423374e+01
2.550000e-06	-7.383112e-07	5.233324e-10	-5.260601e+00	3.289643e+01
2.560000e-06	-8.395979e-07	3.496482e-10	-5.982287e+00	2.131234e+01
2.570000e-06	-9.405026e-07	1.679671e-10	-6.701251e+00	9.488520e+00
2.580000e-06	-1.040976e-06	-1.874994e-11	-7.417143e+00	-2.568737e+00
2.590000e-06	-1.141102e-06	-2.081512e-10	-8.130556e+00	-1.485513e+01
2.600000e-06	-1.240862e-06	-3.992056e-10	-8.841364e+00	-2.736812e+01
2.610000e-06	-1.340152e-06	-5.935777e-10	-9.548824e+00	-4.010506e+01
2.620000e-06	-1.438960e-06	-7.926987e-10	-1.025285e+01	-5.305980e+01
2.630000e-06	-1.537269e-06	-9.978602e-10	-1.095332e+01	-6.621837e+01
2.640000e-06	-1.635036e-06	-1.205421e-09	-1.164993e+01	-7.955497e+01
2.650000e-06	-1.732200e-06	-1.412205e-09	-1.234224e+01	-9.302902e+01
2.660000e-06	-1.828744e-06	-1.620780e-09	-1.303013e+01	-1.065846e+02
2.670000e-06	-1.924789e-06	-1.830575e-09	-1.371447e+01	-1.201523e+02
2.680000e-06	-2.020343e-06	-2.040829e-09	-1.439531e+01	-1.336540e+02
2.690000e-06	-2.115217e-06	-2.248429e-09	-1.507130e+01	-1.470094e+02
2.700000e-06	-2.209136e-06	-2.450345e-09	-1.574049e+01	-1.601432e+02
2.710000e-06	-2.302066e-06	-2.645839e-09	-1.640264e+01	-1.729913e+02
2.720000e-06	-2.394089e-06	-2.837062e-09	-1.705832e+01	-1.855061e+02
2.730000e-06	-2.485246e-06	-3.023516e-09	-1.770783e+01	-1.976581e+02
2.740000e-06	-2.575536e-06	-3.203121e-09	-1.835116e+01	-2.094345e+02
2.750000e-06	-2.664859e-06	-3.376123e-09	-1.898760e+01	-2.208358e+02
2.760000e-06	-2.753255e-06	-3.544413e-09	-1.961744e+01	-2.318705e+02
2.770000e-06	-2.840884e-06	-3.709057e-09	-2.024181e+01	-2.425492e+02
2.780000e-06	-2.927604e-06	-3.868337e-09	-2.085971e+01	-2.528800e+02
2.790000e-06	-3.013102e-06	-4.019849e-09	-2.146890e+01	-2.628653e+02
2.800000e-06	-3.097401e-06	-4.164246e-09	-2.206954e+01	-2.725015e+02
2.810000e-06	-3.180651e-06	-4.303185e-09	-2.266271e+01	-2.817807e+02
2.820000e-06	-3.262881e-06	-4.437794e-09	-2.324862e+01	-2.906933e+02
2.830000e-06	-3.344002e-06	-4.569048e-09	-2.382662e+01	-2.992322e+02
2.840000e-06	-3.423989e-06	-4.696593e-09	-2.439655e+01	-3.073959e+02
2.850000e-06	-3.502826e-06	-4.818498e-09	-2.495827e+01	-3.151903e+02
2.860000e-06	-3.580274e-06	-4.932987e-09	-2.551010e+01	-3.226290e+02
2.870000e-06	-3.656179e-06	-5.041903e-09	-2.605094e+01	-3.297321e+02
2.880000e-06	-3.730628e-06	-5.147511e-09	-2.658140e+01	-3.365237e+02
2.890000e-06	-3.803707e-06	-5.248454e-09	-2.710210e+01	-3.430287e+02
2.900000e-06	-3.875512e-06	-5.344305e-09	-2.761373e+01	-3.492709e+02
2.910000e-06	-3.945911e-06	-5.435435e-09	-2.811533e+01	-3.552702e+02
2.920000e-06	-4.014695e-06	-5.522162e-09	-2.860543e+01	-3.610431e+02
2.930000e-06	-4.081969e-06	-5.606957e-09	-2.908477e+01	-3.666022e+02
2.940000e-06	-4.147869e-06	-5.688720e-09	-2.955432e+01	-3.719578e+02
