# Temperatura_=_76.67
# Concentracion g/m^3_=_15000.0
# C_Vs_to_Am_M_A/Vsm_=_65563218390.804596
# pendiente_HvsI_1/m_=_3716.3
# ordenada_HvsI_A/m_=_1297.0
# frecuencia_Hz_=_301590.7586010044

Tiempo_(s)	Campo_(V.s)	Magnetizacion_(V.s)	Campo_(kA/m)	Magnetizacion_(A/m)
0.000000e+00	-5.392243e-06	-7.587205e-09	-3.833410e+01	-4.955215e+02
1.000000e-08	-5.389422e-06	-7.581436e-09	-3.831405e+01	-4.953024e+02
2.000000e-08	-5.384831e-06	-7.573891e-09	-3.828141e+01	-4.950088e+02
3.000000e-08	-5.378619e-06	-7.566421e-09	-3.823725e+01	-4.946303e+02
4.000000e-08	-5.370767e-06	-7.557427e-09	-3.818142e+01	-4.941496e+02
5.000000e-08	-5.361025e-06	-7.545716e-09	-3.811217e+01	-4.935463e+02
6.000000e-08	-5.349336e-06	-7.532312e-09	-3.802908e+01	-4.928030e+02
7.000000e-08	-5.335765e-06	-7.521385e-09	-3.793259e+01	-4.919111e+02
8.000000e-08	-5.320072e-06	-7.511403e-09	-3.782103e+01	-4.908748e+02
9.000000e-08	-5.302159e-06	-7.513055e-09	-3.769369e+01	-4.897118e+02
1.000000e-07	-5.282194e-06	-7.504881e-09	-3.755175e+01	-4.884517e+02
1.100000e-07	-5.260320e-06	-7.468563e-09	-3.739624e+01	-4.871304e+02
1.200000e-07	-5.236699e-06	-7.433343e-09	-3.722832e+01	-4.857825e+02
1.300000e-07	-5.211482e-06	-7.396972e-09	-3.704905e+01	-4.844341e+02
1.400000e-07	-5.184663e-06	-7.350768e-09	-3.685839e+01	-4.830961e+02
1.500000e-07	-5.156251e-06	-7.362340e-09	-3.665641e+01	-4.817613e+02
1.600000e-07	-5.126401e-06	-7.346791e-09	-3.644420e+01	-4.804048e+02
1.700000e-07	-5.094945e-06	-7.310562e-09	-3.622058e+01	-4.789881e+02
1.800000e-07	-5.061389e-06	-7.314937e-09	-3.598202e+01	-4.774664e+02
1.900000e-07	-5.026018e-06	-7.246537e-09	-3.573057e+01	-4.757972e+02
2.000000e-07	-4.989152e-06	-7.191122e-09	-3.546848e+01	-4.739472e+02
2.100000e-07	-4.950524e-06	-7.197680e-09	-3.519387e+01	-4.718985e+02
2.200000e-07	-4.910121e-06	-7.169027e-09	-3.490664e+01	-4.696505e+02
2.300000e-07	-4.867753e-06	-7.124663e-09	-3.460544e+01	-4.672179e+02
2.400000e-07	-4.823434e-06	-7.059714e-09	-3.429037e+01	-4.646264e+02
2.500000e-07	-4.777340e-06	-6.998741e-09	-3.396268e+01	-4.619060e+02
2.600000e-07	-4.729322e-06	-6.997456e-09	-3.362132e+01	-4.590843e+02
2.700000e-07	-4.679204e-06	-6.966473e-09	-3.326503e+01	-4.561811e+02
2.800000e-07	-4.627027e-06	-6.919922e-09	-3.289409e+01	-4.532053e+02
2.900000e-07	-4.573031e-06	-6.851691e-09	-3.251023e+01	-4.501551e+02
3.000000e-07	-4.517467e-06	-6.771797e-09	-3.211521e+01	-4.470200e+02
3.100000e-07	-4.460198e-06	-6.750708e-09	-3.170809e+01	-4.437855e+02
3.200000e-07	-4.401073e-06	-6.730757e-09	-3.128776e+01	-4.404375e+02
3.300000e-07	-4.340365e-06	-6.674726e-09	-3.085617e+01	-4.369663e+02
3.400000e-07	-4.278209e-06	-6.597696e-09	-3.041430e+01	-4.333688e+02
3.500000e-07	-4.214710e-06	-6.522310e-09	-2.996288e+01	-4.296488e+02
3.600000e-07	-4.149737e-06	-6.469546e-09	-2.950098e+01	-4.258153e+02
3.700000e-07	-4.082974e-06	-6.432673e-09	-2.902635e+01	-4.218794e+02
3.800000e-07	-4.014650e-06	-6.384266e-09	-2.854063e+01	-4.178511e+02
3.900000e-07	-3.945048e-06	-6.304265e-09	-2.804582e+01	-4.137366e+02
4.000000e-07	-3.874233e-06	-6.218858e-09	-2.754239e+01	-4.095366e+02
4.100000e-07	-3.802196e-06	-6.154508e-09	-2.703027e+01	-4.052465e+02
4.200000e-07	-3.728592e-06	-6.096997e-09	-2.650701e+01	-4.008577e+02
4.300000e-07	-3.653341e-06	-6.042671e-09	-2.597204e+01	-3.963596e+02
4.400000e-07	-3.576715e-06	-5.973289e-09	-2.542730e+01	-3.917424e+02
4.500000e-07	-3.498680e-06	-5.886462e-09	-2.487254e+01	-3.869984e+02
4.600000e-07	-3.419119e-06	-5.800388e-09	-2.430693e+01	-3.821240e+02
4.700000e-07	-3.338254e-06	-5.733974e-09	-2.373205e+01	-3.771189e+02
4.800000e-07	-3.256285e-06	-5.677810e-09	-2.314932e+01	-3.719858e+02
4.900000e-07	-3.173218e-06	-5.594622e-09	-2.255879e+01	-3.667289e+02
5.000000e-07	-3.089104e-06	-5.493188e-09	-2.196081e+01	-3.613525e+02
5.100000e-07	-3.004054e-06	-5.396394e-09	-2.135618e+01	-3.558597e+02
5.200000e-07	-2.918070e-06	-5.316239e-09	-2.074491e+01	-3.502518e+02
5.300000e-07	-2.831106e-06	-5.241024e-09	-2.012667e+01	-3.445283e+02
5.400000e-07	-2.743322e-06	-5.158161e-09	-1.950261e+01	-3.386871e+02
5.500000e-07	-2.654598e-06	-5.061394e-09	-1.887185e+01	-3.327250e+02
5.600000e-07	-2.564520e-06	-4.953876e-09	-1.823148e+01	-3.266383e+02
5.700000e-07	-2.473294e-06	-4.858369e-09	-1.758294e+01	-3.204232e+02
5.800000e-07	-2.381306e-06	-4.777616e-09	-1.692899e+01	-3.140758e+02
5.900000e-07	-2.288551e-06	-4.688597e-09	-1.626958e+01	-3.075923e+02
6.000000e-07	-2.195037e-06	-4.577415e-09	-1.560478e+01	-3.009690e+02
6.100000e-07	-2.100731e-06	-4.463087e-09	-1.493435e+01	-2.942027e+02
6.200000e-07	-2.005664e-06	-4.356855e-09	-1.425851e+01	-2.872907e+02
6.300000e-07	-1.910000e-06	-4.253306e-09	-1.357842e+01	-2.802315e+02
6.400000e-07	-1.813695e-06	-4.151396e-09	-1.289378e+01	-2.730248e+02
6.500000e-07	-1.716517e-06	-4.044665e-09	-1.220293e+01	-2.656717e+02
6.600000e-07	-1.618444e-06	-3.925239e-09	-1.150572e+01	-2.581741e+02
6.700000e-07	-1.519686e-06	-3.797158e-09	-1.080363e+01	-2.505336e+02
6.800000e-07	-1.420403e-06	-3.675022e-09	-1.009782e+01	-2.427508e+02
6.900000e-07	-1.320750e-06	-3.560712e-09	-9.389372e+00	-2.348239e+02
7.000000e-07	-1.220773e-06	-3.442564e-09	-8.678621e+00	-2.267478e+02
7.100000e-07	-1.120408e-06	-3.313510e-09	-7.965117e+00	-2.185142e+02
7.200000e-07	-1.019673e-06	-3.180522e-09	-7.248978e+00	-2.101125e+02
7.300000e-07	-9.186285e-07	-3.049675e-09	-6.530641e+00	-2.015306e+02
7.400000e-07	-8.172522e-07	-2.919728e-09	-5.809944e+00	-1.927573e+02
7.500000e-07	-7.155776e-07	-2.786339e-09	-5.087127e+00	-1.837836e+02
7.600000e-07	-6.136457e-07	-2.644616e-09	-4.362481e+00	-1.746040e+02
7.700000e-07	-5.114799e-07	-2.495877e-09	-3.636172e+00	-1.652168e+02
7.800000e-07	-4.091816e-07	-2.345444e-09	-2.908921e+00	-1.556234e+02
7.900000e-07	-3.067787e-07	-2.198455e-09	-2.180927e+00	-1.458262e+02
8.000000e-07	-2.042352e-07	-2.050578e-09	-1.451933e+00	-1.358273e+02
8.100000e-07	-1.015379e-07	-1.894471e-09	-7.218451e-01	-1.256256e+02
8.200000e-07	1.241595e-09	-1.729852e-09	8.826651e-03	-1.152161e+02
8.300000e-07	1.040362e-07	-1.561996e-09	7.396055e-01	-1.045894e+02
8.400000e-07	2.068054e-07	-1.394207e-09	1.470205e+00	-9.373262e+01
8.500000e-07	3.094818e-07	-1.226716e-09	2.200143e+00	-8.263105e+01
8.600000e-07	4.120356e-07	-1.057146e-09	2.929211e+00	-7.127073e+01
8.700000e-07	5.144616e-07	-8.797547e-10	3.657369e+00	-5.964025e+01
8.800000e-07	6.167695e-07	-6.935957e-10	4.384689e+00	-4.773213e+01
8.900000e-07	7.188712e-07	-5.054500e-10	5.110542e+00	-3.554304e+01
9.000000e-07	8.206588e-07	-3.177862e-10	5.834162e+00	-2.307302e+01
9.100000e-07	9.221315e-07	-1.274381e-10	6.555544e+00	-1.032396e+01
9.200000e-07	1.023297e-06	6.634603e-11	7.274742e+00	2.701769e+00
9.300000e-07	1.124125e-06	2.662537e-10	7.991540e+00	1.600203e+01
9.400000e-07	1.224556e-06	4.723165e-10	8.705518e+00	2.957431e+01
9.500000e-07	1.324575e-06	6.809660e-10	9.416564e+00	4.341352e+01
9.600000e-07	1.424193e-06	8.917452e-10	1.012476e+01	5.750865e+01
9.700000e-07	1.523364e-06	1.107199e-09	1.082978e+01	7.183867e+01
9.800000e-07	1.621978e-06	1.328560e-09	1.153083e+01	8.636900e+01
9.900000e-07	1.719829e-06	1.553605e-09	1.222647e+01	1.010493e+02
1.000000e-06	1.816765e-06	1.777298e-09	1.291560e+01	1.158138e+02
1.010000e-06	1.912867e-06	1.999389e-09	1.359880e+01	1.305838e+02
1.020000e-06	2.008311e-06	2.220007e-09	1.427733e+01	1.452728e+02
1.030000e-06	2.103062e-06	2.439599e-09	1.495092e+01	1.597940e+02
1.040000e-06	2.197054e-06	2.657174e-09	1.561912e+01	1.740666e+02
1.050000e-06	2.290340e-06	2.868994e-09	1.628230e+01	1.880229e+02
1.060000e-06	2.382911e-06	3.073787e-09	1.694040e+01	2.016126e+02
1.070000e-06	2.474734e-06	3.268835e-09	1.759318e+01	2.148040e+02
1.080000e-06	2.565752e-06	3.457115e-09	1.824024e+01	2.275830e+02
1.090000e-06	2.655745e-06	3.642904e-09	1.888001e+01	2.399496e+02
1.100000e-06	2.744510e-06	3.827365e-09	1.951105e+01	2.519124e+02
1.110000e-06	2.832210e-06	4.006780e-09	2.013452e+01	2.634839e+02
1.120000e-06	2.919093e-06	4.178370e-09	2.075219e+01	2.746755e+02
1.130000e-06	3.005073e-06	4.343665e-09	2.136343e+01	2.854951e+02
1.140000e-06	3.090029e-06	4.503166e-09	2.196739e+01	2.959457e+02
1.150000e-06	3.174024e-06	4.657438e-09	2.256451e+01	3.060268e+02
1.160000e-06	3.257050e-06	4.804680e-09	2.315476e+01	3.157359e+02
1.170000e-06	3.338905e-06	4.943074e-09	2.373668e+01	3.250713e+02
1.180000e-06	3.419442e-06	5.076471e-09	2.430922e+01	3.340333e+02
1.190000e-06	3.498797e-06	5.206867e-09	2.487337e+01	3.426256e+02
1.200000e-06	3.576970e-06	5.334064e-09	2.542911e+01	3.508556e+02
1.210000e-06	3.653850e-06	5.456844e-09	2.597566e+01	3.587332e+02
1.220000e-06	3.729413e-06	5.570219e-09	2.651285e+01	3.662697e+02
1.230000e-06	3.803396e-06	5.675351e-09	2.703880e+01	3.734773e+02
1.240000e-06	3.875729e-06	5.775915e-09	2.755302e+01	3.803684e+02
1.250000e-06	3.946658e-06	5.876116e-09	2.805727e+01	3.869559e+02
1.260000e-06	4.016225e-06	5.974893e-09	2.855183e+01	3.932539e+02
1.270000e-06	4.084462e-06	6.065788e-09	2.903693e+01	3.992787e+02
1.280000e-06	4.151247e-06	6.150128e-09	2.951172e+01	4.050491e+02
1.290000e-06	4.216315e-06	6.232178e-09	2.997429e+01	4.105860e+02
1.300000e-06	4.279800e-06	6.313246e-09	3.042561e+01	4.159111e+02
1.310000e-06	4.341874e-06	6.392575e-09	3.086691e+01	4.210450e+02
1.320000e-06	4.402510e-06	6.468964e-09	3.129797e+01	4.260045e+02
1.330000e-06	4.461695e-06	6.543523e-09	3.171872e+01	4.308010e+02
1.340000e-06	4.519185e-06	6.615061e-09	3.212743e+01	4.354388e+02
1.350000e-06	4.574907e-06	6.682887e-09	3.252356e+01	4.399159e+02
1.360000e-06	4.629004e-06	6.746500e-09	3.290815e+01	4.442249e+02
1.370000e-06	4.681408e-06	6.805211e-09	3.328069e+01	4.483558e+02
1.380000e-06	4.731902e-06	6.861343e-09	3.363966e+01	4.522990e+02
1.390000e-06	4.780309e-06	6.916439e-09	3.398379e+01	4.560475e+02
1.400000e-06	4.826877e-06	6.970443e-09	3.431485e+01	4.595993e+02
1.410000e-06	4.871919e-06	7.021886e-09	3.463505e+01	4.629568e+02
1.420000e-06	4.915447e-06	7.071345e-09	3.494450e+01	4.661265e+02
1.430000e-06	4.957183e-06	7.116907e-09	3.524121e+01	4.691168e+02
1.440000e-06	4.997043e-06	7.157294e-09	3.552458e+01	4.719355e+02
1.450000e-06	5.035226e-06	7.196172e-09	3.579603e+01	4.745883e+02
1.460000e-06	5.071818e-06	7.233492e-09	3.605617e+01	4.770777e+02
1.470000e-06	5.106667e-06	7.268154e-09	3.630391e+01	4.794035e+02
1.480000e-06	5.139551e-06	7.299051e-09	3.653769e+01	4.815642e+02
1.490000e-06	5.170594e-06	7.325770e-09	3.675837e+01	4.835590e+02
1.500000e-06	5.199958e-06	7.350204e-09	3.696713e+01	4.853897e+02
1.510000e-06	5.227674e-06	7.373990e-09	3.716417e+01	4.870621e+02
1.520000e-06	5.253375e-06	7.398209e-09	3.734688e+01	4.885853e+02
1.530000e-06	5.276918e-06	7.421852e-09	3.751424e+01	4.899708e+02
1.540000e-06	5.298622e-06	7.443506e-09	3.766854e+01	4.912299e+02
1.550000e-06	5.318628e-06	7.461467e-09	3.781077e+01	4.923709e+02
1.560000e-06	5.336773e-06	7.476260e-09	3.793976e+01	4.933977e+02
1.570000e-06	5.352899e-06	7.487957e-09	3.805441e+01	4.943087e+02
1.580000e-06	5.367082e-06	7.498411e-09	3.815523e+01	4.950976e+02
1.590000e-06	5.379248e-06	7.508958e-09	3.824172e+01	4.957565e+02
1.600000e-06	5.389240e-06	7.517654e-09	3.831275e+01	4.962785e+02
1.610000e-06	5.397154e-06	7.525296e-09	3.836902e+01	4.966609e+02
1.620000e-06	5.403167e-06	7.532125e-09	3.841177e+01	4.969075e+02
1.630000e-06	5.407387e-06	7.536543e-09	3.844177e+01	4.970289e+02
1.640000e-06	5.409689e-06	7.538543e-09	3.845813e+01	4.970403e+02
1.650000e-06	5.409952e-06	7.540549e-09	3.846000e+01	4.969583e+02
1.660000e-06	5.408377e-06	7.541435e-09	3.844880e+01	4.967965e+02
1.670000e-06	5.405174e-06	7.536452e-09	3.842603e+01	4.965614e+02
1.680000e-06	5.400283e-06	7.530741e-09	3.839126e+01	4.962503e+02
1.690000e-06	5.393493e-06	7.524794e-09	3.834299e+01	4.958512e+02
1.700000e-06	5.384911e-06	7.517915e-09	3.828198e+01	4.953455e+02
1.710000e-06	5.374769e-06	7.510018e-09	3.820988e+01	4.947130e+02
1.720000e-06	5.362858e-06	7.499353e-09	3.812520e+01	4.939378e+02
1.730000e-06	5.348872e-06	7.485553e-09	3.802577e+01	4.930137e+02
1.740000e-06	5.332892e-06	7.451094e-09	3.791217e+01	4.919478e+02
1.750000e-06	5.314651e-06	7.419329e-09	3.778249e+01	4.907608e+02
1.760000e-06	5.293622e-06	7.419089e-09	3.763300e+01	4.894841e+02
1.770000e-06	5.270297e-06	7.407397e-09	3.746718e+01	4.881539e+02
1.780000e-06	5.245767e-06	7.407804e-09	3.729279e+01	4.868037e+02
1.790000e-06	5.220483e-06	7.394794e-09	3.711304e+01	4.854568e+02
1.800000e-06	5.193778e-06	7.311227e-09	3.692319e+01	4.841203e+02
1.810000e-06	5.164810e-06	7.333189e-09	3.671726e+01	4.827831e+02
1.820000e-06	5.134005e-06	7.337972e-09	3.649826e+01	4.814168e+02
1.830000e-06	5.101577e-06	7.262798e-09	3.626772e+01	4.799810e+02
1.840000e-06	5.067202e-06	7.321326e-09	3.602335e+01	4.784307e+02
1.850000e-06	5.031243e-06	7.326908e-09	3.576771e+01	4.767247e+02
1.860000e-06	4.993576e-06	7.252593e-09	3.549993e+01	4.748326e+02
1.870000e-06	4.953994e-06	7.230663e-09	3.521854e+01	4.727403e+02
1.880000e-06	4.912737e-06	7.162427e-09	3.492524e+01	4.704506e+02
1.890000e-06	4.869705e-06	7.163887e-09	3.461932e+01	4.679811e+02
1.900000e-06	4.825012e-06	7.155396e-09	3.430159e+01	4.653590e+02
1.910000e-06	4.778467e-06	7.061165e-09	3.397069e+01	4.626143e+02
1.920000e-06	4.729826e-06	7.047454e-09	3.362490e+01	4.597734e+02
1.930000e-06	4.679559e-06	6.973012e-09	3.326754e+01	4.568539e+02
1.940000e-06	4.627588e-06	6.933089e-09	3.289808e+01	4.538623e+02
1.950000e-06	4.573553e-06	6.948630e-09	3.251394e+01	4.507945e+02
1.960000e-06	4.517579e-06	6.866830e-09	3.211601e+01	4.476390e+02
1.970000e-06	4.459906e-06	6.796781e-09	3.170601e+01	4.443808e+02
1.980000e-06	4.400818e-06	6.711766e-09	3.128595e+01	4.410066e+02
1.990000e-06	4.340241e-06	6.676313e-09	3.085529e+01	4.375079e+02
2.000000e-06	4.277911e-06	6.673145e-09	3.041218e+01	4.338832e+02
2.010000e-06	4.213999e-06	6.594403e-09	2.995782e+01	4.301376e+02
2.020000e-06	4.148661e-06	6.538854e-09	2.949333e+01	4.262808e+02
2.030000e-06	4.081873e-06	6.458065e-09	2.901853e+01	4.223240e+02
2.040000e-06	4.013610e-06	6.387839e-09	2.853324e+01	4.182765e+02
2.050000e-06	3.943798e-06	6.341471e-09	2.803694e+01	4.141433e+02
2.060000e-06	3.872447e-06	6.289995e-09	2.752969e+01	4.099241e+02
2.070000e-06	3.799758e-06	6.245849e-09	2.701294e+01	4.056133e+02
2.080000e-06	3.725814e-06	6.138495e-09	2.648726e+01	4.012016e+02
2.090000e-06	3.650518e-06	6.053097e-09	2.595197e+01	3.966783e+02
2.100000e-06	3.573740e-06	5.999125e-09	2.540615e+01	3.920340e+02
2.110000e-06	3.495340e-06	5.946220e-09	2.484879e+01	3.872618e+02
2.120000e-06	3.415569e-06	5.874028e-09	2.428169e+01	3.823589e+02
2.130000e-06	3.334712e-06	5.770725e-09	2.370687e+01	3.773256e+02
2.140000e-06	3.252717e-06	5.694934e-09	2.312395e+01	3.721652e+02
2.150000e-06	3.169640e-06	5.615547e-09	2.253335e+01	3.668820e+02
2.160000e-06	3.085568e-06	5.548430e-09	2.193567e+01	3.614800e+02
2.170000e-06	3.000285e-06	5.479672e-09	2.132939e+01	3.559621e+02
2.180000e-06	2.913685e-06	5.382003e-09	2.071374e+01	3.503291e+02
2.190000e-06	2.825986e-06	5.271096e-09	2.009027e+01	3.445802e+02
2.200000e-06	2.737301e-06	5.174003e-09	1.945980e+01	3.387129e+02
2.210000e-06	2.647671e-06	5.108768e-09	1.882261e+01	3.327240e+02
2.220000e-06	2.557150e-06	5.028733e-09	1.817908e+01	3.266097e+02
2.230000e-06	2.465793e-06	4.923045e-09	1.752962e+01	3.203662e+02
2.240000e-06	2.373718e-06	4.812591e-09	1.687505e+01	3.139895e+02
2.250000e-06	2.280828e-06	4.709939e-09	1.621468e+01	3.074759e+02
2.260000e-06	2.186928e-06	4.610883e-09	1.554713e+01	3.008218e+02
2.270000e-06	2.092055e-06	4.518299e-09	1.487267e+01	2.940241e+02
2.280000e-06	1.996326e-06	4.421341e-09	1.419212e+01	2.870802e+02
2.290000e-06	1.899871e-06	4.302289e-09	1.350641e+01	2.799889e+02
2.300000e-06	1.802872e-06	4.176134e-09	1.281683e+01	2.727503e+02
2.310000e-06	1.705412e-06	4.063684e-09	1.212398e+01	2.653657e+02
2.320000e-06	1.607373e-06	3.966628e-09	1.142701e+01	2.578369e+02
2.330000e-06	1.508742e-06	3.860627e-09	1.072583e+01	2.501655e+02
2.340000e-06	1.409644e-06	3.735566e-09	1.002133e+01	2.423517e+02
2.350000e-06	1.310166e-06	3.603069e-09	9.314128e+00	2.343929e+02
2.360000e-06	1.210403e-06	3.475551e-09	8.604898e+00	2.262834e+02
2.370000e-06	1.110420e-06	3.354467e-09	7.894109e+00	2.180144e+02
2.380000e-06	1.010148e-06	3.234505e-09	7.181261e+00	2.095746e+02
2.390000e-06	9.093938e-07	3.105057e-09	6.464990e+00	2.009522e+02
2.400000e-06	8.081818e-07	2.962801e-09	5.745461e+00	1.921362e+02
2.410000e-06	7.065842e-07	2.819955e-09	5.023192e+00	1.831183e+02
2.420000e-06	6.046500e-07	2.683308e-09	4.298530e+00	1.738938e+02
2.430000e-06	5.024726e-07	2.548972e-09	3.572138e+00	1.644618e+02
2.440000e-06	4.000102e-07	2.404859e-09	2.843721e+00	1.548241e+02
2.450000e-06	2.973719e-07	2.248114e-09	2.114052e+00	1.449832e+02
2.460000e-06	1.946245e-07	2.088722e-09	1.383609e+00	1.349406e+02
2.470000e-06	9.173526e-08	1.935173e-09	6.521570e-01	1.246945e+02
2.480000e-06	-1.125970e-08	1.785061e-09	-8.004655e-02	1.142390e+02
2.490000e-06	-1.142701e-07	1.628562e-09	-8.123599e-01	1.035638e+02
2.500000e-06	-2.171747e-07	1.460471e-09	-1.543921e+00	9.265533e+01
2.510000e-06	-3.200277e-07	1.285030e-09	-2.275115e+00	8.149902e+01
2.520000e-06	-4.227684e-07	1.109992e-09	-3.005512e+00	7.008122e+01
2.530000e-06	-5.253502e-07	9.356900e-10	-3.734778e+00	5.839131e+01
2.540000e-06	-6.277369e-07	7.572833e-10	-4.462657e+00	4.642271e+01
2.550000e-06	-7.297562e-07	5.703332e-10	-5.187924e+00	3.417292e+01
2.560000e-06	-8.313254e-07	3.714447e-10	-5.909992e+00	2.164248e+01
2.570000e-06	-9.324668e-07	1.675425e-10	-6.629018e+00	8.833523e+00
2.580000e-06	-1.033146e-06	-3.307510e-11	-7.344756e+00	-4.251629e+00
2.590000e-06	-1.133354e-06	-2.332460e-10	-8.057147e+00	-1.761086e+01
2.600000e-06	-1.233228e-06	-4.400599e-10	-8.767169e+00	-3.124132e+01
2.610000e-06	-1.332776e-06	-6.577356e-10	-9.474864e+00	-4.513700e+01
2.620000e-06	-1.431893e-06	-8.798836e-10	-1.017950e+01	-5.928507e+01
2.630000e-06	-1.530478e-06	-1.100877e-09	-1.088035e+01	-7.366186e+01
2.640000e-06	-1.628524e-06	-1.321181e-09	-1.157737e+01	-8.822954e+01
2.650000e-06	-1.726026e-06	-1.544256e-09	-1.227053e+01	-1.029344e+02
2.660000e-06	-1.822924e-06	-1.772857e-09	-1.295939e+01	-1.177074e+02
2.670000e-06	-1.919212e-06	-2.002976e-09	-1.364391e+01	-1.324679e+02
2.680000e-06	-2.014979e-06	-2.230476e-09	-1.432473e+01	-1.471286e+02
2.690000e-06	-2.110182e-06	-2.452045e-09	-1.500154e+01	-1.616033e+02
2.700000e-06	-2.204477e-06	-2.667550e-09	-1.567189e+01	-1.758137e+02
2.710000e-06	-2.297653e-06	-2.880720e-09	-1.633429e+01	-1.896955e+02
2.720000e-06	-2.389829e-06	-3.092623e-09	-1.698958e+01	-2.032023e+02
2.730000e-06	-2.481209e-06	-3.297617e-09	-1.763921e+01	-2.163064e+02
2.740000e-06	-2.571774e-06	-3.492017e-09	-1.828305e+01	-2.289971e+02
2.750000e-06	-2.661369e-06	-3.678016e-09	-1.891999e+01	-2.412766e+02
2.760000e-06	-2.750040e-06	-3.860036e-09	-1.955036e+01	-2.531549e+02
2.770000e-06	-2.837937e-06	-4.038802e-09	-2.017523e+01	-2.646446e+02
2.780000e-06	-2.925003e-06	-4.211591e-09	-2.079420e+01	-2.757564e+02
2.790000e-06	-3.010921e-06	-4.374285e-09	-2.140500e+01	-2.864972e+02
2.800000e-06	-3.095553e-06	-4.527224e-09	-2.200666e+01	-2.968692e+02
2.810000e-06	-3.179074e-06	-4.675634e-09	-2.260042e+01	-3.068712e+02
2.820000e-06	-3.261551e-06	-4.821717e-09	-2.318676e+01	-3.165008e+02
2.830000e-06	-3.342930e-06	-4.965585e-09	-2.376529e+01	-3.257564e+02
2.840000e-06	-3.423209e-06	-5.104778e-09	-2.433600e+01	-3.346392e+02
2.850000e-06	-3.502325e-06	-5.237750e-09	-2.489845e+01	-3.431536e+02
2.860000e-06	-3.580022e-06	-5.363350e-09	-2.545080e+01	-3.513076e+02
2.870000e-06	-3.656173e-06	-5.482292e-09	-2.599218e+01	-3.591115e+02
2.880000e-06	-3.730899e-06	-5.597691e-09	-2.652341e+01	-3.665769e+02
2.890000e-06	-3.804242e-06	-5.707694e-09	-2.704482e+01	-3.737161e+02
2.900000e-06	-3.876332e-06	-5.811475e-09	-2.755731e+01	-3.805414e+02
2.910000e-06	-3.947084e-06	-5.911424e-09	-2.806030e+01	-3.870660e+02
2.920000e-06	-4.016198e-06	-6.008628e-09	-2.855163e+01	-3.933044e+02
2.930000e-06	-4.083808e-06	-6.101555e-09	-2.903228e+01	-3.992735e+02
2.940000e-06	-4.149979e-06	-6.189472e-09	-2.950270e+01	-4.049924e+02
