# Temperatura_=_79.8
# Concentracion g/m^3_=_15000.0
# C_Vs_to_Am_M_A/Vsm_=_65563218390.804596
# pendiente_HvsI_1/m_=_3716.3
# ordenada_HvsI_A/m_=_1297.0
# frecuencia_Hz_=_301580.9540533548

Tiempo_(s)	Campo_(V.s)	Magnetizacion_(V.s)	Campo_(kA/m)	Magnetizacion_(A/m)
0.000000e+00	-5.365623e-06	-7.802196e-09	-3.834171e+01	-5.096797e+02
1.000000e-08	-5.362782e-06	-7.797676e-09	-3.832140e+01	-5.094576e+02
2.000000e-08	-5.358156e-06	-7.789984e-09	-3.828834e+01	-5.091571e+02
3.000000e-08	-5.351942e-06	-7.783900e-09	-3.824394e+01	-5.087662e+02
4.000000e-08	-5.344182e-06	-7.774318e-09	-3.818849e+01	-5.082656e+02
5.000000e-08	-5.334531e-06	-7.761083e-09	-3.811953e+01	-5.076331e+02
6.000000e-08	-5.322787e-06	-7.746582e-09	-3.803560e+01	-5.068513e+02
7.000000e-08	-5.309259e-06	-7.723298e-09	-3.793894e+01	-5.059127e+02
8.000000e-08	-5.293678e-06	-7.720785e-09	-3.782760e+01	-5.048244e+02
9.000000e-08	-5.275744e-06	-7.763821e-09	-3.769945e+01	-5.036085e+02
1.000000e-07	-5.255746e-06	-7.733270e-09	-3.755654e+01	-5.022991e+02
1.100000e-07	-5.233881e-06	-7.670934e-09	-3.740030e+01	-5.009362e+02
1.200000e-07	-5.210307e-06	-7.633682e-09	-3.723184e+01	-4.995570e+02
1.300000e-07	-5.185248e-06	-7.522953e-09	-3.705278e+01	-4.981874e+02
1.400000e-07	-5.158556e-06	-7.580910e-09	-3.686204e+01	-4.968361e+02
1.500000e-07	-5.130190e-06	-7.669590e-09	-3.665934e+01	-4.954909e+02
1.600000e-07	-5.100450e-06	-7.497479e-09	-3.644683e+01	-4.941207e+02
1.700000e-07	-5.069235e-06	-7.546717e-09	-3.622377e+01	-4.926806e+02
1.800000e-07	-5.035850e-06	-7.557584e-09	-3.598521e+01	-4.911205e+02
1.900000e-07	-5.000532e-06	-7.372064e-09	-3.573283e+01	-4.893947e+02
2.000000e-07	-4.963845e-06	-7.458953e-09	-3.547068e+01	-4.874700e+02
2.100000e-07	-4.925387e-06	-7.408687e-09	-3.519586e+01	-4.853309e+02
2.200000e-07	-4.885122e-06	-7.262516e-09	-3.490813e+01	-4.829815e+02
2.300000e-07	-4.842912e-06	-7.323201e-09	-3.460651e+01	-4.804425e+02
2.400000e-07	-4.798728e-06	-7.286639e-09	-3.429078e+01	-4.777450e+02
2.500000e-07	-4.752829e-06	-7.241855e-09	-3.396280e+01	-4.749227e+02
2.600000e-07	-4.705066e-06	-7.216112e-09	-3.362149e+01	-4.720044e+02
2.700000e-07	-4.655240e-06	-7.114036e-09	-3.326544e+01	-4.690083e+02
2.800000e-07	-4.603315e-06	-7.089577e-09	-3.289439e+01	-4.659397e+02
2.900000e-07	-4.549507e-06	-7.058627e-09	-3.250990e+01	-4.627917e+02
3.000000e-07	-4.494124e-06	-7.006349e-09	-3.211414e+01	-4.595490e+02
3.100000e-07	-4.437135e-06	-6.948539e-09	-3.170691e+01	-4.561939e+02
3.200000e-07	-4.378329e-06	-6.885143e-09	-3.128669e+01	-4.527112e+02
3.300000e-07	-4.317906e-06	-6.823776e-09	-3.085492e+01	-4.490928e+02
3.400000e-07	-4.256066e-06	-6.751148e-09	-3.041302e+01	-4.453395e+02
3.500000e-07	-4.192866e-06	-6.737592e-09	-2.996141e+01	-4.414601e+02
3.600000e-07	-4.128144e-06	-6.673780e-09	-2.949892e+01	-4.374682e+02
3.700000e-07	-4.061666e-06	-6.576588e-09	-2.902388e+01	-4.333779e+02
3.800000e-07	-3.993641e-06	-6.531301e-09	-2.853778e+01	-4.291996e+02
3.900000e-07	-3.924307e-06	-6.466108e-09	-2.804234e+01	-4.249371e+02
4.000000e-07	-3.853754e-06	-6.400049e-09	-2.753818e+01	-4.205864e+02
4.100000e-07	-3.782073e-06	-6.324164e-09	-2.702596e+01	-4.161368e+02
4.200000e-07	-3.709104e-06	-6.253092e-09	-2.650454e+01	-4.115742e+02
4.300000e-07	-3.634442e-06	-6.184870e-09	-2.597102e+01	-4.068843e+02
4.400000e-07	-3.558127e-06	-6.114380e-09	-2.542569e+01	-4.020563e+02
4.500000e-07	-3.480384e-06	-6.052342e-09	-2.487015e+01	-3.970856e+02
4.600000e-07	-3.401194e-06	-5.979041e-09	-2.430427e+01	-3.919739e+02
4.700000e-07	-3.320726e-06	-5.888903e-09	-2.372927e+01	-3.867286e+02
4.800000e-07	-3.239068e-06	-5.788376e-09	-2.314576e+01	-3.813599e+02
4.900000e-07	-3.156298e-06	-5.708549e-09	-2.255429e+01	-3.758781e+02
5.000000e-07	-3.072522e-06	-5.636128e-09	-2.195565e+01	-3.702904e+02
5.100000e-07	-2.987823e-06	-5.548042e-09	-2.135041e+01	-3.645993e+02
5.200000e-07	-2.902222e-06	-5.452112e-09	-2.073872e+01	-3.588024e+02
5.300000e-07	-2.815659e-06	-5.353086e-09	-2.012015e+01	-3.528929e+02
5.400000e-07	-2.728194e-06	-5.261436e-09	-1.949514e+01	-3.468618e+02
5.500000e-07	-2.639795e-06	-5.176698e-09	-1.886347e+01	-3.406999e+02
5.600000e-07	-2.550293e-06	-5.083959e-09	-1.822390e+01	-3.344003e+02
5.700000e-07	-2.459638e-06	-4.981021e-09	-1.757609e+01	-3.279587e+02
5.800000e-07	-2.368032e-06	-4.870896e-09	-1.692150e+01	-3.213739e+02
5.900000e-07	-2.275670e-06	-4.769042e-09	-1.626150e+01	-3.146470e+02
6.000000e-07	-2.182534e-06	-4.669210e-09	-1.559596e+01	-3.077797e+02
6.100000e-07	-2.088608e-06	-4.562026e-09	-1.492479e+01	-3.007733e+02
6.200000e-07	-1.993954e-06	-4.451143e-09	-1.424841e+01	-2.936272e+02
6.300000e-07	-1.898633e-06	-4.335665e-09	-1.356726e+01	-2.863392e+02
6.400000e-07	-1.802645e-06	-4.222135e-09	-1.288135e+01	-2.789058e+02
6.500000e-07	-1.705977e-06	-4.111899e-09	-1.219058e+01	-2.713230e+02
6.600000e-07	-1.608663e-06	-3.998044e-09	-1.149519e+01	-2.635878e+02
6.700000e-07	-1.510634e-06	-3.872550e-09	-1.079470e+01	-2.556985e+02
6.800000e-07	-1.411907e-06	-3.740840e-09	-1.008922e+01	-2.476551e+02
6.900000e-07	-1.312633e-06	-3.611449e-09	-9.379824e+00	-2.394584e+02
7.000000e-07	-1.212964e-06	-3.488633e-09	-8.667604e+00	-2.311090e+02
7.100000e-07	-1.112928e-06	-3.363663e-09	-7.952769e+00	-2.226058e+02
7.200000e-07	-1.012572e-06	-3.228062e-09	-7.235643e+00	-2.139450e+02
7.300000e-07	-9.120069e-07	-3.089724e-09	-6.517025e+00	-2.051195e+02
7.400000e-07	-8.111781e-07	-2.949498e-09	-5.796521e+00	-1.961191e+02
7.500000e-07	-7.100666e-07	-2.810961e-09	-5.073998e+00	-1.869320e+02
7.600000e-07	-6.086859e-07	-2.672477e-09	-4.349552e+00	-1.775459e+02
7.700000e-07	-5.070887e-07	-2.527211e-09	-3.623557e+00	-1.679502e+02
7.800000e-07	-4.053064e-07	-2.373486e-09	-2.896241e+00	-1.581370e+02
7.900000e-07	-3.033690e-07	-2.212926e-09	-2.167816e+00	-1.481015e+02
8.000000e-07	-2.013243e-07	-2.052851e-09	-1.438624e+00	-1.378421e+02
8.100000e-07	-9.913964e-08	-1.894387e-09	-7.084327e-01	-1.273586e+02
8.200000e-07	3.121881e-09	-1.732053e-09	2.230835e-02	-1.166512e+02
8.300000e-07	1.053572e-07	-1.562960e-09	7.528621e-01	-1.057187e+02
8.400000e-07	2.075550e-07	-1.390247e-09	1.483148e+00	-9.455712e+01
8.500000e-07	3.097318e-07	-1.217180e-09	2.213284e+00	-8.315919e+01
8.600000e-07	4.118477e-07	-1.043556e-09	2.942984e+00	-7.151484e+01
8.700000e-07	5.138064e-07	-8.633098e-10	3.671561e+00	-5.961198e+01
8.800000e-07	6.155550e-07	-6.745077e-10	4.398637e+00	-4.743798e+01
8.900000e-07	7.170984e-07	-4.822799e-10	5.124247e+00	-3.498114e+01
9.000000e-07	8.183934e-07	-2.880908e-10	5.848081e+00	-2.223211e+01
9.100000e-07	9.194306e-07	-9.266519e-11	6.570073e+00	-9.184922e+00
9.200000e-07	1.020196e-06	1.045995e-10	7.290121e+00	4.162251e+00
9.300000e-07	1.120614e-06	3.066275e-10	8.007694e+00	1.780640e+01
9.400000e-07	1.220647e-06	5.173765e-10	8.722509e+00	3.173898e+01
9.500000e-07	1.320322e-06	7.327267e-10	9.434765e+00	4.594495e+01
9.600000e-07	1.419534e-06	9.507015e-10	1.014372e+01	6.040164e+01
9.700000e-07	1.518089e-06	1.173634e-09	1.084797e+01	7.507747e+01
9.800000e-07	1.615925e-06	1.400288e-09	1.154709e+01	8.993103e+01
9.900000e-07	1.712991e-06	1.630409e-09	1.224070e+01	1.049107e+02
1.000000e-06	1.809325e-06	1.859863e-09	1.292909e+01	1.199556e+02
1.010000e-06	1.904988e-06	2.088631e-09	1.361268e+01	1.349969e+02
1.020000e-06	1.999942e-06	2.315343e-09	1.429120e+01	1.499616e+02
1.030000e-06	2.094214e-06	2.538483e-09	1.496485e+01	1.647760e+02
1.040000e-06	2.187794e-06	2.759236e-09	1.563355e+01	1.793699e+02
1.050000e-06	2.280659e-06	2.973942e-09	1.629715e+01	1.936807e+02
1.060000e-06	2.372828e-06	3.184777e-09	1.695577e+01	2.076562e+02
1.070000e-06	2.464275e-06	3.389552e-09	1.760924e+01	2.212563e+02
1.080000e-06	2.554791e-06	3.587991e-09	1.825604e+01	2.344534e+02
1.090000e-06	2.644121e-06	3.780793e-09	1.889438e+01	2.472313e+02
1.100000e-06	2.732335e-06	3.968944e-09	1.952473e+01	2.595831e+02
1.110000e-06	2.819621e-06	4.150821e-09	2.014846e+01	2.715091e+02
1.120000e-06	2.906023e-06	4.324592e-09	2.076588e+01	2.830146e+02
1.130000e-06	2.991507e-06	4.493716e-09	2.137673e+01	2.941075e+02
1.140000e-06	3.076091e-06	4.657916e-09	2.198115e+01	3.047976e+02
1.150000e-06	3.159810e-06	4.815450e-09	2.257939e+01	3.150952e+02
1.160000e-06	3.242437e-06	4.965029e-09	2.316983e+01	3.250111e+02
1.170000e-06	3.323757e-06	5.109919e-09	2.375092e+01	3.345556e+02
1.180000e-06	3.403854e-06	5.250736e-09	2.432328e+01	3.437383e+02
1.190000e-06	3.482745e-06	5.385458e-09	2.488702e+01	3.525674e+02
1.200000e-06	3.560439e-06	5.513859e-09	2.544220e+01	3.610494e+02
1.210000e-06	3.636937e-06	5.639146e-09	2.598885e+01	3.691891e+02
1.220000e-06	3.712064e-06	5.756414e-09	2.652569e+01	3.769896e+02
1.230000e-06	3.785591e-06	5.865129e-09	2.705110e+01	3.844539e+02
1.240000e-06	3.857579e-06	5.969166e-09	2.756551e+01	3.915860e+02
1.250000e-06	3.928213e-06	6.072136e-09	2.807025e+01	3.983931e+02
1.260000e-06	3.997459e-06	6.172587e-09	2.856507e+01	4.048872e+02
1.270000e-06	4.065313e-06	6.267185e-09	2.904994e+01	4.110854e+02
1.280000e-06	4.131666e-06	6.357651e-09	2.952409e+01	4.170103e+02
1.290000e-06	4.196329e-06	6.444570e-09	2.998615e+01	4.226877e+02
1.300000e-06	4.259447e-06	6.527227e-09	3.043718e+01	4.281443e+02
1.310000e-06	4.321211e-06	6.607285e-09	3.087854e+01	4.334046e+02
1.320000e-06	4.381619e-06	6.686411e-09	3.131020e+01	4.384871e+02
1.330000e-06	4.440577e-06	6.762958e-09	3.173150e+01	4.434028e+02
1.340000e-06	4.497738e-06	6.835634e-09	3.213997e+01	4.481540e+02
1.350000e-06	4.553145e-06	6.904582e-09	3.253589e+01	4.527355e+02
1.360000e-06	4.607000e-06	6.970612e-09	3.292073e+01	4.571368e+02
1.370000e-06	4.659119e-06	7.032026e-09	3.329316e+01	4.613456e+02
1.380000e-06	4.709199e-06	7.090971e-09	3.365102e+01	4.653514e+02
1.390000e-06	4.757293e-06	7.151012e-09	3.399469e+01	4.691483e+02
1.400000e-06	4.803698e-06	7.209149e-09	3.432629e+01	4.727365e+02
1.410000e-06	4.848553e-06	7.261820e-09	3.464682e+01	4.761220e+02
1.420000e-06	4.891886e-06	7.308947e-09	3.495647e+01	4.793149e+02
1.430000e-06	4.933350e-06	7.352429e-09	3.525276e+01	4.823271e+02
1.440000e-06	4.972945e-06	7.393905e-09	3.553570e+01	4.851694e+02
1.450000e-06	5.010882e-06	7.433067e-09	3.580679e+01	4.878492e+02
1.460000e-06	5.047196e-06	7.469565e-09	3.606628e+01	4.903702e+02
1.470000e-06	5.081764e-06	7.503228e-09	3.631330e+01	4.927327e+02
1.480000e-06	5.114364e-06	7.535538e-09	3.654625e+01	4.949352e+02
1.490000e-06	5.145201e-06	7.566607e-09	3.676661e+01	4.969772e+02
1.500000e-06	5.174404e-06	7.594776e-09	3.697529e+01	4.988608e+02
1.510000e-06	5.201862e-06	7.619729e-09	3.717150e+01	5.005918e+02
1.520000e-06	5.227240e-06	7.642624e-09	3.735284e+01	5.021796e+02
1.530000e-06	5.250565e-06	7.665365e-09	3.751952e+01	5.036351e+02
1.540000e-06	5.272177e-06	7.686856e-09	3.767396e+01	5.049682e+02
1.550000e-06	5.292145e-06	7.705321e-09	3.781664e+01	5.061854e+02
1.560000e-06	5.310208e-06	7.720761e-09	3.794572e+01	5.072876e+02
1.570000e-06	5.326200e-06	7.732971e-09	3.805999e+01	5.082698e+02
1.580000e-06	5.340225e-06	7.743278e-09	3.816021e+01	5.091228e+02
1.590000e-06	5.352222e-06	7.754348e-09	3.824594e+01	5.098360e+02
1.600000e-06	5.361995e-06	7.765794e-09	3.831578e+01	5.104008e+02
1.610000e-06	5.369702e-06	7.775269e-09	3.837085e+01	5.108145e+02
1.620000e-06	5.375653e-06	7.781881e-09	3.841337e+01	5.110821e+02
1.630000e-06	5.379815e-06	7.787103e-09	3.844312e+01	5.112159e+02
1.640000e-06	5.381983e-06	7.790508e-09	3.845861e+01	5.112335e+02
1.650000e-06	5.382178e-06	7.793955e-09	3.846000e+01	5.111537e+02
1.660000e-06	5.380614e-06	7.791766e-09	3.844882e+01	5.109910e+02
1.670000e-06	5.377417e-06	7.784126e-09	3.842598e+01	5.107522e+02
1.680000e-06	5.372538e-06	7.779177e-09	3.839112e+01	5.104332e+02
1.690000e-06	5.365738e-06	7.775061e-09	3.834252e+01	5.100203e+02
1.700000e-06	5.357143e-06	7.769812e-09	3.828110e+01	5.094927e+02
1.710000e-06	5.346986e-06	7.763937e-09	3.820853e+01	5.088291e+02
1.720000e-06	5.335150e-06	7.762469e-09	3.812395e+01	5.080134e+02
1.730000e-06	5.321306e-06	7.761769e-09	3.802503e+01	5.070412e+02
1.740000e-06	5.305405e-06	7.665367e-09	3.791140e+01	5.059228e+02
1.750000e-06	5.287179e-06	7.642658e-09	3.778116e+01	5.046832e+02
1.760000e-06	5.266177e-06	7.665493e-09	3.763108e+01	5.033586e+02
1.770000e-06	5.242894e-06	7.654384e-09	3.746470e+01	5.019889e+02
1.780000e-06	5.218382e-06	7.757435e-09	3.728955e+01	5.006096e+02
1.790000e-06	5.193264e-06	7.610424e-09	3.711006e+01	4.992435e+02
1.800000e-06	5.166803e-06	7.492048e-09	3.692097e+01	4.978948e+02
1.810000e-06	5.138058e-06	7.643272e-09	3.671557e+01	4.965470e+02
1.820000e-06	5.107492e-06	7.473848e-09	3.649715e+01	4.951655e+02
1.830000e-06	5.075253e-06	7.461663e-09	3.626678e+01	4.937035e+02
1.840000e-06	5.040970e-06	7.612868e-09	3.602180e+01	4.921110e+02
1.850000e-06	5.005123e-06	7.394239e-09	3.576564e+01	4.903444e+02
1.860000e-06	4.967531e-06	7.449799e-09	3.549702e+01	4.883739e+02
1.870000e-06	4.928016e-06	7.496383e-09	3.521465e+01	4.861884e+02
1.880000e-06	4.886913e-06	7.282746e-09	3.492094e+01	4.837958e+02
1.890000e-06	4.843982e-06	7.351283e-09	3.461416e+01	4.812196e+02
1.900000e-06	4.799483e-06	7.244339e-09	3.429618e+01	4.784921e+02
1.910000e-06	4.753204e-06	7.201751e-09	3.396548e+01	4.756466e+02
1.920000e-06	4.704787e-06	7.291800e-09	3.361950e+01	4.727101e+02
1.930000e-06	4.654775e-06	7.093906e-09	3.326212e+01	4.696981e+02
1.940000e-06	4.603064e-06	7.131958e-09	3.289261e+01	4.666130e+02
1.950000e-06	4.549292e-06	7.084181e-09	3.250836e+01	4.634458e+02
1.960000e-06	4.493602e-06	6.954613e-09	3.211041e+01	4.601801e+02
1.970000e-06	4.436173e-06	6.962540e-09	3.170003e+01	4.567982e+02
1.980000e-06	4.377349e-06	6.878799e-09	3.127969e+01	4.532864e+02
1.990000e-06	4.317044e-06	6.897005e-09	3.084876e+01	4.496383e+02
2.000000e-06	4.255014e-06	6.768403e-09	3.040551e+01	4.458567e+02
2.010000e-06	4.191412e-06	6.705828e-09	2.995102e+01	4.419515e+02
2.020000e-06	4.126297e-06	6.721502e-09	2.948572e+01	4.379369e+02
2.030000e-06	4.059774e-06	6.565612e-09	2.901036e+01	4.338267e+02
2.040000e-06	3.991846e-06	6.558040e-09	2.852496e+01	4.296298e+02
2.050000e-06	3.922407e-06	6.486698e-09	2.802876e+01	4.253486e+02
2.060000e-06	3.851401e-06	6.420802e-09	2.752136e+01	4.209774e+02
2.070000e-06	3.779020e-06	6.355236e-09	2.700415e+01	4.165044e+02
2.080000e-06	3.705433e-06	6.238850e-09	2.647831e+01	4.119152e+02
2.090000e-06	3.630525e-06	6.222005e-09	2.594303e+01	4.071960e+02
2.100000e-06	3.554159e-06	6.116333e-09	2.539733e+01	4.023372e+02
2.110000e-06	3.476109e-06	6.033003e-09	2.483960e+01	3.973355e+02
2.120000e-06	3.396649e-06	5.963888e-09	2.427179e+01	3.921940e+02
2.130000e-06	3.316121e-06	5.899544e-09	2.369636e+01	3.869209e+02
2.140000e-06	3.234494e-06	5.833020e-09	2.311307e+01	3.815268e+02
2.150000e-06	3.151811e-06	5.727509e-09	2.252223e+01	3.760213e+02
2.160000e-06	3.068131e-06	5.647798e-09	2.192427e+01	3.704110e+02
2.170000e-06	2.983347e-06	5.544983e-09	2.131842e+01	3.646973e+02
2.180000e-06	2.897231e-06	5.464470e-09	2.070305e+01	3.588765e+02
2.190000e-06	2.809946e-06	5.374175e-09	2.007933e+01	3.529413e+02
2.200000e-06	2.721716e-06	5.286427e-09	1.944886e+01	3.468824e+02
2.210000e-06	2.632529e-06	5.199195e-09	1.881154e+01	3.406912e+02
2.220000e-06	2.542406e-06	5.095427e-09	1.816754e+01	3.343609e+02
2.230000e-06	2.451372e-06	5.003539e-09	1.751703e+01	3.278882e+02
2.240000e-06	2.359584e-06	4.900015e-09	1.686113e+01	3.212724e+02
2.250000e-06	2.267103e-06	4.805799e-09	1.620028e+01	3.145149e+02
2.260000e-06	2.173843e-06	4.696764e-09	1.553386e+01	3.076173e+02
2.270000e-06	2.079595e-06	4.578867e-09	1.486038e+01	3.005806e+02
2.280000e-06	1.984273e-06	4.466806e-09	1.417923e+01	2.934039e+02
2.290000e-06	1.888191e-06	4.359529e-09	1.349265e+01	2.860847e+02
2.300000e-06	1.791648e-06	4.249472e-09	1.280277e+01	2.786191e+02
2.310000e-06	1.694663e-06	4.131895e-09	1.210973e+01	2.710035e+02
2.320000e-06	1.597115e-06	4.014726e-09	1.141267e+01	2.632349e+02
2.330000e-06	1.499021e-06	3.898929e-09	1.071171e+01	2.553122e+02
2.340000e-06	1.400458e-06	3.784418e-09	1.000740e+01	2.472354e+02
2.350000e-06	1.301433e-06	3.656854e-09	9.299789e+00	2.390055e+02
2.360000e-06	1.202035e-06	3.527006e-09	8.589511e+00	2.306229e+02
2.370000e-06	1.102363e-06	3.392739e-09	7.877272e+00	2.220860e+02
2.380000e-06	1.002394e-06	3.254960e-09	7.162912e+00	2.133902e+02
2.390000e-06	9.020758e-07	3.123342e-09	6.446059e+00	2.045277e+02
2.400000e-06	8.013737e-07	2.993239e-09	5.726461e+00	1.954879e+02
2.410000e-06	7.003617e-07	2.858732e-09	5.004649e+00	1.862587e+02
2.420000e-06	5.990911e-07	2.711379e-09	4.280989e+00	1.768282e+02
2.430000e-06	4.975346e-07	2.559416e-09	3.555286e+00	1.671860e+02
2.440000e-06	3.957713e-07	2.414121e-09	2.828105e+00	1.573250e+02
2.450000e-06	2.938502e-07	2.267483e-09	2.099796e+00	1.472412e+02
2.460000e-06	1.917830e-07	2.109398e-09	1.370444e+00	1.369332e+02
2.470000e-06	8.956263e-08	1.945852e-09	6.399972e-01	1.264014e+02
2.480000e-06	-1.274956e-08	1.780048e-09	-9.110586e-02	1.156455e+02
2.490000e-06	-1.150273e-07	1.613523e-09	-8.219630e-01	1.046640e+02
2.500000e-06	-2.172752e-07	1.445756e-09	-1.552606e+00	9.345202e+01
2.510000e-06	-3.193914e-07	1.274662e-09	-2.282309e+00	8.200181e+01
2.520000e-06	-4.213347e-07	1.099335e-09	-3.010776e+00	7.030270e+01
2.530000e-06	-5.231573e-07	9.134229e-10	-3.738381e+00	5.834237e+01
2.540000e-06	-6.247616e-07	7.219451e-10	-4.464426e+00	4.610825e+01
2.550000e-06	-7.260652e-07	5.319587e-10	-5.188321e+00	3.358907e+01
2.560000e-06	-8.270669e-07	3.372271e-10	-5.910060e+00	2.077610e+01
2.570000e-06	-9.277185e-07	1.321622e-10	-6.629297e+00	7.664203e+00
2.580000e-06	-1.027964e-06	-7.871769e-11	-7.345631e+00	-5.747461e+00
2.590000e-06	-1.127841e-06	-2.893055e-10	-8.059332e+00	-1.945476e+01
2.600000e-06	-1.227372e-06	-5.012967e-10	-8.770560e+00	-3.344786e+01
2.610000e-06	-1.326470e-06	-7.181089e-10	-9.478695e+00	-4.771017e+01
2.620000e-06	-1.425100e-06	-9.413511e-10	-1.018349e+01	-6.221722e+01
2.630000e-06	-1.523223e-06	-1.169847e-09	-1.088466e+01	-7.693539e+01
2.640000e-06	-1.620779e-06	-1.398918e-09	-1.158178e+01	-9.182109e+01
2.650000e-06	-1.717764e-06	-1.626663e-09	-1.227481e+01	-1.068206e+02
2.660000e-06	-1.814219e-06	-1.855002e-09	-1.296406e+01	-1.218711e+02
2.670000e-06	-1.910173e-06	-2.086206e-09	-1.364973e+01	-1.369027e+02
2.680000e-06	-2.005575e-06	-2.318119e-09	-1.433145e+01	-1.518417e+02
2.690000e-06	-2.100178e-06	-2.546881e-09	-1.500747e+01	-1.666150e+02
2.700000e-06	-2.193755e-06	-2.769446e-09	-1.567615e+01	-1.811536e+02
2.710000e-06	-2.286374e-06	-2.984829e-09	-1.633798e+01	-1.953970e+02
2.720000e-06	-2.378146e-06	-3.197513e-09	-1.699377e+01	-2.092954e+02
2.730000e-06	-2.469117e-06	-3.407246e-09	-1.764383e+01	-2.228115e+02
2.740000e-06	-2.559234e-06	-3.610313e-09	-1.828779e+01	-2.359202e+02
2.750000e-06	-2.648370e-06	-3.805963e-09	-1.892474e+01	-2.486075e+02
2.760000e-06	-2.736643e-06	-3.995411e-09	-1.955552e+01	-2.608683e+02
2.770000e-06	-2.824212e-06	-4.179803e-09	-2.018127e+01	-2.727040e+02
2.780000e-06	-2.910790e-06	-4.355864e-09	-2.079994e+01	-2.841207e+02
2.790000e-06	-2.996092e-06	-4.522467e-09	-2.140949e+01	-2.951269e+02
2.800000e-06	-3.080264e-06	-4.681731e-09	-2.201097e+01	-3.057324e+02
2.810000e-06	-3.163442e-06	-4.834839e-09	-2.260534e+01	-3.159478e+02
2.820000e-06	-3.245553e-06	-4.982657e-09	-2.319209e+01	-3.257837e+02
2.830000e-06	-3.326609e-06	-5.126671e-09	-2.377130e+01	-3.352503e+02
2.840000e-06	-3.406661e-06	-5.267812e-09	-2.434334e+01	-3.443570e+02
2.850000e-06	-3.485397e-06	-5.404072e-09	-2.490597e+01	-3.531116e+02
2.860000e-06	-3.562558e-06	-5.534078e-09	-2.545735e+01	-3.615204e+02
2.870000e-06	-3.638313e-06	-5.659223e-09	-2.599868e+01	-3.695876e+02
2.880000e-06	-3.712683e-06	-5.779613e-09	-2.653011e+01	-3.773162e+02
2.890000e-06	-3.785652e-06	-5.894180e-09	-2.705154e+01	-3.847093e+02
2.900000e-06	-3.857391e-06	-6.003867e-09	-2.756417e+01	-3.917715e+02
2.910000e-06	-3.927715e-06	-6.109010e-09	-2.806669e+01	-3.985108e+02
2.920000e-06	-3.996446e-06	-6.206364e-09	-2.855783e+01	-4.049402e+02
2.930000e-06	-4.063781e-06	-6.296980e-09	-2.903899e+01	-4.110782e+02
2.940000e-06	-4.129699e-06	-6.385928e-09	-2.951003e+01	-4.169482e+02
