# Temperatura_=_46.74
# Concentracion g/m^3_=_15000.0
# C_Vs_to_Am_M_A/Vsm_=_65563218390.804596
# pendiente_HvsI_1/m_=_3716.3
# ordenada_HvsI_A/m_=_1297.0
# frecuencia_Hz_=_301593.084510744

Tiempo_(s)	Campo_(V.s)	Magnetizacion_(V.s)	Campo_(kA/m)	Magnetizacion_(A/m)
0.000000e+00	-5.368368e-06	-6.142729e-09	-3.833660e+01	-4.017846e+02
1.000000e-08	-5.365426e-06	-6.139524e-09	-3.831559e+01	-4.016039e+02
2.000000e-08	-5.360694e-06	-6.135573e-09	-3.828179e+01	-4.013662e+02
3.000000e-08	-5.354311e-06	-6.129681e-09	-3.823622e+01	-4.010713e+02
4.000000e-08	-5.346396e-06	-6.121430e-09	-3.817969e+01	-4.007131e+02
5.000000e-08	-5.336605e-06	-6.111793e-09	-3.810977e+01	-4.002811e+02
6.000000e-08	-5.324705e-06	-6.101211e-09	-3.802479e+01	-3.997630e+02
7.000000e-08	-5.310956e-06	-6.091085e-09	-3.792661e+01	-3.991486e+02
8.000000e-08	-5.295078e-06	-6.086284e-09	-3.781322e+01	-3.984327e+02
9.000000e-08	-5.276936e-06	-6.095763e-09	-3.768366e+01	-3.976175e+02
1.000000e-07	-5.256846e-06	-6.083017e-09	-3.754020e+01	-3.967131e+02
1.100000e-07	-5.234901e-06	-6.047094e-09	-3.738349e+01	-3.957360e+02
1.200000e-07	-5.211301e-06	-6.015198e-09	-3.721495e+01	-3.947059e+02
1.300000e-07	-5.186175e-06	-5.982077e-09	-3.703552e+01	-3.936416e+02
1.400000e-07	-5.159369e-06	-5.985660e-09	-3.684409e+01	-3.925564e+02
1.500000e-07	-5.130980e-06	-5.999578e-09	-3.664136e+01	-3.914552e+02
1.600000e-07	-5.101177e-06	-5.953963e-09	-3.642853e+01	-3.903327e+02
1.700000e-07	-5.069748e-06	-5.941509e-09	-3.620409e+01	-3.891739e+02
1.800000e-07	-5.036161e-06	-5.927915e-09	-3.596424e+01	-3.879567e+02
1.900000e-07	-5.000748e-06	-5.874586e-09	-3.571135e+01	-3.866562e+02
2.000000e-07	-4.963918e-06	-5.860891e-09	-3.544834e+01	-3.852495e+02
2.100000e-07	-4.925262e-06	-5.816198e-09	-3.517229e+01	-3.837195e+02
2.200000e-07	-4.884817e-06	-5.787434e-09	-3.488346e+01	-3.820580e+02
2.300000e-07	-4.842458e-06	-5.810211e-09	-3.458097e+01	-3.802668e+02
2.400000e-07	-4.798162e-06	-5.785055e-09	-3.426465e+01	-3.783561e+02
2.500000e-07	-4.752100e-06	-5.753376e-09	-3.393570e+01	-3.763420e+02
2.600000e-07	-4.704130e-06	-5.700488e-09	-3.359314e+01	-3.742422e+02
2.700000e-07	-4.654182e-06	-5.621036e-09	-3.323645e+01	-3.720728e+02
2.800000e-07	-4.602115e-06	-5.628738e-09	-3.286463e+01	-3.698445e+02
2.900000e-07	-4.548124e-06	-5.629494e-09	-3.247907e+01	-3.675616e+02
3.000000e-07	-4.492659e-06	-5.576157e-09	-3.208298e+01	-3.652217e+02
3.100000e-07	-4.435550e-06	-5.538095e-09	-3.167515e+01	-3.628174e+02
3.200000e-07	-4.376551e-06	-5.485479e-09	-3.125383e+01	-3.603387e+02
3.300000e-07	-4.315985e-06	-5.426690e-09	-3.082132e+01	-3.577759e+02
3.400000e-07	-4.254040e-06	-5.400312e-09	-3.037896e+01	-3.551216e+02
3.500000e-07	-4.190709e-06	-5.381786e-09	-2.992670e+01	-3.523726e+02
3.600000e-07	-4.125943e-06	-5.325939e-09	-2.946419e+01	-3.495297e+02
3.700000e-07	-4.059530e-06	-5.270324e-09	-2.898992e+01	-3.465966e+02
3.800000e-07	-3.991517e-06	-5.238483e-09	-2.850423e+01	-3.435787e+02
3.900000e-07	-3.922158e-06	-5.188721e-09	-2.800892e+01	-3.404803e+02
4.000000e-07	-3.851501e-06	-5.134099e-09	-2.750434e+01	-3.373035e+02
4.100000e-07	-3.779682e-06	-5.080361e-09	-2.699147e+01	-3.340470e+02
4.200000e-07	-3.706485e-06	-5.027076e-09	-2.646875e+01	-3.307057e+02
4.300000e-07	-3.631589e-06	-4.982744e-09	-2.593391e+01	-3.272723e+02
4.400000e-07	-3.555114e-06	-4.940199e-09	-2.538778e+01	-3.237381e+02
4.500000e-07	-3.477205e-06	-4.897333e-09	-2.483142e+01	-3.200951e+02
4.600000e-07	-3.397859e-06	-4.836908e-09	-2.426480e+01	-3.163375e+02
4.700000e-07	-3.317199e-06	-4.748626e-09	-2.368878e+01	-3.124631e+02
4.800000e-07	-3.235450e-06	-4.673780e-09	-2.310500e+01	-3.084730e+02
4.900000e-07	-3.152575e-06	-4.631110e-09	-2.251318e+01	-3.043718e+02
5.000000e-07	-3.068716e-06	-4.579763e-09	-2.191432e+01	-3.001661e+02
5.100000e-07	-2.984033e-06	-4.508788e-09	-2.130958e+01	-2.958631e+02
5.200000e-07	-2.898382e-06	-4.438093e-09	-2.069793e+01	-2.914692e+02
5.300000e-07	-2.811748e-06	-4.362170e-09	-2.007926e+01	-2.869884e+02
5.400000e-07	-2.724222e-06	-4.286627e-09	-1.945422e+01	-2.824218e+02
5.500000e-07	-2.635767e-06	-4.222062e-09	-1.882255e+01	-2.777669e+02
5.600000e-07	-2.546144e-06	-4.155608e-09	-1.818252e+01	-2.730184e+02
5.700000e-07	-2.455319e-06	-4.077660e-09	-1.753393e+01	-2.681689e+02
5.800000e-07	-2.363599e-06	-3.994802e-09	-1.687894e+01	-2.632099e+02
5.900000e-07	-2.271101e-06	-3.922117e-09	-1.621839e+01	-2.581333e+02
6.000000e-07	-2.177796e-06	-3.850045e-09	-1.555208e+01	-2.529326e+02
6.100000e-07	-2.083755e-06	-3.763840e-09	-1.488052e+01	-2.476038e+02
6.200000e-07	-1.988943e-06	-3.672993e-09	-1.420345e+01	-2.421457e+02
6.300000e-07	-1.893479e-06	-3.586634e-09	-1.352172e+01	-2.365596e+02
6.400000e-07	-1.797481e-06	-3.504224e-09	-1.283618e+01	-2.308491e+02
6.500000e-07	-1.700790e-06	-3.420655e-09	-1.214568e+01	-2.250186e+02
6.600000e-07	-1.603275e-06	-3.331561e-09	-1.144931e+01	-2.190721e+02
6.700000e-07	-1.505013e-06	-3.232252e-09	-1.074760e+01	-2.130119e+02
6.800000e-07	-1.406124e-06	-3.126667e-09	-1.004141e+01	-2.068376e+02
6.900000e-07	-1.306736e-06	-3.027461e-09	-9.331664e+00	-2.005457e+02
7.000000e-07	-1.207026e-06	-2.937893e-09	-8.619620e+00	-1.941297e+02
7.100000e-07	-1.107024e-06	-2.844623e-09	-7.905483e+00	-1.875808e+02
7.200000e-07	-1.006739e-06	-2.741363e-09	-7.189327e+00	-1.808894e+02
7.300000e-07	-9.061828e-07	-2.635087e-09	-6.471234e+00	-1.740466e+02
7.400000e-07	-8.053545e-07	-2.526631e-09	-5.751199e+00	-1.670457e+02
7.500000e-07	-7.041789e-07	-2.417491e-09	-5.028684e+00	-1.598829e+02
7.600000e-07	-6.026962e-07	-2.307331e-09	-4.303975e+00	-1.525573e+02
7.700000e-07	-5.010249e-07	-2.192259e-09	-3.577920e+00	-1.450708e+02
7.800000e-07	-3.992003e-07	-2.072729e-09	-2.850770e+00	-1.374259e+02
7.900000e-07	-2.972622e-07	-1.953466e-09	-2.122809e+00	-1.296243e+02
8.000000e-07	-1.952329e-07	-1.835186e-09	-1.394198e+00	-1.216649e+02
8.100000e-07	-9.311255e-08	-1.715496e-09	-6.649355e-01	-1.135421e+02
8.200000e-07	9.115763e-09	-1.590956e-09	6.509751e-02	-1.052456e+02
8.300000e-07	1.114168e-07	-1.459164e-09	7.956501e-01	-9.676062e+01
8.400000e-07	2.137054e-07	-1.323720e-09	1.526113e+00	-8.806966e+01
8.500000e-07	3.158756e-07	-1.187013e-09	2.255731e+00	-7.915440e+01
8.600000e-07	4.179378e-07	-1.048514e-09	2.984578e+00	-6.999826e+01
8.700000e-07	5.199323e-07	-9.040711e-10	3.712942e+00	-6.058849e+01
8.800000e-07	6.217477e-07	-7.528694e-10	4.440026e+00	-5.091751e+01
8.900000e-07	7.233021e-07	-5.981458e-10	5.165246e+00	-4.098321e+01
9.000000e-07	8.245920e-07	-4.410031e-10	5.888578e+00	-3.078824e+01
9.100000e-07	9.256020e-07	-2.816578e-10	6.609911e+00	-2.033871e+01
9.200000e-07	1.026323e-06	-1.188979e-10	7.329177e+00	-9.642536e+00
9.300000e-07	1.126738e-06	4.739670e-11	8.046266e+00	1.291699e+00
9.400000e-07	1.226803e-06	2.178662e-10	8.760847e+00	1.245514e+01
9.500000e-07	1.326516e-06	3.930172e-10	9.472915e+00	2.383794e+01
9.600000e-07	1.425834e-06	5.703127e-10	1.018217e+01	3.542747e+01
9.700000e-07	1.524584e-06	7.489923e-10	1.088737e+01	4.720604e+01
9.800000e-07	1.622606e-06	9.305976e-10	1.158736e+01	5.914846e+01
9.900000e-07	1.719736e-06	1.116272e-09	1.228098e+01	7.122037e+01
1.000000e-06	1.816008e-06	1.301566e-09	1.296848e+01	8.337776e+01
1.010000e-06	1.911614e-06	1.484104e-09	1.365122e+01	9.556814e+01
1.020000e-06	2.006617e-06	1.666441e-09	1.432966e+01	1.077332e+02
1.030000e-06	2.100893e-06	1.848079e-09	1.500290e+01	1.198125e+02
1.040000e-06	2.194377e-06	2.028453e-09	1.567049e+01	1.317478e+02
1.050000e-06	2.287184e-06	2.207044e-09	1.633324e+01	1.434870e+02
1.060000e-06	2.379341e-06	2.384587e-09	1.699135e+01	1.549869e+02
1.070000e-06	2.470805e-06	2.558197e-09	1.764451e+01	1.662143e+02
1.080000e-06	2.561398e-06	2.725356e-09	1.829146e+01	1.771460e+02
1.090000e-06	2.650788e-06	2.887829e-09	1.892981e+01	1.877668e+02
1.100000e-06	2.738996e-06	3.045551e-09	1.955972e+01	1.980668e+02
1.110000e-06	2.826291e-06	3.197634e-09	2.018311e+01	2.080393e+02
1.120000e-06	2.912732e-06	3.343466e-09	2.080041e+01	2.176780e+02
1.130000e-06	2.998257e-06	3.484376e-09	2.141115e+01	2.269764e+02
1.140000e-06	3.082799e-06	3.620305e-09	2.201489e+01	2.359278e+02
1.150000e-06	3.166441e-06	3.749434e-09	2.261219e+01	2.445264e+02
1.160000e-06	3.249082e-06	3.873106e-09	2.320235e+01	2.527692e+02
1.170000e-06	3.330454e-06	3.992847e-09	2.378344e+01	2.606573e+02
1.180000e-06	3.410617e-06	4.106186e-09	2.435590e+01	2.681973e+02
1.190000e-06	3.489627e-06	4.213192e-09	2.492013e+01	2.754015e+02
1.200000e-06	3.567389e-06	4.318027e-09	2.547545e+01	2.822867e+02
1.210000e-06	3.643827e-06	4.420821e-09	2.602130e+01	2.888730e+02
1.220000e-06	3.718849e-06	4.518340e-09	2.655705e+01	2.951813e+02
1.230000e-06	3.792280e-06	4.607622e-09	2.708144e+01	3.012314e+02
1.240000e-06	3.864159e-06	4.691056e-09	2.759474e+01	3.070406e+02
1.250000e-06	3.934653e-06	4.775492e-09	2.809815e+01	3.126231e+02
1.260000e-06	4.003762e-06	4.859948e-09	2.859167e+01	3.179897e+02
1.270000e-06	4.071549e-06	4.941678e-09	2.907575e+01	3.231490e+02
1.280000e-06	4.137880e-06	5.020017e-09	2.954944e+01	3.281085e+02
1.290000e-06	4.202487e-06	5.094026e-09	3.001081e+01	3.328747e+02
1.300000e-06	4.265508e-06	5.162322e-09	3.046085e+01	3.374546e+02
1.310000e-06	4.327151e-06	5.227065e-09	3.090106e+01	3.418544e+02
1.320000e-06	4.387471e-06	5.291181e-09	3.133182e+01	3.460799e+02
1.330000e-06	4.446361e-06	5.351378e-09	3.175236e+01	3.501347e+02
1.340000e-06	4.503474e-06	5.407459e-09	3.216022e+01	3.540205e+02
1.350000e-06	4.558833e-06	5.461174e-09	3.255555e+01	3.577361e+02
1.360000e-06	4.612611e-06	5.514003e-09	3.293959e+01	3.612782e+02
1.370000e-06	4.664662e-06	5.564792e-09	3.331129e+01	3.646429e+02
1.380000e-06	4.714694e-06	5.612845e-09	3.366858e+01	3.678265e+02
1.390000e-06	4.762741e-06	5.659453e-09	3.401170e+01	3.708276e+02
1.400000e-06	4.809103e-06	5.701362e-09	3.434278e+01	3.736480e+02
1.410000e-06	4.853908e-06	5.737858e-09	3.466273e+01	3.762933e+02
1.420000e-06	4.897154e-06	5.772577e-09	3.497157e+01	3.787722e+02
1.430000e-06	4.938492e-06	5.805513e-09	3.526677e+01	3.810955e+02
1.440000e-06	4.977971e-06	5.835613e-09	3.554870e+01	3.832742e+02
1.450000e-06	5.015859e-06	5.863654e-09	3.581926e+01	3.853182e+02
1.460000e-06	5.052121e-06	5.890760e-09	3.607821e+01	3.872351e+02
1.470000e-06	5.086646e-06	5.919177e-09	3.632477e+01	3.890294e+02
1.480000e-06	5.119213e-06	5.946037e-09	3.655733e+01	3.907035e+02
1.490000e-06	5.149950e-06	5.969210e-09	3.677683e+01	3.922583e+02
1.500000e-06	5.179031e-06	5.989125e-09	3.698450e+01	3.936947e+02
1.510000e-06	5.206453e-06	6.006175e-09	3.718033e+01	3.950147e+02
1.520000e-06	5.231838e-06	6.023978e-09	3.736161e+01	3.962222e+02
1.530000e-06	5.255148e-06	6.042450e-09	3.752807e+01	3.973227e+02
1.540000e-06	5.276676e-06	6.060353e-09	3.768181e+01	3.983224e+02
1.550000e-06	5.296481e-06	6.075461e-09	3.782324e+01	3.992267e+02
1.560000e-06	5.314438e-06	6.086791e-09	3.795147e+01	4.000393e+02
1.570000e-06	5.330354e-06	6.095559e-09	3.806513e+01	4.007606e+02
1.580000e-06	5.344329e-06	6.103859e-09	3.816493e+01	4.013884e+02
1.590000e-06	5.356317e-06	6.113251e-09	3.825054e+01	4.019182e+02
1.600000e-06	5.366013e-06	6.122179e-09	3.831978e+01	4.023451e+02
1.610000e-06	5.373610e-06	6.128850e-09	3.837403e+01	4.026657e+02
1.620000e-06	5.379413e-06	6.134218e-09	3.841548e+01	4.028803e+02
1.630000e-06	5.383439e-06	6.138164e-09	3.844423e+01	4.029931e+02
1.640000e-06	5.385543e-06	6.141070e-09	3.845925e+01	4.030128e+02
1.650000e-06	5.385648e-06	6.143385e-09	3.846000e+01	4.029506e+02
1.660000e-06	5.383979e-06	6.141676e-09	3.844808e+01	4.028182e+02
1.670000e-06	5.380654e-06	6.136523e-09	3.842433e+01	4.026246e+02
1.680000e-06	5.375619e-06	6.132067e-09	3.838838e+01	4.023746e+02
1.690000e-06	5.368633e-06	6.129694e-09	3.833849e+01	4.020665e+02
1.700000e-06	5.359932e-06	6.127323e-09	3.827636e+01	4.016931e+02
1.710000e-06	5.349724e-06	6.123747e-09	3.820346e+01	4.012433e+02
1.720000e-06	5.337733e-06	6.116350e-09	3.811783e+01	4.007050e+02
1.730000e-06	5.323743e-06	6.109349e-09	3.801792e+01	4.000687e+02
1.740000e-06	5.307688e-06	6.071192e-09	3.790327e+01	3.993307e+02
1.750000e-06	5.289248e-06	6.053037e-09	3.777159e+01	3.984950e+02
1.760000e-06	5.268123e-06	6.058494e-09	3.762073e+01	3.975731e+02
1.770000e-06	5.244794e-06	6.055562e-09	3.745413e+01	3.965826e+02
1.780000e-06	5.220304e-06	6.077754e-09	3.727924e+01	3.955433e+02
1.790000e-06	5.195180e-06	6.028632e-09	3.709983e+01	3.944733e+02
1.800000e-06	5.168564e-06	5.963347e-09	3.690976e+01	3.933843e+02
1.810000e-06	5.139684e-06	5.983987e-09	3.670352e+01	3.922790e+02
1.820000e-06	5.109006e-06	5.945574e-09	3.648445e+01	3.911499e+02
1.830000e-06	5.076626e-06	5.922984e-09	3.625321e+01	3.899802e+02
1.840000e-06	5.042295e-06	5.949505e-09	3.600805e+01	3.887469e+02
1.850000e-06	5.006368e-06	5.902212e-09	3.575149e+01	3.874252e+02
1.860000e-06	4.968616e-06	5.910286e-09	3.548189e+01	3.859928e+02
1.870000e-06	4.928955e-06	5.882059e-09	3.519866e+01	3.844346e+02
1.880000e-06	4.887642e-06	5.781109e-09	3.490364e+01	3.827446e+02
1.890000e-06	4.844473e-06	5.786605e-09	3.459536e+01	3.809263e+02
1.900000e-06	4.799773e-06	5.737749e-09	3.427615e+01	3.789917e+02
1.910000e-06	4.753298e-06	5.729451e-09	3.394426e+01	3.769573e+02
1.920000e-06	4.704692e-06	5.775264e-09	3.359716e+01	3.748411e+02
1.930000e-06	4.654532e-06	5.655847e-09	3.323895e+01	3.726579e+02
1.940000e-06	4.602709e-06	5.621311e-09	3.286887e+01	3.704175e+02
1.950000e-06	4.548766e-06	5.604074e-09	3.248366e+01	3.681224e+02
1.960000e-06	4.492827e-06	5.524622e-09	3.208419e+01	3.657692e+02
1.970000e-06	4.435237e-06	5.532103e-09	3.167292e+01	3.633495e+02
1.980000e-06	4.376270e-06	5.509981e-09	3.125183e+01	3.608532e+02
1.990000e-06	4.315805e-06	5.466788e-09	3.082003e+01	3.582709e+02
2.000000e-06	4.253684e-06	5.400717e-09	3.037642e+01	3.555961e+02
2.010000e-06	4.189945e-06	5.357079e-09	2.992125e+01	3.528264e+02
2.020000e-06	4.124679e-06	5.336735e-09	2.945517e+01	3.499634e+02
2.030000e-06	4.057983e-06	5.260405e-09	2.897887e+01	3.470114e+02
2.040000e-06	3.989897e-06	5.245601e-09	2.849266e+01	3.439756e+02
2.050000e-06	3.920427e-06	5.201706e-09	2.799656e+01	3.408600e+02
2.060000e-06	3.849369e-06	5.134781e-09	2.748912e+01	3.376660e+02
2.070000e-06	3.776867e-06	5.091879e-09	2.697137e+01	3.343915e+02
2.080000e-06	3.703123e-06	5.027667e-09	2.644475e+01	3.310308e+02
2.090000e-06	3.627990e-06	4.990868e-09	2.590821e+01	3.275762e+02
2.100000e-06	3.551434e-06	4.910817e-09	2.536151e+01	3.240189e+02
2.110000e-06	3.473298e-06	4.852272e-09	2.480352e+01	3.203514e+02
2.120000e-06	3.393721e-06	4.831265e-09	2.423524e+01	3.165686e+02
2.130000e-06	3.313087e-06	4.772037e-09	2.365942e+01	3.126688e+02
2.140000e-06	3.231360e-06	4.702615e-09	2.307580e+01	3.086541e+02
2.150000e-06	3.148526e-06	4.632673e-09	2.248426e+01	3.045295e+02
2.160000e-06	3.064661e-06	4.564775e-09	2.188536e+01	3.003020e+02
2.170000e-06	2.979764e-06	4.489021e-09	2.127910e+01	2.959788e+02
2.180000e-06	2.893559e-06	4.438428e-09	2.066349e+01	2.915656e+02
2.190000e-06	2.806034e-06	4.389405e-09	2.003845e+01	2.870661e+02
2.200000e-06	2.717590e-06	4.313158e-09	1.940686e+01	2.824805e+02
2.210000e-06	2.628296e-06	4.227485e-09	1.876919e+01	2.778058e+02
2.220000e-06	2.538090e-06	4.149572e-09	1.812501e+01	2.730360e+02
2.230000e-06	2.446998e-06	4.086325e-09	1.747451e+01	2.681634e+02
2.240000e-06	2.355142e-06	4.008717e-09	1.681854e+01	2.631794e+02
2.250000e-06	2.262543e-06	3.932256e-09	1.615728e+01	2.580764e+02
2.260000e-06	2.169101e-06	3.855221e-09	1.548999e+01	2.528482e+02
2.270000e-06	2.074647e-06	3.767319e-09	1.481548e+01	2.474913e+02
2.280000e-06	1.979163e-06	3.680522e-09	1.413360e+01	2.420052e+02
2.290000e-06	1.882972e-06	3.600493e-09	1.344669e+01	2.363918e+02
2.300000e-06	1.786358e-06	3.517255e-09	1.275674e+01	2.306549e+02
2.310000e-06	1.689277e-06	3.421546e-09	1.206347e+01	2.247988e+02
2.320000e-06	1.591585e-06	3.328434e-09	1.136583e+01	2.188275e+02
2.330000e-06	1.493278e-06	3.246508e-09	1.066380e+01	2.127426e+02
2.340000e-06	1.394461e-06	3.161724e-09	9.958129e+00	2.065432e+02
2.350000e-06	1.295261e-06	3.059783e-09	9.249723e+00	2.002250e+02
2.360000e-06	1.195806e-06	2.952559e-09	8.539495e+00	1.937810e+02
2.370000e-06	1.096139e-06	2.845523e-09	7.827748e+00	1.872020e+02
2.380000e-06	9.960856e-07	2.741491e-09	7.113248e+00	1.804785e+02
2.390000e-06	8.956258e-07	2.644819e-09	6.395844e+00	1.736020e+02
2.400000e-06	7.948676e-07	2.545572e-09	5.676310e+00	1.665663e+02
2.410000e-06	6.938607e-07	2.436981e-09	4.954999e+00	1.593682e+02
2.420000e-06	5.926456e-07	2.315842e-09	4.232202e+00	1.520076e+02
2.430000e-06	4.912139e-07	2.194868e-09	3.507857e+00	1.444865e+02
2.440000e-06	3.895396e-07	2.082345e-09	2.781781e+00	1.368077e+02
2.450000e-06	2.876305e-07	1.966905e-09	2.054027e+00	1.289721e+02
2.460000e-06	1.855836e-07	1.841952e-09	1.325290e+00	1.209780e+02
2.470000e-06	8.342032e-08	1.712783e-09	5.957213e-01	1.128186e+02
2.480000e-06	-1.885716e-08	1.582595e-09	-1.346628e-01	1.044828e+02
2.490000e-06	-1.211964e-07	1.455609e-09	-8.654879e-01	9.595487e+01
2.500000e-06	-2.234936e-07	1.327932e-09	-1.596013e+00	8.721702e+01
2.510000e-06	-3.256263e-07	1.193139e-09	-2.325363e+00	7.825108e+01
2.520000e-06	-4.276070e-07	1.051841e-09	-3.053628e+00	6.904116e+01
2.530000e-06	-5.294487e-07	9.047084e-10	-3.780900e+00	5.957552e+01
2.540000e-06	-6.311324e-07	7.569681e-10	-4.507043e+00	4.984777e+01
2.550000e-06	-7.325244e-07	6.092757e-10	-5.231105e+00	3.985690e+01
2.560000e-06	-8.334719e-07	4.556399e-10	-5.951991e+00	2.960644e+01
2.570000e-06	-9.340161e-07	2.932775e-10	-6.669997e+00	1.910301e+01
2.580000e-06	-1.034266e-06	1.275155e-10	-7.385905e+00	8.354746e+00
2.590000e-06	-1.134215e-06	-3.775392e-11	-8.099659e+00	-2.629712e+00
2.600000e-06	-1.233787e-06	-2.037953e-10	-8.810721e+00	-1.384140e+01
2.610000e-06	-1.332957e-06	-3.739533e-10	-9.518911e+00	-2.527003e+01
2.620000e-06	-1.431699e-06	-5.511699e-10	-1.022405e+01	-3.690213e+01
2.630000e-06	-1.529923e-06	-7.357939e-10	-1.092549e+01	-4.871858e+01
2.640000e-06	-1.627518e-06	-9.222678e-10	-1.162243e+01	-6.069231e+01
2.650000e-06	-1.724536e-06	-1.107463e-09	-1.231526e+01	-7.278690e+01
2.660000e-06	-1.821039e-06	-1.291950e-09	-1.300440e+01	-8.495638e+01
2.670000e-06	-1.917048e-06	-1.478697e-09	-1.369003e+01	-9.714672e+01
2.680000e-06	-2.012526e-06	-1.667813e-09	-1.437185e+01	-1.092988e+02
2.690000e-06	-2.107221e-06	-1.854301e-09	-1.504809e+01	-1.213523e+02
2.700000e-06	-2.200838e-06	-2.035375e-09	-1.571663e+01	-1.332501e+02
2.710000e-06	-2.293400e-06	-2.209995e-09	-1.637763e+01	-1.449417e+02
2.720000e-06	-2.385160e-06	-2.382954e-09	-1.703291e+01	-1.563860e+02
2.730000e-06	-2.476164e-06	-2.553575e-09	-1.768279e+01	-1.675520e+02
2.740000e-06	-2.566312e-06	-2.717695e-09	-1.832655e+01	-1.784185e+02
2.750000e-06	-2.655502e-06	-2.876693e-09	-1.896348e+01	-1.889715e+02
2.760000e-06	-2.743838e-06	-3.032710e-09	-1.959430e+01	-1.992023e+02
2.770000e-06	-2.831444e-06	-3.186661e-09	-2.021991e+01	-2.091041e+02
2.780000e-06	-2.918062e-06	-3.335795e-09	-2.083847e+01	-2.186707e+02
2.790000e-06	-3.003390e-06	-3.477545e-09	-2.144781e+01	-2.278957e+02
2.800000e-06	-3.087549e-06	-3.612137e-09	-2.204881e+01	-2.367723e+02
2.810000e-06	-3.170712e-06	-3.738950e-09	-2.264270e+01	-2.452951e+02
2.820000e-06	-3.252826e-06	-3.860856e-09	-2.322909e+01	-2.534620e+02
2.830000e-06	-3.333867e-06	-3.981239e-09	-2.380782e+01	-2.612751e+02
2.840000e-06	-3.413847e-06	-4.100059e-09	-2.437897e+01	-2.687423e+02
2.850000e-06	-3.492596e-06	-4.213870e-09	-2.494133e+01	-2.758769e+02
2.860000e-06	-3.569816e-06	-4.319853e-09	-2.549278e+01	-2.826967e+02
2.870000e-06	-3.645513e-06	-4.419814e-09	-2.603335e+01	-2.892220e+02
2.880000e-06	-3.719826e-06	-4.515344e-09	-2.656403e+01	-2.954737e+02
2.890000e-06	-3.792776e-06	-4.606232e-09	-2.708498e+01	-3.014712e+02
2.900000e-06	-3.864487e-06	-4.692634e-09	-2.759708e+01	-3.072311e+02
2.910000e-06	-3.934766e-06	-4.775059e-09	-2.809896e+01	-3.127668e+02
2.920000e-06	-4.003441e-06	-4.854185e-09	-2.858938e+01	-3.180886e+02
2.930000e-06	-4.070729e-06	-4.931446e-09	-2.906989e+01	-3.232049e+02
2.940000e-06	-4.136628e-06	-5.006610e-09	-2.954050e+01	-3.281228e+02
