# Temperatura_=_69.38
# Concentracion g/m^3_=_15000.0
# C_Vs_to_Am_M_A/Vsm_=_65563218390.804596
# pendiente_HvsI_1/m_=_3716.3
# ordenada_HvsI_A/m_=_1297.0
# frecuencia_Hz_=_301588.6874000764

Tiempo_(s)	Campo_(V.s)	Magnetizacion_(V.s)	Campo_(kA/m)	Magnetizacion_(A/m)
0.000000e+00	-5.357294e-06	-7.029180e-09	-3.833910e+01	-4.591034e+02
1.000000e-08	-5.354400e-06	-7.021638e-09	-3.831839e+01	-4.588525e+02
2.000000e-08	-5.349699e-06	-7.016719e-09	-3.828475e+01	-4.585496e+02
3.000000e-08	-5.343367e-06	-7.011689e-09	-3.823943e+01	-4.581940e+02
4.000000e-08	-5.335461e-06	-7.003867e-09	-3.818285e+01	-4.577717e+02
5.000000e-08	-5.325730e-06	-6.994819e-09	-3.811322e+01	-4.572593e+02
6.000000e-08	-5.313915e-06	-6.984960e-09	-3.802866e+01	-4.566297e+02
7.000000e-08	-5.300186e-06	-6.973788e-09	-3.793042e+01	-4.558607e+02
8.000000e-08	-5.284418e-06	-6.972016e-09	-3.781757e+01	-4.549421e+02
9.000000e-08	-5.266393e-06	-6.968095e-09	-3.768857e+01	-4.538807e+02
1.000000e-07	-5.246313e-06	-6.950302e-09	-3.754487e+01	-4.527005e+02
1.100000e-07	-5.224354e-06	-6.918279e-09	-3.738773e+01	-4.514394e+02
1.200000e-07	-5.200767e-06	-6.869193e-09	-3.721893e+01	-4.501409e+02
1.300000e-07	-5.175730e-06	-6.843117e-09	-3.703975e+01	-4.488441e+02
1.400000e-07	-5.149090e-06	-6.859396e-09	-3.684910e+01	-4.475740e+02
1.500000e-07	-5.120793e-06	-6.830942e-09	-3.664660e+01	-4.463348e+02
1.600000e-07	-5.091036e-06	-6.804354e-09	-3.643364e+01	-4.451073e+02
1.700000e-07	-5.059711e-06	-6.790841e-09	-3.620947e+01	-4.438520e+02
1.800000e-07	-5.026246e-06	-6.746692e-09	-3.596998e+01	-4.425163e+02
1.900000e-07	-4.990931e-06	-6.735911e-09	-3.571725e+01	-4.410459e+02
2.000000e-07	-4.954149e-06	-6.709909e-09	-3.545402e+01	-4.393951e+02
2.100000e-07	-4.915579e-06	-6.640221e-09	-3.517800e+01	-4.375362e+02
2.200000e-07	-4.875229e-06	-6.592378e-09	-3.488924e+01	-4.354644e+02
2.300000e-07	-4.832995e-06	-6.574608e-09	-3.458699e+01	-4.331968e+02
2.400000e-07	-4.788839e-06	-6.564128e-09	-3.427099e+01	-4.307676e+02
2.500000e-07	-4.742906e-06	-6.553856e-09	-3.394228e+01	-4.282192e+02
2.600000e-07	-4.695087e-06	-6.493638e-09	-3.360006e+01	-4.255917e+02
2.700000e-07	-4.645223e-06	-6.417803e-09	-3.324322e+01	-4.229147e+02
2.800000e-07	-4.593311e-06	-6.384213e-09	-3.287171e+01	-4.202013e+02
2.900000e-07	-4.539565e-06	-6.366151e-09	-3.248708e+01	-4.174472e+02
3.000000e-07	-4.484249e-06	-6.328425e-09	-3.209121e+01	-4.146338e+02
3.100000e-07	-4.427253e-06	-6.282362e-09	-3.168333e+01	-4.117347e+02
3.200000e-07	-4.368452e-06	-6.217103e-09	-3.126253e+01	-4.087233e+02
3.300000e-07	-4.308070e-06	-6.148059e-09	-3.083041e+01	-4.055799e+02
3.400000e-07	-4.246228e-06	-6.117750e-09	-3.038784e+01	-4.022961e+02
3.500000e-07	-4.183014e-06	-6.087695e-09	-2.993545e+01	-3.988761e+02
3.600000e-07	-4.118372e-06	-6.027945e-09	-2.947284e+01	-3.953341e+02
3.700000e-07	-4.052083e-06	-5.957346e-09	-2.899845e+01	-3.916894e+02
3.800000e-07	-3.984163e-06	-5.899989e-09	-2.851239e+01	-3.879605e+02
3.900000e-07	-3.914827e-06	-5.851148e-09	-2.801618e+01	-3.841601e+02
4.000000e-07	-3.844309e-06	-5.795167e-09	-2.751153e+01	-3.802915e+02
4.100000e-07	-3.772656e-06	-5.730378e-09	-2.699875e+01	-3.763486e+02
4.200000e-07	-3.699671e-06	-5.654516e-09	-2.647644e+01	-3.723180e+02
4.300000e-07	-3.625039e-06	-5.582518e-09	-2.594234e+01	-3.681827e+02
4.400000e-07	-3.548784e-06	-5.529665e-09	-2.539662e+01	-3.639274e+02
4.500000e-07	-3.471169e-06	-5.485881e-09	-2.484118e+01	-3.595420e+02
4.600000e-07	-3.392213e-06	-5.428120e-09	-2.427614e+01	-3.550235e+02
4.700000e-07	-3.311907e-06	-5.338716e-09	-2.370143e+01	-3.503761e+02
4.800000e-07	-3.230357e-06	-5.245253e-09	-2.311782e+01	-3.456090e+02
4.900000e-07	-3.147629e-06	-5.175787e-09	-2.252579e+01	-3.407333e+02
5.000000e-07	-3.063847e-06	-5.109790e-09	-2.192621e+01	-3.357581e+02
5.100000e-07	-2.979247e-06	-5.036673e-09	-2.132078e+01	-3.306881e+02
5.200000e-07	-2.893734e-06	-4.954205e-09	-2.070880e+01	-3.255224e+02
5.300000e-07	-2.807235e-06	-4.861874e-09	-2.008978e+01	-3.202550e+02
5.400000e-07	-2.719829e-06	-4.773316e-09	-1.946427e+01	-3.148764e+02
5.500000e-07	-2.631535e-06	-4.695158e-09	-1.883240e+01	-3.093765e+02
5.600000e-07	-2.542201e-06	-4.620579e-09	-1.819309e+01	-3.037467e+02
5.700000e-07	-2.451661e-06	-4.532470e-09	-1.754514e+01	-2.979813e+02
5.800000e-07	-2.360091e-06	-4.432417e-09	-1.688983e+01	-2.920779e+02
5.900000e-07	-2.267763e-06	-4.338190e-09	-1.622909e+01	-2.860367e+02
6.000000e-07	-2.174727e-06	-4.251344e-09	-1.556328e+01	-2.798590e+02
6.100000e-07	-2.080942e-06	-4.157776e-09	-1.489212e+01	-2.735459e+02
6.200000e-07	-1.986369e-06	-4.054296e-09	-1.421531e+01	-2.670972e+02
6.300000e-07	-1.891119e-06	-3.945611e-09	-1.353366e+01	-2.605116e+02
6.400000e-07	-1.795335e-06	-3.840051e-09	-1.284819e+01	-2.537873e+02
6.500000e-07	-1.698935e-06	-3.744464e-09	-1.215831e+01	-2.469236e+02
6.600000e-07	-1.601805e-06	-3.649003e-09	-1.146320e+01	-2.399218e+02
6.700000e-07	-1.503904e-06	-3.540439e-09	-1.076258e+01	-2.327859e+02
6.800000e-07	-1.405287e-06	-3.417293e-09	-1.005684e+01	-2.255219e+02
6.900000e-07	-1.306076e-06	-3.293731e-09	-9.346841e+00	-2.181365e+02
7.000000e-07	-1.206431e-06	-3.180892e-09	-8.633737e+00	-2.106344e+02
7.100000e-07	-1.106484e-06	-3.071535e-09	-7.918476e+00	-2.030161e+02
7.200000e-07	-1.006319e-06	-2.955521e-09	-7.201650e+00	-1.952762e+02
7.300000e-07	-9.059540e-07	-2.832999e-09	-6.483397e+00	-1.874027e+02
7.400000e-07	-8.053355e-07	-2.706485e-09	-5.763327e+00	-1.793787e+02
7.500000e-07	-7.043941e-07	-2.580424e-09	-5.040947e+00	-1.711843e+02
7.600000e-07	-6.031012e-07	-2.457321e-09	-4.316052e+00	-1.628001e+02
7.700000e-07	-5.015734e-07	-2.331285e-09	-3.589475e+00	-1.542104e+02
7.800000e-07	-3.999169e-07	-2.195442e-09	-2.861978e+00	-1.454053e+02
7.900000e-07	-2.981131e-07	-2.050969e-09	-2.133426e+00	-1.363816e+02
8.000000e-07	-1.962416e-07	-1.906586e-09	-1.404389e+00	-1.271418e+02
8.100000e-07	-9.429528e-08	-1.764630e-09	-6.748176e-01	-1.176915e+02
8.200000e-07	7.738470e-09	-1.618144e-09	5.537982e-02	-1.080364e+02
8.300000e-07	1.097912e-07	-1.463078e-09	7.857128e-01	-9.817916e+01
8.400000e-07	2.118707e-07	-1.304432e-09	1.516238e+00	-8.811764e+01
8.500000e-07	3.139020e-07	-1.147406e-09	2.246418e+00	-7.784424e+01
8.600000e-07	4.158539e-07	-9.906767e-10	2.976030e+00	-6.734714e+01
8.700000e-07	5.176796e-07	-8.302206e-10	3.704738e+00	-5.661258e+01
8.800000e-07	6.193178e-07	-6.614013e-10	4.432105e+00	-4.562772e+01
8.900000e-07	7.207660e-07	-4.850125e-10	5.158112e+00	-3.438307e+01
9.000000e-07	8.219327e-07	-3.046695e-10	5.882104e+00	-2.287396e+01
9.100000e-07	9.227755e-07	-1.231407e-10	6.603779e+00	-1.110071e+01
9.200000e-07	1.023275e-06	5.727896e-11	7.322996e+00	9.323482e-01
9.300000e-07	1.123466e-06	2.399288e-10	8.040004e+00	1.321832e+01
9.400000e-07	1.223389e-06	4.271536e-10	8.755097e+00	2.574890e+01
9.500000e-07	1.322978e-06	6.185331e-10	9.467800e+00	3.851457e+01
9.600000e-07	1.422078e-06	8.118026e-10	1.017700e+01	5.150318e+01
9.700000e-07	1.520553e-06	1.008495e-09	1.088173e+01	6.469736e+01
9.800000e-07	1.618196e-06	1.209793e-09	1.158050e+01	7.807103e+01
9.900000e-07	1.714965e-06	1.415576e-09	1.227303e+01	9.158622e+01
1.000000e-06	1.811048e-06	1.622752e-09	1.296064e+01	1.051913e+02
1.010000e-06	1.906508e-06	1.828945e-09	1.364379e+01	1.188215e+02
1.020000e-06	2.001348e-06	2.032839e-09	1.432251e+01	1.324020e+02
1.030000e-06	2.095466e-06	2.233706e-09	1.499605e+01	1.458535e+02
1.040000e-06	2.188851e-06	2.431712e-09	1.566436e+01	1.590994e+02
1.050000e-06	2.281559e-06	2.626102e-09	1.632782e+01	1.720730e+02
1.060000e-06	2.373592e-06	2.816132e-09	1.698644e+01	1.847230e+02
1.070000e-06	2.464928e-06	3.000166e-09	1.764008e+01	1.970167e+02
1.080000e-06	2.555255e-06	3.179006e-09	1.828650e+01	2.089398e+02
1.090000e-06	2.644318e-06	3.355325e-09	1.892388e+01	2.204934e+02
1.100000e-06	2.732342e-06	3.529740e-09	1.955382e+01	2.316877e+02
1.110000e-06	2.819547e-06	3.698307e-09	2.017789e+01	2.425361e+02
1.120000e-06	2.905865e-06	3.858984e-09	2.079562e+01	2.530489e+02
1.130000e-06	2.991194e-06	4.014500e-09	2.140627e+01	2.632297e+02
1.140000e-06	3.075593e-06	4.163221e-09	2.201027e+01	2.730742e+02
1.150000e-06	3.159141e-06	4.305413e-09	2.260818e+01	2.825713e+02
1.160000e-06	3.241542e-06	4.441701e-09	2.319787e+01	2.917075e+02
1.170000e-06	3.322624e-06	4.572130e-09	2.377813e+01	3.004705e+02
1.180000e-06	3.402577e-06	4.699899e-09	2.435030e+01	3.088543e+02
1.190000e-06	3.481361e-06	4.822370e-09	2.491412e+01	3.168610e+02
1.200000e-06	3.558888e-06	4.940425e-09	2.546894e+01	3.245017e+02
1.210000e-06	3.635221e-06	5.053742e-09	2.601521e+01	3.317952e+02
1.220000e-06	3.710175e-06	5.159602e-09	2.655161e+01	3.387647e+02
1.230000e-06	3.783448e-06	5.257929e-09	2.707598e+01	3.454343e+02
1.240000e-06	3.855215e-06	5.351364e-09	2.758958e+01	3.518264e+02
1.250000e-06	3.925656e-06	5.443180e-09	2.809369e+01	3.579598e+02
1.260000e-06	3.994751e-06	5.533038e-09	2.858816e+01	3.638492e+02
1.270000e-06	4.062582e-06	5.619412e-09	2.907358e+01	3.695070e+02
1.280000e-06	4.128857e-06	5.702416e-09	2.954787e+01	3.749444e+02
1.290000e-06	4.193375e-06	5.781871e-09	3.000960e+01	3.801735e+02
1.300000e-06	4.256393e-06	5.858550e-09	3.046058e+01	3.852075e+02
1.310000e-06	4.317987e-06	5.933058e-09	3.090137e+01	3.900607e+02
1.320000e-06	4.378234e-06	6.005054e-09	3.133253e+01	3.947463e+02
1.330000e-06	4.436968e-06	6.074098e-09	3.175285e+01	3.992744e+02
1.340000e-06	4.493897e-06	6.139825e-09	3.216026e+01	4.036495e+02
1.350000e-06	4.549149e-06	6.202240e-09	3.255567e+01	4.078697e+02
1.360000e-06	4.602795e-06	6.261751e-09	3.293958e+01	4.119268e+02
1.370000e-06	4.654660e-06	6.318164e-09	3.331075e+01	4.158086e+02
1.380000e-06	4.704469e-06	6.372682e-09	3.366720e+01	4.195017e+02
1.390000e-06	4.752365e-06	6.427241e-09	3.400997e+01	4.229955e+02
1.400000e-06	4.798656e-06	6.478350e-09	3.434125e+01	4.262852e+02
1.410000e-06	4.843431e-06	6.524666e-09	3.466168e+01	4.293731e+02
1.420000e-06	4.886551e-06	6.567267e-09	3.497026e+01	4.322681e+02
1.430000e-06	4.927725e-06	6.605746e-09	3.526492e+01	4.349842e+02
1.440000e-06	4.967143e-06	6.642116e-09	3.554701e+01	4.375365e+02
1.450000e-06	5.004939e-06	6.676632e-09	3.581750e+01	4.399379e+02
1.460000e-06	5.041142e-06	6.709127e-09	3.607658e+01	4.421968e+02
1.470000e-06	5.075615e-06	6.741093e-09	3.632328e+01	4.443158e+02
1.480000e-06	5.108101e-06	6.771530e-09	3.655577e+01	4.462927e+02
1.490000e-06	5.138820e-06	6.798105e-09	3.677561e+01	4.481232e+02
1.500000e-06	5.167904e-06	6.820229e-09	3.698374e+01	4.498040e+02
1.510000e-06	5.195254e-06	6.841647e-09	3.717947e+01	4.513359e+02
1.520000e-06	5.220593e-06	6.863779e-09	3.736081e+01	4.527252e+02
1.530000e-06	5.243879e-06	6.883631e-09	3.752746e+01	4.539836e+02
1.540000e-06	5.265361e-06	6.900856e-09	3.768119e+01	4.551255e+02
1.550000e-06	5.285110e-06	6.916294e-09	3.782252e+01	4.561649e+02
1.560000e-06	5.302953e-06	6.929641e-09	3.795022e+01	4.571111e+02
1.570000e-06	5.318825e-06	6.940826e-09	3.806380e+01	4.579662e+02
1.580000e-06	5.332804e-06	6.951155e-09	3.816384e+01	4.587242e+02
1.590000e-06	5.344743e-06	6.961989e-09	3.824928e+01	4.593727e+02
1.600000e-06	5.354467e-06	6.972325e-09	3.831887e+01	4.598966e+02
1.610000e-06	5.362113e-06	6.980832e-09	3.837359e+01	4.602832e+02
1.620000e-06	5.367918e-06	6.986578e-09	3.841513e+01	4.605268e+02
1.630000e-06	5.371975e-06	6.989572e-09	3.844416e+01	4.606314e+02
1.640000e-06	5.374093e-06	6.990985e-09	3.845932e+01	4.606113e+02
1.650000e-06	5.374188e-06	6.991107e-09	3.846000e+01	4.604881e+02
1.660000e-06	5.372531e-06	6.989444e-09	3.844814e+01	4.602853e+02
1.670000e-06	5.369276e-06	6.986347e-09	3.842485e+01	4.600222e+02
1.680000e-06	5.364281e-06	6.982044e-09	3.838910e+01	4.597080e+02
1.690000e-06	5.357365e-06	6.977449e-09	3.833961e+01	4.593391e+02
1.700000e-06	5.348715e-06	6.972657e-09	3.827771e+01	4.588992e+02
1.710000e-06	5.338532e-06	6.965878e-09	3.820483e+01	4.583634e+02
1.720000e-06	5.326623e-06	6.958535e-09	3.811960e+01	4.577049e+02
1.730000e-06	5.312716e-06	6.937549e-09	3.802008e+01	4.569037e+02
1.740000e-06	5.296710e-06	6.910761e-09	3.790554e+01	4.559528e+02
1.750000e-06	5.278358e-06	6.892212e-09	3.777420e+01	4.548627e+02
1.760000e-06	5.257366e-06	6.885634e-09	3.762397e+01	4.536612e+02
1.770000e-06	5.234157e-06	6.900842e-09	3.745788e+01	4.523879e+02
1.780000e-06	5.209750e-06	6.882476e-09	3.728321e+01	4.510863e+02
1.790000e-06	5.184622e-06	6.820844e-09	3.710339e+01	4.497931e+02
1.800000e-06	5.157945e-06	6.800766e-09	3.691247e+01	4.485296e+02
1.810000e-06	5.128999e-06	6.777055e-09	3.670533e+01	4.472948e+02
1.820000e-06	5.098360e-06	6.754788e-09	3.648606e+01	4.460647e+02
1.830000e-06	5.066087e-06	6.764173e-09	3.625510e+01	4.447963e+02
1.840000e-06	5.031859e-06	6.743235e-09	3.601015e+01	4.434357e+02
1.850000e-06	4.995996e-06	6.736594e-09	3.575350e+01	4.419294e+02
1.860000e-06	4.958306e-06	6.746976e-09	3.548377e+01	4.402351e+02
1.870000e-06	4.918736e-06	6.708563e-09	3.520059e+01	4.383296e+02
1.880000e-06	4.877553e-06	6.670004e-09	3.490587e+01	4.362132e+02
1.890000e-06	4.834602e-06	6.619115e-09	3.459849e+01	4.339071e+02
1.900000e-06	4.790063e-06	6.547792e-09	3.427975e+01	4.314482e+02
1.910000e-06	4.743702e-06	6.543102e-09	3.394798e+01	4.288792e+02
1.920000e-06	4.695275e-06	6.534232e-09	3.360141e+01	4.262386e+02
1.930000e-06	4.645292e-06	6.484819e-09	3.324371e+01	4.235527e+02
1.940000e-06	4.593531e-06	6.442232e-09	3.287329e+01	4.208310e+02
1.950000e-06	4.539689e-06	6.384355e-09	3.248797e+01	4.180656e+02
1.960000e-06	4.483957e-06	6.320027e-09	3.208913e+01	4.152357e+02
1.970000e-06	4.426543e-06	6.292944e-09	3.167825e+01	4.123141e+02
1.980000e-06	4.367726e-06	6.270658e-09	3.125733e+01	4.092752e+02
1.990000e-06	4.307443e-06	6.213916e-09	3.082592e+01	4.061014e+02
2.000000e-06	4.245497e-06	6.146076e-09	3.038260e+01	4.027871e+02
2.010000e-06	4.181883e-06	6.095566e-09	2.992735e+01	3.993390e+02
2.020000e-06	4.116754e-06	6.048990e-09	2.946126e+01	3.957728e+02
2.030000e-06	4.050256e-06	5.990957e-09	2.898538e+01	3.921081e+02
2.040000e-06	3.982365e-06	5.944145e-09	2.849952e+01	3.883626e+02
2.050000e-06	3.912986e-06	5.890124e-09	2.800301e+01	3.845471e+02
2.060000e-06	3.842049e-06	5.816915e-09	2.749536e+01	3.806629e+02
2.070000e-06	3.769744e-06	5.758172e-09	2.697791e+01	3.767020e+02
2.080000e-06	3.696153e-06	5.703691e-09	2.645126e+01	3.726498e+02
2.090000e-06	3.621179e-06	5.642505e-09	2.591472e+01	3.684894e+02
2.100000e-06	3.544829e-06	5.557739e-09	2.536832e+01	3.642064e+02
2.110000e-06	3.466958e-06	5.474685e-09	2.481104e+01	3.597919e+02
2.120000e-06	3.387648e-06	5.428274e-09	2.424346e+01	3.552446e+02
2.130000e-06	3.307176e-06	5.370296e-09	2.366758e+01	3.505701e+02
2.140000e-06	3.225639e-06	5.301562e-09	2.308406e+01	3.457784e+02
2.150000e-06	3.143031e-06	5.228853e-09	2.249288e+01	3.408801e+02
2.160000e-06	3.059396e-06	5.137177e-09	2.189436e+01	3.358839e+02
2.170000e-06	2.974665e-06	5.046911e-09	2.128798e+01	3.307932e+02
2.180000e-06	2.888600e-06	4.974393e-09	2.067206e+01	3.256058e+02
2.190000e-06	2.801276e-06	4.910420e-09	2.004714e+01	3.203149e+02
2.200000e-06	2.712975e-06	4.830869e-09	1.941522e+01	3.149106e+02
2.210000e-06	2.623810e-06	4.737929e-09	1.877711e+01	3.093830e+02
2.220000e-06	2.533753e-06	4.647558e-09	1.813263e+01	3.037239e+02
2.230000e-06	2.442796e-06	4.563603e-09	1.748170e+01	2.979285e+02
2.240000e-06	2.351079e-06	4.476565e-09	1.682533e+01	2.919950e+02
2.250000e-06	2.258654e-06	4.386074e-09	1.616390e+01	2.859239e+02
2.260000e-06	2.165503e-06	4.291317e-09	1.549727e+01	2.797166e+02
2.270000e-06	2.071331e-06	4.185728e-09	1.482333e+01	2.733740e+02
2.280000e-06	1.976025e-06	4.084194e-09	1.414129e+01	2.668956e+02
2.290000e-06	1.880004e-06	3.989226e-09	1.345412e+01	2.602798e+02
2.300000e-06	1.783563e-06	3.889403e-09	1.276394e+01	2.535252e+02
2.310000e-06	1.686657e-06	3.778720e-09	1.207044e+01	2.466311e+02
2.320000e-06	1.589147e-06	3.666021e-09	1.137262e+01	2.395996e+02
2.330000e-06	1.491085e-06	3.563783e-09	1.067084e+01	2.324351e+02
2.340000e-06	1.392558e-06	3.464460e-09	9.965743e+00	2.251441e+02
2.350000e-06	1.293570e-06	3.356104e-09	9.257346e+00	2.177329e+02
2.360000e-06	1.194256e-06	3.237410e-09	8.546612e+00	2.102055e+02
2.370000e-06	1.094708e-06	3.111126e-09	7.834204e+00	2.025613e+02
2.380000e-06	9.948853e-07	2.985432e-09	7.119828e+00	1.947934e+02
2.390000e-06	8.947393e-07	2.869369e-09	6.403140e+00	1.868887e+02
2.400000e-06	7.942041e-07	2.756945e-09	5.683666e+00	1.788294e+02
2.410000e-06	6.934405e-07	2.635190e-09	4.962559e+00	1.705953e+02
2.420000e-06	5.925200e-07	2.499486e-09	4.240328e+00	1.621677e+02
2.430000e-06	4.913085e-07	2.362167e-09	3.516015e+00	1.535319e+02
2.440000e-06	3.898031e-07	2.231091e-09	2.789598e+00	1.446794e+02
2.450000e-06	2.881082e-07	2.099176e-09	2.061826e+00	1.356086e+02
2.460000e-06	1.862513e-07	1.959762e-09	1.332895e+00	1.263226e+02
2.470000e-06	8.416170e-08	1.812895e-09	6.022973e-01	1.168275e+02
2.480000e-06	-1.797020e-08	1.661227e-09	-1.286025e-01	1.071284e+02
2.490000e-06	-1.200017e-07	1.510890e-09	-8.587835e-01	9.722727e+01
2.500000e-06	-2.220377e-07	1.362355e-09	-1.588997e+00	8.712063e+01
2.510000e-06	-3.239731e-07	1.209438e-09	-2.318491e+00	7.679987e+01
2.520000e-06	-4.257797e-07	1.048561e-09	-3.047063e+00	6.625252e+01
2.530000e-06	-5.273945e-07	8.805422e-10	-3.774262e+00	5.546479e+01
2.540000e-06	-6.286745e-07	7.127378e-10	-4.499065e+00	4.442438e+01
2.550000e-06	-7.296698e-07	5.470241e-10	-5.221831e+00	3.312274e+01
2.560000e-06	-8.303369e-07	3.744050e-10	-5.942248e+00	2.155632e+01
2.570000e-06	-9.306221e-07	1.902077e-10	-6.659932e+00	9.726393e+00
2.580000e-06	-1.030639e-06	-7.269463e-13	-7.375694e+00	-2.362034e+00
2.590000e-06	-1.130377e-06	-1.937329e-10	-8.089467e+00	-1.470169e+01
2.600000e-06	-1.229717e-06	-3.868020e-10	-8.800384e+00	-2.728404e+01
2.610000e-06	-1.328641e-06	-5.812219e-10	-9.508324e+00	-4.009916e+01
2.620000e-06	-1.427156e-06	-7.792793e-10	-1.021334e+01	-5.313406e+01
2.630000e-06	-1.525196e-06	-9.841452e-10	-1.091496e+01	-6.636979e+01
2.640000e-06	-1.622616e-06	-1.192980e-09	-1.161214e+01	-7.977796e+01
2.650000e-06	-1.719403e-06	-1.401819e-09	-1.230479e+01	-9.331778e+01
2.660000e-06	-1.815665e-06	-1.610725e-09	-1.299368e+01	-1.069346e+02
2.670000e-06	-1.911498e-06	-1.821629e-09	-1.367951e+01	-1.205612e+02
2.680000e-06	-2.006841e-06	-2.036099e-09	-1.436182e+01	-1.341213e+02
2.690000e-06	-2.101375e-06	-2.247610e-09	-1.503834e+01	-1.475355e+02
2.700000e-06	-2.194835e-06	-2.450791e-09	-1.570718e+01	-1.607288e+02
2.710000e-06	-2.287272e-06	-2.644870e-09	-1.636870e+01	-1.736373e+02
2.720000e-06	-2.378854e-06	-2.834364e-09	-1.702410e+01	-1.862135e+02
2.730000e-06	-2.469668e-06	-3.021000e-09	-1.767401e+01	-1.984290e+02
2.740000e-06	-2.559586e-06	-3.201987e-09	-1.831750e+01	-2.102730e+02
2.750000e-06	-2.648540e-06	-3.378005e-09	-1.895409e+01	-2.217490e+02
2.760000e-06	-2.736704e-06	-3.548222e-09	-1.958503e+01	-2.328686e+02
2.770000e-06	-2.824165e-06	-3.714286e-09	-2.021094e+01	-2.436449e+02
2.780000e-06	-2.910655e-06	-3.877631e-09	-2.082990e+01	-2.540871e+02
2.790000e-06	-2.995825e-06	-4.033730e-09	-2.143941e+01	-2.641970e+02
2.800000e-06	-3.079798e-06	-4.180473e-09	-2.204036e+01	-2.739686e+02
2.810000e-06	-3.162797e-06	-4.319145e-09	-2.263434e+01	-2.833901e+02
2.820000e-06	-3.244751e-06	-4.452932e-09	-2.322083e+01	-2.924477e+02
2.830000e-06	-3.325584e-06	-4.585071e-09	-2.379931e+01	-3.011303e+02
2.840000e-06	-3.405424e-06	-4.715961e-09	-2.437068e+01	-3.094333e+02
2.850000e-06	-3.484100e-06	-4.843057e-09	-2.493372e+01	-3.173609e+02
2.860000e-06	-3.561195e-06	-4.963167e-09	-2.548545e+01	-3.249260e+02
2.870000e-06	-3.636748e-06	-5.075171e-09	-2.602613e+01	-3.321485e+02
2.880000e-06	-3.710920e-06	-5.180890e-09	-2.655694e+01	-3.390522e+02
2.890000e-06	-3.783715e-06	-5.281840e-09	-2.707789e+01	-3.456612e+02
2.900000e-06	-3.855279e-06	-5.379513e-09	-2.759003e+01	-3.519969e+02
2.910000e-06	-3.925375e-06	-5.472202e-09	-2.809168e+01	-3.580774e+02
2.920000e-06	-3.993841e-06	-5.559683e-09	-2.858164e+01	-3.639168e+02
2.930000e-06	-4.060930e-06	-5.644335e-09	-2.906176e+01	-3.695269e+02
2.940000e-06	-4.126622e-06	-5.726503e-09	-2.953188e+01	-3.749192e+02
