# Temperatura_=_69.68
# Concentracion g/m^3_=_15000.0
# C_Vs_to_Am_M_A/Vsm_=_65563218390.804596
# pendiente_HvsI_1/m_=_3716.3
# ordenada_HvsI_A/m_=_1297.0
# frecuencia_Hz_=_301592.94351930957

Tiempo_(s)	Campo_(V.s)	Magnetizacion_(V.s)	Campo_(kA/m)	Magnetizacion_(A/m)
0.000000e+00	-5.385885e-06	-7.078996e-09	-3.833782e+01	-4.625505e+02
1.000000e-08	-5.383241e-06	-7.076930e-09	-3.831899e+01	-4.623391e+02
2.000000e-08	-5.378801e-06	-7.073328e-09	-3.828739e+01	-4.620633e+02
3.000000e-08	-5.372767e-06	-7.066785e-09	-3.824443e+01	-4.617190e+02
4.000000e-08	-5.365183e-06	-7.056533e-09	-3.819045e+01	-4.612936e+02
5.000000e-08	-5.355822e-06	-7.044178e-09	-3.812382e+01	-4.607688e+02
6.000000e-08	-5.344431e-06	-7.029941e-09	-3.804274e+01	-4.601256e+02
7.000000e-08	-5.331108e-06	-7.012741e-09	-3.794790e+01	-4.593500e+02
8.000000e-08	-5.315632e-06	-7.006127e-09	-3.783774e+01	-4.584381e+02
9.000000e-08	-5.297816e-06	-7.027814e-09	-3.771092e+01	-4.573990e+02
1.000000e-07	-5.277961e-06	-7.015871e-09	-3.756959e+01	-4.562540e+02
1.100000e-07	-5.256258e-06	-6.969622e-09	-3.741510e+01	-4.550339e+02
1.200000e-07	-5.232832e-06	-6.935014e-09	-3.724835e+01	-4.537719e+02
1.300000e-07	-5.207843e-06	-6.866726e-09	-3.707048e+01	-4.524969e+02
1.400000e-07	-5.181296e-06	-6.869425e-09	-3.688151e+01	-4.512261e+02
1.500000e-07	-5.153172e-06	-6.928092e-09	-3.668132e+01	-4.499601e+02
1.600000e-07	-5.123564e-06	-6.846077e-09	-3.647056e+01	-4.486820e+02
1.700000e-07	-5.092372e-06	-6.835356e-09	-3.624853e+01	-4.473600e+02
1.800000e-07	-5.059065e-06	-6.849802e-09	-3.601144e+01	-4.459530e+02
1.900000e-07	-5.023814e-06	-6.751646e-09	-3.576052e+01	-4.444189e+02
2.000000e-07	-4.987163e-06	-6.759689e-09	-3.549963e+01	-4.427229e+02
2.100000e-07	-4.948802e-06	-6.728716e-09	-3.522657e+01	-4.408437e+02
2.200000e-07	-4.908578e-06	-6.628155e-09	-3.494025e+01	-4.387772e+02
2.300000e-07	-4.866427e-06	-6.628922e-09	-3.464021e+01	-4.365359e+02
2.400000e-07	-4.822311e-06	-6.619750e-09	-3.432618e+01	-4.341448e+02
2.500000e-07	-4.776402e-06	-6.601273e-09	-3.399939e+01	-4.316351e+02
2.600000e-07	-4.728588e-06	-6.575090e-09	-3.365904e+01	-4.290369e+02
2.700000e-07	-4.678696e-06	-6.484886e-09	-3.330390e+01	-4.263725e+02
2.800000e-07	-4.626722e-06	-6.450453e-09	-3.293394e+01	-4.236527e+02
2.900000e-07	-4.572871e-06	-6.427683e-09	-3.255061e+01	-4.208754e+02
3.000000e-07	-4.517438e-06	-6.373641e-09	-3.215603e+01	-4.180281e+02
3.100000e-07	-4.460447e-06	-6.328996e-09	-3.175036e+01	-4.150924e+02
3.200000e-07	-4.401629e-06	-6.279033e-09	-3.133168e+01	-4.120491e+02
3.300000e-07	-4.341147e-06	-6.218804e-09	-3.090116e+01	-4.088834e+02
3.400000e-07	-4.279266e-06	-6.163901e-09	-3.046068e+01	-4.055879e+02
3.500000e-07	-4.216010e-06	-6.142511e-09	-3.001041e+01	-4.021637e+02
3.600000e-07	-4.151237e-06	-6.091650e-09	-2.954934e+01	-3.986191e+02
3.700000e-07	-4.084787e-06	-6.007722e-09	-2.907634e+01	-3.949660e+02
3.800000e-07	-4.016773e-06	-5.950489e-09	-2.859220e+01	-3.912164e+02
3.900000e-07	-3.947361e-06	-5.899739e-09	-2.809811e+01	-3.873789e+02
4.000000e-07	-3.876685e-06	-5.847743e-09	-2.759502e+01	-3.834565e+02
4.100000e-07	-3.804793e-06	-5.783267e-09	-2.708328e+01	-3.794466e+02
4.200000e-07	-3.731591e-06	-5.711395e-09	-2.656222e+01	-3.753417e+02
4.300000e-07	-3.656805e-06	-5.643133e-09	-2.602988e+01	-3.711326e+02
4.400000e-07	-3.580421e-06	-5.578602e-09	-2.548616e+01	-3.668107e+02
4.500000e-07	-3.502558e-06	-5.525673e-09	-2.493191e+01	-3.623703e+02
4.600000e-07	-3.423252e-06	-5.469305e-09	-2.436740e+01	-3.578100e+02
4.700000e-07	-3.342694e-06	-5.388135e-09	-2.379397e+01	-3.531319e+02
4.800000e-07	-3.260945e-06	-5.292977e-09	-2.321206e+01	-3.483406e+02
4.900000e-07	-3.178010e-06	-5.215430e-09	-2.262171e+01	-3.434410e+02
5.000000e-07	-3.094056e-06	-5.151133e-09	-2.202412e+01	-3.384363e+02
5.100000e-07	-3.009239e-06	-5.077297e-09	-2.142037e+01	-3.333267e+02
5.200000e-07	-2.923491e-06	-4.995321e-09	-2.081000e+01	-3.281093e+02
5.300000e-07	-2.836741e-06	-4.905592e-09	-2.019249e+01	-3.227784e+02
5.400000e-07	-2.749074e-06	-4.817094e-09	-1.956846e+01	-3.173276e+02
5.500000e-07	-2.660496e-06	-4.738105e-09	-1.893795e+01	-3.117511e+02
5.600000e-07	-2.570800e-06	-4.656570e-09	-1.829947e+01	-3.060450e+02
5.700000e-07	-2.479924e-06	-4.564551e-09	-1.765260e+01	-3.002085e+02
5.800000e-07	-2.388076e-06	-4.462251e-09	-1.699880e+01	-2.942427e+02
5.900000e-07	-2.295432e-06	-4.365855e-09	-1.633935e+01	-2.881503e+02
6.000000e-07	-2.202011e-06	-4.277214e-09	-1.567436e+01	-2.819339e+02
6.100000e-07	-2.107820e-06	-4.184889e-09	-1.500389e+01	-2.755947e+02
6.200000e-07	-2.012942e-06	-4.085358e-09	-1.432853e+01	-2.691319e+02
6.300000e-07	-1.917401e-06	-3.979317e-09	-1.364845e+01	-2.625428e+02
6.400000e-07	-1.821152e-06	-3.873324e-09	-1.296333e+01	-2.558234e+02
6.500000e-07	-1.724133e-06	-3.772108e-09	-1.227273e+01	-2.489699e+02
6.600000e-07	-1.626333e-06	-3.671742e-09	-1.157656e+01	-2.419794e+02
6.700000e-07	-1.527880e-06	-3.560186e-09	-1.087576e+01	-2.348513e+02
6.800000e-07	-1.428873e-06	-3.438330e-09	-1.017101e+01	-2.275863e+02
6.900000e-07	-1.329345e-06	-3.318366e-09	-9.462547e+00	-2.201865e+02
7.000000e-07	-1.229395e-06	-3.206698e-09	-8.751080e+00	-2.126532e+02
7.100000e-07	-1.129087e-06	-3.096196e-09	-8.037072e+00	-2.049855e+02
7.200000e-07	-1.028480e-06	-2.977502e-09	-7.320929e+00	-1.971795e+02
7.300000e-07	-9.276623e-07	-2.854250e-09	-6.603287e+00	-1.892273e+02
7.400000e-07	-8.265440e-07	-2.727632e-09	-5.883507e+00	-1.811180e+02
7.500000e-07	-7.250465e-07	-2.600001e-09	-5.161027e+00	-1.728390e+02
7.600000e-07	-6.232293e-07	-2.472823e-09	-4.436272e+00	-1.643777e+02
7.700000e-07	-5.211929e-07	-2.341424e-09	-3.709956e+00	-1.557235e+02
7.800000e-07	-4.190568e-07	-2.203290e-09	-2.982931e+00	-1.468689e+02
7.900000e-07	-3.167756e-07	-2.059158e-09	-2.254872e+00	-1.378100e+02
8.000000e-07	-2.143398e-07	-1.916402e-09	-1.525714e+00	-1.285457e+02
8.100000e-07	-1.118474e-07	-1.777045e-09	-7.961526e-01	-1.190762e+02
8.200000e-07	-9.295009e-09	-1.632393e-09	-6.616375e-02	-1.094015e+02
8.300000e-07	9.330422e-08	-1.477866e-09	6.641583e-01	-9.951958e+01
8.400000e-07	1.958918e-07	-1.318631e-09	1.394397e+00	-8.942583e+01
8.500000e-07	2.984258e-07	-1.159013e-09	2.124255e+00	-7.911293e+01
8.600000e-07	4.008857e-07	-9.979868e-10	2.853586e+00	-6.857180e+01
8.700000e-07	5.032494e-07	-8.328462e-10	3.582230e+00	-5.779302e+01
8.800000e-07	6.054561e-07	-6.622331e-10	4.309758e+00	-4.676823e+01
8.900000e-07	7.074762e-07	-4.881418e-10	5.035958e+00	-3.549121e+01
9.000000e-07	8.092281e-07	-3.114334e-10	5.760249e+00	-2.395815e+01
9.100000e-07	9.106237e-07	-1.320108e-10	6.482003e+00	-1.216727e+01
9.200000e-07	1.011680e-06	4.830065e-11	7.201343e+00	-1.181058e-01
9.300000e-07	1.112419e-06	2.316364e-10	7.918423e+00	1.218909e+01
9.400000e-07	1.212856e-06	4.211482e-10	8.633351e+00	2.475315e+01
9.500000e-07	1.312993e-06	6.143345e-10	9.346149e+00	3.757065e+01
9.600000e-07	1.412654e-06	8.108143e-10	1.005555e+01	5.063344e+01
9.700000e-07	1.511661e-06	1.010048e-09	1.076031e+01	6.392521e+01
9.800000e-07	1.610027e-06	1.212119e-09	1.146049e+01	7.741807e+01
9.900000e-07	1.707656e-06	1.418777e-09	1.215544e+01	9.106994e+01
1.000000e-06	1.804470e-06	1.627351e-09	1.284458e+01	1.048238e+02
1.010000e-06	1.900537e-06	1.836196e-09	1.352840e+01	1.186092e+02
1.020000e-06	1.995903e-06	2.041820e-09	1.420724e+01	1.323465e+02
1.030000e-06	2.090616e-06	2.243619e-09	1.488143e+01	1.459532e+02
1.040000e-06	2.184568e-06	2.443999e-09	1.555020e+01	1.593506e+02
1.050000e-06	2.277746e-06	2.640539e-09	1.621346e+01	1.724714e+02
1.060000e-06	2.370271e-06	2.833124e-09	1.687206e+01	1.852641e+02
1.070000e-06	2.462147e-06	3.020387e-09	1.752606e+01	1.976962e+02
1.080000e-06	2.553210e-06	3.202170e-09	1.817427e+01	2.097532e+02
1.090000e-06	2.643165e-06	3.381527e-09	1.881458e+01	2.214352e+02
1.100000e-06	2.731904e-06	3.558840e-09	1.944624e+01	2.327517e+02
1.110000e-06	2.819698e-06	3.729207e-09	2.007118e+01	2.437154e+02
1.120000e-06	2.906630e-06	3.890526e-09	2.068998e+01	2.543365e+02
1.130000e-06	2.992566e-06	4.045781e-09	2.130168e+01	2.646194e+02
1.140000e-06	3.077521e-06	4.196865e-09	2.190641e+01	2.745615e+02
1.150000e-06	3.161566e-06	4.343257e-09	2.250466e+01	2.841544e+02
1.160000e-06	3.244661e-06	4.482859e-09	2.309615e+01	2.933872e+02
1.170000e-06	3.326584e-06	4.616128e-09	2.367930e+01	3.022501e+02
1.180000e-06	3.407201e-06	4.745503e-09	2.425314e+01	3.107384e+02
1.190000e-06	3.486516e-06	4.868655e-09	2.481772e+01	3.188546e+02
1.200000e-06	3.564634e-06	4.987799e-09	2.537378e+01	3.266089e+02
1.210000e-06	3.641566e-06	5.103223e-09	2.592140e+01	3.340182e+02
1.220000e-06	3.717211e-06	5.210098e-09	2.645986e+01	3.411031e+02
1.230000e-06	3.791223e-06	5.309637e-09	2.698669e+01	3.478857e+02
1.240000e-06	3.863571e-06	5.405012e-09	2.750168e+01	3.543862e+02
1.250000e-06	3.934559e-06	5.500087e-09	2.800698e+01	3.606219e+02
1.260000e-06	4.004165e-06	5.591516e-09	2.850245e+01	3.666066e+02
1.270000e-06	4.072450e-06	5.677977e-09	2.898852e+01	3.723516e+02
1.280000e-06	4.139293e-06	5.761812e-09	2.946432e+01	3.778672e+02
1.290000e-06	4.204429e-06	5.843847e-09	2.992797e+01	3.831638e+02
1.300000e-06	4.267983e-06	5.922914e-09	3.038036e+01	3.882535e+02
1.310000e-06	4.330087e-06	5.997917e-09	3.082243e+01	3.931492e+02
1.320000e-06	4.390838e-06	6.069788e-09	3.125487e+01	3.978634e+02
1.330000e-06	4.450289e-06	6.137903e-09	3.167805e+01	4.024069e+02
1.340000e-06	4.507990e-06	6.202857e-09	3.208878e+01	4.067865e+02
1.350000e-06	4.563832e-06	6.266420e-09	3.248628e+01	4.110038e+02
1.360000e-06	4.618082e-06	6.328294e-09	3.287244e+01	4.150556e+02
1.370000e-06	4.670642e-06	6.386488e-09	3.324657e+01	4.189345e+02
1.380000e-06	4.721170e-06	6.440602e-09	3.360624e+01	4.226317e+02
1.390000e-06	4.769634e-06	6.493881e-09	3.395121e+01	4.261391e+02
1.400000e-06	4.816438e-06	6.545477e-09	3.428438e+01	4.294523e+02
1.410000e-06	4.861682e-06	6.592803e-09	3.460643e+01	4.325718e+02
1.420000e-06	4.905333e-06	6.636602e-09	3.491715e+01	4.355029e+02
1.430000e-06	4.947120e-06	6.677032e-09	3.521460e+01	4.382551e+02
1.440000e-06	4.987021e-06	6.714602e-09	3.549862e+01	4.408396e+02
1.450000e-06	5.025307e-06	6.749173e-09	3.577115e+01	4.432668e+02
1.460000e-06	5.062037e-06	6.781531e-09	3.603260e+01	4.455448e+02
1.470000e-06	5.097031e-06	6.814444e-09	3.628169e+01	4.476776e+02
1.480000e-06	5.130054e-06	6.846098e-09	3.651676e+01	4.496664e+02
1.490000e-06	5.161277e-06	6.873700e-09	3.673901e+01	4.515102e+02
1.500000e-06	5.190782e-06	6.898487e-09	3.694903e+01	4.532081e+02
1.510000e-06	5.218598e-06	6.921129e-09	3.714703e+01	4.547614e+02
1.520000e-06	5.244459e-06	6.942115e-09	3.733112e+01	4.561745e+02
1.530000e-06	5.268174e-06	6.961887e-09	3.749993e+01	4.574548e+02
1.540000e-06	5.289987e-06	6.979506e-09	3.765520e+01	4.586118e+02
1.550000e-06	5.310099e-06	6.994733e-09	3.779835e+01	4.596546e+02
1.560000e-06	5.328410e-06	7.008472e-09	3.792870e+01	4.605898e+02
1.570000e-06	5.344708e-06	7.021539e-09	3.804471e+01	4.614197e+02
1.580000e-06	5.359023e-06	7.033159e-09	3.814661e+01	4.621423e+02
1.590000e-06	5.371380e-06	7.044041e-09	3.823457e+01	4.627519e+02
1.600000e-06	5.381561e-06	7.053250e-09	3.830704e+01	4.632415e+02
1.610000e-06	5.389590e-06	7.059940e-09	3.836419e+01	4.636064e+02
1.620000e-06	5.395723e-06	7.066111e-09	3.840784e+01	4.638463e+02
1.630000e-06	5.400096e-06	7.070608e-09	3.843897e+01	4.639667e+02
1.640000e-06	5.402567e-06	7.072238e-09	3.845656e+01	4.639793e+02
1.650000e-06	5.403050e-06	7.073262e-09	3.846000e+01	4.638991e+02
1.660000e-06	5.401750e-06	7.072660e-09	3.845074e+01	4.637407e+02
1.670000e-06	5.398778e-06	7.069048e-09	3.842959e+01	4.635149e+02
1.680000e-06	5.394078e-06	7.064747e-09	3.839614e+01	4.632247e+02
1.690000e-06	5.387403e-06	7.060753e-09	3.834862e+01	4.628640e+02
1.700000e-06	5.378956e-06	7.056995e-09	3.828849e+01	4.624185e+02
1.710000e-06	5.368997e-06	7.051754e-09	3.821760e+01	4.618694e+02
1.720000e-06	5.357298e-06	7.045668e-09	3.813433e+01	4.611983e+02
1.730000e-06	5.343629e-06	7.037416e-09	3.803703e+01	4.603930e+02
1.740000e-06	5.327933e-06	6.979569e-09	3.792530e+01	4.594523e+02
1.750000e-06	5.309944e-06	6.952233e-09	3.779725e+01	4.583879e+02
1.760000e-06	5.289256e-06	6.965489e-09	3.764999e+01	4.572236e+02
1.770000e-06	5.266215e-06	6.964470e-09	3.748598e+01	4.559913e+02
1.780000e-06	5.241787e-06	7.016556e-09	3.731209e+01	4.547240e+02
1.790000e-06	5.216614e-06	6.942118e-09	3.713291e+01	4.534486e+02
1.800000e-06	5.190163e-06	6.832116e-09	3.694463e+01	4.521789e+02
1.810000e-06	5.161473e-06	6.890334e-09	3.674041e+01	4.509119e+02
1.820000e-06	5.130960e-06	6.820941e-09	3.652321e+01	4.496271e+02
1.830000e-06	5.098833e-06	6.780162e-09	3.629452e+01	4.482901e+02
1.840000e-06	5.064685e-06	6.855079e-09	3.605144e+01	4.468588e+02
1.850000e-06	5.028946e-06	6.757320e-09	3.579705e+01	4.452922e+02
1.860000e-06	4.991434e-06	6.758622e-09	3.553003e+01	4.435578e+02
1.870000e-06	4.951976e-06	6.789497e-09	3.524917e+01	4.416378e+02
1.880000e-06	4.910902e-06	6.664546e-09	3.495679e+01	4.395318e+02
1.890000e-06	4.868070e-06	6.653561e-09	3.465191e+01	4.372556e+02
1.900000e-06	4.823576e-06	6.580913e-09	3.433519e+01	4.348359e+02
1.910000e-06	4.777221e-06	6.531750e-09	3.400522e+01	4.323045e+02
1.920000e-06	4.728823e-06	6.584485e-09	3.366071e+01	4.296902e+02
1.930000e-06	4.678840e-06	6.474314e-09	3.330493e+01	4.270131e+02
1.940000e-06	4.627133e-06	6.457876e-09	3.293687e+01	4.242811e+02
1.950000e-06	4.573355e-06	6.438248e-09	3.255406e+01	4.214897e+02
1.960000e-06	4.517614e-06	6.336988e-09	3.215728e+01	4.186247e+02
1.970000e-06	4.460152e-06	6.315201e-09	3.174826e+01	4.156671e+02
1.980000e-06	4.401290e-06	6.271097e-09	3.132927e+01	4.125982e+02
1.990000e-06	4.340920e-06	6.253645e-09	3.089955e+01	4.094046e+02
2.000000e-06	4.278780e-06	6.168994e-09	3.045722e+01	4.060807e+02
2.010000e-06	4.214989e-06	6.100471e-09	3.000314e+01	4.026295e+02
2.020000e-06	4.149747e-06	6.100494e-09	2.953874e+01	3.990601e+02
2.030000e-06	4.083143e-06	6.006914e-09	2.906463e+01	3.953849e+02
2.040000e-06	4.015098e-06	5.959524e-09	2.858028e+01	3.916155e+02
2.050000e-06	3.945517e-06	5.905925e-09	2.808498e+01	3.877594e+02
2.060000e-06	3.874422e-06	5.841959e-09	2.757892e+01	3.838183e+02
2.070000e-06	3.801968e-06	5.787978e-09	2.706317e+01	3.797883e+02
2.080000e-06	3.728270e-06	5.704309e-09	2.653858e+01	3.756615e+02
2.090000e-06	3.653230e-06	5.668292e-09	2.600443e+01	3.714284e+02
2.100000e-06	3.576696e-06	5.588004e-09	2.545964e+01	3.670811e+02
2.110000e-06	3.498576e-06	5.496612e-09	2.490357e+01	3.626146e+02
2.120000e-06	3.419114e-06	5.437204e-09	2.433794e+01	3.580283e+02
2.130000e-06	3.338569e-06	5.384261e-09	2.376461e+01	3.533251e+02
2.140000e-06	3.256880e-06	5.324963e-09	2.318313e+01	3.485098e+02
2.150000e-06	3.174042e-06	5.239106e-09	2.259347e+01	3.435871e+02
2.160000e-06	3.090141e-06	5.159827e-09	2.199625e+01	3.385596e+02
2.170000e-06	3.005089e-06	5.071445e-09	2.139083e+01	3.334269e+02
2.180000e-06	2.918738e-06	4.994390e-09	2.077616e+01	3.281852e+02
2.190000e-06	2.831232e-06	4.919636e-09	2.015328e+01	3.228288e+02
2.200000e-06	2.742793e-06	4.838070e-09	1.952376e+01	3.173511e+02
2.210000e-06	2.653424e-06	4.754640e-09	1.888761e+01	3.117466e+02
2.220000e-06	2.563126e-06	4.662079e-09	1.824485e+01	3.060122e+02
2.230000e-06	2.472007e-06	4.578730e-09	1.759625e+01	3.001473e+02
2.240000e-06	2.380132e-06	4.489916e-09	1.694226e+01	2.941537e+02
2.250000e-06	2.287427e-06	4.399579e-09	1.628237e+01	2.880342e+02
2.260000e-06	2.193806e-06	4.301868e-09	1.561595e+01	2.817910e+02
2.270000e-06	2.099230e-06	4.196406e-09	1.494274e+01	2.754251e+02
2.280000e-06	2.003699e-06	4.096460e-09	1.426273e+01	2.689351e+02
2.290000e-06	1.907404e-06	4.003319e-09	1.357729e+01	2.623180e+02
2.300000e-06	1.810566e-06	3.905881e-09	1.288797e+01	2.555698e+02
2.310000e-06	1.713234e-06	3.795696e-09	1.219515e+01	2.486866e+02
2.320000e-06	1.615321e-06	3.683721e-09	1.149818e+01	2.416663e+02
2.330000e-06	1.516872e-06	3.579274e-09	1.079740e+01	2.345082e+02
2.340000e-06	1.417991e-06	3.478750e-09	1.009355e+01	2.272138e+02
2.350000e-06	1.318750e-06	3.367302e-09	9.387131e+00	2.197850e+02
2.360000e-06	1.219192e-06	3.249067e-09	8.678456e+00	2.122226e+02
2.370000e-06	1.119278e-06	3.126609e-09	7.967248e+00	2.045253e+02
2.380000e-06	1.019026e-06	3.000972e-09	7.253631e+00	1.966883e+02
2.390000e-06	9.183311e-07	2.881532e-09	6.536866e+00	1.887031e+02
2.400000e-06	8.172096e-07	2.766321e-09	5.817063e+00	1.805581e+02
2.410000e-06	7.157340e-07	2.645346e-09	5.094739e+00	1.722406e+02
2.420000e-06	6.139875e-07	2.511635e-09	4.370487e+00	1.637384e+02
2.430000e-06	5.120291e-07	2.374443e-09	3.644726e+00	1.550413e+02
2.440000e-06	4.098373e-07	2.242716e-09	2.917305e+00	1.461428e+02
2.450000e-06	3.074729e-07	2.108731e-09	2.188654e+00	1.370395e+02
2.460000e-06	2.049426e-07	1.964697e-09	1.458823e+00	1.277307e+02
2.470000e-06	1.022439e-07	1.816476e-09	7.277926e-01	1.182169e+02
2.480000e-06	-5.702238e-10	1.668216e-09	-4.058968e-03	1.084976e+02
2.490000e-06	-1.033583e-07	1.520241e-09	-7.357254e-01	9.857038e+01
2.500000e-06	-2.060310e-07	1.371228e-09	-1.466570e+00	8.842996e+01
2.510000e-06	-3.086146e-07	1.218323e-09	-2.196781e+00	7.806854e+01
2.520000e-06	-4.111204e-07	1.058841e-09	-2.926438e+00	6.747685e+01
2.530000e-06	-5.135207e-07	8.893469e-10	-3.655343e+00	5.664557e+01
2.540000e-06	-6.156624e-07	7.169486e-10	-4.382409e+00	4.556677e+01
2.550000e-06	-7.174437e-07	5.480527e-10	-5.106909e+00	3.423471e+01
2.560000e-06	-8.188405e-07	3.754635e-10	-5.828672e+00	2.264609e+01
2.570000e-06	-9.198719e-07	1.931688e-10	-6.547833e+00	1.079946e+01
2.580000e-06	-1.020555e-06	4.887354e-12	-7.264513e+00	-1.305462e+00
2.590000e-06	-1.120834e-06	-1.865921e-10	-7.978324e+00	-1.366826e+01
2.600000e-06	-1.220746e-06	-3.809591e-10	-8.689514e+00	-2.628744e+01
2.610000e-06	-1.320250e-06	-5.775475e-10	-9.397806e+00	-3.915883e+01
2.620000e-06	-1.419279e-06	-7.783202e-10	-1.010271e+01	-5.227282e+01
2.630000e-06	-1.517813e-06	-9.854638e-10	-1.080410e+01	-6.561089e+01
2.640000e-06	-1.615852e-06	-1.197091e-09	-1.150196e+01	-7.914229e+01
2.650000e-06	-1.713317e-06	-1.408393e-09	-1.219574e+01	-9.282172e+01
2.660000e-06	-1.810145e-06	-1.619790e-09	-1.288497e+01	-1.065891e+02
2.670000e-06	-1.906428e-06	-1.833300e-09	-1.357034e+01	-1.203715e+02
2.680000e-06	-2.002215e-06	-2.047598e-09	-1.425217e+01	-1.340882e+02
2.690000e-06	-2.097339e-06	-2.259242e-09	-1.492928e+01	-1.476567e+02
2.700000e-06	-2.191489e-06	-2.463884e-09	-1.559946e+01	-1.610005e+02
2.710000e-06	-2.284585e-06	-2.661441e-09	-1.626214e+01	-1.740551e+02
2.720000e-06	-2.376801e-06	-2.854688e-09	-1.691855e+01	-1.867730e+02
2.730000e-06	-2.468169e-06	-3.045174e-09	-1.756892e+01	-1.991258e+02
2.740000e-06	-2.558667e-06	-3.230240e-09	-1.821311e+01	-2.111024e+02
2.750000e-06	-2.648283e-06	-3.408345e-09	-1.885101e+01	-2.227055e+02
2.760000e-06	-2.736995e-06	-3.580136e-09	-1.948248e+01	-2.339458e+02
2.770000e-06	-2.824933e-06	-3.747100e-09	-2.010845e+01	-2.448358e+02
2.780000e-06	-2.912012e-06	-3.909005e-09	-2.072829e+01	-2.553847e+02
2.790000e-06	-2.997850e-06	-4.062388e-09	-2.133930e+01	-2.655954e+02
2.800000e-06	-3.082447e-06	-4.208109e-09	-2.194148e+01	-2.754639e+02
2.810000e-06	-3.166034e-06	-4.349165e-09	-2.253647e+01	-2.849810e+02
2.820000e-06	-3.248560e-06	-4.486927e-09	-2.312390e+01	-2.941357e+02
2.830000e-06	-3.329936e-06	-4.622347e-09	-2.370316e+01	-3.029189e+02
2.840000e-06	-3.410280e-06	-4.755868e-09	-2.427506e+01	-3.113275e+02
2.850000e-06	-3.489565e-06	-4.885163e-09	-2.483943e+01	-3.193654e+02
2.860000e-06	-3.567387e-06	-5.006147e-09	-2.539338e+01	-3.270446e+02
2.870000e-06	-3.643640e-06	-5.117270e-09	-2.593616e+01	-3.343829e+02
2.880000e-06	-3.718468e-06	-5.223481e-09	-2.646880e+01	-3.414016e+02
2.890000e-06	-3.791884e-06	-5.326402e-09	-2.699139e+01	-3.481225e+02
2.900000e-06	-3.864055e-06	-5.424492e-09	-2.750512e+01	-3.545654e+02
2.910000e-06	-3.934799e-06	-5.519058e-09	-2.800869e+01	-3.607467e+02
2.920000e-06	-4.003866e-06	-5.610038e-09	-2.850032e+01	-3.666796e+02
2.930000e-06	-4.071512e-06	-5.697562e-09	-2.898184e+01	-3.723750e+02
2.940000e-06	-4.137790e-06	-5.782768e-09	-2.945362e+01	-3.778431e+02
