# Temperatura_=_74.4
# Concentracion g/m^3_=_15000.0
# C_Vs_to_Am_M_A/Vsm_=_65563218390.804596
# pendiente_HvsI_1/m_=_3716.3
# ordenada_HvsI_A/m_=_1297.0
# frecuencia_Hz_=_301585.95716069586

Tiempo_(s)	Campo_(V.s)	Magnetizacion_(V.s)	Campo_(kA/m)	Magnetizacion_(A/m)
0.000000e+00	-5.375729e-06	-7.421736e-09	-3.834026e+01	-4.846916e+02
1.000000e-08	-5.372667e-06	-7.415021e-09	-3.831842e+01	-4.844870e+02
2.000000e-08	-5.367831e-06	-7.408236e-09	-3.828393e+01	-4.842098e+02
3.000000e-08	-5.361399e-06	-7.401265e-09	-3.823806e+01	-4.838449e+02
4.000000e-08	-5.353395e-06	-7.393796e-09	-3.818097e+01	-4.833711e+02
5.000000e-08	-5.343514e-06	-7.385048e-09	-3.811049e+01	-4.827672e+02
6.000000e-08	-5.331589e-06	-7.373697e-09	-3.802545e+01	-4.820184e+02
7.000000e-08	-5.317758e-06	-7.367640e-09	-3.792680e+01	-4.811222e+02
8.000000e-08	-5.301779e-06	-7.359558e-09	-3.781284e+01	-4.800904e+02
9.000000e-08	-5.283540e-06	-7.352318e-09	-3.768276e+01	-4.789485e+02
1.000000e-07	-5.263334e-06	-7.338255e-09	-3.753864e+01	-4.777304e+02
1.100000e-07	-5.241279e-06	-7.301468e-09	-3.738135e+01	-4.764709e+02
1.200000e-07	-5.217597e-06	-7.259163e-09	-3.721244e+01	-4.751972e+02
1.300000e-07	-5.192439e-06	-7.237660e-09	-3.703301e+01	-4.739215e+02
1.400000e-07	-5.165602e-06	-7.198475e-09	-3.684161e+01	-4.726374e+02
1.500000e-07	-5.137117e-06	-7.189195e-09	-3.663846e+01	-4.713198e+02
1.600000e-07	-5.107181e-06	-7.197755e-09	-3.642495e+01	-4.699297e+02
1.700000e-07	-5.075603e-06	-7.175212e-09	-3.619972e+01	-4.684224e+02
1.800000e-07	-5.041890e-06	-7.163076e-09	-3.595928e+01	-4.667569e+02
1.900000e-07	-5.006338e-06	-7.093966e-09	-3.570572e+01	-4.649045e+02
2.000000e-07	-4.969329e-06	-7.007235e-09	-3.544177e+01	-4.628551e+02
2.100000e-07	-4.930588e-06	-6.982843e-09	-3.516547e+01	-4.606181e+02
2.200000e-07	-4.890050e-06	-6.952708e-09	-3.487634e+01	-4.582197e+02
2.300000e-07	-4.847537e-06	-6.924231e-09	-3.457314e+01	-4.556957e+02
2.400000e-07	-4.803083e-06	-6.907693e-09	-3.425609e+01	-4.530834e+02
2.500000e-07	-4.756883e-06	-6.862778e-09	-3.392658e+01	-4.504124e+02
2.600000e-07	-4.708889e-06	-6.835548e-09	-3.358428e+01	-4.476985e+02
2.700000e-07	-4.658849e-06	-6.800066e-09	-3.322740e+01	-4.449415e+02
2.800000e-07	-4.606634e-06	-6.754808e-09	-3.285499e+01	-4.421262e+02
2.900000e-07	-4.552596e-06	-6.695750e-09	-3.246959e+01	-4.392281e+02
3.000000e-07	-4.496992e-06	-6.634383e-09	-3.207301e+01	-4.362200e+02
3.100000e-07	-4.439721e-06	-6.597616e-09	-3.166455e+01	-4.330795e+02
3.200000e-07	-4.380650e-06	-6.545814e-09	-3.124325e+01	-4.297941e+02
3.300000e-07	-4.319982e-06	-6.491823e-09	-3.081056e+01	-4.263637e+02
3.400000e-07	-4.257883e-06	-6.437731e-09	-3.036766e+01	-4.227994e+02
3.500000e-07	-4.194416e-06	-6.374603e-09	-2.991501e+01	-4.191196e+02
3.600000e-07	-4.129455e-06	-6.326300e-09	-2.945170e+01	-4.153442e+02
3.700000e-07	-4.062794e-06	-6.281166e-09	-2.897627e+01	-4.114891e+02
3.800000e-07	-3.994576e-06	-6.222112e-09	-2.848973e+01	-4.075619e+02
3.900000e-07	-3.925014e-06	-6.147935e-09	-2.799361e+01	-4.035602e+02
4.000000e-07	-3.854223e-06	-6.069418e-09	-2.748872e+01	-3.994733e+02
4.100000e-07	-3.782236e-06	-6.005251e-09	-2.697530e+01	-3.952850e+02
4.200000e-07	-3.708861e-06	-5.940426e-09	-2.645198e+01	-3.909787e+02
4.300000e-07	-3.633865e-06	-5.883124e-09	-2.591710e+01	-3.865416e+02
4.400000e-07	-3.557309e-06	-5.830574e-09	-2.537110e+01	-3.819678e+02
4.500000e-07	-3.479268e-06	-5.765114e-09	-2.481450e+01	-3.772591e+02
4.600000e-07	-3.399759e-06	-5.681140e-09	-2.424743e+01	-3.724237e+02
4.700000e-07	-3.318994e-06	-5.598446e-09	-2.367141e+01	-3.674731e+02
4.800000e-07	-3.237109e-06	-5.526605e-09	-2.308740e+01	-3.624182e+02
4.900000e-07	-3.154164e-06	-5.439775e-09	-2.249582e+01	-3.572662e+02
5.000000e-07	-3.070225e-06	-5.351256e-09	-2.189717e+01	-3.520185e+02
5.100000e-07	-2.985375e-06	-5.269764e-09	-2.129201e+01	-3.466707e+02
5.200000e-07	-2.899661e-06	-5.190334e-09	-2.068069e+01	-3.412141e+02
5.300000e-07	-2.812949e-06	-5.107342e-09	-2.006225e+01	-3.356381e+02
5.400000e-07	-2.725252e-06	-5.023227e-09	-1.943678e+01	-3.299335e+02
5.500000e-07	-2.636600e-06	-4.935173e-09	-1.880451e+01	-3.240946e+02
5.600000e-07	-2.546840e-06	-4.837367e-09	-1.816433e+01	-3.181197e+02
5.700000e-07	-2.455915e-06	-4.742718e-09	-1.751584e+01	-3.120113e+02
5.800000e-07	-2.364013e-06	-4.654381e-09	-1.686038e+01	-3.057738e+02
5.900000e-07	-2.271361e-06	-4.558290e-09	-1.619958e+01	-2.994113e+02
6.000000e-07	-2.177981e-06	-4.449393e-09	-1.553358e+01	-2.929256e+02
6.100000e-07	-2.083814e-06	-4.343658e-09	-1.486198e+01	-2.863149e+02
6.200000e-07	-1.988942e-06	-4.240918e-09	-1.418534e+01	-2.795741e+02
6.300000e-07	-1.893406e-06	-4.136152e-09	-1.350396e+01	-2.726955e+02
6.400000e-07	-1.797211e-06	-4.035545e-09	-1.281790e+01	-2.656715e+02
6.500000e-07	-1.700326e-06	-3.936204e-09	-1.212690e+01	-2.584963e+02
6.600000e-07	-1.602642e-06	-3.826642e-09	-1.143021e+01	-2.511671e+02
6.700000e-07	-1.504246e-06	-3.703748e-09	-1.072844e+01	-2.436849e+02
6.800000e-07	-1.405328e-06	-3.579865e-09	-1.002295e+01	-2.360533e+02
6.900000e-07	-1.305915e-06	-3.459823e-09	-9.313924e+00	-2.282765e+02
7.000000e-07	-1.206015e-06	-3.338435e-09	-8.601421e+00	-2.203573e+02
7.100000e-07	-1.105804e-06	-3.213816e-09	-7.886709e+00	-2.122949e+02
7.200000e-07	-1.005332e-06	-3.087536e-09	-7.170130e+00	-2.040839e+02
7.300000e-07	-9.045718e-07	-2.959771e-09	-6.451500e+00	-1.957148e+02
7.400000e-07	-8.035169e-07	-2.832564e-09	-5.730766e+00	-1.871749e+02
7.500000e-07	-7.021425e-07	-2.704971e-09	-5.007754e+00	-1.784507e+02
7.600000e-07	-6.005142e-07	-2.570547e-09	-4.282929e+00	-1.695301e+02
7.700000e-07	-4.986217e-07	-2.427658e-09	-3.556222e+00	-1.604043e+02
7.800000e-07	-3.965435e-07	-2.278328e-09	-2.828190e+00	-1.510680e+02
7.900000e-07	-2.943925e-07	-2.127356e-09	-2.099638e+00	-1.415195e+02
8.000000e-07	-1.921125e-07	-1.976938e-09	-1.370166e+00	-1.317584e+02
8.100000e-07	-8.972669e-08	-1.825590e-09	-6.399401e-01	-1.217845e+02
8.200000e-07	1.271507e-08	-1.670736e-09	9.068521e-02	-1.115952e+02
8.300000e-07	1.151516e-07	-1.511001e-09	8.212735e-01	-1.011853e+02
8.400000e-07	2.175028e-07	-1.346731e-09	1.551253e+00	-9.054644e+01
8.500000e-07	3.198252e-07	-1.179897e-09	2.281026e+00	-7.966844e+01
8.600000e-07	4.220848e-07	-1.011366e-09	3.010353e+00	-6.854101e+01
8.700000e-07	5.242372e-07	-8.361849e-10	3.738914e+00	-5.715545e+01
8.800000e-07	6.262528e-07	-6.539884e-10	4.466500e+00	-4.550581e+01
8.900000e-07	7.280527e-07	-4.708433e-10	5.192547e+00	-3.358922e+01
9.000000e-07	8.295463e-07	-2.858357e-10	5.916410e+00	-2.140521e+01
9.100000e-07	9.307127e-07	-9.812563e-11	6.637940e+00	-8.954440e+00
9.200000e-07	1.031578e-06	9.047231e-11	7.357323e+00	3.762394e+00
9.300000e-07	1.132133e-06	2.835389e-10	8.074491e+00	1.674501e+01
9.400000e-07	1.232339e-06	4.838949e-10	8.789170e+00	2.999259e+01
9.500000e-07	1.332124e-06	6.890298e-10	9.500850e+00	4.350130e+01
9.600000e-07	1.431422e-06	8.941622e-10	1.020905e+01	5.726066e+01
9.700000e-07	1.530108e-06	1.102031e-09	1.091289e+01	7.124951e+01
9.800000e-07	1.628131e-06	1.316922e-09	1.161200e+01	8.543250e+01
9.900000e-07	1.725402e-06	1.537816e-09	1.230574e+01	9.975837e+01
1.000000e-06	1.821889e-06	1.759694e-09	1.299390e+01	1.141607e+02
1.010000e-06	1.917642e-06	1.977584e-09	1.367682e+01	1.285611e+02
1.020000e-06	2.012712e-06	2.190428e-09	1.435487e+01	1.428754e+02
1.030000e-06	2.107135e-06	2.399474e-09	1.502830e+01	1.570201e+02
1.040000e-06	2.200788e-06	2.607550e-09	1.569624e+01	1.709199e+02
1.050000e-06	2.293652e-06	2.813001e-09	1.635857e+01	1.845133e+02
1.060000e-06	2.385888e-06	3.013944e-09	1.701640e+01	1.977558e+02
1.070000e-06	2.477425e-06	3.208209e-09	1.766925e+01	2.106207e+02
1.080000e-06	2.568024e-06	3.396178e-09	1.831541e+01	2.230966e+02
1.090000e-06	2.657532e-06	3.579628e-09	1.895380e+01	2.351829e+02
1.100000e-06	2.745903e-06	3.760019e-09	1.958406e+01	2.468851e+02
1.110000e-06	2.833301e-06	3.934611e-09	2.020739e+01	2.582099e+02
1.120000e-06	2.919796e-06	4.100915e-09	2.082429e+01	2.691619e+02
1.130000e-06	3.005358e-06	4.260613e-09	2.143452e+01	2.797423e+02
1.140000e-06	3.090008e-06	4.415351e-09	2.203826e+01	2.899498e+02
1.150000e-06	3.173696e-06	4.565678e-09	2.263513e+01	2.997818e+02
1.160000e-06	3.256311e-06	4.710400e-09	2.322435e+01	3.092373e+02
1.170000e-06	3.337705e-06	4.848140e-09	2.380486e+01	3.183187e+02
1.180000e-06	3.417854e-06	4.980003e-09	2.437649e+01	3.270323e+02
1.190000e-06	3.496823e-06	5.107116e-09	2.493971e+01	3.353886e+02
1.200000e-06	3.574598e-06	5.229289e-09	2.549441e+01	3.434000e+02
1.210000e-06	3.651127e-06	5.347747e-09	2.604022e+01	3.510796e+02
1.220000e-06	3.726184e-06	5.458830e-09	2.657553e+01	3.584390e+02
1.230000e-06	3.799621e-06	5.561449e-09	2.709929e+01	3.654879e+02
1.240000e-06	3.871549e-06	5.659318e-09	2.761229e+01	3.722346e+02
1.250000e-06	3.942086e-06	5.756384e-09	2.811537e+01	3.786870e+02
1.260000e-06	4.011279e-06	5.851573e-09	2.860885e+01	3.848552e+02
1.270000e-06	4.079100e-06	5.942733e-09	2.909257e+01	3.907528e+02
1.280000e-06	4.145429e-06	6.029488e-09	2.956563e+01	3.963979e+02
1.290000e-06	4.210105e-06	6.112256e-09	3.002691e+01	4.018122e+02
1.300000e-06	4.273237e-06	6.191643e-09	3.047717e+01	4.070193e+02
1.310000e-06	4.334949e-06	6.267956e-09	3.091731e+01	4.120412e+02
1.320000e-06	4.395284e-06	6.342432e-09	3.134762e+01	4.168955e+02
1.330000e-06	4.454119e-06	6.414088e-09	3.176724e+01	4.215922e+02
1.340000e-06	4.511189e-06	6.481844e-09	3.217427e+01	4.261332e+02
1.350000e-06	4.566544e-06	6.547008e-09	3.256906e+01	4.305127e+02
1.360000e-06	4.620332e-06	6.609232e-09	3.295269e+01	4.347198e+02
1.370000e-06	4.672398e-06	6.667490e-09	3.332403e+01	4.387422e+02
1.380000e-06	4.722352e-06	6.723237e-09	3.368030e+01	4.425699e+02
1.390000e-06	4.770294e-06	6.778265e-09	3.402223e+01	4.461981e+02
1.400000e-06	4.816619e-06	6.831390e-09	3.435263e+01	4.496288e+02
1.410000e-06	4.861449e-06	6.880666e-09	3.467236e+01	4.528698e+02
1.420000e-06	4.904692e-06	6.926392e-09	3.498077e+01	4.559327e+02
1.430000e-06	4.946037e-06	6.968995e-09	3.527565e+01	4.588298e+02
1.440000e-06	4.985543e-06	7.009052e-09	3.555741e+01	4.615707e+02
1.450000e-06	5.023405e-06	7.045621e-09	3.582744e+01	4.641604e+02
1.460000e-06	5.059674e-06	7.080500e-09	3.608612e+01	4.665986e+02
1.470000e-06	5.094211e-06	7.114952e-09	3.633244e+01	4.688813e+02
1.480000e-06	5.126760e-06	7.146013e-09	3.656458e+01	4.710032e+02
1.490000e-06	5.157504e-06	7.174796e-09	3.678385e+01	4.729607e+02
1.500000e-06	5.186619e-06	7.201903e-09	3.699151e+01	4.747546e+02
1.510000e-06	5.213962e-06	7.225895e-09	3.718652e+01	4.763912e+02
1.520000e-06	5.239235e-06	7.247429e-09	3.736677e+01	4.778817e+02
1.530000e-06	5.262525e-06	7.268387e-09	3.753287e+01	4.792397e+02
1.540000e-06	5.284059e-06	7.288539e-09	3.768646e+01	4.804780e+02
1.550000e-06	5.303831e-06	7.305520e-09	3.782748e+01	4.816052e+02
1.560000e-06	5.321672e-06	7.318794e-09	3.795472e+01	4.826234e+02
1.570000e-06	5.337499e-06	7.330658e-09	3.806760e+01	4.835282e+02
1.580000e-06	5.351412e-06	7.342220e-09	3.816683e+01	4.843103e+02
1.590000e-06	5.363310e-06	7.353567e-09	3.825169e+01	4.849591e+02
1.600000e-06	5.373007e-06	7.363326e-09	3.832084e+01	4.854666e+02
1.610000e-06	5.380622e-06	7.370523e-09	3.837516e+01	4.858315e+02
1.620000e-06	5.386408e-06	7.375616e-09	3.841642e+01	4.860603e+02
1.630000e-06	5.390412e-06	7.379276e-09	3.844498e+01	4.861674e+02
1.640000e-06	5.392451e-06	7.381203e-09	3.845952e+01	4.861714e+02
1.650000e-06	5.392518e-06	7.382720e-09	3.846000e+01	4.860910e+02
1.660000e-06	5.390866e-06	7.384307e-09	3.844821e+01	4.859391e+02
1.670000e-06	5.387549e-06	7.381030e-09	3.842456e+01	4.857193e+02
1.680000e-06	5.382475e-06	7.375772e-09	3.838837e+01	4.854245e+02
1.690000e-06	5.375461e-06	7.369828e-09	3.833835e+01	4.850377e+02
1.700000e-06	5.366695e-06	7.363032e-09	3.827583e+01	4.845373e+02
1.710000e-06	5.356424e-06	7.355313e-09	3.820257e+01	4.839029e+02
1.720000e-06	5.344390e-06	7.342733e-09	3.811674e+01	4.831218e+02
1.730000e-06	5.330322e-06	7.323951e-09	3.801641e+01	4.821946e+02
1.740000e-06	5.314235e-06	7.296788e-09	3.790168e+01	4.811364e+02
1.750000e-06	5.295789e-06	7.269899e-09	3.777011e+01	4.799747e+02
1.760000e-06	5.274579e-06	7.268512e-09	3.761884e+01	4.787446e+02
1.770000e-06	5.251202e-06	7.262924e-09	3.745211e+01	4.774797e+02
1.780000e-06	5.226701e-06	7.253035e-09	3.727737e+01	4.762047e+02
1.790000e-06	5.201469e-06	7.251561e-09	3.709742e+01	4.749281e+02
1.800000e-06	5.174672e-06	7.177913e-09	3.690630e+01	4.736391e+02
1.810000e-06	5.145590e-06	7.165486e-09	3.669888e+01	4.723092e+02
1.820000e-06	5.114731e-06	7.175876e-09	3.647879e+01	4.708974e+02
1.830000e-06	5.082206e-06	7.104913e-09	3.624682e+01	4.693589e+02
1.840000e-06	5.047774e-06	7.147048e-09	3.600125e+01	4.676548e+02
1.850000e-06	5.011774e-06	7.183774e-09	3.574449e+01	4.657601e+02
1.860000e-06	4.973937e-06	7.115641e-09	3.547463e+01	4.636686e+02
1.870000e-06	4.934218e-06	7.086850e-09	3.519135e+01	4.613940e+02
1.880000e-06	4.892926e-06	7.002453e-09	3.489686e+01	4.589650e+02
1.890000e-06	4.849786e-06	6.949321e-09	3.458917e+01	4.564187e+02
1.900000e-06	4.804992e-06	6.949989e-09	3.426970e+01	4.537913e+02
1.910000e-06	4.758419e-06	6.877415e-09	3.393754e+01	4.511099e+02
1.920000e-06	4.709818e-06	6.866305e-09	3.359091e+01	4.483870e+02
1.930000e-06	4.659538e-06	6.817499e-09	3.323231e+01	4.456188e+02
1.940000e-06	4.607443e-06	6.751971e-09	3.286076e+01	4.427877e+02
1.950000e-06	4.553310e-06	6.742695e-09	3.247468e+01	4.398678e+02
1.960000e-06	4.497328e-06	6.676459e-09	3.207541e+01	4.368326e+02
1.970000e-06	4.439662e-06	6.621906e-09	3.166413e+01	4.336613e+02
1.980000e-06	4.380532e-06	6.552379e-09	3.124241e+01	4.303440e+02
1.990000e-06	4.319925e-06	6.513599e-09	3.081015e+01	4.268832e+02
2.000000e-06	4.257628e-06	6.502800e-09	3.036585e+01	4.232921e+02
2.010000e-06	4.193707e-06	6.413661e-09	2.990996e+01	4.195898e+02
2.020000e-06	4.128305e-06	6.361285e-09	2.944350e+01	4.157959e+02
2.030000e-06	4.061495e-06	6.297740e-09	2.896700e+01	4.119246e+02
2.040000e-06	3.993264e-06	6.232698e-09	2.848037e+01	4.079815e+02
2.050000e-06	3.923480e-06	6.186306e-09	2.798267e+01	4.039624e+02
2.060000e-06	3.852166e-06	6.123879e-09	2.747405e+01	3.998548e+02
2.070000e-06	3.779565e-06	6.081674e-09	2.695625e+01	3.956421e+02
2.080000e-06	3.705745e-06	5.979407e-09	2.642976e+01	3.913083e+02
2.090000e-06	3.630548e-06	5.885260e-09	2.589344e+01	3.868417e+02
2.100000e-06	3.553837e-06	5.826577e-09	2.534633e+01	3.822382e+02
2.110000e-06	3.475478e-06	5.770758e-09	2.478747e+01	3.775012e+02
2.120000e-06	3.395838e-06	5.707778e-09	2.421947e+01	3.726397e+02
2.130000e-06	3.315178e-06	5.622708e-09	2.364420e+01	3.676655e+02
2.140000e-06	3.233319e-06	5.558553e-09	2.306037e+01	3.625889e+02
2.150000e-06	3.150389e-06	5.471600e-09	2.246890e+01	3.574161e+02
2.160000e-06	3.066460e-06	5.388516e-09	2.187031e+01	3.521471e+02
2.170000e-06	2.981391e-06	5.313912e-09	2.126359e+01	3.467765e+02
2.180000e-06	2.894986e-06	5.225202e-09	2.064734e+01	3.412948e+02
2.190000e-06	2.807377e-06	5.132291e-09	2.002250e+01	3.356915e+02
2.200000e-06	2.718849e-06	5.042334e-09	1.939111e+01	3.299581e+02
2.210000e-06	2.629399e-06	4.971148e-09	1.875315e+01	3.240896e+02
2.220000e-06	2.539016e-06	4.882439e-09	1.810852e+01	3.180855e+02
2.230000e-06	2.447825e-06	4.780490e-09	1.745814e+01	3.119486e+02
2.240000e-06	2.355913e-06	4.683598e-09	1.680261e+01	3.056836e+02
2.250000e-06	2.263188e-06	4.590092e-09	1.614129e+01	2.992943e+02
2.260000e-06	2.169567e-06	4.490483e-09	1.547358e+01	2.927817e+02
2.270000e-06	2.074981e-06	4.393283e-09	1.479898e+01	2.861432e+02
2.280000e-06	1.979441e-06	4.295784e-09	1.411758e+01	2.793731e+02
2.290000e-06	1.883206e-06	4.180262e-09	1.343122e+01	2.724636e+02
2.300000e-06	1.786442e-06	4.058661e-09	1.274109e+01	2.654073e+02
2.310000e-06	1.689209e-06	3.946710e-09	1.204762e+01	2.581987e+02
2.320000e-06	1.591458e-06	3.848623e-09	1.135044e+01	2.508362e+02
2.330000e-06	1.493107e-06	3.744611e-09	1.064899e+01	2.433212e+02
2.340000e-06	1.394237e-06	3.629765e-09	9.943843e+00	2.356578e+02
2.350000e-06	1.294931e-06	3.509358e-09	9.235583e+00	2.278499e+02
2.360000e-06	1.195358e-06	3.383616e-09	8.525415e+00	2.198998e+02
2.370000e-06	1.095572e-06	3.257723e-09	7.813735e+00	2.118058e+02
2.380000e-06	9.954358e-07	3.134832e-09	7.099552e+00	2.035615e+02
2.390000e-06	8.948607e-07	3.009054e-09	6.382240e+00	1.951566e+02
2.400000e-06	7.938745e-07	2.874314e-09	5.661995e+00	1.865779e+02
2.410000e-06	6.925918e-07	2.737361e-09	4.939637e+00	1.778121e+02
2.420000e-06	5.910462e-07	2.603050e-09	4.215403e+00	1.688478e+02
2.430000e-06	4.892149e-07	2.471079e-09	3.489131e+00	1.596768e+02
2.440000e-06	3.871921e-07	2.333241e-09	2.761494e+00	1.502947e+02
2.450000e-06	2.850447e-07	2.185837e-09	2.032968e+00	1.407002e+02
2.460000e-06	1.827029e-07	2.032846e-09	1.303056e+00	1.308932e+02
2.470000e-06	8.019253e-08	1.878472e-09	5.719415e-01	1.208730e+02
2.480000e-06	-2.234580e-08	1.726067e-09	-1.593726e-01	1.106367e+02
2.490000e-06	-1.248203e-07	1.570941e-09	-8.902314e-01	1.001781e+02
2.500000e-06	-2.272241e-07	1.408089e-09	-1.620586e+00	8.948848e+01
2.510000e-06	-3.295367e-07	1.239873e-09	-2.350290e+00	7.855747e+01
2.520000e-06	-4.317810e-07	1.070914e-09	-3.079507e+00	6.737499e+01
2.530000e-06	-5.339304e-07	9.005575e-10	-3.808047e+00	5.593284e+01
2.540000e-06	-6.358317e-07	7.261134e-10	-4.534818e+00	4.422575e+01
2.550000e-06	-7.374037e-07	5.435727e-10	-5.259239e+00	3.225144e+01
2.560000e-06	-8.386308e-07	3.503161e-10	-5.981202e+00	2.000980e+01
2.570000e-06	-9.394428e-07	1.520648e-10	-6.700204e+00	7.501585e+00
2.580000e-06	-1.039814e-06	-4.526569e-11	-7.416061e+00	-5.272614e+00
2.590000e-06	-1.139856e-06	-2.425083e-10	-8.129568e+00	-1.831253e+01
2.600000e-06	-1.239515e-06	-4.459803e-10	-8.840352e+00	-3.161694e+01
2.610000e-06	-1.338716e-06	-6.583919e-10	-9.547862e+00	-4.518094e+01
2.620000e-06	-1.437479e-06	-8.738884e-10	-1.025225e+01	-5.899210e+01
2.630000e-06	-1.535723e-06	-1.089575e-09	-1.095294e+01	-7.302644e+01
2.640000e-06	-1.633407e-06	-1.304808e-09	-1.164963e+01	-8.724530e+01
2.650000e-06	-1.730508e-06	-1.522739e-09	-1.234216e+01	-1.015940e+02
2.660000e-06	-1.827051e-06	-1.746092e-09	-1.303072e+01	-1.160032e+02
2.670000e-06	-1.923102e-06	-1.972502e-09	-1.371576e+01	-1.303928e+02
2.680000e-06	-2.018598e-06	-2.197546e-09	-1.439685e+01	-1.446780e+02
2.690000e-06	-2.113294e-06	-2.415356e-09	-1.507223e+01	-1.587765e+02
2.700000e-06	-2.207020e-06	-2.626739e-09	-1.574070e+01	-1.726157e+02
2.710000e-06	-2.299793e-06	-2.834109e-09	-1.640236e+01	-1.861374e+02
2.720000e-06	-2.391704e-06	-3.037814e-09	-1.705788e+01	-1.993011e+02
2.730000e-06	-2.482764e-06	-3.235606e-09	-1.770733e+01	-2.120835e+02
2.740000e-06	-2.572911e-06	-3.424737e-09	-1.835027e+01	-2.244761e+02
2.750000e-06	-2.662167e-06	-3.606826e-09	-1.898685e+01	-2.364799e+02
2.760000e-06	-2.750570e-06	-3.785038e-09	-1.961735e+01	-2.481011e+02
2.770000e-06	-2.838165e-06	-3.960793e-09	-2.024209e+01	-2.593461e+02
2.780000e-06	-2.924813e-06	-4.131742e-09	-2.086007e+01	-2.702189e+02
2.790000e-06	-3.010265e-06	-4.291741e-09	-2.146952e+01	-2.807200e+02
2.800000e-06	-3.094521e-06	-4.440781e-09	-2.207045e+01	-2.908476e+02
2.810000e-06	-3.177696e-06	-4.584828e-09	-2.266365e+01	-3.005993e+02
2.820000e-06	-3.259825e-06	-4.727215e-09	-2.324941e+01	-3.099747e+02
2.830000e-06	-3.340915e-06	-4.866694e-09	-2.382775e+01	-3.189770e+02
2.840000e-06	-3.420985e-06	-5.000483e-09	-2.439882e+01	-3.276135e+02
2.850000e-06	-3.499828e-06	-5.128422e-09	-2.496114e+01	-3.358951e+02
2.860000e-06	-3.577147e-06	-5.251586e-09	-2.551259e+01	-3.438348e+02
2.870000e-06	-3.652915e-06	-5.370701e-09	-2.605297e+01	-3.514452e+02
2.880000e-06	-3.727265e-06	-5.486093e-09	-2.658324e+01	-3.587377e+02
2.890000e-06	-3.800302e-06	-5.595423e-09	-2.710415e+01	-3.657216e+02
2.900000e-06	-3.872067e-06	-5.696927e-09	-2.761598e+01	-3.724049e+02
2.910000e-06	-3.942395e-06	-5.792106e-09	-2.811757e+01	-3.787959e+02
2.920000e-06	-4.011124e-06	-5.884452e-09	-2.860775e+01	-3.849052e+02
2.930000e-06	-4.078400e-06	-5.973787e-09	-2.908757e+01	-3.907474e+02
2.940000e-06	-4.144259e-06	-6.058757e-09	-2.955729e+01	-3.963415e+02
