# Temperatura_=_77.74
# Concentracion g/m^3_=_15000.0
# C_Vs_to_Am_M_A/Vsm_=_65563218390.804596
# pendiente_HvsI_1/m_=_3716.3
# ordenada_HvsI_A/m_=_1297.0
# frecuencia_Hz_=_301588.16755086614

Tiempo_(s)	Campo_(V.s)	Magnetizacion_(V.s)	Campo_(kA/m)	Magnetizacion_(A/m)
0.000000e+00	-5.365317e-06	-7.606885e-09	-3.834171e+01	-4.966247e+02
1.000000e-08	-5.362629e-06	-7.602934e-09	-3.832249e+01	-4.964519e+02
2.000000e-08	-5.358091e-06	-7.598332e-09	-3.829006e+01	-4.962063e+02
3.000000e-08	-5.351931e-06	-7.591681e-09	-3.824604e+01	-4.958754e+02
4.000000e-08	-5.344234e-06	-7.583557e-09	-3.819104e+01	-4.954391e+02
5.000000e-08	-5.334658e-06	-7.574305e-09	-3.812261e+01	-4.948744e+02
6.000000e-08	-5.322997e-06	-7.563930e-09	-3.803928e+01	-4.941621e+02
7.000000e-08	-5.309474e-06	-7.557677e-09	-3.794264e+01	-4.932931e+02
8.000000e-08	-5.293894e-06	-7.538673e-09	-3.783130e+01	-4.922728e+02
9.000000e-08	-5.276007e-06	-7.526789e-09	-3.770348e+01	-4.911218e+02
1.000000e-07	-5.256068e-06	-7.528436e-09	-3.756099e+01	-4.898731e+02
1.100000e-07	-5.234308e-06	-7.493508e-09	-3.740549e+01	-4.885661e+02
1.200000e-07	-5.210908e-06	-7.455410e-09	-3.723826e+01	-4.872379e+02
1.300000e-07	-5.185972e-06	-7.449928e-09	-3.706006e+01	-4.859148e+02
1.400000e-07	-5.159355e-06	-7.376179e-09	-3.686986e+01	-4.846059e+02
1.500000e-07	-5.131098e-06	-7.377272e-09	-3.666792e+01	-4.832999e+02
1.600000e-07	-5.101399e-06	-7.410794e-09	-3.645569e+01	-4.819663e+02
1.700000e-07	-5.070149e-06	-7.337079e-09	-3.623237e+01	-4.805612e+02
1.800000e-07	-5.036863e-06	-7.343964e-09	-3.599451e+01	-4.790356e+02
1.900000e-07	-5.001676e-06	-7.292380e-09	-3.574305e+01	-4.773450e+02
2.000000e-07	-4.965014e-06	-7.175296e-09	-3.548105e+01	-4.754580e+02
2.100000e-07	-4.926654e-06	-7.190601e-09	-3.520693e+01	-4.733613e+02
2.200000e-07	-4.886482e-06	-7.179840e-09	-3.491985e+01	-4.710610e+02
2.300000e-07	-4.844386e-06	-7.138399e-09	-3.461902e+01	-4.685800e+02
2.400000e-07	-4.800372e-06	-7.109155e-09	-3.430449e+01	-4.659512e+02
2.500000e-07	-4.754587e-06	-7.031276e-09	-3.397729e+01	-4.632096e+02
2.600000e-07	-4.706908e-06	-7.016461e-09	-3.363657e+01	-4.603841e+02
2.700000e-07	-4.657145e-06	-6.983506e-09	-3.328095e+01	-4.574924e+02
2.800000e-07	-4.605289e-06	-6.933198e-09	-3.291038e+01	-4.545380e+02
2.900000e-07	-4.551606e-06	-6.887461e-09	-3.252675e+01	-4.515113e+02
3.000000e-07	-4.496330e-06	-6.806390e-09	-3.213174e+01	-4.483939e+02
3.100000e-07	-4.439410e-06	-6.765035e-09	-3.172498e+01	-4.451641e+02
3.200000e-07	-4.380665e-06	-6.733748e-09	-3.130517e+01	-4.418035e+02
3.300000e-07	-4.320278e-06	-6.688128e-09	-3.087364e+01	-4.383009e+02
3.400000e-07	-4.258493e-06	-6.622620e-09	-3.043210e+01	-4.346548e+02
3.500000e-07	-4.195356e-06	-6.541788e-09	-2.998091e+01	-4.308730e+02
3.600000e-07	-4.130761e-06	-6.492805e-09	-2.951930e+01	-4.269697e+02
3.700000e-07	-4.064470e-06	-6.447851e-09	-2.904557e+01	-4.229609e+02
3.800000e-07	-3.996597e-06	-6.391690e-09	-2.856054e+01	-4.188604e+02
3.900000e-07	-3.927394e-06	-6.317577e-09	-2.806600e+01	-4.146764e+02
4.000000e-07	-3.856928e-06	-6.229117e-09	-2.756243e+01	-4.104097e+02
4.100000e-07	-3.785280e-06	-6.163551e-09	-2.705042e+01	-4.060543e+02
4.200000e-07	-3.712285e-06	-6.097279e-09	-2.652878e+01	-4.015999e+02
4.300000e-07	-3.637692e-06	-6.047356e-09	-2.599573e+01	-3.970341e+02
4.400000e-07	-3.561531e-06	-5.990714e-09	-2.545146e+01	-3.923464e+02
4.500000e-07	-3.483897e-06	-5.908792e-09	-2.489667e+01	-3.875298e+02
4.600000e-07	-3.404880e-06	-5.815265e-09	-2.433200e+01	-3.825824e+02
4.700000e-07	-3.324595e-06	-5.732233e-09	-2.375827e+01	-3.775063e+02
4.800000e-07	-3.243076e-06	-5.672310e-09	-2.317571e+01	-3.723066e+02
4.900000e-07	-3.160376e-06	-5.591617e-09	-2.258473e+01	-3.669894e+02
5.000000e-07	-3.076703e-06	-5.497070e-09	-2.198678e+01	-3.615597e+02
5.100000e-07	-2.992147e-06	-5.403531e-09	-2.138253e+01	-3.560203e+02
5.200000e-07	-2.906617e-06	-5.318293e-09	-2.077131e+01	-3.503717e+02
5.300000e-07	-2.820133e-06	-5.236601e-09	-2.015327e+01	-3.446120e+02
5.400000e-07	-2.732700e-06	-5.152645e-09	-1.952846e+01	-3.387384e+02
5.500000e-07	-2.644364e-06	-5.059945e-09	-1.889719e+01	-3.327474e+02
5.600000e-07	-2.554978e-06	-4.955754e-09	-1.825842e+01	-3.266361e+02
5.700000e-07	-2.464320e-06	-4.856220e-09	-1.761056e+01	-3.204020e+02
5.800000e-07	-2.372680e-06	-4.767911e-09	-1.695568e+01	-3.140426e+02
5.900000e-07	-2.280353e-06	-4.676918e-09	-1.629589e+01	-3.075548e+02
6.000000e-07	-2.187251e-06	-4.568666e-09	-1.563057e+01	-3.009347e+02
6.100000e-07	-2.093339e-06	-4.456461e-09	-1.495945e+01	-2.941773e+02
6.200000e-07	-1.998711e-06	-4.349390e-09	-1.428322e+01	-2.872774e+02
6.300000e-07	-1.903446e-06	-4.245671e-09	-1.360244e+01	-2.802299e+02
6.400000e-07	-1.807561e-06	-4.143052e-09	-1.291722e+01	-2.730314e+02
6.500000e-07	-1.711009e-06	-4.038012e-09	-1.222724e+01	-2.656811e+02
6.600000e-07	-1.613714e-06	-3.921909e-09	-1.153194e+01	-2.581806e+02
6.700000e-07	-1.515691e-06	-3.794287e-09	-1.083145e+01	-2.505337e+02
6.800000e-07	-1.417014e-06	-3.669835e-09	-1.012628e+01	-2.427444e+02
6.900000e-07	-1.317784e-06	-3.552233e-09	-9.417169e+00	-2.348157e+02
7.000000e-07	-1.218132e-06	-3.434303e-09	-8.705030e+00	-2.267472e+02
7.100000e-07	-1.118132e-06	-3.308926e-09	-7.990410e+00	-2.185338e+02
7.200000e-07	-1.017899e-06	-3.179527e-09	-7.274127e+00	-2.101660e+02
7.300000e-07	-9.174450e-07	-3.048338e-09	-6.556258e+00	-2.016303e+02
7.400000e-07	-8.166678e-07	-2.917214e-09	-5.836083e+00	-1.929114e+02
7.500000e-07	-7.155634e-07	-2.784999e-09	-5.113570e+00	-1.839946e+02
7.600000e-07	-6.141760e-07	-2.645612e-09	-4.389033e+00	-1.748683e+02
7.700000e-07	-5.125561e-07	-2.497619e-09	-3.662836e+00	-1.655254e+02
7.800000e-07	-4.107589e-07	-2.344722e-09	-2.935371e+00	-1.559636e+02
7.900000e-07	-3.088133e-07	-2.193577e-09	-2.206846e+00	-1.461848e+02
8.000000e-07	-2.067574e-07	-2.042598e-09	-1.477533e+00	-1.361926e+02
8.100000e-07	-1.046533e-07	-1.888117e-09	-7.478747e-01	-1.259900e+02
8.200000e-07	-2.487789e-09	-1.728333e-09	-1.777827e-02	-1.155769e+02
8.300000e-07	9.975463e-08	-1.564490e-09	7.128680e-01	-1.049491e+02
8.400000e-07	2.019770e-07	-1.395424e-09	1.443371e+00	-9.409753e+01
8.500000e-07	3.041326e-07	-1.226296e-09	2.173396e+00	-8.300973e+01
8.600000e-07	4.061853e-07	-1.058260e-09	2.902687e+00	-7.167173e+01
8.700000e-07	5.081383e-07	-8.831341e-10	3.631265e+00	-6.007049e+01
8.800000e-07	6.099605e-07	-6.981954e-10	4.358909e+00	-4.819582e+01
8.900000e-07	7.115501e-07	-5.093219e-10	5.084890e+00	-3.604155e+01
9.000000e-07	8.128741e-07	-3.213820e-10	5.808973e+00	-2.360555e+01
9.100000e-07	9.138733e-07	-1.319473e-10	6.530735e+00	-1.088875e+01
9.200000e-07	1.014544e-06	6.144193e-11	7.250146e+00	2.106141e+00
9.300000e-07	1.114902e-06	2.604588e-10	7.967325e+00	1.537565e+01
9.400000e-07	1.214959e-06	4.648498e-10	8.682361e+00	2.891561e+01
9.500000e-07	1.314704e-06	6.733976e-10	9.395156e+00	4.271973e+01
9.600000e-07	1.413976e-06	8.833397e-10	1.010458e+01	5.677694e+01
9.700000e-07	1.512646e-06	1.097152e-09	1.080970e+01	7.106771e+01
9.800000e-07	1.610613e-06	1.318020e-09	1.150978e+01	8.556056e+01
9.900000e-07	1.707752e-06	1.544456e-09	1.220396e+01	1.002095e+02
1.000000e-06	1.804127e-06	1.769807e-09	1.289268e+01	1.149534e+02
1.010000e-06	1.899815e-06	1.991077e-09	1.357649e+01	1.297182e+02
1.020000e-06	1.994790e-06	2.211003e-09	1.425520e+01	1.444207e+02
1.030000e-06	2.089112e-06	2.429420e-09	1.492924e+01	1.589756e+02
1.040000e-06	2.182744e-06	2.646954e-09	1.559836e+01	1.733018e+02
1.050000e-06	2.275602e-06	2.859197e-09	1.626194e+01	1.873293e+02
1.060000e-06	2.367805e-06	3.063281e-09	1.692084e+01	2.010038e+02
1.070000e-06	2.459371e-06	3.259565e-09	1.757519e+01	2.142888e+02
1.080000e-06	2.550003e-06	3.451209e-09	1.822287e+01	2.271652e+02
1.090000e-06	2.639462e-06	3.641014e-09	1.886216e+01	2.396282e+02
1.100000e-06	2.727800e-06	3.828365e-09	1.949344e+01	2.516827e+02
1.110000e-06	2.815163e-06	4.008089e-09	2.011776e+01	2.633385e+02
1.120000e-06	2.901628e-06	4.178666e-09	2.073566e+01	2.746055e+02
1.130000e-06	2.987160e-06	4.343276e-09	2.134689e+01	2.854913e+02
1.140000e-06	3.071756e-06	4.503213e-09	2.195143e+01	2.959998e+02
1.150000e-06	3.155451e-06	4.658213e-09	2.254953e+01	3.061319e+02
1.160000e-06	3.238064e-06	4.807572e-09	2.313990e+01	3.158871e+02
1.170000e-06	3.319422e-06	4.949623e-09	2.372130e+01	3.252656e+02
1.180000e-06	3.399541e-06	5.084577e-09	2.429385e+01	3.342697e+02
1.190000e-06	3.478495e-06	5.215043e-09	2.485807e+01	3.429046e+02
1.200000e-06	3.556239e-06	5.341893e-09	2.541364e+01	3.511785e+02
1.210000e-06	3.632761e-06	5.465347e-09	2.596049e+01	3.591015e+02
1.220000e-06	3.707950e-06	5.580864e-09	2.649780e+01	3.666847e+02
1.230000e-06	3.781519e-06	5.686580e-09	2.702354e+01	3.739394e+02
1.240000e-06	3.853481e-06	5.786388e-09	2.753780e+01	3.808766e+02
1.250000e-06	3.924071e-06	5.885804e-09	2.804225e+01	3.875083e+02
1.260000e-06	3.993345e-06	5.984886e-09	2.853730e+01	3.938477e+02
1.270000e-06	4.061268e-06	6.078344e-09	2.902269e+01	3.999108e+02
1.280000e-06	4.127719e-06	6.165393e-09	2.949757e+01	4.057167e+02
1.290000e-06	4.192461e-06	6.250573e-09	2.996023e+01	4.112867e+02
1.300000e-06	4.255637e-06	6.332963e-09	3.041170e+01	4.166435e+02
1.310000e-06	4.317422e-06	6.411571e-09	3.085322e+01	4.218080e+02
1.320000e-06	4.377833e-06	6.486779e-09	3.128493e+01	4.267969e+02
1.330000e-06	4.436820e-06	6.559667e-09	3.170646e+01	4.316207e+02
1.340000e-06	4.494079e-06	6.630031e-09	3.211565e+01	4.362818e+02
1.350000e-06	4.549572e-06	6.697115e-09	3.251222e+01	4.407758e+02
1.360000e-06	4.603465e-06	6.762968e-09	3.289735e+01	4.450928e+02
1.370000e-06	4.655602e-06	6.826269e-09	3.326993e+01	4.492208e+02
1.380000e-06	4.705742e-06	6.885566e-09	3.362824e+01	4.531492e+02
1.390000e-06	4.753933e-06	6.940787e-09	3.397263e+01	4.568715e+02
1.400000e-06	4.800406e-06	6.993511e-09	3.430473e+01	4.603876e+02
1.410000e-06	4.845360e-06	7.043058e-09	3.462598e+01	4.637038e+02
1.420000e-06	4.888757e-06	7.089613e-09	3.493610e+01	4.668306e+02
1.430000e-06	4.930275e-06	7.132744e-09	3.523280e+01	4.697811e+02
1.440000e-06	4.969954e-06	7.171516e-09	3.551636e+01	4.725669e+02
1.450000e-06	5.008041e-06	7.208447e-09	3.578854e+01	4.751963e+02
1.460000e-06	5.044513e-06	7.244492e-09	3.604917e+01	4.776730e+02
1.470000e-06	5.079228e-06	7.280286e-09	3.629725e+01	4.799962e+02
1.480000e-06	5.112015e-06	7.312814e-09	3.653155e+01	4.821627e+02
1.490000e-06	5.142933e-06	7.339856e-09	3.675250e+01	4.841692e+02
1.500000e-06	5.172180e-06	7.364939e-09	3.696151e+01	4.860153e+02
1.510000e-06	5.199759e-06	7.389669e-09	3.715860e+01	4.877047e+02
1.520000e-06	5.225348e-06	7.413111e-09	3.734146e+01	4.892458e+02
1.530000e-06	5.248870e-06	7.434836e-09	3.750955e+01	4.906499e+02
1.540000e-06	5.270581e-06	7.454133e-09	3.766470e+01	4.919288e+02
1.550000e-06	5.290587e-06	7.471603e-09	3.780767e+01	4.930920e+02
1.560000e-06	5.308717e-06	7.487833e-09	3.793723e+01	4.941440e+02
1.570000e-06	5.324814e-06	7.502084e-09	3.805226e+01	4.950832e+02
1.580000e-06	5.338951e-06	7.513578e-09	3.815329e+01	4.959035e+02
1.590000e-06	5.351091e-06	7.523711e-09	3.824004e+01	4.965959e+02
1.600000e-06	5.361066e-06	7.533025e-09	3.831133e+01	4.971527e+02
1.610000e-06	5.368940e-06	7.541332e-09	3.836760e+01	4.975705e+02
1.620000e-06	5.374943e-06	7.548910e-09	3.841050e+01	4.978530e+02
1.630000e-06	5.379188e-06	7.554726e-09	3.844083e+01	4.980112e+02
1.640000e-06	5.381550e-06	7.556928e-09	3.845771e+01	4.980612e+02
1.650000e-06	5.381871e-06	7.557542e-09	3.846000e+01	4.980203e+02
1.660000e-06	5.380369e-06	7.558675e-09	3.844927e+01	4.979027e+02
1.670000e-06	5.377254e-06	7.554635e-09	3.842701e+01	4.977146e+02
1.680000e-06	5.372430e-06	7.550277e-09	3.839254e+01	4.974518e+02
1.690000e-06	5.365678e-06	7.546036e-09	3.834429e+01	4.970999e+02
1.700000e-06	5.357121e-06	7.540364e-09	3.828313e+01	4.966376e+02
1.710000e-06	5.347010e-06	7.532370e-09	3.821088e+01	4.960423e+02
1.720000e-06	5.335225e-06	7.517584e-09	3.812666e+01	4.952965e+02
1.730000e-06	5.321563e-06	7.505264e-09	3.802903e+01	4.943938e+02
1.740000e-06	5.305825e-06	7.490228e-09	3.791656e+01	4.933430e+02
1.750000e-06	5.287678e-06	7.448878e-09	3.778688e+01	4.921676e+02
1.760000e-06	5.266834e-06	7.446946e-09	3.763793e+01	4.909027e+02
1.770000e-06	5.243716e-06	7.438335e-09	3.747272e+01	4.895880e+02
1.780000e-06	5.219340e-06	7.410955e-09	3.729852e+01	4.882589e+02
1.790000e-06	5.194218e-06	7.441745e-09	3.711899e+01	4.869384e+02
1.800000e-06	5.167721e-06	7.343899e-09	3.692964e+01	4.856315e+02
1.810000e-06	5.139092e-06	7.320177e-09	3.672505e+01	4.843224e+02
1.820000e-06	5.108599e-06	7.371476e-09	3.650714e+01	4.829772e+02
1.830000e-06	5.076418e-06	7.258583e-09	3.627717e+01	4.815500e+02
1.840000e-06	5.042310e-06	7.316988e-09	3.603343e+01	4.799922e+02
1.850000e-06	5.006537e-06	7.396115e-09	3.577778e+01	4.782614e+02
1.860000e-06	4.969017e-06	7.279843e-09	3.550966e+01	4.763295e+02
1.870000e-06	4.929606e-06	7.269043e-09	3.522802e+01	4.741877e+02
1.880000e-06	4.888557e-06	7.195324e-09	3.493467e+01	4.718460e+02
1.890000e-06	4.845754e-06	7.138447e-09	3.462880e+01	4.693301e+02
1.900000e-06	4.801291e-06	7.176572e-09	3.431106e+01	4.666740e+02
1.910000e-06	4.755038e-06	7.064469e-09	3.398052e+01	4.639119e+02
1.920000e-06	4.706744e-06	7.072102e-09	3.363540e+01	4.610709e+02
1.930000e-06	4.656810e-06	7.028156e-09	3.327856e+01	4.581657e+02
1.940000e-06	4.605198e-06	6.911743e-09	3.290973e+01	4.551967e+02
1.950000e-06	4.551532e-06	6.952202e-09	3.252622e+01	4.521520e+02
1.960000e-06	4.495883e-06	6.884638e-09	3.212854e+01	4.490120e+02
1.970000e-06	4.438549e-06	6.815861e-09	3.171882e+01	4.457552e+02
1.980000e-06	4.379830e-06	6.749683e-09	3.129921e+01	4.423645e+02
1.990000e-06	4.319677e-06	6.688255e-09	3.086934e+01	4.388306e+02
2.000000e-06	4.257817e-06	6.698094e-09	3.042728e+01	4.351542e+02
2.010000e-06	4.194308e-06	6.589459e-09	2.997342e+01	4.313448e+02
2.020000e-06	4.129285e-06	6.541988e-09	2.950876e+01	4.274172e+02
2.030000e-06	4.062817e-06	6.488602e-09	2.903376e+01	4.233875e+02
2.040000e-06	3.994932e-06	6.402461e-09	2.854864e+01	4.192683e+02
2.050000e-06	3.925633e-06	6.361717e-09	2.805341e+01	4.150664e+02
2.060000e-06	3.854843e-06	6.291755e-09	2.754753e+01	4.107811e+02
2.070000e-06	3.782607e-06	6.264640e-09	2.703132e+01	4.064052e+02
2.080000e-06	3.709090e-06	6.151927e-09	2.650595e+01	4.019276e+02
2.090000e-06	3.634200e-06	6.046677e-09	2.597077e+01	3.973362e+02
2.100000e-06	3.557896e-06	5.997546e-09	2.542549e+01	3.926210e+02
2.110000e-06	3.480026e-06	5.936579e-09	2.486901e+01	3.877761e+02
2.120000e-06	3.400678e-06	5.880028e-09	2.430197e+01	3.828005e+02
2.130000e-06	3.320222e-06	5.781392e-09	2.372702e+01	3.776971e+02
2.140000e-06	3.238698e-06	5.712763e-09	2.314443e+01	3.724714e+02
2.150000e-06	3.156103e-06	5.621384e-09	2.255419e+01	3.671294e+02
2.160000e-06	3.072502e-06	5.533683e-09	2.195676e+01	3.616757e+02
2.170000e-06	2.987847e-06	5.465699e-09	2.135179e+01	3.561127e+02
2.180000e-06	2.901886e-06	5.375962e-09	2.073750e+01	3.504402e+02
2.190000e-06	2.814612e-06	5.280576e-09	2.011382e+01	3.446561e+02
2.200000e-06	2.726335e-06	5.178003e-09	1.948298e+01	3.387572e+02
2.210000e-06	2.637186e-06	5.106144e-09	1.884589e+01	3.327404e+02
2.220000e-06	2.547178e-06	5.025651e-09	1.820268e+01	3.266027e+02
2.230000e-06	2.456264e-06	4.924083e-09	1.755299e+01	3.203417e+02
2.240000e-06	2.364493e-06	4.816935e-09	1.689718e+01	3.139547e+02
2.250000e-06	2.272000e-06	4.714061e-09	1.623620e+01	3.074386e+02
2.260000e-06	2.178752e-06	4.613839e-09	1.556983e+01	3.007892e+02
2.270000e-06	2.084497e-06	4.515008e-09	1.489626e+01	2.940015e+02
2.280000e-06	1.989185e-06	4.416953e-09	1.421514e+01	2.870700e+02
2.290000e-06	1.893151e-06	4.301995e-09	1.352886e+01	2.799900e+02
2.300000e-06	1.796605e-06	4.180249e-09	1.283893e+01	2.727587e+02
2.310000e-06	1.699596e-06	4.064562e-09	1.214568e+01	2.653757e+02
2.320000e-06	1.602061e-06	3.962433e-09	1.144867e+01	2.578432e+02
2.330000e-06	1.503970e-06	3.857926e-09	1.074769e+01	2.501651e+02
2.340000e-06	1.405344e-06	3.740337e-09	1.004289e+01	2.423455e+02
2.350000e-06	1.306273e-06	3.610986e-09	9.334910e+00	2.343867e+02
2.360000e-06	1.206890e-06	3.477922e-09	8.624692e+00	2.262874e+02
2.370000e-06	1.107230e-06	3.349224e-09	7.912503e+00	2.180416e+02
2.380000e-06	1.007288e-06	3.226048e-09	7.198294e+00	2.096388e+02
2.390000e-06	9.070242e-07	3.100994e-09	6.481789e+00	2.010648e+02
2.400000e-06	8.064379e-07	2.966229e-09	5.762978e+00	1.923043e+02
2.410000e-06	7.055403e-07	2.827389e-09	5.041942e+00	1.833432e+02
2.420000e-06	6.043437e-07	2.687470e-09	4.318769e+00	1.741706e+02
2.430000e-06	5.029030e-07	2.550520e-09	3.593853e+00	1.647805e+02
2.440000e-06	4.012796e-07	2.409283e-09	2.867630e+00	1.551717e+02
2.450000e-06	2.994521e-07	2.256887e-09	2.139949e+00	1.453465e+02
2.460000e-06	1.973943e-07	2.097696e-09	1.410622e+00	1.353087e+02
2.470000e-06	9.522483e-08	1.939115e-09	6.804971e-01	1.250608e+02
2.480000e-06	-6.984987e-09	1.785170e-09	-4.991622e-02	1.146020e+02
2.490000e-06	-1.092103e-07	1.629846e-09	-7.804404e-01	1.039268e+02
2.500000e-06	-2.113990e-07	1.464794e-09	-1.510702e+00	9.302542e+01
2.510000e-06	-3.135288e-07	1.291316e-09	-2.240544e+00	8.188488e+01
2.520000e-06	-4.154915e-07	1.117345e-09	-2.969191e+00	7.049120e+01
2.530000e-06	-5.172945e-07	9.423087e-10	-3.696698e+00	5.883179e+01
2.540000e-06	-6.188938e-07	7.627784e-10	-4.422748e+00	4.689727e+01
2.550000e-06	-7.201560e-07	5.763452e-10	-5.146389e+00	3.468238e+01
2.560000e-06	-8.211136e-07	3.807101e-10	-5.867854e+00	2.218574e+01
2.570000e-06	-9.217489e-07	1.781823e-10	-6.587015e+00	9.408781e+00
2.580000e-06	-1.022036e-06	-2.465672e-11	-7.303690e+00	-3.645569e+00
2.590000e-06	-1.122007e-06	-2.251604e-10	-8.018105e+00	-1.697373e+01
2.600000e-06	-1.221619e-06	-4.291518e-10	-8.729952e+00	-3.057124e+01
2.610000e-06	-1.320790e-06	-6.441525e-10	-9.438650e+00	-4.443107e+01
2.620000e-06	-1.419483e-06	-8.660115e-10	-1.014393e+01	-5.854063e+01
2.630000e-06	-1.517692e-06	-1.087423e-09	-1.084575e+01	-7.287813e+01
2.640000e-06	-1.615335e-06	-1.308644e-09	-1.154353e+01	-8.740912e+01
2.650000e-06	-1.712423e-06	-1.533142e-09	-1.223734e+01	-1.020844e+02
2.660000e-06	-1.808975e-06	-1.762083e-09	-1.292732e+01	-1.168397e+02
2.670000e-06	-1.905002e-06	-1.991600e-09	-1.361355e+01	-1.315986e+02
2.680000e-06	-2.000469e-06	-2.219309e-09	-1.429578e+01	-1.462769e+02
2.690000e-06	-2.095114e-06	-2.441301e-09	-1.497213e+01	-1.607897e+02
2.700000e-06	-2.188746e-06	-2.656629e-09	-1.564125e+01	-1.750576e+02
2.710000e-06	-2.281408e-06	-2.869182e-09	-1.630343e+01	-1.890137e+02
2.720000e-06	-2.373187e-06	-3.081710e-09	-1.695930e+01	-2.026075e+02
2.730000e-06	-2.464160e-06	-3.289620e-09	-1.760942e+01	-2.158063e+02
2.740000e-06	-2.554265e-06	-3.487277e-09	-1.825333e+01	-2.285944e+02
2.750000e-06	-2.643419e-06	-3.676636e-09	-1.889044e+01	-2.409696e+02
2.760000e-06	-2.731764e-06	-3.860183e-09	-1.952177e+01	-2.529381e+02
2.770000e-06	-2.819353e-06	-4.039597e-09	-2.014770e+01	-2.645100e+02
2.780000e-06	-2.905944e-06	-4.212563e-09	-2.076650e+01	-2.756951e+02
2.790000e-06	-2.991321e-06	-4.376821e-09	-2.137662e+01	-2.865002e+02
2.800000e-06	-3.075546e-06	-4.532228e-09	-2.197851e+01	-2.969283e+02
2.810000e-06	-3.158765e-06	-4.680657e-09	-2.257321e+01	-3.069800e+02
2.820000e-06	-3.240934e-06	-4.826532e-09	-2.316041e+01	-3.166548e+02
2.830000e-06	-3.322025e-06	-4.970465e-09	-2.373991e+01	-3.259530e+02
2.840000e-06	-3.402089e-06	-5.109795e-09	-2.431206e+01	-3.348777e+02
2.850000e-06	-3.480921e-06	-5.243054e-09	-2.487541e+01	-3.434348e+02
2.860000e-06	-3.558251e-06	-5.370949e-09	-2.542802e+01	-3.516329e+02
2.870000e-06	-3.634087e-06	-5.493084e-09	-2.596997e+01	-3.594825e+02
2.880000e-06	-3.708524e-06	-5.610044e-09	-2.650191e+01	-3.669947e+02
2.890000e-06	-3.781639e-06	-5.720858e-09	-2.702441e+01	-3.741807e+02
2.900000e-06	-3.853506e-06	-5.825055e-09	-2.753798e+01	-3.810517e+02
2.910000e-06	-3.923913e-06	-5.923770e-09	-2.804112e+01	-3.876199e+02
2.920000e-06	-3.992689e-06	-6.019037e-09	-2.853261e+01	-3.938990e+02
2.930000e-06	-4.059979e-06	-6.111963e-09	-2.901348e+01	-3.999056e+02
2.940000e-06	-4.125867e-06	-6.201397e-09	-2.948433e+01	-4.056593e+02
