# Temperatura_=_80.63
# Concentracion g/m^3_=_15000.0
# C_Vs_to_Am_M_A/Vsm_=_65563218390.804596
# pendiente_HvsI_1/m_=_3716.3
# ordenada_HvsI_A/m_=_1297.0
# frecuencia_Hz_=_301587.4306146645

Tiempo_(s)	Campo_(V.s)	Magnetizacion_(V.s)	Campo_(kA/m)	Magnetizacion_(A/m)
0.000000e+00	-5.382173e-06	-7.935169e-09	-3.833978e+01	-5.182643e+02
1.000000e-08	-5.379391e-06	-7.930494e-09	-3.831996e+01	-5.180002e+02
2.000000e-08	-5.374806e-06	-7.922855e-09	-3.828730e+01	-5.176669e+02
3.000000e-08	-5.368602e-06	-7.912279e-09	-3.824310e+01	-5.172517e+02
4.000000e-08	-5.360809e-06	-7.901449e-09	-3.818759e+01	-5.167335e+02
5.000000e-08	-5.351204e-06	-7.891557e-09	-3.811917e+01	-5.160880e+02
6.000000e-08	-5.339602e-06	-7.881293e-09	-3.803652e+01	-5.152949e+02
7.000000e-08	-5.326071e-06	-7.872912e-09	-3.794013e+01	-5.143440e+02
8.000000e-08	-5.310430e-06	-7.859283e-09	-3.782872e+01	-5.132400e+02
9.000000e-08	-5.292505e-06	-7.852189e-09	-3.770103e+01	-5.120029e+02
1.000000e-07	-5.272558e-06	-7.842877e-09	-3.755894e+01	-5.106654e+02
1.100000e-07	-5.250783e-06	-7.805219e-09	-3.740382e+01	-5.092665e+02
1.200000e-07	-5.227275e-06	-7.766099e-09	-3.723637e+01	-5.078434e+02
1.300000e-07	-5.202238e-06	-7.736436e-09	-3.705801e+01	-5.064227e+02
1.400000e-07	-5.175620e-06	-7.685762e-09	-3.686840e+01	-5.050142e+02
1.500000e-07	-5.147341e-06	-7.696519e-09	-3.666696e+01	-5.036079e+02
1.600000e-07	-5.117578e-06	-7.695137e-09	-3.645494e+01	-5.021747e+02
1.700000e-07	-5.086229e-06	-7.649205e-09	-3.623163e+01	-5.006723e+02
1.800000e-07	-5.052791e-06	-7.653536e-09	-3.599343e+01	-4.990529e+02
1.900000e-07	-5.017467e-06	-7.590353e-09	-3.574180e+01	-4.972725e+02
2.000000e-07	-4.980654e-06	-7.516550e-09	-3.547957e+01	-4.952989e+02
2.100000e-07	-4.942146e-06	-7.511872e-09	-3.520525e+01	-4.931168e+02
2.200000e-07	-4.901801e-06	-7.464888e-09	-3.491786e+01	-4.907297e+02
2.300000e-07	-4.859428e-06	-7.422972e-09	-3.461602e+01	-4.881571e+02
2.400000e-07	-4.815131e-06	-7.382482e-09	-3.430047e+01	-4.854289e+02
2.500000e-07	-4.769161e-06	-7.325235e-09	-3.397300e+01	-4.825777e+02
2.600000e-07	-4.721299e-06	-7.331096e-09	-3.363205e+01	-4.796321e+02
2.700000e-07	-4.671331e-06	-7.284309e-09	-3.327611e+01	-4.766107e+02
2.800000e-07	-4.619321e-06	-7.216515e-09	-3.290562e+01	-4.735199e+02
2.900000e-07	-4.565482e-06	-7.162417e-09	-3.252210e+01	-4.703541e+02
3.000000e-07	-4.510030e-06	-7.083328e-09	-3.212709e+01	-4.670994e+02
3.100000e-07	-4.452888e-06	-7.048473e-09	-3.172004e+01	-4.637385e+02
3.200000e-07	-4.393945e-06	-7.025378e-09	-3.130016e+01	-4.602558e+02
3.300000e-07	-4.333360e-06	-6.966994e-09	-3.086858e+01	-4.566411e+02
3.400000e-07	-4.271318e-06	-6.888681e-09	-3.042663e+01	-4.528924e+02
3.500000e-07	-4.207949e-06	-6.820211e-09	-2.997522e+01	-4.490147e+02
3.600000e-07	-4.143106e-06	-6.774277e-09	-2.951331e+01	-4.450182e+02
3.700000e-07	-4.076586e-06	-6.721347e-09	-2.903946e+01	-4.409146e+02
3.800000e-07	-4.008509e-06	-6.661721e-09	-2.855452e+01	-4.367133e+02
3.900000e-07	-3.939083e-06	-6.586147e-09	-2.805996e+01	-4.324188e+02
4.000000e-07	-3.868410e-06	-6.501430e-09	-2.755652e+01	-4.280296e+02
4.100000e-07	-3.796472e-06	-6.437436e-09	-2.704408e+01	-4.235384e+02
4.200000e-07	-3.723136e-06	-6.371042e-09	-2.652167e+01	-4.189345e+02
4.300000e-07	-3.648266e-06	-6.311617e-09	-2.598834e+01	-4.142061e+02
4.400000e-07	-3.571892e-06	-6.241789e-09	-2.544428e+01	-4.093433e+02
4.500000e-07	-3.494059e-06	-6.156203e-09	-2.488984e+01	-4.043401e+02
4.600000e-07	-3.414801e-06	-6.072372e-09	-2.432525e+01	-3.991948e+02
4.700000e-07	-3.334285e-06	-5.998941e-09	-2.375170e+01	-3.939097e+02
4.800000e-07	-3.252575e-06	-5.928115e-09	-2.316964e+01	-3.884895e+02
4.900000e-07	-3.169725e-06	-5.833911e-09	-2.257946e+01	-3.829395e+02
5.000000e-07	-3.085807e-06	-5.735382e-09	-2.198167e+01	-3.772636e+02
5.100000e-07	-3.000952e-06	-5.642039e-09	-2.137721e+01	-3.714636e+02
5.200000e-07	-2.915174e-06	-5.557103e-09	-2.076617e+01	-3.655384e+02
5.300000e-07	-2.828407e-06	-5.473945e-09	-2.014809e+01	-3.594852e+02
5.400000e-07	-2.740750e-06	-5.383108e-09	-1.952367e+01	-3.533003e+02
5.500000e-07	-2.652110e-06	-5.280996e-09	-1.889224e+01	-3.469804e+02
5.600000e-07	-2.562340e-06	-5.172119e-09	-1.825277e+01	-3.405234e+02
5.700000e-07	-2.471479e-06	-5.071652e-09	-1.760552e+01	-3.339289e+02
5.800000e-07	-2.379647e-06	-4.979060e-09	-1.695136e+01	-3.271979e+02
5.900000e-07	-2.287006e-06	-4.878772e-09	-1.629143e+01	-3.203317e+02
6.000000e-07	-2.193595e-06	-4.763103e-09	-1.562602e+01	-3.133313e+02
6.100000e-07	-2.099413e-06	-4.648129e-09	-1.495511e+01	-3.061961e+02
6.200000e-07	-2.004544e-06	-4.537860e-09	-1.427932e+01	-2.989241e+02
6.300000e-07	-1.909063e-06	-4.426979e-09	-1.359916e+01	-2.915119e+02
6.400000e-07	-1.812873e-06	-4.316967e-09	-1.291396e+01	-2.839549e+02
6.500000e-07	-1.715809e-06	-4.204210e-09	-1.222252e+01	-2.762487e+02
6.600000e-07	-1.617988e-06	-4.083645e-09	-1.152569e+01	-2.683895e+02
6.700000e-07	-1.519556e-06	-3.955485e-09	-1.082452e+01	-2.603742e+02
6.800000e-07	-1.420564e-06	-3.828099e-09	-1.011936e+01	-2.522007e+02
6.900000e-07	-1.321094e-06	-3.703031e-09	-9.410782e+00	-2.438673e+02
7.000000e-07	-1.221204e-06	-3.574623e-09	-8.699218e+00	-2.353714e+02
7.100000e-07	-1.120959e-06	-3.441210e-09	-7.985122e+00	-2.267092e+02
7.200000e-07	-1.020427e-06	-3.305381e-09	-7.268989e+00	-2.178752e+02
7.300000e-07	-9.195981e-07	-3.167818e-09	-6.550734e+00	-2.088620e+02
7.400000e-07	-8.184779e-07	-3.029040e-09	-5.830407e+00	-1.996614e+02
7.500000e-07	-7.170404e-07	-2.887907e-09	-5.107820e+00	-1.902652e+02
7.600000e-07	-6.152756e-07	-2.740591e-09	-4.382900e+00	-1.806660e+02
7.700000e-07	-5.133401e-07	-2.586832e-09	-3.656766e+00	-1.708585e+02
7.800000e-07	-4.112556e-07	-2.430385e-09	-2.929569e+00	-1.608391e+02
7.900000e-07	-3.090072e-07	-2.274310e-09	-2.201205e+00	-1.506062e+02
8.000000e-07	-2.066530e-07	-2.116476e-09	-1.472087e+00	-1.401588e+02
8.100000e-07	-1.041621e-07	-1.954789e-09	-7.419960e-01	-1.294957e+02
8.200000e-07	-1.564312e-09	-1.786102e-09	-1.114334e-02	-1.186142e+02
8.300000e-07	1.010645e-07	-1.611751e-09	7.199307e-01	-1.075090e+02
8.400000e-07	2.037113e-07	-1.435033e-09	1.451133e+00	-9.617242e+01
8.500000e-07	3.062625e-07	-1.259941e-09	2.181653e+00	-8.459458e+01
8.600000e-07	4.086808e-07	-1.084186e-09	2.911228e+00	-7.276402e+01
8.700000e-07	5.109923e-07	-9.005930e-10	3.640041e+00	-6.066890e+01
8.800000e-07	6.131294e-07	-7.090990e-10	4.367612e+00	-4.829797e+01
8.900000e-07	7.150276e-07	-5.170857e-10	5.093482e+00	-3.564135e+01
9.000000e-07	8.166737e-07	-3.251590e-10	5.817555e+00	-2.269106e+01
9.100000e-07	9.180292e-07	-1.276706e-10	6.539558e+00	-9.441373e+00
9.200000e-07	1.018986e-06	7.542972e-11	7.258725e+00	4.110736e+00
9.300000e-07	1.119599e-06	2.853264e-10	7.975437e+00	1.796480e+01
9.400000e-07	1.219876e-06	5.017288e-10	8.689755e+00	3.211556e+01
9.500000e-07	1.319790e-06	7.213400e-10	9.401489e+00	4.655115e+01
9.600000e-07	1.419327e-06	9.419647e-10	1.011054e+01	6.125095e+01
9.700000e-07	1.518292e-06	1.165613e-09	1.081551e+01	7.618365e+01
9.800000e-07	1.616572e-06	1.397352e-09	1.151561e+01	9.130586e+01
9.900000e-07	1.714118e-06	1.633241e-09	1.221048e+01	1.065620e+02
1.000000e-06	1.810841e-06	1.866465e-09	1.289948e+01	1.218856e+02
1.010000e-06	1.906773e-06	2.097344e-09	1.358285e+01	1.372023e+02
1.020000e-06	2.002010e-06	2.327263e-09	1.426127e+01	1.524336e+02
1.030000e-06	2.096551e-06	2.557328e-09	1.493473e+01	1.675023e+02
1.040000e-06	2.190375e-06	2.785490e-09	1.560308e+01	1.823365e+02
1.050000e-06	2.283448e-06	3.005704e-09	1.626609e+01	1.968740e+02
1.060000e-06	2.375824e-06	3.217234e-09	1.692413e+01	2.110647e+02
1.070000e-06	2.467571e-06	3.422628e-09	1.757768e+01	2.248716e+02
1.080000e-06	2.558536e-06	3.623285e-09	1.822567e+01	2.382700e+02
1.090000e-06	2.648366e-06	3.820011e-09	1.886557e+01	2.512459e+02
1.100000e-06	2.737007e-06	4.012130e-09	1.949700e+01	2.637936e+02
1.110000e-06	2.824674e-06	4.196704e-09	2.012150e+01	2.759134e+02
1.120000e-06	2.911413e-06	4.373383e-09	2.073938e+01	2.876090e+02
1.130000e-06	2.997263e-06	4.543864e-09	2.135093e+01	2.988873e+02
1.140000e-06	3.082194e-06	4.709576e-09	2.195593e+01	3.097567e+02
1.150000e-06	3.166178e-06	4.870824e-09	2.255419e+01	3.202271e+02
1.160000e-06	3.249094e-06	5.026392e-09	2.314484e+01	3.303099e+02
1.170000e-06	3.330697e-06	5.174414e-09	2.372614e+01	3.400168e+02
1.180000e-06	3.410962e-06	5.314846e-09	2.429790e+01	3.493596e+02
1.190000e-06	3.490045e-06	5.449623e-09	2.486125e+01	3.583487e+02
1.200000e-06	3.567997e-06	5.581744e-09	2.541654e+01	3.669919e+02
1.210000e-06	3.644731e-06	5.711356e-09	2.596315e+01	3.752947e+02
1.220000e-06	3.720149e-06	5.831796e-09	2.650039e+01	3.832594e+02
1.230000e-06	3.794004e-06	5.943305e-09	2.702650e+01	3.908874e+02
1.240000e-06	3.866244e-06	6.050393e-09	2.754110e+01	3.981803e+02
1.250000e-06	3.937076e-06	6.155786e-09	2.804566e+01	4.051431e+02
1.260000e-06	4.006522e-06	6.258686e-09	2.854036e+01	4.117853e+02
1.270000e-06	4.074623e-06	6.353745e-09	2.902548e+01	4.181230e+02
1.280000e-06	4.141272e-06	6.441543e-09	2.950025e+01	4.241780e+02
1.290000e-06	4.206209e-06	6.527624e-09	2.996283e+01	4.299766e+02
1.300000e-06	4.269570e-06	6.613072e-09	3.041417e+01	4.355464e+02
1.310000e-06	4.331550e-06	6.697513e-09	3.085569e+01	4.409127e+02
1.320000e-06	4.392154e-06	6.778858e-09	3.128740e+01	4.460954e+02
1.330000e-06	4.451329e-06	6.855448e-09	3.170893e+01	4.511063e+02
1.340000e-06	4.508778e-06	6.927495e-09	3.211817e+01	4.559486e+02
1.350000e-06	4.564430e-06	6.997090e-09	3.251460e+01	4.606180e+02
1.360000e-06	4.618520e-06	7.065932e-09	3.289992e+01	4.651050e+02
1.370000e-06	4.670925e-06	7.131475e-09	3.327322e+01	4.693990e+02
1.380000e-06	4.721264e-06	7.191939e-09	3.363180e+01	4.734909e+02
1.390000e-06	4.769566e-06	7.248771e-09	3.397589e+01	4.773768e+02
1.400000e-06	4.816161e-06	7.303962e-09	3.430780e+01	4.810583e+02
1.410000e-06	4.861205e-06	7.357123e-09	3.462867e+01	4.845420e+02
1.420000e-06	4.904692e-06	7.407847e-09	3.493845e+01	4.878379e+02
1.430000e-06	4.946351e-06	7.453742e-09	3.523521e+01	4.909560e+02
1.440000e-06	4.986098e-06	7.496743e-09	3.551835e+01	4.939042e+02
1.450000e-06	5.024199e-06	7.539558e-09	3.578976e+01	4.966862e+02
1.460000e-06	5.060725e-06	7.578918e-09	3.604995e+01	4.993013e+02
1.470000e-06	5.095491e-06	7.615575e-09	3.629760e+01	5.017460e+02
1.480000e-06	5.128320e-06	7.648382e-09	3.653146e+01	5.040159e+02
1.490000e-06	5.159322e-06	7.677446e-09	3.675230e+01	5.061088e+02
1.500000e-06	5.188649e-06	7.705159e-09	3.696122e+01	5.080268e+02
1.510000e-06	5.216352e-06	7.730865e-09	3.715855e+01	5.097770e+02
1.520000e-06	5.242100e-06	7.755102e-09	3.734197e+01	5.113708e+02
1.530000e-06	5.265685e-06	7.778618e-09	3.750998e+01	5.128215e+02
1.540000e-06	5.287428e-06	7.799865e-09	3.766487e+01	5.141415e+02
1.550000e-06	5.307458e-06	7.817877e-09	3.780755e+01	5.153386e+02
1.560000e-06	5.325582e-06	7.833242e-09	3.793665e+01	5.164145e+02
1.570000e-06	5.341700e-06	7.846772e-09	3.805147e+01	5.173643e+02
1.580000e-06	5.355913e-06	7.858422e-09	3.815271e+01	5.181784e+02
1.590000e-06	5.368127e-06	7.868585e-09	3.823972e+01	5.188456e+02
1.600000e-06	5.378135e-06	7.877422e-09	3.831101e+01	5.193578e+02
1.610000e-06	5.386060e-06	7.884112e-09	3.836747e+01	5.197132e+02
1.620000e-06	5.392131e-06	7.889150e-09	3.841072e+01	5.199187e+02
1.630000e-06	5.396392e-06	7.893123e-09	3.844107e+01	5.199894e+02
1.640000e-06	5.398718e-06	7.895887e-09	3.845764e+01	5.199460e+02
1.650000e-06	5.399050e-06	7.896516e-09	3.846000e+01	5.198100e+02
1.660000e-06	5.397581e-06	7.894243e-09	3.844954e+01	5.195986e+02
1.670000e-06	5.394491e-06	7.887357e-09	3.842752e+01	5.193196e+02
1.680000e-06	5.389665e-06	7.882082e-09	3.839315e+01	5.189696e+02
1.690000e-06	5.382924e-06	7.876828e-09	3.834513e+01	5.185338e+02
1.700000e-06	5.374449e-06	7.869044e-09	3.828475e+01	5.179897e+02
1.710000e-06	5.364415e-06	7.860036e-09	3.821328e+01	5.173135e+02
1.720000e-06	5.352621e-06	7.847015e-09	3.812927e+01	5.164865e+02
1.730000e-06	5.338799e-06	7.827899e-09	3.803080e+01	5.155013e+02
1.740000e-06	5.322909e-06	7.798224e-09	3.791761e+01	5.143661e+02
1.750000e-06	5.304676e-06	7.762900e-09	3.778773e+01	5.131038e+02
1.760000e-06	5.283737e-06	7.764082e-09	3.763857e+01	5.117492e+02
1.770000e-06	5.260528e-06	7.760753e-09	3.747324e+01	5.103417e+02
1.780000e-06	5.236080e-06	7.748323e-09	3.729909e+01	5.089168e+02
1.790000e-06	5.210948e-06	7.737241e-09	3.712006e+01	5.074980e+02
1.800000e-06	5.184370e-06	7.648667e-09	3.693073e+01	5.060910e+02
1.810000e-06	5.155554e-06	7.658245e-09	3.672546e+01	5.046813e+02
1.820000e-06	5.124953e-06	7.674326e-09	3.650747e+01	5.032366e+02
1.830000e-06	5.092712e-06	7.583778e-09	3.627781e+01	5.017127e+02
1.840000e-06	5.058537e-06	7.636185e-09	3.603436e+01	5.000617e+02
1.850000e-06	5.022710e-06	7.661922e-09	3.577915e+01	4.982415e+02
1.860000e-06	4.985070e-06	7.575887e-09	3.551102e+01	4.962233e+02
1.870000e-06	4.945509e-06	7.569339e-09	3.522921e+01	4.939958e+02
1.880000e-06	4.904328e-06	7.503136e-09	3.493586e+01	4.915663e+02
1.890000e-06	4.861387e-06	7.477392e-09	3.462997e+01	4.889571e+02
1.900000e-06	4.816774e-06	7.468645e-09	3.431217e+01	4.861993e+02
1.910000e-06	4.770339e-06	7.350522e-09	3.398140e+01	4.833252e+02
1.920000e-06	4.721865e-06	7.362508e-09	3.363609e+01	4.803616e+02
1.930000e-06	4.671792e-06	7.310808e-09	3.327940e+01	4.773247e+02
1.940000e-06	4.619998e-06	7.229027e-09	3.291044e+01	4.742180e+02
1.950000e-06	4.566102e-06	7.261491e-09	3.252652e+01	4.710340e+02
1.960000e-06	4.510251e-06	7.175088e-09	3.212866e+01	4.677576e+02
1.970000e-06	4.452714e-06	7.091414e-09	3.171880e+01	4.643712e+02
1.980000e-06	4.393743e-06	7.026817e-09	3.129872e+01	4.608602e+02
1.990000e-06	4.333234e-06	6.982837e-09	3.086769e+01	4.572162e+02
2.000000e-06	4.271058e-06	6.978646e-09	3.042477e+01	4.534386e+02
2.010000e-06	4.207274e-06	6.880279e-09	2.997041e+01	4.495340e+02
2.020000e-06	4.141964e-06	6.832826e-09	2.950518e+01	4.455130e+02
2.030000e-06	4.075248e-06	6.763255e-09	2.902993e+01	4.413873e+02
2.040000e-06	4.007140e-06	6.677812e-09	2.854476e+01	4.371653e+02
2.050000e-06	3.937555e-06	6.637030e-09	2.804908e+01	4.328503e+02
2.060000e-06	3.866420e-06	6.570461e-09	2.754235e+01	4.284394e+02
2.070000e-06	3.793886e-06	6.527455e-09	2.702565e+01	4.239245e+02
2.080000e-06	3.720069e-06	6.413297e-09	2.649982e+01	4.192943e+02
2.090000e-06	3.644899e-06	6.323475e-09	2.596435e+01	4.145373e+02
2.100000e-06	3.568297e-06	6.275973e-09	2.541868e+01	4.096442e+02
2.110000e-06	3.490148e-06	6.205582e-09	2.486198e+01	4.046100e+02
2.120000e-06	3.410642e-06	6.135520e-09	2.429563e+01	3.994339e+02
2.130000e-06	3.329993e-06	6.034318e-09	2.372112e+01	3.941188e+02
2.140000e-06	3.248156e-06	5.959609e-09	2.313816e+01	3.886699e+02
2.150000e-06	3.165259e-06	5.870969e-09	2.254764e+01	3.830921e+02
2.160000e-06	3.081349e-06	5.791623e-09	2.194991e+01	3.773890e+02
2.170000e-06	2.996266e-06	5.716112e-09	2.134383e+01	3.715618e+02
2.180000e-06	2.909938e-06	5.610443e-09	2.072887e+01	3.656089e+02
2.190000e-06	2.822444e-06	5.504577e-09	2.010561e+01	3.595273e+02
2.200000e-06	2.733962e-06	5.404343e-09	1.947531e+01	3.533131e+02
2.210000e-06	2.644530e-06	5.331644e-09	1.883824e+01	3.469634e+02
2.220000e-06	2.554226e-06	5.242652e-09	1.819496e+01	3.404764e+02
2.230000e-06	2.463078e-06	5.132972e-09	1.754568e+01	3.338520e+02
2.240000e-06	2.371078e-06	5.020220e-09	1.689032e+01	3.270914e+02
2.250000e-06	2.278306e-06	4.913116e-09	1.622946e+01	3.201958e+02
2.260000e-06	2.184706e-06	4.810078e-09	1.556270e+01	3.131660e+02
2.270000e-06	2.090185e-06	4.707515e-09	1.488938e+01	3.060012e+02
2.280000e-06	1.994701e-06	4.600570e-09	1.420920e+01	2.986990e+02
2.290000e-06	1.898416e-06	4.474932e-09	1.352332e+01	2.912556e+02
2.300000e-06	1.801586e-06	4.347513e-09	1.283355e+01	2.836665e+02
2.310000e-06	1.704299e-06	4.229977e-09	1.214053e+01	2.759272e+02
2.320000e-06	1.606514e-06	4.122980e-09	1.144396e+01	2.680342e+02
2.330000e-06	1.508189e-06	4.008482e-09	1.074355e+01	2.599846e+02
2.340000e-06	1.409326e-06	3.879482e-09	1.003930e+01	2.517765e+02
2.350000e-06	1.310033e-06	3.742891e-09	9.331985e+00	2.434080e+02
2.360000e-06	1.210434e-06	3.608822e-09	8.622497e+00	2.348763e+02
2.370000e-06	1.110543e-06	3.481033e-09	7.910924e+00	2.261772e+02
2.380000e-06	1.010298e-06	3.351370e-09	7.196830e+00	2.173049e+02
2.390000e-06	9.096368e-07	3.212232e-09	6.479775e+00	2.082517e+02
2.400000e-06	8.085555e-07	3.063797e-09	5.759725e+00	1.990093e+02
2.410000e-06	7.070743e-07	2.918218e-09	5.036826e+00	1.895696e+02
2.420000e-06	6.053282e-07	2.775598e-09	4.312041e+00	1.799257e+02
2.430000e-06	5.034083e-07	2.632080e-09	3.586017e+00	1.700724e+02
2.440000e-06	4.013517e-07	2.481471e-09	2.859019e+00	1.600068e+02
2.450000e-06	2.991466e-07	2.321064e-09	2.130963e+00	1.497275e+02
2.460000e-06	1.967670e-07	2.155530e-09	1.401665e+00	1.392335e+02
2.470000e-06	9.426102e-08	1.992556e-09	6.714661e-01	1.285233e+02
2.480000e-06	-8.359546e-09	1.833279e-09	-5.954902e-02	1.175938e+02
2.490000e-06	-1.109633e-07	1.668440e-09	-7.904445e-01	1.064392e+02
2.500000e-06	-2.135110e-07	1.492422e-09	-1.520940e+00	9.505131e+01
2.510000e-06	-3.160650e-07	1.311202e-09	-2.251481e+00	8.341976e+01
2.520000e-06	-4.184597e-07	1.131203e-09	-2.980887e+00	7.153295e+01
2.530000e-06	-5.206702e-07	9.481384e-10	-3.708981e+00	5.937909e+01
2.540000e-06	-6.227255e-07	7.586953e-10	-4.435970e+00	4.694716e+01
2.550000e-06	-7.244694e-07	5.619414e-10	-5.160740e+00	3.422767e+01
2.560000e-06	-8.258562e-07	3.558045e-10	-5.882966e+00	2.121307e+01
2.570000e-06	-9.268851e-07	1.450700e-10	-6.602643e+00	7.898178e+00
2.580000e-06	-1.027485e-06	-6.408705e-11	-7.319266e+00	-5.719363e+00
2.590000e-06	-1.127661e-06	-2.726835e-10	-8.032863e+00	-1.963819e+01
2.600000e-06	-1.227427e-06	-4.867833e-10	-8.743546e+00	-3.385180e+01
2.610000e-06	-1.326780e-06	-7.113816e-10	-9.451287e+00	-4.834662e+01
2.620000e-06	-1.425733e-06	-9.412686e-10	-1.015618e+01	-6.309992e+01
2.630000e-06	-1.524207e-06	-1.170011e-09	-1.085765e+01	-7.807785e+01
2.640000e-06	-1.622111e-06	-1.397976e-09	-1.155507e+01	-9.323439e+01
2.650000e-06	-1.719436e-06	-1.629690e-09	-1.224836e+01	-1.085115e+02
2.660000e-06	-1.816181e-06	-1.866730e-09	-1.293752e+01	-1.238406e+02
2.670000e-06	-1.912347e-06	-2.104900e-09	-1.362255e+01	-1.391462e+02
2.680000e-06	-2.007971e-06	-2.341070e-09	-1.430373e+01	-1.543496e+02
2.690000e-06	-2.102896e-06	-2.570947e-09	-1.497993e+01	-1.693744e+02
2.700000e-06	-2.196886e-06	-2.794611e-09	-1.564946e+01	-1.841504e+02
2.710000e-06	-2.289916e-06	-3.015323e-09	-1.631216e+01	-1.986179e+02
2.720000e-06	-2.382006e-06	-3.233672e-09	-1.696816e+01	-2.127296e+02
2.730000e-06	-2.473227e-06	-3.446462e-09	-1.761797e+01	-2.264511e+02
2.740000e-06	-2.563594e-06	-3.650117e-09	-1.826170e+01	-2.397604e+02
2.750000e-06	-2.653009e-06	-3.847561e-09	-1.889864e+01	-2.526454e+02
2.760000e-06	-2.741566e-06	-4.041217e-09	-1.952948e+01	-2.651018e+02
2.770000e-06	-2.829394e-06	-4.231194e-09	-2.015512e+01	-2.771307e+02
2.780000e-06	-2.916386e-06	-4.412872e-09	-2.077480e+01	-2.887369e+02
2.790000e-06	-3.002160e-06	-4.582540e-09	-2.138581e+01	-2.999273e+02
2.800000e-06	-3.086607e-06	-4.742003e-09	-2.198737e+01	-3.107109e+02
2.810000e-06	-3.169984e-06	-4.894669e-09	-2.258130e+01	-3.210978e+02
2.820000e-06	-3.252340e-06	-5.044689e-09	-2.316796e+01	-3.310996e+02
2.830000e-06	-3.333613e-06	-5.192225e-09	-2.374691e+01	-3.407281e+02
2.840000e-06	-3.413859e-06	-5.335472e-09	-2.431854e+01	-3.499948e+02
2.850000e-06	-3.492967e-06	-5.474345e-09	-2.488206e+01	-3.589097e+02
2.860000e-06	-3.570575e-06	-5.607012e-09	-2.543490e+01	-3.674802e+02
2.870000e-06	-3.646592e-06	-5.734416e-09	-2.597641e+01	-3.757109e+02
2.880000e-06	-3.721196e-06	-5.858163e-09	-2.650785e+01	-3.836040e+02
2.890000e-06	-3.794481e-06	-5.975412e-09	-2.702989e+01	-3.911605e+02
2.900000e-06	-3.866511e-06	-6.084974e-09	-2.754300e+01	-3.983827e+02
2.910000e-06	-3.937125e-06	-6.188733e-09	-2.804602e+01	-4.052763e+02
2.920000e-06	-4.006125e-06	-6.290240e-09	-2.853753e+01	-4.118522e+02
2.930000e-06	-4.073615e-06	-6.388710e-09	-2.901830e+01	-4.181279e+02
2.940000e-06	-4.139699e-06	-6.481068e-09	-2.948904e+01	-4.241262e+02
