# Temperatura_=_26.57
# Concentracion g/m^3_=_15000.0
# C_Vs_to_Am_M_A/Vsm_=_65563218390.804596
# pendiente_HvsI_1/m_=_3716.3
# ordenada_HvsI_A/m_=_1297.0
# frecuencia_Hz_=_301597.01193284563

Tiempo_(s)	Campo_(V.s)	Magnetizacion_(V.s)	Campo_(kA/m)	Magnetizacion_(A/m)
0.000000e+00	-5.395152e-06	-5.650681e-09	-3.833724e+01	-3.688866e+02
1.000000e-08	-5.392648e-06	-5.648280e-09	-3.831944e+01	-3.687447e+02
2.000000e-08	-5.388356e-06	-5.642821e-09	-3.828894e+01	-3.685552e+02
3.000000e-08	-5.382449e-06	-5.637131e-09	-3.824697e+01	-3.683102e+02
4.000000e-08	-5.374975e-06	-5.630617e-09	-3.819386e+01	-3.679969e+02
5.000000e-08	-5.365691e-06	-5.622384e-09	-3.812789e+01	-3.676010e+02
6.000000e-08	-5.354306e-06	-5.612524e-09	-3.804699e+01	-3.671113e+02
7.000000e-08	-5.341016e-06	-5.597457e-09	-3.795255e+01	-3.665241e+02
8.000000e-08	-5.325707e-06	-5.584697e-09	-3.784377e+01	-3.658453e+02
9.000000e-08	-5.308164e-06	-5.625716e-09	-3.771911e+01	-3.650909e+02
1.000000e-07	-5.288538e-06	-5.629755e-09	-3.757965e+01	-3.642840e+02
1.100000e-07	-5.266977e-06	-5.574762e-09	-3.742645e+01	-3.634506e+02
1.200000e-07	-5.243665e-06	-5.557315e-09	-3.726079e+01	-3.626132e+02
1.300000e-07	-5.218769e-06	-5.473366e-09	-3.708389e+01	-3.617856e+02
1.400000e-07	-5.192258e-06	-5.436971e-09	-3.689550e+01	-3.609691e+02
1.500000e-07	-5.164149e-06	-5.590615e-09	-3.669576e+01	-3.601510e+02
1.600000e-07	-5.134540e-06	-5.491084e-09	-3.648536e+01	-3.593070e+02
1.700000e-07	-5.103383e-06	-5.436285e-09	-3.626397e+01	-3.584057e+02
1.800000e-07	-5.070230e-06	-5.541827e-09	-3.602838e+01	-3.574146e+02
1.900000e-07	-5.035170e-06	-5.385705e-09	-3.577926e+01	-3.563074e+02
2.000000e-07	-4.998634e-06	-5.379259e-09	-3.551963e+01	-3.550684e+02
2.100000e-07	-4.960326e-06	-5.429704e-09	-3.524742e+01	-3.536954e+02
2.200000e-07	-4.920129e-06	-5.299768e-09	-3.496178e+01	-3.521992e+02
2.300000e-07	-4.878016e-06	-5.309738e-09	-3.466254e+01	-3.506003e+02
2.400000e-07	-4.833959e-06	-5.345851e-09	-3.434947e+01	-3.489232e+02
2.500000e-07	-4.788144e-06	-5.305997e-09	-3.402392e+01	-3.471906e+02
2.600000e-07	-4.740487e-06	-5.293866e-09	-3.368528e+01	-3.454180e+02
2.700000e-07	-4.690797e-06	-5.205056e-09	-3.333219e+01	-3.436108e+02
2.800000e-07	-4.639033e-06	-5.184268e-09	-3.296436e+01	-3.417636e+02
2.900000e-07	-4.585324e-06	-5.192503e-09	-3.258271e+01	-3.398629e+02
3.000000e-07	-4.530019e-06	-5.161756e-09	-3.218972e+01	-3.378909e+02
3.100000e-07	-4.473063e-06	-5.127244e-09	-3.178499e+01	-3.358305e+02
3.200000e-07	-4.414271e-06	-5.081226e-09	-3.136723e+01	-3.336700e+02
3.300000e-07	-4.353885e-06	-5.040802e-09	-3.093814e+01	-3.314052e+02
3.400000e-07	-4.292017e-06	-4.978505e-09	-3.049851e+01	-3.290404e+02
3.500000e-07	-4.228753e-06	-4.971132e-09	-3.004896e+01	-3.265861e+02
3.600000e-07	-4.163963e-06	-4.958072e-09	-2.958857e+01	-3.240558e+02
3.700000e-07	-4.097518e-06	-4.887282e-09	-2.911642e+01	-3.214619e+02
3.800000e-07	-4.029517e-06	-4.847118e-09	-2.863321e+01	-3.188119e+02
3.900000e-07	-3.960062e-06	-4.817872e-09	-2.813968e+01	-3.161067e+02
4.000000e-07	-3.889387e-06	-4.774445e-09	-2.763747e+01	-3.133400e+02
4.100000e-07	-3.817527e-06	-4.717963e-09	-2.712684e+01	-3.105001e+02
4.200000e-07	-3.744198e-06	-4.668251e-09	-2.660578e+01	-3.075731e+02
4.300000e-07	-3.669230e-06	-4.637519e-09	-2.607307e+01	-3.045463e+02
4.400000e-07	-3.592779e-06	-4.592325e-09	-2.552981e+01	-3.014108e+02
4.500000e-07	-3.514894e-06	-4.551487e-09	-2.497637e+01	-2.981639e+02
4.600000e-07	-3.435595e-06	-4.506305e-09	-2.441288e+01	-2.948086e+02
4.700000e-07	-3.355087e-06	-4.443866e-09	-2.384081e+01	-2.913522e+02
4.800000e-07	-3.273330e-06	-4.372042e-09	-2.325985e+01	-2.878040e+02
4.900000e-07	-3.190410e-06	-4.306675e-09	-2.267063e+01	-2.841720e+02
5.000000e-07	-3.106511e-06	-4.269010e-09	-2.207446e+01	-2.804611e+02
5.100000e-07	-3.021635e-06	-4.220757e-09	-2.147134e+01	-2.766713e+02
5.200000e-07	-2.935821e-06	-4.156784e-09	-2.086156e+01	-2.727980e+02
5.300000e-07	-2.849088e-06	-4.087733e-09	-2.024524e+01	-2.688335e+02
5.400000e-07	-2.761399e-06	-4.019401e-09	-1.962214e+01	-2.647686e+02
5.500000e-07	-2.672624e-06	-3.959831e-09	-1.899131e+01	-2.605953e+02
5.600000e-07	-2.582726e-06	-3.901098e-09	-1.835251e+01	-2.563082e+02
5.700000e-07	-2.491861e-06	-3.837195e-09	-1.770684e+01	-2.519055e+02
5.800000e-07	-2.400082e-06	-3.762287e-09	-1.705467e+01	-2.473886e+02
5.900000e-07	-2.307367e-06	-3.689134e-09	-1.639584e+01	-2.427613e+02
6.000000e-07	-2.213760e-06	-3.618260e-09	-1.573069e+01	-2.380279e+02
6.100000e-07	-2.119353e-06	-3.546236e-09	-1.505984e+01	-2.331921e+02
6.200000e-07	-2.024334e-06	-3.469571e-09	-1.438465e+01	-2.282553e+02
6.300000e-07	-1.928736e-06	-3.390692e-09	-1.370534e+01	-2.232164e+02
6.400000e-07	-1.832330e-06	-3.314971e-09	-1.302030e+01	-2.180722e+02
6.500000e-07	-1.735088e-06	-3.240259e-09	-1.232931e+01	-2.128180e+02
6.600000e-07	-1.637127e-06	-3.163611e-09	-1.163321e+01	-2.074486e+02
6.700000e-07	-1.538555e-06	-3.075300e-09	-1.093277e+01	-2.019593e+02
6.800000e-07	-1.439467e-06	-2.979551e-09	-1.022866e+01	-1.963463e+02
6.900000e-07	-1.339854e-06	-2.886574e-09	-9.520824e+00	-1.906066e+02
7.000000e-07	-1.239782e-06	-2.801416e-09	-8.809730e+00	-1.847383e+02
7.100000e-07	-1.139338e-06	-2.716781e-09	-8.095984e+00	-1.787393e+02
7.200000e-07	-1.038608e-06	-2.624617e-09	-7.380211e+00	-1.726078e+02
7.300000e-07	-9.375713e-07	-2.524922e-09	-6.662258e+00	-1.663423e+02
7.400000e-07	-8.362121e-07	-2.423468e-09	-5.942013e+00	-1.599412e+02
7.500000e-07	-7.345616e-07	-2.324650e-09	-5.219698e+00	-1.534041e+02
7.600000e-07	-6.326269e-07	-2.226113e-09	-4.495363e+00	-1.467319e+02
7.700000e-07	-5.304688e-07	-2.124592e-09	-3.769442e+00	-1.399268e+02
7.800000e-07	-4.281265e-07	-2.016877e-09	-3.042211e+00	-1.329921e+02
7.900000e-07	-3.256302e-07	-1.907376e-09	-2.313885e+00	-1.259308e+02
8.000000e-07	-2.229950e-07	-1.798552e-09	-1.584573e+00	-1.187441e+02
8.100000e-07	-1.203053e-07	-1.690344e-09	-8.548737e-01	-1.114303e+02
8.200000e-07	-1.761440e-08	-1.579019e-09	-1.251656e-01	-1.039829e+02
8.300000e-07	8.511140e-08	-1.460946e-09	6.047904e-01	-9.639103e+01
8.400000e-07	1.878824e-07	-1.339928e-09	1.335068e+00	-8.863942e+01
8.500000e-07	2.906209e-07	-1.219730e-09	2.065114e+00	-8.071039e+01
8.600000e-07	3.932854e-07	-1.100214e-09	2.794634e+00	-7.258606e+01
8.700000e-07	4.958347e-07	-9.750786e-10	3.523336e+00	-6.425085e+01
8.800000e-07	5.982274e-07	-8.430950e-10	4.250925e+00	-5.569360e+01
8.900000e-07	7.003860e-07	-7.074028e-10	4.976850e+00	-4.690887e+01
9.000000e-07	8.022951e-07	-5.696092e-10	5.701003e+00	-3.789704e+01
9.100000e-07	9.039209e-07	-4.295764e-10	6.423143e+00	-2.866333e+01
9.200000e-07	1.005197e-06	-2.871846e-10	7.142797e+00	-1.921610e+01
9.300000e-07	1.106138e-06	-1.418762e-10	7.860072e+00	-9.564940e+00
9.400000e-07	1.206714e-06	8.928317e-12	8.574748e+00	2.809227e-01
9.500000e-07	1.306946e-06	1.629736e-10	9.286984e+00	1.031320e+01
9.600000e-07	1.406725e-06	3.191436e-10	9.996005e+00	2.052409e+01
9.700000e-07	1.505975e-06	4.785916e-10	1.070126e+01	3.090469e+01
9.800000e-07	1.604658e-06	6.418843e-10	1.140249e+01	4.144288e+01
9.900000e-07	1.702599e-06	8.076583e-10	1.209844e+01	5.212103e+01
1.000000e-06	1.799729e-06	9.731515e-10	1.278864e+01	6.291449e+01
1.010000e-06	1.896054e-06	1.138944e-09	1.347311e+01	7.379097e+01
1.020000e-06	1.991652e-06	1.304268e-09	1.415241e+01	8.471146e+01
1.030000e-06	2.086559e-06	1.469367e-09	1.482681e+01	9.563220e+01
1.040000e-06	2.180687e-06	1.635594e-09	1.549568e+01	1.065075e+02
1.050000e-06	2.274042e-06	1.801154e-09	1.615904e+01	1.172928e+02
1.060000e-06	2.366679e-06	1.965650e-09	1.681731e+01	1.279471e+02
1.070000e-06	2.458666e-06	2.126331e-09	1.747096e+01	1.384346e+02
1.080000e-06	2.549967e-06	2.283127e-09	1.811973e+01	1.487253e+02
1.090000e-06	2.640275e-06	2.437762e-09	1.876145e+01	1.587939e+02
1.100000e-06	2.729306e-06	2.589172e-09	1.939409e+01	1.686193e+02
1.110000e-06	2.817231e-06	2.733622e-09	2.001887e+01	1.781825e+02
1.120000e-06	2.904260e-06	2.872786e-09	2.063729e+01	1.874660e+02
1.130000e-06	2.990392e-06	3.008060e-09	2.124933e+01	1.964533e+02
1.140000e-06	3.075570e-06	3.139913e-09	2.185460e+01	2.051296e+02
1.150000e-06	3.159797e-06	3.266216e-09	2.245310e+01	2.134833e+02
1.160000e-06	3.243119e-06	3.385711e-09	2.304518e+01	2.215069e+02
1.170000e-06	3.325259e-06	3.500914e-09	2.362885e+01	2.291987e+02
1.180000e-06	3.406079e-06	3.613114e-09	2.420315e+01	2.365632e+02
1.190000e-06	3.485680e-06	3.720164e-09	2.476878e+01	2.436111e+02
1.200000e-06	3.564039e-06	3.822186e-09	2.532559e+01	2.503575e+02
1.210000e-06	3.641133e-06	3.922159e-09	2.587341e+01	2.568204e+02
1.220000e-06	3.716965e-06	4.016605e-09	2.641227e+01	2.630189e+02
1.230000e-06	3.791310e-06	4.105099e-09	2.694055e+01	2.689705e+02
1.240000e-06	3.863968e-06	4.188865e-09	2.745685e+01	2.746910e+02
1.250000e-06	3.935168e-06	4.270893e-09	2.796278e+01	2.801930e+02
1.260000e-06	4.004984e-06	4.350478e-09	2.845888e+01	2.854871e+02
1.270000e-06	4.073428e-06	4.427699e-09	2.894524e+01	2.905818e+02
1.280000e-06	4.140531e-06	4.502855e-09	2.942207e+01	2.954847e+02
1.290000e-06	4.205957e-06	4.575658e-09	2.988698e+01	3.002032e+02
1.300000e-06	4.269678e-06	4.643758e-09	3.033977e+01	3.047437e+02
1.310000e-06	4.331950e-06	4.708243e-09	3.078227e+01	3.091122e+02
1.320000e-06	4.392842e-06	4.772389e-09	3.121496e+01	3.133127e+02
1.330000e-06	4.452416e-06	4.834108e-09	3.163828e+01	3.173469e+02
1.340000e-06	4.510345e-06	4.891524e-09	3.204991e+01	3.212143e+02
1.350000e-06	4.566412e-06	4.946067e-09	3.244832e+01	3.249117e+02
1.360000e-06	4.620866e-06	4.998074e-09	3.283526e+01	3.284350e+02
1.370000e-06	4.673709e-06	5.045704e-09	3.321076e+01	3.317804e+02
1.380000e-06	4.724660e-06	5.090436e-09	3.357281e+01	3.349459e+02
1.390000e-06	4.773548e-06	5.134841e-09	3.392020e+01	3.379324e+02
1.400000e-06	4.820593e-06	5.177348e-09	3.425450e+01	3.407446e+02
1.410000e-06	4.866007e-06	5.215841e-09	3.457720e+01	3.433903e+02
1.420000e-06	4.909893e-06	5.251760e-09	3.488905e+01	3.458793e+02
1.430000e-06	4.951934e-06	5.286048e-09	3.518779e+01	3.482216e+02
1.440000e-06	4.992049e-06	5.318030e-09	3.547284e+01	3.504258e+02
1.450000e-06	5.030534e-06	5.347140e-09	3.574631e+01	3.524980e+02
1.460000e-06	5.067415e-06	5.374318e-09	3.600838e+01	3.544413e+02
1.470000e-06	5.102653e-06	5.401539e-09	3.625878e+01	3.562563e+02
1.480000e-06	5.135911e-06	5.426769e-09	3.649510e+01	3.579425e+02
1.490000e-06	5.167225e-06	5.447822e-09	3.671762e+01	3.595002e+02
1.500000e-06	5.196870e-06	5.467133e-09	3.692827e+01	3.609313e+02
1.510000e-06	5.224907e-06	5.485621e-09	3.712750e+01	3.622406e+02
1.520000e-06	5.251014e-06	5.503847e-09	3.731301e+01	3.634351e+02
1.530000e-06	5.274970e-06	5.521402e-09	3.748324e+01	3.645232e+02
1.540000e-06	5.297045e-06	5.536697e-09	3.764010e+01	3.655126e+02
1.550000e-06	5.317402e-06	5.550274e-09	3.778476e+01	3.664084e+02
1.560000e-06	5.335945e-06	5.563428e-09	3.791652e+01	3.672121e+02
1.570000e-06	5.352485e-06	5.574459e-09	3.803405e+01	3.679213e+02
1.580000e-06	5.367021e-06	5.582292e-09	3.813734e+01	3.685308e+02
1.590000e-06	5.379583e-06	5.589593e-09	3.822661e+01	3.690348e+02
1.600000e-06	5.389966e-06	5.596295e-09	3.830038e+01	3.694293e+02
1.610000e-06	5.398203e-06	5.602283e-09	3.835891e+01	3.697144e+02
1.620000e-06	5.404544e-06	5.607195e-09	3.840398e+01	3.698960e+02
1.630000e-06	5.409131e-06	5.610630e-09	3.843657e+01	3.699848e+02
1.640000e-06	5.411809e-06	5.612391e-09	3.845560e+01	3.699952e+02
1.650000e-06	5.412428e-06	5.615462e-09	3.846000e+01	3.699419e+02
1.660000e-06	5.411232e-06	5.616241e-09	3.845150e+01	3.698365e+02
1.670000e-06	5.408395e-06	5.610617e-09	3.843134e+01	3.696844e+02
1.680000e-06	5.403887e-06	5.608222e-09	3.839931e+01	3.694835e+02
1.690000e-06	5.397432e-06	5.605726e-09	3.835344e+01	3.692249e+02
1.700000e-06	5.389124e-06	5.602208e-09	3.829440e+01	3.688948e+02
1.710000e-06	5.379283e-06	5.599378e-09	3.822448e+01	3.684792e+02
1.720000e-06	5.367817e-06	5.598009e-09	3.814300e+01	3.679683e+02
1.730000e-06	5.354394e-06	5.609000e-09	3.804762e+01	3.673604e+02
1.740000e-06	5.338842e-06	5.546761e-09	3.793711e+01	3.666634e+02
1.750000e-06	5.321012e-06	5.502820e-09	3.781041e+01	3.658954e+02
1.760000e-06	5.300539e-06	5.530212e-09	3.766493e+01	3.650804e+02
1.770000e-06	5.277591e-06	5.516645e-09	3.750187e+01	3.642442e+02
1.780000e-06	5.253150e-06	5.609357e-09	3.732819e+01	3.634078e+02
1.790000e-06	5.228047e-06	5.577571e-09	3.714981e+01	3.625827e+02
1.800000e-06	5.201761e-06	5.383610e-09	3.696303e+01	3.617671e+02
1.810000e-06	5.173177e-06	5.510995e-09	3.675991e+01	3.609456e+02
1.820000e-06	5.142593e-06	5.463413e-09	3.654259e+01	3.600918e+02
1.830000e-06	5.110454e-06	5.357054e-09	3.631421e+01	3.591736e+02
1.840000e-06	5.076414e-06	5.565101e-09	3.607233e+01	3.581593e+02
1.850000e-06	5.040767e-06	5.449943e-09	3.581902e+01	3.570244e+02
1.860000e-06	5.003434e-06	5.371341e-09	3.555374e+01	3.557561e+02
1.870000e-06	4.964150e-06	5.507178e-09	3.527460e+01	3.543552e+02
1.880000e-06	4.923230e-06	5.357400e-09	3.498382e+01	3.528348e+02
1.890000e-06	4.880491e-06	5.335574e-09	3.468012e+01	3.512167e+02
1.900000e-06	4.836019e-06	5.325860e-09	3.436411e+01	3.495257e+02
1.910000e-06	4.789847e-06	5.257623e-09	3.403602e+01	3.477833e+02
1.920000e-06	4.741609e-06	5.377488e-09	3.369325e+01	3.460029e+02
1.930000e-06	4.691683e-06	5.249244e-09	3.333848e+01	3.441876e+02
1.940000e-06	4.640030e-06	5.211292e-09	3.297144e+01	3.423300e+02
1.950000e-06	4.586255e-06	5.241278e-09	3.258933e+01	3.404153e+02
1.960000e-06	4.530563e-06	5.123137e-09	3.219358e+01	3.384254e+02
1.970000e-06	4.473157e-06	5.127602e-09	3.178566e+01	3.363441e+02
1.980000e-06	4.414298e-06	5.100123e-09	3.136742e+01	3.341610e+02
1.990000e-06	4.353975e-06	5.115357e-09	3.093877e+01	3.318739e+02
2.000000e-06	4.291970e-06	5.052972e-09	3.049817e+01	3.294886e+02
2.010000e-06	4.228345e-06	4.954212e-09	3.004606e+01	3.270166e+02
2.020000e-06	4.163166e-06	5.001757e-09	2.958291e+01	3.244714e+02
2.030000e-06	4.096576e-06	4.914686e-09	2.910973e+01	3.218648e+02
2.040000e-06	4.028530e-06	4.869676e-09	2.862620e+01	3.192029e+02
2.050000e-06	3.958930e-06	4.861329e-09	2.813164e+01	3.164850e+02
2.060000e-06	3.887902e-06	4.822138e-09	2.762692e+01	3.137035e+02
2.070000e-06	3.815490e-06	4.778521e-09	2.711237e+01	3.108458e+02
2.080000e-06	3.741755e-06	4.676180e-09	2.658841e+01	3.078981e+02
2.090000e-06	3.666667e-06	4.663090e-09	2.605485e+01	3.048483e+02
2.100000e-06	3.590064e-06	4.616108e-09	2.551052e+01	3.016887e+02
2.110000e-06	3.511899e-06	4.550129e-09	2.495509e+01	2.984178e+02
2.120000e-06	3.432363e-06	4.507358e-09	2.438992e+01	2.950399e+02
2.130000e-06	3.351670e-06	4.472323e-09	2.381652e+01	2.915628e+02
2.140000e-06	3.269833e-06	4.442597e-09	2.323500e+01	2.879957e+02
2.150000e-06	3.186929e-06	4.354321e-09	2.264590e+01	2.843463e+02
2.160000e-06	3.103031e-06	4.294226e-09	2.204973e+01	2.806184e+02
2.170000e-06	3.017981e-06	4.232482e-09	2.144537e+01	2.768109e+02
2.180000e-06	2.931661e-06	4.175219e-09	2.083199e+01	2.729185e+02
2.190000e-06	2.844198e-06	4.124614e-09	2.021050e+01	2.689330e+02
2.200000e-06	2.755674e-06	4.061428e-09	1.958145e+01	2.648452e+02
2.210000e-06	2.666200e-06	4.002369e-09	1.894567e+01	2.606476e+02
2.220000e-06	2.575845e-06	3.925812e-09	1.830361e+01	2.563355e+02
2.230000e-06	2.484612e-06	3.856715e-09	1.765533e+01	2.519078e+02
2.240000e-06	2.392632e-06	3.790810e-09	1.700173e+01	2.473666e+02
2.250000e-06	2.299790e-06	3.729799e-09	1.634200e+01	2.427159e+02
2.260000e-06	2.206026e-06	3.659230e-09	1.567573e+01	2.379601e+02
2.270000e-06	2.111391e-06	3.578493e-09	1.500327e+01	2.331023e+02
2.280000e-06	2.015872e-06	3.494234e-09	1.432452e+01	2.281435e+02
2.290000e-06	1.919502e-06	3.413474e-09	1.363973e+01	2.230821e+02
2.300000e-06	1.822483e-06	3.336933e-09	1.295032e+01	2.179145e+02
2.310000e-06	1.725016e-06	3.253862e-09	1.225773e+01	2.126358e+02
2.320000e-06	1.626986e-06	3.176477e-09	1.156115e+01	2.072408e+02
2.330000e-06	1.528338e-06	3.098560e-09	1.086017e+01	2.017250e+02
2.340000e-06	1.429234e-06	3.017514e-09	1.015595e+01	1.960848e+02
2.350000e-06	1.329807e-06	2.928970e-09	9.449434e+00	1.903175e+02
2.360000e-06	1.230057e-06	2.834118e-09	8.740624e+00	1.844210e+02
2.370000e-06	1.130038e-06	2.736766e-09	8.029897e+00	1.783935e+02
2.380000e-06	1.029729e-06	2.638930e-09	7.317117e+00	1.722332e+02
2.390000e-06	9.289102e-07	2.546385e-09	6.600713e+00	1.659384e+02
2.400000e-06	8.275331e-07	2.455198e-09	5.880341e+00	1.595079e+02
2.410000e-06	7.257709e-07	2.357732e-09	5.157232e+00	1.529414e+02
2.420000e-06	6.237205e-07	2.250495e-09	4.432075e+00	1.462402e+02
2.430000e-06	5.214182e-07	2.140897e-09	3.705129e+00	1.394069e+02
2.440000e-06	4.189321e-07	2.034325e-09	2.976876e+00	1.324445e+02
2.450000e-06	3.163369e-07	1.930656e-09	2.247849e+00	1.253560e+02
2.460000e-06	2.136234e-07	1.823073e-09	1.517980e+00	1.181421e+02
2.470000e-06	1.107478e-07	1.707697e-09	7.869589e-01	1.108001e+02
2.480000e-06	7.834937e-09	1.588460e-09	5.567403e-02	1.033226e+02
2.490000e-06	-9.505299e-08	1.469195e-09	-6.754340e-01	9.569758e+01
2.500000e-06	-1.979345e-07	1.351283e-09	-1.406497e+00	8.790921e+01
2.510000e-06	-3.007822e-07	1.232491e-09	-2.137318e+00	7.993953e+01
2.520000e-06	-4.035445e-07	1.109673e-09	-2.867534e+00	7.177092e+01
2.530000e-06	-5.061614e-07	9.799531e-10	-3.596716e+00	6.338861e+01
2.540000e-06	-6.085969e-07	8.467794e-10	-4.324609e+00	5.478260e+01
2.550000e-06	-7.107494e-07	7.128142e-10	-5.050491e+00	4.594871e+01
2.560000e-06	-8.125071e-07	5.737706e-10	-5.773568e+00	3.688848e+01
2.570000e-06	-9.138531e-07	4.279714e-10	-6.493719e+00	2.760797e+01
2.580000e-06	-1.014727e-06	2.799048e-10	-7.210517e+00	1.811596e+01
2.590000e-06	-1.115106e-06	1.328552e-10	-7.923798e+00	8.422049e+00
2.600000e-06	-1.215101e-06	-1.363336e-11	-8.634346e+00	-1.464701e+00
2.610000e-06	-1.314716e-06	-1.632320e-10	-9.342201e+00	-1.153619e+01
2.620000e-06	-1.413935e-06	-3.177150e-10	-1.004724e+01	-2.178455e+01
2.630000e-06	-1.512740e-06	-4.783519e-10	-1.074933e+01	-3.220037e+01
2.640000e-06	-1.610992e-06	-6.410912e-10	-1.144750e+01	-4.277052e+01
2.650000e-06	-1.708610e-06	-8.014340e-10	-1.214116e+01	-5.347600e+01
2.660000e-06	-1.805614e-06	-9.631640e-10	-1.283046e+01	-6.429049e+01
2.670000e-06	-1.902092e-06	-1.128973e-09	-1.351602e+01	-7.518016e+01
2.680000e-06	-1.998068e-06	-1.297955e-09	-1.419800e+01	-8.610477e+01
2.690000e-06	-2.093414e-06	-1.466366e-09	-1.487552e+01	-9.701990e+01
2.700000e-06	-2.187962e-06	-1.632053e-09	-1.554737e+01	-1.078799e+02
2.710000e-06	-2.281476e-06	-1.793595e-09	-1.621187e+01	-1.186406e+02
2.720000e-06	-2.373932e-06	-1.951931e-09	-1.686885e+01	-1.292623e+02
2.730000e-06	-2.465575e-06	-2.108698e-09	-1.752005e+01	-1.397103e+02
2.740000e-06	-2.556362e-06	-2.263651e-09	-1.816517e+01	-1.499556e+02
2.750000e-06	-2.646152e-06	-2.415539e-09	-1.880320e+01	-1.599741e+02
2.760000e-06	-2.735010e-06	-2.564041e-09	-1.943462e+01	-1.697451e+02
2.770000e-06	-2.823104e-06	-2.711708e-09	-2.006061e+01	-1.792501e+02
2.780000e-06	-2.910436e-06	-2.858662e-09	-2.068117e+01	-1.884717e+02
2.790000e-06	-2.996686e-06	-2.998448e-09	-2.129406e+01	-1.973938e+02
2.800000e-06	-3.081593e-06	-3.128386e-09	-2.189740e+01	-2.060021e+02
2.810000e-06	-3.165309e-06	-3.252417e-09	-2.249227e+01	-2.142858e+02
2.820000e-06	-3.248033e-06	-3.371973e-09	-2.308009e+01	-2.222385e+02
2.830000e-06	-3.329688e-06	-3.487181e-09	-2.366032e+01	-2.298598e+02
2.840000e-06	-3.410276e-06	-3.600765e-09	-2.423297e+01	-2.371557e+02
2.850000e-06	-3.489736e-06	-3.711639e-09	-2.479760e+01	-2.441378e+02
2.860000e-06	-3.567742e-06	-3.816346e-09	-2.535190e+01	-2.508222e+02
2.870000e-06	-3.644177e-06	-3.914814e-09	-2.589504e+01	-2.572271e+02
2.880000e-06	-3.719235e-06	-4.010490e-09	-2.642839e+01	-2.633715e+02
2.890000e-06	-3.792922e-06	-4.101951e-09	-2.695200e+01	-2.692727e+02
2.900000e-06	-3.865288e-06	-4.187333e-09	-2.746622e+01	-2.749456e+02
2.910000e-06	-3.936384e-06	-4.269746e-09	-2.797142e+01	-2.804026e+02
2.920000e-06	-4.005875e-06	-4.348942e-09	-2.846522e+01	-2.856535e+02
2.930000e-06	-4.073761e-06	-4.424898e-09	-2.894761e+01	-2.907068e+02
2.940000e-06	-4.140262e-06	-4.499415e-09	-2.942015e+01	-2.955699e+02
