# Temperatura_=_44.63
# Concentracion g/m^3_=_15000.0
# C_Vs_to_Am_M_A/Vsm_=_65563218390.804596
# pendiente_HvsI_1/m_=_3716.3
# ordenada_HvsI_A/m_=_1297.0
# frecuencia_Hz_=_301593.30887688266

Tiempo_(s)	Campo_(V.s)	Magnetizacion_(V.s)	Campo_(kA/m)	Magnetizacion_(A/m)
0.000000e+00	-5.361222e-06	-6.072484e-09	-3.833681e+01	-3.967739e+02
1.000000e-08	-5.358502e-06	-6.068886e-09	-3.831736e+01	-3.966164e+02
2.000000e-08	-5.353926e-06	-6.062388e-09	-3.828464e+01	-3.964066e+02
3.000000e-08	-5.347679e-06	-6.056171e-09	-3.823997e+01	-3.961394e+02
4.000000e-08	-5.339877e-06	-6.051367e-09	-3.818418e+01	-3.958041e+02
5.000000e-08	-5.330282e-06	-6.045098e-09	-3.811556e+01	-3.953876e+02
6.000000e-08	-5.318629e-06	-6.035573e-09	-3.803224e+01	-3.948788e+02
7.000000e-08	-5.305143e-06	-6.022481e-09	-3.793580e+01	-3.942718e+02
8.000000e-08	-5.289623e-06	-6.021144e-09	-3.782482e+01	-3.935691e+02
9.000000e-08	-5.271782e-06	-6.043404e-09	-3.769724e+01	-3.927814e+02
1.000000e-07	-5.251873e-06	-6.029354e-09	-3.755488e+01	-3.919258e+02
1.100000e-07	-5.230097e-06	-5.989640e-09	-3.739916e+01	-3.910226e+02
1.200000e-07	-5.206638e-06	-5.955301e-09	-3.723142e+01	-3.900895e+02
1.300000e-07	-5.181696e-06	-5.895550e-09	-3.705306e+01	-3.891384e+02
1.400000e-07	-5.155094e-06	-5.912980e-09	-3.686284e+01	-3.881711e+02
1.500000e-07	-5.126844e-06	-5.956474e-09	-3.666083e+01	-3.871792e+02
1.600000e-07	-5.097160e-06	-5.893276e-09	-3.644856e+01	-3.861450e+02
1.700000e-07	-5.065946e-06	-5.909438e-09	-3.622536e+01	-3.850453e+02
1.800000e-07	-5.032592e-06	-5.895971e-09	-3.598686e+01	-3.838559e+02
1.900000e-07	-4.997279e-06	-5.783392e-09	-3.573434e+01	-3.825568e+02
2.000000e-07	-4.960575e-06	-5.792810e-09	-3.547188e+01	-3.811357e+02
2.100000e-07	-4.922178e-06	-5.773113e-09	-3.519731e+01	-3.795896e+02
2.200000e-07	-4.882050e-06	-5.727646e-09	-3.491036e+01	-3.779251e+02
2.300000e-07	-4.839950e-06	-5.757674e-09	-3.460932e+01	-3.761555e+02
2.400000e-07	-4.795862e-06	-5.714532e-09	-3.429406e+01	-3.742968e+02
2.500000e-07	-4.750055e-06	-5.673440e-09	-3.396650e+01	-3.723643e+02
2.600000e-07	-4.702383e-06	-5.655183e-09	-3.362561e+01	-3.703687e+02
2.700000e-07	-4.652721e-06	-5.593533e-09	-3.327049e+01	-3.683142e+02
2.800000e-07	-4.600935e-06	-5.588183e-09	-3.290018e+01	-3.661983e+02
2.900000e-07	-4.547205e-06	-5.561893e-09	-3.251597e+01	-3.640135e+02
3.000000e-07	-4.491899e-06	-5.497690e-09	-3.212049e+01	-3.617497e+02
3.100000e-07	-4.434977e-06	-5.480955e-09	-3.171345e+01	-3.593974e+02
3.200000e-07	-4.376249e-06	-5.463299e-09	-3.129351e+01	-3.569498e+02
3.300000e-07	-4.315935e-06	-5.403136e-09	-3.086221e+01	-3.544046e+02
3.400000e-07	-4.254168e-06	-5.342410e-09	-3.042053e+01	-3.517639e+02
3.500000e-07	-4.191005e-06	-5.317534e-09	-2.996887e+01	-3.490327e+02
3.600000e-07	-4.126399e-06	-5.276418e-09	-2.950688e+01	-3.462176e+02
3.700000e-07	-4.060079e-06	-5.232799e-09	-2.903265e+01	-3.433244e+02
3.800000e-07	-3.992146e-06	-5.205419e-09	-2.854688e+01	-3.403562e+02
3.900000e-07	-3.922876e-06	-5.145744e-09	-2.805154e+01	-3.373129e+02
4.000000e-07	-3.852369e-06	-5.079213e-09	-2.754736e+01	-3.341913e+02
4.100000e-07	-3.780723e-06	-5.024716e-09	-2.703504e+01	-3.309860e+02
4.200000e-07	-3.707757e-06	-4.985830e-09	-2.651328e+01	-3.276908e+02
4.300000e-07	-3.633178e-06	-4.950820e-09	-2.597998e+01	-3.243004e+02
4.400000e-07	-3.557016e-06	-4.902970e-09	-2.543537e+01	-3.208108e+02
4.500000e-07	-3.479464e-06	-4.845523e-09	-2.488081e+01	-3.172203e+02
4.600000e-07	-3.400559e-06	-4.778378e-09	-2.431658e+01	-3.135290e+02
4.700000e-07	-3.320291e-06	-4.714299e-09	-2.374260e+01	-3.097378e+02
4.800000e-07	-3.238778e-06	-4.656115e-09	-2.315972e+01	-3.058480e+02
4.900000e-07	-3.156084e-06	-4.598694e-09	-2.256840e+01	-3.018603e+02
5.000000e-07	-3.072340e-06	-4.538278e-09	-2.196957e+01	-2.977744e+02
5.100000e-07	-2.987730e-06	-4.468767e-09	-2.136454e+01	-2.935893e+02
5.200000e-07	-2.902238e-06	-4.400951e-09	-2.075320e+01	-2.893034e+02
5.300000e-07	-2.815685e-06	-4.336083e-09	-2.013428e+01	-2.849152e+02
5.400000e-07	-2.728191e-06	-4.269898e-09	-1.950863e+01	-2.804235e+02
5.500000e-07	-2.639927e-06	-4.198832e-09	-1.887748e+01	-2.758276e+02
5.600000e-07	-2.550559e-06	-4.119250e-09	-1.823843e+01	-2.711268e+02
5.700000e-07	-2.459963e-06	-4.043160e-09	-1.759061e+01	-2.663200e+02
5.800000e-07	-2.368430e-06	-3.976647e-09	-1.693607e+01	-2.614053e+02
5.900000e-07	-2.276171e-06	-3.905392e-09	-1.627635e+01	-2.563797e+02
6.000000e-07	-2.183162e-06	-3.819652e-09	-1.561126e+01	-2.512391e+02
6.100000e-07	-2.089287e-06	-3.732484e-09	-1.493999e+01	-2.459794e+02
6.200000e-07	-1.994643e-06	-3.648898e-09	-1.426321e+01	-2.405972e+02
6.300000e-07	-1.899407e-06	-3.566351e-09	-1.358220e+01	-2.350905e+02
6.400000e-07	-1.803541e-06	-3.487323e-09	-1.289669e+01	-2.294602e+02
6.500000e-07	-1.706975e-06	-3.407550e-09	-1.220617e+01	-2.237091e+02
6.600000e-07	-1.609720e-06	-3.316881e-09	-1.151072e+01	-2.178418e+02
6.700000e-07	-1.511708e-06	-3.213938e-09	-1.080986e+01	-2.118632e+02
6.800000e-07	-1.412948e-06	-3.113057e-09	-1.010365e+01	-2.057767e+02
6.900000e-07	-1.313623e-06	-3.021599e-09	-9.393399e+00	-1.995828e+02
7.000000e-07	-1.213885e-06	-2.932395e-09	-8.680200e+00	-1.932779e+02
7.100000e-07	-1.113855e-06	-2.836012e-09	-7.964908e+00	-1.868547e+02
7.200000e-07	-1.013619e-06	-2.732264e-09	-7.248148e+00	-1.803027e+02
7.300000e-07	-9.131780e-07	-2.628618e-09	-6.529917e+00	-1.736103e+02
7.400000e-07	-8.124606e-07	-2.526063e-09	-5.809710e+00	-1.667667e+02
7.500000e-07	-7.113877e-07	-2.422963e-09	-5.086963e+00	-1.597641e+02
7.600000e-07	-6.100677e-07	-2.315597e-09	-4.362448e+00	-1.525984e+02
7.700000e-07	-5.085693e-07	-2.201642e-09	-3.636657e+00	-1.452691e+02
7.800000e-07	-4.069025e-07	-2.083745e-09	-2.909662e+00	-1.377787e+02
7.900000e-07	-3.050213e-07	-1.966526e-09	-2.181134e+00	-1.301296e+02
8.000000e-07	-2.029909e-07	-1.851435e-09	-1.451539e+00	-1.223224e+02
8.100000e-07	-1.009119e-07	-1.734283e-09	-7.215965e-01	-1.143533e+02
8.200000e-07	1.238323e-09	-1.609585e-09	8.854947e-03	-1.062129e+02
8.300000e-07	1.034270e-07	-1.477518e-09	7.395818e-01	-9.788661e+01
8.400000e-07	2.055725e-07	-1.345125e-09	1.470000e+00	-8.935617e+01
8.500000e-07	3.076575e-07	-1.215614e-09	2.199985e+00	-8.060201e+01
8.600000e-07	4.096807e-07	-1.081972e-09	2.929528e+00	-7.160639e+01
8.700000e-07	5.115589e-07	-9.380695e-10	3.658035e+00	-6.235601e+01
8.800000e-07	6.132701e-07	-7.881053e-10	4.385347e+00	-5.284366e+01
8.900000e-07	7.147427e-07	-6.373968e-10	5.110953e+00	-4.306849e+01
9.000000e-07	8.159332e-07	-4.845692e-10	5.834542e+00	-3.303503e+01
9.100000e-07	9.168295e-07	-3.277024e-10	6.556027e+00	-2.275121e+01
9.200000e-07	1.017433e-06	-1.672626e-10	7.275419e+00	-1.222613e+01
9.300000e-07	1.117751e-06	-3.043221e-12	7.992770e+00	-1.468408e+00
9.400000e-07	1.217790e-06	1.660785e-10	8.708126e+00	9.514491e+00
9.500000e-07	1.317534e-06	3.376200e-10	9.421371e+00	2.071535e+01
9.600000e-07	1.416756e-06	5.092406e-10	1.013088e+01	3.212507e+01
9.700000e-07	1.515327e-06	6.835052e-10	1.083574e+01	4.372972e+01
9.800000e-07	1.613141e-06	8.627944e-10	1.153518e+01	5.550758e+01
9.900000e-07	1.710157e-06	1.046679e-09	1.222892e+01	6.742696e+01
1.000000e-06	1.806472e-06	1.229863e-09	1.291765e+01	7.944559e+01
1.010000e-06	1.902094e-06	1.410593e-09	1.360142e+01	9.151183e+01
1.020000e-06	1.997037e-06	1.589520e-09	1.428033e+01	1.035675e+02
1.030000e-06	2.091321e-06	1.769048e-09	1.495453e+01	1.155522e+02
1.040000e-06	2.184854e-06	1.950350e-09	1.562337e+01	1.274075e+02
1.050000e-06	2.277617e-06	2.129158e-09	1.628669e+01	1.390810e+02
1.060000e-06	2.369780e-06	2.305158e-09	1.694573e+01	1.505292e+02
1.070000e-06	2.461221e-06	2.475936e-09	1.759960e+01	1.617186e+02
1.080000e-06	2.551575e-06	2.641774e-09	1.824570e+01	1.726246e+02
1.090000e-06	2.640769e-06	2.804495e-09	1.888350e+01	1.832303e+02
1.100000e-06	2.728947e-06	2.962420e-09	1.951404e+01	1.935240e+02
1.110000e-06	2.816211e-06	3.113677e-09	2.013805e+01	2.034962e+02
1.120000e-06	2.902618e-06	3.259160e-09	2.075592e+01	2.131387e+02
1.130000e-06	2.988124e-06	3.400376e-09	2.136736e+01	2.224437e+02
1.140000e-06	3.072698e-06	3.535727e-09	2.197213e+01	2.314040e+02
1.150000e-06	3.156367e-06	3.665128e-09	2.257042e+01	2.400143e+02
1.160000e-06	3.238931e-06	3.789528e-09	2.316082e+01	2.482726e+02
1.170000e-06	3.320245e-06	3.908342e-09	2.374228e+01	2.561808e+02
1.180000e-06	3.400328e-06	4.021564e-09	2.431493e+01	2.637454e+02
1.190000e-06	3.479180e-06	4.130569e-09	2.487878e+01	2.709771e+02
1.200000e-06	3.556856e-06	4.236380e-09	2.543422e+01	2.778893e+02
1.210000e-06	3.633336e-06	4.339222e-09	2.598111e+01	2.844975e+02
1.220000e-06	3.708454e-06	4.434151e-09	2.651826e+01	2.908173e+02
1.230000e-06	3.781906e-06	4.521721e-09	2.704350e+01	2.968642e+02
1.240000e-06	3.853772e-06	4.606779e-09	2.755740e+01	3.026528e+02
1.250000e-06	3.924295e-06	4.691770e-09	2.806169e+01	3.081975e+02
1.260000e-06	3.993481e-06	4.775789e-09	2.855642e+01	3.135127e+02
1.270000e-06	4.061410e-06	4.855766e-09	2.904216e+01	3.186133e+02
1.280000e-06	4.127793e-06	4.929888e-09	2.951686e+01	3.235144e+02
1.290000e-06	4.192419e-06	5.000174e-09	2.997898e+01	3.282305e+02
1.300000e-06	4.255551e-06	5.068689e-09	3.043042e+01	3.327744e+02
1.310000e-06	4.317241e-06	5.134829e-09	3.087155e+01	3.371555e+02
1.320000e-06	4.377557e-06	5.197897e-09	3.130285e+01	3.413784e+02
1.330000e-06	4.436487e-06	5.256784e-09	3.172425e+01	3.454426e+02
1.340000e-06	4.493663e-06	5.313580e-09	3.213310e+01	3.493429e+02
1.350000e-06	4.549071e-06	5.370307e-09	3.252932e+01	3.530706e+02
1.360000e-06	4.602873e-06	5.425067e-09	3.291404e+01	3.566162e+02
1.370000e-06	4.654939e-06	5.474422e-09	3.328635e+01	3.599720e+02
1.380000e-06	4.704973e-06	5.518931e-09	3.364413e+01	3.631343e+02
1.390000e-06	4.753019e-06	5.561687e-09	3.398770e+01	3.661050e+02
1.400000e-06	4.799426e-06	5.602159e-09	3.431954e+01	3.688914e+02
1.410000e-06	4.844324e-06	5.639034e-09	3.464059e+01	3.715051e+02
1.420000e-06	4.887641e-06	5.673171e-09	3.495034e+01	3.739600e+02
1.430000e-06	4.929019e-06	5.705372e-09	3.524623e+01	3.762690e+02
1.440000e-06	4.968530e-06	5.736375e-09	3.552877e+01	3.784425e+02
1.450000e-06	5.006432e-06	5.766534e-09	3.579979e+01	3.804864e+02
1.460000e-06	5.042790e-06	5.795228e-09	3.605978e+01	3.824026e+02
1.470000e-06	5.077409e-06	5.822046e-09	3.630733e+01	3.841898e+02
1.480000e-06	5.110018e-06	5.845478e-09	3.654051e+01	3.858461e+02
1.490000e-06	5.140851e-06	5.864895e-09	3.676099e+01	3.873709e+02
1.500000e-06	5.170069e-06	5.883076e-09	3.696992e+01	3.887673e+02
1.510000e-06	5.197597e-06	5.901268e-09	3.716676e+01	3.900421e+02
1.520000e-06	5.223102e-06	5.919309e-09	3.734915e+01	3.912059e+02
1.530000e-06	5.246530e-06	5.937165e-09	3.751668e+01	3.922707e+02
1.540000e-06	5.268175e-06	5.953894e-09	3.767145e+01	3.932472e+02
1.550000e-06	5.288121e-06	5.968178e-09	3.781408e+01	3.941427e+02
1.560000e-06	5.306192e-06	5.980035e-09	3.794330e+01	3.949590e+02
1.570000e-06	5.322203e-06	5.989410e-09	3.805779e+01	3.956926e+02
1.580000e-06	5.336265e-06	5.997134e-09	3.815835e+01	3.963352e+02
1.590000e-06	5.348369e-06	6.005037e-09	3.824490e+01	3.968771e+02
1.600000e-06	5.358243e-06	6.013194e-09	3.831550e+01	3.973100e+02
1.610000e-06	5.366012e-06	6.021077e-09	3.837106e+01	3.976301e+02
1.620000e-06	5.371938e-06	6.028069e-09	3.841344e+01	3.978395e+02
1.630000e-06	5.376090e-06	6.032553e-09	3.844313e+01	3.979470e+02
1.640000e-06	5.378285e-06	6.034465e-09	3.845882e+01	3.979659e+02
1.650000e-06	5.378450e-06	6.036840e-09	3.846000e+01	3.979110e+02
1.660000e-06	5.376887e-06	6.037144e-09	3.844882e+01	3.977953e+02
1.670000e-06	5.373723e-06	6.034457e-09	3.842620e+01	3.976263e+02
1.680000e-06	5.368879e-06	6.031377e-09	3.839156e+01	3.974045e+02
1.690000e-06	5.362118e-06	6.026691e-09	3.834321e+01	3.971235e+02
1.700000e-06	5.353575e-06	6.020869e-09	3.828213e+01	3.967716e+02
1.710000e-06	5.343504e-06	6.015996e-09	3.821011e+01	3.963359e+02
1.720000e-06	5.331694e-06	6.014730e-09	3.812566e+01	3.958059e+02
1.730000e-06	5.317871e-06	6.011019e-09	3.802681e+01	3.951776e+02
1.740000e-06	5.302020e-06	5.956214e-09	3.791347e+01	3.944552e+02
1.750000e-06	5.283840e-06	5.936876e-09	3.778347e+01	3.936511e+02
1.760000e-06	5.262894e-06	5.952256e-09	3.763369e+01	3.927833e+02
1.770000e-06	5.239672e-06	5.952437e-09	3.746763e+01	3.918720e+02
1.780000e-06	5.215249e-06	6.000046e-09	3.729299e+01	3.909341e+02
1.790000e-06	5.190169e-06	5.928524e-09	3.711365e+01	3.899794e+02
1.800000e-06	5.163686e-06	5.845975e-09	3.692428e+01	3.890076e+02
1.810000e-06	5.134911e-06	5.905203e-09	3.671852e+01	3.880081e+02
1.820000e-06	5.104303e-06	5.827965e-09	3.649965e+01	3.869616e+02
1.830000e-06	5.072065e-06	5.820823e-09	3.626912e+01	3.858443e+02
1.840000e-06	5.037818e-06	5.936326e-09	3.602422e+01	3.846326e+02
1.850000e-06	5.002012e-06	5.851410e-09	3.576819e+01	3.833078e+02
1.860000e-06	4.964506e-06	5.848355e-09	3.549999e+01	3.818595e+02
1.870000e-06	4.925093e-06	5.850526e-09	3.521816e+01	3.802869e+02
1.880000e-06	4.884084e-06	5.718586e-09	3.492491e+01	3.785983e+02
1.890000e-06	4.841195e-06	5.757565e-09	3.461822e+01	3.768079e+02
1.900000e-06	4.796674e-06	5.720733e-09	3.429986e+01	3.749319e+02
1.910000e-06	4.750417e-06	5.690185e-09	3.396909e+01	3.729850e+02
1.920000e-06	4.702055e-06	5.740251e-09	3.362327e+01	3.709763e+02
1.930000e-06	4.652088e-06	5.596982e-09	3.326596e+01	3.689087e+02
1.940000e-06	4.600404e-06	5.592740e-09	3.289638e+01	3.667785e+02
1.950000e-06	4.546632e-06	5.607429e-09	3.251187e+01	3.645773e+02
1.960000e-06	4.490936e-06	5.516032e-09	3.211360e+01	3.622950e+02
1.970000e-06	4.433576e-06	5.494457e-09	3.170344e+01	3.599224e+02
1.980000e-06	4.374792e-06	5.445563e-09	3.128309e+01	3.574537e+02
1.990000e-06	4.314551e-06	5.449846e-09	3.085231e+01	3.548874e+02
2.000000e-06	4.252658e-06	5.395063e-09	3.040973e+01	3.522265e+02
2.010000e-06	4.189095e-06	5.329400e-09	2.995521e+01	3.494765e+02
2.020000e-06	4.123992e-06	5.321467e-09	2.948968e+01	3.466439e+02
2.030000e-06	4.057479e-06	5.233849e-09	2.901405e+01	3.437342e+02
2.040000e-06	3.989621e-06	5.207103e-09	2.852882e+01	3.407497e+02
2.050000e-06	3.920265e-06	5.175270e-09	2.803287e+01	3.376896e+02
2.060000e-06	3.849338e-06	5.143969e-09	2.752569e+01	3.345503e+02
2.070000e-06	3.777087e-06	5.099168e-09	2.700904e+01	3.313260e+02
2.080000e-06	3.703542e-06	4.995138e-09	2.648313e+01	3.280105e+02
2.090000e-06	3.628618e-06	4.950719e-09	2.594737e+01	3.245988e+02
2.100000e-06	3.552358e-06	4.898592e-09	2.540206e+01	3.210874e+02
2.110000e-06	3.474505e-06	4.858265e-09	2.484535e+01	3.174749e+02
2.120000e-06	3.395192e-06	4.808903e-09	2.427820e+01	3.137618e+02
2.130000e-06	3.314811e-06	4.752178e-09	2.370342e+01	3.099490e+02
2.140000e-06	3.233280e-06	4.698385e-09	2.312041e+01	3.060380e+02
2.150000e-06	3.150616e-06	4.614468e-09	2.252930e+01	3.020290e+02
2.160000e-06	3.067010e-06	4.561209e-09	2.193145e+01	2.979216e+02
2.170000e-06	2.982358e-06	4.505246e-09	2.132613e+01	2.937147e+02
2.180000e-06	2.896324e-06	4.441808e-09	2.071091e+01	2.894067e+02
2.190000e-06	2.809011e-06	4.362507e-09	2.008656e+01	2.849961e+02
2.200000e-06	2.720796e-06	4.288536e-09	1.945576e+01	2.804819e+02
2.210000e-06	2.631675e-06	4.236051e-09	1.881847e+01	2.758632e+02
2.220000e-06	2.541636e-06	4.165262e-09	1.817463e+01	2.711395e+02
2.230000e-06	2.450758e-06	4.082498e-09	1.752478e+01	2.663095e+02
2.240000e-06	2.359097e-06	4.002981e-09	1.686933e+01	2.613711e+02
2.250000e-06	2.266720e-06	3.935358e-09	1.620877e+01	2.563209e+02
2.260000e-06	2.173594e-06	3.856272e-09	1.554285e+01	2.511548e+02
2.270000e-06	2.079410e-06	3.776909e-09	1.486936e+01	2.458688e+02
2.280000e-06	1.984120e-06	3.697201e-09	1.418797e+01	2.404597e+02
2.290000e-06	1.888120e-06	3.605014e-09	1.350149e+01	2.349261e+02
2.300000e-06	1.791634e-06	3.506471e-09	1.281154e+01	2.292693e+02
2.310000e-06	1.694703e-06	3.414355e-09	1.211841e+01	2.234925e+02
2.320000e-06	1.597215e-06	3.340041e-09	1.142130e+01	2.176007e+02
2.330000e-06	1.499150e-06	3.260791e-09	1.072006e+01	2.115985e+02
2.340000e-06	1.400566e-06	3.166070e-09	1.001511e+01	2.054887e+02
2.350000e-06	1.301502e-06	3.063349e-09	9.306724e+00	1.992711e+02
2.360000e-06	1.202060e-06	2.964234e-09	8.595642e+00	1.929414e+02
2.370000e-06	1.102399e-06	2.866497e-09	7.882994e+00	1.864912e+02
2.380000e-06	1.002529e-06	2.767727e-09	7.168847e+00	1.799098e+02
2.390000e-06	9.023363e-07	2.666715e-09	6.452389e+00	1.731855e+02
2.400000e-06	8.017876e-07	2.559450e-09	5.733390e+00	1.663082e+02
2.410000e-06	7.009018e-07	2.448911e-09	5.011980e+00	1.592705e+02
2.420000e-06	5.998405e-07	2.336404e-09	4.289315e+00	1.520693e+02
2.430000e-06	4.985591e-07	2.227682e-09	3.565076e+00	1.447050e+02
2.440000e-06	3.969644e-07	2.117937e-09	2.838597e+00	1.371801e+02
2.450000e-06	2.951361e-07	1.998108e-09	2.110447e+00	1.294969e+02
2.460000e-06	1.930910e-07	1.871662e-09	1.380748e+00	1.216552e+02
2.470000e-06	9.095045e-08	1.748960e-09	6.503648e-01	1.136500e+02
2.480000e-06	-1.119612e-08	1.628312e-09	-8.006078e-02	1.054709e+02
2.490000e-06	-1.134196e-07	1.503028e-09	-8.110365e-01	9.710219e+01
2.500000e-06	-2.156451e-07	1.370335e-09	-1.542026e+00	8.852513e+01
2.510000e-06	-3.177146e-07	1.233273e-09	-2.271901e+00	7.972031e+01
2.520000e-06	-4.195878e-07	1.096089e-09	-3.000371e+00	7.067073e+01
2.530000e-06	-5.212487e-07	9.557647e-10	-3.727324e+00	6.136430e+01
2.540000e-06	-6.226779e-07	8.147337e-10	-4.452620e+00	5.179519e+01
2.550000e-06	-7.237957e-07	6.696600e-10	-5.175689e+00	4.196384e+01
2.560000e-06	-8.245857e-07	5.138864e-10	-5.896414e+00	3.187568e+01
2.570000e-06	-9.250546e-07	3.517991e-10	-6.614843e+00	2.153909e+01
2.580000e-06	-1.025177e-06	1.902939e-10	-7.330795e+00	1.096318e+01
2.590000e-06	-1.124973e-06	3.047918e-11	-8.044411e+00	1.563044e-01
2.600000e-06	-1.224399e-06	-1.350249e-10	-8.755386e+00	-1.087423e+01
2.610000e-06	-1.323429e-06	-3.084263e-10	-9.463522e+00	-2.212103e+01
2.620000e-06	-1.422025e-06	-4.833379e-10	-1.016856e+01	-3.357422e+01
2.630000e-06	-1.520092e-06	-6.605743e-10	-1.086981e+01	-4.521844e+01
2.640000e-06	-1.617584e-06	-8.416934e-10	-1.156695e+01	-5.702995e+01
2.650000e-06	-1.714508e-06	-1.025108e-09	-1.226003e+01	-6.897481e+01
2.660000e-06	-1.810905e-06	-1.211080e-09	-1.294934e+01	-8.100857e+01
2.670000e-06	-1.906862e-06	-1.400343e-09	-1.363551e+01	-9.307789e+01
2.680000e-06	-2.002288e-06	-1.588884e-09	-1.431788e+01	-1.051238e+02
2.690000e-06	-2.096830e-06	-1.770578e-09	-1.499393e+01	-1.170858e+02
2.700000e-06	-2.190352e-06	-1.948391e-09	-1.566268e+01	-1.289065e+02
2.710000e-06	-2.282931e-06	-2.124734e-09	-1.632469e+01	-1.405354e+02
2.720000e-06	-2.374671e-06	-2.299811e-09	-1.698070e+01	-1.519310e+02
2.730000e-06	-2.465602e-06	-2.470036e-09	-1.763093e+01	-1.630616e+02
2.740000e-06	-2.555644e-06	-2.632091e-09	-1.827479e+01	-1.739048e+02
2.750000e-06	-2.644775e-06	-2.789648e-09	-1.891215e+01	-1.844449e+02
2.760000e-06	-2.733095e-06	-2.945570e-09	-1.954370e+01	-1.946707e+02
2.770000e-06	-2.820662e-06	-3.100789e-09	-2.016987e+01	-2.045732e+02
2.780000e-06	-2.907197e-06	-3.252107e-09	-2.078867e+01	-2.141444e+02
2.790000e-06	-2.992494e-06	-3.394316e-09	-2.139861e+01	-2.233763e+02
2.800000e-06	-3.076629e-06	-3.527115e-09	-2.200023e+01	-2.322623e+02
2.810000e-06	-3.159693e-06	-3.653357e-09	-2.259421e+01	-2.407976e+02
2.820000e-06	-3.241762e-06	-3.777680e-09	-2.318106e+01	-2.489808e+02
2.830000e-06	-3.322802e-06	-3.900666e-09	-2.376056e+01	-2.568150e+02
2.840000e-06	-3.402780e-06	-4.020690e-09	-2.433246e+01	-2.643076e+02
2.850000e-06	-3.481514e-06	-4.134260e-09	-2.489547e+01	-2.714699e+02
2.860000e-06	-3.558735e-06	-4.240317e-09	-2.544766e+01	-2.783159e+02
2.870000e-06	-3.634458e-06	-4.341245e-09	-2.598913e+01	-2.848613e+02
2.880000e-06	-3.708811e-06	-4.438208e-09	-2.652082e+01	-2.911217e+02
2.890000e-06	-3.781798e-06	-4.529815e-09	-2.704273e+01	-2.971122e+02
2.900000e-06	-3.853478e-06	-4.614399e-09	-2.755530e+01	-3.028477e+02
2.910000e-06	-3.923741e-06	-4.696403e-09	-2.805773e+01	-3.083423e+02
2.920000e-06	-3.992416e-06	-4.777613e-09	-2.854881e+01	-3.136106e+02
2.930000e-06	-4.059661e-06	-4.856451e-09	-2.902966e+01	-3.186674e+02
2.940000e-06	-4.125508e-06	-4.932129e-09	-2.950052e+01	-3.235280e+02
