# Temperatura_=_54.48
# Concentracion g/m^3_=_15000.0
# C_Vs_to_Am_M_A/Vsm_=_65563218390.804596
# pendiente_HvsI_1/m_=_3716.3
# ordenada_HvsI_A/m_=_1297.0
# frecuencia_Hz_=_301599.06868336635

Tiempo_(s)	Campo_(V.s)	Magnetizacion_(V.s)	Campo_(kA/m)	Magnetizacion_(A/m)
0.000000e+00	-5.375928e-06	-6.444887e-09	-3.833654e+01	-4.216903e+02
1.000000e-08	-5.373218e-06	-6.441231e-09	-3.831722e+01	-4.215542e+02
2.000000e-08	-5.368665e-06	-6.436731e-09	-3.828475e+01	-4.213464e+02
3.000000e-08	-5.362523e-06	-6.432089e-09	-3.824095e+01	-4.210635e+02
4.000000e-08	-5.354825e-06	-6.425620e-09	-3.818606e+01	-4.206981e+02
5.000000e-08	-5.345324e-06	-6.416590e-09	-3.811830e+01	-4.202408e+02
6.000000e-08	-5.333775e-06	-6.407002e-09	-3.803594e+01	-4.196824e+02
7.000000e-08	-5.320343e-06	-6.399907e-09	-3.794015e+01	-4.190173e+02
8.000000e-08	-5.304844e-06	-6.393813e-09	-3.782963e+01	-4.182457e+02
9.000000e-08	-5.287044e-06	-6.399453e-09	-3.770270e+01	-4.173745e+02
1.000000e-07	-5.267176e-06	-6.395401e-09	-3.756101e+01	-4.164172e+02
1.100000e-07	-5.245431e-06	-6.360843e-09	-3.740595e+01	-4.153912e+02
1.200000e-07	-5.221964e-06	-6.325574e-09	-3.723860e+01	-4.143147e+02
1.300000e-07	-5.197000e-06	-6.291260e-09	-3.706058e+01	-4.132029e+02
1.400000e-07	-5.170487e-06	-6.270573e-09	-3.687151e+01	-4.120639e+02
1.500000e-07	-5.142311e-06	-6.304347e-09	-3.667058e+01	-4.108969e+02
1.600000e-07	-5.112651e-06	-6.282534e-09	-3.645907e+01	-4.096918e+02
1.700000e-07	-5.081456e-06	-6.238650e-09	-3.623662e+01	-4.084306e+02
1.800000e-07	-5.048155e-06	-6.245228e-09	-3.599914e+01	-4.070909e+02
1.900000e-07	-5.012858e-06	-6.191929e-09	-3.574743e+01	-4.056500e+02
2.000000e-07	-4.976117e-06	-6.154080e-09	-3.548543e+01	-4.040893e+02
2.100000e-07	-4.937687e-06	-6.150202e-09	-3.521138e+01	-4.023975e+02
2.200000e-07	-4.897435e-06	-6.095585e-09	-3.492434e+01	-4.005722e+02
2.300000e-07	-4.855323e-06	-6.081634e-09	-3.462403e+01	-3.986194e+02
2.400000e-07	-4.811233e-06	-6.078002e-09	-3.430962e+01	-3.965511e+02
2.500000e-07	-4.765386e-06	-6.030371e-09	-3.398267e+01	-3.943824e+02
2.600000e-07	-4.717674e-06	-5.996801e-09	-3.364244e+01	-3.921273e+02
2.700000e-07	-4.667875e-06	-5.933589e-09	-3.328731e+01	-3.897958e+02
2.800000e-07	-4.616025e-06	-5.897176e-09	-3.291756e+01	-3.873921e+02
2.900000e-07	-4.562303e-06	-5.893025e-09	-3.253446e+01	-3.849144e+02
3.000000e-07	-4.507000e-06	-5.855429e-09	-3.214009e+01	-3.823564e+02
3.100000e-07	-4.450058e-06	-5.807079e-09	-3.173403e+01	-3.797098e+02
3.200000e-07	-4.391269e-06	-5.752254e-09	-3.131479e+01	-3.769671e+02
3.300000e-07	-4.330796e-06	-5.699919e-09	-3.088355e+01	-3.741240e+02
3.400000e-07	-4.268919e-06	-5.657751e-09	-3.044230e+01	-3.711809e+02
3.500000e-07	-4.205743e-06	-5.624935e-09	-2.999178e+01	-3.681426e+02
3.600000e-07	-4.141056e-06	-5.587999e-09	-2.953049e+01	-3.650171e+02
3.700000e-07	-4.074671e-06	-5.525845e-09	-2.905709e+01	-3.618133e+02
3.800000e-07	-4.006714e-06	-5.470408e-09	-2.857248e+01	-3.585384e+02
3.900000e-07	-3.937350e-06	-5.422537e-09	-2.807783e+01	-3.551959e+02
4.000000e-07	-3.866728e-06	-5.367029e-09	-2.757421e+01	-3.517843e+02
4.100000e-07	-3.794893e-06	-5.314343e-09	-2.706195e+01	-3.482977e+02
4.200000e-07	-3.721693e-06	-5.254098e-09	-2.653995e+01	-3.447263e+02
4.300000e-07	-3.646952e-06	-5.205047e-09	-2.600695e+01	-3.410595e+02
4.400000e-07	-3.570639e-06	-5.159565e-09	-2.546276e+01	-3.372871e+02
4.500000e-07	-3.492861e-06	-5.105656e-09	-2.490811e+01	-3.334022e+02
4.600000e-07	-3.413715e-06	-5.042251e-09	-2.434371e+01	-3.294017e+02
4.700000e-07	-3.333290e-06	-4.963409e-09	-2.377019e+01	-3.252868e+02
4.800000e-07	-3.251611e-06	-4.888013e-09	-2.318772e+01	-3.210621e+02
4.900000e-07	-3.168848e-06	-4.825313e-09	-2.259753e+01	-3.167338e+02
5.000000e-07	-3.085069e-06	-4.769007e-09	-2.200009e+01	-3.123079e+02
5.100000e-07	-3.000328e-06	-4.704583e-09	-2.139578e+01	-3.077888e+02
5.200000e-07	-2.914667e-06	-4.630025e-09	-2.078492e+01	-3.031780e+02
5.300000e-07	-2.828018e-06	-4.547737e-09	-2.016702e+01	-2.984738e+02
5.400000e-07	-2.740431e-06	-4.469186e-09	-1.954242e+01	-2.936720e+02
5.500000e-07	-2.651856e-06	-4.399162e-09	-1.891078e+01	-2.887668e+02
5.600000e-07	-2.562218e-06	-4.328172e-09	-1.827156e+01	-2.837518e+02
5.700000e-07	-2.471502e-06	-4.251316e-09	-1.762465e+01	-2.786216e+02
5.800000e-07	-2.379801e-06	-4.167596e-09	-1.697072e+01	-2.733721e+02
5.900000e-07	-2.287307e-06	-4.084591e-09	-1.631113e+01	-2.680012e+02
6.000000e-07	-2.194068e-06	-4.001622e-09	-1.564623e+01	-2.625086e+02
6.100000e-07	-2.100007e-06	-3.914292e-09	-1.497546e+01	-2.568950e+02
6.200000e-07	-2.005298e-06	-3.825005e-09	-1.430008e+01	-2.511617e+02
6.300000e-07	-1.909907e-06	-3.735195e-09	-1.361983e+01	-2.453098e+02
6.400000e-07	-1.813731e-06	-3.645136e-09	-1.293399e+01	-2.393400e+02
6.500000e-07	-1.716875e-06	-3.557094e-09	-1.224329e+01	-2.332517e+02
6.600000e-07	-1.619369e-06	-3.466103e-09	-1.154796e+01	-2.270434e+02
6.700000e-07	-1.521200e-06	-3.365046e-09	-1.084790e+01	-2.207123e+02
6.800000e-07	-1.422377e-06	-3.258264e-09	-1.014318e+01	-2.142547e+02
6.900000e-07	-1.322972e-06	-3.154186e-09	-9.434314e+00	-2.076657e+02
7.000000e-07	-1.223083e-06	-3.056666e-09	-8.721990e+00	-2.009394e+02
7.100000e-07	-1.122870e-06	-2.958127e-09	-8.007350e+00	-1.940694e+02
7.200000e-07	-1.022442e-06	-2.851060e-09	-7.291188e+00	-1.870488e+02
7.300000e-07	-9.217956e-07	-2.738159e-09	-6.573462e+00	-1.798707e+02
7.400000e-07	-8.208545e-07	-2.623472e-09	-5.853636e+00	-1.725288e+02
7.500000e-07	-7.195601e-07	-2.509457e-09	-5.131290e+00	-1.650175e+02
7.600000e-07	-6.179830e-07	-2.396541e-09	-4.406929e+00	-1.573326e+02
7.700000e-07	-5.161843e-07	-2.279584e-09	-3.680987e+00	-1.494708e+02
7.800000e-07	-4.141991e-07	-2.155940e-09	-2.953715e+00	-1.414296e+02
7.900000e-07	-3.120708e-07	-2.028000e-09	-2.225423e+00	-1.332066e+02
8.000000e-07	-2.097821e-07	-1.898649e-09	-1.495987e+00	-1.247987e+02
8.100000e-07	-1.074492e-07	-1.769537e-09	-7.662362e-01	-1.162010e+02
8.200000e-07	-5.118853e-09	-1.637120e-09	-3.650330e-02	-1.074069e+02
8.300000e-07	9.727629e-08	-1.498301e-09	6.936917e-01	-9.840775e+01
8.400000e-07	1.997199e-07	-1.354525e-09	1.424232e+00	-8.919364e+01
8.500000e-07	3.021099e-07	-1.209250e-09	2.154391e+00	-7.975414e+01
8.600000e-07	4.043847e-07	-1.061727e-09	2.883728e+00	-7.007973e+01
8.700000e-07	5.065774e-07	-9.090687e-10	3.612479e+00	-6.016284e+01
8.800000e-07	6.086486e-07	-7.510407e-10	4.340364e+00	-4.999865e+01
8.900000e-07	7.104810e-07	-5.904172e-10	5.066546e+00	-3.958530e+01
9.000000e-07	8.119632e-07	-4.273995e-10	5.790231e+00	-2.892351e+01
9.100000e-07	9.130964e-07	-2.600967e-10	6.511426e+00	-1.801584e+01
9.200000e-07	1.013916e-06	-9.025120e-11	7.230389e+00	-6.865866e+00
9.300000e-07	1.114440e-06	8.241850e-11	7.947236e+00	4.522300e+00
9.400000e-07	1.214680e-06	2.589076e-10	8.662065e+00	1.614378e+01
9.500000e-07	1.314572e-06	4.396840e-10	9.374409e+00	2.799180e+01
9.600000e-07	1.414039e-06	6.223316e-10	1.008372e+01	4.005573e+01
9.700000e-07	1.512929e-06	8.064563e-10	1.078892e+01	5.231868e+01
9.800000e-07	1.611083e-06	9.936111e-10	1.148887e+01	6.475503e+01
9.900000e-07	1.708449e-06	1.184409e-09	1.218321e+01	7.732881e+01
1.000000e-06	1.805016e-06	1.375318e-09	1.287184e+01	8.999326e+01
1.010000e-06	1.900852e-06	1.566336e-09	1.355526e+01	1.026920e+02
1.020000e-06	1.996060e-06	1.758254e-09	1.423420e+01	1.153619e+02
1.030000e-06	2.090585e-06	1.947787e-09	1.490827e+01	1.279372e+02
1.040000e-06	2.184349e-06	2.135397e-09	1.557692e+01	1.403541e+02
1.050000e-06	2.277313e-06	2.320016e-09	1.623985e+01	1.525553e+02
1.060000e-06	2.369581e-06	2.501917e-09	1.689783e+01	1.644937e+02
1.070000e-06	2.461227e-06	2.678656e-09	1.755138e+01	1.761340e+02
1.080000e-06	2.552051e-06	2.849730e-09	1.819906e+01	1.874526e+02
1.090000e-06	2.641697e-06	3.017557e-09	1.883833e+01	1.984362e+02
1.100000e-06	2.730150e-06	3.182459e-09	1.946911e+01	2.090786e+02
1.110000e-06	2.817720e-06	3.341958e-09	2.009358e+01	2.193772e+02
1.120000e-06	2.904436e-06	3.495098e-09	2.071196e+01	2.293306e+02
1.130000e-06	2.990190e-06	3.642637e-09	2.132349e+01	2.389359e+02
1.140000e-06	3.074966e-06	3.783693e-09	2.192804e+01	2.481884e+02
1.150000e-06	3.158847e-06	3.916657e-09	2.252621e+01	2.570825e+02
1.160000e-06	3.241772e-06	4.043291e-09	2.311756e+01	2.656129e+02
1.170000e-06	3.323460e-06	4.163595e-09	2.370009e+01	2.737774e+02
1.180000e-06	3.403816e-06	4.279715e-09	2.427312e+01	2.815785e+02
1.190000e-06	3.482961e-06	4.392952e-09	2.483751e+01	2.890244e+02
1.200000e-06	3.560914e-06	4.502550e-09	2.539340e+01	2.961297e+02
1.210000e-06	3.637627e-06	4.609533e-09	2.594046e+01	3.029135e+02
1.220000e-06	3.713043e-06	4.709791e-09	2.647826e+01	3.093983e+02
1.230000e-06	3.786945e-06	4.802594e-09	2.700527e+01	3.156074e+02
1.240000e-06	3.859211e-06	4.889642e-09	2.752061e+01	3.215629e+02
1.250000e-06	3.930010e-06	4.974005e-09	2.802549e+01	3.272843e+02
1.260000e-06	3.999432e-06	5.057280e-09	2.852054e+01	3.327876e+02
1.270000e-06	4.067549e-06	5.138354e-09	2.900629e+01	3.380854e+02
1.280000e-06	4.134243e-06	5.216790e-09	2.948190e+01	3.431876e+02
1.290000e-06	4.199196e-06	5.293365e-09	2.994509e+01	3.481020e+02
1.300000e-06	4.262550e-06	5.366578e-09	3.039688e+01	3.528353e+02
1.310000e-06	4.324471e-06	5.436587e-09	3.083845e+01	3.573932e+02
1.320000e-06	4.385016e-06	5.505110e-09	3.127020e+01	3.617803e+02
1.330000e-06	4.444269e-06	5.569388e-09	3.169274e+01	3.659999e+02
1.340000e-06	4.501779e-06	5.628429e-09	3.210286e+01	3.700535e+02
1.350000e-06	4.557444e-06	5.684422e-09	3.249981e+01	3.739405e+02
1.360000e-06	4.611545e-06	5.737565e-09	3.288561e+01	3.776584e+02
1.370000e-06	4.663946e-06	5.787490e-09	3.325929e+01	3.812035e+02
1.380000e-06	4.714312e-06	5.836556e-09	3.361846e+01	3.845722e+02
1.390000e-06	4.762642e-06	5.885853e-09	3.396311e+01	3.877621e+02
1.400000e-06	4.809305e-06	5.932830e-09	3.429587e+01	3.907730e+02
1.410000e-06	4.854438e-06	5.975958e-09	3.461772e+01	3.936079e+02
1.420000e-06	4.897983e-06	6.015290e-09	3.492824e+01	3.962727e+02
1.430000e-06	4.939611e-06	6.050769e-09	3.522510e+01	3.987754e+02
1.440000e-06	4.979374e-06	6.082694e-09	3.550866e+01	4.011253e+02
1.450000e-06	5.017556e-06	6.111509e-09	3.578094e+01	4.033315e+02
1.460000e-06	5.054119e-06	6.139671e-09	3.604168e+01	4.054015e+02
1.470000e-06	5.088971e-06	6.169147e-09	3.629021e+01	4.073412e+02
1.480000e-06	5.121855e-06	6.197711e-09	3.652471e+01	4.091545e+02
1.490000e-06	5.152848e-06	6.223577e-09	3.674572e+01	4.108435e+02
1.500000e-06	5.182196e-06	6.246886e-09	3.695501e+01	4.124101e+02
1.510000e-06	5.209919e-06	6.267723e-09	3.715271e+01	4.138562e+02
1.520000e-06	5.235617e-06	6.286551e-09	3.733597e+01	4.151847e+02
1.530000e-06	5.259155e-06	6.304897e-09	3.750382e+01	4.163992e+02
1.540000e-06	5.280900e-06	6.322496e-09	3.765888e+01	4.175040e+02
1.550000e-06	5.300993e-06	6.337308e-09	3.780217e+01	4.185030e+02
1.560000e-06	5.319253e-06	6.350079e-09	3.793239e+01	4.193990e+02
1.570000e-06	5.335479e-06	6.361922e-09	3.804809e+01	4.201930e+02
1.580000e-06	5.349728e-06	6.373243e-09	3.814971e+01	4.208846e+02
1.590000e-06	5.362003e-06	6.384394e-09	3.823724e+01	4.214722e+02
1.600000e-06	5.372075e-06	6.393585e-09	3.830906e+01	4.219540e+02
1.610000e-06	5.380012e-06	6.400184e-09	3.836566e+01	4.223300e+02
1.620000e-06	5.386061e-06	6.405720e-09	3.840880e+01	4.226021e+02
1.630000e-06	5.390372e-06	6.411429e-09	3.843955e+01	4.227753e+02
1.640000e-06	5.392830e-06	6.414782e-09	3.845707e+01	4.228564e+02
1.650000e-06	5.393240e-06	6.415918e-09	3.846000e+01	4.228538e+02
1.660000e-06	5.391785e-06	6.416674e-09	3.844962e+01	4.227744e+02
1.670000e-06	5.388710e-06	6.414561e-09	3.842770e+01	4.226228e+02
1.680000e-06	5.383998e-06	6.412832e-09	3.839409e+01	4.223991e+02
1.690000e-06	5.377320e-06	6.410610e-09	3.834647e+01	4.220991e+02
1.700000e-06	5.368794e-06	6.406222e-09	3.828567e+01	4.217146e+02
1.710000e-06	5.358720e-06	6.399614e-09	3.821383e+01	4.212361e+02
1.720000e-06	5.346961e-06	6.390633e-09	3.812997e+01	4.206549e+02
1.730000e-06	5.333261e-06	6.377963e-09	3.803228e+01	4.199666e+02
1.740000e-06	5.317505e-06	6.347532e-09	3.791992e+01	4.191726e+02
1.750000e-06	5.299397e-06	6.317564e-09	3.779079e+01	4.182815e+02
1.760000e-06	5.278582e-06	6.320964e-09	3.764235e+01	4.173076e+02
1.770000e-06	5.255451e-06	6.326189e-09	3.747741e+01	4.162691e+02
1.780000e-06	5.231018e-06	6.339779e-09	3.730316e+01	4.151838e+02
1.790000e-06	5.205871e-06	6.313631e-09	3.712384e+01	4.140655e+02
1.800000e-06	5.179375e-06	6.218865e-09	3.693489e+01	4.129207e+02
1.810000e-06	5.150648e-06	6.233017e-09	3.673004e+01	4.117466e+02
1.820000e-06	5.120104e-06	6.244946e-09	3.651222e+01	4.105310e+02
1.830000e-06	5.087981e-06	6.193623e-09	3.628315e+01	4.092547e+02
1.840000e-06	5.053901e-06	6.240908e-09	3.604012e+01	4.078949e+02
1.850000e-06	5.018190e-06	6.234770e-09	3.578546e+01	4.064295e+02
1.860000e-06	4.980748e-06	6.182328e-09	3.551846e+01	4.048411e+02
1.870000e-06	4.941409e-06	6.191626e-09	3.523792e+01	4.031204e+02
1.880000e-06	4.900374e-06	6.123341e-09	3.494530e+01	4.012668e+02
1.890000e-06	4.857509e-06	6.087291e-09	3.463962e+01	3.992879e+02
1.900000e-06	4.812987e-06	6.075706e-09	3.432213e+01	3.971966e+02
1.910000e-06	4.766659e-06	6.022494e-09	3.399176e+01	3.950081e+02
1.920000e-06	4.718273e-06	6.050214e-09	3.364671e+01	3.927357e+02
1.930000e-06	4.668297e-06	5.992181e-09	3.329032e+01	3.903884e+02
1.940000e-06	4.616659e-06	5.914905e-09	3.292208e+01	3.879690e+02
1.950000e-06	4.562930e-06	5.906061e-09	3.253893e+01	3.854746e+02
1.960000e-06	4.507231e-06	5.838568e-09	3.214173e+01	3.828981e+02
1.970000e-06	4.449820e-06	5.810385e-09	3.173233e+01	3.802312e+02
1.980000e-06	4.390968e-06	5.786112e-09	3.131265e+01	3.774670e+02
1.990000e-06	4.330587e-06	5.748030e-09	3.088206e+01	3.746020e+02
2.000000e-06	4.268584e-06	5.703682e-09	3.043990e+01	3.716378e+02
2.010000e-06	4.205047e-06	5.618950e-09	2.998682e+01	3.685799e+02
2.020000e-06	4.139951e-06	5.596208e-09	2.952261e+01	3.654367e+02
2.030000e-06	4.073413e-06	5.547715e-09	2.904812e+01	3.622170e+02
2.040000e-06	4.005408e-06	5.499519e-09	2.856316e+01	3.589272e+02
2.050000e-06	3.935886e-06	5.464053e-09	2.806739e+01	3.555700e+02
2.060000e-06	3.864910e-06	5.391482e-09	2.756125e+01	3.521428e+02
2.070000e-06	3.792561e-06	5.350060e-09	2.704532e+01	3.486386e+02
2.080000e-06	3.718911e-06	5.274456e-09	2.652011e+01	3.450476e+02
2.090000e-06	3.643880e-06	5.218512e-09	2.598505e+01	3.413587e+02
2.100000e-06	3.567378e-06	5.169932e-09	2.543950e+01	3.375624e+02
2.110000e-06	3.489317e-06	5.098665e-09	2.488284e+01	3.336526e+02
2.120000e-06	3.409856e-06	5.055728e-09	2.431619e+01	3.296272e+02
2.130000e-06	3.329238e-06	4.992703e-09	2.374129e+01	3.254881e+02
2.140000e-06	3.247522e-06	4.933802e-09	2.315856e+01	3.212405e+02
2.150000e-06	3.164764e-06	4.860145e-09	2.256840e+01	3.168906e+02
2.160000e-06	3.080943e-06	4.779047e-09	2.197066e+01	3.124442e+02
2.170000e-06	2.996031e-06	4.712051e-09	2.136514e+01	3.079053e+02
2.180000e-06	2.909902e-06	4.651559e-09	2.075094e+01	3.032744e+02
2.190000e-06	2.822534e-06	4.592552e-09	2.012791e+01	2.985496e+02
2.200000e-06	2.734158e-06	4.514026e-09	1.949769e+01	2.937259e+02
2.210000e-06	2.644862e-06	4.432287e-09	1.886090e+01	2.887975e+02
2.220000e-06	2.554647e-06	4.349347e-09	1.821757e+01	2.837580e+02
2.230000e-06	2.463625e-06	4.273083e-09	1.756848e+01	2.786023e+02
2.240000e-06	2.371832e-06	4.195901e-09	1.691389e+01	2.733267e+02
2.250000e-06	2.279230e-06	4.118356e-09	1.625353e+01	2.679295e+02
2.260000e-06	2.185810e-06	4.036464e-09	1.558733e+01	2.624107e+02
2.270000e-06	2.091430e-06	3.941350e-09	1.491430e+01	2.567711e+02
2.280000e-06	1.995985e-06	3.849827e-09	1.423367e+01	2.510121e+02
2.290000e-06	1.899749e-06	3.763500e-09	1.354739e+01	2.451347e+02
2.300000e-06	1.803065e-06	3.676384e-09	1.285792e+01	2.391394e+02
2.310000e-06	1.705961e-06	3.581946e-09	1.216546e+01	2.330253e+02
2.320000e-06	1.608208e-06	3.485821e-09	1.146837e+01	2.267908e+02
2.330000e-06	1.509854e-06	3.394027e-09	1.076699e+01	2.204328e+02
2.340000e-06	1.411079e-06	3.299239e-09	1.006261e+01	2.139472e+02
2.350000e-06	1.311884e-06	3.195502e-09	9.355237e+00	2.073291e+02
2.360000e-06	1.212325e-06	3.088281e-09	8.645273e+00	2.005724e+02
2.370000e-06	1.112473e-06	2.980080e-09	7.933210e+00	1.936705e+02
2.380000e-06	1.012249e-06	2.871039e-09	7.218499e+00	1.866165e+02
2.390000e-06	9.116115e-07	2.765670e-09	6.500837e+00	1.794036e+02
2.400000e-06	8.106329e-07	2.659221e-09	5.780744e+00	1.720256e+02
2.410000e-06	7.093491e-07	2.545379e-09	5.058474e+00	1.644773e+02
2.420000e-06	6.078984e-07	2.420582e-09	4.335014e+00	1.567545e+02
2.430000e-06	5.063102e-07	2.294033e-09	3.610573e+00	1.488542e+02
2.440000e-06	4.045495e-07	2.173722e-09	2.884903e+00	1.407741e+02
2.450000e-06	3.025567e-07	2.052713e-09	2.157577e+00	1.325116e+02
2.460000e-06	2.003129e-07	1.923474e-09	1.428461e+00	1.240632e+02
2.470000e-06	9.789299e-08	1.788677e-09	6.980895e-01	1.154238e+02
2.480000e-06	-4.642549e-09	1.652538e-09	-3.310671e-02	1.065864e+02
2.490000e-06	-1.071977e-07	1.516560e-09	-7.644429e-01	9.754186e+01
2.500000e-06	-2.097278e-07	1.379084e-09	-1.495600e+00	8.828010e+01
2.510000e-06	-3.121781e-07	1.238234e-09	-2.226189e+00	7.879081e+01
2.520000e-06	-4.144322e-07	1.093220e-09	-2.955378e+00	6.906479e+01
2.530000e-06	-5.164537e-07	9.398234e-10	-3.682908e+00	5.909500e+01
2.540000e-06	-6.183083e-07	7.821258e-10	-4.409248e+00	4.887727e+01
2.550000e-06	-7.199465e-07	6.267210e-10	-5.134045e+00	3.841034e+01
2.560000e-06	-8.212250e-07	4.676572e-10	-5.856278e+00	2.769539e+01
2.570000e-06	-9.221113e-07	2.992876e-10	-6.575713e+00	1.673527e+01
2.580000e-06	-1.022609e-06	1.255968e-10	-7.292375e+00	5.533689e+00
2.590000e-06	-1.122663e-06	-5.015296e-11	-8.005880e+00	-5.905131e+00
2.600000e-06	-1.222336e-06	-2.267913e-10	-8.716658e+00	-1.757603e+01
2.610000e-06	-1.321654e-06	-4.071237e-10	-9.424914e+00	-2.947159e+01
2.620000e-06	-1.420534e-06	-5.915800e-10	-1.013004e+01	-4.158006e+01
2.630000e-06	-1.518935e-06	-7.821011e-10	-1.083175e+01	-5.388286e+01
2.640000e-06	-1.616757e-06	-9.780645e-10	-1.152933e+01	-6.635227e+01
2.650000e-06	-1.713952e-06	-1.173487e-09	-1.222245e+01	-7.894998e+01
2.660000e-06	-1.810598e-06	-1.368151e-09	-1.291165e+01	-9.162702e+01
2.670000e-06	-1.906723e-06	-1.562488e-09	-1.359713e+01	-1.043253e+02
2.680000e-06	-2.002313e-06	-1.759580e-09	-1.427879e+01	-1.169807e+02
2.690000e-06	-2.097197e-06	-1.956945e-09	-1.495542e+01	-1.295274e+02
2.700000e-06	-2.191106e-06	-2.147870e-09	-1.562510e+01	-1.419028e+02
2.710000e-06	-2.283995e-06	-2.331635e-09	-1.628751e+01	-1.540515e+02
2.720000e-06	-2.376015e-06	-2.511424e-09	-1.694372e+01	-1.659288e+02
2.730000e-06	-2.467223e-06	-2.688721e-09	-1.759413e+01	-1.775020e+02
2.740000e-06	-2.557526e-06	-2.859883e-09	-1.823810e+01	-1.887498e+02
2.750000e-06	-2.646875e-06	-3.024019e-09	-1.887526e+01	-1.996608e+02
2.760000e-06	-2.735345e-06	-3.184564e-09	-1.950615e+01	-2.102299e+02
2.770000e-06	-2.823080e-06	-3.342606e-09	-2.013180e+01	-2.204549e+02
2.780000e-06	-2.909971e-06	-3.496645e-09	-2.075144e+01	-2.303342e+02
2.790000e-06	-2.995638e-06	-3.643576e-09	-2.136234e+01	-2.398646e+02
2.800000e-06	-3.080036e-06	-3.782218e-09	-2.196420e+01	-2.490410e+02
2.810000e-06	-3.163392e-06	-3.914755e-09	-2.255862e+01	-2.578577e+02
2.820000e-06	-3.245772e-06	-4.041691e-09	-2.314608e+01	-2.663099e+02
2.830000e-06	-3.327066e-06	-4.166440e-09	-2.372580e+01	-2.743964e+02
2.840000e-06	-3.407247e-06	-4.289781e-09	-2.429759e+01	-2.821207e+02
2.850000e-06	-3.486360e-06	-4.406429e-09	-2.486175e+01	-2.894924e+02
2.860000e-06	-3.564021e-06	-4.514103e-09	-2.541556e+01	-2.965272e+02
2.870000e-06	-3.640064e-06	-4.615167e-09	-2.595784e+01	-3.032452e+02
2.880000e-06	-3.714700e-06	-4.714100e-09	-2.649008e+01	-3.096692e+02
2.890000e-06	-3.787930e-06	-4.810119e-09	-2.701229e+01	-3.158224e+02
2.900000e-06	-3.859925e-06	-4.900194e-09	-2.752570e+01	-3.217264e+02
2.910000e-06	-3.930610e-06	-4.985635e-09	-2.802976e+01	-3.274001e+02
2.920000e-06	-3.999637e-06	-5.068309e-09	-2.852200e+01	-3.328586e+02
2.930000e-06	-4.067138e-06	-5.148291e-09	-2.900337e+01	-3.381139e+02
2.940000e-06	-4.133227e-06	-5.225064e-09	-2.947466e+01	-3.431755e+02
