# Temperatura_=_26.98
# Concentracion g/m^3_=_15000.0
# C_Vs_to_Am_M_A/Vsm_=_65563218390.804596
# pendiente_HvsI_1/m_=_3716.3
# ordenada_HvsI_A/m_=_1297.0
# frecuencia_Hz_=_301595.87203833886

Tiempo_(s)	Campo_(V.s)	Magnetizacion_(V.s)	Campo_(kA/m)	Magnetizacion_(A/m)
0.000000e+00	-5.350725e-06	-5.614434e-09	-3.833882e+01	-3.669069e+02
1.000000e-08	-5.348023e-06	-5.609561e-09	-3.831946e+01	-3.668072e+02
2.000000e-08	-5.343547e-06	-5.605259e-09	-3.828739e+01	-3.666461e+02
3.000000e-08	-5.337469e-06	-5.600208e-09	-3.824384e+01	-3.664144e+02
4.000000e-08	-5.329795e-06	-5.593741e-09	-3.818886e+01	-3.661022e+02
5.000000e-08	-5.320313e-06	-5.586996e-09	-3.812092e+01	-3.657021e+02
6.000000e-08	-5.308762e-06	-5.580163e-09	-3.803815e+01	-3.652122e+02
7.000000e-08	-5.295316e-06	-5.574091e-09	-3.794181e+01	-3.646374e+02
8.000000e-08	-5.279887e-06	-5.570480e-09	-3.783126e+01	-3.639894e+02
9.000000e-08	-5.262228e-06	-5.567302e-09	-3.770473e+01	-3.632846e+02
1.000000e-07	-5.242497e-06	-5.567910e-09	-3.756335e+01	-3.625403e+02
1.100000e-07	-5.220852e-06	-5.550614e-09	-3.740827e+01	-3.617710e+02
1.200000e-07	-5.197508e-06	-5.509779e-09	-3.724100e+01	-3.609844e+02
1.300000e-07	-5.172640e-06	-5.490773e-09	-3.706281e+01	-3.601792e+02
1.400000e-07	-5.146169e-06	-5.474947e-09	-3.687315e+01	-3.593445e+02
1.500000e-07	-5.118048e-06	-5.464822e-09	-3.667166e+01	-3.584620e+02
1.600000e-07	-5.088487e-06	-5.490576e-09	-3.645985e+01	-3.575095e+02
1.700000e-07	-5.057432e-06	-5.459843e-09	-3.623733e+01	-3.564654e+02
1.800000e-07	-5.024260e-06	-5.432146e-09	-3.599965e+01	-3.553136e+02
1.900000e-07	-4.989164e-06	-5.424010e-09	-3.574818e+01	-3.540463e+02
2.000000e-07	-4.952624e-06	-5.357109e-09	-3.548636e+01	-3.526661e+02
2.100000e-07	-4.914401e-06	-5.322302e-09	-3.521249e+01	-3.511846e+02
2.200000e-07	-4.874389e-06	-5.297353e-09	-3.492580e+01	-3.496198e+02
2.300000e-07	-4.832393e-06	-5.275838e-09	-3.462489e+01	-3.479917e+02
2.400000e-07	-4.788419e-06	-5.308800e-09	-3.430981e+01	-3.463180e+02
2.500000e-07	-4.742759e-06	-5.298695e-09	-3.398265e+01	-3.446100e+02
2.600000e-07	-4.695332e-06	-5.221772e-09	-3.364283e+01	-3.428710e+02
2.700000e-07	-4.645890e-06	-5.173782e-09	-3.328857e+01	-3.410955e+02
2.800000e-07	-4.594301e-06	-5.163215e-09	-3.291892e+01	-3.392714e+02
2.900000e-07	-4.540787e-06	-5.154241e-09	-3.253549e+01	-3.373831e+02
3.000000e-07	-4.485678e-06	-5.137747e-09	-3.214062e+01	-3.354149e+02
3.100000e-07	-4.428940e-06	-5.103515e-09	-3.173409e+01	-3.333545e+02
3.200000e-07	-4.370428e-06	-5.032858e-09	-3.131483e+01	-3.311954e+02
3.300000e-07	-4.310302e-06	-4.980278e-09	-3.088402e+01	-3.289371e+02
3.400000e-07	-4.248703e-06	-4.969321e-09	-3.044266e+01	-3.265847e+02
3.500000e-07	-4.185735e-06	-4.944654e-09	-2.999148e+01	-3.241468e+02
3.600000e-07	-4.121376e-06	-4.907431e-09	-2.953033e+01	-3.216324e+02
3.700000e-07	-4.055360e-06	-4.860666e-09	-2.905732e+01	-3.190492e+02
3.800000e-07	-3.987704e-06	-4.818296e-09	-2.857255e+01	-3.164012e+02
3.900000e-07	-3.918620e-06	-4.785370e-09	-2.807756e+01	-3.136882e+02
4.000000e-07	-3.848282e-06	-4.735353e-09	-2.757358e+01	-3.109064e+02
4.100000e-07	-3.776780e-06	-4.682568e-09	-2.706125e+01	-3.080493e+02
4.200000e-07	-3.703949e-06	-4.632191e-09	-2.653941e+01	-3.051097e+02
4.300000e-07	-3.629543e-06	-4.586964e-09	-2.600627e+01	-3.020810e+02
4.400000e-07	-3.553568e-06	-4.560443e-09	-2.546190e+01	-2.989586e+02
4.500000e-07	-3.476194e-06	-4.539842e-09	-2.490750e+01	-2.957401e+02
4.600000e-07	-3.397463e-06	-4.485979e-09	-2.434338e+01	-2.924254e+02
4.700000e-07	-3.317426e-06	-4.399598e-09	-2.376990e+01	-2.890161e+02
4.800000e-07	-3.236139e-06	-4.329165e-09	-2.318747e+01	-2.855144e+02
4.900000e-07	-3.153645e-06	-4.283804e-09	-2.259639e+01	-2.819225e+02
5.000000e-07	-3.070107e-06	-4.240341e-09	-2.199782e+01	-2.782422e+02
5.100000e-07	-2.985709e-06	-4.187939e-09	-2.139310e+01	-2.744741e+02
5.200000e-07	-2.900444e-06	-4.122753e-09	-2.078216e+01	-2.706183e+02
5.300000e-07	-2.814132e-06	-4.049778e-09	-2.016372e+01	-2.666738e+02
5.400000e-07	-2.726870e-06	-3.985588e-09	-1.953847e+01	-2.626392e+02
5.500000e-07	-2.638714e-06	-3.934651e-09	-1.890682e+01	-2.585121e+02
5.600000e-07	-2.549531e-06	-3.880945e-09	-1.826781e+01	-2.542895e+02
5.700000e-07	-2.459276e-06	-3.810115e-09	-1.762112e+01	-2.499675e+02
5.800000e-07	-2.367982e-06	-3.732649e-09	-1.696698e+01	-2.455414e+02
5.900000e-07	-2.275804e-06	-3.661412e-09	-1.630651e+01	-2.410063e+02
6.000000e-07	-2.182902e-06	-3.593345e-09	-1.564085e+01	-2.363572e+02
6.100000e-07	-2.089244e-06	-3.520653e-09	-1.496978e+01	-2.315906e+02
6.200000e-07	-1.994859e-06	-3.443894e-09	-1.429350e+01	-2.267043e+02
6.300000e-07	-1.899865e-06	-3.365886e-09	-1.361284e+01	-2.216989e+02
6.400000e-07	-1.804225e-06	-3.290804e-09	-1.292757e+01	-2.165765e+02
6.500000e-07	-1.707901e-06	-3.222669e-09	-1.223739e+01	-2.113413e+02
6.600000e-07	-1.610957e-06	-3.148268e-09	-1.154277e+01	-2.059973e+02
6.700000e-07	-1.513342e-06	-3.056329e-09	-1.084334e+01	-2.005476e+02
6.800000e-07	-1.415018e-06	-2.956665e-09	-1.013884e+01	-1.949924e+02
6.900000e-07	-1.316128e-06	-2.865901e-09	-9.430271e+00	-1.893288e+02
7.000000e-07	-1.216751e-06	-2.784095e-09	-8.718218e+00	-1.835502e+02
7.100000e-07	-1.116972e-06	-2.700166e-09	-8.003289e+00	-1.776474e+02
7.200000e-07	-1.016901e-06	-2.608414e-09	-7.286262e+00	-1.716102e+02
7.300000e-07	-9.166117e-07	-2.508948e-09	-6.567674e+00	-1.654297e+02
7.400000e-07	-8.160576e-07	-2.407276e-09	-5.847187e+00	-1.591000e+02
7.500000e-07	-7.151982e-07	-2.310990e-09	-5.124513e+00	-1.526195e+02
7.600000e-07	-6.140589e-07	-2.218765e-09	-4.399833e+00	-1.459913e+02
7.700000e-07	-5.127021e-07	-2.119974e-09	-3.673595e+00	-1.392218e+02
7.800000e-07	-4.111720e-07	-2.010013e-09	-2.946115e+00	-1.323191e+02
7.900000e-07	-3.095064e-07	-1.897225e-09	-2.217664e+00	-1.252900e+02
8.000000e-07	-2.077298e-07	-1.788666e-09	-1.488418e+00	-1.181374e+02
8.100000e-07	-1.059197e-07	-1.680592e-09	-7.589322e-01	-1.108587e+02
8.200000e-07	-3.995327e-09	-1.568674e-09	-2.862718e-02	-1.034446e+02
8.300000e-07	9.800871e-08	-1.452339e-09	7.022486e-01	-9.587986e+01
8.400000e-07	1.999224e-07	-1.333022e-09	1.432477e+00	-8.814559e+01
8.500000e-07	3.017978e-07	-1.213763e-09	2.162431e+00	-8.022169e+01
8.600000e-07	4.036124e-07	-1.092674e-09	2.891949e+00	-7.208994e+01
8.700000e-07	5.053071e-07	-9.661052e-10	3.620608e+00	-6.373645e+01
8.800000e-07	6.068233e-07	-8.320958e-10	4.347989e+00	-5.515305e+01
8.900000e-07	7.081020e-07	-6.934908e-10	5.073667e+00	-4.633748e+01
9.000000e-07	8.091199e-07	-5.547219e-10	5.797478e+00	-3.729236e+01
9.100000e-07	9.098620e-07	-4.161440e-10	6.519311e+00	-2.802342e+01
9.200000e-07	1.010301e-06	-2.754270e-10	7.238975e+00	-1.853756e+01
9.300000e-07	1.110505e-06	-1.285488e-10	7.956951e+00	-8.841473e+00
9.400000e-07	1.210441e-06	2.367639e-11	8.673011e+00	1.058936e+00
9.500000e-07	1.309965e-06	1.794500e-10	9.386114e+00	1.115787e+01
9.600000e-07	1.408966e-06	3.370231e-10	1.009547e+01	2.144808e+01
9.700000e-07	1.507222e-06	4.967642e-10	1.079949e+01	3.191869e+01
9.800000e-07	1.604612e-06	6.601453e-10	1.149731e+01	4.255314e+01
9.900000e-07	1.701350e-06	8.274888e-10	1.219045e+01	5.332774e+01
1.000000e-06	1.797543e-06	9.953740e-10	1.287969e+01	6.421132e+01
1.010000e-06	1.893036e-06	1.163394e-09	1.356392e+01	7.516606e+01
1.020000e-06	1.987794e-06	1.331796e-09	1.424287e+01	8.614940e+01
1.030000e-06	2.081867e-06	1.497247e-09	1.491692e+01	9.711656e+01
1.040000e-06	2.175239e-06	1.661968e-09	1.558595e+01	1.080232e+02
1.050000e-06	2.267885e-06	1.827276e-09	1.624977e+01	1.188274e+02
1.060000e-06	2.359903e-06	1.991749e-09	1.690909e+01	1.294913e+02
1.070000e-06	2.451170e-06	2.152853e-09	1.756303e+01	1.399812e+02
1.080000e-06	2.541320e-06	2.309655e-09	1.820897e+01	1.502672e+02
1.090000e-06	2.630369e-06	2.464040e-09	1.884703e+01	1.603226e+02
1.100000e-06	2.718474e-06	2.615330e-09	1.947832e+01	1.701232e+02
1.110000e-06	2.805669e-06	2.760361e-09	2.010308e+01	1.796467e+02
1.120000e-06	2.891986e-06	2.898175e-09	2.072155e+01	1.888732e+02
1.130000e-06	2.977353e-06	3.031156e-09	2.133322e+01	1.977860e+02
1.140000e-06	3.061801e-06	3.159520e-09	2.193831e+01	2.063729e+02
1.150000e-06	3.145378e-06	3.283231e-09	2.253715e+01	2.146272e+02
1.160000e-06	3.227874e-06	3.402081e-09	2.312825e+01	2.225482e+02
1.170000e-06	3.309102e-06	3.516675e-09	2.371026e+01	2.301414e+02
1.180000e-06	3.389107e-06	3.628001e-09	2.428351e+01	2.374173e+02
1.190000e-06	3.467917e-06	3.734614e-09	2.484820e+01	2.443899e+02
1.200000e-06	3.545495e-06	3.837327e-09	2.540405e+01	2.510745e+02
1.210000e-06	3.621896e-06	3.936880e-09	2.595148e+01	2.574865e+02
1.220000e-06	3.696966e-06	4.031736e-09	2.648937e+01	2.636394e+02
1.230000e-06	3.770378e-06	4.118971e-09	2.701538e+01	2.695448e+02
1.240000e-06	3.842241e-06	4.199770e-09	2.753029e+01	2.752124e+02
1.250000e-06	3.912745e-06	4.279493e-09	2.803546e+01	2.806507e+02
1.260000e-06	3.981911e-06	4.359855e-09	2.853105e+01	2.858685e+02
1.270000e-06	4.049807e-06	4.438001e-09	2.901754e+01	2.908748e+02
1.280000e-06	4.116202e-06	4.512605e-09	2.949327e+01	2.956799e+02
1.290000e-06	4.180865e-06	4.584259e-09	2.995658e+01	3.002944e+02
1.300000e-06	4.243976e-06	4.651599e-09	3.040879e+01	3.047282e+02
1.310000e-06	4.305656e-06	4.714498e-09	3.085073e+01	3.089895e+02
1.320000e-06	4.365945e-06	4.775105e-09	3.128272e+01	3.130832e+02
1.330000e-06	4.424773e-06	4.834224e-09	3.170423e+01	3.170109e+02
1.340000e-06	4.481866e-06	4.889567e-09	3.211331e+01	3.207706e+02
1.350000e-06	4.537265e-06	4.941304e-09	3.251025e+01	3.243581e+02
1.360000e-06	4.591068e-06	4.990900e-09	3.289576e+01	3.277683e+02
1.370000e-06	4.643109e-06	5.037502e-09	3.326864e+01	3.309975e+02
1.380000e-06	4.693136e-06	5.081227e-09	3.362709e+01	3.340448e+02
1.390000e-06	4.741218e-06	5.123098e-09	3.397161e+01	3.369128e+02
1.400000e-06	4.787607e-06	5.163873e-09	3.430399e+01	3.396079e+02
1.410000e-06	4.832435e-06	5.201690e-09	3.462519e+01	3.421393e+02
1.420000e-06	4.875659e-06	5.236929e-09	3.493490e+01	3.445178e+02
1.430000e-06	4.917029e-06	5.269444e-09	3.523132e+01	3.467536e+02
1.440000e-06	4.956640e-06	5.298084e-09	3.551514e+01	3.488554e+02
1.450000e-06	4.994647e-06	5.323307e-09	3.578746e+01	3.508295e+02
1.460000e-06	5.031031e-06	5.347657e-09	3.604817e+01	3.526800e+02
1.470000e-06	5.065600e-06	5.373720e-09	3.629586e+01	3.544092e+02
1.480000e-06	5.098233e-06	5.399823e-09	3.652968e+01	3.560192e+02
1.490000e-06	5.129123e-06	5.422978e-09	3.675101e+01	3.575124e+02
1.500000e-06	5.158384e-06	5.442968e-09	3.696067e+01	3.588928e+02
1.510000e-06	5.185892e-06	5.461166e-09	3.715777e+01	3.601654e+02
1.520000e-06	5.211357e-06	5.478016e-09	3.734023e+01	3.613361e+02
1.530000e-06	5.234821e-06	5.493592e-09	3.750835e+01	3.624099e+02
1.540000e-06	5.256491e-06	5.508317e-09	3.766363e+01	3.633901e+02
1.550000e-06	5.276457e-06	5.521925e-09	3.780668e+01	3.642777e+02
1.560000e-06	5.294573e-06	5.533896e-09	3.793649e+01	3.650708e+02
1.570000e-06	5.310645e-06	5.544075e-09	3.805165e+01	3.657660e+02
1.580000e-06	5.324733e-06	5.553603e-09	3.815259e+01	3.663595e+02
1.590000e-06	5.336838e-06	5.563285e-09	3.823932e+01	3.668494e+02
1.600000e-06	5.346802e-06	5.571473e-09	3.831072e+01	3.672367e+02
1.610000e-06	5.354695e-06	5.577778e-09	3.836727e+01	3.675265e+02
1.620000e-06	5.360732e-06	5.581976e-09	3.841053e+01	3.677277e+02
1.630000e-06	5.364974e-06	5.584601e-09	3.844092e+01	3.678513e+02
1.640000e-06	5.367289e-06	5.587066e-09	3.845751e+01	3.679082e+02
1.650000e-06	5.367637e-06	5.588652e-09	3.846000e+01	3.679068e+02
1.660000e-06	5.366213e-06	5.589133e-09	3.844980e+01	3.678507e+02
1.670000e-06	5.363161e-06	5.587324e-09	3.842793e+01	3.677383e+02
1.680000e-06	5.358423e-06	5.583775e-09	3.839398e+01	3.675629e+02
1.690000e-06	5.351826e-06	5.581470e-09	3.834671e+01	3.673146e+02
1.700000e-06	5.343422e-06	5.579288e-09	3.828650e+01	3.669839e+02
1.710000e-06	5.333402e-06	5.576677e-09	3.821470e+01	3.665644e+02
1.720000e-06	5.321732e-06	5.570667e-09	3.813108e+01	3.660554e+02
1.730000e-06	5.308138e-06	5.554662e-09	3.803368e+01	3.654636e+02
1.740000e-06	5.292429e-06	5.537883e-09	3.792112e+01	3.648018e+02
1.750000e-06	5.274382e-06	5.512848e-09	3.779181e+01	3.640870e+02
1.760000e-06	5.253699e-06	5.502255e-09	3.764362e+01	3.633362e+02
1.770000e-06	5.230730e-06	5.517665e-09	3.747904e+01	3.625627e+02
1.780000e-06	5.206424e-06	5.514828e-09	3.730489e+01	3.617724e+02
1.790000e-06	5.181415e-06	5.506509e-09	3.712569e+01	3.609619e+02
1.800000e-06	5.155061e-06	5.467628e-09	3.693686e+01	3.601186e+02
1.810000e-06	5.126490e-06	5.422961e-09	3.673215e+01	3.592229e+02
1.820000e-06	5.096081e-06	5.442263e-09	3.651426e+01	3.582523e+02
1.830000e-06	5.064029e-06	5.430543e-09	3.628460e+01	3.571861e+02
1.840000e-06	5.030003e-06	5.416647e-09	3.604080e+01	3.560096e+02
1.850000e-06	4.994355e-06	5.439127e-09	3.578538e+01	3.547174e+02
1.860000e-06	4.956983e-06	5.412531e-09	3.551760e+01	3.533142e+02
1.870000e-06	4.917695e-06	5.399041e-09	3.523610e+01	3.518130e+02
1.880000e-06	4.876767e-06	5.356955e-09	3.494284e+01	3.502328e+02
1.890000e-06	4.834064e-06	5.267906e-09	3.463686e+01	3.485935e+02
1.900000e-06	4.789743e-06	5.264145e-09	3.431930e+01	3.469116e+02
1.910000e-06	4.743598e-06	5.278296e-09	3.398866e+01	3.451968e+02
1.920000e-06	4.695381e-06	5.263537e-09	3.364318e+01	3.434506e+02
1.930000e-06	4.645639e-06	5.242853e-09	3.328677e+01	3.416657e+02
1.940000e-06	4.594243e-06	5.186607e-09	3.291851e+01	3.398292e+02
1.950000e-06	4.540754e-06	5.129868e-09	3.253525e+01	3.379248e+02
1.960000e-06	4.485308e-06	5.088236e-09	3.213797e+01	3.359376e+02
1.970000e-06	4.428163e-06	5.091238e-09	3.172852e+01	3.338562e+02
1.980000e-06	4.369554e-06	5.087718e-09	3.130857e+01	3.316755e+02
1.990000e-06	4.309470e-06	5.037884e-09	3.087806e+01	3.293963e+02
2.000000e-06	4.247757e-06	4.997156e-09	3.043588e+01	3.270247e+02
2.010000e-06	4.184370e-06	4.947202e-09	2.998170e+01	3.245695e+02
2.020000e-06	4.119423e-06	4.910152e-09	2.951634e+01	3.220397e+02
2.030000e-06	4.053094e-06	4.878093e-09	2.904109e+01	3.194423e+02
2.040000e-06	3.985374e-06	4.846494e-09	2.855586e+01	3.167803e+02
2.050000e-06	3.916194e-06	4.818973e-09	2.806018e+01	3.140529e+02
2.060000e-06	3.845488e-06	4.755547e-09	2.755356e+01	3.112554e+02
2.070000e-06	3.773436e-06	4.711553e-09	2.703729e+01	3.083811e+02
2.080000e-06	3.700213e-06	4.675174e-09	2.651263e+01	3.054228e+02
2.090000e-06	3.625628e-06	4.611307e-09	2.597822e+01	3.023742e+02
2.100000e-06	3.549570e-06	4.543781e-09	2.543326e+01	2.992311e+02
2.110000e-06	3.471908e-06	4.496974e-09	2.487679e+01	2.959918e+02
2.120000e-06	3.392780e-06	4.474597e-09	2.430983e+01	2.926565e+02
2.130000e-06	3.312519e-06	4.433412e-09	2.373474e+01	2.892271e+02
2.140000e-06	3.231141e-06	4.382053e-09	2.315166e+01	2.857057e+02
2.150000e-06	3.148677e-06	4.319883e-09	2.256079e+01	2.820947e+02
2.160000e-06	3.065234e-06	4.242942e-09	2.196291e+01	2.783953e+02
2.170000e-06	2.980799e-06	4.179345e-09	2.135792e+01	2.746084e+02
2.180000e-06	2.895087e-06	4.138173e-09	2.074378e+01	2.707335e+02
2.190000e-06	2.808014e-06	4.097427e-09	2.011989e+01	2.667697e+02
2.200000e-06	2.719905e-06	4.029581e-09	1.948856e+01	2.627154e+02
2.210000e-06	2.630977e-06	3.951093e-09	1.885138e+01	2.585679e+02
2.220000e-06	2.541159e-06	3.880118e-09	1.820782e+01	2.543243e+02
2.230000e-06	2.450470e-06	3.817294e-09	1.755802e+01	2.499802e+02
2.240000e-06	2.359029e-06	3.758087e-09	1.690283e+01	2.455311e+02
2.250000e-06	2.266813e-06	3.696060e-09	1.624209e+01	2.409717e+02
2.260000e-06	2.173852e-06	3.624674e-09	1.557601e+01	2.362976e+02
2.270000e-06	2.079978e-06	3.542848e-09	1.490338e+01	2.315053e+02
2.280000e-06	1.985045e-06	3.464524e-09	1.422317e+01	2.265932e+02
2.290000e-06	1.889259e-06	3.391175e-09	1.353685e+01	2.215623e+02
2.300000e-06	1.792904e-06	3.310122e-09	1.284645e+01	2.164153e+02
2.310000e-06	1.696146e-06	3.222121e-09	1.215316e+01	2.111562e+02
2.320000e-06	1.598839e-06	3.139255e-09	1.145594e+01	2.057893e+02
2.330000e-06	1.500874e-06	3.064914e-09	1.075401e+01	2.003169e+02
2.340000e-06	1.402430e-06	2.991172e-09	1.004864e+01	1.947387e+02
2.350000e-06	1.303646e-06	2.909255e-09	9.340837e+00	1.890510e+02
2.360000e-06	1.204486e-06	2.813294e-09	8.630339e+00	1.832465e+02
2.370000e-06	1.105007e-06	2.709943e-09	7.917556e+00	1.773155e+02
2.380000e-06	1.005225e-06	2.614476e-09	7.202601e+00	1.712482e+02
2.390000e-06	9.050782e-07	2.530203e-09	6.485035e+00	1.650360e+02
2.400000e-06	8.045804e-07	2.441958e-09	5.764951e+00	1.586738e+02
2.410000e-06	7.037956e-07	2.338946e-09	5.042811e+00	1.521611e+02
2.420000e-06	6.028085e-07	2.226657e-09	4.319222e+00	1.455018e+02
2.430000e-06	5.016455e-07	2.117859e-09	3.594373e+00	1.387029e+02
2.440000e-06	4.003088e-07	2.017269e-09	2.868278e+00	1.317725e+02
2.450000e-06	2.988206e-07	1.917804e-09	2.141099e+00	1.247167e+02
2.460000e-06	1.971886e-07	1.810839e-09	1.412889e+00	1.175375e+02
2.470000e-06	9.541277e-08	1.693667e-09	6.836482e-01	1.102306e+02
2.480000e-06	-6.437999e-09	1.572901e-09	-4.612933e-02	1.027855e+02
2.490000e-06	-1.082232e-07	1.456563e-09	-7.754368e-01	9.518596e+01
2.500000e-06	-2.099649e-07	1.342303e-09	-1.504433e+00	8.741258e+01
2.510000e-06	-3.116654e-07	1.224739e-09	-2.233134e+00	7.944542e+01
2.520000e-06	-4.132095e-07	1.099745e-09	-2.960714e+00	7.126700e+01
2.530000e-06	-5.145436e-07	9.673176e-10	-3.686789e+00	6.286458e+01
2.540000e-06	-6.156795e-07	8.351731e-10	-4.411445e+00	5.423128e+01
2.550000e-06	-7.166012e-07	7.038055e-10	-5.134566e+00	4.536603e+01
2.560000e-06	-8.172326e-07	5.663109e-10	-5.855606e+00	3.627225e+01
2.570000e-06	-9.176164e-07	4.198000e-10	-6.574873e+00	2.695609e+01
2.580000e-06	-1.017715e-06	2.698540e-10	-7.292092e+00	1.742451e+01
2.590000e-06	-1.117427e-06	1.213305e-10	-8.006547e+00	7.684012e+00
2.600000e-06	-1.216693e-06	-2.647985e-11	-8.717805e+00	-2.259590e+00
2.610000e-06	-1.315523e-06	-1.765221e-10	-9.425940e+00	-1.240036e+01
2.620000e-06	-1.413934e-06	-3.314143e-10	-1.013107e+01	-2.273045e+01
2.630000e-06	-1.511883e-06	-4.918971e-10	-1.083289e+01	-3.323793e+01
2.640000e-06	-1.609276e-06	-6.553585e-10	-1.153073e+01	-4.390481e+01
2.650000e-06	-1.706062e-06	-8.189120e-10	-1.222422e+01	-5.470578e+01
2.660000e-06	-1.802370e-06	-9.826873e-10	-1.291428e+01	-6.560813e+01
2.670000e-06	-1.898271e-06	-1.149954e-09	-1.360143e+01	-7.657284e+01
2.680000e-06	-1.993566e-06	-1.321774e-09	-1.428422e+01	-8.755665e+01
2.690000e-06	-2.087914e-06	-1.491636e-09	-1.496024e+01	-9.851466e+01
2.700000e-06	-2.181219e-06	-1.655632e-09	-1.562879e+01	-1.094029e+02
2.710000e-06	-2.273637e-06	-1.814456e-09	-1.629098e+01	-1.201803e+02
2.720000e-06	-2.365219e-06	-1.972429e-09	-1.694719e+01	-1.308097e+02
2.730000e-06	-2.456009e-06	-2.129910e-09	-1.759771e+01	-1.412584e+02
2.740000e-06	-2.545933e-06	-2.285638e-09	-1.824203e+01	-1.514973e+02
2.750000e-06	-2.634929e-06	-2.439413e-09	-1.887970e+01	-1.615003e+02
2.760000e-06	-2.723146e-06	-2.589328e-09	-1.951179e+01	-1.712434e+02
2.770000e-06	-2.810531e-06	-2.735913e-09	-2.013792e+01	-1.807050e+02
2.780000e-06	-2.896832e-06	-2.878957e-09	-2.075628e+01	-1.898657e+02
2.790000e-06	-2.981954e-06	-3.016381e-09	-2.136619e+01	-1.987097e+02
2.800000e-06	-3.065992e-06	-3.146290e-09	-2.196834e+01	-2.072258e+02
2.810000e-06	-3.149014e-06	-3.269162e-09	-2.256320e+01	-2.154086e+02
2.820000e-06	-3.231026e-06	-3.386841e-09	-2.315084e+01	-2.232589e+02
2.830000e-06	-3.311987e-06	-3.501480e-09	-2.373093e+01	-2.307832e+02
2.840000e-06	-3.391875e-06	-3.613704e-09	-2.430334e+01	-2.379930e+02
2.850000e-06	-3.470516e-06	-3.722443e-09	-2.486682e+01	-2.449027e+02
2.860000e-06	-3.547665e-06	-3.826825e-09	-2.541960e+01	-2.515278e+02
2.870000e-06	-3.623322e-06	-3.925498e-09	-2.596170e+01	-2.578833e+02
2.880000e-06	-3.697585e-06	-4.019232e-09	-2.649381e+01	-2.639825e+02
2.890000e-06	-3.770518e-06	-4.109855e-09	-2.701638e+01	-2.698363e+02
2.900000e-06	-3.842165e-06	-4.196169e-09	-2.752974e+01	-2.754542e+02
2.910000e-06	-3.912406e-06	-4.276427e-09	-2.803303e+01	-2.808446e+02
2.920000e-06	-3.981062e-06	-4.352774e-09	-2.852496e+01	-2.860164e+02
2.930000e-06	-4.048259e-06	-4.428715e-09	-2.900644e+01	-2.909789e+02
2.940000e-06	-4.114054e-06	-4.503293e-09	-2.947788e+01	-2.957424e+02
