# Temperatura_=_27.91
# Concentracion g/m^3_=_15000.0
# C_Vs_to_Am_M_A/Vsm_=_65563218390.804596
# pendiente_HvsI_1/m_=_3716.3
# ordenada_HvsI_A/m_=_1297.0
# frecuencia_Hz_=_301593.88489875145

Tiempo_(s)	Campo_(V.s)	Magnetizacion_(V.s)	Campo_(kA/m)	Magnetizacion_(A/m)
0.000000e+00	-5.335972e-06	-5.655265e-09	-3.833864e+01	-3.693545e+02
1.000000e-08	-5.333442e-06	-5.652557e-09	-3.832047e+01	-3.692304e+02
2.000000e-08	-5.329107e-06	-5.646715e-09	-3.828932e+01	-3.690657e+02
3.000000e-08	-5.323148e-06	-5.640660e-09	-3.824650e+01	-3.688406e+02
4.000000e-08	-5.315657e-06	-5.634180e-09	-3.819268e+01	-3.685308e+02
5.000000e-08	-5.306411e-06	-5.626467e-09	-3.812625e+01	-3.681143e+02
6.000000e-08	-5.295147e-06	-5.616460e-09	-3.804532e+01	-3.675795e+02
7.000000e-08	-5.281951e-06	-5.600798e-09	-3.795050e+01	-3.669289e+02
8.000000e-08	-5.266673e-06	-5.590749e-09	-3.784073e+01	-3.661812e+02
9.000000e-08	-5.249150e-06	-5.625195e-09	-3.771483e+01	-3.653674e+02
1.000000e-07	-5.229563e-06	-5.627226e-09	-3.757410e+01	-3.645239e+02
1.100000e-07	-5.208097e-06	-5.579597e-09	-3.741987e+01	-3.636839e+02
1.200000e-07	-5.184968e-06	-5.548480e-09	-3.725369e+01	-3.628679e+02
1.300000e-07	-5.160375e-06	-5.473896e-09	-3.707699e+01	-3.620783e+02
1.400000e-07	-5.134184e-06	-5.462943e-09	-3.688880e+01	-3.612969e+02
1.500000e-07	-5.106306e-06	-5.559651e-09	-3.668851e+01	-3.604884e+02
1.600000e-07	-5.076958e-06	-5.491816e-09	-3.647764e+01	-3.596076e+02
1.700000e-07	-5.046123e-06	-5.496806e-09	-3.625609e+01	-3.586099e+02
1.800000e-07	-5.013251e-06	-5.554300e-09	-3.601991e+01	-3.574613e+02
1.900000e-07	-4.978386e-06	-5.388267e-09	-3.576941e+01	-3.561463e+02
2.000000e-07	-4.942075e-06	-5.341544e-09	-3.550851e+01	-3.546714e+02
2.100000e-07	-4.904052e-06	-5.346992e-09	-3.523532e+01	-3.530635e+02
2.200000e-07	-4.864206e-06	-5.275412e-09	-3.494903e+01	-3.513633e+02
2.300000e-07	-4.822521e-06	-5.328768e-09	-3.464952e+01	-3.496153e+02
2.400000e-07	-4.778918e-06	-5.338373e-09	-3.433624e+01	-3.478578e+02
2.500000e-07	-4.733614e-06	-5.286290e-09	-3.401074e+01	-3.461139e+02
2.600000e-07	-4.686511e-06	-5.278364e-09	-3.367230e+01	-3.443866e+02
2.700000e-07	-4.637411e-06	-5.209979e-09	-3.331952e+01	-3.426598e+02
2.800000e-07	-4.586169e-06	-5.211215e-09	-3.295135e+01	-3.409022e+02
2.900000e-07	-4.532972e-06	-5.205618e-09	-3.256913e+01	-3.390762e+02
3.000000e-07	-4.478134e-06	-5.123368e-09	-3.217512e+01	-3.371471e+02
3.100000e-07	-4.421649e-06	-5.093349e-09	-3.176929e+01	-3.350914e+02
3.200000e-07	-4.363386e-06	-5.083227e-09	-3.135067e+01	-3.329011e+02
3.300000e-07	-4.303506e-06	-5.041902e-09	-3.092043e+01	-3.305850e+02
3.400000e-07	-4.242179e-06	-4.983718e-09	-3.047980e+01	-3.281650e+02
3.500000e-07	-4.179460e-06	-4.965313e-09	-3.002917e+01	-3.256689e+02
3.600000e-07	-4.115370e-06	-4.936028e-09	-2.956869e+01	-3.231234e+02
3.700000e-07	-4.049623e-06	-4.879321e-09	-2.909630e+01	-3.205469e+02
3.800000e-07	-3.982206e-06	-4.856740e-09	-2.861192e+01	-3.179450e+02
3.900000e-07	-3.913406e-06	-4.817337e-09	-2.811759e+01	-3.153099e+02
4.000000e-07	-3.843405e-06	-4.755117e-09	-2.761464e+01	-3.126230e+02
4.100000e-07	-3.772230e-06	-4.697360e-09	-2.710325e+01	-3.098600e+02
4.200000e-07	-3.699847e-06	-4.656215e-09	-2.658318e+01	-3.069974e+02
4.300000e-07	-3.625918e-06	-4.639019e-09	-2.605200e+01	-3.040174e+02
4.400000e-07	-3.550286e-06	-4.606818e-09	-2.550860e+01	-3.009119e+02
4.500000e-07	-3.473248e-06	-4.560154e-09	-2.495508e+01	-2.976827e+02
4.600000e-07	-3.394929e-06	-4.499924e-09	-2.439236e+01	-2.943395e+02
4.700000e-07	-3.315276e-06	-4.434398e-09	-2.382006e+01	-2.908963e+02
4.800000e-07	-3.234264e-06	-4.374285e-09	-2.323799e+01	-2.873665e+02
4.900000e-07	-3.152028e-06	-4.316464e-09	-2.264713e+01	-2.837595e+02
5.000000e-07	-3.068754e-06	-4.268505e-09	-2.204881e+01	-2.800784e+02
5.100000e-07	-2.984690e-06	-4.207906e-09	-2.144482e+01	-2.763193e+02
5.200000e-07	-2.899762e-06	-4.141161e-09	-2.083462e+01	-2.724741e+02
5.300000e-07	-2.813744e-06	-4.079757e-09	-2.021659e+01	-2.685324e+02
5.400000e-07	-2.726725e-06	-4.026956e-09	-1.959136e+01	-2.644849e+02
5.500000e-07	-2.638929e-06	-3.975932e-09	-1.896055e+01	-2.603256e+02
5.600000e-07	-2.550232e-06	-3.907189e-09	-1.832326e+01	-2.560525e+02
5.700000e-07	-2.460298e-06	-3.830949e-09	-1.767709e+01	-2.516673e+02
5.800000e-07	-2.369219e-06	-3.759858e-09	-1.702270e+01	-2.471735e+02
5.900000e-07	-2.277356e-06	-3.690850e-09	-1.636267e+01	-2.425744e+02
6.000000e-07	-2.184803e-06	-3.614019e-09	-1.569768e+01	-2.378712e+02
6.100000e-07	-2.091468e-06	-3.537410e-09	-1.502707e+01	-2.330624e+02
6.200000e-07	-1.997421e-06	-3.464216e-09	-1.435135e+01	-2.281439e+02
6.300000e-07	-1.902688e-06	-3.390673e-09	-1.367070e+01	-2.231107e+02
6.400000e-07	-1.807283e-06	-3.319992e-09	-1.298522e+01	-2.179579e+02
6.500000e-07	-1.711334e-06	-3.250513e-09	-1.229583e+01	-2.126829e+02
6.600000e-07	-1.614846e-06	-3.172833e-09	-1.160257e+01	-2.072857e+02
6.700000e-07	-1.517602e-06	-3.077309e-09	-1.090388e+01	-2.017688e+02
6.800000e-07	-1.419521e-06	-2.976480e-09	-1.019918e+01	-1.961355e+02
6.900000e-07	-1.320765e-06	-2.884549e-09	-9.489617e+00	-1.903883e+02
7.000000e-07	-1.221522e-06	-2.800051e-09	-8.776560e+00	-1.845273e+02
7.100000e-07	-1.121948e-06	-2.711885e-09	-8.061133e+00	-1.785489e+02
7.200000e-07	-1.022145e-06	-2.616709e-09	-7.344051e+00	-1.724460e+02
7.300000e-07	-9.221342e-07	-2.518584e-09	-6.625479e+00	-1.662100e+02
7.400000e-07	-8.218921e-07	-2.421955e-09	-5.905246e+00	-1.598324e+02
7.500000e-07	-7.213603e-07	-2.329228e-09	-5.182931e+00	-1.533075e+02
7.600000e-07	-6.205296e-07	-2.234572e-09	-4.458469e+00	-1.466338e+02
7.700000e-07	-5.194749e-07	-2.131115e-09	-3.732396e+00	-1.398147e+02
7.800000e-07	-4.182455e-07	-2.018297e-09	-3.005069e+00	-1.328571e+02
7.900000e-07	-3.169019e-07	-1.904084e-09	-2.276921e+00	-1.257690e+02
8.000000e-07	-2.154426e-07	-1.793851e-09	-1.547942e+00	-1.185558e+02
8.100000e-07	-1.138698e-07	-1.686680e-09	-8.181477e-01	-1.112178e+02
8.200000e-07	-1.224003e-08	-1.577134e-09	-8.794391e-02	-1.037479e+02
8.300000e-07	8.942356e-08	-1.461022e-09	6.425030e-01	-9.613126e+01
8.400000e-07	1.911082e-07	-1.341336e-09	1.373101e+00	-8.834713e+01
8.500000e-07	2.927744e-07	-1.223355e-09	2.103567e+00	-8.037188e+01
8.600000e-07	3.943537e-07	-1.104683e-09	2.833408e+00	-7.218301e+01
8.700000e-07	4.958088e-07	-9.764739e-10	3.562356e+00	-6.376293e+01
8.800000e-07	5.970394e-07	-8.397941e-10	4.289692e+00	-5.510152e+01
8.900000e-07	6.980314e-07	-6.995203e-10	5.015314e+00	-4.619689e+01
9.000000e-07	7.988054e-07	-5.570795e-10	5.739369e+00	-3.705434e+01
9.100000e-07	8.992793e-07	-4.152895e-10	6.461269e+00	-2.768377e+01
9.200000e-07	9.994539e-07	-2.734025e-10	7.181017e+00	-1.809657e+01
9.300000e-07	1.099371e-06	-1.263445e-10	7.898912e+00	-8.302818e+00
9.400000e-07	1.199077e-06	2.859421e-11	8.615299e+00	1.690155e+00
9.500000e-07	1.298482e-06	1.865789e-10	9.329516e+00	1.187752e+01
9.600000e-07	1.397415e-06	3.444512e-10	1.004035e+01	2.225494e+01
9.700000e-07	1.495603e-06	5.045009e-10	1.074582e+01	3.281538e+01
9.800000e-07	1.592833e-06	6.707253e-10	1.144441e+01	4.354569e+01
9.900000e-07	1.689250e-06	8.428132e-10	1.213716e+01	5.442396e+01
1.000000e-06	1.785099e-06	1.014361e-09	1.282583e+01	6.541840e+01
1.010000e-06	1.880406e-06	1.182929e-09	1.351060e+01	7.648818e+01
1.020000e-06	1.974991e-06	1.349675e-09	1.419019e+01	8.758615e+01
1.030000e-06	2.068855e-06	1.516084e-09	1.486460e+01	9.866253e+01
1.040000e-06	2.162051e-06	1.683496e-09	1.553421e+01	1.096690e+02
1.050000e-06	2.254532e-06	1.849607e-09	1.619868e+01	1.205620e+02
1.060000e-06	2.346372e-06	2.014381e-09	1.685855e+01	1.313045e+02
1.070000e-06	2.437553e-06	2.175593e-09	1.751367e+01	1.418661e+02
1.080000e-06	2.527674e-06	2.333467e-09	1.816118e+01	1.522215e+02
1.090000e-06	2.616493e-06	2.491009e-09	1.879935e+01	1.623488e+02
1.100000e-06	2.704321e-06	2.645268e-09	1.943039e+01	1.722267e+02
1.110000e-06	2.791375e-06	2.791245e-09	2.005586e+01	1.818333e+02
1.120000e-06	2.877558e-06	2.929418e-09	2.067508e+01	1.911465e+02
1.130000e-06	2.962787e-06	3.062082e-09	2.128745e+01	2.001446e+02
1.140000e-06	3.047095e-06	3.191293e-09	2.189320e+01	2.088093e+02
1.150000e-06	3.130589e-06	3.316812e-09	2.249310e+01	2.171277e+02
1.160000e-06	3.212959e-06	3.436559e-09	2.308492e+01	2.250949e+02
1.170000e-06	3.293935e-06	3.549105e-09	2.366673e+01	2.327143e+02
1.180000e-06	3.373747e-06	3.656688e-09	2.424017e+01	2.399973e+02
1.190000e-06	3.452447e-06	3.762095e-09	2.480563e+01	2.469612e+02
1.200000e-06	3.529934e-06	3.864450e-09	2.536236e+01	2.536260e+02
1.210000e-06	3.606141e-06	3.963802e-09	2.590991e+01	2.600123e+02
1.220000e-06	3.681006e-06	4.057280e-09	2.644781e+01	2.661381e+02
1.230000e-06	3.754294e-06	4.144344e-09	2.697438e+01	2.720187e+02
1.240000e-06	3.826030e-06	4.226721e-09	2.748980e+01	2.776660e+02
1.250000e-06	3.896416e-06	4.307446e-09	2.799552e+01	2.830904e+02
1.260000e-06	3.965430e-06	4.386657e-09	2.849138e+01	2.883021e+02
1.270000e-06	4.033124e-06	4.463373e-09	2.897775e+01	2.933120e+02
1.280000e-06	4.099311e-06	4.537721e-09	2.945331e+01	2.981325e+02
1.290000e-06	4.163796e-06	4.609627e-09	2.991662e+01	3.027762e+02
1.300000e-06	4.226789e-06	4.677488e-09	3.036923e+01	3.072541e+02
1.310000e-06	4.288405e-06	4.742502e-09	3.081193e+01	3.115739e+02
1.320000e-06	4.348661e-06	4.806585e-09	3.124487e+01	3.157377e+02
1.330000e-06	4.407549e-06	4.867258e-09	3.166798e+01	3.197417e+02
1.340000e-06	4.464713e-06	4.921677e-09	3.207870e+01	3.235770e+02
1.350000e-06	4.520081e-06	4.973193e-09	3.247651e+01	3.272317e+02
1.360000e-06	4.573826e-06	5.025024e-09	3.286267e+01	3.306949e+02
1.370000e-06	4.625828e-06	5.073315e-09	3.323630e+01	3.339593e+02
1.380000e-06	4.675798e-06	5.116295e-09	3.359533e+01	3.370244e+02
1.390000e-06	4.723866e-06	5.157363e-09	3.394070e+01	3.398973e+02
1.400000e-06	4.770317e-06	5.198683e-09	3.427445e+01	3.425913e+02
1.410000e-06	4.815201e-06	5.237035e-09	3.459693e+01	3.451238e+02
1.420000e-06	4.858474e-06	5.271027e-09	3.490785e+01	3.475120e+02
1.430000e-06	4.899870e-06	5.302315e-09	3.520527e+01	3.497695e+02
1.440000e-06	4.939435e-06	5.330850e-09	3.548954e+01	3.519038e+02
1.450000e-06	4.977380e-06	5.357946e-09	3.576218e+01	3.539152e+02
1.460000e-06	5.013789e-06	5.383744e-09	3.602378e+01	3.557989e+02
1.470000e-06	5.048486e-06	5.409938e-09	3.627307e+01	3.575475e+02
1.480000e-06	5.081289e-06	5.435106e-09	3.650876e+01	3.591554e+02
1.490000e-06	5.112310e-06	5.456302e-09	3.673164e+01	3.606216e+02
1.500000e-06	5.141609e-06	5.474547e-09	3.694215e+01	3.619526e+02
1.510000e-06	5.169250e-06	5.491808e-09	3.714076e+01	3.631611e+02
1.520000e-06	5.194913e-06	5.509794e-09	3.732514e+01	3.642641e+02
1.530000e-06	5.218468e-06	5.527134e-09	3.749439e+01	3.652789e+02
1.540000e-06	5.240176e-06	5.542044e-09	3.765035e+01	3.662184e+02
1.550000e-06	5.260186e-06	5.553741e-09	3.779412e+01	3.670878e+02
1.560000e-06	5.278392e-06	5.564385e-09	3.792494e+01	3.678834e+02
1.570000e-06	5.294582e-06	5.574477e-09	3.804126e+01	3.685936e+02
1.580000e-06	5.308845e-06	5.583195e-09	3.814374e+01	3.692029e+02
1.590000e-06	5.321145e-06	5.592112e-09	3.823211e+01	3.696966e+02
1.600000e-06	5.331242e-06	5.600620e-09	3.830465e+01	3.700663e+02
1.610000e-06	5.339233e-06	5.607172e-09	3.836207e+01	3.703132e+02
1.620000e-06	5.345389e-06	5.611305e-09	3.840630e+01	3.704493e+02
1.630000e-06	5.349838e-06	5.613542e-09	3.843827e+01	3.704947e+02
1.640000e-06	5.352378e-06	5.615263e-09	3.845652e+01	3.704734e+02
1.650000e-06	5.352863e-06	5.616963e-09	3.846000e+01	3.704065e+02
1.660000e-06	5.351509e-06	5.615574e-09	3.845027e+01	3.703068e+02
1.670000e-06	5.348527e-06	5.611061e-09	3.842885e+01	3.701750e+02
1.680000e-06	5.343928e-06	5.609606e-09	3.839580e+01	3.699990e+02
1.690000e-06	5.337420e-06	5.607561e-09	3.834905e+01	3.697576e+02
1.700000e-06	5.329112e-06	5.604102e-09	3.828935e+01	3.694262e+02
1.710000e-06	5.319293e-06	5.600874e-09	3.821880e+01	3.689847e+02
1.720000e-06	5.307801e-06	5.600464e-09	3.813623e+01	3.684240e+02
1.730000e-06	5.294305e-06	5.606045e-09	3.803927e+01	3.677503e+02
1.740000e-06	5.278740e-06	5.544747e-09	3.792743e+01	3.669853e+02
1.750000e-06	5.260922e-06	5.504037e-09	3.779941e+01	3.661617e+02
1.760000e-06	5.240491e-06	5.528054e-09	3.765262e+01	3.653163e+02
1.770000e-06	5.217652e-06	5.529474e-09	3.748852e+01	3.644799e+02
1.780000e-06	5.193410e-06	5.598188e-09	3.731434e+01	3.636699e+02
1.790000e-06	5.168587e-06	5.542864e-09	3.713599e+01	3.628839e+02
1.800000e-06	5.142489e-06	5.404801e-09	3.694848e+01	3.620999e+02
1.810000e-06	5.114189e-06	5.501090e-09	3.674515e+01	3.612796e+02
1.820000e-06	5.084114e-06	5.429570e-09	3.652905e+01	3.603771e+02
1.830000e-06	5.052387e-06	5.356258e-09	3.630110e+01	3.593491e+02
1.840000e-06	5.018607e-06	5.556463e-09	3.605839e+01	3.581652e+02
1.850000e-06	4.983194e-06	5.499100e-09	3.580395e+01	3.568143e+02
1.860000e-06	4.946122e-06	5.450943e-09	3.553759e+01	3.553078e+02
1.870000e-06	4.907093e-06	5.507246e-09	3.525717e+01	3.536762e+02
1.880000e-06	4.866368e-06	5.318974e-09	3.496457e+01	3.519618e+02
1.890000e-06	4.823867e-06	5.309790e-09	3.465920e+01	3.502087e+02
1.900000e-06	4.779788e-06	5.314688e-09	3.434249e+01	3.484525e+02
1.910000e-06	4.734020e-06	5.262746e-09	3.401366e+01	3.467123e+02
1.920000e-06	4.686118e-06	5.364093e-09	3.366948e+01	3.449869e+02
1.930000e-06	4.636542e-06	5.215445e-09	3.331328e+01	3.432562e+02
1.940000e-06	4.585385e-06	5.179423e-09	3.294572e+01	3.414869e+02
1.950000e-06	4.532189e-06	5.247065e-09	3.256351e+01	3.396412e+02
1.960000e-06	4.476967e-06	5.135668e-09	3.216674e+01	3.376862e+02
1.970000e-06	4.420014e-06	5.119529e-09	3.175754e+01	3.356015e+02
1.980000e-06	4.361628e-06	5.075938e-09	3.133804e+01	3.333827e+02
1.990000e-06	4.301880e-06	5.076776e-09	3.090875e+01	3.310420e+02
2.000000e-06	4.240534e-06	5.044409e-09	3.046799e+01	3.286029e+02
2.010000e-06	4.177493e-06	4.957797e-09	3.001504e+01	3.260939e+02
2.020000e-06	4.112945e-06	4.992591e-09	2.955127e+01	3.235404e+02
2.030000e-06	4.047031e-06	4.905367e-09	2.907768e+01	3.209582e+02
2.040000e-06	3.979725e-06	4.855241e-09	2.859409e+01	3.183500e+02
2.050000e-06	3.911051e-06	4.844531e-09	2.810067e+01	3.157054e+02
2.060000e-06	3.840826e-06	4.809046e-09	2.759611e+01	3.130040e+02
2.070000e-06	3.769099e-06	4.787531e-09	2.708075e+01	3.102213e+02
2.080000e-06	3.696094e-06	4.675182e-09	2.655622e+01	3.073345e+02
2.090000e-06	3.621722e-06	4.636083e-09	2.602186e+01	3.043277e+02
2.100000e-06	3.545991e-06	4.594062e-09	2.547774e+01	3.011950e+02
2.110000e-06	3.468719e-06	4.545038e-09	2.492254e+01	2.979400e+02
2.120000e-06	3.389888e-06	4.513987e-09	2.435614e+01	2.945739e+02
2.130000e-06	3.309912e-06	4.466723e-09	2.378152e+01	2.911108e+02
2.140000e-06	3.228836e-06	4.434260e-09	2.319900e+01	2.875637e+02
2.150000e-06	3.146607e-06	4.346128e-09	2.260818e+01	2.839405e+02
2.160000e-06	3.063343e-06	4.290580e-09	2.200994e+01	2.802429e+02
2.170000e-06	2.979167e-06	4.245347e-09	2.140514e+01	2.764660e+02
2.180000e-06	2.893914e-06	4.185644e-09	2.079260e+01	2.726007e+02
2.190000e-06	2.807277e-06	4.114011e-09	2.017012e+01	2.686368e+02
2.200000e-06	2.719472e-06	4.037238e-09	1.953924e+01	2.645654e+02
2.210000e-06	2.630794e-06	3.994434e-09	1.890210e+01	2.603815e+02
2.220000e-06	2.541216e-06	3.933938e-09	1.825848e+01	2.560839e+02
2.230000e-06	2.450728e-06	3.866051e-09	1.760833e+01	2.516748e+02
2.240000e-06	2.359461e-06	3.801628e-09	1.695259e+01	2.471580e+02
2.250000e-06	2.267519e-06	3.741945e-09	1.629199e+01	2.425363e+02
2.260000e-06	2.174937e-06	3.663694e-09	1.562679e+01	2.378104e+02
2.270000e-06	2.081499e-06	3.577558e-09	1.495545e+01	2.329783e+02
2.280000e-06	1.986868e-06	3.501238e-09	1.427553e+01	2.280354e+02
2.290000e-06	1.891275e-06	3.419805e-09	1.358870e+01	2.229766e+02
2.300000e-06	1.795192e-06	3.331395e-09	1.289835e+01	2.177975e+02
2.310000e-06	1.698722e-06	3.244678e-09	1.220522e+01	2.124960e+02
2.320000e-06	1.601726e-06	3.178764e-09	1.150830e+01	2.070726e+02
2.330000e-06	1.504143e-06	3.111270e-09	1.080718e+01	2.015302e+02
2.340000e-06	1.406069e-06	3.027698e-09	1.010253e+01	1.958721e+02
2.350000e-06	1.307526e-06	2.931775e-09	9.394496e+00	1.901005e+02
2.360000e-06	1.208477e-06	2.835572e-09	8.682834e+00	1.842145e+02
2.370000e-06	1.109107e-06	2.740764e-09	7.968871e+00	1.782098e+02
2.380000e-06	1.009557e-06	2.645977e-09	7.253608e+00	1.720789e+02
2.390000e-06	9.097444e-07	2.553807e-09	6.536459e+00	1.658129e+02
2.400000e-06	8.096642e-07	2.457865e-09	5.817389e+00	1.594038e+02
2.410000e-06	7.093712e-07	2.356064e-09	5.096790e+00	1.528467e+02
2.420000e-06	6.089439e-07	2.248999e-09	4.375226e+00	1.461412e+02
2.430000e-06	5.083855e-07	2.145181e-09	3.652720e+00	1.392915e+02
2.440000e-06	4.076713e-07	2.044545e-09	2.929094e+00	1.323051e+02
2.450000e-06	3.067287e-07	1.939855e-09	2.203828e+00	1.251895e+02
2.460000e-06	2.055282e-07	1.824334e-09	1.476708e+00	1.179495e+02
2.470000e-06	1.042048e-07	1.704672e-09	7.487055e-01	1.105839e+02
2.480000e-06	2.730987e-09	1.586907e-09	1.962198e-02	1.030838e+02
2.490000e-06	-9.883754e-08	1.468876e-09	-7.101419e-01	9.543291e+01
2.500000e-06	-2.002925e-07	1.349874e-09	-1.439090e+00	8.760959e+01
2.510000e-06	-3.015790e-07	1.228980e-09	-2.166827e+00	7.959008e+01
2.520000e-06	-4.027561e-07	1.105094e-09	-2.893779e+00	7.135266e+01
2.530000e-06	-5.037523e-07	9.738423e-10	-3.619430e+00	6.288119e+01
2.540000e-06	-6.044666e-07	8.411594e-10	-4.343057e+00	5.416728e+01
2.550000e-06	-7.049739e-07	7.083182e-10	-5.065195e+00	4.521076e+01
2.560000e-06	-8.053108e-07	5.674754e-10	-5.786110e+00	3.601816e+01
2.570000e-06	-9.054499e-07	4.176330e-10	-6.505604e+00	2.659996e+01
2.580000e-06	-1.005362e-06	2.660094e-10	-7.223465e+00	1.696748e+01
2.590000e-06	-1.104948e-06	1.195565e-10	-7.938984e+00	7.130265e+00
2.600000e-06	-1.204123e-06	-2.705375e-11	-8.651550e+00	-2.904971e+00
2.610000e-06	-1.302832e-06	-1.796849e-10	-9.360771e+00	-1.313373e+01
2.620000e-06	-1.401046e-06	-3.373989e-10	-1.006643e+01	-2.355137e+01
2.630000e-06	-1.498825e-06	-4.998662e-10	-1.076897e+01	-3.414984e+01
2.640000e-06	-1.596051e-06	-6.641476e-10	-1.146753e+01	-4.491429e+01
2.650000e-06	-1.692615e-06	-8.275533e-10	-1.216134e+01	-5.582072e+01
2.660000e-06	-1.788717e-06	-9.923745e-10	-1.285183e+01	-6.683526e+01
2.670000e-06	-1.884508e-06	-1.162899e-09	-1.354008e+01	-7.791547e+01
2.680000e-06	-1.979742e-06	-1.338024e-09	-1.422433e+01	-8.901326e+01
2.690000e-06	-2.073895e-06	-1.508259e-09	-1.490081e+01	-1.000789e+02
2.700000e-06	-2.166858e-06	-1.671493e-09	-1.556875e+01	-1.110648e+02
2.710000e-06	-2.259010e-06	-1.832698e-09	-1.623085e+01	-1.219287e+02
2.720000e-06	-2.350467e-06	-1.995068e-09	-1.688797e+01	-1.326350e+02
2.730000e-06	-2.441136e-06	-2.155109e-09	-1.753942e+01	-1.431546e+02
2.740000e-06	-2.530971e-06	-2.309513e-09	-1.818488e+01	-1.534632e+02
2.750000e-06	-2.619836e-06	-2.460735e-09	-1.882337e+01	-1.635391e+02
2.760000e-06	-2.707898e-06	-2.610537e-09	-1.945609e+01	-1.733610e+02
2.770000e-06	-2.795266e-06	-2.759688e-09	-2.008382e+01	-1.829069e+02
2.780000e-06	-2.881516e-06	-2.906203e-09	-2.070352e+01	-1.921545e+02
2.790000e-06	-2.966434e-06	-3.046197e-09	-2.131365e+01	-2.010828e+02
2.800000e-06	-3.050305e-06	-3.177076e-09	-2.191626e+01	-2.096744e+02
2.810000e-06	-3.133258e-06	-3.300008e-09	-2.251227e+01	-2.179180e+02
2.820000e-06	-3.215166e-06	-3.417252e-09	-2.310078e+01	-2.258103e+02
2.830000e-06	-3.295997e-06	-3.532701e-09	-2.368154e+01	-2.333567e+02
2.840000e-06	-3.375812e-06	-3.648368e-09	-2.425501e+01	-2.405700e+02
2.850000e-06	-3.454385e-06	-3.760183e-09	-2.481955e+01	-2.474683e+02
2.860000e-06	-3.531394e-06	-3.863150e-09	-2.537286e+01	-2.540720e+02
2.870000e-06	-3.606910e-06	-3.958117e-09	-2.591543e+01	-2.604013e+02
2.880000e-06	-3.681049e-06	-4.050570e-09	-2.644811e+01	-2.664737e+02
2.890000e-06	-3.753881e-06	-4.141224e-09	-2.697141e+01	-2.723036e+02
2.900000e-06	-3.825541e-06	-4.226147e-09	-2.748629e+01	-2.779025e+02
2.910000e-06	-3.895740e-06	-4.305359e-09	-2.799066e+01	-2.832808e+02
2.920000e-06	-3.964276e-06	-4.382515e-09	-2.848309e+01	-2.884485e+02
2.930000e-06	-4.031406e-06	-4.458844e-09	-2.896541e+01	-2.934170e+02
2.940000e-06	-4.097187e-06	-4.533390e-09	-2.943804e+01	-2.981989e+02
