# Temperatura_=_83.14
# Concentracion g/m^3_=_15000.0
# C_Vs_to_Am_M_A/Vsm_=_65563218390.804596
# pendiente_HvsI_1/m_=_3716.3
# ordenada_HvsI_A/m_=_1297.0
# frecuencia_Hz_=_301581.44720115326

Tiempo_(s)	Campo_(V.s)	Magnetizacion_(V.s)	Campo_(kA/m)	Magnetizacion_(A/m)
0.000000e+00	-5.384502e-06	-8.107887e-09	-3.834576e+01	-5.297888e+02
1.000000e-08	-5.383165e-06	-8.106929e-09	-3.833624e+01	-5.295985e+02
2.000000e-08	-5.379853e-06	-8.099973e-09	-3.831265e+01	-5.293430e+02
3.000000e-08	-5.374848e-06	-8.091685e-09	-3.827701e+01	-5.290167e+02
4.000000e-08	-5.368229e-06	-8.084191e-09	-3.822987e+01	-5.286013e+02
5.000000e-08	-5.360014e-06	-8.074343e-09	-3.817137e+01	-5.280706e+02
6.000000e-08	-5.349866e-06	-8.063412e-09	-3.809910e+01	-5.273974e+02
7.000000e-08	-5.337591e-06	-8.047599e-09	-3.801168e+01	-5.265604e+02
8.000000e-08	-5.323466e-06	-8.029745e-09	-3.791109e+01	-5.255519e+02
9.000000e-08	-5.307216e-06	-8.046550e-09	-3.779536e+01	-5.243806e+02
1.000000e-07	-5.288677e-06	-8.052703e-09	-3.766334e+01	-5.230719e+02
1.100000e-07	-5.268174e-06	-8.008470e-09	-3.751733e+01	-5.216633e+02
1.200000e-07	-5.245867e-06	-7.969503e-09	-3.735847e+01	-5.201970e+02
1.300000e-07	-5.221981e-06	-7.902968e-09	-3.718837e+01	-5.187110e+02
1.400000e-07	-5.196564e-06	-7.851353e-09	-3.700736e+01	-5.172300e+02
1.500000e-07	-5.169454e-06	-7.918825e-09	-3.681430e+01	-5.157601e+02
1.600000e-07	-5.140757e-06	-7.866863e-09	-3.660993e+01	-5.142868e+02
1.700000e-07	-5.110633e-06	-7.817827e-09	-3.639540e+01	-5.127772e+02
1.800000e-07	-5.078816e-06	-7.872628e-09	-3.616881e+01	-5.111870e+02
1.900000e-07	-5.044825e-06	-7.762843e-09	-3.592675e+01	-5.094688e+02
2.000000e-07	-5.009081e-06	-7.707727e-09	-3.567220e+01	-5.075815e+02
2.100000e-07	-4.971848e-06	-7.722197e-09	-3.540704e+01	-5.054974e+02
2.200000e-07	-4.932810e-06	-7.636026e-09	-3.512903e+01	-5.032066e+02
2.300000e-07	-4.891949e-06	-7.638078e-09	-3.483804e+01	-5.007166e+02
2.400000e-07	-4.849082e-06	-7.626976e-09	-3.453276e+01	-4.980491e+02
2.500000e-07	-4.804361e-06	-7.524456e-09	-3.421428e+01	-4.952334e+02
2.600000e-07	-4.757917e-06	-7.500086e-09	-3.388353e+01	-4.922992e+02
2.700000e-07	-4.709573e-06	-7.446266e-09	-3.353925e+01	-4.892703e+02
2.800000e-07	-4.659151e-06	-7.410466e-09	-3.318017e+01	-4.861599e+02
2.900000e-07	-4.606600e-06	-7.392930e-09	-3.280593e+01	-4.829698e+02
3.000000e-07	-4.552231e-06	-7.303684e-09	-3.241873e+01	-4.796921e+02
3.100000e-07	-4.496356e-06	-7.233702e-09	-3.202083e+01	-4.763127e+02
3.200000e-07	-4.438724e-06	-7.212347e-09	-3.161040e+01	-4.728167e+02
3.300000e-07	-4.379256e-06	-7.167834e-09	-3.118689e+01	-4.691925e+02
3.400000e-07	-4.318292e-06	-7.084637e-09	-3.075274e+01	-4.654347e+02
3.500000e-07	-4.255908e-06	-7.030058e-09	-3.030847e+01	-4.615450e+02
3.600000e-07	-4.192248e-06	-6.971288e-09	-2.985512e+01	-4.575311e+02
3.700000e-07	-4.127088e-06	-6.893192e-09	-2.939108e+01	-4.534033e+02
3.800000e-07	-4.060150e-06	-6.857079e-09	-2.891438e+01	-4.491717e+02
3.900000e-07	-3.991634e-06	-6.802322e-09	-2.842644e+01	-4.448426e+02
4.000000e-07	-3.921784e-06	-6.707064e-09	-2.792901e+01	-4.404173e+02
4.100000e-07	-3.850712e-06	-6.623779e-09	-2.742287e+01	-4.358915e+02
4.200000e-07	-3.778427e-06	-6.555815e-09	-2.690809e+01	-4.312568e+02
4.300000e-07	-3.704654e-06	-6.503976e-09	-2.638272e+01	-4.265030e+02
4.400000e-07	-3.629245e-06	-6.437254e-09	-2.584568e+01	-4.216206e+02
4.500000e-07	-3.552389e-06	-6.360029e-09	-2.529835e+01	-4.166029e+02
4.600000e-07	-3.474147e-06	-6.270109e-09	-2.474116e+01	-4.114473e+02
4.700000e-07	-3.394404e-06	-6.174411e-09	-2.417326e+01	-4.061549e+02
4.800000e-07	-3.313425e-06	-6.094862e-09	-2.359658e+01	-4.007299e+02
4.900000e-07	-3.231373e-06	-6.021121e-09	-2.301224e+01	-3.951773e+02
5.000000e-07	-3.148148e-06	-5.943940e-09	-2.241955e+01	-3.895016e+02
5.100000e-07	-3.063935e-06	-5.844465e-09	-2.181983e+01	-3.837051e+02
5.200000e-07	-2.978828e-06	-5.745654e-09	-2.121374e+01	-3.777875e+02
5.300000e-07	-2.892765e-06	-5.656383e-09	-2.060084e+01	-3.717460e+02
5.400000e-07	-2.805678e-06	-5.566898e-09	-1.998065e+01	-3.655760e+02
5.500000e-07	-2.717755e-06	-5.475692e-09	-1.935451e+01	-3.592720e+02
5.600000e-07	-2.628935e-06	-5.371235e-09	-1.872197e+01	-3.528293e+02
5.700000e-07	-2.538832e-06	-5.259271e-09	-1.808031e+01	-3.462434e+02
5.800000e-07	-2.447597e-06	-5.156587e-09	-1.743058e+01	-3.395114e+02
5.900000e-07	-2.355592e-06	-5.065869e-09	-1.677536e+01	-3.326310e+02
6.000000e-07	-2.262835e-06	-4.963376e-09	-1.611479e+01	-3.256003e+02
6.100000e-07	-2.169277e-06	-4.845083e-09	-1.544852e+01	-3.184179e+02
6.200000e-07	-2.074920e-06	-4.725409e-09	-1.477655e+01	-3.110820e+02
6.300000e-07	-1.979818e-06	-4.609921e-09	-1.409929e+01	-3.035916e+02
6.400000e-07	-1.884070e-06	-4.496312e-09	-1.341742e+01	-2.959462e+02
6.500000e-07	-1.787703e-06	-4.384513e-09	-1.273114e+01	-2.881461e+02
6.600000e-07	-1.690615e-06	-4.268735e-09	-1.203972e+01	-2.801927e+02
6.700000e-07	-1.592681e-06	-4.138712e-09	-1.134229e+01	-2.720880e+02
6.800000e-07	-1.493977e-06	-4.000760e-09	-1.063937e+01	-2.638334e+02
6.900000e-07	-1.394717e-06	-3.870690e-09	-9.932486e+00	-2.554291e+02
7.000000e-07	-1.295097e-06	-3.748670e-09	-9.223040e+00	-2.468726e+02
7.100000e-07	-1.195148e-06	-3.620198e-09	-8.511255e+00	-2.381583e+02
7.200000e-07	-1.094848e-06	-3.480754e-09	-7.796964e+00	-2.292776e+02
7.300000e-07	-9.942460e-07	-3.335781e-09	-7.080528e+00	-2.202194e+02
7.400000e-07	-8.933499e-07	-3.193175e-09	-6.361996e+00	-2.109720e+02
7.500000e-07	-7.921373e-07	-3.051986e-09	-5.641210e+00	-2.015244e+02
7.600000e-07	-6.906220e-07	-2.908863e-09	-4.918268e+00	-1.918684e+02
7.700000e-07	-5.888075e-07	-2.757322e-09	-4.193196e+00	-1.819990e+02
7.800000e-07	-4.867340e-07	-2.595913e-09	-3.466279e+00	-1.719150e+02
7.900000e-07	-3.845017e-07	-2.434441e-09	-2.738231e+00	-1.616179e+02
8.000000e-07	-2.821568e-07	-2.274559e-09	-2.009381e+00	-1.511098e+02
8.100000e-07	-1.797349e-07	-2.113939e-09	-1.279983e+00	-1.403919e+02
8.200000e-07	-7.724203e-08	-1.947482e-09	-5.500795e-01	-1.294621e+02
8.300000e-07	2.535664e-08	-1.773068e-09	1.805774e-01	-1.183140e+02
8.400000e-07	1.279470e-07	-1.595317e-09	9.111754e-01	-1.069369e+02
8.500000e-07	2.304670e-07	-1.416690e-09	1.641272e+00	-9.531627e+01
8.600000e-07	3.329572e-07	-1.238880e-09	2.371156e+00	-8.343571e+01
8.700000e-07	4.353916e-07	-1.057025e-09	3.100644e+00	-7.127894e+01
8.800000e-07	5.377181e-07	-8.658641e-10	3.829362e+00	-5.883169e+01
8.900000e-07	6.399076e-07	-6.687872e-10	4.557106e+00	-4.608302e+01
9.000000e-07	7.418543e-07	-4.708119e-10	5.283119e+00	-3.302584e+01
9.100000e-07	8.434394e-07	-2.719608e-10	6.006558e+00	-1.965679e+01
9.200000e-07	9.446585e-07	-6.869233e-11	6.727391e+00	-5.975722e+00
9.300000e-07	1.045534e-06	1.418220e-10	7.445775e+00	8.014735e+00
9.400000e-07	1.146107e-06	3.604377e-10	8.162004e+00	2.230896e+01
9.500000e-07	1.246331e-06	5.838414e-10	8.875756e+00	3.689728e+01
9.600000e-07	1.346188e-06	8.082530e-10	9.586888e+00	5.176411e+01
9.700000e-07	1.445632e-06	1.035282e-09	1.029507e+01	6.688548e+01
9.800000e-07	1.544464e-06	1.268733e-09	1.099891e+01	8.222677e+01
9.900000e-07	1.642586e-06	1.507725e-09	1.169768e+01	9.774114e+01
1.000000e-06	1.739928e-06	1.749161e-09	1.239091e+01	1.133694e+02
1.010000e-06	1.836485e-06	1.987350e-09	1.307853e+01	1.290418e+02
1.020000e-06	1.932280e-06	2.223169e-09	1.376074e+01	1.446810e+02
1.030000e-06	2.027370e-06	2.458655e-09	1.443792e+01	1.602068e+02
1.040000e-06	2.121808e-06	2.691673e-09	1.511047e+01	1.755415e+02
1.050000e-06	2.215526e-06	2.921514e-09	1.577788e+01	1.906143e+02
1.060000e-06	2.308499e-06	3.144929e-09	1.643999e+01	2.053650e+02
1.070000e-06	2.400784e-06	3.361492e-09	1.709720e+01	2.197465e+02
1.080000e-06	2.492317e-06	3.571396e-09	1.774905e+01	2.337245e+02
1.090000e-06	2.582873e-06	3.775219e-09	1.839395e+01	2.472768e+02
1.100000e-06	2.672285e-06	3.973787e-09	1.903069e+01	2.603913e+02
1.110000e-06	2.760602e-06	4.166127e-09	1.965964e+01	2.730635e+02
1.120000e-06	2.847999e-06	4.351232e-09	2.028204e+01	2.852944e+02
1.130000e-06	2.934518e-06	4.528691e-09	2.089819e+01	2.970891e+02
1.140000e-06	3.020103e-06	4.701906e-09	2.150768e+01	3.084559e+02
1.150000e-06	3.104756e-06	4.870195e-09	2.211054e+01	3.194060e+02
1.160000e-06	3.188451e-06	5.032723e-09	2.270657e+01	3.299527e+02
1.170000e-06	3.271011e-06	5.188233e-09	2.329452e+01	3.401110e+02
1.180000e-06	3.352358e-06	5.336176e-09	2.387383e+01	3.498960e+02
1.190000e-06	3.432533e-06	5.479267e-09	2.444480e+01	3.593215e+02
1.200000e-06	3.511504e-06	5.617646e-09	2.500719e+01	3.683982e+02
1.210000e-06	3.589196e-06	5.751685e-09	2.556048e+01	3.771323e+02
1.220000e-06	3.665577e-06	5.881356e-09	2.610442e+01	3.855254e+02
1.230000e-06	3.740575e-06	6.001904e-09	2.663852e+01	3.935755e+02
1.240000e-06	3.814000e-06	6.114612e-09	2.716142e+01	4.012794e+02
1.250000e-06	3.885885e-06	6.223700e-09	2.767335e+01	4.086353e+02
1.260000e-06	3.956430e-06	6.330939e-09	2.817574e+01	4.156468e+02
1.270000e-06	4.025636e-06	6.434997e-09	2.866859e+01	4.223246e+02
1.280000e-06	4.093445e-06	6.531103e-09	2.915149e+01	4.286878e+02
1.290000e-06	4.159682e-06	6.620728e-09	2.962319e+01	4.347631e+02
1.300000e-06	4.224258e-06	6.706802e-09	3.008308e+01	4.405816e+02
1.310000e-06	4.287319e-06	6.792361e-09	3.053217e+01	4.461751e+02
1.320000e-06	4.348941e-06	6.876749e-09	3.097101e+01	4.515712e+02
1.330000e-06	4.409199e-06	6.958191e-09	3.140014e+01	4.567900e+02
1.340000e-06	4.467976e-06	7.035416e-09	3.181872e+01	4.618415e+02
1.350000e-06	4.524984e-06	7.107717e-09	3.222470e+01	4.667255e+02
1.360000e-06	4.580259e-06	7.177913e-09	3.261834e+01	4.714344e+02
1.370000e-06	4.633905e-06	7.247023e-09	3.300038e+01	4.759562e+02
1.380000e-06	4.685686e-06	7.312173e-09	3.336914e+01	4.802791e+02
1.390000e-06	4.735370e-06	7.372238e-09	3.372296e+01	4.843954e+02
1.400000e-06	4.783203e-06	7.429349e-09	3.406361e+01	4.883035e+02
1.410000e-06	4.829451e-06	7.485676e-09	3.439296e+01	4.920085e+02
1.420000e-06	4.874183e-06	7.541415e-09	3.471152e+01	4.955201e+02
1.430000e-06	4.917282e-06	7.594262e-09	3.501845e+01	4.988499e+02
1.440000e-06	4.958447e-06	7.641553e-09	3.531161e+01	5.020075e+02
1.450000e-06	4.997822e-06	7.684904e-09	3.559202e+01	5.049983e+02
1.460000e-06	5.035574e-06	7.725742e-09	3.586087e+01	5.078217e+02
1.470000e-06	5.071704e-06	7.765023e-09	3.611817e+01	5.104724e+02
1.480000e-06	5.106038e-06	7.802425e-09	3.636268e+01	5.129426e+02
1.490000e-06	5.138411e-06	7.835009e-09	3.659322e+01	5.152255e+02
1.500000e-06	5.169008e-06	7.863889e-09	3.681112e+01	5.173186e+02
1.510000e-06	5.197931e-06	7.891108e-09	3.701710e+01	5.192264e+02
1.520000e-06	5.225078e-06	7.916919e-09	3.721042e+01	5.209598e+02
1.530000e-06	5.250184e-06	7.940902e-09	3.738922e+01	5.225350e+02
1.540000e-06	5.273280e-06	7.961606e-09	3.755369e+01	5.239700e+02
1.550000e-06	5.294597e-06	7.980217e-09	3.770550e+01	5.252796e+02
1.560000e-06	5.314165e-06	7.997451e-09	3.784485e+01	5.264728e+02
1.570000e-06	5.331804e-06	8.012366e-09	3.797047e+01	5.275497e+02
1.580000e-06	5.347442e-06	8.025960e-09	3.808184e+01	5.285030e+02
1.590000e-06	5.361117e-06	8.039008e-09	3.817922e+01	5.293199e+02
1.600000e-06	5.372674e-06	8.050456e-09	3.826153e+01	5.299868e+02
1.610000e-06	5.382015e-06	8.059329e-09	3.832805e+01	5.304945e+02
1.620000e-06	5.389376e-06	8.065646e-09	3.838047e+01	5.308422e+02
1.630000e-06	5.394949e-06	8.070081e-09	3.842016e+01	5.310389e+02
1.640000e-06	5.398729e-06	8.073083e-09	3.844708e+01	5.311027e+02
1.650000e-06	5.400544e-06	8.075080e-09	3.846000e+01	5.310571e+02
1.660000e-06	5.400374e-06	8.075699e-09	3.845879e+01	5.309249e+02
1.670000e-06	5.398422e-06	8.072057e-09	3.844489e+01	5.307224e+02
1.680000e-06	5.394808e-06	8.067631e-09	3.841916e+01	5.304549e+02
1.690000e-06	5.389410e-06	8.061678e-09	3.838071e+01	5.301140e+02
1.700000e-06	5.382131e-06	8.055123e-09	3.832888e+01	5.296797e+02
1.710000e-06	5.373215e-06	8.047480e-09	3.826538e+01	5.291253e+02
1.720000e-06	5.362706e-06	8.038678e-09	3.819054e+01	5.284237e+02
1.730000e-06	5.350396e-06	8.035273e-09	3.810288e+01	5.275560e+02
1.740000e-06	5.336085e-06	7.994546e-09	3.800096e+01	5.265170e+02
1.750000e-06	5.319688e-06	7.939465e-09	3.788419e+01	5.253186e+02
1.760000e-06	5.300822e-06	7.943386e-09	3.774983e+01	5.239887e+02
1.770000e-06	5.279187e-06	7.939042e-09	3.759576e+01	5.225664e+02
1.780000e-06	5.255501e-06	7.965441e-09	3.742708e+01	5.210938e+02
1.790000e-06	5.230839e-06	7.954784e-09	3.725145e+01	5.196070e+02
1.800000e-06	5.205402e-06	7.823417e-09	3.707030e+01	5.181279e+02
1.810000e-06	5.178249e-06	7.856940e-09	3.687693e+01	5.166588e+02
1.820000e-06	5.148804e-06	7.849001e-09	3.666724e+01	5.151815e+02
1.830000e-06	5.117650e-06	7.745310e-09	3.644537e+01	5.136607e+02
1.840000e-06	5.084795e-06	7.838849e-09	3.621140e+01	5.120508e+02
1.850000e-06	5.050100e-06	7.812925e-09	3.596431e+01	5.103048e+02
1.860000e-06	5.013919e-06	7.738804e-09	3.570665e+01	5.083836e+02
1.870000e-06	4.975802e-06	7.801150e-09	3.543520e+01	5.062625e+02
1.880000e-06	4.935803e-06	7.657645e-09	3.515035e+01	5.039348e+02
1.890000e-06	4.894197e-06	7.595508e-09	3.485405e+01	5.014109e+02
1.900000e-06	4.850759e-06	7.642032e-09	3.454471e+01	4.987144e+02
1.910000e-06	4.805717e-06	7.541176e-09	3.422394e+01	4.958752e+02
1.920000e-06	4.758766e-06	7.567890e-09	3.388957e+01	4.929223e+02
1.930000e-06	4.709815e-06	7.486934e-09	3.354098e+01	4.898779e+02
1.940000e-06	4.659329e-06	7.380648e-09	3.318144e+01	4.867532e+02
1.950000e-06	4.607014e-06	7.418765e-09	3.280888e+01	4.835480e+02
1.960000e-06	4.552608e-06	7.334948e-09	3.242142e+01	4.802529e+02
1.970000e-06	4.496296e-06	7.280117e-09	3.202040e+01	4.768535e+02
1.980000e-06	4.438341e-06	7.220031e-09	3.160767e+01	4.733350e+02
1.990000e-06	4.378989e-06	7.151204e-09	3.118499e+01	4.696868e+02
2.000000e-06	4.318014e-06	7.120025e-09	3.075076e+01	4.659049e+02
2.010000e-06	4.255306e-06	7.039772e-09	3.030418e+01	4.619921e+02
2.020000e-06	4.191088e-06	7.020561e-09	2.984686e+01	4.579567e+02
2.030000e-06	4.125405e-06	6.925039e-09	2.937909e+01	4.538094e+02
2.040000e-06	4.058330e-06	6.837699e-09	2.890142e+01	4.495597e+02
2.050000e-06	3.989827e-06	6.805200e-09	2.841357e+01	4.452132e+02
2.060000e-06	3.919706e-06	6.729004e-09	2.791421e+01	4.407702e+02
2.070000e-06	3.848115e-06	6.688069e-09	2.740437e+01	4.362253e+02
2.080000e-06	3.775336e-06	6.590712e-09	2.688607e+01	4.315699e+02
2.090000e-06	3.701254e-06	6.503572e-09	2.635850e+01	4.267935e+02
2.100000e-06	3.625759e-06	6.426847e-09	2.582086e+01	4.218870e+02
2.110000e-06	3.548736e-06	6.349013e-09	2.527235e+01	4.168445e+02
2.120000e-06	3.470099e-06	6.299886e-09	2.471233e+01	4.116639e+02
2.130000e-06	3.390260e-06	6.214256e-09	2.414375e+01	4.063472e+02
2.140000e-06	3.309347e-06	6.131362e-09	2.356753e+01	4.008987e+02
2.150000e-06	3.227251e-06	6.030235e-09	2.298289e+01	3.953236e+02
2.160000e-06	3.144090e-06	5.943934e-09	2.239065e+01	3.896259e+02
2.170000e-06	3.059971e-06	5.867327e-09	2.179160e+01	3.838076e+02
2.180000e-06	2.974661e-06	5.782631e-09	2.118407e+01	3.778679e+02
2.190000e-06	2.887893e-06	5.688733e-09	2.056614e+01	3.718035e+02
2.200000e-06	2.800034e-06	5.571636e-09	1.994045e+01	3.656097e+02
2.210000e-06	2.711330e-06	5.480611e-09	1.930875e+01	3.592810e+02
2.220000e-06	2.621714e-06	5.397912e-09	1.867055e+01	3.528127e+02
2.230000e-06	2.531164e-06	5.303989e-09	1.802570e+01	3.462007e+02
2.240000e-06	2.439774e-06	5.192625e-09	1.737486e+01	3.394420e+02
2.250000e-06	2.347702e-06	5.083717e-09	1.671917e+01	3.325346e+02
2.260000e-06	2.254737e-06	4.976316e-09	1.605712e+01	3.254766e+02
2.270000e-06	2.160744e-06	4.863751e-09	1.538775e+01	3.182666e+02
2.280000e-06	2.065755e-06	4.759885e-09	1.471128e+01	3.109029e+02
2.290000e-06	1.969904e-06	4.650291e-09	1.402868e+01	3.033846e+02
2.300000e-06	1.873450e-06	4.524463e-09	1.334179e+01	2.957112e+02
2.310000e-06	1.776517e-06	4.391255e-09	1.265148e+01	2.878833e+02
2.320000e-06	1.679107e-06	4.274756e-09	1.195777e+01	2.799025e+02
2.330000e-06	1.581112e-06	4.166825e-09	1.125990e+01	2.717706e+02
2.340000e-06	1.482565e-06	4.047802e-09	1.055810e+01	2.634890e+02
2.350000e-06	1.383536e-06	3.913369e-09	9.852858e+00	2.550575e+02
2.360000e-06	1.284121e-06	3.774332e-09	9.144874e+00	2.464730e+02
2.370000e-06	1.184432e-06	3.639085e-09	8.434937e+00	2.377295e+02
2.380000e-06	1.084480e-06	3.505950e-09	7.723130e+00	2.288176e+02
2.390000e-06	9.842209e-07	3.373382e-09	7.009134e+00	2.197263e+02
2.400000e-06	8.835673e-07	3.234117e-09	6.292330e+00	2.104435e+02
2.410000e-06	7.824954e-07	3.086304e-09	5.572545e+00	2.009590e+02
2.420000e-06	6.810563e-07	2.934858e-09	4.850146e+00	1.912648e+02
2.430000e-06	5.792617e-07	2.786704e-09	4.125215e+00	1.813568e+02
2.440000e-06	4.771824e-07	2.641068e-09	3.398257e+00	1.712343e+02
2.450000e-06	3.749185e-07	2.488725e-09	2.669984e+00	1.608990e+02
2.460000e-06	2.724599e-07	2.324096e-09	1.940324e+00	1.503532e+02
2.470000e-06	1.698441e-07	2.154604e-09	1.209546e+00	1.395974e+02
2.480000e-06	6.715952e-08	1.988203e-09	4.782769e-01	1.286289e+02
2.490000e-06	-3.556945e-08	1.822182e-09	-2.533080e-01	1.174406e+02
2.500000e-06	-1.383375e-07	1.652419e-09	-9.851715e-01	1.060209e+02
2.510000e-06	-2.410117e-07	1.474883e-09	-1.716366e+00	9.435474e+01
2.520000e-06	-3.435445e-07	1.291554e-09	-2.446554e+00	8.242573e+01
2.530000e-06	-4.460226e-07	1.105582e-09	-3.176353e+00	7.021776e+01
2.540000e-06	-5.483813e-07	9.153581e-10	-3.905300e+00	5.771709e+01
2.550000e-06	-6.504638e-07	7.206661e-10	-4.632282e+00	4.491344e+01
2.560000e-06	-7.521307e-07	5.185061e-10	-5.356303e+00	3.180043e+01
2.570000e-06	-8.534144e-07	3.057921e-10	-6.077595e+00	1.837530e+01
2.580000e-06	-9.543614e-07	8.883143e-11	-6.796490e+00	4.638422e+00
2.590000e-06	-1.054870e-06	-1.260882e-10	-7.512266e+00	-9.407078e+00
2.600000e-06	-1.154927e-06	-3.406489e-10	-8.224821e+00	-2.375496e+01
2.610000e-06	-1.254575e-06	-5.611328e-10	-8.934463e+00	-3.839466e+01
2.620000e-06	-1.353813e-06	-7.926998e-10	-9.641188e+00	-5.330926e+01
2.630000e-06	-1.452603e-06	-1.029579e-09	-1.034472e+01	-6.847307e+01
2.640000e-06	-1.550878e-06	-1.264622e-09	-1.104459e+01	-8.384936e+01
2.650000e-06	-1.648640e-06	-1.497819e-09	-1.174080e+01	-9.938905e+01
2.660000e-06	-1.745815e-06	-1.733272e-09	-1.243283e+01	-1.150309e+02
2.670000e-06	-1.842368e-06	-1.973910e-09	-1.312043e+01	-1.307034e+02
2.680000e-06	-1.938380e-06	-2.217371e-09	-1.380418e+01	-1.463285e+02
2.690000e-06	-2.033813e-06	-2.457999e-09	-1.448381e+01	-1.618261e+02
2.700000e-06	-2.128514e-06	-2.690941e-09	-1.515822e+01	-1.771192e+02
2.710000e-06	-2.222294e-06	-2.916414e-09	-1.582608e+01	-1.921388e+02
2.720000e-06	-2.315087e-06	-3.140456e-09	-1.648691e+01	-2.068270e+02
2.730000e-06	-2.406939e-06	-3.364294e-09	-1.714103e+01	-2.211389e+02
2.740000e-06	-2.497912e-06	-3.580244e-09	-1.778889e+01	-2.350424e+02
2.750000e-06	-2.588004e-06	-3.785771e-09	-1.843049e+01	-2.485175e+02
2.760000e-06	-2.677187e-06	-3.984056e-09	-1.906560e+01	-2.615535e+02
2.770000e-06	-2.765553e-06	-4.179965e-09	-1.969490e+01	-2.741469e+02
2.780000e-06	-2.853154e-06	-4.371852e-09	-2.031875e+01	-2.862997e+02
2.790000e-06	-2.939740e-06	-4.554112e-09	-2.093538e+01	-2.980176e+02
2.800000e-06	-3.025129e-06	-4.724728e-09	-2.154347e+01	-3.093094e+02
2.810000e-06	-3.109359e-06	-4.886090e-09	-2.214332e+01	-3.201867e+02
2.820000e-06	-3.192493e-06	-5.041774e-09	-2.273535e+01	-3.306632e+02
2.830000e-06	-3.274621e-06	-5.193424e-09	-2.332023e+01	-3.407541e+02
2.840000e-06	-3.355704e-06	-5.343359e-09	-2.389766e+01	-3.504743e+02
2.850000e-06	-3.435656e-06	-5.489287e-09	-2.446704e+01	-3.598371e+02
2.860000e-06	-3.514339e-06	-5.627593e-09	-2.502739e+01	-3.688526e+02
2.870000e-06	-3.591577e-06	-5.758788e-09	-2.557743e+01	-3.775261e+02
2.880000e-06	-3.667318e-06	-5.887356e-09	-2.611683e+01	-3.858584e+02
2.890000e-06	-3.741572e-06	-6.013908e-09	-2.664563e+01	-3.938473e+02
2.900000e-06	-3.814429e-06	-6.133056e-09	-2.716448e+01	-4.014893e+02
2.910000e-06	-3.886024e-06	-6.243000e-09	-2.767434e+01	-4.087836e+02
2.920000e-06	-3.956176e-06	-6.347390e-09	-2.817393e+01	-4.157348e+02
2.930000e-06	-4.024738e-06	-6.448734e-09	-2.866219e+01	-4.223550e+02
2.940000e-06	-4.091883e-06	-6.546369e-09	-2.914037e+01	-4.286650e+02
