# Temperatura_=_81.09
# Concentracion g/m^3_=_15000.0
# C_Vs_to_Am_M_A/Vsm_=_65563218390.804596
# pendiente_HvsI_1/m_=_3716.3
# ordenada_HvsI_A/m_=_1297.0
# frecuencia_Hz_=_301585.76986327843

Tiempo_(s)	Campo_(V.s)	Magnetizacion_(V.s)	Campo_(kA/m)	Magnetizacion_(A/m)
0.000000e+00	-5.365389e-06	-7.931750e-09	-3.833843e+01	-5.180647e+02
1.000000e-08	-5.362830e-06	-7.930783e-09	-3.832014e+01	-5.178292e+02
2.000000e-08	-5.358461e-06	-7.923231e-09	-3.828893e+01	-5.175117e+02
3.000000e-08	-5.352507e-06	-7.914024e-09	-3.824638e+01	-5.171105e+02
4.000000e-08	-5.345017e-06	-7.904461e-09	-3.819286e+01	-5.166157e+02
5.000000e-08	-5.335762e-06	-7.892246e-09	-3.812673e+01	-5.160112e+02
6.000000e-08	-5.324479e-06	-7.876415e-09	-3.804611e+01	-5.152788e+02
7.000000e-08	-5.311312e-06	-7.852586e-09	-3.795202e+01	-5.144039e+02
8.000000e-08	-5.296081e-06	-7.837242e-09	-3.784319e+01	-5.133801e+02
9.000000e-08	-5.278586e-06	-7.893922e-09	-3.771818e+01	-5.122130e+02
1.000000e-07	-5.258992e-06	-7.883680e-09	-3.757817e+01	-5.109207e+02
1.100000e-07	-5.237441e-06	-7.808697e-09	-3.742418e+01	-5.095315e+02
1.200000e-07	-5.214214e-06	-7.785459e-09	-3.725821e+01	-5.080785e+02
1.300000e-07	-5.189545e-06	-7.668411e-09	-3.708193e+01	-5.065929e+02
1.400000e-07	-5.163292e-06	-7.656164e-09	-3.689435e+01	-5.050967e+02
1.500000e-07	-5.135356e-06	-7.809078e-09	-3.669473e+01	-5.035971e+02
1.600000e-07	-5.105909e-06	-7.632459e-09	-3.648431e+01	-5.020842e+02
1.700000e-07	-5.074946e-06	-7.629258e-09	-3.626307e+01	-5.005311e+02
1.800000e-07	-5.041895e-06	-7.731552e-09	-3.602690e+01	-4.988994e+02
1.900000e-07	-5.006844e-06	-7.490762e-09	-3.577645e+01	-4.971453e+02
2.000000e-07	-4.970364e-06	-7.537818e-09	-3.551577e+01	-4.952285e+02
2.100000e-07	-4.932208e-06	-7.590901e-09	-3.524313e+01	-4.931189e+02
2.200000e-07	-4.892312e-06	-7.436160e-09	-3.495806e+01	-4.908024e+02
2.300000e-07	-4.850485e-06	-7.455624e-09	-3.465918e+01	-4.882819e+02
2.400000e-07	-4.806667e-06	-7.409463e-09	-3.434608e+01	-4.855762e+02
2.500000e-07	-4.761132e-06	-7.318970e-09	-3.402071e+01	-4.827145e+02
2.600000e-07	-4.713748e-06	-7.321385e-09	-3.368212e+01	-4.797298e+02
2.700000e-07	-4.664306e-06	-7.252333e-09	-3.332884e+01	-4.766520e+02
2.800000e-07	-4.612760e-06	-7.243268e-09	-3.296051e+01	-4.735018e+02
2.900000e-07	-4.559276e-06	-7.175552e-09	-3.257834e+01	-4.702881e+02
3.000000e-07	-4.504201e-06	-7.088703e-09	-3.218480e+01	-4.670069e+02
3.100000e-07	-4.447573e-06	-7.075205e-09	-3.178017e+01	-4.636448e+02
3.200000e-07	-4.389094e-06	-7.032799e-09	-3.136231e+01	-4.601827e+02
3.300000e-07	-4.328950e-06	-6.968026e-09	-3.093255e+01	-4.566014e+02
3.400000e-07	-4.267368e-06	-6.867545e-09	-3.049251e+01	-4.528864e+02
3.500000e-07	-4.204423e-06	-6.831254e-09	-3.004274e+01	-4.490307e+02
3.600000e-07	-4.140049e-06	-6.789433e-09	-2.958276e+01	-4.450359e+02
3.700000e-07	-4.073947e-06	-6.717409e-09	-2.911042e+01	-4.409105e+02
3.800000e-07	-4.006240e-06	-6.675348e-09	-2.862662e+01	-4.366673e+02
3.900000e-07	-3.937181e-06	-6.590294e-09	-2.813316e+01	-4.323195e+02
4.000000e-07	-3.866829e-06	-6.498068e-09	-2.763046e+01	-4.278771e+02
4.100000e-07	-3.795319e-06	-6.420921e-09	-2.711949e+01	-4.233445e+02
4.200000e-07	-3.722557e-06	-6.371333e-09	-2.659956e+01	-4.187194e+02
4.300000e-07	-3.648226e-06	-6.324156e-09	-2.606843e+01	-4.139938e+02
4.400000e-07	-3.572335e-06	-6.239077e-09	-2.552615e+01	-4.091560e+02
4.500000e-07	-3.495006e-06	-6.152238e-09	-2.497359e+01	-4.041931e+02
4.600000e-07	-3.416206e-06	-6.062993e-09	-2.441053e+01	-3.990944e+02
4.700000e-07	-3.336110e-06	-5.986135e-09	-2.383820e+01	-3.938527e+02
4.800000e-07	-3.254789e-06	-5.916917e-09	-2.325712e+01	-3.884664e+02
4.900000e-07	-3.172209e-06	-5.831933e-09	-2.266704e+01	-3.829384e+02
5.000000e-07	-3.088590e-06	-5.744071e-09	-2.206954e+01	-3.772754e+02
5.100000e-07	-3.004124e-06	-5.645500e-09	-2.146599e+01	-3.714857e+02
5.200000e-07	-2.918740e-06	-5.553152e-09	-2.085588e+01	-3.655775e+02
5.300000e-07	-2.832359e-06	-5.463517e-09	-2.023865e+01	-3.595565e+02
5.400000e-07	-2.745125e-06	-5.370790e-09	-1.961531e+01	-3.534251e+02
5.500000e-07	-2.657034e-06	-5.274456e-09	-1.898586e+01	-3.471818e+02
5.600000e-07	-2.567812e-06	-5.167625e-09	-1.834833e+01	-3.408216e+02
5.700000e-07	-2.477366e-06	-5.072587e-09	-1.770204e+01	-3.343368e+02
5.800000e-07	-2.385895e-06	-4.985543e-09	-1.704843e+01	-3.277184e+02
5.900000e-07	-2.293627e-06	-4.892658e-09	-1.638913e+01	-3.209577e+02
6.000000e-07	-2.200635e-06	-4.775486e-09	-1.572466e+01	-3.140474e+02
6.100000e-07	-2.106859e-06	-4.653473e-09	-1.505458e+01	-3.069825e+02
6.200000e-07	-2.012338e-06	-4.542648e-09	-1.437918e+01	-2.997609e+02
6.300000e-07	-1.917152e-06	-4.433696e-09	-1.369903e+01	-2.923829e+02
6.400000e-07	-1.821354e-06	-4.325927e-09	-1.301450e+01	-2.848510e+02
6.500000e-07	-1.724917e-06	-4.212899e-09	-1.232541e+01	-2.771688e+02
6.600000e-07	-1.627713e-06	-4.091719e-09	-1.163083e+01	-2.693397e+02
6.700000e-07	-1.529741e-06	-3.958721e-09	-1.093078e+01	-2.613654e+02
6.800000e-07	-1.431051e-06	-3.830480e-09	-1.022558e+01	-2.532456e+02
6.900000e-07	-1.331805e-06	-3.711776e-09	-9.516423e+00	-2.449764e+02
7.000000e-07	-1.232165e-06	-3.591482e-09	-8.804445e+00	-2.365509e+02
7.100000e-07	-1.132203e-06	-3.459995e-09	-8.090163e+00	-2.279593e+02
7.200000e-07	-1.032007e-06	-3.320899e-09	-7.374216e+00	-2.191904e+02
7.300000e-07	-9.315590e-07	-3.182352e-09	-6.656463e+00	-2.102326e+02
7.400000e-07	-8.307915e-07	-3.043360e-09	-5.936428e+00	-2.010757e+02
7.500000e-07	-7.296712e-07	-2.903137e-09	-5.213872e+00	-1.917123e+02
7.600000e-07	-6.282758e-07	-2.757059e-09	-4.489350e+00	-1.821385e+02
7.700000e-07	-5.266820e-07	-2.604863e-09	-3.763411e+00	-1.723536e+02
7.800000e-07	-4.249152e-07	-2.449010e-09	-3.036235e+00	-1.623596e+02
7.900000e-07	-3.230220e-07	-2.294722e-09	-2.308156e+00	-1.521595e+02
8.000000e-07	-2.210123e-07	-2.138615e-09	-1.579245e+00	-1.417558e+02
8.100000e-07	-1.188846e-07	-1.976564e-09	-8.494907e-01	-1.311484e+02
8.200000e-07	-1.667781e-08	-1.807346e-09	-1.191714e-01	-1.203338e+02
8.300000e-07	8.551454e-08	-1.632646e-09	6.110449e-01	-1.093041e+02
8.400000e-07	1.876949e-07	-1.459184e-09	1.341175e+00	-9.804803e+01
8.500000e-07	2.898407e-07	-1.286385e-09	2.071059e+00	-8.655164e+01
8.600000e-07	3.918875e-07	-1.111044e-09	2.800235e+00	-7.480021e+01
8.700000e-07	4.938417e-07	-9.289773e-10	3.528750e+00	-6.277979e+01
8.800000e-07	5.956773e-07	-7.410438e-10	4.256417e+00	-5.047860e+01
8.900000e-07	6.973059e-07	-5.495279e-10	4.982605e+00	-3.788778e+01
9.000000e-07	7.986997e-07	-3.542981e-10	5.707115e+00	-2.500150e+01
9.100000e-07	8.997959e-07	-1.565886e-10	6.429499e+00	-1.181670e+01
9.200000e-07	1.000500e-06	4.463876e-11	7.149084e+00	1.667248e+00
9.300000e-07	1.100881e-06	2.525287e-10	7.866353e+00	1.544853e+01
9.400000e-07	1.200997e-06	4.677014e-10	8.581731e+00	2.952216e+01
9.500000e-07	1.300846e-06	6.848448e-10	9.295202e+00	4.387835e+01
9.600000e-07	1.400292e-06	9.035125e-10	1.000580e+01	5.850031e+01
9.700000e-07	1.499097e-06	1.126150e-09	1.071181e+01	7.336163e+01
9.800000e-07	1.597109e-06	1.354968e-09	1.141215e+01	8.842419e+01
9.900000e-07	1.694274e-06	1.589512e-09	1.210645e+01	1.036370e+02
1.000000e-06	1.790725e-06	1.824965e-09	1.279564e+01	1.189367e+02
1.010000e-06	1.886505e-06	2.058951e-09	1.348003e+01	1.342498e+02
1.020000e-06	1.981550e-06	2.289374e-09	1.415918e+01	1.494967e+02
1.030000e-06	2.075906e-06	2.517965e-09	1.483341e+01	1.645968e+02
1.040000e-06	2.169587e-06	2.745398e-09	1.550280e+01	1.794738e+02
1.050000e-06	2.262518e-06	2.967654e-09	1.616684e+01	1.940608e+02
1.060000e-06	2.354745e-06	3.182019e-09	1.682585e+01	2.083037e+02
1.070000e-06	2.446352e-06	3.386864e-09	1.748043e+01	2.221628e+02
1.080000e-06	2.537102e-06	3.585570e-09	1.812888e+01	2.356127e+02
1.090000e-06	2.626703e-06	3.781298e-09	1.876913e+01	2.486402e+02
1.100000e-06	2.715188e-06	3.975714e-09	1.940140e+01	2.612413e+02
1.110000e-06	2.802707e-06	4.163350e-09	2.002677e+01	2.734180e+02
1.120000e-06	2.889339e-06	4.342756e-09	2.064580e+01	2.851753e+02
1.130000e-06	2.975021e-06	4.514977e-09	2.125803e+01	2.965194e+02
1.140000e-06	3.059742e-06	4.682096e-09	2.186341e+01	3.074567e+02
1.150000e-06	3.143605e-06	4.844281e-09	2.246265e+01	3.179939e+02
1.160000e-06	3.226456e-06	4.998338e-09	2.305467e+01	3.281385e+02
1.170000e-06	3.308065e-06	5.145489e-09	2.363780e+01	3.378990e+02
1.180000e-06	3.388397e-06	5.286535e-09	2.421182e+01	3.472856e+02
1.190000e-06	3.467519e-06	5.423737e-09	2.477719e+01	3.563090e+02
1.200000e-06	3.545433e-06	5.556925e-09	2.533392e+01	3.649799e+02
1.210000e-06	3.622118e-06	5.685976e-09	2.588187e+01	3.733074e+02
1.220000e-06	3.697492e-06	5.806935e-09	2.642046e+01	3.812987e+02
1.230000e-06	3.771292e-06	5.918778e-09	2.694780e+01	3.889584e+02
1.240000e-06	3.843485e-06	6.024465e-09	2.746366e+01	3.962897e+02
1.250000e-06	3.914292e-06	6.129435e-09	2.796961e+01	4.032962e+02
1.260000e-06	3.983744e-06	6.233032e-09	2.846587e+01	4.099837e+02
1.270000e-06	4.051879e-06	6.332100e-09	2.895273e+01	4.163627e+02
1.280000e-06	4.118581e-06	6.424581e-09	2.942936e+01	4.224493e+02
1.290000e-06	4.183608e-06	6.512350e-09	2.989400e+01	4.282652e+02
1.300000e-06	4.247050e-06	6.596067e-09	3.034733e+01	4.338367e+02
1.310000e-06	4.309082e-06	6.675628e-09	3.079058e+01	4.391909e+02
1.320000e-06	4.369734e-06	6.752883e-09	3.122397e+01	4.443531e+02
1.330000e-06	4.429017e-06	6.827757e-09	3.164757e+01	4.493426e+02
1.340000e-06	4.486634e-06	6.901354e-09	3.205928e+01	4.541707e+02
1.350000e-06	4.542428e-06	6.973687e-09	3.245796e+01	4.588396e+02
1.360000e-06	4.596604e-06	7.043714e-09	3.284508e+01	4.633434e+02
1.370000e-06	4.649088e-06	7.108865e-09	3.322010e+01	4.676708e+02
1.380000e-06	4.699543e-06	7.168855e-09	3.358062e+01	4.718086e+02
1.390000e-06	4.747939e-06	7.225852e-09	3.392644e+01	4.757459e+02
1.400000e-06	4.794642e-06	7.282038e-09	3.426016e+01	4.794765e+02
1.410000e-06	4.839819e-06	7.336704e-09	3.458297e+01	4.830011e+02
1.420000e-06	4.883427e-06	7.387235e-09	3.489457e+01	4.863266e+02
1.430000e-06	4.925258e-06	7.434137e-09	3.519347e+01	4.894643e+02
1.440000e-06	4.965227e-06	7.477025e-09	3.547907e+01	4.924271e+02
1.450000e-06	5.003440e-06	7.517028e-09	3.575212e+01	4.952263e+02
1.460000e-06	5.040060e-06	7.555409e-09	3.601379e+01	4.978690e+02
1.470000e-06	5.075044e-06	7.593314e-09	3.626377e+01	5.003577e+02
1.480000e-06	5.108035e-06	7.630067e-09	3.649951e+01	5.026899e+02
1.490000e-06	5.139178e-06	7.662038e-09	3.672204e+01	5.048610e+02
1.500000e-06	5.168689e-06	7.690275e-09	3.693291e+01	5.068663e+02
1.510000e-06	5.196568e-06	7.715582e-09	3.713212e+01	5.087034e+02
1.520000e-06	5.222497e-06	7.738876e-09	3.731739e+01	5.103745e+02
1.530000e-06	5.246287e-06	7.760233e-09	3.748739e+01	5.118859e+02
1.540000e-06	5.268194e-06	7.780088e-09	3.764393e+01	5.132475e+02
1.550000e-06	5.288421e-06	7.799095e-09	3.778846e+01	5.144699e+02
1.560000e-06	5.306820e-06	7.816974e-09	3.791993e+01	5.155622e+02
1.570000e-06	5.323131e-06	7.833094e-09	3.803648e+01	5.165297e+02
1.580000e-06	5.337489e-06	7.846334e-09	3.813907e+01	5.173731e+02
1.590000e-06	5.349973e-06	7.857272e-09	3.822828e+01	5.180889e+02
1.600000e-06	5.360322e-06	7.865696e-09	3.830223e+01	5.186715e+02
1.610000e-06	5.368464e-06	7.872281e-09	3.836040e+01	5.191158e+02
1.620000e-06	5.374680e-06	7.878703e-09	3.840482e+01	5.194206e+02
1.630000e-06	5.379168e-06	7.884103e-09	3.843689e+01	5.195898e+02
1.640000e-06	5.381801e-06	7.887523e-09	3.845570e+01	5.196330e+02
1.650000e-06	5.382402e-06	7.891100e-09	3.846000e+01	5.195639e+02
1.660000e-06	5.381169e-06	7.889020e-09	3.845119e+01	5.193967e+02
1.670000e-06	5.378270e-06	7.880991e-09	3.843047e+01	5.191430e+02
1.680000e-06	5.373729e-06	7.876564e-09	3.839803e+01	5.188075e+02
1.690000e-06	5.367294e-06	7.870338e-09	3.835205e+01	5.183869e+02
1.700000e-06	5.359016e-06	7.862514e-09	3.829290e+01	5.178697e+02
1.710000e-06	5.349188e-06	7.855012e-09	3.822267e+01	5.172388e+02
1.720000e-06	5.337674e-06	7.851280e-09	3.814039e+01	5.164765e+02
1.730000e-06	5.324258e-06	7.865027e-09	3.804453e+01	5.155694e+02
1.740000e-06	5.308815e-06	7.765451e-09	3.793418e+01	5.145135e+02
1.750000e-06	5.291054e-06	7.722050e-09	3.780727e+01	5.133172e+02
1.760000e-06	5.270599e-06	7.759150e-09	3.766111e+01	5.120011e+02
1.770000e-06	5.247744e-06	7.727809e-09	3.749780e+01	5.105950e+02
1.780000e-06	5.223457e-06	7.843677e-09	3.732426e+01	5.091322e+02
1.790000e-06	5.198541e-06	7.748624e-09	3.714622e+01	5.076424e+02
1.800000e-06	5.172388e-06	7.549693e-09	3.695934e+01	5.061450e+02
1.810000e-06	5.143983e-06	7.748178e-09	3.675637e+01	5.046436e+02
1.820000e-06	5.113745e-06	7.623443e-09	3.654031e+01	5.031243e+02
1.830000e-06	5.081877e-06	7.521423e-09	3.631259e+01	5.015575e+02
1.840000e-06	5.047963e-06	7.771935e-09	3.607026e+01	4.999029e+02
1.850000e-06	5.012446e-06	7.569710e-09	3.581647e+01	4.981166e+02
1.860000e-06	4.975224e-06	7.527973e-09	3.555050e+01	4.961601e+02
1.870000e-06	4.936013e-06	7.651145e-09	3.527032e+01	4.940064e+02
1.880000e-06	4.895155e-06	7.419995e-09	3.497837e+01	4.916448e+02
1.890000e-06	4.852497e-06	7.492168e-09	3.467356e+01	4.890822e+02
1.900000e-06	4.808214e-06	7.465071e-09	3.435713e+01	4.863399e+02
1.910000e-06	4.762216e-06	7.358872e-09	3.402846e+01	4.834486e+02
1.920000e-06	4.714088e-06	7.448202e-09	3.368455e+01	4.804413e+02
1.930000e-06	4.664332e-06	7.200015e-09	3.332902e+01	4.773462e+02
1.940000e-06	4.613018e-06	7.250071e-09	3.296236e+01	4.741817e+02
1.950000e-06	4.559672e-06	7.288056e-09	3.258117e+01	4.709537e+02
1.960000e-06	4.504319e-06	7.102717e-09	3.218565e+01	4.676562e+02
1.970000e-06	4.447162e-06	7.119624e-09	3.177723e+01	4.642739e+02
1.980000e-06	4.388533e-06	7.007512e-09	3.135830e+01	4.607873e+02
1.990000e-06	4.328509e-06	7.019504e-09	3.092940e+01	4.571780e+02
2.000000e-06	4.266810e-06	6.952650e-09	3.048852e+01	4.534327e+02
2.010000e-06	4.203436e-06	6.843607e-09	3.003569e+01	4.495464e+02
2.020000e-06	4.138505e-06	6.877609e-09	2.957172e+01	4.455222e+02
2.030000e-06	4.072210e-06	6.704639e-09	2.909801e+01	4.413699e+02
2.040000e-06	4.004563e-06	6.670013e-09	2.861464e+01	4.371028e+02
2.050000e-06	3.935450e-06	6.639462e-09	2.812079e+01	4.327337e+02
2.060000e-06	3.864781e-06	6.582035e-09	2.761583e+01	4.282714e+02
2.070000e-06	3.792668e-06	6.525841e-09	2.710054e+01	4.237189e+02
2.080000e-06	3.719281e-06	6.367686e-09	2.657615e+01	4.190727e+02
2.090000e-06	3.644530e-06	6.339960e-09	2.604202e+01	4.143237e+02
2.100000e-06	3.568380e-06	6.261384e-09	2.549789e+01	4.094597e+02
2.110000e-06	3.490658e-06	6.206139e-09	2.494252e+01	4.044681e+02
2.120000e-06	3.411460e-06	6.132692e-09	2.437661e+01	3.993387e+02
2.130000e-06	3.331089e-06	6.029783e-09	2.380232e+01	3.940656e+02
2.140000e-06	3.249585e-06	5.960874e-09	2.321994e+01	3.886481e+02
2.150000e-06	3.167021e-06	5.844015e-09	2.262998e+01	3.830900e+02
2.160000e-06	3.083504e-06	5.789088e-09	2.203320e+01	3.773987e+02
2.170000e-06	2.998971e-06	5.711424e-09	2.142917e+01	3.715826e+02
2.180000e-06	2.913147e-06	5.623750e-09	2.081591e+01	3.656493e+02
2.190000e-06	2.826038e-06	5.511409e-09	2.019348e+01	3.596042e+02
2.200000e-06	2.737927e-06	5.404865e-09	1.956388e+01	3.534487e+02
2.210000e-06	2.648880e-06	5.339262e-09	1.892759e+01	3.471804e+02
2.220000e-06	2.558918e-06	5.240879e-09	1.828477e+01	3.407938e+02
2.230000e-06	2.468064e-06	5.131449e-09	1.763557e+01	3.342806e+02
2.240000e-06	2.376446e-06	5.013513e-09	1.698091e+01	3.276320e+02
2.250000e-06	2.284125e-06	4.920432e-09	1.632123e+01	3.208394e+02
2.260000e-06	2.190990e-06	4.819955e-09	1.565574e+01	3.138959e+02
2.270000e-06	2.096912e-06	4.716627e-09	1.498350e+01	3.067971e+02
2.280000e-06	2.001786e-06	4.610502e-09	1.430378e+01	2.995414e+02
2.290000e-06	1.905849e-06	4.488066e-09	1.361826e+01	2.921297e+02
2.300000e-06	1.809359e-06	4.359274e-09	1.292879e+01	2.845649e+02
2.310000e-06	1.712399e-06	4.239884e-09	1.223596e+01	2.768505e+02
2.320000e-06	1.614933e-06	4.142846e-09	1.153952e+01	2.689897e+02
2.330000e-06	1.516899e-06	4.028712e-09	1.083901e+01	2.609840e+02
2.340000e-06	1.418349e-06	3.894624e-09	1.013483e+01	2.528322e+02
2.350000e-06	1.319383e-06	3.751944e-09	9.427662e+00	2.445297e+02
2.360000e-06	1.220031e-06	3.619580e-09	8.717739e+00	2.360691e+02
2.370000e-06	1.120331e-06	3.495061e-09	8.005332e+00	2.274401e+02
2.380000e-06	1.020345e-06	3.368851e-09	7.290885e+00	2.186311e+02
2.390000e-06	9.201049e-07	3.235835e-09	6.574617e+00	2.096310e+02
2.400000e-06	8.195877e-07	3.091683e-09	5.856371e+00	2.004300e+02
2.410000e-06	7.187394e-07	2.943893e-09	5.135758e+00	1.910213e+02
2.420000e-06	6.176724e-07	2.796493e-09	4.413583e+00	1.814017e+02
2.430000e-06	5.163685e-07	2.651575e-09	3.689715e+00	1.715713e+02
2.440000e-06	4.147933e-07	2.500069e-09	2.963909e+00	1.615325e+02
2.450000e-06	3.129946e-07	2.341027e-09	2.236505e+00	1.512882e+02
2.460000e-06	2.110666e-07	2.177151e-09	1.508178e+00	1.408405e+02
2.470000e-06	1.090304e-07	2.017939e-09	7.790776e-01	1.301887e+02
2.480000e-06	6.869938e-09	1.863073e-09	4.908920e-02	1.193284e+02
2.490000e-06	-9.531797e-08	1.699448e-09	-6.810954e-01	1.082508e+02
2.500000e-06	-1.975068e-07	1.523412e-09	-1.411286e+00	9.694403e+01
2.510000e-06	-2.995632e-07	1.341054e-09	-2.140531e+00	8.539379e+01
2.520000e-06	-4.014594e-07	1.160638e-09	-2.868631e+00	7.358540e+01
2.530000e-06	-5.033018e-07	9.785721e-10	-3.596347e+00	6.150527e+01
2.540000e-06	-6.048922e-07	7.910004e-10	-4.322262e+00	4.914223e+01
2.550000e-06	-7.060948e-07	5.955221e-10	-5.045406e+00	3.648805e+01
2.560000e-06	-8.070765e-07	3.917431e-10	-5.766972e+00	2.353753e+01
2.570000e-06	-9.078011e-07	1.840348e-10	-6.486700e+00	1.028817e+01
2.580000e-06	-1.008167e-06	-2.252548e-11	-7.203864e+00	-3.260172e+00
2.590000e-06	-1.108220e-06	-2.291013e-10	-7.918795e+00	-1.710509e+01
2.600000e-06	-1.207912e-06	-4.441886e-10	-8.631142e+00	-3.124072e+01
2.610000e-06	-1.307107e-06	-6.697484e-10	-9.339946e+00	-4.565601e+01
2.620000e-06	-1.405824e-06	-9.008916e-10	-1.004533e+01	-6.033229e+01
2.630000e-06	-1.504063e-06	-1.130280e-09	-1.074729e+01	-7.524081e+01
2.640000e-06	-1.601748e-06	-1.357298e-09	-1.144530e+01	-9.034073e+01
2.650000e-06	-1.698846e-06	-1.586203e-09	-1.213912e+01	-1.055783e+02
2.660000e-06	-1.795409e-06	-1.820962e-09	-1.282911e+01	-1.208878e+02
2.670000e-06	-1.891528e-06	-2.059434e-09	-1.351593e+01	-1.361940e+02
2.680000e-06	-1.987133e-06	-2.295159e-09	-1.419908e+01	-1.514166e+02
2.690000e-06	-2.081908e-06	-2.525241e-09	-1.487629e+01	-1.664755e+02
2.700000e-06	-2.175623e-06	-2.749330e-09	-1.554594e+01	-1.812960e+02
2.710000e-06	-2.268409e-06	-2.971622e-09	-1.620894e+01	-1.958138e+02
2.720000e-06	-2.360340e-06	-3.193147e-09	-1.686583e+01	-2.099777e+02
2.730000e-06	-2.451349e-06	-3.408880e-09	-1.751614e+01	-2.237512e+02
2.740000e-06	-2.541518e-06	-3.614410e-09	-1.816044e+01	-2.371118e+02
2.750000e-06	-2.630826e-06	-3.811879e-09	-1.879859e+01	-2.500484e+02
2.760000e-06	-2.719307e-06	-4.005669e-09	-1.943083e+01	-2.625587e+02
2.770000e-06	-2.807031e-06	-4.195206e-09	-2.005766e+01	-2.746455e+02
2.780000e-06	-2.893774e-06	-4.376126e-09	-2.067749e+01	-2.863142e+02
2.790000e-06	-2.979369e-06	-4.545049e-09	-2.128910e+01	-2.975710e+02
2.800000e-06	-3.063810e-06	-4.704773e-09	-2.189248e+01	-3.084225e+02
2.810000e-06	-3.147174e-06	-4.860566e-09	-2.248816e+01	-3.188753e+02
2.820000e-06	-3.229545e-06	-5.013717e-09	-2.307674e+01	-3.289372e+02
2.830000e-06	-3.310839e-06	-5.162773e-09	-2.365763e+01	-3.386172e+02
2.840000e-06	-3.391042e-06	-5.307239e-09	-2.423072e+01	-3.479254e+02
2.850000e-06	-3.470046e-06	-5.445577e-09	-2.479524e+01	-3.568729e+02
2.860000e-06	-3.547593e-06	-5.577221e-09	-2.534935e+01	-3.654699e+02
2.870000e-06	-3.623621e-06	-5.704202e-09	-2.589262e+01	-3.737253e+02
2.880000e-06	-3.698178e-06	-5.828294e-09	-2.642536e+01	-3.816456e+02
2.890000e-06	-3.771425e-06	-5.946572e-09	-2.694875e+01	-3.892352e+02
2.900000e-06	-3.843454e-06	-6.057035e-09	-2.746343e+01	-3.964970e+02
2.910000e-06	-3.914062e-06	-6.161380e-09	-2.796796e+01	-4.034349e+02
2.920000e-06	-3.983057e-06	-6.261696e-09	-2.846097e+01	-4.100557e+02
2.930000e-06	-4.050571e-06	-6.358706e-09	-2.894339e+01	-4.163709e+02
2.940000e-06	-4.116707e-06	-6.452517e-09	-2.941597e+01	-4.223979e+02
