# Temperatura_=_78.84
# Concentracion g/m^3_=_15000.0
# C_Vs_to_Am_M_A/Vsm_=_65563218390.804596
# pendiente_HvsI_1/m_=_3716.3
# ordenada_HvsI_A/m_=_1297.0
# frecuencia_Hz_=_301573.89280539873

Tiempo_(s)	Campo_(V.s)	Magnetizacion_(V.s)	Campo_(kA/m)	Magnetizacion_(A/m)
0.000000e+00	-5.371073e-06	-7.636102e-09	-3.834529e+01	-4.987599e+02
1.000000e-08	-5.368002e-06	-7.630064e-09	-3.832336e+01	-4.985368e+02
2.000000e-08	-5.363187e-06	-7.621872e-09	-3.828899e+01	-4.982485e+02
3.000000e-08	-5.356761e-06	-7.614190e-09	-3.824311e+01	-4.978834e+02
4.000000e-08	-5.348738e-06	-7.605311e-09	-3.818583e+01	-4.974197e+02
5.000000e-08	-5.338845e-06	-7.594956e-09	-3.811520e+01	-4.968312e+02
6.000000e-08	-5.326916e-06	-7.582205e-09	-3.803004e+01	-4.960946e+02
7.000000e-08	-5.313152e-06	-7.565775e-09	-3.793178e+01	-4.951971e+02
8.000000e-08	-5.297222e-06	-7.565202e-09	-3.781805e+01	-4.941416e+02
9.000000e-08	-5.278984e-06	-7.577536e-09	-3.768784e+01	-4.929490e+02
1.000000e-07	-5.258758e-06	-7.555801e-09	-3.754344e+01	-4.916548e+02
1.100000e-07	-5.236660e-06	-7.513724e-09	-3.738568e+01	-4.903031e+02
1.200000e-07	-5.212927e-06	-7.464974e-09	-3.721625e+01	-4.889366e+02
1.300000e-07	-5.187711e-06	-7.420078e-09	-3.703623e+01	-4.875867e+02
1.400000e-07	-5.160891e-06	-7.434378e-09	-3.684475e+01	-4.862655e+02
1.500000e-07	-5.132448e-06	-7.436426e-09	-3.664169e+01	-4.849617e+02
1.600000e-07	-5.102541e-06	-7.385205e-09	-3.642818e+01	-4.836417e+02
1.700000e-07	-5.070979e-06	-7.382077e-09	-3.620285e+01	-4.822554e+02
1.800000e-07	-5.037288e-06	-7.347000e-09	-3.596232e+01	-4.807462e+02
1.900000e-07	-5.001805e-06	-7.284408e-09	-3.570900e+01	-4.790616e+02
2.000000e-07	-4.964895e-06	-7.273014e-09	-3.544549e+01	-4.771638e+02
2.100000e-07	-4.926227e-06	-7.201234e-09	-3.516943e+01	-4.750360e+02
2.200000e-07	-4.885805e-06	-7.148563e-09	-3.488085e+01	-4.726847e+02
2.300000e-07	-4.843411e-06	-7.164445e-09	-3.457819e+01	-4.701358e+02
2.400000e-07	-4.799057e-06	-7.124899e-09	-3.426154e+01	-4.674283e+02
2.500000e-07	-4.753021e-06	-7.087041e-09	-3.393288e+01	-4.646044e+02
2.600000e-07	-4.705089e-06	-7.041885e-09	-3.359068e+01	-4.617002e+02
2.700000e-07	-4.655015e-06	-6.958802e-09	-3.323319e+01	-4.587389e+02
2.800000e-07	-4.602789e-06	-6.933564e-09	-3.286034e+01	-4.557278e+02
2.900000e-07	-4.548753e-06	-6.911562e-09	-3.247456e+01	-4.526587e+02
3.000000e-07	-4.493213e-06	-6.852790e-09	-3.207805e+01	-4.495131e+02
3.100000e-07	-4.435958e-06	-6.791670e-09	-3.166930e+01	-4.462682e+02
3.200000e-07	-4.376867e-06	-6.728827e-09	-3.124743e+01	-4.429040e+02
3.300000e-07	-4.316210e-06	-6.669111e-09	-3.081439e+01	-4.394080e+02
3.400000e-07	-4.254099e-06	-6.628479e-09	-3.037096e+01	-4.357779e+02
3.500000e-07	-4.190678e-06	-6.594205e-09	-2.991818e+01	-4.320203e+02
3.600000e-07	-4.125798e-06	-6.519913e-09	-2.945499e+01	-4.281479e+02
3.700000e-07	-4.059174e-06	-6.443610e-09	-2.897935e+01	-4.241739e+02
3.800000e-07	-3.990974e-06	-6.392209e-09	-2.849245e+01	-4.201082e+02
3.900000e-07	-3.921433e-06	-6.329335e-09	-2.799598e+01	-4.159539e+02
4.000000e-07	-3.850638e-06	-6.263970e-09	-2.749056e+01	-4.117066e+02
4.100000e-07	-3.778691e-06	-6.192305e-09	-2.697692e+01	-4.073558e+02
4.200000e-07	-3.705319e-06	-6.115090e-09	-2.645310e+01	-4.028888e+02
4.300000e-07	-3.630261e-06	-6.050649e-09	-2.591725e+01	-3.982943e+02
4.400000e-07	-3.553694e-06	-5.993121e-09	-2.537061e+01	-3.935660e+02
4.500000e-07	-3.475777e-06	-5.934502e-09	-2.481435e+01	-3.887042e+02
4.600000e-07	-3.396462e-06	-5.857293e-09	-2.424810e+01	-3.837158e+02
4.700000e-07	-3.315789e-06	-5.757048e-09	-2.367216e+01	-3.786115e+02
4.800000e-07	-3.233941e-06	-5.663688e-09	-2.308783e+01	-3.734025e+02
4.900000e-07	-3.150994e-06	-5.592957e-09	-2.249565e+01	-3.680971e+02
5.000000e-07	-3.067083e-06	-5.519976e-09	-2.189659e+01	-3.626971e+02
5.100000e-07	-2.982275e-06	-5.433982e-09	-2.129113e+01	-3.571978e+02
5.200000e-07	-2.896484e-06	-5.343732e-09	-2.067865e+01	-3.515882e+02
5.300000e-07	-2.809666e-06	-5.247953e-09	-2.005883e+01	-3.458541e+02
5.400000e-07	-2.721967e-06	-5.160054e-09	-1.943273e+01	-3.399810e+02
5.500000e-07	-2.633434e-06	-5.078540e-09	-1.880067e+01	-3.339582e+02
5.600000e-07	-2.543738e-06	-4.988489e-09	-1.816032e+01	-3.277803e+02
5.700000e-07	-2.452818e-06	-4.883391e-09	-1.751122e+01	-3.214479e+02
5.800000e-07	-2.361061e-06	-4.773668e-09	-1.685614e+01	-3.149667e+02
5.900000e-07	-2.268596e-06	-4.676938e-09	-1.619601e+01	-3.083447e+02
6.000000e-07	-2.175253e-06	-4.582219e-09	-1.552961e+01	-3.015892e+02
6.100000e-07	-2.081076e-06	-4.476953e-09	-1.485726e+01	-2.947048e+02
6.200000e-07	-1.986234e-06	-4.364795e-09	-1.418016e+01	-2.876915e+02
6.300000e-07	-1.890756e-06	-4.251852e-09	-1.349853e+01	-2.805451e+02
6.400000e-07	-1.794669e-06	-4.142285e-09	-1.281254e+01	-2.732587e+02
6.500000e-07	-1.697856e-06	-4.036939e-09	-1.212137e+01	-2.658249e+02
6.600000e-07	-1.600227e-06	-3.927423e-09	-1.142438e+01	-2.582383e+02
6.700000e-07	-1.501850e-06	-3.804687e-09	-1.072204e+01	-2.504970e+02
6.800000e-07	-1.402855e-06	-3.672559e-09	-1.001530e+01	-2.426024e+02
6.900000e-07	-1.303419e-06	-3.543813e-09	-9.305397e+00	-2.345586e+02
7.000000e-07	-1.203654e-06	-3.423787e-09	-8.593155e+00	-2.263700e+02
7.100000e-07	-1.103612e-06	-3.301813e-09	-7.878932e+00	-2.180383e+02
7.200000e-07	-1.003305e-06	-3.172070e-09	-7.162816e+00	-2.095610e+02
7.300000e-07	-9.026938e-07	-3.038283e-09	-6.444532e+00	-2.009297e+02
7.400000e-07	-8.017590e-07	-2.902377e-09	-5.723936e+00	-1.921308e+02
7.500000e-07	-7.005202e-07	-2.767501e-09	-5.001170e+00	-1.831477e+02
7.600000e-07	-5.989546e-07	-2.631475e-09	-4.276070e+00	-1.739628e+02
7.700000e-07	-4.971896e-07	-2.486827e-09	-3.549547e+00	-1.645610e+02
7.800000e-07	-3.952985e-07	-2.332126e-09	-2.822124e+00	-1.549321e+02
7.900000e-07	-2.932418e-07	-2.173582e-09	-2.093519e+00	-1.450714e+02
8.000000e-07	-1.910841e-07	-2.018177e-09	-1.364192e+00	-1.349794e+02
8.100000e-07	-8.884396e-08	-1.864996e-09	-6.342768e-01	-1.246604e+02
8.200000e-07	1.344952e-08	-1.706164e-09	9.601913e-02	-1.141194e+02
8.300000e-07	1.157706e-07	-1.539669e-09	8.265118e-01	-1.033599e+02
8.400000e-07	2.180911e-07	-1.367732e-09	1.557001e+00	-9.238152e+01
8.500000e-07	3.202835e-07	-1.194450e-09	2.286575e+00	-8.117918e+01
8.600000e-07	4.224051e-07	-1.021632e-09	3.015644e+00	-6.974352e+01
8.700000e-07	5.244827e-07	-8.450755e-10	3.744399e+00	-5.806223e+01
8.800000e-07	6.263377e-07	-6.607184e-10	4.471564e+00	-4.612199e+01
8.900000e-07	7.279473e-07	-4.705915e-10	5.196978e+00	-3.391045e+01
9.000000e-07	8.292972e-07	-2.797398e-10	5.920538e+00	-2.141777e+01
9.100000e-07	9.303677e-07	-8.867787e-11	6.642103e+00	-8.637538e+00
9.200000e-07	1.031155e-06	1.053153e-10	7.361648e+00	4.432963e+00
9.300000e-07	1.131584e-06	3.057847e-10	8.078634e+00	1.779254e+01
9.400000e-07	1.231654e-06	5.123676e-10	8.793050e+00	3.143572e+01
9.500000e-07	1.331326e-06	7.221393e-10	9.504630e+00	4.535171e+01
9.600000e-07	1.430459e-06	9.341021e-10	1.021237e+01	5.952266e+01
9.700000e-07	1.529002e-06	1.149676e-09	1.091589e+01	7.392134e+01
9.800000e-07	1.626908e-06	1.371650e-09	1.161486e+01	8.850903e+01
9.900000e-07	1.724076e-06	1.599509e-09	1.230856e+01	1.032340e+02
1.000000e-06	1.820500e-06	1.827047e-09	1.299696e+01	1.180317e+02
1.010000e-06	1.916158e-06	2.051636e-09	1.367988e+01	1.328269e+02
1.020000e-06	2.011109e-06	2.272131e-09	1.435776e+01	1.475377e+02
1.030000e-06	2.105416e-06	2.488762e-09	1.503103e+01	1.620812e+02
1.040000e-06	2.198989e-06	2.703205e-09	1.569908e+01	1.763796e+02
1.050000e-06	2.291818e-06	2.912899e-09	1.636180e+01	1.903666e+02
1.060000e-06	2.383954e-06	3.117272e-09	1.701958e+01	2.039909e+02
1.070000e-06	2.475322e-06	3.315350e-09	1.767188e+01	2.172190e+02
1.080000e-06	2.565784e-06	3.506622e-09	1.831771e+01	2.300338e+02
1.090000e-06	2.655206e-06	3.694558e-09	1.895611e+01	2.424323e+02
1.100000e-06	2.743547e-06	3.878042e-09	1.958679e+01	2.544209e+02
1.110000e-06	2.830852e-06	4.054980e-09	2.021008e+01	2.660105e+02
1.120000e-06	2.917238e-06	4.225199e-09	2.082681e+01	2.772126e+02
1.130000e-06	3.002743e-06	4.389309e-09	2.143725e+01	2.880361e+02
1.140000e-06	3.087305e-06	4.547299e-09	2.204096e+01	2.984859e+02
1.150000e-06	3.170897e-06	4.700520e-09	2.263774e+01	3.085643e+02
1.160000e-06	3.253382e-06	4.848659e-09	2.322662e+01	3.182716e+02
1.170000e-06	3.334713e-06	4.991198e-09	2.380726e+01	3.276088e+02
1.180000e-06	3.414848e-06	5.127777e-09	2.437936e+01	3.365788e+02
1.190000e-06	3.493750e-06	5.257389e-09	2.494266e+01	3.451875e+02
1.200000e-06	3.571424e-06	5.381912e-09	2.549719e+01	3.534430e+02
1.210000e-06	3.647812e-06	5.503244e-09	2.604254e+01	3.613555e+02
1.220000e-06	3.722768e-06	5.617823e-09	2.657767e+01	3.689356e+02
1.230000e-06	3.796169e-06	5.724621e-09	2.710170e+01	3.761933e+02
1.240000e-06	3.868043e-06	5.827085e-09	2.761482e+01	3.831384e+02
1.250000e-06	3.938485e-06	5.927954e-09	2.811772e+01	3.897806e+02
1.260000e-06	4.007612e-06	6.026498e-09	2.861123e+01	3.961308e+02
1.270000e-06	4.075416e-06	6.119105e-09	2.909530e+01	4.022028e+02
1.280000e-06	4.141711e-06	6.206945e-09	2.956860e+01	4.080135e+02
1.290000e-06	4.206318e-06	6.290881e-09	3.002984e+01	4.135830e+02
1.300000e-06	4.269380e-06	6.371368e-09	3.048005e+01	4.189333e+02
1.310000e-06	4.331033e-06	6.450394e-09	3.092021e+01	4.240860e+02
1.320000e-06	4.391320e-06	6.527492e-09	3.135062e+01	4.290593e+02
1.330000e-06	4.450137e-06	6.600542e-09	3.177052e+01	4.338656e+02
1.340000e-06	4.507185e-06	6.669598e-09	3.217780e+01	4.385105e+02
1.350000e-06	4.562480e-06	6.736408e-09	3.257256e+01	4.429921e+02
1.360000e-06	4.616183e-06	6.802069e-09	3.295596e+01	4.473034e+02
1.370000e-06	4.668130e-06	6.863731e-09	3.332682e+01	4.514348e+02
1.380000e-06	4.718046e-06	6.921966e-09	3.368318e+01	4.553775e+02
1.390000e-06	4.766003e-06	6.978482e-09	3.402556e+01	4.591266e+02
1.400000e-06	4.812260e-06	7.032619e-09	3.435580e+01	4.626822e+02
1.410000e-06	4.856994e-06	7.082692e-09	3.467516e+01	4.660501e+02
1.420000e-06	4.900107e-06	7.130367e-09	3.498296e+01	4.692395e+02
1.430000e-06	4.941344e-06	7.176029e-09	3.527736e+01	4.722606e+02
1.440000e-06	4.980784e-06	7.217920e-09	3.555893e+01	4.751213e+02
1.450000e-06	5.018581e-06	7.257647e-09	3.582877e+01	4.778253e+02
1.460000e-06	5.054776e-06	7.295967e-09	3.608718e+01	4.803706e+02
1.470000e-06	5.089212e-06	7.331746e-09	3.633302e+01	4.827513e+02
1.480000e-06	5.121687e-06	7.364125e-09	3.656487e+01	4.849595e+02
1.490000e-06	5.152386e-06	7.393762e-09	3.678403e+01	4.869887e+02
1.500000e-06	5.181414e-06	7.420735e-09	3.699127e+01	4.888374e+02
1.510000e-06	5.208667e-06	7.444758e-09	3.718583e+01	4.905104e+02
1.520000e-06	5.233908e-06	7.466811e-09	3.736603e+01	4.920192e+02
1.530000e-06	5.257153e-06	7.487377e-09	3.753198e+01	4.933799e+02
1.540000e-06	5.278619e-06	7.506929e-09	3.768524e+01	4.946100e+02
1.550000e-06	5.298337e-06	7.525219e-09	3.782601e+01	4.957240e+02
1.560000e-06	5.316173e-06	7.540798e-09	3.795335e+01	4.967299e+02
1.570000e-06	5.332020e-06	7.553634e-09	3.806648e+01	4.976284e+02
1.580000e-06	5.345957e-06	7.564438e-09	3.816598e+01	4.984126e+02
1.590000e-06	5.357850e-06	7.574871e-09	3.825088e+01	4.990714e+02
1.600000e-06	5.367504e-06	7.583719e-09	3.831980e+01	4.995939e+02
1.610000e-06	5.375097e-06	7.590267e-09	3.837402e+01	4.999735e+02
1.620000e-06	5.380876e-06	7.595754e-09	3.841527e+01	5.002120e+02
1.630000e-06	5.384916e-06	7.600130e-09	3.844412e+01	5.003197e+02
1.640000e-06	5.387033e-06	7.603481e-09	3.845923e+01	5.003143e+02
1.650000e-06	5.387141e-06	7.605987e-09	3.846000e+01	5.002164e+02
1.660000e-06	5.385454e-06	7.605036e-09	3.844795e+01	5.000440e+02
1.670000e-06	5.382083e-06	7.600317e-09	3.842389e+01	4.998069e+02
1.680000e-06	5.376937e-06	7.594304e-09	3.838715e+01	4.995030e+02
1.690000e-06	5.369870e-06	7.588496e-09	3.833670e+01	4.991184e+02
1.700000e-06	5.361073e-06	7.582862e-09	3.827389e+01	4.986297e+02
1.710000e-06	5.350764e-06	7.576128e-09	3.820029e+01	4.980108e+02
1.720000e-06	5.338736e-06	7.571450e-09	3.811443e+01	4.972399e+02
1.730000e-06	5.324683e-06	7.552368e-09	3.801410e+01	4.963072e+02
1.740000e-06	5.308522e-06	7.500140e-09	3.789872e+01	4.952196e+02
1.750000e-06	5.290019e-06	7.479855e-09	3.776663e+01	4.940013e+02
1.760000e-06	5.268868e-06	7.483560e-09	3.761562e+01	4.926905e+02
1.770000e-06	5.245516e-06	7.493152e-09	3.744891e+01	4.913319e+02
1.780000e-06	5.220988e-06	7.508018e-09	3.727380e+01	4.899664e+02
1.790000e-06	5.195781e-06	7.424978e-09	3.709384e+01	4.886219e+02
1.800000e-06	5.169093e-06	7.363867e-09	3.690331e+01	4.873057e+02
1.810000e-06	5.140068e-06	7.388522e-09	3.669609e+01	4.860015e+02
1.820000e-06	5.109211e-06	7.325517e-09	3.647580e+01	4.846715e+02
1.830000e-06	5.076703e-06	7.325986e-09	3.624371e+01	4.832632e+02
1.840000e-06	5.042297e-06	7.371786e-09	3.599808e+01	4.817200e+02
1.850000e-06	5.006340e-06	7.307477e-09	3.574138e+01	4.799918e+02
1.860000e-06	4.968509e-06	7.328174e-09	3.547129e+01	4.780449e+02
1.870000e-06	4.928786e-06	7.294139e-09	3.518770e+01	4.758675e+02
1.880000e-06	4.887475e-06	7.181213e-09	3.489277e+01	4.734706e+02
1.890000e-06	4.844408e-06	7.191699e-09	3.458531e+01	4.708838e+02
1.900000e-06	4.799727e-06	7.115075e-09	3.426632e+01	4.681474e+02
1.910000e-06	4.753146e-06	7.076570e-09	3.393377e+01	4.653032e+02
1.920000e-06	4.704516e-06	7.102183e-09	3.358659e+01	4.623848e+02
1.930000e-06	4.654354e-06	6.995432e-09	3.322847e+01	4.594124e+02
1.940000e-06	4.602518e-06	6.966741e-09	3.285840e+01	4.563895e+02
1.950000e-06	4.548536e-06	6.924391e-09	3.247301e+01	4.533054e+02
1.960000e-06	4.492520e-06	6.851882e-09	3.207310e+01	4.501400e+02
1.970000e-06	4.434837e-06	6.829583e-09	3.166129e+01	4.468706e+02
1.980000e-06	4.375776e-06	6.771369e-09	3.123964e+01	4.434784e+02
1.990000e-06	4.315254e-06	6.731676e-09	3.080756e+01	4.399531e+02
2.000000e-06	4.253027e-06	6.644932e-09	3.036331e+01	4.362944e+02
2.010000e-06	4.189187e-06	6.596448e-09	2.990754e+01	4.325106e+02
2.020000e-06	4.123875e-06	6.560412e-09	2.944126e+01	4.286148e+02
2.030000e-06	4.057127e-06	6.464607e-09	2.896473e+01	4.246201e+02
2.040000e-06	3.988998e-06	6.438399e-09	2.847835e+01	4.205350e+02
2.050000e-06	3.919308e-06	6.367404e-09	2.798081e+01	4.163610e+02
2.060000e-06	3.848056e-06	6.296156e-09	2.747213e+01	4.120920e+02
2.070000e-06	3.775503e-06	6.236533e-09	2.695415e+01	4.077170e+02
2.080000e-06	3.701694e-06	6.150771e-09	2.642722e+01	4.032230e+02
2.090000e-06	3.626539e-06	6.095554e-09	2.589067e+01	3.985997e+02
2.100000e-06	3.549898e-06	5.995256e-09	2.534351e+01	3.938421e+02
2.110000e-06	3.471658e-06	5.916800e-09	2.478494e+01	3.889519e+02
2.120000e-06	3.392097e-06	5.861757e-09	2.421694e+01	3.839373e+02
2.130000e-06	3.311469e-06	5.793741e-09	2.364132e+01	3.788092e+02
2.140000e-06	3.229721e-06	5.721215e-09	2.305770e+01	3.735786e+02
2.150000e-06	3.146877e-06	5.634875e-09	2.246626e+01	3.682525e+02
2.160000e-06	3.063069e-06	5.547808e-09	2.186793e+01	3.628315e+02
2.170000e-06	2.978174e-06	5.450441e-09	2.126185e+01	3.573092e+02
2.180000e-06	2.891817e-06	5.372930e-09	2.064532e+01	3.516737e+02
2.190000e-06	2.804241e-06	5.293087e-09	2.002010e+01	3.459105e+02
2.200000e-06	2.715809e-06	5.201434e-09	1.938877e+01	3.400056e+02
2.210000e-06	2.626442e-06	5.103597e-09	1.875075e+01	3.339494e+02
2.220000e-06	2.536102e-06	5.008532e-09	1.810580e+01	3.277376e+02
2.230000e-06	2.444903e-06	4.920929e-09	1.745471e+01	3.213723e+02
2.240000e-06	2.353007e-06	4.819576e-09	1.679864e+01	3.148598e+02
2.250000e-06	2.260430e-06	4.721439e-09	1.613771e+01	3.082082e+02
2.260000e-06	2.166968e-06	4.617463e-09	1.547047e+01	3.014244e+02
2.270000e-06	2.072446e-06	4.504868e-09	1.479565e+01	2.945121e+02
2.280000e-06	1.976962e-06	4.395245e-09	1.411397e+01	2.874703e+02
2.290000e-06	1.880740e-06	4.290006e-09	1.342702e+01	2.802940e+02
2.300000e-06	1.784042e-06	4.179835e-09	1.273667e+01	2.729762e+02
2.310000e-06	1.686928e-06	4.060032e-09	1.204336e+01	2.655096e+02
2.320000e-06	1.589228e-06	3.939921e-09	1.134585e+01	2.578894e+02
2.330000e-06	1.490926e-06	3.829268e-09	1.064405e+01	2.501145e+02
2.340000e-06	1.392139e-06	3.719641e-09	9.938788e+00	2.421871e+02
2.350000e-06	1.293006e-06	3.597752e-09	9.231055e+00	2.341116e+02
2.360000e-06	1.193587e-06	3.470306e-09	8.521286e+00	2.258918e+02
2.370000e-06	1.093868e-06	3.335306e-09	7.809369e+00	2.175289e+02
2.380000e-06	9.938608e-07	3.199770e-09	7.095394e+00	2.090190e+02
2.390000e-06	8.935198e-07	3.071950e-09	6.379037e+00	2.003526e+02
2.400000e-06	7.927766e-07	2.943798e-09	5.659809e+00	1.915153e+02
2.410000e-06	6.916371e-07	2.808755e-09	4.937751e+00	1.824899e+02
2.420000e-06	5.902027e-07	2.664042e-09	4.213589e+00	1.732592e+02
2.430000e-06	4.885684e-07	2.518986e-09	3.487999e+00	1.638091e+02
2.440000e-06	3.867292e-07	2.378185e-09	2.760946e+00	1.541302e+02
2.450000e-06	2.846814e-07	2.231921e-09	2.032404e+00	1.442192e+02
2.460000e-06	1.824944e-07	2.076453e-09	1.302868e+00	1.340778e+02
2.470000e-06	8.025705e-08	1.915384e-09	5.729730e-01	1.237103e+02
2.480000e-06	-2.204228e-08	1.752216e-09	-1.573648e-01	1.131219e+02
2.490000e-06	-1.244046e-07	1.591162e-09	-8.881518e-01	1.023152e+02
2.500000e-06	-2.267499e-07	1.428935e-09	-1.618818e+00	9.128899e+01
2.510000e-06	-3.289881e-07	1.260241e-09	-2.348719e+00	8.003712e+01
2.520000e-06	-4.310671e-07	1.084424e-09	-3.077484e+00	6.854948e+01
2.530000e-06	-5.330052e-07	9.014310e-10	-3.805243e+00	5.681337e+01
2.540000e-06	-6.347362e-07	7.172244e-10	-4.531523e+00	4.481551e+01
2.550000e-06	-7.361515e-07	5.330291e-10	-5.255550e+00	3.254400e+01
2.560000e-06	-8.372151e-07	3.419122e-10	-5.977065e+00	1.998967e+01
2.570000e-06	-9.379587e-07	1.422362e-10	-6.696296e+00	7.146885e+00
2.580000e-06	-1.038379e-06	-6.331931e-11	-7.413222e+00	-5.986245e+00
2.590000e-06	-1.138363e-06	-2.706634e-10	-8.127027e+00	-1.940766e+01
2.600000e-06	-1.237888e-06	-4.789540e-10	-8.837560e+00	-3.311087e+01
2.610000e-06	-1.337015e-06	-6.932238e-10	-9.545250e+00	-4.708373e+01
2.620000e-06	-1.435753e-06	-9.142189e-10	-1.025016e+01	-6.130658e+01
2.630000e-06	-1.533997e-06	-1.138468e-09	-1.095154e+01	-7.574991e+01
2.640000e-06	-1.631585e-06	-1.362144e-09	-1.164825e+01	-9.037226e+01
2.650000e-06	-1.728588e-06	-1.584995e-09	-1.234077e+01	-1.051191e+02
2.660000e-06	-1.825166e-06	-1.810562e-09	-1.303027e+01	-1.199234e+02
2.670000e-06	-1.921223e-06	-2.039017e-09	-1.371604e+01	-1.347080e+02
2.680000e-06	-2.016552e-06	-2.267502e-09	-1.439661e+01	-1.493903e+02
2.690000e-06	-2.111074e-06	-2.492025e-09	-1.507143e+01	-1.638879e+02
2.700000e-06	-2.204728e-06	-2.711169e-09	-1.574004e+01	-1.781252e+02
2.710000e-06	-2.297456e-06	-2.924562e-09	-1.640205e+01	-1.920386e+02
2.720000e-06	-2.389269e-06	-3.133114e-09	-1.705753e+01	-2.055807e+02
2.730000e-06	-2.480197e-06	-3.336701e-09	-1.770668e+01	-2.187216e+02
2.740000e-06	-2.570247e-06	-3.533293e-09	-1.834957e+01	-2.314475e+02
2.750000e-06	-2.659423e-06	-3.722924e-09	-1.898622e+01	-2.437578e+02
2.760000e-06	-2.747732e-06	-3.906315e-09	-1.961667e+01	-2.556604e+02
2.770000e-06	-2.835162e-06	-4.084157e-09	-2.024086e+01	-2.671665e+02
2.780000e-06	-2.921620e-06	-4.255440e-09	-2.085809e+01	-2.782873e+02
2.790000e-06	-3.006968e-06	-4.418310e-09	-2.146741e+01	-2.890308e+02
2.800000e-06	-3.091158e-06	-4.573850e-09	-2.206847e+01	-2.994014e+02
2.810000e-06	-3.174292e-06	-4.723944e-09	-2.266198e+01	-3.094007e+02
2.820000e-06	-3.256393e-06	-4.869525e-09	-2.324811e+01	-3.190290e+02
2.830000e-06	-3.337417e-06	-5.011102e-09	-2.382656e+01	-3.282877e+02
2.840000e-06	-3.417349e-06	-5.149045e-09	-2.439721e+01	-3.371801e+02
2.850000e-06	-3.496054e-06	-5.282279e-09	-2.495911e+01	-3.457127e+02
2.860000e-06	-3.573317e-06	-5.408910e-09	-2.551071e+01	-3.538944e+02
2.870000e-06	-3.649052e-06	-5.529206e-09	-2.605139e+01	-3.617352e+02
2.880000e-06	-3.723350e-06	-5.644671e-09	-2.658182e+01	-3.692458e+02
2.890000e-06	-3.796309e-06	-5.754931e-09	-2.710270e+01	-3.764362e+02
2.900000e-06	-3.867975e-06	-5.860077e-09	-2.761433e+01	-3.833160e+02
2.910000e-06	-3.938201e-06	-5.961886e-09	-2.811569e+01	-3.898950e+02
2.920000e-06	-4.006889e-06	-6.057979e-09	-2.860607e+01	-3.961849e+02
2.930000e-06	-4.074097e-06	-6.148680e-09	-2.908589e+01	-4.021998e+02
2.940000e-06	-4.139876e-06	-6.236136e-09	-2.955550e+01	-4.079574e+02
