# Temperatura_=_83.31
# Concentracion g/m^3_=_15000.0
# C_Vs_to_Am_M_A/Vsm_=_65563218390.804596
# pendiente_HvsI_1/m_=_3716.3
# ordenada_HvsI_A/m_=_1297.0
# frecuencia_Hz_=_301580.36702184187

Tiempo_(s)	Campo_(V.s)	Magnetizacion_(V.s)	Campo_(kA/m)	Magnetizacion_(A/m)
0.000000e+00	-5.356808e-06	-8.119369e-09	-3.834827e+01	-5.303543e+02
1.000000e-08	-5.355612e-06	-8.116423e-09	-3.833970e+01	-5.302203e+02
2.000000e-08	-5.352497e-06	-8.111945e-09	-3.831740e+01	-5.300048e+02
3.000000e-08	-5.347632e-06	-8.105301e-09	-3.828257e+01	-5.296993e+02
4.000000e-08	-5.341147e-06	-8.097872e-09	-3.823615e+01	-5.292867e+02
5.000000e-08	-5.333063e-06	-8.088360e-09	-3.817828e+01	-5.287457e+02
6.000000e-08	-5.323145e-06	-8.076976e-09	-3.810728e+01	-5.280567e+02
7.000000e-08	-5.311185e-06	-8.062955e-09	-3.802166e+01	-5.272083e+02
8.000000e-08	-5.297363e-06	-8.048945e-09	-3.792271e+01	-5.262021e+02
9.000000e-08	-5.281415e-06	-8.047249e-09	-3.780854e+01	-5.250546e+02
1.000000e-07	-5.263199e-06	-8.052108e-09	-3.767814e+01	-5.237954e+02
1.100000e-07	-5.243026e-06	-8.026545e-09	-3.753372e+01	-5.224613e+02
1.200000e-07	-5.220943e-06	-7.982285e-09	-3.737563e+01	-5.210892e+02
1.300000e-07	-5.197168e-06	-7.931152e-09	-3.720543e+01	-5.197069e+02
1.400000e-07	-5.171953e-06	-7.884411e-09	-3.702492e+01	-5.183261e+02
1.500000e-07	-5.145106e-06	-7.898048e-09	-3.683273e+01	-5.169390e+02
1.600000e-07	-5.116602e-06	-7.894179e-09	-3.662868e+01	-5.155179e+02
1.700000e-07	-5.086671e-06	-7.857280e-09	-3.641441e+01	-5.140206e+02
1.800000e-07	-5.055178e-06	-7.869078e-09	-3.618895e+01	-5.123984e+02
1.900000e-07	-5.021586e-06	-7.819777e-09	-3.594848e+01	-5.106058e+02
2.000000e-07	-4.986098e-06	-7.720222e-09	-3.569443e+01	-5.086092e+02
2.100000e-07	-4.949106e-06	-7.682941e-09	-3.542961e+01	-5.063934e+02
2.200000e-07	-4.910390e-06	-7.645461e-09	-3.515245e+01	-5.039631e+02
2.300000e-07	-4.869889e-06	-7.622008e-09	-3.486251e+01	-5.013413e+02
2.400000e-07	-4.827384e-06	-7.618073e-09	-3.455823e+01	-4.985619e+02
2.500000e-07	-4.783032e-06	-7.566132e-09	-3.424072e+01	-4.956622e+02
2.600000e-07	-4.737035e-06	-7.510536e-09	-3.391144e+01	-4.926741e+02
2.700000e-07	-4.689145e-06	-7.455201e-09	-3.356860e+01	-4.896176e+02
2.800000e-07	-4.639210e-06	-7.416731e-09	-3.321113e+01	-4.864978e+02
2.900000e-07	-4.587172e-06	-7.395057e-09	-3.283860e+01	-4.833054e+02
3.000000e-07	-4.533243e-06	-7.311449e-09	-3.245253e+01	-4.800212e+02
3.100000e-07	-4.477681e-06	-7.236206e-09	-3.205478e+01	-4.766223e+02
3.200000e-07	-4.420431e-06	-7.209688e-09	-3.164494e+01	-4.730884e+02
3.300000e-07	-4.361415e-06	-7.157627e-09	-3.122245e+01	-4.694074e+02
3.400000e-07	-4.300874e-06	-7.093195e-09	-3.078905e+01	-4.655777e+02
3.500000e-07	-4.238926e-06	-7.035798e-09	-3.034558e+01	-4.616078e+02
3.600000e-07	-4.175619e-06	-6.966310e-09	-2.989238e+01	-4.575128e+02
3.700000e-07	-4.110914e-06	-6.895233e-09	-2.942917e+01	-4.533100e+02
3.800000e-07	-4.044486e-06	-6.847239e-09	-2.895363e+01	-4.490132e+02
3.900000e-07	-3.976409e-06	-6.795946e-09	-2.846627e+01	-4.446295e+02
4.000000e-07	-3.906956e-06	-6.711154e-09	-2.796908e+01	-4.401576e+02
4.100000e-07	-3.836247e-06	-6.621154e-09	-2.746289e+01	-4.355883e+02
4.200000e-07	-3.764397e-06	-6.545382e-09	-2.694853e+01	-4.309082e+02
4.300000e-07	-3.691273e-06	-6.484159e-09	-2.642505e+01	-4.261034e+02
4.400000e-07	-3.616588e-06	-6.425589e-09	-2.589039e+01	-4.211633e+02
4.500000e-07	-3.540316e-06	-6.359403e-09	-2.534438e+01	-4.160836e+02
4.600000e-07	-3.462604e-06	-6.276900e-09	-2.478806e+01	-4.108670e+02
4.700000e-07	-3.383472e-06	-6.175603e-09	-2.422157e+01	-4.055215e+02
4.800000e-07	-3.303014e-06	-6.084654e-09	-2.364559e+01	-4.000580e+02
4.900000e-07	-3.221393e-06	-6.011759e-09	-2.306128e+01	-3.944863e+02
5.000000e-07	-3.138609e-06	-5.930043e-09	-2.246864e+01	-3.888124e+02
5.100000e-07	-3.054782e-06	-5.832797e-09	-2.186854e+01	-3.830367e+02
5.200000e-07	-2.970103e-06	-5.735109e-09	-2.126234e+01	-3.771533e+02
5.300000e-07	-2.884494e-06	-5.643648e-09	-2.064949e+01	-3.711524e+02
5.400000e-07	-2.797861e-06	-5.555487e-09	-2.002930e+01	-3.650222e+02
5.500000e-07	-2.710344e-06	-5.469975e-09	-1.940279e+01	-3.587523e+02
5.600000e-07	-2.622010e-06	-5.373015e-09	-1.877042e+01	-3.523354e+02
5.700000e-07	-2.532590e-06	-5.258495e-09	-1.813028e+01	-3.457690e+02
5.800000e-07	-2.441944e-06	-5.147416e-09	-1.748136e+01	-3.390540e+02
5.900000e-07	-2.350285e-06	-5.050205e-09	-1.682519e+01	-3.321938e+02
6.000000e-07	-2.257906e-06	-4.951722e-09	-1.616388e+01	-3.251920e+02
6.100000e-07	-2.164804e-06	-4.838835e-09	-1.549737e+01	-3.180499e+02
6.200000e-07	-2.070917e-06	-4.722552e-09	-1.482526e+01	-3.107657e+02
6.300000e-07	-1.976305e-06	-4.609343e-09	-1.414795e+01	-3.033346e+02
6.400000e-07	-1.881031e-06	-4.495470e-09	-1.346591e+01	-2.957499e+02
6.500000e-07	-1.785164e-06	-4.384039e-09	-1.277962e+01	-2.880049e+02
6.600000e-07	-1.688697e-06	-4.270019e-09	-1.208903e+01	-2.800952e+02
6.700000e-07	-1.591556e-06	-4.141670e-09	-1.139361e+01	-2.720199e+02
6.800000e-07	-1.493643e-06	-4.001505e-09	-1.069268e+01	-2.637818e+02
6.900000e-07	-1.395004e-06	-3.867017e-09	-9.986543e+00	-2.553863e+02
7.000000e-07	-1.295843e-06	-3.742578e-09	-9.276671e+00	-2.468392e+02
7.100000e-07	-1.196274e-06	-3.615073e-09	-8.563874e+00	-2.381440e+02
7.200000e-07	-1.096318e-06	-3.477933e-09	-7.848307e+00	-2.292997e+02
7.300000e-07	-9.960863e-07	-3.335112e-09	-7.130772e+00	-2.202995e+02
7.400000e-07	-8.956804e-07	-3.193061e-09	-6.411988e+00	-2.111311e+02
7.500000e-07	-7.950161e-07	-3.054639e-09	-5.691353e+00	-2.017782e+02
7.600000e-07	-6.940249e-07	-2.915435e-09	-4.968379e+00	-1.922234e+02
7.700000e-07	-5.928095e-07	-2.766276e-09	-4.243798e+00	-1.824512e+02
7.800000e-07	-4.913721e-07	-2.604059e-09	-3.517630e+00	-1.724500e+02
7.900000e-07	-3.897149e-07	-2.438017e-09	-2.789887e+00	-1.622143e+02
8.000000e-07	-2.878931e-07	-2.276886e-09	-2.060966e+00	-1.517436e+02
8.100000e-07	-1.859381e-07	-2.117930e-09	-1.331091e+00	-1.410411e+02
8.200000e-07	-8.394531e-08	-1.955112e-09	-6.009468e-01	-1.301108e+02
8.300000e-07	1.805199e-08	-1.784659e-09	1.292304e-01	-1.189550e+02
8.400000e-07	1.201072e-07	-1.608205e-09	8.598219e-01	-1.075715e+02
8.500000e-07	2.221325e-07	-1.429492e-09	1.590200e+00	-9.595276e+01
8.600000e-07	3.240890e-07	-1.250246e-09	2.320085e+00	-8.408601e+01
8.700000e-07	4.259747e-07	-1.067937e-09	3.049463e+00	-7.195495e+01
8.800000e-07	5.276959e-07	-8.771705e-10	3.777664e+00	-5.954216e+01
8.900000e-07	6.292903e-07	-6.804723e-10	4.504957e+00	-4.683175e+01
9.000000e-07	7.306914e-07	-4.825808e-10	5.230866e+00	-3.381156e+01
9.100000e-07	8.317489e-07	-2.834219e-10	5.954316e+00	-2.047456e+01
9.200000e-07	9.324919e-07	-8.052456e-11	6.675514e+00	-6.819283e+00
9.300000e-07	1.032968e-06	1.271749e-10	7.394800e+00	7.150355e+00
9.400000e-07	1.133174e-06	3.431874e-10	8.112154e+00	2.142554e+01
9.500000e-07	1.233116e-06	5.666708e-10	8.827618e+00	3.599270e+01
9.600000e-07	1.332664e-06	7.916725e-10	9.540264e+00	5.083298e+01
9.700000e-07	1.431607e-06	1.018498e-09	1.024857e+01	6.592099e+01
9.800000e-07	1.529879e-06	1.251389e-09	1.095208e+01	8.122310e+01
9.900000e-07	1.627393e-06	1.490937e-09	1.165016e+01	9.669579e+01
1.000000e-06	1.724116e-06	1.733340e-09	1.234258e+01	1.122847e+02
1.010000e-06	1.820166e-06	1.973323e-09	1.303019e+01	1.279252e+02
1.020000e-06	1.915533e-06	2.210613e-09	1.371290e+01	1.435444e+02
1.030000e-06	2.010237e-06	2.444741e-09	1.439087e+01	1.590649e+02
1.040000e-06	2.104287e-06	2.675342e-09	1.506415e+01	1.744093e+02
1.050000e-06	2.197586e-06	2.904078e-09	1.573206e+01	1.895059e+02
1.060000e-06	2.290178e-06	3.128947e-09	1.639490e+01	2.042924e+02
1.070000e-06	2.382138e-06	3.348886e-09	1.705323e+01	2.187191e+02
1.080000e-06	2.473334e-06	3.559881e-09	1.770608e+01	2.327505e+02
1.090000e-06	2.563448e-06	3.764017e-09	1.835118e+01	2.463636e+02
1.100000e-06	2.652385e-06	3.964343e-09	1.898787e+01	2.595466e+02
1.110000e-06	2.740351e-06	4.159420e-09	1.961759e+01	2.722950e+02
1.120000e-06	2.827458e-06	4.345453e-09	2.024118e+01	2.846093e+02
1.130000e-06	2.913705e-06	4.522876e-09	2.085860e+01	2.964921e+02
1.140000e-06	2.999004e-06	4.695182e-09	2.146924e+01	3.079469e+02
1.150000e-06	3.083335e-06	4.864074e-09	2.207295e+01	3.189784e+02
1.160000e-06	3.166727e-06	5.029074e-09	2.266993e+01	3.295925e+02
1.170000e-06	3.248991e-06	5.186982e-09	2.325884e+01	3.397973e+02
1.180000e-06	3.329984e-06	5.336349e-09	2.383866e+01	3.496037e+02
1.190000e-06	3.409764e-06	5.478719e-09	2.440979e+01	3.590246e+02
1.200000e-06	3.488338e-06	5.615959e-09	2.497228e+01	3.680741e+02
1.210000e-06	3.565731e-06	5.748684e-09	2.552632e+01	3.767661e+02
1.220000e-06	3.641910e-06	5.877622e-09	2.607167e+01	3.851120e+02
1.230000e-06	3.716607e-06	5.999183e-09	2.660641e+01	3.931202e+02
1.240000e-06	3.789675e-06	6.111926e-09	2.712949e+01	4.007959e+02
1.250000e-06	3.861276e-06	6.218909e-09	2.764206e+01	4.081425e+02
1.260000e-06	3.931538e-06	6.325051e-09	2.814506e+01	4.151634e+02
1.270000e-06	4.000470e-06	6.428539e-09	2.863853e+01	4.218645e+02
1.280000e-06	4.068073e-06	6.525828e-09	2.912248e+01	4.282570e+02
1.290000e-06	4.134027e-06	6.617470e-09	2.959463e+01	4.343577e+02
1.300000e-06	4.198278e-06	6.705485e-09	3.005459e+01	4.401893e+02
1.310000e-06	4.261142e-06	6.791176e-09	3.050462e+01	4.457783e+02
1.320000e-06	4.322619e-06	6.874013e-09	3.094472e+01	4.511515e+02
1.330000e-06	4.382707e-06	6.953164e-09	3.137488e+01	4.563331e+02
1.340000e-06	4.441235e-06	7.028011e-09	3.179387e+01	4.613409e+02
1.350000e-06	4.497951e-06	7.099153e-09	3.219989e+01	4.661847e+02
1.360000e-06	4.553019e-06	7.168386e-09	3.259411e+01	4.708657e+02
1.370000e-06	4.606490e-06	7.236974e-09	3.297690e+01	4.753784e+02
1.380000e-06	4.658121e-06	7.303184e-09	3.334651e+01	4.797129e+02
1.390000e-06	4.707702e-06	7.365822e-09	3.370145e+01	4.838585e+02
1.400000e-06	4.755395e-06	7.425148e-09	3.404287e+01	4.878068e+02
1.410000e-06	4.801490e-06	7.482277e-09	3.437286e+01	4.915538e+02
1.420000e-06	4.846060e-06	7.535922e-09	3.469192e+01	4.951002e+02
1.430000e-06	4.888984e-06	7.585721e-09	3.499921e+01	4.984511e+02
1.440000e-06	4.930031e-06	7.632386e-09	3.529306e+01	5.016137e+02
1.450000e-06	4.969310e-06	7.675442e-09	3.557424e+01	5.045953e+02
1.460000e-06	5.006976e-06	7.714938e-09	3.584389e+01	5.074017e+02
1.470000e-06	5.043024e-06	7.752247e-09	3.610195e+01	5.100362e+02
1.480000e-06	5.077238e-06	7.789461e-09	3.634688e+01	5.125003e+02
1.490000e-06	5.109489e-06	7.824939e-09	3.657776e+01	5.147944e+02
1.500000e-06	5.139999e-06	7.857007e-09	3.679618e+01	5.169204e+02
1.510000e-06	5.168911e-06	7.885062e-09	3.700315e+01	5.188821e+02
1.520000e-06	5.196083e-06	7.910954e-09	3.719766e+01	5.206864e+02
1.530000e-06	5.221159e-06	7.935233e-09	3.737718e+01	5.223423e+02
1.540000e-06	5.244212e-06	7.955734e-09	3.754221e+01	5.238593e+02
1.550000e-06	5.265544e-06	7.973931e-09	3.769492e+01	5.252452e+02
1.560000e-06	5.285192e-06	7.991497e-09	3.783558e+01	5.265037e+02
1.570000e-06	5.302903e-06	8.008542e-09	3.796237e+01	5.276337e+02
1.580000e-06	5.318559e-06	8.024037e-09	3.807445e+01	5.286297e+02
1.590000e-06	5.332294e-06	8.038334e-09	3.817277e+01	5.294837e+02
1.600000e-06	5.343968e-06	8.051833e-09	3.825634e+01	5.301880e+02
1.610000e-06	5.353455e-06	8.061760e-09	3.832426e+01	5.307390e+02
1.620000e-06	5.360950e-06	8.067881e-09	3.837791e+01	5.311392e+02
1.630000e-06	5.366638e-06	8.072754e-09	3.841864e+01	5.313982e+02
1.640000e-06	5.370513e-06	8.076499e-09	3.844637e+01	5.315315e+02
1.650000e-06	5.372416e-06	8.078648e-09	3.846000e+01	5.315570e+02
1.660000e-06	5.372342e-06	8.078121e-09	3.845947e+01	5.314907e+02
1.670000e-06	5.370511e-06	8.074993e-09	3.844636e+01	5.313421e+02
1.680000e-06	5.367047e-06	8.071461e-09	3.842156e+01	5.311113e+02
1.690000e-06	5.361801e-06	8.066843e-09	3.838401e+01	5.307880e+02
1.700000e-06	5.354650e-06	8.061405e-09	3.833282e+01	5.303540e+02
1.710000e-06	5.345848e-06	8.055081e-09	3.826980e+01	5.297876e+02
1.720000e-06	5.335538e-06	8.047304e-09	3.819599e+01	5.290705e+02
1.730000e-06	5.323477e-06	8.038396e-09	3.810965e+01	5.281932e+02
1.740000e-06	5.309362e-06	8.014245e-09	3.800861e+01	5.271601e+02
1.750000e-06	5.293138e-06	7.965010e-09	3.789246e+01	5.259900e+02
1.760000e-06	5.274563e-06	7.945219e-09	3.775949e+01	5.247144e+02
1.770000e-06	5.253338e-06	7.947526e-09	3.760754e+01	5.233709e+02
1.780000e-06	5.229985e-06	7.954874e-09	3.744037e+01	5.219952e+02
1.790000e-06	5.205525e-06	7.957493e-09	3.726526e+01	5.206126e+02
1.800000e-06	5.180328e-06	7.885027e-09	3.708488e+01	5.192318e+02
1.810000e-06	5.153540e-06	7.846910e-09	3.689311e+01	5.178410e+02
1.820000e-06	5.124531e-06	7.861259e-09	3.668544e+01	5.164095e+02
1.830000e-06	5.093768e-06	7.802774e-09	3.646521e+01	5.148934e+02
1.840000e-06	5.061268e-06	7.803675e-09	3.623255e+01	5.132438e+02
1.850000e-06	5.026837e-06	7.845849e-09	3.598607e+01	5.114166e+02
1.860000e-06	4.990822e-06	7.803615e-09	3.572825e+01	5.093812e+02
1.870000e-06	4.952966e-06	7.784622e-09	3.545724e+01	5.071260e+02
1.880000e-06	4.913268e-06	7.714203e-09	3.517306e+01	5.046593e+02
1.890000e-06	4.871921e-06	7.608925e-09	3.487706e+01	5.020064e+02
1.900000e-06	4.828758e-06	7.607223e-09	3.456806e+01	4.992027e+02
1.910000e-06	4.784060e-06	7.573720e-09	3.424808e+01	4.962850e+02
1.920000e-06	4.737503e-06	7.549664e-09	3.391479e+01	4.932835e+02
1.930000e-06	4.688901e-06	7.512734e-09	3.356686e+01	4.902157e+02
1.940000e-06	4.638751e-06	7.403188e-09	3.320785e+01	4.870838e+02
1.950000e-06	4.586881e-06	7.394546e-09	3.283652e+01	4.838765e+02
1.960000e-06	4.532952e-06	7.351109e-09	3.245045e+01	4.805734e+02
1.970000e-06	4.477065e-06	7.269804e-09	3.205037e+01	4.771515e+02
1.980000e-06	4.419495e-06	7.233867e-09	3.163824e+01	4.735918e+02
1.990000e-06	4.360525e-06	7.150628e-09	3.121608e+01	4.698839e+02
2.000000e-06	4.300040e-06	7.112649e-09	3.078308e+01	4.660281e+02
2.010000e-06	4.237879e-06	7.068418e-09	3.033809e+01	4.620345e+02
2.020000e-06	4.174147e-06	7.000917e-09	2.988184e+01	4.579189e+02
2.030000e-06	4.108928e-06	6.940059e-09	2.941495e+01	4.536982e+02
2.040000e-06	4.042265e-06	6.845689e-09	2.893773e+01	4.493855e+02
2.050000e-06	3.974240e-06	6.792418e-09	2.845075e+01	4.449863e+02
2.060000e-06	3.904772e-06	6.727253e-09	2.795344e+01	4.404977e+02
2.070000e-06	3.833703e-06	6.665919e-09	2.744467e+01	4.359095e+02
2.080000e-06	3.761234e-06	6.603276e-09	2.692588e+01	4.312080e+02
2.090000e-06	3.687543e-06	6.496227e-09	2.639834e+01	4.263795e+02
2.100000e-06	3.612502e-06	6.411973e-09	2.586114e+01	4.214144e+02
2.110000e-06	3.536010e-06	6.335398e-09	2.531355e+01	4.163098e+02
2.120000e-06	3.457925e-06	6.281734e-09	2.475456e+01	4.110693e+02
2.130000e-06	3.378440e-06	6.209529e-09	2.418554e+01	4.057017e+02
2.140000e-06	3.297905e-06	6.115380e-09	2.360901e+01	4.002181e+02
2.150000e-06	3.216289e-06	6.032261e-09	2.302473e+01	3.946277e+02
2.160000e-06	3.133587e-06	5.932035e-09	2.243269e+01	3.889357e+02
2.170000e-06	3.049892e-06	5.846626e-09	2.183354e+01	3.831411e+02
2.180000e-06	2.965100e-06	5.767657e-09	2.122653e+01	3.772375e+02
2.190000e-06	2.878964e-06	5.678605e-09	2.060990e+01	3.712142e+02
2.200000e-06	2.791586e-06	5.568592e-09	1.998438e+01	3.650596e+02
2.210000e-06	2.703263e-06	5.468132e-09	1.935209e+01	3.587637e+02
2.220000e-06	2.614083e-06	5.391699e-09	1.871367e+01	3.523200e+02
2.230000e-06	2.523977e-06	5.299288e-09	1.806862e+01	3.457267e+02
2.240000e-06	2.432965e-06	5.191187e-09	1.741709e+01	3.389854e+02
2.250000e-06	2.341234e-06	5.079421e-09	1.676040e+01	3.320996e+02
2.260000e-06	2.248840e-06	4.971096e-09	1.609897e+01	3.250726e+02
2.270000e-06	2.155645e-06	4.856460e-09	1.543181e+01	3.179052e+02
2.280000e-06	2.061410e-06	4.746587e-09	1.475720e+01	3.105950e+02
2.290000e-06	1.966123e-06	4.641020e-09	1.407506e+01	3.031369e+02
2.300000e-06	1.870090e-06	4.520601e-09	1.338758e+01	2.955238e+02
2.310000e-06	1.773577e-06	4.391045e-09	1.269667e+01	2.877495e+02
2.320000e-06	1.676607e-06	4.271664e-09	1.200248e+01	2.798100e+02
2.330000e-06	1.579070e-06	4.164805e-09	1.130423e+01	2.717052e+02
2.340000e-06	1.481022e-06	4.048327e-09	1.060233e+01	2.634384e+02
2.350000e-06	1.382514e-06	3.916238e-09	9.897128e+00	2.550153e+02
2.360000e-06	1.283574e-06	3.776796e-09	9.188837e+00	2.464415e+02
2.370000e-06	1.184293e-06	3.638846e-09	8.478103e+00	2.377197e+02
2.380000e-06	1.084692e-06	3.504985e-09	7.765080e+00	2.288481e+02
2.390000e-06	9.848084e-07	3.374124e-09	7.050036e+00	2.198188e+02
2.400000e-06	8.846621e-07	3.238446e-09	6.333110e+00	2.106185e+02
2.410000e-06	7.842121e-07	3.092571e-09	5.614010e+00	2.012307e+02
2.420000e-06	6.834394e-07	2.943418e-09	4.892599e+00	1.916380e+02
2.430000e-06	5.823425e-07	2.796895e-09	4.168868e+00	1.818254e+02
2.440000e-06	4.810112e-07	2.652363e-09	3.443458e+00	1.717825e+02
2.450000e-06	3.795201e-07	2.500312e-09	2.716904e+00	1.615046e+02
2.460000e-06	2.778617e-07	2.336283e-09	1.989153e+00	1.509920e+02
2.470000e-06	1.760636e-07	2.165776e-09	1.260402e+00	1.402484e+02
2.480000e-06	7.410365e-08	1.996806e-09	5.304925e-01	1.292777e+02
2.490000e-06	-2.795875e-08	1.830463e-09	-2.001508e-01	1.180813e+02
2.500000e-06	-1.299499e-07	1.661259e-09	-9.302838e-01	1.066564e+02
2.510000e-06	-2.318855e-07	1.484185e-09	-1.660019e+00	9.499430e+01
2.520000e-06	-3.337772e-07	1.301146e-09	-2.389441e+00	8.308146e+01
2.530000e-06	-4.355363e-07	1.116326e-09	-3.117913e+00	7.090122e+01
2.540000e-06	-5.371464e-07	9.261752e-10	-3.845319e+00	5.843622e+01
2.550000e-06	-6.385018e-07	7.300242e-10	-4.570900e+00	4.567110e+01
2.560000e-06	-7.395528e-07	5.275016e-10	-5.294303e+00	3.259455e+01
2.570000e-06	-8.402729e-07	3.163619e-10	-6.015337e+00	1.920051e+01
2.580000e-06	-9.406197e-07	1.003486e-10	-6.733699e+00	5.488523e+00
2.590000e-06	-1.040612e-06	-1.144053e-10	-7.449520e+00	-8.536606e+00
2.600000e-06	-1.140262e-06	-3.287702e-10	-8.162893e+00	-2.286521e+01
2.610000e-06	-1.239511e-06	-5.488866e-10	-8.873396e+00	-3.748284e+01
2.620000e-06	-1.338334e-06	-7.800441e-10	-9.580852e+00	-5.236958e+01
2.630000e-06	-1.436792e-06	-1.016514e-09	-1.028569e+01	-6.749870e+01
2.640000e-06	-1.534739e-06	-1.250224e-09	-1.098688e+01	-8.283492e+01
2.650000e-06	-1.632023e-06	-1.483002e-09	-1.168331e+01	-9.833280e+01
2.660000e-06	-1.728745e-06	-1.717595e-09	-1.237572e+01	-1.139361e+02
2.670000e-06	-1.825010e-06	-1.956692e-09	-1.306486e+01	-1.295785e+02
2.680000e-06	-1.920753e-06	-2.198098e-09	-1.375027e+01	-1.451859e+02
2.690000e-06	-2.015831e-06	-2.437598e-09	-1.443091e+01	-1.606807e+02
2.700000e-06	-2.110043e-06	-2.671003e-09	-1.510535e+01	-1.759861e+02
2.710000e-06	-2.203275e-06	-2.897141e-09	-1.577278e+01	-1.910317e+02
2.720000e-06	-2.295583e-06	-3.121999e-09	-1.643360e+01	-2.057573e+02
2.730000e-06	-2.387054e-06	-3.345667e-09	-1.708842e+01	-2.201158e+02
2.740000e-06	-2.477730e-06	-3.562149e-09	-1.773755e+01	-2.340739e+02
2.750000e-06	-2.567581e-06	-3.768938e-09	-1.838077e+01	-2.476110e+02
2.760000e-06	-2.656512e-06	-3.969675e-09	-1.901741e+01	-2.607167e+02
2.770000e-06	-2.744546e-06	-4.167330e-09	-1.964763e+01	-2.733876e+02
2.780000e-06	-2.831763e-06	-4.359406e-09	-2.027200e+01	-2.856248e+02
2.790000e-06	-2.918008e-06	-4.542795e-09	-2.088941e+01	-2.974310e+02
2.800000e-06	-3.003030e-06	-4.714303e-09	-2.149806e+01	-3.088100e+02
2.810000e-06	-3.086886e-06	-4.876068e-09	-2.209837e+01	-3.197666e+02
2.820000e-06	-3.169751e-06	-5.032201e-09	-2.269158e+01	-3.303070e+02
2.830000e-06	-3.251579e-06	-5.184940e-09	-2.327737e+01	-3.404400e+02
2.840000e-06	-3.332330e-06	-5.335328e-09	-2.385545e+01	-3.501767e+02
2.850000e-06	-3.412023e-06	-5.481273e-09	-2.442596e+01	-3.595304e+02
2.860000e-06	-3.490375e-06	-5.620894e-09	-2.498686e+01	-3.685153e+02
2.870000e-06	-3.567196e-06	-5.753392e-09	-2.553681e+01	-3.771448e+02
2.880000e-06	-3.642603e-06	-5.879926e-09	-2.607663e+01	-3.854300e+02
2.890000e-06	-3.716595e-06	-6.003078e-09	-2.660633e+01	-3.933787e+02
2.900000e-06	-3.789267e-06	-6.120573e-09	-2.712657e+01	-4.009956e+02
2.910000e-06	-3.860736e-06	-6.231377e-09	-2.763820e+01	-4.082839e+02
2.920000e-06	-3.930688e-06	-6.337257e-09	-2.813897e+01	-4.152472e+02
2.930000e-06	-3.999008e-06	-6.438584e-09	-2.862806e+01	-4.218924e+02
2.940000e-06	-4.065953e-06	-6.536267e-09	-2.910730e+01	-4.282315e+02
