# Temperatura_=_64.53
# Concentracion g/m^3_=_15000.0
# C_Vs_to_Am_M_A/Vsm_=_65563218390.804596
# pendiente_HvsI_1/m_=_3716.3
# ordenada_HvsI_A/m_=_1297.0
# frecuencia_Hz_=_301593.2167367884

Tiempo_(s)	Campo_(V.s)	Magnetizacion_(V.s)	Campo_(kA/m)	Magnetizacion_(A/m)
0.000000e+00	-5.370881e-06	-6.846159e-09	-3.833739e+01	-4.476209e+02
1.000000e-08	-5.367893e-06	-6.841822e-09	-3.831606e+01	-4.474084e+02
2.000000e-08	-5.363148e-06	-6.836619e-09	-3.828220e+01	-4.471350e+02
3.000000e-08	-5.356834e-06	-6.827776e-09	-3.823713e+01	-4.467931e+02
4.000000e-08	-5.348970e-06	-6.816746e-09	-3.818099e+01	-4.463670e+02
5.000000e-08	-5.339285e-06	-6.807215e-09	-3.811186e+01	-4.458375e+02
6.000000e-08	-5.327527e-06	-6.796856e-09	-3.802793e+01	-4.451869e+02
7.000000e-08	-5.313892e-06	-6.790146e-09	-3.793060e+01	-4.444046e+02
8.000000e-08	-5.298151e-06	-6.793199e-09	-3.781825e+01	-4.434914e+02
9.000000e-08	-5.280090e-06	-6.778123e-09	-3.768933e+01	-4.424611e+02
1.000000e-07	-5.259957e-06	-6.763588e-09	-3.754562e+01	-4.413386e+02
1.100000e-07	-5.237908e-06	-6.744737e-09	-3.738823e+01	-4.401552e+02
1.200000e-07	-5.214233e-06	-6.691949e-09	-3.721924e+01	-4.389424e+02
1.300000e-07	-5.189145e-06	-6.684304e-09	-3.704016e+01	-4.377238e+02
1.400000e-07	-5.162430e-06	-6.681450e-09	-3.684947e+01	-4.365100e+02
1.500000e-07	-5.134042e-06	-6.622774e-09	-3.664683e+01	-4.352951e+02
1.600000e-07	-5.104207e-06	-6.659563e-09	-3.643387e+01	-4.340570e+02
1.700000e-07	-5.072779e-06	-6.639840e-09	-3.620954e+01	-4.327616e+02
1.800000e-07	-5.039215e-06	-6.564964e-09	-3.596996e+01	-4.313694e+02
1.900000e-07	-5.003762e-06	-6.589631e-09	-3.571689e+01	-4.298431e+02
2.000000e-07	-4.966838e-06	-6.529631e-09	-3.545333e+01	-4.281551e+02
2.100000e-07	-4.928162e-06	-6.458317e-09	-3.517726e+01	-4.262921e+02
2.200000e-07	-4.887666e-06	-6.462352e-09	-3.488820e+01	-4.242564e+02
2.300000e-07	-4.845261e-06	-6.437846e-09	-3.458551e+01	-4.220646e+02
2.400000e-07	-4.800950e-06	-6.407130e-09	-3.426922e+01	-4.197419e+02
2.500000e-07	-4.754875e-06	-6.382342e-09	-3.394033e+01	-4.173160e+02
2.600000e-07	-4.706987e-06	-6.333393e-09	-3.359851e+01	-4.148108e+02
2.700000e-07	-4.657070e-06	-6.282901e-09	-3.324221e+01	-4.122414e+02
2.800000e-07	-4.604968e-06	-6.240816e-09	-3.287030e+01	-4.096119e+02
2.900000e-07	-4.550978e-06	-6.217989e-09	-3.248492e+01	-4.069163e+02
3.000000e-07	-4.495455e-06	-6.173172e-09	-3.208859e+01	-4.041416e+02
3.100000e-07	-4.438331e-06	-6.125933e-09	-3.168085e+01	-4.012721e+02
3.200000e-07	-4.379407e-06	-6.073995e-09	-3.126024e+01	-3.982947e+02
3.300000e-07	-4.318851e-06	-6.010766e-09	-3.082799e+01	-3.952018e+02
3.400000e-07	-4.256866e-06	-5.983635e-09	-3.038554e+01	-3.919934e+02
3.500000e-07	-4.193508e-06	-5.937222e-09	-2.993330e+01	-3.886760e+02
3.600000e-07	-4.128690e-06	-5.876121e-09	-2.947062e+01	-3.852600e+02
3.700000e-07	-4.062200e-06	-5.826266e-09	-2.899602e+01	-3.817563e+02
3.800000e-07	-3.994101e-06	-5.770373e-09	-2.850992e+01	-3.781732e+02
3.900000e-07	-3.924611e-06	-5.713748e-09	-2.801391e+01	-3.745132e+02
4.000000e-07	-3.853868e-06	-5.656542e-09	-2.750894e+01	-3.707731e+02
4.100000e-07	-3.781972e-06	-5.603181e-09	-2.699575e+01	-3.669449e+02
4.200000e-07	-3.708821e-06	-5.533684e-09	-2.647359e+01	-3.630179e+02
4.300000e-07	-3.634070e-06	-5.469012e-09	-2.594002e+01	-3.589820e+02
4.400000e-07	-3.557634e-06	-5.418719e-09	-2.539442e+01	-3.548302e+02
4.500000e-07	-3.479781e-06	-5.362453e-09	-2.483871e+01	-3.505603e+02
4.600000e-07	-3.400632e-06	-5.295085e-09	-2.427374e+01	-3.461747e+02
4.700000e-07	-3.320182e-06	-5.211243e-09	-2.369949e+01	-3.416794e+02
4.800000e-07	-3.238436e-06	-5.134014e-09	-2.311598e+01	-3.370816e+02
4.900000e-07	-3.155487e-06	-5.070297e-09	-2.252389e+01	-3.323872e+02
5.000000e-07	-3.071540e-06	-4.999243e-09	-2.192468e+01	-3.275990e+02
5.100000e-07	-2.986724e-06	-4.924081e-09	-2.131926e+01	-3.227153e+02
5.200000e-07	-2.900940e-06	-4.847998e-09	-2.070694e+01	-3.177308e+02
5.300000e-07	-2.814129e-06	-4.764895e-09	-2.008727e+01	-3.126374e+02
5.400000e-07	-2.726466e-06	-4.682372e-09	-1.946154e+01	-3.074266e+02
5.500000e-07	-2.638018e-06	-4.602672e-09	-1.883020e+01	-3.020910e+02
5.600000e-07	-2.548446e-06	-4.522746e-09	-1.819083e+01	-2.966263e+02
5.700000e-07	-2.457624e-06	-4.434767e-09	-1.754254e+01	-2.910308e+02
5.800000e-07	-2.365863e-06	-4.342922e-09	-1.688755e+01	-2.853060e+02
5.900000e-07	-2.273343e-06	-4.253432e-09	-1.622714e+01	-2.794546e+02
6.000000e-07	-2.180061e-06	-4.166680e-09	-1.556130e+01	-2.734794e+02
6.100000e-07	-2.085996e-06	-4.075735e-09	-1.488986e+01	-2.673820e+02
6.200000e-07	-1.991192e-06	-3.978358e-09	-1.421315e+01	-2.611622e+02
6.300000e-07	-1.895763e-06	-3.878744e-09	-1.353197e+01	-2.548183e+02
6.400000e-07	-1.799727e-06	-3.779409e-09	-1.284646e+01	-2.483478e+02
6.500000e-07	-1.703025e-06	-3.683060e-09	-1.215621e+01	-2.417482e+02
6.600000e-07	-1.605542e-06	-3.582231e-09	-1.146037e+01	-2.350183e+02
6.700000e-07	-1.507276e-06	-3.474159e-09	-1.075895e+01	-2.281580e+02
6.800000e-07	-1.408363e-06	-3.361082e-09	-1.005290e+01	-2.211682e+02
6.900000e-07	-1.308954e-06	-3.250129e-09	-9.343322e+00	-2.140496e+02
7.000000e-07	-1.209176e-06	-3.144990e-09	-8.631109e+00	-2.068015e+02
7.100000e-07	-1.109055e-06	-3.038085e-09	-7.916442e+00	-1.994203e+02
7.200000e-07	-1.008646e-06	-2.923907e-09	-7.199726e+00	-1.918992e+02
7.300000e-07	-9.079532e-07	-2.804839e-09	-6.480978e+00	-1.842281e+02
7.400000e-07	-8.069691e-07	-2.683201e-09	-5.760152e+00	-1.763949e+02
7.500000e-07	-7.057262e-07	-2.560304e-09	-5.037479e+00	-1.683871e+02
7.600000e-07	-6.042257e-07	-2.436572e-09	-4.312968e+00	-1.601934e+02
7.700000e-07	-5.025026e-07	-2.308792e-09	-3.586867e+00	-1.518054e+02
7.800000e-07	-4.005903e-07	-2.177442e-09	-2.859417e+00	-1.432181e+02
7.900000e-07	-2.985065e-07	-2.042353e-09	-2.130742e+00	-1.344295e+02
8.000000e-07	-1.963413e-07	-1.906470e-09	-1.401486e+00	-1.254393e+02
8.100000e-07	-9.408803e-08	-1.769987e-09	-6.716011e-01	-1.162472e+02
8.200000e-07	8.198377e-09	-1.625836e-09	5.852008e-02	-1.068513e+02
8.300000e-07	1.105344e-07	-1.474715e-09	7.889956e-01	-9.724673e+01
8.400000e-07	2.129194e-07	-1.319467e-09	1.519821e+00	-8.742608e+01
8.500000e-07	3.151888e-07	-1.165049e-09	2.249820e+00	-7.737983e+01
8.600000e-07	4.173434e-07	-1.010778e-09	2.979000e+00	-6.709822e+01
8.700000e-07	5.193693e-07	-8.515324e-10	3.707263e+00	-5.657301e+01
8.800000e-07	6.212173e-07	-6.852836e-10	4.434254e+00	-4.579906e+01
8.900000e-07	7.228364e-07	-5.148058e-10	5.159612e+00	-3.477494e+01
9.000000e-07	8.241816e-07	-3.425766e-10	5.883015e+00	-2.350263e+01
9.100000e-07	9.252529e-07	-1.664715e-10	6.604463e+00	-1.198626e+01
9.200000e-07	1.026023e-06	1.228515e-11	7.323762e+00	-2.305416e-01
9.300000e-07	1.126504e-06	1.939369e-10	8.040994e+00	1.176049e+01
9.400000e-07	1.226682e-06	3.789875e-10	8.756064e+00	2.398368e+01
9.500000e-07	1.326491e-06	5.678684e-10	9.468506e+00	3.643561e+01
9.600000e-07	1.425837e-06	7.587381e-10	1.017764e+01	4.910984e+01
9.700000e-07	1.524520e-06	9.503285e-10	1.088204e+01	6.199326e+01
9.800000e-07	1.622372e-06	1.144012e-09	1.158051e+01	7.506219e+01
9.900000e-07	1.719424e-06	1.342292e-09	1.227326e+01	8.827943e+01
1.000000e-06	1.815772e-06	1.544037e-09	1.296100e+01	1.015931e+02
1.010000e-06	1.911453e-06	1.746460e-09	1.364397e+01	1.149379e+02
1.020000e-06	2.006502e-06	1.947186e-09	1.432243e+01	1.282391e+02
1.030000e-06	2.100881e-06	2.146071e-09	1.499611e+01	1.414185e+02
1.040000e-06	2.194527e-06	2.342137e-09	1.566455e+01	1.544010e+02
1.050000e-06	2.287422e-06	2.532727e-09	1.632764e+01	1.671216e+02
1.060000e-06	2.379670e-06	2.719297e-09	1.698611e+01	1.795298e+02
1.070000e-06	2.471259e-06	2.901261e-09	1.763987e+01	1.915926e+02
1.080000e-06	2.561847e-06	3.077831e-09	1.828649e+01	2.032935e+02
1.090000e-06	2.651199e-06	3.251018e-09	1.892428e+01	2.146297e+02
1.100000e-06	2.739440e-06	3.419715e-09	1.955414e+01	2.256069e+02
1.110000e-06	2.826795e-06	3.583350e-09	2.017768e+01	2.362339e+02
1.120000e-06	2.913284e-06	3.741723e-09	2.079504e+01	2.465184e+02
1.130000e-06	2.998807e-06	3.893584e-09	2.140551e+01	2.564629e+02
1.140000e-06	3.083410e-06	4.038558e-09	2.200941e+01	2.660650e+02
1.150000e-06	3.167165e-06	4.178134e-09	2.260725e+01	2.753178e+02
1.160000e-06	3.249824e-06	4.312828e-09	2.319727e+01	2.842131e+02
1.170000e-06	3.331218e-06	4.441748e-09	2.377826e+01	2.927445e+02
1.180000e-06	3.411399e-06	4.564624e-09	2.435059e+01	3.009106e+02
1.190000e-06	3.490339e-06	4.680807e-09	2.491407e+01	3.087165e+02
1.200000e-06	3.568074e-06	4.792845e-09	2.546894e+01	3.161742e+02
1.210000e-06	3.644645e-06	4.901454e-09	2.601550e+01	3.233012e+02
1.220000e-06	3.719739e-06	5.004559e-09	2.655153e+01	3.301185e+02
1.230000e-06	3.793148e-06	5.101783e-09	2.707553e+01	3.366477e+02
1.240000e-06	3.865079e-06	5.194672e-09	2.758896e+01	3.429089e+02
1.250000e-06	3.935617e-06	5.284507e-09	2.809247e+01	3.489196e+02
1.260000e-06	4.004815e-06	5.372208e-09	2.858640e+01	3.546943e+02
1.270000e-06	4.072770e-06	5.456360e-09	2.907146e+01	3.602450e+02
1.280000e-06	4.139178e-06	5.537423e-09	2.954549e+01	3.655823e+02
1.290000e-06	4.203845e-06	5.616104e-09	3.000708e+01	3.707166e+02
1.300000e-06	4.267012e-06	5.690548e-09	3.045797e+01	3.756579e+02
1.310000e-06	4.328760e-06	5.761960e-09	3.089873e+01	3.804163e+02
1.320000e-06	4.389191e-06	5.831423e-09	3.133008e+01	3.850003e+02
1.330000e-06	4.448143e-06	5.898803e-09	3.175088e+01	3.894163e+02
1.340000e-06	4.505286e-06	5.963558e-09	3.215877e+01	3.936671e+02
1.350000e-06	4.560742e-06	6.024258e-09	3.255461e+01	3.977518e+02
1.360000e-06	4.614622e-06	6.081962e-09	3.293921e+01	4.016665e+02
1.370000e-06	4.666654e-06	6.137347e-09	3.331061e+01	4.054054e+02
1.380000e-06	4.716572e-06	6.189436e-09	3.366693e+01	4.089631e+02
1.390000e-06	4.764582e-06	6.239565e-09	3.400962e+01	4.123361e+02
1.400000e-06	4.810963e-06	6.288466e-09	3.434069e+01	4.155244e+02
1.410000e-06	4.855822e-06	6.334043e-09	3.466090e+01	4.185322e+02
1.420000e-06	4.899013e-06	6.376477e-09	3.496920e+01	4.213664e+02
1.430000e-06	4.940307e-06	6.415025e-09	3.526395e+01	4.240359e+02
1.440000e-06	4.979861e-06	6.450389e-09	3.554629e+01	4.265494e+02
1.450000e-06	5.017777e-06	6.484076e-09	3.581694e+01	4.289136e+02
1.460000e-06	5.054099e-06	6.516549e-09	3.607620e+01	4.311325e+02
1.470000e-06	5.088644e-06	6.548185e-09	3.632278e+01	4.332073e+02
1.480000e-06	5.121213e-06	6.577263e-09	3.655526e+01	4.351379e+02
1.490000e-06	5.151966e-06	6.602723e-09	3.677478e+01	4.369237e+02
1.500000e-06	5.181093e-06	6.625591e-09	3.698269e+01	4.385666e+02
1.510000e-06	5.208525e-06	6.647067e-09	3.717849e+01	4.400708e+02
1.520000e-06	5.233930e-06	6.667830e-09	3.735983e+01	4.414439e+02
1.530000e-06	5.257313e-06	6.687308e-09	3.752674e+01	4.426953e+02
1.540000e-06	5.278918e-06	6.705562e-09	3.768096e+01	4.438342e+02
1.550000e-06	5.298782e-06	6.722165e-09	3.782275e+01	4.448677e+02
1.560000e-06	5.316714e-06	6.736281e-09	3.795075e+01	4.457983e+02
1.570000e-06	5.332627e-06	6.747463e-09	3.806434e+01	4.466240e+02
1.580000e-06	5.346613e-06	6.756240e-09	3.816417e+01	4.473383e+02
1.590000e-06	5.358567e-06	6.765759e-09	3.824949e+01	4.479329e+02
1.600000e-06	5.368289e-06	6.775146e-09	3.831889e+01	4.484004e+02
1.610000e-06	5.375920e-06	6.782994e-09	3.837336e+01	4.487377e+02
1.620000e-06	5.381756e-06	6.788475e-09	3.841502e+01	4.489479e+02
1.630000e-06	5.385865e-06	6.791226e-09	3.844435e+01	4.490408e+02
1.640000e-06	5.387977e-06	6.793757e-09	3.845942e+01	4.490316e+02
1.650000e-06	5.388058e-06	6.794989e-09	3.846000e+01	4.489373e+02
1.660000e-06	5.386335e-06	6.794644e-09	3.844770e+01	4.487730e+02
1.670000e-06	5.383017e-06	6.792275e-09	3.842402e+01	4.485472e+02
1.680000e-06	5.378004e-06	6.785511e-09	3.838824e+01	4.482597e+02
1.690000e-06	5.371067e-06	6.777673e-09	3.833872e+01	4.479008e+02
1.700000e-06	5.362409e-06	6.771180e-09	3.827692e+01	4.474538e+02
1.710000e-06	5.352187e-06	6.765828e-09	3.820395e+01	4.468993e+02
1.720000e-06	5.340177e-06	6.759200e-09	3.811823e+01	4.462206e+02
1.730000e-06	5.326150e-06	6.725736e-09	3.801810e+01	4.454093e+02
1.740000e-06	5.310097e-06	6.714249e-09	3.790351e+01	4.444690e+02
1.750000e-06	5.291714e-06	6.701269e-09	3.777230e+01	4.434161e+02
1.760000e-06	5.270608e-06	6.685718e-09	3.762164e+01	4.422773e+02
1.770000e-06	5.247262e-06	6.711445e-09	3.745500e+01	4.410848e+02
1.780000e-06	5.222776e-06	6.658275e-09	3.728022e+01	4.398686e+02
1.790000e-06	5.197577e-06	6.616396e-09	3.710035e+01	4.386503e+02
1.800000e-06	5.170813e-06	6.622866e-09	3.690931e+01	4.374369e+02
1.810000e-06	5.141728e-06	6.553124e-09	3.670170e+01	4.362190e+02
1.820000e-06	5.110897e-06	6.588051e-09	3.648163e+01	4.349713e+02
1.830000e-06	5.078502e-06	6.621652e-09	3.625039e+01	4.336581e+02
1.840000e-06	5.044243e-06	6.560046e-09	3.600585e+01	4.322396e+02
1.850000e-06	5.008396e-06	6.620767e-09	3.574997e+01	4.306802e+02
1.860000e-06	4.970736e-06	6.625491e-09	3.548115e+01	4.289548e+02
1.870000e-06	4.931218e-06	6.534097e-09	3.519908e+01	4.270536e+02
1.880000e-06	4.890065e-06	6.524644e-09	3.490533e+01	4.249823e+02
1.890000e-06	4.847104e-06	6.478036e-09	3.459867e+01	4.227597e+02
1.900000e-06	4.802446e-06	6.433356e-09	3.427990e+01	4.204122e+02
1.910000e-06	4.755869e-06	6.416592e-09	3.394743e+01	4.179671e+02
1.920000e-06	4.707300e-06	6.375529e-09	3.360075e+01	4.154468e+02
1.930000e-06	4.657166e-06	6.369124e-09	3.324289e+01	4.128641e+02
1.940000e-06	4.605292e-06	6.293995e-09	3.287261e+01	4.102208e+02
1.950000e-06	4.551379e-06	6.244321e-09	3.248778e+01	4.075091e+02
1.960000e-06	4.495554e-06	6.215314e-09	3.208930e+01	4.047149e+02
1.970000e-06	4.438051e-06	6.160868e-09	3.167885e+01	4.018229e+02
1.980000e-06	4.379140e-06	6.144211e-09	3.125834e+01	3.988207e+02
1.990000e-06	4.318713e-06	6.070947e-09	3.082701e+01	3.957024e+02
2.000000e-06	4.256523e-06	6.025895e-09	3.038309e+01	3.924695e+02
2.010000e-06	4.192736e-06	5.985370e-09	2.992779e+01	3.891295e+02
2.020000e-06	4.127479e-06	5.906816e-09	2.946198e+01	3.856934e+02
2.030000e-06	4.060785e-06	5.874957e-09	2.898592e+01	3.821718e+02
2.040000e-06	3.992677e-06	5.827989e-09	2.849976e+01	3.785717e+02
2.050000e-06	3.923078e-06	5.772624e-09	2.800296e+01	3.748946e+02
2.060000e-06	3.851977e-06	5.699761e-09	2.749545e+01	3.711361e+02
2.070000e-06	3.779503e-06	5.642920e-09	2.697812e+01	3.672872e+02
2.080000e-06	3.705711e-06	5.592790e-09	2.645140e+01	3.633372e+02
2.090000e-06	3.630581e-06	5.513401e-09	2.591512e+01	3.592765e+02
2.100000e-06	3.553933e-06	5.445353e-09	2.536800e+01	3.550990e+02
2.110000e-06	3.475657e-06	5.373017e-09	2.480927e+01	3.508035e+02
2.120000e-06	3.396131e-06	5.328286e-09	2.424161e+01	3.463933e+02
2.130000e-06	3.315501e-06	5.263080e-09	2.366607e+01	3.418751e+02
2.140000e-06	3.233718e-06	5.187815e-09	2.308230e+01	3.372557e+02
2.150000e-06	3.150899e-06	5.126023e-09	2.249114e+01	3.325407e+02
2.160000e-06	3.067112e-06	5.040138e-09	2.189307e+01	3.277318e+02
2.170000e-06	2.982193e-06	4.960297e-09	2.128692e+01	3.228267e+02
2.180000e-06	2.895911e-06	4.885410e-09	2.067104e+01	3.178192e+02
2.190000e-06	2.808464e-06	4.817591e-09	2.004684e+01	3.127009e+02
2.200000e-06	2.720110e-06	4.739285e-09	1.941617e+01	3.074635e+02
2.210000e-06	2.630830e-06	4.649063e-09	1.877889e+01	3.021001e+02
2.220000e-06	2.540608e-06	4.565831e-09	1.813488e+01	2.966069e+02
2.230000e-06	2.449585e-06	4.485335e-09	1.748516e+01	2.909831e+02
2.240000e-06	2.357832e-06	4.400729e-09	1.683022e+01	2.852305e+02
2.250000e-06	2.265289e-06	4.308667e-09	1.616965e+01	2.793519e+02
2.260000e-06	2.171850e-06	4.217023e-09	1.550268e+01	2.733500e+02
2.270000e-06	2.077337e-06	4.119673e-09	1.482805e+01	2.672260e+02
2.280000e-06	1.981829e-06	4.023340e-09	1.414631e+01	2.609794e+02
2.290000e-06	1.885695e-06	3.928875e-09	1.346010e+01	2.546082e+02
2.300000e-06	1.789089e-06	3.831073e-09	1.277054e+01	2.481098e+02
2.310000e-06	1.691947e-06	3.727005e-09	1.207713e+01	2.414819e+02
2.320000e-06	1.594245e-06	3.619130e-09	1.137973e+01	2.347236e+02
2.330000e-06	1.495979e-06	3.520110e-09	1.067831e+01	2.278350e+02
2.340000e-06	1.397222e-06	3.421860e-09	9.973380e+00	2.208171e+02
2.350000e-06	1.298099e-06	3.314240e-09	9.265840e+00	2.136705e+02
2.360000e-06	1.198704e-06	3.199453e-09	8.556361e+00	2.063938e+02
2.370000e-06	1.099032e-06	3.080929e-09	7.844902e+00	1.989829e+02
2.380000e-06	9.990202e-07	2.962675e-09	7.131015e+00	1.914302e+02
2.390000e-06	8.986484e-07	2.846954e-09	6.414560e+00	1.837250e+02
2.400000e-06	7.978777e-07	2.729273e-09	5.695258e+00	1.758550e+02
2.410000e-06	6.967511e-07	2.607342e-09	4.973415e+00	1.678078e+02
2.420000e-06	5.953388e-07	2.478738e-09	4.249533e+00	1.595726e+02
2.430000e-06	4.936647e-07	2.349221e-09	3.523783e+00	1.511418e+02
2.440000e-06	3.917584e-07	2.222588e-09	2.796375e+00	1.425111e+02
2.450000e-06	2.896778e-07	2.090350e-09	2.067723e+00	1.336788e+02
2.460000e-06	1.873761e-07	1.951393e-09	1.337492e+00	1.246450e+02
2.470000e-06	8.484289e-08	1.808582e-09	6.056093e-01	1.154091e+02
2.480000e-06	-1.773232e-08	1.663506e-09	-1.265734e-01	1.059685e+02
2.490000e-06	-1.202755e-07	1.518333e-09	-8.585272e-01	9.631791e+01
2.500000e-06	-2.227284e-07	1.370965e-09	-1.589837e+00	8.644932e+01
2.510000e-06	-3.250904e-07	1.218050e-09	-2.320498e+00	7.635301e+01
2.520000e-06	-4.273081e-07	1.060049e-09	-3.050128e+00	6.601938e+01
2.530000e-06	-5.293308e-07	8.975319e-10	-3.778367e+00	5.544075e+01
2.540000e-06	-6.311635e-07	7.337455e-10	-4.505251e+00	4.461276e+01
2.550000e-06	-7.326345e-07	5.700185e-10	-5.229551e+00	3.353476e+01
2.560000e-06	-8.336870e-07	4.004037e-10	-5.950865e+00	2.220934e+01
2.570000e-06	-9.343690e-07	2.227682e-10	-6.669533e+00	1.064086e+01
2.580000e-06	-1.034661e-06	3.908380e-11	-7.385416e+00	-1.166013e+00
2.590000e-06	-1.134565e-06	-1.483015e-10	-8.098536e+00	-1.320746e+01
2.600000e-06	-1.234104e-06	-3.362046e-10	-8.809044e+00	-2.548045e+01
2.610000e-06	-1.333255e-06	-5.271193e-10	-9.516783e+00	-3.798114e+01
2.620000e-06	-1.431961e-06	-7.232959e-10	-1.022135e+01	-5.070203e+01
2.630000e-06	-1.530190e-06	-9.247963e-10	-1.092251e+01	-6.362805e+01
2.640000e-06	-1.627868e-06	-1.128156e-09	-1.161973e+01	-7.673282e+01
2.650000e-06	-1.724921e-06	-1.332391e-09	-1.231250e+01	-8.997601e+01
2.660000e-06	-1.821397e-06	-1.539255e-09	-1.300114e+01	-1.033027e+02
2.670000e-06	-1.917344e-06	-1.746244e-09	-1.368601e+01	-1.166451e+02
2.680000e-06	-2.012774e-06	-1.953077e-09	-1.436720e+01	-1.299272e+02
2.690000e-06	-2.107486e-06	-2.158878e-09	-1.504325e+01	-1.430709e+02
2.700000e-06	-2.201232e-06	-2.359820e-09	-1.571241e+01	-1.560027e+02
2.710000e-06	-2.293999e-06	-2.552572e-09	-1.637459e+01	-1.686605e+02
2.720000e-06	-2.385845e-06	-2.740738e-09	-1.703018e+01	-1.809973e+02
2.730000e-06	-2.476851e-06	-2.924593e-09	-1.767978e+01	-1.929838e+02
2.740000e-06	-2.566969e-06	-3.101186e-09	-1.832305e+01	-2.046069e+02
2.750000e-06	-2.656139e-06	-3.271020e-09	-1.895955e+01	-2.158659e+02
2.760000e-06	-2.744426e-06	-3.436328e-09	-1.958974e+01	-2.267677e+02
2.770000e-06	-2.831964e-06	-3.599537e-09	-2.021458e+01	-2.373213e+02
2.780000e-06	-2.918623e-06	-3.759092e-09	-2.083315e+01	-2.475332e+02
2.790000e-06	-3.004051e-06	-3.910786e-09	-2.144294e+01	-2.574053e+02
2.800000e-06	-3.088277e-06	-4.054455e-09	-2.204415e+01	-2.669336e+02
2.810000e-06	-3.171439e-06	-4.192865e-09	-2.263776e+01	-2.761109e+02
2.820000e-06	-3.253523e-06	-4.326305e-09	-2.322368e+01	-2.849291e+02
2.830000e-06	-3.334534e-06	-4.455641e-09	-2.380193e+01	-2.933825e+02
2.840000e-06	-3.414528e-06	-4.580758e-09	-2.437293e+01	-3.014712e+02
2.850000e-06	-3.493353e-06	-4.700984e-09	-2.493558e+01	-3.092016e+02
2.860000e-06	-3.570711e-06	-4.816345e-09	-2.548776e+01	-3.165872e+02
2.870000e-06	-3.646526e-06	-4.926114e-09	-2.602893e+01	-3.236465e+02
2.880000e-06	-3.720892e-06	-5.032190e-09	-2.655976e+01	-3.304007e+02
2.890000e-06	-3.793867e-06	-5.134502e-09	-2.708066e+01	-3.368713e+02
2.900000e-06	-3.865571e-06	-5.231150e-09	-2.759248e+01	-3.430779e+02
2.910000e-06	-3.935901e-06	-5.322018e-09	-2.809449e+01	-3.490373e+02
2.920000e-06	-4.004593e-06	-5.407008e-09	-2.858482e+01	-3.547635e+02
2.930000e-06	-4.071799e-06	-5.488934e-09	-2.906453e+01	-3.602680e+02
2.940000e-06	-4.137583e-06	-5.569629e-09	-2.953410e+01	-3.655614e+02
