# Temperatura_=_82.9
# Concentracion g/m^3_=_15000.0
# C_Vs_to_Am_M_A/Vsm_=_65563218390.804596
# pendiente_HvsI_1/m_=_3716.3
# ordenada_HvsI_A/m_=_1297.0
# frecuencia_Hz_=_301581.7009514928

Tiempo_(s)	Campo_(V.s)	Magnetizacion_(V.s)	Campo_(kA/m)	Magnetizacion_(A/m)
0.000000e+00	-5.358497e-06	-7.952159e-09	-3.834071e+01	-5.192750e+02
1.000000e-08	-5.355633e-06	-7.948315e-09	-3.832022e+01	-5.190451e+02
2.000000e-08	-5.350985e-06	-7.941006e-09	-3.828696e+01	-5.187332e+02
3.000000e-08	-5.344734e-06	-7.932393e-09	-3.824223e+01	-5.183266e+02
4.000000e-08	-5.336925e-06	-7.922671e-09	-3.818636e+01	-5.178063e+02
5.000000e-08	-5.327315e-06	-7.911007e-09	-3.811760e+01	-5.171526e+02
6.000000e-08	-5.315649e-06	-7.897085e-09	-3.803413e+01	-5.163502e+02
7.000000e-08	-5.302091e-06	-7.883534e-09	-3.793712e+01	-5.153937e+02
8.000000e-08	-5.286478e-06	-7.870805e-09	-3.782541e+01	-5.142903e+02
9.000000e-08	-5.268612e-06	-7.884764e-09	-3.769757e+01	-5.130597e+02
1.000000e-07	-5.248661e-06	-7.871798e-09	-3.755482e+01	-5.117309e+02
1.100000e-07	-5.226793e-06	-7.820793e-09	-3.739835e+01	-5.103371e+02
1.200000e-07	-5.203251e-06	-7.785485e-09	-3.722990e+01	-5.089080e+02
1.300000e-07	-5.178314e-06	-7.731952e-09	-3.705148e+01	-5.074638e+02
1.400000e-07	-5.151774e-06	-7.700021e-09	-3.686158e+01	-5.060104e+02
1.500000e-07	-5.123498e-06	-7.749209e-09	-3.665927e+01	-5.045372e+02
1.600000e-07	-5.093791e-06	-7.692905e-09	-3.644670e+01	-5.030193e+02
1.700000e-07	-5.062543e-06	-7.667922e-09	-3.622313e+01	-5.014216e+02
1.800000e-07	-5.029180e-06	-7.683382e-09	-3.598440e+01	-4.997058e+02
1.900000e-07	-4.993913e-06	-7.552600e-09	-3.573207e+01	-4.978377e+02
2.000000e-07	-4.957219e-06	-7.516979e-09	-3.546952e+01	-4.957929e+02
2.100000e-07	-4.918824e-06	-7.520311e-09	-3.519479e+01	-4.935609e+02
2.200000e-07	-4.878616e-06	-7.466090e-09	-3.490710e+01	-4.911455e+02
2.300000e-07	-4.836450e-06	-7.467743e-09	-3.460540e+01	-4.885627e+02
2.400000e-07	-4.792314e-06	-7.409929e-09	-3.428960e+01	-4.858361e+02
2.500000e-07	-4.746459e-06	-7.331100e-09	-3.396150e+01	-4.829909e+02
2.600000e-07	-4.698782e-06	-7.322023e-09	-3.362037e+01	-4.800485e+02
2.700000e-07	-4.649111e-06	-7.258694e-09	-3.326497e+01	-4.770221e+02
2.800000e-07	-4.597346e-06	-7.231040e-09	-3.289458e+01	-4.739154e+02
2.900000e-07	-4.543619e-06	-7.186080e-09	-3.251016e+01	-4.707229e+02
3.000000e-07	-4.488295e-06	-7.094485e-09	-3.211431e+01	-4.674328e+02
3.100000e-07	-4.431398e-06	-7.059898e-09	-3.170721e+01	-4.640304e+02
3.200000e-07	-4.372691e-06	-7.026990e-09	-3.128715e+01	-4.605029e+02
3.300000e-07	-4.312288e-06	-6.963020e-09	-3.085496e+01	-4.568423e+02
3.400000e-07	-4.250418e-06	-6.885048e-09	-3.041227e+01	-4.530469e+02
3.500000e-07	-4.187231e-06	-6.832015e-09	-2.996015e+01	-4.491214e+02
3.600000e-07	-4.122613e-06	-6.779619e-09	-2.949781e+01	-4.450753e+02
3.700000e-07	-4.056326e-06	-6.723207e-09	-2.902351e+01	-4.409197e+02
3.800000e-07	-3.988455e-06	-6.673221e-09	-2.853789e+01	-4.366649e+02
3.900000e-07	-3.919239e-06	-6.585843e-09	-2.804264e+01	-4.323172e+02
4.000000e-07	-3.848747e-06	-6.492416e-09	-2.753827e+01	-4.278780e+02
4.100000e-07	-3.776996e-06	-6.420023e-09	-2.702488e+01	-4.233431e+02
4.200000e-07	-3.703949e-06	-6.361564e-09	-2.650221e+01	-4.187042e+02
4.300000e-07	-3.629396e-06	-6.315964e-09	-2.596878e+01	-4.139507e+02
4.400000e-07	-3.553306e-06	-6.248720e-09	-2.542434e+01	-4.090717e+02
4.500000e-07	-3.475802e-06	-6.161182e-09	-2.486979e+01	-4.040583e+02
4.600000e-07	-3.396895e-06	-6.065757e-09	-2.430521e+01	-3.989050e+02
4.700000e-07	-3.316664e-06	-5.981021e-09	-2.373114e+01	-3.936103e+02
4.800000e-07	-3.235171e-06	-5.910725e-09	-2.314805e+01	-3.881760e+02
4.900000e-07	-3.152458e-06	-5.828913e-09	-2.255623e+01	-3.826069e+02
5.000000e-07	-3.068717e-06	-5.737883e-09	-2.195705e+01	-3.769087e+02
5.100000e-07	-2.984108e-06	-5.638079e-09	-2.135166e+01	-3.710873e+02
5.200000e-07	-2.898617e-06	-5.546347e-09	-2.073996e+01	-3.651468e+02
5.300000e-07	-2.812094e-06	-5.459605e-09	-2.012088e+01	-3.590897e+02
5.400000e-07	-2.724619e-06	-5.369485e-09	-1.949498e+01	-3.529157e+02
5.500000e-07	-2.636375e-06	-5.272411e-09	-1.886359e+01	-3.466221e+02
5.600000e-07	-2.547116e-06	-5.163160e-09	-1.822493e+01	-3.402047e+02
5.700000e-07	-2.456595e-06	-5.061515e-09	-1.757725e+01	-3.336576e+02
5.800000e-07	-2.365082e-06	-4.971165e-09	-1.692245e+01	-3.269748e+02
5.900000e-07	-2.272845e-06	-4.874765e-09	-1.626249e+01	-3.201507e+02
6.000000e-07	-2.179851e-06	-4.757685e-09	-1.559710e+01	-3.131803e+02
6.100000e-07	-2.086091e-06	-4.636894e-09	-1.492624e+01	-3.060604e+02
6.200000e-07	-1.991606e-06	-4.523637e-09	-1.425018e+01	-2.987891e+02
6.300000e-07	-1.896425e-06	-4.415096e-09	-1.356915e+01	-2.913662e+02
6.400000e-07	-1.800554e-06	-4.309860e-09	-1.288319e+01	-2.837925e+02
6.500000e-07	-1.704051e-06	-4.198686e-09	-1.219269e+01	-2.760690e+02
6.600000e-07	-1.606903e-06	-4.074407e-09	-1.149759e+01	-2.681964e+02
6.700000e-07	-1.508989e-06	-3.938769e-09	-1.079700e+01	-2.601742e+02
6.800000e-07	-1.410421e-06	-3.807334e-09	-1.009173e+01	-2.519998e+02
6.900000e-07	-1.311281e-06	-3.685084e-09	-9.382376e+00	-2.436682e+02
7.000000e-07	-1.211637e-06	-3.562804e-09	-8.669411e+00	-2.351727e+02
7.100000e-07	-1.111667e-06	-3.430999e-09	-7.954118e+00	-2.265050e+02
7.200000e-07	-1.011489e-06	-3.291848e-09	-7.237331e+00	-2.176563e+02
7.300000e-07	-9.111012e-07	-3.151707e-09	-6.519042e+00	-2.086187e+02
7.400000e-07	-8.104161e-07	-3.012948e-09	-5.798628e+00	-1.993857e+02
7.500000e-07	-7.094469e-07	-2.873558e-09	-5.076180e+00	-1.899534e+02
7.600000e-07	-6.082090e-07	-2.726812e-09	-4.351811e+00	-1.803201e+02
7.700000e-07	-5.066991e-07	-2.571060e-09	-3.625495e+00	-1.704856e+02
7.800000e-07	-4.050241e-07	-2.412147e-09	-2.897998e+00	-1.604505e+02
7.900000e-07	-3.032478e-07	-2.255722e-09	-2.169776e+00	-1.502145e+02
8.000000e-07	-2.013158e-07	-2.098655e-09	-1.440440e+00	-1.397755e+02
8.100000e-07	-9.925496e-08	-1.935833e-09	-7.101816e-01	-1.291283e+02
8.200000e-07	2.859038e-09	-1.767187e-09	2.045677e-02	-1.182648e+02
8.300000e-07	1.050054e-07	-1.594117e-09	7.513268e-01	-1.071744e+02
8.400000e-07	2.070976e-07	-1.420004e-09	1.481809e+00	-9.584471e+01
8.500000e-07	3.091158e-07	-1.247306e-09	2.211762e+00	-8.426305e+01
8.600000e-07	4.110775e-07	-1.072458e-09	2.941311e+00	-7.241760e+01
8.700000e-07	5.128969e-07	-8.877911e-10	3.669841e+00	-6.029829e+01
8.800000e-07	6.145320e-07	-6.942183e-10	4.397053e+00	-4.789708e+01
8.900000e-07	7.159736e-07	-4.994681e-10	5.122880e+00	-3.520791e+01
9.000000e-07	8.171507e-07	-3.045491e-10	5.846815e+00	-2.222628e+01
9.100000e-07	9.180083e-07	-1.058653e-10	6.568463e+00	-8.948903e+00
9.200000e-07	1.018597e-06	9.663897e-11	7.288187e+00	4.626114e+00
9.300000e-07	1.118934e-06	3.040896e-10	8.006111e+00	1.849848e+01
9.400000e-07	1.218979e-06	5.188625e-10	8.721949e+00	3.266403e+01
9.500000e-07	1.318655e-06	7.364614e-10	9.435137e+00	4.711247e+01
9.600000e-07	1.417828e-06	9.556587e-10	1.014473e+01	6.182477e+01
9.700000e-07	1.516314e-06	1.180671e-09	1.084941e+01	7.677095e+01
9.800000e-07	1.613973e-06	1.413908e-09	1.154817e+01	9.190863e+01
9.900000e-07	1.710863e-06	1.652556e-09	1.224144e+01	1.071830e+02
1.000000e-06	1.807103e-06	1.889489e-09	1.293005e+01	1.225282e+02
1.010000e-06	1.902685e-06	2.122884e-09	1.361394e+01	1.378703e+02
1.020000e-06	1.997547e-06	2.352862e-09	1.429270e+01	1.531315e+02
1.030000e-06	2.091723e-06	2.579840e-09	1.496654e+01	1.682344e+02
1.040000e-06	2.185201e-06	2.804411e-09	1.563538e+01	1.831064e+02
1.050000e-06	2.277942e-06	3.024007e-09	1.629895e+01	1.976838e+02
1.060000e-06	2.369982e-06	3.238899e-09	1.695751e+01	2.119141e+02
1.070000e-06	2.461248e-06	3.446005e-09	1.761053e+01	2.257568e+02
1.080000e-06	2.551523e-06	3.648429e-09	1.825646e+01	2.391842e+02
1.090000e-06	2.640692e-06	3.847659e-09	1.889448e+01	2.521795e+02
1.100000e-06	2.728859e-06	4.041143e-09	1.952532e+01	2.647357e+02
1.110000e-06	2.816168e-06	4.225232e-09	2.015003e+01	2.768533e+02
1.120000e-06	2.902588e-06	4.399443e-09	2.076838e+01	2.885390e+02
1.130000e-06	2.988011e-06	4.568168e-09	2.137959e+01	2.998032e+02
1.140000e-06	3.072490e-06	4.733490e-09	2.198405e+01	3.106590e+02
1.150000e-06	3.156093e-06	4.893698e-09	2.258224e+01	3.211204e+02
1.160000e-06	3.238619e-06	5.047273e-09	2.317272e+01	3.312010e+02
1.170000e-06	3.319829e-06	5.195365e-09	2.375379e+01	3.409126e+02
1.180000e-06	3.399780e-06	5.338034e-09	2.432585e+01	3.502639e+02
1.190000e-06	3.478555e-06	5.476519e-09	2.488949e+01	3.592603e+02
1.200000e-06	3.556155e-06	5.608423e-09	2.544473e+01	3.679038e+02
1.210000e-06	3.632530e-06	5.734841e-09	2.599121e+01	3.761939e+02
1.220000e-06	3.707493e-06	5.853825e-09	2.652758e+01	3.841294e+02
1.230000e-06	3.780823e-06	5.964616e-09	2.705226e+01	3.917108e+02
1.240000e-06	3.852648e-06	6.070065e-09	2.756617e+01	3.989428e+02
1.250000e-06	3.923186e-06	6.173801e-09	2.807088e+01	4.058358e+02
1.260000e-06	3.992343e-06	6.274571e-09	2.856571e+01	4.124073e+02
1.270000e-06	4.060125e-06	6.368254e-09	2.905070e+01	4.186810e+02
1.280000e-06	4.126402e-06	6.458030e-09	2.952492e+01	4.246852e+02
1.290000e-06	4.191012e-06	6.546824e-09	2.998721e+01	4.304494e+02
1.300000e-06	4.254120e-06	6.633270e-09	3.043876e+01	4.360014e+02
1.310000e-06	4.315832e-06	6.715500e-09	3.088032e+01	4.413630e+02
1.320000e-06	4.376166e-06	6.795272e-09	3.131201e+01	4.465484e+02
1.330000e-06	4.435029e-06	6.871350e-09	3.173319e+01	4.515632e+02
1.340000e-06	4.492111e-06	6.942289e-09	3.214162e+01	4.564052e+02
1.350000e-06	4.547463e-06	7.010368e-09	3.253766e+01	4.610668e+02
1.360000e-06	4.601238e-06	7.077419e-09	3.292243e+01	4.655384e+02
1.370000e-06	4.653249e-06	7.142527e-09	3.329457e+01	4.698120e+02
1.380000e-06	4.703244e-06	7.204027e-09	3.365230e+01	4.738834e+02
1.390000e-06	4.751284e-06	7.263184e-09	3.399602e+01	4.777538e+02
1.400000e-06	4.797641e-06	7.320652e-09	3.432772e+01	4.814295e+02
1.410000e-06	4.842465e-06	7.375238e-09	3.464843e+01	4.849197e+02
1.420000e-06	4.885660e-06	7.425096e-09	3.495750e+01	4.882342e+02
1.430000e-06	4.926927e-06	7.469337e-09	3.525277e+01	4.913806e+02
1.440000e-06	4.966385e-06	7.510745e-09	3.553510e+01	4.943625e+02
1.450000e-06	5.004244e-06	7.550379e-09	3.580599e+01	4.971785e+02
1.460000e-06	5.040507e-06	7.589812e-09	3.606545e+01	4.998238e+02
1.470000e-06	5.075010e-06	7.628537e-09	3.631233e+01	5.022920e+02
1.480000e-06	5.107575e-06	7.663357e-09	3.654534e+01	5.045781e+02
1.490000e-06	5.138393e-06	7.693866e-09	3.676584e+01	5.066811e+02
1.500000e-06	5.167574e-06	7.721791e-09	3.697463e+01	5.086054e+02
1.510000e-06	5.195038e-06	7.747758e-09	3.717114e+01	5.103609e+02
1.520000e-06	5.220466e-06	7.770844e-09	3.735309e+01	5.119615e+02
1.530000e-06	5.243829e-06	7.792119e-09	3.752025e+01	5.134220e+02
1.540000e-06	5.265410e-06	7.811532e-09	3.767466e+01	5.147549e+02
1.550000e-06	5.285249e-06	7.829341e-09	3.781661e+01	5.159676e+02
1.560000e-06	5.303233e-06	7.845881e-09	3.794529e+01	5.170612e+02
1.570000e-06	5.319237e-06	7.860659e-09	3.805980e+01	5.180302e+02
1.580000e-06	5.333278e-06	7.873561e-09	3.816026e+01	5.188657e+02
1.590000e-06	5.345309e-06	7.885307e-09	3.824635e+01	5.195577e+02
1.600000e-06	5.355096e-06	7.895284e-09	3.831638e+01	5.200998e+02
1.610000e-06	5.362798e-06	7.903263e-09	3.837148e+01	5.204916e+02
1.620000e-06	5.368679e-06	7.909839e-09	3.841356e+01	5.207402e+02
1.630000e-06	5.372777e-06	7.914242e-09	3.844289e+01	5.208595e+02
1.640000e-06	5.374968e-06	7.915809e-09	3.845856e+01	5.208670e+02
1.650000e-06	5.375169e-06	7.916532e-09	3.846000e+01	5.207801e+02
1.660000e-06	5.373573e-06	7.915758e-09	3.844858e+01	5.206110e+02
1.670000e-06	5.370376e-06	7.910300e-09	3.842571e+01	5.203637e+02
1.680000e-06	5.365549e-06	7.905980e-09	3.839117e+01	5.200325e+02
1.690000e-06	5.358786e-06	7.901410e-09	3.834278e+01	5.196028e+02
1.700000e-06	5.350229e-06	7.895925e-09	3.828156e+01	5.190550e+02
1.710000e-06	5.340115e-06	7.888805e-09	3.820919e+01	5.183700e+02
1.720000e-06	5.328273e-06	7.877726e-09	3.812445e+01	5.175342e+02
1.730000e-06	5.314450e-06	7.868976e-09	3.802555e+01	5.165448e+02
1.740000e-06	5.298570e-06	7.812739e-09	3.791192e+01	5.154116e+02
1.750000e-06	5.280380e-06	7.777855e-09	3.778177e+01	5.141568e+02
1.760000e-06	5.259514e-06	7.791558e-09	3.763248e+01	5.128109e+02
1.770000e-06	5.236340e-06	7.776456e-09	3.746666e+01	5.114068e+02
1.780000e-06	5.211879e-06	7.804166e-09	3.729164e+01	5.099728e+02
1.790000e-06	5.186732e-06	7.759460e-09	3.711171e+01	5.085263e+02
1.800000e-06	5.160141e-06	7.642657e-09	3.692145e+01	5.070696e+02
1.810000e-06	5.131312e-06	7.710172e-09	3.671517e+01	5.055889e+02
1.820000e-06	5.100735e-06	7.663754e-09	3.649640e+01	5.040566e+02
1.830000e-06	5.068539e-06	7.580825e-09	3.626603e+01	5.024363e+02
1.840000e-06	5.034370e-06	7.700487e-09	3.602154e+01	5.006902e+02
1.850000e-06	4.998653e-06	7.643256e-09	3.576598e+01	4.987854e+02
1.860000e-06	4.961168e-06	7.580921e-09	3.549777e+01	4.967004e+02
1.870000e-06	4.921702e-06	7.589009e-09	3.521539e+01	4.944278e+02
1.880000e-06	4.880602e-06	7.446592e-09	3.492131e+01	4.919744e+02
1.890000e-06	4.837709e-06	7.469825e-09	3.461441e+01	4.893583e+02
1.900000e-06	4.793175e-06	7.459399e-09	3.429576e+01	4.866038e+02
1.910000e-06	4.746784e-06	7.368739e-09	3.396383e+01	4.837357e+02
1.920000e-06	4.698372e-06	7.415670e-09	3.361744e+01	4.807740e+02
1.930000e-06	4.648436e-06	7.269135e-09	3.326014e+01	4.777300e+02
1.940000e-06	4.596784e-06	7.218394e-09	3.289056e+01	4.746053e+02
1.950000e-06	4.543065e-06	7.247895e-09	3.250619e+01	4.713926e+02
1.960000e-06	4.487416e-06	7.137764e-09	3.210802e+01	4.680792e+02
1.970000e-06	4.430086e-06	7.100266e-09	3.169782e+01	4.646505e+02
1.980000e-06	4.371328e-06	7.022132e-09	3.127739e+01	4.610946e+02
1.990000e-06	4.311055e-06	6.997424e-09	3.084613e+01	4.574045e+02
2.000000e-06	4.249095e-06	6.959534e-09	3.040280e+01	4.535802e+02
2.010000e-06	4.185552e-06	6.855918e-09	2.994815e+01	4.496275e+02
2.020000e-06	4.120487e-06	6.833274e-09	2.948259e+01	4.455565e+02
2.030000e-06	4.053994e-06	6.729562e-09	2.900683e+01	4.413785e+02
2.040000e-06	3.986127e-06	6.668547e-09	2.852124e+01	4.371030e+02
2.050000e-06	3.916799e-06	6.624019e-09	2.802518e+01	4.327353e+02
2.060000e-06	3.845915e-06	6.564027e-09	2.751800e+01	4.282757e+02
2.070000e-06	3.773624e-06	6.515041e-09	2.700075e+01	4.237189e+02
2.080000e-06	3.700095e-06	6.380009e-09	2.647464e+01	4.190559e+02
2.090000e-06	3.625237e-06	6.310023e-09	2.593902e+01	4.142759e+02
2.100000e-06	3.548922e-06	6.250315e-09	2.539298e+01	4.093683e+02
2.110000e-06	3.471030e-06	6.193397e-09	2.483565e+01	4.043249e+02
2.120000e-06	3.391734e-06	6.127807e-09	2.426828e+01	3.991409e+02
2.130000e-06	3.311307e-06	6.025940e-09	2.369282e+01	3.938155e+02
2.140000e-06	3.229766e-06	5.943741e-09	2.310938e+01	3.883515e+02
2.150000e-06	3.147143e-06	5.833850e-09	2.251820e+01	3.827537e+02
2.160000e-06	3.063512e-06	5.760294e-09	2.191981e+01	3.770283e+02
2.170000e-06	2.978773e-06	5.689499e-09	2.131349e+01	3.711806e+02
2.180000e-06	2.892781e-06	5.601047e-09	2.069821e+01	3.652146e+02
2.190000e-06	2.805609e-06	5.496409e-09	2.007448e+01	3.591321e+02
2.200000e-06	2.717395e-06	5.389512e-09	1.944330e+01	3.529323e+02
2.210000e-06	2.628267e-06	5.314815e-09	1.880558e+01	3.466122e+02
2.220000e-06	2.538295e-06	5.221556e-09	1.816182e+01	3.401670e+02
2.230000e-06	2.447437e-06	5.114205e-09	1.751172e+01	3.335909e+02
2.240000e-06	2.355787e-06	5.001859e-09	1.685595e+01	3.268779e+02
2.250000e-06	2.263439e-06	4.899568e-09	1.619519e+01	3.200223e+02
2.260000e-06	2.170305e-06	4.794392e-09	1.552881e+01	3.130197e+02
2.270000e-06	2.076115e-06	4.689898e-09	1.485486e+01	3.058670e+02
2.280000e-06	1.980842e-06	4.585779e-09	1.417317e+01	2.985628e+02
2.290000e-06	1.884827e-06	4.464057e-09	1.348617e+01	2.911070e+02
2.300000e-06	1.788356e-06	4.336815e-09	1.279591e+01	2.835007e+02
2.310000e-06	1.691456e-06	4.217047e-09	1.210258e+01	2.757448e+02
2.320000e-06	1.593980e-06	4.114804e-09	1.140513e+01	2.678398e+02
2.330000e-06	1.495964e-06	4.005125e-09	1.070381e+01	2.597848e+02
2.340000e-06	1.397498e-06	3.873220e-09	9.999274e+00	2.515768e+02
2.350000e-06	1.298611e-06	3.728772e-09	9.291722e+00	2.432103e+02
2.360000e-06	1.199356e-06	3.591918e-09	8.581539e+00	2.346782e+02
2.370000e-06	1.099779e-06	3.464746e-09	7.869057e+00	2.259720e+02
2.380000e-06	9.999071e-07	3.338650e-09	7.154459e+00	2.170830e+02
2.390000e-06	8.997307e-07	3.204985e-09	6.437685e+00	2.080035e+02
2.400000e-06	7.992678e-07	3.059314e-09	5.718860e+00	1.987277e+02
2.410000e-06	6.985292e-07	2.909917e-09	4.998063e+00	1.892520e+02
2.420000e-06	5.975345e-07	2.761917e-09	4.275433e+00	1.795750e+02
2.430000e-06	4.962848e-07	2.620069e-09	3.550979e+00	1.696971e+02
2.440000e-06	3.948681e-07	2.473295e-09	2.825330e+00	1.596186e+02
2.450000e-06	2.933109e-07	2.312396e-09	2.098676e+00	1.493389e+02
2.460000e-06	1.915043e-07	2.143869e-09	1.370237e+00	1.388553e+02
2.470000e-06	8.952282e-08	1.980548e-09	6.405469e-01	1.281621e+02
2.480000e-06	-1.253274e-08	1.822091e-09	-8.967334e-02	1.172506e+02
2.490000e-06	-1.145680e-07	1.658183e-09	-8.197483e-01	1.061095e+02
2.500000e-06	-2.165686e-07	1.483355e-09	-1.549575e+00	9.472646e+01
2.510000e-06	-3.184945e-07	1.302118e-09	-2.278868e+00	8.308878e+01
2.520000e-06	-4.202924e-07	1.121035e-09	-3.007244e+00	7.118500e+01
2.530000e-06	-5.219103e-07	9.380040e-10	-3.734333e+00	5.900544e+01
2.540000e-06	-6.232721e-07	7.495369e-10	-4.459589e+00	4.654254e+01
2.550000e-06	-7.243505e-07	5.520485e-10	-5.182818e+00	3.379060e+01
2.560000e-06	-8.251511e-07	3.432003e-10	-5.904059e+00	2.074539e+01
2.570000e-06	-9.256841e-07	1.283146e-10	-6.623385e+00	7.403899e+00
2.580000e-06	-1.025871e-06	-8.138128e-11	-7.340236e+00	-6.235398e+00
2.590000e-06	-1.125700e-06	-2.872169e-10	-8.054522e+00	-2.017155e+01
2.600000e-06	-1.225107e-06	-4.984589e-10	-8.765795e+00	-3.439928e+01
2.610000e-06	-1.324057e-06	-7.234783e-10	-9.473789e+00	-4.890665e+01
2.620000e-06	-1.422568e-06	-9.558351e-10	-1.017865e+01	-6.367244e+01
2.630000e-06	-1.520612e-06	-1.186302e-09	-1.088017e+01	-7.866409e+01
2.640000e-06	-1.618091e-06	-1.415510e-09	-1.157764e+01	-9.383652e+01
2.650000e-06	-1.714942e-06	-1.647326e-09	-1.227062e+01	-1.091324e+02
2.660000e-06	-1.811292e-06	-1.884258e-09	-1.296002e+01	-1.244838e+02
2.670000e-06	-1.907185e-06	-2.122371e-09	-1.364615e+01	-1.398156e+02
2.680000e-06	-2.002487e-06	-2.358718e-09	-1.432804e+01	-1.550497e+02
2.690000e-06	-2.096944e-06	-2.588590e-09	-1.500389e+01	-1.701094e+02
2.700000e-06	-2.190361e-06	-2.810814e-09	-1.567230e+01	-1.849237e+02
2.710000e-06	-2.282850e-06	-3.030578e-09	-1.633407e+01	-1.994312e+02
2.720000e-06	-2.374532e-06	-3.250331e-09	-1.699007e+01	-2.135818e+02
2.730000e-06	-2.465398e-06	-3.465319e-09	-1.764023e+01	-2.273380e+02
2.740000e-06	-2.555361e-06	-3.669792e-09	-1.828393e+01	-2.406743e+02
2.750000e-06	-2.644382e-06	-3.866003e-09	-1.892088e+01	-2.535762e+02
2.760000e-06	-2.732618e-06	-4.059303e-09	-1.955222e+01	-2.660386e+02
2.770000e-06	-2.820104e-06	-4.250040e-09	-2.017820e+01	-2.780634e+02
2.780000e-06	-2.906565e-06	-4.432477e-09	-2.079684e+01	-2.896581e+02
2.790000e-06	-2.991790e-06	-4.601062e-09	-2.140663e+01	-3.008341e+02
2.800000e-06	-3.075896e-06	-4.758865e-09	-2.200842e+01	-3.116047e+02
2.810000e-06	-3.158983e-06	-4.911489e-09	-2.260291e+01	-3.219838e+02
2.820000e-06	-3.240983e-06	-5.061558e-09	-2.318963e+01	-3.319849e+02
2.830000e-06	-3.321912e-06	-5.209740e-09	-2.376869e+01	-3.416191e+02
2.840000e-06	-3.401775e-06	-5.355949e-09	-2.434012e+01	-3.508945e+02
2.850000e-06	-3.480406e-06	-5.496011e-09	-2.490274e+01	-3.598156e+02
2.860000e-06	-3.557596e-06	-5.628811e-09	-2.545504e+01	-3.683839e+02
2.870000e-06	-3.633328e-06	-5.754950e-09	-2.599692e+01	-3.765985e+02
2.880000e-06	-3.707618e-06	-5.876099e-09	-2.652847e+01	-3.844584e+02
2.890000e-06	-3.780497e-06	-5.992204e-09	-2.704992e+01	-3.919648e+02
2.900000e-06	-3.852111e-06	-6.101313e-09	-2.756233e+01	-3.991235e+02
2.910000e-06	-3.922307e-06	-6.204478e-09	-2.806460e+01	-4.059464e+02
2.920000e-06	-3.990907e-06	-6.302995e-09	-2.855544e+01	-4.124523e+02
2.930000e-06	-4.058040e-06	-6.398607e-09	-2.903578e+01	-4.186662e+02
2.940000e-06	-4.123838e-06	-6.492662e-09	-2.950658e+01	-4.246169e+02
