# Temperatura_=_27.2
# Concentracion g/m^3_=_15000.0
# C_Vs_to_Am_M_A/Vsm_=_65563218390.804596
# pendiente_HvsI_1/m_=_3716.3
# ordenada_HvsI_A/m_=_1297.0
# frecuencia_Hz_=_301593.6667877155

Tiempo_(s)	Campo_(V.s)	Magnetizacion_(V.s)	Campo_(kA/m)	Magnetizacion_(A/m)
0.000000e+00	-5.380977e-06	-5.684461e-09	-3.833550e+01	-3.712514e+02
1.000000e-08	-5.378296e-06	-5.679780e-09	-3.831639e+01	-3.710968e+02
2.000000e-08	-5.373852e-06	-5.674291e-09	-3.828473e+01	-3.708896e+02
3.000000e-08	-5.367742e-06	-5.668871e-09	-3.824120e+01	-3.706348e+02
4.000000e-08	-5.360049e-06	-5.663549e-09	-3.818639e+01	-3.703308e+02
5.000000e-08	-5.350584e-06	-5.656193e-09	-3.811897e+01	-3.699691e+02
6.000000e-08	-5.339023e-06	-5.647539e-09	-3.803660e+01	-3.695362e+02
7.000000e-08	-5.325527e-06	-5.642175e-09	-3.794045e+01	-3.690177e+02
8.000000e-08	-5.309958e-06	-5.628408e-09	-3.782953e+01	-3.684023e+02
9.000000e-08	-5.292160e-06	-5.627034e-09	-3.770274e+01	-3.676863e+02
1.000000e-07	-5.272326e-06	-5.642823e-09	-3.756143e+01	-3.668756e+02
1.100000e-07	-5.250554e-06	-5.620047e-09	-3.740632e+01	-3.659861e+02
1.200000e-07	-5.227091e-06	-5.586575e-09	-3.723917e+01	-3.650416e+02
1.300000e-07	-5.202128e-06	-5.574253e-09	-3.706133e+01	-3.640686e+02
1.400000e-07	-5.175562e-06	-5.505545e-09	-3.687206e+01	-3.630910e+02
1.500000e-07	-5.147365e-06	-5.529153e-09	-3.667118e+01	-3.621239e+02
1.600000e-07	-5.117673e-06	-5.568536e-09	-3.645965e+01	-3.611700e+02
1.700000e-07	-5.086406e-06	-5.473335e-09	-3.623689e+01	-3.602175e+02
1.800000e-07	-5.053084e-06	-5.491133e-09	-3.599950e+01	-3.592422e+02
1.900000e-07	-5.017839e-06	-5.501631e-09	-3.574841e+01	-3.582114e+02
2.000000e-07	-4.981170e-06	-5.427414e-09	-3.548717e+01	-3.570903e+02
2.100000e-07	-4.942817e-06	-5.437188e-09	-3.521393e+01	-3.558488e+02
2.200000e-07	-4.902609e-06	-5.396903e-09	-3.492747e+01	-3.544672e+02
2.300000e-07	-4.860452e-06	-5.343874e-09	-3.462714e+01	-3.529396e+02
2.400000e-07	-4.816330e-06	-5.357770e-09	-3.431280e+01	-3.512744e+02
2.500000e-07	-4.770450e-06	-5.344578e-09	-3.398593e+01	-3.494914e+02
2.600000e-07	-4.722728e-06	-5.323791e-09	-3.364595e+01	-3.476173e+02
2.700000e-07	-4.672880e-06	-5.250980e-09	-3.329082e+01	-3.456790e+02
2.800000e-07	-4.620919e-06	-5.208988e-09	-3.292064e+01	-3.436982e+02
2.900000e-07	-4.567124e-06	-5.219484e-09	-3.253739e+01	-3.416870e+02
3.000000e-07	-4.511737e-06	-5.191702e-09	-3.214280e+01	-3.396462e+02
3.100000e-07	-4.454699e-06	-5.163486e-09	-3.173645e+01	-3.375661e+02
3.200000e-07	-4.395833e-06	-5.118018e-09	-3.131707e+01	-3.354300e+02
3.300000e-07	-4.335383e-06	-5.066820e-09	-3.088641e+01	-3.332186e+02
3.400000e-07	-4.273474e-06	-5.036356e-09	-3.044535e+01	-3.309148e+02
3.500000e-07	-4.210222e-06	-5.012769e-09	-2.999472e+01	-3.285073e+02
3.600000e-07	-4.145560e-06	-4.991329e-09	-2.953406e+01	-3.259926e+02
3.700000e-07	-4.079160e-06	-4.936671e-09	-2.906101e+01	-3.233746e+02
3.800000e-07	-4.011172e-06	-4.879932e-09	-2.857664e+01	-3.206630e+02
3.900000e-07	-3.941818e-06	-4.842086e-09	-2.808254e+01	-3.178694e+02
4.000000e-07	-3.871181e-06	-4.802821e-09	-2.757931e+01	-3.150043e+02
4.100000e-07	-3.799415e-06	-4.763973e-09	-2.706803e+01	-3.120738e+02
4.200000e-07	-3.726278e-06	-4.706164e-09	-2.654699e+01	-3.090785e+02
4.300000e-07	-3.651415e-06	-4.658794e-09	-2.601364e+01	-3.060136e+02
4.400000e-07	-3.574953e-06	-4.617539e-09	-2.546890e+01	-3.028702e+02
4.500000e-07	-3.497143e-06	-4.581197e-09	-2.491457e+01	-2.996379e+02
4.600000e-07	-3.417884e-06	-4.539627e-09	-2.434991e+01	-2.963076e+02
4.700000e-07	-3.337273e-06	-4.472978e-09	-2.377561e+01	-2.928734e+02
4.800000e-07	-3.255528e-06	-4.403289e-09	-2.319324e+01	-2.893340e+02
4.900000e-07	-3.172657e-06	-4.342659e-09	-2.260284e+01	-2.856919e+02
5.000000e-07	-3.088802e-06	-4.297078e-09	-2.200543e+01	-2.819528e+02
5.100000e-07	-3.004089e-06	-4.246977e-09	-2.140192e+01	-2.781232e+02
5.200000e-07	-2.918433e-06	-4.188495e-09	-2.079168e+01	-2.742082e+02
5.300000e-07	-2.831699e-06	-4.117394e-09	-2.017377e+01	-2.702103e+02
5.400000e-07	-2.744079e-06	-4.043475e-09	-1.954954e+01	-2.661281e+02
5.500000e-07	-2.655613e-06	-3.983679e-09	-1.891929e+01	-2.619565e+02
5.600000e-07	-2.565917e-06	-3.930269e-09	-1.828027e+01	-2.576880e+02
5.700000e-07	-2.475012e-06	-3.866914e-09	-1.763263e+01	-2.533142e+02
5.800000e-07	-2.383244e-06	-3.790217e-09	-1.697886e+01	-2.488274e+02
5.900000e-07	-2.290679e-06	-3.714898e-09	-1.631940e+01	-2.442220e+02
6.000000e-07	-2.197286e-06	-3.645119e-09	-1.565404e+01	-2.394955e+02
6.100000e-07	-2.103140e-06	-3.576073e-09	-1.498332e+01	-2.346486e+02
6.200000e-07	-2.008304e-06	-3.499408e-09	-1.430769e+01	-2.296842e+02
6.300000e-07	-1.912857e-06	-3.416736e-09	-1.362769e+01	-2.246067e+02
6.400000e-07	-1.816766e-06	-3.334351e-09	-1.294312e+01	-2.194203e+02
6.500000e-07	-1.719908e-06	-3.256712e-09	-1.225308e+01	-2.141279e+02
6.600000e-07	-1.622212e-06	-3.181899e-09	-1.155707e+01	-2.087304e+02
6.700000e-07	-1.523772e-06	-3.097206e-09	-1.085576e+01	-2.032258e+02
6.800000e-07	-1.424754e-06	-3.000892e-09	-1.015032e+01	-1.976096e+02
6.900000e-07	-1.325245e-06	-2.904918e-09	-9.441394e+00	-1.918755e+02
7.000000e-07	-1.225328e-06	-2.817663e-09	-8.729559e+00	-1.860157e+02
7.100000e-07	-1.125097e-06	-2.733829e-09	-8.015486e+00	-1.800227e+02
7.200000e-07	-1.024572e-06	-2.646083e-09	-7.299323e+00	-1.738896e+02
7.300000e-07	-9.237706e-07	-2.549900e-09	-6.581184e+00	-1.676117e+02
7.400000e-07	-8.226712e-07	-2.446672e-09	-5.860926e+00	-1.611867e+02
7.500000e-07	-7.212325e-07	-2.342699e-09	-5.138250e+00	-1.546149e+02
7.600000e-07	-6.195147e-07	-2.242337e-09	-4.413586e+00	-1.478990e+02
7.700000e-07	-5.176175e-07	-2.140673e-09	-3.687643e+00	-1.410433e+02
7.800000e-07	-4.155503e-07	-2.032529e-09	-2.960490e+00	-1.340523e+02
7.900000e-07	-3.132841e-07	-1.921288e-09	-2.231918e+00	-1.269294e+02
8.000000e-07	-2.108819e-07	-1.811691e-09	-1.502378e+00	-1.196751e+02
8.100000e-07	-1.084027e-07	-1.704056e-09	-7.722892e-01	-1.122857e+02
8.200000e-07	-5.877321e-09	-1.594083e-09	-4.187158e-02	-1.047529e+02
8.300000e-07	9.661025e-08	-1.475897e-09	6.882768e-01	-9.706350e+01
8.400000e-07	1.990685e-07	-1.349693e-09	1.418217e+00	-8.920037e+01
8.500000e-07	3.015386e-07	-1.224226e-09	2.148240e+00	-8.114439e+01
8.600000e-07	4.039077e-07	-1.100971e-09	2.877544e+00	-7.287658e+01
8.700000e-07	5.061315e-07	-9.753846e-10	3.605814e+00	-6.438049e+01
8.800000e-07	6.082271e-07	-8.424823e-10	4.333170e+00	-5.564426e+01
8.900000e-07	7.101133e-07	-7.021335e-10	5.059034e+00	-4.666185e+01
9.000000e-07	8.117484e-07	-5.579846e-10	5.783109e+00	-3.743339e+01
9.100000e-07	9.130605e-07	-4.126387e-10	6.504883e+00	-2.796443e+01
9.200000e-07	1.014034e-06	-2.676482e-10	7.224246e+00	-1.826446e+01
9.300000e-07	1.114729e-06	-1.190921e-10	7.941621e+00	-8.345129e+00
9.400000e-07	1.215080e-06	3.498155e-11	8.656552e+00	1.781377e+00
9.500000e-07	1.315023e-06	1.931314e-10	9.368570e+00	1.210320e+01
9.600000e-07	1.414493e-06	3.534039e-10	1.007722e+01	2.260873e+01
9.700000e-07	1.513437e-06	5.159532e-10	1.078212e+01	3.328541e+01
9.800000e-07	1.611801e-06	6.834685e-10	1.148290e+01	4.411788e+01
9.900000e-07	1.709405e-06	8.558732e-10	1.217825e+01	5.508578e+01
1.000000e-06	1.806187e-06	1.028546e-09	1.286775e+01	6.616195e+01
1.010000e-06	1.902142e-06	1.198872e-09	1.355136e+01	7.731159e+01
1.020000e-06	1.997324e-06	1.367759e-09	1.422946e+01	8.849272e+01
1.030000e-06	2.091902e-06	1.536083e-09	1.490326e+01	9.965800e+01
1.040000e-06	2.185769e-06	1.704558e-09	1.557199e+01	1.107577e+02
1.050000e-06	2.278882e-06	1.872778e-09	1.623535e+01	1.217430e+02
1.060000e-06	2.371331e-06	2.040436e-09	1.689399e+01	1.325695e+02
1.070000e-06	2.463002e-06	2.203337e-09	1.754708e+01	1.431993e+02
1.080000e-06	2.553788e-06	2.361937e-09	1.819386e+01	1.536022e+02
1.090000e-06	2.643632e-06	2.519167e-09	1.883393e+01	1.637557e+02
1.100000e-06	2.732358e-06	2.672783e-09	1.946604e+01	1.736428e+02
1.110000e-06	2.819943e-06	2.819049e-09	2.009001e+01	1.832501e+02
1.120000e-06	2.906603e-06	2.958319e-09	2.070741e+01	1.925657e+02
1.130000e-06	2.992412e-06	3.093155e-09	2.131873e+01	2.015776e+02
1.140000e-06	3.077326e-06	3.225090e-09	2.192368e+01	2.102729e+02
1.150000e-06	3.161253e-06	3.352335e-09	2.252159e+01	2.186392e+02
1.160000e-06	3.244166e-06	3.472951e-09	2.311229e+01	2.266656e+02
1.170000e-06	3.326008e-06	3.586974e-09	2.369536e+01	2.343458e+02
1.180000e-06	3.406496e-06	3.697319e-09	2.426877e+01	2.416794e+02
1.190000e-06	3.485726e-06	3.803254e-09	2.483323e+01	2.486736e+02
1.200000e-06	3.563822e-06	3.904414e-09	2.538960e+01	2.553431e+02
1.210000e-06	3.640691e-06	4.002682e-09	2.593724e+01	2.617088e+02
1.220000e-06	3.716182e-06	4.095248e-09	2.647506e+01	2.677955e+02
1.230000e-06	3.790071e-06	4.181086e-09	2.700146e+01	2.736289e+02
1.240000e-06	3.862391e-06	4.262726e-09	2.751669e+01	2.792330e+02
1.250000e-06	3.933272e-06	4.344764e-09	2.802166e+01	2.846276e+02
1.260000e-06	4.002787e-06	4.425789e-09	2.851691e+01	2.898276e+02
1.270000e-06	4.071006e-06	4.502564e-09	2.900292e+01	2.948424e+02
1.280000e-06	4.137794e-06	4.575796e-09	2.947873e+01	2.996772e+02
1.290000e-06	4.202877e-06	4.646797e-09	2.994240e+01	3.043345e+02
1.300000e-06	4.266346e-06	4.713889e-09	3.039457e+01	3.088151e+02
1.310000e-06	4.328381e-06	4.776889e-09	3.083652e+01	3.131198e+02
1.320000e-06	4.389026e-06	4.838239e-09	3.126858e+01	3.172493e+02
1.330000e-06	4.448256e-06	4.897802e-09	3.169054e+01	3.212041e+02
1.340000e-06	4.505850e-06	4.954402e-09	3.210086e+01	3.249846e+02
1.350000e-06	4.561654e-06	5.008345e-09	3.249842e+01	3.285900e+02
1.360000e-06	4.615769e-06	5.059106e-09	3.288395e+01	3.320185e+02
1.370000e-06	4.668169e-06	5.106122e-09	3.325726e+01	3.352677e+02
1.380000e-06	4.718620e-06	5.149845e-09	3.361669e+01	3.383354e+02
1.390000e-06	4.767070e-06	5.192575e-09	3.396186e+01	3.412214e+02
1.400000e-06	4.813746e-06	5.234418e-09	3.429439e+01	3.439285e+02
1.410000e-06	4.858886e-06	5.271467e-09	3.461598e+01	3.464629e+02
1.420000e-06	4.902435e-06	5.303832e-09	3.492623e+01	3.488348e+02
1.430000e-06	4.944174e-06	5.333820e-09	3.522359e+01	3.510571e+02
1.440000e-06	4.984056e-06	5.363557e-09	3.550772e+01	3.531432e+02
1.450000e-06	5.022210e-06	5.393016e-09	3.577954e+01	3.551059e+02
1.460000e-06	5.058779e-06	5.420187e-09	3.604007e+01	3.569546e+02
1.470000e-06	5.093618e-06	5.445957e-09	3.628827e+01	3.586947e+02
1.480000e-06	5.126541e-06	5.470729e-09	3.652283e+01	3.603270e+02
1.490000e-06	5.157636e-06	5.493925e-09	3.674436e+01	3.618495e+02
1.500000e-06	5.187047e-06	5.515170e-09	3.695389e+01	3.632582e+02
1.510000e-06	5.214756e-06	5.534351e-09	3.715129e+01	3.645503e+02
1.520000e-06	5.240514e-06	5.551507e-09	3.733480e+01	3.657251e+02
1.530000e-06	5.264192e-06	5.566507e-09	3.750348e+01	3.667857e+02
1.540000e-06	5.285990e-06	5.579748e-09	3.765878e+01	3.677385e+02
1.550000e-06	5.306071e-06	5.592146e-09	3.780184e+01	3.685918e+02
1.560000e-06	5.324308e-06	5.604911e-09	3.793176e+01	3.693543e+02
1.570000e-06	5.340531e-06	5.616253e-09	3.804735e+01	3.700325e+02
1.580000e-06	5.354790e-06	5.625335e-09	3.814893e+01	3.706297e+02
1.590000e-06	5.367054e-06	5.634730e-09	3.823630e+01	3.711447e+02
1.600000e-06	5.377108e-06	5.643322e-09	3.830793e+01	3.715736e+02
1.610000e-06	5.385044e-06	5.649381e-09	3.836447e+01	3.719107e+02
1.620000e-06	5.391141e-06	5.654032e-09	3.840790e+01	3.721516e+02
1.630000e-06	5.395532e-06	5.658302e-09	3.843919e+01	3.722956e+02
1.640000e-06	5.398002e-06	5.660883e-09	3.845679e+01	3.723463e+02
1.650000e-06	5.398454e-06	5.662016e-09	3.846000e+01	3.723126e+02
1.660000e-06	5.397086e-06	5.662741e-09	3.845026e+01	3.722061e+02
1.670000e-06	5.394008e-06	5.659974e-09	3.842833e+01	3.720392e+02
1.680000e-06	5.389226e-06	5.656854e-09	3.839426e+01	3.718213e+02
1.690000e-06	5.382568e-06	5.653489e-09	3.834683e+01	3.715561e+02
1.700000e-06	5.374130e-06	5.650625e-09	3.828671e+01	3.712404e+02
1.710000e-06	5.364102e-06	5.647449e-09	3.821527e+01	3.708643e+02
1.720000e-06	5.352310e-06	5.639557e-09	3.813126e+01	3.704140e+02
1.730000e-06	5.338550e-06	5.634111e-09	3.803323e+01	3.698752e+02
1.740000e-06	5.322754e-06	5.621322e-09	3.792070e+01	3.692380e+02
1.750000e-06	5.304664e-06	5.580051e-09	3.779182e+01	3.685005e+02
1.760000e-06	5.283895e-06	5.578602e-09	3.764386e+01	3.676710e+02
1.770000e-06	5.260792e-06	5.579445e-09	3.747926e+01	3.667673e+02
1.780000e-06	5.236359e-06	5.572184e-09	3.730520e+01	3.658142e+02
1.790000e-06	5.211167e-06	5.611045e-09	3.712572e+01	3.648381e+02
1.800000e-06	5.184620e-06	5.512630e-09	3.693659e+01	3.638616e+02
1.810000e-06	5.155873e-06	5.476607e-09	3.673179e+01	3.628973e+02
1.820000e-06	5.125305e-06	5.529732e-09	3.651402e+01	3.619448e+02
1.830000e-06	5.093136e-06	5.436763e-09	3.628484e+01	3.609896e+02
1.840000e-06	5.059036e-06	5.469857e-09	3.604190e+01	3.600051e+02
1.850000e-06	5.023289e-06	5.510755e-09	3.578723e+01	3.589575e+02
1.860000e-06	4.985748e-06	5.418367e-09	3.551978e+01	3.578126e+02
1.870000e-06	4.946309e-06	5.466593e-09	3.523880e+01	3.565420e+02
1.880000e-06	4.905227e-06	5.450689e-09	3.494612e+01	3.551289e+02
1.890000e-06	4.862339e-06	5.383603e-09	3.464058e+01	3.535703e+02
1.900000e-06	4.817825e-06	5.371550e-09	3.432345e+01	3.518776e+02
1.910000e-06	4.771553e-06	5.300243e-09	3.399379e+01	3.500725e+02
1.920000e-06	4.723182e-06	5.360209e-09	3.364919e+01	3.481822e+02
1.930000e-06	4.673189e-06	5.329969e-09	3.329303e+01	3.462329e+02
1.940000e-06	4.621518e-06	5.227971e-09	3.292491e+01	3.442447e+02
1.950000e-06	4.567731e-06	5.251850e-09	3.254171e+01	3.422272e+02
1.960000e-06	4.511998e-06	5.171594e-09	3.214466e+01	3.401788e+02
1.970000e-06	4.454570e-06	5.141068e-09	3.173553e+01	3.380880e+02
1.980000e-06	4.395657e-06	5.149621e-09	3.131582e+01	3.359371e+02
1.990000e-06	4.335270e-06	5.111688e-09	3.088560e+01	3.337069e+02
2.000000e-06	4.273184e-06	5.083095e-09	3.044328e+01	3.313813e+02
2.010000e-06	4.209474e-06	4.990078e-09	2.998940e+01	3.289506e+02
2.020000e-06	4.144310e-06	4.982414e-09	2.952515e+01	3.264128e+02
2.030000e-06	4.077746e-06	4.956735e-09	2.905093e+01	3.237736e+02
2.040000e-06	4.009816e-06	4.898842e-09	2.856698e+01	3.210432e+02
2.050000e-06	3.940375e-06	4.875282e-09	2.807227e+01	3.182332e+02
2.060000e-06	3.869355e-06	4.811436e-09	2.756630e+01	3.153534e+02
2.070000e-06	3.796915e-06	4.782430e-09	2.705022e+01	3.124089e+02
2.080000e-06	3.723161e-06	4.725487e-09	2.652477e+01	3.093991e+02
2.090000e-06	3.648081e-06	4.684054e-09	2.598988e+01	3.063179e+02
2.100000e-06	3.571563e-06	4.638177e-09	2.544475e+01	3.031560e+02
2.110000e-06	3.493375e-06	4.560915e-09	2.488772e+01	2.999031e+02
2.120000e-06	3.413785e-06	4.519865e-09	2.432070e+01	2.965506e+02
2.130000e-06	3.333162e-06	4.471083e-09	2.374632e+01	2.930936e+02
2.140000e-06	3.251456e-06	4.433930e-09	2.316423e+01	2.895315e+02
2.150000e-06	3.168636e-06	4.373682e-09	2.257419e+01	2.858678e+02
2.160000e-06	3.084820e-06	4.307674e-09	2.197707e+01	2.821085e+02
2.170000e-06	2.999978e-06	4.241920e-09	2.137263e+01	2.782599e+02
2.180000e-06	2.913752e-06	4.185044e-09	2.075834e+01	2.743269e+02
2.190000e-06	2.826227e-06	4.146127e-09	2.013479e+01	2.703109e+02
2.200000e-06	2.737786e-06	4.083047e-09	1.950470e+01	2.662097e+02
2.210000e-06	2.648421e-06	4.011572e-09	1.886805e+01	2.620178e+02
2.220000e-06	2.558139e-06	3.934608e-09	1.822485e+01	2.577272e+02
2.230000e-06	2.466990e-06	3.866557e-09	1.757549e+01	2.533295e+02
2.240000e-06	2.375062e-06	3.800558e-09	1.692057e+01	2.488173e+02
2.250000e-06	2.282437e-06	3.735494e-09	1.626068e+01	2.441858e+02
2.260000e-06	2.188949e-06	3.667130e-09	1.559465e+01	2.394331e+02
2.270000e-06	2.094411e-06	3.587584e-09	1.492114e+01	2.345604e+02
2.280000e-06	1.998897e-06	3.508015e-09	1.424067e+01	2.295711e+02
2.290000e-06	1.902667e-06	3.435895e-09	1.355510e+01	2.244697e+02
2.300000e-06	1.805895e-06	3.363298e-09	1.286567e+01	2.192601e+02
2.310000e-06	1.708622e-06	3.275480e-09	1.217267e+01	2.139449e+02
2.320000e-06	1.610789e-06	3.186518e-09	1.147568e+01	2.085244e+02
2.330000e-06	1.512362e-06	3.105109e-09	1.077446e+01	2.029961e+02
2.340000e-06	1.413435e-06	3.026796e-09	1.006969e+01	1.973550e+02
2.350000e-06	1.314115e-06	2.942656e-09	9.362103e+00	1.915943e+02
2.360000e-06	1.214524e-06	2.850215e-09	8.652585e+00	1.857063e+02
2.370000e-06	1.114720e-06	2.751553e-09	7.941560e+00	1.796835e+02
2.380000e-06	1.014585e-06	2.650959e-09	7.228167e+00	1.735194e+02
2.390000e-06	9.140303e-07	2.557926e-09	6.511792e+00	1.672098e+02
2.400000e-06	8.130478e-07	2.470249e-09	5.792366e+00	1.607530e+02
2.410000e-06	7.117036e-07	2.375085e-09	5.070363e+00	1.541497e+02
2.420000e-06	6.101005e-07	2.264994e-09	4.346516e+00	1.474032e+02
2.430000e-06	5.082088e-07	2.150778e-09	3.620613e+00	1.405178e+02
2.440000e-06	4.060347e-07	2.042231e-09	2.892698e+00	1.334981e+02
2.450000e-06	3.036681e-07	1.936849e-09	2.163411e+00	1.263468e+02
2.460000e-06	2.011848e-07	1.828659e-09	1.433293e+00	1.190638e+02
2.470000e-06	9.859702e-08	1.715015e-09	7.024310e-01	1.116443e+02
2.480000e-06	-4.108646e-09	1.596312e-09	-2.927107e-02	1.040789e+02
2.490000e-06	-1.068229e-07	1.475764e-09	-7.610340e-01	9.635350e+01
2.500000e-06	-2.094767e-07	1.356375e-09	-1.492367e+00	8.845041e+01
2.510000e-06	-3.120430e-07	1.235789e-09	-2.223076e+00	8.035030e+01
2.520000e-06	-4.144960e-07	1.109152e-09	-2.952979e+00	7.203455e+01
2.530000e-06	-5.167904e-07	9.739611e-10	-3.681750e+00	6.348754e+01
2.540000e-06	-6.188362e-07	8.362887e-10	-4.408752e+00	5.469857e+01
2.550000e-06	-7.205193e-07	7.008390e-10	-5.133169e+00	4.566294e+01
2.560000e-06	-8.218042e-07	5.629674e-10	-5.854749e+00	3.638204e+01
2.570000e-06	-9.227718e-07	4.176218e-10	-6.574069e+00	2.686240e+01
2.580000e-06	-1.023355e-06	2.667471e-10	-7.290650e+00	1.711412e+01
2.590000e-06	-1.123507e-06	1.147275e-10	-8.004160e+00	7.149096e+00
2.600000e-06	-1.223212e-06	-3.720033e-11	-8.714480e+00	-3.020525e+00
2.610000e-06	-1.322518e-06	-1.919473e-10	-9.421967e+00	-1.338298e+01
2.620000e-06	-1.421470e-06	-3.512880e-10	-1.012692e+01	-2.392658e+01
2.630000e-06	-1.519958e-06	-5.169262e-10	-1.082858e+01	-3.463836e+01
2.640000e-06	-1.617885e-06	-6.870260e-10	-1.152624e+01	-4.550206e+01
2.650000e-06	-1.715216e-06	-8.549695e-10	-1.221965e+01	-5.649597e+01
2.660000e-06	-1.811993e-06	-1.019664e-09	-1.290911e+01	-6.759136e+01
2.670000e-06	-1.908222e-06	-1.185283e-09	-1.359468e+01	-7.875178e+01
2.680000e-06	-2.003807e-06	-1.355127e-09	-1.427565e+01	-8.993391e+01
2.690000e-06	-2.098723e-06	-1.525823e-09	-1.495185e+01	-1.010896e+02
2.700000e-06	-2.192802e-06	-1.695205e-09	-1.562210e+01	-1.121691e+02
2.710000e-06	-2.285865e-06	-1.861010e-09	-1.628510e+01	-1.231242e+02
2.720000e-06	-2.377937e-06	-2.024573e-09	-1.694105e+01	-1.339117e+02
2.730000e-06	-2.469123e-06	-2.186174e-09	-1.759068e+01	-1.444955e+02
2.740000e-06	-2.559507e-06	-2.343985e-09	-1.823460e+01	-1.548469e+02
2.750000e-06	-2.649019e-06	-2.498662e-09	-1.887231e+01	-1.649449e+02
2.760000e-06	-2.737619e-06	-2.647254e-09	-1.950352e+01	-1.747733e+02
2.770000e-06	-2.825344e-06	-2.791284e-09	-2.012850e+01	-1.843194e+02
2.780000e-06	-2.912205e-06	-2.933009e-09	-2.074732e+01	-1.935712e+02
2.790000e-06	-2.997981e-06	-3.071046e-09	-2.135840e+01	-2.025167e+02
2.800000e-06	-3.082511e-06	-3.203583e-09	-2.196062e+01	-2.111428e+02
2.810000e-06	-3.165948e-06	-3.330736e-09	-2.255504e+01	-2.194373e+02
2.820000e-06	-3.248364e-06	-3.452514e-09	-2.314220e+01	-2.273902e+02
2.830000e-06	-3.329725e-06	-3.569569e-09	-2.372183e+01	-2.349961e+02
2.840000e-06	-3.409991e-06	-3.683673e-09	-2.429367e+01	-2.422564e+02
2.850000e-06	-3.489042e-06	-3.794425e-09	-2.485685e+01	-2.491798e+02
2.860000e-06	-3.566686e-06	-3.896961e-09	-2.541001e+01	-2.557826e+02
2.870000e-06	-3.642810e-06	-3.990135e-09	-2.595234e+01	-2.620866e+02
2.880000e-06	-3.717507e-06	-4.080513e-09	-2.648449e+01	-2.681172e+02
2.890000e-06	-3.790867e-06	-4.170007e-09	-2.700713e+01	-2.738998e+02
2.900000e-06	-3.862907e-06	-4.256131e-09	-2.752036e+01	-2.794578e+02
2.910000e-06	-3.933558e-06	-4.337890e-09	-2.802370e+01	-2.848100e+02
2.920000e-06	-4.002664e-06	-4.416729e-09	-2.851603e+01	-2.899699e+02
2.930000e-06	-4.070238e-06	-4.493929e-09	-2.899744e+01	-2.949460e+02
2.940000e-06	-4.136398e-06	-4.568084e-09	-2.946879e+01	-2.997430e+02
