# Temperatura_=_26.88
# Concentracion g/m^3_=_15000.0
# C_Vs_to_Am_M_A/Vsm_=_65563218390.804596
# pendiente_HvsI_1/m_=_3716.3
# ordenada_HvsI_A/m_=_1297.0
# frecuencia_Hz_=_301591.0534640522

Tiempo_(s)	Campo_(V.s)	Magnetizacion_(V.s)	Campo_(kA/m)	Magnetizacion_(A/m)
0.000000e+00	-5.375219e-06	-5.617907e-09	-3.833753e+01	-3.670991e+02
1.000000e-08	-5.372600e-06	-5.616892e-09	-3.831885e+01	-3.669511e+02
2.000000e-08	-5.368142e-06	-5.612426e-09	-3.828706e+01	-3.667516e+02
3.000000e-08	-5.362129e-06	-5.608982e-09	-3.824417e+01	-3.665033e+02
4.000000e-08	-5.354581e-06	-5.605098e-09	-3.819034e+01	-3.662021e+02
5.000000e-08	-5.345192e-06	-5.597584e-09	-3.812337e+01	-3.658376e+02
6.000000e-08	-5.333747e-06	-5.586958e-09	-3.804174e+01	-3.653967e+02
7.000000e-08	-5.320388e-06	-5.569193e-09	-3.794646e+01	-3.648674e+02
8.000000e-08	-5.305000e-06	-5.555989e-09	-3.783671e+01	-3.642429e+02
9.000000e-08	-5.287400e-06	-5.599113e-09	-3.771118e+01	-3.635249e+02
1.000000e-07	-5.267710e-06	-5.603198e-09	-3.757075e+01	-3.627246e+02
1.100000e-07	-5.246083e-06	-5.551775e-09	-3.741650e+01	-3.618610e+02
1.200000e-07	-5.222733e-06	-5.529365e-09	-3.724996e+01	-3.609575e+02
1.300000e-07	-5.197867e-06	-5.441105e-09	-3.707261e+01	-3.600370e+02
1.400000e-07	-5.171383e-06	-5.420823e-09	-3.688372e+01	-3.591160e+02
1.500000e-07	-5.143259e-06	-5.563630e-09	-3.668313e+01	-3.582006e+02
1.600000e-07	-5.113699e-06	-5.462433e-09	-3.647230e+01	-3.572846e+02
1.700000e-07	-5.082606e-06	-5.421751e-09	-3.625053e+01	-3.563496e+02
1.800000e-07	-5.049392e-06	-5.499353e-09	-3.601365e+01	-3.553687e+02
1.900000e-07	-5.014215e-06	-5.346201e-09	-3.576275e+01	-3.543115e+02
2.000000e-07	-4.977658e-06	-5.380585e-09	-3.550202e+01	-3.531501e+02
2.100000e-07	-4.939418e-06	-5.433721e-09	-3.522928e+01	-3.518643e+02
2.200000e-07	-4.899322e-06	-5.288074e-09	-3.494331e+01	-3.504449e+02
2.300000e-07	-4.857305e-06	-5.289608e-09	-3.464363e+01	-3.488951e+02
2.400000e-07	-4.813357e-06	-5.312990e-09	-3.433018e+01	-3.472283e+02
2.500000e-07	-4.767672e-06	-5.277903e-09	-3.400434e+01	-3.454645e+02
2.600000e-07	-4.720116e-06	-5.277064e-09	-3.366516e+01	-3.436254e+02
2.700000e-07	-4.670515e-06	-5.190123e-09	-3.331139e+01	-3.417299e+02
2.800000e-07	-4.618809e-06	-5.164397e-09	-3.294261e+01	-3.397900e+02
2.900000e-07	-4.565162e-06	-5.162005e-09	-3.255998e+01	-3.378095e+02
3.000000e-07	-4.509937e-06	-5.126232e-09	-3.216611e+01	-3.357844e+02
3.100000e-07	-4.453095e-06	-5.101311e-09	-3.176069e+01	-3.337050e+02
3.200000e-07	-4.394393e-06	-5.061133e-09	-3.134202e+01	-3.315595e+02
3.300000e-07	-4.334037e-06	-5.010519e-09	-3.091154e+01	-3.293368e+02
3.400000e-07	-4.272220e-06	-4.946953e-09	-3.047064e+01	-3.270295e+02
3.500000e-07	-4.209032e-06	-4.952168e-09	-3.001997e+01	-3.246349e+02
3.600000e-07	-4.144399e-06	-4.941108e-09	-2.955899e+01	-3.221549e+02
3.700000e-07	-4.078104e-06	-4.863747e-09	-2.908615e+01	-3.195943e+02
3.800000e-07	-4.010219e-06	-4.822295e-09	-2.860198e+01	-3.169588e+02
3.900000e-07	-3.940994e-06	-4.788149e-09	-2.810825e+01	-3.142528e+02
4.000000e-07	-3.870559e-06	-4.742773e-09	-2.760588e+01	-3.114777e+02
4.100000e-07	-3.798892e-06	-4.694822e-09	-2.709474e+01	-3.086316e+02
4.200000e-07	-3.725875e-06	-4.651643e-09	-2.657396e+01	-3.057093e+02
4.300000e-07	-3.651220e-06	-4.612514e-09	-2.604150e+01	-3.027043e+02
4.400000e-07	-3.574930e-06	-4.559371e-09	-2.549738e+01	-2.996094e+02
4.500000e-07	-3.497296e-06	-4.523157e-09	-2.494367e+01	-2.964193e+02
4.600000e-07	-3.418270e-06	-4.486539e-09	-2.438004e+01	-2.931304e+02
4.700000e-07	-3.337919e-06	-4.426478e-09	-2.380695e+01	-2.897420e+02
4.800000e-07	-3.256358e-06	-4.352125e-09	-2.322523e+01	-2.862551e+02
4.900000e-07	-3.173594e-06	-4.286252e-09	-2.263494e+01	-2.826720e+02
5.000000e-07	-3.089855e-06	-4.245685e-09	-2.203769e+01	-2.789951e+02
5.100000e-07	-3.005279e-06	-4.193107e-09	-2.143447e+01	-2.752262e+02
5.200000e-07	-2.919719e-06	-4.131995e-09	-2.082424e+01	-2.713662e+02
5.300000e-07	-2.833084e-06	-4.067416e-09	-2.020633e+01	-2.674147e+02
5.400000e-07	-2.745530e-06	-3.998903e-09	-1.958187e+01	-2.633710e+02
5.500000e-07	-2.657068e-06	-3.938499e-09	-1.895094e+01	-2.592337e+02
5.600000e-07	-2.567451e-06	-3.881637e-09	-1.831176e+01	-2.550018e+02
5.700000e-07	-2.476704e-06	-3.820729e-09	-1.766453e+01	-2.506738e+02
5.800000e-07	-2.385044e-06	-3.744680e-09	-1.701078e+01	-2.462480e+02
5.900000e-07	-2.292575e-06	-3.667755e-09	-1.635127e+01	-2.417222e+02
6.000000e-07	-2.199320e-06	-3.595376e-09	-1.568615e+01	-2.370927e+02
6.100000e-07	-2.105291e-06	-3.524975e-09	-1.501551e+01	-2.323550e+02
6.200000e-07	-2.010560e-06	-3.451561e-09	-1.433986e+01	-2.275041e+02
6.300000e-07	-1.915180e-06	-3.375554e-09	-1.365959e+01	-2.225347e+02
6.400000e-07	-1.819199e-06	-3.300617e-09	-1.297502e+01	-2.174430e+02
6.500000e-07	-1.722466e-06	-3.225707e-09	-1.228510e+01	-2.122265e+02
6.600000e-07	-1.624909e-06	-3.149565e-09	-1.158929e+01	-2.068851e+02
6.700000e-07	-1.526715e-06	-3.063926e-09	-1.088895e+01	-2.014207e+02
6.800000e-07	-1.427911e-06	-2.971194e-09	-1.018425e+01	-1.958360e+02
6.900000e-07	-1.328563e-06	-2.877270e-09	-9.475673e+00	-1.901336e+02
7.000000e-07	-1.228796e-06	-2.788142e-09	-8.764108e+00	-1.843145e+02
7.100000e-07	-1.128672e-06	-2.700361e-09	-8.050000e+00	-1.783772e+02
7.200000e-07	-1.028255e-06	-2.609728e-09	-7.333792e+00	-1.723175e+02
7.300000e-07	-9.275634e-07	-2.516116e-09	-6.615636e+00	-1.661287e+02
7.400000e-07	-8.266019e-07	-2.419121e-09	-5.895551e+00	-1.598038e+02
7.500000e-07	-7.253291e-07	-2.322052e-09	-5.173245e+00	-1.533362e+02
7.600000e-07	-6.237189e-07	-2.225036e-09	-4.448534e+00	-1.467221e+02
7.700000e-07	-5.219089e-07	-2.124799e-09	-3.722397e+00	-1.399613e+02
7.800000e-07	-4.200188e-07	-2.018110e-09	-2.995689e+00	-1.330567e+02
7.900000e-07	-3.180150e-07	-1.907393e-09	-2.268170e+00	-1.260137e+02
8.000000e-07	-2.158631e-07	-1.795360e-09	-1.539594e+00	-1.188375e+02
8.100000e-07	-1.135625e-07	-1.685074e-09	-8.099586e-01	-1.115307e+02
8.200000e-07	-1.115146e-08	-1.575358e-09	-7.953524e-02	-1.040911e+02
8.300000e-07	9.131064e-08	-1.461386e-09	6.512525e-01	-9.651013e+01
8.400000e-07	1.937424e-07	-1.343890e-09	1.381824e+00	-8.877288e+01
8.500000e-07	2.960780e-07	-1.225075e-09	2.111709e+00	-8.085966e+01
8.600000e-07	3.983195e-07	-1.104204e-09	2.840924e+00	-7.274880e+01
8.700000e-07	5.004759e-07	-9.777343e-10	3.569531e+00	-6.441999e+01
8.800000e-07	6.025125e-07	-8.454820e-10	4.297284e+00	-5.585760e+01
8.900000e-07	7.043136e-07	-7.080294e-10	5.023357e+00	-4.705293e+01
9.000000e-07	8.058263e-07	-5.673111e-10	5.747374e+00	-3.800509e+01
9.100000e-07	9.070302e-07	-4.258152e-10	6.469187e+00	-2.872020e+01
9.200000e-07	1.007913e-06	-2.841354e-10	7.188712e+00	-1.920940e+01
9.300000e-07	1.108476e-06	-1.395438e-10	7.905953e+00	-9.486061e+00
9.400000e-07	1.208725e-06	1.106561e-11	8.620960e+00	4.367250e-01
9.500000e-07	1.308626e-06	1.653972e-10	9.333478e+00	1.054775e+01
9.600000e-07	1.408068e-06	3.226609e-10	1.004273e+01	2.083783e+01
9.700000e-07	1.506944e-06	4.821702e-10	1.074794e+01	3.129842e+01
9.800000e-07	1.605143e-06	6.448968e-10	1.144832e+01	4.191905e+01
9.900000e-07	1.702582e-06	8.117684e-10	1.214328e+01	5.268421e+01
1.000000e-06	1.799242e-06	9.800368e-10	1.283268e+01	6.357078e+01
1.010000e-06	1.895095e-06	1.148865e-09	1.351633e+01	7.454652e+01
1.020000e-06	1.990255e-06	1.316923e-09	1.419504e+01	8.557036e+01
1.030000e-06	2.084818e-06	1.483743e-09	1.486949e+01	9.659435e+01
1.040000e-06	2.178582e-06	1.650255e-09	1.553825e+01	1.075671e+02
1.050000e-06	2.271556e-06	1.816448e-09	1.620136e+01	1.184378e+02
1.060000e-06	2.363894e-06	1.981820e-09	1.685994e+01	1.291597e+02
1.070000e-06	2.455622e-06	2.142122e-09	1.751417e+01	1.396933e+02
1.080000e-06	2.546561e-06	2.298505e-09	1.816277e+01	1.500070e+02
1.090000e-06	2.636340e-06	2.454250e-09	1.880310e+01	1.600770e+02
1.100000e-06	2.724911e-06	2.607085e-09	1.943481e+01	1.698853e+02
1.110000e-06	2.812522e-06	2.752829e-09	2.005968e+01	1.794176e+02
1.120000e-06	2.899223e-06	2.892110e-09	2.067805e+01	1.886607e+02
1.130000e-06	2.984960e-06	3.025283e-09	2.128955e+01	1.976020e+02
1.140000e-06	3.069781e-06	3.154264e-09	2.189452e+01	2.062286e+02
1.150000e-06	3.153697e-06	3.277314e-09	2.249303e+01	2.145288e+02
1.160000e-06	3.236609e-06	3.395160e-09	2.308438e+01	2.224942e+02
1.170000e-06	3.318349e-06	3.510390e-09	2.366738e+01	2.301211e+02
1.180000e-06	3.398802e-06	3.621207e-09	2.424119e+01	2.374126e+02
1.190000e-06	3.478040e-06	3.727778e-09	2.480633e+01	2.443789e+02
1.200000e-06	3.556082e-06	3.829104e-09	2.536295e+01	2.510362e+02
1.210000e-06	3.632862e-06	3.927023e-09	2.591057e+01	2.574048e+02
1.220000e-06	3.708300e-06	4.019723e-09	2.644861e+01	2.635068e+02
1.230000e-06	3.782178e-06	4.106865e-09	2.697553e+01	2.693629e+02
1.240000e-06	3.854464e-06	4.188705e-09	2.749109e+01	2.749908e+02
1.250000e-06	3.925331e-06	4.268969e-09	2.799654e+01	2.804038e+02
1.260000e-06	3.994805e-06	4.349207e-09	2.849204e+01	2.856114e+02
1.270000e-06	4.062952e-06	4.426070e-09	2.897809e+01	2.906199e+02
1.280000e-06	4.129700e-06	4.499677e-09	2.945415e+01	2.954346e+02
1.290000e-06	4.194754e-06	4.570458e-09	2.991813e+01	3.000604e+02
1.300000e-06	4.258210e-06	4.638032e-09	3.037072e+01	3.045033e+02
1.310000e-06	4.320266e-06	4.701953e-09	3.081332e+01	3.087702e+02
1.320000e-06	4.380912e-06	4.763769e-09	3.124587e+01	3.128674e+02
1.330000e-06	4.440183e-06	4.822339e-09	3.166860e+01	3.167998e+02
1.340000e-06	4.497822e-06	4.876129e-09	3.207970e+01	3.205696e+02
1.350000e-06	4.553691e-06	4.926254e-09	3.247817e+01	3.241754e+02
1.360000e-06	4.607930e-06	4.974777e-09	3.286502e+01	3.276124e+02
1.370000e-06	4.660458e-06	5.020991e-09	3.323966e+01	3.308741e+02
1.380000e-06	4.710933e-06	5.064743e-09	3.359966e+01	3.339543e+02
1.390000e-06	4.759350e-06	5.108534e-09	3.394499e+01	3.368495e+02
1.400000e-06	4.806038e-06	5.150671e-09	3.427798e+01	3.395607e+02
1.410000e-06	4.851165e-06	5.189257e-09	3.459983e+01	3.420944e+02
1.420000e-06	4.894784e-06	5.224060e-09	3.491094e+01	3.444622e+02
1.430000e-06	4.936570e-06	5.255200e-09	3.520897e+01	3.466792e+02
1.440000e-06	4.976476e-06	5.283704e-09	3.549359e+01	3.487611e+02
1.450000e-06	5.014741e-06	5.310393e-09	3.576650e+01	3.507220e+02
1.460000e-06	5.051373e-06	5.335454e-09	3.602777e+01	3.525717e+02
1.470000e-06	5.086285e-06	5.359995e-09	3.627677e+01	3.543149e+02
1.480000e-06	5.119264e-06	5.383883e-09	3.651199e+01	3.559517e+02
1.490000e-06	5.150406e-06	5.407084e-09	3.673410e+01	3.574786e+02
1.500000e-06	5.179904e-06	5.429689e-09	3.694449e+01	3.588916e+02
1.510000e-06	5.207699e-06	5.450001e-09	3.714273e+01	3.601881e+02
1.520000e-06	5.233524e-06	5.467590e-09	3.732693e+01	3.613690e+02
1.530000e-06	5.257238e-06	5.482887e-09	3.749606e+01	3.624390e+02
1.540000e-06	5.279088e-06	5.496464e-09	3.765190e+01	3.634059e+02
1.550000e-06	5.299284e-06	5.509267e-09	3.779595e+01	3.642788e+02
1.560000e-06	5.317640e-06	5.520745e-09	3.792687e+01	3.650655e+02
1.570000e-06	5.333939e-06	5.529559e-09	3.804311e+01	3.657708e+02
1.580000e-06	5.348284e-06	5.537968e-09	3.814543e+01	3.663949e+02
1.590000e-06	5.360682e-06	5.548449e-09	3.823385e+01	3.669339e+02
1.600000e-06	5.370855e-06	5.558496e-09	3.830641e+01	3.673813e+02
1.610000e-06	5.378858e-06	5.566398e-09	3.836348e+01	3.677307e+02
1.620000e-06	5.384982e-06	5.571890e-09	3.840717e+01	3.679781e+02
1.630000e-06	5.389390e-06	5.574877e-09	3.843861e+01	3.681246e+02
1.640000e-06	5.391909e-06	5.576711e-09	3.845657e+01	3.681765e+02
1.650000e-06	5.392390e-06	5.579717e-09	3.846000e+01	3.681450e+02
1.660000e-06	5.391028e-06	5.580010e-09	3.845029e+01	3.680433e+02
1.670000e-06	5.387986e-06	5.574340e-09	3.842859e+01	3.678834e+02
1.680000e-06	5.383274e-06	5.571381e-09	3.839499e+01	3.676732e+02
1.690000e-06	5.376643e-06	5.569862e-09	3.834769e+01	3.674139e+02
1.700000e-06	5.368183e-06	5.569328e-09	3.828735e+01	3.670999e+02
1.710000e-06	5.358190e-06	5.568910e-09	3.821607e+01	3.667199e+02
1.720000e-06	5.346588e-06	5.569447e-09	3.813333e+01	3.662606e+02
1.730000e-06	5.333083e-06	5.579982e-09	3.803700e+01	3.657110e+02
1.740000e-06	5.317511e-06	5.508140e-09	3.792595e+01	3.650657e+02
1.750000e-06	5.299602e-06	5.462915e-09	3.779821e+01	3.643286e+02
1.760000e-06	5.278975e-06	5.487353e-09	3.765109e+01	3.635126e+02
1.770000e-06	5.255961e-06	5.477866e-09	3.748695e+01	3.626381e+02
1.780000e-06	5.231568e-06	5.581180e-09	3.731297e+01	3.617290e+02
1.790000e-06	5.206525e-06	5.535392e-09	3.713436e+01	3.608070e+02
1.800000e-06	5.180197e-06	5.348842e-09	3.694658e+01	3.598868e+02
1.810000e-06	5.151645e-06	5.477426e-09	3.674294e+01	3.589720e+02
1.820000e-06	5.121270e-06	5.422295e-09	3.652630e+01	3.580535e+02
1.830000e-06	5.089302e-06	5.336395e-09	3.629830e+01	3.571109e+02
1.840000e-06	5.055309e-06	5.535519e-09	3.605585e+01	3.561159e+02
1.850000e-06	5.019643e-06	5.392187e-09	3.580146e+01	3.550383e+02
1.860000e-06	4.982307e-06	5.328285e-09	3.553518e+01	3.538514e+02
1.870000e-06	4.943015e-06	5.480459e-09	3.525494e+01	3.525370e+02
1.880000e-06	4.902035e-06	5.330686e-09	3.496265e+01	3.510888e+02
1.890000e-06	4.859252e-06	5.328930e-09	3.465751e+01	3.495122e+02
1.900000e-06	4.814876e-06	5.312365e-09	3.434101e+01	3.478225e+02
1.910000e-06	4.768787e-06	5.226693e-09	3.401229e+01	3.460405e+02
1.920000e-06	4.720555e-06	5.337615e-09	3.366829e+01	3.441877e+02
1.930000e-06	4.670667e-06	5.204344e-09	3.331247e+01	3.422817e+02
1.940000e-06	4.619146e-06	5.194710e-09	3.294502e+01	3.403328e+02
1.950000e-06	4.565585e-06	5.227144e-09	3.256300e+01	3.383430e+02
1.960000e-06	4.510034e-06	5.086492e-09	3.216680e+01	3.363069e+02
1.970000e-06	4.452693e-06	5.091938e-09	3.175782e+01	3.342141e+02
1.980000e-06	4.393901e-06	5.070051e-09	3.133850e+01	3.320526e+02
1.990000e-06	4.333675e-06	5.091349e-09	3.090896e+01	3.298120e+02
2.000000e-06	4.271762e-06	5.020930e-09	3.046738e+01	3.274858e+02
2.010000e-06	4.208218e-06	4.926798e-09	3.001416e+01	3.250723e+02
2.020000e-06	4.143164e-06	4.982818e-09	2.955018e+01	3.225743e+02
2.030000e-06	4.076686e-06	4.880655e-09	2.907604e+01	3.199970e+02
2.040000e-06	4.008793e-06	4.845826e-09	2.859181e+01	3.173458e+02
2.050000e-06	3.939471e-06	4.838906e-09	2.809739e+01	3.146247e+02
2.060000e-06	3.868575e-06	4.785304e-09	2.759173e+01	3.118344e+02
2.070000e-06	3.796187e-06	4.739442e-09	2.707544e+01	3.089722e+02
2.080000e-06	3.722579e-06	4.647166e-09	2.655045e+01	3.060326e+02
2.090000e-06	3.647673e-06	4.652808e-09	2.601620e+01	3.030085e+02
2.100000e-06	3.571351e-06	4.599770e-09	2.547185e+01	2.998934e+02
2.110000e-06	3.493465e-06	4.528021e-09	2.491635e+01	2.966820e+02
2.120000e-06	3.414112e-06	4.484976e-09	2.435038e+01	2.933716e+02
2.130000e-06	3.333624e-06	4.445399e-09	2.377632e+01	2.899616e+02
2.140000e-06	3.252020e-06	4.412693e-09	2.319430e+01	2.864536e+02
2.150000e-06	3.169331e-06	4.327700e-09	2.260454e+01	2.828499e+02
2.160000e-06	3.085628e-06	4.280788e-09	2.200754e+01	2.791530e+02
2.170000e-06	3.000770e-06	4.215929e-09	2.140231e+01	2.753643e+02
2.180000e-06	2.914603e-06	4.155046e-09	2.078775e+01	2.714844e+02
2.190000e-06	2.827237e-06	4.107537e-09	2.016463e+01	2.675130e+02
2.200000e-06	2.738935e-06	4.049899e-09	1.953483e+01	2.634491e+02
2.210000e-06	2.649733e-06	3.992945e-09	1.889862e+01	2.592914e+02
2.220000e-06	2.559559e-06	3.911441e-09	1.825547e+01	2.550387e+02
2.230000e-06	2.468518e-06	3.844876e-09	1.760614e+01	2.506896e+02
2.240000e-06	2.376744e-06	3.780940e-09	1.695159e+01	2.462424e+02
2.250000e-06	2.284163e-06	3.719489e-09	1.629128e+01	2.416944e+02
2.260000e-06	2.190793e-06	3.647492e-09	1.562534e+01	2.370419e+02
2.270000e-06	2.096486e-06	3.568115e-09	1.495271e+01	2.322801e+02
2.280000e-06	2.001106e-06	3.488910e-09	1.427244e+01	2.274039e+02
2.290000e-06	1.904949e-06	3.413467e-09	1.358662e+01	2.224084e+02
2.300000e-06	1.808294e-06	3.342226e-09	1.289724e+01	2.172897e+02
2.310000e-06	1.711178e-06	3.261711e-09	1.220459e+01	2.120461e+02
2.320000e-06	1.613487e-06	3.180592e-09	1.150783e+01	2.066780e+02
2.330000e-06	1.515208e-06	3.096073e-09	1.080688e+01	2.011873e+02
2.340000e-06	1.416411e-06	3.011880e-09	1.010223e+01	1.955769e+02
2.350000e-06	1.317207e-06	2.924221e-09	9.394681e+00	1.898492e+02
2.360000e-06	1.217653e-06	2.835205e-09	8.684636e+00	1.840048e+02
2.370000e-06	1.117821e-06	2.742258e-09	7.972603e+00	1.780414e+02
2.380000e-06	1.017712e-06	2.645711e-09	7.258603e+00	1.719543e+02
2.390000e-06	9.172465e-07	2.553842e-09	6.542053e+00	1.657367e+02
2.400000e-06	8.163677e-07	2.464142e-09	5.822558e+00	1.593814e+02
2.410000e-06	7.151671e-07	2.368033e-09	5.100767e+00	1.528824e+02
2.420000e-06	6.137973e-07	2.260291e-09	4.377770e+00	1.462365e+02
2.430000e-06	5.121526e-07	2.150218e-09	3.652813e+00	1.394443e+02
2.440000e-06	4.102391e-07	2.042222e-09	2.925938e+00	1.325093e+02
2.450000e-06	3.081083e-07	1.936208e-09	2.197513e+00	1.254370e+02
2.460000e-06	2.058217e-07	1.827417e-09	1.467976e+00	1.182325e+02
2.470000e-06	1.034341e-07	1.714892e-09	7.377203e-01	1.108974e+02
2.480000e-06	9.324264e-10	1.597880e-09	6.650320e-03	1.034282e+02
2.490000e-06	-1.015784e-07	1.478239e-09	-7.244853e-01	9.581488e+01
2.500000e-06	-2.040546e-07	1.361475e-09	-1.455373e+00	8.804143e+01
2.510000e-06	-3.064544e-07	1.245794e-09	-2.185716e+00	8.008743e+01
2.520000e-06	-4.086613e-07	1.123490e-09	-2.914684e+00	7.193119e+01
2.530000e-06	-5.106658e-07	9.900546e-10	-3.642208e+00	6.355317e+01
2.540000e-06	-6.125228e-07	8.540831e-10	-4.368680e+00	5.493906e+01
2.550000e-06	-7.141578e-07	7.198362e-10	-5.093569e+00	4.608183e+01
2.560000e-06	-8.153949e-07	5.825034e-10	-5.815619e+00	3.698220e+01
2.570000e-06	-9.161983e-07	4.386972e-10	-6.534577e+00	2.764758e+01
2.580000e-06	-1.016620e-06	2.910038e-10	-7.250811e+00	1.808981e+01
2.590000e-06	-1.116703e-06	1.430569e-10	-7.964634e+00	8.322414e+00
2.600000e-06	-1.216434e-06	-6.486585e-12	-8.675943e+00	-1.641842e+00
2.610000e-06	-1.315746e-06	-1.590450e-10	-9.384261e+00	-1.179222e+01
2.620000e-06	-1.414598e-06	-3.146717e-10	-1.008930e+01	-2.211985e+01
2.630000e-06	-1.512939e-06	-4.752123e-10	-1.079070e+01	-3.261601e+01
2.640000e-06	-1.610743e-06	-6.398890e-10	-1.148826e+01	-4.326941e+01
2.650000e-06	-1.707981e-06	-8.056073e-10	-1.218179e+01	-5.406310e+01
2.660000e-06	-1.804678e-06	-9.712211e-10	-1.287146e+01	-6.497207e+01
2.670000e-06	-1.900856e-06	-1.138646e-09	-1.355742e+01	-7.596212e+01
2.680000e-06	-1.996518e-06	-1.307596e-09	-1.423971e+01	-8.699047e+01
2.690000e-06	-2.091466e-06	-1.475399e-09	-1.491691e+01	-9.800813e+01
2.700000e-06	-2.185376e-06	-1.641406e-09	-1.558670e+01	-1.089635e+02
2.710000e-06	-2.278269e-06	-1.803711e-09	-1.624924e+01	-1.198062e+02
2.720000e-06	-2.370311e-06	-1.962863e-09	-1.690571e+01	-1.304911e+02
2.730000e-06	-2.461549e-06	-2.121630e-09	-1.755644e+01	-1.409803e+02
2.740000e-06	-2.551958e-06	-2.278799e-09	-1.820126e+01	-1.512438e+02
2.750000e-06	-2.641430e-06	-2.432165e-09	-1.883940e+01	-1.612594e+02
2.760000e-06	-2.729970e-06	-2.581736e-09	-1.947089e+01	-1.710099e+02
2.770000e-06	-2.817734e-06	-2.728810e-09	-2.009685e+01	-1.804815e+02
2.780000e-06	-2.904595e-06	-2.872548e-09	-2.071636e+01	-1.896613e+02
2.790000e-06	-2.990232e-06	-3.008879e-09	-2.132716e+01	-1.985365e+02
2.800000e-06	-3.074639e-06	-3.137820e-09	-2.192916e+01	-2.070944e+02
2.810000e-06	-3.158023e-06	-3.262125e-09	-2.252388e+01	-2.153237e+02
2.820000e-06	-3.240427e-06	-3.381521e-09	-2.311161e+01	-2.232169e+02
2.830000e-06	-3.321816e-06	-3.497062e-09	-2.369210e+01	-2.307717e+02
2.840000e-06	-3.402128e-06	-3.611020e-09	-2.426491e+01	-2.379927e+02
2.850000e-06	-3.481236e-06	-3.722810e-09	-2.482913e+01	-2.448915e+02
2.860000e-06	-3.558854e-06	-3.827715e-09	-2.538272e+01	-2.514853e+02
2.870000e-06	-3.634881e-06	-3.924023e-09	-2.592497e+01	-2.577953e+02
2.880000e-06	-3.709530e-06	-4.016377e-09	-2.645738e+01	-2.638432e+02
2.890000e-06	-3.782837e-06	-4.105478e-09	-2.698023e+01	-2.696493e+02
2.900000e-06	-3.854859e-06	-4.190548e-09	-2.749391e+01	-2.752305e+02
2.910000e-06	-3.925471e-06	-4.271014e-09	-2.799754e+01	-2.805991e+02
2.920000e-06	-3.994502e-06	-4.348526e-09	-2.848988e+01	-2.857638e+02
2.930000e-06	-4.062109e-06	-4.424308e-09	-2.897207e+01	-2.907306e+02
2.940000e-06	-4.128301e-06	-4.498085e-09	-2.944417e+01	-2.955046e+02
