# Temperatura_=_28.58
# Concentracion g/m^3_=_15000.0
# C_Vs_to_Am_M_A/Vsm_=_65563218390.804596
# pendiente_HvsI_1/m_=_3716.3
# ordenada_HvsI_A/m_=_1297.0
# frecuencia_Hz_=_301598.24273256253

Tiempo_(s)	Campo_(V.s)	Magnetizacion_(V.s)	Campo_(kA/m)	Magnetizacion_(A/m)
0.000000e+00	-5.382052e-06	-5.731087e-09	-3.833623e+01	-3.740817e+02
1.000000e-08	-5.379363e-06	-5.729163e-09	-3.831707e+01	-3.739965e+02
2.000000e-08	-5.374890e-06	-5.724591e-09	-3.828521e+01	-3.738599e+02
3.000000e-08	-5.368817e-06	-5.718069e-09	-3.824196e+01	-3.736545e+02
4.000000e-08	-5.361213e-06	-5.711590e-09	-3.818779e+01	-3.733598e+02
5.000000e-08	-5.351783e-06	-5.705266e-09	-3.812062e+01	-3.729577e+02
6.000000e-08	-5.340226e-06	-5.697428e-09	-3.803830e+01	-3.724379e+02
7.000000e-08	-5.326754e-06	-5.691810e-09	-3.794234e+01	-3.718020e+02
8.000000e-08	-5.311279e-06	-5.682243e-09	-3.783211e+01	-3.710646e+02
9.000000e-08	-5.293530e-06	-5.674702e-09	-3.770568e+01	-3.702514e+02
1.000000e-07	-5.273665e-06	-5.677553e-09	-3.756419e+01	-3.693940e+02
1.100000e-07	-5.251919e-06	-5.655903e-09	-3.740929e+01	-3.685240e+02
1.200000e-07	-5.228495e-06	-5.628482e-09	-3.724244e+01	-3.676649e+02
1.300000e-07	-5.203493e-06	-5.628209e-09	-3.706435e+01	-3.668276e+02
1.400000e-07	-5.176908e-06	-5.567293e-09	-3.687499e+01	-3.660071e+02
1.500000e-07	-5.148746e-06	-5.546866e-09	-3.667439e+01	-3.651833e+02
1.600000e-07	-5.119110e-06	-5.592939e-09	-3.646330e+01	-3.643252e+02
1.700000e-07	-5.087860e-06	-5.551047e-09	-3.624070e+01	-3.633972e+02
1.800000e-07	-5.054525e-06	-5.560750e-09	-3.600326e+01	-3.623666e+02
1.900000e-07	-5.019306e-06	-5.538670e-09	-3.575239e+01	-3.612098e+02
2.000000e-07	-4.982590e-06	-5.414736e-09	-3.549087e+01	-3.599167e+02
2.100000e-07	-4.944190e-06	-5.426285e-09	-3.521735e+01	-3.584913e+02
2.200000e-07	-4.903981e-06	-5.467323e-09	-3.493094e+01	-3.569499e+02
2.300000e-07	-4.861798e-06	-5.436794e-09	-3.463047e+01	-3.553157e+02
2.400000e-07	-4.817659e-06	-5.394781e-09	-3.431607e+01	-3.536127e+02
2.500000e-07	-4.771741e-06	-5.337417e-09	-3.398899e+01	-3.518604e+02
2.600000e-07	-4.723978e-06	-5.326507e-09	-3.364878e+01	-3.500693e+02
2.700000e-07	-4.674223e-06	-5.318863e-09	-3.329438e+01	-3.482397e+02
2.800000e-07	-4.622378e-06	-5.298565e-09	-3.292509e+01	-3.463625e+02
2.900000e-07	-4.568617e-06	-5.258553e-09	-3.254215e+01	-3.444228e+02
3.000000e-07	-4.513239e-06	-5.181147e-09	-3.214769e+01	-3.424047e+02
3.100000e-07	-4.456216e-06	-5.167543e-09	-3.174152e+01	-3.402948e+02
3.200000e-07	-4.397336e-06	-5.175564e-09	-3.132212e+01	-3.380862e+02
3.300000e-07	-4.336820e-06	-5.143327e-09	-3.089106e+01	-3.357791e+02
3.400000e-07	-4.274940e-06	-5.087843e-09	-3.045029e+01	-3.333798e+02
3.500000e-07	-4.211773e-06	-5.013243e-09	-3.000036e+01	-3.308985e+02
3.600000e-07	-4.147124e-06	-4.979232e-09	-2.953986e+01	-3.283455e+02
3.700000e-07	-4.080715e-06	-4.973276e-09	-2.906684e+01	-3.257286e+02
3.800000e-07	-4.012710e-06	-4.950198e-09	-2.858244e+01	-3.230510e+02
3.900000e-07	-3.943358e-06	-4.896315e-09	-2.808844e+01	-3.203105e+02
4.000000e-07	-3.872748e-06	-4.821606e-09	-2.758549e+01	-3.175011e+02
4.100000e-07	-3.800927e-06	-4.768026e-09	-2.707391e+01	-3.146143e+02
4.200000e-07	-3.727697e-06	-4.728905e-09	-2.655230e+01	-3.116422e+02
4.300000e-07	-3.652827e-06	-4.710612e-09	-2.601900e+01	-3.085788e+02
4.400000e-07	-3.576461e-06	-4.678568e-09	-2.547505e+01	-3.054212e+02
4.500000e-07	-3.498722e-06	-4.613362e-09	-2.492131e+01	-3.021694e+02
4.600000e-07	-3.419514e-06	-4.540640e-09	-2.435712e+01	-2.988251e+02
4.700000e-07	-3.339003e-06	-4.486466e-09	-2.378363e+01	-2.953900e+02
4.800000e-07	-3.257337e-06	-4.454376e-09	-2.320194e+01	-2.918644e+02
4.900000e-07	-3.174504e-06	-4.404082e-09	-2.261192e+01	-2.882464e+02
5.000000e-07	-3.090649e-06	-4.334098e-09	-2.201461e+01	-2.845321e+02
5.100000e-07	-3.005883e-06	-4.262783e-09	-2.141083e+01	-2.807167e+02
5.200000e-07	-2.920167e-06	-4.205155e-09	-2.080028e+01	-2.767960e+02
5.300000e-07	-2.833435e-06	-4.156534e-09	-2.018249e+01	-2.727678e+02
5.400000e-07	-2.745859e-06	-4.102270e-09	-1.955869e+01	-2.686327e+02
5.500000e-07	-2.657372e-06	-4.029836e-09	-1.892840e+01	-2.643942e+02
5.600000e-07	-2.567604e-06	-3.944545e-09	-1.828898e+01	-2.600569e+02
5.700000e-07	-2.476650e-06	-3.871921e-09	-1.764112e+01	-2.556252e+02
5.800000e-07	-2.384857e-06	-3.821929e-09	-1.698728e+01	-2.511010e+02
5.900000e-07	-2.292325e-06	-3.770057e-09	-1.632817e+01	-2.464821e+02
6.000000e-07	-2.199019e-06	-3.694005e-09	-1.566356e+01	-2.417622e+02
6.100000e-07	-2.104888e-06	-3.606402e-09	-1.499307e+01	-2.369318e+02
6.200000e-07	-2.010016e-06	-3.521375e-09	-1.431729e+01	-2.319797e+02
6.300000e-07	-1.914545e-06	-3.444025e-09	-1.363725e+01	-2.268965e+02
6.400000e-07	-1.818399e-06	-3.374234e-09	-1.295241e+01	-2.216761e+02
6.500000e-07	-1.721509e-06	-3.302547e-09	-1.226227e+01	-2.163180e+02
6.600000e-07	-1.623826e-06	-3.216387e-09	-1.156648e+01	-2.108270e+02
6.700000e-07	-1.525401e-06	-3.117392e-09	-1.086539e+01	-2.052119e+02
6.800000e-07	-1.426415e-06	-3.023114e-09	-1.016032e+01	-1.994830e+02
6.900000e-07	-1.326993e-06	-2.939887e-09	-9.452140e+00	-1.936487e+02
7.000000e-07	-1.227172e-06	-2.857713e-09	-8.741117e+00	-1.877130e+02
7.100000e-07	-1.126990e-06	-2.765390e-09	-8.027523e+00	-1.816739e+02
7.200000e-07	-1.026487e-06	-2.665478e-09	-7.311645e+00	-1.755231e+02
7.300000e-07	-9.256432e-07	-2.566035e-09	-6.593334e+00	-1.692480e+02
7.400000e-07	-8.245277e-07	-2.471481e-09	-5.873091e+00	-1.628343e+02
7.500000e-07	-7.231700e-07	-2.378313e-09	-5.151122e+00	-1.562692e+02
7.600000e-07	-6.215245e-07	-2.276939e-09	-4.427104e+00	-1.495445e+02
7.700000e-07	-5.196169e-07	-2.165472e-09	-3.701219e+00	-1.426573e+02
7.800000e-07	-4.175280e-07	-2.051182e-09	-2.974042e+00	-1.356104e+02
7.900000e-07	-3.153014e-07	-1.942807e-09	-2.245884e+00	-1.284093e+02
8.000000e-07	-2.129268e-07	-1.838783e-09	-1.516672e+00	-1.210601e+02
8.100000e-07	-1.104069e-07	-1.730482e-09	-7.864254e-01	-1.135652e+02
8.200000e-07	-7.798899e-09	-1.613445e-09	-5.555137e-02	-1.059211e+02
8.300000e-07	9.476793e-08	-1.490126e-09	6.750297e-01	-9.811730e+01
8.400000e-07	1.972613e-07	-1.364442e-09	1.405088e+00	-9.013672e+01
8.500000e-07	2.997286e-07	-1.242655e-09	2.134959e+00	-8.195858e+01
8.600000e-07	4.021589e-07	-1.122428e-09	2.864568e+00	-7.356183e+01
8.700000e-07	5.045244e-07	-9.928434e-10	3.593715e+00	-6.492903e+01
8.800000e-07	6.067255e-07	-8.521115e-10	4.321691e+00	-5.604929e+01
8.900000e-07	7.086598e-07	-7.072675e-10	5.047767e+00	-4.691972e+01
9.000000e-07	8.103063e-07	-5.637106e-10	5.771792e+00	-3.754497e+01
9.100000e-07	9.116447e-07	-4.195620e-10	6.493623e+00	-2.793524e+01
9.200000e-07	1.012639e-06	-2.730718e-10	7.213005e+00	-1.810317e+01
9.300000e-07	1.113296e-06	-1.208467e-10	7.929982e+00	-8.060953e+00
9.400000e-07	1.213630e-06	3.775830e-11	8.644655e+00	2.181756e+00
9.500000e-07	1.313579e-06	1.989338e-10	9.356591e+00	1.261820e+01
9.600000e-07	1.413096e-06	3.607490e-10	1.006545e+01	2.324311e+01
9.700000e-07	1.512088e-06	5.253229e-10	1.077056e+01	3.404974e+01
9.800000e-07	1.610446e-06	6.948462e-10	1.147117e+01	4.502630e+01
9.900000e-07	1.708085e-06	8.686473e-10	1.216665e+01	5.615255e+01
1.000000e-06	1.804913e-06	1.042093e-09	1.285635e+01	6.739775e+01
1.010000e-06	1.900932e-06	1.212598e-09	1.354030e+01	7.872047e+01
1.020000e-06	1.996234e-06	1.382321e-09	1.421912e+01	9.007053e+01
1.030000e-06	2.090891e-06	1.553206e-09	1.489336e+01	1.013926e+02
1.040000e-06	2.184817e-06	1.727138e-09	1.556240e+01	1.126307e+02
1.050000e-06	2.277948e-06	1.900262e-09	1.622577e+01	1.237329e+02
1.060000e-06	2.370363e-06	2.069254e-09	1.688404e+01	1.346545e+02
1.070000e-06	2.462096e-06	2.231435e-09	1.753745e+01	1.453599e+02
1.080000e-06	2.553003e-06	2.388930e-09	1.818498e+01	1.558230e+02
1.090000e-06	2.642870e-06	2.546214e-09	1.882510e+01	1.660248e+02
1.100000e-06	2.731586e-06	2.701197e-09	1.945702e+01	1.759514e+02
1.110000e-06	2.819228e-06	2.849406e-09	2.008129e+01	1.855911e+02
1.120000e-06	2.905996e-06	2.989542e-09	2.069934e+01	1.949324e+02
1.130000e-06	2.991846e-06	3.123054e-09	2.131085e+01	2.039631e+02
1.140000e-06	3.076708e-06	3.253373e-09	2.191532e+01	2.126709e+02
1.150000e-06	3.160653e-06	3.380929e-09	2.251325e+01	2.210450e+02
1.160000e-06	3.243598e-06	3.503535e-09	2.310407e+01	2.290777e+02
1.170000e-06	3.325414e-06	3.619565e-09	2.368684e+01	2.367666e+02
1.180000e-06	3.405981e-06	3.728764e-09	2.426072e+01	2.441155e+02
1.190000e-06	3.485276e-06	3.832648e-09	2.482554e+01	2.511345e+02
1.200000e-06	3.563317e-06	3.932502e-09	2.538142e+01	2.578391e+02
1.210000e-06	3.640157e-06	4.030410e-09	2.592875e+01	2.642481e+02
1.220000e-06	3.715731e-06	4.124446e-09	2.646706e+01	2.703819e+02
1.230000e-06	3.789733e-06	4.211307e-09	2.699418e+01	2.762600e+02
1.240000e-06	3.862057e-06	4.293603e-09	2.750934e+01	2.819004e+02
1.250000e-06	3.932907e-06	4.376167e-09	2.801400e+01	2.873185e+02
1.260000e-06	4.002425e-06	4.458643e-09	2.850918e+01	2.925272e+02
1.270000e-06	4.070655e-06	4.536686e-09	2.899518e+01	2.975375e+02
1.280000e-06	4.137433e-06	4.607458e-09	2.947083e+01	3.023588e+02
1.290000e-06	4.202490e-06	4.675484e-09	2.993423e+01	3.069994e+02
1.300000e-06	4.265952e-06	4.743514e-09	3.038627e+01	3.114661e+02
1.310000e-06	4.328019e-06	4.809491e-09	3.082837e+01	3.157639e+02
1.320000e-06	4.388747e-06	4.871955e-09	3.126094e+01	3.198952e+02
1.330000e-06	4.448040e-06	4.931117e-09	3.168328e+01	3.238601e+02
1.340000e-06	4.505634e-06	4.986372e-09	3.209352e+01	3.276561e+02
1.350000e-06	4.561443e-06	5.038738e-09	3.249105e+01	3.312791e+02
1.360000e-06	4.615623e-06	5.089932e-09	3.287697e+01	3.347246e+02
1.370000e-06	4.668104e-06	5.138394e-09	3.325079e+01	3.379896e+02
1.380000e-06	4.718539e-06	5.182702e-09	3.361004e+01	3.410734e+02
1.390000e-06	4.767004e-06	5.223698e-09	3.395525e+01	3.439787e+02
1.400000e-06	4.813807e-06	5.263681e-09	3.428863e+01	3.467111e+02
1.410000e-06	4.859034e-06	5.300659e-09	3.461078e+01	3.492790e+02
1.420000e-06	4.902635e-06	5.335332e-09	3.492135e+01	3.516912e+02
1.430000e-06	4.944401e-06	5.368923e-09	3.521885e+01	3.539561e+02
1.440000e-06	4.984304e-06	5.399918e-09	3.550308e+01	3.560805e+02
1.450000e-06	5.022501e-06	5.427434e-09	3.577515e+01	3.580688e+02
1.460000e-06	5.059078e-06	5.451934e-09	3.603569e+01	3.599237e+02
1.470000e-06	5.093957e-06	5.477007e-09	3.628413e+01	3.616475e+02
1.480000e-06	5.126941e-06	5.502243e-09	3.651908e+01	3.632430e+02
1.490000e-06	5.158077e-06	5.523577e-09	3.674086e+01	3.647156e+02
1.500000e-06	5.187508e-06	5.541771e-09	3.695049e+01	3.660730e+02
1.510000e-06	5.215251e-06	5.558746e-09	3.714810e+01	3.673248e+02
1.520000e-06	5.241014e-06	5.576457e-09	3.733162e+01	3.684813e+02
1.530000e-06	5.264725e-06	5.594325e-09	3.750051e+01	3.695513e+02
1.540000e-06	5.286592e-06	5.610331e-09	3.765627e+01	3.705396e+02
1.550000e-06	5.306711e-06	5.624400e-09	3.779958e+01	3.714461e+02
1.560000e-06	5.325007e-06	5.636599e-09	3.792990e+01	3.722659e+02
1.570000e-06	5.341295e-06	5.646324e-09	3.804591e+01	3.729900e+02
1.580000e-06	5.355625e-06	5.654632e-09	3.814799e+01	3.736087e+02
1.590000e-06	5.367982e-06	5.662704e-09	3.823601e+01	3.741146e+02
1.600000e-06	5.378141e-06	5.669613e-09	3.830837e+01	3.745055e+02
1.610000e-06	5.386110e-06	5.675765e-09	3.836513e+01	3.747864e+02
1.620000e-06	5.392171e-06	5.680752e-09	3.840831e+01	3.749690e+02
1.630000e-06	5.396497e-06	5.685724e-09	3.843912e+01	3.750703e+02
1.640000e-06	5.398967e-06	5.690040e-09	3.845671e+01	3.751081e+02
1.650000e-06	5.399429e-06	5.692607e-09	3.846000e+01	3.750972e+02
1.660000e-06	5.398010e-06	5.694152e-09	3.844989e+01	3.750452e+02
1.670000e-06	5.394965e-06	5.690976e-09	3.842821e+01	3.749500e+02
1.680000e-06	5.390261e-06	5.686847e-09	3.839470e+01	3.748002e+02
1.690000e-06	5.383674e-06	5.683525e-09	3.834778e+01	3.745772e+02
1.700000e-06	5.375276e-06	5.679638e-09	3.828796e+01	3.742607e+02
1.710000e-06	5.365288e-06	5.675597e-09	3.821681e+01	3.738338e+02
1.720000e-06	5.353620e-06	5.668937e-09	3.813370e+01	3.732884e+02
1.730000e-06	5.339932e-06	5.655543e-09	3.803620e+01	3.726290e+02
1.740000e-06	5.324130e-06	5.644981e-09	3.792365e+01	3.718727e+02
1.750000e-06	5.306089e-06	5.617590e-09	3.779514e+01	3.710471e+02
1.760000e-06	5.285386e-06	5.616605e-09	3.764768e+01	3.701845e+02
1.770000e-06	5.262343e-06	5.615209e-09	3.748354e+01	3.693150e+02
1.780000e-06	5.237976e-06	5.578498e-09	3.730998e+01	3.684600e+02
1.790000e-06	5.212820e-06	5.602197e-09	3.713079e+01	3.676272e+02
1.800000e-06	5.186297e-06	5.559914e-09	3.694187e+01	3.668080e+02
1.810000e-06	5.157641e-06	5.530929e-09	3.673775e+01	3.659796e+02
1.820000e-06	5.127118e-06	5.573525e-09	3.652034e+01	3.651094e+02
1.830000e-06	5.094915e-06	5.494265e-09	3.629096e+01	3.641618e+02
1.840000e-06	5.060812e-06	5.521788e-09	3.604804e+01	3.631056e+02
1.850000e-06	5.025058e-06	5.614150e-09	3.579337e+01	3.619198e+02
1.860000e-06	4.987527e-06	5.524468e-09	3.552604e+01	3.605974e+02
1.870000e-06	4.948079e-06	5.472083e-09	3.524504e+01	3.591454e+02
1.880000e-06	4.906967e-06	5.434518e-09	3.495221e+01	3.575819e+02
1.890000e-06	4.864104e-06	5.400305e-09	3.464689e+01	3.559308e+02
1.900000e-06	4.819606e-06	5.438607e-09	3.432994e+01	3.542157e+02
1.910000e-06	4.773309e-06	5.393829e-09	3.400016e+01	3.524545e+02
1.920000e-06	4.724937e-06	5.380846e-09	3.365561e+01	3.506553e+02
1.930000e-06	4.674914e-06	5.335413e-09	3.329930e+01	3.488164e+02
1.940000e-06	4.623239e-06	5.258366e-09	3.293122e+01	3.469270e+02
1.950000e-06	4.569470e-06	5.307787e-09	3.254823e+01	3.449717e+02
1.960000e-06	4.513714e-06	5.267671e-09	3.215107e+01	3.429347e+02
1.970000e-06	4.456307e-06	5.200641e-09	3.174217e+01	3.408039e+02
1.980000e-06	4.397471e-06	5.148940e-09	3.132308e+01	3.385738e+02
1.990000e-06	4.337131e-06	5.105597e-09	3.089328e+01	3.362461e+02
2.000000e-06	4.275039e-06	5.139775e-09	3.045100e+01	3.338282e+02
2.010000e-06	4.211319e-06	5.077367e-09	2.999712e+01	3.313305e+02
2.020000e-06	4.146157e-06	5.028770e-09	2.953298e+01	3.287632e+02
2.030000e-06	4.079571e-06	4.991127e-09	2.905868e+01	3.261331e+02
2.040000e-06	4.011545e-06	4.918565e-09	2.857414e+01	3.234422e+02
2.050000e-06	3.942032e-06	4.901266e-09	2.807900e+01	3.206875e+02
2.060000e-06	3.871012e-06	4.877664e-09	2.757312e+01	3.178621e+02
2.070000e-06	3.798641e-06	4.863895e-09	2.705763e+01	3.149575e+02
2.080000e-06	3.725019e-06	4.776866e-09	2.653322e+01	3.119661e+02
2.090000e-06	3.649977e-06	4.684154e-09	2.599870e+01	3.088825e+02
2.100000e-06	3.573431e-06	4.657445e-09	2.545346e+01	3.057045e+02
2.110000e-06	3.495303e-06	4.632779e-09	2.489696e+01	3.024326e+02
2.120000e-06	3.415795e-06	4.603750e-09	2.433063e+01	2.990686e+02
2.130000e-06	3.335180e-06	4.529869e-09	2.375641e+01	2.956140e+02
2.140000e-06	3.253443e-06	4.469381e-09	2.317420e+01	2.920687e+02
2.150000e-06	3.170653e-06	4.405549e-09	2.258449e+01	2.884303e+02
2.160000e-06	3.086860e-06	4.350965e-09	2.198763e+01	2.846946e+02
2.170000e-06	3.001948e-06	4.316442e-09	2.138280e+01	2.808568e+02
2.180000e-06	2.915708e-06	4.253273e-09	2.076852e+01	2.769130e+02
2.190000e-06	2.828249e-06	4.174023e-09	2.014555e+01	2.728616e+02
2.200000e-06	2.739789e-06	4.097320e-09	1.951545e+01	2.687039e+02
2.210000e-06	2.650414e-06	4.056903e-09	1.887883e+01	2.644437e+02
2.220000e-06	2.560120e-06	4.011867e-09	1.823567e+01	2.600857e+02
2.230000e-06	2.468988e-06	3.934453e-09	1.758654e+01	2.556340e+02
2.240000e-06	2.377126e-06	3.844988e-09	1.693221e+01	2.510897e+02
2.250000e-06	2.284435e-06	3.761440e-09	1.627198e+01	2.464497e+02
2.260000e-06	2.190836e-06	3.691608e-09	1.560527e+01	2.417069e+02
2.270000e-06	2.096288e-06	3.633594e-09	1.493181e+01	2.368512e+02
2.280000e-06	2.000803e-06	3.573655e-09	1.425167e+01	2.318716e+02
2.290000e-06	1.904530e-06	3.486353e-09	1.356592e+01	2.267592e+02
2.300000e-06	1.807666e-06	3.384447e-09	1.287596e+01	2.215090e+02
2.310000e-06	1.710352e-06	3.295082e-09	1.218280e+01	2.161217e+02
2.320000e-06	1.612528e-06	3.230022e-09	1.148600e+01	2.106032e+02
2.330000e-06	1.514123e-06	3.164349e-09	1.078506e+01	2.049627e+02
2.340000e-06	1.415204e-06	3.074575e-09	1.008046e+01	1.992105e+02
2.350000e-06	1.315903e-06	2.969893e-09	9.373142e+00	1.933542e+02
2.360000e-06	1.216264e-06	2.867631e-09	8.663420e+00	1.873966e+02
2.370000e-06	1.116339e-06	2.777774e-09	7.951657e+00	1.813343e+02
2.380000e-06	1.016180e-06	2.695398e-09	7.238224e+00	1.751579e+02
2.390000e-06	9.156090e-07	2.605117e-09	6.521861e+00	1.688541e+02
2.400000e-06	8.145333e-07	2.500291e-09	5.801901e+00	1.624088e+02
2.410000e-06	7.130873e-07	2.391832e-09	5.079304e+00	1.558099e+02
2.420000e-06	6.114359e-07	2.288970e-09	4.355243e+00	1.490503e+02
2.430000e-06	5.096320e-07	2.192936e-09	3.630096e+00	1.421284e+02
2.440000e-06	4.075653e-07	2.088497e-09	2.903078e+00	1.350477e+02
2.450000e-06	3.052696e-07	1.968921e-09	2.174428e+00	1.278144e+02
2.460000e-06	2.028477e-07	1.845177e-09	1.444879e+00	1.204337e+02
2.470000e-06	1.002697e-07	1.728649e-09	7.142190e-01	1.129073e+02
2.480000e-06	-2.374056e-09	1.619918e-09	-1.691034e-02	1.052300e+02
2.490000e-06	-1.050351e-07	1.508914e-09	-7.481625e-01	9.738976e+01
2.500000e-06	-2.076456e-07	1.384365e-09	-1.479055e+00	8.936853e+01
2.510000e-06	-3.101519e-07	1.248554e-09	-2.209205e+00	8.114511e+01
2.520000e-06	-4.125190e-07	1.113895e-09	-2.938363e+00	7.269893e+01
2.530000e-06	-5.147525e-07	9.830464e-10	-3.666569e+00	6.401374e+01
2.540000e-06	-6.168202e-07	8.541796e-10	-4.393595e+00	5.508030e+01
2.550000e-06	-7.186195e-07	7.193254e-10	-5.118709e+00	4.589743e+01
2.560000e-06	-8.200832e-07	5.720505e-10	-5.841433e+00	3.647121e+01
2.570000e-06	-9.211591e-07	4.172491e-10	-6.561394e+00	2.681261e+01
2.580000e-06	-1.021812e-06	2.653454e-10	-7.278340e+00	1.693441e+01
2.590000e-06	-1.121994e-06	1.189481e-10	-7.991938e+00	6.848391e+00
2.600000e-06	-1.221751e-06	-3.050565e-11	-8.702503e+00	-3.436451e+00
2.610000e-06	-1.321116e-06	-1.917297e-10	-9.410277e+00	-1.391386e+01
2.620000e-06	-1.420072e-06	-3.590412e-10	-1.011514e+01	-2.457852e+01
2.630000e-06	-1.518603e-06	-5.257478e-10	-1.081697e+01	-3.542294e+01
2.640000e-06	-1.616583e-06	-6.902325e-10	-1.151488e+01	-4.643375e+01
2.650000e-06	-1.713895e-06	-8.550990e-10	-1.220804e+01	-5.758858e+01
2.660000e-06	-1.810649e-06	-1.026959e-09	-1.289721e+01	-6.885435e+01
2.670000e-06	-1.906917e-06	-1.203682e-09	-1.358292e+01	-8.018753e+01
2.680000e-06	-2.002598e-06	-1.379581e-09	-1.426446e+01	-9.153648e+01
2.690000e-06	-2.097497e-06	-1.549733e-09	-1.494042e+01	-1.028453e+02
2.700000e-06	-2.191489e-06	-1.715973e-09	-1.560992e+01	-1.140586e+02
2.710000e-06	-2.284627e-06	-1.883080e-09	-1.627334e+01	-1.251257e+02
2.720000e-06	-2.376853e-06	-2.050728e-09	-1.693027e+01	-1.360037e+02
2.730000e-06	-2.468140e-06	-2.214231e-09	-1.758050e+01	-1.466594e+02
2.740000e-06	-2.558591e-06	-2.369392e-09	-1.822478e+01	-1.570680e+02
2.750000e-06	-2.648159e-06	-2.519126e-09	-1.886277e+01	-1.672120e+02
2.760000e-06	-2.736859e-06	-2.667285e-09	-1.949458e+01	-1.770782e+02
2.770000e-06	-2.824719e-06	-2.817006e-09	-2.012041e+01	-1.866550e+02
2.780000e-06	-2.911626e-06	-2.966856e-09	-2.073944e+01	-1.959309e+02
2.790000e-06	-2.997425e-06	-3.106960e-09	-2.135058e+01	-2.048936e+02
2.800000e-06	-3.082043e-06	-3.234964e-09	-2.195332e+01	-2.135309e+02
2.810000e-06	-3.165554e-06	-3.356687e-09	-2.254816e+01	-2.218324e+02
2.820000e-06	-3.248036e-06	-3.477938e-09	-2.313568e+01	-2.297916e+02
2.830000e-06	-3.329464e-06	-3.598159e-09	-2.371569e+01	-2.374072e+02
2.840000e-06	-3.409805e-06	-3.713473e-09	-2.428796e+01	-2.446845e+02
2.850000e-06	-3.488953e-06	-3.822330e-09	-2.485173e+01	-2.516348e+02
2.860000e-06	-3.566702e-06	-3.924176e-09	-2.540553e+01	-2.582746e+02
2.870000e-06	-3.642910e-06	-4.021562e-09	-2.594836e+01	-2.646230e+02
2.880000e-06	-3.717646e-06	-4.116823e-09	-2.648070e+01	-2.707005e+02
2.890000e-06	-3.791017e-06	-4.208936e-09	-2.700332e+01	-2.765264e+02
2.900000e-06	-3.863094e-06	-4.294098e-09	-2.751672e+01	-2.821181e+02
2.910000e-06	-3.933768e-06	-4.372952e-09	-2.802013e+01	-2.874905e+02
2.920000e-06	-4.002852e-06	-4.450167e-09	-2.851222e+01	-2.926559e+02
2.930000e-06	-4.070437e-06	-4.527056e-09	-2.899362e+01	-2.976251e+02
2.940000e-06	-4.136612e-06	-4.600668e-09	-2.946499e+01	-3.024072e+02
