# Temperatura_=_78.64
# Concentracion g/m^3_=_15000.0
# C_Vs_to_Am_M_A/Vsm_=_65563218390.804596
# pendiente_HvsI_1/m_=_3716.3
# ordenada_HvsI_A/m_=_1297.0
# frecuencia_Hz_=_301586.6325481526

Tiempo_(s)	Campo_(V.s)	Magnetizacion_(V.s)	Campo_(kA/m)	Magnetizacion_(A/m)
0.000000e+00	-5.374321e-06	-7.635699e-09	-3.833927e+01	-4.986596e+02
1.000000e-08	-5.371779e-06	-7.633069e-09	-3.832114e+01	-4.984474e+02
2.000000e-08	-5.367453e-06	-7.625396e-09	-3.829028e+01	-4.981609e+02
3.000000e-08	-5.361478e-06	-7.618843e-09	-3.824765e+01	-4.978003e+02
4.000000e-08	-5.353934e-06	-7.611499e-09	-3.819384e+01	-4.973557e+02
5.000000e-08	-5.344585e-06	-7.600300e-09	-3.812715e+01	-4.968087e+02
6.000000e-08	-5.333135e-06	-7.586231e-09	-3.804547e+01	-4.961369e+02
7.000000e-08	-5.319837e-06	-7.566718e-09	-3.795060e+01	-4.953198e+02
8.000000e-08	-5.304505e-06	-7.550106e-09	-3.784122e+01	-4.943457e+02
9.000000e-08	-5.286901e-06	-7.591755e-09	-3.771564e+01	-4.932166e+02
1.000000e-07	-5.267221e-06	-7.586630e-09	-3.757525e+01	-4.919502e+02
1.100000e-07	-5.245643e-06	-7.518243e-09	-3.742131e+01	-4.905787e+02
1.200000e-07	-5.222381e-06	-7.489213e-09	-3.725537e+01	-4.891433e+02
1.300000e-07	-5.197554e-06	-7.405460e-09	-3.707825e+01	-4.876861e+02
1.400000e-07	-5.171094e-06	-7.385179e-09	-3.688950e+01	-4.862409e+02
1.500000e-07	-5.143034e-06	-7.510389e-09	-3.668932e+01	-4.848253e+02
1.600000e-07	-5.113513e-06	-7.375924e-09	-3.647873e+01	-4.834353e+02
1.700000e-07	-5.082487e-06	-7.325555e-09	-3.625739e+01	-4.820446e+02
1.800000e-07	-5.049354e-06	-7.404368e-09	-3.602103e+01	-4.806086e+02
1.900000e-07	-5.014223e-06	-7.245540e-09	-3.577041e+01	-4.790722e+02
2.000000e-07	-4.977701e-06	-7.293509e-09	-3.550987e+01	-4.773798e+02
2.100000e-07	-4.939470e-06	-7.333470e-09	-3.523714e+01	-4.754859e+02
2.200000e-07	-4.899406e-06	-7.173027e-09	-3.495133e+01	-4.733634e+02
2.300000e-07	-4.857400e-06	-7.171193e-09	-3.465167e+01	-4.710071e+02
2.400000e-07	-4.813446e-06	-7.138009e-09	-3.433811e+01	-4.684340e+02
2.500000e-07	-4.767839e-06	-7.066701e-09	-3.401276e+01	-4.656779e+02
2.600000e-07	-4.720401e-06	-7.090181e-09	-3.367434e+01	-4.627813e+02
2.700000e-07	-4.670897e-06	-6.999995e-09	-3.332120e+01	-4.597857e+02
2.800000e-07	-4.619249e-06	-6.950473e-09	-3.295275e+01	-4.567233e+02
2.900000e-07	-4.565673e-06	-6.919271e-09	-3.257055e+01	-4.536112e+02
3.000000e-07	-4.510530e-06	-6.858790e-09	-3.217717e+01	-4.504495e+02
3.100000e-07	-4.453768e-06	-6.826790e-09	-3.177224e+01	-4.472232e+02
3.200000e-07	-4.395112e-06	-6.776672e-09	-3.135380e+01	-4.439083e+02
3.300000e-07	-4.334781e-06	-6.712925e-09	-3.092341e+01	-4.404781e+02
3.400000e-07	-4.273021e-06	-6.624463e-09	-3.048284e+01	-4.369106e+02
3.500000e-07	-4.209887e-06	-6.602170e-09	-3.003245e+01	-4.331937e+02
3.600000e-07	-4.145397e-06	-6.569699e-09	-2.957239e+01	-4.293271e+02
3.700000e-07	-4.079229e-06	-6.478239e-09	-2.910036e+01	-4.253215e+02
3.800000e-07	-4.011388e-06	-6.416867e-09	-2.861640e+01	-4.211950e+02
3.900000e-07	-3.942164e-06	-6.346668e-09	-2.812257e+01	-4.169673e+02
4.000000e-07	-3.871684e-06	-6.282564e-09	-2.761978e+01	-4.126552e+02
4.100000e-07	-3.800085e-06	-6.225302e-09	-2.710900e+01	-4.082677e+02
4.200000e-07	-3.727144e-06	-6.156556e-09	-2.658866e+01	-4.038047e+02
4.300000e-07	-3.652506e-06	-6.090766e-09	-2.605621e+01	-3.992573e+02
4.400000e-07	-3.576289e-06	-6.002575e-09	-2.551249e+01	-3.946109e+02
4.500000e-07	-3.498741e-06	-5.924665e-09	-2.495928e+01	-3.898492e+02
4.600000e-07	-3.419774e-06	-5.864516e-09	-2.439595e+01	-3.849580e+02
4.700000e-07	-3.339423e-06	-5.797462e-09	-2.382274e+01	-3.799289e+02
4.800000e-07	-3.257916e-06	-5.710642e-09	-2.324128e+01	-3.747603e+02
4.900000e-07	-3.175263e-06	-5.617165e-09	-2.265165e+01	-3.694573e+02
5.000000e-07	-3.091572e-06	-5.539642e-09	-2.205462e+01	-3.640290e+02
5.100000e-07	-3.006995e-06	-5.454377e-09	-2.145127e+01	-3.584858e+02
5.200000e-07	-2.921460e-06	-5.371100e-09	-2.084108e+01	-3.528359e+02
5.300000e-07	-2.834878e-06	-5.280999e-09	-2.022342e+01	-3.470827e+02
5.400000e-07	-2.747415e-06	-5.182424e-09	-1.959948e+01	-3.412242e+02
5.500000e-07	-2.659138e-06	-5.089824e-09	-1.896973e+01	-3.352530e+02
5.600000e-07	-2.569645e-06	-5.000575e-09	-1.833131e+01	-3.291583e+02
5.700000e-07	-2.478841e-06	-4.913760e-09	-1.768353e+01	-3.229281e+02
5.800000e-07	-2.387142e-06	-4.812085e-09	-1.702937e+01	-3.165519e+02
5.900000e-07	-2.294773e-06	-4.707896e-09	-1.637042e+01	-3.100224e+02
6.000000e-07	-2.201661e-06	-4.603782e-09	-1.570619e+01	-3.033369e+02
6.100000e-07	-2.107743e-06	-4.499250e-09	-1.503619e+01	-2.964966e+02
6.200000e-07	-2.013095e-06	-4.396181e-09	-1.436100e+01	-2.895059e+02
6.300000e-07	-1.917778e-06	-4.287938e-09	-1.368102e+01	-2.823703e+02
6.400000e-07	-1.821830e-06	-4.173393e-09	-1.299655e+01	-2.750952e+02
6.500000e-07	-1.725183e-06	-4.055827e-09	-1.230709e+01	-2.676843e+02
6.600000e-07	-1.627715e-06	-3.942988e-09	-1.161177e+01	-2.601388e+02
6.700000e-07	-1.529467e-06	-3.828367e-09	-1.091090e+01	-2.524574e+02
6.800000e-07	-1.430571e-06	-3.706949e-09	-1.020540e+01	-2.446368e+02
6.900000e-07	-1.331197e-06	-3.578406e-09	-9.496482e+00	-2.366722e+02
7.000000e-07	-1.231438e-06	-3.452883e-09	-8.784822e+00	-2.285583e+02
7.100000e-07	-1.131345e-06	-3.329382e-09	-8.070778e+00	-2.202895e+02
7.200000e-07	-1.031009e-06	-3.201272e-09	-7.355000e+00	-2.118601e+02
7.300000e-07	-9.304039e-07	-3.071387e-09	-6.637305e+00	-2.032643e+02
7.400000e-07	-8.294663e-07	-2.938486e-09	-5.917238e+00	-1.944957e+02
7.500000e-07	-7.282400e-07	-2.800014e-09	-5.195111e+00	-1.855472e+02
7.600000e-07	-6.267728e-07	-2.659823e-09	-4.471265e+00	-1.764107e+02
7.700000e-07	-5.250369e-07	-2.517586e-09	-3.745502e+00	-1.670775e+02
7.800000e-07	-4.230585e-07	-2.369597e-09	-3.018010e+00	-1.575384e+02
7.900000e-07	-3.209990e-07	-2.217740e-09	-2.289939e+00	-1.477849e+02
8.000000e-07	-2.188795e-07	-2.061012e-09	-1.561441e+00	-1.378089e+02
8.100000e-07	-1.165934e-07	-1.905146e-09	-8.317529e-01	-1.276037e+02
8.200000e-07	-1.420395e-08	-1.746919e-09	-1.013280e-01	-1.171640e+02
8.300000e-07	8.818872e-08	-1.582903e-09	6.291198e-01	-1.064858e+02
8.400000e-07	1.905555e-07	-1.415324e-09	1.359383e+00	-9.556601e+01
8.500000e-07	2.929001e-07	-1.244286e-09	2.089488e+00	-8.440186e+01
8.600000e-07	3.951415e-07	-1.072845e-09	2.818856e+00	-7.299053e+01
8.700000e-07	4.972519e-07	-8.959174e-10	3.547290e+00	-6.132849e+01
8.800000e-07	5.992735e-07	-7.109244e-10	4.275091e+00	-4.941126e+01
8.900000e-07	7.010852e-07	-5.212210e-10	5.001394e+00	-3.723320e+01
9.000000e-07	8.026113e-07	-3.298378e-10	5.725660e+00	-2.478774e+01
9.100000e-07	9.038252e-07	-1.370887e-10	6.447699e+00	-1.206787e+01
9.200000e-07	1.004671e-06	5.700970e-11	7.167108e+00	9.329294e-01
9.300000e-07	1.105158e-06	2.531311e-10	7.883963e+00	1.421924e+01
9.400000e-07	1.205381e-06	4.551354e-10	8.598933e+00	2.779178e+01
9.500000e-07	1.305293e-06	6.624622e-10	9.311684e+00	4.164511e+01
9.600000e-07	1.404774e-06	8.743260e-10	1.002136e+01	5.576517e+01
9.700000e-07	1.503660e-06	1.091537e-09	1.072679e+01	7.012693e+01
9.800000e-07	1.601787e-06	1.315573e-09	1.142681e+01	8.469271e+01
9.900000e-07	1.699198e-06	1.543769e-09	1.212172e+01	9.941158e+01
1.000000e-06	1.795894e-06	1.769577e-09	1.281153e+01	1.142201e+02
1.010000e-06	1.891848e-06	1.993418e-09	1.349604e+01	1.290449e+02
1.020000e-06	1.987069e-06	2.216791e-09	1.417533e+01	1.438062e+02
1.030000e-06	2.081598e-06	2.437284e-09	1.484968e+01	1.584232e+02
1.040000e-06	2.175418e-06	2.652882e-09	1.551897e+01	1.728193e+02
1.050000e-06	2.268503e-06	2.863012e-09	1.618302e+01	1.869273e+02
1.060000e-06	2.360928e-06	3.070018e-09	1.684236e+01	2.006928e+02
1.070000e-06	2.452640e-06	3.270636e-09	1.749662e+01	2.140772e+02
1.080000e-06	2.543456e-06	3.464717e-09	1.814448e+01	2.270569e+02
1.090000e-06	2.633201e-06	3.655332e-09	1.878470e+01	2.396220e+02
1.100000e-06	2.721882e-06	3.842912e-09	1.941734e+01	2.517733e+02
1.110000e-06	2.809559e-06	4.022009e-09	2.004280e+01	2.635173e+02
1.120000e-06	2.896302e-06	4.193012e-09	2.066161e+01	2.748636e+02
1.130000e-06	2.982127e-06	4.360244e-09	2.127386e+01	2.858206e+02
1.140000e-06	3.066979e-06	4.522805e-09	2.187918e+01	2.963946e+02
1.150000e-06	3.150927e-06	4.678162e-09	2.247805e+01	3.065889e+02
1.160000e-06	3.233834e-06	4.826762e-09	2.306949e+01	3.164047e+02
1.170000e-06	3.315462e-06	4.970200e-09	2.365180e+01	3.258427e+02
1.180000e-06	3.395865e-06	5.108559e-09	2.422539e+01	3.349046e+02
1.190000e-06	3.475112e-06	5.241343e-09	2.479072e+01	3.435946e+02
1.200000e-06	3.553113e-06	5.368297e-09	2.534716e+01	3.519198e+02
1.210000e-06	3.629901e-06	5.491345e-09	2.589495e+01	3.598901e+02
1.220000e-06	3.705361e-06	5.606216e-09	2.643327e+01	3.675173e+02
1.230000e-06	3.779212e-06	5.713178e-09	2.696010e+01	3.748147e+02
1.240000e-06	3.851470e-06	5.814769e-09	2.747558e+01	3.817955e+02
1.250000e-06	3.922332e-06	5.915830e-09	2.798109e+01	3.884730e+02
1.260000e-06	3.991848e-06	6.014569e-09	2.847700e+01	3.948610e+02
1.270000e-06	4.060049e-06	6.109352e-09	2.896353e+01	4.009736e+02
1.280000e-06	4.126873e-06	6.200436e-09	2.944024e+01	4.068267e+02
1.290000e-06	4.192007e-06	6.287274e-09	2.990489e+01	4.124376e+02
1.300000e-06	4.255480e-06	6.369401e-09	3.035770e+01	4.178249e+02
1.310000e-06	4.317525e-06	6.447129e-09	3.080032e+01	4.230074e+02
1.320000e-06	4.378188e-06	6.523841e-09	3.123307e+01	4.280020e+02
1.330000e-06	4.437408e-06	6.597749e-09	3.165553e+01	4.328220e+02
1.340000e-06	4.494953e-06	6.666182e-09	3.206605e+01	4.374756e+02
1.350000e-06	4.550770e-06	6.732572e-09	3.246423e+01	4.419645e+02
1.360000e-06	4.604987e-06	6.798675e-09	3.285100e+01	4.462850e+02
1.370000e-06	4.657528e-06	6.860434e-09	3.322582e+01	4.504290e+02
1.380000e-06	4.708064e-06	6.917951e-09	3.358634e+01	4.543869e+02
1.390000e-06	4.756592e-06	6.974958e-09	3.393253e+01	4.581500e+02
1.400000e-06	4.803407e-06	7.031036e-09	3.426649e+01	4.617136e+02
1.410000e-06	4.848638e-06	7.082306e-09	3.458917e+01	4.650777e+02
1.420000e-06	4.892332e-06	7.129027e-09	3.490086e+01	4.682482e+02
1.430000e-06	4.934148e-06	7.172341e-09	3.519917e+01	4.712347e+02
1.440000e-06	4.974013e-06	7.212058e-09	3.548356e+01	4.740491e+02
1.450000e-06	5.012286e-06	7.248728e-09	3.575660e+01	4.767024e+02
1.460000e-06	5.049020e-06	7.284867e-09	3.601864e+01	4.792032e+02
1.470000e-06	5.084017e-06	7.321442e-09	3.626831e+01	4.815557e+02
1.480000e-06	5.117039e-06	7.354705e-09	3.650388e+01	4.837600e+02
1.490000e-06	5.148199e-06	7.383477e-09	3.672617e+01	4.858139e+02
1.500000e-06	5.177711e-06	7.410268e-09	3.693670e+01	4.877143e+02
1.510000e-06	5.205550e-06	7.436012e-09	3.713530e+01	4.894600e+02
1.520000e-06	5.231437e-06	7.460009e-09	3.731997e+01	4.910531e+02
1.530000e-06	5.255254e-06	7.481618e-09	3.748988e+01	4.924994e+02
1.540000e-06	5.277204e-06	7.501233e-09	3.764646e+01	4.938081e+02
1.550000e-06	5.297432e-06	7.519032e-09	3.779076e+01	4.949890e+02
1.560000e-06	5.315862e-06	7.534477e-09	3.792224e+01	4.960506e+02
1.570000e-06	5.332282e-06	7.547144e-09	3.803938e+01	4.969978e+02
1.580000e-06	5.346678e-06	7.557950e-09	3.814207e+01	4.978305e+02
1.590000e-06	5.359118e-06	7.568875e-09	3.823082e+01	4.985441e+02
1.600000e-06	5.369374e-06	7.579847e-09	3.830399e+01	4.991314e+02
1.610000e-06	5.377453e-06	7.589078e-09	3.836162e+01	4.995855e+02
1.620000e-06	5.383689e-06	7.596111e-09	3.840610e+01	4.999028e+02
1.630000e-06	5.388177e-06	7.601612e-09	3.843812e+01	5.000859e+02
1.640000e-06	5.390736e-06	7.604003e-09	3.845637e+01	5.001436e+02
1.650000e-06	5.391244e-06	7.606350e-09	3.846000e+01	5.000902e+02
1.660000e-06	5.389936e-06	7.605822e-09	3.845067e+01	4.999420e+02
1.670000e-06	5.386972e-06	7.598870e-09	3.842952e+01	4.997130e+02
1.680000e-06	5.382323e-06	7.595024e-09	3.839636e+01	4.994105e+02
1.690000e-06	5.375743e-06	7.591473e-09	3.834942e+01	4.990327e+02
1.700000e-06	5.367350e-06	7.586783e-09	3.828954e+01	4.985676e+02
1.710000e-06	5.357461e-06	7.581279e-09	3.821900e+01	4.979954e+02
1.720000e-06	5.345930e-06	7.575914e-09	3.813674e+01	4.972935e+02
1.730000e-06	5.332406e-06	7.584256e-09	3.804026e+01	4.964430e+02
1.740000e-06	5.316799e-06	7.503205e-09	3.792892e+01	4.954347e+02
1.750000e-06	5.298936e-06	7.452190e-09	3.780149e+01	4.942737e+02
1.760000e-06	5.278392e-06	7.480289e-09	3.765494e+01	4.929813e+02
1.770000e-06	5.255422e-06	7.458399e-09	3.749107e+01	4.915920e+02
1.780000e-06	5.231036e-06	7.544978e-09	3.731711e+01	4.901482e+02
1.790000e-06	5.206003e-06	7.485517e-09	3.713853e+01	4.886907e+02
1.800000e-06	5.179744e-06	7.293027e-09	3.695120e+01	4.872507e+02
1.810000e-06	5.151227e-06	7.452244e-09	3.674777e+01	4.858413e+02
1.820000e-06	5.120740e-06	7.391191e-09	3.653028e+01	4.844537e+02
1.830000e-06	5.088674e-06	7.269003e-09	3.630153e+01	4.830572e+02
1.840000e-06	5.054721e-06	7.455905e-09	3.605932e+01	4.816041e+02
1.850000e-06	5.019127e-06	7.285290e-09	3.580540e+01	4.800383e+02
1.860000e-06	4.981763e-06	7.217424e-09	3.553885e+01	4.783057e+02
1.870000e-06	4.942445e-06	7.349729e-09	3.525836e+01	4.763640e+02
1.880000e-06	4.901539e-06	7.171972e-09	3.496655e+01	4.741906e+02
1.890000e-06	4.858878e-06	7.228483e-09	3.466222e+01	4.717854e+02
1.900000e-06	4.814571e-06	7.192859e-09	3.434613e+01	4.691694e+02
1.910000e-06	4.768534e-06	7.033481e-09	3.401772e+01	4.663792e+02
1.920000e-06	4.720403e-06	7.150500e-09	3.367436e+01	4.634576e+02
1.930000e-06	4.670609e-06	6.978602e-09	3.331914e+01	4.604451e+02
1.940000e-06	4.619196e-06	6.961592e-09	3.295237e+01	4.573708e+02
1.950000e-06	4.565729e-06	7.006243e-09	3.257095e+01	4.542482e+02
1.960000e-06	4.510285e-06	6.839492e-09	3.217543e+01	4.510739e+02
1.970000e-06	4.453096e-06	6.833979e-09	3.176745e+01	4.478305e+02
1.980000e-06	4.394401e-06	6.755506e-09	3.134873e+01	4.444927e+02
1.990000e-06	4.334254e-06	6.760922e-09	3.091965e+01	4.410342e+02
2.000000e-06	4.272428e-06	6.689885e-09	3.047860e+01	4.374350e+02
2.010000e-06	4.208989e-06	6.565804e-09	3.002604e+01	4.336852e+02
2.020000e-06	4.144046e-06	6.609861e-09	2.956275e+01	4.297872e+02
2.030000e-06	4.077605e-06	6.468715e-09	2.908878e+01	4.257537e+02
2.040000e-06	4.009801e-06	6.421656e-09	2.860507e+01	4.216034e+02
2.050000e-06	3.940553e-06	6.382155e-09	2.811107e+01	4.173561e+02
2.060000e-06	3.869701e-06	6.299312e-09	2.760563e+01	4.130270e+02
2.070000e-06	3.797420e-06	6.256074e-09	2.708999e+01	4.086232e+02
2.080000e-06	3.723902e-06	6.120518e-09	2.656553e+01	4.041427e+02
2.090000e-06	3.649069e-06	6.112833e-09	2.603169e+01	3.995751e+02
2.100000e-06	3.572833e-06	6.047071e-09	2.548784e+01	3.949050e+02
2.110000e-06	3.494967e-06	5.948390e-09	2.493236e+01	3.901162e+02
2.120000e-06	3.415605e-06	5.873282e-09	2.436621e+01	3.851955e+02
2.130000e-06	3.335184e-06	5.785329e-09	2.379250e+01	3.801360e+02
2.140000e-06	3.253665e-06	5.730097e-09	2.321096e+01	3.749376e+02
2.150000e-06	3.171015e-06	5.632175e-09	2.262136e+01	3.696065e+02
2.160000e-06	3.087378e-06	5.572980e-09	2.202470e+01	3.641524e+02
2.170000e-06	3.002742e-06	5.480624e-09	2.142093e+01	3.585854e+02
2.180000e-06	2.916768e-06	5.386535e-09	2.080761e+01	3.529128e+02
2.190000e-06	2.829426e-06	5.300397e-09	2.018453e+01	3.471370e+02
2.200000e-06	2.741124e-06	5.211974e-09	1.955460e+01	3.412548e+02
2.210000e-06	2.651924e-06	5.136563e-09	1.891827e+01	3.352578e+02
2.220000e-06	2.561779e-06	5.030832e-09	1.827519e+01	3.291346e+02
2.230000e-06	2.470765e-06	4.937183e-09	1.762591e+01	3.228735e+02
2.240000e-06	2.379020e-06	4.830893e-09	1.697143e+01	3.164645e+02
2.250000e-06	2.286568e-06	4.736607e-09	1.631190e+01	3.099013e+02
2.260000e-06	2.193311e-06	4.640738e-09	1.564662e+01	3.031821e+02
2.270000e-06	2.099036e-06	4.532197e-09	1.497408e+01	2.963087e+02
2.280000e-06	2.003674e-06	4.419523e-09	1.429378e+01	2.892860e+02
2.290000e-06	1.907542e-06	4.310267e-09	1.360800e+01	2.821198e+02
2.300000e-06	1.810904e-06	4.208786e-09	1.291861e+01	2.748150e+02
2.310000e-06	1.713817e-06	4.097390e-09	1.222601e+01	2.673748e+02
2.320000e-06	1.616191e-06	3.982304e-09	1.152957e+01	2.598000e+02
2.330000e-06	1.517990e-06	3.860546e-09	1.082902e+01	2.520887e+02
2.340000e-06	1.419263e-06	3.740850e-09	1.012472e+01	2.442373e+02
2.350000e-06	1.320112e-06	3.615450e-09	9.417399e+00	2.362408e+02
2.360000e-06	1.220623e-06	3.495441e-09	8.707669e+00	2.280937e+02
2.370000e-06	1.120875e-06	3.375475e-09	7.996087e+00	2.197906e+02
2.380000e-06	1.020873e-06	3.242676e-09	7.282692e+00	2.113256e+02
2.390000e-06	9.205594e-07	3.106590e-09	6.567077e+00	2.026930e+02
2.400000e-06	8.198610e-07	2.974265e-09	5.848716e+00	1.938861e+02
2.410000e-06	7.187668e-07	2.845768e-09	5.127531e+00	1.848976e+02
2.420000e-06	6.173752e-07	2.706744e-09	4.404225e+00	1.757193e+02
2.430000e-06	5.157142e-07	2.559291e-09	3.678996e+00	1.663424e+02
2.440000e-06	4.138564e-07	2.411197e-09	2.952364e+00	1.567577e+02
2.450000e-06	3.118248e-07	2.263459e-09	2.224492e+00	1.469568e+02
2.460000e-06	2.096114e-07	2.112426e-09	1.495324e+00	1.369318e+02
2.470000e-06	1.072446e-07	1.960823e-09	7.650605e-01	1.266763e+02
2.480000e-06	4.726471e-09	1.803853e-09	3.371765e-02	1.161855e+02
2.490000e-06	-9.777387e-08	1.638620e-09	-6.974982e-01	1.054554e+02
2.500000e-06	-2.001536e-07	1.471202e-09	-1.427854e+00	9.448302e+01
2.510000e-06	-3.024979e-07	1.303898e-09	-2.157956e+00	8.326577e+01
2.520000e-06	-4.047599e-07	1.134891e-09	-2.887472e+00	7.180065e+01
2.530000e-06	-5.068819e-07	9.544821e-10	-3.615989e+00	6.008396e+01
2.540000e-06	-6.087932e-07	7.657208e-10	-4.343002e+00	4.811096e+01
2.550000e-06	-7.103625e-07	5.773187e-10	-5.067576e+00	3.587579e+01
2.560000e-06	-8.115917e-07	3.879890e-10	-5.789725e+00	2.337173e+01
2.570000e-06	-9.124739e-07	1.929088e-10	-6.509397e+00	1.059178e+01
2.580000e-06	-1.012987e-06	-8.597692e-12	-7.226433e+00	-2.470302e+00
2.590000e-06	-1.113130e-06	-2.152390e-10	-7.940837e+00	-1.581845e+01
2.600000e-06	-1.212855e-06	-4.262321e-10	-8.652254e+00	-2.945226e+01
2.610000e-06	-1.312166e-06	-6.403194e-10	-9.360717e+00	-4.336466e+01
2.620000e-06	-1.411042e-06	-8.575850e-10	-1.006607e+01	-5.753942e+01
2.630000e-06	-1.509435e-06	-1.078262e-09	-1.076799e+01	-7.194891e+01
2.640000e-06	-1.607282e-06	-1.303222e-09	-1.146601e+01	-8.655262e+01
2.650000e-06	-1.704521e-06	-1.530912e-09	-1.215970e+01	-1.012968e+02
2.660000e-06	-1.801252e-06	-1.758929e-09	-1.284976e+01	-1.161157e+02
2.670000e-06	-1.897502e-06	-1.985989e-09	-1.353638e+01	-1.309340e+02
2.680000e-06	-1.993117e-06	-2.211870e-09	-1.421848e+01	-1.456716e+02
2.690000e-06	-2.087906e-06	-2.435984e-09	-1.489468e+01	-1.602478e+02
2.700000e-06	-2.181763e-06	-2.656593e-09	-1.556423e+01	-1.745879e+02
2.710000e-06	-2.274748e-06	-2.872382e-09	-1.622758e+01	-1.886269e+02
2.720000e-06	-2.366838e-06	-3.083556e-09	-1.688453e+01	-2.023139e+02
2.730000e-06	-2.458036e-06	-3.289657e-09	-1.753511e+01	-2.156134e+02
2.740000e-06	-2.548405e-06	-3.488312e-09	-1.817979e+01	-2.285051e+02
2.750000e-06	-2.637869e-06	-3.680918e-09	-1.881800e+01	-2.409816e+02
2.760000e-06	-2.726536e-06	-3.868329e-09	-1.945053e+01	-2.530452e+02
2.770000e-06	-2.814447e-06	-4.048737e-09	-2.007767e+01	-2.647036e+02
2.780000e-06	-2.901289e-06	-4.220586e-09	-2.069719e+01	-2.759662e+02
2.790000e-06	-2.986946e-06	-4.383949e-09	-2.130824e+01	-2.868411e+02
2.800000e-06	-3.071512e-06	-4.542180e-09	-2.191152e+01	-2.973340e+02
2.810000e-06	-3.154978e-06	-4.695845e-09	-2.250695e+01	-3.074475e+02
2.820000e-06	-3.237360e-06	-4.842030e-09	-2.309464e+01	-3.171826e+02
2.830000e-06	-3.318694e-06	-4.981566e-09	-2.367486e+01	-3.265402e+02
2.840000e-06	-3.399023e-06	-5.118813e-09	-2.424791e+01	-3.355224e+02
2.850000e-06	-3.478129e-06	-5.254203e-09	-2.481224e+01	-3.441339e+02
2.860000e-06	-3.555743e-06	-5.385118e-09	-2.536592e+01	-3.523825e+02
2.870000e-06	-3.631871e-06	-5.510049e-09	-2.590900e+01	-3.602786e+02
2.880000e-06	-3.706551e-06	-5.627761e-09	-2.644175e+01	-3.678345e+02
2.890000e-06	-3.779877e-06	-5.736583e-09	-2.696484e+01	-3.750632e+02
2.900000e-06	-3.851978e-06	-5.839361e-09	-2.747920e+01	-3.819783e+02
2.910000e-06	-3.922617e-06	-5.940734e-09	-2.798312e+01	-3.885930e+02
2.920000e-06	-3.991641e-06	-6.038336e-09	-2.847552e+01	-3.949211e+02
2.930000e-06	-4.059218e-06	-6.129202e-09	-2.895760e+01	-4.009771e+02
2.940000e-06	-4.125396e-06	-6.216858e-09	-2.942971e+01	-4.067772e+02
