# Temperatura_=_64.08
# Concentracion g/m^3_=_15000.0
# C_Vs_to_Am_M_A/Vsm_=_65563218390.804596
# pendiente_HvsI_1/m_=_3716.3
# ordenada_HvsI_A/m_=_1297.0
# frecuencia_Hz_=_301592.86314045236

Tiempo_(s)	Campo_(V.s)	Magnetizacion_(V.s)	Campo_(kA/m)	Magnetizacion_(A/m)
0.000000e+00	-5.384087e-06	-6.798005e-09	-3.833496e+01	-4.444534e+02
1.000000e-08	-5.381325e-06	-6.794325e-09	-3.831530e+01	-4.442361e+02
2.000000e-08	-5.376753e-06	-6.789498e-09	-3.828275e+01	-4.439732e+02
3.000000e-08	-5.370665e-06	-6.784336e-09	-3.823940e+01	-4.436542e+02
4.000000e-08	-5.363026e-06	-6.776207e-09	-3.818501e+01	-4.432582e+02
5.000000e-08	-5.353603e-06	-6.765353e-09	-3.811792e+01	-4.427599e+02
6.000000e-08	-5.342097e-06	-6.753430e-09	-3.803599e+01	-4.421357e+02
7.000000e-08	-5.328689e-06	-6.738940e-09	-3.794053e+01	-4.413715e+02
8.000000e-08	-5.313174e-06	-6.727269e-09	-3.783006e+01	-4.404671e+02
9.000000e-08	-5.295276e-06	-6.753994e-09	-3.770263e+01	-4.394382e+02
1.000000e-07	-5.275310e-06	-6.745825e-09	-3.756047e+01	-4.383138e+02
1.100000e-07	-5.253457e-06	-6.692393e-09	-3.740488e+01	-4.371305e+02
1.200000e-07	-5.229903e-06	-6.663862e-09	-3.723717e+01	-4.359242e+02
1.300000e-07	-5.204889e-06	-6.598038e-09	-3.705907e+01	-4.347215e+02
1.400000e-07	-5.178267e-06	-6.573848e-09	-3.686952e+01	-4.335330e+02
1.500000e-07	-5.149981e-06	-6.662579e-09	-3.666812e+01	-4.323503e+02
1.600000e-07	-5.120251e-06	-6.582217e-09	-3.645644e+01	-4.311468e+02
1.700000e-07	-5.088970e-06	-6.552461e-09	-3.623372e+01	-4.298834e+02
1.800000e-07	-5.055569e-06	-6.612093e-09	-3.599590e+01	-4.285160e+02
1.900000e-07	-5.020230e-06	-6.490752e-09	-3.574429e+01	-4.270054e+02
2.000000e-07	-4.983465e-06	-6.474926e-09	-3.548252e+01	-4.253246e+02
2.100000e-07	-4.944921e-06	-6.462704e-09	-3.520808e+01	-4.234641e+02
2.200000e-07	-4.904562e-06	-6.354831e-09	-3.492072e+01	-4.214322e+02
2.300000e-07	-4.862295e-06	-6.375098e-09	-3.461978e+01	-4.192524e+02
2.400000e-07	-4.818097e-06	-6.386661e-09	-3.430509e+01	-4.169561e+02
2.500000e-07	-4.772178e-06	-6.349107e-09	-3.397815e+01	-4.145753e+02
2.600000e-07	-4.724400e-06	-6.322857e-09	-3.363796e+01	-4.121352e+02
2.700000e-07	-4.674560e-06	-6.222850e-09	-3.328310e+01	-4.096486e+02
2.800000e-07	-4.622611e-06	-6.192066e-09	-3.291322e+01	-4.071149e+02
2.900000e-07	-4.568741e-06	-6.186200e-09	-3.252967e+01	-4.045216e+02
3.000000e-07	-4.513250e-06	-6.142232e-09	-3.213456e+01	-4.018487e+02
3.100000e-07	-4.456126e-06	-6.094139e-09	-3.172784e+01	-3.990753e+02
3.200000e-07	-4.397182e-06	-6.034457e-09	-3.130815e+01	-3.961848e+02
3.300000e-07	-4.336627e-06	-5.984923e-09	-3.087700e+01	-3.931692e+02
3.400000e-07	-4.274580e-06	-5.925579e-09	-3.043522e+01	-3.900303e+02
3.500000e-07	-4.211172e-06	-5.901022e-09	-2.998375e+01	-3.867784e+02
3.600000e-07	-4.146358e-06	-5.860217e-09	-2.952227e+01	-3.834282e+02
3.700000e-07	-4.079841e-06	-5.781626e-09	-2.904867e+01	-3.799947e+02
3.800000e-07	-4.011729e-06	-5.733805e-09	-2.856371e+01	-3.764882e+02
3.900000e-07	-3.942244e-06	-5.691222e-09	-2.806897e+01	-3.729116e+02
4.000000e-07	-3.871455e-06	-5.637762e-09	-2.756495e+01	-3.692599e+02
4.100000e-07	-3.799483e-06	-5.564953e-09	-2.705251e+01	-3.655214e+02
4.200000e-07	-3.726120e-06	-5.488025e-09	-2.653016e+01	-3.616814e+02
4.300000e-07	-3.651093e-06	-5.433739e-09	-2.599596e+01	-3.577256e+02
4.400000e-07	-3.574572e-06	-5.386371e-09	-2.545113e+01	-3.536437e+02
4.500000e-07	-3.496758e-06	-5.342811e-09	-2.489709e+01	-3.494319e+02
4.600000e-07	-3.417513e-06	-5.286078e-09	-2.433286e+01	-3.450927e+02
4.700000e-07	-3.336905e-06	-5.202227e-09	-2.375893e+01	-3.406335e+02
4.800000e-07	-3.255076e-06	-5.107812e-09	-2.317631e+01	-3.360645e+02
4.900000e-07	-3.172073e-06	-5.029934e-09	-2.258532e+01	-3.313946e+02
5.000000e-07	-3.088085e-06	-4.971001e-09	-2.198732e+01	-3.266299e+02
5.100000e-07	-3.003224e-06	-4.901597e-09	-2.138311e+01	-3.217715e+02
5.200000e-07	-2.917423e-06	-4.823703e-09	-2.077220e+01	-3.168157e+02
5.300000e-07	-2.830547e-06	-4.739738e-09	-2.015364e+01	-3.117553e+02
5.400000e-07	-2.742796e-06	-4.660216e-09	-1.952884e+01	-3.065815e+02
5.500000e-07	-2.654201e-06	-4.588620e-09	-1.889804e+01	-3.012862e+02
5.600000e-07	-2.564425e-06	-4.509973e-09	-1.825883e+01	-2.958633e+02
5.700000e-07	-2.473479e-06	-4.420190e-09	-1.761130e+01	-2.903097e+02
5.800000e-07	-2.381601e-06	-4.320622e-09	-1.695711e+01	-2.846247e+02
5.900000e-07	-2.288905e-06	-4.231214e-09	-1.629712e+01	-2.788097e+02
6.000000e-07	-2.195494e-06	-4.148346e-09	-1.563203e+01	-2.728663e+02
6.100000e-07	-2.101328e-06	-4.059005e-09	-1.496156e+01	-2.667957e+02
6.200000e-07	-2.006345e-06	-3.959939e-09	-1.428528e+01	-2.605979e+02
6.300000e-07	-1.910727e-06	-3.856100e-09	-1.360447e+01	-2.542724e+02
6.400000e-07	-1.814509e-06	-3.757826e-09	-1.291939e+01	-2.478182e+02
6.500000e-07	-1.717563e-06	-3.667026e-09	-1.222914e+01	-2.412352e+02
6.600000e-07	-1.619817e-06	-3.575490e-09	-1.153318e+01	-2.345245e+02
6.700000e-07	-1.521334e-06	-3.467004e-09	-1.083198e+01	-2.276880e+02
6.800000e-07	-1.422242e-06	-3.346213e-09	-1.012643e+01	-2.207284e+02
6.900000e-07	-1.322638e-06	-3.227178e-09	-9.417250e+00	-2.136471e+02
7.000000e-07	-1.222659e-06	-3.119118e-09	-8.705394e+00	-2.064433e+02
7.100000e-07	-1.122337e-06	-3.014245e-09	-7.991098e+00	-1.991123e+02
7.200000e-07	-1.021682e-06	-2.901148e-09	-7.274424e+00	-1.916460e+02
7.300000e-07	-9.207500e-07	-2.783080e-09	-6.555786e+00	-1.840325e+02
7.400000e-07	-8.195737e-07	-2.662377e-09	-5.835405e+00	-1.762584e+02
7.500000e-07	-7.181487e-07	-2.542563e-09	-5.113254e+00	-1.683105e+02
7.600000e-07	-6.164476e-07	-2.422885e-09	-4.389138e+00	-1.601779e+02
7.700000e-07	-5.145191e-07	-2.297000e-09	-3.663401e+00	-1.518530e+02
7.800000e-07	-4.124115e-07	-2.161066e-09	-2.936390e+00	-1.433326e+02
7.900000e-07	-3.101891e-07	-2.019634e-09	-2.208562e+00	-1.346167e+02
8.000000e-07	-2.078305e-07	-1.880844e-09	-1.479764e+00	-1.257066e+02
8.100000e-07	-1.053351e-07	-1.746909e-09	-7.499914e-01	-1.166032e+02
8.200000e-07	-2.813693e-09	-1.608142e-09	-2.003363e-02	-1.073048e+02
8.300000e-07	9.975502e-08	-1.458588e-09	7.102607e-01	-9.780619e+01
8.400000e-07	2.023362e-07	-1.304873e-09	1.440644e+00	-8.809830e+01
8.500000e-07	3.048720e-07	-1.152172e-09	2.170704e+00	-7.816976e+01
8.600000e-07	4.073263e-07	-1.000004e-09	2.900183e+00	-6.800870e+01
8.700000e-07	5.096228e-07	-8.418133e-10	3.628539e+00	-5.760498e+01
8.800000e-07	6.117596e-07	-6.746669e-10	4.355758e+00	-4.695194e+01
8.900000e-07	7.137216e-07	-5.023415e-10	5.081733e+00	-3.604719e+01
9.000000e-07	8.154442e-07	-3.288969e-10	5.806003e+00	-2.489212e+01
9.100000e-07	9.168369e-07	-1.558898e-10	6.527925e+00	-1.349061e+01
9.200000e-07	1.017885e-06	1.639068e-11	7.247393e+00	-1.847190e+00
9.300000e-07	1.118627e-06	1.921103e-10	7.964683e+00	1.003435e+01
9.400000e-07	1.219026e-06	3.753548e-10	8.679525e+00	2.215132e+01
9.500000e-07	1.319060e-06	5.631311e-10	9.391771e+00	3.450094e+01
9.600000e-07	1.418619e-06	7.522022e-10	1.010064e+01	4.707758e+01
9.700000e-07	1.517552e-06	9.438949e-10	1.080504e+01	5.986898e+01
9.800000e-07	1.615853e-06	1.140613e-09	1.150495e+01	7.285229e+01
9.900000e-07	1.713431e-06	1.342026e-09	1.219971e+01	8.599099e+01
1.000000e-06	1.810234e-06	1.544259e-09	1.288896e+01	9.923379e+01
1.010000e-06	1.906305e-06	1.744017e-09	1.357299e+01	1.125159e+02
1.020000e-06	2.001695e-06	1.940221e-09	1.425217e+01	1.257631e+02
1.030000e-06	2.096378e-06	2.133064e-09	1.492632e+01	1.388973e+02
1.040000e-06	2.190274e-06	2.325346e-09	1.559486e+01	1.518436e+02
1.050000e-06	2.283446e-06	2.516087e-09	1.625825e+01	1.645368e+02
1.060000e-06	2.375950e-06	2.703408e-09	1.691688e+01	1.769257e+02
1.070000e-06	2.467696e-06	2.886607e-09	1.757012e+01	1.889761e+02
1.080000e-06	2.558536e-06	3.065668e-09	1.821691e+01	2.006699e+02
1.090000e-06	2.648350e-06	3.242281e-09	1.885639e+01	2.120022e+02
1.100000e-06	2.737042e-06	3.414839e-09	1.948788e+01	2.229768e+02
1.110000e-06	2.824736e-06	3.578169e-09	2.011226e+01	2.336011e+02
1.120000e-06	2.911549e-06	3.733011e-09	2.073037e+01	2.438818e+02
1.130000e-06	2.997432e-06	3.880940e-09	2.134186e+01	2.538219e+02
1.140000e-06	3.082379e-06	4.023118e-09	2.194669e+01	2.634202e+02
1.150000e-06	3.166386e-06	4.161702e-09	2.254483e+01	2.726717e+02
1.160000e-06	3.249371e-06	4.296765e-09	2.313569e+01	2.815705e+02
1.170000e-06	3.331072e-06	4.428230e-09	2.371740e+01	2.901118e+02
1.180000e-06	3.411502e-06	4.554953e-09	2.429006e+01	2.982948e+02
1.190000e-06	3.490781e-06	4.676147e-09	2.485453e+01	3.061237e+02
1.200000e-06	3.568826e-06	4.790682e-09	2.541022e+01	3.136079e+02
1.210000e-06	3.645626e-06	4.898353e-09	2.595704e+01	3.207610e+02
1.220000e-06	3.721100e-06	4.999101e-09	2.649442e+01	3.275998e+02
1.230000e-06	3.795016e-06	5.094293e-09	2.702070e+01	3.341417e+02
1.240000e-06	3.867341e-06	5.185461e-09	2.753566e+01	3.404047e+02
1.250000e-06	3.938243e-06	5.276223e-09	2.804048e+01	3.464056e+02
1.260000e-06	4.007769e-06	5.366839e-09	2.853551e+01	3.521610e+02
1.270000e-06	4.075943e-06	5.453464e-09	2.902092e+01	3.576870e+02
1.280000e-06	4.142583e-06	5.535714e-09	2.949539e+01	3.629993e+02
1.290000e-06	4.207506e-06	5.614856e-09	2.995765e+01	3.681137e+02
1.300000e-06	4.270917e-06	5.691014e-09	3.040914e+01	3.730446e+02
1.310000e-06	4.332992e-06	5.762458e-09	3.085112e+01	3.778038e+02
1.320000e-06	4.393742e-06	5.829988e-09	3.128366e+01	3.823993e+02
1.330000e-06	4.453097e-06	5.895997e-09	3.170627e+01	3.868343e+02
1.340000e-06	4.510663e-06	5.959302e-09	3.211614e+01	3.911068e+02
1.350000e-06	4.566397e-06	6.020138e-09	3.251298e+01	3.952104e+02
1.360000e-06	4.620502e-06	6.080272e-09	3.289820e+01	3.991364e+02
1.370000e-06	4.672851e-06	6.137365e-09	3.327093e+01	4.028764e+02
1.380000e-06	4.723178e-06	6.189990e-09	3.362926e+01	4.064246e+02
1.390000e-06	4.771563e-06	6.240635e-09	3.397376e+01	4.097798e+02
1.400000e-06	4.818273e-06	6.289718e-09	3.430634e+01	4.129460e+02
1.410000e-06	4.863383e-06	6.333988e-09	3.462753e+01	4.159318e+02
1.420000e-06	4.906917e-06	6.374315e-09	3.493749e+01	4.187481e+02
1.430000e-06	4.948545e-06	6.412383e-09	3.523389e+01	4.214059e+02
1.440000e-06	4.988324e-06	6.448595e-09	3.551711e+01	4.239135e+02
1.450000e-06	5.026519e-06	6.483824e-09	3.578906e+01	4.262749e+02
1.460000e-06	5.063153e-06	6.516774e-09	3.604990e+01	4.284898e+02
1.470000e-06	5.098030e-06	6.548312e-09	3.629823e+01	4.305549e+02
1.480000e-06	5.130886e-06	6.577785e-09	3.653216e+01	4.324661e+02
1.490000e-06	5.161941e-06	6.603747e-09	3.675328e+01	4.342215e+02
1.500000e-06	5.191357e-06	6.627395e-09	3.696272e+01	4.358236e+02
1.510000e-06	5.219030e-06	6.648668e-09	3.715975e+01	4.372806e+02
1.520000e-06	5.244651e-06	6.668016e-09	3.734217e+01	4.386051e+02
1.530000e-06	5.268213e-06	6.685112e-09	3.750994e+01	4.398120e+02
1.540000e-06	5.289994e-06	6.700020e-09	3.766502e+01	4.409153e+02
1.550000e-06	5.310081e-06	6.715439e-09	3.780804e+01	4.419240e+02
1.560000e-06	5.328233e-06	6.730842e-09	3.793729e+01	4.428404e+02
1.570000e-06	5.344346e-06	6.744203e-09	3.805201e+01	4.436589e+02
1.580000e-06	5.358590e-06	6.755568e-09	3.815343e+01	4.443683e+02
1.590000e-06	5.370838e-06	6.765910e-09	3.824063e+01	4.449546e+02
1.600000e-06	5.380792e-06	6.774126e-09	3.831150e+01	4.454064e+02
1.610000e-06	5.388648e-06	6.779116e-09	3.836744e+01	4.457184e+02
1.620000e-06	5.394715e-06	6.782029e-09	3.841064e+01	4.458949e+02
1.630000e-06	5.398998e-06	6.784141e-09	3.844114e+01	4.459496e+02
1.640000e-06	5.401324e-06	6.784654e-09	3.845769e+01	4.459035e+02
1.650000e-06	5.401648e-06	6.786680e-09	3.846000e+01	4.457798e+02
1.660000e-06	5.400256e-06	6.786923e-09	3.845009e+01	4.455987e+02
1.670000e-06	5.397227e-06	6.782294e-09	3.842852e+01	4.453714e+02
1.680000e-06	5.392427e-06	6.779508e-09	3.839435e+01	4.450973e+02
1.690000e-06	5.385690e-06	6.775908e-09	3.834638e+01	4.447633e+02
1.700000e-06	5.377193e-06	6.771688e-09	3.828588e+01	4.443472e+02
1.710000e-06	5.367112e-06	6.766436e-09	3.821411e+01	4.438231e+02
1.720000e-06	5.355259e-06	6.759973e-09	3.812971e+01	4.431693e+02
1.730000e-06	5.341377e-06	6.758597e-09	3.803087e+01	4.423740e+02
1.740000e-06	5.325498e-06	6.696071e-09	3.791781e+01	4.414406e+02
1.750000e-06	5.307397e-06	6.663096e-09	3.778893e+01	4.403879e+02
1.760000e-06	5.286533e-06	6.683816e-09	3.764038e+01	4.392472e+02
1.770000e-06	5.263290e-06	6.671164e-09	3.747489e+01	4.380557e+02
1.780000e-06	5.238708e-06	6.727504e-09	3.729986e+01	4.368480e+02
1.790000e-06	5.213471e-06	6.672571e-09	3.712018e+01	4.356476e+02
1.800000e-06	5.186999e-06	6.533280e-09	3.693169e+01	4.344612e+02
1.810000e-06	5.158161e-06	6.619021e-09	3.672636e+01	4.332764e+02
1.820000e-06	5.127366e-06	6.562476e-09	3.650710e+01	4.320632e+02
1.830000e-06	5.095059e-06	6.482155e-09	3.627708e+01	4.307806e+02
1.840000e-06	5.060868e-06	6.598534e-09	3.603363e+01	4.293851e+02
1.850000e-06	5.025103e-06	6.510057e-09	3.577898e+01	4.278393e+02
1.860000e-06	4.987567e-06	6.495055e-09	3.551172e+01	4.261197e+02
1.870000e-06	4.948119e-06	6.547846e-09	3.523085e+01	4.242207e+02
1.880000e-06	4.907082e-06	6.389697e-09	3.493867e+01	4.221543e+02
1.890000e-06	4.864182e-06	6.380397e-09	3.463322e+01	4.199462e+02
1.900000e-06	4.819518e-06	6.325718e-09	3.431521e+01	4.176288e+02
1.910000e-06	4.773029e-06	6.267801e-09	3.398421e+01	4.152331e+02
1.920000e-06	4.724568e-06	6.365936e-09	3.363916e+01	4.127819e+02
1.930000e-06	4.674568e-06	6.237918e-09	3.328316e+01	4.102852e+02
1.940000e-06	4.622814e-06	6.207063e-09	3.291467e+01	4.077397e+02
1.950000e-06	4.568928e-06	6.199441e-09	3.253099e+01	4.051307e+02
1.960000e-06	4.513138e-06	6.084512e-09	3.213377e+01	4.024375e+02
1.970000e-06	4.455582e-06	6.074971e-09	3.172396e+01	3.996397e+02
1.980000e-06	4.396629e-06	6.024303e-09	3.130422e+01	3.967222e+02
1.990000e-06	4.336180e-06	6.025440e-09	3.087381e+01	3.936792e+02
2.000000e-06	4.273889e-06	5.953243e-09	3.043031e+01	3.905146e+02
2.010000e-06	4.210039e-06	5.874240e-09	2.997569e+01	3.872398e+02
2.020000e-06	4.144769e-06	5.890449e-09	2.951096e+01	3.838702e+02
2.030000e-06	4.078094e-06	5.783901e-09	2.903623e+01	3.804199e+02
2.040000e-06	4.009899e-06	5.738937e-09	2.855068e+01	3.768979e+02
2.050000e-06	3.940074e-06	5.690443e-09	2.805353e+01	3.733054e+02
2.060000e-06	3.868833e-06	5.635330e-09	2.754628e+01	3.696358e+02
2.070000e-06	3.796347e-06	5.597025e-09	2.703018e+01	3.658764e+02
2.080000e-06	3.722595e-06	5.501215e-09	2.650506e+01	3.620122e+02
2.090000e-06	3.647476e-06	5.469389e-09	2.597021e+01	3.580295e+02
2.100000e-06	3.570845e-06	5.387693e-09	2.542459e+01	3.539195e+02
2.110000e-06	3.492623e-06	5.303402e-09	2.486765e+01	3.496794e+02
2.120000e-06	3.413124e-06	5.253460e-09	2.430161e+01	3.453133e+02
2.130000e-06	3.332535e-06	5.205243e-09	2.372781e+01	3.408293e+02
2.140000e-06	3.250727e-06	5.153867e-09	2.314534e+01	3.362374e+02
2.150000e-06	3.167841e-06	5.063986e-09	2.255518e+01	3.315464e+02
2.160000e-06	3.083979e-06	4.987981e-09	2.195809e+01	3.267612e+02
2.170000e-06	2.998870e-06	4.898070e-09	2.135211e+01	3.218819e+02
2.180000e-06	2.912399e-06	4.826778e-09	2.073642e+01	3.169039e+02
2.190000e-06	2.824879e-06	4.758374e-09	2.011328e+01	3.118195e+02
2.200000e-06	2.736438e-06	4.681642e-09	1.948357e+01	3.066199e+02
2.210000e-06	2.647036e-06	4.606266e-09	1.884703e+01	3.012972e+02
2.220000e-06	2.556731e-06	4.517149e-09	1.820405e+01	2.958460e+02
2.230000e-06	2.465606e-06	4.436527e-09	1.755523e+01	2.902637e+02
2.240000e-06	2.373756e-06	4.344880e-09	1.690126e+01	2.845503e+02
2.250000e-06	2.281001e-06	4.257830e-09	1.624084e+01	2.787071e+02
2.260000e-06	2.187216e-06	4.167735e-09	1.557308e+01	2.727359e+02
2.270000e-06	2.092492e-06	4.069703e-09	1.489864e+01	2.666376e+02
2.280000e-06	1.996911e-06	3.972695e-09	1.421810e+01	2.604121e+02
2.290000e-06	1.900601e-06	3.880994e-09	1.353237e+01	2.540585e+02
2.300000e-06	1.803755e-06	3.785233e-09	1.284283e+01	2.475763e+02
2.310000e-06	1.706469e-06	3.675254e-09	1.215014e+01	2.409653e+02
2.320000e-06	1.608632e-06	3.567619e-09	1.145354e+01	2.342269e+02
2.330000e-06	1.510200e-06	3.469425e-09	1.075270e+01	2.273634e+02
2.340000e-06	1.411299e-06	3.375736e-09	1.004852e+01	2.203772e+02
2.350000e-06	1.312052e-06	3.270133e-09	9.341876e+00	2.132694e+02
2.360000e-06	1.212541e-06	3.156516e-09	8.633355e+00	2.060383e+02
2.370000e-06	1.112769e-06	3.036942e-09	7.922974e+00	1.986787e+02
2.380000e-06	1.012611e-06	2.914640e-09	7.209841e+00	1.911814e+02
2.390000e-06	9.119582e-07	2.801073e-09	6.493188e+00	1.835342e+02
2.400000e-06	8.108103e-07	2.692143e-09	5.773010e+00	1.757235e+02
2.410000e-06	7.092681e-07	2.576521e-09	5.050024e+00	1.677364e+02
2.420000e-06	6.074720e-07	2.446147e-09	4.325231e+00	1.595625e+02
2.430000e-06	5.054273e-07	2.312294e-09	3.598668e+00	1.511955e+02
2.440000e-06	4.031771e-07	2.184865e-09	2.870641e+00	1.426326e+02
2.450000e-06	3.008128e-07	2.056552e-09	2.141802e+00	1.338745e+02
2.460000e-06	1.983284e-07	1.918470e-09	1.412108e+00	1.249225e+02
2.470000e-06	9.570404e-08	1.776054e-09	6.814175e-01	1.157771e+02
2.480000e-06	-7.031580e-09	1.634084e-09	-5.006520e-02	1.064359e+02
2.490000e-06	-1.097587e-07	1.492239e-09	-7.814873e-01	9.689282e+01
2.500000e-06	-2.124410e-07	1.349551e-09	-1.512590e+00	8.713819e+01
2.510000e-06	-3.150430e-07	1.202143e-09	-2.243122e+00	7.716032e+01
2.520000e-06	-4.175368e-07	1.047937e-09	-2.972883e+00	6.694754e+01
2.530000e-06	-5.198882e-07	8.847261e-10	-3.701630e+00	5.649034e+01
2.540000e-06	-6.220514e-07	7.189932e-10	-4.429037e+00	4.578296e+01
2.550000e-06	-7.239280e-07	5.565587e-10	-5.154403e+00	3.482386e+01
2.560000e-06	-8.254648e-07	3.909770e-10	-5.877350e+00	2.361513e+01
2.570000e-06	-9.266417e-07	2.144061e-10	-6.597735e+00	1.216094e+01
2.580000e-06	-1.027365e-06	3.027608e-11	-7.314888e+00	4.657503e-01
2.590000e-06	-1.127635e-06	-1.547184e-10	-8.028815e+00	-1.146691e+01
2.600000e-06	-1.227419e-06	-3.392072e-10	-8.739282e+00	-2.363449e+01
2.610000e-06	-1.326713e-06	-5.261517e-10	-9.446261e+00	-3.603386e+01
2.620000e-06	-1.425617e-06	-7.180625e-10	-1.015046e+01	-4.865833e+01
2.630000e-06	-1.524101e-06	-9.166532e-10	-1.085168e+01	-6.149368e+01
2.640000e-06	-1.622051e-06	-1.120537e-09	-1.154908e+01	-7.451433e+01
2.650000e-06	-1.719386e-06	-1.324329e-09	-1.224211e+01	-8.768063e+01
2.660000e-06	-1.816110e-06	-1.528412e-09	-1.293079e+01	-1.009382e+02
2.670000e-06	-1.912280e-06	-1.734319e-09	-1.361553e+01	-1.142198e+02
2.680000e-06	-2.007844e-06	-1.941764e-09	-1.429595e+01	-1.274498e+02
2.690000e-06	-2.102783e-06	-2.147677e-09	-1.497192e+01	-1.405503e+02
2.700000e-06	-2.196976e-06	-2.344860e-09	-1.564258e+01	-1.534479e+02
2.710000e-06	-2.290163e-06	-2.533558e-09	-1.630608e+01	-1.660800e+02
2.720000e-06	-2.382365e-06	-2.717998e-09	-1.696256e+01	-1.783992e+02
2.730000e-06	-2.473695e-06	-2.900294e-09	-1.761283e+01	-1.903747e+02
2.740000e-06	-2.564141e-06	-3.078999e-09	-1.825681e+01	-2.019915e+02
2.750000e-06	-2.653653e-06	-3.250705e-09	-1.889414e+01	-2.132471e+02
2.760000e-06	-2.742261e-06	-3.417004e-09	-1.952503e+01	-2.241465e+02
2.770000e-06	-2.830047e-06	-3.579402e-09	-2.015008e+01	-2.346972e+02
2.780000e-06	-2.916981e-06	-3.737799e-09	-2.076905e+01	-2.449053e+02
2.790000e-06	-3.002852e-06	-3.888731e-09	-2.138046e+01	-2.547729e+02
2.800000e-06	-3.087421e-06	-4.031459e-09	-2.198259e+01	-2.642978e+02
2.810000e-06	-3.170778e-06	-4.167715e-09	-2.257610e+01	-2.734747e+02
2.820000e-06	-3.253125e-06	-4.298703e-09	-2.316241e+01	-2.822976e+02
2.830000e-06	-3.334454e-06	-4.427925e-09	-2.374148e+01	-2.907626e+02
2.840000e-06	-3.414705e-06	-4.556365e-09	-2.431287e+01	-2.988696e+02
2.850000e-06	-3.493856e-06	-4.681705e-09	-2.487643e+01	-3.066242e+02
2.860000e-06	-3.571584e-06	-4.798091e-09	-2.542985e+01	-3.140366e+02
2.870000e-06	-3.647702e-06	-4.905465e-09	-2.597182e+01	-3.211214e+02
2.880000e-06	-3.722407e-06	-5.009547e-09	-2.650373e+01	-3.278955e+02
2.890000e-06	-3.795762e-06	-5.109217e-09	-2.702602e+01	-3.343767e+02
2.900000e-06	-3.867779e-06	-5.202877e-09	-2.753878e+01	-3.405825e+02
2.910000e-06	-3.938463e-06	-5.291966e-09	-2.804205e+01	-3.465300e+02
2.920000e-06	-4.007568e-06	-5.377652e-09	-2.853409e+01	-3.522353e+02
2.930000e-06	-4.075107e-06	-5.461688e-09	-2.901496e+01	-3.577146e+02
2.940000e-06	-4.141273e-06	-5.543798e-09	-2.948607e+01	-3.629837e+02
