# Temperatura_=_52.28
# Concentracion g/m^3_=_15000.0
# C_Vs_to_Am_M_A/Vsm_=_65563218390.804596
# pendiente_HvsI_1/m_=_3716.3
# ordenada_HvsI_A/m_=_1297.0
# frecuencia_Hz_=_301596.89948509017

Tiempo_(s)	Campo_(V.s)	Magnetizacion_(V.s)	Campo_(kA/m)	Magnetizacion_(A/m)
0.000000e+00	-5.396827e-06	-6.391573e-09	-3.833299e+01	-4.177950e+02
1.000000e-08	-5.394208e-06	-6.390045e-09	-3.831438e+01	-4.176073e+02
2.000000e-08	-5.389729e-06	-6.384201e-09	-3.828257e+01	-4.173616e+02
3.000000e-08	-5.383635e-06	-6.378139e-09	-3.823928e+01	-4.170614e+02
4.000000e-08	-5.376017e-06	-6.371936e-09	-3.818517e+01	-4.167009e+02
5.000000e-08	-5.366601e-06	-6.363238e-09	-3.811829e+01	-4.162662e+02
6.000000e-08	-5.355071e-06	-6.352869e-09	-3.803640e+01	-4.157384e+02
7.000000e-08	-5.341631e-06	-6.339720e-09	-3.794094e+01	-4.150990e+02
8.000000e-08	-5.326129e-06	-6.323408e-09	-3.783083e+01	-4.143359e+02
9.000000e-08	-5.308310e-06	-6.358429e-09	-3.770426e+01	-4.134477e+02
1.000000e-07	-5.288462e-06	-6.358361e-09	-3.756328e+01	-4.124467e+02
1.100000e-07	-5.266783e-06	-6.297856e-09	-3.740930e+01	-4.113580e+02
1.200000e-07	-5.243358e-06	-6.277229e-09	-3.724291e+01	-4.102151e+02
1.300000e-07	-5.218386e-06	-6.206383e-09	-3.706554e+01	-4.090535e+02
1.400000e-07	-5.191789e-06	-6.161424e-09	-3.687663e+01	-4.079027e+02
1.500000e-07	-5.163536e-06	-6.296666e-09	-3.667595e+01	-4.067788e+02
1.600000e-07	-5.133862e-06	-6.196546e-09	-3.646518e+01	-4.056798e+02
1.700000e-07	-5.102645e-06	-6.125149e-09	-3.624345e+01	-4.045847e+02
1.800000e-07	-5.069277e-06	-6.226809e-09	-3.600644e+01	-4.034562e+02
1.900000e-07	-5.033907e-06	-6.097342e-09	-3.575521e+01	-4.022478e+02
2.000000e-07	-4.997162e-06	-6.115452e-09	-3.549421e+01	-4.009122e+02
2.100000e-07	-4.958663e-06	-6.169459e-09	-3.522076e+01	-3.994107e+02
2.200000e-07	-4.918318e-06	-6.015031e-09	-3.493420e+01	-3.977204e+02
2.300000e-07	-4.876104e-06	-5.990869e-09	-3.463436e+01	-3.958379e+02
2.400000e-07	-4.831928e-06	-6.002072e-09	-3.432058e+01	-3.937791e+02
2.500000e-07	-4.786044e-06	-5.962051e-09	-3.399467e+01	-3.915752e+02
2.600000e-07	-4.738338e-06	-5.978488e-09	-3.365582e+01	-3.892646e+02
2.700000e-07	-4.688495e-06	-5.883965e-09	-3.330179e+01	-3.868852e+02
2.800000e-07	-4.636449e-06	-5.834830e-09	-3.293212e+01	-3.844661e+02
2.900000e-07	-4.582502e-06	-5.826661e-09	-3.254894e+01	-3.820226e+02
3.000000e-07	-4.527028e-06	-5.790365e-09	-3.215491e+01	-3.795542e+02
3.100000e-07	-4.469944e-06	-5.763411e-09	-3.174945e+01	-3.770468e+02
3.200000e-07	-4.410966e-06	-5.713511e-09	-3.133054e+01	-3.744769e+02
3.300000e-07	-4.350360e-06	-5.662180e-09	-3.090006e+01	-3.718189e+02
3.400000e-07	-4.288361e-06	-5.592684e-09	-3.045969e+01	-3.690507e+02
3.500000e-07	-4.225010e-06	-5.581115e-09	-3.000971e+01	-3.661591e+02
3.600000e-07	-4.160137e-06	-5.566343e-09	-2.954893e+01	-3.631416e+02
3.700000e-07	-4.093512e-06	-5.482594e-09	-2.907570e+01	-3.600061e+02
3.800000e-07	-4.025324e-06	-5.422398e-09	-2.859137e+01	-3.567671e+02
3.900000e-07	-3.955804e-06	-5.377198e-09	-2.809758e+01	-3.534416e+02
4.000000e-07	-3.885036e-06	-5.334820e-09	-2.759493e+01	-3.500437e+02
4.100000e-07	-3.813003e-06	-5.287977e-09	-2.708328e+01	-3.465811e+02
4.200000e-07	-3.739561e-06	-5.224283e-09	-2.656163e+01	-3.430535e+02
4.300000e-07	-3.664564e-06	-5.167979e-09	-2.602894e+01	-3.394525e+02
4.400000e-07	-3.587992e-06	-5.103381e-09	-2.548506e+01	-3.357647e+02
4.500000e-07	-3.509952e-06	-5.053726e-09	-2.493075e+01	-3.319750e+02
4.600000e-07	-3.430507e-06	-5.014139e-09	-2.436646e+01	-3.280702e+02
4.700000e-07	-3.349803e-06	-4.955508e-09	-2.379323e+01	-3.240423e+02
4.800000e-07	-3.267940e-06	-4.875475e-09	-2.321177e+01	-3.198900e+02
4.900000e-07	-3.184908e-06	-4.793499e-09	-2.262200e+01	-3.156176e+02
5.000000e-07	-3.100832e-06	-4.737934e-09	-2.202482e+01	-3.112337e+02
5.100000e-07	-3.015852e-06	-4.678255e-09	-2.142122e+01	-3.067482e+02
5.200000e-07	-2.929923e-06	-4.609109e-09	-2.081088e+01	-3.021691e+02
5.300000e-07	-2.842969e-06	-4.527599e-09	-2.019325e+01	-2.975007e+02
5.400000e-07	-2.755120e-06	-4.444436e-09	-1.956928e+01	-2.927417e+02
5.500000e-07	-2.666360e-06	-4.374974e-09	-1.893882e+01	-2.878865e+02
5.600000e-07	-2.576416e-06	-4.307731e-09	-1.829996e+01	-2.829258e+02
5.700000e-07	-2.485309e-06	-4.236202e-09	-1.765284e+01	-2.778496e+02
5.800000e-07	-2.393349e-06	-4.148932e-09	-1.699966e+01	-2.726489e+02
5.900000e-07	-2.300643e-06	-4.061764e-09	-1.634118e+01	-2.673178e+02
6.000000e-07	-2.207101e-06	-3.979702e-09	-1.567676e+01	-2.618543e+02
6.100000e-07	-2.112726e-06	-3.899237e-09	-1.500643e+01	-2.562605e+02
6.200000e-07	-2.017662e-06	-3.814732e-09	-1.433120e+01	-2.505409e+02
6.300000e-07	-1.921982e-06	-3.721007e-09	-1.365160e+01	-2.447013e+02
6.400000e-07	-1.825569e-06	-3.623263e-09	-1.296679e+01	-2.387470e+02
6.500000e-07	-1.728295e-06	-3.530093e-09	-1.227586e+01	-2.326808e+02
6.600000e-07	-1.630242e-06	-3.443706e-09	-1.157941e+01	-2.265028e+02
6.700000e-07	-1.531567e-06	-3.349698e-09	-1.087853e+01	-2.202099e+02
6.800000e-07	-1.432322e-06	-3.245583e-09	-1.017360e+01	-2.137963e+02
6.900000e-07	-1.332620e-06	-3.137483e-09	-9.465432e+00	-2.072541e+02
7.000000e-07	-1.232547e-06	-3.037236e-09	-8.754629e+00	-2.005750e+02
7.100000e-07	-1.132110e-06	-2.941321e-09	-8.041233e+00	-1.937507e+02
7.200000e-07	-1.031363e-06	-2.838692e-09	-7.325642e+00	-1.867745e+02
7.300000e-07	-9.303043e-07	-2.728872e-09	-6.607835e+00	-1.796407e+02
7.400000e-07	-8.289410e-07	-2.613138e-09	-5.887864e+00	-1.723456e+02
7.500000e-07	-7.272556e-07	-2.495376e-09	-5.165605e+00	-1.648870e+02
7.600000e-07	-6.252072e-07	-2.379473e-09	-4.440768e+00	-1.572634e+02
7.700000e-07	-5.229383e-07	-2.264341e-09	-3.714365e+00	-1.494735e+02
7.800000e-07	-4.205412e-07	-2.143496e-09	-2.987051e+00	-1.415160e+02
7.900000e-07	-3.179941e-07	-2.017290e-09	-2.258672e+00	-1.333879e+02
8.000000e-07	-2.153199e-07	-1.887817e-09	-1.529390e+00	-1.250849e+02
8.100000e-07	-1.126099e-07	-1.759776e-09	-7.998538e-01	-1.166003e+02
8.200000e-07	-9.858575e-09	-1.631378e-09	-7.002422e-02	-1.079253e+02
8.300000e-07	9.294737e-08	-1.494064e-09	6.601935e-01	-9.904894e+01
8.400000e-07	1.957451e-07	-1.349728e-09	1.390353e+00	-8.995937e+01
8.500000e-07	2.985104e-07	-1.204128e-09	2.120282e+00	-8.064433e+01
8.600000e-07	4.011904e-07	-1.059318e-09	2.849605e+00	-7.109256e+01
8.700000e-07	5.037349e-07	-9.108296e-10	3.577966e+00	-6.129484e+01
8.800000e-07	6.061698e-07	-7.553975e-10	4.305548e+00	-5.124490e+01
8.900000e-07	7.084672e-07	-5.956855e-10	5.032153e+00	-4.093973e+01
9.000000e-07	8.104881e-07	-4.319062e-10	5.756795e+00	-3.037947e+01
9.100000e-07	9.121668e-07	-2.639999e-10	6.479007e+00	-1.956685e+01
9.200000e-07	1.013465e-06	-9.551893e-11	7.198512e+00	-8.506440e+00
9.300000e-07	1.114358e-06	7.395374e-11	7.915147e+00	2.795943e+00
9.400000e-07	1.214912e-06	2.491433e-10	8.629368e+00	1.433331e+01
9.500000e-07	1.315126e-06	4.297795e-10	9.341174e+00	2.609683e+01
9.600000e-07	1.414945e-06	6.118202e-10	1.005018e+01	3.807437e+01
9.700000e-07	1.514316e-06	7.942161e-10	1.075600e+01	5.024844e+01
9.800000e-07	1.613072e-06	9.798066e-10	1.145745e+01	6.259392e+01
9.900000e-07	1.711072e-06	1.170151e-09	1.215353e+01	7.507629e+01
1.000000e-06	1.808171e-06	1.361566e-09	1.284321e+01	8.765079e+01
1.010000e-06	1.904402e-06	1.553032e-09	1.352673e+01	1.002631e+02
1.020000e-06	1.999949e-06	1.743583e-09	1.420539e+01	1.128516e+02
1.030000e-06	2.094841e-06	1.930919e-09	1.487940e+01	1.253509e+02
1.040000e-06	2.189008e-06	2.116507e-09	1.554825e+01	1.376970e+02
1.050000e-06	2.282394e-06	2.299414e-09	1.621156e+01	1.498310e+02
1.060000e-06	2.375044e-06	2.479836e-09	1.686964e+01	1.617043e+02
1.070000e-06	2.466995e-06	2.655895e-09	1.752276e+01	1.732797e+02
1.080000e-06	2.558175e-06	2.826907e-09	1.817040e+01	1.845333e+02
1.090000e-06	2.648376e-06	2.994354e-09	1.881108e+01	1.954522e+02
1.100000e-06	2.737416e-06	3.159787e-09	1.944352e+01	2.060319e+02
1.110000e-06	2.825349e-06	3.318815e-09	2.006810e+01	2.162729e+02
1.120000e-06	2.912351e-06	3.470374e-09	2.068606e+01	2.261769e+02
1.130000e-06	2.998443e-06	3.614375e-09	2.129756e+01	2.357443e+02
1.140000e-06	3.083553e-06	3.753617e-09	2.190209e+01	2.449725e+02
1.150000e-06	3.167735e-06	3.888409e-09	2.250002e+01	2.538567e+02
1.160000e-06	3.250993e-06	4.015952e-09	2.309140e+01	2.623912e+02
1.170000e-06	3.333008e-06	4.138092e-09	2.367394e+01	2.705718e+02
1.180000e-06	3.413659e-06	4.255820e-09	2.424679e+01	2.783981e+02
1.190000e-06	3.493137e-06	4.368578e-09	2.481131e+01	2.858753e+02
1.200000e-06	3.571467e-06	4.475720e-09	2.536769e+01	2.930145e+02
1.210000e-06	3.648553e-06	4.579853e-09	2.591521e+01	2.998323e+02
1.220000e-06	3.724341e-06	4.678703e-09	2.645352e+01	3.063489e+02
1.230000e-06	3.798558e-06	4.772640e-09	2.698068e+01	3.125858e+02
1.240000e-06	3.871108e-06	4.862160e-09	2.749599e+01	3.185640e+02
1.250000e-06	3.942239e-06	4.949955e-09	2.800123e+01	3.243018e+02
1.260000e-06	4.011985e-06	5.035579e-09	2.849663e+01	3.298146e+02
1.270000e-06	4.080389e-06	5.117361e-09	2.898249e+01	3.351147e+02
1.280000e-06	4.147406e-06	5.195099e-09	2.945850e+01	3.402121e+02
1.290000e-06	4.212746e-06	5.269895e-09	2.992260e+01	3.451158e+02
1.300000e-06	4.276450e-06	5.341372e-09	3.037509e+01	3.498342e+02
1.310000e-06	4.338732e-06	5.409492e-09	3.081747e+01	3.543753e+02
1.320000e-06	4.399622e-06	5.476226e-09	3.124997e+01	3.587466e+02
1.330000e-06	4.459156e-06	5.540884e-09	3.167283e+01	3.629537e+02
1.340000e-06	4.517035e-06	5.602610e-09	3.208393e+01	3.669994e+02
1.350000e-06	4.573069e-06	5.661139e-09	3.248194e+01	3.708829e+02
1.360000e-06	4.627451e-06	5.717027e-09	3.286820e+01	3.746004e+02
1.370000e-06	4.680148e-06	5.770008e-09	3.324250e+01	3.781450e+02
1.380000e-06	4.730831e-06	5.820207e-09	3.360250e+01	3.815094e+02
1.390000e-06	4.779404e-06	5.867981e-09	3.394751e+01	3.846877e+02
1.400000e-06	4.826225e-06	5.911804e-09	3.428007e+01	3.876773e+02
1.410000e-06	4.871478e-06	5.951937e-09	3.460150e+01	3.904804e+02
1.420000e-06	4.915218e-06	5.990222e-09	3.491218e+01	3.931040e+02
1.430000e-06	4.957149e-06	6.025101e-09	3.521001e+01	3.955593e+02
1.440000e-06	4.997166e-06	6.057114e-09	3.549425e+01	3.978594e+02
1.450000e-06	5.035582e-06	6.088159e-09	3.576711e+01	4.000172e+02
1.460000e-06	5.072376e-06	6.118057e-09	3.602845e+01	4.020434e+02
1.470000e-06	5.107447e-06	6.146691e-09	3.627756e+01	4.039445e+02
1.480000e-06	5.140557e-06	6.173286e-09	3.651273e+01	4.057235e+02
1.490000e-06	5.171732e-06	6.197388e-09	3.673416e+01	4.073801e+02
1.500000e-06	5.201226e-06	6.218298e-09	3.694365e+01	4.089131e+02
1.510000e-06	5.229130e-06	6.236860e-09	3.714185e+01	4.103219e+02
1.520000e-06	5.255096e-06	6.254673e-09	3.732629e+01	4.116087e+02
1.530000e-06	5.278929e-06	6.272371e-09	3.749557e+01	4.127787e+02
1.540000e-06	5.300896e-06	6.289302e-09	3.765160e+01	4.138396e+02
1.550000e-06	5.321172e-06	6.304375e-09	3.779561e+01	4.148002e+02
1.560000e-06	5.339577e-06	6.318595e-09	3.792634e+01	4.156679e+02
1.570000e-06	5.355927e-06	6.331545e-09	3.804248e+01	4.164466e+02
1.580000e-06	5.370388e-06	6.342633e-09	3.814519e+01	4.171356e+02
1.590000e-06	5.382861e-06	6.352584e-09	3.823379e+01	4.177299e+02
1.600000e-06	5.393050e-06	6.360756e-09	3.830616e+01	4.182216e+02
1.610000e-06	5.401064e-06	6.368284e-09	3.836308e+01	4.186027e+02
1.620000e-06	5.407196e-06	6.374130e-09	3.840663e+01	4.188680e+02
1.630000e-06	5.411604e-06	6.377159e-09	3.843794e+01	4.190180e+02
1.640000e-06	5.414181e-06	6.378522e-09	3.845625e+01	4.190595e+02
1.650000e-06	5.414709e-06	6.382452e-09	3.846000e+01	4.190048e+02
1.660000e-06	5.413354e-06	6.384584e-09	3.845037e+01	4.188696e+02
1.670000e-06	5.410321e-06	6.379826e-09	3.842883e+01	4.186684e+02
1.680000e-06	5.405611e-06	6.377759e-09	3.839538e+01	4.184107e+02
1.690000e-06	5.398984e-06	6.374319e-09	3.834831e+01	4.180980e+02
1.700000e-06	5.390500e-06	6.368570e-09	3.828804e+01	4.177227e+02
1.710000e-06	5.380505e-06	6.362671e-09	3.821705e+01	4.172693e+02
1.720000e-06	5.368850e-06	6.355254e-09	3.813427e+01	4.167187e+02
1.730000e-06	5.355175e-06	6.360119e-09	3.803713e+01	4.160531e+02
1.740000e-06	5.339466e-06	6.294126e-09	3.792555e+01	4.152625e+02
1.750000e-06	5.321470e-06	6.251590e-09	3.779773e+01	4.143483e+02
1.760000e-06	5.300744e-06	6.284109e-09	3.765052e+01	4.133257e+02
1.770000e-06	5.277676e-06	6.268533e-09	3.748667e+01	4.122220e+02
1.780000e-06	5.253201e-06	6.347381e-09	3.731282e+01	4.110718e+02
1.790000e-06	5.227994e-06	6.316431e-09	3.713379e+01	4.099101e+02
1.800000e-06	5.201520e-06	6.116129e-09	3.694575e+01	4.087639e+02
1.810000e-06	5.172758e-06	6.239984e-09	3.674146e+01	4.076458e+02
1.820000e-06	5.142126e-06	6.217710e-09	3.652388e+01	4.065497e+02
1.830000e-06	5.109927e-06	6.085482e-09	3.629517e+01	4.054506e+02
1.840000e-06	5.075733e-06	6.246393e-09	3.605230e+01	4.043088e+02
1.850000e-06	5.039912e-06	6.128526e-09	3.579786e+01	4.030765e+02
1.860000e-06	5.002353e-06	6.048257e-09	3.553109e+01	4.017079e+02
1.870000e-06	4.962866e-06	6.188336e-09	3.525061e+01	4.001669e+02
1.880000e-06	4.921822e-06	6.054988e-09	3.495908e+01	3.984346e+02
1.890000e-06	4.878976e-06	6.054616e-09	3.465475e+01	3.965120e+02
1.900000e-06	4.834392e-06	6.019057e-09	3.433808e+01	3.944188e+02
1.910000e-06	4.787986e-06	5.893021e-09	3.400846e+01	3.921883e+02
1.920000e-06	4.739502e-06	6.013676e-09	3.366409e+01	3.898596e+02
1.930000e-06	4.689385e-06	5.884053e-09	3.330811e+01	3.874693e+02
1.940000e-06	4.637531e-06	5.850470e-09	3.293980e+01	3.850438e+02
1.950000e-06	4.583559e-06	5.891781e-09	3.255644e+01	3.825952e+02
1.960000e-06	4.527651e-06	5.747182e-09	3.215934e+01	3.801197e+02
1.970000e-06	4.470103e-06	5.739930e-09	3.175058e+01	3.776007e+02
1.980000e-06	4.411132e-06	5.694448e-09	3.133172e+01	3.750137e+02
1.990000e-06	4.350649e-06	5.704607e-09	3.090211e+01	3.723333e+02
2.000000e-06	4.288384e-06	5.647561e-09	3.045985e+01	3.695391e+02
2.010000e-06	4.224488e-06	5.528421e-09	3.000601e+01	3.666200e+02
2.020000e-06	4.159117e-06	5.577706e-09	2.954169e+01	3.635759e+02
2.030000e-06	4.092322e-06	5.483827e-09	2.906725e+01	3.604165e+02
2.040000e-06	4.024143e-06	5.434896e-09	2.858299e+01	3.571572e+02
2.050000e-06	3.954415e-06	5.404370e-09	2.808771e+01	3.538148e+02
2.060000e-06	3.883149e-06	5.334871e-09	2.758152e+01	3.504023e+02
2.070000e-06	3.810521e-06	5.306941e-09	2.706566e+01	3.469258e+02
2.080000e-06	3.736590e-06	5.203944e-09	2.654053e+01	3.433830e+02
2.090000e-06	3.661313e-06	5.194671e-09	2.600585e+01	3.397643e+02
2.100000e-06	3.584590e-06	5.140748e-09	2.546090e+01	3.360556e+02
2.110000e-06	3.506256e-06	5.048399e-09	2.490450e+01	3.322418e+02
2.120000e-06	3.426577e-06	4.989082e-09	2.433855e+01	3.283107e+02
2.130000e-06	3.345790e-06	4.928416e-09	2.376473e+01	3.242558e+02
2.140000e-06	3.263841e-06	4.895951e-09	2.318266e+01	3.200768e+02
2.150000e-06	3.180882e-06	4.816063e-09	2.259341e+01	3.157793e+02
2.160000e-06	3.096919e-06	4.752096e-09	2.199702e+01	3.113725e+02
2.170000e-06	3.011798e-06	4.674303e-09	2.139242e+01	3.068660e+02
2.180000e-06	2.925302e-06	4.603235e-09	2.077806e+01	3.022673e+02
2.190000e-06	2.837605e-06	4.541414e-09	2.015515e+01	2.975793e+02
2.200000e-06	2.749008e-06	4.469285e-09	1.952586e+01	2.928000e+02
2.210000e-06	2.659489e-06	4.403846e-09	1.889002e+01	2.879226e+02
2.220000e-06	2.569036e-06	4.313803e-09	1.824754e+01	2.829377e+02
2.230000e-06	2.477753e-06	4.232598e-09	1.759917e+01	2.778351e+02
2.240000e-06	2.385717e-06	4.148639e-09	1.694545e+01	2.726065e+02
2.250000e-06	2.292852e-06	4.076340e-09	1.628584e+01	2.672467e+02
2.260000e-06	2.199076e-06	3.998398e-09	1.561976e+01	2.617547e+02
2.270000e-06	2.104308e-06	3.905664e-09	1.494664e+01	2.561331e+02
2.280000e-06	2.008575e-06	3.814439e-09	1.426666e+01	2.503869e+02
2.290000e-06	1.912074e-06	3.730889e-09	1.358122e+01	2.445220e+02
2.300000e-06	1.814984e-06	3.649153e-09	1.289161e+01	2.385432e+02
2.310000e-06	1.717404e-06	3.553282e-09	1.219851e+01	2.324528e+02
2.320000e-06	1.619314e-06	3.454071e-09	1.150179e+01	2.262502e+02
2.330000e-06	1.520707e-06	3.354744e-09	1.080139e+01	2.199317e+02
2.340000e-06	1.421612e-06	3.260207e-09	1.009753e+01	2.134908e+02
2.350000e-06	1.322153e-06	3.160937e-09	9.391086e+00	2.069196e+02
2.360000e-06	1.222395e-06	3.061769e-09	8.682516e+00	2.002097e+02
2.370000e-06	1.122333e-06	2.958697e-09	7.971790e+00	1.933531e+02
2.380000e-06	1.021944e-06	2.845174e-09	7.258740e+00	1.863431e+02
2.390000e-06	9.210038e-07	2.734014e-09	6.541775e+00	1.791747e+02
2.400000e-06	8.195269e-07	2.628018e-09	5.820997e+00	1.718444e+02
2.410000e-06	7.176989e-07	2.519697e-09	5.097725e+00	1.643502e+02
2.420000e-06	6.156005e-07	2.399293e-09	4.372533e+00	1.566906e+02
2.430000e-06	5.132539e-07	2.272267e-09	3.645578e+00	1.488647e+02
2.440000e-06	4.107392e-07	2.149473e-09	2.917429e+00	1.408705e+02
2.450000e-06	3.080900e-07	2.029684e-09	2.188324e+00	1.327051e+02
2.460000e-06	2.052888e-07	1.904514e-09	1.458141e+00	1.243634e+02
2.470000e-06	1.023883e-07	1.775515e-09	7.272515e-01	1.158385e+02
2.480000e-06	-5.375295e-10	1.641933e-09	-3.818005e-03	1.071209e+02
2.490000e-06	-1.034595e-07	1.503821e-09	-7.348599e-01	9.819956e+01
2.500000e-06	-2.063970e-07	1.364780e-09	-1.466012e+00	8.906234e+01
2.510000e-06	-3.093157e-07	1.226016e-09	-2.197031e+00	7.969711e+01
2.520000e-06	-4.121859e-07	1.085353e-09	-2.927705e+00	7.009296e+01
2.530000e-06	-5.149106e-07	9.339063e-10	-3.657345e+00	6.024126e+01
2.540000e-06	-6.174540e-07	7.763971e-10	-4.385699e+00	5.013641e+01
2.550000e-06	-7.197539e-07	6.220346e-10	-5.112321e+00	3.977611e+01
2.560000e-06	-8.216187e-07	4.659048e-10	-5.835855e+00	2.916112e+01
2.570000e-06	-9.229791e-07	3.013841e-10	-6.555805e+00	1.829461e+01
2.580000e-06	-1.023832e-06	1.298379e-10	-7.272149e+00	7.181471e+00
2.590000e-06	-1.124209e-06	-4.546776e-11	-7.985117e+00	-4.172255e+00
2.600000e-06	-1.224150e-06	-2.234299e-10	-8.694985e+00	-1.575927e+01
2.610000e-06	-1.323706e-06	-4.019138e-10	-9.402118e+00	-2.757018e+01
2.620000e-06	-1.422882e-06	-5.811684e-10	-1.010655e+01	-3.959189e+01
2.630000e-06	-1.521586e-06	-7.675168e-10	-1.080764e+01	-5.180545e+01
2.640000e-06	-1.619726e-06	-9.622832e-10	-1.150471e+01	-6.418387e+01
2.650000e-06	-1.717295e-06	-1.158776e-09	-1.219773e+01	-7.669045e+01
2.660000e-06	-1.814322e-06	-1.352407e-09	-1.288690e+01	-8.927828e+01
2.670000e-06	-1.910741e-06	-1.543710e-09	-1.357175e+01	-1.018912e+02
2.680000e-06	-2.006598e-06	-1.737049e-09	-1.425262e+01	-1.144665e+02
2.690000e-06	-2.101910e-06	-1.930839e-09	-1.492960e+01	-1.269386e+02
2.700000e-06	-2.196369e-06	-2.122025e-09	-1.560053e+01	-1.392442e+02
2.710000e-06	-2.289759e-06	-2.306899e-09	-1.626387e+01	-1.513265e+02
2.720000e-06	-2.382135e-06	-2.484952e-09	-1.692000e+01	-1.631389e+02
2.730000e-06	-2.473673e-06	-2.659503e-09	-1.757019e+01	-1.746474e+02
2.740000e-06	-2.564431e-06	-2.829715e-09	-1.821483e+01	-1.858304e+02
2.750000e-06	-2.654234e-06	-2.994848e-09	-1.885269e+01	-1.966770e+02
2.760000e-06	-2.743054e-06	-3.154598e-09	-1.948357e+01	-2.071844e+02
2.770000e-06	-2.831060e-06	-3.310314e-09	-2.010866e+01	-2.173534e+02
2.780000e-06	-2.918305e-06	-3.461606e-09	-2.072835e+01	-2.271857e+02
2.790000e-06	-3.004415e-06	-3.606197e-09	-2.133998e+01	-2.366811e+02
2.800000e-06	-3.089162e-06	-3.745300e-09	-2.194193e+01	-2.458364e+02
2.810000e-06	-3.172818e-06	-3.879573e-09	-2.253613e+01	-2.546465e+02
2.820000e-06	-3.255478e-06	-4.008430e-09	-2.312325e+01	-2.631058e+02
2.830000e-06	-3.337084e-06	-4.132152e-09	-2.370289e+01	-2.712107e+02
2.840000e-06	-3.417587e-06	-4.253674e-09	-2.427469e+01	-2.789619e+02
2.850000e-06	-3.496953e-06	-4.373095e-09	-2.483842e+01	-2.863659e+02
2.860000e-06	-3.574906e-06	-4.484807e-09	-2.539211e+01	-2.934350e+02
2.870000e-06	-3.651312e-06	-4.587121e-09	-2.593481e+01	-3.001868e+02
2.880000e-06	-3.726298e-06	-4.684716e-09	-2.646743e+01	-3.066420e+02
2.890000e-06	-3.799834e-06	-4.779360e-09	-2.698974e+01	-3.128221e+02
2.900000e-06	-3.872107e-06	-4.870454e-09	-2.750309e+01	-3.187477e+02
2.910000e-06	-3.943082e-06	-4.957577e-09	-2.800722e+01	-3.244365e+02
2.920000e-06	-4.012374e-06	-5.040506e-09	-2.849939e+01	-3.299031e+02
2.930000e-06	-4.080078e-06	-5.119728e-09	-2.898028e+01	-3.351594e+02
2.940000e-06	-4.146471e-06	-5.195473e-09	-2.945186e+01	-3.402149e+02
