# Temperatura_=_26.75
# Concentracion g/m^3_=_15000.0
# C_Vs_to_Am_M_A/Vsm_=_65563218390.804596
# pendiente_HvsI_1/m_=_3716.3
# ordenada_HvsI_A/m_=_1297.0
# frecuencia_Hz_=_301594.81535577815

Tiempo_(s)	Campo_(V.s)	Magnetizacion_(V.s)	Campo_(kA/m)	Magnetizacion_(A/m)
0.000000e+00	-5.379788e-06	-5.641431e-09	-3.833693e+01	-3.683740e+02
1.000000e-08	-5.376997e-06	-5.638810e-09	-3.831705e+01	-3.682354e+02
2.000000e-08	-5.372470e-06	-5.635198e-09	-3.828478e+01	-3.680430e+02
3.000000e-08	-5.366335e-06	-5.630138e-09	-3.824106e+01	-3.677972e+02
4.000000e-08	-5.358634e-06	-5.623276e-09	-3.818619e+01	-3.674927e+02
5.000000e-08	-5.349107e-06	-5.614075e-09	-3.811829e+01	-3.671203e+02
6.000000e-08	-5.337478e-06	-5.605935e-09	-3.803542e+01	-3.666694e+02
7.000000e-08	-5.323970e-06	-5.600579e-09	-3.793916e+01	-3.661307e+02
8.000000e-08	-5.308415e-06	-5.590145e-09	-3.782832e+01	-3.654997e+02
9.000000e-08	-5.290614e-06	-5.591689e-09	-3.770147e+01	-3.647783e+02
1.000000e-07	-5.270751e-06	-5.597317e-09	-3.755992e+01	-3.639753e+02
1.100000e-07	-5.248965e-06	-5.572728e-09	-3.740467e+01	-3.631052e+02
1.200000e-07	-5.225463e-06	-5.539816e-09	-3.723720e+01	-3.621852e+02
1.300000e-07	-5.200447e-06	-5.514127e-09	-3.705893e+01	-3.612317e+02
1.400000e-07	-5.173800e-06	-5.474912e-09	-3.686904e+01	-3.602562e+02
1.500000e-07	-5.145540e-06	-5.496794e-09	-3.666766e+01	-3.592631e+02
1.600000e-07	-5.115856e-06	-5.502454e-09	-3.645613e+01	-3.582478e+02
1.700000e-07	-5.084620e-06	-5.443844e-09	-3.623353e+01	-3.571976e+02
1.800000e-07	-5.051275e-06	-5.451093e-09	-3.599591e+01	-3.560939e+02
1.900000e-07	-5.015988e-06	-5.422473e-09	-3.574445e+01	-3.549162e+02
2.000000e-07	-4.979249e-06	-5.365516e-09	-3.548264e+01	-3.536458e+02
2.100000e-07	-4.940762e-06	-5.369785e-09	-3.520838e+01	-3.522692e+02
2.200000e-07	-4.900426e-06	-5.335660e-09	-3.492094e+01	-3.507810e+02
2.300000e-07	-4.858181e-06	-5.313695e-09	-3.461990e+01	-3.491839e+02
2.400000e-07	-4.814056e-06	-5.318263e-09	-3.430547e+01	-3.474877e+02
2.500000e-07	-4.768182e-06	-5.272980e-09	-3.397856e+01	-3.457065e+02
2.600000e-07	-4.720380e-06	-5.240335e-09	-3.363792e+01	-3.438556e+02
2.700000e-07	-4.670495e-06	-5.197071e-09	-3.328243e+01	-3.419476e+02
2.800000e-07	-4.618544e-06	-5.165792e-09	-3.291223e+01	-3.399903e+02
2.900000e-07	-4.564707e-06	-5.165796e-09	-3.252858e+01	-3.379852e+02
3.000000e-07	-4.509272e-06	-5.135607e-09	-3.213354e+01	-3.359279e+02
3.100000e-07	-4.452222e-06	-5.086349e-09	-3.172700e+01	-3.338094e+02
3.200000e-07	-4.393347e-06	-5.040028e-09	-3.130745e+01	-3.316189e+02
3.300000e-07	-4.332841e-06	-5.007840e-09	-3.087627e+01	-3.293463e+02
3.400000e-07	-4.270932e-06	-4.974467e-09	-3.043511e+01	-3.269843e+02
3.500000e-07	-4.207696e-06	-4.940769e-09	-2.998448e+01	-3.245300e+02
3.600000e-07	-4.142965e-06	-4.910378e-09	-2.952320e+01	-3.219848e+02
3.700000e-07	-4.076516e-06	-4.861044e-09	-2.904968e+01	-3.193536e+02
3.800000e-07	-4.008465e-06	-4.817306e-09	-2.856474e+01	-3.166436e+02
3.900000e-07	-3.939020e-06	-4.779956e-09	-2.806986e+01	-3.138618e+02
4.000000e-07	-3.868361e-06	-4.732848e-09	-2.756634e+01	-3.110134e+02
4.100000e-07	-3.796538e-06	-4.687733e-09	-2.705453e+01	-3.081007e+02
4.200000e-07	-3.723312e-06	-4.636689e-09	-2.653271e+01	-3.051224e+02
4.300000e-07	-3.648474e-06	-4.594773e-09	-2.599940e+01	-3.020740e+02
4.400000e-07	-3.572065e-06	-4.557068e-09	-2.545490e+01	-2.989489e+02
4.500000e-07	-3.494219e-06	-4.514958e-09	-2.490017e+01	-2.957395e+02
4.600000e-07	-3.414990e-06	-4.460124e-09	-2.433558e+01	-2.924391e+02
4.700000e-07	-3.334439e-06	-4.394523e-09	-2.376156e+01	-2.890424e+02
4.800000e-07	-3.252669e-06	-4.336529e-09	-2.317886e+01	-2.855470e+02
4.900000e-07	-3.169765e-06	-4.282664e-09	-2.258807e+01	-2.819528e+02
5.000000e-07	-3.085868e-06	-4.233751e-09	-2.199022e+01	-2.782623e+02
5.100000e-07	-3.001056e-06	-4.177007e-09	-2.138584e+01	-2.744795e+02
5.200000e-07	-2.915329e-06	-4.113187e-09	-2.077494e+01	-2.706089e+02
5.300000e-07	-2.828657e-06	-4.047946e-09	-2.015731e+01	-2.666541e+02
5.400000e-07	-2.740991e-06	-3.984949e-09	-1.953259e+01	-2.626173e+02
5.500000e-07	-2.652352e-06	-3.926016e-09	-1.890094e+01	-2.584978e+02
5.600000e-07	-2.562616e-06	-3.864730e-09	-1.826147e+01	-2.542925e+02
5.700000e-07	-2.471703e-06	-3.797792e-09	-1.761361e+01	-2.499951e+02
5.800000e-07	-2.379835e-06	-3.726571e-09	-1.695896e+01	-2.455976e+02
5.900000e-07	-2.287163e-06	-3.658315e-09	-1.629856e+01	-2.410909e+02
6.000000e-07	-2.193729e-06	-3.589580e-09	-1.563274e+01	-2.364659e+02
6.100000e-07	-2.099602e-06	-3.517216e-09	-1.496198e+01	-2.317157e+02
6.200000e-07	-2.004816e-06	-3.441709e-09	-1.428653e+01	-2.268357e+02
6.300000e-07	-1.909326e-06	-3.364801e-09	-1.360606e+01	-2.218251e+02
6.400000e-07	-1.813135e-06	-3.288246e-09	-1.292059e+01	-2.166866e+02
6.500000e-07	-1.716226e-06	-3.212023e-09	-1.223001e+01	-2.114256e+02
6.600000e-07	-1.618517e-06	-3.133259e-09	-1.153372e+01	-2.060491e+02
6.700000e-07	-1.520168e-06	-3.045990e-09	-1.083288e+01	-2.005634e+02
6.800000e-07	-1.421309e-06	-2.953000e-09	-1.012839e+01	-1.949728e+02
6.900000e-07	-1.321878e-06	-2.862775e-09	-9.419840e+00	-1.892780e+02
7.000000e-07	-1.221993e-06	-2.776273e-09	-8.708050e+00	-1.834752e+02
7.100000e-07	-1.121819e-06	-2.688190e-09	-7.994202e+00	-1.775565e+02
7.200000e-07	-1.021337e-06	-2.594588e-09	-7.278154e+00	-1.715113e+02
7.300000e-07	-9.205520e-07	-2.498423e-09	-6.559950e+00	-1.653281e+02
7.400000e-07	-8.195148e-07	-2.404778e-09	-5.839948e+00	-1.589966e+02
7.500000e-07	-7.181747e-07	-2.311209e-09	-5.117788e+00	-1.525105e+02
7.600000e-07	-6.165415e-07	-2.214464e-09	-4.393539e+00	-1.458679e+02
7.700000e-07	-5.146622e-07	-2.109882e-09	-3.667536e+00	-1.390720e+02
7.800000e-07	-4.125926e-07	-1.997560e-09	-2.940178e+00	-1.321297e+02
7.900000e-07	-3.103807e-07	-1.884666e-09	-2.211805e+00	-1.250492e+02
8.000000e-07	-2.080644e-07	-1.774817e-09	-1.482689e+00	-1.178374e+02
8.100000e-07	-1.056951e-07	-1.666663e-09	-7.531944e-01	-1.104972e+02
8.200000e-07	-3.246689e-09	-1.556463e-09	-2.313624e-02	-1.030250e+02
8.300000e-07	9.925900e-08	-1.442481e-09	7.073300e-01	-9.541047e+01
8.400000e-07	2.017496e-07	-1.324694e-09	1.437689e+00	-8.763714e+01
8.500000e-07	3.041927e-07	-1.204454e-09	2.167709e+00	-7.968451e+01
8.600000e-07	4.065146e-07	-1.081173e-09	2.896866e+00	-7.153135e+01
8.700000e-07	5.087195e-07	-9.527293e-10	3.625188e+00	-6.315905e+01
8.800000e-07	6.108292e-07	-8.182804e-10	4.352832e+00	-5.455451e+01
8.900000e-07	7.127317e-07	-6.809170e-10	5.079001e+00	-4.571199e+01
9.000000e-07	8.143431e-07	-5.424303e-10	5.803094e+00	-3.663324e+01
9.100000e-07	9.156194e-07	-4.015675e-10	6.524800e+00	-2.732639e+01
9.200000e-07	1.016549e-06	-2.588499e-10	7.244034e+00	-1.780363e+01
9.300000e-07	1.117115e-06	-1.122741e-10	7.960678e+00	-8.078451e+00
9.400000e-07	1.217374e-06	3.922040e-11	8.675137e+00	1.836632e+00
9.500000e-07	1.317312e-06	1.941950e-10	9.387306e+00	1.193146e+01
9.600000e-07	1.416836e-06	3.508238e-10	1.009652e+01	2.219810e+01
9.700000e-07	1.515850e-06	5.097078e-10	1.080211e+01	3.262935e+01
9.800000e-07	1.614182e-06	6.725232e-10	1.150283e+01	4.321616e+01
9.900000e-07	1.711681e-06	8.386591e-10	1.219762e+01	5.394459e+01
1.000000e-06	1.808341e-06	1.004797e-09	1.288643e+01	6.479329e+01
1.010000e-06	1.904233e-06	1.171191e-09	1.356976e+01	7.573190e+01
1.020000e-06	1.999439e-06	1.337709e-09	1.424821e+01	8.672118e+01
1.030000e-06	2.093972e-06	1.503325e-09	1.492186e+01	9.771461e+01
1.040000e-06	2.187784e-06	1.669753e-09	1.559038e+01	1.086615e+02
1.050000e-06	2.280874e-06	1.836105e-09	1.625374e+01	1.195105e+02
1.060000e-06	2.373240e-06	2.002368e-09	1.691196e+01	1.302137e+02
1.070000e-06	2.464930e-06	2.164905e-09	1.756535e+01	1.407292e+02
1.080000e-06	2.555815e-06	2.322109e-09	1.821301e+01	1.510231e+02
1.090000e-06	2.645579e-06	2.474406e-09	1.885267e+01	1.610694e+02
1.100000e-06	2.734159e-06	2.623607e-09	1.948390e+01	1.708495e+02
1.110000e-06	2.821795e-06	2.768089e-09	2.010841e+01	1.803498e+02
1.120000e-06	2.908544e-06	2.908048e-09	2.072659e+01	1.895598e+02
1.130000e-06	2.994328e-06	3.044256e-09	2.133789e+01	1.984702e+02
1.140000e-06	3.079158e-06	3.175406e-09	2.194240e+01	2.070723e+02
1.150000e-06	3.163054e-06	3.300212e-09	2.254026e+01	2.153574e+02
1.160000e-06	3.245972e-06	3.419927e-09	2.313114e+01	2.233185e+02
1.170000e-06	3.327650e-06	3.535220e-09	2.371318e+01	2.309508e+02
1.180000e-06	3.408013e-06	3.644884e-09	2.428585e+01	2.382542e+02
1.190000e-06	3.487218e-06	3.749059e-09	2.485028e+01	2.452336e+02
1.200000e-06	3.565244e-06	3.849331e-09	2.540630e+01	2.518995e+02
1.210000e-06	3.641991e-06	3.947802e-09	2.595320e+01	2.582679e+02
1.220000e-06	3.717399e-06	4.042023e-09	2.649057e+01	2.643583e+02
1.230000e-06	3.791244e-06	4.129660e-09	2.701680e+01	2.701925e+02
1.240000e-06	3.863478e-06	4.211235e-09	2.753155e+01	2.757922e+02
1.250000e-06	3.934328e-06	4.292095e-09	2.803643e+01	2.811774e+02
1.260000e-06	4.003801e-06	4.372937e-09	2.853150e+01	2.863648e+02
1.270000e-06	4.071959e-06	4.450195e-09	2.901721e+01	2.913674e+02
1.280000e-06	4.138671e-06	4.523222e-09	2.949260e+01	2.961942e+02
1.290000e-06	4.203664e-06	4.593762e-09	2.995575e+01	3.008502e+02
1.300000e-06	4.267070e-06	4.660538e-09	3.040759e+01	3.053371e+02
1.310000e-06	4.329036e-06	4.724262e-09	3.084916e+01	3.096543e+02
1.320000e-06	4.389655e-06	4.785391e-09	3.128114e+01	3.137993e+02
1.330000e-06	4.448914e-06	4.843261e-09	3.170342e+01	3.177685e+02
1.340000e-06	4.506468e-06	4.898845e-09	3.211356e+01	3.215579e+02
1.350000e-06	4.562223e-06	4.952430e-09	3.251088e+01	3.251642e+02
1.360000e-06	4.616347e-06	5.002984e-09	3.289657e+01	3.285853e+02
1.370000e-06	4.668733e-06	5.049526e-09	3.326988e+01	3.318212e+02
1.380000e-06	4.719077e-06	5.092796e-09	3.362864e+01	3.348746e+02
1.390000e-06	4.767369e-06	5.135236e-09	3.397277e+01	3.377513e+02
1.400000e-06	4.813957e-06	5.176812e-09	3.430476e+01	3.404594e+02
1.410000e-06	4.859016e-06	5.214996e-09	3.462586e+01	3.430093e+02
1.420000e-06	4.902509e-06	5.249739e-09	3.493579e+01	3.454119e+02
1.430000e-06	4.944162e-06	5.281524e-09	3.523261e+01	3.476776e+02
1.440000e-06	4.983925e-06	5.311277e-09	3.551597e+01	3.498149e+02
1.450000e-06	5.022045e-06	5.340102e-09	3.578762e+01	3.518296e+02
1.460000e-06	5.058616e-06	5.367942e-09	3.604823e+01	3.537246e+02
1.470000e-06	5.093450e-06	5.394990e-09	3.629645e+01	3.555003e+02
1.480000e-06	5.126322e-06	5.420194e-09	3.653070e+01	3.571559e+02
1.490000e-06	5.157368e-06	5.442759e-09	3.675194e+01	3.586904e+02
1.500000e-06	5.186717e-06	5.463314e-09	3.696108e+01	3.601044e+02
1.510000e-06	5.214381e-06	5.482376e-09	3.715822e+01	3.614009e+02
1.520000e-06	5.240064e-06	5.499647e-09	3.734124e+01	3.625852e+02
1.530000e-06	5.263652e-06	5.515083e-09	3.750933e+01	3.636645e+02
1.540000e-06	5.285423e-06	5.528727e-09	3.766447e+01	3.646465e+02
1.550000e-06	5.305506e-06	5.541792e-09	3.780759e+01	3.655377e+02
1.560000e-06	5.323691e-06	5.554419e-09	3.793718e+01	3.663424e+02
1.570000e-06	5.339829e-06	5.565336e-09	3.805218e+01	3.670613e+02
1.580000e-06	5.354033e-06	5.575123e-09	3.815340e+01	3.676921e+02
1.590000e-06	5.366226e-06	5.584460e-09	3.824028e+01	3.682301e+02
1.600000e-06	5.376179e-06	5.593070e-09	3.831121e+01	3.686703e+02
1.610000e-06	5.384015e-06	5.600401e-09	3.836705e+01	3.690094e+02
1.620000e-06	5.389985e-06	5.605970e-09	3.840960e+01	3.692473e+02
1.630000e-06	5.394234e-06	5.609578e-09	3.843988e+01	3.693881e+02
1.640000e-06	5.396671e-06	5.610821e-09	3.845724e+01	3.694402e+02
1.650000e-06	5.397058e-06	5.613165e-09	3.846000e+01	3.694143e+02
1.660000e-06	5.395554e-06	5.616072e-09	3.844928e+01	3.693215e+02
1.670000e-06	5.392407e-06	5.613928e-09	3.842686e+01	3.691708e+02
1.680000e-06	5.387558e-06	5.610689e-09	3.839230e+01	3.689669e+02
1.690000e-06	5.380790e-06	5.608369e-09	3.834407e+01	3.687088e+02
1.700000e-06	5.372256e-06	5.606273e-09	3.828326e+01	3.683904e+02
1.710000e-06	5.362203e-06	5.602464e-09	3.821162e+01	3.680019e+02
1.720000e-06	5.350491e-06	5.595060e-09	3.812816e+01	3.675325e+02
1.730000e-06	5.336778e-06	5.588242e-09	3.803044e+01	3.669740e+02
1.740000e-06	5.320985e-06	5.566455e-09	3.791789e+01	3.663230e+02
1.750000e-06	5.302875e-06	5.532931e-09	3.778884e+01	3.655829e+02
1.760000e-06	5.282086e-06	5.533264e-09	3.764069e+01	3.647640e+02
1.770000e-06	5.258985e-06	5.539631e-09	3.747608e+01	3.638815e+02
1.780000e-06	5.234542e-06	5.551530e-09	3.730189e+01	3.629528e+02
1.790000e-06	5.209370e-06	5.554714e-09	3.712251e+01	3.619935e+02
1.800000e-06	5.182782e-06	5.464271e-09	3.693305e+01	3.610140e+02
1.810000e-06	5.153976e-06	5.453277e-09	3.672777e+01	3.600165e+02
1.820000e-06	5.123366e-06	5.476389e-09	3.650964e+01	3.589948e+02
1.830000e-06	5.091117e-06	5.409545e-09	3.627983e+01	3.579346e+02
1.840000e-06	5.056926e-06	5.443379e-09	3.603618e+01	3.568166e+02
1.850000e-06	5.021135e-06	5.449988e-09	3.578113e+01	3.556202e+02
1.860000e-06	4.983576e-06	5.381549e-09	3.551348e+01	3.543276e+02
1.870000e-06	4.944079e-06	5.407647e-09	3.523202e+01	3.529271e+02
1.880000e-06	4.902952e-06	5.352214e-09	3.493895e+01	3.514148e+02
1.890000e-06	4.860051e-06	5.301118e-09	3.463323e+01	3.497952e+02
1.900000e-06	4.815548e-06	5.318138e-09	3.431610e+01	3.480792e+02
1.910000e-06	4.769252e-06	5.257811e-09	3.398619e+01	3.462816e+02
1.920000e-06	4.720836e-06	5.279624e-09	3.364117e+01	3.444173e+02
1.930000e-06	4.670761e-06	5.248091e-09	3.328433e+01	3.424981e+02
1.940000e-06	4.618945e-06	5.160398e-09	3.291508e+01	3.405304e+02
1.950000e-06	4.565080e-06	5.166499e-09	3.253123e+01	3.385144e+02
1.960000e-06	4.509312e-06	5.124010e-09	3.213383e+01	3.364446e+02
1.970000e-06	4.451841e-06	5.097920e-09	3.172429e+01	3.343113e+02
1.980000e-06	4.392947e-06	5.076370e-09	3.130460e+01	3.321038e+02
1.990000e-06	4.332558e-06	5.039180e-09	3.087426e+01	3.298123e+02
2.000000e-06	4.270492e-06	5.009734e-09	3.043197e+01	3.274304e+02
2.010000e-06	4.206826e-06	4.934465e-09	2.997828e+01	3.249561e+02
2.020000e-06	4.141630e-06	4.919791e-09	2.951369e+01	3.223916e+02
2.030000e-06	4.075004e-06	4.886033e-09	2.903890e+01	3.197427e+02
2.040000e-06	4.006967e-06	4.837728e-09	2.855407e+01	3.170166e+02
2.050000e-06	3.937476e-06	4.808979e-09	2.805886e+01	3.142199e+02
2.060000e-06	3.866451e-06	4.749815e-09	2.755273e+01	3.113574e+02
2.070000e-06	3.793992e-06	4.719345e-09	2.703638e+01	3.084306e+02
2.080000e-06	3.720282e-06	4.656660e-09	2.651112e+01	3.054375e+02
2.090000e-06	3.645192e-06	4.605957e-09	2.597602e+01	3.023730e+02
2.100000e-06	3.568615e-06	4.563930e-09	2.543032e+01	2.992302e+02
2.110000e-06	3.490471e-06	4.508643e-09	2.487346e+01	2.960017e+02
2.120000e-06	3.410936e-06	4.470549e-09	2.430669e+01	2.926807e+02
2.130000e-06	3.330273e-06	4.417509e-09	2.373187e+01	2.892628e+02
2.140000e-06	3.248484e-06	4.373755e-09	2.314904e+01	2.857458e+02
2.150000e-06	3.165641e-06	4.307095e-09	2.255869e+01	2.821305e+02
2.160000e-06	3.081776e-06	4.244781e-09	2.196106e+01	2.784196e+02
2.170000e-06	2.996850e-06	4.191980e-09	2.135587e+01	2.746174e+02
2.180000e-06	2.910638e-06	4.137839e-09	2.074151e+01	2.707282e+02
2.190000e-06	2.823090e-06	4.086551e-09	2.011763e+01	2.667555e+02
2.200000e-06	2.734581e-06	4.016000e-09	1.948691e+01	2.627009e+02
2.210000e-06	2.645252e-06	3.949047e-09	1.885034e+01	2.585631e+02
2.220000e-06	2.554988e-06	3.881661e-09	1.820711e+01	2.543384e+02
2.230000e-06	2.463793e-06	3.820278e-09	1.755724e+01	2.500201e+02
2.240000e-06	2.371819e-06	3.758028e-09	1.690183e+01	2.455997e+02
2.250000e-06	2.279130e-06	3.691341e-09	1.624132e+01	2.410681e+02
2.260000e-06	2.185689e-06	3.619080e-09	1.557545e+01	2.364166e+02
2.270000e-06	2.091281e-06	3.540050e-09	1.490269e+01	2.316386e+02
2.280000e-06	1.995792e-06	3.463091e-09	1.422222e+01	2.267303e+02
2.290000e-06	1.899534e-06	3.387918e-09	1.353628e+01	2.216917e+02
2.300000e-06	1.802744e-06	3.313548e-09	1.284654e+01	2.165262e+02
2.310000e-06	1.705430e-06	3.230099e-09	1.215307e+01	2.112396e+02
2.320000e-06	1.607548e-06	3.146432e-09	1.145556e+01	2.058389e+02
2.330000e-06	1.509100e-06	3.067263e-09	1.075400e+01	2.003303e+02
2.340000e-06	1.410159e-06	2.987735e-09	1.004894e+01	1.947172e+02
2.350000e-06	1.310851e-06	2.901622e-09	9.341261e+00	1.889995e+02
2.360000e-06	1.211270e-06	2.807815e-09	8.631638e+00	1.831724e+02
2.370000e-06	1.111384e-06	2.713415e-09	7.919837e+00	1.772274e+02
2.380000e-06	1.011154e-06	2.621562e-09	7.205590e+00	1.711533e+02
2.390000e-06	9.105595e-07	2.531634e-09	6.488742e+00	1.649388e+02
2.400000e-06	8.096020e-07	2.437990e-09	5.769309e+00	1.585743e+02
2.410000e-06	7.083237e-07	2.336489e-09	5.047589e+00	1.520544e+02
2.420000e-06	6.067656e-07	2.227799e-09	4.323875e+00	1.453783e+02
2.430000e-06	5.049461e-07	2.119929e-09	3.598299e+00	1.385501e+02
2.440000e-06	4.028803e-07	2.016864e-09	2.870967e+00	1.315772e+02
2.450000e-06	3.006235e-07	1.912950e-09	2.142274e+00	1.244679e+02
2.460000e-06	1.982191e-07	1.802727e-09	1.412530e+00	1.172283e+02
2.470000e-06	9.569209e-08	1.686157e-09	6.819118e-01	1.098601e+02
2.480000e-06	-6.860359e-09	1.567616e-09	-4.888764e-02	1.023583e+02
2.490000e-06	-1.093890e-07	1.450497e-09	-7.795175e-01	9.471105e+01
2.500000e-06	-2.118877e-07	1.334355e-09	-1.509934e+00	8.690086e+01
2.510000e-06	-3.143206e-07	1.214723e-09	-2.239881e+00	7.890677e+01
2.520000e-06	-4.166567e-07	1.089465e-09	-2.969139e+00	7.070782e+01
2.530000e-06	-5.188275e-07	9.570255e-10	-3.697219e+00	6.228637e+01
2.540000e-06	-6.208097e-07	8.212279e-10	-4.423955e+00	5.363082e+01
2.550000e-06	-7.225055e-07	6.861274e-10	-5.148650e+00	4.473704e+01
2.560000e-06	-8.238017e-07	5.482166e-10	-5.870497e+00	3.560831e+01
2.570000e-06	-9.247113e-07	4.064830e-10	-6.589589e+00	2.625384e+01
2.580000e-06	-1.025224e-06	2.607984e-10	-7.305850e+00	1.668632e+01
2.590000e-06	-1.125322e-06	1.132842e-10	-8.019165e+00	6.919226e+00
2.600000e-06	-1.225011e-06	-3.597382e-11	-8.729559e+00	-3.035384e+00
2.610000e-06	-1.324331e-06	-1.900080e-10	-9.437322e+00	-1.316788e+01
2.620000e-06	-1.423266e-06	-3.476204e-10	-1.014234e+01	-2.347066e+01
2.630000e-06	-1.521745e-06	-5.089933e-10	-1.084412e+01	-3.393638e+01
2.640000e-06	-1.619653e-06	-6.729381e-10	-1.154181e+01	-4.455517e+01
2.650000e-06	-1.716908e-06	-8.374831e-10	-1.223487e+01	-5.531171e+01
2.660000e-06	-1.813619e-06	-1.002008e-09	-1.292404e+01	-6.618278e+01
2.670000e-06	-1.909817e-06	-1.166792e-09	-1.360956e+01	-7.713608e+01
2.680000e-06	-2.005458e-06	-1.335095e-09	-1.429110e+01	-8.813061e+01
2.690000e-06	-2.100380e-06	-1.503219e-09	-1.496753e+01	-9.911865e+01
2.700000e-06	-2.194385e-06	-1.668547e-09	-1.563742e+01	-1.100490e+02
2.710000e-06	-2.287385e-06	-1.831476e-09	-1.630014e+01	-1.208709e+02
2.720000e-06	-2.379474e-06	-1.992451e-09	-1.695638e+01	-1.315374e+02
2.730000e-06	-2.470755e-06	-2.151537e-09	-1.760686e+01	-1.420082e+02
2.740000e-06	-2.561150e-06	-2.307619e-09	-1.825102e+01	-1.522512e+02
2.750000e-06	-2.650587e-06	-2.460018e-09	-1.888836e+01	-1.622422e+02
2.760000e-06	-2.739133e-06	-2.608128e-09	-1.951935e+01	-1.719636e+02
2.770000e-06	-2.826902e-06	-2.752804e-09	-2.014480e+01	-1.814027e+02
2.780000e-06	-2.913777e-06	-2.893658e-09	-2.076388e+01	-1.905495e+02
2.790000e-06	-2.999509e-06	-3.029242e-09	-2.137481e+01	-1.993948e+02
2.800000e-06	-3.084021e-06	-3.158651e-09	-2.197705e+01	-2.079299e+02
2.810000e-06	-3.167456e-06	-3.283475e-09	-2.257162e+01	-2.161464e+02
2.820000e-06	-3.249861e-06	-3.403976e-09	-2.315885e+01	-2.240375e+02
2.830000e-06	-3.331174e-06	-3.520098e-09	-2.373829e+01	-2.315995e+02
2.840000e-06	-3.411447e-06	-3.632758e-09	-2.431033e+01	-2.388330e+02
2.850000e-06	-3.490571e-06	-3.741616e-09	-2.487417e+01	-2.457444e+02
2.860000e-06	-3.568225e-06	-3.844621e-09	-2.542755e+01	-2.523453e+02
2.870000e-06	-3.644327e-06	-3.940507e-09	-2.596985e+01	-2.586526e+02
2.880000e-06	-3.718987e-06	-4.032419e-09	-2.650189e+01	-2.646865e+02
2.890000e-06	-3.792295e-06	-4.120973e-09	-2.702429e+01	-2.704689e+02
2.900000e-06	-3.864329e-06	-4.205104e-09	-2.753761e+01	-2.760213e+02
2.910000e-06	-3.934909e-06	-4.285364e-09	-2.804057e+01	-2.813630e+02
2.920000e-06	-4.003850e-06	-4.363137e-09	-2.853185e+01	-2.865102e+02
2.930000e-06	-4.071351e-06	-4.440411e-09	-2.901287e+01	-2.914748e+02
2.940000e-06	-4.137516e-06	-4.515257e-09	-2.948437e+01	-2.962649e+02
