# Temperatura_=_42.27
# Concentracion g/m^3_=_15000.0
# C_Vs_to_Am_M_A/Vsm_=_65563218390.804596
# pendiente_HvsI_1/m_=_3716.3
# ordenada_HvsI_A/m_=_1297.0
# frecuencia_Hz_=_301592.4988716713

Tiempo_(s)	Campo_(V.s)	Magnetizacion_(V.s)	Campo_(kA/m)	Magnetizacion_(A/m)
0.000000e+00	-5.376262e-06	-5.976242e-09	-3.833900e+01	-3.901916e+02
1.000000e-08	-5.373575e-06	-5.974033e-09	-3.831984e+01	-3.900439e+02
2.000000e-08	-5.369091e-06	-5.968676e-09	-3.828786e+01	-3.898313e+02
3.000000e-08	-5.362930e-06	-5.960749e-09	-3.824393e+01	-3.895521e+02
4.000000e-08	-5.355176e-06	-5.951886e-09	-3.818863e+01	-3.892001e+02
5.000000e-08	-5.345594e-06	-5.943749e-09	-3.812030e+01	-3.887657e+02
6.000000e-08	-5.333983e-06	-5.936177e-09	-3.803750e+01	-3.882394e+02
7.000000e-08	-5.320554e-06	-5.930456e-09	-3.794173e+01	-3.876149e+02
8.000000e-08	-5.305064e-06	-5.915568e-09	-3.783127e+01	-3.868922e+02
9.000000e-08	-5.287288e-06	-5.923655e-09	-3.770451e+01	-3.860800e+02
1.000000e-07	-5.267424e-06	-5.929437e-09	-3.756286e+01	-3.851954e+02
1.100000e-07	-5.245594e-06	-5.894138e-09	-3.740719e+01	-3.842613e+02
1.200000e-07	-5.222093e-06	-5.870811e-09	-3.723959e+01	-3.833027e+02
1.300000e-07	-5.197064e-06	-5.844222e-09	-3.706111e+01	-3.823407e+02
1.400000e-07	-5.170385e-06	-5.779580e-09	-3.687086e+01	-3.813878e+02
1.500000e-07	-5.142139e-06	-5.828250e-09	-3.666943e+01	-3.804438e+02
1.600000e-07	-5.112482e-06	-5.824000e-09	-3.645794e+01	-3.794948e+02
1.700000e-07	-5.081274e-06	-5.756865e-09	-3.623539e+01	-3.785147e+02
1.800000e-07	-5.047955e-06	-5.801065e-09	-3.599778e+01	-3.774694e+02
1.900000e-07	-5.012678e-06	-5.729024e-09	-3.574622e+01	-3.763236e+02
2.000000e-07	-4.975911e-06	-5.666335e-09	-3.548403e+01	-3.750468e+02
2.100000e-07	-4.937464e-06	-5.715531e-09	-3.520986e+01	-3.736195e+02
2.200000e-07	-4.897227e-06	-5.665444e-09	-3.492292e+01	-3.720363e+02
2.300000e-07	-4.855021e-06	-5.620506e-09	-3.462195e+01	-3.703064e+02
2.400000e-07	-4.810862e-06	-5.610632e-09	-3.430704e+01	-3.684504e+02
2.500000e-07	-4.764989e-06	-5.555514e-09	-3.397991e+01	-3.664958e+02
2.600000e-07	-4.717296e-06	-5.554958e-09	-3.363980e+01	-3.644701e+02
2.700000e-07	-4.667510e-06	-5.532461e-09	-3.328477e+01	-3.623954e+02
2.800000e-07	-4.615581e-06	-5.496970e-09	-3.291446e+01	-3.602841e+02
2.900000e-07	-4.561779e-06	-5.449354e-09	-3.253079e+01	-3.581374e+02
3.000000e-07	-4.506442e-06	-5.393533e-09	-3.213617e+01	-3.559462e+02
3.100000e-07	-4.449474e-06	-5.381464e-09	-3.172992e+01	-3.536950e+02
3.200000e-07	-4.390689e-06	-5.362201e-09	-3.131072e+01	-3.513662e+02
3.300000e-07	-4.330286e-06	-5.330313e-09	-3.087997e+01	-3.489453e+02
3.400000e-07	-4.268404e-06	-5.268511e-09	-3.043868e+01	-3.464239e+02
3.500000e-07	-4.205154e-06	-5.213058e-09	-2.998764e+01	-3.438015e+02
3.600000e-07	-4.140449e-06	-5.194443e-09	-2.952621e+01	-3.410847e+02
3.700000e-07	-4.074069e-06	-5.161171e-09	-2.905285e+01	-3.382845e+02
3.800000e-07	-4.006069e-06	-5.119716e-09	-2.856793e+01	-3.354123e+02
3.900000e-07	-3.936714e-06	-5.068052e-09	-2.807335e+01	-3.324768e+02
4.000000e-07	-3.866147e-06	-5.003681e-09	-2.757012e+01	-3.294809e+02
4.100000e-07	-3.794376e-06	-4.955250e-09	-2.705831e+01	-3.264211e+02
4.200000e-07	-3.721162e-06	-4.913061e-09	-2.653621e+01	-3.232880e+02
4.300000e-07	-3.646316e-06	-4.878351e-09	-2.600247e+01	-3.200690e+02
4.400000e-07	-3.570002e-06	-4.830646e-09	-2.545827e+01	-3.167515e+02
4.500000e-07	-3.492268e-06	-4.771771e-09	-2.490393e+01	-3.133256e+02
4.600000e-07	-3.413076e-06	-4.709992e-09	-2.433920e+01	-3.097865e+02
4.700000e-07	-3.332624e-06	-4.658566e-09	-2.376549e+01	-3.061354e+02
4.800000e-07	-3.250985e-06	-4.617052e-09	-2.318330e+01	-3.023777e+02
4.900000e-07	-3.168177e-06	-4.551255e-09	-2.259278e+01	-2.985220e+02
5.000000e-07	-3.084391e-06	-4.480003e-09	-2.199529e+01	-2.945765e+02
5.100000e-07	-2.999699e-06	-4.414296e-09	-2.139134e+01	-2.905472e+02
5.200000e-07	-2.914026e-06	-4.355862e-09	-2.078039e+01	-2.864358e+02
5.300000e-07	-2.827317e-06	-4.299173e-09	-2.016206e+01	-2.822393e+02
5.400000e-07	-2.739754e-06	-4.236564e-09	-1.953763e+01	-2.779508e+02
5.500000e-07	-2.651303e-06	-4.164022e-09	-1.890687e+01	-2.735613e+02
5.600000e-07	-2.561647e-06	-4.083801e-09	-1.826752e+01	-2.690617e+02
5.700000e-07	-2.470820e-06	-4.014092e-09	-1.761982e+01	-2.644444e+02
5.800000e-07	-2.379084e-06	-3.955143e-09	-1.696564e+01	-2.597050e+02
5.900000e-07	-2.286541e-06	-3.888735e-09	-1.630570e+01	-2.548419e+02
6.000000e-07	-2.193237e-06	-3.803052e-09	-1.564033e+01	-2.498564e+02
6.100000e-07	-2.099145e-06	-3.715858e-09	-1.496935e+01	-2.447508e+02
6.200000e-07	-2.004341e-06	-3.634273e-09	-1.429329e+01	-2.395278e+02
6.300000e-07	-1.908960e-06	-3.554141e-09	-1.361311e+01	-2.341886e+02
6.400000e-07	-1.812889e-06	-3.476181e-09	-1.292801e+01	-2.287328e+02
6.500000e-07	-1.716069e-06	-3.397573e-09	-1.223756e+01	-2.231585e+02
6.600000e-07	-1.618437e-06	-3.311353e-09	-1.154134e+01	-2.174628e+02
6.700000e-07	-1.520088e-06	-3.215325e-09	-1.083999e+01	-2.116422e+02
6.800000e-07	-1.421202e-06	-3.121020e-09	-1.013482e+01	-2.056939e+02
6.900000e-07	-1.321805e-06	-3.031555e-09	-9.426007e+00	-1.996159e+02
7.000000e-07	-1.222013e-06	-2.939354e-09	-8.714375e+00	-1.934069e+02
7.100000e-07	-1.121916e-06	-2.839619e-09	-8.000563e+00	-1.870657e+02
7.200000e-07	-1.021533e-06	-2.737069e-09	-7.284718e+00	-1.805910e+02
7.300000e-07	-9.208289e-07	-2.635831e-09	-6.566581e+00	-1.739801e+02
7.400000e-07	-8.198158e-07	-2.536797e-09	-5.846240e+00	-1.672291e+02
7.500000e-07	-7.184775e-07	-2.436685e-09	-5.123580e+00	-1.603328e+02
7.600000e-07	-6.168715e-07	-2.330739e-09	-4.399011e+00	-1.532850e+02
7.700000e-07	-5.150633e-07	-2.217644e-09	-3.673000e+00	-1.460795e+02
7.800000e-07	-4.130532e-07	-2.100704e-09	-2.945550e+00	-1.387103e+02
7.900000e-07	-3.108756e-07	-1.985324e-09	-2.216904e+00	-1.311720e+02
8.000000e-07	-2.086016e-07	-1.870801e-09	-1.487572e+00	-1.234596e+02
8.100000e-07	-1.062391e-07	-1.753933e-09	-7.576083e-01	-1.155678e+02
8.200000e-07	-3.811289e-09	-1.630491e-09	-2.717892e-02	-1.074904e+02
8.300000e-07	9.865586e-08	-1.500409e-09	7.035310e-01	-9.921941e+01
8.400000e-07	2.011457e-07	-1.369268e-09	1.434403e+00	-9.074487e+01
8.500000e-07	3.034934e-07	-1.240800e-09	2.164261e+00	-8.205522e+01
8.600000e-07	4.057216e-07	-1.109047e-09	2.893267e+00	-7.313811e+01
8.700000e-07	5.078826e-07	-9.671770e-10	3.621793e+00	-6.398192e+01
8.800000e-07	6.099117e-07	-8.182661e-10	4.349379e+00	-5.457724e+01
8.900000e-07	7.117546e-07	-6.682999e-10	5.075638e+00	-4.491821e+01
9.000000e-07	8.133012e-07	-5.171601e-10	5.799783e+00	-3.500320e+01
9.100000e-07	9.145139e-07	-3.621785e-10	6.521547e+00	-2.483487e+01
9.200000e-07	1.015417e-06	-2.038485e-10	7.241104e+00	-1.441955e+01
9.300000e-07	1.115989e-06	-3.995655e-11	7.958301e+00	-3.766218e+00
9.400000e-07	1.216251e-06	1.280676e-10	8.673285e+00	7.114298e+00
9.500000e-07	1.316162e-06	2.980684e-10	9.385766e+00	1.820971e+01
9.600000e-07	1.415607e-06	4.686627e-10	1.009492e+01	2.950581e+01
9.700000e-07	1.514449e-06	6.411279e-10	1.079978e+01	4.098515e+01
9.800000e-07	1.612543e-06	8.196250e-10	1.149931e+01	5.262522e+01
9.900000e-07	1.709885e-06	1.002216e-09	1.219347e+01	6.439649e+01
1.000000e-06	1.806507e-06	1.183953e-09	1.288250e+01	7.626106e+01
1.010000e-06	1.902379e-06	1.363439e-09	1.356617e+01	8.817251e+01
1.020000e-06	1.997530e-06	1.542688e-09	1.424471e+01	1.000772e+02
1.030000e-06	2.092010e-06	1.722234e-09	1.491846e+01	1.119169e+02
1.040000e-06	2.185777e-06	1.901578e-09	1.558713e+01	1.236331e+02
1.050000e-06	2.278793e-06	2.077435e-09	1.625045e+01	1.351707e+02
1.060000e-06	2.371130e-06	2.248822e-09	1.690891e+01	1.464826e+02
1.070000e-06	2.462748e-06	2.415713e-09	1.756226e+01	1.575313e+02
1.080000e-06	2.553479e-06	2.580204e-09	1.820928e+01	1.682911e+02
1.090000e-06	2.643154e-06	2.743455e-09	1.884876e+01	1.787457e+02
1.100000e-06	2.731734e-06	2.902414e-09	1.948044e+01	1.888869e+02
1.110000e-06	2.819289e-06	3.053788e-09	2.010481e+01	1.987105e+02
1.120000e-06	2.905930e-06	3.197373e-09	2.072266e+01	2.082134e+02
1.130000e-06	2.991709e-06	3.334574e-09	2.133436e+01	2.173911e+02
1.140000e-06	3.076544e-06	3.467520e-09	2.193934e+01	2.262366e+02
1.150000e-06	3.160446e-06	3.596464e-09	2.253765e+01	2.347411e+02
1.160000e-06	3.243335e-06	3.719805e-09	2.312875e+01	2.428958e+02
1.170000e-06	3.325004e-06	3.835933e-09	2.371115e+01	2.506947e+02
1.180000e-06	3.405379e-06	3.946988e-09	2.428431e+01	2.581372e+02
1.190000e-06	3.484511e-06	4.054213e-09	2.484861e+01	2.652296e+02
1.200000e-06	3.562447e-06	4.157129e-09	2.540439e+01	2.719860e+02
1.210000e-06	3.639160e-06	4.256580e-09	2.595144e+01	2.784267e+02
1.220000e-06	3.714559e-06	4.350281e-09	2.648912e+01	2.845762e+02
1.230000e-06	3.788377e-06	4.438479e-09	2.701553e+01	2.904606e+02
1.240000e-06	3.860564e-06	4.522009e-09	2.753031e+01	2.961041e+02
1.250000e-06	3.931372e-06	4.603548e-09	2.803525e+01	3.015274e+02
1.260000e-06	4.000846e-06	4.685000e-09	2.853068e+01	3.067462e+02
1.270000e-06	4.068946e-06	4.763220e-09	2.901631e+01	3.117717e+02
1.280000e-06	4.135577e-06	4.835911e-09	2.949147e+01	3.166114e+02
1.290000e-06	4.200507e-06	4.907008e-09	2.995450e+01	3.212710e+02
1.300000e-06	4.263811e-06	4.976440e-09	3.040593e+01	3.257553e+02
1.310000e-06	4.325699e-06	5.041575e-09	3.084726e+01	3.300694e+02
1.320000e-06	4.386241e-06	5.102268e-09	3.127900e+01	3.342187e+02
1.330000e-06	4.445419e-06	5.159757e-09	3.170100e+01	3.382083e+02
1.340000e-06	4.502900e-06	5.214707e-09	3.211091e+01	3.420418e+02
1.350000e-06	4.558590e-06	5.268811e-09	3.250804e+01	3.457199e+02
1.360000e-06	4.612663e-06	5.322809e-09	3.289365e+01	3.492408e+02
1.370000e-06	4.664968e-06	5.373994e-09	3.326664e+01	3.525997e+02
1.380000e-06	4.715308e-06	5.420010e-09	3.362562e+01	3.557903e+02
1.390000e-06	4.763646e-06	5.463503e-09	3.397034e+01	3.588070e+02
1.400000e-06	4.810250e-06	5.505513e-09	3.430268e+01	3.616461e+02
1.410000e-06	4.855338e-06	5.544136e-09	3.462421e+01	3.643081e+02
1.420000e-06	4.898843e-06	5.579936e-09	3.493445e+01	3.667979e+02
1.430000e-06	4.940462e-06	5.612400e-09	3.523124e+01	3.691249e+02
1.440000e-06	4.980191e-06	5.641915e-09	3.551455e+01	3.713012e+02
1.450000e-06	5.018315e-06	5.669677e-09	3.578642e+01	3.733400e+02
1.460000e-06	5.054846e-06	5.697163e-09	3.604693e+01	3.752530e+02
1.470000e-06	5.089619e-06	5.725447e-09	3.629490e+01	3.770494e+02
1.480000e-06	5.122440e-06	5.752055e-09	3.652895e+01	3.787342e+02
1.490000e-06	5.153451e-06	5.775022e-09	3.675009e+01	3.803094e+02
1.500000e-06	5.182781e-06	5.796224e-09	3.695926e+01	3.817741e+02
1.510000e-06	5.210407e-06	5.815572e-09	3.715626e+01	3.831268e+02
1.520000e-06	5.236076e-06	5.833304e-09	3.733931e+01	3.843665e+02
1.530000e-06	5.259635e-06	5.849259e-09	3.750731e+01	3.854941e+02
1.540000e-06	5.281345e-06	5.864212e-09	3.766213e+01	3.865123e+02
1.550000e-06	5.301403e-06	5.878844e-09	3.780517e+01	3.874253e+02
1.560000e-06	5.319648e-06	5.893006e-09	3.793527e+01	3.882379e+02
1.570000e-06	5.335819e-06	5.906051e-09	3.805059e+01	3.889537e+02
1.580000e-06	5.350037e-06	5.916162e-09	3.815199e+01	3.895751e+02
1.590000e-06	5.362289e-06	5.924617e-09	3.823936e+01	3.901021e+02
1.600000e-06	5.372301e-06	5.931605e-09	3.831075e+01	3.905337e+02
1.610000e-06	5.380218e-06	5.937462e-09	3.836721e+01	3.908690e+02
1.620000e-06	5.386280e-06	5.942767e-09	3.841044e+01	3.911082e+02
1.630000e-06	5.390548e-06	5.947851e-09	3.844087e+01	3.912541e+02
1.640000e-06	5.392903e-06	5.951351e-09	3.845767e+01	3.913122e+02
1.650000e-06	5.393230e-06	5.954036e-09	3.846000e+01	3.912898e+02
1.660000e-06	5.391724e-06	5.955591e-09	3.844926e+01	3.911947e+02
1.670000e-06	5.388605e-06	5.951697e-09	3.842702e+01	3.910327e+02
1.680000e-06	5.383849e-06	5.949668e-09	3.839311e+01	3.908059e+02
1.690000e-06	5.377216e-06	5.947584e-09	3.834580e+01	3.905116e+02
1.700000e-06	5.368783e-06	5.943355e-09	3.828566e+01	3.901425e+02
1.710000e-06	5.358763e-06	5.938210e-09	3.821421e+01	3.896890e+02
1.720000e-06	5.347019e-06	5.928866e-09	3.813046e+01	3.891417e+02
1.730000e-06	5.333269e-06	5.927073e-09	3.803241e+01	3.884956e+02
1.740000e-06	5.317492e-06	5.898514e-09	3.791990e+01	3.877525e+02
1.750000e-06	5.299449e-06	5.860872e-09	3.779124e+01	3.869228e+02
1.760000e-06	5.278742e-06	5.871439e-09	3.764357e+01	3.860253e+02
1.770000e-06	5.255695e-06	5.857939e-09	3.747921e+01	3.850836e+02
1.780000e-06	5.231234e-06	5.873971e-09	3.730478e+01	3.841225e+02
1.790000e-06	5.206025e-06	5.895311e-09	3.712501e+01	3.831615e+02
1.800000e-06	5.179472e-06	5.774279e-09	3.693566e+01	3.822108e+02
1.810000e-06	5.150699e-06	5.797557e-09	3.673047e+01	3.812671e+02
1.820000e-06	5.120042e-06	5.814967e-09	3.651185e+01	3.803138e+02
1.830000e-06	5.087806e-06	5.697446e-09	3.628197e+01	3.793224e+02
1.840000e-06	5.053666e-06	5.786736e-09	3.603851e+01	3.782583e+02
1.850000e-06	5.017905e-06	5.795593e-09	3.578350e+01	3.770864e+02
1.860000e-06	4.980392e-06	5.692984e-09	3.551599e+01	3.757783e+02
1.870000e-06	4.940945e-06	5.739831e-09	3.523468e+01	3.743173e+02
1.880000e-06	4.899865e-06	5.668762e-09	3.494173e+01	3.727012e+02
1.890000e-06	4.857013e-06	5.645160e-09	3.463615e+01	3.709419e+02
1.900000e-06	4.812523e-06	5.673787e-09	3.431888e+01	3.690622e+02
1.910000e-06	4.766265e-06	5.572225e-09	3.398901e+01	3.670898e+02
1.920000e-06	4.717936e-06	5.597051e-09	3.364437e+01	3.650518e+02
1.930000e-06	4.667940e-06	5.532275e-09	3.328784e+01	3.629684e+02
1.940000e-06	4.616249e-06	5.480316e-09	3.291922e+01	3.608496e+02
1.950000e-06	4.562473e-06	5.529566e-09	3.253574e+01	3.586941e+02
1.960000e-06	4.506746e-06	5.448030e-09	3.213834e+01	3.564913e+02
1.970000e-06	4.449293e-06	5.402359e-09	3.172863e+01	3.542246e+02
1.980000e-06	4.390393e-06	5.341691e-09	3.130861e+01	3.518769e+02
1.990000e-06	4.330046e-06	5.326228e-09	3.087826e+01	3.494346e+02
2.000000e-06	4.267999e-06	5.335298e-09	3.043580e+01	3.468911e+02
2.010000e-06	4.204314e-06	5.239157e-09	2.998165e+01	3.442475e+02
2.020000e-06	4.139136e-06	5.226514e-09	2.951685e+01	3.415116e+02
2.030000e-06	4.072554e-06	5.167661e-09	2.904205e+01	3.386947e+02
2.040000e-06	4.004592e-06	5.106190e-09	2.855739e+01	3.358082e+02
2.050000e-06	3.935141e-06	5.086079e-09	2.806213e+01	3.328595e+02
2.060000e-06	3.864108e-06	5.044407e-09	2.755558e+01	3.298502e+02
2.070000e-06	3.791637e-06	5.028999e-09	2.703878e+01	3.267753e+02
2.080000e-06	3.717922e-06	4.932888e-09	2.651310e+01	3.236247e+02
2.090000e-06	3.642870e-06	4.869837e-09	2.597790e+01	3.203854e+02
2.100000e-06	3.566386e-06	4.836731e-09	2.543248e+01	3.170450e+02
2.110000e-06	3.488372e-06	4.792124e-09	2.487615e+01	3.135949e+02
2.120000e-06	3.408948e-06	4.742863e-09	2.430977e+01	3.100313e+02
2.130000e-06	3.328367e-06	4.667105e-09	2.373512e+01	3.063564e+02
2.140000e-06	3.246623e-06	4.625517e-09	2.315220e+01	3.025768e+02
2.150000e-06	3.163782e-06	4.557467e-09	2.256144e+01	2.987009e+02
2.160000e-06	3.080026e-06	4.502079e-09	2.196416e+01	2.947369e+02
2.170000e-06	2.995234e-06	4.453085e-09	2.135950e+01	2.906897e+02
2.180000e-06	2.909037e-06	4.380697e-09	2.074482e+01	2.865602e+02
2.190000e-06	2.821579e-06	4.301973e-09	2.012114e+01	2.823444e+02
2.200000e-06	2.733208e-06	4.228392e-09	1.949095e+01	2.780349e+02
2.210000e-06	2.643900e-06	4.185391e-09	1.885408e+01	2.736223e+02
2.220000e-06	2.553644e-06	4.126216e-09	1.821045e+01	2.690977e+02
2.230000e-06	2.462561e-06	4.046519e-09	1.756092e+01	2.644543e+02
2.240000e-06	2.370749e-06	3.963146e-09	1.690619e+01	2.596881e+02
2.250000e-06	2.278192e-06	3.889290e-09	1.624616e+01	2.547984e+02
2.260000e-06	2.184759e-06	3.814612e-09	1.557987e+01	2.497867e+02
2.270000e-06	2.090307e-06	3.742460e-09	1.490632e+01	2.446556e+02
2.280000e-06	1.994892e-06	3.669891e-09	1.422590e+01	2.394073e+02
2.290000e-06	1.898732e-06	3.579393e-09	1.354017e+01	2.340429e+02
2.300000e-06	1.801987e-06	3.482713e-09	1.285026e+01	2.285618e+02
2.310000e-06	1.704757e-06	3.394077e-09	1.215690e+01	2.229615e+02
2.320000e-06	1.607012e-06	3.320384e-09	1.145987e+01	2.172390e+02
2.330000e-06	1.508745e-06	3.240545e-09	1.075910e+01	2.113910e+02
2.340000e-06	1.409933e-06	3.146794e-09	1.005446e+01	2.054148e+02
2.350000e-06	1.310647e-06	3.045918e-09	9.346440e+00	1.993086e+02
2.360000e-06	1.211080e-06	2.947111e-09	8.636405e+00	1.930711e+02
2.370000e-06	1.111298e-06	2.853635e-09	7.924847e+00	1.867013e+02
2.380000e-06	1.011238e-06	2.760642e-09	7.211306e+00	1.801974e+02
2.390000e-06	9.107741e-07	2.659685e-09	6.494878e+00	1.735566e+02
2.400000e-06	8.099126e-07	2.548857e-09	5.775618e+00	1.667747e+02
2.410000e-06	7.087009e-07	2.439879e-09	5.053861e+00	1.598461e+02
2.420000e-06	6.072345e-07	2.335167e-09	4.330288e+00	1.527648e+02
2.430000e-06	5.055554e-07	2.230811e-09	3.605197e+00	1.455245e+02
2.440000e-06	4.036311e-07	2.118516e-09	2.878359e+00	1.381193e+02
2.450000e-06	3.015036e-07	1.996645e-09	2.150071e+00	1.305438e+02
2.460000e-06	1.991756e-07	1.872129e-09	1.420353e+00	1.227932e+02
2.470000e-06	9.671011e-08	1.751736e-09	6.896555e-01	1.148620e+02
2.480000e-06	-5.828058e-09	1.634067e-09	-4.156083e-02	1.067436e+02
2.490000e-06	-1.084171e-07	1.511664e-09	-7.731399e-01	9.842961e+01
2.500000e-06	-2.109661e-07	1.379258e-09	-1.504434e+00	8.990975e+01
2.510000e-06	-3.134389e-07	1.240223e-09	-2.235184e+00	8.117214e+01
2.520000e-06	-4.158009e-07	1.102387e-09	-2.965144e+00	7.220448e+01
2.530000e-06	-5.179443e-07	9.645354e-10	-3.693545e+00	6.299549e+01
2.540000e-06	-6.198504e-07	8.246397e-10	-4.420254e+00	5.353641e+01
2.550000e-06	-7.214605e-07	6.795324e-10	-5.144852e+00	4.382226e+01
2.560000e-06	-8.227041e-07	5.252462e-10	-5.866837e+00	3.385236e+01
2.570000e-06	-9.235828e-07	3.656392e-10	-6.586219e+00	2.363023e+01
2.580000e-06	-1.024007e-06	2.067569e-10	-7.302362e+00	1.316282e+01
2.590000e-06	-1.124028e-06	4.888456e-11	-8.015626e+00	2.459598e+00
2.600000e-06	-1.223705e-06	-1.147187e-10	-8.726436e+00	-8.468302e+00
2.610000e-06	-1.322959e-06	-2.873361e-10	-9.434237e+00	-1.960825e+01
2.620000e-06	-1.421799e-06	-4.615866e-10	-1.013908e+01	-3.094547e+01
2.630000e-06	-1.520224e-06	-6.353944e-10	-1.084096e+01	-4.246161e+01
2.640000e-06	-1.618076e-06	-8.122805e-10	-1.153876e+01	-5.413280e+01
2.650000e-06	-1.715266e-06	-9.922115e-10	-1.223184e+01	-6.592779e+01
2.660000e-06	-1.811874e-06	-1.176303e-09	-1.292077e+01	-7.780684e+01
2.670000e-06	-1.908004e-06	-1.362562e-09	-1.360628e+01	-8.972181e+01
2.680000e-06	-2.003659e-06	-1.546921e-09	-1.428842e+01	-1.016178e+02
2.690000e-06	-2.098615e-06	-1.726271e-09	-1.496557e+01	-1.134362e+02
2.700000e-06	-2.192569e-06	-1.902083e-09	-1.563556e+01	-1.251188e+02
2.710000e-06	-2.285473e-06	-2.076733e-09	-1.629808e+01	-1.366119e+02
2.720000e-06	-2.377427e-06	-2.248772e-09	-1.695382e+01	-1.478704e+02
2.730000e-06	-2.468550e-06	-2.414796e-09	-1.760363e+01	-1.588593e+02
2.740000e-06	-2.558854e-06	-2.574989e-09	-1.824761e+01	-1.695549e+02
2.750000e-06	-2.648263e-06	-2.730633e-09	-1.888519e+01	-1.799431e+02
2.760000e-06	-2.736797e-06	-2.883082e-09	-1.951655e+01	-1.900168e+02
2.770000e-06	-2.824466e-06	-3.034510e-09	-2.014173e+01	-1.997722e+02
2.780000e-06	-2.911195e-06	-3.183371e-09	-2.076020e+01	-2.092062e+02
2.790000e-06	-2.996793e-06	-3.324231e-09	-2.137062e+01	-2.183136e+02
2.800000e-06	-3.081167e-06	-3.455663e-09	-2.197230e+01	-2.270870e+02
2.810000e-06	-3.164463e-06	-3.581713e-09	-2.256630e+01	-2.355175e+02
2.820000e-06	-3.246783e-06	-3.704379e-09	-2.315334e+01	-2.435965e+02
2.830000e-06	-3.328049e-06	-3.823197e-09	-2.373286e+01	-2.513192e+02
2.840000e-06	-3.408288e-06	-3.938555e-09	-2.430506e+01	-2.586861e+02
2.850000e-06	-3.487394e-06	-4.049430e-09	-2.486917e+01	-2.657054e+02
2.860000e-06	-3.564982e-06	-4.153197e-09	-2.542247e+01	-2.723924e+02
2.870000e-06	-3.641002e-06	-4.250222e-09	-2.596457e+01	-2.787688e+02
2.880000e-06	-3.715632e-06	-4.344924e-09	-2.649677e+01	-2.848596e+02
2.890000e-06	-3.788914e-06	-4.436389e-09	-2.701936e+01	-2.906907e+02
2.900000e-06	-3.860896e-06	-4.520812e-09	-2.753267e+01	-2.962857e+02
2.910000e-06	-3.931454e-06	-4.599409e-09	-2.803584e+01	-3.016642e+02
2.920000e-06	-4.000366e-06	-4.676366e-09	-2.852726e+01	-3.068410e+02
2.930000e-06	-4.067802e-06	-4.753954e-09	-2.900816e+01	-3.118264e+02
2.940000e-06	-4.133921e-06	-4.828512e-09	-2.947966e+01	-3.166274e+02
