# Temperatura_=_48.9
# Concentracion g/m^3_=_15000.0
# C_Vs_to_Am_M_A/Vsm_=_65563218390.804596
# pendiente_HvsI_1/m_=_3716.3
# ordenada_HvsI_A/m_=_1297.0
# frecuencia_Hz_=_301595.64061829273

Tiempo_(s)	Campo_(V.s)	Magnetizacion_(V.s)	Campo_(kA/m)	Magnetizacion_(A/m)
0.000000e+00	-5.367694e-06	-6.250237e-09	-3.833625e+01	-4.082248e+02
1.000000e-08	-5.364968e-06	-6.247184e-09	-3.831678e+01	-4.080505e+02
2.000000e-08	-5.360514e-06	-6.242514e-09	-3.828497e+01	-4.078149e+02
3.000000e-08	-5.354443e-06	-6.235911e-09	-3.824161e+01	-4.075158e+02
4.000000e-08	-5.346813e-06	-6.227425e-09	-3.818712e+01	-4.071462e+02
5.000000e-08	-5.337352e-06	-6.218043e-09	-3.811954e+01	-4.066959e+02
6.000000e-08	-5.325797e-06	-6.207491e-09	-3.803702e+01	-4.061542e+02
7.000000e-08	-5.312345e-06	-6.197378e-09	-3.794095e+01	-4.055130e+02
8.000000e-08	-5.296837e-06	-6.189471e-09	-3.783019e+01	-4.047695e+02
9.000000e-08	-5.279072e-06	-6.199559e-09	-3.770331e+01	-4.039276e+02
1.000000e-07	-5.259273e-06	-6.196344e-09	-3.756190e+01	-4.029981e+02
1.100000e-07	-5.237562e-06	-6.160653e-09	-3.740684e+01	-4.019967e+02
1.200000e-07	-5.214124e-06	-6.126058e-09	-3.723945e+01	-4.009411e+02
1.300000e-07	-5.189160e-06	-6.091953e-09	-3.706115e+01	-3.998474e+02
1.400000e-07	-5.162592e-06	-6.071278e-09	-3.687140e+01	-3.987268e+02
1.500000e-07	-5.134417e-06	-6.100935e-09	-3.667018e+01	-3.975826e+02
1.600000e-07	-5.104816e-06	-6.070448e-09	-3.645876e+01	-3.964092e+02
1.700000e-07	-5.073621e-06	-6.031037e-09	-3.623597e+01	-3.951931e+02
1.800000e-07	-5.040335e-06	-6.039700e-09	-3.599824e+01	-3.939148e+02
1.900000e-07	-5.005202e-06	-5.985419e-09	-3.574732e+01	-3.925526e+02
2.000000e-07	-4.968671e-06	-5.958030e-09	-3.548641e+01	-3.910864e+02
2.100000e-07	-4.930437e-06	-5.944682e-09	-3.521334e+01	-3.895010e+02
2.200000e-07	-4.890328e-06	-5.889369e-09	-3.492689e+01	-3.877889e+02
2.300000e-07	-4.848259e-06	-5.883090e-09	-3.462642e+01	-3.859508e+02
2.400000e-07	-4.804253e-06	-5.870858e-09	-3.431213e+01	-3.839947e+02
2.500000e-07	-4.758519e-06	-5.832704e-09	-3.398550e+01	-3.819338e+02
2.600000e-07	-4.710900e-06	-5.808293e-09	-3.364540e+01	-3.797837e+02
2.700000e-07	-4.661210e-06	-5.739781e-09	-3.329051e+01	-3.775588e+02
2.800000e-07	-4.609477e-06	-5.708213e-09	-3.292104e+01	-3.752696e+02
2.900000e-07	-4.555891e-06	-5.700271e-09	-3.253832e+01	-3.729212e+02
3.000000e-07	-4.500698e-06	-5.659165e-09	-3.214414e+01	-3.705132e+02
3.100000e-07	-4.443843e-06	-5.622174e-09	-3.173807e+01	-3.680399e+02
3.200000e-07	-4.385161e-06	-5.573529e-09	-3.131897e+01	-3.654925e+02
3.300000e-07	-4.324836e-06	-5.518112e-09	-3.088812e+01	-3.628614e+02
3.400000e-07	-4.263081e-06	-5.474311e-09	-3.044707e+01	-3.601381e+02
3.500000e-07	-4.199986e-06	-5.447337e-09	-2.999644e+01	-3.573168e+02
3.600000e-07	-4.135447e-06	-5.407792e-09	-2.953550e+01	-3.543955e+02
3.700000e-07	-4.069199e-06	-5.347748e-09	-2.906235e+01	-3.513754e+02
3.800000e-07	-4.001354e-06	-5.303098e-09	-2.857780e+01	-3.482607e+02
3.900000e-07	-3.932139e-06	-5.255961e-09	-2.808347e+01	-3.450566e+02
4.000000e-07	-3.861626e-06	-5.203436e-09	-2.757986e+01	-3.417680e+02
4.100000e-07	-3.789972e-06	-5.153757e-09	-2.706811e+01	-3.383985e+02
4.200000e-07	-3.717034e-06	-5.095353e-09	-2.654718e+01	-3.349494e+02
4.300000e-07	-3.642470e-06	-5.043928e-09	-2.601464e+01	-3.314192e+02
4.400000e-07	-3.566252e-06	-4.994259e-09	-2.547029e+01	-3.278044e+02
4.500000e-07	-3.488621e-06	-4.945794e-09	-2.491585e+01	-3.241002e+02
4.600000e-07	-3.409589e-06	-4.891870e-09	-2.435140e+01	-3.203011e+02
4.700000e-07	-3.329209e-06	-4.819740e-09	-2.377732e+01	-3.164021e+02
4.800000e-07	-3.247668e-06	-4.746755e-09	-2.319495e+01	-3.123994e+02
4.900000e-07	-3.164975e-06	-4.688442e-09	-2.260435e+01	-3.082908e+02
5.000000e-07	-3.081269e-06	-4.633466e-09	-2.200652e+01	-3.040754e+02
5.100000e-07	-2.996696e-06	-4.566290e-09	-2.140250e+01	-2.997538e+02
5.200000e-07	-2.911192e-06	-4.496543e-09	-2.079183e+01	-2.953271e+02
5.300000e-07	-2.824690e-06	-4.421478e-09	-2.017403e+01	-2.907962e+02
5.400000e-07	-2.737293e-06	-4.345768e-09	-1.954984e+01	-2.861618e+02
5.500000e-07	-2.649013e-06	-4.276647e-09	-1.891933e+01	-2.814231e+02
5.600000e-07	-2.559585e-06	-4.207532e-09	-1.828064e+01	-2.765786e+02
5.700000e-07	-2.468891e-06	-4.132226e-09	-1.763290e+01	-2.716254e+02
5.800000e-07	-2.377226e-06	-4.048645e-09	-1.697822e+01	-2.665603e+02
5.900000e-07	-2.284867e-06	-3.969435e-09	-1.631860e+01	-2.613797e+02
6.000000e-07	-2.191775e-06	-3.892276e-09	-1.565373e+01	-2.560804e+02
6.100000e-07	-2.097901e-06	-3.809011e-09	-1.498327e+01	-2.506603e+02
6.200000e-07	-2.003292e-06	-3.720584e-09	-1.430758e+01	-2.451183e+02
6.300000e-07	-1.908018e-06	-3.630618e-09	-1.362713e+01	-2.394546e+02
6.400000e-07	-1.812132e-06	-3.542568e-09	-1.294231e+01	-2.336703e+02
6.500000e-07	-1.715584e-06	-3.456534e-09	-1.225276e+01	-2.277669e+02
6.600000e-07	-1.618262e-06	-3.369854e-09	-1.155768e+01	-2.217459e+02
6.700000e-07	-1.520168e-06	-3.274261e-09	-1.085709e+01	-2.156078e+02
6.800000e-07	-1.421413e-06	-3.170107e-09	-1.015178e+01	-2.093517e+02
6.900000e-07	-1.322118e-06	-3.067157e-09	-9.442607e+00	-2.029748e+02
7.000000e-07	-1.222428e-06	-2.971109e-09	-8.730624e+00	-1.964728e+02
7.100000e-07	-1.122452e-06	-2.875260e-09	-8.016588e+00	-1.898397e+02
7.200000e-07	-1.022186e-06	-2.771683e-09	-7.300488e+00	-1.830688e+02
7.300000e-07	-9.216406e-07	-2.664412e-09	-6.582387e+00	-1.761528e+02
7.400000e-07	-8.208077e-07	-2.555647e-09	-5.862235e+00	-1.690853e+02
7.500000e-07	-7.196755e-07	-2.444892e-09	-5.139946e+00	-1.618604e+02
7.600000e-07	-6.182702e-07	-2.334586e-09	-4.415706e+00	-1.544731e+02
7.700000e-07	-5.166531e-07	-2.220970e-09	-3.689954e+00	-1.469196e+02
7.800000e-07	-4.148805e-07	-2.101008e-09	-2.963090e+00	-1.391960e+02
7.900000e-07	-3.129646e-07	-1.977555e-09	-2.235203e+00	-1.312984e+02
8.000000e-07	-2.109109e-07	-1.854420e-09	-1.506332e+00	-1.232220e+02
8.100000e-07	-1.087204e-07	-1.733155e-09	-7.764848e-01	-1.149605e+02
8.200000e-07	-6.450107e-09	-1.606762e-09	-4.606688e-02	-1.065066e+02
8.300000e-07	9.581131e-08	-1.472202e-09	6.842876e-01	-9.785171e+01
8.400000e-07	1.980207e-07	-1.333521e-09	1.414271e+00	-8.898664e+01
8.500000e-07	3.002105e-07	-1.193042e-09	2.144113e+00	-7.990236e+01
8.600000e-07	4.023350e-07	-1.050734e-09	2.873490e+00	-7.059056e+01
8.700000e-07	5.043003e-07	-9.048804e-10	3.601730e+00	-6.104410e+01
8.800000e-07	6.061124e-07	-7.543718e-10	4.328875e+00	-5.125728e+01
8.900000e-07	7.077123e-07	-5.980070e-10	5.054505e+00	-4.122576e+01
9.000000e-07	8.090633e-07	-4.374028e-10	5.778357e+00	-3.094638e+01
9.100000e-07	9.101512e-07	-2.762702e-10	6.500330e+00	-2.041708e+01
9.200000e-07	1.010913e-06	-1.144989e-10	7.219974e+00	-9.637049e+00
9.300000e-07	1.111332e-06	5.206870e-11	7.937171e+00	1.392687e+00
9.400000e-07	1.211438e-06	2.246836e-10	8.652131e+00	1.266814e+01
9.500000e-07	1.311250e-06	4.017972e-10	9.364988e+00	2.418084e+01
9.600000e-07	1.410603e-06	5.811508e-10	1.007458e+01	3.591617e+01
9.700000e-07	1.509321e-06	7.621050e-10	1.077962e+01	4.785176e+01
9.800000e-07	1.607318e-06	9.450587e-10	1.147952e+01	5.995655e+01
9.900000e-07	1.704556e-06	1.131399e-09	1.217400e+01	7.219057e+01
1.000000e-06	1.801020e-06	1.318546e-09	1.286294e+01	8.450584e+01
1.010000e-06	1.896752e-06	1.504775e-09	1.354666e+01	9.684827e+01
1.020000e-06	1.991804e-06	1.689894e-09	1.422553e+01	1.091604e+02
1.030000e-06	2.086154e-06	1.872857e-09	1.489938e+01	1.213844e+02
1.040000e-06	2.179826e-06	2.055915e-09	1.556839e+01	1.334656e+02
1.050000e-06	2.272764e-06	2.237365e-09	1.623215e+01	1.453547e+02
1.060000e-06	2.364999e-06	2.415183e-09	1.689090e+01	1.570099e+02
1.070000e-06	2.456576e-06	2.588355e-09	1.754494e+01	1.683974e+02
1.080000e-06	2.547267e-06	2.757013e-09	1.819266e+01	1.794915e+02
1.090000e-06	2.636750e-06	2.922797e-09	1.883175e+01	1.902733e+02
1.100000e-06	2.725059e-06	3.085338e-09	1.946246e+01	2.007292e+02
1.110000e-06	2.812467e-06	3.242221e-09	2.008673e+01	2.108497e+02
1.120000e-06	2.899017e-06	3.391968e-09	2.070487e+01	2.206276e+02
1.130000e-06	2.984658e-06	3.534823e-09	2.131653e+01	2.300573e+02
1.140000e-06	3.069364e-06	3.671791e-09	2.192150e+01	2.391351e+02
1.150000e-06	3.153174e-06	3.802964e-09	2.252008e+01	2.478584e+02
1.160000e-06	3.235982e-06	3.928361e-09	2.311149e+01	2.562271e+02
1.170000e-06	3.317542e-06	4.048311e-09	2.369400e+01	2.642436e+02
1.180000e-06	3.397795e-06	4.164352e-09	2.426716e+01	2.719135e+02
1.190000e-06	3.476835e-06	4.274587e-09	2.483167e+01	2.792455e+02
1.200000e-06	3.554703e-06	4.379810e-09	2.538781e+01	2.862513e+02
1.210000e-06	3.631337e-06	4.483090e-09	2.593513e+01	2.929450e+02
1.220000e-06	3.706625e-06	4.581176e-09	2.647284e+01	2.993428e+02
1.230000e-06	3.780362e-06	4.672149e-09	2.699947e+01	3.054619e+02
1.240000e-06	3.852468e-06	4.757519e-09	2.751445e+01	3.113200e+02
1.250000e-06	3.923166e-06	4.841347e-09	2.801938e+01	3.169351e+02
1.260000e-06	3.992503e-06	4.924882e-09	2.851459e+01	3.223244e+02
1.270000e-06	4.060471e-06	5.005571e-09	2.900002e+01	3.275044e+02
1.280000e-06	4.127025e-06	5.082336e-09	2.947535e+01	3.324898e+02
1.290000e-06	4.191930e-06	5.155606e-09	2.993890e+01	3.372933e+02
1.300000e-06	4.255262e-06	5.225722e-09	3.039123e+01	3.419248e+02
1.310000e-06	4.317141e-06	5.293996e-09	3.083317e+01	3.463907e+02
1.320000e-06	4.377649e-06	5.360636e-09	3.126532e+01	3.506943e+02
1.330000e-06	4.436767e-06	5.423818e-09	3.168754e+01	3.548349e+02
1.340000e-06	4.494189e-06	5.483420e-09	3.209765e+01	3.588096e+02
1.350000e-06	4.549811e-06	5.539805e-09	3.249490e+01	3.626133e+02
1.360000e-06	4.603797e-06	5.592846e-09	3.288047e+01	3.662409e+02
1.370000e-06	4.656081e-06	5.643552e-09	3.325388e+01	3.696882e+02
1.380000e-06	4.706388e-06	5.691418e-09	3.361318e+01	3.729531e+02
1.390000e-06	4.754728e-06	5.737513e-09	3.395842e+01	3.760367e+02
1.400000e-06	4.801329e-06	5.780938e-09	3.429125e+01	3.789428e+02
1.410000e-06	4.846351e-06	5.820628e-09	3.461280e+01	3.816777e+02
1.420000e-06	4.889835e-06	5.858184e-09	3.492336e+01	3.842493e+02
1.430000e-06	4.931476e-06	5.892800e-09	3.522076e+01	3.866657e+02
1.440000e-06	4.971220e-06	5.924543e-09	3.550462e+01	3.889340e+02
1.450000e-06	5.009351e-06	5.953783e-09	3.577695e+01	3.910602e+02
1.460000e-06	5.045879e-06	5.980929e-09	3.603783e+01	3.930486e+02
1.470000e-06	5.080632e-06	6.008268e-09	3.628604e+01	3.949024e+02
1.480000e-06	5.113447e-06	6.035309e-09	3.652040e+01	3.966245e+02
1.490000e-06	5.144441e-06	6.060014e-09	3.674177e+01	3.982186e+02
1.500000e-06	5.173782e-06	6.081004e-09	3.695132e+01	3.996894e+02
1.510000e-06	5.201516e-06	6.099347e-09	3.714940e+01	4.010434e+02
1.520000e-06	5.227271e-06	6.117909e-09	3.733334e+01	4.022880e+02
1.530000e-06	5.250853e-06	6.135969e-09	3.750177e+01	4.034305e+02
1.540000e-06	5.272615e-06	6.151650e-09	3.765719e+01	4.044769e+02
1.550000e-06	5.292718e-06	6.165410e-09	3.780076e+01	4.054310e+02
1.560000e-06	5.310958e-06	6.179213e-09	3.793104e+01	4.062930e+02
1.570000e-06	5.327168e-06	6.192576e-09	3.804681e+01	4.070600e+02
1.580000e-06	5.341398e-06	6.203632e-09	3.814844e+01	4.077269e+02
1.590000e-06	5.353674e-06	6.212952e-09	3.823612e+01	4.082875e+02
1.600000e-06	5.363797e-06	6.220674e-09	3.830842e+01	4.087372e+02
1.610000e-06	5.371750e-06	6.226940e-09	3.836522e+01	4.090740e+02
1.620000e-06	5.377815e-06	6.232442e-09	3.840853e+01	4.093003e+02
1.630000e-06	5.382176e-06	6.236723e-09	3.843968e+01	4.094229e+02
1.640000e-06	5.384621e-06	6.239567e-09	3.845714e+01	4.094519e+02
1.650000e-06	5.385021e-06	6.242108e-09	3.846000e+01	4.093989e+02
1.660000e-06	5.383638e-06	6.242678e-09	3.845012e+01	4.092748e+02
1.670000e-06	5.380579e-06	6.239165e-09	3.842827e+01	4.090870e+02
1.680000e-06	5.375849e-06	6.235910e-09	3.839449e+01	4.088377e+02
1.690000e-06	5.369230e-06	6.233127e-09	3.834722e+01	4.085240e+02
1.700000e-06	5.360773e-06	6.229838e-09	3.828682e+01	4.081377e+02
1.710000e-06	5.350782e-06	6.225046e-09	3.821546e+01	4.076684e+02
1.720000e-06	5.339151e-06	6.217997e-09	3.813239e+01	4.071055e+02
1.730000e-06	5.325542e-06	6.209686e-09	3.803520e+01	4.064421e+02
1.740000e-06	5.309844e-06	6.171926e-09	3.792308e+01	4.056766e+02
1.750000e-06	5.291804e-06	6.143728e-09	3.779424e+01	4.048145e+02
1.760000e-06	5.271067e-06	6.150671e-09	3.764613e+01	4.038679e+02
1.770000e-06	5.247995e-06	6.153439e-09	3.748135e+01	4.028530e+02
1.780000e-06	5.223607e-06	6.173108e-09	3.730717e+01	4.017877e+02
1.790000e-06	5.198548e-06	6.140393e-09	3.712820e+01	4.006872e+02
1.800000e-06	5.172115e-06	6.056562e-09	3.693942e+01	3.995612e+02
1.810000e-06	5.143488e-06	6.082358e-09	3.673496e+01	3.984112e+02
1.820000e-06	5.113045e-06	6.068235e-09	3.651754e+01	3.972297e+02
1.830000e-06	5.080893e-06	6.012659e-09	3.628791e+01	3.960017e+02
1.840000e-06	5.046759e-06	6.047256e-09	3.604412e+01	3.947070e+02
1.850000e-06	5.011042e-06	6.006525e-09	3.578903e+01	3.933237e+02
1.860000e-06	4.973598e-06	5.977431e-09	3.552160e+01	3.918327e+02
1.870000e-06	4.934259e-06	5.980735e-09	3.524064e+01	3.902202e+02
1.880000e-06	4.893263e-06	5.886561e-09	3.494785e+01	3.884805e+02
1.890000e-06	4.850442e-06	5.874914e-09	3.464202e+01	3.866158e+02
1.900000e-06	4.806043e-06	5.845289e-09	3.432492e+01	3.846357e+02
1.910000e-06	4.759849e-06	5.793224e-09	3.399500e+01	3.825541e+02
1.920000e-06	4.711516e-06	5.840296e-09	3.364981e+01	3.803865e+02
1.930000e-06	4.661578e-06	5.757726e-09	3.329314e+01	3.781468e+02
1.940000e-06	4.610012e-06	5.704866e-09	3.292486e+01	3.758443e+02
1.950000e-06	4.556431e-06	5.701404e-09	3.254218e+01	3.734831e+02
1.960000e-06	4.500865e-06	5.617337e-09	3.214533e+01	3.710614e+02
1.970000e-06	4.443535e-06	5.597821e-09	3.173588e+01	3.685727e+02
1.980000e-06	4.384758e-06	5.573657e-09	3.131609e+01	3.660078e+02
1.990000e-06	4.324542e-06	5.544772e-09	3.088602e+01	3.633573e+02
2.000000e-06	4.262609e-06	5.494742e-09	3.044370e+01	3.606130e+02
2.010000e-06	4.199011e-06	5.429283e-09	2.998948e+01	3.577700e+02
2.020000e-06	4.133947e-06	5.416011e-09	2.952479e+01	3.548270e+02
2.030000e-06	4.067485e-06	5.344680e-09	2.905011e+01	3.517860e+02
2.040000e-06	3.999657e-06	5.306334e-09	2.856568e+01	3.486513e+02
2.050000e-06	3.930321e-06	5.273012e-09	2.807049e+01	3.454284e+02
2.060000e-06	3.859404e-06	5.209153e-09	2.756399e+01	3.421219e+02
2.070000e-06	3.787119e-06	5.167447e-09	2.704773e+01	3.387350e+02
2.080000e-06	3.713549e-06	5.092639e-09	2.652229e+01	3.352683e+02
2.090000e-06	3.638656e-06	5.051730e-09	2.598740e+01	3.317201e+02
2.100000e-06	3.562420e-06	4.989961e-09	2.544292e+01	3.280863e+02
2.110000e-06	3.484580e-06	4.918235e-09	2.488698e+01	3.243619e+02
2.120000e-06	3.405257e-06	4.880808e-09	2.432046e+01	3.205414e+02
2.130000e-06	3.324821e-06	4.823979e-09	2.374598e+01	3.166202e+02
2.140000e-06	3.243302e-06	4.765062e-09	2.316377e+01	3.125946e+02
2.150000e-06	3.160694e-06	4.696461e-09	2.257378e+01	3.084627e+02
2.160000e-06	3.077031e-06	4.633113e-09	2.197626e+01	3.042242e+02
2.170000e-06	2.992355e-06	4.561196e-09	2.137150e+01	2.998797e+02
2.180000e-06	2.906383e-06	4.493806e-09	2.075748e+01	2.954302e+02
2.190000e-06	2.819117e-06	4.434000e-09	2.013423e+01	2.908768e+02
2.200000e-06	2.730875e-06	4.364019e-09	1.950400e+01	2.862198e+02
2.210000e-06	2.641693e-06	4.290267e-09	1.886706e+01	2.814583e+02
2.220000e-06	2.551588e-06	4.208905e-09	1.822353e+01	2.765904e+02
2.230000e-06	2.460629e-06	4.136275e-09	1.757390e+01	2.716133e+02
2.240000e-06	2.368958e-06	4.058230e-09	1.691918e+01	2.665234e+02
2.250000e-06	2.276602e-06	3.981315e-09	1.625957e+01	2.613173e+02
2.260000e-06	2.183408e-06	3.904960e-09	1.559397e+01	2.559919e+02
2.270000e-06	2.089189e-06	3.819187e-09	1.492106e+01	2.505454e+02
2.280000e-06	1.993914e-06	3.729783e-09	1.424060e+01	2.449770e+02
2.290000e-06	1.897840e-06	3.642552e-09	1.355444e+01	2.392869e+02
2.300000e-06	1.801271e-06	3.557421e-09	1.286473e+01	2.334767e+02
2.310000e-06	1.704250e-06	3.465940e-09	1.217181e+01	2.275477e+02
2.320000e-06	1.606685e-06	3.372792e-09	1.147500e+01	2.215013e+02
2.330000e-06	1.508540e-06	3.283310e-09	1.077404e+01	2.153377e+02
2.340000e-06	1.409877e-06	3.194745e-09	1.006939e+01	2.090556e+02
2.350000e-06	1.310769e-06	3.095787e-09	9.361557e+00	2.026521e+02
2.360000e-06	1.211285e-06	2.993268e-09	8.651038e+00	1.961222e+02
2.370000e-06	1.111555e-06	2.889159e-09	7.938762e+00	1.894598e+02
2.380000e-06	1.011592e-06	2.781986e-09	7.224822e+00	1.826580e+02
2.390000e-06	9.113174e-07	2.678446e-09	6.508659e+00	1.757099e+02
2.400000e-06	8.106582e-07	2.575949e-09	5.789748e+00	1.686087e+02
2.410000e-06	7.096393e-07	2.469891e-09	5.068267e+00	1.613491e+02
2.420000e-06	6.084410e-07	2.354230e-09	4.345506e+00	1.539262e+02
2.430000e-06	5.070254e-07	2.233512e-09	3.621192e+00	1.463362e+02
2.440000e-06	4.053155e-07	2.114372e-09	2.894776e+00	1.385754e+02
2.450000e-06	3.033677e-07	1.994471e-09	2.166662e+00	1.306396e+02
2.460000e-06	2.012639e-07	1.869285e-09	1.437433e+00	1.225237e+02
2.470000e-06	9.900673e-08	1.741730e-09	7.071093e-01	1.142214e+02
2.480000e-06	-3.362731e-09	1.612517e-09	-2.401674e-02	1.057248e+02
2.490000e-06	-1.057366e-07	1.481704e-09	-7.551744e-01	9.702533e+01
2.500000e-06	-2.080673e-07	1.348967e-09	-1.486024e+00	8.811371e+01
2.510000e-06	-3.102742e-07	1.211771e-09	-2.215989e+00	7.898102e+01
2.520000e-06	-4.122961e-07	1.069783e-09	-2.944632e+00	6.961916e+01
2.530000e-06	-5.141443e-07	9.221132e-10	-3.672035e+00	6.002131e+01
2.540000e-06	-6.158114e-07	7.727001e-10	-4.398146e+00	5.018205e+01
2.550000e-06	-7.171692e-07	6.233552e-10	-5.122046e+00	4.009732e+01
2.560000e-06	-8.181616e-07	4.681541e-10	-5.843337e+00	2.976420e+01
2.570000e-06	-9.188144e-07	3.048696e-10	-6.562203e+00	1.918087e+01
2.580000e-06	-1.019138e-06	1.371684e-10	-7.278715e+00	8.346841e+00
2.590000e-06	-1.119084e-06	-3.191205e-11	-7.992536e+00	-2.736335e+00
2.600000e-06	-1.218662e-06	-2.021597e-10	-8.703722e+00	-1.406385e+01
2.610000e-06	-1.317872e-06	-3.756779e-10	-9.412286e+00	-2.562605e+01
2.620000e-06	-1.416654e-06	-5.534942e-10	-1.011779e+01	-3.740678e+01
2.630000e-06	-1.514956e-06	-7.376704e-10	-1.081987e+01	-4.938188e+01
2.640000e-06	-1.612691e-06	-9.274618e-10	-1.151789e+01	-6.151834e+01
2.650000e-06	-1.709767e-06	-1.118258e-09	-1.221121e+01	-7.377438e+01
2.660000e-06	-1.806286e-06	-1.308242e-09	-1.290056e+01	-8.610051e+01
2.670000e-06	-1.902395e-06	-1.497698e-09	-1.358697e+01	-9.844166e+01
2.680000e-06	-1.997986e-06	-1.686880e-09	-1.426968e+01	-1.107400e+02
2.690000e-06	-2.092741e-06	-1.875057e-09	-1.494642e+01	-1.229382e+02
2.700000e-06	-2.186432e-06	-2.060185e-09	-1.561557e+01	-1.349825e+02
2.710000e-06	-2.279159e-06	-2.240121e-09	-1.627783e+01	-1.468251e+02
2.720000e-06	-2.371048e-06	-2.416458e-09	-1.693411e+01	-1.584258e+02
2.730000e-06	-2.462113e-06	-2.589339e-09	-1.758450e+01	-1.697527e+02
2.740000e-06	-2.552325e-06	-2.757131e-09	-1.822879e+01	-1.807815e+02
2.750000e-06	-2.641605e-06	-2.919376e-09	-1.886643e+01	-1.914948e+02
2.760000e-06	-2.729989e-06	-3.076058e-09	-1.949767e+01	-2.018799e+02
2.770000e-06	-2.817604e-06	-3.229923e-09	-2.012342e+01	-2.119278e+02
2.780000e-06	-2.904315e-06	-3.380372e-09	-2.074271e+01	-2.216318e+02
2.790000e-06	-2.989779e-06	-3.523309e-09	-2.135310e+01	-2.309867e+02
2.800000e-06	-3.074055e-06	-3.658960e-09	-2.195500e+01	-2.399890e+02
2.810000e-06	-3.157346e-06	-3.790224e-09	-2.254987e+01	-2.486365e+02
2.820000e-06	-3.239622e-06	-3.916575e-09	-2.313749e+01	-2.569298e+02
2.830000e-06	-3.320822e-06	-4.038035e-09	-2.371742e+01	-2.648718e+02
2.840000e-06	-3.400980e-06	-4.156754e-09	-2.428991e+01	-2.724687e+02
2.850000e-06	-3.479963e-06	-4.272465e-09	-2.485401e+01	-2.797301e+02
2.860000e-06	-3.557489e-06	-4.382290e-09	-2.540770e+01	-2.866681e+02
2.870000e-06	-3.633508e-06	-4.483985e-09	-2.595063e+01	-2.932973e+02
2.880000e-06	-3.708063e-06	-4.580351e-09	-2.648311e+01	-2.996342e+02
2.890000e-06	-3.781260e-06	-4.673470e-09	-2.700588e+01	-3.056962e+02
2.900000e-06	-3.853194e-06	-4.761746e-09	-2.751964e+01	-3.115011e+02
2.910000e-06	-3.923652e-06	-4.845156e-09	-2.802286e+01	-3.170667e+02
2.920000e-06	-3.992520e-06	-4.925752e-09	-2.851471e+01	-3.224101e+02
2.930000e-06	-4.059957e-06	-5.004971e-09	-2.899635e+01	-3.275476e+02
2.940000e-06	-4.126013e-06	-5.081467e-09	-2.946812e+01	-3.324933e+02
