# Temperatura_=_62.35
# Concentracion g/m^3_=_15000.0
# C_Vs_to_Am_M_A/Vsm_=_65563218390.804596
# pendiente_HvsI_1/m_=_3716.3
# ordenada_HvsI_A/m_=_1297.0
# frecuencia_Hz_=_301597.83570006664

Tiempo_(s)	Campo_(V.s)	Magnetizacion_(V.s)	Campo_(kA/m)	Magnetizacion_(A/m)
0.000000e+00	-5.421785e-06	-8.938726e-09	-3.833317e+01	-5.829051e+02
1.000000e-08	-5.418655e-06	-8.935873e-09	-3.831104e+01	-5.826552e+02
2.000000e-08	-5.413771e-06	-8.929691e-09	-3.827651e+01	-5.823163e+02
3.000000e-08	-5.407250e-06	-8.924158e-09	-3.823040e+01	-5.818830e+02
4.000000e-08	-5.399106e-06	-8.913180e-09	-3.817282e+01	-5.813435e+02
5.000000e-08	-5.389098e-06	-8.897366e-09	-3.810206e+01	-5.806821e+02
6.000000e-08	-5.377023e-06	-8.876912e-09	-3.801669e+01	-5.798841e+02
7.000000e-08	-5.363006e-06	-8.845192e-09	-3.791759e+01	-5.789405e+02
8.000000e-08	-5.346844e-06	-8.871789e-09	-3.780332e+01	-5.778523e+02
9.000000e-08	-5.328434e-06	-8.920621e-09	-3.767316e+01	-5.766328e+02
1.000000e-07	-5.307993e-06	-8.863022e-09	-3.752864e+01	-5.753066e+02
1.100000e-07	-5.285639e-06	-8.806156e-09	-3.737059e+01	-5.739064e+02
1.200000e-07	-5.261641e-06	-8.737457e-09	-3.720091e+01	-5.724671e+02
1.300000e-07	-5.236084e-06	-8.615656e-09	-3.702023e+01	-5.710185e+02
1.400000e-07	-5.208869e-06	-8.759981e-09	-3.682781e+01	-5.695786e+02
1.500000e-07	-5.180111e-06	-8.782461e-09	-3.662448e+01	-5.681488e+02
1.600000e-07	-5.149913e-06	-8.587936e-09	-3.641097e+01	-5.667118e+02
1.700000e-07	-5.118029e-06	-8.702179e-09	-3.618555e+01	-5.652333e+02
1.800000e-07	-5.083991e-06	-8.614579e-09	-3.594489e+01	-5.636675e+02
1.900000e-07	-5.048188e-06	-8.468811e-09	-3.569176e+01	-5.619638e+02
2.000000e-07	-5.010863e-06	-8.633787e-09	-3.542786e+01	-5.600760e+02
2.100000e-07	-4.971750e-06	-8.531288e-09	-3.515132e+01	-5.579692e+02
2.200000e-07	-4.930797e-06	-8.410579e-09	-3.486178e+01	-5.556254e+02
2.300000e-07	-4.887839e-06	-8.462448e-09	-3.455806e+01	-5.530457e+02
2.400000e-07	-4.842994e-06	-8.376449e-09	-3.424099e+01	-5.502481e+02
2.500000e-07	-4.796392e-06	-8.354517e-09	-3.391150e+01	-5.472634e+02
2.600000e-07	-4.747802e-06	-8.313271e-09	-3.356796e+01	-5.441282e+02
2.700000e-07	-4.697070e-06	-8.230039e-09	-3.320928e+01	-5.408778e+02
2.800000e-07	-4.644295e-06	-8.194306e-09	-3.283615e+01	-5.375397e+02
2.900000e-07	-4.589745e-06	-8.116442e-09	-3.245047e+01	-5.341295e+02
3.000000e-07	-4.533634e-06	-8.078230e-09	-3.205375e+01	-5.306499e+02
3.100000e-07	-4.475782e-06	-8.054245e-09	-3.164473e+01	-5.270914e+02
3.200000e-07	-4.416125e-06	-8.002828e-09	-3.122294e+01	-5.234368e+02
3.300000e-07	-4.354891e-06	-7.904716e-09	-3.079000e+01	-5.196656e+02
3.400000e-07	-4.292257e-06	-7.829341e-09	-3.034716e+01	-5.157591e+02
3.500000e-07	-4.228274e-06	-7.821413e-09	-2.989480e+01	-5.117043e+02
3.600000e-07	-4.162622e-06	-7.740739e-09	-2.943062e+01	-5.074959e+02
3.700000e-07	-4.095226e-06	-7.655971e-09	-2.895411e+01	-5.031366e+02
3.800000e-07	-4.026402e-06	-7.603399e-09	-2.846751e+01	-4.986348e+02
3.900000e-07	-3.956270e-06	-7.518158e-09	-2.797167e+01	-4.940021e+02
4.000000e-07	-3.884925e-06	-7.441065e-09	-2.746724e+01	-4.892493e+02
4.100000e-07	-3.812245e-06	-7.372265e-09	-2.695338e+01	-4.843840e+02
4.200000e-07	-3.737979e-06	-7.323406e-09	-2.642830e+01	-4.794079e+02
4.300000e-07	-3.662157e-06	-7.234170e-09	-2.589223e+01	-4.743172e+02
4.400000e-07	-3.584880e-06	-7.130007e-09	-2.534586e+01	-4.691029e+02
4.500000e-07	-3.506129e-06	-7.054153e-09	-2.478907e+01	-4.637536e+02
4.600000e-07	-3.425912e-06	-6.983960e-09	-2.422192e+01	-4.582574e+02
4.700000e-07	-3.344407e-06	-6.901956e-09	-2.364567e+01	-4.526052e+02
4.800000e-07	-3.261783e-06	-6.797523e-09	-2.306150e+01	-4.467922e+02
4.900000e-07	-3.178144e-06	-6.709917e-09	-2.247015e+01	-4.408186e+02
5.000000e-07	-3.093562e-06	-6.618412e-09	-2.187214e+01	-4.346894e+02
5.100000e-07	-3.008038e-06	-6.518241e-09	-2.126747e+01	-4.284125e+02
5.200000e-07	-2.921529e-06	-6.423764e-09	-2.065583e+01	-4.219971e+02
5.300000e-07	-2.834063e-06	-6.325329e-09	-2.003743e+01	-4.154507e+02
5.400000e-07	-2.745666e-06	-6.217045e-09	-1.941244e+01	-4.087772e+02
5.500000e-07	-2.656127e-06	-6.104614e-09	-1.877938e+01	-4.019759e+02
5.600000e-07	-2.565381e-06	-6.001249e-09	-1.813779e+01	-3.950412e+02
5.700000e-07	-2.473658e-06	-5.899400e-09	-1.748928e+01	-3.879634e+02
5.800000e-07	-2.381090e-06	-5.789083e-09	-1.683481e+01	-3.807302e+02
5.900000e-07	-2.287716e-06	-5.672490e-09	-1.617463e+01	-3.733294e+02
6.000000e-07	-2.193540e-06	-5.554153e-09	-1.550879e+01	-3.657504e+02
6.100000e-07	-2.098625e-06	-5.433758e-09	-1.483772e+01	-3.579863e+02
6.200000e-07	-2.003023e-06	-5.312757e-09	-1.416180e+01	-3.500346e+02
6.300000e-07	-1.906741e-06	-5.189518e-09	-1.348107e+01	-3.418965e+02
6.400000e-07	-1.809652e-06	-5.061341e-09	-1.279462e+01	-3.335761e+02
6.500000e-07	-1.711674e-06	-4.927836e-09	-1.210190e+01	-3.250780e+02
6.600000e-07	-1.612954e-06	-4.790898e-09	-1.140393e+01	-3.164056e+02
6.700000e-07	-1.513654e-06	-4.655614e-09	-1.070185e+01	-3.075586e+02
6.800000e-07	-1.413876e-06	-4.520633e-09	-9.996405e+00	-2.985324e+02
6.900000e-07	-1.313683e-06	-4.380645e-09	-9.288017e+00	-2.893175e+02
7.000000e-07	-1.213125e-06	-4.234791e-09	-8.577049e+00	-2.799007e+02
7.100000e-07	-1.112196e-06	-4.084704e-09	-7.863459e+00	-2.702674e+02
7.200000e-07	-1.010888e-06	-3.930837e-09	-7.147194e+00	-2.604033e+02
7.300000e-07	-9.092395e-07	-3.777790e-09	-6.428516e+00	-2.502978e+02
7.400000e-07	-8.072502e-07	-3.620891e-09	-5.707430e+00	-2.399447e+02
7.500000e-07	-7.049259e-07	-3.456291e-09	-4.983976e+00	-2.293438e+02
7.600000e-07	-6.023625e-07	-3.285760e-09	-4.258830e+00	-2.184999e+02
7.700000e-07	-4.996335e-07	-3.112509e-09	-3.532515e+00	-2.074207e+02
7.800000e-07	-3.968130e-07	-2.941675e-09	-2.805552e+00	-1.961146e+02
7.900000e-07	-2.938969e-07	-2.768800e-09	-2.077913e+00	-1.845875e+02
8.000000e-07	-1.908294e-07	-2.589799e-09	-1.349205e+00	-1.728403e+02
8.100000e-07	-8.771414e-08	-2.404716e-09	-6.201576e-01	-1.608675e+02
8.200000e-07	1.543414e-08	-2.215666e-09	1.091227e-01	-1.486565e+02
8.300000e-07	1.186564e-07	-2.024742e-09	8.389262e-01	-1.361893e+02
8.400000e-07	2.218273e-07	-1.831557e-09	1.568366e+00	-1.234441e+02
8.500000e-07	3.248893e-07	-1.634459e-09	2.297036e+00	-1.103982e+02
8.600000e-07	4.279074e-07	-1.431414e-09	3.025396e+00	-9.703076e+01
8.700000e-07	5.308419e-07	-1.220694e-09	3.753165e+00	-8.332430e+01
8.800000e-07	6.336141e-07	-1.005641e-09	4.479786e+00	-6.926616e+01
8.900000e-07	7.362249e-07	-7.876045e-10	5.205266e+00	-5.484832e+01
9.000000e-07	8.386318e-07	-5.633635e-10	5.929304e+00	-4.006659e+01
9.100000e-07	9.407019e-07	-3.339558e-10	6.650962e+00	-2.491974e+01
9.200000e-07	1.042361e-06	-9.894859e-11	7.369715e+00	-9.408819e+00
9.300000e-07	1.143652e-06	1.422223e-10	8.085864e+00	6.462583e+00
9.400000e-07	1.244596e-06	3.887424e-10	8.799555e+00	2.268703e+01
9.500000e-07	1.345142e-06	6.402269e-10	9.510442e+00	3.925089e+01
9.600000e-07	1.445242e-06	8.976438e-10	1.021817e+01	5.613148e+01
9.700000e-07	1.544846e-06	1.161451e-09	1.092239e+01	7.329431e+01
9.800000e-07	1.643914e-06	1.426591e-09	1.162282e+01	9.069127e+01
9.900000e-07	1.742285e-06	1.689859e-09	1.231833e+01	1.082604e+02
1.000000e-06	1.839777e-06	1.952841e-09	1.300761e+01	1.259274e+02
1.010000e-06	1.936399e-06	2.218341e-09	1.369075e+01	1.436093e+02
1.020000e-06	2.032276e-06	2.486529e-09	1.436862e+01	1.612192e+02
1.030000e-06	2.127440e-06	2.755889e-09	1.504145e+01	1.786719e+02
1.040000e-06	2.221848e-06	3.021451e-09	1.570894e+01	1.958887e+02
1.050000e-06	2.315488e-06	3.278432e-09	1.637099e+01	2.128014e+02
1.060000e-06	2.408382e-06	3.527265e-09	1.702777e+01	2.293548e+02
1.070000e-06	2.500618e-06	3.770750e-09	1.767990e+01	2.455066e+02
1.080000e-06	2.592066e-06	4.010074e-09	1.832646e+01	2.612263e+02
1.090000e-06	2.682455e-06	4.243607e-09	1.896552e+01	2.764924e+02
1.100000e-06	2.771643e-06	4.468347e-09	1.959610e+01	2.912905e+02
1.110000e-06	2.859722e-06	4.683913e-09	2.021884e+01	3.056103e+02
1.120000e-06	2.946900e-06	4.891426e-09	2.083521e+01	3.194444e+02
1.130000e-06	3.033131e-06	5.094263e-09	2.144488e+01	3.327886e+02
1.140000e-06	3.118334e-06	5.291049e-09	2.204728e+01	3.456414e+02
1.150000e-06	3.202604e-06	5.478128e-09	2.264309e+01	3.580057e+02
1.160000e-06	3.285926e-06	5.658634e-09	2.323219e+01	3.698887e+02
1.170000e-06	3.368084e-06	5.834401e-09	2.381306e+01	3.813021e+02
1.180000e-06	3.448912e-06	6.003388e-09	2.438454e+01	3.922611e+02
1.190000e-06	3.528434e-06	6.164137e-09	2.494677e+01	4.027820e+02
1.200000e-06	3.606668e-06	6.316866e-09	2.549990e+01	4.128804e+02
1.210000e-06	3.683663e-06	6.463606e-09	2.604428e+01	4.225686e+02
1.220000e-06	3.759373e-06	6.604828e-09	2.657957e+01	4.318547e+02
1.230000e-06	3.833516e-06	6.741451e-09	2.710377e+01	4.407425e+02
1.240000e-06	3.906066e-06	6.872930e-09	2.761671e+01	4.492330e+02
1.250000e-06	3.977192e-06	6.996174e-09	2.811959e+01	4.573271e+02
1.260000e-06	4.046920e-06	7.111536e-09	2.861258e+01	4.650283e+02
1.270000e-06	4.115286e-06	7.221007e-09	2.909595e+01	4.723461e+02
1.280000e-06	4.182201e-06	7.325914e-09	2.956905e+01	4.792973e+02
1.290000e-06	4.247474e-06	7.423042e-09	3.003054e+01	4.859059e+02
1.300000e-06	4.311161e-06	7.513970e-09	3.048082e+01	4.922020e+02
1.310000e-06	4.373346e-06	7.603247e-09	3.092048e+01	4.982178e+02
1.320000e-06	4.434142e-06	7.692610e-09	3.135032e+01	5.039844e+02
1.330000e-06	4.493578e-06	7.779637e-09	3.177055e+01	5.095274e+02
1.340000e-06	4.551297e-06	7.863378e-09	3.217863e+01	5.148644e+02
1.350000e-06	4.607172e-06	7.943522e-09	3.257369e+01	5.200035e+02
1.360000e-06	4.661417e-06	8.017364e-09	3.295720e+01	5.249444e+02
1.370000e-06	4.713961e-06	8.086951e-09	3.332870e+01	5.296801e+02
1.380000e-06	4.764445e-06	8.154505e-09	3.368563e+01	5.342011e+02
1.390000e-06	4.812880e-06	8.219363e-09	3.402808e+01	5.384981e+02
1.400000e-06	4.859609e-06	8.279325e-09	3.435847e+01	5.425654e+02
1.410000e-06	4.904793e-06	8.334561e-09	3.467792e+01	5.464024e+02
1.420000e-06	4.948364e-06	8.388262e-09	3.498598e+01	5.500138e+02
1.430000e-06	4.990043e-06	8.440920e-09	3.528066e+01	5.534081e+02
1.440000e-06	5.029851e-06	8.490724e-09	3.556211e+01	5.565958e+02
1.450000e-06	5.067983e-06	8.536774e-09	3.583171e+01	5.595868e+02
1.460000e-06	5.104518e-06	8.579092e-09	3.609002e+01	5.623892e+02
1.470000e-06	5.139284e-06	8.616463e-09	3.633583e+01	5.650079e+02
1.480000e-06	5.172066e-06	8.649245e-09	3.656760e+01	5.674458e+02
1.490000e-06	5.203014e-06	8.679344e-09	3.678641e+01	5.697041e+02
1.500000e-06	5.232271e-06	8.707676e-09	3.699326e+01	5.717846e+02
1.510000e-06	5.259791e-06	8.734881e-09	3.718784e+01	5.736908e+02
1.520000e-06	5.285302e-06	8.760338e-09	3.736820e+01	5.754286e+02
1.530000e-06	5.308767e-06	8.783853e-09	3.753410e+01	5.770059e+02
1.540000e-06	5.330441e-06	8.805457e-09	3.768735e+01	5.784314e+02
1.550000e-06	5.350392e-06	8.823945e-09	3.782841e+01	5.797128e+02
1.560000e-06	5.368400e-06	8.840028e-09	3.795573e+01	5.808553e+02
1.570000e-06	5.384365e-06	8.854768e-09	3.806860e+01	5.818606e+02
1.580000e-06	5.398394e-06	8.867964e-09	3.816779e+01	5.827270e+02
1.590000e-06	5.410365e-06	8.878482e-09	3.825243e+01	5.834510e+02
1.600000e-06	5.420145e-06	8.886763e-09	3.832157e+01	5.840289e+02
1.610000e-06	5.427864e-06	8.893718e-09	3.837615e+01	5.844594e+02
1.620000e-06	5.433673e-06	8.899053e-09	3.841722e+01	5.847458e+02
1.630000e-06	5.437684e-06	8.902966e-09	3.844558e+01	5.848959e+02
1.640000e-06	5.439715e-06	8.907329e-09	3.845994e+01	5.849219e+02
1.650000e-06	5.439724e-06	8.912025e-09	3.846000e+01	5.848375e+02
1.660000e-06	5.437996e-06	8.907432e-09	3.844778e+01	5.846552e+02
1.670000e-06	5.434595e-06	8.901541e-09	3.842374e+01	5.843825e+02
1.680000e-06	5.429372e-06	8.896623e-09	3.838681e+01	5.840202e+02
1.690000e-06	5.422228e-06	8.888196e-09	3.833630e+01	5.835612e+02
1.700000e-06	5.413359e-06	8.879684e-09	3.827360e+01	5.829921e+02
1.710000e-06	5.402901e-06	8.874101e-09	3.819966e+01	5.822973e+02
1.720000e-06	5.390683e-06	8.888418e-09	3.811327e+01	5.814629e+02
1.730000e-06	5.376473e-06	8.852587e-09	3.801280e+01	5.804820e+02
1.740000e-06	5.360158e-06	8.744772e-09	3.789745e+01	5.793587e+02
1.750000e-06	5.341386e-06	8.755425e-09	3.776473e+01	5.781092e+02
1.760000e-06	5.319894e-06	8.765589e-09	3.761278e+01	5.767607e+02
1.770000e-06	5.296301e-06	8.814292e-09	3.744597e+01	5.753470e+02
1.780000e-06	5.271587e-06	8.889009e-09	3.727124e+01	5.739024e+02
1.790000e-06	5.246070e-06	8.642167e-09	3.709083e+01	5.724543e+02
1.800000e-06	5.218919e-06	8.658559e-09	3.689886e+01	5.710170e+02
1.810000e-06	5.189436e-06	8.769459e-09	3.669041e+01	5.695872e+02
1.820000e-06	5.158178e-06	8.546982e-09	3.646941e+01	5.681430e+02
1.830000e-06	5.125308e-06	8.698787e-09	3.623701e+01	5.666468e+02
1.840000e-06	5.090599e-06	8.719149e-09	3.599161e+01	5.650506e+02
1.850000e-06	5.054268e-06	8.444122e-09	3.573475e+01	5.633044e+02
1.860000e-06	5.016057e-06	8.606822e-09	3.546458e+01	5.613640e+02
1.870000e-06	4.975986e-06	8.543593e-09	3.518128e+01	5.591983e+02
1.880000e-06	4.934259e-06	8.399476e-09	3.488626e+01	5.567942e+02
1.890000e-06	4.890753e-06	8.499379e-09	3.457866e+01	5.541571e+02
1.900000e-06	4.845564e-06	8.336255e-09	3.425916e+01	5.513089e+02
1.910000e-06	4.798422e-06	8.373275e-09	3.392586e+01	5.482826e+02
1.920000e-06	4.749347e-06	8.319541e-09	3.357889e+01	5.451150e+02
1.930000e-06	4.698664e-06	8.168488e-09	3.322055e+01	5.418399e+02
1.940000e-06	4.646021e-06	8.302694e-09	3.284835e+01	5.384823e+02
1.950000e-06	4.591288e-06	8.153084e-09	3.246138e+01	5.350545e+02
1.960000e-06	4.534739e-06	8.039028e-09	3.206157e+01	5.315558e+02
1.970000e-06	4.476576e-06	8.019359e-09	3.165034e+01	5.279746e+02
1.980000e-06	4.417004e-06	7.974846e-09	3.122915e+01	5.242922e+02
1.990000e-06	4.355754e-06	7.976278e-09	3.079610e+01	5.204882e+02
2.000000e-06	4.292743e-06	7.807053e-09	3.035060e+01	5.165450e+02
2.010000e-06	4.228229e-06	7.826044e-09	2.989448e+01	5.124515e+02
2.020000e-06	4.162242e-06	7.763503e-09	2.942793e+01	5.082043e+02
2.030000e-06	4.094860e-06	7.603541e-09	2.895152e+01	5.038078e+02
2.040000e-06	4.025949e-06	7.612196e-09	2.846431e+01	4.992716e+02
2.050000e-06	3.955453e-06	7.542702e-09	2.796589e+01	4.946074e+02
2.060000e-06	3.883557e-06	7.482508e-09	2.745757e+01	4.898254e+02
2.070000e-06	3.810360e-06	7.340721e-09	2.694005e+01	4.849319e+02
2.080000e-06	3.735832e-06	7.277170e-09	2.641312e+01	4.799272e+02
2.090000e-06	3.659836e-06	7.268247e-09	2.587581e+01	4.748060e+02
2.100000e-06	3.582245e-06	7.151633e-09	2.532723e+01	4.695586e+02
2.110000e-06	3.503170e-06	7.064969e-09	2.476815e+01	4.641730e+02
2.120000e-06	3.422922e-06	6.968363e-09	2.420078e+01	4.586380e+02
2.130000e-06	3.341560e-06	6.902409e-09	2.362554e+01	4.529453e+02
2.140000e-06	3.259050e-06	6.793297e-09	2.304217e+01	4.470914e+02
2.150000e-06	3.175505e-06	6.705624e-09	2.245149e+01	4.410777e+02
2.160000e-06	3.090846e-06	6.639433e-09	2.185294e+01	4.349102e+02
2.170000e-06	3.004809e-06	6.524409e-09	2.124463e+01	4.285974e+02
2.180000e-06	2.917493e-06	6.419834e-09	2.062729e+01	4.221480e+02
2.190000e-06	2.829191e-06	6.317075e-09	2.000298e+01	4.155690e+02
2.200000e-06	2.739960e-06	6.242505e-09	1.937210e+01	4.088633e+02
2.210000e-06	2.649799e-06	6.138715e-09	1.873464e+01	4.020289e+02
2.220000e-06	2.558810e-06	6.016679e-09	1.809133e+01	3.950589e+02
2.230000e-06	2.467014e-06	5.901820e-09	1.744231e+01	3.879428e+02
2.240000e-06	2.374298e-06	5.792614e-09	1.678679e+01	3.806683e+02
2.250000e-06	2.280555e-06	5.689036e-09	1.612401e+01	3.732232e+02
2.260000e-06	2.185909e-06	5.574223e-09	1.545484e+01	3.655979e+02
2.270000e-06	2.090439e-06	5.455696e-09	1.477985e+01	3.577865e+02
2.280000e-06	1.994102e-06	5.329158e-09	1.409873e+01	3.497874e+02
2.290000e-06	1.897089e-06	5.204160e-09	1.341282e+01	3.416027e+02
2.300000e-06	1.799590e-06	5.080362e-09	1.272348e+01	3.332369e+02
2.310000e-06	1.701530e-06	4.960355e-09	1.203017e+01	3.246944e+02
2.320000e-06	1.602867e-06	4.827978e-09	1.133261e+01	3.159780e+02
2.330000e-06	1.503760e-06	4.683975e-09	1.063190e+01	3.070863e+02
2.340000e-06	1.404303e-06	4.540975e-09	9.928716e+00	2.980134e+02
2.350000e-06	1.304502e-06	4.402166e-09	9.223102e+00	2.887488e+02
2.360000e-06	1.204325e-06	4.267200e-09	8.514832e+00	2.792788e+02
2.370000e-06	1.103729e-06	4.121188e-09	7.803598e+00	2.695885e+02
2.380000e-06	1.002638e-06	3.965022e-09	7.088863e+00	2.596643e+02
2.390000e-06	9.010082e-07	3.809762e-09	6.370319e+00	2.494967e+02
2.400000e-06	7.989202e-07	3.658042e-09	5.648535e+00	2.390809e+02
2.410000e-06	6.964627e-07	3.501917e-09	4.924139e+00	2.284181e+02
2.420000e-06	5.937069e-07	3.336445e-09	4.197634e+00	2.175140e+02
2.430000e-06	4.907512e-07	3.163695e-09	3.469715e+00	2.063768e+02
2.440000e-06	3.876991e-07	2.990243e-09	2.741115e+00	1.950145e+02
2.450000e-06	2.845269e-07	2.814113e-09	2.011666e+00	1.834320e+02
2.460000e-06	1.811628e-07	2.637195e-09	1.280859e+00	1.716286e+02
2.470000e-06	7.764226e-08	2.460128e-09	5.489472e-01	1.595971e+02
2.480000e-06	-2.589114e-08	2.272731e-09	-1.830559e-01	1.473234e+02
2.490000e-06	-1.293640e-07	2.076202e-09	-9.146310e-01	1.347883e+02
2.500000e-06	-2.328418e-07	1.879253e-09	-1.646241e+00	1.219695e+02
2.510000e-06	-3.362669e-07	1.684317e-09	-2.377478e+00	1.088445e+02
2.520000e-06	-4.395637e-07	1.482895e-09	-3.107808e+00	9.539318e+01
2.530000e-06	-5.427069e-07	1.270776e-09	-3.837052e+00	8.159925e+01
2.540000e-06	-6.456175e-07	1.053474e-09	-4.564653e+00	6.745122e+01
2.550000e-06	-7.482778e-07	8.306615e-10	-5.290483e+00	5.294211e+01
2.560000e-06	-8.505942e-07	6.000099e-10	-6.013881e+00	3.806857e+01
2.570000e-06	-9.523924e-07	3.656224e-10	-6.733616e+00	2.282996e+01
2.580000e-06	-1.053671e-06	1.286126e-10	-7.449677e+00	7.227918e+00
2.590000e-06	-1.154510e-06	-1.153047e-10	-8.162633e+00	-8.733190e+00
2.600000e-06	-1.254926e-06	-3.654070e-10	-8.872595e+00	-2.504462e+01
2.610000e-06	-1.354859e-06	-6.169752e-10	-9.579139e+00	-4.169076e+01
2.620000e-06	-1.454268e-06	-8.721301e-10	-1.028198e+01	-5.864621e+01
2.630000e-06	-1.553203e-06	-1.136702e-09	-1.098147e+01	-7.587318e+01
2.640000e-06	-1.651669e-06	-1.408172e-09	-1.167765e+01	-9.332007e+01
2.650000e-06	-1.749533e-06	-1.681435e-09	-1.236957e+01	-1.109216e+02
2.660000e-06	-1.846701e-06	-1.952899e-09	-1.305657e+01	-1.286009e+02
2.670000e-06	-1.943259e-06	-2.222301e-09	-1.373925e+01	-1.462735e+02
2.680000e-06	-2.039295e-06	-2.489484e-09	-1.441825e+01	-1.638525e+02
2.690000e-06	-2.134759e-06	-2.755453e-09	-1.509320e+01	-1.812538e+02
2.700000e-06	-2.229462e-06	-3.020788e-09	-1.576277e+01	-1.984010e+02
2.710000e-06	-2.323212e-06	-3.280406e-09	-1.642560e+01	-2.152291e+02
2.720000e-06	-2.415915e-06	-3.531587e-09	-1.708103e+01	-2.316862e+02
2.730000e-06	-2.507644e-06	-3.775979e-09	-1.772958e+01	-2.477329e+02
2.740000e-06	-2.598492e-06	-4.014446e-09	-1.837189e+01	-2.633415e+02
2.750000e-06	-2.688401e-06	-4.246591e-09	-1.900756e+01	-2.784923e+02
2.760000e-06	-2.777350e-06	-4.473032e-09	-1.963645e+01	-2.931722e+02
2.770000e-06	-2.865505e-06	-4.693194e-09	-2.025973e+01	-3.073717e+02
2.780000e-06	-2.952842e-06	-4.904908e-09	-2.087722e+01	-3.210842e+02
2.790000e-06	-3.039084e-06	-5.108278e-09	-2.148697e+01	-3.343061e+02
2.800000e-06	-3.124111e-06	-5.305005e-09	-2.208813e+01	-3.470369e+02
2.810000e-06	-3.207963e-06	-5.492171e-09	-2.268098e+01	-3.592805e+02
2.820000e-06	-3.290735e-06	-5.669359e-09	-2.326619e+01	-3.710454e+02
2.830000e-06	-3.372423e-06	-5.840321e-09	-2.384375e+01	-3.823443e+02
2.840000e-06	-3.453028e-06	-6.005563e-09	-2.441364e+01	-3.931928e+02
2.850000e-06	-3.532449e-06	-6.164326e-09	-2.497516e+01	-4.036073e+02
2.860000e-06	-3.610444e-06	-6.315940e-09	-2.552660e+01	-4.136026e+02
2.870000e-06	-3.686891e-06	-6.462490e-09	-2.606710e+01	-4.231903e+02
2.880000e-06	-3.761839e-06	-6.603456e-09	-2.659700e+01	-4.323771e+02
2.890000e-06	-3.835390e-06	-6.737401e-09	-2.711702e+01	-4.411661e+02
2.900000e-06	-3.907672e-06	-6.867515e-09	-2.762807e+01	-4.495579e+02
2.910000e-06	-3.978567e-06	-6.993744e-09	-2.812931e+01	-4.575538e+02
2.920000e-06	-4.047845e-06	-7.111634e-09	-2.861912e+01	-4.651586e+02
2.930000e-06	-4.115584e-06	-7.220862e-09	-2.909805e+01	-4.723834e+02
2.940000e-06	-4.181874e-06	-7.326103e-09	-2.956674e+01	-4.792470e+02
