# Temperatura_=_61.83
# Concentracion g/m^3_=_15000.0
# C_Vs_to_Am_M_A/Vsm_=_65563218390.804596
# pendiente_HvsI_1/m_=_3716.3
# ordenada_HvsI_A/m_=_1297.0
# frecuencia_Hz_=_301600.16754595377

Tiempo_(s)	Campo_(V.s)	Magnetizacion_(V.s)	Campo_(kA/m)	Magnetizacion_(A/m)
0.000000e+00	-5.414863e-06	-8.924103e-09	-3.833429e+01	-5.822954e+02
1.000000e-08	-5.412387e-06	-8.921025e-09	-3.831676e+01	-5.820611e+02
2.000000e-08	-5.408118e-06	-8.914934e-09	-3.828654e+01	-5.817335e+02
3.000000e-08	-5.402182e-06	-8.910195e-09	-3.824452e+01	-5.813126e+02
4.000000e-08	-5.394627e-06	-8.901216e-09	-3.819103e+01	-5.807921e+02
5.000000e-08	-5.385238e-06	-8.886394e-09	-3.812457e+01	-5.801605e+02
6.000000e-08	-5.373813e-06	-8.868397e-09	-3.804368e+01	-5.794042e+02
7.000000e-08	-5.360483e-06	-8.843121e-09	-3.794931e+01	-5.785121e+02
8.000000e-08	-5.345084e-06	-8.848426e-09	-3.784029e+01	-5.774794e+02
9.000000e-08	-5.327447e-06	-8.886549e-09	-3.771544e+01	-5.763114e+02
1.000000e-07	-5.307737e-06	-8.855344e-09	-3.757590e+01	-5.750240e+02
1.100000e-07	-5.286093e-06	-8.804816e-09	-3.742267e+01	-5.736428e+02
1.200000e-07	-5.262647e-06	-8.758219e-09	-3.725669e+01	-5.721985e+02
1.300000e-07	-5.237598e-06	-8.642988e-09	-3.707935e+01	-5.707213e+02
1.400000e-07	-5.210970e-06	-8.716802e-09	-3.689084e+01	-5.692345e+02
1.500000e-07	-5.182747e-06	-8.775406e-09	-3.669104e+01	-5.677486e+02
1.600000e-07	-5.153022e-06	-8.604799e-09	-3.648060e+01	-5.662584e+02
1.700000e-07	-5.121716e-06	-8.662872e-09	-3.625897e+01	-5.647418e+02
1.800000e-07	-5.088353e-06	-8.643497e-09	-3.602278e+01	-5.631635e+02
1.900000e-07	-5.053067e-06	-8.487882e-09	-3.577297e+01	-5.614799e+02
2.000000e-07	-5.016315e-06	-8.591214e-09	-3.551279e+01	-5.596471e+02
2.100000e-07	-4.977873e-06	-8.541588e-09	-3.524064e+01	-5.576272e+02
2.200000e-07	-4.937593e-06	-8.396208e-09	-3.495548e+01	-5.553951e+02
2.300000e-07	-4.895347e-06	-8.424487e-09	-3.465640e+01	-5.529415e+02
2.400000e-07	-4.851136e-06	-8.399916e-09	-3.434341e+01	-5.502731e+02
2.500000e-07	-4.805178e-06	-8.368125e-09	-3.401805e+01	-5.474096e+02
2.600000e-07	-4.757324e-06	-8.314311e-09	-3.367927e+01	-5.443790e+02
2.700000e-07	-4.707292e-06	-8.223426e-09	-3.332507e+01	-5.412112e+02
2.800000e-07	-4.655142e-06	-8.182104e-09	-3.295588e+01	-5.379324e+02
2.900000e-07	-4.601141e-06	-8.119669e-09	-3.257358e+01	-5.345604e+02
3.000000e-07	-4.545557e-06	-8.090763e-09	-3.218007e+01	-5.311027e+02
3.100000e-07	-4.488263e-06	-8.074189e-09	-3.177446e+01	-5.275570e+02
3.200000e-07	-4.429171e-06	-8.009935e-09	-3.135613e+01	-5.239135e+02
3.300000e-07	-4.368554e-06	-7.913516e-09	-3.092699e+01	-5.201584e+02
3.400000e-07	-4.306428e-06	-7.835811e-09	-3.048718e+01	-5.162781e+02
3.500000e-07	-4.242905e-06	-7.817575e-09	-3.003747e+01	-5.122620e+02
3.600000e-07	-4.177873e-06	-7.753569e-09	-2.957708e+01	-5.081045e+02
3.700000e-07	-4.111165e-06	-7.665341e-09	-2.910481e+01	-5.038055e+02
3.800000e-07	-4.042936e-06	-7.610027e-09	-2.862179e+01	-4.993689e+02
3.900000e-07	-3.973290e-06	-7.539059e-09	-2.812874e+01	-4.948006e+02
4.000000e-07	-3.902432e-06	-7.460396e-09	-2.762710e+01	-4.901061e+02
4.100000e-07	-3.830337e-06	-7.380997e-09	-2.711671e+01	-4.852890e+02
4.200000e-07	-3.756689e-06	-7.318027e-09	-2.659532e+01	-4.803496e+02
4.300000e-07	-3.681402e-06	-7.233337e-09	-2.606233e+01	-4.752851e+02
4.400000e-07	-3.604658e-06	-7.140343e-09	-2.551902e+01	-4.700905e+02
4.500000e-07	-3.526460e-06	-7.073221e-09	-2.496542e+01	-4.647600e+02
4.600000e-07	-3.446788e-06	-7.007835e-09	-2.440139e+01	-4.592884e+02
4.700000e-07	-3.365870e-06	-6.920854e-09	-2.382853e+01	-4.536726e+02
4.800000e-07	-3.283789e-06	-6.810403e-09	-2.324745e+01	-4.479115e+02
4.900000e-07	-3.200590e-06	-6.717716e-09	-2.265844e+01	-4.420061e+02
5.000000e-07	-3.116434e-06	-6.634049e-09	-2.206266e+01	-4.359586e+02
5.100000e-07	-3.031332e-06	-6.540448e-09	-2.146019e+01	-4.297711e+02
5.200000e-07	-2.945204e-06	-6.443328e-09	-2.085045e+01	-4.234447e+02
5.300000e-07	-2.858144e-06	-6.341815e-09	-2.023411e+01	-4.169785e+02
5.400000e-07	-2.770187e-06	-6.233844e-09	-1.961142e+01	-4.103698e+02
5.500000e-07	-2.681109e-06	-6.126723e-09	-1.898080e+01	-4.036139e+02
5.600000e-07	-2.590797e-06	-6.025841e-09	-1.834144e+01	-3.967055e+02
5.700000e-07	-2.499432e-06	-5.925884e-09	-1.769462e+01	-3.896389e+02
5.800000e-07	-2.407258e-06	-5.815571e-09	-1.704208e+01	-3.824093e+02
5.900000e-07	-2.314299e-06	-5.698706e-09	-1.638398e+01	-3.750134e+02
6.000000e-07	-2.220521e-06	-5.581410e-09	-1.572009e+01	-3.674494e+02
6.100000e-07	-2.125961e-06	-5.461708e-09	-1.505065e+01	-3.597166e+02
6.200000e-07	-2.030699e-06	-5.338633e-09	-1.437625e+01	-3.518152e+02
6.300000e-07	-1.934762e-06	-5.211079e-09	-1.369707e+01	-3.437454e+02
6.400000e-07	-1.837952e-06	-5.082136e-09	-1.301171e+01	-3.355066e+02
6.500000e-07	-1.740247e-06	-4.955283e-09	-1.232001e+01	-3.270968e+02
6.600000e-07	-1.641821e-06	-4.828719e-09	-1.162320e+01	-3.185122e+02
6.700000e-07	-1.542790e-06	-4.696379e-09	-1.092212e+01	-3.097473e+02
6.800000e-07	-1.443301e-06	-4.557693e-09	-1.021779e+01	-3.007950e+02
6.900000e-07	-1.343383e-06	-4.413388e-09	-9.510426e+00	-2.916469e+02
7.000000e-07	-1.243048e-06	-4.267186e-09	-8.800105e+00	-2.822945e+02
7.100000e-07	-1.142361e-06	-4.119949e-09	-8.087293e+00	-2.727291e+02
7.200000e-07	-1.041320e-06	-3.969772e-09	-7.371981e+00	-2.629434e+02
7.300000e-07	-9.399231e-07	-3.817874e-09	-6.654146e+00	-2.529317e+02
7.400000e-07	-8.381926e-07	-3.659747e-09	-5.933949e+00	-2.426904e+02
7.500000e-07	-7.361207e-07	-3.496702e-09	-5.211335e+00	-2.322180e+02
7.600000e-07	-6.337552e-07	-3.331611e-09	-4.486643e+00	-2.215153e+02
7.700000e-07	-5.311931e-07	-3.164566e-09	-3.760559e+00	-2.105839e+02
7.800000e-07	-4.284977e-07	-2.995224e-09	-3.033531e+00	-1.994256e+02
7.900000e-07	-3.257193e-07	-2.820827e-09	-2.305916e+00	-1.880409e+02
8.000000e-07	-2.228576e-07	-2.640591e-09	-1.577711e+00	-1.764274e+02
8.100000e-07	-1.199016e-07	-2.457062e-09	-8.488383e-01	-1.645794e+02
8.200000e-07	-1.688188e-08	-2.272935e-09	-1.195146e-01	-1.524865e+02
8.300000e-07	8.619894e-08	-2.086980e-09	6.102417e-01	-1.401344e+02
8.400000e-07	1.892899e-07	-1.896342e-09	1.340070e+00	-1.275053e+02
8.500000e-07	2.923054e-07	-1.699423e-09	2.069364e+00	-1.145798e+02
8.600000e-07	3.952466e-07	-1.500269e-09	2.798131e+00	-1.013382e+02
8.700000e-07	4.981297e-07	-1.295773e-09	3.526488e+00	-8.776245e+01
8.800000e-07	6.009106e-07	-1.082434e-09	4.254121e+00	-7.383778e+01
8.900000e-07	7.034853e-07	-8.626942e-10	4.980294e+00	-5.955347e+01
9.000000e-07	8.057950e-07	-6.382930e-10	5.704591e+00	-4.490328e+01
9.100000e-07	9.077978e-07	-4.105545e-10	6.426716e+00	-2.988538e+01
9.200000e-07	1.009441e-06	-1.779063e-10	7.146292e+00	-1.450199e+01
9.300000e-07	1.110693e-06	6.042463e-11	7.863105e+00	1.240691e+00
9.400000e-07	1.211568e-06	3.042820e-10	8.577247e+00	1.733218e+01
9.500000e-07	1.312042e-06	5.522296e-10	9.288544e+00	3.375677e+01
9.600000e-07	1.412104e-06	8.052842e-10	9.996930e+00	5.049201e+01
9.700000e-07	1.511747e-06	1.064209e-09	1.070235e+01	6.750682e+01
9.800000e-07	1.610922e-06	1.327278e-09	1.140445e+01	8.475986e+01
9.900000e-07	1.709432e-06	1.592034e-09	1.210185e+01	1.021985e+02
1.000000e-06	1.807038e-06	1.856736e-09	1.279285e+01	1.197591e+02
1.010000e-06	1.903737e-06	2.122013e-09	1.347742e+01	1.373683e+02
1.020000e-06	1.999640e-06	2.388125e-09	1.415636e+01	1.549466e+02
1.030000e-06	2.094876e-06	2.654483e-09	1.483059e+01	1.724117e+02
1.040000e-06	2.189437e-06	2.919085e-09	1.550002e+01	1.896838e+02
1.050000e-06	2.283213e-06	3.176698e-09	1.616391e+01	2.066895e+02
1.060000e-06	2.376165e-06	3.426738e-09	1.682196e+01	2.233652e+02
1.070000e-06	2.468403e-06	3.672663e-09	1.747495e+01	2.396594e+02
1.080000e-06	2.559990e-06	3.914757e-09	1.812334e+01	2.555330e+02
1.090000e-06	2.650671e-06	4.149876e-09	1.876531e+01	2.709581e+02
1.100000e-06	2.740105e-06	4.376256e-09	1.939846e+01	2.859165e+02
1.110000e-06	2.828341e-06	4.594167e-09	2.002312e+01	3.003969e+02
1.120000e-06	2.915641e-06	4.805029e-09	2.064116e+01	3.143929e+02
1.130000e-06	3.002054e-06	5.010433e-09	2.125291e+01	3.279013e+02
1.140000e-06	3.087478e-06	5.209387e-09	2.185767e+01	3.409216e+02
1.150000e-06	3.171925e-06	5.399237e-09	2.245551e+01	3.534561e+02
1.160000e-06	3.255486e-06	5.580744e-09	2.304708e+01	3.655097e+02
1.170000e-06	3.337925e-06	5.757061e-09	2.363069e+01	3.770909e+02
1.180000e-06	3.419028e-06	5.927303e-09	2.420486e+01	3.882112e+02
1.190000e-06	3.498853e-06	6.090462e-09	2.476998e+01	3.988845e+02
1.200000e-06	3.577439e-06	6.246373e-09	2.532633e+01	4.091253e+02
1.210000e-06	3.654823e-06	6.396409e-09	2.587417e+01	4.189476e+02
1.220000e-06	3.730935e-06	6.541554e-09	2.641299e+01	4.283626e+02
1.230000e-06	3.805606e-06	6.680438e-09	2.694162e+01	4.373785e+02
1.240000e-06	3.878606e-06	6.812556e-09	2.745843e+01	4.460000e+02
1.250000e-06	3.950065e-06	6.936832e-09	2.796432e+01	4.542300e+02
1.260000e-06	4.020187e-06	7.053195e-09	2.846074e+01	4.620715e+02
1.270000e-06	4.088925e-06	7.164635e-09	2.894737e+01	4.695305e+02
1.280000e-06	4.156289e-06	7.271727e-09	2.942427e+01	4.766179e+02
1.290000e-06	4.222021e-06	7.373178e-09	2.988962e+01	4.833512e+02
1.300000e-06	4.286089e-06	7.469748e-09	3.034319e+01	4.897540e+02
1.310000e-06	4.348678e-06	7.561969e-09	3.078628e+01	4.958551e+02
1.320000e-06	4.409774e-06	7.650251e-09	3.121881e+01	5.016848e+02
1.330000e-06	4.469499e-06	7.735258e-09	3.164163e+01	5.072722e+02
1.340000e-06	4.527652e-06	7.818710e-09	3.205332e+01	5.126413e+02
1.350000e-06	4.583968e-06	7.899196e-09	3.245201e+01	5.178085e+02
1.360000e-06	4.638570e-06	7.973381e-09	3.283856e+01	5.227819e+02
1.370000e-06	4.691520e-06	8.042604e-09	3.321342e+01	5.275614e+02
1.380000e-06	4.742591e-06	8.110595e-09	3.357497e+01	5.321409e+02
1.390000e-06	4.791646e-06	8.177551e-09	3.392225e+01	5.365117e+02
1.400000e-06	4.838876e-06	8.240232e-09	3.425662e+01	5.406650e+02
1.410000e-06	4.884443e-06	8.298726e-09	3.457920e+01	5.445947e+02
1.420000e-06	4.928418e-06	8.354096e-09	3.489053e+01	5.482993e+02
1.430000e-06	4.970621e-06	8.406337e-09	3.518930e+01	5.517817e+02
1.440000e-06	5.010896e-06	8.455909e-09	3.547443e+01	5.550483e+02
1.450000e-06	5.049458e-06	8.504207e-09	3.574742e+01	5.581072e+02
1.460000e-06	5.086427e-06	8.548679e-09	3.600914e+01	5.609666e+02
1.470000e-06	5.121714e-06	8.586276e-09	3.625896e+01	5.636332e+02
1.480000e-06	5.155064e-06	8.619886e-09	3.649506e+01	5.661117e+02
1.490000e-06	5.186519e-06	8.651402e-09	3.671774e+01	5.684052e+02
1.500000e-06	5.216284e-06	8.680726e-09	3.692846e+01	5.705162e+02
1.510000e-06	5.244392e-06	8.708580e-09	3.712745e+01	5.724482e+02
1.520000e-06	5.270586e-06	8.734037e-09	3.731289e+01	5.742062e+02
1.530000e-06	5.294643e-06	8.756607e-09	3.748320e+01	5.757978e+02
1.540000e-06	5.316806e-06	8.776002e-09	3.764010e+01	5.772320e+02
1.550000e-06	5.337254e-06	8.794309e-09	3.778486e+01	5.785184e+02
1.560000e-06	5.355896e-06	8.811270e-09	3.791684e+01	5.796653e+02
1.570000e-06	5.372517e-06	8.827390e-09	3.803451e+01	5.806785e+02
1.580000e-06	5.387103e-06	8.841919e-09	3.813777e+01	5.815600e+02
1.590000e-06	5.399732e-06	8.852484e-09	3.822717e+01	5.823088e+02
1.600000e-06	5.410184e-06	8.861675e-09	3.830117e+01	5.829219e+02
1.610000e-06	5.418423e-06	8.868101e-09	3.835950e+01	5.833964e+02
1.620000e-06	5.424757e-06	8.872732e-09	3.840434e+01	5.837314e+02
1.630000e-06	5.429323e-06	8.878525e-09	3.843666e+01	5.839300e+02
1.640000e-06	5.431982e-06	8.883847e-09	3.845548e+01	5.839993e+02
1.650000e-06	5.432620e-06	8.886909e-09	3.846000e+01	5.839497e+02
1.660000e-06	5.431350e-06	8.882285e-09	3.845101e+01	5.837925e+02
1.670000e-06	5.428387e-06	8.875695e-09	3.843004e+01	5.835375e+02
1.680000e-06	5.423771e-06	8.869989e-09	3.839735e+01	5.831897e+02
1.690000e-06	5.417295e-06	8.861475e-09	3.835151e+01	5.827478e+02
1.700000e-06	5.408994e-06	8.853489e-09	3.829274e+01	5.822042e+02
1.710000e-06	5.399056e-06	8.847590e-09	3.822238e+01	5.815465e+02
1.720000e-06	5.387441e-06	8.851076e-09	3.814016e+01	5.807615e+02
1.730000e-06	5.373862e-06	8.836590e-09	3.804403e+01	5.798390e+02
1.740000e-06	5.358188e-06	8.755951e-09	3.793306e+01	5.787761e+02
1.750000e-06	5.340228e-06	8.739652e-09	3.780592e+01	5.775804e+02
1.760000e-06	5.319585e-06	8.742663e-09	3.765977e+01	5.762701e+02
1.770000e-06	5.296525e-06	8.752739e-09	3.749652e+01	5.748723e+02
1.780000e-06	5.272080e-06	8.826745e-09	3.732346e+01	5.734181e+02
1.790000e-06	5.246928e-06	8.671520e-09	3.714541e+01	5.719368e+02
1.800000e-06	5.220444e-06	8.623746e-09	3.695791e+01	5.704494e+02
1.810000e-06	5.191743e-06	8.725062e-09	3.675472e+01	5.689633e+02
1.820000e-06	5.161158e-06	8.569245e-09	3.653820e+01	5.674693e+02
1.830000e-06	5.128938e-06	8.621328e-09	3.631010e+01	5.659425e+02
1.840000e-06	5.094761e-06	8.683719e-09	3.606815e+01	5.643450e+02
1.850000e-06	5.058966e-06	8.483590e-09	3.581473e+01	5.626327e+02
1.860000e-06	5.021446e-06	8.561197e-09	3.554912e+01	5.607621e+02
1.870000e-06	4.981972e-06	8.565365e-09	3.526966e+01	5.586980e+02
1.880000e-06	4.940827e-06	8.418887e-09	3.497837e+01	5.564183e+02
1.890000e-06	4.897862e-06	8.455270e-09	3.467421e+01	5.539171e+02
1.900000e-06	4.853196e-06	8.353595e-09	3.435799e+01	5.512044e+02
1.910000e-06	4.806784e-06	8.354826e-09	3.402942e+01	5.483022e+02
1.920000e-06	4.758321e-06	8.349678e-09	3.368633e+01	5.452393e+02
1.930000e-06	4.708168e-06	8.209082e-09	3.333128e+01	5.420454e+02
1.940000e-06	4.656289e-06	8.279991e-09	3.296400e+01	5.387450e+02
1.950000e-06	4.602306e-06	8.177746e-09	3.258183e+01	5.353539e+02
1.960000e-06	4.546372e-06	8.035466e-09	3.218585e+01	5.318775e+02
1.970000e-06	4.488719e-06	8.024324e-09	3.177769e+01	5.283115e+02
1.980000e-06	4.429618e-06	7.985693e-09	3.135929e+01	5.246449e+02
1.990000e-06	4.369028e-06	7.979983e-09	3.093035e+01	5.208636e+02
2.000000e-06	4.306705e-06	7.851278e-09	3.048913e+01	5.169545e+02
2.010000e-06	4.242755e-06	7.816472e-09	3.003640e+01	5.129080e+02
2.020000e-06	4.177303e-06	7.782642e-09	2.957304e+01	5.087196e+02
2.030000e-06	4.110432e-06	7.631624e-09	2.909963e+01	5.043903e+02
2.040000e-06	4.042058e-06	7.610638e-09	2.861558e+01	4.999245e+02
2.050000e-06	3.972161e-06	7.569905e-09	2.812075e+01	4.953283e+02
2.060000e-06	3.900790e-06	7.498938e-09	2.761548e+01	4.906070e+02
2.070000e-06	3.828004e-06	7.384246e-09	2.710019e+01	4.857634e+02
2.080000e-06	3.753962e-06	7.302709e-09	2.657601e+01	4.807971e+02
2.090000e-06	3.678533e-06	7.279383e-09	2.604202e+01	4.757048e+02
2.100000e-06	3.601588e-06	7.172168e-09	2.549729e+01	4.704811e+02
2.110000e-06	3.523092e-06	7.076201e-09	2.494158e+01	4.651203e+02
2.120000e-06	3.443288e-06	6.996102e-09	2.437661e+01	4.596176e+02
2.130000e-06	3.362400e-06	6.926049e-09	2.380397e+01	4.539703e+02
2.140000e-06	3.280329e-06	6.829057e-09	2.322295e+01	4.481777e+02
2.150000e-06	3.197188e-06	6.734721e-09	2.263436e+01	4.422413e+02
2.160000e-06	3.113024e-06	6.660245e-09	2.203852e+01	4.361632e+02
2.170000e-06	3.027621e-06	6.549458e-09	2.143391e+01	4.299455e+02
2.180000e-06	2.940871e-06	6.447104e-09	2.081977e+01	4.235888e+02
2.190000e-06	2.852953e-06	6.354691e-09	2.019736e+01	4.170920e+02
2.200000e-06	2.764105e-06	6.275720e-09	1.956837e+01	4.104518e+02
2.210000e-06	2.674348e-06	6.175442e-09	1.893294e+01	4.036633e+02
2.220000e-06	2.583704e-06	6.053104e-09	1.829122e+01	3.967210e+02
2.230000e-06	2.492241e-06	5.937715e-09	1.764371e+01	3.896194e+02
2.240000e-06	2.399932e-06	5.824945e-09	1.699021e+01	3.823541e+02
2.250000e-06	2.306700e-06	5.719101e-09	1.633018e+01	3.749218e+02
2.260000e-06	2.212546e-06	5.607817e-09	1.566363e+01	3.673212e+02
2.270000e-06	2.117488e-06	5.489336e-09	1.499066e+01	3.595519e+02
2.280000e-06	2.021565e-06	5.366207e-09	1.431158e+01	3.516140e+02
2.290000e-06	1.924915e-06	5.243954e-09	1.362735e+01	3.435077e+02
2.300000e-06	1.827674e-06	5.120390e-09	1.293894e+01	3.352320e+02
2.310000e-06	1.729945e-06	4.997067e-09	1.224707e+01	3.267847e+02
2.320000e-06	1.631666e-06	4.867576e-09	1.155131e+01	3.181616e+02
2.330000e-06	1.532839e-06	4.728634e-09	1.085167e+01	3.093568e+02
2.340000e-06	1.433565e-06	4.588640e-09	1.014886e+01	3.003628e+02
2.350000e-06	1.333851e-06	4.449933e-09	9.442943e+00	2.911714e+02
2.360000e-06	1.233762e-06	4.312358e-09	8.734363e+00	2.817736e+02
2.370000e-06	1.133344e-06	4.166069e-09	8.023463e+00	2.721611e+02
2.380000e-06	1.032540e-06	4.010907e-09	7.309821e+00	2.623270e+02
2.390000e-06	9.313161e-07	3.858371e-09	6.593212e+00	2.522659e+02
2.400000e-06	8.296331e-07	3.709785e-09	5.873352e+00	2.419747e+02
2.410000e-06	7.275794e-07	3.556874e-09	5.150867e+00	2.314525e+02
2.420000e-06	6.252216e-07	3.394485e-09	4.426229e+00	2.207002e+02
2.430000e-06	5.225498e-07	3.224442e-09	3.699369e+00	2.097196e+02
2.440000e-06	4.196818e-07	3.051963e-09	2.971119e+00	1.985124e+02
2.450000e-06	3.166461e-07	2.878753e-09	2.241683e+00	1.870786e+02
2.460000e-06	2.134148e-07	2.704404e-09	1.510861e+00	1.754151e+02
2.470000e-06	1.100338e-07	2.528005e-09	7.789793e-01	1.635152e+02
2.480000e-06	6.630041e-09	2.341578e-09	4.693709e-02	1.513677e+02
2.490000e-06	-9.671950e-08	2.144760e-09	-6.847216e-01	1.389574e+02
2.500000e-06	-2.000516e-07	1.948512e-09	-1.416256e+00	1.262661e+02
2.510000e-06	-3.033048e-07	1.755054e-09	-2.147233e+00	1.132740e+02
2.520000e-06	-4.064874e-07	1.557473e-09	-2.877710e+00	9.996183e+01
2.530000e-06	-5.095985e-07	1.350246e-09	-3.607681e+00	8.631202e+01
2.540000e-06	-6.124711e-07	1.135983e-09	-4.335963e+00	7.231063e+01
2.550000e-06	-7.150433e-07	9.161518e-10	-5.062118e+00	5.794788e+01
2.560000e-06	-8.172820e-07	6.864639e-10	-5.785913e+00	4.321850e+01
2.570000e-06	-9.190870e-07	4.511610e-10	-6.506637e+00	2.812154e+01
2.580000e-06	-1.020315e-06	2.141162e-10	-7.223280e+00	1.266009e+01
2.590000e-06	-1.121020e-06	-2.795438e-11	-7.936214e+00	-3.158781e+00
2.600000e-06	-1.221323e-06	-2.748921e-10	-8.646302e+00	-1.932358e+01
2.610000e-06	-1.321242e-06	-5.242450e-10	-9.353676e+00	-3.581731e+01
2.620000e-06	-1.420769e-06	-7.766704e-10	-1.005827e+01	-5.261581e+01
2.630000e-06	-1.519844e-06	-1.037172e-09	-1.075967e+01	-6.968593e+01
2.640000e-06	-1.618404e-06	-1.305013e-09	-1.145742e+01	-8.698397e+01
2.650000e-06	-1.716346e-06	-1.575444e-09	-1.215080e+01	-1.044549e+02
2.660000e-06	-1.813627e-06	-1.845865e-09	-1.283949e+01	-1.220327e+02
2.670000e-06	-1.910299e-06	-2.116820e-09	-1.352388e+01	-1.396426e+02
2.680000e-06	-2.006459e-06	-2.386326e-09	-1.420464e+01	-1.572039e+02
2.690000e-06	-2.102116e-06	-2.653356e-09	-1.488184e+01	-1.746347e+02
2.700000e-06	-2.196988e-06	-2.917369e-09	-1.555348e+01	-1.918560e+02
2.710000e-06	-2.290806e-06	-3.176565e-09	-1.621767e+01	-2.087963e+02
2.720000e-06	-2.383514e-06	-3.429398e-09	-1.687398e+01	-2.253946e+02
2.730000e-06	-2.475323e-06	-3.675527e-09	-1.752394e+01	-2.416020e+02
2.740000e-06	-2.566371e-06	-3.917188e-09	-1.816851e+01	-2.573818e+02
2.750000e-06	-2.656531e-06	-4.153459e-09	-1.880680e+01	-2.727086e+02
2.760000e-06	-2.745717e-06	-4.384910e-09	-1.943819e+01	-2.875658e+02
2.770000e-06	-2.834039e-06	-4.608546e-09	-2.006346e+01	-3.019432e+02
2.780000e-06	-2.921577e-06	-4.821568e-09	-2.068318e+01	-3.158352e+02
2.790000e-06	-3.008115e-06	-5.025733e-09	-2.129582e+01	-3.292394e+02
2.800000e-06	-3.093360e-06	-5.223957e-09	-2.189931e+01	-3.421558e+02
2.810000e-06	-3.177391e-06	-5.414562e-09	-2.249420e+01	-3.545871e+02
2.820000e-06	-3.260428e-06	-5.595514e-09	-2.308206e+01	-3.665391e+02
2.830000e-06	-3.342400e-06	-5.770247e-09	-2.366238e+01	-3.780209e+02
2.840000e-06	-3.423295e-06	-5.938852e-09	-2.423507e+01	-3.890446e+02
2.850000e-06	-3.503072e-06	-6.100895e-09	-2.479985e+01	-3.996243e+02
2.860000e-06	-3.581403e-06	-6.255638e-09	-2.535439e+01	-4.097748e+02
2.870000e-06	-3.658148e-06	-6.404651e-09	-2.589770e+01	-4.195093e+02
2.880000e-06	-3.733457e-06	-6.547532e-09	-2.643085e+01	-4.288387e+02
2.890000e-06	-3.807373e-06	-6.682701e-09	-2.695413e+01	-4.377702e+02
2.900000e-06	-3.879954e-06	-6.814637e-09	-2.746797e+01	-4.463080e+02
2.910000e-06	-3.951242e-06	-6.943431e-09	-2.797265e+01	-4.544548e+02
2.920000e-06	-4.020915e-06	-7.062731e-09	-2.846589e+01	-4.622141e+02
2.930000e-06	-4.088982e-06	-7.172796e-09	-2.894777e+01	-4.695928e+02
2.940000e-06	-4.155662e-06	-7.279887e-09	-2.941983e+01	-4.766030e+02
