# Temperatura_=_32.78
# Concentracion g/m^3_=_15000.0
# C_Vs_to_Am_M_A/Vsm_=_65563218390.804596
# pendiente_HvsI_1/m_=_3716.3
# ordenada_HvsI_A/m_=_1297.0
# frecuencia_Hz_=_301596.90574306087

Tiempo_(s)	Campo_(V.s)	Magnetizacion_(V.s)	Campo_(kA/m)	Magnetizacion_(A/m)
0.000000e+00	-5.411461e-06	-8.122096e-09	-3.833645e+01	-5.303629e+02
1.000000e-08	-5.408668e-06	-8.119742e-09	-3.831666e+01	-5.301564e+02
2.000000e-08	-5.404099e-06	-8.112552e-09	-3.828430e+01	-5.298583e+02
3.000000e-08	-5.397841e-06	-8.108876e-09	-3.823996e+01	-5.294673e+02
4.000000e-08	-5.389987e-06	-8.102432e-09	-3.818432e+01	-5.289797e+02
5.000000e-08	-5.380287e-06	-8.088895e-09	-3.811561e+01	-5.283912e+02
6.000000e-08	-5.368485e-06	-8.069714e-09	-3.803200e+01	-5.276980e+02
7.000000e-08	-5.354753e-06	-8.041032e-09	-3.793471e+01	-5.268994e+02
8.000000e-08	-5.338811e-06	-8.066652e-09	-3.782178e+01	-5.259984e+02
9.000000e-08	-5.320641e-06	-8.118050e-09	-3.769306e+01	-5.250020e+02
1.000000e-07	-5.300538e-06	-8.071025e-09	-3.755064e+01	-5.239209e+02
1.100000e-07	-5.278595e-06	-8.021571e-09	-3.739519e+01	-5.227677e+02
1.200000e-07	-5.254995e-06	-7.960527e-09	-3.722800e+01	-5.215543e+02
1.300000e-07	-5.229739e-06	-7.829605e-09	-3.704908e+01	-5.202898e+02
1.400000e-07	-5.202820e-06	-7.956598e-09	-3.685837e+01	-5.189782e+02
1.500000e-07	-5.174333e-06	-8.006683e-09	-3.665657e+01	-5.176174e+02
1.600000e-07	-5.144400e-06	-7.835939e-09	-3.644451e+01	-5.161992e+02
1.700000e-07	-5.112814e-06	-7.952485e-09	-3.622075e+01	-5.147102e+02
1.800000e-07	-5.079078e-06	-7.878428e-09	-3.598175e+01	-5.131345e+02
1.900000e-07	-5.043552e-06	-7.693826e-09	-3.573007e+01	-5.114557e+02
2.000000e-07	-5.006542e-06	-7.828475e-09	-3.546788e+01	-5.096602e+02
2.100000e-07	-4.967735e-06	-7.761719e-09	-3.519296e+01	-5.077385e+02
2.200000e-07	-4.927104e-06	-7.649800e-09	-3.490512e+01	-5.056869e+02
2.300000e-07	-4.884501e-06	-7.714844e-09	-3.460331e+01	-5.035068e+02
2.400000e-07	-4.840000e-06	-7.662940e-09	-3.428805e+01	-5.012035e+02
2.500000e-07	-4.793800e-06	-7.624056e-09	-3.396075e+01	-4.987847e+02
2.600000e-07	-4.745707e-06	-7.576582e-09	-3.362005e+01	-4.962582e+02
2.700000e-07	-4.695511e-06	-7.530343e-09	-3.326444e+01	-4.936298e+02
2.800000e-07	-4.643244e-06	-7.511663e-09	-3.289417e+01	-4.909026e+02
2.900000e-07	-4.589079e-06	-7.419756e-09	-3.251044e+01	-4.880764e+02
3.000000e-07	-4.533314e-06	-7.377367e-09	-3.211539e+01	-4.851484e+02
3.100000e-07	-4.475839e-06	-7.368286e-09	-3.170822e+01	-4.821146e+02
3.200000e-07	-4.416502e-06	-7.335078e-09	-3.128786e+01	-4.789708e+02
3.300000e-07	-4.355597e-06	-7.254003e-09	-3.085639e+01	-4.757140e+02
3.400000e-07	-4.293264e-06	-7.175235e-09	-3.041480e+01	-4.723436e+02
3.500000e-07	-4.229582e-06	-7.158791e-09	-2.996366e+01	-4.688608e+02
3.600000e-07	-4.164327e-06	-7.095696e-09	-2.950137e+01	-4.652684e+02
3.700000e-07	-4.097381e-06	-7.034827e-09	-2.902710e+01	-4.615696e+02
3.800000e-07	-4.028949e-06	-6.999406e-09	-2.854231e+01	-4.577669e+02
3.900000e-07	-3.959120e-06	-6.921293e-09	-2.804762e+01	-4.538605e+02
4.000000e-07	-3.888037e-06	-6.838004e-09	-2.754405e+01	-4.498483e+02
4.100000e-07	-3.815699e-06	-6.770958e-09	-2.703158e+01	-4.457259e+02
4.200000e-07	-3.741787e-06	-6.742317e-09	-2.650797e+01	-4.414869e+02
4.300000e-07	-3.666285e-06	-6.683020e-09	-2.597309e+01	-4.371243e+02
4.400000e-07	-3.589353e-06	-6.601220e-09	-2.542808e+01	-4.326316e+02
4.500000e-07	-3.510936e-06	-6.527625e-09	-2.487255e+01	-4.280044e+02
4.600000e-07	-3.430992e-06	-6.450131e-09	-2.430620e+01	-4.232405e+02
4.700000e-07	-3.349807e-06	-6.382424e-09	-2.373106e+01	-4.183402e+02
4.800000e-07	-3.267548e-06	-6.303760e-09	-2.314832e+01	-4.133061e+02
4.900000e-07	-3.184203e-06	-6.226799e-09	-2.255787e+01	-4.081415e+02
5.000000e-07	-3.099910e-06	-6.145706e-09	-2.196072e+01	-4.028499e+02
5.100000e-07	-3.014681e-06	-6.057107e-09	-2.135693e+01	-3.974333e+02
5.200000e-07	-2.928477e-06	-5.969755e-09	-2.074623e+01	-3.918917e+02
5.300000e-07	-2.841303e-06	-5.888073e-09	-2.012866e+01	-3.862228e+02
5.400000e-07	-2.753191e-06	-5.804381e-09	-1.950445e+01	-3.804224e+02
5.500000e-07	-2.663961e-06	-5.706901e-09	-1.887232e+01	-3.744846e+02
5.600000e-07	-2.573486e-06	-5.604306e-09	-1.823137e+01	-3.684033e+02
5.700000e-07	-2.481976e-06	-5.510885e-09	-1.758308e+01	-3.621728e+02
5.800000e-07	-2.389660e-06	-5.424365e-09	-1.692908e+01	-3.557888e+02
5.900000e-07	-2.296594e-06	-5.324701e-09	-1.626978e+01	-3.492485e+02
6.000000e-07	-2.202768e-06	-5.212273e-09	-1.560509e+01	-3.425503e+02
6.100000e-07	-2.108183e-06	-5.102828e-09	-1.493501e+01	-3.356941e+02
6.200000e-07	-2.012821e-06	-4.998243e-09	-1.425944e+01	-3.286797e+02
6.300000e-07	-1.916771e-06	-4.891071e-09	-1.357899e+01	-3.215065e+02
6.400000e-07	-1.820013e-06	-4.784763e-09	-1.289353e+01	-3.141730e+02
6.500000e-07	-1.722463e-06	-4.675849e-09	-1.220246e+01	-3.066760e+02
6.600000e-07	-1.624137e-06	-4.552713e-09	-1.150588e+01	-2.990113e+02
6.700000e-07	-1.525094e-06	-4.421215e-09	-1.080423e+01	-2.911732e+02
6.800000e-07	-1.425515e-06	-4.297022e-09	-1.009879e+01	-2.831558e+02
6.900000e-07	-1.325542e-06	-4.179977e-09	-9.390544e+00	-2.749530e+02
7.000000e-07	-1.225195e-06	-4.055408e-09	-8.679658e+00	-2.665591e+02
7.100000e-07	-1.124506e-06	-3.920551e-09	-7.966350e+00	-2.579691e+02
7.200000e-07	-1.023487e-06	-3.781811e-09	-7.250696e+00	-2.491786e+02
7.300000e-07	-9.220776e-07	-3.644718e-09	-6.532281e+00	-2.401837e+02
7.400000e-07	-8.203364e-07	-3.506141e-09	-5.811515e+00	-2.309801e+02
7.500000e-07	-7.183344e-07	-3.363494e-09	-5.088902e+00	-2.215635e+02
7.600000e-07	-6.160801e-07	-3.214921e-09	-4.364501e+00	-2.119286e+02
7.700000e-07	-5.136328e-07	-3.060217e-09	-3.638732e+00	-2.020695e+02
7.800000e-07	-4.110804e-07	-2.903693e-09	-2.912220e+00	-1.919798e+02
7.900000e-07	-3.084588e-07	-2.745914e-09	-2.185217e+00	-1.816531e+02
8.000000e-07	-2.057126e-07	-2.584621e-09	-1.457331e+00	-1.710837e+02
8.100000e-07	-1.028434e-07	-2.417338e-09	-7.285746e-01	-1.602669e+02
8.200000e-07	6.809121e-11	-2.245535e-09	4.823791e-04	-1.491990e+02
8.300000e-07	1.030352e-07	-2.071310e-09	7.299332e-01	-1.378779e+02
8.400000e-07	2.060102e-07	-1.895125e-09	1.459439e+00	-1.263018e+02
8.500000e-07	3.089628e-07	-1.715798e-09	2.188787e+00	-1.144689e+02
8.600000e-07	4.118509e-07	-1.531160e-09	2.917678e+00	-1.023764e+02
8.700000e-07	5.145828e-07	-1.340097e-09	3.645463e+00	-9.001904e+01
8.800000e-07	6.171770e-07	-1.144181e-09	4.372271e+00	-7.738904e+01
8.900000e-07	7.196037e-07	-9.475570e-10	5.097894e+00	-6.447567e+01
9.000000e-07	8.217613e-07	-7.507847e-10	5.821610e+00	-5.126605e+01
9.100000e-07	9.236278e-07	-5.516360e-10	6.543263e+00	-3.774650e+01
9.200000e-07	1.025201e-06	-3.452653e-10	7.262838e+00	-2.390464e+01
9.300000e-07	1.126382e-06	-1.288332e-10	7.979637e+00	-9.731847e+00
9.400000e-07	1.227159e-06	9.452870e-11	8.693570e+00	4.774149e+00
9.500000e-07	1.327559e-06	3.200430e-10	9.404835e+00	1.960695e+01
9.600000e-07	1.427567e-06	5.472681e-10	1.011332e+01	3.474982e+01
9.700000e-07	1.527049e-06	7.807382e-10	1.081808e+01	5.017490e+01
9.800000e-07	1.625847e-06	1.020216e-09	1.151800e+01	6.584340e+01
9.900000e-07	1.723940e-06	1.262147e-09	1.221292e+01	8.170676e+01
1.000000e-06	1.821327e-06	1.504256e-09	1.290284e+01	9.770854e+01
1.010000e-06	1.917927e-06	1.748668e-09	1.358718e+01	1.137869e+02
1.020000e-06	2.013709e-06	1.994812e-09	1.426573e+01	1.298771e+02
1.030000e-06	2.108751e-06	2.241153e-09	1.493904e+01	1.459140e+02
1.040000e-06	2.203106e-06	2.486379e-09	1.560748e+01	1.618340e+02
1.050000e-06	2.296722e-06	2.725762e-09	1.627068e+01	1.775766e+02
1.060000e-06	2.389591e-06	2.958741e-09	1.692860e+01	1.930860e+02
1.070000e-06	2.481719e-06	3.187535e-09	1.758126e+01	2.083112e+02
1.080000e-06	2.572978e-06	3.413904e-09	1.822777e+01	2.232069e+02
1.090000e-06	2.663260e-06	3.635202e-09	1.886735e+01	2.377344e+02
1.100000e-06	2.752457e-06	3.847443e-09	1.949925e+01	2.518614e+02
1.110000e-06	2.840545e-06	4.050960e-09	2.012329e+01	2.655630e+02
1.120000e-06	2.927657e-06	4.248410e-09	2.074042e+01	2.788217e+02
1.130000e-06	3.013843e-06	4.444143e-09	2.135099e+01	2.916276e+02
1.140000e-06	3.099084e-06	4.636001e-09	2.195486e+01	3.039777e+02
1.150000e-06	3.183385e-06	4.818658e-09	2.255208e+01	3.158752e+02
1.160000e-06	3.266690e-06	4.992208e-09	2.314224e+01	3.273273e+02
1.170000e-06	3.348811e-06	5.159601e-09	2.372401e+01	3.383438e+02
1.180000e-06	3.429616e-06	5.320221e-09	2.429645e+01	3.489345e+02
1.190000e-06	3.509164e-06	5.475182e-09	2.486000e+01	3.591080e+02
1.200000e-06	3.587495e-06	5.625103e-09	2.541491e+01	3.688701e+02
1.210000e-06	3.664591e-06	5.768609e-09	2.596109e+01	3.782239e+02
1.220000e-06	3.740365e-06	5.904588e-09	2.649789e+01	3.871701e+02
1.230000e-06	3.814657e-06	6.032892e-09	2.702420e+01	3.957091e+02
1.240000e-06	3.887337e-06	6.156340e-09	2.753909e+01	4.038428e+02
1.250000e-06	3.958508e-06	6.274571e-09	2.804329e+01	4.115766e+02
1.260000e-06	4.028342e-06	6.385105e-09	2.853802e+01	4.189215e+02
1.270000e-06	4.096816e-06	6.488635e-09	2.902310e+01	4.258945e+02
1.280000e-06	4.163864e-06	6.586449e-09	2.949809e+01	4.325189e+02
1.290000e-06	4.229290e-06	6.679457e-09	2.996159e+01	4.388221e+02
1.300000e-06	4.293038e-06	6.769770e-09	3.041320e+01	4.448337e+02
1.310000e-06	4.355273e-06	6.857454e-09	3.085409e+01	4.505827e+02
1.320000e-06	4.416135e-06	6.943095e-09	3.128526e+01	4.560945e+02
1.330000e-06	4.475609e-06	7.025083e-09	3.170659e+01	4.613884e+02
1.340000e-06	4.533420e-06	7.104143e-09	3.211614e+01	4.664770e+02
1.350000e-06	4.589429e-06	7.179728e-09	3.251293e+01	4.713657e+02
1.360000e-06	4.643775e-06	7.250650e-09	3.289793e+01	4.760536e+02
1.370000e-06	4.696432e-06	7.316859e-09	3.327097e+01	4.805361e+02
1.380000e-06	4.747114e-06	7.379114e-09	3.363002e+01	4.848065e+02
1.390000e-06	4.795742e-06	7.439491e-09	3.397451e+01	4.888584e+02
1.400000e-06	4.842583e-06	7.497176e-09	3.430634e+01	4.926881e+02
1.410000e-06	4.887853e-06	7.552638e-09	3.462705e+01	4.962948e+02
1.420000e-06	4.931549e-06	7.604464e-09	3.493661e+01	4.996812e+02
1.430000e-06	4.973463e-06	7.651560e-09	3.523354e+01	5.028529e+02
1.440000e-06	5.013503e-06	7.693892e-09	3.551720e+01	5.058176e+02
1.450000e-06	5.051836e-06	7.733817e-09	3.578876e+01	5.085838e+02
1.460000e-06	5.088553e-06	7.772015e-09	3.604888e+01	5.111600e+02
1.470000e-06	5.123552e-06	7.806998e-09	3.629682e+01	5.135543e+02
1.480000e-06	5.156625e-06	7.838617e-09	3.653111e+01	5.157739e+02
1.490000e-06	5.187795e-06	7.865287e-09	3.675193e+01	5.178259e+02
1.500000e-06	5.217273e-06	7.890579e-09	3.696076e+01	5.197167e+02
1.510000e-06	5.245077e-06	7.916264e-09	3.715774e+01	5.214531e+02
1.520000e-06	5.270903e-06	7.939811e-09	3.734070e+01	5.230417e+02
1.530000e-06	5.294643e-06	7.960417e-09	3.750888e+01	5.244888e+02
1.540000e-06	5.316520e-06	7.979279e-09	3.766386e+01	5.258000e+02
1.550000e-06	5.336665e-06	7.996899e-09	3.780658e+01	5.269796e+02
1.560000e-06	5.354991e-06	8.011928e-09	3.793640e+01	5.280302e+02
1.570000e-06	5.371318e-06	8.024239e-09	3.805207e+01	5.289531e+02
1.580000e-06	5.385613e-06	8.034659e-09	3.815333e+01	5.297483e+02
1.590000e-06	5.397846e-06	8.042815e-09	3.824000e+01	5.304154e+02
1.600000e-06	5.407867e-06	8.051069e-09	3.831099e+01	5.309547e+02
1.610000e-06	5.415806e-06	8.059865e-09	3.836724e+01	5.313680e+02
1.620000e-06	5.421906e-06	8.066466e-09	3.841045e+01	5.316589e+02
1.630000e-06	5.426197e-06	8.070753e-09	3.844085e+01	5.318333e+02
1.640000e-06	5.428566e-06	8.073607e-09	3.845763e+01	5.318980e+02
1.650000e-06	5.428901e-06	8.076610e-09	3.846000e+01	5.318603e+02
1.660000e-06	5.427381e-06	8.073222e-09	3.844923e+01	5.317262e+02
1.670000e-06	5.424221e-06	8.068968e-09	3.842685e+01	5.314997e+02
1.680000e-06	5.419384e-06	8.064755e-09	3.839258e+01	5.311816e+02
1.690000e-06	5.412637e-06	8.056550e-09	3.834478e+01	5.307699e+02
1.700000e-06	5.404062e-06	8.048245e-09	3.828403e+01	5.302607e+02
1.710000e-06	5.393891e-06	8.043343e-09	3.821198e+01	5.296496e+02
1.720000e-06	5.381996e-06	8.056359e-09	3.812772e+01	5.289335e+02
1.730000e-06	5.368132e-06	8.025035e-09	3.802950e+01	5.281122e+02
1.740000e-06	5.352209e-06	7.920891e-09	3.791669e+01	5.271896e+02
1.750000e-06	5.333883e-06	7.923538e-09	3.778687e+01	5.261737e+02
1.760000e-06	5.312789e-06	7.936639e-09	3.763743e+01	5.250758e+02
1.770000e-06	5.289433e-06	7.985687e-09	3.747197e+01	5.239084e+02
1.780000e-06	5.264876e-06	8.071483e-09	3.729800e+01	5.226831e+02
1.790000e-06	5.239618e-06	7.847447e-09	3.711906e+01	5.214080e+02
1.800000e-06	5.212871e-06	7.839548e-09	3.692958e+01	5.200859e+02
1.810000e-06	5.183819e-06	7.947995e-09	3.672376e+01	5.187134e+02
1.820000e-06	5.152959e-06	7.751034e-09	3.650515e+01	5.172809e+02
1.830000e-06	5.120453e-06	7.901044e-09	3.627486e+01	5.157744e+02
1.840000e-06	5.085979e-06	7.972658e-09	3.603064e+01	5.141775e+02
1.850000e-06	5.049898e-06	7.728109e-09	3.577503e+01	5.124744e+02
1.860000e-06	5.012052e-06	7.855922e-09	3.550692e+01	5.106521e+02
1.870000e-06	4.972336e-06	7.814708e-09	3.522555e+01	5.087024e+02
1.880000e-06	4.930911e-06	7.654694e-09	3.493209e+01	5.066227e+02
1.890000e-06	4.887673e-06	7.731367e-09	3.462578e+01	5.044152e+02
1.900000e-06	4.842846e-06	7.633899e-09	3.430821e+01	5.020861e+02
1.910000e-06	4.796200e-06	7.681401e-09	3.397775e+01	4.996433e+02
1.920000e-06	4.747474e-06	7.608635e-09	3.363257e+01	4.970942e+02
1.930000e-06	4.697099e-06	7.456481e-09	3.327569e+01	4.944441e+02
1.940000e-06	4.644924e-06	7.596995e-09	3.290607e+01	4.916955e+02
1.950000e-06	4.590630e-06	7.480121e-09	3.252143e+01	4.888474e+02
1.960000e-06	4.534464e-06	7.379810e-09	3.212354e+01	4.858968e+02
1.970000e-06	4.476611e-06	7.363000e-09	3.171369e+01	4.828394e+02
1.980000e-06	4.417348e-06	7.307129e-09	3.129385e+01	4.796712e+02
1.990000e-06	4.356544e-06	7.326121e-09	3.086309e+01	4.763897e+02
2.000000e-06	4.293952e-06	7.192565e-09	3.041968e+01	4.729947e+02
2.010000e-06	4.229796e-06	7.195530e-09	2.996518e+01	4.694878e+02
2.020000e-06	4.164197e-06	7.146873e-09	2.950045e+01	4.658720e+02
2.030000e-06	4.097148e-06	7.005038e-09	2.902546e+01	4.621505e+02
2.040000e-06	4.028594e-06	7.008014e-09	2.853980e+01	4.583252e+02
2.050000e-06	3.958474e-06	6.961535e-09	2.804305e+01	4.543960e+02
2.060000e-06	3.886889e-06	6.926610e-09	2.753592e+01	4.503604e+02
2.070000e-06	3.813996e-06	6.799514e-09	2.701952e+01	4.462132e+02
2.080000e-06	3.739794e-06	6.715154e-09	2.649385e+01	4.419479e+02
2.090000e-06	3.664155e-06	6.690798e-09	2.595800e+01	4.375576e+02
2.100000e-06	3.586970e-06	6.611077e-09	2.541120e+01	4.330361e+02
2.110000e-06	3.508248e-06	6.564011e-09	2.485351e+01	4.283793e+02
2.120000e-06	3.428264e-06	6.474155e-09	2.428688e+01	4.235857e+02
2.130000e-06	3.347183e-06	6.411615e-09	2.371247e+01	4.186562e+02
2.140000e-06	3.264968e-06	6.313356e-09	2.313003e+01	4.135934e+02
2.150000e-06	3.181712e-06	6.219033e-09	2.254023e+01	4.084011e+02
2.160000e-06	3.097452e-06	6.166162e-09	2.194330e+01	4.030822e+02
2.170000e-06	3.011953e-06	6.089703e-09	2.133760e+01	3.976385e+02
2.180000e-06	2.925048e-06	6.000529e-09	2.072194e+01	3.920695e+02
2.190000e-06	2.836995e-06	5.889858e-09	2.009815e+01	3.863726e+02
2.200000e-06	2.748053e-06	5.820140e-09	1.946805e+01	3.805428e+02
2.210000e-06	2.658223e-06	5.748116e-09	1.883167e+01	3.745744e+02
2.220000e-06	2.567456e-06	5.647723e-09	1.818865e+01	3.684613e+02
2.230000e-06	2.475840e-06	5.535971e-09	1.753961e+01	3.621979e+02
2.240000e-06	2.383456e-06	5.439109e-09	1.688513e+01	3.557802e+02
2.250000e-06	2.290219e-06	5.348808e-09	1.622462e+01	3.492058e+02
2.260000e-06	2.196022e-06	5.241853e-09	1.555730e+01	3.424735e+02
2.270000e-06	2.100827e-06	5.142402e-09	1.488290e+01	3.355830e+02
2.280000e-06	2.004825e-06	5.037769e-09	1.420280e+01	3.285343e+02
2.290000e-06	1.908148e-06	4.917353e-09	1.351791e+01	3.213266e+02
2.300000e-06	1.810854e-06	4.792030e-09	1.282864e+01	3.139580e+02
2.310000e-06	1.713068e-06	4.689052e-09	1.213590e+01	3.064252e+02
2.320000e-06	1.614747e-06	4.590610e-09	1.143937e+01	2.987234e+02
2.330000e-06	1.515907e-06	4.469094e-09	1.073915e+01	2.908471e+02
2.340000e-06	1.416636e-06	4.332372e-09	1.003588e+01	2.827901e+02
2.350000e-06	1.316887e-06	4.199434e-09	9.329234e+00	2.745464e+02
2.360000e-06	1.216718e-06	4.075191e-09	8.619608e+00	2.661106e+02
2.370000e-06	1.116250e-06	3.949823e-09	7.907856e+00	2.574776e+02
2.380000e-06	1.015455e-06	3.820351e-09	7.193793e+00	2.486433e+02
2.390000e-06	9.141870e-07	3.683564e-09	6.476381e+00	2.396037e+02
2.400000e-06	8.125105e-07	3.539218e-09	5.756074e+00	2.303545e+02
2.410000e-06	7.105350e-07	3.390689e-09	5.033648e+00	2.208913e+02
2.420000e-06	6.081777e-07	3.244691e-09	4.308518e+00	2.112085e+02
2.430000e-06	5.054872e-07	3.100268e-09	3.581027e+00	2.013001e+02
2.440000e-06	4.026328e-07	2.949901e-09	2.852375e+00	1.911598e+02
2.450000e-06	2.996904e-07	2.789116e-09	2.123099e+00	1.807813e+02
2.460000e-06	1.965470e-07	2.625652e-09	1.392400e+00	1.701589e+02
2.470000e-06	9.318051e-08	2.466568e-09	6.601194e-01	1.592881e+02
2.480000e-06	-1.021479e-08	2.303308e-09	-7.236473e-02	1.481658e+02
2.490000e-06	-1.134816e-07	2.128467e-09	-8.039382e-01	1.367898e+02
2.500000e-06	-2.166917e-07	1.946876e-09	-1.535111e+00	1.251585e+02
2.510000e-06	-3.199400e-07	1.766854e-09	-2.266553e+00	1.132700e+02
2.520000e-06	-4.230853e-07	1.585864e-09	-2.997266e+00	1.011209e+02
2.530000e-06	-5.260223e-07	1.398880e-09	-3.726504e+00	8.870552e+01
2.540000e-06	-6.287244e-07	1.207097e-09	-4.454077e+00	7.601544e+01
2.550000e-06	-7.310616e-07	1.008554e-09	-5.179065e+00	6.303938e+01
2.560000e-06	-8.329941e-07	7.983938e-10	-5.901186e+00	4.976414e+01
2.570000e-06	-9.345633e-07	5.827162e-10	-6.620734e+00	3.617613e+01
2.580000e-06	-1.035758e-06	3.697233e-10	-7.337625e+00	2.226356e+01
2.590000e-06	-1.136536e-06	1.557526e-10	-8.051571e+00	8.018942e+00
2.600000e-06	-1.236874e-06	-6.675160e-11	-8.762397e+00	-6.558301e+00
2.610000e-06	-1.336721e-06	-2.979644e-10	-9.469744e+00	-2.145967e+01
2.620000e-06	-1.436069e-06	-5.325574e-10	-1.017355e+01	-3.666609e+01
2.630000e-06	-1.534958e-06	-7.681544e-10	-1.087411e+01	-5.214731e+01
2.640000e-06	-1.633333e-06	-1.005297e-09	-1.157103e+01	-6.786230e+01
2.650000e-06	-1.731168e-06	-1.246703e-09	-1.226413e+01	-8.376064e+01
2.660000e-06	-1.828381e-06	-1.493325e-09	-1.295282e+01	-9.978453e+01
2.670000e-06	-1.924970e-06	-1.741964e-09	-1.363708e+01	-1.158713e+02
2.680000e-06	-2.021052e-06	-1.987363e-09	-1.431775e+01	-1.319559e+02
2.690000e-06	-2.116488e-06	-2.228456e-09	-1.499385e+01	-1.479733e+02
2.700000e-06	-2.211014e-06	-2.468174e-09	-1.566350e+01	-1.638606e+02
2.710000e-06	-2.304579e-06	-2.708871e-09	-1.632635e+01	-1.795582e+02
2.720000e-06	-2.397208e-06	-2.948485e-09	-1.698256e+01	-1.950111e+02
2.730000e-06	-2.488933e-06	-3.182887e-09	-1.763236e+01	-2.101696e+02
2.740000e-06	-2.579797e-06	-3.410582e-09	-1.827607e+01	-2.249898e+02
2.750000e-06	-2.669720e-06	-3.632308e-09	-1.891312e+01	-2.394343e+02
2.760000e-06	-2.758711e-06	-3.850009e-09	-1.954355e+01	-2.534724e+02
2.770000e-06	-2.846875e-06	-4.062166e-09	-2.016813e+01	-2.670806e+02
2.780000e-06	-2.934180e-06	-4.266252e-09	-2.078663e+01	-2.802432e+02
2.790000e-06	-3.020409e-06	-4.460338e-09	-2.139751e+01	-2.929518e+02
2.800000e-06	-3.105422e-06	-4.645083e-09	-2.199977e+01	-3.052049e+02
2.810000e-06	-3.189264e-06	-4.823419e-09	-2.259373e+01	-3.170065e+02
2.820000e-06	-3.272062e-06	-4.996929e-09	-2.318030e+01	-3.283648e+02
2.830000e-06	-3.353811e-06	-5.165485e-09	-2.375943e+01	-3.392895e+02
2.840000e-06	-3.434499e-06	-5.326420e-09	-2.433104e+01	-3.497905e+02
2.850000e-06	-3.514013e-06	-5.478489e-09	-2.489435e+01	-3.598758e+02
2.860000e-06	-3.592056e-06	-5.623974e-09	-2.544723e+01	-3.695506e+02
2.870000e-06	-3.668513e-06	-5.765707e-09	-2.598888e+01	-3.788174e+02
2.880000e-06	-3.743499e-06	-5.902661e-09	-2.652010e+01	-3.876767e+02
2.890000e-06	-3.817118e-06	-6.033677e-09	-2.704164e+01	-3.961289e+02
2.900000e-06	-3.889429e-06	-6.159019e-09	-2.755391e+01	-4.041766e+02
2.910000e-06	-3.960379e-06	-6.278793e-09	-2.805654e+01	-4.118263e+02
2.920000e-06	-4.029749e-06	-6.390900e-09	-2.854798e+01	-4.190902e+02
2.930000e-06	-4.097612e-06	-6.496383e-09	-2.902874e+01	-4.259868e+02
2.940000e-06	-4.164058e-06	-6.598814e-09	-2.949947e+01	-4.325402e+02
