# Temperatura_=_67.5
# Concentracion g/m^3_=_15000.0
# C_Vs_to_Am_M_A/Vsm_=_65563218390.804596
# pendiente_HvsI_1/m_=_3716.3
# ordenada_HvsI_A/m_=_1297.0
# frecuencia_Hz_=_301597.65813435835

Tiempo_(s)	Campo_(V.s)	Magnetizacion_(V.s)	Campo_(kA/m)	Magnetizacion_(A/m)
0.000000e+00	-5.429157e-06	-9.160187e-09	-3.833560e+01	-5.985100e+02
1.000000e-08	-5.426822e-06	-9.153991e-09	-3.831911e+01	-5.982064e+02
2.000000e-08	-5.422637e-06	-9.147647e-09	-3.828956e+01	-5.978044e+02
3.000000e-08	-5.416793e-06	-9.141620e-09	-3.824830e+01	-5.973115e+02
4.000000e-08	-5.409413e-06	-9.133650e-09	-3.819618e+01	-5.967272e+02
5.000000e-08	-5.400229e-06	-9.122793e-09	-3.813134e+01	-5.960420e+02
6.000000e-08	-5.388920e-06	-9.108323e-09	-3.805148e+01	-5.952407e+02
7.000000e-08	-5.375656e-06	-9.092429e-09	-3.795782e+01	-5.943069e+02
8.000000e-08	-5.360375e-06	-9.085505e-09	-3.784993e+01	-5.932284e+02
9.000000e-08	-5.342903e-06	-9.088998e-09	-3.772655e+01	-5.920023e+02
1.000000e-07	-5.323340e-06	-9.063935e-09	-3.758842e+01	-5.906383e+02
1.100000e-07	-5.301788e-06	-9.023650e-09	-3.743624e+01	-5.891583e+02
1.200000e-07	-5.278462e-06	-8.981550e-09	-3.727153e+01	-5.875936e+02
1.300000e-07	-5.253510e-06	-8.917387e-09	-3.709535e+01	-5.859785e+02
1.400000e-07	-5.226886e-06	-8.929319e-09	-3.690735e+01	-5.843430e+02
1.500000e-07	-5.198682e-06	-8.948641e-09	-3.670820e+01	-5.827058e+02
1.600000e-07	-5.169041e-06	-8.869111e-09	-3.649890e+01	-5.810683e+02
1.700000e-07	-5.137848e-06	-8.874366e-09	-3.627865e+01	-5.794133e+02
1.800000e-07	-5.104608e-06	-8.846671e-09	-3.604394e+01	-5.777067e+02
1.900000e-07	-5.069422e-06	-8.746513e-09	-3.579549e+01	-5.759031e+02
2.000000e-07	-5.032727e-06	-8.774372e-09	-3.553639e+01	-5.739537e+02
2.100000e-07	-4.994320e-06	-8.743837e-09	-3.526519e+01	-5.718151e+02
2.200000e-07	-4.954089e-06	-8.640054e-09	-3.498111e+01	-5.694572e+02
2.300000e-07	-4.911881e-06	-8.625331e-09	-3.468308e+01	-5.668676e+02
2.400000e-07	-4.867700e-06	-8.594013e-09	-3.437112e+01	-5.640528e+02
2.500000e-07	-4.821823e-06	-8.539953e-09	-3.404718e+01	-5.610359e+02
2.600000e-07	-4.774036e-06	-8.522610e-09	-3.370975e+01	-5.578502e+02
2.700000e-07	-4.724071e-06	-8.470227e-09	-3.335695e+01	-5.545323e+02
2.800000e-07	-4.672053e-06	-8.389243e-09	-3.298964e+01	-5.511141e+02
2.900000e-07	-4.618266e-06	-8.323376e-09	-3.260985e+01	-5.476176e+02
3.000000e-07	-4.562805e-06	-8.277377e-09	-3.221824e+01	-5.440516e+02
3.100000e-07	-4.505592e-06	-8.229087e-09	-3.181426e+01	-5.404117e+02
3.200000e-07	-4.446603e-06	-8.184552e-09	-3.139773e+01	-5.366833e+02
3.300000e-07	-4.385968e-06	-8.121629e-09	-3.096958e+01	-5.328466e+02
3.400000e-07	-4.323869e-06	-8.043470e-09	-3.053110e+01	-5.288814e+02
3.500000e-07	-4.260355e-06	-7.999646e-09	-3.008262e+01	-5.247724e+02
3.600000e-07	-4.195306e-06	-7.938990e-09	-2.962331e+01	-5.205110e+02
3.700000e-07	-4.128605e-06	-7.852492e-09	-2.915233e+01	-5.160971e+02
3.800000e-07	-4.060352e-06	-7.783172e-09	-2.867039e+01	-5.115366e+02
3.900000e-07	-3.990733e-06	-7.713326e-09	-2.817880e+01	-5.068390e+02
4.000000e-07	-3.919876e-06	-7.638223e-09	-2.767848e+01	-5.020140e+02
4.100000e-07	-3.847712e-06	-7.570508e-09	-2.716892e+01	-4.970682e+02
4.200000e-07	-3.774050e-06	-7.499643e-09	-2.664879e+01	-4.920035e+02
4.300000e-07	-3.698800e-06	-7.411214e-09	-2.611745e+01	-4.868164e+02
4.400000e-07	-3.621992e-06	-7.321206e-09	-2.557510e+01	-4.814993e+02
4.500000e-07	-3.543714e-06	-7.240959e-09	-2.502237e+01	-4.760427e+02
4.600000e-07	-3.464049e-06	-7.169245e-09	-2.445985e+01	-4.704371e+02
4.700000e-07	-3.383101e-06	-7.091333e-09	-2.388828e+01	-4.646758e+02
4.800000e-07	-3.301014e-06	-6.992626e-09	-2.330865e+01	-4.587556e+02
4.900000e-07	-3.217836e-06	-6.892429e-09	-2.272133e+01	-4.526772e+02
5.000000e-07	-3.133585e-06	-6.795784e-09	-2.212643e+01	-4.464439e+02
5.100000e-07	-3.048288e-06	-6.691856e-09	-2.152414e+01	-4.400606e+02
5.200000e-07	-2.962058e-06	-6.589611e-09	-2.091527e+01	-4.335314e+02
5.300000e-07	-2.874864e-06	-6.494991e-09	-2.029959e+01	-4.268584e+02
5.400000e-07	-2.786580e-06	-6.393379e-09	-1.967621e+01	-4.200408e+02
5.500000e-07	-2.697243e-06	-6.283248e-09	-1.904539e+01	-4.130748e+02
5.600000e-07	-2.606844e-06	-6.174129e-09	-1.840708e+01	-4.059542e+02
5.700000e-07	-2.515407e-06	-6.067893e-09	-1.776144e+01	-3.986718e+02
5.800000e-07	-2.423033e-06	-5.952962e-09	-1.710918e+01	-3.912206e+02
5.900000e-07	-2.329866e-06	-5.830381e-09	-1.645132e+01	-3.835952e+02
6.000000e-07	-2.235946e-06	-5.710769e-09	-1.578815e+01	-3.757920e+02
6.100000e-07	-2.141310e-06	-5.591646e-09	-1.511991e+01	-3.678096e+02
6.200000e-07	-2.045866e-06	-5.468270e-09	-1.444598e+01	-3.596483e+02
6.300000e-07	-1.949539e-06	-5.337634e-09	-1.376581e+01	-3.513087e+02
6.400000e-07	-1.852400e-06	-5.205505e-09	-1.307991e+01	-3.427915e+02
6.500000e-07	-1.754546e-06	-5.073227e-09	-1.238895e+01	-3.340957e+02
6.600000e-07	-1.656045e-06	-4.936489e-09	-1.169343e+01	-3.252185e+02
6.700000e-07	-1.556909e-06	-4.800036e-09	-1.099342e+01	-3.161549e+02
6.800000e-07	-1.457216e-06	-4.663269e-09	-1.028949e+01	-3.068978e+02
6.900000e-07	-1.357021e-06	-4.518057e-09	-9.582008e+00	-2.974392e+02
7.000000e-07	-1.256420e-06	-4.366836e-09	-8.871656e+00	-2.877705e+02
7.100000e-07	-1.155482e-06	-4.213007e-09	-8.158930e+00	-2.778838e+02
7.200000e-07	-1.054189e-06	-4.055668e-09	-7.443690e+00	-2.677726e+02
7.300000e-07	-9.525340e-07	-3.895410e-09	-6.725899e+00	-2.574324e+02
7.400000e-07	-8.505737e-07	-3.733423e-09	-6.005951e+00	-2.468609e+02
7.500000e-07	-7.483462e-07	-3.569106e-09	-5.284117e+00	-2.360579e+02
7.600000e-07	-6.458214e-07	-3.398855e-09	-4.560183e+00	-2.250242e+02
7.700000e-07	-5.430876e-07	-3.224626e-09	-3.834773e+00	-2.137611e+02
7.800000e-07	-4.402499e-07	-3.048346e-09	-3.108631e+00	-2.022688e+02
7.900000e-07	-3.373416e-07	-2.869362e-09	-2.381989e+00	-1.905457e+02
8.000000e-07	-2.343472e-07	-2.686937e-09	-1.654740e+00	-1.785870e+02
8.100000e-07	-1.312793e-07	-2.499901e-09	-9.269707e-01	-1.663848e+02
8.200000e-07	-2.815951e-08	-2.309586e-09	-1.988360e-01	-1.539277e+02
8.300000e-07	7.500295e-08	-2.116503e-09	5.296003e-01	-1.412019e+02
8.400000e-07	1.781921e-07	-1.919386e-09	1.258225e+00	-1.281923e+02
8.500000e-07	2.813246e-07	-1.716829e-09	1.986450e+00	-1.148832e+02
8.600000e-07	3.843602e-07	-1.511506e-09	2.713990e+00	-1.012604e+02
8.700000e-07	4.873557e-07	-1.301186e-09	3.441247e+00	-8.731124e+01
8.800000e-07	5.902153e-07	-1.082396e-09	4.167545e+00	-7.302555e+01
8.900000e-07	6.928919e-07	-8.568209e-10	4.892551e+00	-5.839530e+01
9.000000e-07	7.954017e-07	-6.261699e-10	5.616379e+00	-4.341423e+01
9.100000e-07	8.976814e-07	-3.913742e-10	6.338582e+00	-2.807738e+01
9.200000e-07	9.997123e-07	-1.519166e-10	7.059028e+00	-1.238111e+01
9.300000e-07	1.101370e-06	9.234039e-11	7.776838e+00	3.676191e+00
9.400000e-07	1.202569e-06	3.422541e-10	8.491413e+00	2.009243e+01
9.500000e-07	1.303370e-06	5.968556e-10	9.203175e+00	3.685926e+01
9.600000e-07	1.403729e-06	8.548594e-10	9.911811e+00	5.395902e+01
9.700000e-07	1.503602e-06	1.116963e-09	1.061702e+01	7.136173e+01
9.800000e-07	1.603003e-06	1.384624e-09	1.131890e+01	8.902291e+01
9.900000e-07	1.701839e-06	1.656294e-09	1.201679e+01	1.068828e+02
1.000000e-06	1.799942e-06	1.928220e-09	1.270949e+01	1.248676e+02
1.010000e-06	1.897211e-06	2.199002e-09	1.339632e+01	1.428927e+02
1.020000e-06	1.993585e-06	2.470191e-09	1.407682e+01	1.608674e+02
1.030000e-06	2.089109e-06	2.742458e-09	1.475132e+01	1.787009e+02
1.040000e-06	2.183908e-06	3.012452e-09	1.542070e+01	1.963084e+02
1.050000e-06	2.277993e-06	3.275313e-09	1.608505e+01	2.136157e+02
1.060000e-06	2.371303e-06	3.529132e-09	1.674391e+01	2.305626e+02
1.070000e-06	2.463847e-06	3.777227e-09	1.739737e+01	2.471041e+02
1.080000e-06	2.555645e-06	4.022051e-09	1.804556e+01	2.632089e+02
1.090000e-06	2.646645e-06	4.261869e-09	1.868812e+01	2.788572e+02
1.100000e-06	2.736622e-06	4.495183e-09	1.932345e+01	2.940368e+02
1.110000e-06	2.825354e-06	4.719042e-09	1.994999e+01	3.087396e+02
1.120000e-06	2.912984e-06	4.934000e-09	2.056875e+01	3.229598e+02
1.130000e-06	2.999716e-06	5.141980e-09	2.118117e+01	3.366922e+02
1.140000e-06	3.085495e-06	5.344102e-09	2.178686e+01	3.499328e+02
1.150000e-06	3.170263e-06	5.537247e-09	2.238542e+01	3.626803e+02
1.160000e-06	3.254074e-06	5.721335e-09	2.297721e+01	3.749377e+02
1.170000e-06	3.336935e-06	5.899045e-09	2.356230e+01	3.867133e+02
1.180000e-06	3.418533e-06	6.071413e-09	2.413847e+01	3.980214e+02
1.190000e-06	3.498703e-06	6.239278e-09	2.470455e+01	4.088804e+02
1.200000e-06	3.577603e-06	6.400436e-09	2.526167e+01	4.193104e+02
1.210000e-06	3.655263e-06	6.554852e-09	2.581003e+01	4.293306e+02
1.220000e-06	3.731665e-06	6.701163e-09	2.634951e+01	4.389558e+02
1.230000e-06	3.806753e-06	6.841307e-09	2.687971e+01	4.481949e+02
1.240000e-06	3.880236e-06	6.975204e-09	2.739858e+01	4.570505e+02
1.250000e-06	3.952068e-06	7.101254e-09	2.790579e+01	4.655210e+02
1.260000e-06	4.022478e-06	7.219014e-09	2.840296e+01	4.736033e+02
1.270000e-06	4.091502e-06	7.330851e-09	2.889034e+01	4.812973e+02
1.280000e-06	4.159186e-06	7.440703e-09	2.936826e+01	4.886090e+02
1.290000e-06	4.225345e-06	7.547377e-09	2.983541e+01	4.955533e+02
1.300000e-06	4.289708e-06	7.650651e-09	3.028989e+01	5.021540e+02
1.310000e-06	4.352490e-06	7.747383e-09	3.073319e+01	5.084420e+02
1.320000e-06	4.413885e-06	7.837984e-09	3.116671e+01	5.144517e+02
1.330000e-06	4.473907e-06	7.926741e-09	3.159052e+01	5.202162e+02
1.340000e-06	4.532451e-06	8.012579e-09	3.200390e+01	5.257624e+02
1.350000e-06	4.589165e-06	8.093312e-09	3.240436e+01	5.311078e+02
1.360000e-06	4.644098e-06	8.167931e-09	3.279225e+01	5.362593e+02
1.370000e-06	4.697432e-06	8.240597e-09	3.316884e+01	5.412140e+02
1.380000e-06	4.748940e-06	8.313772e-09	3.353255e+01	5.459622e+02
1.390000e-06	4.798398e-06	8.386413e-09	3.388177e+01	5.504918e+02
1.400000e-06	4.845920e-06	8.455239e-09	3.421733e+01	5.547923e+02
1.410000e-06	4.891752e-06	8.517622e-09	3.454095e+01	5.588587e+02
1.420000e-06	4.936013e-06	8.573085e-09	3.485348e+01	5.626926e+02
1.430000e-06	4.978633e-06	8.625099e-09	3.515442e+01	5.663020e+02
1.440000e-06	5.019356e-06	8.677586e-09	3.544197e+01	5.696989e+02
1.450000e-06	5.058239e-06	8.727662e-09	3.571653e+01	5.728962e+02
1.460000e-06	5.095463e-06	8.771225e-09	3.597937e+01	5.759048e+02
1.470000e-06	5.131037e-06	8.809859e-09	3.623055e+01	5.787305e+02
1.480000e-06	5.164728e-06	8.847413e-09	3.646845e+01	5.813744e+02
1.490000e-06	5.196452e-06	8.884244e-09	3.669246e+01	5.838331e+02
1.500000e-06	5.226443e-06	8.919022e-09	3.690422e+01	5.861015e+02
1.510000e-06	5.254783e-06	8.950400e-09	3.710434e+01	5.881760e+02
1.520000e-06	5.281304e-06	8.977258e-09	3.729160e+01	5.900566e+02
1.530000e-06	5.305720e-06	8.999397e-09	3.746401e+01	5.917488e+02
1.540000e-06	5.328144e-06	9.019423e-09	3.762234e+01	5.932632e+02
1.550000e-06	5.348792e-06	9.038312e-09	3.776814e+01	5.946133e+02
1.560000e-06	5.367658e-06	9.055385e-09	3.790135e+01	5.958130e+02
1.570000e-06	5.384564e-06	9.070724e-09	3.802072e+01	5.968735e+02
1.580000e-06	5.399407e-06	9.084584e-09	3.812553e+01	5.978004e+02
1.590000e-06	5.412270e-06	9.098034e-09	3.821636e+01	5.985935e+02
1.600000e-06	5.422980e-06	9.109973e-09	3.829199e+01	5.992476e+02
1.610000e-06	5.431506e-06	9.119466e-09	3.835218e+01	5.997552e+02
1.620000e-06	5.438104e-06	9.125359e-09	3.839878e+01	6.001097e+02
1.630000e-06	5.442905e-06	9.129442e-09	3.843268e+01	6.003091e+02
1.640000e-06	5.445866e-06	9.131935e-09	3.845358e+01	6.003574e+02
1.650000e-06	5.446775e-06	9.131929e-09	3.846000e+01	6.002653e+02
1.660000e-06	5.445716e-06	9.129780e-09	3.845252e+01	6.000481e+02
1.670000e-06	5.442950e-06	9.124926e-09	3.843300e+01	5.997218e+02
1.680000e-06	5.438522e-06	9.119338e-09	3.840173e+01	5.992994e+02
1.690000e-06	5.432252e-06	9.111184e-09	3.835746e+01	5.987868e+02
1.700000e-06	5.424111e-06	9.102087e-09	3.829997e+01	5.981813e+02
1.710000e-06	5.414329e-06	9.093835e-09	3.823090e+01	5.974720e+02
1.720000e-06	5.402903e-06	9.086159e-09	3.815022e+01	5.966431e+02
1.730000e-06	5.389570e-06	9.067760e-09	3.805607e+01	5.956785e+02
1.740000e-06	5.374199e-06	9.021075e-09	3.794754e+01	5.945676e+02
1.750000e-06	5.356516e-06	8.994672e-09	3.782268e+01	5.933102e+02
1.760000e-06	5.336135e-06	8.985878e-09	3.767876e+01	5.919185e+02
1.770000e-06	5.313299e-06	8.984632e-09	3.751752e+01	5.904170e+02
1.780000e-06	5.288935e-06	9.009440e-09	3.734548e+01	5.888380e+02
1.790000e-06	5.263832e-06	8.942554e-09	3.716823e+01	5.872158e+02
1.800000e-06	5.237505e-06	8.880404e-09	3.698233e+01	5.855783e+02
1.810000e-06	5.208978e-06	8.904907e-09	3.678091e+01	5.839409e+02
1.820000e-06	5.178467e-06	8.858234e-09	3.656546e+01	5.823012e+02
1.830000e-06	5.146371e-06	8.850174e-09	3.633883e+01	5.806380e+02
1.840000e-06	5.112340e-06	8.858124e-09	3.609853e+01	5.789141e+02
1.850000e-06	5.076557e-06	8.777417e-09	3.584587e+01	5.770827e+02
1.860000e-06	5.039093e-06	8.779972e-09	3.558134e+01	5.750955e+02
1.870000e-06	4.999705e-06	8.775908e-09	3.530321e+01	5.729114e+02
1.880000e-06	4.958608e-06	8.686160e-09	3.501303e+01	5.705036e+02
1.890000e-06	4.915708e-06	8.673884e-09	3.471010e+01	5.678640e+02
1.900000e-06	4.871090e-06	8.625912e-09	3.439506e+01	5.650029e+02
1.910000e-06	4.824727e-06	8.544039e-09	3.406768e+01	5.619463e+02
1.920000e-06	4.776290e-06	8.512887e-09	3.372567e+01	5.587286e+02
1.930000e-06	4.726139e-06	8.462563e-09	3.337154e+01	5.553862e+02
1.940000e-06	4.674315e-06	8.446518e-09	3.300561e+01	5.519493e+02
1.950000e-06	4.620467e-06	8.391359e-09	3.262540e+01	5.484371e+02
1.960000e-06	4.564640e-06	8.298292e-09	3.223119e+01	5.448554e+02
1.970000e-06	4.507034e-06	8.233534e-09	3.182444e+01	5.411975e+02
1.980000e-06	4.447942e-06	8.179099e-09	3.140719e+01	5.374471e+02
1.990000e-06	4.387347e-06	8.142081e-09	3.097932e+01	5.335838e+02
2.000000e-06	4.325045e-06	8.064927e-09	3.053940e+01	5.295884e+02
2.010000e-06	4.261148e-06	8.009516e-09	3.008822e+01	5.254465e+02
2.020000e-06	4.195744e-06	7.969974e-09	2.962639e+01	5.211517e+02
2.030000e-06	4.128902e-06	7.872913e-09	2.915442e+01	5.167051e+02
2.040000e-06	4.060539e-06	7.809883e-09	2.867171e+01	5.121138e+02
2.050000e-06	3.990576e-06	7.748389e-09	2.817769e+01	5.073876e+02
2.060000e-06	3.919190e-06	7.658448e-09	2.767363e+01	5.025358e+02
2.070000e-06	3.846430e-06	7.574052e-09	2.715987e+01	4.975640e+02
2.080000e-06	3.772303e-06	7.497615e-09	2.663646e+01	4.924729e+02
2.090000e-06	3.696787e-06	7.444376e-09	2.610323e+01	4.872581e+02
2.100000e-06	3.619770e-06	7.363508e-09	2.555941e+01	4.819114e+02
2.110000e-06	3.541236e-06	7.259255e-09	2.500488e+01	4.764230e+02
2.120000e-06	3.461388e-06	7.170784e-09	2.444107e+01	4.707840e+02
2.130000e-06	3.380355e-06	7.088530e-09	2.386889e+01	4.649882e+02
2.140000e-06	3.298189e-06	6.997601e-09	2.328871e+01	4.590334e+02
2.150000e-06	3.214983e-06	6.906443e-09	2.270118e+01	4.529208e+02
2.160000e-06	3.130636e-06	6.824152e-09	2.210561e+01	4.466544e+02
2.170000e-06	3.045059e-06	6.724471e-09	2.150134e+01	4.402390e+02
2.180000e-06	2.958262e-06	6.608994e-09	2.088847e+01	4.336783e+02
2.190000e-06	2.870312e-06	6.504807e-09	2.026745e+01	4.269740e+02
2.200000e-06	2.781398e-06	6.413705e-09	1.963962e+01	4.201244e+02
2.210000e-06	2.691538e-06	6.313171e-09	1.900511e+01	4.131253e+02
2.220000e-06	2.600692e-06	6.198548e-09	1.836364e+01	4.059700e+02
2.230000e-06	2.509013e-06	6.089097e-09	1.771629e+01	3.986514e+02
2.240000e-06	2.416473e-06	5.979005e-09	1.706286e+01	3.911628e+02
2.250000e-06	2.322967e-06	5.858539e-09	1.640261e+01	3.834989e+02
2.260000e-06	2.228620e-06	5.732811e-09	1.573642e+01	3.756568e+02
2.270000e-06	2.133463e-06	5.609185e-09	1.506451e+01	3.676354e+02
2.280000e-06	2.037412e-06	5.487859e-09	1.438628e+01	3.594353e+02
2.290000e-06	1.940562e-06	5.361701e-09	1.370242e+01	3.510571e+02
2.300000e-06	1.843102e-06	5.235399e-09	1.301425e+01	3.425012e+02
2.310000e-06	1.745112e-06	5.109105e-09	1.232234e+01	3.337663e+02
2.320000e-06	1.646565e-06	4.972300e-09	1.162649e+01	3.248490e+02
2.330000e-06	1.547547e-06	4.825652e-09	1.092732e+01	3.157440e+02
2.340000e-06	1.448116e-06	4.681357e-09	1.022523e+01	3.064439e+02
2.350000e-06	1.348244e-06	4.538480e-09	9.520031e+00	2.969405e+02
2.360000e-06	1.247965e-06	4.393703e-09	8.811958e+00	2.872251e+02
2.370000e-06	1.147270e-06	4.245021e-09	8.100944e+00	2.772902e+02
2.380000e-06	1.046113e-06	4.088975e-09	7.386667e+00	2.671296e+02
2.390000e-06	9.445033e-07	3.930242e-09	6.669194e+00	2.567394e+02
2.400000e-06	8.425080e-07	3.770999e-09	5.948999e+00	2.461177e+02
2.410000e-06	7.401743e-07	3.610970e-09	5.226415e+00	2.352646e+02
2.420000e-06	6.375576e-07	3.445182e-09	4.501832e+00	2.241811e+02
2.430000e-06	5.347140e-07	3.271391e-09	3.775647e+00	2.128683e+02
2.440000e-06	4.316985e-07	3.095063e-09	3.048248e+00	2.013263e+02
2.450000e-06	3.285264e-07	2.916169e-09	2.319744e+00	1.895526e+02
2.460000e-06	2.251576e-07	2.732082e-09	1.589851e+00	1.775420e+02
2.470000e-06	1.216125e-07	2.545462e-09	8.587133e-01	1.652856e+02
2.480000e-06	1.800820e-08	2.353415e-09	1.271570e-01	1.527716e+02
2.490000e-06	-8.554319e-08	2.156049e-09	-6.040256e-01	1.399858e+02
2.500000e-06	-1.890670e-07	1.957596e-09	-1.335013e+00	1.269127e+02
2.510000e-06	-2.925697e-07	1.756994e-09	-2.065852e+00	1.135370e+02
2.520000e-06	-3.960109e-07	1.551030e-09	-2.796256e+00	9.984461e+01
2.530000e-06	-4.993238e-07	1.335878e-09	-3.525755e+00	8.582355e+01
2.540000e-06	-6.024210e-07	1.116357e-09	-4.253731e+00	7.146407e+01
2.550000e-06	-7.053140e-07	8.939994e-10	-4.980264e+00	5.675856e+01
2.560000e-06	-8.079091e-07	6.620028e-10	-5.704694e+00	4.170106e+01
2.570000e-06	-9.100172e-07	4.224123e-10	-6.425686e+00	2.628688e+01
2.580000e-06	-1.011649e-06	1.805680e-10	-7.143311e+00	1.051272e+01
2.590000e-06	-1.112871e-06	-6.497383e-11	-7.858047e+00	-5.622416e+00
2.600000e-06	-1.213603e-06	-3.158101e-10	-8.569324e+00	-2.211532e+01
2.610000e-06	-1.313804e-06	-5.697383e-10	-9.276849e+00	-3.895593e+01
2.620000e-06	-1.413521e-06	-8.287482e-10	-9.980958e+00	-5.612416e+01
2.630000e-06	-1.512859e-06	-1.095634e-09	-1.068239e+01	-7.358709e+01
2.640000e-06	-1.611797e-06	-1.369522e-09	-1.138099e+01	-9.129696e+01
2.650000e-06	-1.710124e-06	-1.647971e-09	-1.207529e+01	-1.091908e+02
2.660000e-06	-1.807768e-06	-1.927356e-09	-1.276476e+01	-1.271923e+02
2.670000e-06	-1.904802e-06	-2.205960e-09	-1.344992e+01	-1.452148e+02
2.680000e-06	-2.001264e-06	-2.481577e-09	-1.413104e+01	-1.631674e+02
2.690000e-06	-2.097172e-06	-2.752796e-09	-1.480826e+01	-1.809599e+02
2.700000e-06	-2.192448e-06	-3.019783e-09	-1.548101e+01	-1.985094e+02
2.710000e-06	-2.286786e-06	-3.282559e-09	-1.614713e+01	-2.157446e+02
2.720000e-06	-2.379964e-06	-3.539336e-09	-1.680507e+01	-2.326085e+02
2.730000e-06	-2.472126e-06	-3.789962e-09	-1.745583e+01	-2.490591e+02
2.740000e-06	-2.563473e-06	-4.035636e-09	-1.810084e+01	-2.650681e+02
2.750000e-06	-2.653949e-06	-4.275104e-09	-1.873969e+01	-2.806173e+02
2.760000e-06	-2.743454e-06	-4.508415e-09	-1.937169e+01	-2.956959e+02
2.770000e-06	-2.832081e-06	-4.735403e-09	-1.999749e+01	-3.102964e+02
2.780000e-06	-2.919942e-06	-4.953474e-09	-2.061789e+01	-3.244130e+02
2.790000e-06	-3.006831e-06	-5.161700e-09	-2.123141e+01	-3.380408e+02
2.800000e-06	-3.092398e-06	-5.360991e-09	-2.183561e+01	-3.511763e+02
2.810000e-06	-3.176757e-06	-5.551973e-09	-2.243127e+01	-3.638190e+02
2.820000e-06	-3.260120e-06	-5.734600e-09	-2.301990e+01	-3.759727e+02
2.830000e-06	-3.342401e-06	-5.911593e-09	-2.360089e+01	-3.876474e+02
2.840000e-06	-3.423589e-06	-6.083354e-09	-2.417416e+01	-3.988582e+02
2.850000e-06	-3.503702e-06	-6.249195e-09	-2.473985e+01	-4.096240e+02
2.860000e-06	-3.582490e-06	-6.408146e-09	-2.529617e+01	-4.199653e+02
2.870000e-06	-3.659653e-06	-6.560678e-09	-2.584103e+01	-4.299004e+02
2.880000e-06	-3.735270e-06	-6.707598e-09	-2.637497e+01	-4.394429e+02
2.890000e-06	-3.809488e-06	-6.847246e-09	-2.689902e+01	-4.486003e+02
2.900000e-06	-3.882329e-06	-6.982120e-09	-2.741336e+01	-4.573742e+02
2.910000e-06	-3.953893e-06	-7.112188e-09	-2.791868e+01	-4.657623e+02
2.920000e-06	-4.023920e-06	-7.234713e-09	-2.841314e+01	-4.737619e+02
2.930000e-06	-4.092330e-06	-7.351423e-09	-2.889618e+01	-4.813737e+02
2.940000e-06	-4.159387e-06	-7.464226e-09	-2.936968e+01	-4.886057e+02
