# Temperatura_=_53.66
# Concentracion g/m^3_=_15000.0
# C_Vs_to_Am_M_A/Vsm_=_65563218390.804596
# pendiente_HvsI_1/m_=_3716.3
# ordenada_HvsI_A/m_=_1297.0
# frecuencia_Hz_=_301595.34291473223

Tiempo_(s)	Campo_(V.s)	Magnetizacion_(V.s)	Campo_(kA/m)	Magnetizacion_(A/m)
0.000000e+00	-5.406624e-06	-8.606708e-09	-3.833837e+01	-5.614175e+02
1.000000e-08	-5.404125e-06	-8.602893e-09	-3.832065e+01	-5.611486e+02
2.000000e-08	-5.399767e-06	-8.596723e-09	-3.828975e+01	-5.607984e+02
3.000000e-08	-5.393722e-06	-8.589430e-09	-3.824688e+01	-5.603680e+02
4.000000e-08	-5.386106e-06	-8.578277e-09	-3.819287e+01	-5.598504e+02
5.000000e-08	-5.376695e-06	-8.564898e-09	-3.812614e+01	-5.592327e+02
6.000000e-08	-5.365208e-06	-8.550794e-09	-3.804469e+01	-5.584987e+02
7.000000e-08	-5.351840e-06	-8.531410e-09	-3.794989e+01	-5.576346e+02
8.000000e-08	-5.336393e-06	-8.536602e-09	-3.784036e+01	-5.566335e+02
9.000000e-08	-5.318679e-06	-8.557758e-09	-3.771475e+01	-5.554989e+02
1.000000e-07	-5.298938e-06	-8.524304e-09	-3.757477e+01	-5.542462e+02
1.100000e-07	-5.277292e-06	-8.480761e-09	-3.742128e+01	-5.529012e+02
1.200000e-07	-5.253909e-06	-8.428120e-09	-3.725547e+01	-5.514960e+02
1.300000e-07	-5.228948e-06	-8.340752e-09	-3.707847e+01	-5.500625e+02
1.400000e-07	-5.202347e-06	-8.414103e-09	-3.688984e+01	-5.486259e+02
1.500000e-07	-5.174146e-06	-8.431439e-09	-3.668987e+01	-5.471982e+02
1.600000e-07	-5.144492e-06	-8.308546e-09	-3.647959e+01	-5.457751e+02
1.700000e-07	-5.113242e-06	-8.357252e-09	-3.625800e+01	-5.443349e+02
1.800000e-07	-5.079862e-06	-8.292228e-09	-3.602130e+01	-5.428420e+02
1.900000e-07	-5.044594e-06	-8.177656e-09	-3.577122e+01	-5.412521e+02
2.000000e-07	-5.007912e-06	-8.270009e-09	-3.551110e+01	-5.395202e+02
2.100000e-07	-4.969502e-06	-8.228765e-09	-3.523874e+01	-5.376083e+02
2.200000e-07	-4.929227e-06	-8.138259e-09	-3.495315e+01	-5.354916e+02
2.300000e-07	-4.887006e-06	-8.152961e-09	-3.465376e+01	-5.331619e+02
2.400000e-07	-4.842832e-06	-8.094416e-09	-3.434052e+01	-5.306282e+02
2.500000e-07	-4.796880e-06	-8.040003e-09	-3.401467e+01	-5.279133e+02
2.600000e-07	-4.749058e-06	-7.990475e-09	-3.367557e+01	-5.250483e+02
2.700000e-07	-4.699123e-06	-7.949291e-09	-3.332148e+01	-5.220659e+02
2.800000e-07	-4.647090e-06	-7.925371e-09	-3.295251e+01	-5.189939e+02
2.900000e-07	-4.593217e-06	-7.851223e-09	-3.257050e+01	-5.158500e+02
3.000000e-07	-4.537739e-06	-7.804797e-09	-3.217711e+01	-5.126400e+02
3.100000e-07	-4.480601e-06	-7.778566e-09	-3.177194e+01	-5.093580e+02
3.200000e-07	-4.421607e-06	-7.726263e-09	-3.135362e+01	-5.059890e+02
3.300000e-07	-4.360956e-06	-7.652801e-09	-3.092354e+01	-5.025139e+02
3.400000e-07	-4.298857e-06	-7.591352e-09	-3.048320e+01	-4.989138e+02
3.500000e-07	-4.235461e-06	-7.557528e-09	-3.003365e+01	-4.951747e+02
3.600000e-07	-4.170633e-06	-7.488372e-09	-2.957396e+01	-4.912898e+02
3.700000e-07	-4.104022e-06	-7.418302e-09	-2.910162e+01	-4.872599e+02
3.800000e-07	-4.035770e-06	-7.369680e-09	-2.861765e+01	-4.830923e+02
3.900000e-07	-3.966174e-06	-7.295313e-09	-2.812414e+01	-4.787980e+02
4.000000e-07	-3.895345e-06	-7.217097e-09	-2.762189e+01	-4.743881e+02
4.100000e-07	-3.823300e-06	-7.151223e-09	-2.711102e+01	-4.698706e+02
4.200000e-07	-3.749837e-06	-7.101746e-09	-2.659009e+01	-4.652487e+02
4.300000e-07	-3.674734e-06	-7.026186e-09	-2.605754e+01	-4.605196e+02
4.400000e-07	-3.598081e-06	-6.935812e-09	-2.551399e+01	-4.556751e+02
4.500000e-07	-3.520009e-06	-6.858025e-09	-2.496038e+01	-4.507041e+02
4.600000e-07	-3.440424e-06	-6.781447e-09	-2.439604e+01	-4.455944e+02
4.700000e-07	-3.359587e-06	-6.702112e-09	-2.382283e+01	-4.403356e+02
4.800000e-07	-3.277659e-06	-6.619707e-09	-2.324188e+01	-4.349207e+02
4.900000e-07	-3.194554e-06	-6.543998e-09	-2.265258e+01	-4.293474e+02
5.000000e-07	-3.110486e-06	-6.454590e-09	-2.205645e+01	-4.236176e+02
5.100000e-07	-3.025495e-06	-6.355507e-09	-2.145378e+01	-4.177364e+02
5.200000e-07	-2.939489e-06	-6.261210e-09	-2.084391e+01	-4.117107e+02
5.300000e-07	-2.852502e-06	-6.169735e-09	-2.022709e+01	-4.055468e+02
5.400000e-07	-2.764661e-06	-6.074424e-09	-1.960421e+01	-3.992491e+02
5.500000e-07	-2.675778e-06	-5.971233e-09	-1.897394e+01	-3.928187e+02
5.600000e-07	-2.585558e-06	-5.866527e-09	-1.833419e+01	-3.862534e+02
5.700000e-07	-2.494272e-06	-5.766399e-09	-1.768689e+01	-3.795476e+02
5.800000e-07	-2.402242e-06	-5.665970e-09	-1.703430e+01	-3.726937e+02
5.900000e-07	-2.309388e-06	-5.560264e-09	-1.637587e+01	-3.656829e+02
6.000000e-07	-2.215692e-06	-5.448572e-09	-1.571147e+01	-3.585067e+02
6.100000e-07	-2.121236e-06	-5.332848e-09	-1.504168e+01	-3.511578e+02
6.200000e-07	-2.026043e-06	-5.218767e-09	-1.436667e+01	-3.436309e+02
6.300000e-07	-1.930232e-06	-5.101084e-09	-1.368727e+01	-3.359227e+02
6.400000e-07	-1.833694e-06	-4.978388e-09	-1.300272e+01	-3.280319e+02
6.500000e-07	-1.736208e-06	-4.852253e-09	-1.231145e+01	-3.199581e+02
6.600000e-07	-1.637847e-06	-4.720798e-09	-1.161397e+01	-3.117014e+02
6.700000e-07	-1.538853e-06	-4.588913e-09	-1.091201e+01	-3.032613e+02
6.800000e-07	-1.439410e-06	-4.460430e-09	-1.020685e+01	-2.946362e+02
6.900000e-07	-1.339623e-06	-4.330378e-09	-9.499269e+00	-2.858227e+02
7.000000e-07	-1.239503e-06	-4.193102e-09	-8.789314e+00	-2.768159e+02
7.100000e-07	-1.138994e-06	-4.050728e-09	-8.076609e+00	-2.676094e+02
7.200000e-07	-1.038112e-06	-3.904003e-09	-7.361252e+00	-2.581964e+02
7.300000e-07	-9.368934e-07	-3.754484e-09	-6.643511e+00	-2.485697e+02
7.400000e-07	-8.353235e-07	-3.601367e-09	-5.923278e+00	-2.387232e+02
7.500000e-07	-7.334349e-07	-3.444100e-09	-5.200786e+00	-2.286520e+02
7.600000e-07	-6.313064e-07	-3.283401e-09	-4.476594e+00	-2.183529e+02
7.700000e-07	-5.289184e-07	-3.119550e-09	-3.750560e+00	-2.078239e+02
7.800000e-07	-4.263383e-07	-2.957000e-09	-3.023164e+00	-1.970640e+02
7.900000e-07	-3.236746e-07	-2.793439e-09	-2.295176e+00	-1.860722e+02
8.000000e-07	-2.209236e-07	-2.622827e-09	-1.566569e+00	-1.748467e+02
8.100000e-07	-1.181136e-07	-2.443929e-09	-8.375437e-01	-1.633836e+02
8.200000e-07	-1.527733e-08	-2.259958e-09	-1.083315e-01	-1.516768e+02
8.300000e-07	8.762132e-08	-2.074927e-09	6.213227e-01	-1.397170e+02
8.400000e-07	1.905368e-07	-1.888468e-09	1.351096e+00	-1.274928e+02
8.500000e-07	2.933702e-07	-1.697893e-09	2.080288e+00	-1.149905e+02
8.600000e-07	3.961098e-07	-1.504703e-09	2.808814e+00	-1.021954e+02
8.700000e-07	4.987773e-07	-1.306433e-09	3.536829e+00	-8.909253e+01
8.800000e-07	6.013223e-07	-1.102844e-09	4.263976e+00	-7.566807e+01
8.900000e-07	7.037012e-07	-8.948357e-10	4.989945e+00	-6.190981e+01
9.000000e-07	8.058775e-07	-6.785920e-10	5.714477e+00	-4.780803e+01
9.100000e-07	9.077496e-07	-4.569126e-10	6.436852e+00	-3.335614e+01
9.200000e-07	1.009256e-06	-2.304766e-10	7.156632e+00	-1.855128e+01
9.300000e-07	1.110384e-06	4.763561e-13	7.873731e+00	-3.395109e+00
9.400000e-07	1.211102e-06	2.358796e-10	8.587925e+00	1.210517e+01
9.500000e-07	1.311419e-06	4.749512e-10	9.299274e+00	2.793563e+01
9.600000e-07	1.411357e-06	7.179194e-10	1.000793e+01	4.407431e+01
9.700000e-07	1.510874e-06	9.669036e-10	1.071361e+01	6.049003e+01
9.800000e-07	1.609871e-06	1.220051e-09	1.141560e+01	7.714170e+01
9.900000e-07	1.708156e-06	1.476480e-09	1.211254e+01	9.397823e+01
1.000000e-06	1.805596e-06	1.734152e-09	1.280348e+01	1.109394e+02
1.010000e-06	1.902141e-06	1.993208e-09	1.348808e+01	1.279578e+02
1.020000e-06	1.997893e-06	2.253027e-09	1.416706e+01	1.449610e+02
1.030000e-06	2.092973e-06	2.511982e-09	1.484127e+01	1.618750e+02
1.040000e-06	2.187314e-06	2.767692e-09	1.551024e+01	1.786273e+02
1.050000e-06	2.280896e-06	3.016834e-09	1.617383e+01	1.951499e+02
1.060000e-06	2.373747e-06	3.260658e-09	1.683224e+01	2.113813e+02
1.070000e-06	2.465881e-06	3.499927e-09	1.748556e+01	2.272687e+02
1.080000e-06	2.557290e-06	3.736282e-09	1.813374e+01	2.427676e+02
1.090000e-06	2.647724e-06	3.966293e-09	1.877501e+01	2.578430e+02
1.100000e-06	2.736918e-06	4.187729e-09	1.940748e+01	2.724681e+02
1.110000e-06	2.825012e-06	4.400775e-09	2.003216e+01	2.866238e+02
1.120000e-06	2.912215e-06	4.605911e-09	2.065052e+01	3.002984e+02
1.130000e-06	2.998528e-06	4.806261e-09	2.126256e+01	3.134868e+02
1.140000e-06	3.083827e-06	5.000480e-09	2.186742e+01	3.261898e+02
1.150000e-06	3.168105e-06	5.186108e-09	2.246503e+01	3.384140e+02
1.160000e-06	3.251469e-06	5.364524e-09	2.305616e+01	3.501704e+02
1.170000e-06	3.333775e-06	5.538009e-09	2.363980e+01	3.614729e+02
1.180000e-06	3.414805e-06	5.704356e-09	2.421438e+01	3.723374e+02
1.190000e-06	3.494517e-06	5.863355e-09	2.477962e+01	3.827788e+02
1.200000e-06	3.572982e-06	6.016114e-09	2.533602e+01	3.928099e+02
1.210000e-06	3.650206e-06	6.163656e-09	2.588361e+01	4.024397e+02
1.220000e-06	3.726151e-06	6.303972e-09	2.642213e+01	4.116732e+02
1.230000e-06	3.800615e-06	6.437538e-09	2.695016e+01	4.205117e+02
1.240000e-06	3.873379e-06	6.565182e-09	2.746613e+01	4.289550e+02
1.250000e-06	3.944664e-06	6.685750e-09	2.797161e+01	4.370033e+02
1.260000e-06	4.014650e-06	6.799638e-09	2.846788e+01	4.446603e+02
1.270000e-06	4.083292e-06	6.908327e-09	2.895462e+01	4.519352e+02
1.280000e-06	4.150547e-06	7.012093e-09	2.943153e+01	4.588441e+02
1.290000e-06	4.216141e-06	7.109614e-09	2.989665e+01	4.654099e+02
1.300000e-06	4.280078e-06	7.203797e-09	3.035003e+01	4.716605e+02
1.310000e-06	4.342542e-06	7.294187e-09	3.079296e+01	4.776266e+02
1.320000e-06	4.403569e-06	7.380894e-09	3.122570e+01	4.833376e+02
1.330000e-06	4.463230e-06	7.464827e-09	3.164876e+01	4.888186e+02
1.340000e-06	4.521278e-06	7.546137e-09	3.206038e+01	4.940878e+02
1.350000e-06	4.577502e-06	7.624325e-09	3.245906e+01	4.991553e+02
1.360000e-06	4.632055e-06	7.696870e-09	3.284590e+01	5.040238e+02
1.370000e-06	4.684955e-06	7.766044e-09	3.322102e+01	5.086897e+02
1.380000e-06	4.735904e-06	7.832883e-09	3.358229e+01	5.131469e+02
1.390000e-06	4.784822e-06	7.896609e-09	3.392917e+01	5.173889e+02
1.400000e-06	4.831960e-06	7.956635e-09	3.426343e+01	5.214118e+02
1.410000e-06	4.877460e-06	8.012929e-09	3.458607e+01	5.252154e+02
1.420000e-06	4.921406e-06	8.066654e-09	3.489769e+01	5.288037e+02
1.430000e-06	4.963532e-06	8.118087e-09	3.519641e+01	5.321836e+02
1.440000e-06	5.003695e-06	8.167957e-09	3.548120e+01	5.353633e+02
1.450000e-06	5.042177e-06	8.215492e-09	3.575408e+01	5.383499e+02
1.460000e-06	5.079073e-06	8.257190e-09	3.601570e+01	5.411485e+02
1.470000e-06	5.114278e-06	8.293868e-09	3.626534e+01	5.437612e+02
1.480000e-06	5.147566e-06	8.326971e-09	3.650139e+01	5.461881e+02
1.490000e-06	5.178921e-06	8.356718e-09	3.672373e+01	5.484281e+02
1.500000e-06	5.208561e-06	8.384016e-09	3.693391e+01	5.504816e+02
1.510000e-06	5.236569e-06	8.410238e-09	3.713251e+01	5.523512e+02
1.520000e-06	5.262631e-06	8.435707e-09	3.731731e+01	5.540434e+02
1.530000e-06	5.286600e-06	8.459288e-09	3.748728e+01	5.555679e+02
1.540000e-06	5.308716e-06	8.479719e-09	3.764410e+01	5.569363e+02
1.550000e-06	5.329118e-06	8.497099e-09	3.778878e+01	5.581604e+02
1.560000e-06	5.347681e-06	8.511618e-09	3.792040e+01	5.592497e+02
1.570000e-06	5.364163e-06	8.524616e-09	3.803728e+01	5.602094e+02
1.580000e-06	5.378627e-06	8.536691e-09	3.813984e+01	5.610406e+02
1.590000e-06	5.391169e-06	8.546483e-09	3.822878e+01	5.617401e+02
1.600000e-06	5.401549e-06	8.553502e-09	3.830238e+01	5.623029e+02
1.610000e-06	5.409733e-06	8.558851e-09	3.836042e+01	5.627249e+02
1.620000e-06	5.416013e-06	8.563577e-09	3.840494e+01	5.630050e+02
1.630000e-06	5.420556e-06	8.567910e-09	3.843716e+01	5.631475e+02
1.640000e-06	5.423188e-06	8.571760e-09	3.845582e+01	5.631619e+02
1.650000e-06	5.423777e-06	8.573664e-09	3.846000e+01	5.630616e+02
1.660000e-06	5.422511e-06	8.569974e-09	3.845102e+01	5.628616e+02
1.670000e-06	5.419571e-06	8.564894e-09	3.843017e+01	5.625742e+02
1.680000e-06	5.414972e-06	8.558915e-09	3.839756e+01	5.622065e+02
1.690000e-06	5.408422e-06	8.550509e-09	3.835112e+01	5.617577e+02
1.700000e-06	5.400038e-06	8.542244e-09	3.829167e+01	5.612195e+02
1.710000e-06	5.390148e-06	8.534986e-09	3.822154e+01	5.605776e+02
1.720000e-06	5.378560e-06	8.534512e-09	3.813936e+01	5.598163e+02
1.730000e-06	5.365042e-06	8.515316e-09	3.804351e+01	5.589226e+02
1.740000e-06	5.349473e-06	8.449268e-09	3.793311e+01	5.578917e+02
1.750000e-06	5.331571e-06	8.436632e-09	3.780617e+01	5.567295e+02
1.760000e-06	5.310970e-06	8.435783e-09	3.766009e+01	5.554540e+02
1.770000e-06	5.287931e-06	8.454003e-09	3.749671e+01	5.540929e+02
1.780000e-06	5.263493e-06	8.499720e-09	3.732342e+01	5.526785e+02
1.790000e-06	5.238344e-06	8.358559e-09	3.714509e+01	5.512421e+02
1.800000e-06	5.211853e-06	8.336277e-09	3.695725e+01	5.498063e+02
1.810000e-06	5.183217e-06	8.397839e-09	3.675419e+01	5.483800e+02
1.820000e-06	5.152728e-06	8.283016e-09	3.653799e+01	5.469551e+02
1.830000e-06	5.120526e-06	8.350840e-09	3.630964e+01	5.455066e+02
1.840000e-06	5.086362e-06	8.357224e-09	3.606739e+01	5.439962e+02
1.850000e-06	5.050551e-06	8.184702e-09	3.581346e+01	5.423790e+02
1.860000e-06	5.012977e-06	8.243422e-09	3.554702e+01	5.406109e+02
1.870000e-06	4.973489e-06	8.208969e-09	3.526701e+01	5.386561e+02
1.880000e-06	4.932379e-06	8.096891e-09	3.497550e+01	5.364933e+02
1.890000e-06	4.889467e-06	8.144404e-09	3.467121e+01	5.341181e+02
1.900000e-06	4.844893e-06	8.075970e-09	3.435514e+01	5.315427e+02
1.910000e-06	4.798575e-06	8.059364e-09	3.402669e+01	5.287924e+02
1.920000e-06	4.750172e-06	8.000037e-09	3.368346e+01	5.258991e+02
1.930000e-06	4.700116e-06	7.884488e-09	3.332852e+01	5.228949e+02
1.940000e-06	4.648343e-06	7.950981e-09	3.296140e+01	5.198058e+02
1.950000e-06	4.594495e-06	7.869294e-09	3.257956e+01	5.166472e+02
1.960000e-06	4.538693e-06	7.767872e-09	3.218387e+01	5.134221e+02
1.970000e-06	4.481141e-06	7.752286e-09	3.177577e+01	5.101224e+02
1.980000e-06	4.422144e-06	7.698458e-09	3.135742e+01	5.067318e+02
1.990000e-06	4.361627e-06	7.665157e-09	3.092829e+01	5.032309e+02
2.000000e-06	4.299352e-06	7.561573e-09	3.048671e+01	4.996015e+02
2.010000e-06	4.235436e-06	7.539524e-09	3.003348e+01	4.958309e+02
2.020000e-06	4.170032e-06	7.494167e-09	2.956970e+01	4.919141e+02
2.030000e-06	4.103254e-06	7.373421e-09	2.909617e+01	4.878534e+02
2.040000e-06	4.035026e-06	7.356132e-09	2.861237e+01	4.836571e+02
2.050000e-06	3.965243e-06	7.302072e-09	2.811753e+01	4.793366e+02
2.060000e-06	3.893955e-06	7.226072e-09	2.761203e+01	4.749026e+02
2.070000e-06	3.821339e-06	7.128572e-09	2.709711e+01	4.703622e+02
2.080000e-06	3.747467e-06	7.057066e-09	2.657329e+01	4.657172e+02
2.090000e-06	3.672199e-06	7.023594e-09	2.603957e+01	4.609637e+02
2.100000e-06	3.595468e-06	6.933233e-09	2.549546e+01	4.560926e+02
2.110000e-06	3.517071e-06	6.858800e-09	2.493955e+01	4.510924e+02
2.120000e-06	3.437268e-06	6.784212e-09	2.437366e+01	4.459510e+02
2.130000e-06	3.356435e-06	6.703699e-09	2.380048e+01	4.406586e+02
2.140000e-06	3.274472e-06	6.607711e-09	2.321928e+01	4.352093e+02
2.150000e-06	3.191396e-06	6.520391e-09	2.263019e+01	4.296016e+02
2.160000e-06	3.107317e-06	6.453104e-09	2.203399e+01	4.238383e+02
2.170000e-06	3.022085e-06	6.362133e-09	2.142961e+01	4.179251e+02
2.180000e-06	2.935414e-06	6.266134e-09	2.081502e+01	4.118688e+02
2.190000e-06	2.847579e-06	6.165168e-09	2.019218e+01	4.056754e+02
2.200000e-06	2.758834e-06	6.079147e-09	1.956289e+01	3.993487e+02
2.210000e-06	2.669148e-06	5.986391e-09	1.892693e+01	3.928892e+02
2.220000e-06	2.578603e-06	5.878577e-09	1.828487e+01	3.862938e+02
2.230000e-06	2.487176e-06	5.774853e-09	1.763656e+01	3.795565e+02
2.240000e-06	2.394984e-06	5.670427e-09	1.698283e+01	3.726692e+02
2.250000e-06	2.302070e-06	5.565219e-09	1.632398e+01	3.656231e+02
2.260000e-06	2.208149e-06	5.453918e-09	1.565799e+01	3.584099e+02
2.270000e-06	2.113114e-06	5.343773e-09	1.498409e+01	3.510227e+02
2.280000e-06	2.017203e-06	5.232887e-09	1.430399e+01	3.434567e+02
2.290000e-06	1.920651e-06	5.113845e-09	1.361933e+01	3.357089e+02
2.300000e-06	1.823570e-06	4.991136e-09	1.293093e+01	3.277784e+02
2.310000e-06	1.725983e-06	4.874936e-09	1.223894e+01	3.196649e+02
2.320000e-06	1.627794e-06	4.752655e-09	1.154268e+01	3.113684e+02
2.330000e-06	1.529051e-06	4.617459e-09	1.084250e+01	3.028884e+02
2.340000e-06	1.429831e-06	4.481129e-09	1.013893e+01	2.942227e+02
2.350000e-06	1.330205e-06	4.346281e-09	9.432483e+00	2.853677e+02
2.360000e-06	1.230249e-06	4.212216e-09	8.723698e+00	2.763182e+02
2.370000e-06	1.130029e-06	4.074364e-09	8.013035e+00	2.670675e+02
2.380000e-06	1.029589e-06	3.932309e-09	7.300816e+00	2.576087e+02
2.390000e-06	9.287249e-07	3.787135e-09	6.585588e+00	2.479349e+02
2.400000e-06	8.273475e-07	3.637619e-09	5.866721e+00	2.380401e+02
2.410000e-06	7.255557e-07	3.484400e-09	5.144915e+00	2.279198e+02
2.420000e-06	6.234596e-07	3.327246e-09	4.420952e+00	2.175710e+02
2.430000e-06	5.210504e-07	3.167093e-09	3.694768e+00	2.069920e+02
2.440000e-06	4.183438e-07	3.004571e-09	2.966476e+00	1.961820e+02
2.450000e-06	3.154493e-07	2.836355e-09	2.236851e+00	1.851399e+02
2.460000e-06	2.123608e-07	2.663919e-09	1.505850e+00	1.738633e+02
2.470000e-06	1.091148e-07	2.493166e-09	7.737331e-01	1.623481e+02
2.480000e-06	5.824331e-09	2.317931e-09	4.130033e-02	1.505874e+02
2.490000e-06	-9.747163e-08	2.134156e-09	-6.911713e-01	1.385715e+02
2.500000e-06	-2.007825e-07	1.945740e-09	-1.423749e+00	1.262884e+02
2.510000e-06	-3.039852e-07	1.754630e-09	-2.155559e+00	1.137241e+02
2.520000e-06	-4.070419e-07	1.559664e-09	-2.886334e+00	1.008637e+02
2.530000e-06	-5.099979e-07	1.358763e-09	-3.616395e+00	8.769258e+01
2.540000e-06	-6.127590e-07	1.154268e-09	-4.345074e+00	7.419702e+01
2.550000e-06	-7.151940e-07	9.446192e-10	-5.071440e+00	6.036534e+01
2.560000e-06	-8.172029e-07	7.244161e-10	-5.794785e+00	4.618846e+01
2.570000e-06	-9.187058e-07	4.971262e-10	-6.514543e+00	3.166051e+01
2.580000e-06	-1.019697e-06	2.699776e-10	-7.230670e+00	1.677953e+01
2.590000e-06	-1.120268e-06	4.078462e-11	-7.943820e+00	1.548291e+00
2.600000e-06	-1.220483e-06	-1.945680e-10	-8.654443e+00	-1.402469e+01
2.610000e-06	-1.320339e-06	-4.376349e-10	-9.362523e+00	-2.992387e+01
2.620000e-06	-1.419793e-06	-6.859753e-10	-1.006775e+01	-4.612539e+01
2.630000e-06	-1.518763e-06	-9.372073e-10	-1.076955e+01	-6.259599e+01
2.640000e-06	-1.617161e-06	-1.194179e-09	-1.146729e+01	-7.929242e+01
2.650000e-06	-1.714955e-06	-1.454402e-09	-1.216075e+01	-9.616155e+01
2.660000e-06	-1.812154e-06	-1.714463e-09	-1.284998e+01	-1.131414e+02
2.670000e-06	-1.908785e-06	-1.973349e-09	-1.353519e+01	-1.301632e+02
2.680000e-06	-2.004888e-06	-2.229193e-09	-1.421666e+01	-1.471541e+02
2.690000e-06	-2.100430e-06	-2.484879e-09	-1.489415e+01	-1.640399e+02
2.700000e-06	-2.195162e-06	-2.741748e-09	-1.556589e+01	-1.807491e+02
2.710000e-06	-2.288775e-06	-2.996448e-09	-1.622970e+01	-1.972147e+02
2.720000e-06	-2.381365e-06	-3.245429e-09	-1.688626e+01	-2.133771e+02
2.730000e-06	-2.473147e-06	-3.486934e-09	-1.753709e+01	-2.291851e+02
2.740000e-06	-2.564080e-06	-3.721864e-09	-1.818189e+01	-2.445965e+02
2.750000e-06	-2.654091e-06	-3.951162e-09	-1.882015e+01	-2.595779e+02
2.760000e-06	-2.743101e-06	-4.176034e-09	-1.945133e+01	-2.741043e+02
2.770000e-06	-2.831281e-06	-4.394136e-09	-2.007661e+01	-2.881582e+02
2.780000e-06	-2.918760e-06	-4.602835e-09	-2.069693e+01	-3.017293e+02
2.790000e-06	-3.005118e-06	-4.802354e-09	-2.130929e+01	-3.148139e+02
2.800000e-06	-3.090133e-06	-4.996014e-09	-2.191213e+01	-3.274142e+02
2.810000e-06	-3.174029e-06	-5.183014e-09	-2.250704e+01	-3.395376e+02
2.820000e-06	-3.256878e-06	-5.359622e-09	-2.309452e+01	-3.511959e+02
2.830000e-06	-3.338664e-06	-5.528343e-09	-2.367446e+01	-3.624038e+02
2.840000e-06	-3.419392e-06	-5.690825e-09	-2.424691e+01	-3.731769e+02
2.850000e-06	-3.498972e-06	-5.847412e-09	-2.481121e+01	-3.835300e+02
2.860000e-06	-3.577086e-06	-5.998561e-09	-2.536512e+01	-3.934750e+02
2.870000e-06	-3.653663e-06	-6.145067e-09	-2.590812e+01	-4.030201e+02
2.880000e-06	-3.728836e-06	-6.286160e-09	-2.644117e+01	-4.121694e+02
2.890000e-06	-3.802620e-06	-6.421621e-09	-2.696437e+01	-4.209238e+02
2.900000e-06	-3.875127e-06	-6.553672e-09	-2.747852e+01	-4.292829e+02
2.910000e-06	-3.946279e-06	-6.680667e-09	-2.798306e+01	-4.372475e+02
2.920000e-06	-4.015774e-06	-6.797686e-09	-2.847586e+01	-4.448221e+02
2.930000e-06	-4.083727e-06	-6.905591e-09	-2.895771e+01	-4.520175e+02
2.940000e-06	-4.150325e-06	-7.008350e-09	-2.942995e+01	-4.588512e+02
