# Temperatura_=_69.72
# Concentracion g/m^3_=_15000.0
# C_Vs_to_Am_M_A/Vsm_=_65563218390.804596
# pendiente_HvsI_1/m_=_3716.3
# ordenada_HvsI_A/m_=_1297.0
# frecuencia_Hz_=_301600.1290391353

Tiempo_(s)	Campo_(V.s)	Magnetizacion_(V.s)	Campo_(kA/m)	Magnetizacion_(A/m)
0.000000e+00	-5.414932e-06	-9.189531e-09	-3.833781e+01	-6.000775e+02
1.000000e-08	-5.412365e-06	-9.185309e-09	-3.831964e+01	-5.997949e+02
2.000000e-08	-5.407961e-06	-9.178231e-09	-3.828846e+01	-5.994154e+02
3.000000e-08	-5.401916e-06	-9.171503e-09	-3.824566e+01	-5.989353e+02
4.000000e-08	-5.394215e-06	-9.161935e-09	-3.819113e+01	-5.983440e+02
5.000000e-08	-5.384706e-06	-9.148356e-09	-3.812381e+01	-5.976273e+02
6.000000e-08	-5.373205e-06	-9.131347e-09	-3.804239e+01	-5.967719e+02
7.000000e-08	-5.359767e-06	-9.107167e-09	-3.794724e+01	-5.957699e+02
8.000000e-08	-5.344222e-06	-9.108820e-09	-3.783718e+01	-5.946223e+02
9.000000e-08	-5.326406e-06	-9.141980e-09	-3.771105e+01	-5.933410e+02
1.000000e-07	-5.306555e-06	-9.105287e-09	-3.757050e+01	-5.919474e+02
1.100000e-07	-5.284845e-06	-9.044027e-09	-3.741679e+01	-5.904691e+02
1.200000e-07	-5.261384e-06	-8.992439e-09	-3.725069e+01	-5.889345e+02
1.300000e-07	-5.236299e-06	-8.898575e-09	-3.707309e+01	-5.873668e+02
1.400000e-07	-5.209589e-06	-8.960485e-09	-3.688398e+01	-5.857791e+02
1.500000e-07	-5.181309e-06	-9.014168e-09	-3.668376e+01	-5.841710e+02
1.600000e-07	-5.151550e-06	-8.866675e-09	-3.647307e+01	-5.825282e+02
1.700000e-07	-5.120214e-06	-8.903135e-09	-3.625120e+01	-5.808244e+02
1.800000e-07	-5.086823e-06	-8.871001e-09	-3.601479e+01	-5.790263e+02
1.900000e-07	-5.051490e-06	-8.709210e-09	-3.576464e+01	-5.770989e+02
2.000000e-07	-5.014687e-06	-8.795586e-09	-3.550407e+01	-5.750115e+02
2.100000e-07	-4.976165e-06	-8.758992e-09	-3.523133e+01	-5.727419e+02
2.200000e-07	-4.935762e-06	-8.632957e-09	-3.494528e+01	-5.702792e+02
2.300000e-07	-4.893391e-06	-8.665647e-09	-3.464529e+01	-5.676242e+02
2.400000e-07	-4.849120e-06	-8.627534e-09	-3.433185e+01	-5.647869e+02
2.500000e-07	-4.803100e-06	-8.567622e-09	-3.400603e+01	-5.617837e+02
2.600000e-07	-4.755159e-06	-8.519444e-09	-3.366661e+01	-5.586332e+02
2.700000e-07	-4.705096e-06	-8.441695e-09	-3.331216e+01	-5.553523e+02
2.800000e-07	-4.652936e-06	-8.410457e-09	-3.294287e+01	-5.519541e+02
2.900000e-07	-4.598974e-06	-8.349254e-09	-3.256082e+01	-5.484460e+02
3.000000e-07	-4.543429e-06	-8.299889e-09	-3.216756e+01	-5.448302e+02
3.100000e-07	-4.486121e-06	-8.260999e-09	-3.176182e+01	-5.411047e+02
3.200000e-07	-4.427008e-06	-8.194085e-09	-3.134330e+01	-5.372648e+02
3.300000e-07	-4.366365e-06	-8.116774e-09	-3.091394e+01	-5.333050e+02
3.400000e-07	-4.304232e-06	-8.040215e-09	-3.047404e+01	-5.292203e+02
3.500000e-07	-4.240739e-06	-8.009473e-09	-3.002450e+01	-5.250071e+02
3.600000e-07	-4.175658e-06	-7.942193e-09	-2.956373e+01	-5.206630e+02
3.700000e-07	-4.108817e-06	-7.852389e-09	-2.909050e+01	-5.161870e+02
3.800000e-07	-4.040470e-06	-7.794651e-09	-2.860659e+01	-5.115787e+02
3.900000e-07	-3.970734e-06	-7.718683e-09	-2.811287e+01	-5.068382e+02
4.000000e-07	-3.899819e-06	-7.635936e-09	-2.761079e+01	-5.019655e+02
4.100000e-07	-3.827645e-06	-7.558757e-09	-2.709979e+01	-4.969606e+02
4.200000e-07	-3.753906e-06	-7.497156e-09	-2.657772e+01	-4.918230e+02
4.300000e-07	-3.678566e-06	-7.418824e-09	-2.604431e+01	-4.865518e+02
4.400000e-07	-3.601767e-06	-7.324436e-09	-2.550057e+01	-4.811455e+02
4.500000e-07	-3.523523e-06	-7.243661e-09	-2.494660e+01	-4.756018e+02
4.600000e-07	-3.443847e-06	-7.161930e-09	-2.438250e+01	-4.699175e+02
4.700000e-07	-3.362900e-06	-7.071588e-09	-2.380939e+01	-4.640885e+02
4.800000e-07	-3.280770e-06	-6.970851e-09	-2.322791e+01	-4.581100e+02
4.900000e-07	-3.197549e-06	-6.880273e-09	-2.263870e+01	-4.519774e+02
5.000000e-07	-3.113326e-06	-6.792642e-09	-2.204240e+01	-4.456871e+02
5.100000e-07	-3.028090e-06	-6.689138e-09	-2.143893e+01	-4.392367e+02
5.200000e-07	-2.941830e-06	-6.581749e-09	-2.082820e+01	-4.326263e+02
5.300000e-07	-2.854632e-06	-6.475501e-09	-2.021085e+01	-4.258580e+02
5.400000e-07	-2.766520e-06	-6.369567e-09	-1.958701e+01	-4.189354e+02
5.500000e-07	-2.677310e-06	-6.262210e-09	-1.895540e+01	-4.118626e+02
5.600000e-07	-2.586968e-06	-6.152084e-09	-1.831578e+01	-4.046429e+02
5.700000e-07	-2.495663e-06	-6.042750e-09	-1.766934e+01	-3.972773e+02
5.800000e-07	-2.403496e-06	-5.928651e-09	-1.701679e+01	-3.897637e+02
5.900000e-07	-2.310523e-06	-5.809592e-09	-1.635855e+01	-3.820968e+02
6.000000e-07	-2.216702e-06	-5.687151e-09	-1.569429e+01	-3.742685e+02
6.100000e-07	-2.122079e-06	-5.563283e-09	-1.502436e+01	-3.662696e+02
6.200000e-07	-2.026755e-06	-5.439386e-09	-1.434946e+01	-3.580913e+02
6.300000e-07	-1.930698e-06	-5.312205e-09	-1.366938e+01	-3.497266e+02
6.400000e-07	-1.833871e-06	-5.181699e-09	-1.298384e+01	-3.411713e+02
6.500000e-07	-1.736220e-06	-5.047224e-09	-1.229247e+01	-3.324243e+02
6.600000e-07	-1.637814e-06	-4.908071e-09	-1.159575e+01	-3.234864e+02
6.700000e-07	-1.538807e-06	-4.765501e-09	-1.089478e+01	-3.143591e+02
6.800000e-07	-1.439305e-06	-4.623405e-09	-1.019030e+01	-3.050422e+02
6.900000e-07	-1.339357e-06	-4.480741e-09	-9.482672e+00	-2.955330e+02
7.000000e-07	-1.239010e-06	-4.334955e-09	-8.772212e+00	-2.858247e+02
7.100000e-07	-1.138311e-06	-4.181972e-09	-8.059261e+00	-2.759075e+02
7.200000e-07	-1.037254e-06	-4.022017e-09	-7.343776e+00	-2.657696e+02
7.300000e-07	-9.358507e-07	-3.859503e-09	-6.625839e+00	-2.553994e+02
7.400000e-07	-8.341143e-07	-3.694629e-09	-5.905544e+00	-2.447880e+02
7.500000e-07	-7.320700e-07	-3.527311e-09	-5.183069e+00	-2.339308e+02
7.600000e-07	-6.297588e-07	-3.356165e-09	-4.458703e+00	-2.228280e+02
7.700000e-07	-5.272354e-07	-3.181560e-09	-3.732836e+00	-2.114845e+02
7.800000e-07	-4.245888e-07	-3.005838e-09	-3.006096e+00	-1.999071e+02
7.900000e-07	-3.218242e-07	-2.827733e-09	-2.278521e+00	-1.881025e+02
8.000000e-07	-2.189656e-07	-2.644599e-09	-1.550280e+00	-1.760737e+02
8.100000e-07	-1.160425e-07	-2.456320e-09	-8.215829e-01	-1.638177e+02
8.200000e-07	-1.300867e-08	-2.264560e-09	-9.210159e-02	-1.513248e+02
8.300000e-07	9.005510e-08	-2.070922e-09	6.375917e-01	-1.385785e+02
8.400000e-07	1.930676e-07	-1.873805e-09	1.366922e+00	-1.255577e+02
8.500000e-07	2.960719e-07	-1.670969e-09	2.096194e+00	-1.122393e+02
8.600000e-07	3.990013e-07	-1.463139e-09	2.824936e+00	-9.860099e+01
8.700000e-07	5.017912e-07	-1.248477e-09	3.552691e+00	-8.462432e+01
8.800000e-07	6.044526e-07	-1.027555e-09	4.279535e+00	-7.029567e+01
8.900000e-07	7.069370e-07	-8.031450e-10	5.005126e+00	-5.560655e+01
9.000000e-07	8.092021e-07	-5.743140e-10	5.729165e+00	-4.055270e+01
9.100000e-07	9.111826e-07	-3.405513e-10	6.451189e+00	-2.513268e+01
9.200000e-07	1.012822e-06	-1.010439e-10	7.170796e+00	-9.346761e+00
9.300000e-07	1.114093e-06	1.449915e-10	7.887796e+00	6.803241e+00
9.400000e-07	1.214992e-06	3.978971e-10	8.602162e+00	2.331271e+01
9.500000e-07	1.315506e-06	6.554873e-10	9.313807e+00	4.017161e+01
9.600000e-07	1.415599e-06	9.162139e-10	1.002247e+01	5.736099e+01
9.700000e-07	1.515287e-06	1.180081e-09	1.072826e+01	7.484942e+01
9.800000e-07	1.614377e-06	1.446867e-09	1.142982e+01	9.259037e+01
9.900000e-07	1.712715e-06	1.715898e-09	1.212605e+01	1.105215e+02
1.000000e-06	1.810273e-06	1.986962e-09	1.281676e+01	1.285661e+02
1.010000e-06	1.906992e-06	2.260555e-09	1.350154e+01	1.466371e+02
1.020000e-06	2.002935e-06	2.535047e-09	1.418081e+01	1.646428e+02
1.030000e-06	2.098141e-06	2.807273e-09	1.485487e+01	1.824931e+02
1.040000e-06	2.192606e-06	3.075899e-09	1.552369e+01	2.001053e+02
1.050000e-06	2.286325e-06	3.338102e-09	1.618722e+01	2.174091e+02
1.060000e-06	2.379282e-06	3.593417e-09	1.684536e+01	2.343481e+02
1.070000e-06	2.471509e-06	3.843284e-09	1.749833e+01	2.508805e+02
1.080000e-06	2.562973e-06	4.088530e-09	1.814590e+01	2.669765e+02
1.090000e-06	2.653486e-06	4.327649e-09	1.878673e+01	2.826154e+02
1.100000e-06	2.742846e-06	4.558013e-09	1.941940e+01	2.977823e+02
1.110000e-06	2.831111e-06	4.778456e-09	2.004431e+01	3.124656e+02
1.120000e-06	2.918423e-06	4.992200e-09	2.066249e+01	3.266558e+02
1.130000e-06	3.004792e-06	5.201070e-09	2.127398e+01	3.403461e+02
1.140000e-06	3.090214e-06	5.403133e-09	2.187877e+01	3.535332e+02
1.150000e-06	3.174690e-06	5.596160e-09	2.247686e+01	3.662193e+02
1.160000e-06	3.258183e-06	5.781128e-09	2.306800e+01	3.784129e+02
1.170000e-06	3.340530e-06	5.960991e-09	2.365101e+01	3.901289e+02
1.180000e-06	3.421592e-06	6.134062e-09	2.422493e+01	4.013865e+02
1.190000e-06	3.501387e-06	6.298755e-09	2.478988e+01	4.122068e+02
1.200000e-06	3.579964e-06	6.455289e-09	2.534621e+01	4.226092e+02
1.210000e-06	3.657262e-06	6.606913e-09	2.589348e+01	4.326083e+02
1.220000e-06	3.733254e-06	6.755231e-09	2.643150e+01	4.422122e+02
1.230000e-06	3.807796e-06	6.899292e-09	2.695926e+01	4.514226e+02
1.240000e-06	3.880727e-06	7.035355e-09	2.747562e+01	4.602363e+02
1.250000e-06	3.952174e-06	7.162162e-09	2.798146e+01	4.686494e+02
1.260000e-06	4.022219e-06	7.281301e-09	2.847738e+01	4.766608e+02
1.270000e-06	4.090894e-06	7.395856e-09	2.896360e+01	4.842761e+02
1.280000e-06	4.158184e-06	7.505600e-09	2.944001e+01	4.915099e+02
1.290000e-06	4.223841e-06	7.609081e-09	2.990486e+01	4.983862e+02
1.300000e-06	4.287846e-06	7.706977e-09	3.035802e+01	5.049356e+02
1.310000e-06	4.350352e-06	7.800412e-09	3.080057e+01	5.111923e+02
1.320000e-06	4.411437e-06	7.891543e-09	3.123305e+01	5.171888e+02
1.330000e-06	4.471160e-06	7.980453e-09	3.165589e+01	5.229522e+02
1.340000e-06	4.529262e-06	8.067553e-09	3.206725e+01	5.285005e+02
1.350000e-06	4.585591e-06	8.150781e-09	3.246606e+01	5.338418e+02
1.360000e-06	4.640263e-06	8.227847e-09	3.285314e+01	5.389759e+02
1.370000e-06	4.693233e-06	8.301816e-09	3.322817e+01	5.438964e+02
1.380000e-06	4.744253e-06	8.372871e-09	3.358939e+01	5.485951e+02
1.390000e-06	4.793214e-06	8.439050e-09	3.393604e+01	5.530654e+02
1.400000e-06	4.840340e-06	8.500295e-09	3.426969e+01	5.573047e+02
1.410000e-06	4.885853e-06	8.558040e-09	3.459193e+01	5.613156e+02
1.420000e-06	4.929787e-06	8.615734e-09	3.490298e+01	5.651049e+02
1.430000e-06	4.971940e-06	8.673464e-09	3.520142e+01	5.686816e+02
1.440000e-06	5.012184e-06	8.729837e-09	3.548635e+01	5.720542e+02
1.450000e-06	5.050642e-06	8.782622e-09	3.575863e+01	5.752289e+02
1.460000e-06	5.087483e-06	8.828492e-09	3.601947e+01	5.782079e+02
1.470000e-06	5.122728e-06	8.867389e-09	3.626900e+01	5.809900e+02
1.480000e-06	5.156041e-06	8.900703e-09	3.650486e+01	5.835726e+02
1.490000e-06	5.187395e-06	8.930019e-09	3.672685e+01	5.859534e+02
1.500000e-06	5.217047e-06	8.957330e-09	3.693679e+01	5.881335e+02
1.510000e-06	5.245058e-06	8.985030e-09	3.713510e+01	5.901185e+02
1.520000e-06	5.271195e-06	9.013138e-09	3.732016e+01	5.919188e+02
1.530000e-06	5.295220e-06	9.039779e-09	3.749025e+01	5.935483e+02
1.540000e-06	5.317305e-06	9.064445e-09	3.764661e+01	5.950216e+02
1.550000e-06	5.337654e-06	9.084968e-09	3.779068e+01	5.963515e+02
1.560000e-06	5.356160e-06	9.100956e-09	3.792171e+01	5.975460e+02
1.570000e-06	5.372613e-06	9.114294e-09	3.803819e+01	5.986072e+02
1.580000e-06	5.387104e-06	9.125900e-09	3.814079e+01	5.995315e+02
1.590000e-06	5.399664e-06	9.135711e-09	3.822972e+01	6.003119e+02
1.600000e-06	5.410017e-06	9.143988e-09	3.830302e+01	6.009404e+02
1.610000e-06	5.418208e-06	9.151641e-09	3.836100e+01	6.014122e+02
1.620000e-06	5.424464e-06	9.158679e-09	3.840530e+01	6.017275e+02
1.630000e-06	5.428949e-06	9.165361e-09	3.843705e+01	6.018930e+02
1.640000e-06	5.431587e-06	9.170511e-09	3.845573e+01	6.019205e+02
1.650000e-06	5.432190e-06	9.172992e-09	3.846000e+01	6.018250e+02
1.660000e-06	5.430916e-06	9.168643e-09	3.845098e+01	6.016205e+02
1.670000e-06	5.427940e-06	9.160797e-09	3.842991e+01	6.013166e+02
1.680000e-06	5.423291e-06	9.154086e-09	3.839699e+01	6.009155e+02
1.690000e-06	5.416742e-06	9.144290e-09	3.835063e+01	6.004121e+02
1.700000e-06	5.408340e-06	9.133479e-09	3.829114e+01	5.997946e+02
1.710000e-06	5.398367e-06	9.125608e-09	3.822053e+01	5.990487e+02
1.720000e-06	5.386704e-06	9.126078e-09	3.813796e+01	5.981618e+02
1.730000e-06	5.373084e-06	9.110575e-09	3.804153e+01	5.971276e+02
1.740000e-06	5.357363e-06	9.027637e-09	3.793022e+01	5.959494e+02
1.750000e-06	5.339291e-06	9.007371e-09	3.780227e+01	5.946415e+02
1.760000e-06	5.318530e-06	9.019874e-09	3.765528e+01	5.932268e+02
1.770000e-06	5.295416e-06	9.032794e-09	3.749164e+01	5.917336e+02
1.780000e-06	5.270952e-06	9.095878e-09	3.731843e+01	5.901897e+02
1.790000e-06	5.245765e-06	8.951169e-09	3.714011e+01	5.886165e+02
1.800000e-06	5.219228e-06	8.875531e-09	3.695223e+01	5.870244e+02
1.810000e-06	5.190470e-06	8.966141e-09	3.674862e+01	5.854100e+02
1.820000e-06	5.159837e-06	8.830020e-09	3.653174e+01	5.837561e+02
1.830000e-06	5.127556e-06	8.862617e-09	3.630319e+01	5.820345e+02
1.840000e-06	5.093253e-06	8.939386e-09	3.606032e+01	5.802111e+02
1.850000e-06	5.057286e-06	8.744220e-09	3.580568e+01	5.782512e+02
1.860000e-06	5.019626e-06	8.786536e-09	3.553904e+01	5.761257e+02
1.870000e-06	4.980066e-06	8.792160e-09	3.525896e+01	5.738147e+02
1.880000e-06	4.938877e-06	8.629715e-09	3.496734e+01	5.713099e+02
1.890000e-06	4.895885e-06	8.673834e-09	3.466295e+01	5.686142e+02
1.900000e-06	4.851201e-06	8.602027e-09	3.434659e+01	5.657393e+02
1.910000e-06	4.804748e-06	8.568196e-09	3.401770e+01	5.627024e+02
1.920000e-06	4.756209e-06	8.561053e-09	3.367404e+01	5.595221e+02
1.930000e-06	4.706000e-06	8.408695e-09	3.331856e+01	5.562147e+02
1.940000e-06	4.654073e-06	8.462191e-09	3.295092e+01	5.527919e+02
1.950000e-06	4.600045e-06	8.386630e-09	3.256840e+01	5.492602e+02
1.960000e-06	4.544081e-06	8.256467e-09	3.217218e+01	5.456207e+02
1.970000e-06	4.486389e-06	8.248944e-09	3.176371e+01	5.418705e+02
1.980000e-06	4.427227e-06	8.183729e-09	3.134484e+01	5.380048e+02
1.990000e-06	4.366541e-06	8.168791e-09	3.091519e+01	5.340181e+02
2.000000e-06	4.304108e-06	8.047667e-09	3.047316e+01	5.299057e+02
2.010000e-06	4.240081e-06	7.990302e-09	3.001985e+01	5.256640e+02
2.020000e-06	4.174572e-06	7.966275e-09	2.955604e+01	5.212912e+02
2.030000e-06	4.107634e-06	7.824875e-09	2.908212e+01	5.167863e+02
2.040000e-06	4.039283e-06	7.802902e-09	2.859819e+01	5.121491e+02
2.050000e-06	3.969360e-06	7.747638e-09	2.810314e+01	5.073797e+02
2.060000e-06	3.897903e-06	7.667006e-09	2.759722e+01	5.024782e+02
2.070000e-06	3.825135e-06	7.563808e-09	2.708203e+01	4.974444e+02
2.080000e-06	3.751084e-06	7.462076e-09	2.655774e+01	4.922777e+02
2.090000e-06	3.675606e-06	7.430986e-09	2.602335e+01	4.869772e+02
2.100000e-06	3.598593e-06	7.332182e-09	2.547810e+01	4.815412e+02
2.110000e-06	3.519999e-06	7.243773e-09	2.492165e+01	4.759672e+02
2.120000e-06	3.440073e-06	7.156081e-09	2.435578e+01	4.702517e+02
2.130000e-06	3.359054e-06	7.073346e-09	2.378216e+01	4.643905e+02
2.140000e-06	3.276897e-06	6.979359e-09	2.320049e+01	4.583788e+02
2.150000e-06	3.193699e-06	6.872573e-09	2.261144e+01	4.522122e+02
2.160000e-06	3.109494e-06	6.795814e-09	2.201527e+01	4.458871e+02
2.170000e-06	3.024051e-06	6.693206e-09	2.141033e+01	4.394018e+02
2.180000e-06	2.937276e-06	6.592709e-09	2.079597e+01	4.327568e+02
2.190000e-06	2.849372e-06	6.484968e-09	2.017360e+01	4.259546e+02
2.200000e-06	2.760540e-06	6.387177e-09	1.954467e+01	4.189989e+02
2.210000e-06	2.670765e-06	6.285992e-09	1.890907e+01	4.118939e+02
2.220000e-06	2.580051e-06	6.164397e-09	1.826681e+01	4.046425e+02
2.230000e-06	2.488511e-06	6.048552e-09	1.761870e+01	3.972449e+02
2.240000e-06	2.396187e-06	5.934208e-09	1.696505e+01	3.896985e+02
2.250000e-06	2.302972e-06	5.826999e-09	1.630508e+01	3.819971e+02
2.260000e-06	2.208839e-06	5.708000e-09	1.563862e+01	3.741326e+02
2.270000e-06	2.113781e-06	5.581639e-09	1.496561e+01	3.660954e+02
2.280000e-06	2.017762e-06	5.454060e-09	1.428579e+01	3.578771e+02
2.290000e-06	1.921015e-06	5.325064e-09	1.360082e+01	3.494713e+02
2.300000e-06	1.823778e-06	5.194311e-09	1.291238e+01	3.408744e+02
2.310000e-06	1.726076e-06	5.065812e-09	1.222064e+01	3.320858e+02
2.320000e-06	1.627764e-06	4.934660e-09	1.152460e+01	3.231067e+02
2.330000e-06	1.528875e-06	4.792089e-09	1.082446e+01	3.139383e+02
2.340000e-06	1.429573e-06	4.646678e-09	1.012141e+01	3.045801e+02
2.350000e-06	1.329876e-06	4.499399e-09	9.415544e+00	2.950283e+02
2.360000e-06	1.229823e-06	4.354637e-09	8.707167e+00	2.852757e+02
2.370000e-06	1.129391e-06	4.205658e-09	7.996108e+00	2.753117e+02
2.380000e-06	1.028548e-06	4.049511e-09	7.282140e+00	2.651244e+02
2.390000e-06	9.273427e-07	3.892143e-09	6.565603e+00	2.547026e+02
2.400000e-06	8.257609e-07	3.733215e-09	5.846401e+00	2.440382e+02
2.410000e-06	7.237793e-07	3.570511e-09	5.124370e+00	2.331277e+02
2.420000e-06	6.214232e-07	3.401531e-09	4.399687e+00	2.219723e+02
2.430000e-06	5.188178e-07	3.228170e-09	3.673239e+00	2.105775e+02
2.440000e-06	4.160381e-07	3.052866e-09	2.945557e+00	1.989504e+02
2.450000e-06	3.130555e-07	2.872853e-09	2.216438e+00	1.870971e+02
2.460000e-06	2.098412e-07	2.686836e-09	1.485679e+00	1.750195e+02
2.470000e-06	1.065056e-07	2.500085e-09	7.540613e-01	1.627133e+02
2.480000e-06	3.139130e-09	2.307706e-09	2.222510e-02	1.501672e+02
2.490000e-06	-1.002646e-07	2.108910e-09	-7.098752e-01	1.373635e+02
2.500000e-06	-2.036087e-07	1.908196e-09	-1.441553e+00	1.242803e+02
2.510000e-06	-3.068174e-07	1.706540e-09	-2.172272e+00	1.108946e+02
2.520000e-06	-4.098973e-07	1.502956e-09	-2.902080e+00	9.718464e+01
2.530000e-06	-5.128497e-07	1.290527e-09	-3.630985e+00	8.313299e+01
2.540000e-06	-6.155983e-07	1.071822e-09	-4.358447e+00	6.872711e+01
2.550000e-06	-7.180674e-07	8.467992e-10	-5.083930e+00	5.395955e+01
2.560000e-06	-8.202242e-07	6.118795e-10	-5.807202e+00	3.882675e+01
2.570000e-06	-9.219429e-07	3.720223e-10	-6.527372e+00	2.332772e+01
2.580000e-06	-1.023214e-06	1.297297e-10	-7.244371e+00	7.463030e+00
2.590000e-06	-1.124078e-06	-1.159883e-10	-7.958490e+00	-8.765057e+00
2.600000e-06	-1.224503e-06	-3.689349e-10	-8.669500e+00	-2.535103e+01
2.610000e-06	-1.324503e-06	-6.284118e-10	-9.377503e+00	-4.228325e+01
2.620000e-06	-1.424023e-06	-8.927000e-10	-1.008211e+01	-5.954037e+01
2.630000e-06	-1.522968e-06	-1.161865e-09	-1.078264e+01	-7.708790e+01
2.640000e-06	-1.621409e-06	-1.434247e-09	-1.147960e+01	-9.487591e+01
2.650000e-06	-1.719324e-06	-1.710092e-09	-1.217284e+01	-1.128387e+02
2.660000e-06	-1.816613e-06	-1.987698e-09	-1.286165e+01	-1.308971e+02
2.670000e-06	-1.913331e-06	-2.265480e-09	-1.354642e+01	-1.489625e+02
2.680000e-06	-2.009506e-06	-2.541994e-09	-1.422734e+01	-1.669428e+02
2.690000e-06	-2.105091e-06	-2.816426e-09	-1.490408e+01	-1.847492e+02
2.700000e-06	-2.199847e-06	-3.086745e-09	-1.557495e+01	-2.023013e+02
2.710000e-06	-2.293620e-06	-3.350179e-09	-1.623887e+01	-2.195317e+02
2.720000e-06	-2.386437e-06	-3.606444e-09	-1.689601e+01	-2.363872e+02
2.730000e-06	-2.478340e-06	-3.856042e-09	-1.754669e+01	-2.528287e+02
2.740000e-06	-2.569347e-06	-4.099704e-09	-1.819102e+01	-2.688288e+02
2.750000e-06	-2.659401e-06	-4.336333e-09	-1.882861e+01	-2.843682e+02
2.760000e-06	-2.748547e-06	-4.568183e-09	-1.945976e+01	-2.994329e+02
2.770000e-06	-2.836870e-06	-4.795696e-09	-2.008509e+01	-3.140118e+02
2.780000e-06	-2.924339e-06	-5.013125e-09	-2.070437e+01	-3.280959e+02
2.790000e-06	-3.010698e-06	-5.220341e-09	-2.131579e+01	-3.416790e+02
2.800000e-06	-3.095855e-06	-5.421319e-09	-2.191871e+01	-3.547589e+02
2.810000e-06	-3.179882e-06	-5.615153e-09	-2.251362e+01	-3.673390e+02
2.820000e-06	-3.262807e-06	-5.798966e-09	-2.310073e+01	-3.794294e+02
2.830000e-06	-3.344652e-06	-5.974329e-09	-2.368019e+01	-3.910460e+02
2.840000e-06	-3.425444e-06	-6.143287e-09	-2.425220e+01	-4.022086e+02
2.850000e-06	-3.505123e-06	-6.304664e-09	-2.481633e+01	-4.129384e+02
2.860000e-06	-3.583393e-06	-6.458731e-09	-2.537048e+01	-4.232539e+02
2.870000e-06	-3.660121e-06	-6.609085e-09	-2.591372e+01	-4.331684e+02
2.880000e-06	-3.735402e-06	-6.756068e-09	-2.644671e+01	-4.426886e+02
2.890000e-06	-3.809296e-06	-6.897491e-09	-2.696988e+01	-4.518148e+02
2.900000e-06	-3.881845e-06	-7.034006e-09	-2.748353e+01	-4.605435e+02
2.910000e-06	-3.953032e-06	-7.165358e-09	-2.798754e+01	-4.688710e+02
2.920000e-06	-4.022658e-06	-7.287460e-09	-2.848049e+01	-4.767972e+02
2.930000e-06	-4.090742e-06	-7.400320e-09	-2.896252e+01	-4.843298e+02
2.940000e-06	-4.157442e-06	-7.508713e-09	-2.943476e+01	-4.914853e+02
