# Temperatura_=_26.68
# Concentracion g/m^3_=_15000.0
# C_Vs_to_Am_M_A/Vsm_=_65563218390.804596
# pendiente_HvsI_1/m_=_3716.3
# ordenada_HvsI_A/m_=_1297.0
# frecuencia_Hz_=_301607.0955805732

Tiempo_(s)	Campo_(V.s)	Magnetizacion_(V.s)	Campo_(kA/m)	Magnetizacion_(A/m)
0.000000e+00	-5.442927e-06	-9.804907e-09	-3.833616e+01	-6.398166e+02
1.000000e-08	-5.440514e-06	-9.801279e-09	-3.831916e+01	-6.395540e+02
2.000000e-08	-5.436259e-06	-9.795147e-09	-3.828919e+01	-6.391827e+02
3.000000e-08	-5.430344e-06	-9.788760e-09	-3.824753e+01	-6.387086e+02
4.000000e-08	-5.422879e-06	-9.780700e-09	-3.819496e+01	-6.381315e+02
5.000000e-08	-5.413653e-06	-9.769266e-09	-3.812998e+01	-6.374461e+02
6.000000e-08	-5.402343e-06	-9.753532e-09	-3.805031e+01	-6.366432e+02
7.000000e-08	-5.389029e-06	-9.733754e-09	-3.795654e+01	-6.357136e+02
8.000000e-08	-5.373635e-06	-9.740196e-09	-3.784812e+01	-6.346521e+02
9.000000e-08	-5.356042e-06	-9.739444e-09	-3.772420e+01	-6.334602e+02
1.000000e-07	-5.336383e-06	-9.698580e-09	-3.758574e+01	-6.321487e+02
1.100000e-07	-5.314754e-06	-9.671791e-09	-3.743340e+01	-6.307366e+02
1.200000e-07	-5.291336e-06	-9.625095e-09	-3.726846e+01	-6.292489e+02
1.300000e-07	-5.266242e-06	-9.561215e-09	-3.709171e+01	-6.277115e+02
1.400000e-07	-5.239534e-06	-9.622561e-09	-3.690360e+01	-6.261458e+02
1.500000e-07	-5.211293e-06	-9.579283e-09	-3.670469e+01	-6.245632e+02
1.600000e-07	-5.181555e-06	-9.489711e-09	-3.649524e+01	-6.229614e+02
1.700000e-07	-5.150210e-06	-9.547489e-09	-3.627447e+01	-6.213231e+02
1.800000e-07	-5.116827e-06	-9.456335e-09	-3.603934e+01	-6.196180e+02
1.900000e-07	-5.081555e-06	-9.400119e-09	-3.579091e+01	-6.178073e+02
2.000000e-07	-5.044739e-06	-9.458133e-09	-3.553160e+01	-6.158503e+02
2.100000e-07	-5.006200e-06	-9.364327e-09	-3.526016e+01	-6.137109e+02
2.200000e-07	-4.965845e-06	-9.308734e-09	-3.497593e+01	-6.113638e+02
2.300000e-07	-4.923540e-06	-9.310586e-09	-3.467796e+01	-6.087983e+02
2.400000e-07	-4.879292e-06	-9.239067e-09	-3.436631e+01	-6.060189e+02
2.500000e-07	-4.833234e-06	-9.199845e-09	-3.404191e+01	-6.030433e+02
2.600000e-07	-4.785192e-06	-9.149313e-09	-3.370354e+01	-5.998981e+02
2.700000e-07	-4.734993e-06	-9.103190e-09	-3.334997e+01	-5.966123e+02
2.800000e-07	-4.682767e-06	-9.044634e-09	-3.298212e+01	-5.932119e+02
2.900000e-07	-4.628765e-06	-8.972319e-09	-3.260178e+01	-5.897153e+02
3.000000e-07	-4.573105e-06	-8.929536e-09	-3.220974e+01	-5.861305e+02
3.100000e-07	-4.515667e-06	-8.881995e-09	-3.180519e+01	-5.824554e+02
3.200000e-07	-4.456457e-06	-8.835751e-09	-3.138816e+01	-5.786797e+02
3.300000e-07	-4.395657e-06	-8.758220e-09	-3.095992e+01	-5.747885e+02
3.400000e-07	-4.333366e-06	-8.692730e-09	-3.052119e+01	-5.707663e+02
3.500000e-07	-4.269679e-06	-8.647757e-09	-3.007263e+01	-5.666005e+02
3.600000e-07	-4.204434e-06	-8.564787e-09	-2.961309e+01	-5.622836e+02
3.700000e-07	-4.137461e-06	-8.493524e-09	-2.914137e+01	-5.578138e+02
3.800000e-07	-4.068963e-06	-8.432486e-09	-2.865892e+01	-5.531937e+02
3.900000e-07	-3.999141e-06	-8.353315e-09	-2.816714e+01	-5.484287e+02
4.000000e-07	-3.928063e-06	-8.273294e-09	-2.766652e+01	-5.435240e+02
4.100000e-07	-3.855667e-06	-8.199607e-09	-2.715661e+01	-5.384831e+02
4.200000e-07	-3.781668e-06	-8.134021e-09	-2.663542e+01	-5.333060e+02
4.300000e-07	-3.706059e-06	-8.041950e-09	-2.610288e+01	-5.279892e+02
4.400000e-07	-3.629030e-06	-7.947837e-09	-2.556034e+01	-5.225269e+02
4.500000e-07	-3.550484e-06	-7.861130e-09	-2.500712e+01	-5.169119e+02
4.600000e-07	-3.470454e-06	-7.778872e-09	-2.444344e+01	-5.111382e+02
4.700000e-07	-3.389189e-06	-7.696259e-09	-2.387107e+01	-5.052014e+02
4.800000e-07	-3.306796e-06	-7.599713e-09	-2.329075e+01	-4.991003e+02
4.900000e-07	-3.223336e-06	-7.508614e-09	-2.270292e+01	-4.928360e+02
5.000000e-07	-3.138848e-06	-7.407828e-09	-2.210784e+01	-4.864116e+02
5.100000e-07	-3.053352e-06	-7.300823e-09	-2.150567e+01	-4.798304e+02
5.200000e-07	-2.966917e-06	-7.196101e-09	-2.089688e+01	-4.730946e+02
5.300000e-07	-2.879590e-06	-7.095770e-09	-2.028181e+01	-4.662043e+02
5.400000e-07	-2.791276e-06	-6.987143e-09	-1.965979e+01	-4.591569e+02
5.500000e-07	-2.701699e-06	-6.867528e-09	-1.902888e+01	-4.519474e+02
5.600000e-07	-2.610913e-06	-6.753169e-09	-1.838944e+01	-4.445688e+02
5.700000e-07	-2.519169e-06	-6.643380e-09	-1.774326e+01	-4.370135e+02
5.800000e-07	-2.426558e-06	-6.530046e-09	-1.709097e+01	-4.292743e+02
5.900000e-07	-2.333122e-06	-6.406631e-09	-1.643287e+01	-4.213453e+02
6.000000e-07	-2.238860e-06	-6.280377e-09	-1.576896e+01	-4.132226e+02
6.100000e-07	-2.143914e-06	-6.153064e-09	-1.510022e+01	-4.049040e+02
6.200000e-07	-2.048322e-06	-6.023779e-09	-1.442694e+01	-3.963890e+02
6.300000e-07	-1.951893e-06	-5.890211e-09	-1.374776e+01	-3.876774e+02
6.400000e-07	-1.854476e-06	-5.752561e-09	-1.306163e+01	-3.787689e+02
6.500000e-07	-1.756208e-06	-5.610981e-09	-1.236949e+01	-3.696618e+02
6.600000e-07	-1.657299e-06	-5.464376e-09	-1.167285e+01	-3.603527e+02
6.700000e-07	-1.557823e-06	-5.319728e-09	-1.097221e+01	-3.508359e+02
6.800000e-07	-1.457885e-06	-5.176087e-09	-1.026832e+01	-3.411037e+02
6.900000e-07	-1.357518e-06	-5.027022e-09	-9.561408e+00	-3.311474e+02
7.000000e-07	-1.256730e-06	-4.869589e-09	-8.851524e+00	-3.209576e+02
7.100000e-07	-1.155576e-06	-4.706676e-09	-8.139068e+00	-3.105257e+02
7.200000e-07	-1.054059e-06	-4.539495e-09	-7.424055e+00	-2.998454e+02
7.300000e-07	-9.521595e-07	-4.369590e-09	-6.706344e+00	-2.889130e+02
7.400000e-07	-8.498996e-07	-4.197273e-09	-5.986097e+00	-2.777287e+02
7.500000e-07	-7.473518e-07	-4.020848e-09	-5.263822e+00	-2.662960e+02
7.600000e-07	-6.445718e-07	-3.840515e-09	-4.539912e+00	-2.546211e+02
7.700000e-07	-5.416363e-07	-3.657250e-09	-3.814906e+00	-2.427118e+02
7.800000e-07	-4.385810e-07	-3.472448e-09	-3.089057e+00	-2.305747e+02
7.900000e-07	-3.353717e-07	-3.285369e-09	-2.362123e+00	-2.182142e+02
8.000000e-07	-2.321012e-07	-3.094217e-09	-1.634758e+00	-2.056298e+02
8.100000e-07	-1.287769e-07	-2.897669e-09	-9.070142e-01	-1.928150e+02
8.200000e-07	-2.535551e-08	-2.698371e-09	-1.785864e-01	-1.797574e+02
8.300000e-07	7.811351e-08	-2.496845e-09	5.501768e-01	-1.664396e+02
8.400000e-07	1.815866e-07	-2.291432e-09	1.278969e+00	-1.528410e+02
8.500000e-07	2.849601e-07	-2.079552e-09	2.007059e+00	-1.389407e+02
8.600000e-07	3.882329e-07	-1.862772e-09	2.734440e+00	-1.247203e+02
8.700000e-07	4.914236e-07	-1.641705e-09	3.461243e+00	-1.101665e+02
8.800000e-07	5.945080e-07	-1.414401e-09	4.187297e+00	-9.527234e+01
8.900000e-07	6.974611e-07	-1.181301e-09	4.912427e+00	-8.003721e+01
9.000000e-07	8.001996e-07	-9.413069e-10	5.636045e+00	-6.446550e+01
9.100000e-07	9.026841e-07	-6.967447e-10	6.357874e+00	-4.856426e+01
9.200000e-07	1.004902e-06	-4.485969e-10	7.077825e+00	-3.234042e+01
9.300000e-07	1.106732e-06	-1.963539e-10	7.795042e+00	-1.579865e+01
9.400000e-07	1.208117e-06	5.983784e-11	8.509129e+00	1.059583e+00
9.500000e-07	1.309106e-06	3.207159e-10	9.220423e+00	1.823515e+01
9.600000e-07	1.409663e-06	5.854108e-10	9.928678e+00	3.572849e+01
9.700000e-07	1.509774e-06	8.531281e-10	1.063379e+01	5.353538e+01
9.800000e-07	1.609395e-06	1.124271e-09	1.133545e+01	7.164208e+01
9.900000e-07	1.708454e-06	1.400715e-09	1.203315e+01	9.002090e+01
1.000000e-06	1.806817e-06	1.681936e-09	1.272595e+01	1.086274e+02
1.010000e-06	1.904335e-06	1.965455e-09	1.341280e+01	1.274000e+02
1.020000e-06	2.000927e-06	2.251309e-09	1.409312e+01	1.462621e+02
1.030000e-06	2.096673e-06	2.539954e-09	1.476749e+01	1.651274e+02
1.040000e-06	2.191667e-06	2.827268e-09	1.543656e+01	1.839059e+02
1.050000e-06	2.285917e-06	3.107915e-09	1.610039e+01	2.025114e+02
1.060000e-06	2.379428e-06	3.382062e-09	1.675902e+01	2.208675e+02
1.070000e-06	2.472181e-06	3.652947e-09	1.741231e+01	2.389120e+02
1.080000e-06	2.564178e-06	3.920474e-09	1.806027e+01	2.565984e+02
1.090000e-06	2.655402e-06	4.181950e-09	1.870279e+01	2.738948e+02
1.100000e-06	2.745674e-06	4.437344e-09	1.933860e+01	2.907807e+02
1.110000e-06	2.834714e-06	4.688010e-09	1.996573e+01	3.072422e+02
1.120000e-06	2.922540e-06	4.933400e-09	2.058432e+01	3.232680e+02
1.130000e-06	3.009420e-06	5.171857e-09	2.119624e+01	3.388454e+02
1.140000e-06	3.095365e-06	5.403292e-09	2.180158e+01	3.539594e+02
1.150000e-06	3.180255e-06	5.626821e-09	2.239948e+01	3.685929e+02
1.160000e-06	3.264201e-06	5.841229e-09	2.299074e+01	3.827292e+02
1.170000e-06	3.347220e-06	6.046041e-09	2.357547e+01	3.963554e+02
1.180000e-06	3.428984e-06	6.242071e-09	2.415136e+01	4.094650e+02
1.190000e-06	3.509365e-06	6.431429e-09	2.471751e+01	4.220601e+02
1.200000e-06	3.588487e-06	6.612583e-09	2.527479e+01	4.341514e+02
1.210000e-06	3.666361e-06	6.786916e-09	2.582327e+01	4.457566e+02
1.220000e-06	3.743014e-06	6.957715e-09	2.636317e+01	4.568971e+02
1.230000e-06	3.818302e-06	7.124455e-09	2.689344e+01	4.675943e+02
1.240000e-06	3.891891e-06	7.285222e-09	2.741175e+01	4.778658e+02
1.250000e-06	3.963834e-06	7.438065e-09	2.791846e+01	4.877232e+02
1.260000e-06	4.034342e-06	7.581743e-09	2.841507e+01	4.971716e+02
1.270000e-06	4.103439e-06	7.715920e-09	2.890174e+01	5.062108e+02
1.280000e-06	4.171191e-06	7.843688e-09	2.937895e+01	5.148383e+02
1.290000e-06	4.237456e-06	7.966204e-09	2.984567e+01	5.230529e+02
1.300000e-06	4.302007e-06	8.083904e-09	3.030032e+01	5.308577e+02
1.310000e-06	4.364999e-06	8.195151e-09	3.074399e+01	5.382627e+02
1.320000e-06	4.426577e-06	8.300876e-09	3.117770e+01	5.452850e+02
1.330000e-06	4.486772e-06	8.402783e-09	3.160167e+01	5.519483e+02
1.340000e-06	4.545441e-06	8.500025e-09	3.201490e+01	5.582796e+02
1.350000e-06	4.602292e-06	8.593062e-09	3.241532e+01	5.643065e+02
1.360000e-06	4.657395e-06	8.678669e-09	3.280342e+01	5.700539e+02
1.370000e-06	4.710863e-06	8.759246e-09	3.318001e+01	5.755412e+02
1.380000e-06	4.762476e-06	8.838551e-09	3.354354e+01	5.807821e+02
1.390000e-06	4.811971e-06	8.915622e-09	3.389215e+01	5.857837e+02
1.400000e-06	4.859553e-06	8.989014e-09	3.422728e+01	5.905491e+02
1.410000e-06	4.905480e-06	9.056955e-09	3.455076e+01	5.950786e+02
1.420000e-06	4.949821e-06	9.120495e-09	3.486307e+01	5.993717e+02
1.430000e-06	4.992445e-06	9.182176e-09	3.516328e+01	6.034293e+02
1.440000e-06	5.033116e-06	9.242435e-09	3.544974e+01	6.072534e+02
1.450000e-06	5.072002e-06	9.300012e-09	3.572362e+01	6.108477e+02
1.460000e-06	5.109252e-06	9.351350e-09	3.598599e+01	6.142168e+02
1.470000e-06	5.144897e-06	9.395770e-09	3.623705e+01	6.173651e+02
1.480000e-06	5.178704e-06	9.435626e-09	3.647516e+01	6.202964e+02
1.490000e-06	5.210521e-06	9.472635e-09	3.669925e+01	6.230141e+02
1.500000e-06	5.240563e-06	9.508359e-09	3.691085e+01	6.255211e+02
1.510000e-06	5.268958e-06	9.542385e-09	3.711084e+01	6.278211e+02
1.520000e-06	5.295470e-06	9.573668e-09	3.729757e+01	6.299192e+02
1.530000e-06	5.319885e-06	9.601388e-09	3.746954e+01	6.318223e+02
1.540000e-06	5.342315e-06	9.625696e-09	3.762752e+01	6.335389e+02
1.550000e-06	5.362973e-06	9.647992e-09	3.777302e+01	6.350780e+02
1.560000e-06	5.381858e-06	9.667303e-09	3.790603e+01	6.364484e+02
1.570000e-06	5.398706e-06	9.682989e-09	3.802469e+01	6.376567e+02
1.580000e-06	5.413504e-06	9.696487e-09	3.812892e+01	6.387067e+02
1.590000e-06	5.426356e-06	9.708718e-09	3.821945e+01	6.395994e+02
1.600000e-06	5.437067e-06	9.719968e-09	3.829488e+01	6.403332e+02
1.610000e-06	5.445619e-06	9.729440e-09	3.835512e+01	6.409064e+02
1.620000e-06	5.452185e-06	9.736600e-09	3.840136e+01	6.413183e+02
1.630000e-06	5.456881e-06	9.742190e-09	3.843444e+01	6.415713e+02
1.640000e-06	5.459704e-06	9.746539e-09	3.845432e+01	6.416722e+02
1.650000e-06	5.460510e-06	9.749016e-09	3.846000e+01	6.416311e+02
1.660000e-06	5.459406e-06	9.746996e-09	3.845222e+01	6.414608e+02
1.670000e-06	5.456596e-06	9.742870e-09	3.843243e+01	6.411738e+02
1.680000e-06	5.452116e-06	9.734855e-09	3.840088e+01	6.407797e+02
1.690000e-06	5.445775e-06	9.723592e-09	3.835622e+01	6.402832e+02
1.700000e-06	5.437541e-06	9.713397e-09	3.829822e+01	6.396831e+02
1.710000e-06	5.427672e-06	9.704885e-09	3.822872e+01	6.389729e+02
1.720000e-06	5.416186e-06	9.701606e-09	3.814782e+01	6.381431e+02
1.730000e-06	5.402794e-06	9.671724e-09	3.805349e+01	6.371851e+02
1.740000e-06	5.387270e-06	9.629543e-09	3.794415e+01	6.360947e+02
1.750000e-06	5.369388e-06	9.629148e-09	3.781820e+01	6.348756e+02
1.760000e-06	5.348848e-06	9.610596e-09	3.767353e+01	6.335402e+02
1.770000e-06	5.325916e-06	9.623246e-09	3.751202e+01	6.321092e+02
1.780000e-06	5.301515e-06	9.628259e-09	3.734015e+01	6.306083e+02
1.790000e-06	5.276311e-06	9.508966e-09	3.716264e+01	6.290629e+02
1.800000e-06	5.249833e-06	9.536965e-09	3.697614e+01	6.274926e+02
1.810000e-06	5.221200e-06	9.535943e-09	3.677447e+01	6.259062e+02
1.820000e-06	5.190632e-06	9.443757e-09	3.655917e+01	6.242980e+02
1.830000e-06	5.158385e-06	9.534739e-09	3.633205e+01	6.226478e+02
1.840000e-06	5.124197e-06	9.474417e-09	3.609125e+01	6.209231e+02
1.850000e-06	5.088362e-06	9.369908e-09	3.583885e+01	6.190841e+02
1.860000e-06	5.050814e-06	9.449392e-09	3.557439e+01	6.170903e+02
1.870000e-06	5.011296e-06	9.364559e-09	3.529605e+01	6.149076e+02
1.880000e-06	4.970068e-06	9.302516e-09	3.500567e+01	6.125136e+02
1.890000e-06	4.927073e-06	9.322255e-09	3.470284e+01	6.099009e+02
1.900000e-06	4.882318e-06	9.239773e-09	3.438762e+01	6.070771e+02
1.910000e-06	4.835765e-06	9.226877e-09	3.405974e+01	6.040624e+02
1.920000e-06	4.787264e-06	9.141557e-09	3.371813e+01	6.008842e+02
1.930000e-06	4.737042e-06	9.102423e-09	3.336440e+01	5.975713e+02
1.940000e-06	4.684975e-06	9.112000e-09	3.299768e+01	5.941487e+02
1.950000e-06	4.630872e-06	9.003504e-09	3.261661e+01	5.906324e+02
1.960000e-06	4.574855e-06	8.954700e-09	3.222207e+01	5.870284e+02
1.970000e-06	4.517109e-06	8.879555e-09	3.181535e+01	5.833324e+02
1.980000e-06	4.457886e-06	8.837516e-09	3.139822e+01	5.795328e+02
1.990000e-06	4.397084e-06	8.795047e-09	3.096998e+01	5.756143e+02
2.000000e-06	4.334559e-06	8.693427e-09	3.052959e+01	5.715618e+02
2.010000e-06	4.270438e-06	8.685433e-09	3.007797e+01	5.673636e+02
2.020000e-06	4.204842e-06	8.593124e-09	2.961596e+01	5.630135e+02
2.030000e-06	4.137832e-06	8.501044e-09	2.914398e+01	5.585107e+02
2.040000e-06	4.069238e-06	8.455674e-09	2.866086e+01	5.538586e+02
2.050000e-06	3.999039e-06	8.384285e-09	2.816642e+01	5.490628e+02
2.060000e-06	3.927420e-06	8.316972e-09	2.766199e+01	5.441283e+02
2.070000e-06	3.854469e-06	8.204322e-09	2.714818e+01	5.390579e+02
2.080000e-06	3.780178e-06	8.147229e-09	2.662492e+01	5.338508e+02
2.090000e-06	3.704471e-06	8.084437e-09	2.609169e+01	5.285030e+02
2.100000e-06	3.627224e-06	7.993819e-09	2.554762e+01	5.230080e+02
2.110000e-06	3.548419e-06	7.900256e-09	2.499258e+01	5.173591e+02
2.120000e-06	3.468298e-06	7.801873e-09	2.442826e+01	5.115502e+02
2.130000e-06	3.387036e-06	7.723000e-09	2.385591e+01	5.055778e+02
2.140000e-06	3.304642e-06	7.609968e-09	2.327558e+01	4.994411e+02
2.150000e-06	3.221169e-06	7.523229e-09	2.268766e+01	4.931418e+02
2.160000e-06	3.136627e-06	7.442463e-09	2.209220e+01	4.866831e+02
2.170000e-06	3.050806e-06	7.341108e-09	2.148774e+01	4.800682e+02
2.180000e-06	2.963667e-06	7.225393e-09	2.087399e+01	4.732989e+02
2.190000e-06	2.875432e-06	7.114942e-09	2.025253e+01	4.663748e+02
2.200000e-06	2.786259e-06	7.024620e-09	1.962446e+01	4.592927e+02
2.210000e-06	2.696162e-06	6.913991e-09	1.898988e+01	4.520472e+02
2.220000e-06	2.605163e-06	6.796721e-09	1.834894e+01	4.446309e+02
2.230000e-06	2.513309e-06	6.679647e-09	1.770199e+01	4.370364e+02
2.240000e-06	2.420543e-06	6.564983e-09	1.704860e+01	4.292565e+02
2.250000e-06	2.326805e-06	6.440086e-09	1.638838e+01	4.212858e+02
2.260000e-06	2.232146e-06	6.315084e-09	1.572167e+01	4.131208e+02
2.270000e-06	2.136580e-06	6.194216e-09	1.504857e+01	4.047597e+02
2.280000e-06	2.040180e-06	6.065241e-09	1.436960e+01	3.962021e+02
2.290000e-06	1.943103e-06	5.927934e-09	1.368586e+01	3.874479e+02
2.300000e-06	1.845453e-06	5.791080e-09	1.299808e+01	3.784966e+02
2.310000e-06	1.747251e-06	5.659548e-09	1.230641e+01	3.693461e+02
2.320000e-06	1.648497e-06	5.516454e-09	1.161085e+01	3.599926e+02
2.330000e-06	1.549229e-06	5.365016e-09	1.091168e+01	3.504299e+02
2.340000e-06	1.449533e-06	5.214166e-09	1.020949e+01	3.406501e+02
2.350000e-06	1.349465e-06	5.066052e-09	9.504682e+00	3.306440e+02
2.360000e-06	1.249031e-06	4.915147e-09	8.797296e+00	3.204026e+02
2.370000e-06	1.148167e-06	4.758681e-09	8.086886e+00	3.099175e+02
2.380000e-06	1.046828e-06	4.595109e-09	7.373121e+00	2.991828e+02
2.390000e-06	9.449847e-07	4.425755e-09	6.655809e+00	2.881959e+02
2.400000e-06	8.426844e-07	4.255220e-09	5.935278e+00	2.769575e+02
2.410000e-06	7.399975e-07	4.082821e-09	5.212023e+00	2.654719e+02
2.420000e-06	6.369814e-07	3.907610e-09	4.486450e+00	2.537457e+02
2.430000e-06	5.337990e-07	3.727386e-09	3.759706e+00	2.417866e+02
2.440000e-06	4.304163e-07	3.543062e-09	3.031551e+00	2.296010e+02
2.450000e-06	3.268149e-07	3.353864e-09	2.301855e+00	2.171923e+02
2.460000e-06	2.231108e-07	3.160987e-09	1.571436e+00	2.045588e+02
2.470000e-06	1.193123e-07	2.966015e-09	8.403523e-01	1.916927e+02
2.480000e-06	1.542950e-08	2.765462e-09	1.086746e-01	1.785806e+02
2.490000e-06	-8.848080e-08	2.558801e-09	-6.231967e-01	1.652040e+02
2.500000e-06	-1.923759e-07	2.349012e-09	-1.354961e+00	1.515420e+02
2.510000e-06	-2.962245e-07	2.135447e-09	-2.086398e+00	1.375740e+02
2.520000e-06	-3.999917e-07	1.917243e-09	-2.817261e+00	1.232827e+02
2.530000e-06	-5.036265e-07	1.696012e-09	-3.547192e+00	1.086558e+02
2.540000e-06	-6.070493e-07	1.472520e-09	-4.275630e+00	9.368802e+01
2.550000e-06	-7.102249e-07	1.242580e-09	-5.002326e+00	7.837982e+01
2.560000e-06	-8.131350e-07	1.002418e-09	-5.727153e+00	6.273643e+01
2.570000e-06	-9.156477e-07	7.577457e-10	-6.449180e+00	4.676508e+01
2.580000e-06	-1.017651e-06	5.101815e-10	-7.167623e+00	3.047238e+01
2.590000e-06	-1.119129e-06	2.558325e-10	-7.882358e+00	1.386233e+01
2.600000e-06	-1.220072e-06	-5.032522e-12	-8.593329e+00	-3.064230e+00
2.610000e-06	-1.320477e-06	-2.685237e-10	-9.300517e+00	-2.030838e+01
2.620000e-06	-1.420398e-06	-5.355868e-10	-1.000429e+01	-3.786996e+01
2.630000e-06	-1.519911e-06	-8.095543e-10	-1.070518e+01	-5.574312e+01
2.640000e-06	-1.618992e-06	-1.088491e-09	-1.140304e+01	-7.391144e+01
2.650000e-06	-1.717523e-06	-1.372829e-09	-1.209703e+01	-9.234384e+01
2.660000e-06	-1.815383e-06	-1.662891e-09	-1.278629e+01	-1.109921e+02
2.670000e-06	-1.912593e-06	-1.954365e-09	-1.347096e+01	-1.297912e+02
2.680000e-06	-2.009195e-06	-2.242598e-09	-1.415136e+01	-1.486620e+02
2.690000e-06	-2.105218e-06	-2.529708e-09	-1.482768e+01	-1.675166e+02
2.700000e-06	-2.200599e-06	-2.817428e-09	-1.549947e+01	-1.862655e+02
2.710000e-06	-2.295126e-06	-3.104926e-09	-1.616526e+01	-2.048240e+02
2.720000e-06	-2.388668e-06	-3.387875e-09	-1.682410e+01	-2.231185e+02
2.730000e-06	-2.481161e-06	-3.664028e-09	-1.747556e+01	-2.410901e+02
2.740000e-06	-2.572699e-06	-3.935291e-09	-1.812029e+01	-2.586956e+02
2.750000e-06	-2.663317e-06	-4.199214e-09	-1.875853e+01	-2.759059e+02
2.760000e-06	-2.752945e-06	-4.457218e-09	-1.938981e+01	-2.927023e+02
2.770000e-06	-2.841683e-06	-4.709178e-09	-2.001482e+01	-3.090719e+02
2.780000e-06	-2.929601e-06	-4.952595e-09	-2.063405e+01	-3.250032e+02
2.790000e-06	-3.016603e-06	-5.187486e-09	-2.124683e+01	-3.404831e+02
2.800000e-06	-3.102429e-06	-5.415404e-09	-2.185133e+01	-3.554960e+02
2.810000e-06	-3.186996e-06	-5.638308e-09	-2.244696e+01	-3.700247e+02
2.820000e-06	-3.270471e-06	-5.853934e-09	-2.303490e+01	-3.840531e+02
2.830000e-06	-3.352896e-06	-6.062359e-09	-2.361545e+01	-3.975693e+02
2.840000e-06	-3.434187e-06	-6.262917e-09	-2.418801e+01	-4.105686e+02
2.850000e-06	-3.514372e-06	-6.454841e-09	-2.475277e+01	-4.230550e+02
2.860000e-06	-3.593342e-06	-6.639203e-09	-2.530898e+01	-4.350409e+02
2.870000e-06	-3.670778e-06	-6.816004e-09	-2.585438e+01	-4.465451e+02
2.880000e-06	-3.746672e-06	-6.985287e-09	-2.638893e+01	-4.575894e+02
2.890000e-06	-3.821137e-06	-7.146233e-09	-2.691341e+01	-4.681945e+02
2.900000e-06	-3.894214e-06	-7.299843e-09	-2.742811e+01	-4.783770e+02
2.910000e-06	-3.965966e-06	-7.448448e-09	-2.793348e+01	-4.881469e+02
2.920000e-06	-4.036192e-06	-7.591237e-09	-2.842810e+01	-4.975082e+02
2.930000e-06	-4.104761e-06	-7.728426e-09	-2.891106e+01	-5.064599e+02
2.940000e-06	-4.171856e-06	-7.861146e-09	-2.938363e+01	-5.149994e+02
