# Temperatura_=_76.61
# Concentracion g/m^3_=_15000.0
# C_Vs_to_Am_M_A/Vsm_=_65563218390.804596
# pendiente_HvsI_1/m_=_3716.3
# ordenada_HvsI_A/m_=_1297.0
# frecuencia_Hz_=_301595.7267004608

Tiempo_(s)	Campo_(V.s)	Magnetizacion_(V.s)	Campo_(kA/m)	Magnetizacion_(A/m)
0.000000e+00	-5.409368e-06	-9.488373e-09	-3.834253e+01	-6.197351e+02
1.000000e-08	-5.406932e-06	-9.484602e-09	-3.832526e+01	-6.194821e+02
2.000000e-08	-5.402712e-06	-9.477382e-09	-3.829535e+01	-6.191229e+02
3.000000e-08	-5.396799e-06	-9.469666e-09	-3.825343e+01	-6.186558e+02
4.000000e-08	-5.389289e-06	-9.458557e-09	-3.820020e+01	-6.180739e+02
5.000000e-08	-5.380000e-06	-9.443284e-09	-3.813436e+01	-6.173666e+02
6.000000e-08	-5.368617e-06	-9.426562e-09	-3.805367e+01	-6.165235e+02
7.000000e-08	-5.355364e-06	-9.407942e-09	-3.795974e+01	-6.155378e+02
8.000000e-08	-5.340063e-06	-9.409306e-09	-3.785128e+01	-6.144095e+02
9.000000e-08	-5.322497e-06	-9.435395e-09	-3.772677e+01	-6.131467e+02
1.000000e-07	-5.302851e-06	-9.408503e-09	-3.758752e+01	-6.117651e+02
1.100000e-07	-5.281303e-06	-9.354649e-09	-3.743478e+01	-6.102857e+02
1.200000e-07	-5.258055e-06	-9.304529e-09	-3.726999e+01	-6.087304e+02
1.300000e-07	-5.233159e-06	-9.214149e-09	-3.709353e+01	-6.071177e+02
1.400000e-07	-5.206602e-06	-9.252337e-09	-3.690529e+01	-6.054583e+02
1.500000e-07	-5.178484e-06	-9.293561e-09	-3.670598e+01	-6.037523e+02
1.600000e-07	-5.148868e-06	-9.166125e-09	-3.649606e+01	-6.019887e+02
1.700000e-07	-5.117725e-06	-9.202083e-09	-3.627531e+01	-6.001467e+02
1.800000e-07	-5.084554e-06	-9.186029e-09	-3.604019e+01	-5.981993e+02
1.900000e-07	-5.049428e-06	-9.035578e-09	-3.579121e+01	-5.961176e+02
2.000000e-07	-5.012858e-06	-9.081586e-09	-3.553199e+01	-5.938758e+02
2.100000e-07	-4.974527e-06	-9.035630e-09	-3.526030e+01	-5.914546e+02
2.200000e-07	-4.934304e-06	-8.924851e-09	-3.497519e+01	-5.888438e+02
2.300000e-07	-4.892169e-06	-8.961168e-09	-3.467653e+01	-5.860427e+02
2.400000e-07	-4.848089e-06	-8.919634e-09	-3.436408e+01	-5.830589e+02
2.500000e-07	-4.802275e-06	-8.846119e-09	-3.403935e+01	-5.799053e+02
2.600000e-07	-4.754594e-06	-8.806777e-09	-3.370138e+01	-5.765974e+02
2.700000e-07	-4.704770e-06	-8.729789e-09	-3.334822e+01	-5.731499e+02
2.800000e-07	-4.652834e-06	-8.681229e-09	-3.298008e+01	-5.695745e+02
2.900000e-07	-4.599014e-06	-8.623083e-09	-3.259860e+01	-5.658788e+02
3.000000e-07	-4.543657e-06	-8.566159e-09	-3.220622e+01	-5.620660e+02
3.100000e-07	-4.486624e-06	-8.529690e-09	-3.180196e+01	-5.581358e+02
3.200000e-07	-4.427718e-06	-8.474337e-09	-3.138442e+01	-5.540853e+02
3.300000e-07	-4.367262e-06	-8.387125e-09	-3.095590e+01	-5.499105e+02
3.400000e-07	-4.305383e-06	-8.300829e-09	-3.051729e+01	-5.456073e+02
3.500000e-07	-4.242099e-06	-8.257340e-09	-3.006872e+01	-5.411720e+02
3.600000e-07	-4.177191e-06	-8.184537e-09	-2.960865e+01	-5.366016e+02
3.700000e-07	-4.110568e-06	-8.102976e-09	-2.913641e+01	-5.318937e+02
3.800000e-07	-4.042467e-06	-8.050140e-09	-2.865370e+01	-5.270463e+02
3.900000e-07	-3.972977e-06	-7.967782e-09	-2.816114e+01	-5.220577e+02
4.000000e-07	-3.902219e-06	-7.873284e-09	-2.765960e+01	-5.169265e+02
4.100000e-07	-3.830198e-06	-7.788104e-09	-2.714910e+01	-5.116517e+02
4.200000e-07	-3.756668e-06	-7.714240e-09	-2.662790e+01	-5.062328e+02
4.300000e-07	-3.681579e-06	-7.633619e-09	-2.609566e+01	-5.006702e+02
4.400000e-07	-3.605048e-06	-7.542862e-09	-2.555320e+01	-4.949645e+02
4.500000e-07	-3.527034e-06	-7.456061e-09	-2.500022e+01	-4.891168e+02
4.600000e-07	-3.447534e-06	-7.368736e-09	-2.443671e+01	-4.831279e+02
4.700000e-07	-3.366728e-06	-7.273435e-09	-2.386394e+01	-4.769979e+02
4.800000e-07	-3.284778e-06	-7.168650e-09	-2.328307e+01	-4.707261e+02
4.900000e-07	-3.201777e-06	-7.072978e-09	-2.269474e+01	-4.643105e+02
5.000000e-07	-3.117776e-06	-6.977096e-09	-2.209933e+01	-4.577486e+02
5.100000e-07	-3.032795e-06	-6.867512e-09	-2.149697e+01	-4.510373e+02
5.200000e-07	-2.946843e-06	-6.759786e-09	-2.088773e+01	-4.441738e+02
5.300000e-07	-2.859906e-06	-6.655335e-09	-2.027151e+01	-4.371555e+02
5.400000e-07	-2.772011e-06	-6.545232e-09	-1.964849e+01	-4.299805e+02
5.500000e-07	-2.683105e-06	-6.428757e-09	-1.901831e+01	-4.226473e+02
5.600000e-07	-2.592995e-06	-6.309570e-09	-1.837959e+01	-4.151543e+02
5.700000e-07	-2.501751e-06	-6.195602e-09	-1.773284e+01	-4.074994e+02
5.800000e-07	-2.409641e-06	-6.080315e-09	-1.707995e+01	-3.996798e+02
5.900000e-07	-2.316754e-06	-5.959497e-09	-1.642155e+01	-3.916918e+02
6.000000e-07	-2.223095e-06	-5.832861e-09	-1.575768e+01	-3.835309e+02
6.100000e-07	-2.128678e-06	-5.700666e-09	-1.508843e+01	-3.751925e+02
6.200000e-07	-2.033528e-06	-5.565959e-09	-1.441399e+01	-3.666727e+02
6.300000e-07	-1.937668e-06	-5.430743e-09	-1.373452e+01	-3.579685e+02
6.400000e-07	-1.841074e-06	-5.297862e-09	-1.304985e+01	-3.490782e+02
6.500000e-07	-1.743665e-06	-5.162917e-09	-1.235940e+01	-3.400009e+02
6.600000e-07	-1.645431e-06	-5.020103e-09	-1.166309e+01	-3.307358e+02
6.700000e-07	-1.546534e-06	-4.871957e-09	-1.096210e+01	-3.212813e+02
6.800000e-07	-1.447130e-06	-4.724730e-09	-1.025751e+01	-3.116337e+02
6.900000e-07	-1.347258e-06	-4.575481e-09	-9.549597e+00	-3.017873e+02
7.000000e-07	-1.247006e-06	-4.422683e-09	-8.838989e+00	-2.917340e+02
7.100000e-07	-1.146452e-06	-4.263174e-09	-8.126247e+00	-2.814643e+02
7.200000e-07	-1.045610e-06	-4.095878e-09	-7.411463e+00	-2.709690e+02
7.300000e-07	-9.443629e-07	-3.926727e-09	-6.693806e+00	-2.602406e+02
7.400000e-07	-8.427235e-07	-3.758620e-09	-5.973369e+00	-2.492750e+02
7.500000e-07	-7.407964e-07	-3.588993e-09	-5.250892e+00	-2.380720e+02
7.600000e-07	-6.386074e-07	-3.412734e-09	-4.526559e+00	-2.266345e+02
7.700000e-07	-5.362623e-07	-3.231045e-09	-3.801119e+00	-2.149675e+02
7.800000e-07	-4.337881e-07	-3.049156e-09	-3.074764e+00	-2.030755e+02
7.900000e-07	-3.312079e-07	-2.866841e-09	-2.347658e+00	-1.909598e+02
8.000000e-07	-2.285300e-07	-2.680694e-09	-1.619860e+00	-1.786160e+02
8.100000e-07	-1.257519e-07	-2.489183e-09	-8.913511e-01	-1.660332e+02
8.200000e-07	-2.289048e-08	-2.292337e-09	-1.622516e-01	-1.531940e+02
8.300000e-07	8.000321e-08	-2.090529e-09	5.670765e-01	-1.400758e+02
8.400000e-07	1.828891e-07	-1.885785e-09	1.296349e+00	-1.266542e+02
8.500000e-07	2.857764e-07	-1.677933e-09	2.025632e+00	-1.129061e+02
8.600000e-07	3.886086e-07	-1.465078e-09	2.754524e+00	-9.881241e+01
8.700000e-07	4.912910e-07	-1.244008e-09	3.482355e+00	-8.436008e+01
8.800000e-07	5.938678e-07	-1.016062e-09	4.209437e+00	-6.954253e+01
8.900000e-07	6.963138e-07	-7.833993e-10	4.935592e+00	-5.435842e+01
9.000000e-07	7.985256e-07	-5.458727e-10	5.660086e+00	-3.880948e+01
9.100000e-07	9.004369e-07	-3.042599e-10	6.382451e+00	-2.289809e+01
9.200000e-07	1.001975e-06	-5.741567e-11	7.102174e+00	-6.625588e+00
9.300000e-07	1.103134e-06	1.960881e-10	7.819203e+00	1.000794e+01
9.400000e-07	1.203920e-06	4.564139e-10	8.533592e+00	2.700184e+01
9.500000e-07	1.304351e-06	7.200859e-10	9.245461e+00	4.435126e+01
9.600000e-07	1.404414e-06	9.868987e-10	9.954723e+00	6.204234e+01
9.700000e-07	1.503985e-06	1.259072e-09	1.066051e+01	8.004727e+01
9.800000e-07	1.602932e-06	1.536289e-09	1.136186e+01	9.832055e+01
9.900000e-07	1.701181e-06	1.814575e-09	1.205827e+01	1.167976e+02
1.000000e-06	1.798690e-06	2.092196e-09	1.274942e+01	1.353961e+02
1.010000e-06	1.895372e-06	2.371548e-09	1.343472e+01	1.540207e+02
1.020000e-06	1.991249e-06	2.652023e-09	1.411431e+01	1.725695e+02
1.030000e-06	2.086430e-06	2.931771e-09	1.478898e+01	1.909423e+02
1.040000e-06	2.180921e-06	3.208362e-09	1.545874e+01	2.090477e+02
1.050000e-06	2.274661e-06	3.477426e-09	1.612319e+01	2.268096e+02
1.060000e-06	2.367610e-06	3.738457e-09	1.678203e+01	2.441696e+02
1.070000e-06	2.459803e-06	3.993513e-09	1.743551e+01	2.610875e+02
1.080000e-06	2.551255e-06	4.243493e-09	1.808373e+01	2.775388e+02
1.090000e-06	2.641875e-06	4.486402e-09	1.872606e+01	2.935102e+02
1.100000e-06	2.731419e-06	4.720821e-09	1.936077e+01	3.089947e+02
1.110000e-06	2.819738e-06	4.946149e-09	1.998679e+01	3.239876e+02
1.120000e-06	2.906983e-06	5.163875e-09	2.060520e+01	3.384839e+02
1.130000e-06	2.993316e-06	5.375802e-09	2.121714e+01	3.524782e+02
1.140000e-06	3.078737e-06	5.582483e-09	2.182261e+01	3.659654e+02
1.150000e-06	3.163172e-06	5.781061e-09	2.242110e+01	3.789439e+02
1.160000e-06	3.246632e-06	5.969877e-09	2.301268e+01	3.914173e+02
1.170000e-06	3.329038e-06	6.150822e-09	2.359679e+01	4.033958e+02
1.180000e-06	3.410247e-06	6.324668e-09	2.417242e+01	4.148968e+02
1.190000e-06	3.490155e-06	6.493071e-09	2.473881e+01	4.259422e+02
1.200000e-06	3.568727e-06	6.655358e-09	2.529575e+01	4.365553e+02
1.210000e-06	3.646064e-06	6.811884e-09	2.584393e+01	4.467575e+02
1.220000e-06	3.722162e-06	6.962791e-09	2.638332e+01	4.565646e+02
1.230000e-06	3.796827e-06	7.107630e-09	2.691256e+01	4.659854e+02
1.240000e-06	3.869818e-06	7.247005e-09	2.742993e+01	4.750217e+02
1.250000e-06	3.941238e-06	7.380555e-09	2.793617e+01	4.836707e+02
1.260000e-06	4.011293e-06	7.505157e-09	2.843273e+01	4.919283e+02
1.270000e-06	4.080008e-06	7.621630e-09	2.891979e+01	4.997935e+02
1.280000e-06	4.147390e-06	7.732087e-09	2.939741e+01	5.072720e+02
1.290000e-06	4.213238e-06	7.837108e-09	2.986415e+01	5.143780e+02
1.300000e-06	4.277372e-06	7.938734e-09	3.031875e+01	5.211342e+02
1.310000e-06	4.339935e-06	8.037273e-09	3.076220e+01	5.275700e+02
1.320000e-06	4.401034e-06	8.132632e-09	3.119528e+01	5.337177e+02
1.330000e-06	4.460758e-06	8.224765e-09	3.161861e+01	5.396080e+02
1.340000e-06	4.519003e-06	8.314094e-09	3.203147e+01	5.452664e+02
1.350000e-06	4.575430e-06	8.397553e-09	3.243143e+01	5.507106e+02
1.360000e-06	4.630070e-06	8.473080e-09	3.281873e+01	5.559492e+02
1.370000e-06	4.683070e-06	8.544089e-09	3.319441e+01	5.609830e+02
1.380000e-06	4.734255e-06	8.614213e-09	3.355721e+01	5.658075e+02
1.390000e-06	4.783348e-06	8.684082e-09	3.390519e+01	5.704157e+02
1.400000e-06	4.830553e-06	8.750762e-09	3.423978e+01	5.748014e+02
1.410000e-06	4.876146e-06	8.812974e-09	3.456295e+01	5.789609e+02
1.420000e-06	4.920189e-06	8.871700e-09	3.487514e+01	5.828940e+02
1.430000e-06	4.962533e-06	8.928948e-09	3.517528e+01	5.866040e+02
1.440000e-06	5.002955e-06	8.984726e-09	3.546180e+01	5.900958e+02
1.450000e-06	5.041647e-06	9.036690e-09	3.573606e+01	5.933749e+02
1.460000e-06	5.078650e-06	9.082388e-09	3.599834e+01	5.964460e+02
1.470000e-06	5.113916e-06	9.120911e-09	3.624832e+01	5.993123e+02
1.480000e-06	5.147318e-06	9.156801e-09	3.648507e+01	6.019763e+02
1.490000e-06	5.178808e-06	9.191331e-09	3.670828e+01	6.044406e+02
1.500000e-06	5.208589e-06	9.222247e-09	3.691937e+01	6.067090e+02
1.510000e-06	5.236750e-06	9.251223e-09	3.711898e+01	6.087878e+02
1.520000e-06	5.263026e-06	9.279519e-09	3.730523e+01	6.106859e+02
1.530000e-06	5.287172e-06	9.307541e-09	3.747638e+01	6.124140e+02
1.540000e-06	5.309350e-06	9.334249e-09	3.763358e+01	6.139831e+02
1.550000e-06	5.329761e-06	9.356363e-09	3.777826e+01	6.154027e+02
1.560000e-06	5.348425e-06	9.373276e-09	3.791055e+01	6.166789e+02
1.570000e-06	5.365124e-06	9.386508e-09	3.802892e+01	6.178136e+02
1.580000e-06	5.379823e-06	9.397675e-09	3.813311e+01	6.188047e+02
1.590000e-06	5.392583e-06	9.408027e-09	3.822355e+01	6.196472e+02
1.600000e-06	5.403137e-06	9.417349e-09	3.829836e+01	6.203357e+02
1.610000e-06	5.411484e-06	9.425564e-09	3.835753e+01	6.208668e+02
1.620000e-06	5.417886e-06	9.432127e-09	3.840290e+01	6.212410e+02
1.630000e-06	5.422473e-06	9.439109e-09	3.843542e+01	6.214636e+02
1.640000e-06	5.425218e-06	9.446137e-09	3.845488e+01	6.215443e+02
1.650000e-06	5.425941e-06	9.450212e-09	3.846000e+01	6.214952e+02
1.660000e-06	5.424748e-06	9.447799e-09	3.845154e+01	6.213281e+02
1.670000e-06	5.421861e-06	9.439321e-09	3.843108e+01	6.210517e+02
1.680000e-06	5.417349e-06	9.429436e-09	3.839910e+01	6.206693e+02
1.690000e-06	5.411003e-06	9.419118e-09	3.835411e+01	6.201779e+02
1.700000e-06	5.402794e-06	9.410416e-09	3.829593e+01	6.195696e+02
1.710000e-06	5.392980e-06	9.403056e-09	3.822636e+01	6.188336e+02
1.720000e-06	5.381532e-06	9.399467e-09	3.814522e+01	6.179599e+02
1.730000e-06	5.368220e-06	9.387747e-09	3.805086e+01	6.169430e+02
1.740000e-06	5.352798e-06	9.320399e-09	3.794155e+01	6.157844e+02
1.750000e-06	5.335016e-06	9.293046e-09	3.781551e+01	6.144942e+02
1.760000e-06	5.314597e-06	9.297951e-09	3.767077e+01	6.130893e+02
1.770000e-06	5.291715e-06	9.298753e-09	3.750858e+01	6.115914e+02
1.780000e-06	5.267346e-06	9.347769e-09	3.733585e+01	6.100220e+02
1.790000e-06	5.242244e-06	9.238144e-09	3.715792e+01	6.083983e+02
1.800000e-06	5.215924e-06	9.163874e-09	3.697136e+01	6.067288e+02
1.810000e-06	5.187503e-06	9.241383e-09	3.676991e+01	6.050114e+02
1.820000e-06	5.157168e-06	9.127523e-09	3.655489e+01	6.032326e+02
1.830000e-06	5.125142e-06	9.115837e-09	3.632788e+01	6.013700e+02
1.840000e-06	5.091125e-06	9.192190e-09	3.608677e+01	5.993958e+02
1.850000e-06	5.055485e-06	9.065649e-09	3.583414e+01	5.972814e+02
1.860000e-06	5.018179e-06	9.091016e-09	3.556971e+01	5.950020e+02
1.870000e-06	4.978886e-06	9.078427e-09	3.529120e+01	5.925402e+02
1.880000e-06	4.937827e-06	8.917352e-09	3.500017e+01	5.898880e+02
1.890000e-06	4.894921e-06	8.952418e-09	3.469604e+01	5.870465e+02
1.900000e-06	4.850356e-06	8.893029e-09	3.438016e+01	5.840246e+02
1.910000e-06	4.804090e-06	8.830896e-09	3.405221e+01	5.808362e+02
1.920000e-06	4.755751e-06	8.842626e-09	3.370958e+01	5.774968e+02
1.930000e-06	4.705775e-06	8.712831e-09	3.335534e+01	5.740205e+02
1.940000e-06	4.654155e-06	8.721596e-09	3.298945e+01	5.704184e+02
1.950000e-06	4.600446e-06	8.673872e-09	3.260875e+01	5.666971e+02
1.960000e-06	4.544701e-06	8.543972e-09	3.221362e+01	5.628589e+02
1.970000e-06	4.487170e-06	8.509713e-09	3.180583e+01	5.589027e+02
1.980000e-06	4.428184e-06	8.441522e-09	3.138773e+01	5.548255e+02
1.990000e-06	4.367801e-06	8.411342e-09	3.095972e+01	5.506231e+02
2.000000e-06	4.305774e-06	8.321981e-09	3.052006e+01	5.462914e+02
2.010000e-06	4.242062e-06	8.255784e-09	3.006846e+01	5.418270e+02
2.020000e-06	4.176807e-06	8.213229e-09	2.960593e+01	5.372268e+02
2.030000e-06	4.110074e-06	8.076141e-09	2.913291e+01	5.324888e+02
2.040000e-06	4.041920e-06	8.033686e-09	2.864982e+01	5.276109e+02
2.050000e-06	3.972349e-06	7.987383e-09	2.815669e+01	5.225914e+02
2.060000e-06	3.901199e-06	7.910631e-09	2.765237e+01	5.174291e+02
2.070000e-06	3.828576e-06	7.816801e-09	2.713760e+01	5.121229e+02
2.080000e-06	3.754701e-06	7.702216e-09	2.661397e+01	5.066728e+02
2.090000e-06	3.679461e-06	7.645510e-09	2.608065e+01	5.010789e+02
2.100000e-06	3.602747e-06	7.549281e-09	2.553689e+01	4.953423e+02
2.110000e-06	3.524436e-06	7.454811e-09	2.498181e+01	4.894639e+02
2.120000e-06	3.444684e-06	7.373258e-09	2.441651e+01	4.834443e+02
2.130000e-06	3.363813e-06	7.284847e-09	2.384328e+01	4.772836e+02
2.140000e-06	3.281836e-06	7.184883e-09	2.326221e+01	4.709807e+02
2.150000e-06	3.198795e-06	7.078460e-09	2.267360e+01	4.645336e+02
2.160000e-06	3.114736e-06	6.997823e-09	2.207778e+01	4.579395e+02
2.170000e-06	3.029554e-06	6.892150e-09	2.147400e+01	4.511954e+02
2.180000e-06	2.943025e-06	6.777883e-09	2.086067e+01	4.442985e+02
2.190000e-06	2.855268e-06	6.665022e-09	2.023863e+01	4.372463e+02
2.200000e-06	2.766533e-06	6.564288e-09	1.960966e+01	4.300371e+02
2.210000e-06	2.676877e-06	6.463633e-09	1.897416e+01	4.226693e+02
2.220000e-06	2.586287e-06	6.341879e-09	1.833204e+01	4.151414e+02
2.230000e-06	2.494826e-06	6.220821e-09	1.768376e+01	4.074511e+02
2.240000e-06	2.402606e-06	6.097330e-09	1.703008e+01	3.995954e+02
2.250000e-06	2.309578e-06	5.978583e-09	1.637069e+01	3.915702e+02
2.260000e-06	2.215702e-06	5.860355e-09	1.570528e+01	3.833712e+02
2.270000e-06	2.120871e-06	5.740099e-09	1.503310e+01	3.749938e+02
2.280000e-06	2.025025e-06	5.609534e-09	1.435372e+01	3.664343e+02
2.290000e-06	1.928383e-06	5.466846e-09	1.366871e+01	3.576899e+02
2.300000e-06	1.831228e-06	5.325024e-09	1.298006e+01	3.487592e+02
2.310000e-06	1.733593e-06	5.190529e-09	1.228800e+01	3.396413e+02
2.320000e-06	1.635339e-06	5.055903e-09	1.159156e+01	3.303353e+02
2.330000e-06	1.536526e-06	4.911641e-09	1.089116e+01	3.208394e+02
2.340000e-06	1.437279e-06	4.764697e-09	1.018768e+01	3.111494e+02
2.350000e-06	1.337623e-06	4.612557e-09	9.481299e+00	3.012589e+02
2.360000e-06	1.237607e-06	4.461264e-09	8.772369e+00	2.911596e+02
2.370000e-06	1.137299e-06	4.308999e-09	8.061368e+00	2.808418e+02
2.380000e-06	1.036656e-06	4.149182e-09	7.347993e+00	2.702967e+02
2.390000e-06	9.356209e-07	3.983876e-09	6.631841e+00	2.595173e+02
2.400000e-06	8.341759e-07	3.815895e-09	5.912781e+00	2.485003e+02
2.410000e-06	7.323486e-07	3.649022e-09	5.191012e+00	2.372462e+02
2.420000e-06	6.301891e-07	3.477467e-09	4.466888e+00	2.257586e+02
2.430000e-06	5.277566e-07	3.298727e-09	3.740829e+00	2.140427e+02
2.440000e-06	4.251620e-07	3.116804e-09	3.013621e+00	2.021024e+02
2.450000e-06	3.223812e-07	2.931452e-09	2.285093e+00	1.899379e+02
2.460000e-06	2.193908e-07	2.741397e-09	1.555080e+00	1.775437e+02
2.470000e-06	1.162581e-07	2.551636e-09	8.240574e-01	1.649072e+02
2.480000e-06	1.305460e-08	2.356752e-09	9.253324e-02	1.520097e+02
2.490000e-06	-9.015941e-08	2.152658e-09	-6.390653e-01	1.388281e+02
2.500000e-06	-1.933102e-07	1.943205e-09	-1.370216e+00	1.253380e+02
2.510000e-06	-2.963532e-07	1.731486e-09	-2.100602e+00	1.115169e+02
2.520000e-06	-3.992918e-07	1.518136e-09	-2.830249e+00	9.734674e+01
2.530000e-06	-5.021217e-07	1.299274e-09	-3.559125e+00	8.281606e+01
2.540000e-06	-6.047749e-07	1.076096e-09	-4.286748e+00	6.791950e+01
2.550000e-06	-7.071775e-07	8.466004e-10	-5.012595e+00	5.265657e+01
2.560000e-06	-8.092369e-07	6.058751e-10	-5.736010e+00	3.702934e+01
2.570000e-06	-9.109156e-07	3.571002e-10	-6.456725e+00	2.104008e+01
2.580000e-06	-1.012219e-06	1.061649e-10	-7.174785e+00	4.689795e+00
2.590000e-06	-1.113035e-06	-1.478131e-10	-7.889382e+00	-1.202152e+01
2.600000e-06	-1.213301e-06	-4.085048e-10	-8.600086e+00	-2.909267e+01
2.610000e-06	-1.313139e-06	-6.745736e-10	-9.307755e+00	-4.651732e+01
2.620000e-06	-1.412600e-06	-9.454767e-10	-1.001275e+01	-6.427898e+01
2.630000e-06	-1.511646e-06	-1.221433e-09	-1.071481e+01	-8.234633e+01
2.640000e-06	-1.610169e-06	-1.502250e-09	-1.141316e+01	-1.006698e+02
2.650000e-06	-1.708052e-06	-1.787750e-09	-1.210696e+01	-1.191807e+02
2.660000e-06	-1.805349e-06	-2.075617e-09	-1.279662e+01	-1.377936e+02
2.670000e-06	-1.902140e-06	-2.362550e-09	-1.348270e+01	-1.564111e+02
2.680000e-06	-1.998364e-06	-2.646558e-09	-1.416475e+01	-1.749308e+02
2.690000e-06	-2.093881e-06	-2.927699e-09	-1.484179e+01	-1.932540e+02
2.700000e-06	-2.188541e-06	-3.206205e-09	-1.551276e+01	-2.112921e+02
2.710000e-06	-2.282247e-06	-3.480047e-09	-1.617696e+01	-2.289726e+02
2.720000e-06	-2.375020e-06	-3.745653e-09	-1.683455e+01	-2.462410e+02
2.730000e-06	-2.466866e-06	-4.003146e-09	-1.748557e+01	-2.630610e+02
2.740000e-06	-2.557856e-06	-4.251869e-09	-1.813052e+01	-2.794108e+02
2.750000e-06	-2.647950e-06	-4.492529e-09	-1.876912e+01	-2.952787e+02
2.760000e-06	-2.737099e-06	-4.727856e-09	-1.940103e+01	-3.106587e+02
2.770000e-06	-2.825433e-06	-4.958710e-09	-2.002715e+01	-3.255460e+02
2.780000e-06	-2.912976e-06	-5.182601e-09	-2.064767e+01	-3.399357e+02
2.790000e-06	-2.999462e-06	-5.396958e-09	-2.126070e+01	-3.538221e+02
2.800000e-06	-3.084657e-06	-5.603922e-09	-2.186457e+01	-3.672008e+02
2.810000e-06	-3.168677e-06	-5.802287e-09	-2.246013e+01	-3.800709e+02
2.820000e-06	-3.251664e-06	-5.990808e-09	-2.304835e+01	-3.924375e+02
2.830000e-06	-3.333598e-06	-6.171555e-09	-2.362912e+01	-4.043126e+02
2.840000e-06	-3.414522e-06	-6.344293e-09	-2.420271e+01	-4.157144e+02
2.850000e-06	-3.494341e-06	-6.508732e-09	-2.476849e+01	-4.266656e+02
2.860000e-06	-3.572705e-06	-6.665276e-09	-2.532395e+01	-4.371895e+02
2.870000e-06	-3.649450e-06	-6.818015e-09	-2.586792e+01	-4.473063e+02
2.880000e-06	-3.724731e-06	-6.969191e-09	-2.640153e+01	-4.570306e+02
2.890000e-06	-3.798676e-06	-7.114599e-09	-2.692566e+01	-4.663695e+02
2.900000e-06	-3.871280e-06	-7.254186e-09	-2.744029e+01	-4.753236e+02
2.910000e-06	-3.942537e-06	-7.389266e-09	-2.794538e+01	-4.838894e+02
2.920000e-06	-4.012192e-06	-7.515073e-09	-2.843910e+01	-4.920633e+02
2.930000e-06	-4.080239e-06	-7.630666e-09	-2.892144e+01	-4.998453e+02
2.940000e-06	-4.146912e-06	-7.740562e-09	-2.939402e+01	-5.072429e+02
