# Temperatura_=_37.9
# Concentracion g/m^3_=_15000.0
# C_Vs_to_Am_M_A/Vsm_=_65563218390.804596
# pendiente_HvsI_1/m_=_3716.3
# ordenada_HvsI_A/m_=_1297.0
# frecuencia_Hz_=_301597.33075459994

Tiempo_(s)	Campo_(V.s)	Magnetizacion_(V.s)	Campo_(kA/m)	Magnetizacion_(A/m)
0.000000e+00	-5.406455e-06	-8.181063e-09	-3.833731e+01	-5.342130e+02
1.000000e-08	-5.404060e-06	-8.177656e-09	-3.832033e+01	-5.339908e+02
2.000000e-08	-5.399831e-06	-8.171348e-09	-3.829034e+01	-5.336922e+02
3.000000e-08	-5.393985e-06	-8.166109e-09	-3.824889e+01	-5.333241e+02
4.000000e-08	-5.386536e-06	-8.158051e-09	-3.819606e+01	-5.328848e+02
5.000000e-08	-5.377311e-06	-8.146105e-09	-3.813065e+01	-5.323645e+02
6.000000e-08	-5.366053e-06	-8.131948e-09	-3.805082e+01	-5.317482e+02
7.000000e-08	-5.352867e-06	-8.111790e-09	-3.795732e+01	-5.310206e+02
8.000000e-08	-5.337651e-06	-8.112058e-09	-3.784942e+01	-5.301711e+02
9.000000e-08	-5.320160e-06	-8.145849e-09	-3.772539e+01	-5.291980e+02
1.000000e-07	-5.300569e-06	-8.124440e-09	-3.758647e+01	-5.281109e+02
1.100000e-07	-5.279076e-06	-8.078672e-09	-3.743407e+01	-5.269299e+02
1.200000e-07	-5.255837e-06	-8.041178e-09	-3.726927e+01	-5.256823e+02
1.300000e-07	-5.230970e-06	-7.936237e-09	-3.709294e+01	-5.243972e+02
1.400000e-07	-5.204489e-06	-7.983513e-09	-3.690517e+01	-5.230986e+02
1.500000e-07	-5.176438e-06	-8.057253e-09	-3.670626e+01	-5.217998e+02
1.600000e-07	-5.146881e-06	-7.911803e-09	-3.649667e+01	-5.204993e+02
1.700000e-07	-5.115785e-06	-7.945214e-09	-3.627616e+01	-5.191800e+02
1.800000e-07	-5.082659e-06	-7.938768e-09	-3.604126e+01	-5.178114e+02
1.900000e-07	-5.047613e-06	-7.787012e-09	-3.579276e+01	-5.163550e+02
2.000000e-07	-5.011077e-06	-7.878439e-09	-3.553368e+01	-5.147710e+02
2.100000e-07	-4.972794e-06	-7.866314e-09	-3.526221e+01	-5.130251e+02
2.200000e-07	-4.932655e-06	-7.735874e-09	-3.497759e+01	-5.110945e+02
2.300000e-07	-4.890580e-06	-7.752862e-09	-3.467923e+01	-5.089710e+02
2.400000e-07	-4.846561e-06	-7.726110e-09	-3.436709e+01	-5.066610e+02
2.500000e-07	-4.800790e-06	-7.680210e-09	-3.404253e+01	-5.041830e+02
2.600000e-07	-4.753112e-06	-7.646142e-09	-3.370444e+01	-5.015625e+02
2.700000e-07	-4.703309e-06	-7.577367e-09	-3.335129e+01	-4.988262e+02
2.800000e-07	-4.651481e-06	-7.540605e-09	-3.298377e+01	-4.959970e+02
2.900000e-07	-4.597826e-06	-7.488364e-09	-3.260330e+01	-4.930898e+02
3.000000e-07	-4.542530e-06	-7.453580e-09	-3.221120e+01	-4.901098e+02
3.100000e-07	-4.485526e-06	-7.433138e-09	-3.180698e+01	-4.870538e+02
3.200000e-07	-4.426679e-06	-7.391395e-09	-3.138970e+01	-4.839120e+02
3.300000e-07	-4.366198e-06	-7.320221e-09	-3.096082e+01	-4.806718e+02
3.400000e-07	-4.304277e-06	-7.242257e-09	-3.052174e+01	-4.773216e+02
3.500000e-07	-4.241028e-06	-7.220269e-09	-3.007324e+01	-4.738528e+02
3.600000e-07	-4.176286e-06	-7.171090e-09	-2.961415e+01	-4.702618e+02
3.700000e-07	-4.109796e-06	-7.094845e-09	-2.914267e+01	-4.665492e+02
3.800000e-07	-4.041704e-06	-7.046605e-09	-2.865983e+01	-4.627185e+02
3.900000e-07	-3.972238e-06	-6.987086e-09	-2.816724e+01	-4.587743e+02
4.000000e-07	-3.901547e-06	-6.921451e-09	-2.766597e+01	-4.547199e+02
4.100000e-07	-3.829653e-06	-6.855553e-09	-2.715617e+01	-4.505558e+02
4.200000e-07	-3.756342e-06	-6.801556e-09	-2.663632e+01	-4.462797e+02
4.300000e-07	-3.681376e-06	-6.729903e-09	-2.610473e+01	-4.418864e+02
4.400000e-07	-3.604863e-06	-6.646310e-09	-2.556218e+01	-4.373696e+02
4.500000e-07	-3.526869e-06	-6.578513e-09	-2.500912e+01	-4.327232e+02
4.600000e-07	-3.447384e-06	-6.516919e-09	-2.444549e+01	-4.279426e+02
4.700000e-07	-3.366634e-06	-6.448798e-09	-2.387289e+01	-4.230257e+02
4.800000e-07	-3.284755e-06	-6.362962e-09	-2.329228e+01	-4.179728e+02
4.900000e-07	-3.201772e-06	-6.281728e-09	-2.270385e+01	-4.127861e+02
5.000000e-07	-3.117743e-06	-6.204147e-09	-2.210800e+01	-4.074683e+02
5.100000e-07	-3.032782e-06	-6.117847e-09	-2.150554e+01	-4.020214e+02
5.200000e-07	-2.946892e-06	-6.029386e-09	-2.089648e+01	-3.964456e+02
5.300000e-07	-2.860023e-06	-5.941746e-09	-2.028050e+01	-3.907389e+02
5.400000e-07	-2.772208e-06	-5.850382e-09	-1.965780e+01	-3.848975e+02
5.500000e-07	-2.683346e-06	-5.755632e-09	-1.902768e+01	-3.789158e+02
5.600000e-07	-2.593323e-06	-5.660296e-09	-1.838932e+01	-3.727880e+02
5.700000e-07	-2.502254e-06	-5.569775e-09	-1.774355e+01	-3.665086e+02
5.800000e-07	-2.410261e-06	-5.474613e-09	-1.709122e+01	-3.600737e+02
5.900000e-07	-2.317442e-06	-5.372472e-09	-1.643304e+01	-3.534810e+02
6.000000e-07	-2.223815e-06	-5.268020e-09	-1.576913e+01	-3.467301e+02
6.100000e-07	-2.129399e-06	-5.161412e-09	-1.509962e+01	-3.398216e+02
6.200000e-07	-2.034299e-06	-5.054862e-09	-1.442527e+01	-3.327567e+02
6.300000e-07	-1.938495e-06	-4.942521e-09	-1.374592e+01	-3.255363e+02
6.400000e-07	-1.841880e-06	-4.827161e-09	-1.306082e+01	-3.181605e+02
6.500000e-07	-1.744465e-06	-4.711490e-09	-1.237005e+01	-3.106282e+02
6.600000e-07	-1.646359e-06	-4.592741e-09	-1.167437e+01	-3.029363e+02
6.700000e-07	-1.547609e-06	-4.472093e-09	-1.097413e+01	-2.950806e+02
6.800000e-07	-1.448270e-06	-4.351008e-09	-1.026972e+01	-2.870551e+02
6.900000e-07	-1.348486e-06	-4.227236e-09	-9.562149e+00	-2.788529e+02
7.000000e-07	-1.248313e-06	-4.099020e-09	-8.851822e+00	-2.704659e+02
7.100000e-07	-1.147731e-06	-3.968764e-09	-8.138591e+00	-2.618854e+02
7.200000e-07	-1.046822e-06	-3.833588e-09	-7.423039e+00	-2.531025e+02
7.300000e-07	-9.456031e-07	-3.694326e-09	-6.705296e+00	-2.441083e+02
7.400000e-07	-8.440375e-07	-3.552151e-09	-5.985092e+00	-2.348949e+02
7.500000e-07	-7.421584e-07	-3.406063e-09	-5.262664e+00	-2.254553e+02
7.600000e-07	-6.399931e-07	-3.255917e-09	-4.538208e+00	-2.157841e+02
7.700000e-07	-5.376374e-07	-3.103321e-09	-3.812401e+00	-2.058775e+02
7.800000e-07	-4.351816e-07	-2.949689e-09	-3.085884e+00	-1.957332e+02
7.900000e-07	-3.326251e-07	-2.792555e-09	-2.358653e+00	-1.853500e+02
8.000000e-07	-2.299687e-07	-2.628717e-09	-1.630714e+00	-1.747270e+02
8.100000e-07	-1.271936e-07	-2.460577e-09	-9.019330e-01	-1.638629e+02
8.200000e-07	-2.432488e-08	-2.290467e-09	-1.724884e-01	-1.527552e+02
8.300000e-07	7.853774e-08	-2.116727e-09	5.569132e-01	-1.413996e+02
8.400000e-07	1.813843e-07	-1.938791e-09	1.286200e+00	-1.297901e+02
8.500000e-07	2.841721e-07	-1.755202e-09	2.015072e+00	-1.179188e+02
8.600000e-07	3.868617e-07	-1.570307e-09	2.743246e+00	-1.057765e+02
8.700000e-07	4.895033e-07	-1.382847e-09	3.471081e+00	-9.335337e+01
8.800000e-07	5.920418e-07	-1.189026e-09	4.198183e+00	-8.063929e+01
8.900000e-07	6.944130e-07	-9.907819e-10	4.924100e+00	-6.762456e+01
9.000000e-07	7.965932e-07	-7.879395e-10	5.648663e+00	-5.430013e+01
9.100000e-07	8.984544e-07	-5.810237e-10	6.370964e+00	-4.065803e+01
9.200000e-07	9.999262e-07	-3.711115e-10	7.090503e+00	-2.669177e+01
9.300000e-07	1.101015e-06	-1.574141e-10	7.807323e+00	-1.239715e+01
9.400000e-07	1.201726e-06	6.340336e-11	8.521472e+00	2.226510e+00
9.500000e-07	1.302049e-06	2.895169e-10	9.232866e+00	1.717469e+01
9.600000e-07	1.401998e-06	5.192703e-10	9.941603e+00	3.243566e+01
9.700000e-07	1.501563e-06	7.549158e-10	1.064762e+01	4.798854e+01
9.800000e-07	1.600629e-06	9.959813e-10	1.135010e+01	6.380162e+01
9.900000e-07	1.699017e-06	1.241143e-09	1.204777e+01	7.983173e+01
1.000000e-06	1.796519e-06	1.488395e-09	1.273916e+01	9.602458e+01
1.010000e-06	1.893147e-06	1.737042e-09	1.342436e+01	1.123164e+02
1.020000e-06	1.988995e-06	1.985299e-09	1.410401e+01	1.286371e+02
1.030000e-06	2.084100e-06	2.233149e-09	1.477841e+01	1.449132e+02
1.040000e-06	2.178506e-06	2.480880e-09	1.544784e+01	1.610724e+02
1.050000e-06	2.272181e-06	2.725308e-09	1.611209e+01	1.770467e+02
1.060000e-06	2.365069e-06	2.964070e-09	1.677077e+01	1.927749e+02
1.070000e-06	2.457245e-06	3.196873e-09	1.742439e+01	2.082044e+02
1.080000e-06	2.548769e-06	3.424716e-09	1.807339e+01	2.232914e+02
1.090000e-06	2.639370e-06	3.647435e-09	1.871584e+01	2.380002e+02
1.100000e-06	2.728729e-06	3.865404e-09	1.934948e+01	2.523022e+02
1.110000e-06	2.816940e-06	4.074951e-09	1.997499e+01	2.661746e+02
1.120000e-06	2.904233e-06	4.276018e-09	2.059399e+01	2.795999e+02
1.130000e-06	2.990629e-06	4.471758e-09	2.120663e+01	2.925653e+02
1.140000e-06	3.075991e-06	4.662771e-09	2.181193e+01	3.050631e+02
1.150000e-06	3.160325e-06	4.846733e-09	2.240995e+01	3.170910e+02
1.160000e-06	3.243814e-06	5.023112e-09	2.300197e+01	3.286522e+02
1.170000e-06	3.326249e-06	5.193677e-09	2.358652e+01	3.397552e+02
1.180000e-06	3.407331e-06	5.357277e-09	2.416147e+01	3.504124e+02
1.190000e-06	3.487130e-06	5.513523e-09	2.472733e+01	3.606384e+02
1.200000e-06	3.565694e-06	5.662323e-09	2.528443e+01	3.704475e+02
1.210000e-06	3.643033e-06	5.805036e-09	2.583284e+01	3.798520e+02
1.220000e-06	3.719138e-06	5.942229e-09	2.637251e+01	3.888601e+02
1.230000e-06	3.793739e-06	6.073871e-09	2.690150e+01	3.974765e+02
1.240000e-06	3.866632e-06	6.198096e-09	2.741839e+01	4.057025e+02
1.250000e-06	3.938051e-06	6.315685e-09	2.792482e+01	4.135391e+02
1.260000e-06	4.008174e-06	6.426905e-09	2.842207e+01	4.209894e+02
1.270000e-06	4.076957e-06	6.532724e-09	2.890981e+01	4.280618e+02
1.280000e-06	4.144373e-06	6.634718e-09	2.938786e+01	4.347719e+02
1.290000e-06	4.210141e-06	6.730786e-09	2.985422e+01	4.411428e+02
1.300000e-06	4.274197e-06	6.822091e-09	3.030844e+01	4.472040e+02
1.310000e-06	4.336764e-06	6.909849e-09	3.075211e+01	4.529885e+02
1.320000e-06	4.397891e-06	6.995176e-09	3.118556e+01	4.585285e+02
1.330000e-06	4.457706e-06	7.077375e-09	3.160971e+01	4.638515e+02
1.340000e-06	4.515988e-06	7.155878e-09	3.202299e+01	4.689767e+02
1.350000e-06	4.572389e-06	7.231581e-09	3.242293e+01	4.739134e+02
1.360000e-06	4.627032e-06	7.302745e-09	3.281040e+01	4.786609e+02
1.370000e-06	4.680029e-06	7.370103e-09	3.318621e+01	4.832110e+02
1.380000e-06	4.731140e-06	7.434946e-09	3.354864e+01	4.875512e+02
1.390000e-06	4.780184e-06	7.498013e-09	3.389641e+01	4.916690e+02
1.400000e-06	4.827367e-06	7.556992e-09	3.423099e+01	4.955556e+02
1.410000e-06	4.872938e-06	7.610778e-09	3.455413e+01	4.992080e+02
1.420000e-06	4.917048e-06	7.661560e-09	3.486691e+01	5.026301e+02
1.430000e-06	4.959426e-06	7.710324e-09	3.516742e+01	5.058312e+02
1.440000e-06	4.999788e-06	7.756039e-09	3.545363e+01	5.088241e+02
1.450000e-06	5.038383e-06	7.797981e-09	3.572730e+01	5.116219e+02
1.460000e-06	5.075377e-06	7.837374e-09	3.598963e+01	5.142359e+02
1.470000e-06	5.110795e-06	7.871945e-09	3.624078e+01	5.166739e+02
1.480000e-06	5.144309e-06	7.901964e-09	3.647843e+01	5.189402e+02
1.490000e-06	5.175873e-06	7.930566e-09	3.670225e+01	5.210369e+02
1.500000e-06	5.205747e-06	7.956588e-09	3.691409e+01	5.229658e+02
1.510000e-06	5.233945e-06	7.981063e-09	3.711404e+01	5.247306e+02
1.520000e-06	5.260253e-06	8.003961e-09	3.730059e+01	5.263381e+02
1.530000e-06	5.284440e-06	8.025100e-09	3.747210e+01	5.277986e+02
1.540000e-06	5.306657e-06	8.043766e-09	3.762964e+01	5.291244e+02
1.550000e-06	5.327138e-06	8.060511e-09	3.777487e+01	5.303279e+02
1.560000e-06	5.345891e-06	8.076309e-09	3.790785e+01	5.314186e+02
1.570000e-06	5.362656e-06	8.090329e-09	3.802673e+01	5.324012e+02
1.580000e-06	5.377385e-06	8.103174e-09	3.813118e+01	5.332741e+02
1.590000e-06	5.390159e-06	8.114369e-09	3.822175e+01	5.340308e+02
1.600000e-06	5.400767e-06	8.123767e-09	3.829698e+01	5.346610e+02
1.610000e-06	5.409134e-06	8.131619e-09	3.835631e+01	5.351551e+02
1.620000e-06	5.415546e-06	8.137953e-09	3.840178e+01	5.355064e+02
1.630000e-06	5.420200e-06	8.143700e-09	3.843478e+01	5.357151e+02
1.640000e-06	5.422995e-06	8.147557e-09	3.845460e+01	5.357882e+02
1.650000e-06	5.423757e-06	8.150241e-09	3.846000e+01	5.357396e+02
1.660000e-06	5.422675e-06	8.148675e-09	3.845233e+01	5.355867e+02
1.670000e-06	5.419933e-06	8.144515e-09	3.843288e+01	5.353468e+02
1.680000e-06	5.415518e-06	8.140722e-09	3.840158e+01	5.350326e+02
1.690000e-06	5.409203e-06	8.132781e-09	3.835680e+01	5.346493e+02
1.700000e-06	5.400971e-06	8.124882e-09	3.829843e+01	5.341933e+02
1.710000e-06	5.391163e-06	8.120290e-09	3.822888e+01	5.336534e+02
1.720000e-06	5.379720e-06	8.120490e-09	3.814774e+01	5.330140e+02
1.730000e-06	5.366372e-06	8.113858e-09	3.805308e+01	5.322606e+02
1.740000e-06	5.350921e-06	8.043172e-09	3.794352e+01	5.313839e+02
1.750000e-06	5.333150e-06	8.024269e-09	3.781750e+01	5.303848e+02
1.760000e-06	5.312730e-06	8.034165e-09	3.767271e+01	5.292751e+02
1.770000e-06	5.289867e-06	8.039814e-09	3.751058e+01	5.280770e+02
1.780000e-06	5.265546e-06	8.116654e-09	3.733812e+01	5.268186e+02
1.790000e-06	5.240514e-06	7.986737e-09	3.716062e+01	5.255285e+02
1.800000e-06	5.214240e-06	7.911596e-09	3.697431e+01	5.242288e+02
1.810000e-06	5.185704e-06	8.005335e-09	3.677196e+01	5.229299e+02
1.820000e-06	5.155232e-06	7.880499e-09	3.655588e+01	5.216269e+02
1.830000e-06	5.123190e-06	7.917842e-09	3.632867e+01	5.202995e+02
1.840000e-06	5.089205e-06	7.998919e-09	3.608768e+01	5.189152e+02
1.850000e-06	5.053553e-06	7.815500e-09	3.583487e+01	5.174343e+02
1.860000e-06	5.016168e-06	7.858592e-09	3.556977e+01	5.158177e+02
1.870000e-06	4.976817e-06	7.884438e-09	3.529074e+01	5.140333e+02
1.880000e-06	4.935827e-06	7.748004e-09	3.500008e+01	5.120611e+02
1.890000e-06	4.893071e-06	7.789477e-09	3.469689e+01	5.098962e+02
1.900000e-06	4.848646e-06	7.723555e-09	3.438188e+01	5.075480e+02
1.910000e-06	4.802495e-06	7.689075e-09	3.405461e+01	5.050368e+02
1.920000e-06	4.754248e-06	7.684538e-09	3.371250e+01	5.023888e+02
1.930000e-06	4.704288e-06	7.566861e-09	3.335822e+01	4.996306e+02
1.940000e-06	4.652601e-06	7.624552e-09	3.299171e+01	4.967833e+02
1.950000e-06	4.598844e-06	7.561878e-09	3.261052e+01	4.938600e+02
1.960000e-06	4.543145e-06	7.444193e-09	3.221556e+01	4.908639e+02
1.970000e-06	4.485710e-06	7.421553e-09	3.180829e+01	4.877900e+02
1.980000e-06	4.426857e-06	7.369833e-09	3.139096e+01	4.846278e+02
1.990000e-06	4.366563e-06	7.369233e-09	3.096341e+01	4.813646e+02
2.000000e-06	4.304534e-06	7.263864e-09	3.052356e+01	4.779891e+02
2.010000e-06	4.240837e-06	7.217191e-09	3.007188e+01	4.744939e+02
2.020000e-06	4.175577e-06	7.201799e-09	2.960912e+01	4.708762e+02
2.030000e-06	4.108892e-06	7.081117e-09	2.913626e+01	4.671375e+02
2.040000e-06	4.040781e-06	7.054968e-09	2.865328e+01	4.632818e+02
2.050000e-06	3.971111e-06	7.012203e-09	2.815925e+01	4.593133e+02
2.060000e-06	3.899953e-06	6.948408e-09	2.765467e+01	4.552351e+02
2.070000e-06	3.827456e-06	6.859754e-09	2.714059e+01	4.510469e+02
2.080000e-06	3.753647e-06	6.779322e-09	2.661721e+01	4.467458e+02
2.090000e-06	3.678406e-06	6.756735e-09	2.608368e+01	4.423262e+02
2.100000e-06	3.601695e-06	6.677619e-09	2.553971e+01	4.377817e+02
2.110000e-06	3.523480e-06	6.592855e-09	2.498509e+01	4.331064e+02
2.120000e-06	3.443897e-06	6.512230e-09	2.442077e+01	4.282963e+02
2.130000e-06	3.363167e-06	6.446452e-09	2.384830e+01	4.233497e+02
2.140000e-06	3.281266e-06	6.368431e-09	2.326754e+01	4.182676e+02
2.150000e-06	3.198267e-06	6.283332e-09	2.267900e+01	4.130522e+02
2.160000e-06	3.114230e-06	6.220372e-09	2.208309e+01	4.077062e+02
2.170000e-06	3.029055e-06	6.133864e-09	2.147911e+01	4.022312e+02
2.180000e-06	2.942650e-06	6.040306e-09	2.086641e+01	3.966272e+02
2.190000e-06	2.855011e-06	5.946820e-09	2.024496e+01	3.908917e+02
2.200000e-06	2.766329e-06	5.870810e-09	1.961611e+01	3.850204e+02
2.210000e-06	2.676739e-06	5.787993e-09	1.898082e+01	3.790074e+02
2.220000e-06	2.586258e-06	5.683213e-09	1.833922e+01	3.728471e+02
2.230000e-06	2.494916e-06	5.581567e-09	1.769151e+01	3.665343e+02
2.240000e-06	2.402759e-06	5.484198e-09	1.703803e+01	3.600653e+02
2.250000e-06	2.309798e-06	5.388168e-09	1.637884e+01	3.534383e+02
2.260000e-06	2.216004e-06	5.283552e-09	1.571374e+01	3.466532e+02
2.270000e-06	2.121238e-06	5.176926e-09	1.504176e+01	3.397106e+02
2.280000e-06	2.025446e-06	5.069800e-09	1.436249e+01	3.326119e+02
2.290000e-06	1.928914e-06	4.958626e-09	1.367798e+01	3.253579e+02
2.300000e-06	1.831856e-06	4.846255e-09	1.298974e+01	3.179483e+02
2.310000e-06	1.734316e-06	4.737035e-09	1.229808e+01	3.103816e+02
2.320000e-06	1.636177e-06	4.622154e-09	1.160217e+01	3.026547e+02
2.330000e-06	1.537426e-06	4.495979e-09	1.090193e+01	2.947627e+02
2.340000e-06	1.438243e-06	4.370381e-09	1.019862e+01	2.866996e+02
2.350000e-06	1.338682e-06	4.246901e-09	9.492629e+00	2.784581e+02
2.360000e-06	1.238783e-06	4.123261e-09	8.784241e+00	2.700300e+02
2.370000e-06	1.138535e-06	3.995148e-09	8.073384e+00	2.614065e+02
2.380000e-06	1.037946e-06	3.858136e-09	7.360100e+00	2.525786e+02
2.390000e-06	9.369763e-07	3.717398e-09	6.644123e+00	2.435377e+02
2.400000e-06	8.355875e-07	3.577518e-09	5.925172e+00	2.342760e+02
2.410000e-06	7.338831e-07	3.437457e-09	5.203984e+00	2.247868e+02
2.420000e-06	6.318368e-07	3.292063e-09	4.480371e+00	2.150650e+02
2.430000e-06	5.294332e-07	3.139893e-09	3.754225e+00	2.051072e+02
2.440000e-06	4.268262e-07	2.985131e-09	3.026636e+00	1.949114e+02
2.450000e-06	3.240541e-07	2.828437e-09	2.297876e+00	1.844765e+02
2.460000e-06	2.210891e-07	2.667062e-09	1.567748e+00	1.738015e+02
2.470000e-06	1.179621e-07	2.504371e-09	8.364724e-01	1.628851e+02
2.480000e-06	1.476332e-08	2.335596e-09	1.046871e-01	1.517243e+02
2.490000e-06	-8.842635e-08	2.159293e-09	-6.270335e-01	1.403144e+02
2.500000e-06	-1.916175e-07	1.981975e-09	-1.358765e+00	1.286491e+02
2.510000e-06	-2.947609e-07	1.804593e-09	-2.090157e+00	1.167202e+02
2.520000e-06	-3.977596e-07	1.623884e-09	-2.820524e+00	1.045182e+02
2.530000e-06	-5.006011e-07	1.433306e-09	-3.549775e+00	9.203312e+01
2.540000e-06	-6.032599e-07	1.235991e-09	-4.277732e+00	7.925501e+01
2.550000e-06	-7.056102e-07	1.035614e-09	-5.003501e+00	6.617424e+01
2.560000e-06	-8.075365e-07	8.283950e-10	-5.726263e+00	5.278197e+01
2.570000e-06	-9.090501e-07	6.146515e-10	-6.446098e+00	3.907048e+01
2.580000e-06	-1.010222e-06	3.975950e-10	-7.163511e+00	2.503371e+01
2.590000e-06	-1.110986e-06	1.769708e-10	-7.878032e+00	1.066809e+01
2.600000e-06	-1.211295e-06	-4.840049e-11	-8.589324e+00	-4.026100e+00
2.610000e-06	-1.311200e-06	-2.775628e-10	-9.297752e+00	-1.904298e+01
2.620000e-06	-1.410652e-06	-5.117050e-10	-1.000297e+01	-3.436901e+01
2.630000e-06	-1.509596e-06	-7.500559e-10	-1.070458e+01	-4.998110e+01
2.640000e-06	-1.608035e-06	-9.930682e-10	-1.140262e+01	-6.584512e+01
2.650000e-06	-1.705931e-06	-1.239588e-09	-1.209680e+01	-8.191543e+01
2.660000e-06	-1.803158e-06	-1.487570e-09	-1.278624e+01	-9.813553e+01
2.670000e-06	-1.899778e-06	-1.736868e-09	-1.347138e+01	-1.144400e+02
2.680000e-06	-1.995921e-06	-1.983684e-09	-1.415313e+01	-1.307577e+02
2.690000e-06	-2.091546e-06	-2.229156e-09	-1.483121e+01	-1.470152e+02
2.700000e-06	-2.186327e-06	-2.473191e-09	-1.550330e+01	-1.631407e+02
2.710000e-06	-2.279939e-06	-2.715681e-09	-1.616710e+01	-1.790675e+02
2.720000e-06	-2.372565e-06	-2.956129e-09	-1.682392e+01	-1.947362e+02
2.730000e-06	-2.464380e-06	-3.192671e-09	-1.747498e+01	-2.100962e+02
2.740000e-06	-2.555360e-06	-3.424489e-09	-1.812012e+01	-2.251053e+02
2.750000e-06	-2.645391e-06	-3.650141e-09	-1.875854e+01	-2.397295e+02
2.760000e-06	-2.734421e-06	-3.870334e-09	-1.938985e+01	-2.539415e+02
2.770000e-06	-2.822673e-06	-4.084364e-09	-2.001564e+01	-2.677198e+02
2.780000e-06	-2.910201e-06	-4.289577e-09	-2.063631e+01	-2.810479e+02
2.790000e-06	-2.996620e-06	-4.485445e-09	-2.124911e+01	-2.939140e+02
2.800000e-06	-3.081755e-06	-4.675229e-09	-2.185281e+01	-3.063115e+02
2.810000e-06	-3.165831e-06	-4.857938e-09	-2.244899e+01	-3.182394e+02
2.820000e-06	-3.248858e-06	-5.031391e-09	-2.303773e+01	-3.297020e+02
2.830000e-06	-3.330761e-06	-5.198163e-09	-2.361851e+01	-3.407087e+02
2.840000e-06	-3.411574e-06	-5.358769e-09	-2.419156e+01	-3.512726e+02
2.850000e-06	-3.491346e-06	-5.512326e-09	-2.475723e+01	-3.614085e+02
2.860000e-06	-3.569715e-06	-5.659827e-09	-2.531294e+01	-3.711304e+02
2.870000e-06	-3.646461e-06	-5.803790e-09	-2.585715e+01	-3.804497e+02
2.880000e-06	-3.721738e-06	-5.943159e-09	-2.639094e+01	-3.893741e+02
2.890000e-06	-3.795546e-06	-6.073707e-09	-2.691432e+01	-3.979071e+02
2.900000e-06	-3.868084e-06	-6.198168e-09	-2.742868e+01	-4.060500e+02
2.910000e-06	-3.939352e-06	-6.320646e-09	-2.793405e+01	-4.138038e+02
2.920000e-06	-4.008979e-06	-6.436266e-09	-2.842777e+01	-4.211726e+02
2.930000e-06	-4.077046e-06	-6.542911e-09	-2.891044e+01	-4.281662e+02
2.940000e-06	-4.143722e-06	-6.644223e-09	-2.938324e+01	-4.348018e+02
