# Temperatura_=_72.9
# Concentracion g/m^3_=_15000.0
# C_Vs_to_Am_M_A/Vsm_=_65563218390.804596
# pendiente_HvsI_1/m_=_3716.3
# ordenada_HvsI_A/m_=_1297.0
# frecuencia_Hz_=_301597.5882388487

Tiempo_(s)	Campo_(V.s)	Magnetizacion_(V.s)	Campo_(kA/m)	Magnetizacion_(A/m)
0.000000e+00	-5.440645e-06	-9.410014e-09	-3.833984e+01	-6.148446e+02
1.000000e-08	-5.438267e-06	-9.407916e-09	-3.832308e+01	-6.145789e+02
2.000000e-08	-5.434018e-06	-9.401557e-09	-3.829314e+01	-6.142084e+02
3.000000e-08	-5.428162e-06	-9.393809e-09	-3.825187e+01	-6.137324e+02
4.000000e-08	-5.420743e-06	-9.383226e-09	-3.819959e+01	-6.131432e+02
5.000000e-08	-5.411479e-06	-9.368577e-09	-3.813431e+01	-6.124283e+02
6.000000e-08	-5.400108e-06	-9.351424e-09	-3.805418e+01	-6.115733e+02
7.000000e-08	-5.386816e-06	-9.335212e-09	-3.796051e+01	-6.105675e+02
8.000000e-08	-5.371500e-06	-9.327658e-09	-3.785258e+01	-6.094072e+02
9.000000e-08	-5.353975e-06	-9.337062e-09	-3.772908e+01	-6.080997e+02
1.000000e-07	-5.334355e-06	-9.318958e-09	-3.759082e+01	-6.066636e+02
1.100000e-07	-5.312786e-06	-9.274053e-09	-3.743883e+01	-6.051268e+02
1.200000e-07	-5.289420e-06	-9.229739e-09	-3.727416e+01	-6.035223e+02
1.300000e-07	-5.264358e-06	-9.170340e-09	-3.709756e+01	-6.018817e+02
1.400000e-07	-5.237639e-06	-9.159378e-09	-3.690927e+01	-6.002283e+02
1.500000e-07	-5.209433e-06	-9.184630e-09	-3.671051e+01	-5.985721e+02
1.600000e-07	-5.179770e-06	-9.123799e-09	-3.650147e+01	-5.969060e+02
1.700000e-07	-5.148511e-06	-9.101101e-09	-3.628119e+01	-5.952062e+02
1.800000e-07	-5.115219e-06	-9.086570e-09	-3.604658e+01	-5.934351e+02
1.900000e-07	-5.079951e-06	-8.987363e-09	-3.579805e+01	-5.915479e+02
2.000000e-07	-5.043190e-06	-8.994330e-09	-3.553900e+01	-5.894992e+02
2.100000e-07	-5.004685e-06	-8.992587e-09	-3.526766e+01	-5.872514e+02
2.200000e-07	-4.964270e-06	-8.896487e-09	-3.498286e+01	-5.847797e+02
2.300000e-07	-4.921915e-06	-8.877751e-09	-3.468439e+01	-5.820759e+02
2.400000e-07	-4.877661e-06	-8.840140e-09	-3.437253e+01	-5.791481e+02
2.500000e-07	-4.831697e-06	-8.747636e-09	-3.404862e+01	-5.760176e+02
2.600000e-07	-4.783770e-06	-8.724216e-09	-3.371089e+01	-5.727135e+02
2.700000e-07	-4.733630e-06	-8.693223e-09	-3.335756e+01	-5.692666e+02
2.800000e-07	-4.681433e-06	-8.626936e-09	-3.298972e+01	-5.657034e+02
2.900000e-07	-4.627416e-06	-8.560336e-09	-3.260907e+01	-5.620417e+02
3.000000e-07	-4.571813e-06	-8.506387e-09	-3.221724e+01	-5.582890e+02
3.100000e-07	-4.514519e-06	-8.450016e-09	-3.181349e+01	-5.544426e+02
3.200000e-07	-4.455384e-06	-8.390893e-09	-3.139677e+01	-5.504922e+02
3.300000e-07	-4.394635e-06	-8.331268e-09	-3.096868e+01	-5.464239e+02
3.400000e-07	-4.332380e-06	-8.254221e-09	-3.052997e+01	-5.422239e+02
3.500000e-07	-4.268696e-06	-8.197307e-09	-3.008120e+01	-5.378816e+02
3.600000e-07	-4.203445e-06	-8.138118e-09	-2.962138e+01	-5.333917e+02
3.700000e-07	-4.136467e-06	-8.057640e-09	-2.914939e+01	-5.287540e+02
3.800000e-07	-4.067947e-06	-7.990733e-09	-2.866653e+01	-5.239721e+02
3.900000e-07	-3.998034e-06	-7.914957e-09	-2.817386e+01	-5.190514e+02
4.000000e-07	-3.926920e-06	-7.827746e-09	-2.767272e+01	-5.139968e+02
4.100000e-07	-3.854572e-06	-7.754742e-09	-2.716289e+01	-5.088106e+02
4.200000e-07	-3.780606e-06	-7.681000e-09	-2.664166e+01	-5.034917e+02
4.300000e-07	-3.705062e-06	-7.595148e-09	-2.610931e+01	-4.980361e+02
4.400000e-07	-3.628090e-06	-7.500870e-09	-2.556689e+01	-4.924379e+02
4.500000e-07	-3.549593e-06	-7.410342e-09	-2.501373e+01	-4.866912e+02
4.600000e-07	-3.469619e-06	-7.323847e-09	-2.445016e+01	-4.807918e+02
4.700000e-07	-3.388393e-06	-7.239343e-09	-2.387777e+01	-4.747383e+02
4.800000e-07	-3.306072e-06	-7.147835e-09	-2.329765e+01	-4.685325e+02
4.900000e-07	-3.222729e-06	-7.049711e-09	-2.271034e+01	-4.621788e+02
5.000000e-07	-3.138393e-06	-6.949865e-09	-2.211604e+01	-4.556826e+02
5.100000e-07	-3.052960e-06	-6.839469e-09	-2.151399e+01	-4.490489e+02
5.200000e-07	-2.966525e-06	-6.731606e-09	-2.090489e+01	-4.422799e+02
5.300000e-07	-2.879195e-06	-6.632010e-09	-2.028949e+01	-4.353744e+02
5.400000e-07	-2.790824e-06	-6.529083e-09	-1.966674e+01	-4.283273e+02
5.500000e-07	-2.701260e-06	-6.414440e-09	-1.903559e+01	-4.211300e+02
5.600000e-07	-2.610513e-06	-6.296691e-09	-1.839610e+01	-4.137722e+02
5.700000e-07	-2.518813e-06	-6.186022e-09	-1.774990e+01	-4.062435e+02
5.800000e-07	-2.426339e-06	-6.070741e-09	-1.709824e+01	-3.985352e+02
5.900000e-07	-2.333040e-06	-5.946462e-09	-1.644077e+01	-3.906419e+02
6.000000e-07	-2.238899e-06	-5.819418e-09	-1.577736e+01	-3.825622e+02
6.100000e-07	-2.144025e-06	-5.694772e-09	-1.510879e+01	-3.742981e+02
6.200000e-07	-2.048471e-06	-5.568196e-09	-1.443543e+01	-3.658541e+02
6.300000e-07	-1.952056e-06	-5.436095e-09	-1.375600e+01	-3.572352e+02
6.400000e-07	-1.854664e-06	-5.300656e-09	-1.306968e+01	-3.484452e+02
6.500000e-07	-1.756392e-06	-5.161310e-09	-1.237717e+01	-3.394845e+02
6.600000e-07	-1.657479e-06	-5.016563e-09	-1.168014e+01	-3.303490e+02
6.700000e-07	-1.558115e-06	-4.872311e-09	-1.097993e+01	-3.210304e+02
6.800000e-07	-1.458271e-06	-4.731896e-09	-1.027633e+01	-3.115160e+02
6.900000e-07	-1.357940e-06	-4.585942e-09	-9.569310e+00	-3.017915e+02
7.000000e-07	-1.257188e-06	-4.431776e-09	-8.859315e+00	-2.918420e+02
7.100000e-07	-1.156046e-06	-4.272340e-09	-8.146574e+00	-2.816555e+02
7.200000e-07	-1.054546e-06	-4.109616e-09	-7.431308e+00	-2.712240e+02
7.300000e-07	-9.526739e-07	-3.943242e-09	-6.713426e+00	-2.605451e+02
7.400000e-07	-8.504398e-07	-3.775433e-09	-5.992989e+00	-2.496220e+02
7.500000e-07	-7.479234e-07	-3.606130e-09	-5.270563e+00	-2.384620e+02
7.600000e-07	-6.451858e-07	-3.431564e-09	-4.546579e+00	-2.270752e+02
7.700000e-07	-5.422951e-07	-3.251394e-09	-3.821515e+00	-2.154708e+02
7.800000e-07	-4.393064e-07	-3.069442e-09	-3.095761e+00	-2.036548e+02
7.900000e-07	-3.362422e-07	-2.887603e-09	-2.369475e+00	-1.916278e+02
8.000000e-07	-2.330881e-07	-2.701083e-09	-1.642555e+00	-1.793830e+02
8.100000e-07	-1.298382e-07	-2.508896e-09	-9.149608e-01	-1.669068e+02
8.200000e-07	-2.653049e-08	-2.314252e-09	-1.869585e-01	-1.541795e+02
8.300000e-07	7.684072e-08	-2.117938e-09	5.414911e-01	-1.411776e+02
8.400000e-07	1.802339e-07	-1.916290e-09	1.270095e+00	-1.278770e+02
8.500000e-07	2.836023e-07	-1.708259e-09	1.998525e+00	-1.142552e+02
8.600000e-07	3.868807e-07	-1.497167e-09	2.726321e+00	-1.002940e+02
8.700000e-07	4.899920e-07	-1.279889e-09	3.452939e+00	-8.598020e+01
8.800000e-07	5.930115e-07	-1.055888e-09	4.178910e+00	-7.130564e+01
8.900000e-07	6.959103e-07	-8.265154e-10	4.904030e+00	-5.626603e+01
9.000000e-07	7.985893e-07	-5.905373e-10	5.627602e+00	-4.085925e+01
9.100000e-07	9.010323e-07	-3.486943e-10	6.349511e+00	-2.508375e+01
9.200000e-07	1.003196e-06	-1.013054e-10	7.069450e+00	-8.937828e+00
9.300000e-07	1.104985e-06	1.508333e-10	7.786751e+00	7.579852e+00
9.400000e-07	1.206348e-06	4.071076e-10	8.501052e+00	2.446817e+01
9.500000e-07	1.307283e-06	6.677662e-10	9.212330e+00	4.172013e+01
9.600000e-07	1.407828e-06	9.334398e-10	9.920867e+00	5.931877e+01
9.700000e-07	1.507923e-06	1.203283e-09	1.062622e+01	7.723316e+01
9.800000e-07	1.607448e-06	1.477282e-09	1.132757e+01	9.541564e+01
9.900000e-07	1.706403e-06	1.753178e-09	1.202490e+01	1.138010e+02
1.000000e-06	1.804692e-06	2.030767e-09	1.271754e+01	1.323078e+02
1.010000e-06	1.902220e-06	2.310138e-09	1.340481e+01	1.508431e+02
1.020000e-06	1.998885e-06	2.589949e-09	1.408600e+01	1.693077e+02
1.030000e-06	2.094619e-06	2.868838e-09	1.476063e+01	1.876033e+02
1.040000e-06	2.189588e-06	3.144124e-09	1.542987e+01	2.056395e+02
1.050000e-06	2.283869e-06	3.412096e-09	1.609427e+01	2.233391e+02
1.060000e-06	2.377394e-06	3.672529e-09	1.675333e+01	2.406412e+02
1.070000e-06	2.470146e-06	3.927153e-09	1.740694e+01	2.575024e+02
1.080000e-06	2.562127e-06	4.176977e-09	1.805513e+01	2.738947e+02
1.090000e-06	2.653287e-06	4.420536e-09	1.869752e+01	2.898027e+02
1.100000e-06	2.743441e-06	4.656108e-09	1.933284e+01	3.052189e+02
1.110000e-06	2.832398e-06	4.882194e-09	1.995971e+01	3.201404e+02
1.120000e-06	2.920208e-06	5.098374e-09	2.057850e+01	3.345660e+02
1.130000e-06	3.007059e-06	5.306697e-09	2.119053e+01	3.484946e+02
1.140000e-06	3.092949e-06	5.510462e-09	2.179579e+01	3.619257e+02
1.150000e-06	3.177849e-06	5.707372e-09	2.239408e+01	3.748609e+02
1.160000e-06	3.261800e-06	5.897259e-09	2.298567e+01	3.873048e+02
1.170000e-06	3.344723e-06	6.081366e-09	2.357002e+01	3.992671e+02
1.180000e-06	3.426479e-06	6.258515e-09	2.414615e+01	4.107620e+02
1.190000e-06	3.506943e-06	6.429050e-09	2.471318e+01	4.218076e+02
1.200000e-06	3.586108e-06	6.590805e-09	2.527105e+01	4.324232e+02
1.210000e-06	3.663982e-06	6.745276e-09	2.581982e+01	4.426269e+02
1.220000e-06	3.740555e-06	6.894198e-09	2.635943e+01	4.524327e+02
1.230000e-06	3.815808e-06	7.038572e-09	2.688973e+01	4.618489e+02
1.240000e-06	3.889484e-06	7.177961e-09	2.740892e+01	4.708782e+02
1.250000e-06	3.961478e-06	7.312174e-09	2.791626e+01	4.795189e+02
1.260000e-06	4.032014e-06	7.437730e-09	2.841331e+01	4.877679e+02
1.270000e-06	4.101175e-06	7.555501e-09	2.890069e+01	4.956242e+02
1.280000e-06	4.168949e-06	7.667677e-09	2.937829e+01	5.030921e+02
1.290000e-06	4.235187e-06	7.773495e-09	2.984506e+01	5.101839e+02
1.300000e-06	4.299752e-06	7.874638e-09	3.030004e+01	5.169202e+02
1.310000e-06	4.362757e-06	7.970538e-09	3.074404e+01	5.233283e+02
1.320000e-06	4.424305e-06	8.062212e-09	3.117776e+01	5.294401e+02
1.330000e-06	4.484409e-06	8.152580e-09	3.160131e+01	5.352876e+02
1.340000e-06	4.542939e-06	8.240414e-09	3.201377e+01	5.408994e+02
1.350000e-06	4.599726e-06	8.323694e-09	3.241394e+01	5.462971e+02
1.360000e-06	4.654801e-06	8.401847e-09	3.280205e+01	5.514939e+02
1.370000e-06	4.708200e-06	8.476410e-09	3.317835e+01	5.564944e+02
1.380000e-06	4.759754e-06	8.549011e-09	3.354165e+01	5.612966e+02
1.390000e-06	4.809298e-06	8.618890e-09	3.389078e+01	5.658937e+02
1.400000e-06	4.856888e-06	8.685681e-09	3.422614e+01	5.702779e+02
1.410000e-06	4.902714e-06	8.747619e-09	3.454908e+01	5.744424e+02
1.420000e-06	4.947000e-06	8.805194e-09	3.486116e+01	5.783832e+02
1.430000e-06	4.989665e-06	8.861923e-09	3.516182e+01	5.820999e+02
1.440000e-06	5.030404e-06	8.917039e-09	3.544890e+01	5.855947e+02
1.450000e-06	5.069304e-06	8.967810e-09	3.572302e+01	5.888715e+02
1.460000e-06	5.106577e-06	9.014471e-09	3.598568e+01	5.919349e+02
1.470000e-06	5.142197e-06	9.057577e-09	3.623669e+01	5.947889e+02
1.480000e-06	5.175935e-06	9.096240e-09	3.647445e+01	5.974372e+02
1.490000e-06	5.207683e-06	9.129024e-09	3.669817e+01	5.998833e+02
1.500000e-06	5.237663e-06	9.158245e-09	3.690944e+01	6.021317e+02
1.510000e-06	5.266005e-06	9.186482e-09	3.710916e+01	6.041886e+02
1.520000e-06	5.292562e-06	9.212959e-09	3.729631e+01	6.060624e+02
1.530000e-06	5.317037e-06	9.237991e-09	3.746878e+01	6.077635e+02
1.540000e-06	5.339444e-06	9.259742e-09	3.762668e+01	6.093031e+02
1.550000e-06	5.360079e-06	9.279690e-09	3.777210e+01	6.106915e+02
1.560000e-06	5.378957e-06	9.298934e-09	3.790513e+01	6.119364e+02
1.570000e-06	5.395831e-06	9.317054e-09	3.802404e+01	6.130415e+02
1.580000e-06	5.410665e-06	9.332209e-09	3.812857e+01	6.140066e+02
1.590000e-06	5.423543e-06	9.342609e-09	3.821932e+01	6.148278e+02
1.600000e-06	5.434276e-06	9.350558e-09	3.829495e+01	6.155000e+02
1.610000e-06	5.442744e-06	9.357934e-09	3.835463e+01	6.160187e+02
1.620000e-06	5.449225e-06	9.364526e-09	3.840030e+01	6.163828e+02
1.630000e-06	5.453915e-06	9.370326e-09	3.843335e+01	6.165959e+02
1.640000e-06	5.456803e-06	9.374869e-09	3.845370e+01	6.166660e+02
1.650000e-06	5.457697e-06	9.378140e-09	3.846000e+01	6.166049e+02
1.660000e-06	5.456608e-06	9.377402e-09	3.845233e+01	6.164250e+02
1.670000e-06	5.453812e-06	9.370578e-09	3.843262e+01	6.161360e+02
1.680000e-06	5.449343e-06	9.362142e-09	3.840113e+01	6.157428e+02
1.690000e-06	5.442986e-06	9.351599e-09	3.835634e+01	6.152429e+02
1.700000e-06	5.434764e-06	9.341387e-09	3.829839e+01	6.146275e+02
1.710000e-06	5.424939e-06	9.331067e-09	3.822916e+01	6.138832e+02
1.720000e-06	5.413461e-06	9.321974e-09	3.814828e+01	6.129962e+02
1.730000e-06	5.400061e-06	9.304642e-09	3.805384e+01	6.119568e+02
1.740000e-06	5.384598e-06	9.257529e-09	3.794488e+01	6.107635e+02
1.750000e-06	5.366852e-06	9.224991e-09	3.781982e+01	6.094260e+02
1.760000e-06	5.346408e-06	9.224685e-09	3.767576e+01	6.079652e+02
1.770000e-06	5.323473e-06	9.225745e-09	3.751414e+01	6.064107e+02
1.780000e-06	5.299045e-06	9.242070e-09	3.734199e+01	6.047955e+02
1.790000e-06	5.273872e-06	9.188237e-09	3.716460e+01	6.031501e+02
1.800000e-06	5.247448e-06	9.099417e-09	3.697840e+01	6.014953e+02
1.810000e-06	5.218866e-06	9.121498e-09	3.677698e+01	5.998377e+02
1.820000e-06	5.188261e-06	9.091439e-09	3.656131e+01	5.981665e+02
1.830000e-06	5.156043e-06	9.058068e-09	3.633427e+01	5.964544e+02
1.840000e-06	5.121946e-06	9.099247e-09	3.609399e+01	5.946619e+02
1.850000e-06	5.086135e-06	9.028584e-09	3.584163e+01	5.927433e+02
1.860000e-06	5.048616e-06	8.997465e-09	3.557724e+01	5.906543e+02
1.870000e-06	5.009145e-06	9.009410e-09	3.529909e+01	5.883595e+02
1.880000e-06	4.967990e-06	8.900133e-09	3.500907e+01	5.858378e+02
1.890000e-06	4.925017e-06	8.900788e-09	3.470624e+01	5.830843e+02
1.900000e-06	4.880312e-06	8.899630e-09	3.439121e+01	5.801105e+02
1.910000e-06	4.833868e-06	8.785289e-09	3.406393e+01	5.769397e+02
1.920000e-06	4.785325e-06	8.742883e-09	3.372185e+01	5.736020e+02
1.930000e-06	4.735067e-06	8.678578e-09	3.336768e+01	5.701277e+02
1.940000e-06	4.683122e-06	8.656129e-09	3.300163e+01	5.665418e+02
1.950000e-06	4.629010e-06	8.625496e-09	3.262031e+01	5.628599e+02
1.960000e-06	4.572978e-06	8.530037e-09	3.222545e+01	5.590871e+02
1.970000e-06	4.515295e-06	8.477937e-09	3.181896e+01	5.552190e+02
1.980000e-06	4.456103e-06	8.406361e-09	3.140184e+01	5.512441e+02
1.990000e-06	4.395390e-06	8.359496e-09	3.097400e+01	5.471482e+02
2.000000e-06	4.332915e-06	8.288365e-09	3.053374e+01	5.429180e+02
2.010000e-06	4.268842e-06	8.206309e-09	3.008223e+01	5.385439e+02
2.020000e-06	4.203269e-06	8.168454e-09	2.962014e+01	5.340217e+02
2.030000e-06	4.136256e-06	8.063739e-09	2.914790e+01	5.293522e+02
2.040000e-06	4.067788e-06	8.004218e-09	2.866541e+01	5.245396e+02
2.050000e-06	3.997703e-06	7.954344e-09	2.817153e+01	5.195894e+02
2.060000e-06	3.926121e-06	7.858987e-09	2.766709e+01	5.145061e+02
2.070000e-06	3.853184e-06	7.773426e-09	2.715311e+01	5.092911e+02
2.080000e-06	3.778971e-06	7.674280e-09	2.663014e+01	5.039429e+02
2.090000e-06	3.703367e-06	7.615828e-09	2.609736e+01	4.984568e+02
2.100000e-06	3.626159e-06	7.538057e-09	2.555329e+01	4.928268e+02
2.110000e-06	3.547381e-06	7.437865e-09	2.499814e+01	4.870472e+02
2.120000e-06	3.467357e-06	7.344572e-09	2.443422e+01	4.811143e+02
2.130000e-06	3.386221e-06	7.247686e-09	2.386246e+01	4.750274e+02
2.140000e-06	3.303905e-06	7.155107e-09	2.328238e+01	4.687890e+02
2.150000e-06	3.220515e-06	7.055496e-09	2.269474e+01	4.624039e+02
2.160000e-06	3.136006e-06	6.976391e-09	2.209921e+01	4.558774e+02
2.170000e-06	3.050222e-06	6.878164e-09	2.149470e+01	4.492141e+02
2.180000e-06	2.963170e-06	6.757098e-09	2.088125e+01	4.424157e+02
2.190000e-06	2.875029e-06	6.643225e-09	2.026012e+01	4.354799e+02
2.200000e-06	2.785943e-06	6.545131e-09	1.963234e+01	4.284009e+02
2.210000e-06	2.695854e-06	6.446816e-09	1.899749e+01	4.211697e+02
2.220000e-06	2.604816e-06	6.327399e-09	1.835595e+01	4.137757e+02
2.230000e-06	2.512958e-06	6.211538e-09	1.770864e+01	4.062086e+02
2.240000e-06	2.420275e-06	6.097342e-09	1.705550e+01	3.984606e+02
2.250000e-06	2.326639e-06	5.977418e-09	1.639566e+01	3.905269e+02
2.260000e-06	2.232013e-06	5.849329e-09	1.572884e+01	3.824069e+02
2.270000e-06	2.136570e-06	5.721581e-09	1.505625e+01	3.741033e+02
2.280000e-06	2.040317e-06	5.592755e-09	1.437797e+01	3.656210e+02
2.290000e-06	1.943292e-06	5.456064e-09	1.369424e+01	3.569648e+02
2.300000e-06	1.845740e-06	5.323436e-09	1.300680e+01	3.481378e+02
2.310000e-06	1.747664e-06	5.196033e-09	1.231566e+01	3.391396e+02
2.320000e-06	1.648961e-06	5.059426e-09	1.162011e+01	3.299653e+02
2.330000e-06	1.549764e-06	4.908342e-09	1.092108e+01	3.206054e+02
2.340000e-06	1.450210e-06	4.759508e-09	1.021953e+01	3.110468e+02
2.350000e-06	1.350283e-06	4.613224e-09	9.515351e+00	3.012748e+02
2.360000e-06	1.249925e-06	4.465495e-09	8.808130e+00	2.912750e+02
2.370000e-06	1.149102e-06	4.313998e-09	8.097643e+00	2.810360e+02
2.380000e-06	1.047774e-06	4.153875e-09	7.383586e+00	2.705510e+02
2.390000e-06	9.459163e-07	3.987460e-09	6.665805e+00	2.598189e+02
2.400000e-06	8.435814e-07	3.819289e-09	5.944658e+00	2.488438e+02
2.410000e-06	7.409005e-07	3.651953e-09	5.221073e+00	2.376339e+02
2.420000e-06	6.379596e-07	3.482243e-09	4.495656e+00	2.261993e+02
2.430000e-06	5.347738e-07	3.305765e-09	3.768513e+00	2.145487e+02
2.440000e-06	4.314255e-07	3.125008e-09	3.040225e+00	2.026872e+02
2.450000e-06	3.279538e-07	2.942393e-09	2.311067e+00	1.906139e+02
2.460000e-06	2.243151e-07	2.754282e-09	1.580732e+00	1.783204e+02
2.470000e-06	1.205479e-07	2.564309e-09	8.494928e-01	1.657918e+02
2.480000e-06	1.677763e-08	2.369206e-09	1.182307e-01	1.530072e+02
2.490000e-06	-8.699282e-08	2.166833e-09	-6.130322e-01	1.399428e+02
2.500000e-06	-1.907795e-07	1.959894e-09	-1.344409e+00	1.265747e+02
2.510000e-06	-2.945587e-07	1.751420e-09	-2.075735e+00	1.128811e+02
2.520000e-06	-3.982741e-07	1.541189e-09	-2.806610e+00	9.884478e+01
2.530000e-06	-5.017837e-07	1.323103e-09	-3.536034e+00	8.445374e+01
2.540000e-06	-6.050881e-07	1.098440e-09	-4.264013e+00	6.970075e+01
2.550000e-06	-7.081809e-07	8.684225e-10	-4.990500e+00	5.458213e+01
2.560000e-06	-8.110063e-07	6.303931e-10	-5.715104e+00	3.909600e+01
2.570000e-06	-9.134673e-07	3.858465e-10	-6.437139e+00	2.324081e+01
2.580000e-06	-1.015383e-06	1.377539e-10	-7.155329e+00	7.014825e+00
2.590000e-06	-1.116808e-06	-1.153356e-10	-7.870064e+00	-9.582981e+00
2.600000e-06	-1.217737e-06	-3.750539e-10	-8.581309e+00	-2.655055e+01
2.610000e-06	-1.318126e-06	-6.401574e-10	-9.288739e+00	-4.387912e+01
2.620000e-06	-1.418034e-06	-9.102154e-10	-9.992786e+00	-6.154903e+01
2.630000e-06	-1.517499e-06	-1.184546e-09	-1.069371e+01	-7.952595e+01
2.640000e-06	-1.616542e-06	-1.463939e-09	-1.139166e+01	-9.775845e+01
2.650000e-06	-1.715040e-06	-1.749498e-09	-1.208576e+01	-1.161776e+02
2.660000e-06	-1.812891e-06	-2.038390e-09	-1.277531e+01	-1.346992e+02
2.670000e-06	-1.910082e-06	-2.325454e-09	-1.346021e+01	-1.532282e+02
2.680000e-06	-2.006657e-06	-2.606749e-09	-1.414077e+01	-1.716651e+02
2.690000e-06	-2.102655e-06	-2.885071e-09	-1.481726e+01	-1.899128e+02
2.700000e-06	-2.197977e-06	-3.161599e-09	-1.548899e+01	-2.078834e+02
2.710000e-06	-2.292447e-06	-3.432972e-09	-1.615471e+01	-2.255028e+02
2.720000e-06	-2.385911e-06	-3.695397e-09	-1.681335e+01	-2.427140e+02
2.730000e-06	-2.478317e-06	-3.949634e-09	-1.746453e+01	-2.594771e+02
2.740000e-06	-2.569834e-06	-4.197427e-09	-1.810944e+01	-2.757670e+02
2.750000e-06	-2.660564e-06	-4.439232e-09	-1.874880e+01	-2.915704e+02
2.760000e-06	-2.750303e-06	-4.676054e-09	-1.938119e+01	-3.068813e+02
2.770000e-06	-2.839078e-06	-4.906186e-09	-2.000678e+01	-3.216971e+02
2.780000e-06	-2.927035e-06	-5.127774e-09	-2.062661e+01	-3.360167e+02
2.790000e-06	-3.014061e-06	-5.340335e-09	-2.123988e+01	-3.498392e+02
2.800000e-06	-3.099871e-06	-5.545845e-09	-2.184457e+01	-3.631643e+02
2.810000e-06	-3.184400e-06	-5.743104e-09	-2.244024e+01	-3.759941e+02
2.820000e-06	-3.267888e-06	-5.929929e-09	-2.302858e+01	-3.883343e+02
2.830000e-06	-3.350359e-06	-6.108728e-09	-2.360974e+01	-4.001956e+02
2.840000e-06	-3.431726e-06	-6.280367e-09	-2.418313e+01	-4.115931e+02
2.850000e-06	-3.511965e-06	-6.445353e-09	-2.474857e+01	-4.225454e+02
2.860000e-06	-3.590870e-06	-6.603350e-09	-2.530460e+01	-4.330718e+02
2.870000e-06	-3.668207e-06	-6.756854e-09	-2.584960e+01	-4.431896e+02
2.880000e-06	-3.743980e-06	-6.906941e-09	-2.638356e+01	-4.529119e+02
2.890000e-06	-3.818320e-06	-7.051878e-09	-2.690743e+01	-4.622457e+02
2.900000e-06	-3.891313e-06	-7.191168e-09	-2.742181e+01	-4.711924e+02
2.910000e-06	-3.962955e-06	-7.324118e-09	-2.792666e+01	-4.797499e+02
2.920000e-06	-4.033063e-06	-7.448855e-09	-2.842071e+01	-4.879151e+02
2.930000e-06	-4.101619e-06	-7.564270e-09	-2.890381e+01	-4.956880e+02
2.940000e-06	-4.168755e-06	-7.675312e-09	-2.937692e+01	-5.030746e+02
