# Temperatura_=_73.74
# Concentracion g/m^3_=_15000.0
# C_Vs_to_Am_M_A/Vsm_=_65563218390.804596
# pendiente_HvsI_1/m_=_3716.3
# ordenada_HvsI_A/m_=_1297.0
# frecuencia_Hz_=_301604.1241570591

Tiempo_(s)	Campo_(V.s)	Magnetizacion_(V.s)	Campo_(kA/m)	Magnetizacion_(A/m)
0.000000e+00	-5.424087e-06	-9.387993e-09	-3.833681e+01	-6.132441e+02
1.000000e-08	-5.421884e-06	-9.385892e-09	-3.832124e+01	-6.129350e+02
2.000000e-08	-5.417757e-06	-9.379119e-09	-3.829207e+01	-6.125285e+02
3.000000e-08	-5.411978e-06	-9.373273e-09	-3.825123e+01	-6.120295e+02
4.000000e-08	-5.404590e-06	-9.365695e-09	-3.819901e+01	-6.114349e+02
5.000000e-08	-5.395447e-06	-9.351953e-09	-3.813438e+01	-6.107336e+02
6.000000e-08	-5.384216e-06	-9.333902e-09	-3.805501e+01	-6.099098e+02
7.000000e-08	-5.371033e-06	-9.310949e-09	-3.796183e+01	-6.089477e+02
8.000000e-08	-5.355909e-06	-9.300512e-09	-3.785494e+01	-6.078365e+02
9.000000e-08	-5.338571e-06	-9.336100e-09	-3.773240e+01	-6.065757e+02
1.000000e-07	-5.319084e-06	-9.315957e-09	-3.759467e+01	-6.051774e+02
1.100000e-07	-5.297639e-06	-9.250475e-09	-3.744309e+01	-6.036660e+02
1.200000e-07	-5.274410e-06	-9.209051e-09	-3.727891e+01	-6.020746e+02
1.300000e-07	-5.249593e-06	-9.109146e-09	-3.710350e+01	-6.004386e+02
1.400000e-07	-5.223157e-06	-9.125222e-09	-3.691666e+01	-5.987885e+02
1.500000e-07	-5.195072e-06	-9.225123e-09	-3.671816e+01	-5.971422e+02
1.600000e-07	-5.165509e-06	-9.079426e-09	-3.650921e+01	-5.954997e+02
1.700000e-07	-5.134483e-06	-9.075578e-09	-3.628992e+01	-5.938418e+02
1.800000e-07	-5.101392e-06	-9.098559e-09	-3.605604e+01	-5.921316e+02
1.900000e-07	-5.066266e-06	-8.911606e-09	-3.580777e+01	-5.903207e+02
2.000000e-07	-5.029688e-06	-8.972210e-09	-3.554924e+01	-5.883569e+02
2.100000e-07	-4.991435e-06	-8.982662e-09	-3.527888e+01	-5.861937e+02
2.200000e-07	-4.951333e-06	-8.837809e-09	-3.499544e+01	-5.837978e+02
2.300000e-07	-4.909245e-06	-8.864340e-09	-3.469797e+01	-5.811543e+02
2.400000e-07	-4.865198e-06	-8.846413e-09	-3.438665e+01	-5.782682e+02
2.500000e-07	-4.819402e-06	-8.762279e-09	-3.406297e+01	-5.751615e+02
2.600000e-07	-4.771722e-06	-8.716421e-09	-3.372597e+01	-5.718684e+02
2.700000e-07	-4.721916e-06	-8.629506e-09	-3.337395e+01	-5.684267e+02
2.800000e-07	-4.669971e-06	-8.596530e-09	-3.300681e+01	-5.648711e+02
2.900000e-07	-4.616159e-06	-8.541278e-09	-3.262647e+01	-5.612268e+02
3.000000e-07	-4.560762e-06	-8.483396e-09	-3.223493e+01	-5.575059e+02
3.100000e-07	-4.503709e-06	-8.455988e-09	-3.183169e+01	-5.537067e+02
3.200000e-07	-4.444819e-06	-8.394914e-09	-3.141546e+01	-5.498167e+02
3.300000e-07	-4.384278e-06	-8.312777e-09	-3.098757e+01	-5.458166e+02
3.400000e-07	-4.322255e-06	-8.226018e-09	-3.054919e+01	-5.416856e+02
3.500000e-07	-4.258883e-06	-8.195292e-09	-3.010128e+01	-5.374062e+02
3.600000e-07	-4.194033e-06	-8.134161e-09	-2.964293e+01	-5.329674e+02
3.700000e-07	-4.127394e-06	-8.038930e-09	-2.917194e+01	-5.283659e+02
3.800000e-07	-4.059158e-06	-7.981406e-09	-2.868965e+01	-5.236054e+02
3.900000e-07	-3.989600e-06	-7.902543e-09	-2.819802e+01	-5.186943e+02
4.000000e-07	-3.918791e-06	-7.809669e-09	-2.769756e+01	-5.136422e+02
4.100000e-07	-3.846757e-06	-7.728108e-09	-2.718843e+01	-5.084576e+02
4.200000e-07	-3.773252e-06	-7.665247e-09	-2.666890e+01	-5.031453e+02
4.300000e-07	-3.698125e-06	-7.592197e-09	-2.613791e+01	-4.977056e+02
4.400000e-07	-3.621479e-06	-7.493990e-09	-2.559619e+01	-4.921349e+02
4.500000e-07	-3.543326e-06	-7.406882e-09	-2.504382e+01	-4.864271e+02
4.600000e-07	-3.463727e-06	-7.323111e-09	-2.448122e+01	-4.805754e+02
4.700000e-07	-3.382879e-06	-7.229445e-09	-2.390979e+01	-4.745741e+02
4.800000e-07	-3.300839e-06	-7.127090e-09	-2.332995e+01	-4.684202e+02
4.900000e-07	-3.217690e-06	-7.034449e-09	-2.274225e+01	-4.621133e+02
5.000000e-07	-3.133613e-06	-6.946452e-09	-2.214801e+01	-4.556553e+02
5.100000e-07	-3.048539e-06	-6.838788e-09	-2.154672e+01	-4.490493e+02
5.200000e-07	-2.962455e-06	-6.729838e-09	-2.093828e+01	-4.422978e+02
5.300000e-07	-2.875415e-06	-6.624308e-09	-2.032310e+01	-4.354014e+02
5.400000e-07	-2.787428e-06	-6.515141e-09	-1.970121e+01	-4.283582e+02
5.500000e-07	-2.698383e-06	-6.403175e-09	-1.907185e+01	-4.211630e+02
5.600000e-07	-2.608135e-06	-6.289868e-09	-1.843399e+01	-4.138084e+02
5.700000e-07	-2.516789e-06	-6.182527e-09	-1.778837e+01	-4.062855e+02
5.800000e-07	-2.424555e-06	-6.068804e-09	-1.713647e+01	-3.985855e+02
5.900000e-07	-2.331516e-06	-5.947691e-09	-1.647888e+01	-3.907011e+02
6.000000e-07	-2.237685e-06	-5.819703e-09	-1.581569e+01	-3.826273e+02
6.100000e-07	-2.143142e-06	-5.687589e-09	-1.514747e+01	-3.743626e+02
6.200000e-07	-2.047862e-06	-5.556176e-09	-1.447405e+01	-3.659081e+02
6.300000e-07	-1.951826e-06	-5.424692e-09	-1.379528e+01	-3.572671e+02
6.400000e-07	-1.855014e-06	-5.293954e-09	-1.311102e+01	-3.484437e+02
6.500000e-07	-1.757325e-06	-5.158206e-09	-1.242057e+01	-3.394415e+02
6.600000e-07	-1.658835e-06	-5.014774e-09	-1.172445e+01	-3.302617e+02
6.700000e-07	-1.559715e-06	-4.866531e-09	-1.102388e+01	-3.209024e+02
6.800000e-07	-1.460100e-06	-4.721466e-09	-1.031982e+01	-3.113580e+02
6.900000e-07	-1.360088e-06	-4.575647e-09	-9.612942e+00	-3.016194e+02
7.000000e-07	-1.259706e-06	-4.424929e-09	-8.903455e+00	-2.916750e+02
7.100000e-07	-1.158945e-06	-4.266924e-09	-8.191286e+00	-2.815126e+02
7.200000e-07	-1.057737e-06	-4.102933e-09	-7.475961e+00	-2.711213e+02
7.300000e-07	-9.561259e-07	-3.938009e-09	-6.757786e+00	-2.604932e+02
7.400000e-07	-8.542031e-07	-3.771258e-09	-6.037408e+00	-2.496247e+02
7.500000e-07	-7.520340e-07	-3.601073e-09	-5.315288e+00	-2.385170e+02
7.600000e-07	-6.496173e-07	-3.425703e-09	-4.591419e+00	-2.271753e+02
7.700000e-07	-5.469805e-07	-3.246713e-09	-3.865994e+00	-2.156068e+02
7.800000e-07	-4.442176e-07	-3.066653e-09	-3.139678e+00	-2.038185e+02
7.900000e-07	-3.413508e-07	-2.886227e-09	-2.412628e+00	-1.918143e+02
8.000000e-07	-2.383839e-07	-2.699972e-09	-1.684869e+00	-1.795922e+02
8.100000e-07	-1.353162e-07	-2.506697e-09	-9.563989e-01	-1.671432e+02
8.200000e-07	-3.217041e-08	-2.310813e-09	-2.273767e-01	-1.544509e+02
8.300000e-07	7.100800e-08	-2.114394e-09	5.018762e-01	-1.414929e+02
8.400000e-07	1.741844e-07	-1.916031e-09	1.231115e+00	-1.282435e+02
8.500000e-07	2.772956e-07	-1.711415e-09	1.959893e+00	-1.146771e+02
8.600000e-07	3.803154e-07	-1.500964e-09	2.688025e+00	-1.007710e+02
8.700000e-07	4.832773e-07	-1.281981e-09	3.415747e+00	-8.650884e+01
8.800000e-07	5.861328e-07	-1.056681e-09	4.142718e+00	-7.188101e+01
8.900000e-07	6.888035e-07	-8.272206e-10	4.868382e+00	-5.688476e+01
9.000000e-07	7.912228e-07	-5.918128e-10	5.592270e+00	-4.152233e+01
9.100000e-07	8.934004e-07	-3.512519e-10	6.314449e+00	-2.579849e+01
9.200000e-07	9.952976e-07	-1.055916e-10	7.034646e+00	-9.718171e+00
9.300000e-07	1.096828e-06	1.443804e-10	7.752251e+00	6.714791e+00
9.400000e-07	1.197954e-06	3.989019e-10	8.466997e+00	2.349729e+01
9.500000e-07	1.298663e-06	6.567011e-10	9.178799e+00	4.062449e+01
9.600000e-07	1.398952e-06	9.200928e-10	9.887629e+00	5.808574e+01
9.700000e-07	1.498766e-06	1.190005e-09	1.059310e+01	7.585954e+01
9.800000e-07	1.598090e-06	1.463525e-09	1.129511e+01	9.390887e+01
9.900000e-07	1.696851e-06	1.737803e-09	1.199314e+01	1.121781e+02
1.000000e-06	1.794845e-06	2.012872e-09	1.268575e+01	1.305925e+02
1.010000e-06	1.891976e-06	2.291236e-09	1.337227e+01	1.490609e+02
1.020000e-06	1.988240e-06	2.572422e-09	1.405265e+01	1.674816e+02
1.030000e-06	2.083694e-06	2.852988e-09	1.472730e+01	1.857499e+02
1.040000e-06	2.178464e-06	3.128148e-09	1.539713e+01	2.037667e+02
1.050000e-06	2.272507e-06	3.394023e-09	1.606181e+01	2.214468e+02
1.060000e-06	2.365790e-06	3.652478e-09	1.672113e+01	2.387236e+02
1.070000e-06	2.458323e-06	3.906479e-09	1.737514e+01	2.555520e+02
1.080000e-06	2.550117e-06	4.156133e-09	1.802393e+01	2.719069e+02
1.090000e-06	2.641109e-06	4.399151e-09	1.866705e+01	2.877793e+02
1.100000e-06	2.730961e-06	4.635092e-09	1.930211e+01	3.031699e+02
1.110000e-06	2.819559e-06	4.861140e-09	1.992831e+01	3.180833e+02
1.120000e-06	2.907096e-06	5.080133e-09	2.054702e+01	3.325230e+02
1.130000e-06	2.993744e-06	5.292145e-09	2.115943e+01	3.464881e+02
1.140000e-06	3.079470e-06	5.497319e-09	2.176534e+01	3.599733e+02
1.150000e-06	3.164183e-06	5.693237e-09	2.236408e+01	3.729714e+02
1.160000e-06	3.247973e-06	5.881018e-09	2.295629e+01	3.854758e+02
1.170000e-06	3.330750e-06	6.065285e-09	2.354135e+01	3.974853e+02
1.180000e-06	3.412222e-06	6.242893e-09	2.411718e+01	4.090058e+02
1.190000e-06	3.492347e-06	6.412421e-09	2.468350e+01	4.200515e+02
1.200000e-06	3.571267e-06	6.574225e-09	2.524130e+01	4.306433e+02
1.210000e-06	3.648955e-06	6.729915e-09	2.579039e+01	4.408052e+02
1.220000e-06	3.725352e-06	6.879488e-09	2.633035e+01	4.505605e+02
1.230000e-06	3.800377e-06	7.022087e-09	2.686062e+01	4.599277e+02
1.240000e-06	3.873769e-06	7.158927e-09	2.737934e+01	4.689180e+02
1.250000e-06	3.945558e-06	7.290559e-09	2.788674e+01	4.775353e+02
1.260000e-06	4.015944e-06	7.413238e-09	2.838422e+01	4.857779e+02
1.270000e-06	4.084924e-06	7.530505e-09	2.887176e+01	4.936421e+02
1.280000e-06	4.152587e-06	7.644614e-09	2.935000e+01	5.011275e+02
1.290000e-06	4.218726e-06	7.752656e-09	2.981746e+01	5.082400e+02
1.300000e-06	4.283093e-06	7.853959e-09	3.027240e+01	5.149952e+02
1.310000e-06	4.345966e-06	7.950815e-09	3.071678e+01	5.214176e+02
1.320000e-06	4.407436e-06	8.044152e-09	3.115124e+01	5.275390e+02
1.330000e-06	4.467501e-06	8.133743e-09	3.157577e+01	5.333940e+02
1.340000e-06	4.526114e-06	8.219807e-09	3.199004e+01	5.390147e+02
1.350000e-06	4.582901e-06	8.302960e-09	3.239141e+01	5.444266e+02
1.360000e-06	4.637899e-06	8.381702e-09	3.278013e+01	5.496452e+02
1.370000e-06	4.691270e-06	8.456708e-09	3.315734e+01	5.546751e+02
1.380000e-06	4.742772e-06	8.530283e-09	3.352136e+01	5.595116e+02
1.390000e-06	4.792177e-06	8.601984e-09	3.387054e+01	5.641439e+02
1.400000e-06	4.839658e-06	8.669077e-09	3.420613e+01	5.685597e+02
1.410000e-06	4.885501e-06	8.731288e-09	3.453015e+01	5.727486e+02
1.420000e-06	4.929787e-06	8.789257e-09	3.484315e+01	5.767056e+02
1.430000e-06	4.972392e-06	8.845345e-09	3.514428e+01	5.804317e+02
1.440000e-06	5.013092e-06	8.898654e-09	3.543194e+01	5.839336e+02
1.450000e-06	5.052028e-06	8.947853e-09	3.570714e+01	5.872208e+02
1.460000e-06	5.089347e-06	8.994670e-09	3.597091e+01	5.903038e+02
1.470000e-06	5.124993e-06	9.037659e-09	3.622285e+01	5.931906e+02
1.480000e-06	5.158727e-06	9.076737e-09	3.646128e+01	5.958860e+02
1.490000e-06	5.190514e-06	9.112494e-09	3.668595e+01	5.983912e+02
1.500000e-06	5.220567e-06	9.145091e-09	3.689835e+01	6.007053e+02
1.510000e-06	5.248952e-06	9.176052e-09	3.709898e+01	6.028269e+02
1.520000e-06	5.275482e-06	9.203942e-09	3.728649e+01	6.047570e+02
1.530000e-06	5.299878e-06	9.228497e-09	3.745892e+01	6.064993e+02
1.540000e-06	5.322299e-06	9.251188e-09	3.761739e+01	6.080615e+02
1.550000e-06	5.343008e-06	9.271533e-09	3.776375e+01	6.094533e+02
1.560000e-06	5.361966e-06	9.288583e-09	3.789774e+01	6.106852e+02
1.570000e-06	5.378905e-06	9.303770e-09	3.801747e+01	6.117655e+02
1.580000e-06	5.393784e-06	9.317669e-09	3.812264e+01	6.126990e+02
1.590000e-06	5.406737e-06	9.329106e-09	3.821419e+01	6.134866e+02
1.600000e-06	5.417567e-06	9.339188e-09	3.829073e+01	6.141254e+02
1.610000e-06	5.426183e-06	9.347673e-09	3.835163e+01	6.146116e+02
1.620000e-06	5.432818e-06	9.353541e-09	3.839852e+01	6.149427e+02
1.630000e-06	5.437618e-06	9.356557e-09	3.843245e+01	6.151202e+02
1.640000e-06	5.440580e-06	9.357655e-09	3.845338e+01	6.151506e+02
1.650000e-06	5.441516e-06	9.359083e-09	3.846000e+01	6.150458e+02
1.660000e-06	5.440559e-06	9.356712e-09	3.845323e+01	6.148206e+02
1.670000e-06	5.437898e-06	9.349770e-09	3.843442e+01	6.144892e+02
1.680000e-06	5.433568e-06	9.345239e-09	3.840383e+01	6.140621e+02
1.690000e-06	5.427371e-06	9.338306e-09	3.836002e+01	6.135426e+02
1.700000e-06	5.419271e-06	9.328856e-09	3.830277e+01	6.129257e+02
1.710000e-06	5.409576e-06	9.319663e-09	3.823425e+01	6.121990e+02
1.720000e-06	5.398180e-06	9.313863e-09	3.815370e+01	6.113462e+02
1.730000e-06	5.384849e-06	9.309901e-09	3.805948e+01	6.103522e+02
1.740000e-06	5.369494e-06	9.227946e-09	3.795096e+01	6.092080e+02
1.750000e-06	5.351884e-06	9.187425e-09	3.782649e+01	6.079157e+02
1.760000e-06	5.331623e-06	9.205162e-09	3.768329e+01	6.064902e+02
1.770000e-06	5.308844e-06	9.198770e-09	3.752228e+01	6.049580e+02
1.780000e-06	5.284500e-06	9.283243e-09	3.735023e+01	6.033535e+02
1.790000e-06	5.259475e-06	9.187323e-09	3.717336e+01	6.017117e+02
1.800000e-06	5.233343e-06	9.042614e-09	3.698865e+01	6.000609e+02
1.810000e-06	5.205018e-06	9.159371e-09	3.678846e+01	5.984154e+02
1.820000e-06	5.174644e-06	9.059000e-09	3.657378e+01	5.967713e+02
1.830000e-06	5.142673e-06	9.020312e-09	3.634781e+01	5.951053e+02
1.840000e-06	5.108703e-06	9.156751e-09	3.610771e+01	5.933773e+02
1.850000e-06	5.073054e-06	8.973416e-09	3.585575e+01	5.915373e+02
1.860000e-06	5.035768e-06	8.959233e-09	3.559222e+01	5.895338e+02
1.870000e-06	4.996450e-06	9.029492e-09	3.531432e+01	5.873224e+02
1.880000e-06	4.955472e-06	8.839699e-09	3.502469e+01	5.848734e+02
1.890000e-06	4.912689e-06	8.873653e-09	3.472231e+01	5.821762e+02
1.900000e-06	4.868147e-06	8.847722e-09	3.440749e+01	5.792399e+02
1.910000e-06	4.821907e-06	8.767873e-09	3.408067e+01	5.760896e+02
1.920000e-06	4.773572e-06	8.803822e-09	3.373905e+01	5.727608e+02
1.930000e-06	4.723552e-06	8.626851e-09	3.338551e+01	5.692914e+02
1.940000e-06	4.671899e-06	8.644998e-09	3.302043e+01	5.657146e+02
1.950000e-06	4.618113e-06	8.620717e-09	3.264028e+01	5.620528e+02
1.960000e-06	4.562357e-06	8.451309e-09	3.224620e+01	5.583150e+02
1.970000e-06	4.504882e-06	8.447668e-09	3.183997e+01	5.544971e+02
1.980000e-06	4.445926e-06	8.386292e-09	3.142328e+01	5.505847e+02
1.990000e-06	4.385496e-06	8.367405e-09	3.099617e+01	5.465576e+02
2.000000e-06	4.323298e-06	8.264390e-09	3.055656e+01	5.423956e+02
2.010000e-06	4.259463e-06	8.175096e-09	3.010539e+01	5.380821e+02
2.020000e-06	4.194107e-06	8.175789e-09	2.964345e+01	5.336079e+02
2.030000e-06	4.127286e-06	8.019088e-09	2.917117e+01	5.289712e+02
2.040000e-06	4.059057e-06	7.981302e-09	2.868894e+01	5.241771e+02
2.050000e-06	3.989291e-06	7.947132e-09	2.819584e+01	5.192343e+02
2.060000e-06	3.917990e-06	7.856417e-09	2.769189e+01	5.141526e+02
2.070000e-06	3.845292e-06	7.762585e-09	2.717808e+01	5.089398e+02
2.080000e-06	3.771332e-06	7.637705e-09	2.665533e+01	5.035997e+02
2.090000e-06	3.696050e-06	7.608288e-09	2.612325e+01	4.981318e+02
2.100000e-06	3.619258e-06	7.514342e-09	2.558049e+01	4.925317e+02
2.110000e-06	3.540787e-06	7.417708e-09	2.502586e+01	4.867931e+02
2.120000e-06	3.460961e-06	7.339743e-09	2.446166e+01	4.809091e+02
2.130000e-06	3.380122e-06	7.246104e-09	2.389030e+01	4.748747e+02
2.140000e-06	3.298119e-06	7.149790e-09	2.331072e+01	4.686873e+02
2.150000e-06	3.214969e-06	7.032088e-09	2.272302e+01	4.623473e+02
2.160000e-06	3.130783e-06	6.955038e-09	2.212801e+01	4.558567e+02
2.170000e-06	3.045422e-06	6.850091e-09	2.152468e+01	4.492188e+02
2.180000e-06	2.958676e-06	6.744005e-09	2.091157e+01	4.424357e+02
2.190000e-06	2.870769e-06	6.641685e-09	2.029026e+01	4.355075e+02
2.200000e-06	2.781979e-06	6.542415e-09	1.966270e+01	4.284317e+02
2.210000e-06	2.692274e-06	6.443139e-09	1.902868e+01	4.212024e+02
2.220000e-06	2.601606e-06	6.316020e-09	1.838785e+01	4.138119e+02
2.230000e-06	2.510056e-06	6.196360e-09	1.774078e+01	4.062512e+02
2.240000e-06	2.417709e-06	6.073971e-09	1.708809e+01	3.985116e+02
2.250000e-06	2.324496e-06	5.958968e-09	1.642926e+01	3.905864e+02
2.260000e-06	2.230351e-06	5.838332e-09	1.576386e+01	3.824712e+02
2.270000e-06	2.135202e-06	5.712375e-09	1.509135e+01	3.741650e+02
2.280000e-06	2.039108e-06	5.582588e-09	1.441217e+01	3.656696e+02
2.290000e-06	1.942308e-06	5.447934e-09	1.372801e+01	3.569885e+02
2.300000e-06	1.844973e-06	5.313788e-09	1.304005e+01	3.481260e+02
2.310000e-06	1.747148e-06	5.181910e-09	1.234864e+01	3.390852e+02
2.320000e-06	1.648750e-06	5.050570e-09	1.165317e+01	3.298666e+02
2.330000e-06	1.549792e-06	4.903380e-09	1.095375e+01	3.204677e+02
2.340000e-06	1.450381e-06	4.750919e-09	1.025113e+01	3.108820e+02
2.350000e-06	1.350572e-06	4.595488e-09	9.545687e+00	3.010996e+02
2.360000e-06	1.250414e-06	4.444548e-09	8.837783e+00	2.911089e+02
2.370000e-06	1.149902e-06	4.293606e-09	8.127375e+00	2.808978e+02
2.380000e-06	1.048981e-06	4.136199e-09	7.414073e+00	2.704557e+02
2.390000e-06	9.476121e-07	3.978215e-09	6.697611e+00	2.597756e+02
2.400000e-06	8.458067e-07	3.817329e-09	5.978062e+00	2.488550e+02
2.410000e-06	7.436161e-07	3.651355e-09	5.255791e+00	2.376961e+02
2.420000e-06	6.410821e-07	3.478727e-09	4.531093e+00	2.263045e+02
2.430000e-06	5.383068e-07	3.300349e-09	3.804689e+00	2.146878e+02
2.440000e-06	4.353813e-07	3.117105e-09	3.077224e+00	2.028525e+02
2.450000e-06	3.322713e-07	2.930766e-09	2.348455e+00	1.908014e+02
2.460000e-06	2.289688e-07	2.741052e-09	1.618324e+00	1.785311e+02
2.470000e-06	1.254941e-07	2.554649e-09	8.869778e-01	1.660310e+02
2.480000e-06	2.194329e-08	2.364376e-09	1.550926e-01	1.532832e+02
2.490000e-06	-8.161951e-08	2.164231e-09	-5.768771e-01	1.402644e+02
2.500000e-06	-1.851800e-07	1.958607e-09	-1.308830e+00	1.269486e+02
2.510000e-06	-2.886627e-07	1.750402e-09	-2.040234e+00	1.133105e+02
2.520000e-06	-3.920391e-07	1.539929e-09	-2.770886e+00	9.932875e+01
2.530000e-06	-4.952534e-07	1.321894e-09	-3.500393e+00	8.498818e+01
2.540000e-06	-5.982541e-07	1.098911e-09	-4.228390e+00	7.028084e+01
2.550000e-06	-7.010455e-07	8.696893e-10	-4.954908e+00	5.520523e+01
2.560000e-06	-8.035429e-07	6.308578e-10	-5.679347e+00	3.976432e+01
2.570000e-06	-9.055761e-07	3.871875e-10	-6.400506e+00	2.396312e+01
2.580000e-06	-1.007086e-06	1.425669e-10	-7.117965e+00	7.806369e+00
2.590000e-06	-1.108149e-06	-1.068273e-10	-7.832268e+00	-8.702352e+00
2.600000e-06	-1.208767e-06	-3.645662e-10	-8.543427e+00	-2.555984e+01
2.610000e-06	-1.308903e-06	-6.281813e-10	-9.251173e+00	-4.276040e+01
2.620000e-06	-1.408583e-06	-8.972466e-10	-9.955700e+00	-6.029148e+01
2.630000e-06	-1.507853e-06	-1.171702e-09	-1.065733e+01	-7.812863e+01
2.640000e-06	-1.606662e-06	-1.451459e-09	-1.135570e+01	-9.623101e+01
2.650000e-06	-1.704872e-06	-1.734698e-09	-1.204984e+01	-1.145388e+02
2.660000e-06	-1.802447e-06	-2.019316e-09	-1.273949e+01	-1.329735e+02
2.670000e-06	-1.899405e-06	-2.304486e-09	-1.342478e+01	-1.514411e+02
2.680000e-06	-1.995770e-06	-2.585579e-09	-1.410587e+01	-1.698385e+02
2.690000e-06	-2.091598e-06	-2.862842e-09	-1.478317e+01	-1.880615e+02
2.700000e-06	-2.186740e-06	-3.138231e-09	-1.545562e+01	-2.060133e+02
2.710000e-06	-2.280920e-06	-3.409310e-09	-1.612128e+01	-2.236124e+02
2.720000e-06	-2.374055e-06	-3.672431e-09	-1.677954e+01	-2.407968e+02
2.730000e-06	-2.466223e-06	-3.927375e-09	-1.743098e+01	-2.575259e+02
2.740000e-06	-2.557542e-06	-4.175800e-09	-1.807641e+01	-2.737783e+02
2.750000e-06	-2.647996e-06	-4.416936e-09	-1.871573e+01	-2.895477e+02
2.760000e-06	-2.737458e-06	-4.651819e-09	-1.934803e+01	-3.048362e+02
2.770000e-06	-2.826020e-06	-4.881116e-09	-1.997398e+01	-3.196485e+02
2.780000e-06	-2.913811e-06	-5.102511e-09	-2.059447e+01	-3.339873e+02
2.790000e-06	-3.000628e-06	-5.313737e-09	-2.120809e+01	-3.478507e+02
2.800000e-06	-3.086185e-06	-5.517131e-09	-2.181279e+01	-3.612329e+02
2.810000e-06	-3.170491e-06	-5.714706e-09	-2.240866e+01	-3.741261e+02
2.820000e-06	-3.253760e-06	-5.904499e-09	-2.299720e+01	-3.865250e+02
2.830000e-06	-3.336026e-06	-6.086505e-09	-2.357864e+01	-3.984295e+02
2.840000e-06	-3.417187e-06	-6.260252e-09	-2.415227e+01	-4.098474e+02
2.850000e-06	-3.497225e-06	-6.425351e-09	-2.471798e+01	-4.207945e+02
2.860000e-06	-3.575938e-06	-6.583073e-09	-2.527431e+01	-4.312926e+02
2.870000e-06	-3.653052e-06	-6.736195e-09	-2.581934e+01	-4.413662e+02
2.880000e-06	-3.728651e-06	-6.885518e-09	-2.635366e+01	-4.510376e+02
2.890000e-06	-3.802815e-06	-7.027426e-09	-2.687785e+01	-4.603239e+02
2.900000e-06	-3.875646e-06	-7.162846e-09	-2.739261e+01	-4.692348e+02
2.910000e-06	-3.947210e-06	-7.294945e-09	-2.789842e+01	-4.777727e+02
2.920000e-06	-4.017246e-06	-7.421172e-09	-2.839342e+01	-4.859350e+02
2.930000e-06	-4.085682e-06	-7.540307e-09	-2.887712e+01	-4.937185e+02
2.940000e-06	-4.152690e-06	-7.654468e-09	-2.935072e+01	-5.011238e+02
