# Temperatura_=_37.79
# Concentracion g/m^3_=_15000.0
# C_Vs_to_Am_M_A/Vsm_=_65563218390.804596
# pendiente_HvsI_1/m_=_3716.3
# ordenada_HvsI_A/m_=_1297.0
# frecuencia_Hz_=_301599.560473884

Tiempo_(s)	Campo_(V.s)	Magnetizacion_(V.s)	Campo_(kA/m)	Magnetizacion_(A/m)
0.000000e+00	-5.416516e-06	-8.176090e-09	-3.834057e+01	-5.336053e+02
1.000000e-08	-5.413932e-06	-8.173900e-09	-3.832228e+01	-5.333691e+02
2.000000e-08	-5.409541e-06	-8.168877e-09	-3.829119e+01	-5.330604e+02
3.000000e-08	-5.403574e-06	-8.163873e-09	-3.824896e+01	-5.326778e+02
4.000000e-08	-5.396014e-06	-8.155336e-09	-3.819544e+01	-5.322124e+02
5.000000e-08	-5.386584e-06	-8.142448e-09	-3.812869e+01	-5.316499e+02
6.000000e-08	-5.375104e-06	-8.125684e-09	-3.804743e+01	-5.309751e+02
7.000000e-08	-5.361661e-06	-8.102455e-09	-3.795228e+01	-5.301768e+02
8.000000e-08	-5.346116e-06	-8.111118e-09	-3.784224e+01	-5.292514e+02
9.000000e-08	-5.328359e-06	-8.142542e-09	-3.771655e+01	-5.282063e+02
1.000000e-07	-5.308589e-06	-8.110983e-09	-3.757661e+01	-5.270597e+02
1.100000e-07	-5.286885e-06	-8.070057e-09	-3.742298e+01	-5.258384e+02
1.200000e-07	-5.263376e-06	-8.023498e-09	-3.725657e+01	-5.245724e+02
1.300000e-07	-5.238273e-06	-7.919554e-09	-3.707888e+01	-5.232895e+02
1.400000e-07	-5.211609e-06	-7.994499e-09	-3.689015e+01	-5.220084e+02
1.500000e-07	-5.183412e-06	-8.027913e-09	-3.669055e+01	-5.207345e+02
1.600000e-07	-5.153708e-06	-7.886760e-09	-3.648029e+01	-5.194571e+02
1.700000e-07	-5.122426e-06	-7.955428e-09	-3.625887e+01	-5.181511e+02
1.800000e-07	-5.089101e-06	-7.910116e-09	-3.602298e+01	-5.167803e+02
1.900000e-07	-5.053834e-06	-7.783348e-09	-3.577334e+01	-5.153042e+02
2.000000e-07	-5.017065e-06	-7.882630e-09	-3.551307e+01	-5.136846e+02
2.100000e-07	-4.978584e-06	-7.811317e-09	-3.524069e+01	-5.118923e+02
2.200000e-07	-4.938266e-06	-7.702801e-09	-3.495530e+01	-5.099119e+02
2.300000e-07	-4.895970e-06	-7.747266e-09	-3.465591e+01	-5.077430e+02
2.400000e-07	-4.851711e-06	-7.703626e-09	-3.434262e+01	-5.053994e+02
2.500000e-07	-4.805622e-06	-7.673121e-09	-3.401638e+01	-5.029049e+02
2.600000e-07	-4.757595e-06	-7.633842e-09	-3.367643e+01	-5.002878e+02
2.700000e-07	-4.707456e-06	-7.557501e-09	-3.332152e+01	-4.975746e+02
2.800000e-07	-4.655246e-06	-7.524257e-09	-3.295195e+01	-4.947858e+02
2.900000e-07	-4.601252e-06	-7.479113e-09	-3.256976e+01	-4.919320e+02
3.000000e-07	-4.545668e-06	-7.444618e-09	-3.217631e+01	-4.890137e+02
3.100000e-07	-4.488373e-06	-7.418010e-09	-3.177075e+01	-4.860226e+02
3.200000e-07	-4.429312e-06	-7.377958e-09	-3.135269e+01	-4.829451e+02
3.300000e-07	-4.368677e-06	-7.297587e-09	-3.092348e+01	-4.797658e+02
3.400000e-07	-4.306549e-06	-7.229549e-09	-3.048371e+01	-4.764715e+02
3.500000e-07	-4.242989e-06	-7.219199e-09	-3.003381e+01	-4.730537e+02
3.600000e-07	-4.177876e-06	-7.155069e-09	-2.957291e+01	-4.695091e+02
3.700000e-07	-4.111075e-06	-7.077911e-09	-2.910006e+01	-4.658395e+02
3.800000e-07	-4.042773e-06	-7.037458e-09	-2.861659e+01	-4.620499e+02
3.900000e-07	-3.973070e-06	-6.975011e-09	-2.812320e+01	-4.581457e+02
4.000000e-07	-3.902050e-06	-6.906454e-09	-2.762049e+01	-4.541312e+02
4.100000e-07	-3.829825e-06	-6.841622e-09	-2.710924e+01	-4.500073e+02
4.200000e-07	-3.756121e-06	-6.791428e-09	-2.658754e+01	-4.457717e+02
4.300000e-07	-3.680781e-06	-6.719352e-09	-2.605424e+01	-4.414188e+02
4.400000e-07	-3.603973e-06	-6.640916e-09	-2.551056e+01	-4.369417e+02
4.500000e-07	-3.525679e-06	-6.579179e-09	-2.495636e+01	-4.323334e+02
4.600000e-07	-3.445930e-06	-6.518433e-09	-2.439187e+01	-4.275882e+02
4.700000e-07	-3.364970e-06	-6.443385e-09	-2.381879e+01	-4.227031e+02
4.800000e-07	-3.282860e-06	-6.348495e-09	-2.323758e+01	-4.176771e+02
4.900000e-07	-3.199654e-06	-6.273871e-09	-2.264861e+01	-4.125114e+02
5.000000e-07	-3.115432e-06	-6.201150e-09	-2.205245e+01	-4.072080e+02
5.100000e-07	-3.030250e-06	-6.113541e-09	-2.144949e+01	-4.017688e+02
5.200000e-07	-2.944168e-06	-6.025325e-09	-2.084016e+01	-3.961942e+02
5.300000e-07	-2.857098e-06	-5.938578e-09	-2.022384e+01	-3.904833e+02
5.400000e-07	-2.768986e-06	-5.846569e-09	-1.960014e+01	-3.846332e+02
5.500000e-07	-2.679843e-06	-5.751636e-09	-1.896915e+01	-3.786403e+02
5.600000e-07	-2.589571e-06	-5.659477e-09	-1.833016e+01	-3.725004e+02
5.700000e-07	-2.498206e-06	-5.565410e-09	-1.768344e+01	-3.662097e+02
5.800000e-07	-2.405991e-06	-5.464402e-09	-1.703070e+01	-3.597655e+02
5.900000e-07	-2.313002e-06	-5.360501e-09	-1.637248e+01	-3.531659e+02
6.000000e-07	-2.219152e-06	-5.260055e-09	-1.570817e+01	-3.464098e+02
6.100000e-07	-2.124541e-06	-5.157626e-09	-1.503847e+01	-3.394965e+02
6.200000e-07	-2.029229e-06	-5.048978e-09	-1.436381e+01	-3.324250e+02
6.300000e-07	-1.933124e-06	-4.934789e-09	-1.368353e+01	-3.251935e+02
6.400000e-07	-1.836251e-06	-4.820405e-09	-1.299782e+01	-3.177993e+02
6.500000e-07	-1.738636e-06	-4.705368e-09	-1.230686e+01	-3.102387e+02
6.600000e-07	-1.640243e-06	-4.585370e-09	-1.161039e+01	-3.025073e+02
6.700000e-07	-1.541200e-06	-4.461244e-09	-1.090932e+01	-2.946002e+02
6.800000e-07	-1.441651e-06	-4.335954e-09	-1.020466e+01	-2.865126e+02
6.900000e-07	-1.341682e-06	-4.210177e-09	-9.497036e+00	-2.782396e+02
7.000000e-07	-1.241329e-06	-4.083689e-09	-8.786690e+00	-2.697762e+02
7.100000e-07	-1.140582e-06	-3.953773e-09	-8.073558e+00	-2.611175e+02
7.200000e-07	-1.039518e-06	-3.816879e-09	-7.358181e+00	-2.522579e+02
7.300000e-07	-9.381408e-07	-3.676642e-09	-6.640588e+00	-2.431917e+02
7.400000e-07	-8.364901e-07	-3.532443e-09	-5.921058e+00	-2.339125e+02
7.500000e-07	-7.345200e-07	-3.384861e-09	-5.199267e+00	-2.244140e+02
7.600000e-07	-6.321684e-07	-3.234456e-09	-4.474776e+00	-2.146902e+02
7.700000e-07	-5.296258e-07	-3.081606e-09	-3.748933e+00	-2.047361e+02
7.800000e-07	-4.269828e-07	-2.926844e-09	-3.022378e+00	-1.945479e+02
7.900000e-07	-3.242059e-07	-2.767622e-09	-2.294877e+00	-1.841233e+02
8.000000e-07	-2.213314e-07	-2.603611e-09	-1.566684e+00	-1.734610e+02
8.100000e-07	-1.183778e-07	-2.435522e-09	-8.379316e-01	-1.625607e+02
8.200000e-07	-1.536722e-08	-2.265066e-09	-1.087762e-01	-1.514215e+02
8.300000e-07	8.770100e-08	-2.090905e-09	6.207876e-01	-1.400417e+02
8.400000e-07	1.907700e-07	-1.912046e-09	1.350357e+00	-1.284173e+02
8.500000e-07	2.937501e-07	-1.728805e-09	2.079297e+00	-1.165417e+02
8.600000e-07	3.966910e-07	-1.542694e-09	2.807959e+00	-1.044057e+02
8.700000e-07	4.995617e-07	-1.354624e-09	3.536125e+00	-9.199729e+01
8.800000e-07	6.022678e-07	-1.162272e-09	4.263126e+00	-7.930292e+01
8.900000e-07	7.047896e-07	-9.652122e-10	4.988822e+00	-6.630810e+01
9.000000e-07	8.070677e-07	-7.628804e-10	5.712793e+00	-5.299888e+01
9.100000e-07	9.090597e-07	-5.566441e-10	6.434738e+00	-3.936316e+01
9.200000e-07	1.010740e-06	-3.468363e-10	7.154481e+00	-2.539209e+01
9.300000e-07	1.112048e-06	-1.297791e-10	7.871580e+00	-1.108145e+01
9.400000e-07	1.212964e-06	9.456778e-11	8.585911e+00	3.566963e+00
9.500000e-07	1.313498e-06	3.219072e-10	9.297536e+00	1.854412e+01
9.600000e-07	1.413605e-06	5.524405e-10	1.000614e+01	3.383260e+01
9.700000e-07	1.513206e-06	7.883247e-10	1.071116e+01	4.940575e+01
9.800000e-07	1.612233e-06	1.028704e-09	1.141212e+01	6.522717e+01
9.900000e-07	1.710634e-06	1.273027e-09	1.210865e+01	8.125083e+01
1.000000e-06	1.808261e-06	1.519785e-09	1.279969e+01	9.742180e+01
1.010000e-06	1.905021e-06	1.768366e-09	1.348460e+01	1.136777e+02
1.020000e-06	2.000978e-06	2.017202e-09	1.416384e+01	1.299510e+02
1.030000e-06	2.096200e-06	2.265819e-09	1.483786e+01	1.461715e+02
1.040000e-06	2.190708e-06	2.512268e-09	1.550683e+01	1.622692e+02
1.050000e-06	2.284465e-06	2.753655e-09	1.617048e+01	1.781773e+02
1.060000e-06	2.377430e-06	2.990097e-09	1.682853e+01	1.938342e+02
1.070000e-06	2.469654e-06	3.221819e-09	1.748134e+01	2.091859e+02
1.080000e-06	2.561140e-06	3.450702e-09	1.812892e+01	2.241864e+02
1.090000e-06	2.651744e-06	3.673118e-09	1.877025e+01	2.387988e+02
1.100000e-06	2.741239e-06	3.887409e-09	1.940374e+01	2.529945e+02
1.110000e-06	2.829554e-06	4.094425e-09	2.002887e+01	2.667530e+02
1.120000e-06	2.916852e-06	4.294084e-09	2.064681e+01	2.800610e+02
1.130000e-06	3.003249e-06	4.488757e-09	2.125837e+01	2.929115e+02
1.140000e-06	3.088687e-06	4.678395e-09	2.186313e+01	3.053029e+02
1.150000e-06	3.173143e-06	4.860662e-09	2.246095e+01	3.172384e+02
1.160000e-06	3.256670e-06	5.035880e-09	2.305219e+01	3.287246e+02
1.170000e-06	3.339180e-06	5.205895e-09	2.363624e+01	3.397705e+02
1.180000e-06	3.420446e-06	5.369833e-09	2.421148e+01	3.503864e+02
1.190000e-06	3.500363e-06	5.526015e-09	2.477717e+01	3.605826e+02
1.200000e-06	3.578967e-06	5.673291e-09	2.533356e+01	3.703684e+02
1.210000e-06	3.656331e-06	5.814537e-09	2.588118e+01	3.797511e+02
1.220000e-06	3.732499e-06	5.950560e-09	2.642033e+01	3.887363e+02
1.230000e-06	3.807246e-06	6.081535e-09	2.694942e+01	3.973282e+02
1.240000e-06	3.880295e-06	6.207178e-09	2.746650e+01	4.055307e+02
1.250000e-06	3.951788e-06	6.326296e-09	2.797256e+01	4.133490e+02
1.260000e-06	4.021897e-06	6.437663e-09	2.846882e+01	4.207915e+02
1.270000e-06	4.090627e-06	6.542465e-09	2.895532e+01	4.278704e+02
1.280000e-06	4.158017e-06	6.642260e-09	2.943234e+01	4.346027e+02
1.290000e-06	4.223825e-06	6.737896e-09	2.989816e+01	4.410098e+02
1.300000e-06	4.287896e-06	6.830620e-09	3.035168e+01	4.471156e+02
1.310000e-06	4.350406e-06	6.919433e-09	3.079416e+01	4.529452e+02
1.320000e-06	4.411506e-06	7.005704e-09	3.122665e+01	4.585217e+02
1.330000e-06	4.471272e-06	7.089255e-09	3.164970e+01	4.638646e+02
1.340000e-06	4.529482e-06	7.168983e-09	3.206174e+01	4.689882e+02
1.350000e-06	4.585807e-06	7.244960e-09	3.246043e+01	4.739007e+02
1.360000e-06	4.640413e-06	7.315472e-09	3.284696e+01	4.786054e+02
1.370000e-06	4.693352e-06	7.382084e-09	3.322169e+01	4.831018e+02
1.380000e-06	4.744324e-06	7.447027e-09	3.358249e+01	4.873875e+02
1.390000e-06	4.793274e-06	7.509672e-09	3.392898e+01	4.914606e+02
1.400000e-06	4.840424e-06	7.567757e-09	3.426272e+01	4.953206e+02
1.410000e-06	4.885945e-06	7.621714e-09	3.458495e+01	4.989696e+02
1.420000e-06	4.929909e-06	7.673279e-09	3.489614e+01	5.024118e+02
1.430000e-06	4.972123e-06	7.723325e-09	3.519495e+01	5.056528e+02
1.440000e-06	5.012413e-06	7.770949e-09	3.548015e+01	5.086983e+02
1.450000e-06	5.050927e-06	7.814824e-09	3.575276e+01	5.115529e+02
1.460000e-06	5.087797e-06	7.854912e-09	3.601375e+01	5.142198e+02
1.470000e-06	5.123076e-06	7.888762e-09	3.626346e+01	5.167009e+02
1.480000e-06	5.156445e-06	7.919555e-09	3.649967e+01	5.189974e+02
1.490000e-06	5.187865e-06	7.949106e-09	3.672207e+01	5.211116e+02
1.500000e-06	5.217563e-06	7.975809e-09	3.693228e+01	5.230476e+02
1.510000e-06	5.245612e-06	8.000521e-09	3.713083e+01	5.248126e+02
1.520000e-06	5.271740e-06	8.023664e-09	3.731578e+01	5.264163e+02
1.530000e-06	5.295745e-06	8.047031e-09	3.748569e+01	5.278701e+02
1.540000e-06	5.317860e-06	8.068776e-09	3.764223e+01	5.291855e+02
1.550000e-06	5.338228e-06	8.086605e-09	3.778641e+01	5.303719e+02
1.560000e-06	5.356814e-06	8.101663e-09	3.791797e+01	5.314347e+02
1.570000e-06	5.373383e-06	8.114300e-09	3.803525e+01	5.323750e+02
1.580000e-06	5.387956e-06	8.125068e-09	3.813841e+01	5.331897e+02
1.590000e-06	5.400575e-06	8.134793e-09	3.822773e+01	5.338730e+02
1.600000e-06	5.410994e-06	8.144275e-09	3.830148e+01	5.344190e+02
1.610000e-06	5.419231e-06	8.152603e-09	3.835978e+01	5.348244e+02
1.620000e-06	5.425545e-06	8.157718e-09	3.840448e+01	5.350909e+02
1.630000e-06	5.430085e-06	8.161839e-09	3.843661e+01	5.352258e+02
1.640000e-06	5.432752e-06	8.166500e-09	3.845549e+01	5.352417e+02
1.650000e-06	5.433389e-06	8.169068e-09	3.846000e+01	5.351542e+02
1.660000e-06	5.432134e-06	8.165203e-09	3.845112e+01	5.349784e+02
1.670000e-06	5.429215e-06	8.160118e-09	3.843046e+01	5.347259e+02
1.680000e-06	5.424643e-06	8.154592e-09	3.839809e+01	5.344013e+02
1.690000e-06	5.418174e-06	8.146887e-09	3.835230e+01	5.340015e+02
1.700000e-06	5.409842e-06	8.139839e-09	3.829332e+01	5.335161e+02
1.710000e-06	5.399923e-06	8.134550e-09	3.822311e+01	5.329303e+02
1.720000e-06	5.388322e-06	8.136965e-09	3.814099e+01	5.322294e+02
1.730000e-06	5.374752e-06	8.118802e-09	3.804495e+01	5.314033e+02
1.740000e-06	5.359123e-06	8.045532e-09	3.793432e+01	5.304508e+02
1.750000e-06	5.341122e-06	8.040143e-09	3.780690e+01	5.293816e+02
1.760000e-06	5.320398e-06	8.044440e-09	3.766020e+01	5.282161e+02
1.770000e-06	5.297302e-06	8.060417e-09	3.749672e+01	5.269822e+02
1.780000e-06	5.272820e-06	8.123141e-09	3.732342e+01	5.257100e+02
1.790000e-06	5.247656e-06	7.974135e-09	3.714530e+01	5.244259e+02
1.800000e-06	5.221148e-06	7.955999e-09	3.695766e+01	5.231459e+02
1.810000e-06	5.192382e-06	8.024349e-09	3.675404e+01	5.218722e+02
1.820000e-06	5.161767e-06	7.862305e-09	3.653733e+01	5.205908e+02
1.830000e-06	5.129533e-06	7.926399e-09	3.630917e+01	5.192738e+02
1.840000e-06	5.095343e-06	7.953887e-09	3.606716e+01	5.178834e+02
1.850000e-06	5.059531e-06	7.772931e-09	3.581366e+01	5.163791e+02
1.860000e-06	5.021966e-06	7.870623e-09	3.554776e+01	5.147241e+02
1.870000e-06	4.982485e-06	7.845464e-09	3.526830e+01	5.128918e+02
1.880000e-06	4.941358e-06	7.710275e-09	3.497718e+01	5.108701e+02
1.890000e-06	4.898403e-06	7.757875e-09	3.467313e+01	5.086617e+02
1.900000e-06	4.853714e-06	7.657896e-09	3.435680e+01	5.062831e+02
1.910000e-06	4.807254e-06	7.664958e-09	3.402794e+01	5.037594e+02
1.920000e-06	4.758786e-06	7.647386e-09	3.368485e+01	5.011191e+02
1.930000e-06	4.708635e-06	7.526279e-09	3.332986e+01	4.983879e+02
1.940000e-06	4.656717e-06	7.594641e-09	3.296237e+01	4.955842e+02
1.950000e-06	4.602736e-06	7.504444e-09	3.258026e+01	4.927164e+02
1.960000e-06	4.546837e-06	7.401982e-09	3.218458e+01	4.897829e+02
1.970000e-06	4.489236e-06	7.381550e-09	3.177685e+01	4.867741e+02
1.980000e-06	4.430163e-06	7.346017e-09	3.135871e+01	4.836756e+02
1.990000e-06	4.369533e-06	7.341261e-09	3.092954e+01	4.804722e+02
2.000000e-06	4.307161e-06	7.218531e-09	3.048804e+01	4.771516e+02
2.010000e-06	4.243171e-06	7.208342e-09	3.003509e+01	4.737062e+02
2.020000e-06	4.177683e-06	7.172223e-09	2.957154e+01	4.701340e+02
2.030000e-06	4.110777e-06	7.044094e-09	2.909795e+01	4.664378e+02
2.040000e-06	4.042408e-06	7.034202e-09	2.861400e+01	4.626227e+02
2.050000e-06	3.972510e-06	6.987936e-09	2.811923e+01	4.586942e+02
2.060000e-06	3.901134e-06	6.930077e-09	2.761400e+01	4.546558e+02
2.070000e-06	3.828396e-06	6.826849e-09	2.709913e+01	4.505079e+02
2.080000e-06	3.754349e-06	6.759530e-09	2.657500e+01	4.462472e+02
2.090000e-06	3.678849e-06	6.738981e-09	2.604057e+01	4.418678e+02
2.100000e-06	3.601857e-06	6.647314e-09	2.549559e+01	4.373627e+02
2.110000e-06	3.523339e-06	6.567548e-09	2.493980e+01	4.327250e+02
2.120000e-06	3.443475e-06	6.495744e-09	2.437448e+01	4.279496e+02
2.130000e-06	3.362478e-06	6.437604e-09	2.380115e+01	4.230338e+02
2.140000e-06	3.280340e-06	6.344224e-09	2.321974e+01	4.179772e+02
2.150000e-06	3.197165e-06	6.262483e-09	2.263099e+01	4.127814e+02
2.160000e-06	3.112932e-06	6.202918e-09	2.203475e+01	4.074484e+02
2.170000e-06	3.027496e-06	6.108434e-09	2.143000e+01	4.019797e+02
2.180000e-06	2.940759e-06	6.018038e-09	2.081603e+01	3.963756e+02
2.190000e-06	2.852854e-06	5.931384e-09	2.019380e+01	3.906346e+02
2.200000e-06	2.763974e-06	5.861411e-09	1.956467e+01	3.847539e+02
2.210000e-06	2.674165e-06	5.771726e-09	1.892896e+01	3.787293e+02
2.220000e-06	2.583483e-06	5.665381e-09	1.828707e+01	3.725569e+02
2.230000e-06	2.491953e-06	5.566980e-09	1.763918e+01	3.662331e+02
2.240000e-06	2.399557e-06	5.469795e-09	1.698516e+01	3.597553e+02
2.250000e-06	2.306300e-06	5.371962e-09	1.632504e+01	3.531218e+02
2.260000e-06	2.212159e-06	5.269217e-09	1.565867e+01	3.463316e+02
2.270000e-06	2.117063e-06	5.166682e-09	1.498554e+01	3.393840e+02
2.280000e-06	2.021061e-06	5.057375e-09	1.430599e+01	3.322780e+02
2.290000e-06	1.924317e-06	4.943688e-09	1.362119e+01	3.250114e+02
2.300000e-06	1.827033e-06	4.830447e-09	1.293257e+01	3.175814e+02
2.310000e-06	1.729322e-06	4.722435e-09	1.224093e+01	3.099841e+02
2.320000e-06	1.631046e-06	4.607198e-09	1.154529e+01	3.022150e+02
2.330000e-06	1.532173e-06	4.481746e-09	1.084542e+01	2.942693e+02
2.340000e-06	1.432832e-06	4.356466e-09	1.014224e+01	2.861419e+02
2.350000e-06	1.333062e-06	4.230057e-09	9.436018e+00	2.778280e+02
2.360000e-06	1.232928e-06	4.102726e-09	8.727223e+00	2.693228e+02
2.370000e-06	1.132472e-06	3.971328e-09	8.016154e+00	2.606210e+02
2.380000e-06	1.031640e-06	3.835196e-09	7.302418e+00	2.517172e+02
2.390000e-06	9.303470e-07	3.697724e-09	6.585420e+00	2.426054e+02
2.400000e-06	8.286228e-07	3.558619e-09	5.865370e+00	2.332793e+02
2.410000e-06	7.265512e-07	3.414830e-09	5.142860e+00	2.237325e+02
2.420000e-06	6.241585e-07	3.265412e-09	4.418078e+00	2.139593e+02
2.430000e-06	5.215394e-07	3.111351e-09	3.691694e+00	2.039549e+02
2.440000e-06	4.187390e-07	2.956160e-09	2.964025e+00	1.937157e+02
2.450000e-06	3.157136e-07	2.797668e-09	2.234764e+00	1.832397e+02
2.460000e-06	2.124790e-07	2.635749e-09	1.504023e+00	1.725260e+02
2.470000e-06	1.091067e-07	2.473966e-09	7.723066e-01	1.615742e+02
2.480000e-06	5.680642e-09	2.304639e-09	4.021017e-02	1.503832e+02
2.490000e-06	-9.772112e-08	2.126717e-09	-6.917146e-01	1.389509e+02
2.500000e-06	-2.010878e-07	1.947701e-09	-1.423391e+00	1.272729e+02
2.510000e-06	-3.043700e-07	1.769767e-09	-2.154470e+00	1.153419e+02
2.520000e-06	-4.075506e-07	1.588270e-09	-2.884829e+00	1.031481e+02
2.530000e-06	-5.105866e-07	1.398160e-09	-3.614164e+00	9.067918e+01
2.540000e-06	-6.133648e-07	1.202294e-09	-4.341675e+00	7.792119e+01
2.550000e-06	-7.159092e-07	1.001424e-09	-5.067531e+00	6.485968e+01
2.560000e-06	-8.182026e-07	7.926298e-10	-5.791611e+00	5.148097e+01
2.570000e-06	-9.200731e-07	5.792941e-10	-6.512697e+00	3.777354e+01
2.580000e-06	-1.021440e-06	3.635458e-10	-7.230218e+00	2.372941e+01
2.590000e-06	-1.122317e-06	1.429743e-10	-7.944270e+00	9.345555e+00
2.600000e-06	-1.222714e-06	-8.207042e-11	-8.654926e+00	-5.374792e+00
2.610000e-06	-1.322724e-06	-3.101792e-10	-9.362843e+00	-2.042089e+01
2.620000e-06	-1.422276e-06	-5.441646e-10	-1.006752e+01	-3.577340e+01
2.630000e-06	-1.521303e-06	-7.836834e-10	-1.076847e+01	-5.140361e+01
2.640000e-06	-1.619836e-06	-1.026872e-09	-1.146593e+01	-6.727302e+01
2.650000e-06	-1.717822e-06	-1.272278e-09	-1.215953e+01	-8.333361e+01
2.660000e-06	-1.815198e-06	-1.519123e-09	-1.284880e+01	-9.952871e+01
2.670000e-06	-1.912013e-06	-1.768084e-09	-1.353410e+01	-1.157946e+02
2.680000e-06	-2.008271e-06	-2.014838e-09	-1.421546e+01	-1.320630e+02
2.690000e-06	-2.103866e-06	-2.259877e-09	-1.489212e+01	-1.482635e+02
2.700000e-06	-2.198685e-06	-2.503942e-09	-1.556330e+01	-1.643265e+02
2.710000e-06	-2.292593e-06	-2.746061e-09	-1.622802e+01	-1.801861e+02
2.720000e-06	-2.385446e-06	-2.984844e-09	-1.688528e+01	-1.957824e+02
2.730000e-06	-2.477296e-06	-3.218970e-09	-1.753543e+01	-2.110628e+02
2.740000e-06	-2.568306e-06	-3.449147e-09	-1.817964e+01	-2.259835e+02
2.750000e-06	-2.658415e-06	-3.673414e-09	-1.881747e+01	-2.405092e+02
2.760000e-06	-2.747600e-06	-3.891388e-09	-1.944877e+01	-2.546131e+02
2.770000e-06	-2.835960e-06	-4.103273e-09	-2.007422e+01	-2.682764e+02
2.780000e-06	-2.923463e-06	-4.306526e-09	-2.069360e+01	-2.814872e+02
2.790000e-06	-3.009915e-06	-4.500242e-09	-2.130555e+01	-2.942397e+02
2.800000e-06	-3.095171e-06	-4.687258e-09	-2.190903e+01	-3.065336e+02
2.810000e-06	-3.179264e-06	-4.867606e-09	-2.250428e+01	-3.183726e+02
2.820000e-06	-3.262301e-06	-5.040752e-09	-2.309206e+01	-3.297640e+02
2.830000e-06	-3.344274e-06	-5.207735e-09	-2.367229e+01	-3.407173e+02
2.840000e-06	-3.425154e-06	-5.368232e-09	-2.424480e+01	-3.512429e+02
2.850000e-06	-3.504891e-06	-5.522255e-09	-2.480922e+01	-3.613510e+02
2.860000e-06	-3.583235e-06	-5.670157e-09	-2.536377e+01	-3.710503e+02
2.870000e-06	-3.660007e-06	-5.811974e-09	-2.590719e+01	-3.803479e+02
2.880000e-06	-3.735335e-06	-5.947121e-09	-2.644040e+01	-3.892489e+02
2.890000e-06	-3.809316e-06	-6.077244e-09	-2.696407e+01	-3.977575e+02
2.900000e-06	-3.881952e-06	-6.204475e-09	-2.747822e+01	-4.058776e+02
2.910000e-06	-3.953193e-06	-6.327376e-09	-2.798250e+01	-4.136150e+02
2.920000e-06	-4.022865e-06	-6.442197e-09	-2.847567e+01	-4.209788e+02
2.930000e-06	-4.090992e-06	-6.548832e-09	-2.895790e+01	-4.279823e+02
2.940000e-06	-4.157666e-06	-6.652004e-09	-2.942985e+01	-4.346435e+02
