# Temperatura_=_59.77
# Concentracion g/m^3_=_15000.0
# C_Vs_to_Am_M_A/Vsm_=_65563218390.804596
# pendiente_HvsI_1/m_=_3716.3
# ordenada_HvsI_A/m_=_1297.0
# frecuencia_Hz_=_301598.86455158604

Tiempo_(s)	Campo_(V.s)	Magnetizacion_(V.s)	Campo_(kA/m)	Magnetizacion_(A/m)
0.000000e+00	-5.420052e-06	-8.831412e-09	-3.834075e+01	-5.769396e+02
1.000000e-08	-5.417958e-06	-8.827816e-09	-3.832594e+01	-5.766629e+02
2.000000e-08	-5.413992e-06	-8.821956e-09	-3.829789e+01	-5.763014e+02
3.000000e-08	-5.408328e-06	-8.815564e-09	-3.825782e+01	-5.758574e+02
4.000000e-08	-5.401033e-06	-8.807700e-09	-3.820622e+01	-5.753248e+02
5.000000e-08	-5.391970e-06	-8.795811e-09	-3.814211e+01	-5.746912e+02
6.000000e-08	-5.380896e-06	-8.780825e-09	-3.806377e+01	-5.739415e+02
7.000000e-08	-5.367908e-06	-8.767191e-09	-3.797189e+01	-5.730624e+02
8.000000e-08	-5.352944e-06	-8.755023e-09	-3.786604e+01	-5.720475e+02
9.000000e-08	-5.335734e-06	-8.752421e-09	-3.774430e+01	-5.709002e+02
1.000000e-07	-5.316374e-06	-8.746812e-09	-3.760735e+01	-5.696344e+02
1.100000e-07	-5.295055e-06	-8.711613e-09	-3.745654e+01	-5.682733e+02
1.200000e-07	-5.271948e-06	-8.668491e-09	-3.729309e+01	-5.668450e+02
1.300000e-07	-5.247227e-06	-8.626998e-09	-3.711822e+01	-5.653764e+02
1.400000e-07	-5.220899e-06	-8.595570e-09	-3.693197e+01	-5.638877e+02
1.500000e-07	-5.192985e-06	-8.613287e-09	-3.673452e+01	-5.623872e+02
1.600000e-07	-5.163564e-06	-8.594567e-09	-3.652639e+01	-5.608687e+02
1.700000e-07	-5.132604e-06	-8.546073e-09	-3.630739e+01	-5.593120e+02
1.800000e-07	-5.099697e-06	-8.540383e-09	-3.607461e+01	-5.576857e+02
1.900000e-07	-5.064795e-06	-8.474572e-09	-3.582771e+01	-5.559529e+02
2.000000e-07	-5.028367e-06	-8.427053e-09	-3.557002e+01	-5.540778e+02
2.100000e-07	-4.990259e-06	-8.436107e-09	-3.530046e+01	-5.520312e+02
2.200000e-07	-4.950279e-06	-8.361644e-09	-3.501764e+01	-5.497958e+02
2.300000e-07	-4.908383e-06	-8.321062e-09	-3.472127e+01	-5.473677e+02
2.400000e-07	-4.864520e-06	-8.326688e-09	-3.441099e+01	-5.447560e+02
2.500000e-07	-4.818864e-06	-8.258162e-09	-3.408803e+01	-5.419795e+02
2.600000e-07	-4.771357e-06	-8.212506e-09	-3.375197e+01	-5.390619e+02
2.700000e-07	-4.721717e-06	-8.180537e-09	-3.340083e+01	-5.360268e+02
2.800000e-07	-4.669940e-06	-8.120506e-09	-3.303456e+01	-5.328927e+02
2.900000e-07	-4.616331e-06	-8.061652e-09	-3.265533e+01	-5.296707e+02
3.000000e-07	-4.561060e-06	-8.012542e-09	-3.226436e+01	-5.263628e+02
3.100000e-07	-4.504106e-06	-7.973797e-09	-3.186147e+01	-5.229632e+02
3.200000e-07	-4.445380e-06	-7.919433e-09	-3.144605e+01	-5.194610e+02
3.300000e-07	-4.384976e-06	-7.862701e-09	-3.101876e+01	-5.158432e+02
3.400000e-07	-4.323090e-06	-7.804622e-09	-3.058098e+01	-5.120976e+02
3.500000e-07	-4.259797e-06	-7.742708e-09	-3.013326e+01	-5.082159e+02
3.600000e-07	-4.194971e-06	-7.687913e-09	-2.967469e+01	-5.041942e+02
3.700000e-07	-4.128473e-06	-7.614503e-09	-2.920429e+01	-5.000331e+02
3.800000e-07	-4.060447e-06	-7.547469e-09	-2.872308e+01	-4.957363e+02
3.900000e-07	-3.991045e-06	-7.488215e-09	-2.823214e+01	-4.913092e+02
4.000000e-07	-3.920385e-06	-7.411072e-09	-2.773230e+01	-4.867565e+02
4.100000e-07	-3.848476e-06	-7.344231e-09	-2.722362e+01	-4.820810e+02
4.200000e-07	-3.775116e-06	-7.275196e-09	-2.670469e+01	-4.772827e+02
4.300000e-07	-3.700168e-06	-7.199565e-09	-2.617452e+01	-4.723590e+02
4.400000e-07	-3.623689e-06	-7.119391e-09	-2.563351e+01	-4.673050e+02
4.500000e-07	-3.545704e-06	-7.041891e-09	-2.508185e+01	-4.621149e+02
4.600000e-07	-3.466248e-06	-6.964928e-09	-2.451980e+01	-4.567830e+02
4.700000e-07	-3.385502e-06	-6.880862e-09	-2.394861e+01	-4.513047e+02
4.800000e-07	-3.303640e-06	-6.795993e-09	-2.336953e+01	-4.456771e+02
4.900000e-07	-3.220703e-06	-6.706147e-09	-2.278284e+01	-4.398989e+02
5.000000e-07	-3.136716e-06	-6.614329e-09	-2.218873e+01	-4.339706e+02
5.100000e-07	-3.051697e-06	-6.517526e-09	-2.158732e+01	-4.278935e+02
5.200000e-07	-2.965718e-06	-6.420136e-09	-2.097911e+01	-4.216691e+02
5.300000e-07	-2.878845e-06	-6.325908e-09	-2.036458e+01	-4.152989e+02
5.400000e-07	-2.790999e-06	-6.229753e-09	-1.974317e+01	-4.087833e+02
5.500000e-07	-2.702095e-06	-6.127096e-09	-1.911427e+01	-4.021216e+02
5.600000e-07	-2.612004e-06	-6.019941e-09	-1.847698e+01	-3.953120e+02
5.700000e-07	-2.520811e-06	-5.913722e-09	-1.783190e+01	-3.883514e+02
5.800000e-07	-2.428721e-06	-5.803612e-09	-1.718047e+01	-3.812359e+02
5.900000e-07	-2.335806e-06	-5.688785e-09	-1.652319e+01	-3.739609e+02
6.000000e-07	-2.242066e-06	-5.575630e-09	-1.586009e+01	-3.665217e+02
6.100000e-07	-2.147564e-06	-5.462215e-09	-1.519159e+01	-3.589140e+02
6.200000e-07	-2.052389e-06	-5.344293e-09	-1.451834e+01	-3.511340e+02
6.300000e-07	-1.956492e-06	-5.221213e-09	-1.383998e+01	-3.431787e+02
6.400000e-07	-1.859804e-06	-5.096169e-09	-1.315601e+01	-3.350463e+02
6.500000e-07	-1.762304e-06	-4.969626e-09	-1.246631e+01	-3.267353e+02
6.600000e-07	-1.664022e-06	-4.836818e-09	-1.177108e+01	-3.182446e+02
6.700000e-07	-1.565030e-06	-4.702162e-09	-1.107082e+01	-3.095724e+02
6.800000e-07	-1.465495e-06	-4.567714e-09	-1.036673e+01	-3.007161e+02
6.900000e-07	-1.365568e-06	-4.429896e-09	-9.659850e+00	-2.916712e+02
7.000000e-07	-1.265268e-06	-4.287942e-09	-8.950342e+00	-2.824315e+02
7.100000e-07	-1.164558e-06	-4.142406e-09	-8.237932e+00	-2.729892e+02
7.200000e-07	-1.063473e-06	-3.994209e-09	-7.522869e+00	-2.633360e+02
7.300000e-07	-9.620634e-07	-3.841180e-09	-6.805513e+00	-2.534633e+02
7.400000e-07	-8.603214e-07	-3.684585e-09	-6.085804e+00	-2.433640e+02
7.500000e-07	-7.582422e-07	-3.524994e-09	-5.363708e+00	-2.330329e+02
7.600000e-07	-6.559007e-07	-3.360551e-09	-4.639757e+00	-2.224673e+02
7.700000e-07	-5.533445e-07	-3.193036e-09	-3.914289e+00	-2.116667e+02
7.800000e-07	-4.506015e-07	-3.023895e-09	-3.187497e+00	-2.006321e+02
7.900000e-07	-3.477690e-07	-2.853821e-09	-2.460073e+00	-1.893647e+02
8.000000e-07	-2.448614e-07	-2.679183e-09	-1.732119e+00	-1.778643e+02
8.100000e-07	-1.418567e-07	-2.497936e-09	-1.003476e+00	-1.661284e+02
8.200000e-07	-3.876323e-08	-2.313304e-09	-2.742061e-01	-1.541506e+02
8.300000e-07	6.434061e-08	-2.126962e-09	4.551373e-01	-1.419211e+02
8.400000e-07	1.674236e-07	-1.936568e-09	1.184333e+00	-1.294270e+02
8.500000e-07	2.704743e-07	-1.739915e-09	1.913301e+00	-1.166531e+02
8.600000e-07	3.734439e-07	-1.541384e-09	2.641695e+00	-1.035837e+02
8.700000e-07	4.763329e-07	-1.339218e-09	3.369518e+00	-9.020353e+01
8.800000e-07	5.791289e-07	-1.131273e-09	4.096684e+00	-7.649905e+01
8.900000e-07	6.817682e-07	-9.186338e-10	4.822741e+00	-6.245897e+01
9.000000e-07	7.842182e-07	-7.009086e-10	5.547460e+00	-4.807435e+01
9.100000e-07	8.863983e-07	-4.773254e-10	6.270269e+00	-3.333858e+01
9.200000e-07	9.882009e-07	-2.475452e-10	6.990407e+00	-1.824742e+01
9.300000e-07	1.089598e-06	-1.225225e-11	7.707677e+00	-2.799527e+00
9.400000e-07	1.190617e-06	2.283129e-10	8.422274e+00	1.300237e+01
9.500000e-07	1.291248e-06	4.731272e-10	9.134125e+00	2.914959e+01
9.600000e-07	1.391475e-06	7.219174e-10	9.843115e+00	4.562516e+01
9.700000e-07	1.491295e-06	9.758039e-10	1.054923e+01	6.240150e+01
9.800000e-07	1.590622e-06	1.234415e-09	1.125186e+01	7.943856e+01
9.900000e-07	1.689323e-06	1.495246e-09	1.195006e+01	9.668319e+01
1.000000e-06	1.787274e-06	1.756700e-09	1.264295e+01	1.140699e+02
1.010000e-06	1.884349e-06	2.019024e-09	1.332965e+01	1.315230e+02
1.020000e-06	1.980533e-06	2.283617e-09	1.401004e+01	1.489609e+02
1.030000e-06	2.075948e-06	2.548121e-09	1.468499e+01	1.663000e+02
1.040000e-06	2.170687e-06	2.810030e-09	1.535516e+01	1.834597e+02
1.050000e-06	2.264694e-06	3.066491e-09	1.602015e+01	2.003666e+02
1.060000e-06	2.357893e-06	3.316207e-09	1.667943e+01	2.169574e+02
1.070000e-06	2.450355e-06	3.560870e-09	1.733350e+01	2.331802e+02
1.080000e-06	2.542145e-06	3.802548e-09	1.798281e+01	2.489951e+02
1.090000e-06	2.633123e-06	4.038189e-09	1.862637e+01	2.643724e+02
1.100000e-06	2.722979e-06	4.265478e-09	1.926201e+01	2.792916e+02
1.110000e-06	2.811587e-06	4.482360e-09	1.988881e+01	2.937388e+02
1.120000e-06	2.899151e-06	4.689612e-09	2.050822e+01	3.077060e+02
1.130000e-06	2.985819e-06	4.892054e-09	2.112130e+01	3.211894e+02
1.140000e-06	3.071527e-06	5.090318e-09	2.172759e+01	3.341896e+02
1.150000e-06	3.156249e-06	5.280749e-09	2.232690e+01	3.467113e+02
1.160000e-06	3.240056e-06	5.463194e-09	2.291974e+01	3.587628e+02
1.170000e-06	3.322842e-06	5.639482e-09	2.350536e+01	3.703557e+02
1.180000e-06	3.404367e-06	5.809533e-09	2.408206e+01	3.815038e+02
1.190000e-06	3.484580e-06	5.973221e-09	2.464948e+01	3.922210e+02
1.200000e-06	3.563561e-06	6.130863e-09	2.520817e+01	4.025199e+02
1.210000e-06	3.641281e-06	6.282238e-09	2.575796e+01	4.124098e+02
1.220000e-06	3.717712e-06	6.427660e-09	2.629862e+01	4.218964e+02
1.230000e-06	3.792736e-06	6.566628e-09	2.682933e+01	4.309816e+02
1.240000e-06	3.866096e-06	6.697903e-09	2.734827e+01	4.396652e+02
1.250000e-06	3.937882e-06	6.821534e-09	2.785608e+01	4.479476e+02
1.260000e-06	4.008288e-06	6.937698e-09	2.835411e+01	4.558319e+02
1.270000e-06	4.077315e-06	7.048405e-09	2.884240e+01	4.633269e+02
1.280000e-06	4.145033e-06	7.155321e-09	2.932143e+01	4.704485e+02
1.290000e-06	4.211217e-06	7.257981e-09	2.978961e+01	4.772194e+02
1.300000e-06	4.275617e-06	7.356590e-09	3.024517e+01	4.836677e+02
1.310000e-06	4.338468e-06	7.450745e-09	3.068977e+01	4.898241e+02
1.320000e-06	4.399932e-06	7.539309e-09	3.112456e+01	4.957183e+02
1.330000e-06	4.460038e-06	7.624432e-09	3.154974e+01	5.013754e+02
1.340000e-06	4.518613e-06	7.707957e-09	3.196409e+01	5.068137e+02
1.350000e-06	4.575371e-06	7.789443e-09	3.236559e+01	5.120432e+02
1.360000e-06	4.630404e-06	7.865169e-09	3.275489e+01	5.170664e+02
1.370000e-06	4.683801e-06	7.936549e-09	3.313261e+01	5.218803e+02
1.380000e-06	4.735373e-06	8.005923e-09	3.349743e+01	5.264793e+02
1.390000e-06	4.784904e-06	8.073649e-09	3.384780e+01	5.308581e+02
1.400000e-06	4.832510e-06	8.137900e-09	3.418456e+01	5.350141e+02
1.410000e-06	4.878465e-06	8.196211e-09	3.450964e+01	5.389484e+02
1.420000e-06	4.922833e-06	8.250180e-09	3.482349e+01	5.426658e+02
1.430000e-06	4.965435e-06	8.301893e-09	3.512485e+01	5.461735e+02
1.440000e-06	5.006123e-06	8.352378e-09	3.541268e+01	5.494787e+02
1.450000e-06	5.045062e-06	8.402835e-09	3.568812e+01	5.525873e+02
1.460000e-06	5.082391e-06	8.450080e-09	3.595219e+01	5.555023e+02
1.470000e-06	5.118141e-06	8.490195e-09	3.620507e+01	5.582240e+02
1.480000e-06	5.152009e-06	8.525594e-09	3.644465e+01	5.607509e+02
1.490000e-06	5.183865e-06	8.557286e-09	3.667000e+01	5.630818e+02
1.500000e-06	5.214019e-06	8.585132e-09	3.688331e+01	5.652176e+02
1.510000e-06	5.242551e-06	8.611414e-09	3.708514e+01	5.671631e+02
1.520000e-06	5.269220e-06	8.636178e-09	3.727379e+01	5.689272e+02
1.530000e-06	5.293781e-06	8.659917e-09	3.744753e+01	5.705225e+02
1.540000e-06	5.316383e-06	8.681719e-09	3.760742e+01	5.719628e+02
1.550000e-06	5.337225e-06	8.702310e-09	3.775485e+01	5.732610e+02
1.560000e-06	5.356212e-06	8.719505e-09	3.788916e+01	5.744259e+02
1.570000e-06	5.373241e-06	8.733618e-09	3.800962e+01	5.754614e+02
1.580000e-06	5.388306e-06	8.746693e-09	3.811619e+01	5.763655e+02
1.590000e-06	5.401379e-06	8.757467e-09	3.820867e+01	5.771317e+02
1.600000e-06	5.412278e-06	8.766339e-09	3.828576e+01	5.777522e+02
1.610000e-06	5.421004e-06	8.772913e-09	3.834749e+01	5.782205e+02
1.620000e-06	5.427776e-06	8.778512e-09	3.839540e+01	5.785347e+02
1.630000e-06	5.432706e-06	8.783528e-09	3.843027e+01	5.786993e+02
1.640000e-06	5.435822e-06	8.786693e-09	3.845231e+01	5.787250e+02
1.650000e-06	5.436909e-06	8.786718e-09	3.846000e+01	5.786274e+02
1.660000e-06	5.436010e-06	8.784302e-09	3.845364e+01	5.784234e+02
1.670000e-06	5.433437e-06	8.779000e-09	3.843544e+01	5.781274e+02
1.680000e-06	5.429230e-06	8.773365e-09	3.840568e+01	5.777478e+02
1.690000e-06	5.423158e-06	8.766258e-09	3.836273e+01	5.772851e+02
1.700000e-06	5.415228e-06	8.756899e-09	3.830663e+01	5.767315e+02
1.710000e-06	5.405707e-06	8.746707e-09	3.823928e+01	5.760738e+02
1.720000e-06	5.394562e-06	8.735646e-09	3.816044e+01	5.752967e+02
1.730000e-06	5.381501e-06	8.720178e-09	3.806805e+01	5.743883e+02
1.740000e-06	5.366336e-06	8.694052e-09	3.796077e+01	5.733438e+02
1.750000e-06	5.348918e-06	8.654932e-09	3.783756e+01	5.721690e+02
1.760000e-06	5.328907e-06	8.648064e-09	3.769600e+01	5.708801e+02
1.770000e-06	5.306370e-06	8.652930e-09	3.753658e+01	5.695017e+02
1.780000e-06	5.282185e-06	8.653827e-09	3.736550e+01	5.680620e+02
1.790000e-06	5.257183e-06	8.633455e-09	3.718864e+01	5.665872e+02
1.800000e-06	5.231038e-06	8.547379e-09	3.700370e+01	5.650952e+02
1.810000e-06	5.202788e-06	8.536016e-09	3.680385e+01	5.635914e+02
1.820000e-06	5.172502e-06	8.553015e-09	3.658962e+01	5.620664e+02
1.830000e-06	5.140637e-06	8.509584e-09	3.636421e+01	5.604971e+02
1.840000e-06	5.106884e-06	8.533521e-09	3.612544e+01	5.588506e+02
1.850000e-06	5.071349e-06	8.524615e-09	3.587408e+01	5.570897e+02
1.860000e-06	5.034172e-06	8.461215e-09	3.561109e+01	5.551794e+02
1.870000e-06	4.995075e-06	8.478586e-09	3.533452e+01	5.530928e+02
1.880000e-06	4.954271e-06	8.407410e-09	3.504588e+01	5.508154e+02
1.890000e-06	4.911750e-06	8.342363e-09	3.474509e+01	5.483463e+02
1.900000e-06	4.867481e-06	8.363710e-09	3.443194e+01	5.456970e+02
1.910000e-06	4.821450e-06	8.277851e-09	3.410632e+01	5.428876e+02
1.920000e-06	4.773321e-06	8.232299e-09	3.376586e+01	5.399424e+02
1.930000e-06	4.723413e-06	8.203197e-09	3.341282e+01	5.368842e+02
1.940000e-06	4.671839e-06	8.151196e-09	3.304799e+01	5.337302e+02
1.950000e-06	4.618245e-06	8.134562e-09	3.266888e+01	5.304893e+02
1.960000e-06	4.562710e-06	8.043129e-09	3.227603e+01	5.271619e+02
1.970000e-06	4.505391e-06	7.986240e-09	3.187056e+01	5.237409e+02
1.980000e-06	4.446545e-06	7.940862e-09	3.145429e+01	5.202145e+02
1.990000e-06	4.386235e-06	7.879012e-09	3.102767e+01	5.165697e+02
2.000000e-06	4.324240e-06	7.843884e-09	3.058912e+01	5.127950e+02
2.010000e-06	4.260601e-06	7.762439e-09	3.013895e+01	5.088829e+02
2.020000e-06	4.195425e-06	7.724934e-09	2.967790e+01	5.048306e+02
2.030000e-06	4.128791e-06	7.650165e-09	2.920654e+01	5.006395e+02
2.040000e-06	4.060686e-06	7.567946e-09	2.872478e+01	4.963138e+02
2.050000e-06	3.991057e-06	7.532544e-09	2.823223e+01	4.918589e+02
2.060000e-06	3.919948e-06	7.439325e-09	2.772921e+01	4.872792e+02
2.070000e-06	3.847458e-06	7.371769e-09	2.721643e+01	4.825769e+02
2.080000e-06	3.773649e-06	7.290988e-09	2.669431e+01	4.777516e+02
2.090000e-06	3.698456e-06	7.220111e-09	2.616241e+01	4.727998e+02
2.100000e-06	3.621791e-06	7.155924e-09	2.562008e+01	4.677167e+02
2.110000e-06	3.543557e-06	7.060284e-09	2.506667e+01	4.624961e+02
2.120000e-06	3.463896e-06	6.986549e-09	2.450316e+01	4.571326e+02
2.130000e-06	3.383125e-06	6.893615e-09	2.393180e+01	4.516220e+02
2.140000e-06	3.301244e-06	6.810007e-09	2.335258e+01	4.459616e+02
2.150000e-06	3.218230e-06	6.722287e-09	2.276535e+01	4.401507e+02
2.160000e-06	3.134146e-06	6.637854e-09	2.217055e+01	4.341898e+02
2.170000e-06	3.048919e-06	6.554395e-09	2.156766e+01	4.280804e+02
2.180000e-06	2.962432e-06	6.446839e-09	2.095586e+01	4.218242e+02
2.190000e-06	2.874741e-06	6.344580e-09	2.033555e+01	4.154223e+02
2.200000e-06	2.786064e-06	6.245823e-09	1.970826e+01	4.088749e+02
2.210000e-06	2.696420e-06	6.153320e-09	1.907413e+01	4.021812e+02
2.220000e-06	2.605843e-06	6.047391e-09	1.843340e+01	3.953390e+02
2.230000e-06	2.514392e-06	5.940181e-09	1.778648e+01	3.883451e+02
2.240000e-06	2.422116e-06	5.834992e-09	1.713374e+01	3.811952e+02
2.250000e-06	2.328996e-06	5.722675e-09	1.647502e+01	3.738849e+02
2.260000e-06	2.234958e-06	5.606553e-09	1.580981e+01	3.664095e+02
2.270000e-06	2.139987e-06	5.487527e-09	1.513800e+01	3.587646e+02
2.280000e-06	2.044086e-06	5.371877e-09	1.445961e+01	3.509467e+02
2.290000e-06	1.947433e-06	5.248385e-09	1.377589e+01	3.429531e+02
2.300000e-06	1.850239e-06	5.122974e-09	1.308835e+01	3.347819e+02
2.310000e-06	1.752555e-06	5.000657e-09	1.239735e+01	3.264320e+02
2.320000e-06	1.654300e-06	4.874353e-09	1.170231e+01	3.179020e+02
2.330000e-06	1.555468e-06	4.737772e-09	1.100318e+01	3.091902e+02
2.340000e-06	1.456166e-06	4.599424e-09	1.030073e+01	3.002934e+02
2.350000e-06	1.356457e-06	4.462199e-09	9.595401e+00	2.912067e+02
2.360000e-06	1.256364e-06	4.322777e-09	8.887362e+00	2.819238e+02
2.370000e-06	1.155902e-06	4.182127e-09	8.176700e+00	2.724365e+02
2.380000e-06	1.055049e-06	4.037131e-09	7.463281e+00	2.627364e+02
2.390000e-06	9.537447e-07	3.887094e-09	6.746668e+00	2.528152e+02
2.400000e-06	8.520145e-07	3.731352e-09	6.027042e+00	2.426661e+02
2.410000e-06	7.499270e-07	3.573597e-09	5.304888e+00	2.322843e+02
2.420000e-06	6.475024e-07	3.413568e-09	4.580349e+00	2.216678e+02
2.430000e-06	5.447735e-07	3.250011e-09	3.853658e+00	2.108164e+02
2.440000e-06	4.418851e-07	3.083475e-09	3.125838e+00	1.997313e+02
2.450000e-06	3.388515e-07	2.914149e-09	2.396992e+00	1.884135e+02
2.460000e-06	2.356093e-07	2.738217e-09	1.666670e+00	1.768625e+02
2.470000e-06	1.322485e-07	2.558201e-09	9.355091e-01	1.650748e+02
2.480000e-06	2.882077e-08	2.375216e-09	2.038744e-01	1.530435e+02
2.490000e-06	-7.469935e-08	2.187237e-09	-5.284137e-01	1.407580e+02
2.500000e-06	-1.781506e-07	1.994045e-09	-1.260215e+00	1.282047e+02
2.510000e-06	-2.814495e-07	1.797517e-09	-1.990938e+00	1.153683e+02
2.520000e-06	-3.846894e-07	1.600097e-09	-2.721244e+00	1.022330e+02
2.530000e-06	-4.878233e-07	1.397187e-09	-3.450800e+00	8.878385e+01
2.540000e-06	-5.907764e-07	1.187564e-09	-4.179077e+00	7.500779e+01
2.550000e-06	-6.935649e-07	9.704212e-10	-4.906190e+00	6.089402e+01
2.560000e-06	-7.960773e-07	7.448545e-10	-5.631349e+00	4.643411e+01
2.570000e-06	-8.981428e-07	5.135966e-10	-6.353347e+00	3.162192e+01
2.580000e-06	-9.996790e-07	2.804425e-10	-7.071601e+00	1.645378e+01
2.590000e-06	-1.100696e-06	4.456826e-11	-7.786184e+00	9.290981e-01
2.600000e-06	-1.201238e-06	-1.962674e-10	-8.497401e+00	-1.494830e+01
2.610000e-06	-1.301301e-06	-4.429424e-10	-9.205238e+00	-3.116817e+01
2.620000e-06	-1.400923e-06	-6.948864e-10	-9.909953e+00	-4.771145e+01
2.630000e-06	-1.500136e-06	-9.513609e-10	-1.061177e+01	-6.454801e+01
2.640000e-06	-1.598902e-06	-1.213691e-09	-1.131043e+01	-8.163500e+01
2.650000e-06	-1.697078e-06	-1.480759e-09	-1.200491e+01	-9.891650e+01
2.660000e-06	-1.794633e-06	-1.749646e-09	-1.269501e+01	-1.163246e+02
2.670000e-06	-1.891606e-06	-2.017984e-09	-1.338098e+01	-1.337821e+02
2.680000e-06	-1.987966e-06	-2.283871e-09	-1.406262e+01	-1.512063e+02
2.690000e-06	-2.083730e-06	-2.547512e-09	-1.474004e+01	-1.685141e+02
2.700000e-06	-2.178798e-06	-2.809658e-09	-1.541254e+01	-1.856260e+02
2.710000e-06	-2.272921e-06	-3.069132e-09	-1.607835e+01	-2.024707e+02
2.720000e-06	-2.366052e-06	-3.321805e-09	-1.673715e+01	-2.189870e+02
2.730000e-06	-2.458232e-06	-3.567021e-09	-1.738922e+01	-2.351260e+02
2.740000e-06	-2.549512e-06	-3.806916e-09	-1.803492e+01	-2.508498e+02
2.750000e-06	-2.639927e-06	-4.040644e-09	-1.867451e+01	-2.661309e+02
2.760000e-06	-2.729399e-06	-4.269192e-09	-1.930742e+01	-2.809504e+02
2.770000e-06	-2.817969e-06	-4.492953e-09	-1.993395e+01	-2.952959e+02
2.780000e-06	-2.905735e-06	-4.707419e-09	-2.055480e+01	-3.091601e+02
2.790000e-06	-2.992535e-06	-4.912099e-09	-2.116881e+01	-3.225403e+02
2.800000e-06	-3.078102e-06	-5.109359e-09	-2.177410e+01	-3.354380e+02
2.810000e-06	-3.162453e-06	-5.301245e-09	-2.237079e+01	-3.478586e+02
2.820000e-06	-3.245755e-06	-5.485933e-09	-2.296005e+01	-3.598113e+02
2.830000e-06	-3.328021e-06	-5.662037e-09	-2.354200e+01	-3.713083e+02
2.840000e-06	-3.409183e-06	-5.829473e-09	-2.411612e+01	-3.823634e+02
2.850000e-06	-3.489229e-06	-5.988564e-09	-2.468236e+01	-3.929905e+02
2.860000e-06	-3.568002e-06	-6.142102e-09	-2.523959e+01	-4.032016e+02
2.870000e-06	-3.645210e-06	-6.291429e-09	-2.578575e+01	-4.130053e+02
2.880000e-06	-3.720833e-06	-6.436636e-09	-2.632070e+01	-4.224063e+02
2.890000e-06	-3.795021e-06	-6.575483e-09	-2.684549e+01	-4.314060e+02
2.900000e-06	-3.867904e-06	-6.708909e-09	-2.736106e+01	-4.400041e+02
2.910000e-06	-3.939551e-06	-6.838399e-09	-2.786788e+01	-4.482013e+02
2.920000e-06	-4.009697e-06	-6.960715e-09	-2.836408e+01	-4.560018e+02
2.930000e-06	-4.078169e-06	-7.073853e-09	-2.884845e+01	-4.634158e+02
2.940000e-06	-4.145207e-06	-7.181516e-09	-2.932267e+01	-4.704606e+02
