# Temperatura_=_35.93
# Concentracion g/m^3_=_15000.0
# C_Vs_to_Am_M_A/Vsm_=_65563218390.804596
# pendiente_HvsI_1/m_=_3716.3
# ordenada_HvsI_A/m_=_1297.0
# frecuencia_Hz_=_301603.98620199435

Tiempo_(s)	Campo_(V.s)	Magnetizacion_(V.s)	Campo_(kA/m)	Magnetizacion_(A/m)
0.000000e+00	-5.430168e-06	-8.176963e-09	-3.833371e+01	-5.334360e+02
1.000000e-08	-5.427453e-06	-8.175656e-09	-3.831455e+01	-5.332183e+02
2.000000e-08	-5.422913e-06	-8.168942e-09	-3.828250e+01	-5.329271e+02
3.000000e-08	-5.416715e-06	-8.164251e-09	-3.823874e+01	-5.325570e+02
4.000000e-08	-5.408955e-06	-8.156722e-09	-3.818396e+01	-5.320968e+02
5.000000e-08	-5.399344e-06	-8.144246e-09	-3.811611e+01	-5.315328e+02
6.000000e-08	-5.387614e-06	-8.127030e-09	-3.803330e+01	-5.308527e+02
7.000000e-08	-5.374042e-06	-8.094434e-09	-3.793749e+01	-5.300495e+02
8.000000e-08	-5.358371e-06	-8.112453e-09	-3.782687e+01	-5.291245e+02
9.000000e-08	-5.340420e-06	-8.183925e-09	-3.770014e+01	-5.280888e+02
1.000000e-07	-5.320425e-06	-8.138980e-09	-3.755899e+01	-5.269615e+02
1.100000e-07	-5.298492e-06	-8.074065e-09	-3.740416e+01	-5.257672e+02
1.200000e-07	-5.274860e-06	-8.027445e-09	-3.723733e+01	-5.245309e+02
1.300000e-07	-5.249610e-06	-7.861549e-09	-3.705908e+01	-5.232734e+02
1.400000e-07	-5.222753e-06	-7.981457e-09	-3.686948e+01	-5.220061e+02
1.500000e-07	-5.194313e-06	-8.098042e-09	-3.666872e+01	-5.207288e+02
1.600000e-07	-5.164377e-06	-7.861110e-09	-3.645739e+01	-5.194287e+02
1.700000e-07	-5.132893e-06	-7.980639e-09	-3.623513e+01	-5.180827e+02
1.800000e-07	-5.099241e-06	-7.962285e-09	-3.599757e+01	-5.166609e+02
1.900000e-07	-5.063725e-06	-7.709121e-09	-3.574685e+01	-5.151320e+02
2.000000e-07	-5.026791e-06	-7.881721e-09	-3.548612e+01	-5.134681e+02
2.100000e-07	-4.988069e-06	-7.847310e-09	-3.521276e+01	-5.116494e+02
2.200000e-07	-4.947532e-06	-7.699418e-09	-3.492659e+01	-5.096661e+02
2.300000e-07	-4.905012e-06	-7.779369e-09	-3.462643e+01	-5.075190e+02
2.400000e-07	-4.860500e-06	-7.707326e-09	-3.431220e+01	-5.052178e+02
2.500000e-07	-4.814218e-06	-7.662041e-09	-3.398547e+01	-5.027779e+02
2.600000e-07	-4.765987e-06	-7.634636e-09	-3.364499e+01	-5.002165e+02
2.700000e-07	-4.715560e-06	-7.564060e-09	-3.328901e+01	-4.975489e+02
2.800000e-07	-4.663082e-06	-7.564064e-09	-3.291855e+01	-4.947863e+02
2.900000e-07	-4.608845e-06	-7.478214e-09	-3.253567e+01	-4.919340e+02
3.000000e-07	-4.553030e-06	-7.421992e-09	-3.214165e+01	-4.889922e+02
3.100000e-07	-4.495496e-06	-7.425150e-09	-3.173549e+01	-4.859569e+02
3.200000e-07	-4.436109e-06	-7.400790e-09	-3.131626e+01	-4.828225e+02
3.300000e-07	-4.375147e-06	-7.311603e-09	-3.088590e+01	-4.795833e+02
3.400000e-07	-4.312765e-06	-7.211765e-09	-3.044552e+01	-4.762353e+02
3.500000e-07	-4.249044e-06	-7.208755e-09	-2.999569e+01	-4.727767e+02
3.600000e-07	-4.183694e-06	-7.151483e-09	-2.953435e+01	-4.692077e+02
3.700000e-07	-4.116562e-06	-7.085285e-09	-2.906044e+01	-4.655294e+02
3.800000e-07	-4.047948e-06	-7.060033e-09	-2.857607e+01	-4.617425e+02
3.900000e-07	-3.977986e-06	-6.978397e-09	-2.808218e+01	-4.578463e+02
4.000000e-07	-3.906818e-06	-6.892439e-09	-2.757978e+01	-4.538378e+02
4.100000e-07	-3.834335e-06	-6.819550e-09	-2.706810e+01	-4.497122e+02
4.200000e-07	-3.760269e-06	-6.793918e-09	-2.654523e+01	-4.454631e+02
4.300000e-07	-3.684648e-06	-6.738705e-09	-2.601139e+01	-4.410841e+02
4.400000e-07	-3.607640e-06	-6.647856e-09	-2.546776e+01	-4.365704e+02
4.500000e-07	-3.529116e-06	-6.572122e-09	-2.491343e+01	-4.319190e+02
4.600000e-07	-3.449044e-06	-6.499710e-09	-2.434817e+01	-4.271301e+02
4.700000e-07	-3.367814e-06	-6.436000e-09	-2.377474e+01	-4.222064e+02
4.800000e-07	-3.285515e-06	-6.353788e-09	-2.319375e+01	-4.171527e+02
4.900000e-07	-3.202113e-06	-6.273321e-09	-2.260498e+01	-4.119738e+02
5.000000e-07	-3.117701e-06	-6.191411e-09	-2.200909e+01	-4.066738e+02
5.100000e-07	-3.032210e-06	-6.100482e-09	-2.140557e+01	-4.012545e+02
5.200000e-07	-2.945674e-06	-6.017681e-09	-2.079468e+01	-3.957147e+02
5.300000e-07	-2.858231e-06	-5.941641e-09	-2.017739e+01	-3.900500e+02
5.400000e-07	-2.769826e-06	-5.857922e-09	-1.955330e+01	-3.842532e+02
5.500000e-07	-2.680316e-06	-5.758527e-09	-1.892141e+01	-3.783158e+02
5.600000e-07	-2.589644e-06	-5.653386e-09	-1.828133e+01	-3.722287e+02
5.700000e-07	-2.497943e-06	-5.561108e-09	-1.763397e+01	-3.659838e+02
5.800000e-07	-2.405413e-06	-5.476720e-09	-1.698076e+01	-3.595750e+02
5.900000e-07	-2.312117e-06	-5.378465e-09	-1.632215e+01	-3.529986e+02
6.000000e-07	-2.218017e-06	-5.263993e-09	-1.565786e+01	-3.462535e+02
6.100000e-07	-2.123129e-06	-5.152492e-09	-1.498801e+01	-3.393405e+02
6.200000e-07	-2.027522e-06	-5.047457e-09	-1.431308e+01	-3.322617e+02
6.300000e-07	-1.931157e-06	-4.940434e-09	-1.363280e+01	-3.250192e+02
6.400000e-07	-1.833946e-06	-4.832393e-09	-1.294655e+01	-3.176145e+02
6.500000e-07	-1.735901e-06	-4.718197e-09	-1.225441e+01	-3.100473e+02
6.600000e-07	-1.637148e-06	-4.592423e-09	-1.155728e+01	-3.023156e+02
6.700000e-07	-1.537834e-06	-4.460985e-09	-1.085618e+01	-2.944148e+02
6.800000e-07	-1.438021e-06	-4.338403e-09	-1.015156e+01	-2.863388e+02
6.900000e-07	-1.337781e-06	-4.221387e-09	-9.443929e+00	-2.780798e+02
7.000000e-07	-1.237143e-06	-4.095518e-09	-8.733485e+00	-2.696296e+02
7.100000e-07	-1.136138e-06	-3.958992e-09	-8.020447e+00	-2.609800e+02
7.200000e-07	-1.034779e-06	-3.818402e-09	-7.304918e+00	-2.521234e+02
7.300000e-07	-9.330626e-07	-3.679035e-09	-6.586859e+00	-2.430538e+02
7.400000e-07	-8.310176e-07	-3.537948e-09	-5.866483e+00	-2.337664e+02
7.500000e-07	-7.286805e-07	-3.393164e-09	-5.144045e+00	-2.242578e+02
7.600000e-07	-6.261357e-07	-3.240533e-09	-4.420140e+00	-2.145255e+02
7.700000e-07	-5.234086e-07	-3.081545e-09	-3.694949e+00	-2.045678e+02
7.800000e-07	-4.205163e-07	-2.924847e-09	-2.968591e+00	-1.943827e+02
7.900000e-07	-3.174595e-07	-2.769569e-09	-2.241073e+00	-1.839677e+02
8.000000e-07	-2.143236e-07	-2.608273e-09	-1.512995e+00	-1.733194e+02
8.100000e-07	-1.111215e-07	-2.438795e-09	-7.844509e-01	-1.624335e+02
8.200000e-07	-7.832552e-09	-2.265177e-09	-5.529310e-02	-1.513046e+02
8.300000e-07	9.543754e-08	-2.089115e-09	6.737314e-01	-1.399264e+02
8.400000e-07	1.987227e-07	-1.912039e-09	1.402862e+00	-1.282924e+02
8.500000e-07	3.019656e-07	-1.730972e-09	2.131695e+00	-1.163953e+02
8.600000e-07	4.050426e-07	-1.545063e-09	2.859357e+00	-1.042275e+02
8.700000e-07	5.079884e-07	-1.353306e-09	3.586092e+00	-9.178100e+01
8.800000e-07	6.108119e-07	-1.157269e-09	4.311964e+00	-7.904695e+01
8.900000e-07	7.134675e-07	-9.597928e-10	5.036650e+00	-6.601564e+01
9.000000e-07	8.159361e-07	-7.600730e-10	5.760017e+00	-5.267668e+01
9.100000e-07	9.181749e-07	-5.553318e-10	6.481761e+00	-3.901961e+01
9.200000e-07	1.020134e-06	-3.427384e-10	7.201529e+00	-2.503507e+01
9.300000e-07	1.121743e-06	-1.244147e-10	7.918832e+00	-1.071665e+01
9.400000e-07	1.222950e-06	1.006144e-10	8.633288e+00	3.937022e+00
9.500000e-07	1.323709e-06	3.270791e-10	9.344586e+00	1.891987e+01
9.600000e-07	1.424032e-06	5.548619e-10	1.005281e+01	3.421634e+01
9.700000e-07	1.523890e-06	7.906238e-10	1.075774e+01	4.979992e+01
9.800000e-07	1.623177e-06	1.033897e-09	1.145865e+01	6.563264e+01
9.900000e-07	1.721807e-06	1.281837e-09	1.215492e+01	8.166565e+01
1.000000e-06	1.819685e-06	1.528868e-09	1.284588e+01	9.784089e+01
1.010000e-06	1.916768e-06	1.775265e-09	1.353123e+01	1.140936e+02
1.020000e-06	2.013037e-06	2.021838e-09	1.421083e+01	1.303554e+02
1.030000e-06	2.108475e-06	2.268944e-09	1.488456e+01	1.465571e+02
1.040000e-06	2.203137e-06	2.516006e-09	1.555282e+01	1.626318e+02
1.050000e-06	2.297085e-06	2.757351e-09	1.621603e+01	1.785168e+02
1.060000e-06	2.390284e-06	2.992911e-09	1.687396e+01	1.941546e+02
1.070000e-06	2.482751e-06	3.223823e-09	1.752672e+01	2.094943e+02
1.080000e-06	2.574499e-06	3.451780e-09	1.817441e+01	2.244912e+02
1.090000e-06	2.665326e-06	3.675569e-09	1.881560e+01	2.391071e+02
1.100000e-06	2.754997e-06	3.891903e-09	1.944861e+01	2.533103e+02
1.110000e-06	2.843493e-06	4.098233e-09	2.007335e+01	2.670761e+02
1.120000e-06	2.930969e-06	4.297379e-09	2.069088e+01	2.803868e+02
1.130000e-06	3.017542e-06	4.492838e-09	2.130203e+01	2.932321e+02
1.140000e-06	3.103168e-06	4.683794e-09	2.190649e+01	3.056092e+02
1.150000e-06	3.187863e-06	4.866466e-09	2.250439e+01	3.175222e+02
1.160000e-06	3.271556e-06	5.040386e-09	2.309521e+01	3.289807e+02
1.170000e-06	3.354147e-06	5.209345e-09	2.367826e+01	3.399978e+02
1.180000e-06	3.435519e-06	5.371873e-09	2.425269e+01	3.505878e+02
1.190000e-06	3.515543e-06	5.528374e-09	2.481761e+01	3.607637e+02
1.200000e-06	3.594216e-06	5.678118e-09	2.537299e+01	3.705355e+02
1.210000e-06	3.671641e-06	5.819826e-09	2.591957e+01	3.799089e+02
1.220000e-06	3.747858e-06	5.954762e-09	2.645762e+01	3.888858e+02
1.230000e-06	3.822575e-06	6.085042e-09	2.698508e+01	3.974658e+02
1.240000e-06	3.895641e-06	6.210408e-09	2.750087e+01	4.056484e+02
1.250000e-06	3.967179e-06	6.329472e-09	2.800589e+01	4.134359e+02
1.260000e-06	4.037307e-06	6.440083e-09	2.850095e+01	4.208360e+02
1.270000e-06	4.106076e-06	6.544464e-09	2.898642e+01	4.278629e+02
1.280000e-06	4.173519e-06	6.644658e-09	2.946253e+01	4.345380e+02
1.290000e-06	4.239388e-06	6.740553e-09	2.992752e+01	4.408886e+02
1.300000e-06	4.303509e-06	6.832731e-09	3.038018e+01	4.469448e+02
1.310000e-06	4.366093e-06	6.919852e-09	3.082199e+01	4.527370e+02
1.320000e-06	4.427243e-06	7.003747e-09	3.125366e+01	4.582920e+02
1.330000e-06	4.487050e-06	7.085875e-09	3.167587e+01	4.636304e+02
1.340000e-06	4.545315e-06	7.166161e-09	3.208719e+01	4.687652e+02
1.350000e-06	4.601663e-06	7.242297e-09	3.248496e+01	4.737017e+02
1.360000e-06	4.656239e-06	7.312920e-09	3.287024e+01	4.784388e+02
1.370000e-06	4.709202e-06	7.379402e-09	3.324413e+01	4.829714e+02
1.380000e-06	4.760278e-06	7.443654e-09	3.360469e+01	4.872929e+02
1.390000e-06	4.809331e-06	7.506624e-09	3.395098e+01	4.913979e+02
1.400000e-06	4.856523e-06	7.565994e-09	3.428412e+01	4.952836e+02
1.410000e-06	4.902031e-06	7.620165e-09	3.460539e+01	4.989507e+02
1.420000e-06	4.946003e-06	7.670734e-09	3.491580e+01	5.024029e+02
1.430000e-06	4.988275e-06	7.718693e-09	3.521421e+01	5.056458e+02
1.440000e-06	5.028605e-06	7.764875e-09	3.549892e+01	5.086857e+02
1.450000e-06	5.067179e-06	7.809039e-09	3.577123e+01	5.115285e+02
1.460000e-06	5.104129e-06	7.848910e-09	3.603207e+01	5.141790e+02
1.470000e-06	5.139347e-06	7.883298e-09	3.628069e+01	5.166412e+02
1.480000e-06	5.172641e-06	7.914911e-09	3.651573e+01	5.189192e+02
1.490000e-06	5.204014e-06	7.945443e-09	3.673720e+01	5.210177e+02
1.500000e-06	5.233680e-06	7.973149e-09	3.694662e+01	5.229434e+02
1.510000e-06	5.261688e-06	7.998236e-09	3.714435e+01	5.247046e+02
1.520000e-06	5.287800e-06	8.020079e-09	3.732868e+01	5.263110e+02
1.530000e-06	5.311814e-06	8.040841e-09	3.749820e+01	5.277727e+02
1.540000e-06	5.333854e-06	8.060688e-09	3.765379e+01	5.290982e+02
1.550000e-06	5.354160e-06	8.077567e-09	3.779714e+01	5.302930e+02
1.560000e-06	5.372699e-06	8.092664e-09	3.792802e+01	5.313593e+02
1.570000e-06	5.389193e-06	8.106213e-09	3.804445e+01	5.322953e+02
1.580000e-06	5.403619e-06	8.118891e-09	3.814629e+01	5.330970e+02
1.590000e-06	5.416064e-06	8.130216e-09	3.823414e+01	5.337597e+02
1.600000e-06	5.426298e-06	8.138868e-09	3.830639e+01	5.342809e+02
1.610000e-06	5.434377e-06	8.144857e-09	3.836343e+01	5.346616e+02
1.620000e-06	5.440570e-06	8.147705e-09	3.840714e+01	5.349083e+02
1.630000e-06	5.444978e-06	8.150063e-09	3.843826e+01	5.350319e+02
1.640000e-06	5.447541e-06	8.153527e-09	3.845635e+01	5.350470e+02
1.650000e-06	5.448057e-06	8.157226e-09	3.846000e+01	5.349686e+02
1.660000e-06	5.446700e-06	8.152601e-09	3.845041e+01	5.348089e+02
1.670000e-06	5.443700e-06	8.146260e-09	3.842924e+01	5.345751e+02
1.680000e-06	5.438969e-06	8.143262e-09	3.839584e+01	5.342673e+02
1.690000e-06	5.432233e-06	8.137203e-09	3.834829e+01	5.338786e+02
1.700000e-06	5.423630e-06	8.130528e-09	3.828755e+01	5.333969e+02
1.710000e-06	5.413493e-06	8.125624e-09	3.821600e+01	5.328085e+02
1.720000e-06	5.401730e-06	8.137046e-09	3.813295e+01	5.321019e+02
1.730000e-06	5.387981e-06	8.120521e-09	3.803590e+01	5.312718e+02
1.740000e-06	5.372110e-06	7.992414e-09	3.792386e+01	5.303214e+02
1.750000e-06	5.353888e-06	7.989571e-09	3.779522e+01	5.292638e+02
1.760000e-06	5.332923e-06	8.016702e-09	3.764722e+01	5.281195e+02
1.770000e-06	5.309646e-06	8.042355e-09	3.748290e+01	5.269138e+02
1.780000e-06	5.285082e-06	8.183419e-09	3.730949e+01	5.256711e+02
1.790000e-06	5.259805e-06	7.944804e-09	3.713105e+01	5.244105e+02
1.800000e-06	5.233126e-06	7.887579e-09	3.694271e+01	5.231411e+02
1.810000e-06	5.204143e-06	8.077074e-09	3.673811e+01	5.218599e+02
1.820000e-06	5.173327e-06	7.814769e-09	3.652057e+01	5.205518e+02
1.830000e-06	5.140907e-06	7.926415e-09	3.629170e+01	5.191918e+02
1.840000e-06	5.106501e-06	8.074543e-09	3.604882e+01	5.177492e+02
1.850000e-06	5.070511e-06	7.735506e-09	3.579475e+01	5.161931e+02
1.860000e-06	5.032724e-06	7.866790e-09	3.552800e+01	5.144970e+02
1.870000e-06	4.992980e-06	7.876420e-09	3.524743e+01	5.126430e+02
1.880000e-06	4.951572e-06	7.655038e-09	3.495511e+01	5.106238e+02
1.890000e-06	4.908293e-06	7.788697e-09	3.464959e+01	5.084422e+02
1.900000e-06	4.863392e-06	7.662508e-09	3.433261e+01	5.061095e+02
1.910000e-06	4.816688e-06	7.692325e-09	3.400292e+01	5.036417e+02
1.920000e-06	4.767901e-06	7.686019e-09	3.365850e+01	5.010559e+02
1.930000e-06	4.717495e-06	7.449580e-09	3.330267e+01	4.983668e+02
1.940000e-06	4.665297e-06	7.629475e-09	3.293418e+01	4.955843e+02
1.950000e-06	4.610968e-06	7.538955e-09	3.255065e+01	4.927126e+02
1.960000e-06	4.554766e-06	7.385787e-09	3.215390e+01	4.897507e+02
1.970000e-06	4.496886e-06	7.388941e-09	3.174531e+01	4.866943e+02
1.980000e-06	4.437506e-06	7.320754e-09	3.132612e+01	4.835375e+02
1.990000e-06	4.376588e-06	7.372620e-09	3.089607e+01	4.802748e+02
2.000000e-06	4.313921e-06	7.217545e-09	3.045368e+01	4.769027e+02
2.010000e-06	4.249614e-06	7.211629e-09	2.999971e+01	4.734200e+02
2.020000e-06	4.183838e-06	7.196310e-09	2.953537e+01	4.698271e+02
2.030000e-06	4.116695e-06	7.009681e-09	2.906138e+01	4.661251e+02
2.040000e-06	4.048101e-06	7.026996e-09	2.857715e+01	4.623145e+02
2.050000e-06	3.977851e-06	6.986885e-09	2.808123e+01	4.583941e+02
2.060000e-06	3.906095e-06	6.964959e-09	2.757467e+01	4.543606e+02
2.070000e-06	3.833071e-06	6.839773e-09	2.705917e+01	4.502086e+02
2.080000e-06	3.758707e-06	6.733461e-09	2.653420e+01	4.459318e+02
2.090000e-06	3.682928e-06	6.736264e-09	2.599925e+01	4.415239e+02
2.100000e-06	3.605628e-06	6.644154e-09	2.545356e+01	4.369804e+02
2.110000e-06	3.526731e-06	6.592676e-09	2.489660e+01	4.322990e+02
2.120000e-06	3.446616e-06	6.499450e-09	2.433103e+01	4.274805e+02
2.130000e-06	3.365440e-06	6.439820e-09	2.375798e+01	4.225282e+02
2.140000e-06	3.283072e-06	6.348932e-09	2.317651e+01	4.174467e+02
2.150000e-06	3.199621e-06	6.248410e-09	2.258739e+01	4.122412e+02
2.160000e-06	3.115118e-06	6.206741e-09	2.199086e+01	4.069152e+02
2.170000e-06	3.029381e-06	6.120234e-09	2.138560e+01	4.014699e+02
2.180000e-06	2.942245e-06	6.026916e-09	2.077048e+01	3.959034e+02
2.190000e-06	2.853990e-06	5.914205e-09	2.014745e+01	3.902106e+02
2.200000e-06	2.764835e-06	5.847177e-09	1.951807e+01	3.843840e+02
2.210000e-06	2.674721e-06	5.781772e-09	1.888192e+01	3.784149e+02
2.220000e-06	2.583716e-06	5.677895e-09	1.823948e+01	3.722941e+02
2.230000e-06	2.491899e-06	5.562117e-09	1.759131e+01	3.660142e+02
2.240000e-06	2.399277e-06	5.458426e-09	1.693745e+01	3.595693e+02
2.250000e-06	2.305677e-06	5.371943e-09	1.627669e+01	3.529564e+02
2.260000e-06	2.211105e-06	5.268150e-09	1.560907e+01	3.461748e+02
2.270000e-06	2.115634e-06	5.170892e-09	1.493510e+01	3.392256e+02
2.280000e-06	2.019290e-06	5.065380e-09	1.425497e+01	3.321111e+02
2.290000e-06	1.922259e-06	4.945176e-09	1.356999e+01	3.248333e+02
2.300000e-06	1.824682e-06	4.817818e-09	1.288116e+01	3.173935e+02
2.310000e-06	1.726595e-06	4.709527e-09	1.218872e+01	3.097909e+02
2.320000e-06	1.627991e-06	4.611612e-09	1.149263e+01	3.020230e+02
2.330000e-06	1.528869e-06	4.489004e-09	1.079290e+01	2.940849e+02
2.340000e-06	1.429280e-06	4.351201e-09	1.008986e+01	2.859699e+02
2.350000e-06	1.329244e-06	4.217203e-09	9.383664e+00	2.776702e+02
2.360000e-06	1.228774e-06	4.095797e-09	8.674400e+00	2.691775e+02
2.370000e-06	1.127957e-06	3.971091e-09	7.962696e+00	2.604837e+02
2.380000e-06	1.026761e-06	3.837010e-09	7.248312e+00	2.515816e+02
2.390000e-06	9.250768e-07	3.695618e-09	6.530484e+00	2.424652e+02
2.400000e-06	8.229929e-07	3.551716e-09	5.809833e+00	2.331303e+02
2.410000e-06	7.205957e-07	3.406706e-09	5.086971e+00	2.235735e+02
2.420000e-06	6.178739e-07	3.261780e-09	4.361817e+00	2.137926e+02
2.430000e-06	5.148976e-07	3.115981e-09	3.634866e+00	2.037859e+02
2.440000e-06	4.117401e-07	2.961659e-09	2.906637e+00	1.935514e+02
2.450000e-06	3.084254e-07	2.797227e-09	2.177297e+00	1.830863e+02
2.460000e-06	2.049209e-07	2.630790e-09	1.446618e+00	1.723871e+02
2.470000e-06	1.012374e-07	2.471888e-09	7.146752e-01	1.614492e+02
2.480000e-06	-2.491020e-09	2.309535e-09	-1.758510e-02	1.502670e+02
2.490000e-06	-1.062069e-07	2.133971e-09	-7.497564e-01	1.388342e+02
2.500000e-06	-2.098639e-07	1.951513e-09	-1.481512e+00	1.271439e+02
2.510000e-06	-3.134127e-07	1.771274e-09	-2.212505e+00	1.151891e+02
2.520000e-06	-4.168883e-07	1.591322e-09	-2.942980e+00	1.029619e+02
2.530000e-06	-5.202565e-07	1.402604e-09	-3.672697e+00	9.045410e+01
2.540000e-06	-6.233949e-07	1.207988e-09	-4.400792e+00	7.765678e+01
2.550000e-06	-7.262299e-07	1.006710e-09	-5.126745e+00	6.456002e+01
2.560000e-06	-8.286960e-07	7.939739e-10	-5.850094e+00	5.115334e+01
2.570000e-06	-9.307524e-07	5.769778e-10	-6.570551e+00	3.742640e+01
2.580000e-06	-1.032336e-06	3.630894e-10	-7.287669e+00	2.337031e+01
2.590000e-06	-1.133475e-06	1.482695e-10	-8.001652e+00	8.979523e+00
2.600000e-06	-1.234202e-06	-7.605354e-11	-8.712724e+00	-5.745905e+00
2.610000e-06	-1.334388e-06	-3.082015e-10	-9.419977e+00	-2.079804e+01
2.620000e-06	-1.434050e-06	-5.447873e-10	-1.012353e+01	-3.615907e+01
2.630000e-06	-1.533252e-06	-7.828478e-10	-1.082384e+01	-5.180003e+01
2.640000e-06	-1.631979e-06	-1.023001e-09	-1.152078e+01	-6.768054e+01
2.650000e-06	-1.730170e-06	-1.267714e-09	-1.221396e+01	-8.374961e+01
2.660000e-06	-1.827746e-06	-1.516155e-09	-1.290278e+01	-9.994749e+01
2.670000e-06	-1.924683e-06	-1.766570e-09	-1.358710e+01	-1.162084e+02
2.680000e-06	-2.021046e-06	-2.013440e-09	-1.426737e+01	-1.324635e+02
2.690000e-06	-2.116804e-06	-2.256738e-09	-1.494336e+01	-1.486439e+02
2.700000e-06	-2.211840e-06	-2.498989e-09	-1.561425e+01	-1.646835e+02
2.710000e-06	-2.305946e-06	-2.741979e-09	-1.627859e+01	-1.805206e+02
2.720000e-06	-2.399011e-06	-2.983697e-09	-1.693557e+01	-1.960990e+02
2.730000e-06	-2.491144e-06	-3.218824e-09	-1.758598e+01	-2.113692e+02
2.740000e-06	-2.582352e-06	-3.446837e-09	-1.822985e+01	-2.262878e+02
2.750000e-06	-2.672611e-06	-3.670107e-09	-1.886702e+01	-2.408182e+02
2.760000e-06	-2.761928e-06	-3.889739e-09	-1.949754e+01	-2.549299e+02
2.770000e-06	-2.850362e-06	-4.102523e-09	-2.012184e+01	-2.685999e+02
2.780000e-06	-2.937994e-06	-4.305856e-09	-2.074047e+01	-2.818118e+02
2.790000e-06	-3.024660e-06	-4.498608e-09	-2.135228e+01	-2.945572e+02
2.800000e-06	-3.110078e-06	-4.683734e-09	-2.195528e+01	-3.068347e+02
2.810000e-06	-3.194254e-06	-4.863847e-09	-2.254951e+01	-3.186498e+02
2.820000e-06	-3.277333e-06	-5.037550e-09	-2.313599e+01	-3.300129e+02
2.830000e-06	-3.359353e-06	-5.204347e-09	-2.371500e+01	-3.409377e+02
2.840000e-06	-3.440359e-06	-5.363491e-09	-2.428686e+01	-3.514384e+02
2.850000e-06	-3.520250e-06	-5.515689e-09	-2.485084e+01	-3.615274e+02
2.860000e-06	-3.598735e-06	-5.662384e-09	-2.540490e+01	-3.712139e+02
2.870000e-06	-3.675677e-06	-5.805194e-09	-2.594806e+01	-3.805027e+02
2.880000e-06	-3.751117e-06	-5.942938e-09	-2.648062e+01	-3.893950e+02
2.890000e-06	-3.825103e-06	-6.073089e-09	-2.700292e+01	-3.978902e+02
2.900000e-06	-3.897776e-06	-6.197387e-09	-2.751595e+01	-4.059883e+02
2.910000e-06	-3.969163e-06	-6.318067e-09	-2.801990e+01	-4.136924e+02
2.920000e-06	-4.038998e-06	-6.431666e-09	-2.851289e+01	-4.210114e+02
2.930000e-06	-4.107201e-06	-6.537431e-09	-2.899436e+01	-4.279613e+02
2.940000e-06	-4.173935e-06	-6.638433e-09	-2.946546e+01	-4.345649e+02
