# Temperatura_=_80.96
# Concentracion g/m^3_=_15000.0
# C_Vs_to_Am_M_A/Vsm_=_65563218390.804596
# pendiente_HvsI_1/m_=_3716.3
# ordenada_HvsI_A/m_=_1297.0
# frecuencia_Hz_=_301603.11665598943

Tiempo_(s)	Campo_(V.s)	Magnetizacion_(V.s)	Campo_(kA/m)	Magnetizacion_(A/m)
0.000000e+00	-5.433865e-06	-9.753189e-09	-3.833509e+01	-6.366938e+02
1.000000e-08	-5.431180e-06	-9.750793e-09	-3.831615e+01	-6.363401e+02
2.000000e-08	-5.426651e-06	-9.741394e-09	-3.828420e+01	-6.358797e+02
3.000000e-08	-5.420460e-06	-9.734542e-09	-3.824052e+01	-6.353189e+02
4.000000e-08	-5.412720e-06	-9.724876e-09	-3.818592e+01	-6.346536e+02
5.000000e-08	-5.403149e-06	-9.707951e-09	-3.811839e+01	-6.338716e+02
6.000000e-08	-5.391495e-06	-9.683744e-09	-3.803618e+01	-6.329559e+02
7.000000e-08	-5.377985e-06	-9.644378e-09	-3.794086e+01	-6.318906e+02
8.000000e-08	-5.362361e-06	-9.659422e-09	-3.783064e+01	-6.306668e+02
9.000000e-08	-5.344398e-06	-9.733012e-09	-3.770392e+01	-6.292874e+02
1.000000e-07	-5.324377e-06	-9.676372e-09	-3.756267e+01	-6.277688e+02
1.100000e-07	-5.302449e-06	-9.596443e-09	-3.740797e+01	-6.261397e+02
1.200000e-07	-5.278803e-06	-9.546000e-09	-3.724116e+01	-6.244352e+02
1.300000e-07	-5.253569e-06	-9.370006e-09	-3.706313e+01	-6.226904e+02
1.400000e-07	-5.226693e-06	-9.498151e-09	-3.687352e+01	-6.209319e+02
1.500000e-07	-5.198241e-06	-9.607198e-09	-3.667280e+01	-6.191707e+02
1.600000e-07	-5.168336e-06	-9.329830e-09	-3.646182e+01	-6.173988e+02
1.700000e-07	-5.136861e-06	-9.460878e-09	-3.623977e+01	-6.155885e+02
1.800000e-07	-5.103235e-06	-9.438650e-09	-3.600255e+01	-6.136968e+02
1.900000e-07	-5.067706e-06	-9.161642e-09	-3.575190e+01	-6.116726e+02
2.000000e-07	-5.030750e-06	-9.350665e-09	-3.549117e+01	-6.094657e+02
2.100000e-07	-4.991963e-06	-9.295240e-09	-3.521754e+01	-6.070355e+02
2.200000e-07	-4.951306e-06	-9.134138e-09	-3.493071e+01	-6.043577e+02
2.300000e-07	-4.908683e-06	-9.212240e-09	-3.463001e+01	-6.014274e+02
2.400000e-07	-4.864137e-06	-9.105158e-09	-3.431575e+01	-5.982586e+02
2.500000e-07	-4.817843e-06	-9.054238e-09	-3.398915e+01	-5.948795e+02
2.600000e-07	-4.769569e-06	-9.015816e-09	-3.364858e+01	-5.913259e+02
2.700000e-07	-4.719181e-06	-8.916381e-09	-3.329311e+01	-5.876335e+02
2.800000e-07	-4.666701e-06	-8.909416e-09	-3.292286e+01	-5.838312e+02
2.900000e-07	-4.612391e-06	-8.802121e-09	-3.253972e+01	-5.799364e+02
3.000000e-07	-4.556625e-06	-8.727023e-09	-3.214630e+01	-5.759535e+02
3.100000e-07	-4.499128e-06	-8.731101e-09	-3.174066e+01	-5.718756e+02
3.200000e-07	-4.439728e-06	-8.697481e-09	-3.132161e+01	-5.676879e+02
3.300000e-07	-4.378787e-06	-8.586665e-09	-3.089167e+01	-5.633733e+02
3.400000e-07	-4.316338e-06	-8.468374e-09	-3.045111e+01	-5.589163e+02
3.500000e-07	-4.252509e-06	-8.449481e-09	-3.000080e+01	-5.543072e+02
3.600000e-07	-4.187106e-06	-8.362689e-09	-2.953940e+01	-5.495434e+02
3.700000e-07	-4.119942e-06	-8.280267e-09	-2.906556e+01	-5.446288e+02
3.800000e-07	-4.051277e-06	-8.241022e-09	-2.858115e+01	-5.395713e+02
3.900000e-07	-3.981271e-06	-8.131792e-09	-2.808726e+01	-5.343802e+02
4.000000e-07	-3.910005e-06	-8.028033e-09	-2.758449e+01	-5.290623e+02
4.100000e-07	-3.837404e-06	-7.938399e-09	-2.707230e+01	-5.236202e+02
4.200000e-07	-3.763300e-06	-7.897964e-09	-2.654951e+01	-5.180511e+02
4.300000e-07	-3.687669e-06	-7.821816e-09	-2.601595e+01	-5.123472e+02
4.400000e-07	-3.610558e-06	-7.704978e-09	-2.547194e+01	-5.064977e+02
4.500000e-07	-3.531904e-06	-7.608156e-09	-2.491704e+01	-5.004913e+02
4.600000e-07	-3.451788e-06	-7.515166e-09	-2.435184e+01	-4.943187e+02
4.700000e-07	-3.370500e-06	-7.429305e-09	-2.377836e+01	-4.879743e+02
4.800000e-07	-3.288119e-06	-7.326900e-09	-2.319718e+01	-4.814570e+02
4.900000e-07	-3.204630e-06	-7.227249e-09	-2.260818e+01	-4.747704e+02
5.000000e-07	-3.120116e-06	-7.118656e-09	-2.201194e+01	-4.679210e+02
5.100000e-07	-3.034619e-06	-6.999072e-09	-2.140878e+01	-4.609162e+02
5.200000e-07	-2.948156e-06	-6.892529e-09	-2.079880e+01	-4.537630e+02
5.300000e-07	-2.860794e-06	-6.791140e-09	-2.018247e+01	-4.464654e+02
5.400000e-07	-2.772502e-06	-6.678717e-09	-1.955958e+01	-4.390237e+02
5.500000e-07	-2.683016e-06	-6.551767e-09	-1.892827e+01	-4.314341e+02
5.600000e-07	-2.592254e-06	-6.419429e-09	-1.828796e+01	-4.236894e+02
5.700000e-07	-2.500524e-06	-6.301052e-09	-1.764082e+01	-4.157800e+02
5.800000e-07	-2.408014e-06	-6.193530e-09	-1.698817e+01	-4.076955e+02
5.900000e-07	-2.314671e-06	-6.075155e-09	-1.632965e+01	-3.994266e+02
6.000000e-07	-2.220514e-06	-5.936835e-09	-1.566539e+01	-3.909656e+02
6.100000e-07	-2.125588e-06	-5.795319e-09	-1.499570e+01	-3.823081e+02
6.200000e-07	-2.029929e-06	-5.659724e-09	-1.432084e+01	-3.734527e+02
6.300000e-07	-1.933535e-06	-5.523379e-09	-1.364079e+01	-3.644006e+02
6.400000e-07	-1.836295e-06	-5.386108e-09	-1.295478e+01	-3.551548e+02
6.500000e-07	-1.738164e-06	-5.240540e-09	-1.226248e+01	-3.457184e+02
6.600000e-07	-1.639277e-06	-5.085011e-09	-1.156485e+01	-3.360934e+02
6.700000e-07	-1.539882e-06	-4.926805e-09	-1.086364e+01	-3.262796e+02
6.800000e-07	-1.440079e-06	-4.778408e-09	-1.015954e+01	-3.162734e+02
6.900000e-07	-1.339817e-06	-4.633908e-09	-9.452203e+00	-3.060682e+02
7.000000e-07	-1.239125e-06	-4.478055e-09	-8.741842e+00	-2.956549e+02
7.100000e-07	-1.138071e-06	-4.308044e-09	-8.028919e+00	-2.850227e+02
7.200000e-07	-1.036692e-06	-4.133267e-09	-7.313708e+00	-2.741617e+02
7.300000e-07	-9.349840e-07	-3.962696e-09	-6.596170e+00	-2.630636e+02
7.400000e-07	-8.329215e-07	-3.791195e-09	-5.876134e+00	-2.517238e+02
7.500000e-07	-7.305278e-07	-3.614926e-09	-5.153762e+00	-2.401411e+02
7.600000e-07	-6.278165e-07	-3.429368e-09	-4.429150e+00	-2.283179e+02
7.700000e-07	-5.249693e-07	-3.237689e-09	-3.703578e+00	-2.162584e+02
7.800000e-07	-4.220453e-07	-3.048156e-09	-2.977465e+00	-2.039664e+02
7.900000e-07	-3.189335e-07	-2.862428e-09	-2.250027e+00	-1.914432e+02
8.000000e-07	-2.157037e-07	-2.674225e-09	-1.521757e+00	-1.786851e+02
8.100000e-07	-1.124171e-07	-2.477223e-09	-7.930855e-01	-1.656829e+02
8.200000e-07	-9.059493e-09	-2.272648e-09	-6.391335e-02	-1.524210e+02
8.300000e-07	9.436670e-08	-2.063556e-09	6.657427e-01	-1.388793e+02
8.400000e-07	1.977587e-07	-1.853847e-09	1.395158e+00	-1.250355e+02
8.500000e-07	3.010228e-07	-1.640885e-09	2.123670e+00	-1.108674e+02
8.600000e-07	4.041993e-07	-1.420625e-09	2.851565e+00	-9.635592e+01
8.700000e-07	5.073075e-07	-1.189823e-09	3.578977e+00	-8.148646e+01
8.800000e-07	6.102975e-07	-9.531046e-10	4.305556e+00	-6.624974e+01
8.900000e-07	7.131474e-07	-7.136073e-10	5.031146e+00	-5.064091e+01
9.000000e-07	8.157826e-07	-4.695573e-10	5.755222e+00	-3.465795e+01
9.100000e-07	9.181218e-07	-2.222172e-10	6.477210e+00	-1.829988e+01
9.200000e-07	1.020130e-06	3.152143e-11	7.196859e+00	-1.565490e+00
9.300000e-07	1.121765e-06	2.917680e-10	7.913882e+00	1.554647e+01
9.400000e-07	1.223010e-06	5.589895e-10	8.628150e+00	3.303533e+01
9.500000e-07	1.323840e-06	8.303013e-10	9.339488e+00	5.089488e+01
9.600000e-07	1.424204e-06	1.105472e-09	1.004754e+01	6.910852e+01
9.700000e-07	1.524075e-06	1.385731e-09	1.075212e+01	8.764441e+01
9.800000e-07	1.623398e-06	1.670771e-09	1.145283e+01	1.064517e+02
9.900000e-07	1.722071e-06	1.958976e-09	1.214895e+01	1.254592e+02
1.000000e-06	1.820008e-06	2.246966e-09	1.283988e+01	1.445769e+02
1.010000e-06	1.917140e-06	2.533652e-09	1.352513e+01	1.637005e+02
1.020000e-06	2.013398e-06	2.818611e-09	1.420422e+01	1.827193e+02
1.030000e-06	2.108877e-06	3.103972e-09	1.487780e+01	2.015243e+02
1.040000e-06	2.203671e-06	3.387816e-09	1.554656e+01	2.200172e+02
1.050000e-06	2.297712e-06	3.663106e-09	1.621001e+01	2.381170e+02
1.060000e-06	2.390960e-06	3.928151e-09	1.686786e+01	2.557641e+02
1.070000e-06	2.483475e-06	4.185670e-09	1.752054e+01	2.729207e+02
1.080000e-06	2.575267e-06	4.439145e-09	1.816812e+01	2.895679e+02
1.090000e-06	2.666186e-06	4.687775e-09	1.880954e+01	3.057011e+02
1.100000e-06	2.756015e-06	4.927168e-09	1.944326e+01	3.213233e+02
1.110000e-06	2.844597e-06	5.154130e-09	2.006820e+01	3.364398e+02
1.120000e-06	2.932105e-06	5.372015e-09	2.068556e+01	3.510542e+02
1.130000e-06	3.018719e-06	5.584472e-09	2.129660e+01	3.651671e+02
1.140000e-06	3.104347e-06	5.792970e-09	2.190069e+01	3.787767e+02
1.150000e-06	3.189012e-06	5.993265e-09	2.249800e+01	3.918812e+02
1.160000e-06	3.272736e-06	6.183753e-09	2.308866e+01	4.044825e+02
1.170000e-06	3.355401e-06	6.368276e-09	2.367184e+01	4.165885e+02
1.180000e-06	3.436775e-06	6.546294e-09	2.424592e+01	4.282139e+02
1.190000e-06	3.516829e-06	6.718565e-09	2.481069e+01	4.393796e+02
1.200000e-06	3.595692e-06	6.882410e-09	2.536706e+01	4.501098e+02
1.210000e-06	3.673274e-06	7.038910e-09	2.591439e+01	4.604279e+02
1.220000e-06	3.749519e-06	7.189157e-09	2.645228e+01	4.703530e+02
1.230000e-06	3.824318e-06	7.334657e-09	2.697998e+01	4.798968e+02
1.240000e-06	3.897441e-06	7.475753e-09	2.749586e+01	4.890634e+02
1.250000e-06	3.969008e-06	7.611825e-09	2.800075e+01	4.978501e+02
1.260000e-06	4.039249e-06	7.739638e-09	2.849629e+01	5.062516e+02
1.270000e-06	4.108097e-06	7.859288e-09	2.898200e+01	5.142636e+02
1.280000e-06	4.175558e-06	7.974209e-09	2.945793e+01	5.218880e+02
1.290000e-06	4.241483e-06	8.083251e-09	2.992302e+01	5.291348e+02
1.300000e-06	4.305713e-06	8.186655e-09	3.037615e+01	5.360239e+02
1.310000e-06	4.368426e-06	8.285149e-09	3.081858e+01	5.425828e+02
1.320000e-06	4.429708e-06	8.380877e-09	3.125092e+01	5.488435e+02
1.330000e-06	4.489601e-06	8.473354e-09	3.167345e+01	5.548378e+02
1.340000e-06	4.547874e-06	8.562107e-09	3.208456e+01	5.605929e+02
1.350000e-06	4.604252e-06	8.646965e-09	3.248230e+01	5.661280e+02
1.360000e-06	4.658914e-06	8.727916e-09	3.286793e+01	5.714533e+02
1.370000e-06	4.711923e-06	8.805839e-09	3.324190e+01	5.765707e+02
1.380000e-06	4.763051e-06	8.880114e-09	3.360260e+01	5.814767e+02
1.390000e-06	4.812110e-06	8.950969e-09	3.394871e+01	5.861655e+02
1.400000e-06	4.859270e-06	9.018672e-09	3.428141e+01	5.906327e+02
1.410000e-06	4.904794e-06	9.082572e-09	3.460257e+01	5.948776e+02
1.420000e-06	4.948796e-06	9.142947e-09	3.491301e+01	5.989034e+02
1.430000e-06	4.991049e-06	9.200943e-09	3.521109e+01	6.027166e+02
1.440000e-06	5.031372e-06	9.257167e-09	3.549557e+01	6.063246e+02
1.450000e-06	5.069954e-06	9.311281e-09	3.576775e+01	6.097328e+02
1.460000e-06	5.106901e-06	9.361591e-09	3.602841e+01	6.129431e+02
1.470000e-06	5.142190e-06	9.407483e-09	3.627737e+01	6.159532e+02
1.480000e-06	5.175580e-06	9.447763e-09	3.651293e+01	6.187572e+02
1.490000e-06	5.207046e-06	9.483236e-09	3.673492e+01	6.213488e+02
1.500000e-06	5.236735e-06	9.514991e-09	3.694437e+01	6.237234e+02
1.510000e-06	5.264771e-06	9.543728e-09	3.714216e+01	6.258818e+02
1.520000e-06	5.290935e-06	9.570946e-09	3.732675e+01	6.278313e+02
1.530000e-06	5.314946e-06	9.596613e-09	3.749614e+01	6.295854e+02
1.540000e-06	5.337012e-06	9.620376e-09	3.765181e+01	6.311619e+02
1.550000e-06	5.357363e-06	9.641976e-09	3.779538e+01	6.325795e+02
1.560000e-06	5.375917e-06	9.661102e-09	3.792628e+01	6.338534e+02
1.570000e-06	5.392441e-06	9.677595e-09	3.804285e+01	6.349925e+02
1.580000e-06	5.406929e-06	9.692074e-09	3.814506e+01	6.359975e+02
1.590000e-06	5.419481e-06	9.704788e-09	3.823361e+01	6.368614e+02
1.600000e-06	5.429815e-06	9.713996e-09	3.830652e+01	6.375727e+02
1.610000e-06	5.437915e-06	9.719933e-09	3.836367e+01	6.381188e+02
1.620000e-06	5.444112e-06	9.724849e-09	3.840738e+01	6.384911e+02
1.630000e-06	5.448546e-06	9.729942e-09	3.843866e+01	6.386881e+02
1.640000e-06	5.451098e-06	9.735248e-09	3.845667e+01	6.387165e+02
1.650000e-06	5.451570e-06	9.740218e-09	3.846000e+01	6.385909e+02
1.660000e-06	5.450172e-06	9.735314e-09	3.845014e+01	6.383300e+02
1.670000e-06	5.447140e-06	9.727588e-09	3.842874e+01	6.379517e+02
1.680000e-06	5.442442e-06	9.720988e-09	3.839560e+01	6.374690e+02
1.690000e-06	5.435770e-06	9.709367e-09	3.834853e+01	6.368857e+02
1.700000e-06	5.427241e-06	9.698184e-09	3.828836e+01	6.361960e+02
1.710000e-06	5.417182e-06	9.690680e-09	3.821740e+01	6.353862e+02
1.720000e-06	5.405450e-06	9.699437e-09	3.813463e+01	6.344390e+02
1.730000e-06	5.391717e-06	9.686413e-09	3.803774e+01	6.333394e+02
1.740000e-06	5.375853e-06	9.546471e-09	3.792582e+01	6.320808e+02
1.750000e-06	5.357625e-06	9.542008e-09	3.779723e+01	6.306691e+02
1.760000e-06	5.336631e-06	9.571857e-09	3.764912e+01	6.291235e+02
1.770000e-06	5.313325e-06	9.579737e-09	3.748470e+01	6.274744e+02
1.780000e-06	5.288711e-06	9.725827e-09	3.731105e+01	6.257578e+02
1.790000e-06	5.263424e-06	9.471277e-09	3.713265e+01	6.240076e+02
1.800000e-06	5.236806e-06	9.400642e-09	3.694487e+01	6.222475e+02
1.810000e-06	5.207830e-06	9.608790e-09	3.674045e+01	6.204848e+02
1.820000e-06	5.176941e-06	9.304039e-09	3.652254e+01	6.187068e+02
1.830000e-06	5.144442e-06	9.394169e-09	3.629326e+01	6.168824e+02
1.840000e-06	5.110010e-06	9.553063e-09	3.605035e+01	6.149661e+02
1.850000e-06	5.074056e-06	9.178581e-09	3.579670e+01	6.129061e+02
1.860000e-06	5.036308e-06	9.317099e-09	3.553038e+01	6.106536e+02
1.870000e-06	4.996555e-06	9.315019e-09	3.524993e+01	6.081711e+02
1.880000e-06	4.955194e-06	9.070370e-09	3.495814e+01	6.054382e+02
1.890000e-06	4.911984e-06	9.232797e-09	3.465330e+01	6.024544e+02
1.900000e-06	4.867078e-06	9.067193e-09	3.433650e+01	5.992370e+02
1.910000e-06	4.820335e-06	9.084218e-09	3.400673e+01	5.958167e+02
1.920000e-06	4.771493e-06	9.092152e-09	3.366216e+01	5.922299e+02
1.930000e-06	4.721078e-06	8.804504e-09	3.330649e+01	5.885112e+02
1.940000e-06	4.668888e-06	8.993171e-09	3.293830e+01	5.846874e+02
1.950000e-06	4.614524e-06	8.889271e-09	3.255477e+01	5.807730e+02
1.960000e-06	4.558303e-06	8.698074e-09	3.215814e+01	5.767700e+02
1.970000e-06	4.500442e-06	8.692204e-09	3.174993e+01	5.726693e+02
1.980000e-06	4.441085e-06	8.592669e-09	3.133118e+01	5.684552e+02
1.990000e-06	4.380144e-06	8.641378e-09	3.090125e+01	5.641105e+02
2.000000e-06	4.317447e-06	8.471540e-09	3.045893e+01	5.596208e+02
2.010000e-06	4.253156e-06	8.453541e-09	3.000537e+01	5.549779e+02
2.020000e-06	4.187351e-06	8.421827e-09	2.954112e+01	5.501806e+02
2.030000e-06	4.120096e-06	8.199770e-09	2.906665e+01	5.452339e+02
2.040000e-06	4.051320e-06	8.209809e-09	2.858145e+01	5.401464e+02
2.050000e-06	3.980940e-06	8.142592e-09	2.808493e+01	5.349269e+02
2.060000e-06	3.909187e-06	8.104037e-09	2.757872e+01	5.295817e+02
2.070000e-06	3.836174e-06	7.957311e-09	2.706363e+01	5.241122e+02
2.080000e-06	3.761847e-06	7.827017e-09	2.653926e+01	5.185143e+02
2.090000e-06	3.686101e-06	7.821287e-09	2.600488e+01	5.127794e+02
2.100000e-06	3.608823e-06	7.699725e-09	2.545970e+01	5.068966e+02
2.110000e-06	3.529962e-06	7.634664e-09	2.490334e+01	5.008546e+02
2.120000e-06	3.449854e-06	7.514472e-09	2.433820e+01	4.946448e+02
2.130000e-06	3.368649e-06	7.423464e-09	2.376531e+01	4.882626e+02
2.140000e-06	3.286187e-06	7.310387e-09	2.318355e+01	4.817080e+02
2.150000e-06	3.202599e-06	7.190180e-09	2.259385e+01	4.749851e+02
2.160000e-06	3.117946e-06	7.135285e-09	2.199663e+01	4.681011e+02
2.170000e-06	3.032037e-06	7.022886e-09	2.139056e+01	4.610634e+02
2.180000e-06	2.944792e-06	6.908342e-09	2.077506e+01	4.538783e+02
2.190000e-06	2.856485e-06	6.770850e-09	2.015207e+01	4.465493e+02
2.200000e-06	2.767230e-06	6.678446e-09	1.952239e+01	4.390756e+02
2.210000e-06	2.677073e-06	6.591760e-09	1.888634e+01	4.314528e+02
2.220000e-06	2.586083e-06	6.464689e-09	1.824442e+01	4.236729e+02
2.230000e-06	2.494238e-06	6.320137e-09	1.759647e+01	4.157262e+02
2.240000e-06	2.401534e-06	6.181575e-09	1.694246e+01	4.076023e+02
2.250000e-06	2.307814e-06	6.069479e-09	1.628128e+01	3.992921e+02
2.260000e-06	2.213096e-06	5.944189e-09	1.561305e+01	3.907886e+02
2.270000e-06	2.117538e-06	5.824537e-09	1.493891e+01	3.820880e+02
2.280000e-06	2.021190e-06	5.694625e-09	1.425919e+01	3.731896e+02
2.290000e-06	1.924169e-06	5.548683e-09	1.357472e+01	3.640951e+02
2.300000e-06	1.826601e-06	5.394265e-09	1.288639e+01	3.548075e+02
2.310000e-06	1.728505e-06	5.256246e-09	1.219434e+01	3.453298e+02
2.320000e-06	1.629835e-06	5.127638e-09	1.149824e+01	3.356638e+02
2.330000e-06	1.530636e-06	4.974792e-09	1.079840e+01	3.258085e+02
2.340000e-06	1.431023e-06	4.806184e-09	1.009565e+01	3.157597e+02
2.350000e-06	1.331057e-06	4.642275e-09	9.390406e+00	3.055101e+02
2.360000e-06	1.230761e-06	4.494123e-09	8.682830e+00	2.950500e+02
2.370000e-06	1.130014e-06	4.342090e-09	7.972074e+00	2.843690e+02
2.380000e-06	1.028738e-06	4.178844e-09	7.257590e+00	2.734570e+02
2.390000e-06	9.270074e-07	4.006790e-09	6.539896e+00	2.623068e+02
2.400000e-06	8.248669e-07	3.830683e-09	5.819310e+00	2.509142e+02
2.410000e-06	7.223306e-07	3.654602e-09	5.095932e+00	2.392790e+02
2.420000e-06	6.194502e-07	3.478960e-09	4.370127e+00	2.274041e+02
2.430000e-06	5.163398e-07	3.299696e-09	3.642699e+00	2.152938e+02
2.440000e-06	4.131080e-07	3.110636e-09	2.914414e+00	2.029516e+02
2.450000e-06	3.097269e-07	2.910457e-09	2.185076e+00	1.903779e+02
2.460000e-06	2.061600e-07	2.708752e-09	1.454428e+00	1.775678e+02
2.470000e-06	1.024183e-07	2.516231e-09	7.225454e-01	1.645107e+02
2.480000e-06	-1.352808e-09	2.321067e-09	-9.543856e-03	1.511900e+02
2.490000e-06	-1.050401e-07	2.113552e-09	-7.410417e-01	1.375849e+02
2.500000e-06	-2.087595e-07	1.895732e-09	-1.472766e+00	1.236727e+02
2.510000e-06	-3.123745e-07	1.674267e-09	-2.203755e+00	1.094318e+02
2.520000e-06	-4.158213e-07	1.453528e-09	-2.933556e+00	9.484396e+01
2.530000e-06	-5.191852e-07	1.229926e-09	-3.662773e+00	7.989573e+01
2.540000e-06	-6.224098e-07	1.001413e-09	-4.391007e+00	6.457887e+01
2.550000e-06	-7.254051e-07	7.637905e-10	-5.117623e+00	4.888930e+01
2.560000e-06	-8.280571e-07	5.144826e-10	-5.841817e+00	3.282536e+01
2.570000e-06	-9.303224e-07	2.607965e-10	-6.563283e+00	1.638609e+01
2.580000e-06	-1.032057e-06	8.152484e-12	-7.281007e+00	-4.298104e-01
2.590000e-06	-1.133236e-06	-2.494203e-10	-7.994804e+00	-1.762339e+01
2.600000e-06	-1.233936e-06	-5.195336e-10	-8.705232e+00	-3.519317e+01
2.610000e-06	-1.334136e-06	-7.996326e-10	-9.412128e+00	-5.313112e+01
2.620000e-06	-1.433887e-06	-1.083767e-09	-1.011586e+01	-7.141778e+01
2.630000e-06	-1.533201e-06	-1.369074e-09	-1.081650e+01	-9.001748e+01
2.640000e-06	-1.632028e-06	-1.656171e-09	-1.151371e+01	-1.088751e+02
2.650000e-06	-1.730274e-06	-1.948002e-09	-1.220682e+01	-1.279150e+02
2.660000e-06	-1.827897e-06	-2.244495e-09	-1.289553e+01	-1.470437e+02
2.670000e-06	-1.924901e-06	-2.540016e-09	-1.357988e+01	-1.661550e+02
2.680000e-06	-2.021246e-06	-2.827870e-09	-1.425958e+01	-1.851376e+02
2.690000e-06	-2.116943e-06	-3.111787e-09	-1.493471e+01	-2.038842e+02
2.700000e-06	-2.211987e-06	-3.394157e-09	-1.560523e+01	-2.222997e+02
2.710000e-06	-2.306219e-06	-3.674259e-09	-1.627003e+01	-2.403074e+02
2.720000e-06	-2.399442e-06	-3.948197e-09	-1.692770e+01	-2.578525e+02
2.730000e-06	-2.491597e-06	-4.210433e-09	-1.757784e+01	-2.749016e+02
2.740000e-06	-2.582838e-06	-4.461582e-09	-1.822153e+01	-2.914394e+02
2.750000e-06	-2.673209e-06	-4.703839e-09	-1.885909e+01	-3.074634e+02
2.760000e-06	-2.762624e-06	-4.941732e-09	-1.948989e+01	-3.229774e+02
2.770000e-06	-2.851151e-06	-5.173981e-09	-2.011444e+01	-3.379868e+02
2.780000e-06	-2.938860e-06	-5.397140e-09	-2.073321e+01	-3.524946e+02
2.790000e-06	-3.025605e-06	-5.610432e-09	-2.134519e+01	-3.665005e+02
2.800000e-06	-3.111077e-06	-5.816455e-09	-2.194817e+01	-3.800026e+02
2.810000e-06	-3.195287e-06	-6.015988e-09	-2.254226e+01	-3.929996e+02
2.820000e-06	-3.278457e-06	-6.207654e-09	-2.312902e+01	-4.054946e+02
2.830000e-06	-3.360531e-06	-6.392356e-09	-2.370803e+01	-4.174968e+02
2.840000e-06	-3.441511e-06	-6.570532e-09	-2.427934e+01	-4.290224e+02
2.850000e-06	-3.521433e-06	-6.738618e-09	-2.484318e+01	-4.400934e+02
2.860000e-06	-3.600036e-06	-6.896758e-09	-2.539771e+01	-4.507341e+02
2.870000e-06	-3.677040e-06	-7.049599e-09	-2.594096e+01	-4.609673e+02
2.880000e-06	-3.752495e-06	-7.199304e-09	-2.647328e+01	-4.708106e+02
2.890000e-06	-3.826533e-06	-7.344776e-09	-2.699561e+01	-4.802742e+02
2.900000e-06	-3.899236e-06	-7.485220e-09	-2.750852e+01	-4.893605e+02
2.910000e-06	-3.970639e-06	-7.621141e-09	-2.801226e+01	-4.980658e+02
2.920000e-06	-4.040474e-06	-7.749537e-09	-2.850493e+01	-5.063847e+02
2.930000e-06	-4.108672e-06	-7.871162e-09	-2.898606e+01	-5.143139e+02
2.940000e-06	-4.175458e-06	-7.988467e-09	-2.945722e+01	-5.218569e+02
