# Temperatura_=_36.84
# Concentracion g/m^3_=_15000.0
# C_Vs_to_Am_M_A/Vsm_=_65563218390.804596
# pendiente_HvsI_1/m_=_3716.3
# ordenada_HvsI_A/m_=_1297.0
# frecuencia_Hz_=_301604.2522501572

Tiempo_(s)	Campo_(V.s)	Magnetizacion_(V.s)	Campo_(kA/m)	Magnetizacion_(A/m)
0.000000e+00	-5.415468e-06	-8.174746e-09	-3.833430e+01	-5.333637e+02
1.000000e-08	-5.413258e-06	-8.173152e-09	-3.831866e+01	-5.331737e+02
2.000000e-08	-5.409181e-06	-8.166229e-09	-3.828980e+01	-5.328908e+02
3.000000e-08	-5.403505e-06	-8.160367e-09	-3.824962e+01	-5.325168e+02
4.000000e-08	-5.396238e-06	-8.153789e-09	-3.819818e+01	-5.320516e+02
5.000000e-08	-5.387195e-06	-8.141584e-09	-3.813417e+01	-5.314930e+02
6.000000e-08	-5.376109e-06	-8.125518e-09	-3.805569e+01	-5.308379e+02
7.000000e-08	-5.363068e-06	-8.108065e-09	-3.796338e+01	-5.300836e+02
8.000000e-08	-5.347978e-06	-8.096979e-09	-3.785656e+01	-5.292293e+02
9.000000e-08	-5.330627e-06	-8.129640e-09	-3.773374e+01	-5.282776e+02
1.000000e-07	-5.311211e-06	-8.125102e-09	-3.759630e+01	-5.272355e+02
1.100000e-07	-5.289840e-06	-8.074718e-09	-3.744502e+01	-5.261141e+02
1.200000e-07	-5.266666e-06	-8.046703e-09	-3.728098e+01	-5.249273e+02
1.300000e-07	-5.241900e-06	-7.953615e-09	-3.710567e+01	-5.236901e+02
1.400000e-07	-5.215538e-06	-7.931094e-09	-3.691906e+01	-5.224152e+02
1.500000e-07	-5.187616e-06	-8.038212e-09	-3.672141e+01	-5.211103e+02
1.600000e-07	-5.158199e-06	-7.931951e-09	-3.651318e+01	-5.197759e+02
1.700000e-07	-5.127266e-06	-7.918809e-09	-3.629422e+01	-5.184037e+02
1.800000e-07	-5.094356e-06	-7.970966e-09	-3.606125e+01	-5.169769e+02
1.900000e-07	-5.059397e-06	-7.785225e-09	-3.581379e+01	-5.154725e+02
2.000000e-07	-5.022936e-06	-7.796583e-09	-3.555570e+01	-5.138638e+02
2.100000e-07	-4.984809e-06	-7.850365e-09	-3.528581e+01	-5.121249e+02
2.200000e-07	-4.944858e-06	-7.744056e-09	-3.500301e+01	-5.102344e+02
2.300000e-07	-4.902941e-06	-7.743083e-09	-3.470629e+01	-5.081789e+02
2.400000e-07	-4.858982e-06	-7.720585e-09	-3.439512e+01	-5.059546e+02
2.500000e-07	-4.813258e-06	-7.640614e-09	-3.407146e+01	-5.035676e+02
2.600000e-07	-4.765636e-06	-7.632660e-09	-3.373436e+01	-5.010324e+02
2.700000e-07	-4.715914e-06	-7.589268e-09	-3.338239e+01	-4.983683e+02
2.800000e-07	-4.664144e-06	-7.560128e-09	-3.301593e+01	-4.955960e+02
2.900000e-07	-4.610457e-06	-7.491371e-09	-3.263590e+01	-4.927333e+02
3.000000e-07	-4.555141e-06	-7.412982e-09	-3.224433e+01	-4.897922e+02
3.100000e-07	-4.498251e-06	-7.404472e-09	-3.184162e+01	-4.867772e+02
3.200000e-07	-4.439519e-06	-7.395781e-09	-3.142588e+01	-4.836849e+02
3.300000e-07	-4.379108e-06	-7.344131e-09	-3.099825e+01	-4.805060e+02
3.400000e-07	-4.317259e-06	-7.247098e-09	-3.056045e+01	-4.772269e+02
3.500000e-07	-4.254048e-06	-7.192481e-09	-3.011300e+01	-4.738340e+02
3.600000e-07	-4.189374e-06	-7.150833e-09	-2.965519e+01	-4.703154e+02
3.700000e-07	-4.122974e-06	-7.095870e-09	-2.918516e+01	-4.666636e+02
3.800000e-07	-4.054932e-06	-7.058454e-09	-2.870352e+01	-4.628766e+02
3.900000e-07	-3.985518e-06	-6.991636e-09	-2.821216e+01	-4.589566e+02
4.000000e-07	-3.914844e-06	-6.905669e-09	-2.771189e+01	-4.549094e+02
4.100000e-07	-3.842928e-06	-6.834268e-09	-2.720281e+01	-4.507420e+02
4.200000e-07	-3.769538e-06	-6.787141e-09	-2.668331e+01	-4.464603e+02
4.300000e-07	-3.694543e-06	-6.741660e-09	-2.615244e+01	-4.420677e+02
4.400000e-07	-3.618051e-06	-6.663967e-09	-2.561098e+01	-4.375642e+02
4.500000e-07	-3.540091e-06	-6.579224e-09	-2.505913e+01	-4.329461e+02
4.600000e-07	-3.460683e-06	-6.501078e-09	-2.449703e+01	-4.282076e+02
4.700000e-07	-3.379942e-06	-6.437488e-09	-2.392549e+01	-4.233419e+02
4.800000e-07	-3.298043e-06	-6.376022e-09	-2.334575e+01	-4.183427e+02
4.900000e-07	-3.215006e-06	-6.291196e-09	-2.275796e+01	-4.132055e+02
5.000000e-07	-3.130911e-06	-6.199711e-09	-2.216268e+01	-4.079281e+02
5.100000e-07	-3.045894e-06	-6.106619e-09	-2.156087e+01	-4.025105e+02
5.200000e-07	-2.959961e-06	-6.022475e-09	-2.095258e+01	-3.969541e+02
5.300000e-07	-2.873034e-06	-5.948834e-09	-2.033725e+01	-3.912605e+02
5.400000e-07	-2.785116e-06	-5.870380e-09	-1.971491e+01	-3.854303e+02
5.500000e-07	-2.696233e-06	-5.773864e-09	-1.908574e+01	-3.794625e+02
5.600000e-07	-2.606205e-06	-5.662192e-09	-1.844846e+01	-3.733538e+02
5.700000e-07	-2.515022e-06	-5.563512e-09	-1.780301e+01	-3.670994e+02
5.800000e-07	-2.422926e-06	-5.479836e-09	-1.715109e+01	-3.606935e+02
5.900000e-07	-2.330070e-06	-5.388824e-09	-1.649379e+01	-3.541305e+02
6.000000e-07	-2.236468e-06	-5.275607e-09	-1.583122e+01	-3.474063e+02
6.100000e-07	-2.142099e-06	-5.161989e-09	-1.516320e+01	-3.405183e+02
6.200000e-07	-2.046967e-06	-5.057593e-09	-1.448980e+01	-3.334662e+02
6.300000e-07	-1.951095e-06	-4.950407e-09	-1.381116e+01	-3.262510e+02
6.400000e-07	-1.854465e-06	-4.840902e-09	-1.312714e+01	-3.188741e+02
6.500000e-07	-1.757062e-06	-4.727103e-09	-1.243766e+01	-3.113364e+02
6.600000e-07	-1.658861e-06	-4.602940e-09	-1.174253e+01	-3.036372e+02
6.700000e-07	-1.559950e-06	-4.471601e-09	-1.104237e+01	-2.957733e+02
6.800000e-07	-1.460472e-06	-4.349284e-09	-1.033819e+01	-2.877395e+02
6.900000e-07	-1.360524e-06	-4.234244e-09	-9.630699e+00	-2.795285e+02
7.000000e-07	-1.260234e-06	-4.112101e-09	-8.920781e+00	-2.711322e+02
7.100000e-07	-1.159609e-06	-3.976027e-09	-8.208487e+00	-2.625426e+02
7.200000e-07	-1.058611e-06	-3.834726e-09	-7.493555e+00	-2.537527e+02
7.300000e-07	-9.572804e-07	-3.696602e-09	-6.776271e+00	-2.447570e+02
7.400000e-07	-8.556563e-07	-3.557688e-09	-6.056907e+00	-2.355514e+02
7.500000e-07	-7.537045e-07	-3.414086e-09	-5.335224e+00	-2.261328e+02
7.600000e-07	-6.514542e-07	-3.262440e-09	-4.611428e+00	-2.164984e+02
7.700000e-07	-5.489793e-07	-3.105664e-09	-3.886042e+00	-2.066445e+02
7.800000e-07	-4.463445e-07	-2.950406e-09	-3.159524e+00	-1.965662e+02
7.900000e-07	-3.436024e-07	-2.797670e-09	-2.432247e+00	-1.862571e+02
8.000000e-07	-2.407697e-07	-2.640207e-09	-1.704329e+00	-1.757095e+02
8.100000e-07	-1.378188e-07	-2.474464e-09	-9.755734e-01	-1.649154e+02
8.200000e-07	-3.477670e-08	-2.301856e-09	-2.461727e-01	-1.538673e+02
8.300000e-07	6.832027e-08	-2.125892e-09	4.836165e-01	-1.425589e+02
8.400000e-07	1.714266e-07	-1.948776e-09	1.213472e+00	-1.309859e+02
8.500000e-07	2.744273e-07	-1.768657e-09	1.942579e+00	-1.191453e+02
8.600000e-07	3.773169e-07	-1.585181e-09	2.670901e+00	-1.070351e+02
8.700000e-07	4.801402e-07	-1.396074e-09	3.398753e+00	-9.465274e+01
8.800000e-07	5.828651e-07	-1.202260e-09	4.125909e+00	-8.199379e+01
8.900000e-07	6.854356e-07	-1.004858e-09	4.851972e+00	-6.905106e+01
9.000000e-07	7.877943e-07	-8.061944e-10	5.576535e+00	-5.581415e+01
9.100000e-07	8.898584e-07	-6.050641e-10	6.299012e+00	-4.227016e+01
9.200000e-07	9.916006e-07	-3.977712e-10	7.019212e+00	-2.840545e+01
9.300000e-07	1.092973e-06	-1.823974e-10	7.736794e+00	-1.420832e+01
9.400000e-07	1.193964e-06	4.070218e-11	8.451675e+00	3.278309e-01
9.500000e-07	1.294542e-06	2.659335e-10	9.163635e+00	1.520131e+01
9.600000e-07	1.394697e-06	4.936961e-10	9.872600e+00	3.039956e+01
9.700000e-07	1.494455e-06	7.274495e-10	1.057875e+01	4.589765e+01
9.800000e-07	1.593730e-06	9.687728e-10	1.128149e+01	6.165806e+01
9.900000e-07	1.692388e-06	1.213154e-09	1.197985e+01	7.763190e+01
1.000000e-06	1.790185e-06	1.457335e-09	1.267212e+01	9.376121e+01
1.010000e-06	1.887042e-06	1.702289e-09	1.335775e+01	1.099820e+02
1.020000e-06	1.983086e-06	1.949017e-09	1.403761e+01	1.262274e+02
1.030000e-06	2.078443e-06	2.197809e-09	1.471261e+01	1.424309e+02
1.040000e-06	2.173113e-06	2.446720e-09	1.538275e+01	1.585280e+02
1.050000e-06	2.267004e-06	2.691246e-09	1.604737e+01	1.744582e+02
1.060000e-06	2.360096e-06	2.928439e-09	1.670634e+01	1.901657e+02
1.070000e-06	2.452464e-06	3.158976e-09	1.736018e+01	2.055992e+02
1.080000e-06	2.544165e-06	3.386560e-09	1.800930e+01	2.207122e+02
1.090000e-06	2.635069e-06	3.610152e-09	1.865278e+01	2.354632e+02
1.100000e-06	2.724783e-06	3.827513e-09	1.928783e+01	2.498158e+02
1.110000e-06	2.813206e-06	4.037538e-09	1.991375e+01	2.637400e+02
1.120000e-06	2.900700e-06	4.239944e-09	2.053309e+01	2.772129e+02
1.130000e-06	2.987348e-06	4.436185e-09	2.114645e+01	2.902198e+02
1.140000e-06	3.072981e-06	4.627826e-09	2.175261e+01	3.027545e+02
1.150000e-06	3.157587e-06	4.813137e-09	2.235151e+01	3.148189e+02
1.160000e-06	3.241329e-06	4.990033e-09	2.294429e+01	3.264221e+02
1.170000e-06	3.324084e-06	5.159141e-09	2.353009e+01	3.375777e+02
1.180000e-06	3.405513e-06	5.322315e-09	2.410650e+01	3.483014e+02
1.190000e-06	3.485626e-06	5.480637e-09	2.467359e+01	3.586081e+02
1.200000e-06	3.564510e-06	5.632084e-09	2.523199e+01	3.685094e+02
1.210000e-06	3.642143e-06	5.777769e-09	2.578152e+01	3.780123e+02
1.220000e-06	3.718545e-06	5.916946e-09	2.632235e+01	3.871188e+02
1.230000e-06	3.793554e-06	6.049791e-09	2.685331e+01	3.958276e+02
1.240000e-06	3.866806e-06	6.175422e-09	2.737184e+01	4.041357e+02
1.250000e-06	3.938478e-06	6.294406e-09	2.787918e+01	4.120418e+02
1.260000e-06	4.008847e-06	6.406794e-09	2.837730e+01	4.195492e+02
1.270000e-06	4.077817e-06	6.512124e-09	2.886552e+01	4.266680e+02
1.280000e-06	4.145476e-06	6.612390e-09	2.934445e+01	4.334163e+02
1.290000e-06	4.211582e-06	6.708854e-09	2.981240e+01	4.398197e+02
1.300000e-06	4.275897e-06	6.801554e-09	3.026765e+01	4.459094e+02
1.310000e-06	4.338653e-06	6.889775e-09	3.071189e+01	4.517192e+02
1.320000e-06	4.399984e-06	6.973863e-09	3.114602e+01	4.572816e+02
1.330000e-06	4.459999e-06	7.056123e-09	3.157086e+01	4.626246e+02
1.340000e-06	4.518566e-06	7.136542e-09	3.198543e+01	4.677686e+02
1.350000e-06	4.575262e-06	7.213101e-09	3.238676e+01	4.727249e+02
1.360000e-06	4.630150e-06	7.284666e-09	3.277530e+01	4.774960e+02
1.370000e-06	4.683401e-06	7.351601e-09	3.315224e+01	4.820767e+02
1.380000e-06	4.734787e-06	7.416344e-09	3.351598e+01	4.864572e+02
1.390000e-06	4.784096e-06	7.479457e-09	3.386503e+01	4.906257e+02
1.400000e-06	4.831529e-06	7.539618e-09	3.420079e+01	4.945718e+02
1.410000e-06	4.877309e-06	7.596666e-09	3.452485e+01	4.982889e+02
1.420000e-06	4.921594e-06	7.650124e-09	3.483833e+01	5.017754e+02
1.430000e-06	4.964224e-06	7.699695e-09	3.514010e+01	5.050353e+02
1.440000e-06	5.004881e-06	7.746478e-09	3.542789e+01	5.080768e+02
1.450000e-06	5.043764e-06	7.789519e-09	3.570313e+01	5.109113e+02
1.460000e-06	5.080976e-06	7.827775e-09	3.596655e+01	5.135511e+02
1.470000e-06	5.116612e-06	7.861174e-09	3.621880e+01	5.160078e+02
1.480000e-06	5.150461e-06	7.892338e-09	3.645840e+01	5.182911e+02
1.490000e-06	5.182307e-06	7.922250e-09	3.668383e+01	5.204083e+02
1.500000e-06	5.212345e-06	7.949931e-09	3.689646e+01	5.223644e+02
1.510000e-06	5.240725e-06	7.975402e-09	3.709736e+01	5.241628e+02
1.520000e-06	5.267266e-06	7.999069e-09	3.728523e+01	5.258060e+02
1.530000e-06	5.291683e-06	8.021015e-09	3.745807e+01	5.272968e+02
1.540000e-06	5.314116e-06	8.039982e-09	3.761687e+01	5.286389e+02
1.550000e-06	5.334799e-06	8.056779e-09	3.776327e+01	5.298365e+02
1.560000e-06	5.353709e-06	8.071175e-09	3.789713e+01	5.308948e+02
1.570000e-06	5.370596e-06	8.083633e-09	3.801667e+01	5.318190e+02
1.580000e-06	5.385449e-06	8.095350e-09	3.812180e+01	5.326139e+02
1.590000e-06	5.398386e-06	8.105598e-09	3.821338e+01	5.332837e+02
1.600000e-06	5.409188e-06	8.114805e-09	3.828985e+01	5.338318e+02
1.610000e-06	5.417740e-06	8.121967e-09	3.835038e+01	5.342610e+02
1.620000e-06	5.424364e-06	8.127061e-09	3.839728e+01	5.345739e+02
1.630000e-06	5.429256e-06	8.132919e-09	3.843191e+01	5.347736e+02
1.640000e-06	5.432259e-06	8.137284e-09	3.845316e+01	5.348639e+02
1.650000e-06	5.433225e-06	8.139277e-09	3.846000e+01	5.348492e+02
1.660000e-06	5.432278e-06	8.138136e-09	3.845329e+01	5.347344e+02
1.670000e-06	5.429635e-06	8.132831e-09	3.843459e+01	5.345240e+02
1.680000e-06	5.425329e-06	8.128772e-09	3.840410e+01	5.342212e+02
1.690000e-06	5.419105e-06	8.122653e-09	3.836004e+01	5.338275e+02
1.700000e-06	5.411025e-06	8.114725e-09	3.830285e+01	5.333422e+02
1.710000e-06	5.401392e-06	8.108666e-09	3.823467e+01	5.327629e+02
1.720000e-06	5.390108e-06	8.105180e-09	3.815478e+01	5.320864e+02
1.730000e-06	5.376899e-06	8.106571e-09	3.806128e+01	5.313103e+02
1.740000e-06	5.361673e-06	8.041832e-09	3.795351e+01	5.304345e+02
1.750000e-06	5.344182e-06	8.001682e-09	3.782969e+01	5.294624e+02
1.760000e-06	5.323974e-06	8.015965e-09	3.768665e+01	5.284020e+02
1.770000e-06	5.301228e-06	8.006563e-09	3.752564e+01	5.272650e+02
1.780000e-06	5.276876e-06	8.085668e-09	3.735325e+01	5.260659e+02
1.790000e-06	5.251822e-06	8.030575e-09	3.717591e+01	5.248193e+02
1.800000e-06	5.225710e-06	7.895670e-09	3.699107e+01	5.235373e+02
1.810000e-06	5.197357e-06	7.995258e-09	3.679037e+01	5.222260e+02
1.820000e-06	5.166945e-06	7.917178e-09	3.657509e+01	5.208842e+02
1.830000e-06	5.135039e-06	7.850412e-09	3.634924e+01	5.195017e+02
1.840000e-06	5.101239e-06	7.989969e-09	3.610998e+01	5.180601e+02
1.850000e-06	5.065745e-06	7.868220e-09	3.585873e+01	5.165353e+02
1.860000e-06	5.028613e-06	7.812919e-09	3.559588e+01	5.149005e+02
1.870000e-06	4.989441e-06	7.870969e-09	3.531860e+01	5.131304e+02
1.880000e-06	4.948560e-06	7.726302e-09	3.502921e+01	5.112051e+02
1.890000e-06	4.905913e-06	7.748416e-09	3.472733e+01	5.091130e+02
1.900000e-06	4.861552e-06	7.750676e-09	3.441332e+01	5.068527e+02
1.910000e-06	4.815527e-06	7.670098e-09	3.408752e+01	5.044323e+02
1.920000e-06	4.767391e-06	7.687330e-09	3.374678e+01	5.018674e+02
1.930000e-06	4.717494e-06	7.540206e-09	3.339358e+01	4.991782e+02
1.940000e-06	4.665931e-06	7.565646e-09	3.302858e+01	4.963848e+02
1.950000e-06	4.612281e-06	7.595013e-09	3.264881e+01	4.935042e+02
1.960000e-06	4.556626e-06	7.448286e-09	3.225484e+01	4.905469e+02
1.970000e-06	4.499213e-06	7.410245e-09	3.184844e+01	4.875156e+02
1.980000e-06	4.440340e-06	7.337230e-09	3.143169e+01	4.844054e+02
1.990000e-06	4.380003e-06	7.331199e-09	3.100459e+01	4.812059e+02
2.000000e-06	4.317948e-06	7.301114e-09	3.056532e+01	4.779033e+02
2.010000e-06	4.254264e-06	7.219994e-09	3.011452e+01	4.744840e+02
2.020000e-06	4.189029e-06	7.212466e-09	2.965274e+01	4.709370e+02
2.030000e-06	4.122381e-06	7.091973e-09	2.918097e+01	4.672560e+02
2.040000e-06	4.054270e-06	7.031674e-09	2.869883e+01	4.634398e+02
2.050000e-06	3.984573e-06	7.007625e-09	2.820547e+01	4.594917e+02
2.060000e-06	3.913382e-06	6.957501e-09	2.770153e+01	4.554179e+02
2.070000e-06	3.840796e-06	6.900532e-09	2.718772e+01	4.512252e+02
2.080000e-06	3.766972e-06	6.784239e-09	2.666515e+01	4.469193e+02
2.090000e-06	3.691770e-06	6.736405e-09	2.613282e+01	4.425028e+02
2.100000e-06	3.615091e-06	6.675165e-09	2.559003e+01	4.379748e+02
2.110000e-06	3.536893e-06	6.614203e-09	2.503649e+01	4.333312e+02
2.120000e-06	3.457232e-06	6.539272e-09	2.447260e+01	4.285657e+02
2.130000e-06	3.376449e-06	6.443619e-09	2.390076e+01	4.236716e+02
2.140000e-06	3.294594e-06	6.378227e-09	2.332134e+01	4.186428e+02
2.150000e-06	3.211617e-06	6.287097e-09	2.273397e+01	4.134754e+02
2.160000e-06	3.127525e-06	6.227597e-09	2.213872e+01	4.081675e+02
2.170000e-06	3.042303e-06	6.161015e-09	2.153545e+01	4.027198e+02
2.180000e-06	2.955838e-06	6.064676e-09	2.092340e+01	3.971335e+02
2.190000e-06	2.868130e-06	5.952241e-09	2.030254e+01	3.914104e+02
2.200000e-06	2.779414e-06	5.856501e-09	1.967455e+01	3.855506e+02
2.210000e-06	2.689773e-06	5.796887e-09	1.904001e+01	3.795526e+02
2.220000e-06	2.599217e-06	5.713628e-09	1.839900e+01	3.734129e+02
2.230000e-06	2.507787e-06	5.603779e-09	1.775179e+01	3.671262e+02
2.240000e-06	2.415537e-06	5.489575e-09	1.709878e+01	3.606868e+02
2.250000e-06	2.322452e-06	5.393775e-09	1.643987e+01	3.540893e+02
2.260000e-06	2.228520e-06	5.293228e-09	1.577495e+01	3.473298e+02
2.270000e-06	2.133629e-06	5.193532e-09	1.510325e+01	3.404063e+02
2.280000e-06	2.037726e-06	5.095507e-09	1.442439e+01	3.333188e+02
2.290000e-06	1.941096e-06	4.979072e-09	1.374038e+01	3.260685e+02
2.300000e-06	1.843945e-06	4.853130e-09	1.305268e+01	3.186568e+02
2.310000e-06	1.746307e-06	4.736803e-09	1.236153e+01	3.110844e+02
2.320000e-06	1.648137e-06	4.637732e-09	1.166662e+01	3.033499e+02
2.330000e-06	1.549396e-06	4.523518e-09	1.096766e+01	2.954499e+02
2.340000e-06	1.450145e-06	4.389603e-09	1.026510e+01	2.873784e+02
2.350000e-06	1.350463e-06	4.253328e-09	9.559478e+00	2.791281e+02
2.360000e-06	1.250410e-06	4.126542e-09	8.851235e+00	2.706908e+02
2.370000e-06	1.150005e-06	4.003183e-09	8.140501e+00	2.620585e+02
2.380000e-06	1.049272e-06	3.873612e-09	7.427451e+00	2.532246e+02
2.390000e-06	9.481556e-07	3.735113e-09	6.711679e+00	2.441839e+02
2.400000e-06	8.466180e-07	3.588601e-09	5.992928e+00	2.349326e+02
2.410000e-06	7.446462e-07	3.443915e-09	5.271103e+00	2.254677e+02
2.420000e-06	6.423045e-07	3.301839e-09	4.546660e+00	2.157863e+02
2.430000e-06	5.396793e-07	3.160028e-09	3.820211e+00	2.058845e+02
2.440000e-06	4.368441e-07	3.009414e-09	3.092274e+00	1.957570e+02
2.450000e-06	3.338913e-07	2.845014e-09	2.363506e+00	1.853972e+02
2.460000e-06	2.307763e-07	2.674735e-09	1.633589e+00	1.747971e+02
2.470000e-06	1.275057e-07	2.512591e-09	9.025703e-01	1.639489e+02
2.480000e-06	2.419180e-08	2.353754e-09	1.712458e-01	1.528452e+02
2.490000e-06	-7.912110e-08	2.184014e-09	-5.600720e-01	1.414802e+02
2.500000e-06	-1.823821e-07	2.002760e-09	-1.291022e+00	1.298497e+02
2.510000e-06	-2.856305e-07	1.818604e-09	-2.021884e+00	1.179513e+02
2.520000e-06	-3.888725e-07	1.636720e-09	-2.752699e+00	1.057827e+02
2.530000e-06	-4.920234e-07	1.449319e-09	-3.482871e+00	9.334118e+01
2.540000e-06	-5.949168e-07	1.255963e-09	-4.211218e+00	8.062184e+01
2.550000e-06	-6.974700e-07	1.055630e-09	-4.937159e+00	6.761675e+01
2.560000e-06	-7.997556e-07	8.452726e-10	-5.661204e+00	5.431488e+01
2.570000e-06	-9.016284e-07	6.317496e-10	-6.382328e+00	4.070300e+01
2.580000e-06	-1.003001e-06	4.195630e-10	-7.099909e+00	2.676762e+01
2.590000e-06	-1.103892e-06	2.046760e-10	-7.814087e+00	1.249786e+01
2.600000e-06	-1.204325e-06	-1.915098e-11	-8.525014e+00	-2.111351e+00
2.610000e-06	-1.304357e-06	-2.517986e-10	-9.233113e+00	-1.705619e+01
2.620000e-06	-1.403958e-06	-4.891119e-10	-9.938151e+00	-3.232152e+01
2.630000e-06	-1.503094e-06	-7.263116e-10	-1.063990e+01	-4.787969e+01
2.640000e-06	-1.601752e-06	-9.638577e-10	-1.133827e+01	-6.369060e+01
2.650000e-06	-1.699876e-06	-1.205914e-09	-1.203286e+01	-7.970319e+01
2.660000e-06	-1.797367e-06	-1.453501e-09	-1.272297e+01	-9.585793e+01
2.670000e-06	-1.894195e-06	-1.703824e-09	-1.340838e+01	-1.120900e+02
2.680000e-06	-1.990455e-06	-1.952036e-09	-1.408977e+01	-1.283323e+02
2.690000e-06	-2.086195e-06	-2.196395e-09	-1.476748e+01	-1.445185e+02
2.700000e-06	-2.181250e-06	-2.439056e-09	-1.544035e+01	-1.605851e+02
2.710000e-06	-2.275345e-06	-2.683726e-09	-1.610641e+01	-1.764725e+02
2.720000e-06	-2.368362e-06	-2.927027e-09	-1.676485e+01	-1.921257e+02
2.730000e-06	-2.460404e-06	-3.162946e-09	-1.741639e+01	-2.074946e+02
2.740000e-06	-2.551623e-06	-3.391032e-09	-1.806210e+01	-2.225336e+02
2.750000e-06	-2.641923e-06	-3.614075e-09	-1.870130e+01	-2.372024e+02
2.760000e-06	-2.731245e-06	-3.834714e-09	-1.933358e+01	-2.514658e+02
2.770000e-06	-2.819685e-06	-4.051555e-09	-1.995962e+01	-2.652952e+02
2.780000e-06	-2.907317e-06	-4.259785e-09	-2.057993e+01	-2.786695e+02
2.790000e-06	-2.993993e-06	-4.457092e-09	-2.119348e+01	-2.915757e+02
2.800000e-06	-3.079365e-06	-4.645800e-09	-2.179781e+01	-3.040095e+02
2.810000e-06	-3.163508e-06	-4.828248e-09	-2.239342e+01	-3.159745e+02
2.820000e-06	-3.246652e-06	-5.004503e-09	-2.298198e+01	-3.274808e+02
2.830000e-06	-3.328793e-06	-5.173839e-09	-2.356342e+01	-3.385428e+02
2.840000e-06	-3.409884e-06	-5.334341e-09	-2.413744e+01	-3.491763e+02
2.850000e-06	-3.489908e-06	-5.487600e-09	-2.470390e+01	-3.593956e+02
2.860000e-06	-3.568540e-06	-5.635995e-09	-2.526051e+01	-3.692113e+02
2.870000e-06	-3.645523e-06	-5.779789e-09	-2.580545e+01	-3.786296e+02
2.880000e-06	-3.721043e-06	-5.919515e-09	-2.634003e+01	-3.876514e+02
2.890000e-06	-3.795165e-06	-6.052309e-09	-2.686471e+01	-3.962749e+02
2.900000e-06	-3.867933e-06	-6.179889e-09	-2.737981e+01	-4.044971e+02
2.910000e-06	-3.939455e-06	-6.303924e-09	-2.788610e+01	-4.123176e+02
2.920000e-06	-4.009432e-06	-6.421003e-09	-2.838144e+01	-4.197409e+02
2.930000e-06	-4.077762e-06	-6.529403e-09	-2.886512e+01	-4.267788e+02
2.940000e-06	-4.144682e-06	-6.630302e-09	-2.933883e+01	-4.334511e+02
