# Temperatura_=_65.33
# Concentracion g/m^3_=_15000.0
# C_Vs_to_Am_M_A/Vsm_=_65563218390.804596
# pendiente_HvsI_1/m_=_3716.3
# ordenada_HvsI_A/m_=_1297.0
# frecuencia_Hz_=_301589.8383830974

Tiempo_(s)	Campo_(V.s)	Magnetizacion_(V.s)	Campo_(kA/m)	Magnetizacion_(A/m)
0.000000e+00	-5.399531e-06	-9.004675e-09	-3.833986e+01	-5.881943e+02
1.000000e-08	-5.396998e-06	-9.000107e-09	-3.832187e+01	-5.879435e+02
2.000000e-08	-5.392616e-06	-8.994052e-09	-3.829077e+01	-5.876021e+02
3.000000e-08	-5.386637e-06	-8.988012e-09	-3.824831e+01	-5.871663e+02
4.000000e-08	-5.379134e-06	-8.978618e-09	-3.819503e+01	-5.866268e+02
5.000000e-08	-5.369814e-06	-8.964971e-09	-3.812886e+01	-5.859707e+02
6.000000e-08	-5.358404e-06	-8.949241e-09	-3.804784e+01	-5.851850e+02
7.000000e-08	-5.345046e-06	-8.930568e-09	-3.795298e+01	-5.842610e+02
8.000000e-08	-5.329645e-06	-8.936242e-09	-3.784363e+01	-5.831973e+02
9.000000e-08	-5.312003e-06	-8.950456e-09	-3.771836e+01	-5.820018e+02
1.000000e-07	-5.292243e-06	-8.921074e-09	-3.757805e+01	-5.806919e+02
1.100000e-07	-5.270528e-06	-8.882855e-09	-3.742386e+01	-5.792921e+02
1.200000e-07	-5.247166e-06	-8.822368e-09	-3.725798e+01	-5.778297e+02
1.300000e-07	-5.222324e-06	-8.746713e-09	-3.708159e+01	-5.763296e+02
1.400000e-07	-5.195791e-06	-8.807367e-09	-3.689319e+01	-5.748091e+02
1.500000e-07	-5.167597e-06	-8.792989e-09	-3.669299e+01	-5.732736e+02
1.600000e-07	-5.137952e-06	-8.707772e-09	-3.648250e+01	-5.717148e+02
1.700000e-07	-5.106737e-06	-8.755550e-09	-3.626085e+01	-5.701110e+02
1.800000e-07	-5.073486e-06	-8.671006e-09	-3.602475e+01	-5.684304e+02
1.900000e-07	-5.038312e-06	-8.587090e-09	-3.577499e+01	-5.666361e+02
2.000000e-07	-5.001631e-06	-8.639287e-09	-3.551454e+01	-5.646920e+02
2.100000e-07	-4.963272e-06	-8.548650e-09	-3.524216e+01	-5.625683e+02
2.200000e-07	-4.923085e-06	-8.479140e-09	-3.495682e+01	-5.602464e+02
2.300000e-07	-4.880922e-06	-8.520641e-09	-3.465743e+01	-5.577203e+02
2.400000e-07	-4.836859e-06	-8.465609e-09	-3.434456e+01	-5.549968e+02
2.500000e-07	-4.791024e-06	-8.415917e-09	-3.401910e+01	-5.520927e+02
2.600000e-07	-4.743266e-06	-8.366314e-09	-3.367999e+01	-5.490307e+02
2.700000e-07	-4.693437e-06	-8.284798e-09	-3.332618e+01	-5.458346e+02
2.800000e-07	-4.641475e-06	-8.241429e-09	-3.295722e+01	-5.425249e+02
2.900000e-07	-4.587640e-06	-8.208190e-09	-3.257496e+01	-5.391156e+02
3.000000e-07	-4.532310e-06	-8.157982e-09	-3.218208e+01	-5.356127e+02
3.100000e-07	-4.475275e-06	-8.110083e-09	-3.177710e+01	-5.320143e+02
3.200000e-07	-4.416321e-06	-8.063609e-09	-3.135849e+01	-5.283129e+02
3.300000e-07	-4.355813e-06	-7.977644e-09	-3.092884e+01	-5.244975e+02
3.400000e-07	-4.293833e-06	-7.913433e-09	-3.048875e+01	-5.205573e+02
3.500000e-07	-4.230482e-06	-7.883521e-09	-3.003893e+01	-5.164835e+02
3.600000e-07	-4.165711e-06	-7.800858e-09	-2.957901e+01	-5.122711e+02
3.700000e-07	-4.099184e-06	-7.717724e-09	-2.910663e+01	-5.079193e+02
3.800000e-07	-4.031055e-06	-7.671192e-09	-2.862288e+01	-5.034308e+02
3.900000e-07	-3.961584e-06	-7.598046e-09	-2.812959e+01	-4.988098e+02
4.000000e-07	-3.890849e-06	-7.512142e-09	-2.762733e+01	-4.940611e+02
4.100000e-07	-3.818945e-06	-7.436819e-09	-2.711677e+01	-4.891877e+02
4.200000e-07	-3.745661e-06	-7.371324e-09	-2.659641e+01	-4.841900e+02
4.300000e-07	-3.670689e-06	-7.294814e-09	-2.606406e+01	-4.790657e+02
4.400000e-07	-3.594177e-06	-7.213534e-09	-2.552078e+01	-4.738098e+02
4.500000e-07	-3.516239e-06	-7.137945e-09	-2.496738e+01	-4.684160e+02
4.600000e-07	-3.436798e-06	-7.060089e-09	-2.440330e+01	-4.628775e+02
4.700000e-07	-3.356101e-06	-6.965014e-09	-2.383030e+01	-4.571887e+02
4.800000e-07	-3.274299e-06	-6.858930e-09	-2.324946e+01	-4.513459e+02
4.900000e-07	-3.191327e-06	-6.778874e-09	-2.266031e+01	-4.453478e+02
5.000000e-07	-3.107334e-06	-6.695344e-09	-2.206391e+01	-4.391957e+02
5.100000e-07	-3.022405e-06	-6.589520e-09	-2.146086e+01	-4.328923e+02
5.200000e-07	-2.936474e-06	-6.486009e-09	-2.085071e+01	-4.264413e+02
5.300000e-07	-2.849523e-06	-6.388887e-09	-2.023330e+01	-4.198463e+02
5.400000e-07	-2.761685e-06	-6.285121e-09	-1.960960e+01	-4.131095e+02
5.500000e-07	-2.672990e-06	-6.174653e-09	-1.897981e+01	-4.062314e+02
5.600000e-07	-2.583080e-06	-6.066515e-09	-1.834139e+01	-3.992100e+02
5.700000e-07	-2.491923e-06	-5.959463e-09	-1.769413e+01	-3.920414e+02
5.800000e-07	-2.399924e-06	-5.847577e-09	-1.704088e+01	-3.847201e+02
5.900000e-07	-2.307193e-06	-5.734249e-09	-1.638243e+01	-3.772395e+02
6.000000e-07	-2.213700e-06	-5.622923e-09	-1.571858e+01	-3.695933e+02
6.100000e-07	-2.119450e-06	-5.502992e-09	-1.504935e+01	-3.617755e+02
6.200000e-07	-2.024410e-06	-5.375065e-09	-1.437451e+01	-3.537817e+02
6.300000e-07	-1.928620e-06	-5.247544e-09	-1.369434e+01	-3.456090e+02
6.400000e-07	-1.832146e-06	-5.123581e-09	-1.300932e+01	-3.372555e+02
6.500000e-07	-1.734956e-06	-4.995297e-09	-1.231921e+01	-3.287201e+02
6.600000e-07	-1.636969e-06	-4.857485e-09	-1.162345e+01	-3.200015e+02
6.700000e-07	-1.538213e-06	-4.718249e-09	-1.092222e+01	-3.110976e+02
6.800000e-07	-1.438872e-06	-4.577858e-09	-1.021684e+01	-3.020046e+02
6.900000e-07	-1.339054e-06	-4.436096e-09	-9.508072e+00	-2.927169e+02
7.000000e-07	-1.238883e-06	-4.293282e-09	-8.796799e+00	-2.832269e+02
7.100000e-07	-1.138461e-06	-4.145227e-09	-8.083748e+00	-2.735262e+02
7.200000e-07	-1.037739e-06	-3.988598e-09	-7.368563e+00	-2.636062e+02
7.300000e-07	-9.366688e-07	-3.829735e-09	-6.650902e+00	-2.534594e+02
7.400000e-07	-8.351891e-07	-3.671361e-09	-5.930337e+00	-2.430801e+02
7.500000e-07	-7.333784e-07	-3.508911e-09	-5.207420e+00	-2.324652e+02
7.600000e-07	-6.313178e-07	-3.340737e-09	-4.482730e+00	-2.216143e+02
7.700000e-07	-5.290186e-07	-3.167064e-09	-3.756345e+00	-2.105289e+02
7.800000e-07	-4.265549e-07	-2.993258e-09	-3.028792e+00	-1.992111e+02
7.900000e-07	-3.239784e-07	-2.819156e-09	-2.300438e+00	-1.876627e+02
8.000000e-07	-2.213095e-07	-2.640766e-09	-1.571428e+00	-1.758832e+02
8.100000e-07	-1.185902e-07	-2.456618e-09	-8.420607e-01	-1.638688e+02
8.200000e-07	-1.584046e-08	-2.268010e-09	-1.124766e-01	-1.516118e+02
8.300000e-07	8.692418e-08	-2.076963e-09	6.172131e-01	-1.391008e+02
8.400000e-07	1.897326e-07	-1.882822e-09	1.347214e+00	-1.263213e+02
8.500000e-07	2.925293e-07	-1.682923e-09	2.077131e+00	-1.132570e+02
8.600000e-07	3.951979e-07	-1.479671e-09	2.806138e+00	-9.989067e+01
8.700000e-07	4.977099e-07	-1.271701e-09	3.534035e+00	-8.620616e+01
8.800000e-07	6.000968e-07	-1.056802e-09	4.261042e+00	-7.218869e+01
8.900000e-07	7.023367e-07	-8.378660e-10	4.987006e+00	-5.782568e+01
9.000000e-07	8.043857e-07	-6.146975e-10	5.711614e+00	-4.310698e+01
9.100000e-07	9.061441e-07	-3.868658e-10	6.434159e+00	-2.802510e+01
9.200000e-07	1.007481e-06	-1.512648e-10	7.153711e+00	-1.257564e+01
9.300000e-07	1.108444e-06	9.166124e-11	7.870608e+00	3.241829e+00
9.400000e-07	1.209041e-06	3.384809e-10	8.584905e+00	1.942221e+01
9.500000e-07	1.309313e-06	5.889342e-10	9.296900e+00	3.595295e+01
9.600000e-07	1.409207e-06	8.432943e-10	1.000621e+01	5.281184e+01
9.700000e-07	1.508548e-06	1.102466e-09	1.071158e+01	6.996509e+01
9.800000e-07	1.607309e-06	1.365684e-09	1.141284e+01	8.736610e+01
9.900000e-07	1.705411e-06	1.632136e-09	1.210943e+01	1.049555e+02
1.000000e-06	1.802682e-06	1.899456e-09	1.280011e+01	1.226627e+02
1.010000e-06	1.899105e-06	2.166859e-09	1.348477e+01	1.404084e+02
1.020000e-06	1.994766e-06	2.435462e-09	1.416402e+01	1.581092e+02
1.030000e-06	2.089717e-06	2.703983e-09	1.483823e+01	1.756814e+02
1.040000e-06	2.183931e-06	2.969731e-09	1.550720e+01	1.930461e+02
1.050000e-06	2.277381e-06	3.227569e-09	1.617076e+01	2.101325e+02
1.060000e-06	2.370124e-06	3.478416e-09	1.682928e+01	2.268807e+02
1.070000e-06	2.462154e-06	3.723623e-09	1.748275e+01	2.432423e+02
1.080000e-06	2.553398e-06	3.965437e-09	1.813063e+01	2.591805e+02
1.090000e-06	2.643677e-06	4.202680e-09	1.877167e+01	2.746684e+02
1.100000e-06	2.732797e-06	4.432383e-09	1.940447e+01	2.896875e+02
1.110000e-06	2.820818e-06	4.651023e-09	2.002947e+01	3.042255e+02
1.120000e-06	2.907920e-06	4.861821e-09	2.064795e+01	3.182751e+02
1.130000e-06	2.994086e-06	5.068670e-09	2.125978e+01	3.318332e+02
1.140000e-06	3.079283e-06	5.268610e-09	2.186473e+01	3.449003e+02
1.150000e-06	3.163533e-06	5.459564e-09	2.246296e+01	3.574812e+02
1.160000e-06	3.246858e-06	5.642080e-09	2.305461e+01	3.695843e+02
1.170000e-06	3.329111e-06	5.818992e-09	2.363865e+01	3.812216e+02
1.180000e-06	3.410035e-06	5.989109e-09	2.421326e+01	3.924076e+02
1.190000e-06	3.489585e-06	6.153344e-09	2.477812e+01	4.031576e+02
1.200000e-06	3.567893e-06	6.311034e-09	2.533415e+01	4.134860e+02
1.210000e-06	3.645040e-06	6.462443e-09	2.588194e+01	4.234044e+02
1.220000e-06	3.720923e-06	6.607774e-09	2.642076e+01	4.329208e+02
1.230000e-06	3.795237e-06	6.747917e-09	2.694843e+01	4.420392e+02
1.240000e-06	3.867908e-06	6.881980e-09	2.746444e+01	4.507607e+02
1.250000e-06	3.939145e-06	7.007919e-09	2.797026e+01	4.590855e+02
1.260000e-06	4.008996e-06	7.124818e-09	2.846624e+01	4.670153e+02
1.270000e-06	4.077534e-06	7.235942e-09	2.895290e+01	4.745563e+02
1.280000e-06	4.144707e-06	7.343839e-09	2.942987e+01	4.817206e+02
1.290000e-06	4.210259e-06	7.445771e-09	2.989533e+01	4.885270e+02
1.300000e-06	4.274141e-06	7.542728e-09	3.034893e+01	4.950007e+02
1.310000e-06	4.336482e-06	7.636436e-09	3.079159e+01	5.011710e+02
1.320000e-06	4.397412e-06	7.726843e-09	3.122422e+01	5.070684e+02
1.330000e-06	4.457010e-06	7.814029e-09	3.164741e+01	5.127213e+02
1.340000e-06	4.515000e-06	7.898412e-09	3.205917e+01	5.181529e+02
1.350000e-06	4.571137e-06	7.979710e-09	3.245778e+01	5.233796e+02
1.360000e-06	4.625597e-06	8.054702e-09	3.284448e+01	5.284098e+02
1.370000e-06	4.678394e-06	8.125566e-09	3.321936e+01	5.332448e+02
1.380000e-06	4.729204e-06	8.195169e-09	3.358014e+01	5.378807e+02
1.390000e-06	4.777936e-06	8.262694e-09	3.392617e+01	5.423103e+02
1.400000e-06	4.824934e-06	8.327181e-09	3.425989e+01	5.465260e+02
1.410000e-06	4.870383e-06	8.387868e-09	3.458260e+01	5.505217e+02
1.420000e-06	4.914229e-06	8.445016e-09	3.489393e+01	5.542937e+02
1.430000e-06	4.956257e-06	8.499129e-09	3.519236e+01	5.578414e+02
1.440000e-06	4.996390e-06	8.550978e-09	3.547733e+01	5.611670e+02
1.450000e-06	5.034870e-06	8.599383e-09	3.575055e+01	5.642742e+02
1.460000e-06	5.071790e-06	8.642548e-09	3.601271e+01	5.671681e+02
1.470000e-06	5.106985e-06	8.679401e-09	3.626261e+01	5.698541e+02
1.480000e-06	5.140224e-06	8.712979e-09	3.649863e+01	5.723380e+02
1.490000e-06	5.171585e-06	8.744843e-09	3.672131e+01	5.746264e+02
1.500000e-06	5.201232e-06	8.773909e-09	3.693182e+01	5.767265e+02
1.510000e-06	5.229205e-06	8.801295e-09	3.713045e+01	5.786469e+02
1.520000e-06	5.255259e-06	8.826966e-09	3.731545e+01	5.803969e+02
1.530000e-06	5.279187e-06	8.850542e-09	3.748535e+01	5.819860e+02
1.540000e-06	5.301222e-06	8.872258e-09	3.764181e+01	5.834231e+02
1.550000e-06	5.321571e-06	8.892246e-09	3.778630e+01	5.847152e+02
1.560000e-06	5.340121e-06	8.909261e-09	3.791801e+01	5.858663e+02
1.570000e-06	5.356614e-06	8.922334e-09	3.803513e+01	5.868775e+02
1.580000e-06	5.371109e-06	8.932608e-09	3.813805e+01	5.877473e+02
1.590000e-06	5.383676e-06	8.940955e-09	3.822728e+01	5.884730e+02
1.600000e-06	5.394085e-06	8.948465e-09	3.830119e+01	5.890522e+02
1.610000e-06	5.402327e-06	8.956017e-09	3.835972e+01	5.894852e+02
1.620000e-06	5.408633e-06	8.962002e-09	3.840449e+01	5.897757e+02
1.630000e-06	5.413169e-06	8.967998e-09	3.843670e+01	5.899315e+02
1.640000e-06	5.415814e-06	8.973930e-09	3.845548e+01	5.899640e+02
1.650000e-06	5.416450e-06	8.976921e-09	3.846000e+01	5.898854e+02
1.660000e-06	5.415245e-06	8.974977e-09	3.845144e+01	5.897072e+02
1.670000e-06	5.412375e-06	8.969403e-09	3.843106e+01	5.894365e+02
1.680000e-06	5.407776e-06	8.960375e-09	3.839841e+01	5.890749e+02
1.690000e-06	5.401224e-06	8.949452e-09	3.835188e+01	5.886174e+02
1.700000e-06	5.392883e-06	8.940010e-09	3.829266e+01	5.880536e+02
1.710000e-06	5.382992e-06	8.932238e-09	3.822243e+01	5.873702e+02
1.720000e-06	5.371435e-06	8.930260e-09	3.814037e+01	5.865550e+02
1.730000e-06	5.357978e-06	8.912232e-09	3.804481e+01	5.856004e+02
1.740000e-06	5.342439e-06	8.859302e-09	3.793448e+01	5.845070e+02
1.750000e-06	5.324517e-06	8.842549e-09	3.780722e+01	5.832847e+02
1.760000e-06	5.303930e-06	8.832673e-09	3.766104e+01	5.819529e+02
1.770000e-06	5.280971e-06	8.850424e-09	3.749801e+01	5.805369e+02
1.780000e-06	5.256618e-06	8.872349e-09	3.732509e+01	5.790640e+02
1.790000e-06	5.231556e-06	8.749603e-09	3.714714e+01	5.775580e+02
1.800000e-06	5.205183e-06	8.744689e-09	3.695988e+01	5.760339e+02
1.810000e-06	5.176612e-06	8.763391e-09	3.675701e+01	5.744941e+02
1.820000e-06	5.146112e-06	8.655166e-09	3.654044e+01	5.729274e+02
1.830000e-06	5.113920e-06	8.719730e-09	3.631185e+01	5.713096e+02
1.840000e-06	5.079778e-06	8.722414e-09	3.606943e+01	5.696074e+02
1.850000e-06	5.044043e-06	8.604529e-09	3.581569e+01	5.677834e+02
1.860000e-06	5.006581e-06	8.667810e-09	3.554969e+01	5.658025e+02
1.870000e-06	4.967193e-06	8.613341e-09	3.527001e+01	5.636371e+02
1.880000e-06	4.926181e-06	8.492047e-09	3.497880e+01	5.612710e+02
1.890000e-06	4.883388e-06	8.521900e-09	3.467494e+01	5.587011e+02
1.900000e-06	4.838853e-06	8.453781e-09	3.435872e+01	5.559368e+02
1.910000e-06	4.792499e-06	8.435481e-09	3.402958e+01	5.529963e+02
1.920000e-06	4.744097e-06	8.415683e-09	3.368589e+01	5.499032e+02
1.930000e-06	4.694071e-06	8.319165e-09	3.333068e+01	5.466807e+02
1.940000e-06	4.642384e-06	8.314535e-09	3.296367e+01	5.433484e+02
1.950000e-06	4.588605e-06	8.236725e-09	3.258181e+01	5.399183e+02
1.960000e-06	4.532867e-06	8.143800e-09	3.218603e+01	5.363949e+02
1.970000e-06	4.475421e-06	8.101206e-09	3.177814e+01	5.327747e+02
1.980000e-06	4.416509e-06	8.068174e-09	3.135982e+01	5.290494e+02
1.990000e-06	4.356081e-06	8.029467e-09	3.093075e+01	5.252077e+02
2.000000e-06	4.293992e-06	7.915794e-09	3.048988e+01	5.212390e+02
2.010000e-06	4.230269e-06	7.886979e-09	3.003741e+01	5.171353e+02
2.020000e-06	4.165010e-06	7.834207e-09	2.957403e+01	5.128925e+02
2.030000e-06	4.098333e-06	7.716363e-09	2.910059e+01	5.085107e+02
2.040000e-06	4.030216e-06	7.687031e-09	2.861692e+01	5.039929e+02
2.050000e-06	3.960545e-06	7.632004e-09	2.812221e+01	4.993437e+02
2.060000e-06	3.889329e-06	7.552322e-09	2.761654e+01	4.945676e+02
2.070000e-06	3.816747e-06	7.451171e-09	2.710116e+01	4.896672e+02
2.080000e-06	3.742866e-06	7.369556e-09	2.657656e+01	4.846422e+02
2.090000e-06	3.667620e-06	7.321131e-09	2.604227e+01	4.794897e+02
2.100000e-06	3.590888e-06	7.223409e-09	2.549743e+01	4.742044e+02
2.110000e-06	3.512547e-06	7.129546e-09	2.494116e+01	4.687796e+02
2.120000e-06	3.432862e-06	7.057063e-09	2.437535e+01	4.632089e+02
2.130000e-06	3.352132e-06	6.983881e-09	2.380212e+01	4.574868e+02
2.140000e-06	3.270262e-06	6.877284e-09	2.322079e+01	4.516103e+02
2.150000e-06	3.187218e-06	6.778895e-09	2.263113e+01	4.455787e+02
2.160000e-06	3.103169e-06	6.699819e-09	2.203434e+01	4.393933e+02
2.170000e-06	3.018049e-06	6.595405e-09	2.142993e+01	4.330575e+02
2.180000e-06	2.931544e-06	6.492593e-09	2.081570e+01	4.265750e+02
2.190000e-06	2.843817e-06	6.398774e-09	2.019278e+01	4.199490e+02
2.200000e-06	2.755181e-06	6.310054e-09	1.956341e+01	4.131815e+02
2.210000e-06	2.665637e-06	6.202462e-09	1.892760e+01	4.062724e+02
2.220000e-06	2.575193e-06	6.085508e-09	1.828539e+01	3.992194e+02
2.230000e-06	2.483890e-06	5.977561e-09	1.763709e+01	3.920182e+02
2.240000e-06	2.391786e-06	5.865274e-09	1.698309e+01	3.846628e+02
2.250000e-06	2.298882e-06	5.748974e-09	1.632342e+01	3.771468e+02
2.260000e-06	2.205116e-06	5.631453e-09	1.565763e+01	3.694638e+02
2.270000e-06	2.110332e-06	5.514501e-09	1.498461e+01	3.616081e+02
2.280000e-06	2.014560e-06	5.392586e-09	1.430457e+01	3.535758e+02
2.290000e-06	1.918128e-06	5.266396e-09	1.361984e+01	3.453640e+02
2.300000e-06	1.821220e-06	5.140514e-09	1.293174e+01	3.369711e+02
2.310000e-06	1.723786e-06	5.013483e-09	1.223990e+01	3.283961e+02
2.320000e-06	1.625729e-06	4.879683e-09	1.154364e+01	3.196376e+02
2.330000e-06	1.527118e-06	4.742303e-09	1.084344e+01	3.106931e+02
2.340000e-06	1.428059e-06	4.604864e-09	1.014007e+01	3.015585e+02
2.350000e-06	1.328633e-06	4.462443e-09	9.434081e+00	2.922276e+02
2.360000e-06	1.228883e-06	4.318748e-09	8.725794e+00	2.826927e+02
2.370000e-06	1.128792e-06	4.172165e-09	8.015088e+00	2.729453e+02
2.380000e-06	1.028394e-06	4.019447e-09	7.302207e+00	2.629768e+02
2.390000e-06	9.276151e-07	3.866144e-09	6.586616e+00	2.527801e+02
2.400000e-06	8.263104e-07	3.712789e-09	5.867292e+00	2.423500e+02
2.410000e-06	7.246425e-07	3.554319e-09	5.145390e+00	2.316841e+02
2.420000e-06	6.227413e-07	3.387037e-09	4.421831e+00	2.207823e+02
2.430000e-06	5.205332e-07	3.215069e-09	3.696094e+00	2.096464e+02
2.440000e-06	4.180842e-07	3.044207e-09	2.968645e+00	1.982787e+02
2.450000e-06	3.154747e-07	2.869566e-09	2.240057e+00	1.866804e+02
2.460000e-06	2.126444e-07	2.689553e-09	1.509901e+00	1.748506e+02
2.470000e-06	1.096299e-07	2.508910e-09	7.784370e-01	1.627845e+02
2.480000e-06	6.566446e-09	2.320967e-09	4.662565e-02	1.504737e+02
2.490000e-06	-9.644351e-08	2.126126e-09	-6.848059e-01	1.379060e+02
2.500000e-06	-1.994515e-07	1.930407e-09	-1.416223e+00	1.250664e+02
2.510000e-06	-3.024300e-07	1.732186e-09	-2.147432e+00	1.119383e+02
2.520000e-06	-4.052280e-07	1.528322e-09	-2.877358e+00	9.850471e+01
2.530000e-06	-5.078680e-07	1.317413e-09	-3.606163e+00	8.474957e+01
2.540000e-06	-6.103061e-07	1.103276e-09	-4.333534e+00	7.065857e+01
2.550000e-06	-7.125084e-07	8.849647e-10	-5.059231e+00	5.621964e+01
2.560000e-06	-8.144186e-07	6.562115e-10	-5.782854e+00	4.142319e+01
2.570000e-06	-9.158575e-07	4.212874e-10	-6.503130e+00	2.626233e+01
2.580000e-06	-1.016751e-06	1.848143e-10	-7.219532e+00	1.073342e+01
2.590000e-06	-1.117235e-06	-5.655062e-11	-7.933029e+00	-5.162924e+00
2.600000e-06	-1.217351e-06	-3.032222e-10	-8.643910e+00	-2.142019e+01
2.610000e-06	-1.317047e-06	-5.554040e-10	-9.351811e+00	-3.802395e+01
2.620000e-06	-1.416299e-06	-8.149192e-10	-1.005656e+01	-5.494966e+01
2.630000e-06	-1.515059e-06	-1.080380e-09	-1.075781e+01	-7.216082e+01
2.640000e-06	-1.613321e-06	-1.348634e-09	-1.145554e+01	-8.960809e+01
2.650000e-06	-1.710988e-06	-1.619266e-09	-1.214903e+01	-1.072295e+02
2.660000e-06	-1.808059e-06	-1.891150e-09	-1.283829e+01	-1.249523e+02
2.670000e-06	-1.904616e-06	-2.162340e-09	-1.352390e+01	-1.426960e+02
2.680000e-06	-2.000637e-06	-2.431486e-09	-1.420571e+01	-1.603766e+02
2.690000e-06	-2.096047e-06	-2.700378e-09	-1.488318e+01	-1.779112e+02
2.700000e-06	-2.190620e-06	-2.968033e-09	-1.555470e+01	-1.952223e+02
2.710000e-06	-2.284161e-06	-3.230574e-09	-1.621890e+01	-2.122414e+02
2.720000e-06	-2.376707e-06	-3.485893e-09	-1.687603e+01	-2.289108e+02
2.730000e-06	-2.468362e-06	-3.734284e-09	-1.752683e+01	-2.451849e+02
2.740000e-06	-2.559195e-06	-3.975991e-09	-1.817180e+01	-2.610290e+02
2.750000e-06	-2.649074e-06	-4.209661e-09	-1.880999e+01	-2.764183e+02
2.760000e-06	-2.737941e-06	-4.437906e-09	-1.944100e+01	-2.913356e+02
2.770000e-06	-2.825993e-06	-4.660387e-09	-2.006622e+01	-3.057699e+02
2.780000e-06	-2.913255e-06	-4.875543e-09	-2.068583e+01	-3.197148e+02
2.790000e-06	-2.999490e-06	-5.083581e-09	-2.129815e+01	-3.331679e+02
2.800000e-06	-3.084498e-06	-5.283956e-09	-2.190176e+01	-3.461308e+02
2.810000e-06	-3.168356e-06	-5.474686e-09	-2.249720e+01	-3.586089e+02
2.820000e-06	-3.251179e-06	-5.655981e-09	-2.308529e+01	-3.706115e+02
2.830000e-06	-3.332936e-06	-5.831607e-09	-2.366582e+01	-3.821513e+02
2.840000e-06	-3.413580e-06	-6.001011e-09	-2.423844e+01	-3.932431e+02
2.850000e-06	-3.493063e-06	-6.162715e-09	-2.480281e+01	-4.039021e+02
2.860000e-06	-3.571151e-06	-6.317930e-09	-2.535729e+01	-4.141422e+02
2.870000e-06	-3.647709e-06	-6.467653e-09	-2.590089e+01	-4.239744e+02
2.880000e-06	-3.722823e-06	-6.612224e-09	-2.643424e+01	-4.334057e+02
2.890000e-06	-3.796514e-06	-6.751347e-09	-2.695749e+01	-4.424395e+02
2.900000e-06	-3.868905e-06	-6.886261e-09	-2.747152e+01	-4.510764e+02
2.910000e-06	-3.939998e-06	-7.016760e-09	-2.797632e+01	-4.593168e+02
2.920000e-06	-4.009454e-06	-7.138248e-09	-2.846950e+01	-4.671631e+02
2.930000e-06	-4.077297e-06	-7.251182e-09	-2.895122e+01	-4.746226e+02
2.940000e-06	-4.143796e-06	-7.359451e-09	-2.942340e+01	-4.817087e+02
