# Temperatura_=_51.76
# Concentracion g/m^3_=_15000.0
# C_Vs_to_Am_M_A/Vsm_=_65563218390.804596
# pendiente_HvsI_1/m_=_3716.3
# ordenada_HvsI_A/m_=_1297.0
# frecuencia_Hz_=_301592.9208775806

Tiempo_(s)	Campo_(V.s)	Magnetizacion_(V.s)	Campo_(kA/m)	Magnetizacion_(A/m)
0.000000e+00	-5.407941e-06	-8.554589e-09	-3.833532e+01	-5.589699e+02
1.000000e-08	-5.405208e-06	-8.550997e-09	-3.831595e+01	-5.587261e+02
2.000000e-08	-5.400642e-06	-8.544723e-09	-3.828358e+01	-5.583869e+02
3.000000e-08	-5.394459e-06	-8.539685e-09	-3.823975e+01	-5.579473e+02
4.000000e-08	-5.386718e-06	-8.530990e-09	-3.818487e+01	-5.573985e+02
5.000000e-08	-5.377173e-06	-8.517774e-09	-3.811722e+01	-5.567311e+02
6.000000e-08	-5.365561e-06	-8.500149e-09	-3.803490e+01	-5.559373e+02
7.000000e-08	-5.351969e-06	-8.481108e-09	-3.793855e+01	-5.550150e+02
8.000000e-08	-5.336282e-06	-8.491236e-09	-3.782735e+01	-5.539695e+02
9.000000e-08	-5.318370e-06	-8.497112e-09	-3.770038e+01	-5.528144e+02
1.000000e-07	-5.298438e-06	-8.466131e-09	-3.755908e+01	-5.515704e+02
1.100000e-07	-5.276583e-06	-8.433852e-09	-3.740416e+01	-5.502625e+02
1.200000e-07	-5.252985e-06	-8.370695e-09	-3.723688e+01	-5.489151e+02
1.300000e-07	-5.227767e-06	-8.324083e-09	-3.705812e+01	-5.475481e+02
1.400000e-07	-5.200877e-06	-8.383854e-09	-3.686750e+01	-5.461717e+02
1.500000e-07	-5.172493e-06	-8.346874e-09	-3.666630e+01	-5.447848e+02
1.600000e-07	-5.142668e-06	-8.296656e-09	-3.645488e+01	-5.433736e+02
1.700000e-07	-5.111230e-06	-8.323742e-09	-3.623202e+01	-5.419136e+02
1.800000e-07	-5.077711e-06	-8.224143e-09	-3.599441e+01	-5.403736e+02
1.900000e-07	-5.042290e-06	-8.185277e-09	-3.574332e+01	-5.387200e+02
2.000000e-07	-5.005366e-06	-8.217608e-09	-3.548158e+01	-5.369223e+02
2.100000e-07	-4.966725e-06	-8.136153e-09	-3.520767e+01	-5.349574e+02
2.200000e-07	-4.926264e-06	-8.098091e-09	-3.492085e+01	-5.328125e+02
2.300000e-07	-4.883834e-06	-8.106300e-09	-3.462008e+01	-5.304853e+02
2.400000e-07	-4.839415e-06	-8.057182e-09	-3.430520e+01	-5.279836e+02
2.500000e-07	-4.793211e-06	-8.023476e-09	-3.397768e+01	-5.253220e+02
2.600000e-07	-4.745149e-06	-7.961623e-09	-3.363698e+01	-5.225186e+02
2.700000e-07	-4.694966e-06	-7.902814e-09	-3.328125e+01	-5.195914e+02
2.800000e-07	-4.642688e-06	-7.870806e-09	-3.291066e+01	-5.165552e+02
2.900000e-07	-4.588586e-06	-7.813564e-09	-3.252715e+01	-5.134203e+02
3.000000e-07	-4.532946e-06	-7.760112e-09	-3.213273e+01	-5.101914e+02
3.100000e-07	-4.475643e-06	-7.732641e-09	-3.172653e+01	-5.068691e+02
3.200000e-07	-4.416488e-06	-7.689140e-09	-3.130720e+01	-5.034504e+02
3.300000e-07	-4.355711e-06	-7.610412e-09	-3.087636e+01	-4.999311e+02
3.400000e-07	-4.293533e-06	-7.567004e-09	-3.043561e+01	-4.963065e+02
3.500000e-07	-4.229985e-06	-7.527771e-09	-2.998514e+01	-4.925723e+02
3.600000e-07	-4.164852e-06	-7.443386e-09	-2.952342e+01	-4.887253e+02
3.700000e-07	-4.098029e-06	-7.377751e-09	-2.904973e+01	-4.847627e+02
3.800000e-07	-4.029713e-06	-7.331238e-09	-2.856546e+01	-4.806818e+02
3.900000e-07	-3.960035e-06	-7.262854e-09	-2.807153e+01	-4.764797e+02
4.000000e-07	-3.889113e-06	-7.186828e-09	-2.756879e+01	-4.721530e+02
4.100000e-07	-3.816948e-06	-7.124149e-09	-2.705723e+01	-4.676982e+02
4.200000e-07	-3.743209e-06	-7.067377e-09	-2.653452e+01	-4.631123e+02
4.300000e-07	-3.667787e-06	-6.993121e-09	-2.599987e+01	-4.583928e+02
4.400000e-07	-3.590926e-06	-6.911766e-09	-2.545503e+01	-4.535387e+02
4.500000e-07	-3.512709e-06	-6.839056e-09	-2.490058e+01	-4.485499e+02
4.600000e-07	-3.433063e-06	-6.765493e-09	-2.433598e+01	-4.434276e+02
4.700000e-07	-3.352115e-06	-6.680127e-09	-2.376217e+01	-4.381731e+02
4.800000e-07	-3.269998e-06	-6.595989e-09	-2.318007e+01	-4.327868e+02
4.900000e-07	-3.186783e-06	-6.524323e-09	-2.259018e+01	-4.272682e+02
5.000000e-07	-3.102600e-06	-6.436637e-09	-2.199343e+01	-4.216148e+02
5.100000e-07	-3.017454e-06	-6.336734e-09	-2.138985e+01	-4.158225e+02
5.200000e-07	-2.931357e-06	-6.245749e-09	-2.077954e+01	-4.098863e+02
5.300000e-07	-2.844287e-06	-6.157436e-09	-2.016232e+01	-4.038004e+02
5.400000e-07	-2.756268e-06	-6.063624e-09	-1.953838e+01	-3.975602e+02
5.500000e-07	-2.667239e-06	-5.962627e-09	-1.890728e+01	-3.911620e+02
5.600000e-07	-2.576958e-06	-5.860788e-09	-1.826730e+01	-3.846040e+02
5.700000e-07	-2.485598e-06	-5.757522e-09	-1.761968e+01	-3.778857e+02
5.800000e-07	-2.393449e-06	-5.653299e-09	-1.696646e+01	-3.710077e+02
5.900000e-07	-2.300487e-06	-5.548254e-09	-1.630748e+01	-3.639704e+02
6.000000e-07	-2.206679e-06	-5.440240e-09	-1.564250e+01	-3.567735e+02
6.100000e-07	-2.112098e-06	-5.326356e-09	-1.497205e+01	-3.494153e+02
6.200000e-07	-2.016830e-06	-5.210356e-09	-1.429672e+01	-3.418923e+02
6.300000e-07	-1.920920e-06	-5.094765e-09	-1.361684e+01	-3.342000e+02
6.400000e-07	-1.824275e-06	-4.975417e-09	-1.293175e+01	-3.263332e+02
6.500000e-07	-1.726798e-06	-4.850002e-09	-1.224077e+01	-3.182868e+02
6.600000e-07	-1.628505e-06	-4.717100e-09	-1.154399e+01	-3.100570e+02
6.700000e-07	-1.529513e-06	-4.584347e-09	-1.084227e+01	-3.016411e+02
6.800000e-07	-1.430014e-06	-4.453547e-09	-1.013696e+01	-2.930374e+02
6.900000e-07	-1.330096e-06	-4.322925e-09	-9.428661e+00	-2.842450e+02
7.000000e-07	-1.229805e-06	-4.189466e-09	-8.717727e+00	-2.752626e+02
7.100000e-07	-1.129188e-06	-4.047860e-09	-8.004484e+00	-2.660874e+02
7.200000e-07	-1.028261e-06	-3.899784e-09	-7.289043e+00	-2.567149e+02
7.300000e-07	-9.270365e-07	-3.749909e-09	-6.571492e+00	-2.471382e+02
7.400000e-07	-8.254815e-07	-3.599414e-09	-5.851598e+00	-2.373487e+02
7.500000e-07	-7.235585e-07	-3.444567e-09	-5.129096e+00	-2.273370e+02
7.600000e-07	-6.212786e-07	-3.283698e-09	-4.404063e+00	-2.170937e+02
7.700000e-07	-5.188073e-07	-3.118832e-09	-3.677674e+00	-2.066112e+02
7.800000e-07	-4.162098e-07	-2.955171e-09	-2.950390e+00	-1.958839e+02
7.900000e-07	-3.135027e-07	-2.791180e-09	-2.222329e+00	-1.849088e+02
8.000000e-07	-2.107543e-07	-2.621435e-09	-1.493976e+00	-1.736848e+02
8.100000e-07	-1.079222e-07	-2.445707e-09	-7.650288e-01	-1.622124e+02
8.200000e-07	-5.028717e-09	-2.265636e-09	-3.564711e-02	-1.504913e+02
8.300000e-07	9.788517e-08	-2.083870e-09	6.938795e-01	-1.385197e+02
8.400000e-07	2.008087e-07	-1.897695e-09	1.423474e+00	-1.262928e+02
8.500000e-07	3.036922e-07	-1.705696e-09	2.152786e+00	-1.138024e+02
8.600000e-07	4.064886e-07	-1.510174e-09	2.881479e+00	-1.010364e+02
8.700000e-07	5.091819e-07	-1.310442e-09	3.609442e+00	-8.797991e+01
8.800000e-07	6.117397e-07	-1.105992e-09	4.336444e+00	-7.461628e+01
8.900000e-07	7.141132e-07	-8.994344e-10	5.062141e+00	-6.092867e+01
9.000000e-07	8.162325e-07	-6.895011e-10	5.786035e+00	-4.690187e+01
9.100000e-07	9.179936e-07	-4.724563e-10	6.507389e+00	-3.252397e+01
9.200000e-07	1.019438e-06	-2.486700e-10	7.226502e+00	-1.778799e+01
9.300000e-07	1.120566e-06	-1.873981e-11	7.943367e+00	-2.693239e+00
9.400000e-07	1.221297e-06	2.170834e-10	8.657416e+00	1.275344e+01
9.500000e-07	1.321629e-06	4.576330e-10	9.368645e+00	2.853668e+01
9.600000e-07	1.421518e-06	7.026873e-10	1.007673e+01	4.463182e+01
9.700000e-07	1.520921e-06	9.527203e-10	1.078136e+01	6.100444e+01
9.800000e-07	1.619781e-06	1.205971e-09	1.148216e+01	7.761030e+01
9.900000e-07	1.718013e-06	1.460719e-09	1.217849e+01	9.439591e+01
1.000000e-06	1.815433e-06	1.715633e-09	1.286908e+01	1.112997e+02
1.010000e-06	1.911938e-06	1.970729e-09	1.355317e+01	1.282540e+02
1.020000e-06	2.007667e-06	2.227902e-09	1.423177e+01	1.451870e+02
1.030000e-06	2.102692e-06	2.485924e-09	1.490537e+01	1.620263e+02
1.040000e-06	2.196965e-06	2.741115e-09	1.557365e+01	1.787011e+02
1.050000e-06	2.290477e-06	2.991278e-09	1.623652e+01	1.951449e+02
1.060000e-06	2.383266e-06	3.236959e-09	1.689428e+01	2.112980e+02
1.070000e-06	2.475309e-06	3.477120e-09	1.754675e+01	2.271082e+02
1.080000e-06	2.566522e-06	3.710639e-09	1.819332e+01	2.425321e+02
1.090000e-06	2.656807e-06	3.937261e-09	1.883333e+01	2.575348e+02
1.100000e-06	2.746002e-06	4.155295e-09	1.946561e+01	2.720897e+02
1.110000e-06	2.834080e-06	4.364989e-09	2.008997e+01	2.861776e+02
1.120000e-06	2.921211e-06	4.568866e-09	2.070761e+01	2.997865e+02
1.130000e-06	3.007428e-06	4.769360e-09	2.131878e+01	3.129106e+02
1.140000e-06	3.092699e-06	4.963558e-09	2.192324e+01	3.255502e+02
1.150000e-06	3.177011e-06	5.147672e-09	2.252090e+01	3.377104e+02
1.160000e-06	3.260301e-06	5.324457e-09	2.311132e+01	3.494009e+02
1.170000e-06	3.342489e-06	5.496528e-09	2.369393e+01	3.606344e+02
1.180000e-06	3.423436e-06	5.662715e-09	2.426774e+01	3.714250e+02
1.190000e-06	3.503070e-06	5.820569e-09	2.483224e+01	3.817870e+02
1.200000e-06	3.581433e-06	5.970360e-09	2.538774e+01	3.917328e+02
1.210000e-06	3.658598e-06	6.114932e-09	2.593474e+01	4.012722e+02
1.220000e-06	3.734448e-06	6.253466e-09	2.647241e+01	4.104117e+02
1.230000e-06	3.808816e-06	6.386765e-09	2.699959e+01	4.191550e+02
1.240000e-06	3.881605e-06	6.515095e-09	2.751557e+01	4.275044e+02
1.250000e-06	3.952839e-06	6.635359e-09	2.802053e+01	4.354628e+02
1.260000e-06	4.022706e-06	6.747293e-09	2.851580e+01	4.430361e+02
1.270000e-06	4.091246e-06	6.854709e-09	2.900165e+01	4.502347e+02
1.280000e-06	4.158352e-06	6.959317e-09	2.947735e+01	4.570749e+02
1.290000e-06	4.223832e-06	7.056679e-09	2.994151e+01	4.635792e+02
1.300000e-06	4.287642e-06	7.147568e-09	3.039384e+01	4.697744e+02
1.310000e-06	4.349945e-06	7.235513e-09	3.083549e+01	4.756900e+02
1.320000e-06	4.410851e-06	7.321620e-09	3.126724e+01	4.813547e+02
1.330000e-06	4.470345e-06	7.406349e-09	3.168897e+01	4.867936e+02
1.340000e-06	4.528235e-06	7.489288e-09	3.209934e+01	4.920260e+02
1.350000e-06	4.584326e-06	7.568743e-09	3.249695e+01	4.970637e+02
1.360000e-06	4.638662e-06	7.641061e-09	3.288212e+01	5.019108e+02
1.370000e-06	4.691320e-06	7.707946e-09	3.325540e+01	5.065652e+02
1.380000e-06	4.742061e-06	7.774658e-09	3.361509e+01	5.110203e+02
1.390000e-06	4.790718e-06	7.840878e-09	3.396001e+01	5.152679e+02
1.400000e-06	4.837578e-06	7.902158e-09	3.429219e+01	5.193001e+02
1.410000e-06	4.882893e-06	7.957494e-09	3.461341e+01	5.231118e+02
1.420000e-06	4.926622e-06	8.008677e-09	3.492339e+01	5.267009e+02
1.430000e-06	4.968612e-06	8.058141e-09	3.522105e+01	5.300692e+02
1.440000e-06	5.008728e-06	8.106636e-09	3.550542e+01	5.332213e+02
1.450000e-06	5.047061e-06	8.154290e-09	3.577715e+01	5.361636e+02
1.460000e-06	5.083777e-06	8.198712e-09	3.603741e+01	5.389036e+02
1.470000e-06	5.118805e-06	8.236222e-09	3.628572e+01	5.414487e+02
1.480000e-06	5.151897e-06	8.267764e-09	3.652030e+01	5.438064e+02
1.490000e-06	5.183137e-06	8.296286e-09	3.674175e+01	5.459835e+02
1.500000e-06	5.212713e-06	8.323533e-09	3.695140e+01	5.479873e+02
1.510000e-06	5.240593e-06	8.350110e-09	3.714904e+01	5.498248e+02
1.520000e-06	5.266576e-06	8.374527e-09	3.733322e+01	5.515034e+02
1.530000e-06	5.290479e-06	8.396152e-09	3.750266e+01	5.530302e+02
1.540000e-06	5.312428e-06	8.415470e-09	3.765826e+01	5.544114e+02
1.550000e-06	5.332647e-06	8.433223e-09	3.780158e+01	5.556517e+02
1.560000e-06	5.351016e-06	8.450193e-09	3.793179e+01	5.567539e+02
1.570000e-06	5.367308e-06	8.465764e-09	3.804728e+01	5.577185e+02
1.580000e-06	5.381615e-06	8.478617e-09	3.814871e+01	5.585447e+02
1.590000e-06	5.393951e-06	8.488441e-09	3.823615e+01	5.592313e+02
1.600000e-06	5.404133e-06	8.496711e-09	3.830833e+01	5.597780e+02
1.610000e-06	5.412166e-06	8.503226e-09	3.836527e+01	5.601868e+02
1.620000e-06	5.418309e-06	8.507735e-09	3.840881e+01	5.604626e+02
1.630000e-06	5.422672e-06	8.510715e-09	3.843975e+01	5.606131e+02
1.640000e-06	5.425101e-06	8.512576e-09	3.845696e+01	5.606479e+02
1.650000e-06	5.425529e-06	8.512670e-09	3.846000e+01	5.605767e+02
1.660000e-06	5.424115e-06	8.510806e-09	3.844997e+01	5.604070e+02
1.670000e-06	5.421038e-06	8.508337e-09	3.842816e+01	5.601425e+02
1.680000e-06	5.416241e-06	8.503176e-09	3.839416e+01	5.597819e+02
1.690000e-06	5.409581e-06	8.494717e-09	3.834695e+01	5.593193e+02
1.700000e-06	5.401101e-06	8.484767e-09	3.828683e+01	5.587455e+02
1.710000e-06	5.390967e-06	8.475203e-09	3.821499e+01	5.580510e+02
1.720000e-06	5.379105e-06	8.472970e-09	3.813091e+01	5.572292e+02
1.730000e-06	5.365263e-06	8.437210e-09	3.803279e+01	5.562793e+02
1.740000e-06	5.349358e-06	8.392148e-09	3.792004e+01	5.552084e+02
1.750000e-06	5.331110e-06	8.382627e-09	3.779069e+01	5.540319e+02
1.760000e-06	5.310193e-06	8.372944e-09	3.764241e+01	5.527717e+02
1.770000e-06	5.286991e-06	8.413563e-09	3.747794e+01	5.514529e+02
1.780000e-06	5.262550e-06	8.404764e-09	3.730469e+01	5.500995e+02
1.790000e-06	5.237361e-06	8.289403e-09	3.712613e+01	5.487295e+02
1.800000e-06	5.210726e-06	8.302223e-09	3.693732e+01	5.473510e+02
1.810000e-06	5.181930e-06	8.283909e-09	3.673319e+01	5.459599e+02
1.820000e-06	5.151199e-06	8.221449e-09	3.651535e+01	5.445402e+02
1.830000e-06	5.118769e-06	8.307360e-09	3.628546e+01	5.430654e+02
1.840000e-06	5.084496e-06	8.270568e-09	3.604251e+01	5.415034e+02
1.850000e-06	5.048575e-06	8.205200e-09	3.578788e+01	5.398209e+02
1.860000e-06	5.010849e-06	8.263470e-09	3.552045e+01	5.379885e+02
1.870000e-06	4.971208e-06	8.180628e-09	3.523945e+01	5.359854e+02
1.880000e-06	4.929892e-06	8.118705e-09	3.494657e+01	5.338007e+02
1.890000e-06	4.886790e-06	8.121515e-09	3.464103e+01	5.314348e+02
1.900000e-06	4.842022e-06	8.057115e-09	3.432369e+01	5.288970e+02
1.910000e-06	4.795447e-06	8.063043e-09	3.399353e+01	5.262030e+02
1.920000e-06	4.746828e-06	7.991305e-09	3.364888e+01	5.233712e+02
1.930000e-06	4.696520e-06	7.926378e-09	3.329227e+01	5.204191e+02
1.940000e-06	4.644471e-06	7.945591e-09	3.292330e+01	5.173607e+02
1.950000e-06	4.590330e-06	7.863500e-09	3.253952e+01	5.142049e+02
1.960000e-06	4.534220e-06	7.782230e-09	3.214177e+01	5.109556e+02
1.970000e-06	4.476479e-06	7.742193e-09	3.173246e+01	5.076125e+02
1.980000e-06	4.417340e-06	7.713812e-09	3.131324e+01	5.041723e+02
1.990000e-06	4.356664e-06	7.646921e-09	3.088312e+01	5.006304e+02
2.000000e-06	4.294225e-06	7.564337e-09	3.044051e+01	4.969821e+02
2.010000e-06	4.230154e-06	7.555215e-09	2.998633e+01	4.932236e+02
2.020000e-06	4.164598e-06	7.480441e-09	2.952163e+01	4.893516e+02
2.030000e-06	4.097631e-06	7.391196e-09	2.904691e+01	4.853635e+02
2.040000e-06	4.029216e-06	7.356234e-09	2.856194e+01	4.812564e+02
2.050000e-06	3.959253e-06	7.302333e-09	2.806600e+01	4.770274e+02
2.060000e-06	3.887778e-06	7.226575e-09	2.755933e+01	4.726731e+02
2.070000e-06	3.814967e-06	7.129613e-09	2.704319e+01	4.681901e+02
2.080000e-06	3.740863e-06	7.075252e-09	2.651789e+01	4.635753e+02
2.090000e-06	3.665379e-06	7.023292e-09	2.598280e+01	4.588265e+02
2.100000e-06	3.588418e-06	6.934910e-09	2.543725e+01	4.539430e+02
2.110000e-06	3.509854e-06	6.855200e-09	2.488033e+01	4.489251e+02
2.120000e-06	3.429965e-06	6.786396e-09	2.431403e+01	4.437740e+02
2.130000e-06	3.348999e-06	6.702206e-09	2.374008e+01	4.384907e+02
2.140000e-06	3.266882e-06	6.597339e-09	2.315797e+01	4.330758e+02
2.150000e-06	3.183621e-06	6.520494e-09	2.256777e+01	4.275281e+02
2.160000e-06	3.099373e-06	6.447197e-09	2.197055e+01	4.218449e+02
2.170000e-06	3.014036e-06	6.356985e-09	2.136562e+01	4.160218e+02
2.180000e-06	2.927261e-06	6.264250e-09	2.075050e+01	4.100535e+02
2.190000e-06	2.839299e-06	6.171700e-09	2.012696e+01	4.039345e+02
2.200000e-06	2.750460e-06	6.084095e-09	1.949721e+01	3.976602e+02
2.210000e-06	2.660700e-06	5.984077e-09	1.886093e+01	3.912274e+02
2.220000e-06	2.570045e-06	5.880384e-09	1.821830e+01	3.846346e+02
2.230000e-06	2.478535e-06	5.776251e-09	1.756962e+01	3.778816e+02
2.240000e-06	2.386222e-06	5.668454e-09	1.691524e+01	3.709690e+02
2.250000e-06	2.293080e-06	5.557544e-09	1.625498e+01	3.638972e+02
2.260000e-06	2.198988e-06	5.447014e-09	1.558799e+01	3.566655e+02
2.270000e-06	2.103870e-06	5.338072e-09	1.491372e+01	3.492719e+02
2.280000e-06	2.007873e-06	5.226812e-09	1.423323e+01	3.417126e+02
2.290000e-06	1.911223e-06	5.110694e-09	1.354810e+01	3.339829e+02
2.300000e-06	1.814053e-06	4.989594e-09	1.285929e+01	3.260775e+02
2.310000e-06	1.716367e-06	4.868754e-09	1.216683e+01	3.179917e+02
2.320000e-06	1.618077e-06	4.743630e-09	1.147008e+01	3.097218e+02
2.330000e-06	1.519220e-06	4.613534e-09	1.076931e+01	3.012652e+02
2.340000e-06	1.419936e-06	4.479745e-09	1.006551e+01	2.926208e+02
2.350000e-06	1.320309e-06	4.343719e-09	9.359285e+00	2.837874e+02
2.360000e-06	1.220325e-06	4.208770e-09	8.650525e+00	2.747635e+02
2.370000e-06	1.120012e-06	4.071281e-09	7.939441e+00	2.655461e+02
2.380000e-06	1.019317e-06	3.930048e-09	7.225642e+00	2.561300e+02
2.390000e-06	9.181874e-07	3.786913e-09	6.508763e+00	2.465080e+02
2.400000e-06	8.166358e-07	3.639029e-09	5.788893e+00	2.366713e+02
2.410000e-06	7.146753e-07	3.485017e-09	5.066126e+00	2.266102e+02
2.420000e-06	6.124473e-07	3.327920e-09	4.341460e+00	2.163159e+02
2.430000e-06	5.099869e-07	3.169039e-09	3.615149e+00	2.057809e+02
2.440000e-06	4.072711e-07	3.006692e-09	2.887026e+00	1.950002e+02
2.450000e-06	3.043663e-07	2.837399e-09	2.157564e+00	1.839713e+02
2.460000e-06	2.012958e-07	2.664327e-09	1.426928e+00	1.726937e+02
2.470000e-06	9.809908e-08	2.492125e-09	6.953958e-01	1.611675e+02
2.480000e-06	-5.125344e-09	2.313867e-09	-3.633207e-02	1.493925e+02
2.490000e-06	-1.082810e-07	2.129317e-09	-7.675728e-01	1.373663e+02
2.500000e-06	-2.113982e-07	1.943208e-09	-1.498540e+00	1.250834e+02
2.510000e-06	-3.144854e-07	1.753715e-09	-2.229296e+00	1.125346e+02
2.520000e-06	-4.174491e-07	1.558034e-09	-2.959175e+00	9.970723e+01
2.530000e-06	-5.202459e-07	1.356070e-09	-3.687872e+00	8.658592e+01
2.540000e-06	-6.228891e-07	1.151962e-09	-4.415480e+00	7.315381e+01
2.550000e-06	-7.252972e-07	9.432006e-10	-5.141421e+00	5.939427e+01
2.560000e-06	-8.273467e-07	7.234064e-10	-5.864820e+00	4.529265e+01
2.570000e-06	-9.289890e-07	4.978900e-10	-6.585332e+00	3.083798e+01
2.580000e-06	-1.030144e-06	2.718149e-10	-7.302390e+00	1.602450e+01
2.590000e-06	-1.130783e-06	4.187440e-11	-8.015791e+00	8.530448e-01
2.600000e-06	-1.230913e-06	-1.945924e-10	-8.725582e+00	-1.466779e+01
2.610000e-06	-1.330623e-06	-4.366236e-10	-9.432398e+00	-3.052071e+01
2.620000e-06	-1.429929e-06	-6.831082e-10	-1.013635e+01	-4.667899e+01
2.630000e-06	-1.528764e-06	-9.337273e-10	-1.083696e+01	-6.310607e+01
2.640000e-06	-1.627094e-06	-1.187303e-09	-1.153399e+01	-7.975569e+01
2.650000e-06	-1.724880e-06	-1.444288e-09	-1.222717e+01	-9.657251e+01
2.660000e-06	-1.822077e-06	-1.704549e-09	-1.291617e+01	-1.134934e+02
2.670000e-06	-1.918684e-06	-1.965277e-09	-1.360099e+01	-1.304497e+02
2.680000e-06	-2.014686e-06	-2.222939e-09	-1.428153e+01	-1.473692e+02
2.690000e-06	-2.109984e-06	-2.477451e-09	-1.495707e+01	-1.641795e+02
2.700000e-06	-2.204548e-06	-2.730822e-09	-1.562740e+01	-1.808106e+02
2.710000e-06	-2.298189e-06	-2.982171e-09	-1.629120e+01	-1.971974e+02
2.720000e-06	-2.390760e-06	-3.229586e-09	-1.694740e+01	-2.132815e+02
2.730000e-06	-2.482401e-06	-3.471261e-09	-1.759702e+01	-2.290127e+02
2.740000e-06	-2.573213e-06	-3.705979e-09	-1.824076e+01	-2.443495e+02
2.750000e-06	-2.663159e-06	-3.934366e-09	-1.887836e+01	-2.592587e+02
2.760000e-06	-2.752204e-06	-4.157742e-09	-1.950957e+01	-2.737152e+02
2.770000e-06	-2.840383e-06	-4.375514e-09	-2.013465e+01	-2.877017e+02
2.780000e-06	-2.927663e-06	-4.584937e-09	-2.075335e+01	-3.012074e+02
2.790000e-06	-3.013898e-06	-4.783544e-09	-2.136464e+01	-3.142280e+02
2.800000e-06	-3.098920e-06	-4.974818e-09	-2.196734e+01	-3.267647e+02
2.810000e-06	-3.182763e-06	-5.158891e-09	-2.256168e+01	-3.388238e+02
2.820000e-06	-3.265571e-06	-5.335822e-09	-2.314868e+01	-3.504156e+02
2.830000e-06	-3.347340e-06	-5.505859e-09	-2.372832e+01	-3.615534e+02
2.840000e-06	-3.427994e-06	-5.668190e-09	-2.430005e+01	-3.722515e+02
2.850000e-06	-3.507432e-06	-5.823615e-09	-2.486316e+01	-3.825237e+02
2.860000e-06	-3.585482e-06	-5.972060e-09	-2.541644e+01	-3.923822e+02
2.870000e-06	-3.662025e-06	-6.117780e-09	-2.595903e+01	-4.018359e+02
2.880000e-06	-3.737100e-06	-6.259284e-09	-2.649122e+01	-4.108907e+02
2.890000e-06	-3.810776e-06	-6.392522e-09	-2.701348e+01	-4.195498e+02
2.900000e-06	-3.883130e-06	-6.519121e-09	-2.752638e+01	-4.278156e+02
2.910000e-06	-3.954147e-06	-6.640995e-09	-2.802980e+01	-4.356913e+02
2.920000e-06	-4.023594e-06	-6.757031e-09	-2.852209e+01	-4.431836e+02
2.930000e-06	-4.091446e-06	-6.866843e-09	-2.900307e+01	-4.503043e+02
2.940000e-06	-4.157898e-06	-6.971737e-09	-2.947413e+01	-4.570709e+02
