# Temperatura_=_75.08
# Concentracion g/m^3_=_15000.0
# C_Vs_to_Am_M_A/Vsm_=_65563218390.804596
# pendiente_HvsI_1/m_=_3716.3
# ordenada_HvsI_A/m_=_1297.0
# frecuencia_Hz_=_301601.2239407327

Tiempo_(s)	Campo_(V.s)	Magnetizacion_(V.s)	Campo_(kA/m)	Magnetizacion_(A/m)
0.000000e+00	-5.404878e-06	-9.397965e-09	-3.833514e+01	-6.133938e+02
1.000000e-08	-5.402163e-06	-9.392448e-09	-3.831588e+01	-6.131166e+02
2.000000e-08	-5.397674e-06	-9.383397e-09	-3.828404e+01	-6.127442e+02
3.000000e-08	-5.391561e-06	-9.376366e-09	-3.824068e+01	-6.122715e+02
4.000000e-08	-5.383879e-06	-9.366355e-09	-3.818620e+01	-6.116862e+02
5.000000e-08	-5.374375e-06	-9.352074e-09	-3.811879e+01	-6.109716e+02
6.000000e-08	-5.362761e-06	-9.332013e-09	-3.803641e+01	-6.101124e+02
7.000000e-08	-5.349230e-06	-9.299794e-09	-3.794044e+01	-6.090994e+02
8.000000e-08	-5.333695e-06	-9.322931e-09	-3.783025e+01	-6.079334e+02
9.000000e-08	-5.315889e-06	-9.372826e-09	-3.770396e+01	-6.066274e+02
1.000000e-07	-5.295932e-06	-9.315779e-09	-3.756242e+01	-6.052045e+02
1.100000e-07	-5.274061e-06	-9.257704e-09	-3.740729e+01	-6.036942e+02
1.200000e-07	-5.250525e-06	-9.191176e-09	-3.724036e+01	-6.021262e+02
1.300000e-07	-5.225456e-06	-9.044027e-09	-3.706255e+01	-6.005235e+02
1.400000e-07	-5.198749e-06	-9.199207e-09	-3.687313e+01	-5.988977e+02
1.500000e-07	-5.170413e-06	-9.232732e-09	-3.667215e+01	-5.972450e+02
1.600000e-07	-5.140658e-06	-9.013034e-09	-3.646110e+01	-5.955469e+02
1.700000e-07	-5.109336e-06	-9.158613e-09	-3.623894e+01	-5.937731e+02
1.800000e-07	-5.075855e-06	-9.071965e-09	-3.600147e+01	-5.918871e+02
1.900000e-07	-5.040510e-06	-8.882696e-09	-3.575078e+01	-5.898530e+02
2.000000e-07	-5.003692e-06	-9.043875e-09	-3.548965e+01	-5.876415e+02
2.100000e-07	-4.965084e-06	-8.912865e-09	-3.521581e+01	-5.852348e+02
2.200000e-07	-4.924630e-06	-8.772439e-09	-3.492888e+01	-5.826280e+02
2.300000e-07	-4.882235e-06	-8.869672e-09	-3.462819e+01	-5.798285e+02
2.400000e-07	-4.837935e-06	-8.807207e-09	-3.431398e+01	-5.768525e+02
2.500000e-07	-4.791908e-06	-8.779569e-09	-3.398753e+01	-5.737203e+02
2.600000e-07	-4.743902e-06	-8.714795e-09	-3.364704e+01	-5.704517e+02
2.700000e-07	-4.693763e-06	-8.602684e-09	-3.329141e+01	-5.670617e+02
2.800000e-07	-4.641608e-06	-8.572909e-09	-3.292149e+01	-5.635588e+02
2.900000e-07	-4.587585e-06	-8.521057e-09	-3.253833e+01	-5.599445e+02
3.000000e-07	-4.531998e-06	-8.479911e-09	-3.214406e+01	-5.562149e+02
3.100000e-07	-4.474758e-06	-8.439915e-09	-3.173808e+01	-5.523630e+02
3.200000e-07	-4.415671e-06	-8.382500e-09	-3.131899e+01	-5.483817e+02
3.300000e-07	-4.354999e-06	-8.269985e-09	-3.088866e+01	-5.442657e+02
3.400000e-07	-4.292851e-06	-8.188655e-09	-3.044787e+01	-5.400127e+02
3.500000e-07	-4.229310e-06	-8.190997e-09	-2.999719e+01	-5.356230e+02
3.600000e-07	-4.164259e-06	-8.099892e-09	-2.953580e+01	-5.310989e+02
3.700000e-07	-4.097465e-06	-7.996551e-09	-2.906205e+01	-5.264426e+02
3.800000e-07	-4.029136e-06	-7.950285e-09	-2.857742e+01	-5.216554e+02
3.900000e-07	-3.959449e-06	-7.871508e-09	-2.808315e+01	-5.167363e+02
4.000000e-07	-3.888543e-06	-7.786084e-09	-2.758024e+01	-5.116824e+02
4.100000e-07	-3.816447e-06	-7.698725e-09	-2.706889e+01	-5.064893e+02
4.200000e-07	-3.742822e-06	-7.637910e-09	-2.654668e+01	-5.011519e+02
4.300000e-07	-3.667559e-06	-7.548830e-09	-2.601287e+01	-4.956662e+02
4.400000e-07	-3.590859e-06	-7.452961e-09	-2.546886e+01	-4.900294e+02
4.500000e-07	-3.512717e-06	-7.379826e-09	-2.491462e+01	-4.842406e+02
4.600000e-07	-3.433150e-06	-7.303406e-09	-2.435027e+01	-4.783005e+02
4.700000e-07	-3.352301e-06	-7.204385e-09	-2.377684e+01	-4.722105e+02
4.800000e-07	-3.270235e-06	-7.076530e-09	-2.319477e+01	-4.659722e+02
4.900000e-07	-3.187048e-06	-6.986224e-09	-2.260475e+01	-4.595867e+02
5.000000e-07	-3.102882e-06	-6.901672e-09	-2.200779e+01	-4.530540e+02
5.100000e-07	-3.017831e-06	-6.795394e-09	-2.140454e+01	-4.463739e+02
5.200000e-07	-2.931831e-06	-6.684823e-09	-2.079457e+01	-4.395452e+02
5.300000e-07	-2.844800e-06	-6.576005e-09	-2.017729e+01	-4.325673e+02
5.400000e-07	-2.756822e-06	-6.464965e-09	-1.955329e+01	-4.254395e+02
5.500000e-07	-2.667820e-06	-6.353078e-09	-1.892202e+01	-4.181613e+02
5.600000e-07	-2.577616e-06	-6.244319e-09	-1.828224e+01	-4.107318e+02
5.700000e-07	-2.486356e-06	-6.129909e-09	-1.763496e+01	-4.031489e+02
5.800000e-07	-2.394274e-06	-6.006356e-09	-1.698185e+01	-3.954092e+02
5.900000e-07	-2.301383e-06	-5.881123e-09	-1.632300e+01	-3.875073e+02
6.000000e-07	-2.207677e-06	-5.761352e-09	-1.565837e+01	-3.794363e+02
6.100000e-07	-2.113219e-06	-5.636991e-09	-1.498841e+01	-3.711888e+02
6.200000e-07	-2.018013e-06	-5.506319e-09	-1.431314e+01	-3.627575e+02
6.300000e-07	-1.922039e-06	-5.372007e-09	-1.363243e+01	-3.541369e+02
6.400000e-07	-1.825343e-06	-5.238101e-09	-1.294660e+01	-3.453236e+02
6.500000e-07	-1.727921e-06	-5.103873e-09	-1.225561e+01	-3.363166e+02
6.600000e-07	-1.629716e-06	-4.962473e-09	-1.155908e+01	-3.271162e+02
6.700000e-07	-1.530771e-06	-4.814905e-09	-1.085729e+01	-3.177233e+02
6.800000e-07	-1.431265e-06	-4.665051e-09	-1.015152e+01	-3.081372e+02
6.900000e-07	-1.331377e-06	-4.514301e-09	-9.443047e+00	-2.983548e+02
7.000000e-07	-1.231170e-06	-4.363641e-09	-8.732311e+00	-2.883699e+02
7.100000e-07	-1.130677e-06	-4.209799e-09	-8.019545e+00	-2.781739e+02
7.200000e-07	-1.029872e-06	-4.046453e-09	-7.304566e+00	-2.677565e+02
7.300000e-07	-9.287058e-07	-3.880024e-09	-6.587024e+00	-2.571086e+02
7.400000e-07	-8.271521e-07	-3.711586e-09	-5.866735e+00	-2.462235e+02
7.500000e-07	-7.252548e-07	-3.540254e-09	-5.144009e+00	-2.350988e+02
7.600000e-07	-6.231208e-07	-3.366065e-09	-4.419604e+00	-2.237366e+02
7.700000e-07	-5.208018e-07	-3.186826e-09	-3.693887e+00	-2.121419e+02
7.800000e-07	-4.183578e-07	-3.006052e-09	-2.967283e+00	-2.003210e+02
7.900000e-07	-3.157881e-07	-2.823026e-09	-2.239788e+00	-1.882780e+02
8.000000e-07	-2.130946e-07	-2.637002e-09	-1.511414e+00	-1.760121e+02
8.100000e-07	-1.103226e-07	-2.446337e-09	-7.824839e-01	-1.635156e+02
8.200000e-07	-7.471377e-09	-2.250944e-09	-5.299217e-02	-1.507732e+02
8.300000e-07	9.539923e-08	-2.051379e-09	6.766373e-01	-1.377637e+02
8.400000e-07	1.982819e-07	-1.848987e-09	1.406352e+00	-1.244623e+02
8.500000e-07	3.011362e-07	-1.642817e-09	2.135866e+00	-1.108447e+02
8.600000e-07	4.038639e-07	-1.431724e-09	2.864482e+00	-9.688982e+01
8.700000e-07	5.064941e-07	-1.214227e-09	3.592407e+00	-8.258272e+01
8.800000e-07	6.090143e-07	-9.885869e-10	4.319551e+00	-6.791527e+01
8.900000e-07	7.113308e-07	-7.570650e-10	5.045251e+00	-5.288523e+01
9.000000e-07	8.134167e-07	-5.207222e-10	5.769314e+00	-3.749394e+01
9.100000e-07	9.152390e-07	-2.811822e-10	6.491508e+00	-2.174367e+01
9.200000e-07	1.016730e-06	-3.675828e-11	7.211355e+00	-5.635498e+00
9.300000e-07	1.117806e-06	2.131029e-10	7.928256e+00	1.083120e+01
9.400000e-07	1.218413e-06	4.688214e-10	8.641831e+00	2.765708e+01
9.500000e-07	1.318636e-06	7.289702e-10	9.352680e+00	4.483903e+01
9.600000e-07	1.418534e-06	9.936511e-10	1.006123e+01	6.236500e+01
9.700000e-07	1.518028e-06	1.264904e-09	1.076690e+01	8.020856e+01
9.800000e-07	1.616990e-06	1.539795e-09	1.146882e+01	9.832472e+01
9.900000e-07	1.715169e-06	1.817049e-09	1.216517e+01	1.166482e+02
1.000000e-06	1.812412e-06	2.093616e-09	1.285488e+01	1.350949e+02
1.010000e-06	1.908829e-06	2.369448e-09	1.353874e+01	1.535670e+02
1.020000e-06	2.004526e-06	2.645155e-09	1.421749e+01	1.719600e+02
1.030000e-06	2.099560e-06	2.921071e-09	1.489153e+01	1.901718e+02
1.040000e-06	2.193871e-06	3.195093e-09	1.556045e+01	2.081103e+02
1.050000e-06	2.287397e-06	3.461334e-09	1.622380e+01	2.257001e+02
1.060000e-06	2.380183e-06	3.721094e-09	1.688191e+01	2.428851e+02
1.070000e-06	2.472278e-06	3.975391e-09	1.753511e+01	2.596281e+02
1.080000e-06	2.563680e-06	4.224139e-09	1.818339e+01	2.759079e+02
1.090000e-06	2.654062e-06	4.465175e-09	1.882444e+01	2.917137e+02
1.100000e-06	2.743140e-06	4.697404e-09	1.945625e+01	3.070400e+02
1.110000e-06	2.831128e-06	4.919158e-09	2.008032e+01	3.218822e+02
1.120000e-06	2.918197e-06	5.132871e-09	2.069788e+01	3.362343e+02
1.130000e-06	3.004350e-06	5.342337e-09	2.130893e+01	3.500890e+02
1.140000e-06	3.089619e-06	5.546538e-09	2.191371e+01	3.634400e+02
1.150000e-06	3.173949e-06	5.741929e-09	2.251185e+01	3.762849e+02
1.160000e-06	3.257297e-06	5.927921e-09	2.310300e+01	3.886280e+02
1.170000e-06	3.339422e-06	6.108722e-09	2.368550e+01	4.004816e+02
1.180000e-06	3.420202e-06	6.283246e-09	2.425844e+01	4.118656e+02
1.190000e-06	3.499786e-06	6.451261e-09	2.482290e+01	4.228041e+02
1.200000e-06	3.578153e-06	6.611684e-09	2.537874e+01	4.333220e+02
1.210000e-06	3.655244e-06	6.765313e-09	2.592552e+01	4.434400e+02
1.220000e-06	3.731072e-06	6.912744e-09	2.646335e+01	4.531711e+02
1.230000e-06	3.805389e-06	7.055249e-09	2.699045e+01	4.625194e+02
1.240000e-06	3.878050e-06	7.194107e-09	2.750582e+01	4.714810e+02
1.250000e-06	3.949278e-06	7.326938e-09	2.801101e+01	4.800473e+02
1.260000e-06	4.019127e-06	7.449340e-09	2.850643e+01	4.882101e+02
1.270000e-06	4.087616e-06	7.563108e-09	2.899220e+01	4.959669e+02
1.280000e-06	4.154774e-06	7.672498e-09	2.946853e+01	5.033245e+02
1.290000e-06	4.220290e-06	7.777027e-09	2.993321e+01	5.103011e+02
1.300000e-06	4.284120e-06	7.877137e-09	3.038595e+01	5.169254e+02
1.310000e-06	4.346477e-06	7.973801e-09	3.082822e+01	5.232330e+02
1.320000e-06	4.407361e-06	8.067594e-09	3.126006e+01	5.292616e+02
1.330000e-06	4.466922e-06	8.156793e-09	3.168250e+01	5.350454e+02
1.340000e-06	4.524819e-06	8.243653e-09	3.209315e+01	5.406105e+02
1.350000e-06	4.580838e-06	8.326576e-09	3.249048e+01	5.459727e+02
1.360000e-06	4.635285e-06	8.402522e-09	3.287665e+01	5.511371e+02
1.370000e-06	4.688063e-06	8.474133e-09	3.325099e+01	5.561005e+02
1.380000e-06	4.738806e-06	8.543764e-09	3.361089e+01	5.608548e+02
1.390000e-06	4.787484e-06	8.613537e-09	3.395615e+01	5.653916e+02
1.400000e-06	4.834436e-06	8.681361e-09	3.428917e+01	5.697051e+02
1.410000e-06	4.879758e-06	8.743994e-09	3.461062e+01	5.737942e+02
1.420000e-06	4.923543e-06	8.802149e-09	3.492118e+01	5.776625e+02
1.430000e-06	4.965511e-06	8.857580e-09	3.521884e+01	5.813164e+02
1.440000e-06	5.005551e-06	8.910645e-09	3.550283e+01	5.847633e+02
1.450000e-06	5.043937e-06	8.960710e-09	3.577509e+01	5.880084e+02
1.460000e-06	5.080705e-06	9.007680e-09	3.603587e+01	5.910540e+02
1.470000e-06	5.115788e-06	9.049556e-09	3.628471e+01	5.938990e+02
1.480000e-06	5.148907e-06	9.085682e-09	3.651961e+01	5.965403e+02
1.490000e-06	5.180125e-06	9.117527e-09	3.674103e+01	5.989756e+02
1.500000e-06	5.209642e-06	9.147781e-09	3.695039e+01	6.012052e+02
1.510000e-06	5.237462e-06	9.177541e-09	3.714771e+01	6.032345e+02
1.520000e-06	5.263306e-06	9.203789e-09	3.733101e+01	6.050736e+02
1.530000e-06	5.287075e-06	9.227604e-09	3.749959e+01	6.067367e+02
1.540000e-06	5.308991e-06	9.250738e-09	3.765504e+01	6.082390e+02
1.550000e-06	5.329185e-06	9.271799e-09	3.779827e+01	6.095941e+02
1.560000e-06	5.347525e-06	9.288184e-09	3.792835e+01	6.108106e+02
1.570000e-06	5.363842e-06	9.300846e-09	3.804408e+01	6.118912e+02
1.580000e-06	5.378223e-06	9.313047e-09	3.814608e+01	6.128324e+02
1.590000e-06	5.390660e-06	9.324143e-09	3.823429e+01	6.136269e+02
1.600000e-06	5.400934e-06	9.333418e-09	3.830716e+01	6.142666e+02
1.610000e-06	5.409019e-06	9.341558e-09	3.836451e+01	6.147465e+02
1.620000e-06	5.415134e-06	9.348052e-09	3.840788e+01	6.150669e+02
1.630000e-06	5.419514e-06	9.353472e-09	3.843894e+01	6.152354e+02
1.640000e-06	5.422024e-06	9.357717e-09	3.845674e+01	6.152650e+02
1.650000e-06	5.422483e-06	9.360567e-09	3.846000e+01	6.151720e+02
1.660000e-06	5.421099e-06	9.355288e-09	3.845018e+01	6.149714e+02
1.670000e-06	5.418076e-06	9.348901e-09	3.842874e+01	6.146733e+02
1.680000e-06	5.413414e-06	9.341788e-09	3.839568e+01	6.142795e+02
1.690000e-06	5.406843e-06	9.332339e-09	3.834907e+01	6.137835e+02
1.700000e-06	5.398392e-06	9.324433e-09	3.828913e+01	6.131714e+02
1.710000e-06	5.388319e-06	9.319019e-09	3.821769e+01	6.124265e+02
1.720000e-06	5.376548e-06	9.329664e-09	3.813420e+01	6.115342e+02
1.730000e-06	5.362778e-06	9.303358e-09	3.803653e+01	6.104874e+02
1.740000e-06	5.346945e-06	9.192146e-09	3.792423e+01	6.092895e+02
1.750000e-06	5.328807e-06	9.192076e-09	3.779559e+01	6.079556e+02
1.760000e-06	5.307915e-06	9.199335e-09	3.764741e+01	6.065109e+02
1.770000e-06	5.284707e-06	9.233370e-09	3.748280e+01	6.049853e+02
1.780000e-06	5.260201e-06	9.331590e-09	3.730898e+01	6.034077e+02
1.790000e-06	5.234950e-06	9.080104e-09	3.712989e+01	6.017991e+02
1.800000e-06	5.208312e-06	9.080253e-09	3.694095e+01	6.001678e+02
1.810000e-06	5.179418e-06	9.204977e-09	3.673602e+01	5.985069e+02
1.820000e-06	5.148705e-06	8.944193e-09	3.651818e+01	5.967949e+02
1.830000e-06	5.116380e-06	9.085667e-09	3.628891e+01	5.949997e+02
1.840000e-06	5.082117e-06	9.154536e-09	3.604589e+01	5.930844e+02
1.850000e-06	5.046206e-06	8.873082e-09	3.579118e+01	5.910138e+02
1.860000e-06	5.008465e-06	9.041830e-09	3.552350e+01	5.887611e+02
1.870000e-06	4.968817e-06	9.000288e-09	3.524229e+01	5.863110e+02
1.880000e-06	4.927539e-06	8.809018e-09	3.494952e+01	5.836614e+02
1.890000e-06	4.884436e-06	8.892690e-09	3.464380e+01	5.808219e+02
1.900000e-06	4.839725e-06	8.728268e-09	3.432668e+01	5.778102e+02
1.910000e-06	4.793217e-06	8.774059e-09	3.399682e+01	5.746467e+02
1.920000e-06	4.744616e-06	8.761016e-09	3.365210e+01	5.713504e+02
1.930000e-06	4.694423e-06	8.582243e-09	3.329610e+01	5.679353e+02
1.940000e-06	4.642496e-06	8.690835e-09	3.292780e+01	5.644081e+02
1.950000e-06	4.588428e-06	8.550111e-09	3.254431e+01	5.607690e+02
1.960000e-06	4.532360e-06	8.425703e-09	3.214663e+01	5.570133e+02
1.970000e-06	4.474647e-06	8.408876e-09	3.173730e+01	5.531337e+02
1.980000e-06	4.415581e-06	8.368805e-09	3.131836e+01	5.491234e+02
1.990000e-06	4.354975e-06	8.377748e-09	3.088850e+01	5.449776e+02
2.000000e-06	4.292603e-06	8.188777e-09	3.044611e+01	5.406947e+02
2.010000e-06	4.228622e-06	8.187927e-09	2.999231e+01	5.362755e+02
2.020000e-06	4.163181e-06	8.140751e-09	2.952816e+01	5.317223e+02
2.030000e-06	4.096289e-06	7.969319e-09	2.905372e+01	5.270374e+02
2.040000e-06	4.027892e-06	7.973203e-09	2.856860e+01	5.222216e+02
2.050000e-06	3.957998e-06	7.910427e-09	2.807286e+01	5.172734e+02
2.060000e-06	3.886652e-06	7.847227e-09	2.756682e+01	5.121896e+02
2.070000e-06	3.813897e-06	7.703111e-09	2.705080e+01	5.069654e+02
2.080000e-06	3.739837e-06	7.617608e-09	2.652551e+01	5.015960e+02
2.090000e-06	3.664431e-06	7.595900e-09	2.599068e+01	4.960776e+02
2.100000e-06	3.587545e-06	7.471315e-09	2.544535e+01	4.904077e+02
2.110000e-06	3.509122e-06	7.373315e-09	2.488912e+01	4.845859e+02
2.120000e-06	3.429373e-06	7.279761e-09	2.432349e+01	4.786130e+02
2.130000e-06	3.348473e-06	7.221409e-09	2.374969e+01	4.724906e+02
2.140000e-06	3.266456e-06	7.108326e-09	2.316797e+01	4.662201e+02
2.150000e-06	3.183353e-06	7.003933e-09	2.257854e+01	4.598026e+02
2.160000e-06	3.099186e-06	6.926941e-09	2.198157e+01	4.532379e+02
2.170000e-06	3.013886e-06	6.806734e-09	2.137657e+01	4.465254e+02
2.180000e-06	2.927247e-06	6.699808e-09	2.076206e+01	4.396644e+02
2.190000e-06	2.839415e-06	6.592434e-09	2.013910e+01	4.326539e+02
2.200000e-06	2.750627e-06	6.507697e-09	1.950935e+01	4.254934e+02
2.210000e-06	2.660928e-06	6.394825e-09	1.887314e+01	4.181823e+02
2.220000e-06	2.570328e-06	6.262389e-09	1.823054e+01	4.107196e+02
2.230000e-06	2.478860e-06	6.141410e-09	1.758179e+01	4.031030e+02
2.240000e-06	2.386570e-06	6.028755e-09	1.692720e+01	3.953285e+02
2.250000e-06	2.293528e-06	5.919087e-09	1.626728e+01	3.873905e+02
2.260000e-06	2.199669e-06	5.796523e-09	1.560158e+01	3.792818e+02
2.270000e-06	2.104778e-06	5.668757e-09	1.492854e+01	3.709949e+02
2.280000e-06	2.008928e-06	5.534746e-09	1.424871e+01	3.625229e+02
2.290000e-06	1.912336e-06	5.400905e-09	1.356361e+01	3.538607e+02
2.300000e-06	1.815144e-06	5.264948e-09	1.287426e+01	3.450054e+02
2.310000e-06	1.717439e-06	5.133424e-09	1.218126e+01	3.359563e+02
2.320000e-06	1.619239e-06	4.994661e-09	1.148477e+01	3.267142e+02
2.330000e-06	1.520570e-06	4.846873e-09	1.078494e+01	3.172794e+02
2.340000e-06	1.421413e-06	4.699913e-09	1.008164e+01	3.076511e+02
2.350000e-06	1.321759e-06	4.553272e-09	9.374831e+00	2.978254e+02
2.360000e-06	1.221709e-06	4.407443e-09	8.665208e+00	2.877956e+02
2.370000e-06	1.121342e-06	4.251958e-09	7.953332e+00	2.775525e+02
2.380000e-06	1.020666e-06	4.087349e-09	7.239270e+00	2.670859e+02
2.390000e-06	9.196892e-07	3.925307e-09	6.523072e+00	2.563870e+02
2.400000e-06	8.183647e-07	3.766099e-09	5.804409e+00	2.454501e+02
2.410000e-06	7.166829e-07	3.601118e-09	5.083211e+00	2.342737e+02
2.420000e-06	6.146111e-07	3.425637e-09	4.359247e+00	2.228606e+02
2.430000e-06	5.122093e-07	3.241764e-09	3.632943e+00	2.112165e+02
2.440000e-06	4.096002e-07	3.061062e-09	2.905168e+00	1.993472e+02
2.450000e-06	3.067925e-07	2.881447e-09	2.175984e+00	1.872563e+02
2.460000e-06	2.037685e-07	2.698173e-09	1.445267e+00	1.749413e+02
2.470000e-06	1.005898e-07	2.512362e-09	7.134526e-01	1.623931e+02
2.480000e-06	-2.681108e-09	2.315293e-09	-1.901627e-02	1.495949e+02
2.490000e-06	-1.059932e-07	2.108019e-09	-7.517770e-01	1.365244e+02
2.500000e-06	-2.091977e-07	1.899853e-09	-1.483775e+00	1.231568e+02
2.510000e-06	-3.122966e-07	1.693491e-09	-2.215024e+00	1.094680e+02
2.520000e-06	-4.152566e-07	1.484144e-09	-2.945287e+00	9.543812e+01
2.530000e-06	-5.179856e-07	1.266237e-09	-3.673913e+00	8.105374e+01
2.540000e-06	-6.204837e-07	1.042974e-09	-4.400900e+00	6.630810e+01
2.550000e-06	-7.226818e-07	8.148812e-10	-5.125760e+00	5.119994e+01
2.560000e-06	-8.245391e-07	5.777055e-10	-5.848202e+00	3.573103e+01
2.570000e-06	-9.259648e-07	3.339538e-10	-6.567583e+00	1.990352e+01
2.580000e-06	-1.026911e-06	8.661785e-11	-7.283564e+00	3.718092e+00
2.590000e-06	-1.127478e-06	-1.669294e-10	-7.996856e+00	-1.282610e+01
2.600000e-06	-1.227673e-06	-4.270462e-10	-8.707506e+00	-2.972928e+01
2.610000e-06	-1.327486e-06	-6.886684e-10	-9.415449e+00	-4.698689e+01
2.620000e-06	-1.426846e-06	-9.548610e-10	-1.012018e+01	-6.458425e+01
2.630000e-06	-1.525647e-06	-1.230182e-09	-1.082094e+01	-8.249122e+01
2.640000e-06	-1.623934e-06	-1.512573e-09	-1.151807e+01	-1.006585e+02
2.650000e-06	-1.721713e-06	-1.797126e-09	-1.221158e+01	-1.190165e+02
2.660000e-06	-1.818844e-06	-2.080632e-09	-1.290050e+01	-1.374778e+02
2.670000e-06	-1.915355e-06	-2.364154e-09	-1.358502e+01	-1.559423e+02
2.680000e-06	-2.011379e-06	-2.646247e-09	-1.426609e+01	-1.743054e+02
2.690000e-06	-2.106821e-06	-2.927170e-09	-1.494303e+01	-1.924664e+02
2.700000e-06	-2.201408e-06	-3.204396e-09	-1.561391e+01	-2.103364e+02
2.710000e-06	-2.294882e-06	-3.474365e-09	-1.627689e+01	-2.278441e+02
2.720000e-06	-2.387354e-06	-3.735330e-09	-1.693277e+01	-2.449374e+02
2.730000e-06	-2.479004e-06	-3.987773e-09	-1.758281e+01	-2.615830e+02
2.740000e-06	-2.569818e-06	-4.233226e-09	-1.822693e+01	-2.777624e+02
2.750000e-06	-2.659669e-06	-4.471886e-09	-1.886421e+01	-2.934663e+02
2.760000e-06	-2.748525e-06	-4.705206e-09	-1.949444e+01	-3.086898e+02
2.770000e-06	-2.836623e-06	-4.933334e-09	-2.011930e+01	-3.234281e+02
2.780000e-06	-2.923938e-06	-5.154989e-09	-2.073859e+01	-3.376747e+02
2.790000e-06	-3.010146e-06	-5.369502e-09	-2.135004e+01	-3.514225e+02
2.800000e-06	-3.095085e-06	-5.577114e-09	-2.195248e+01	-3.646656e+02
2.810000e-06	-3.178856e-06	-5.773817e-09	-2.254665e+01	-3.774028e+02
2.820000e-06	-3.261600e-06	-5.957579e-09	-2.313352e+01	-3.896403e+02
2.830000e-06	-3.343316e-06	-6.132099e-09	-2.371311e+01	-4.013919e+02
2.840000e-06	-3.423987e-06	-6.302029e-09	-2.428529e+01	-4.126788e+02
2.850000e-06	-3.503566e-06	-6.467076e-09	-2.484971e+01	-4.235257e+02
2.860000e-06	-3.581664e-06	-6.625092e-09	-2.540364e+01	-4.339569e+02
2.870000e-06	-3.658186e-06	-6.778990e-09	-2.594639e+01	-4.439917e+02
2.880000e-06	-3.733301e-06	-6.928195e-09	-2.647916e+01	-4.536413e+02
2.890000e-06	-3.806982e-06	-7.071497e-09	-2.700175e+01	-4.629078e+02
2.900000e-06	-3.879351e-06	-7.211149e-09	-2.751504e+01	-4.717860e+02
2.910000e-06	-3.950347e-06	-7.345252e-09	-2.801859e+01	-4.802669e+02
2.920000e-06	-4.019680e-06	-7.468140e-09	-2.851035e+01	-4.883432e+02
2.930000e-06	-4.087492e-06	-7.581484e-09	-2.899132e+01	-4.960140e+02
2.940000e-06	-4.153946e-06	-7.691025e-09	-2.946266e+01	-5.032886e+02
