# Temperatura_=_72.16
# Concentracion g/m^3_=_15000.0
# C_Vs_to_Am_M_A/Vsm_=_65563218390.804596
# pendiente_HvsI_1/m_=_3716.3
# ordenada_HvsI_A/m_=_1297.0
# frecuencia_Hz_=_301595.89429429534

Tiempo_(s)	Campo_(V.s)	Magnetizacion_(V.s)	Campo_(kA/m)	Magnetizacion_(A/m)
0.000000e+00	-5.412789e-06	-9.319837e-09	-3.833618e+01	-6.084454e+02
1.000000e-08	-5.410038e-06	-9.316530e-09	-3.831670e+01	-6.081658e+02
2.000000e-08	-5.405558e-06	-9.309179e-09	-3.828497e+01	-6.077839e+02
3.000000e-08	-5.399458e-06	-9.302167e-09	-3.824176e+01	-6.072961e+02
4.000000e-08	-5.391762e-06	-9.291194e-09	-3.818726e+01	-6.066944e+02
5.000000e-08	-5.382174e-06	-9.275318e-09	-3.811935e+01	-6.059688e+02
6.000000e-08	-5.370497e-06	-9.255546e-09	-3.803664e+01	-6.051099e+02
7.000000e-08	-5.357030e-06	-9.224213e-09	-3.794127e+01	-6.041131e+02
8.000000e-08	-5.341474e-06	-9.237510e-09	-3.783109e+01	-6.029804e+02
9.000000e-08	-5.323569e-06	-9.292735e-09	-3.770428e+01	-6.017226e+02
1.000000e-07	-5.303603e-06	-9.242433e-09	-3.756287e+01	-6.003578e+02
1.100000e-07	-5.281714e-06	-9.177133e-09	-3.740784e+01	-5.989088e+02
1.200000e-07	-5.258123e-06	-9.124556e-09	-3.724075e+01	-5.973995e+02
1.300000e-07	-5.232973e-06	-8.980291e-09	-3.706263e+01	-5.958493e+02
1.400000e-07	-5.206200e-06	-9.102420e-09	-3.687301e+01	-5.942688e+02
1.500000e-07	-5.177838e-06	-9.174260e-09	-3.667214e+01	-5.926572e+02
1.600000e-07	-5.147963e-06	-8.943537e-09	-3.646055e+01	-5.910009e+02
1.700000e-07	-5.116522e-06	-9.051790e-09	-3.623787e+01	-5.892751e+02
1.800000e-07	-5.082957e-06	-9.006631e-09	-3.600014e+01	-5.874478e+02
1.900000e-07	-5.047527e-06	-8.797256e-09	-3.574921e+01	-5.854846e+02
2.000000e-07	-5.010692e-06	-8.964568e-09	-3.548832e+01	-5.833545e+02
2.100000e-07	-4.972084e-06	-8.882094e-09	-3.521488e+01	-5.810341e+02
2.200000e-07	-4.931615e-06	-8.722008e-09	-3.492826e+01	-5.785116e+02
2.300000e-07	-4.889188e-06	-8.796100e-09	-3.462777e+01	-5.757870e+02
2.400000e-07	-4.844829e-06	-8.730979e-09	-3.431360e+01	-5.728712e+02
2.500000e-07	-4.798682e-06	-8.694253e-09	-3.398675e+01	-5.697826e+02
2.600000e-07	-4.750560e-06	-8.651748e-09	-3.364593e+01	-5.665432e+02
2.700000e-07	-4.700341e-06	-8.560384e-09	-3.329025e+01	-5.631738e+02
2.800000e-07	-4.648118e-06	-8.537116e-09	-3.292039e+01	-5.596904e+02
2.900000e-07	-4.594047e-06	-8.453716e-09	-3.253743e+01	-5.561025e+02
3.000000e-07	-4.538442e-06	-8.398465e-09	-3.214360e+01	-5.524119e+02
3.100000e-07	-4.481122e-06	-8.373567e-09	-3.173764e+01	-5.486142e+02
3.200000e-07	-4.421885e-06	-8.321872e-09	-3.131809e+01	-5.447007e+02
3.300000e-07	-4.361103e-06	-8.228461e-09	-3.088760e+01	-5.406613e+02
3.400000e-07	-4.298893e-06	-8.145109e-09	-3.044699e+01	-5.364869e+02
3.500000e-07	-4.235298e-06	-8.138260e-09	-2.999658e+01	-5.321714e+02
3.600000e-07	-4.170131e-06	-8.050551e-09	-2.953504e+01	-5.277122e+02
3.700000e-07	-4.103246e-06	-7.949766e-09	-2.906132e+01	-5.231104e+02
3.800000e-07	-4.034858e-06	-7.901803e-09	-2.857696e+01	-5.183695e+02
3.900000e-07	-3.965110e-06	-7.814625e-09	-2.808297e+01	-5.134936e+02
4.000000e-07	-3.894155e-06	-7.732358e-09	-2.758043e+01	-5.084865e+02
4.100000e-07	-3.821932e-06	-7.654319e-09	-2.706890e+01	-5.033498e+02
4.200000e-07	-3.748122e-06	-7.599901e-09	-2.654615e+01	-4.980828e+02
4.300000e-07	-3.672742e-06	-7.511459e-09	-2.601227e+01	-4.926826e+02
4.400000e-07	-3.595903e-06	-7.405452e-09	-2.546805e+01	-4.871443e+02
4.500000e-07	-3.517592e-06	-7.327336e-09	-2.491341e+01	-4.814627e+02
4.600000e-07	-3.437880e-06	-7.250179e-09	-2.434885e+01	-4.756331e+02
4.700000e-07	-3.356894e-06	-7.159114e-09	-2.377526e+01	-4.696521e+02
4.800000e-07	-3.274743e-06	-7.045573e-09	-2.319343e+01	-4.635182e+02
4.900000e-07	-3.191501e-06	-6.955271e-09	-2.260386e+01	-4.572317e+02
5.000000e-07	-3.107293e-06	-6.864565e-09	-2.200746e+01	-4.507942e+02
5.100000e-07	-3.022128e-06	-6.756052e-09	-2.140428e+01	-4.442077e+02
5.200000e-07	-2.935942e-06	-6.651703e-09	-2.079387e+01	-4.374736e+02
5.300000e-07	-2.848770e-06	-6.548684e-09	-2.017647e+01	-4.305919e+02
5.400000e-07	-2.760699e-06	-6.440001e-09	-1.955270e+01	-4.235605e+02
5.500000e-07	-2.671551e-06	-6.327116e-09	-1.892131e+01	-4.163752e+02
5.600000e-07	-2.581152e-06	-6.214062e-09	-1.828106e+01	-4.090299e+02
5.700000e-07	-2.489721e-06	-6.101928e-09	-1.763350e+01	-4.015178e+02
5.800000e-07	-2.397477e-06	-5.981458e-09	-1.698018e+01	-3.938320e+02
5.900000e-07	-2.304477e-06	-5.857247e-09	-1.632150e+01	-3.859668e+02
6.000000e-07	-2.210684e-06	-5.734008e-09	-1.565721e+01	-3.779189e+02
6.100000e-07	-2.116125e-06	-5.609747e-09	-1.498749e+01	-3.696872e+02
6.200000e-07	-2.020869e-06	-5.483142e-09	-1.431285e+01	-3.612733e+02
6.300000e-07	-1.924859e-06	-5.349060e-09	-1.363285e+01	-3.526803e+02
6.400000e-07	-1.828039e-06	-5.212300e-09	-1.294712e+01	-3.439117e+02
6.500000e-07	-1.730402e-06	-5.074093e-09	-1.225560e+01	-3.349697e+02
6.600000e-07	-1.631998e-06	-4.933012e-09	-1.155866e+01	-3.258544e+02
6.700000e-07	-1.532998e-06	-4.788289e-09	-1.085749e+01	-3.165619e+02
6.800000e-07	-1.433502e-06	-4.642805e-09	-1.015280e+01	-3.070848e+02
6.900000e-07	-1.333543e-06	-4.495769e-09	-9.444846e+00	-2.974126e+02
7.000000e-07	-1.233180e-06	-4.344556e-09	-8.734020e+00	-2.875328e+02
7.100000e-07	-1.132490e-06	-4.187396e-09	-8.020881e+00	-2.774333e+02
7.200000e-07	-1.031493e-06	-4.024038e-09	-7.305566e+00	-2.671040e+02
7.300000e-07	-9.301626e-07	-3.861578e-09	-6.587895e+00	-2.565388e+02
7.400000e-07	-8.284575e-07	-3.696386e-09	-5.867566e+00	-2.457364e+02
7.500000e-07	-7.264276e-07	-3.527155e-09	-5.144938e+00	-2.347000e+02
7.600000e-07	-6.241356e-07	-3.352989e-09	-4.420452e+00	-2.234357e+02
7.700000e-07	-5.216240e-07	-3.173055e-09	-3.694412e+00	-2.119503e+02
7.800000e-07	-4.190171e-07	-2.992232e-09	-2.967696e+00	-2.002490e+02
7.900000e-07	-3.163004e-07	-2.810347e-09	-2.240204e+00	-1.883320e+02
8.000000e-07	-2.134602e-07	-2.626284e-09	-1.511836e+00	-1.761936e+02
8.100000e-07	-1.105707e-07	-2.438205e-09	-7.831190e-01	-1.638213e+02
8.200000e-07	-7.644383e-09	-2.246085e-09	-5.414149e-02	-1.511966e+02
8.300000e-07	9.528621e-08	-2.050521e-09	6.748664e-01	-1.382977e+02
8.400000e-07	1.981733e-07	-1.850124e-09	1.403566e+00	-1.251015e+02
8.500000e-07	3.010306e-07	-1.643090e-09	2.132055e+00	-1.115874e+02
8.600000e-07	4.038498e-07	-1.431786e-09	2.860274e+00	-9.773876e+01
8.700000e-07	5.066163e-07	-1.214280e-09	3.588120e+00	-8.354443e+01
8.800000e-07	6.092491e-07	-9.914169e-10	4.315018e+00	-6.899824e+01
8.900000e-07	7.116921e-07	-7.637801e-10	5.040573e+00	-5.409762e+01
9.000000e-07	8.139251e-07	-5.305640e-10	5.764640e+00	-3.884155e+01
9.100000e-07	9.158535e-07	-2.941287e-10	6.486550e+00	-2.322867e+01
9.200000e-07	1.017429e-06	-5.192585e-11	7.205960e+00	-7.256471e+00
9.300000e-07	1.118622e-06	1.967973e-10	7.922661e+00	9.078025e+00
9.400000e-07	1.219429e-06	4.517315e-10	8.636629e+00	2.577578e+01
9.500000e-07	1.319898e-06	7.098023e-10	9.348205e+00	4.283180e+01
9.600000e-07	1.420019e-06	9.728085e-10	1.005731e+01	6.023048e+01
9.700000e-07	1.519640e-06	1.241754e-09	1.076288e+01	7.794131e+01
9.800000e-07	1.618613e-06	1.514072e-09	1.146385e+01	9.591600e+01
9.900000e-07	1.716860e-06	1.788253e-09	1.215970e+01	1.140879e+02
1.000000e-06	1.814337e-06	2.062670e-09	1.285007e+01	1.323744e+02
1.010000e-06	1.911068e-06	2.338041e-09	1.353518e+01	1.506815e+02
1.020000e-06	2.006996e-06	2.612871e-09	1.421459e+01	1.689104e+02
1.030000e-06	2.102122e-06	2.886759e-09	1.488832e+01	1.869654e+02
1.040000e-06	2.196548e-06	3.159524e-09	1.555709e+01	2.047602e+02
1.050000e-06	2.290216e-06	3.425418e-09	1.622050e+01	2.222230e+02
1.060000e-06	2.383097e-06	3.682680e-09	1.687833e+01	2.392992e+02
1.070000e-06	2.475293e-06	3.932799e-09	1.753131e+01	2.559507e+02
1.080000e-06	2.566680e-06	4.178680e-09	1.817856e+01	2.721535e+02
1.090000e-06	2.657049e-06	4.419948e-09	1.881860e+01	2.878936e+02
1.100000e-06	2.746314e-06	4.652441e-09	1.945082e+01	3.031624e+02
1.110000e-06	2.834482e-06	4.875125e-09	2.007527e+01	3.179531e+02
1.120000e-06	2.921671e-06	5.089335e-09	2.069279e+01	3.322590e+02
1.130000e-06	3.007947e-06	5.298544e-09	2.130384e+01	3.460728e+02
1.140000e-06	3.093283e-06	5.502120e-09	2.190823e+01	3.593886e+02
1.150000e-06	3.177648e-06	5.696457e-09	2.250576e+01	3.722038e+02
1.160000e-06	3.261018e-06	5.881957e-09	2.309622e+01	3.845216e+02
1.170000e-06	3.343254e-06	6.062508e-09	2.367866e+01	3.963521e+02
1.180000e-06	3.424299e-06	6.237035e-09	2.425266e+01	4.077125e+02
1.190000e-06	3.504077e-06	6.405098e-09	2.481769e+01	4.186247e+02
1.200000e-06	3.582554e-06	6.566122e-09	2.537350e+01	4.291122e+02
1.210000e-06	3.659791e-06	6.720599e-09	2.592054e+01	4.391965e+02
1.220000e-06	3.735758e-06	6.868161e-09	2.645858e+01	4.488938e+02
1.230000e-06	3.810245e-06	7.010642e-09	2.698613e+01	4.582128e+02
1.240000e-06	3.883075e-06	7.149542e-09	2.750195e+01	4.671547e+02
1.250000e-06	3.954383e-06	7.280459e-09	2.800699e+01	4.757153e+02
1.260000e-06	4.024271e-06	7.401793e-09	2.850197e+01	4.838882e+02
1.270000e-06	4.092799e-06	7.517656e-09	2.898733e+01	4.916694e+02
1.280000e-06	4.160019e-06	7.629662e-09	2.946341e+01	4.990607e+02
1.290000e-06	4.225647e-06	7.736089e-09	2.992822e+01	5.060728e+02
1.300000e-06	4.289577e-06	7.837055e-09	3.038101e+01	5.127262e+02
1.310000e-06	4.351982e-06	7.932347e-09	3.082299e+01	5.190491e+02
1.320000e-06	4.412986e-06	8.023969e-09	3.125506e+01	5.250753e+02
1.330000e-06	4.472634e-06	8.111810e-09	3.167752e+01	5.308389e+02
1.340000e-06	4.530658e-06	8.198022e-09	3.208847e+01	5.363709e+02
1.350000e-06	4.586828e-06	8.281840e-09	3.248630e+01	5.416951e+02
1.360000e-06	4.641237e-06	8.358726e-09	3.287165e+01	5.468261e+02
1.370000e-06	4.694011e-06	8.431034e-09	3.324542e+01	5.517695e+02
1.380000e-06	4.744939e-06	8.502260e-09	3.360612e+01	5.565226e+02
1.390000e-06	4.793837e-06	8.573027e-09	3.395245e+01	5.610774e+02
1.400000e-06	4.840881e-06	8.639382e-09	3.428563e+01	5.654239e+02
1.410000e-06	4.886298e-06	8.699987e-09	3.460730e+01	5.695522e+02
1.420000e-06	4.930147e-06	8.757804e-09	3.491786e+01	5.734552e+02
1.430000e-06	4.972166e-06	8.814101e-09	3.521546e+01	5.771292e+02
1.440000e-06	5.012303e-06	8.868914e-09	3.549973e+01	5.805740e+02
1.450000e-06	5.050750e-06	8.921522e-09	3.577204e+01	5.837924e+02
1.460000e-06	5.087559e-06	8.969340e-09	3.603273e+01	5.867891e+02
1.470000e-06	5.122693e-06	9.009263e-09	3.628157e+01	5.895698e+02
1.480000e-06	5.155875e-06	9.042924e-09	3.651658e+01	5.921408e+02
1.490000e-06	5.187148e-06	9.074949e-09	3.673807e+01	5.945091e+02
1.500000e-06	5.216764e-06	9.105448e-09	3.694783e+01	5.966821e+02
1.510000e-06	5.244697e-06	9.133977e-09	3.714567e+01	5.986684e+02
1.520000e-06	5.270628e-06	9.160464e-09	3.732932e+01	6.004769e+02
1.530000e-06	5.294424e-06	9.185631e-09	3.749786e+01	6.021173e+02
1.540000e-06	5.316395e-06	9.209859e-09	3.765347e+01	6.035983e+02
1.550000e-06	5.336678e-06	9.230708e-09	3.779712e+01	6.049270e+02
1.560000e-06	5.355073e-06	9.247193e-09	3.792741e+01	6.061083e+02
1.570000e-06	5.371437e-06	9.260191e-09	3.804330e+01	6.071441e+02
1.580000e-06	5.385864e-06	9.271320e-09	3.814548e+01	6.080338e+02
1.590000e-06	5.398324e-06	9.281612e-09	3.823373e+01	6.087756e+02
1.600000e-06	5.408548e-06	9.290769e-09	3.830614e+01	6.093679e+02
1.610000e-06	5.416635e-06	9.298754e-09	3.836342e+01	6.098112e+02
1.620000e-06	5.422849e-06	9.304167e-09	3.840743e+01	6.101088e+02
1.630000e-06	5.427249e-06	9.308055e-09	3.843860e+01	6.102676e+02
1.640000e-06	5.429779e-06	9.312475e-09	3.845652e+01	6.102972e+02
1.650000e-06	5.430271e-06	9.316162e-09	3.846000e+01	6.102081e+02
1.660000e-06	5.428900e-06	9.311944e-09	3.845029e+01	6.100096e+02
1.670000e-06	5.425838e-06	9.304327e-09	3.842860e+01	6.097077e+02
1.680000e-06	5.421067e-06	9.297707e-09	3.839481e+01	6.093030e+02
1.690000e-06	5.414425e-06	9.289931e-09	3.834777e+01	6.087910e+02
1.700000e-06	5.405964e-06	9.281839e-09	3.828785e+01	6.081632e+02
1.710000e-06	5.395930e-06	9.275578e-09	3.821678e+01	6.074092e+02
1.720000e-06	5.384203e-06	9.281622e-09	3.813372e+01	6.065204e+02
1.730000e-06	5.370434e-06	9.265490e-09	3.803620e+01	6.054935e+02
1.740000e-06	5.354513e-06	9.149937e-09	3.792344e+01	6.043323e+02
1.750000e-06	5.336279e-06	9.144066e-09	3.779430e+01	6.030493e+02
1.760000e-06	5.315391e-06	9.163117e-09	3.764636e+01	6.016639e+02
1.770000e-06	5.292245e-06	9.177662e-09	3.748243e+01	6.001996e+02
1.780000e-06	5.267800e-06	9.289118e-09	3.730930e+01	5.986796e+02
1.790000e-06	5.242606e-06	9.068941e-09	3.713086e+01	5.971218e+02
1.800000e-06	5.215963e-06	9.022004e-09	3.694216e+01	5.955347e+02
1.810000e-06	5.187038e-06	9.165440e-09	3.673730e+01	5.939146e+02
1.820000e-06	5.156295e-06	8.917996e-09	3.651956e+01	5.922452e+02
1.830000e-06	5.123955e-06	9.007449e-09	3.629051e+01	5.905000e+02
1.840000e-06	5.089657e-06	9.093605e-09	3.604759e+01	5.886460e+02
1.850000e-06	5.053707e-06	8.787960e-09	3.579297e+01	5.866489e+02
1.860000e-06	5.015931e-06	8.926161e-09	3.552543e+01	5.844791e+02
1.870000e-06	4.976246e-06	8.924482e-09	3.524436e+01	5.821155e+02
1.880000e-06	4.934960e-06	8.716340e-09	3.495195e+01	5.795487e+02
1.890000e-06	4.891856e-06	8.814027e-09	3.464667e+01	5.767814e+02
1.900000e-06	4.847081e-06	8.667804e-09	3.432954e+01	5.738263e+02
1.910000e-06	4.800490e-06	8.675817e-09	3.399957e+01	5.707031e+02
1.920000e-06	4.751831e-06	8.665635e-09	3.365493e+01	5.674337e+02
1.930000e-06	4.701566e-06	8.466302e-09	3.329893e+01	5.640381e+02
1.940000e-06	4.649609e-06	8.613299e-09	3.293094e+01	5.605313e+02
1.950000e-06	4.595548e-06	8.488822e-09	3.254806e+01	5.569210e+02
1.960000e-06	4.539523e-06	8.338039e-09	3.215126e+01	5.532075e+02
1.970000e-06	4.481797e-06	8.342303e-09	3.174241e+01	5.493852e+02
1.980000e-06	4.422660e-06	8.262356e-09	3.132357e+01	5.454451e+02
1.990000e-06	4.361986e-06	8.272597e-09	3.089385e+01	5.413770e+02
2.000000e-06	4.299522e-06	8.103329e-09	3.045145e+01	5.371722e+02
2.010000e-06	4.235433e-06	8.098001e-09	2.999753e+01	5.328255e+02
2.020000e-06	4.169859e-06	8.075995e-09	2.953310e+01	5.283350e+02
2.030000e-06	4.102896e-06	7.886176e-09	2.905884e+01	5.237026e+02
2.040000e-06	4.034500e-06	7.894637e-09	2.857442e+01	5.189319e+02
2.050000e-06	3.964524e-06	7.824689e-09	2.807882e+01	5.140271e+02
2.060000e-06	3.893050e-06	7.753851e-09	2.757260e+01	5.089916e+02
2.070000e-06	3.820245e-06	7.622852e-09	2.705696e+01	5.038267e+02
2.080000e-06	3.746166e-06	7.532072e-09	2.653229e+01	4.985309e+02
2.090000e-06	3.670644e-06	7.528720e-09	2.599741e+01	4.931010e+02
2.100000e-06	3.593605e-06	7.403107e-09	2.545178e+01	4.875320e+02
2.110000e-06	3.514987e-06	7.315365e-09	2.489496e+01	4.818185e+02
2.120000e-06	3.435072e-06	7.219085e-09	2.432896e+01	4.759562e+02
2.130000e-06	3.354100e-06	7.145687e-09	2.375548e+01	4.699419e+02
2.140000e-06	3.271919e-06	7.039156e-09	2.317343e+01	4.637747e+02
2.150000e-06	3.188683e-06	6.933250e-09	2.258391e+01	4.574552e+02
2.160000e-06	3.104514e-06	6.867200e-09	2.198778e+01	4.509851e+02
2.170000e-06	3.019097e-06	6.748821e-09	2.138281e+01	4.443664e+02
2.180000e-06	2.932200e-06	6.641528e-09	2.076736e+01	4.376002e+02
2.190000e-06	2.844195e-06	6.528648e-09	2.014406e+01	4.306862e+02
2.200000e-06	2.755282e-06	6.443384e-09	1.951434e+01	4.236217e+02
2.210000e-06	2.665419e-06	6.342264e-09	1.887788e+01	4.164022e+02
2.220000e-06	2.574676e-06	6.215860e-09	1.823519e+01	4.090212e+02
2.230000e-06	2.483108e-06	6.098164e-09	1.758666e+01	4.014719e+02
2.240000e-06	2.390774e-06	5.979313e-09	1.693271e+01	3.937475e+02
2.250000e-06	2.297619e-06	5.867470e-09	1.627293e+01	3.858429e+02
2.260000e-06	2.203486e-06	5.742598e-09	1.560623e+01	3.777551e+02
2.270000e-06	2.108343e-06	5.616858e-09	1.493238e+01	3.694837e+02
2.280000e-06	2.012355e-06	5.487405e-09	1.425254e+01	3.610306e+02
2.290000e-06	1.915708e-06	5.356172e-09	1.356804e+01	3.523991e+02
2.300000e-06	1.818477e-06	5.222798e-09	1.287940e+01	3.435927e+02
2.310000e-06	1.720716e-06	5.094288e-09	1.218701e+01	3.346132e+02
2.320000e-06	1.622385e-06	4.960329e-09	1.149058e+01	3.254598e+02
2.330000e-06	1.523469e-06	4.810901e-09	1.079000e+01	3.161280e+02
2.340000e-06	1.424134e-06	4.660915e-09	1.008646e+01	3.066096e+02
2.350000e-06	1.324420e-06	4.513333e-09	9.380230e+00	2.968935e+02
2.360000e-06	1.224341e-06	4.370406e-09	8.671418e+00	2.869671e+02
2.370000e-06	1.123924e-06	4.220325e-09	7.960212e+00	2.768185e+02
2.380000e-06	1.023102e-06	4.060174e-09	7.246140e+00	2.664385e+02
2.390000e-06	9.218752e-07	3.897832e-09	6.529199e+00	2.558219e+02
2.400000e-06	8.202370e-07	3.735910e-09	5.809345e+00	2.449685e+02
2.410000e-06	7.181987e-07	3.571760e-09	5.086656e+00	2.338821e+02
2.420000e-06	6.157829e-07	3.401637e-09	4.361294e+00	2.225694e+02
2.430000e-06	5.130963e-07	3.225061e-09	3.634014e+00	2.110369e+02
2.440000e-06	4.102799e-07	3.046251e-09	2.905815e+00	1.992890e+02
2.450000e-06	3.073262e-07	2.864999e-09	2.176644e+00	1.873248e+02
2.460000e-06	2.042130e-07	2.681002e-09	1.446342e+00	1.751370e+02
2.470000e-06	1.009609e-07	2.496549e-09	7.150575e-01	1.627118e+02
2.480000e-06	-2.338309e-09	2.301779e-09	-1.656112e-02	1.500298e+02
2.490000e-06	-1.056255e-07	2.098163e-09	-7.480943e-01	1.370685e+02
2.500000e-06	-2.088546e-07	1.893577e-09	-1.479217e+00	1.238054e+02
2.510000e-06	-3.120628e-07	1.688897e-09	-2.210190e+00	1.102203e+02
2.520000e-06	-4.151919e-07	1.480002e-09	-2.940605e+00	9.629781e+01
2.530000e-06	-5.181351e-07	1.263175e-09	-3.669702e+00	8.202793e+01
2.540000e-06	-6.208870e-07	1.043236e-09	-4.397444e+00	6.740541e+01
2.550000e-06	-7.233714e-07	8.161953e-10	-5.123292e+00	5.242819e+01
2.560000e-06	-8.255044e-07	5.782494e-10	-5.846651e+00	3.709529e+01
2.570000e-06	-9.272082e-07	3.352703e-10	-6.566970e+00	2.140515e+01
2.580000e-06	-1.028473e-06	9.065711e-11	-7.284183e+00	5.355032e+00
2.590000e-06	-1.129294e-06	-1.598120e-10	-7.998250e+00	-1.105787e+01
2.600000e-06	-1.229649e-06	-4.179981e-10	-8.709013e+00	-2.783362e+01
2.610000e-06	-1.329522e-06	-6.775612e-10	-9.416362e+00	-4.496534e+01
2.620000e-06	-1.428898e-06	-9.404031e-10	-1.012020e+01	-6.243457e+01
2.630000e-06	-1.527838e-06	-1.212400e-09	-1.082094e+01	-8.020716e+01
2.640000e-06	-1.626334e-06	-1.491346e-09	-1.151854e+01	-9.823084e+01
2.650000e-06	-1.724262e-06	-1.774008e-09	-1.221212e+01	-1.164353e+02
2.660000e-06	-1.821504e-06	-2.057481e-09	-1.290084e+01	-1.347349e+02
2.670000e-06	-1.918125e-06	-2.339576e-09	-1.358516e+01	-1.530340e+02
2.680000e-06	-2.014224e-06	-2.616224e-09	-1.426578e+01	-1.712340e+02
2.690000e-06	-2.109687e-06	-2.890017e-09	-1.494190e+01	-1.892406e+02
2.700000e-06	-2.204357e-06	-3.163082e-09	-1.561240e+01	-2.069702e+02
2.710000e-06	-2.298120e-06	-3.431143e-09	-1.627648e+01	-2.243547e+02
2.720000e-06	-2.390869e-06	-3.691823e-09	-1.693337e+01	-2.413431e+02
2.730000e-06	-2.482665e-06	-3.944249e-09	-1.758352e+01	-2.579006e+02
2.740000e-06	-2.573638e-06	-4.189839e-09	-1.822784e+01	-2.740057e+02
2.750000e-06	-2.663649e-06	-4.428568e-09	-1.886535e+01	-2.896460e+02
2.760000e-06	-2.752705e-06	-4.662093e-09	-1.949609e+01	-3.048134e+02
2.770000e-06	-2.840968e-06	-4.890539e-09	-2.012121e+01	-3.195013e+02
2.780000e-06	-2.928301e-06	-5.110289e-09	-2.073975e+01	-3.337028e+02
2.790000e-06	-3.014537e-06	-5.320037e-09	-2.135052e+01	-3.474109e+02
2.800000e-06	-3.099648e-06	-5.523063e-09	-2.195332e+01	-3.606199e+02
2.810000e-06	-3.183633e-06	-5.717634e-09	-2.254814e+01	-3.733286e+02
2.820000e-06	-3.266497e-06	-5.901769e-09	-2.313503e+01	-3.855413e+02
2.830000e-06	-3.348282e-06	-6.080229e-09	-2.371427e+01	-3.972700e+02
2.840000e-06	-3.429017e-06	-6.253108e-09	-2.428608e+01	-4.085329e+02
2.850000e-06	-3.508545e-06	-6.417665e-09	-2.484934e+01	-4.193526e+02
2.860000e-06	-3.586610e-06	-6.573845e-09	-2.540223e+01	-4.297526e+02
2.870000e-06	-3.663176e-06	-6.725049e-09	-2.594452e+01	-4.397534e+02
2.880000e-06	-3.738293e-06	-6.872184e-09	-2.647653e+01	-4.493696e+02
2.890000e-06	-3.811996e-06	-7.013133e-09	-2.699854e+01	-4.586085e+02
2.900000e-06	-3.884440e-06	-7.149942e-09	-2.751162e+01	-4.674697e+02
2.910000e-06	-3.955533e-06	-7.283599e-09	-2.801514e+01	-4.759482e+02
2.920000e-06	-4.025049e-06	-7.409343e-09	-2.850749e+01	-4.840379e+02
2.930000e-06	-4.093023e-06	-7.525730e-09	-2.898891e+01	-4.917356e+02
2.940000e-06	-4.159577e-06	-7.637689e-09	-2.946028e+01	-4.990449e+02
