# Temperatura_=_65.78
# Concentracion g/m^3_=_15000.0
# C_Vs_to_Am_M_A/Vsm_=_65563218390.804596
# pendiente_HvsI_1/m_=_3716.3
# ordenada_HvsI_A/m_=_1297.0
# frecuencia_Hz_=_301595.66557387885

Tiempo_(s)	Campo_(V.s)	Magnetizacion_(V.s)	Campo_(kA/m)	Magnetizacion_(A/m)
0.000000e+00	-5.414074e-06	-9.014468e-09	-3.833868e+01	-5.888790e+02
1.000000e-08	-5.411602e-06	-9.010869e-09	-3.832118e+01	-5.886320e+02
2.000000e-08	-5.407341e-06	-9.004875e-09	-3.829100e+01	-5.882897e+02
3.000000e-08	-5.401466e-06	-8.998245e-09	-3.824940e+01	-5.878480e+02
4.000000e-08	-5.393975e-06	-8.987977e-09	-3.819636e+01	-5.872974e+02
5.000000e-08	-5.384626e-06	-8.973030e-09	-3.813015e+01	-5.866254e+02
6.000000e-08	-5.373286e-06	-8.956110e-09	-3.804985e+01	-5.858202e+02
7.000000e-08	-5.360042e-06	-8.939668e-09	-3.795607e+01	-5.848754e+02
8.000000e-08	-5.344694e-06	-8.941233e-09	-3.784739e+01	-5.837931e+02
9.000000e-08	-5.327085e-06	-8.945114e-09	-3.772269e+01	-5.825858e+02
1.000000e-07	-5.307383e-06	-8.919751e-09	-3.758317e+01	-5.812759e+02
1.100000e-07	-5.285748e-06	-8.887734e-09	-3.742997e+01	-5.798924e+02
1.200000e-07	-5.262367e-06	-8.836753e-09	-3.726440e+01	-5.784660e+02
1.300000e-07	-5.237366e-06	-8.776600e-09	-3.708736e+01	-5.770223e+02
1.400000e-07	-5.210775e-06	-8.808430e-09	-3.689906e+01	-5.755766e+02
1.500000e-07	-5.182623e-06	-8.796211e-09	-3.669971e+01	-5.741292e+02
1.600000e-07	-5.152964e-06	-8.737117e-09	-3.648968e+01	-5.726640e+02
1.700000e-07	-5.121757e-06	-8.754392e-09	-3.626870e+01	-5.711501e+02
1.800000e-07	-5.088503e-06	-8.692042e-09	-3.603322e+01	-5.695466e+02
1.900000e-07	-5.053346e-06	-8.631243e-09	-3.578426e+01	-5.678091e+02
2.000000e-07	-5.016704e-06	-8.653626e-09	-3.552479e+01	-5.658967e+02
2.100000e-07	-4.978304e-06	-8.597315e-09	-3.525286e+01	-5.637792e+02
2.200000e-07	-4.937989e-06	-8.522758e-09	-3.496738e+01	-5.614408e+02
2.300000e-07	-4.895784e-06	-8.502122e-09	-3.466851e+01	-5.588820e+02
2.400000e-07	-4.851700e-06	-8.472356e-09	-3.435635e+01	-5.561176e+02
2.500000e-07	-4.805815e-06	-8.444727e-09	-3.403142e+01	-5.531728e+02
2.600000e-07	-4.757938e-06	-8.391780e-09	-3.369239e+01	-5.500773e+02
2.700000e-07	-4.707931e-06	-8.332395e-09	-3.333827e+01	-5.468591e+02
2.800000e-07	-4.655929e-06	-8.273636e-09	-3.297003e+01	-5.435398e+02
2.900000e-07	-4.602060e-06	-8.207374e-09	-3.258857e+01	-5.401312e+02
3.000000e-07	-4.546566e-06	-8.171392e-09	-3.219560e+01	-5.366352e+02
3.100000e-07	-4.489395e-06	-8.141594e-09	-3.179076e+01	-5.330448e+02
3.200000e-07	-4.430468e-06	-8.081540e-09	-3.137347e+01	-5.293480e+02
3.300000e-07	-4.369938e-06	-7.999039e-09	-3.094484e+01	-5.255309e+02
3.400000e-07	-4.307926e-06	-7.939999e-09	-3.050572e+01	-5.215819e+02
3.500000e-07	-4.244525e-06	-7.892872e-09	-3.005675e+01	-5.174940e+02
3.600000e-07	-4.179503e-06	-7.824939e-09	-2.959632e+01	-5.132652e+02
3.700000e-07	-4.112730e-06	-7.753141e-09	-2.912348e+01	-5.088986e+02
3.800000e-07	-4.044471e-06	-7.683886e-09	-2.864012e+01	-5.044000e+02
3.900000e-07	-3.974848e-06	-7.611475e-09	-2.814709e+01	-4.997757e+02
4.000000e-07	-3.903916e-06	-7.539107e-09	-2.764480e+01	-4.950301e+02
4.100000e-07	-3.831760e-06	-7.470010e-09	-2.713384e+01	-4.901646e+02
4.200000e-07	-3.758181e-06	-7.399631e-09	-2.661281e+01	-4.851767e+02
4.300000e-07	-3.682979e-06	-7.312401e-09	-2.608028e+01	-4.800608e+02
4.400000e-07	-3.606259e-06	-7.226807e-09	-2.553700e+01	-4.748095e+02
4.500000e-07	-3.528062e-06	-7.152868e-09	-2.498327e+01	-4.694153e+02
4.600000e-07	-3.448440e-06	-7.077851e-09	-2.441944e+01	-4.638723e+02
4.700000e-07	-3.367581e-06	-6.990042e-09	-2.384685e+01	-4.581773e+02
4.800000e-07	-3.285597e-06	-6.891667e-09	-2.326630e+01	-4.523300e+02
4.900000e-07	-3.202533e-06	-6.798550e-09	-2.267809e+01	-4.463327e+02
5.000000e-07	-3.118389e-06	-6.703875e-09	-2.208225e+01	-4.401892e+02
5.100000e-07	-3.033251e-06	-6.608993e-09	-2.147936e+01	-4.339035e+02
5.200000e-07	-2.947210e-06	-6.511676e-09	-2.087008e+01	-4.274786e+02
5.300000e-07	-2.860254e-06	-6.408924e-09	-2.025431e+01	-4.209153e+02
5.400000e-07	-2.772290e-06	-6.302451e-09	-1.963142e+01	-4.142124e+02
5.500000e-07	-2.683240e-06	-6.195989e-09	-1.900083e+01	-4.073658e+02
5.600000e-07	-2.593086e-06	-6.092893e-09	-1.836242e+01	-4.003700e+02
5.700000e-07	-2.501839e-06	-5.986345e-09	-1.771627e+01	-3.932182e+02
5.800000e-07	-2.409669e-06	-5.871706e-09	-1.706359e+01	-3.859034e+02
5.900000e-07	-2.316694e-06	-5.751940e-09	-1.640521e+01	-3.784195e+02
6.000000e-07	-2.222881e-06	-5.634331e-09	-1.574089e+01	-3.707613e+02
6.100000e-07	-2.128334e-06	-5.517564e-09	-1.507137e+01	-3.629256e+02
6.200000e-07	-2.033122e-06	-5.398160e-09	-1.439714e+01	-3.549105e+02
6.300000e-07	-1.937157e-06	-5.271755e-09	-1.371759e+01	-3.467157e+02
6.400000e-07	-1.840374e-06	-5.140290e-09	-1.303224e+01	-3.383418e+02
6.500000e-07	-1.742784e-06	-5.009303e-09	-1.234118e+01	-3.297893e+02
6.600000e-07	-1.644522e-06	-4.875794e-09	-1.164536e+01	-3.210582e+02
6.700000e-07	-1.545620e-06	-4.739181e-09	-1.094500e+01	-3.121471e+02
6.800000e-07	-1.446093e-06	-4.598807e-09	-1.024022e+01	-3.030524e+02
6.900000e-07	-1.346132e-06	-4.455036e-09	-9.532365e+00	-2.937681e+02
7.000000e-07	-1.245838e-06	-4.309516e-09	-8.822156e+00	-2.842861e+02
7.100000e-07	-1.145211e-06	-4.162022e-09	-8.109580e+00	-2.745964e+02
7.200000e-07	-1.044212e-06	-4.009532e-09	-7.394381e+00	-2.646885e+02
7.300000e-07	-9.428568e-07	-3.852162e-09	-6.676652e+00	-2.545525e+02
7.400000e-07	-8.411165e-07	-3.691323e-09	-5.956199e+00	-2.441805e+02
7.500000e-07	-7.390244e-07	-3.526870e-09	-5.233253e+00	-2.335674e+02
7.600000e-07	-6.367142e-07	-3.359025e-09	-4.508764e+00	-2.227117e+02
7.700000e-07	-5.342554e-07	-3.187555e-09	-3.783223e+00	-2.116150e+02
7.800000e-07	-4.316548e-07	-3.014348e-09	-3.056677e+00	-2.002807e+02
7.900000e-07	-3.289396e-07	-2.838226e-09	-2.329320e+00	-1.887130e+02
8.000000e-07	-2.261379e-07	-2.657481e-09	-1.601350e+00	-1.769142e+02
8.100000e-07	-1.232249e-07	-2.473676e-09	-8.725925e-01	-1.648830e+02
8.200000e-07	-2.027793e-08	-2.287430e-09	-1.435941e-01	-1.526137e+02
8.300000e-07	8.270968e-08	-2.098133e-09	5.856921e-01	-1.400948e+02
8.400000e-07	1.857376e-07	-1.903189e-09	1.315263e+00	-1.273103e+02
8.500000e-07	2.887105e-07	-1.702950e-09	2.044446e+00	-1.142406e+02
8.600000e-07	3.915977e-07	-1.501035e-09	2.773021e+00	-1.008648e+02
8.700000e-07	4.944066e-07	-1.293918e-09	3.501041e+00	-8.716260e+01
8.800000e-07	5.970812e-07	-1.078575e-09	4.228111e+00	-7.311635e+01
8.900000e-07	6.995616e-07	-8.567647e-10	4.953805e+00	-5.871237e+01
9.000000e-07	8.018403e-07	-6.309484e-10	5.678072e+00	-4.394161e+01
9.100000e-07	9.038311e-07	-4.020813e-10	6.400299e+00	-2.879968e+01
9.200000e-07	1.005476e-06	-1.681705e-10	7.120074e+00	-1.328669e+01
9.300000e-07	1.106777e-06	7.185717e-11	7.837424e+00	2.592914e+00
9.400000e-07	1.207656e-06	3.185628e-10	8.551775e+00	1.883000e+01
9.500000e-07	1.308065e-06	5.704165e-10	9.262804e+00	3.540967e+01
9.600000e-07	1.408097e-06	8.262124e-10	9.971160e+00	5.230965e+01
9.700000e-07	1.507745e-06	1.086901e-09	1.067680e+01	6.949822e+01
9.800000e-07	1.606889e-06	1.350517e-09	1.137886e+01	8.693250e+01
9.900000e-07	1.705364e-06	1.615759e-09	1.207620e+01	1.045573e+02
1.000000e-06	1.802981e-06	1.882081e-09	1.276745e+01	1.223057e+02
1.010000e-06	1.899698e-06	2.149724e-09	1.345233e+01	1.401003e+02
1.020000e-06	1.995613e-06	2.419120e-09	1.413153e+01	1.578575e+02
1.030000e-06	2.090787e-06	2.687691e-09	1.480549e+01	1.754914e+02
1.040000e-06	2.185233e-06	2.954304e-09	1.547429e+01	1.929190e+02
1.050000e-06	2.278990e-06	3.215046e-09	1.613821e+01	2.100653e+02
1.060000e-06	2.372005e-06	3.468583e-09	1.679688e+01	2.268664e+02
1.070000e-06	2.464246e-06	3.715984e-09	1.745007e+01	2.432718e+02
1.080000e-06	2.555758e-06	3.958754e-09	1.809809e+01	2.592444e+02
1.090000e-06	2.646414e-06	4.196266e-09	1.874005e+01	2.747596e+02
1.100000e-06	2.735887e-06	4.424894e-09	1.937364e+01	2.898023e+02
1.110000e-06	2.824120e-06	4.643693e-09	1.999844e+01	3.043643e+02
1.120000e-06	2.911389e-06	4.853989e-09	2.061642e+01	3.184417e+02
1.130000e-06	2.997798e-06	5.059412e-09	2.122831e+01	3.320333e+02
1.140000e-06	3.083289e-06	5.259960e-09	2.183369e+01	3.451395e+02
1.150000e-06	3.167805e-06	5.453303e-09	2.243218e+01	3.577625e+02
1.160000e-06	3.251416e-06	5.638630e-09	2.302425e+01	3.699069e+02
1.170000e-06	3.333994e-06	5.817410e-09	2.360901e+01	3.815802e+02
1.180000e-06	3.415214e-06	5.988748e-09	2.418416e+01	3.927931e+02
1.190000e-06	3.495105e-06	6.152559e-09	2.474989e+01	4.035587e+02
1.200000e-06	3.573771e-06	6.309993e-09	2.530694e+01	4.138915e+02
1.210000e-06	3.651175e-06	6.461219e-09	2.585506e+01	4.238055e+02
1.220000e-06	3.727297e-06	6.605447e-09	2.639411e+01	4.333128e+02
1.230000e-06	3.801993e-06	6.743316e-09	2.692305e+01	4.424223e+02
1.240000e-06	3.874982e-06	6.875936e-09	2.743991e+01	4.511398e+02
1.250000e-06	3.946401e-06	7.001324e-09	2.794565e+01	4.594689e+02
1.260000e-06	4.016481e-06	7.119491e-09	2.844191e+01	4.674131e+02
1.270000e-06	4.085243e-06	7.232221e-09	2.892883e+01	4.749777e+02
1.280000e-06	4.152700e-06	7.340580e-09	2.940651e+01	4.821723e+02
1.290000e-06	4.218533e-06	7.443651e-09	2.987270e+01	4.890123e+02
1.300000e-06	4.282601e-06	7.542005e-09	3.032638e+01	4.955188e+02
1.310000e-06	4.345112e-06	7.635299e-09	3.076904e+01	5.017175e+02
1.320000e-06	4.406192e-06	7.723213e-09	3.120157e+01	5.076364e+02
1.330000e-06	4.465962e-06	7.808092e-09	3.162482e+01	5.133027e+02
1.340000e-06	4.524176e-06	7.892043e-09	3.203705e+01	5.187399e+02
1.350000e-06	4.580528e-06	7.974196e-09	3.243609e+01	5.239650e+02
1.360000e-06	4.635173e-06	8.051286e-09	3.282305e+01	5.289882e+02
1.370000e-06	4.688180e-06	8.122960e-09	3.319841e+01	5.338122e+02
1.380000e-06	4.739316e-06	8.191470e-09	3.356052e+01	5.384342e+02
1.390000e-06	4.788383e-06	8.257857e-09	3.390797e+01	5.428481e+02
1.400000e-06	4.835579e-06	8.321093e-09	3.424219e+01	5.470471e+02
1.410000e-06	4.881192e-06	8.380451e-09	3.456518e+01	5.510255e+02
1.420000e-06	4.925286e-06	8.435378e-09	3.487743e+01	5.547806e+02
1.430000e-06	4.967635e-06	8.487464e-09	3.517732e+01	5.583128e+02
1.440000e-06	5.008070e-06	8.538375e-09	3.546365e+01	5.616254e+02
1.450000e-06	5.046730e-06	8.587353e-09	3.573741e+01	5.647236e+02
1.460000e-06	5.083750e-06	8.632164e-09	3.599956e+01	5.676132e+02
1.470000e-06	5.119126e-06	8.671065e-09	3.625007e+01	5.703001e+02
1.480000e-06	5.152601e-06	8.705736e-09	3.648711e+01	5.727901e+02
1.490000e-06	5.184113e-06	8.737741e-09	3.671026e+01	5.750886e+02
1.500000e-06	5.213871e-06	8.766132e-09	3.692099e+01	5.772017e+02
1.510000e-06	5.241937e-06	8.792707e-09	3.711973e+01	5.791363e+02
1.520000e-06	5.268155e-06	8.818298e-09	3.730539e+01	5.809003e+02
1.530000e-06	5.292336e-06	8.842565e-09	3.747662e+01	5.825026e+02
1.540000e-06	5.314591e-06	8.864829e-09	3.763421e+01	5.839515e+02
1.550000e-06	5.335129e-06	8.884729e-09	3.777965e+01	5.852545e+02
1.560000e-06	5.353868e-06	8.901500e-09	3.791235e+01	5.864164e+02
1.570000e-06	5.370601e-06	8.914849e-09	3.803084e+01	5.874391e+02
1.580000e-06	5.385325e-06	8.926598e-09	3.813511e+01	5.883218e+02
1.590000e-06	5.398056e-06	8.936589e-09	3.822526e+01	5.890620e+02
1.600000e-06	5.408547e-06	8.946217e-09	3.829955e+01	5.896574e+02
1.610000e-06	5.416836e-06	8.954553e-09	3.835824e+01	5.901073e+02
1.620000e-06	5.423227e-06	8.959603e-09	3.840350e+01	5.904147e+02
1.630000e-06	5.427829e-06	8.963528e-09	3.843609e+01	5.905863e+02
1.640000e-06	5.430520e-06	8.966221e-09	3.845514e+01	5.906324e+02
1.650000e-06	5.431206e-06	8.966984e-09	3.846000e+01	5.905645e+02
1.660000e-06	5.430017e-06	8.965474e-09	3.845158e+01	5.903933e+02
1.670000e-06	5.427121e-06	8.963125e-09	3.843107e+01	5.901254e+02
1.680000e-06	5.422571e-06	8.958928e-09	3.839886e+01	5.897620e+02
1.690000e-06	5.416187e-06	8.952173e-09	3.835365e+01	5.892975e+02
1.700000e-06	5.407962e-06	8.942683e-09	3.829540e+01	5.887215e+02
1.710000e-06	5.398159e-06	8.932166e-09	3.822598e+01	5.880213e+02
1.720000e-06	5.386668e-06	8.926351e-09	3.814462e+01	5.871861e+02
1.730000e-06	5.373152e-06	8.901462e-09	3.804890e+01	5.862108e+02
1.740000e-06	5.357536e-06	8.860010e-09	3.793832e+01	5.850999e+02
1.750000e-06	5.339669e-06	8.842307e-09	3.781180e+01	5.838679e+02
1.760000e-06	5.319183e-06	8.830600e-09	3.766673e+01	5.825393e+02
1.770000e-06	5.296255e-06	8.848787e-09	3.750437e+01	5.811436e+02
1.780000e-06	5.271903e-06	8.856769e-09	3.733193e+01	5.797112e+02
1.790000e-06	5.246883e-06	8.767479e-09	3.715476e+01	5.782658e+02
1.800000e-06	5.220539e-06	8.750682e-09	3.696820e+01	5.768199e+02
1.810000e-06	5.191921e-06	8.746102e-09	3.676555e+01	5.753701e+02
1.820000e-06	5.161353e-06	8.689057e-09	3.654909e+01	5.738970e+02
1.830000e-06	5.129218e-06	8.732270e-09	3.632153e+01	5.723672e+02
1.840000e-06	5.095207e-06	8.709905e-09	3.608069e+01	5.707383e+02
1.850000e-06	5.059450e-06	8.645567e-09	3.582749e+01	5.689660e+02
1.860000e-06	5.021948e-06	8.678004e-09	3.556192e+01	5.670113e+02
1.870000e-06	4.982591e-06	8.632757e-09	3.528322e+01	5.648468e+02
1.880000e-06	4.941509e-06	8.574510e-09	3.499231e+01	5.624602e+02
1.890000e-06	4.898584e-06	8.552409e-09	3.468834e+01	5.598551e+02
1.900000e-06	4.853993e-06	8.480211e-09	3.437258e+01	5.570493e+02
1.910000e-06	4.807657e-06	8.456360e-09	3.404446e+01	5.540692e+02
1.920000e-06	4.759281e-06	8.402060e-09	3.370189e+01	5.509448e+02
1.930000e-06	4.709194e-06	8.353845e-09	3.334721e+01	5.477029e+02
1.940000e-06	4.657408e-06	8.350334e-09	3.298050e+01	5.443634e+02
1.950000e-06	4.603576e-06	8.261198e-09	3.259930e+01	5.409358e+02
1.960000e-06	4.547753e-06	8.180157e-09	3.220401e+01	5.374199e+02
1.970000e-06	4.490130e-06	8.131544e-09	3.179596e+01	5.338075e+02
1.980000e-06	4.431080e-06	8.093309e-09	3.137781e+01	5.300855e+02
1.990000e-06	4.370620e-06	8.048786e-09	3.094967e+01	5.262406e+02
2.000000e-06	4.308440e-06	7.966145e-09	3.050936e+01	5.222618e+02
2.010000e-06	4.244610e-06	7.916025e-09	3.005735e+01	5.181432e+02
2.020000e-06	4.179256e-06	7.845987e-09	2.959457e+01	5.138841e+02
2.030000e-06	4.112461e-06	7.763131e-09	2.912157e+01	5.094882e+02
2.040000e-06	4.044173e-06	7.710999e-09	2.863800e+01	5.049617e+02
2.050000e-06	3.974336e-06	7.649454e-09	2.814346e+01	5.003107e+02
2.060000e-06	3.903032e-06	7.570862e-09	2.763854e+01	4.955390e+02
2.070000e-06	3.830372e-06	7.480507e-09	2.712401e+01	4.906472e+02
2.080000e-06	3.756419e-06	7.414199e-09	2.660033e+01	4.856320e+02
2.090000e-06	3.681032e-06	7.347728e-09	2.606649e+01	4.804873e+02
2.100000e-06	3.604116e-06	7.259360e-09	2.552183e+01	4.752054e+02
2.110000e-06	3.525709e-06	7.165855e-09	2.496660e+01	4.697793e+02
2.120000e-06	3.445966e-06	7.082460e-09	2.440192e+01	4.642035e+02
2.130000e-06	3.365087e-06	7.002327e-09	2.382919e+01	4.584753e+02
2.140000e-06	3.283077e-06	6.909574e-09	2.324845e+01	4.525952e+02
2.150000e-06	3.199985e-06	6.824596e-09	2.266005e+01	4.465658e+02
2.160000e-06	3.115841e-06	6.732344e-09	2.206420e+01	4.403911e+02
2.170000e-06	3.030453e-06	6.631557e-09	2.145955e+01	4.340749e+02
2.180000e-06	2.943783e-06	6.529500e-09	2.084581e+01	4.276199e+02
2.190000e-06	2.855967e-06	6.433028e-09	2.022396e+01	4.210264e+02
2.200000e-06	2.767198e-06	6.342653e-09	1.959536e+01	4.142927e+02
2.210000e-06	2.677483e-06	6.239194e-09	1.896006e+01	4.074142e+02
2.220000e-06	2.586846e-06	6.125665e-09	1.831824e+01	4.003851e+02
2.230000e-06	2.495382e-06	6.010649e-09	1.767055e+01	3.931985e+02
2.240000e-06	2.403076e-06	5.899953e-09	1.701690e+01	3.858475e+02
2.250000e-06	2.309884e-06	5.787280e-09	1.635698e+01	3.783262e+02
2.260000e-06	2.215817e-06	5.670720e-09	1.569086e+01	3.706297e+02
2.270000e-06	2.120824e-06	5.549780e-09	1.501819e+01	3.627552e+02
2.280000e-06	2.024861e-06	5.429780e-09	1.433865e+01	3.547012e+02
2.290000e-06	1.928172e-06	5.305774e-09	1.365397e+01	3.464675e+02
2.300000e-06	1.830980e-06	5.177143e-09	1.296572e+01	3.380548e+02
2.310000e-06	1.733265e-06	5.049485e-09	1.227377e+01	3.294636e+02
2.320000e-06	1.634976e-06	4.913644e-09	1.157775e+01	3.206937e+02
2.330000e-06	1.536144e-06	4.772715e-09	1.087790e+01	3.117432e+02
2.340000e-06	1.436832e-06	4.631987e-09	1.017464e+01	3.026080e+02
2.350000e-06	1.337089e-06	4.492928e-09	9.468325e+00	2.932817e+02
2.360000e-06	1.236983e-06	4.352832e-09	8.759448e+00	2.837556e+02
2.370000e-06	1.136574e-06	4.207448e-09	8.048423e+00	2.740196e+02
2.380000e-06	1.035782e-06	4.055033e-09	7.334682e+00	2.640632e+02
2.390000e-06	9.345838e-07	3.901345e-09	6.618069e+00	2.538768e+02
2.400000e-06	8.330307e-07	3.747234e-09	5.898940e+00	2.434529e+02
2.410000e-06	7.311371e-07	3.588156e-09	5.177402e+00	2.327874e+02
2.420000e-06	6.288565e-07	3.420796e-09	4.453122e+00	2.218794e+02
2.430000e-06	5.262228e-07	3.247168e-09	3.726342e+00	2.107310e+02
2.440000e-06	4.234186e-07	3.073734e-09	2.998354e+00	1.993460e+02
2.450000e-06	3.204730e-07	2.898960e-09	2.269366e+00	1.877282e+02
2.460000e-06	2.172830e-07	2.720874e-09	1.538646e+00	1.758794e+02
2.470000e-06	1.138863e-07	2.540247e-09	8.064631e-01	1.637974e+02
2.480000e-06	1.045225e-08	2.352952e-09	7.401552e-02	1.514753e+02
2.490000e-06	-9.292735e-08	2.158350e-09	-6.580465e-01	1.389005e+02
2.500000e-06	-1.962488e-07	1.960097e-09	-1.389697e+00	1.260562e+02
2.510000e-06	-2.995341e-07	1.759931e-09	-2.121091e+00	1.129222e+02
2.520000e-06	-4.027399e-07	1.555793e-09	-2.851922e+00	9.947769e+01
2.530000e-06	-5.057693e-07	1.345285e-09	-3.581504e+00	8.570269e+01
2.540000e-06	-6.086191e-07	1.130921e-09	-4.309815e+00	7.158034e+01
2.550000e-06	-7.111553e-07	9.109257e-10	-5.035904e+00	5.709792e+01
2.560000e-06	-8.132523e-07	6.819174e-10	-5.758884e+00	4.224738e+01
2.570000e-06	-9.149479e-07	4.473096e-10	-6.479021e+00	2.702535e+01
2.580000e-06	-1.016157e-06	2.090794e-10	-7.195716e+00	1.143283e+01
2.590000e-06	-1.116926e-06	-3.484750e-11	-7.909290e+00	-4.524773e+00
2.600000e-06	-1.217330e-06	-2.840034e-10	-8.620281e+00	-2.083719e+01
2.610000e-06	-1.317326e-06	-5.370668e-10	-9.328379e+00	-3.748811e+01
2.620000e-06	-1.416854e-06	-7.961937e-10	-1.003317e+01	-5.445340e+01
2.630000e-06	-1.515868e-06	-1.062098e-09	-1.073432e+01	-7.169909e+01
2.640000e-06	-1.614398e-06	-1.332896e-09	-1.143204e+01	-8.917971e+01
2.650000e-06	-1.712398e-06	-1.605764e-09	-1.212601e+01	-1.068375e+02
2.660000e-06	-1.809752e-06	-1.879402e-09	-1.281540e+01	-1.246030e+02
2.670000e-06	-1.906469e-06	-2.152922e-09	-1.350028e+01	-1.423972e+02
2.680000e-06	-2.002663e-06	-2.422500e-09	-1.418146e+01	-1.601356e+02
2.690000e-06	-2.098327e-06	-2.690082e-09	-1.485888e+01	-1.777325e+02
2.700000e-06	-2.193233e-06	-2.956829e-09	-1.553094e+01	-1.951063e+02
2.710000e-06	-2.287077e-06	-3.220336e-09	-1.619548e+01	-2.121841e+02
2.720000e-06	-2.379885e-06	-3.477295e-09	-1.685268e+01	-2.289046e+02
2.730000e-06	-2.471851e-06	-3.726684e-09	-1.750392e+01	-2.452203e+02
2.740000e-06	-2.562964e-06	-3.969932e-09	-1.814912e+01	-2.610971e+02
2.750000e-06	-2.653100e-06	-4.205575e-09	-1.878739e+01	-2.765124e+02
2.760000e-06	-2.742228e-06	-4.435688e-09	-1.941854e+01	-2.914531e+02
2.770000e-06	-2.830562e-06	-4.659957e-09	-2.004406e+01	-3.059119e+02
2.780000e-06	-2.918196e-06	-4.875781e-09	-2.066462e+01	-3.198857e+02
2.790000e-06	-3.004693e-06	-5.081774e-09	-2.127713e+01	-3.333737e+02
2.800000e-06	-3.089847e-06	-5.280536e-09	-2.188013e+01	-3.463765e+02
2.810000e-06	-3.173896e-06	-5.472491e-09	-2.247531e+01	-3.588969e+02
2.820000e-06	-3.256933e-06	-5.655266e-09	-2.306332e+01	-3.709401e+02
2.830000e-06	-3.338887e-06	-5.830949e-09	-2.364366e+01	-3.825142e+02
2.840000e-06	-3.419756e-06	-5.999744e-09	-2.421632e+01	-3.936305e+02
2.850000e-06	-3.499505e-06	-6.162729e-09	-2.478104e+01	-4.043026e+02
2.860000e-06	-3.577832e-06	-6.319288e-09	-2.533570e+01	-4.145449e+02
2.870000e-06	-3.654625e-06	-6.469471e-09	-2.587950e+01	-4.243713e+02
2.880000e-06	-3.729963e-06	-6.614223e-09	-2.641299e+01	-4.337931e+02
2.890000e-06	-3.803890e-06	-6.752442e-09	-2.693649e+01	-4.428187e+02
2.900000e-06	-3.876524e-06	-6.885602e-09	-2.745083e+01	-4.514531e+02
2.910000e-06	-3.947847e-06	-7.014223e-09	-2.795589e+01	-4.596999e+02
2.920000e-06	-4.017601e-06	-7.136672e-09	-2.844984e+01	-4.675626e+02
2.930000e-06	-4.085778e-06	-7.252803e-09	-2.893262e+01	-4.750474e+02
2.940000e-06	-4.152512e-06	-7.362692e-09	-2.940519e+01	-4.821650e+02
