# Temperatura_=_61.32
# Concentracion g/m^3_=_15000.0
# C_Vs_to_Am_M_A/Vsm_=_65563218390.804596
# pendiente_HvsI_1/m_=_3716.3
# ordenada_HvsI_A/m_=_1297.0
# frecuencia_Hz_=_301597.307097734

Tiempo_(s)	Campo_(V.s)	Magnetizacion_(V.s)	Campo_(kA/m)	Magnetizacion_(A/m)
0.000000e+00	-5.397436e-06	-8.872397e-09	-3.833425e+01	-5.790179e+02
1.000000e-08	-5.394908e-06	-8.869664e-09	-3.831629e+01	-5.787898e+02
2.000000e-08	-5.390543e-06	-8.863680e-09	-3.828529e+01	-5.784691e+02
3.000000e-08	-5.384531e-06	-8.858907e-09	-3.824259e+01	-5.780478e+02
4.000000e-08	-5.376879e-06	-8.849964e-09	-3.818824e+01	-5.775143e+02
5.000000e-08	-5.367473e-06	-8.835105e-09	-3.812144e+01	-5.768563e+02
6.000000e-08	-5.356109e-06	-8.817073e-09	-3.804073e+01	-5.760649e+02
7.000000e-08	-5.342829e-06	-8.794609e-09	-3.794641e+01	-5.751379e+02
8.000000e-08	-5.327469e-06	-8.799415e-09	-3.783732e+01	-5.740817e+02
9.000000e-08	-5.309803e-06	-8.831638e-09	-3.771185e+01	-5.729114e+02
1.000000e-07	-5.290026e-06	-8.802077e-09	-3.757139e+01	-5.716487e+02
1.100000e-07	-5.268354e-06	-8.752201e-09	-3.741747e+01	-5.703183e+02
1.200000e-07	-5.244945e-06	-8.699096e-09	-3.725121e+01	-5.689434e+02
1.300000e-07	-5.219987e-06	-8.598499e-09	-3.707395e+01	-5.675407e+02
1.400000e-07	-5.193450e-06	-8.669694e-09	-3.688547e+01	-5.661172e+02
1.500000e-07	-5.165331e-06	-8.716344e-09	-3.668577e+01	-5.646681e+02
1.600000e-07	-5.135717e-06	-8.573193e-09	-3.647544e+01	-5.631773e+02
1.700000e-07	-5.104473e-06	-8.627495e-09	-3.625353e+01	-5.616195e+02
1.800000e-07	-5.071109e-06	-8.587447e-09	-3.601657e+01	-5.599642e+02
1.900000e-07	-5.035816e-06	-8.430842e-09	-3.576591e+01	-5.581807e+02
2.000000e-07	-4.999137e-06	-8.518906e-09	-3.550541e+01	-5.562421e+02
2.100000e-07	-4.960745e-06	-8.472196e-09	-3.523273e+01	-5.541290e+02
2.200000e-07	-4.920528e-06	-8.350133e-09	-3.494710e+01	-5.518313e+02
2.300000e-07	-4.878403e-06	-8.401726e-09	-3.464792e+01	-5.493487e+02
2.400000e-07	-4.834289e-06	-8.375564e-09	-3.433461e+01	-5.466890e+02
2.500000e-07	-4.788428e-06	-8.308149e-09	-3.400888e+01	-5.438653e+02
2.600000e-07	-4.740668e-06	-8.247773e-09	-3.366968e+01	-5.408934e+02
2.700000e-07	-4.690821e-06	-8.166314e-09	-3.331565e+01	-5.377888e+02
2.800000e-07	-4.638896e-06	-8.135313e-09	-3.294686e+01	-5.345640e+02
2.900000e-07	-4.585099e-06	-8.086709e-09	-3.256478e+01	-5.312280e+02
3.000000e-07	-4.529705e-06	-8.042385e-09	-3.217136e+01	-5.277852e+02
3.100000e-07	-4.472677e-06	-8.006689e-09	-3.176632e+01	-5.242363e+02
3.200000e-07	-4.413858e-06	-7.948718e-09	-3.134857e+01	-5.205794e+02
3.300000e-07	-4.353366e-06	-7.868316e-09	-3.091894e+01	-5.168111e+02
3.400000e-07	-4.291427e-06	-7.796197e-09	-3.047903e+01	-5.129274e+02
3.500000e-07	-4.228101e-06	-7.770042e-09	-3.002927e+01	-5.089248e+02
3.600000e-07	-4.163246e-06	-7.697317e-09	-2.956865e+01	-5.048005e+02
3.700000e-07	-4.096639e-06	-7.609057e-09	-2.909559e+01	-5.005524e+02
3.800000e-07	-4.028474e-06	-7.566648e-09	-2.861146e+01	-4.961789e+02
3.900000e-07	-3.959036e-06	-7.500649e-09	-2.811829e+01	-4.916789e+02
4.000000e-07	-3.888352e-06	-7.414016e-09	-2.761627e+01	-4.870509e+02
4.100000e-07	-3.816452e-06	-7.334132e-09	-2.710561e+01	-4.822934e+02
4.200000e-07	-3.743096e-06	-7.273454e-09	-2.658462e+01	-4.774048e+02
4.300000e-07	-3.668113e-06	-7.202571e-09	-2.605207e+01	-4.723829e+02
4.400000e-07	-3.591641e-06	-7.120422e-09	-2.550894e+01	-4.672257e+02
4.500000e-07	-3.513726e-06	-7.046282e-09	-2.495556e+01	-4.619312e+02
4.600000e-07	-3.434393e-06	-6.965101e-09	-2.439211e+01	-4.564976e+02
4.700000e-07	-3.353720e-06	-6.870037e-09	-2.381915e+01	-4.509235e+02
4.800000e-07	-3.271880e-06	-6.768670e-09	-2.323790e+01	-4.452077e+02
4.900000e-07	-3.188947e-06	-6.688072e-09	-2.264888e+01	-4.393497e+02
5.000000e-07	-3.105010e-06	-6.609165e-09	-2.205273e+01	-4.333492e+02
5.100000e-07	-3.020145e-06	-6.509247e-09	-2.144999e+01	-4.272062e+02
5.200000e-07	-2.934309e-06	-6.406235e-09	-2.084036e+01	-4.209207e+02
5.300000e-07	-2.847482e-06	-6.307840e-09	-2.022369e+01	-4.144923e+02
5.400000e-07	-2.759729e-06	-6.208229e-09	-1.960044e+01	-4.079198e+02
5.500000e-07	-2.670989e-06	-6.104298e-09	-1.897019e+01	-4.012012e+02
5.600000e-07	-2.581038e-06	-5.997224e-09	-1.833132e+01	-3.943333e+02
5.700000e-07	-2.489969e-06	-5.890472e-09	-1.768453e+01	-3.873119e+02
5.800000e-07	-2.398037e-06	-5.780933e-09	-1.703160e+01	-3.801321e+02
5.900000e-07	-2.305323e-06	-5.670788e-09	-1.637311e+01	-3.727892e+02
6.000000e-07	-2.211768e-06	-5.558797e-09	-1.570865e+01	-3.652788e+02
6.100000e-07	-2.117436e-06	-5.438985e-09	-1.503868e+01	-3.575977e+02
6.200000e-07	-2.022389e-06	-5.314231e-09	-1.436363e+01	-3.497442e+02
6.300000e-07	-1.926623e-06	-5.189904e-09	-1.368347e+01	-3.417180e+02
6.400000e-07	-1.830185e-06	-5.069037e-09	-1.299854e+01	-3.335194e+02
6.500000e-07	-1.733069e-06	-4.945082e-09	-1.230879e+01	-3.251488e+02
6.600000e-07	-1.635191e-06	-4.809654e-09	-1.161363e+01	-3.166057e+02
6.700000e-07	-1.536546e-06	-4.668036e-09	-1.091302e+01	-3.078875e+02
6.800000e-07	-1.437270e-06	-4.530033e-09	-1.020793e+01	-2.989890e+02
6.900000e-07	-1.337550e-06	-4.394452e-09	-9.499694e+00	-2.899027e+02
7.000000e-07	-1.237483e-06	-4.257879e-09	-8.788983e+00	-2.806193e+02
7.100000e-07	-1.137067e-06	-4.114434e-09	-8.075796e+00	-2.711287e+02
7.200000e-07	-1.036319e-06	-3.960408e-09	-7.360253e+00	-2.614214e+02
7.300000e-07	-9.352354e-07	-3.803368e-09	-6.642329e+00	-2.514902e+02
7.400000e-07	-8.337843e-07	-3.646070e-09	-5.921792e+00	-2.413303e+02
7.500000e-07	-7.320033e-07	-3.487556e-09	-5.198912e+00	-2.309404e+02
7.600000e-07	-6.299929e-07	-3.324078e-09	-4.474403e+00	-2.203213e+02
7.700000e-07	-5.277419e-07	-3.153571e-09	-3.748185e+00	-2.094749e+02
7.800000e-07	-4.253670e-07	-2.982451e-09	-3.021087e+00	-1.984022e+02
7.900000e-07	-3.229551e-07	-2.812590e-09	-2.293726e+00	-1.871022e+02
8.000000e-07	-2.204337e-07	-2.638552e-09	-1.565588e+00	-1.755700e+02
8.100000e-07	-1.177563e-07	-2.457490e-09	-8.363411e-01	-1.637968e+02
8.200000e-07	-1.496598e-08	-2.271770e-09	-1.062930e-01	-1.517701e+02
8.300000e-07	8.780896e-08	-2.083655e-09	6.236462e-01	-1.394750e+02
8.400000e-07	1.905332e-07	-1.893385e-09	1.353225e+00	-1.268958e+02
8.500000e-07	2.932474e-07	-1.697939e-09	2.082733e+00	-1.140176e+02
8.600000e-07	3.959178e-07	-1.497277e-09	2.811929e+00	-1.008277e+02
8.700000e-07	4.984385e-07	-1.288955e-09	3.540063e+00	-8.731613e+01
8.800000e-07	6.008166e-07	-1.075639e-09	4.267184e+00	-7.347528e+01
8.900000e-07	7.030392e-07	-8.617070e-10	4.993200e+00	-5.929921e+01
9.000000e-07	8.050187e-07	-6.449502e-10	5.717490e+00	-4.478269e+01
9.100000e-07	9.066786e-07	-4.225552e-10	6.439510e+00	-2.992055e+01
9.200000e-07	1.008011e-06	-1.917564e-10	7.159207e+00	-1.470786e+01
9.300000e-07	1.108994e-06	4.682247e-11	7.876413e+00	8.587959e-01
9.400000e-07	1.209577e-06	2.919485e-10	8.590788e+00	1.677898e+01
9.500000e-07	1.309779e-06	5.391951e-10	9.302455e+00	3.304536e+01
9.600000e-07	1.409600e-06	7.891965e-10	1.001141e+01	4.964043e+01
9.700000e-07	1.508962e-06	1.044369e-09	1.071711e+01	6.653389e+01
9.800000e-07	1.607664e-06	1.303646e-09	1.141812e+01	8.368118e+01
9.900000e-07	1.705558e-06	1.565767e-09	1.211339e+01	1.010237e+02
1.000000e-06	1.802661e-06	1.826633e-09	1.280305e+01	1.184910e+02
1.010000e-06	1.899009e-06	2.088092e-09	1.348735e+01	1.360042e+02
1.020000e-06	1.994605e-06	2.352938e-09	1.416630e+01	1.534806e+02
1.030000e-06	2.089485e-06	2.620612e-09	1.484017e+01	1.708388e+02
1.040000e-06	2.183649e-06	2.886479e-09	1.550894e+01	1.880027e+02
1.050000e-06	2.277063e-06	3.143909e-09	1.617240e+01	2.049045e+02
1.060000e-06	2.369785e-06	3.394029e-09	1.683094e+01	2.214867e+02
1.070000e-06	2.461817e-06	3.638378e-09	1.748458e+01	2.377022e+02
1.080000e-06	2.553044e-06	3.877901e-09	1.813250e+01	2.535133e+02
1.090000e-06	2.643264e-06	4.110951e-09	1.877327e+01	2.688904e+02
1.100000e-06	2.732332e-06	4.336660e-09	1.940586e+01	2.838104e+02
1.110000e-06	2.820368e-06	4.553491e-09	2.003112e+01	2.982559e+02
1.120000e-06	2.907473e-06	4.762398e-09	2.064977e+01	3.122147e+02
1.130000e-06	2.993594e-06	4.967013e-09	2.126143e+01	3.256797e+02
1.140000e-06	3.078699e-06	5.166714e-09	2.186587e+01	3.386496e+02
1.150000e-06	3.162856e-06	5.357089e-09	2.246357e+01	3.511286e+02
1.160000e-06	3.246136e-06	5.539550e-09	2.305505e+01	3.631263e+02
1.170000e-06	3.328357e-06	5.715774e-09	2.363901e+01	3.746564e+02
1.180000e-06	3.409242e-06	5.884450e-09	2.421348e+01	3.857350e+02
1.190000e-06	3.488848e-06	6.046421e-09	2.477887e+01	3.963778e+02
1.200000e-06	3.567268e-06	6.201267e-09	2.533583e+01	4.065987e+02
1.210000e-06	3.644419e-06	6.350107e-09	2.588378e+01	4.164076e+02
1.220000e-06	3.720278e-06	6.493191e-09	2.642256e+01	4.258104e+02
1.230000e-06	3.794610e-06	6.632026e-09	2.695049e+01	4.348093e+02
1.240000e-06	3.867260e-06	6.764414e-09	2.746647e+01	4.434052e+02
1.250000e-06	3.938489e-06	6.888910e-09	2.797236e+01	4.515994e+02
1.260000e-06	4.008378e-06	7.005146e-09	2.846873e+01	4.593971e+02
1.270000e-06	4.076882e-06	7.115744e-09	2.895527e+01	4.668087e+02
1.280000e-06	4.144009e-06	7.221751e-09	2.943202e+01	4.738510e+02
1.290000e-06	4.209491e-06	7.320025e-09	2.989710e+01	4.805469e+02
1.300000e-06	4.273292e-06	7.412205e-09	3.035023e+01	4.869232e+02
1.310000e-06	4.335639e-06	7.502116e-09	3.079304e+01	4.930087e+02
1.320000e-06	4.396578e-06	7.591250e-09	3.122585e+01	4.988307e+02
1.330000e-06	4.456174e-06	7.678359e-09	3.164912e+01	5.044127e+02
1.340000e-06	4.514197e-06	7.762706e-09	3.206121e+01	5.097724e+02
1.350000e-06	4.570354e-06	7.843511e-09	3.246006e+01	5.149212e+02
1.360000e-06	4.624785e-06	7.917121e-09	3.284664e+01	5.198647e+02
1.370000e-06	4.677564e-06	7.985182e-09	3.322150e+01	5.246040e+02
1.380000e-06	4.728417e-06	8.050426e-09	3.358267e+01	5.291374e+02
1.390000e-06	4.777189e-06	8.114468e-09	3.392906e+01	5.334625e+02
1.400000e-06	4.824143e-06	8.176481e-09	3.426255e+01	5.375770e+02
1.410000e-06	4.869519e-06	8.233209e-09	3.458482e+01	5.414798e+02
1.420000e-06	4.913391e-06	8.287904e-09	3.489641e+01	5.451710e+02
1.430000e-06	4.955455e-06	8.342372e-09	3.519517e+01	5.486515e+02
1.440000e-06	4.995580e-06	8.395476e-09	3.548015e+01	5.519227e+02
1.450000e-06	5.034006e-06	8.444729e-09	3.575305e+01	5.549863e+02
1.460000e-06	5.070831e-06	8.488397e-09	3.601460e+01	5.578444e+02
1.470000e-06	5.106012e-06	8.524820e-09	3.626447e+01	5.605001e+02
1.480000e-06	5.139297e-06	8.555804e-09	3.650086e+01	5.629583e+02
1.490000e-06	5.170682e-06	8.584833e-09	3.672377e+01	5.652258e+02
1.500000e-06	5.200351e-06	8.611917e-09	3.693449e+01	5.673117e+02
1.510000e-06	5.228325e-06	8.639044e-09	3.713317e+01	5.692267e+02
1.520000e-06	5.254374e-06	8.665385e-09	3.731818e+01	5.709819e+02
1.530000e-06	5.278342e-06	8.690576e-09	3.748841e+01	5.725872e+02
1.540000e-06	5.300405e-06	8.712853e-09	3.764510e+01	5.740499e+02
1.550000e-06	5.320701e-06	8.731522e-09	3.778925e+01	5.753734e+02
1.560000e-06	5.339118e-06	8.748392e-09	3.792006e+01	5.765571e+02
1.570000e-06	5.355524e-06	8.761649e-09	3.803657e+01	5.775972e+02
1.580000e-06	5.369989e-06	8.772696e-09	3.813931e+01	5.784885e+02
1.590000e-06	5.382528e-06	8.781690e-09	3.822837e+01	5.792264e+02
1.600000e-06	5.392891e-06	8.789611e-09	3.830197e+01	5.798097e+02
1.610000e-06	5.401061e-06	8.796790e-09	3.836000e+01	5.802414e+02
1.620000e-06	5.407298e-06	8.801217e-09	3.840429e+01	5.805298e+02
1.630000e-06	5.411800e-06	8.806504e-09	3.843627e+01	5.806872e+02
1.640000e-06	5.414493e-06	8.811749e-09	3.845539e+01	5.807276e+02
1.650000e-06	5.415142e-06	8.813978e-09	3.846000e+01	5.806645e+02
1.660000e-06	5.413848e-06	8.810064e-09	3.845081e+01	5.805072e+02
1.670000e-06	5.410863e-06	8.804767e-09	3.842961e+01	5.802592e+02
1.680000e-06	5.406285e-06	8.800707e-09	3.839710e+01	5.799174e+02
1.690000e-06	5.399821e-06	8.791946e-09	3.835118e+01	5.794728e+02
1.700000e-06	5.391462e-06	8.781092e-09	3.829182e+01	5.789131e+02
1.710000e-06	5.381502e-06	8.772613e-09	3.822108e+01	5.782267e+02
1.720000e-06	5.369881e-06	8.773221e-09	3.813854e+01	5.774057e+02
1.730000e-06	5.356334e-06	8.756704e-09	3.804233e+01	5.764498e+02
1.740000e-06	5.340721e-06	8.682418e-09	3.793144e+01	5.753672e+02
1.750000e-06	5.322771e-06	8.664841e-09	3.780395e+01	5.741747e+02
1.760000e-06	5.302074e-06	8.671299e-09	3.765696e+01	5.728950e+02
1.770000e-06	5.278997e-06	8.690749e-09	3.749306e+01	5.715529e+02
1.780000e-06	5.254591e-06	8.750736e-09	3.731972e+01	5.701704e+02
1.790000e-06	5.229508e-06	8.599320e-09	3.714157e+01	5.687627e+02
1.800000e-06	5.203118e-06	8.545223e-09	3.695414e+01	5.673341e+02
1.810000e-06	5.174456e-06	8.639428e-09	3.675057e+01	5.658774e+02
1.820000e-06	5.143900e-06	8.518409e-09	3.653356e+01	5.643742e+02
1.830000e-06	5.111745e-06	8.576600e-09	3.630518e+01	5.627977e+02
1.840000e-06	5.077614e-06	8.647725e-09	3.606277e+01	5.611171e+02
1.850000e-06	5.041818e-06	8.472892e-09	3.580854e+01	5.593020e+02
1.860000e-06	5.004297e-06	8.530788e-09	3.554205e+01	5.573269e+02
1.870000e-06	4.964869e-06	8.525966e-09	3.526203e+01	5.551743e+02
1.880000e-06	4.923830e-06	8.356745e-09	3.497055e+01	5.528364e+02
1.890000e-06	4.881003e-06	8.393780e-09	3.466638e+01	5.503145e+02
1.900000e-06	4.836472e-06	8.339680e-09	3.435011e+01	5.476180e+02
1.910000e-06	4.790189e-06	8.316767e-09	3.402139e+01	5.447608e+02
1.920000e-06	4.741851e-06	8.317254e-09	3.367808e+01	5.417588e+02
1.930000e-06	4.691827e-06	8.181861e-09	3.332279e+01	5.386271e+02
1.940000e-06	4.640159e-06	8.211736e-09	3.295583e+01	5.353775e+02
1.950000e-06	4.586450e-06	8.142675e-09	3.257438e+01	5.320179e+02
1.960000e-06	4.530683e-06	8.017403e-09	3.217830e+01	5.285520e+02
1.970000e-06	4.473155e-06	8.004540e-09	3.176972e+01	5.249798e+02
1.980000e-06	4.414169e-06	7.961795e-09	3.135078e+01	5.212990e+02
1.990000e-06	4.353702e-06	7.935992e-09	3.092133e+01	5.175058e+02
2.000000e-06	4.291518e-06	7.820607e-09	3.047968e+01	5.135965e+02
2.010000e-06	4.227688e-06	7.775984e-09	3.002634e+01	5.095677e+02
2.020000e-06	4.162408e-06	7.747704e-09	2.956270e+01	5.054166e+02
2.030000e-06	4.095740e-06	7.606184e-09	2.908920e+01	5.011413e+02
2.040000e-06	4.027668e-06	7.580441e-09	2.860573e+01	4.967404e+02
2.050000e-06	3.958052e-06	7.540050e-09	2.811130e+01	4.922127e+02
2.060000e-06	3.886830e-06	7.461172e-09	2.760546e+01	4.875567e+02
2.070000e-06	3.814223e-06	7.363607e-09	2.708978e+01	4.827708e+02
2.080000e-06	3.740355e-06	7.269298e-09	2.656515e+01	4.778534e+02
2.090000e-06	3.665108e-06	7.235390e-09	2.603072e+01	4.728023e+02
2.100000e-06	3.588454e-06	7.138601e-09	2.548630e+01	4.676155e+02
2.110000e-06	3.510235e-06	7.048552e-09	2.493076e+01	4.622909e+02
2.120000e-06	3.430599e-06	6.979992e-09	2.436517e+01	4.568269e+02
2.130000e-06	3.349877e-06	6.902662e-09	2.379186e+01	4.512221e+02
2.140000e-06	3.268020e-06	6.801868e-09	2.321048e+01	4.454754e+02
2.150000e-06	3.185032e-06	6.697192e-09	2.262108e+01	4.395865e+02
2.160000e-06	3.101058e-06	6.627291e-09	2.202467e+01	4.335550e+02
2.170000e-06	3.016085e-06	6.533951e-09	2.142116e+01	4.273811e+02
2.180000e-06	2.929762e-06	6.435825e-09	2.080807e+01	4.210647e+02
2.190000e-06	2.842122e-06	6.338200e-09	2.018562e+01	4.146051e+02
2.200000e-06	2.753497e-06	6.246887e-09	1.955618e+01	4.080011e+02
2.210000e-06	2.663961e-06	6.146661e-09	1.892027e+01	4.012504e+02
2.220000e-06	2.573501e-06	6.027534e-09	1.827780e+01	3.943496e+02
2.230000e-06	2.482148e-06	5.919052e-09	1.762898e+01	3.872942e+02
2.240000e-06	2.390055e-06	5.810297e-09	1.697491e+01	3.800795e+02
2.250000e-06	2.297259e-06	5.702209e-09	1.631584e+01	3.727006e+02
2.260000e-06	2.203586e-06	5.588348e-09	1.565055e+01	3.651534e+02
2.270000e-06	2.108821e-06	5.472413e-09	1.497749e+01	3.574351e+02
2.280000e-06	2.013057e-06	5.353680e-09	1.429735e+01	3.495442e+02
2.290000e-06	1.916604e-06	5.226821e-09	1.361231e+01	3.414806e+02
2.300000e-06	1.819635e-06	5.099357e-09	1.292361e+01	3.332447e+02
2.310000e-06	1.722172e-06	4.974311e-09	1.223139e+01	3.248369e+02
2.320000e-06	1.624153e-06	4.846601e-09	1.153523e+01	3.162561e+02
2.330000e-06	1.525598e-06	4.711502e-09	1.083526e+01	3.074993e+02
2.340000e-06	1.426531e-06	4.575830e-09	1.013166e+01	2.985609e+02
2.350000e-06	1.326988e-06	4.435773e-09	9.424679e+00	2.894328e+02
2.360000e-06	1.227114e-06	4.295139e-09	8.715339e+00	2.801055e+02
2.370000e-06	1.127004e-06	4.153083e-09	8.004331e+00	2.705688e+02
2.380000e-06	1.026654e-06	4.005214e-09	7.291610e+00	2.608136e+02
2.390000e-06	9.259600e-07	3.855538e-09	6.576452e+00	2.508332e+02
2.400000e-06	8.248411e-07	3.703458e-09	5.858275e+00	2.406238e+02
2.410000e-06	7.233128e-07	3.546094e-09	5.137189e+00	2.301842e+02
2.420000e-06	6.214090e-07	3.380510e-09	4.413438e+00	2.195158e+02
2.430000e-06	5.192108e-07	3.212631e-09	3.687594e+00	2.086204e+02
2.440000e-06	4.167795e-07	3.046702e-09	2.960096e+00	1.974988e+02
2.450000e-06	3.141769e-07	2.877505e-09	2.231381e+00	1.861492e+02
2.460000e-06	2.113862e-07	2.701239e-09	1.501330e+00	1.745658e+02
2.470000e-06	1.084026e-07	2.523551e-09	7.699085e-01	1.627391e+02
2.480000e-06	5.349883e-09	2.339979e-09	3.799651e-02	1.506558e+02
2.490000e-06	-9.773992e-08	2.149035e-09	-6.941789e-01	1.383007e+02
2.500000e-06	-2.008297e-07	1.955881e-09	-1.426354e+00	1.256582e+02
2.510000e-06	-3.038165e-07	1.760086e-09	-2.157798e+00	1.127138e+02
2.520000e-06	-4.066994e-07	1.558517e-09	-2.888504e+00	9.945530e+01
2.530000e-06	-5.094333e-07	1.348790e-09	-3.618152e+00	8.587333e+01
2.540000e-06	-6.118934e-07	1.137606e-09	-4.345855e+00	7.196070e+01
2.550000e-06	-7.139929e-07	9.234042e-10	-5.070997e+00	5.771171e+01
2.560000e-06	-8.157397e-07	6.978899e-10	-5.793634e+00	4.312116e+01
2.570000e-06	-9.171148e-07	4.645121e-10	-6.513631e+00	2.818388e+01
2.580000e-06	-1.018006e-06	2.302531e-10	-7.230193e+00	1.289513e+01
2.590000e-06	-1.118450e-06	-5.410386e-12	-7.943578e+00	-2.747907e+00
2.600000e-06	-1.218537e-06	-2.476384e-10	-8.654423e+00	-1.874360e+01
2.610000e-06	-1.318240e-06	-4.966843e-10	-9.362542e+00	-3.508269e+01
2.620000e-06	-1.417496e-06	-7.533204e-10	-1.006749e+01	-5.174514e+01
2.630000e-06	-1.516278e-06	-1.017393e-09	-1.076907e+01	-6.869764e+01
2.640000e-06	-1.614544e-06	-1.283042e-09	-1.146699e+01	-8.589256e+01
2.650000e-06	-1.712180e-06	-1.548463e-09	-1.216043e+01	-1.032685e+02
2.660000e-06	-1.809179e-06	-1.815704e-09	-1.284935e+01	-1.207529e+02
2.670000e-06	-1.905623e-06	-2.084451e-09	-1.353432e+01	-1.382656e+02
2.680000e-06	-2.001563e-06	-2.350785e-09	-1.421572e+01	-1.557238e+02
2.690000e-06	-2.096964e-06	-2.614114e-09	-1.489328e+01	-1.730470e+02
2.700000e-06	-2.191485e-06	-2.875614e-09	-1.556460e+01	-1.901604e+02
2.710000e-06	-2.284857e-06	-3.135027e-09	-1.622776e+01	-2.069987e+02
2.720000e-06	-2.377236e-06	-3.390277e-09	-1.688386e+01	-2.235063e+02
2.730000e-06	-2.468814e-06	-3.638500e-09	-1.753427e+01	-2.396385e+02
2.740000e-06	-2.559588e-06	-3.878455e-09	-1.817898e+01	-2.553592e+02
2.750000e-06	-2.649400e-06	-4.111170e-09	-1.881685e+01	-2.706404e+02
2.760000e-06	-2.738257e-06	-4.338748e-09	-1.944794e+01	-2.854605e+02
2.770000e-06	-2.826345e-06	-4.560427e-09	-2.007357e+01	-2.998030e+02
2.780000e-06	-2.913636e-06	-4.774085e-09	-2.069354e+01	-3.136568e+02
2.790000e-06	-2.999819e-06	-4.978919e-09	-2.130564e+01	-3.270160e+02
2.800000e-06	-3.084660e-06	-5.176883e-09	-2.190820e+01	-3.398806e+02
2.810000e-06	-3.168358e-06	-5.367284e-09	-2.250265e+01	-3.522559e+02
2.820000e-06	-3.251085e-06	-5.548740e-09	-2.309020e+01	-3.641525e+02
2.830000e-06	-3.332762e-06	-5.723487e-09	-2.367030e+01	-3.755849e+02
2.840000e-06	-3.413380e-06	-5.890929e-09	-2.424287e+01	-3.865692e+02
2.850000e-06	-3.492897e-06	-6.050354e-09	-2.480763e+01	-3.971210e+02
2.860000e-06	-3.570993e-06	-6.201676e-09	-2.536229e+01	-4.072533e+02
2.870000e-06	-3.647488e-06	-6.347620e-09	-2.590558e+01	-4.169752e+02
2.880000e-06	-3.722529e-06	-6.489938e-09	-2.643855e+01	-4.262918e+02
2.890000e-06	-3.796165e-06	-6.627674e-09	-2.696153e+01	-4.352047e+02
2.900000e-06	-3.868479e-06	-6.761007e-09	-2.747513e+01	-4.437147e+02
2.910000e-06	-3.939497e-06	-6.889774e-09	-2.797951e+01	-4.518238e+02
2.920000e-06	-4.008915e-06	-7.011463e-09	-2.847254e+01	-4.595380e+02
2.930000e-06	-4.076816e-06	-7.125523e-09	-2.895480e+01	-4.668693e+02
2.940000e-06	-4.143362e-06	-7.233010e-09	-2.942743e+01	-4.738357e+02
