# Temperatura_=_48.0
# Concentracion g/m^3_=_15000.0
# C_Vs_to_Am_M_A/Vsm_=_65563218390.804596
# pendiente_HvsI_1/m_=_3716.3
# ordenada_HvsI_A/m_=_1297.0
# frecuencia_Hz_=_301599.7215947254

Tiempo_(s)	Campo_(V.s)	Magnetizacion_(V.s)	Campo_(kA/m)	Magnetizacion_(A/m)
0.000000e+00	-5.420610e-06	-8.439628e-09	-3.833653e+01	-5.508879e+02
1.000000e-08	-5.418247e-06	-8.438257e-09	-3.831982e+01	-5.506192e+02
2.000000e-08	-5.414081e-06	-8.431210e-09	-3.829035e+01	-5.502561e+02
3.000000e-08	-5.408295e-06	-8.425940e-09	-3.824943e+01	-5.498116e+02
4.000000e-08	-5.400884e-06	-8.418556e-09	-3.819702e+01	-5.492916e+02
5.000000e-08	-5.391657e-06	-8.405308e-09	-3.813176e+01	-5.486930e+02
6.000000e-08	-5.380325e-06	-8.388981e-09	-3.805162e+01	-5.480044e+02
7.000000e-08	-5.367085e-06	-8.365396e-09	-3.795798e+01	-5.472094e+02
8.000000e-08	-5.351855e-06	-8.357540e-09	-3.785027e+01	-5.462920e+02
9.000000e-08	-5.334312e-06	-8.405893e-09	-3.772620e+01	-5.452420e+02
1.000000e-07	-5.314660e-06	-8.385659e-09	-3.758722e+01	-5.440599e+02
1.100000e-07	-5.293126e-06	-8.320440e-09	-3.743492e+01	-5.427588e+02
1.200000e-07	-5.269824e-06	-8.290099e-09	-3.727012e+01	-5.413642e+02
1.300000e-07	-5.244862e-06	-8.174034e-09	-3.709357e+01	-5.399092e+02
1.400000e-07	-5.218285e-06	-8.203019e-09	-3.690562e+01	-5.384282e+02
1.500000e-07	-5.190183e-06	-8.333063e-09	-3.670687e+01	-5.369489e+02
1.600000e-07	-5.160601e-06	-8.144254e-09	-3.649765e+01	-5.354853e+02
1.700000e-07	-5.129506e-06	-8.148640e-09	-3.627773e+01	-5.340331e+02
1.800000e-07	-5.096306e-06	-8.194750e-09	-3.604293e+01	-5.325687e+02
1.900000e-07	-5.061083e-06	-7.999400e-09	-3.579382e+01	-5.310526e+02
2.000000e-07	-5.024439e-06	-8.128608e-09	-3.553466e+01	-5.294359e+02
2.100000e-07	-4.986091e-06	-8.157168e-09	-3.526346e+01	-5.276692e+02
2.200000e-07	-4.945891e-06	-7.962673e-09	-3.497914e+01	-5.257116e+02
2.300000e-07	-4.903733e-06	-7.976910e-09	-3.468099e+01	-5.235382e+02
2.400000e-07	-4.859579e-06	-7.950318e-09	-3.436872e+01	-5.211440e+02
2.500000e-07	-4.813678e-06	-7.888492e-09	-3.404409e+01	-5.185437e+02
2.600000e-07	-4.765956e-06	-7.897492e-09	-3.370658e+01	-5.157675e+02
2.700000e-07	-4.716140e-06	-7.816174e-09	-3.335426e+01	-5.128542e+02
2.800000e-07	-4.664186e-06	-7.757112e-09	-3.298683e+01	-5.098421e+02
2.900000e-07	-4.610332e-06	-7.696427e-09	-3.260595e+01	-5.067619e+02
3.000000e-07	-4.554912e-06	-7.658450e-09	-3.221400e+01	-5.036306e+02
3.100000e-07	-4.497794e-06	-7.647361e-09	-3.181004e+01	-5.004495e+02
3.200000e-07	-4.438807e-06	-7.609702e-09	-3.139286e+01	-4.972056e+02
3.300000e-07	-4.378248e-06	-7.536469e-09	-3.096457e+01	-4.938763e+02
3.400000e-07	-4.316218e-06	-7.433780e-09	-3.052587e+01	-4.904352e+02
3.500000e-07	-4.252828e-06	-7.422410e-09	-3.007755e+01	-4.868594e+02
3.600000e-07	-4.187884e-06	-7.386454e-09	-2.961824e+01	-4.831337e+02
3.700000e-07	-4.121172e-06	-7.291059e-09	-2.914643e+01	-4.792536e+02
3.800000e-07	-4.052953e-06	-7.234879e-09	-2.866396e+01	-4.752251e+02
3.900000e-07	-3.983329e-06	-7.169844e-09	-2.817156e+01	-4.710616e+02
4.000000e-07	-3.912460e-06	-7.105280e-09	-2.767034e+01	-4.667795e+02
4.100000e-07	-3.840319e-06	-7.046989e-09	-2.716013e+01	-4.623933e+02
4.200000e-07	-3.766627e-06	-6.993329e-09	-2.663896e+01	-4.579115e+02
4.300000e-07	-3.691380e-06	-6.915685e-09	-2.610678e+01	-4.533345e+02
4.400000e-07	-3.614696e-06	-6.813143e-09	-2.556445e+01	-4.486544e+02
4.500000e-07	-3.536553e-06	-6.735898e-09	-2.501179e+01	-4.438574e+02
4.600000e-07	-3.456895e-06	-6.682920e-09	-2.444842e+01	-4.389271e+02
4.700000e-07	-3.375957e-06	-6.626202e-09	-2.387600e+01	-4.338486e+02
4.800000e-07	-3.293884e-06	-6.535038e-09	-2.329555e+01	-4.286115e+02
4.900000e-07	-3.210703e-06	-6.439140e-09	-2.270726e+01	-4.232124e+02
5.000000e-07	-3.126564e-06	-6.360402e-09	-2.211220e+01	-4.176543e+02
5.100000e-07	-3.041481e-06	-6.271898e-09	-2.151046e+01	-4.119456e+02
5.200000e-07	-2.955461e-06	-6.183234e-09	-2.090210e+01	-4.060968e+02
5.300000e-07	-2.868468e-06	-6.094305e-09	-2.028685e+01	-4.001178e+02
5.400000e-07	-2.780432e-06	-5.992350e-09	-1.966423e+01	-3.940146e+02
5.500000e-07	-2.691355e-06	-5.887829e-09	-1.903424e+01	-3.877881e+02
5.600000e-07	-2.601098e-06	-5.792412e-09	-1.839591e+01	-3.814330e+02
5.700000e-07	-2.509762e-06	-5.708070e-09	-1.774995e+01	-3.749399e+02
5.800000e-07	-2.417594e-06	-5.609624e-09	-1.709811e+01	-3.682962e+02
5.900000e-07	-2.324592e-06	-5.499231e-09	-1.644036e+01	-3.614896e+02
6.000000e-07	-2.230809e-06	-5.388946e-09	-1.577709e+01	-3.545100e+02
6.100000e-07	-2.136295e-06	-5.282274e-09	-1.510866e+01	-3.473510e+02
6.200000e-07	-2.040989e-06	-5.173921e-09	-1.443462e+01	-3.400107e+02
6.300000e-07	-1.944864e-06	-5.055051e-09	-1.375478e+01	-3.324909e+02
6.400000e-07	-1.847954e-06	-4.930555e-09	-1.306941e+01	-3.247960e+02
6.500000e-07	-1.750282e-06	-4.804524e-09	-1.237863e+01	-3.169307e+02
6.600000e-07	-1.651869e-06	-4.682817e-09	-1.168262e+01	-3.088986e+02
6.700000e-07	-1.552834e-06	-4.563891e-09	-1.098221e+01	-3.007007e+02
6.800000e-07	-1.453275e-06	-4.442051e-09	-1.027809e+01	-2.923341e+02
6.900000e-07	-1.353295e-06	-4.309647e-09	-9.570994e+00	-2.837925e+02
7.000000e-07	-1.252918e-06	-4.171810e-09	-8.861094e+00	-2.750668e+02
7.100000e-07	-1.152177e-06	-4.033708e-09	-8.148614e+00	-2.661461e+02
7.200000e-07	-1.051088e-06	-3.892386e-09	-7.433675e+00	-2.570189e+02
7.300000e-07	-9.496219e-07	-3.748826e-09	-6.716073e+00	-2.476746e+02
7.400000e-07	-8.478676e-07	-3.601389e-09	-5.996429e+00	-2.381044e+02
7.500000e-07	-7.458214e-07	-3.449223e-09	-5.274721e+00	-2.283015e+02
7.600000e-07	-6.434168e-07	-3.292959e-09	-4.550478e+00	-2.182617e+02
7.700000e-07	-5.407991e-07	-3.135688e-09	-3.824729e+00	-2.079824e+02
7.800000e-07	-4.380837e-07	-2.977432e-09	-3.098288e+00	-1.974629e+02
7.900000e-07	-3.352500e-07	-2.814986e-09	-2.371011e+00	-1.867028e+02
8.000000e-07	-2.323198e-07	-2.643939e-09	-1.643050e+00	-1.757014e+02
8.100000e-07	-1.293175e-07	-2.467122e-09	-9.145803e-01	-1.644573e+02
8.200000e-07	-2.621632e-08	-2.289677e-09	-1.854114e-01	-1.529673e+02
8.300000e-07	7.693958e-08	-2.110519e-09	5.441448e-01	-1.412260e+02
8.400000e-07	1.800520e-07	-1.928774e-09	1.273394e+00	-1.292259e+02
8.500000e-07	2.831551e-07	-1.741534e-09	2.002576e+00	-1.169567e+02
8.600000e-07	3.862271e-07	-1.550688e-09	2.731539e+00	-1.044064e+02
8.700000e-07	4.891264e-07	-1.355201e-09	3.459280e+00	-9.156133e+01
8.800000e-07	5.918391e-07	-1.154461e-09	4.185702e+00	-7.840695e+01
8.900000e-07	6.944149e-07	-9.499698e-10	4.911156e+00	-6.492897e+01
9.000000e-07	7.968158e-07	-7.398945e-10	5.635372e+00	-5.111436e+01
9.100000e-07	8.989713e-07	-5.248155e-10	6.357853e+00	-3.695262e+01
9.200000e-07	1.000758e-06	-3.047600e-10	7.077724e+00	-2.243704e+01
9.300000e-07	1.102143e-06	-7.908361e-11	7.794760e+00	-7.566072e+00
9.400000e-07	1.203162e-06	1.524490e-10	8.509198e+00	7.655389e+00
9.500000e-07	1.303756e-06	3.886616e-10	9.220637e+00	2.321476e+01
9.600000e-07	1.403939e-06	6.299374e-10	9.929171e+00	3.909067e+01
9.700000e-07	1.503690e-06	8.761999e-10	1.063464e+01	5.525223e+01
9.800000e-07	1.602940e-06	1.125636e-09	1.133657e+01	7.165862e+01
9.900000e-07	1.701565e-06	1.377057e-09	1.203409e+01	8.825935e+01
1.000000e-06	1.799421e-06	1.630489e-09	1.272616e+01	1.049952e+02
1.010000e-06	1.896451e-06	1.886265e-09	1.341240e+01	1.217997e+02
1.020000e-06	1.992637e-06	2.142874e-09	1.409265e+01	1.386016e+02
1.030000e-06	2.087990e-06	2.398327e-09	1.476703e+01	1.553278e+02
1.040000e-06	2.182605e-06	2.652318e-09	1.543618e+01	1.719058e+02
1.050000e-06	2.276559e-06	2.902061e-09	1.610066e+01	1.882669e+02
1.060000e-06	2.369694e-06	3.145967e-09	1.675934e+01	2.043489e+02
1.070000e-06	2.462036e-06	3.382094e-09	1.741241e+01	2.200975e+02
1.080000e-06	2.553756e-06	3.613861e-09	1.806109e+01	2.354672e+02
1.090000e-06	2.644630e-06	3.840620e-09	1.870379e+01	2.504220e+02
1.100000e-06	2.734313e-06	4.061391e-09	1.933806e+01	2.649346e+02
1.110000e-06	2.822778e-06	4.274012e-09	1.996372e+01	2.789857e+02
1.120000e-06	2.910234e-06	4.477064e-09	2.058224e+01	2.925631e+02
1.130000e-06	2.996807e-06	4.674846e-09	2.119451e+01	3.056608e+02
1.140000e-06	3.082404e-06	4.868217e-09	2.179988e+01	3.182781e+02
1.150000e-06	3.166976e-06	5.054651e-09	2.239801e+01	3.304191e+02
1.160000e-06	3.250670e-06	5.232148e-09	2.298992e+01	3.420920e+02
1.170000e-06	3.333327e-06	5.402687e-09	2.357451e+01	3.533080e+02
1.180000e-06	3.414619e-06	5.567011e-09	2.414943e+01	3.640803e+02
1.190000e-06	3.494645e-06	5.725531e-09	2.471540e+01	3.744230e+02
1.200000e-06	3.573501e-06	5.877329e-09	2.527310e+01	3.843490e+02
1.210000e-06	3.651096e-06	6.022751e-09	2.582188e+01	3.938689e+02
1.220000e-06	3.727430e-06	6.161508e-09	2.636174e+01	4.029904e+02
1.230000e-06	3.802368e-06	6.293927e-09	2.689174e+01	4.117175e+02
1.240000e-06	3.875630e-06	6.420109e-09	2.740987e+01	4.200523e+02
1.250000e-06	3.947304e-06	6.540838e-09	2.791678e+01	4.279959e+02
1.260000e-06	4.017636e-06	6.653907e-09	2.841419e+01	4.355517e+02
1.270000e-06	4.086570e-06	6.759769e-09	2.890171e+01	4.427271e+02
1.280000e-06	4.154133e-06	6.860251e-09	2.937954e+01	4.495360e+02
1.290000e-06	4.220134e-06	6.955453e-09	2.984633e+01	4.559994e+02
1.300000e-06	4.284393e-06	7.047148e-09	3.030079e+01	4.621449e+02
1.310000e-06	4.347122e-06	7.135579e-09	3.074443e+01	4.680043e+02
1.320000e-06	4.408420e-06	7.220942e-09	3.117795e+01	4.736102e+02
1.330000e-06	4.468348e-06	7.304092e-09	3.160178e+01	4.789925e+02
1.340000e-06	4.526792e-06	7.386398e-09	3.201512e+01	4.841744e+02
1.350000e-06	4.583409e-06	7.466390e-09	3.241554e+01	4.891698e+02
1.360000e-06	4.638237e-06	7.538433e-09	3.280330e+01	4.939828e+02
1.370000e-06	4.691448e-06	7.603896e-09	3.317963e+01	4.986086e+02
1.380000e-06	4.742854e-06	7.668709e-09	3.354319e+01	5.030358e+02
1.390000e-06	4.792162e-06	7.733558e-09	3.389192e+01	5.072511e+02
1.400000e-06	4.839554e-06	7.794521e-09	3.422709e+01	5.112422e+02
1.410000e-06	4.885313e-06	7.849450e-09	3.455072e+01	5.150020e+02
1.420000e-06	4.929502e-06	7.901150e-09	3.486324e+01	5.185297e+02
1.430000e-06	4.971967e-06	7.951208e-09	3.516357e+01	5.218315e+02
1.440000e-06	5.012483e-06	7.998897e-09	3.545011e+01	5.249185e+02
1.450000e-06	5.051237e-06	8.044507e-09	3.572419e+01	5.278042e+02
1.460000e-06	5.088341e-06	8.086799e-09	3.598660e+01	5.305017e+02
1.470000e-06	5.123829e-06	8.123473e-09	3.623758e+01	5.330211e+02
1.480000e-06	5.157429e-06	8.154344e-09	3.647522e+01	5.353682e+02
1.490000e-06	5.189025e-06	8.181237e-09	3.669868e+01	5.375449e+02
1.500000e-06	5.218894e-06	8.207784e-09	3.690992e+01	5.395508e+02
1.510000e-06	5.247139e-06	8.235549e-09	3.710968e+01	5.413853e+02
1.520000e-06	5.273533e-06	8.260971e-09	3.729635e+01	5.430504e+02
1.530000e-06	5.297824e-06	8.283987e-09	3.746815e+01	5.445518e+02
1.540000e-06	5.320162e-06	8.305274e-09	3.762612e+01	5.458997e+02
1.550000e-06	5.340735e-06	8.324139e-09	3.777162e+01	5.471069e+02
1.560000e-06	5.359537e-06	8.340110e-09	3.790460e+01	5.481869e+02
1.570000e-06	5.376324e-06	8.353920e-09	3.802332e+01	5.491507e+02
1.580000e-06	5.391073e-06	8.366148e-09	3.812764e+01	5.500044e+02
1.590000e-06	5.403902e-06	8.375943e-09	3.821837e+01	5.507480e+02
1.600000e-06	5.414605e-06	8.383738e-09	3.829406e+01	5.513754e+02
1.610000e-06	5.423071e-06	8.391177e-09	3.835393e+01	5.518771e+02
1.620000e-06	5.429563e-06	8.397816e-09	3.839985e+01	5.522428e+02
1.630000e-06	5.434328e-06	8.404144e-09	3.843355e+01	5.524655e+02
1.640000e-06	5.437234e-06	8.409400e-09	3.845410e+01	5.525444e+02
1.650000e-06	5.438068e-06	8.413807e-09	3.846000e+01	5.524859e+02
1.660000e-06	5.436985e-06	8.413044e-09	3.845234e+01	5.523029e+02
1.670000e-06	5.434190e-06	8.405090e-09	3.843257e+01	5.520122e+02
1.680000e-06	5.429736e-06	8.397684e-09	3.840107e+01	5.516302e+02
1.690000e-06	5.423358e-06	8.387761e-09	3.835597e+01	5.511689e+02
1.700000e-06	5.415098e-06	8.377086e-09	3.829755e+01	5.506322e+02
1.710000e-06	5.405328e-06	8.369897e-09	3.822845e+01	5.500150e+02
1.720000e-06	5.393927e-06	8.370813e-09	3.814782e+01	5.493045e+02
1.730000e-06	5.380566e-06	8.377934e-09	3.805333e+01	5.484841e+02
1.740000e-06	5.365111e-06	8.291030e-09	3.794402e+01	5.475384e+02
1.750000e-06	5.347370e-06	8.258972e-09	3.781855e+01	5.464591e+02
1.760000e-06	5.326949e-06	8.282333e-09	3.767413e+01	5.452494e+02
1.770000e-06	5.304037e-06	8.268610e-09	3.751208e+01	5.439253e+02
1.780000e-06	5.279624e-06	8.375978e-09	3.733942e+01	5.425144e+02
1.790000e-06	5.254584e-06	8.257699e-09	3.716234e+01	5.410506e+02
1.800000e-06	5.228406e-06	8.108940e-09	3.697719e+01	5.395675e+02
1.810000e-06	5.199952e-06	8.275278e-09	3.677596e+01	5.380905e+02
1.820000e-06	5.169502e-06	8.149016e-09	3.656060e+01	5.366299e+02
1.830000e-06	5.137455e-06	8.112532e-09	3.633395e+01	5.351771e+02
1.840000e-06	5.103416e-06	8.263808e-09	3.609322e+01	5.337050e+02
1.850000e-06	5.067688e-06	8.019224e-09	3.584054e+01	5.321711e+02
1.860000e-06	5.030284e-06	8.020892e-09	3.557600e+01	5.305258e+02
1.870000e-06	4.990926e-06	8.130276e-09	3.529765e+01	5.287207e+02
1.880000e-06	4.949891e-06	7.954273e-09	3.500744e+01	5.267178e+02
1.890000e-06	4.907017e-06	8.024287e-09	3.470421e+01	5.244964e+02
1.900000e-06	4.862419e-06	7.958941e-09	3.438880e+01	5.220557e+02
1.910000e-06	4.816151e-06	7.855589e-09	3.406158e+01	5.194142e+02
1.920000e-06	4.767814e-06	7.915398e-09	3.371972e+01	5.166048e+02
1.930000e-06	4.717781e-06	7.755030e-09	3.336586e+01	5.136667e+02
1.940000e-06	4.666075e-06	7.822998e-09	3.300019e+01	5.106374e+02
1.950000e-06	4.612234e-06	7.809000e-09	3.261940e+01	5.075449e+02
1.960000e-06	4.556422e-06	7.636543e-09	3.222468e+01	5.044029e+02
1.970000e-06	4.498858e-06	7.619138e-09	3.181756e+01	5.012093e+02
1.980000e-06	4.439815e-06	7.552959e-09	3.139999e+01	4.979488e+02
1.990000e-06	4.379313e-06	7.572814e-09	3.097210e+01	4.945972e+02
2.000000e-06	4.317097e-06	7.461628e-09	3.053209e+01	4.911285e+02
2.010000e-06	4.253268e-06	7.386376e-09	3.008066e+01	4.875211e+02
2.020000e-06	4.187888e-06	7.422271e-09	2.961827e+01	4.837618e+02
2.030000e-06	4.121087e-06	7.273976e-09	2.914583e+01	4.798486e+02
2.040000e-06	4.052882e-06	7.243138e-09	2.866346e+01	4.757894e+02
2.050000e-06	3.983078e-06	7.204891e-09	2.816978e+01	4.715986e+02
2.060000e-06	3.911705e-06	7.129963e-09	2.766501e+01	4.672926e+02
2.070000e-06	3.838984e-06	7.041648e-09	2.715069e+01	4.628850e+02
2.080000e-06	3.765027e-06	6.933986e-09	2.662765e+01	4.583826e+02
2.090000e-06	3.689687e-06	6.944018e-09	2.609481e+01	4.537839e+02
2.100000e-06	3.612824e-06	6.870031e-09	2.555121e+01	4.490796e+02
2.110000e-06	3.534380e-06	6.770468e-09	2.499642e+01	4.442550e+02
2.120000e-06	3.454556e-06	6.679979e-09	2.443188e+01	4.392936e+02
2.130000e-06	3.373644e-06	6.606539e-09	2.385964e+01	4.341812e+02
2.140000e-06	3.291595e-06	6.535075e-09	2.327936e+01	4.289090e+02
2.150000e-06	3.208449e-06	6.439339e-09	2.269132e+01	4.234749e+02
2.160000e-06	3.124302e-06	6.388264e-09	2.209620e+01	4.178832e+02
2.170000e-06	3.038972e-06	6.293125e-09	2.149272e+01	4.121431e+02
2.180000e-06	2.952229e-06	6.185659e-09	2.087924e+01	4.062652e+02
2.190000e-06	2.864292e-06	6.088216e-09	2.025731e+01	4.002587e+02
2.200000e-06	2.775428e-06	6.012313e-09	1.962884e+01	3.941288e+02
2.210000e-06	2.685617e-06	5.933911e-09	1.899366e+01	3.878748e+02
2.220000e-06	2.594920e-06	5.820756e-09	1.835222e+01	3.814907e+02
2.230000e-06	2.503408e-06	5.716303e-09	1.770501e+01	3.749658e+02
2.240000e-06	2.411077e-06	5.612341e-09	1.705202e+01	3.682878e+02
2.250000e-06	2.317812e-06	5.514855e-09	1.639241e+01	3.614444e+02
2.260000e-06	2.223618e-06	5.408331e-09	1.572624e+01	3.544263e+02
2.270000e-06	2.128537e-06	5.297366e-09	1.505379e+01	3.472280e+02
2.280000e-06	2.032536e-06	5.182011e-09	1.437483e+01	3.398485e+02
2.290000e-06	1.935797e-06	5.065293e-09	1.369067e+01	3.322902e+02
2.300000e-06	1.838512e-06	4.954884e-09	1.300263e+01	3.245579e+02
2.310000e-06	1.740734e-06	4.844246e-09	1.231111e+01	3.166562e+02
2.320000e-06	1.642380e-06	4.723250e-09	1.161551e+01	3.085882e+02
2.330000e-06	1.543476e-06	4.585609e-09	1.091603e+01	3.003539e+02
2.340000e-06	1.444102e-06	4.451825e-09	1.021322e+01	2.919500e+02
2.350000e-06	1.344318e-06	4.322681e-09	9.507510e+00	2.833694e+02
2.360000e-06	1.244216e-06	4.198553e-09	8.799550e+00	2.746024e+02
2.370000e-06	1.143774e-06	4.068678e-09	8.089187e+00	2.656379e+02
2.380000e-06	1.042917e-06	3.922729e-09	7.375890e+00	2.564645e+02
2.390000e-06	9.416103e-07	3.772161e-09	6.659411e+00	2.470720e+02
2.400000e-06	8.398100e-07	3.627483e-09	5.939442e+00	2.374519e+02
2.410000e-06	7.376463e-07	3.486349e-09	5.216904e+00	2.275981e+02
2.420000e-06	6.352322e-07	3.337953e-09	4.492594e+00	2.175066e+02
2.430000e-06	5.325216e-07	3.179734e-09	3.766187e+00	2.071754e+02
2.440000e-06	4.295906e-07	3.016864e-09	3.038221e+00	1.966039e+02
2.450000e-06	3.264723e-07	2.852366e-09	2.308931e+00	1.857917e+02
2.460000e-06	2.231695e-07	2.684491e-09	1.578336e+00	1.747380e+02
2.470000e-06	1.197083e-07	2.517404e-09	8.466205e-01	1.634410e+02
2.480000e-06	1.612896e-08	2.343340e-09	1.140699e-01	1.518972e+02
2.490000e-06	-8.744959e-08	2.157991e-09	-6.184754e-01	1.401007e+02
2.500000e-06	-1.909652e-07	1.972086e-09	-1.350576e+00	1.280434e+02
2.510000e-06	-2.944289e-07	1.789983e-09	-2.082309e+00	1.157146e+02
2.520000e-06	-3.977242e-07	1.604876e-09	-2.812851e+00	1.031018e+02
2.530000e-06	-5.008240e-07	1.406962e-09	-3.542010e+00	9.019122e+01
2.540000e-06	-6.037621e-07	1.201085e-09	-4.270025e+00	7.696820e+01
2.550000e-06	-7.064729e-07	9.924850e-10	-4.996434e+00	6.341863e+01
2.560000e-06	-8.088847e-07	7.781410e-10	-5.720727e+00	4.952993e+01
2.570000e-06	-9.108785e-07	5.578120e-10	-6.442065e+00	3.529229e+01
2.580000e-06	-1.012307e-06	3.334483e-10	-7.159407e+00	2.070001e+01
2.590000e-06	-1.113229e-06	1.045878e-10	-7.873161e+00	5.752807e+00
2.600000e-06	-1.213794e-06	-1.284224e-10	-8.584396e+00	-9.542885e+00
2.610000e-06	-1.313967e-06	-3.638289e-10	-9.292852e+00	-2.517268e+01
2.620000e-06	-1.413666e-06	-6.035571e-10	-9.997964e+00	-4.111322e+01
2.630000e-06	-1.512842e-06	-8.494532e-10	-1.069937e+01	-5.733150e+01
2.640000e-06	-1.611493e-06	-1.103933e-09	-1.139707e+01	-7.378458e+01
2.650000e-06	-1.709574e-06	-1.363265e-09	-1.209073e+01	-9.041999e+01
2.660000e-06	-1.807034e-06	-1.620985e-09	-1.278001e+01	-1.071768e+02
2.670000e-06	-1.903875e-06	-1.877188e-09	-1.346490e+01	-1.239873e+02
2.680000e-06	-2.000172e-06	-2.131049e-09	-1.414594e+01	-1.407797e+02
2.690000e-06	-2.095945e-06	-2.384441e-09	-1.482329e+01	-1.574806e+02
2.700000e-06	-2.190953e-06	-2.637765e-09	-1.549522e+01	-1.740182e+02
2.710000e-06	-2.284919e-06	-2.887807e-09	-1.615978e+01	-1.903250e+02
2.720000e-06	-2.377890e-06	-3.132418e-09	-1.681731e+01	-2.063403e+02
2.730000e-06	-2.469988e-06	-3.371996e-09	-1.746866e+01	-2.220117e+02
2.740000e-06	-2.561216e-06	-3.607503e-09	-1.811386e+01	-2.372957e+02
2.750000e-06	-2.651553e-06	-3.836993e-09	-1.875275e+01	-2.521582e+02
2.760000e-06	-2.740871e-06	-4.060497e-09	-1.938444e+01	-2.665738e+02
2.770000e-06	-2.829287e-06	-4.277467e-09	-2.000975e+01	-2.805247e+02
2.780000e-06	-2.916985e-06	-4.484458e-09	-2.062998e+01	-2.940001e+02
2.790000e-06	-3.003730e-06	-4.681703e-09	-2.124347e+01	-3.069952e+02
2.800000e-06	-3.089179e-06	-4.874338e-09	-2.184780e+01	-3.195104e+02
2.810000e-06	-3.173411e-06	-5.060375e-09	-2.244352e+01	-3.315508e+02
2.820000e-06	-3.256614e-06	-5.235871e-09	-2.303196e+01	-3.431252e+02
2.830000e-06	-3.338737e-06	-5.403607e-09	-2.361276e+01	-3.542454e+02
2.840000e-06	-3.419766e-06	-5.564564e-09	-2.418584e+01	-3.649250e+02
2.850000e-06	-3.499722e-06	-5.719077e-09	-2.475131e+01	-3.751778e+02
2.860000e-06	-3.578296e-06	-5.868380e-09	-2.530702e+01	-3.850165e+02
2.870000e-06	-3.655276e-06	-6.013625e-09	-2.585144e+01	-3.944510e+02
2.880000e-06	-3.730793e-06	-6.153948e-09	-2.638553e+01	-4.034882e+02
2.890000e-06	-3.804872e-06	-6.286551e-09	-2.690944e+01	-4.121316e+02
2.900000e-06	-3.877602e-06	-6.414104e-09	-2.742382e+01	-4.203829e+02
2.910000e-06	-3.949085e-06	-6.539996e-09	-2.792937e+01	-4.282435e+02
2.920000e-06	-4.019009e-06	-6.658373e-09	-2.842390e+01	-4.357174e+02
2.930000e-06	-4.087323e-06	-6.766583e-09	-2.890704e+01	-4.428134e+02
2.940000e-06	-4.154249e-06	-6.868671e-09	-2.938036e+01	-4.495467e+02
