# Temperatura_=_77.58
# Concentracion g/m^3_=_15000.0
# C_Vs_to_Am_M_A/Vsm_=_65563218390.804596
# pendiente_HvsI_1/m_=_3716.3
# ordenada_HvsI_A/m_=_1297.0
# frecuencia_Hz_=_301602.9430087675

Tiempo_(s)	Campo_(V.s)	Magnetizacion_(V.s)	Campo_(kA/m)	Magnetizacion_(A/m)
0.000000e+00	-5.415881e-06	-9.559346e-09	-3.834087e+01	-6.242702e+02
1.000000e-08	-5.413471e-06	-9.557037e-09	-3.832381e+01	-6.240224e+02
2.000000e-08	-5.409230e-06	-9.552281e-09	-3.829378e+01	-6.236828e+02
3.000000e-08	-5.403338e-06	-9.546357e-09	-3.825208e+01	-6.232385e+02
4.000000e-08	-5.395871e-06	-9.537077e-09	-3.819922e+01	-6.226690e+02
5.000000e-08	-5.386581e-06	-9.522312e-09	-3.813345e+01	-6.219520e+02
6.000000e-08	-5.375176e-06	-9.505365e-09	-3.805271e+01	-6.210705e+02
7.000000e-08	-5.361856e-06	-9.488413e-09	-3.795841e+01	-6.200181e+02
8.000000e-08	-5.346528e-06	-9.487997e-09	-3.784990e+01	-6.188032e+02
9.000000e-08	-5.328986e-06	-9.498036e-09	-3.772571e+01	-6.174483e+02
1.000000e-07	-5.309357e-06	-9.466693e-09	-3.758676e+01	-6.159871e+02
1.100000e-07	-5.287755e-06	-9.419528e-09	-3.743382e+01	-6.144572e+02
1.200000e-07	-5.264375e-06	-9.370713e-09	-3.726831e+01	-6.128924e+02
1.300000e-07	-5.239415e-06	-9.303711e-09	-3.709161e+01	-6.113148e+02
1.400000e-07	-5.212838e-06	-9.323441e-09	-3.690346e+01	-6.097296e+02
1.500000e-07	-5.184650e-06	-9.327055e-09	-3.670391e+01	-6.081231e+02
1.600000e-07	-5.154975e-06	-9.246480e-09	-3.649383e+01	-6.064646e+02
1.700000e-07	-5.123734e-06	-9.280639e-09	-3.627266e+01	-6.047130e+02
1.800000e-07	-5.090441e-06	-9.246839e-09	-3.603697e+01	-6.028237e+02
1.900000e-07	-5.055219e-06	-9.119738e-09	-3.578762e+01	-6.007577e+02
2.000000e-07	-5.018548e-06	-9.107070e-09	-3.552801e+01	-5.984876e+02
2.100000e-07	-4.980176e-06	-9.056911e-09	-3.525637e+01	-5.960019e+02
2.200000e-07	-4.939955e-06	-9.006177e-09	-3.497163e+01	-5.933049e+02
2.300000e-07	-4.897792e-06	-9.024495e-09	-3.467314e+01	-5.904133e+02
2.400000e-07	-4.853689e-06	-8.982800e-09	-3.436093e+01	-5.873510e+02
2.500000e-07	-4.807830e-06	-8.912657e-09	-3.403627e+01	-5.841427e+02
2.600000e-07	-4.760009e-06	-8.839328e-09	-3.369773e+01	-5.808080e+02
2.700000e-07	-4.710007e-06	-8.786701e-09	-3.334375e+01	-5.773582e+02
2.800000e-07	-4.657944e-06	-8.766243e-09	-3.297517e+01	-5.737952e+02
2.900000e-07	-4.604084e-06	-8.682586e-09	-3.259388e+01	-5.701133e+02
3.000000e-07	-4.548582e-06	-8.603433e-09	-3.220097e+01	-5.663027e+02
3.100000e-07	-4.491393e-06	-8.576915e-09	-3.179610e+01	-5.623531e+02
3.200000e-07	-4.432404e-06	-8.526373e-09	-3.137851e+01	-5.582577e+02
3.300000e-07	-4.371797e-06	-8.444872e-09	-3.094945e+01	-5.540148e+02
3.400000e-07	-4.309741e-06	-8.372878e-09	-3.051013e+01	-5.496281e+02
3.500000e-07	-4.246257e-06	-8.306131e-09	-3.006070e+01	-5.451048e+02
3.600000e-07	-4.181239e-06	-8.220397e-09	-2.960042e+01	-5.404529e+02
3.700000e-07	-4.114535e-06	-8.163025e-09	-2.912820e+01	-5.356787e+02
3.800000e-07	-4.046317e-06	-8.115775e-09	-2.864526e+01	-5.307842e+02
3.900000e-07	-3.976742e-06	-8.025053e-09	-2.815272e+01	-5.257666e+02
4.000000e-07	-3.905884e-06	-7.920098e-09	-2.765109e+01	-5.206188e+02
4.100000e-07	-3.833700e-06	-7.828766e-09	-2.714007e+01	-5.153314e+02
4.200000e-07	-3.759980e-06	-7.760267e-09	-2.661819e+01	-5.098951e+02
4.300000e-07	-3.684704e-06	-7.688149e-09	-2.608528e+01	-5.043027e+02
4.400000e-07	-3.608022e-06	-7.606308e-09	-2.554242e+01	-4.985509e+02
4.500000e-07	-3.529894e-06	-7.520312e-09	-2.498932e+01	-4.926401e+02
4.600000e-07	-3.450252e-06	-7.416367e-09	-2.442551e+01	-4.865740e+02
4.700000e-07	-3.369367e-06	-7.309560e-09	-2.385290e+01	-4.803575e+02
4.800000e-07	-3.287411e-06	-7.217727e-09	-2.327270e+01	-4.739947e+02
4.900000e-07	-3.204357e-06	-7.127417e-09	-2.268474e+01	-4.674881e+02
5.000000e-07	-3.120254e-06	-7.021034e-09	-2.208934e+01	-4.608371e+02
5.100000e-07	-3.035202e-06	-6.907831e-09	-2.148723e+01	-4.540387e+02
5.200000e-07	-2.949155e-06	-6.799361e-09	-2.087808e+01	-4.470884e+02
5.300000e-07	-2.862091e-06	-6.695358e-09	-2.026172e+01	-4.399813e+02
5.400000e-07	-2.774077e-06	-6.591266e-09	-1.963864e+01	-4.327134e+02
5.500000e-07	-2.685042e-06	-6.476145e-09	-1.900833e+01	-4.252827e+02
5.600000e-07	-2.594834e-06	-6.346573e-09	-1.836971e+01	-4.176884e+02
5.700000e-07	-2.503530e-06	-6.221996e-09	-1.772334e+01	-4.099307e+02
5.800000e-07	-2.411380e-06	-6.112012e-09	-1.707099e+01	-4.020096e+02
5.900000e-07	-2.318430e-06	-5.999164e-09	-1.641295e+01	-3.939243e+02
6.000000e-07	-2.224657e-06	-5.867708e-09	-1.574911e+01	-3.856718e+02
6.100000e-07	-2.130114e-06	-5.729494e-09	-1.507981e+01	-3.772480e+02
6.200000e-07	-2.034873e-06	-5.594686e-09	-1.440556e+01	-3.686475e+02
6.300000e-07	-1.938927e-06	-5.459844e-09	-1.372632e+01	-3.598652e+02
6.400000e-07	-1.842164e-06	-5.327110e-09	-1.304131e+01	-3.508970e+02
6.500000e-07	-1.744492e-06	-5.192865e-09	-1.234986e+01	-3.417401e+02
6.600000e-07	-1.646050e-06	-5.047242e-09	-1.165295e+01	-3.323932e+02
6.700000e-07	-1.547056e-06	-4.890816e-09	-1.095214e+01	-3.228552e+02
6.800000e-07	-1.447580e-06	-4.737792e-09	-1.024791e+01	-3.131241e+02
6.900000e-07	-1.347663e-06	-4.592633e-09	-9.540565e+00	-3.031959e+02
7.000000e-07	-1.247338e-06	-4.443834e-09	-8.830335e+00	-2.930636e+02
7.100000e-07	-1.146616e-06	-4.282842e-09	-8.117288e+00	-2.827178e+02
7.200000e-07	-1.045572e-06	-4.114350e-09	-7.401959e+00	-2.721478e+02
7.300000e-07	-9.442532e-07	-3.944732e-09	-6.684691e+00	-2.613431e+02
7.400000e-07	-8.425221e-07	-3.775604e-09	-5.964502e+00	-2.502959e+02
7.500000e-07	-7.404644e-07	-3.605675e-09	-5.242000e+00	-2.390027e+02
7.600000e-07	-6.381721e-07	-3.429029e-09	-4.517838e+00	-2.274645e+02
7.700000e-07	-5.356350e-07	-3.243610e-09	-3.791943e+00	-2.156861e+02
7.800000e-07	-4.329860e-07	-3.056780e-09	-3.065256e+00	-2.036741e+02
7.900000e-07	-3.302388e-07	-2.872628e-09	-2.337873e+00	-1.914336e+02
8.000000e-07	-2.273568e-07	-2.686844e-09	-1.609537e+00	-1.789653e+02
8.100000e-07	-1.244030e-07	-2.493991e-09	-8.806915e-01	-1.662633e+02
8.200000e-07	-2.140768e-08	-2.294999e-09	-1.515523e-01	-1.533139e+02
8.300000e-07	8.162232e-08	-2.093855e-09	5.778323e-01	-1.400967e+02
8.400000e-07	1.846455e-07	-1.888898e-09	1.307169e+00	-1.265872e+02
8.500000e-07	2.876557e-07	-1.679484e-09	2.036413e+00	-1.127601e+02
8.600000e-07	3.906024e-07	-1.466521e-09	2.765208e+00	-9.859290e+01
8.700000e-07	4.934211e-07	-1.244214e-09	3.493097e+00	-8.406880e+01
8.800000e-07	5.961272e-07	-1.012979e-09	4.220188e+00	-6.917765e+01
8.900000e-07	6.986917e-07	-7.779438e-10	4.946277e+00	-5.391548e+01
9.000000e-07	8.010381e-07	-5.399908e-10	5.670823e+00	-3.828256e+01
9.100000e-07	9.031236e-07	-2.977333e-10	6.393520e+00	-2.228076e+01
9.200000e-07	1.004850e-06	-4.799996e-11	7.113679e+00	-5.911458e+00
9.300000e-07	1.106160e-06	2.089643e-10	7.830887e+00	1.082508e+01
9.400000e-07	1.207054e-06	4.711324e-10	8.545147e+00	2.792828e+01
9.500000e-07	1.307584e-06	7.355856e-10	9.256831e+00	4.539375e+01
9.600000e-07	1.407678e-06	1.002814e-09	9.965431e+00	6.320818e+01
9.700000e-07	1.507285e-06	1.274163e-09	1.067059e+01	8.134407e+01
9.800000e-07	1.606434e-06	1.551343e-09	1.137250e+01	9.975549e+01
9.900000e-07	1.704997e-06	1.833729e-09	1.207025e+01	1.183763e+02
1.000000e-06	1.802765e-06	2.117024e-09	1.276239e+01	1.371214e+02
1.010000e-06	1.899601e-06	2.398602e-09	1.344793e+01	1.558919e+02
1.020000e-06	1.995581e-06	2.678635e-09	1.412740e+01	1.745818e+02
1.030000e-06	2.090875e-06	2.959496e-09	1.480202e+01	1.930872e+02
1.040000e-06	2.185486e-06	3.238068e-09	1.547180e+01	2.113143e+02
1.050000e-06	2.279325e-06	3.508738e-09	1.613612e+01	2.291856e+02
1.060000e-06	2.372413e-06	3.771250e-09	1.679512e+01	2.466433e+02
1.070000e-06	2.464768e-06	4.027155e-09	1.744894e+01	2.636489e+02
1.080000e-06	2.556364e-06	4.278562e-09	1.809738e+01	2.801803e+02
1.090000e-06	2.647052e-06	4.522803e-09	1.873939e+01	2.962265e+02
1.100000e-06	2.736574e-06	4.758227e-09	1.937314e+01	3.117823e+02
1.110000e-06	2.824860e-06	4.985288e-09	1.999815e+01	3.268438e+02
1.120000e-06	2.912163e-06	5.205337e-09	2.061620e+01	3.414060e+02
1.130000e-06	2.998615e-06	5.420056e-09	2.122822e+01	3.554629e+02
1.140000e-06	3.084107e-06	5.627753e-09	2.183344e+01	3.690091e+02
1.150000e-06	3.168623e-06	5.825339e-09	2.243176e+01	3.820429e+02
1.160000e-06	3.252207e-06	6.013904e-09	2.302349e+01	3.945690e+02
1.170000e-06	3.334733e-06	6.196133e-09	2.360772e+01	4.065999e+02
1.180000e-06	3.415934e-06	6.371960e-09	2.418257e+01	4.181555e+02
1.190000e-06	3.495827e-06	6.541255e-09	2.474815e+01	4.292603e+02
1.200000e-06	3.574542e-06	6.702967e-09	2.530541e+01	4.399395e+02
1.210000e-06	3.652022e-06	6.859731e-09	2.585391e+01	4.502149e+02
1.220000e-06	3.728194e-06	7.012153e-09	2.639316e+01	4.601014e+02
1.230000e-06	3.802915e-06	7.159004e-09	2.692214e+01	4.696051e+02
1.240000e-06	3.875982e-06	7.298944e-09	2.743940e+01	4.787248e+02
1.250000e-06	3.947497e-06	7.432361e-09	2.794568e+01	4.874539e+02
1.260000e-06	4.017626e-06	7.557485e-09	2.844215e+01	4.957861e+02
1.270000e-06	4.086357e-06	7.674556e-09	2.892872e+01	5.037188e+02
1.280000e-06	4.153758e-06	7.786818e-09	2.940587e+01	5.112579e+02
1.290000e-06	4.219640e-06	7.893580e-09	2.987227e+01	5.184187e+02
1.300000e-06	4.283774e-06	7.995702e-09	3.032630e+01	5.252261e+02
1.310000e-06	4.346369e-06	8.093202e-09	3.076943e+01	5.317108e+02
1.320000e-06	4.407566e-06	8.187874e-09	3.120267e+01	5.379061e+02
1.330000e-06	4.467363e-06	8.280436e-09	3.162599e+01	5.438424e+02
1.340000e-06	4.525550e-06	8.369369e-09	3.203792e+01	5.495442e+02
1.350000e-06	4.581893e-06	8.454229e-09	3.243678e+01	5.550273e+02
1.360000e-06	4.636566e-06	8.533153e-09	3.282384e+01	5.602992e+02
1.370000e-06	4.689613e-06	8.607763e-09	3.319937e+01	5.653607e+02
1.380000e-06	4.740747e-06	8.680200e-09	3.356137e+01	5.702085e+02
1.390000e-06	4.789839e-06	8.750683e-09	3.390891e+01	5.748385e+02
1.400000e-06	4.837105e-06	8.819092e-09	3.424352e+01	5.792480e+02
1.410000e-06	4.882750e-06	8.882739e-09	3.456665e+01	5.834369e+02
1.420000e-06	4.926818e-06	8.941776e-09	3.487863e+01	5.874073e+02
1.430000e-06	4.969103e-06	8.998660e-09	3.517798e+01	5.911625e+02
1.440000e-06	5.009455e-06	9.053751e-09	3.546364e+01	5.947053e+02
1.450000e-06	5.048096e-06	9.105297e-09	3.573720e+01	5.980368e+02
1.460000e-06	5.085116e-06	9.151540e-09	3.599927e+01	6.011564e+02
1.470000e-06	5.120500e-06	9.193252e-09	3.624977e+01	6.040623e+02
1.480000e-06	5.154026e-06	9.233121e-09	3.648711e+01	6.067538e+02
1.490000e-06	5.185603e-06	9.269556e-09	3.671066e+01	6.092328e+02
1.500000e-06	5.215428e-06	9.300831e-09	3.692180e+01	6.115057e+02
1.510000e-06	5.243548e-06	9.328974e-09	3.712087e+01	6.135834e+02
1.520000e-06	5.269801e-06	9.355727e-09	3.730672e+01	6.154807e+02
1.530000e-06	5.293991e-06	9.381425e-09	3.747797e+01	6.172131e+02
1.540000e-06	5.316247e-06	9.404485e-09	3.763553e+01	6.187941e+02
1.550000e-06	5.336745e-06	9.425454e-09	3.778064e+01	6.202322e+02
1.560000e-06	5.355398e-06	9.444942e-09	3.791269e+01	6.215293e+02
1.570000e-06	5.372013e-06	9.462260e-09	3.803031e+01	6.226804e+02
1.580000e-06	5.386637e-06	9.476189e-09	3.813384e+01	6.236757e+02
1.590000e-06	5.399349e-06	9.487103e-09	3.822383e+01	6.245046e+02
1.600000e-06	5.409926e-06	9.495202e-09	3.829872e+01	6.251593e+02
1.610000e-06	5.418306e-06	9.501916e-09	3.835804e+01	6.256389e+02
1.620000e-06	5.424675e-06	9.507875e-09	3.840313e+01	6.259508e+02
1.630000e-06	5.429237e-06	9.513720e-09	3.843543e+01	6.261105e+02
1.640000e-06	5.431988e-06	9.518355e-09	3.845490e+01	6.261384e+02
1.650000e-06	5.432709e-06	9.519495e-09	3.846000e+01	6.260552e+02
1.660000e-06	5.431533e-06	9.516673e-09	3.845168e+01	6.258767e+02
1.670000e-06	5.428717e-06	9.511021e-09	3.843174e+01	6.256094e+02
1.680000e-06	5.424272e-06	9.503409e-09	3.840027e+01	6.252483e+02
1.690000e-06	5.417924e-06	9.493464e-09	3.835533e+01	6.247786e+02
1.700000e-06	5.409675e-06	9.483982e-09	3.829694e+01	6.241788e+02
1.710000e-06	5.399808e-06	9.475190e-09	3.822709e+01	6.234272e+02
1.720000e-06	5.388311e-06	9.467261e-09	3.814569e+01	6.225087e+02
1.730000e-06	5.374947e-06	9.446417e-09	3.805109e+01	6.214199e+02
1.740000e-06	5.359425e-06	9.393693e-09	3.794120e+01	6.201721e+02
1.750000e-06	5.341537e-06	9.374039e-09	3.781456e+01	6.187909e+02
1.760000e-06	5.321050e-06	9.371603e-09	3.766953e+01	6.173113e+02
1.770000e-06	5.298151e-06	9.373281e-09	3.750742e+01	6.157709e+02
1.780000e-06	5.273755e-06	9.390099e-09	3.733471e+01	6.142016e+02
1.790000e-06	5.248618e-06	9.302904e-09	3.715676e+01	6.126221e+02
1.800000e-06	5.222213e-06	9.262444e-09	3.696983e+01	6.110337e+02
1.810000e-06	5.193685e-06	9.286135e-09	3.676787e+01	6.094186e+02
1.820000e-06	5.163229e-06	9.199714e-09	3.655226e+01	6.077434e+02
1.830000e-06	5.131108e-06	9.211052e-09	3.632487e+01	6.059655e+02
1.840000e-06	5.097086e-06	9.249709e-09	3.608401e+01	6.040409e+02
1.850000e-06	5.061385e-06	9.182654e-09	3.583127e+01	6.019324e+02
1.860000e-06	5.023998e-06	9.198138e-09	3.556660e+01	5.996161e+02
1.870000e-06	4.984633e-06	9.137415e-09	3.528792e+01	5.970838e+02
1.880000e-06	4.943531e-06	9.004747e-09	3.499694e+01	5.943429e+02
1.890000e-06	4.900667e-06	8.998380e-09	3.469349e+01	5.914121e+02
1.900000e-06	4.856128e-06	8.968700e-09	3.437819e+01	5.883162e+02
1.910000e-06	4.809823e-06	8.954119e-09	3.405038e+01	5.850789e+02
1.920000e-06	4.761432e-06	8.904462e-09	3.370780e+01	5.817184e+02
1.930000e-06	4.711341e-06	8.786775e-09	3.335319e+01	5.782440e+02
1.940000e-06	4.659530e-06	8.793909e-09	3.298640e+01	5.746558e+02
1.950000e-06	4.605650e-06	8.729527e-09	3.260497e+01	5.709467e+02
1.960000e-06	4.549804e-06	8.626076e-09	3.220962e+01	5.671066e+02
1.970000e-06	4.492220e-06	8.590443e-09	3.180196e+01	5.631257e+02
1.980000e-06	4.433194e-06	8.511372e-09	3.138410e+01	5.589982e+02
1.990000e-06	4.372735e-06	8.458537e-09	3.095609e+01	5.547236e+02
2.000000e-06	4.310594e-06	8.402391e-09	3.051617e+01	5.503065e+02
2.010000e-06	4.246757e-06	8.349591e-09	3.006425e+01	5.457545e+02
2.020000e-06	4.181354e-06	8.269468e-09	2.960123e+01	5.410756e+02
2.030000e-06	4.114515e-06	8.151242e-09	2.912806e+01	5.362751e+02
2.040000e-06	4.046266e-06	8.099652e-09	2.864490e+01	5.313542e+02
2.050000e-06	3.976528e-06	8.041267e-09	2.815120e+01	5.263089e+02
2.060000e-06	3.905231e-06	7.971990e-09	2.764646e+01	5.211316e+02
2.070000e-06	3.832511e-06	7.885848e-09	2.713165e+01	5.158125e+02
2.080000e-06	3.758496e-06	7.782856e-09	2.660768e+01	5.103428e+02
2.090000e-06	3.683120e-06	7.692472e-09	2.607407e+01	5.047159e+02
2.100000e-06	3.606290e-06	7.591019e-09	2.553016e+01	4.989294e+02
2.110000e-06	3.527845e-06	7.526079e-09	2.497482e+01	4.929845e+02
2.120000e-06	3.448033e-06	7.448913e-09	2.440980e+01	4.868853e+02
2.130000e-06	3.367149e-06	7.343475e-09	2.383720e+01	4.806366e+02
2.140000e-06	3.285131e-06	7.238499e-09	2.325656e+01	4.742425e+02
2.150000e-06	3.201991e-06	7.131129e-09	2.266799e+01	4.677046e+02
2.160000e-06	3.117781e-06	7.037309e-09	2.207184e+01	4.610219e+02
2.170000e-06	3.032422e-06	6.941697e-09	2.146755e+01	4.541909e+02
2.180000e-06	2.945738e-06	6.835728e-09	2.085388e+01	4.472069e+02
2.190000e-06	2.857883e-06	6.713177e-09	2.023193e+01	4.400652e+02
2.200000e-06	2.769068e-06	6.601269e-09	1.960318e+01	4.327621e+02
2.210000e-06	2.679318e-06	6.505732e-09	1.896781e+01	4.252958e+02
2.220000e-06	2.588689e-06	6.397006e-09	1.832621e+01	4.176660e+02
2.230000e-06	2.497196e-06	6.268829e-09	1.767851e+01	4.098729e+02
2.240000e-06	2.404847e-06	6.137832e-09	1.702474e+01	4.019163e+02
2.250000e-06	2.311657e-06	6.015222e-09	1.636501e+01	3.937950e+02
2.260000e-06	2.217581e-06	5.888172e-09	1.569901e+01	3.855057e+02
2.270000e-06	2.122540e-06	5.765547e-09	1.502619e+01	3.770440e+02
2.280000e-06	2.026562e-06	5.644854e-09	1.434673e+01	3.684045e+02
2.290000e-06	1.929843e-06	5.506667e-09	1.366202e+01	3.595823e+02
2.300000e-06	1.832592e-06	5.355755e-09	1.297355e+01	3.505733e+02
2.310000e-06	1.734855e-06	5.214823e-09	1.228163e+01	3.413754e+02
2.320000e-06	1.636533e-06	5.085640e-09	1.158557e+01	3.319871e+02
2.330000e-06	1.537627e-06	4.946915e-09	1.088539e+01	3.224075e+02
2.340000e-06	1.438292e-06	4.794170e-09	1.018216e+01	3.126341e+02
2.350000e-06	1.338587e-06	4.636443e-09	9.476313e+00	3.026624e+02
2.360000e-06	1.238500e-06	4.479639e-09	8.767762e+00	2.924847e+02
2.370000e-06	1.138050e-06	4.324327e-09	8.056644e+00	2.820914e+02
2.380000e-06	1.037241e-06	4.168930e-09	7.342981e+00	2.714714e+02
2.390000e-06	9.360288e-07	4.007219e-09	6.626468e+00	2.606148e+02
2.400000e-06	8.344271e-07	3.834416e-09	5.907195e+00	2.495146e+02
2.410000e-06	7.323960e-07	3.657723e-09	5.184882e+00	2.381682e+02
2.420000e-06	6.298936e-07	3.483163e-09	4.459232e+00	2.265775e+02
2.430000e-06	5.271084e-07	3.310506e-09	3.731581e+00	2.147481e+02
2.440000e-06	4.242327e-07	3.133036e-09	3.003288e+00	2.026863e+02
2.450000e-06	3.212818e-07	2.943268e-09	2.274463e+00	1.903967e+02
2.460000e-06	2.181638e-07	2.745481e-09	1.544456e+00	1.778787e+02
2.470000e-06	1.148702e-07	2.548894e-09	8.132056e-01	1.651246e+02
2.480000e-06	1.147739e-08	2.353778e-09	8.125239e-02	1.521192e+02
2.490000e-06	-9.190886e-08	2.154343e-09	-6.506543e-01	1.388411e+02
2.500000e-06	-1.952445e-07	1.944779e-09	-1.382203e+00	1.252651e+02
2.510000e-06	-2.985137e-07	1.726805e-09	-2.113281e+00	1.113664e+02
2.520000e-06	-4.016604e-07	1.507934e-09	-2.843491e+00	9.712346e+01
2.530000e-06	-5.046793e-07	1.289852e-09	-3.572797e+00	8.252087e+01
2.540000e-06	-6.075170e-07	1.069223e-09	-4.300821e+00	6.754990e+01
2.550000e-06	-7.100982e-07	8.391211e-10	-5.027028e+00	5.220771e+01
2.560000e-06	-8.123908e-07	5.954583e-10	-5.751192e+00	3.649512e+01
2.570000e-06	-9.142571e-07	3.446965e-10	-6.472338e+00	2.041402e+01
2.580000e-06	-1.015600e-06	9.354282e-11	-7.189776e+00	3.965572e+00
2.590000e-06	-1.116478e-06	-1.588656e-10	-7.903930e+00	-1.285011e+01
2.600000e-06	-1.216875e-06	-4.196584e-10	-8.614675e+00	-3.003200e+01
2.610000e-06	-1.316806e-06	-6.912198e-10	-9.322123e+00	-4.757423e+01
2.620000e-06	-1.416352e-06	-9.700058e-10	-1.002684e+01	-6.546090e+01
2.630000e-06	-1.515492e-06	-1.251005e-09	-1.072869e+01	-8.366084e+01
2.640000e-06	-1.614110e-06	-1.532555e-09	-1.142684e+01	-1.021238e+02
2.650000e-06	-1.712119e-06	-1.818095e-09	-1.212068e+01	-1.207795e+02
2.660000e-06	-1.809568e-06	-2.107851e-09	-1.281055e+01	-1.395392e+02
2.670000e-06	-1.906434e-06	-2.398767e-09	-1.349630e+01	-1.583018e+02
2.680000e-06	-2.002634e-06	-2.685878e-09	-1.417733e+01	-1.769612e+02
2.690000e-06	-2.098211e-06	-2.967641e-09	-1.485395e+01	-1.954149e+02
2.700000e-06	-2.193140e-06	-3.244779e-09	-1.552599e+01	-2.135720e+02
2.710000e-06	-2.287180e-06	-3.518834e-09	-1.619173e+01	-2.313594e+02
2.720000e-06	-2.380085e-06	-3.788266e-09	-1.684943e+01	-2.487233e+02
2.730000e-06	-2.472011e-06	-4.048674e-09	-1.750021e+01	-2.656291e+02
2.740000e-06	-2.563171e-06	-4.298949e-09	-1.814556e+01	-2.820577e+02
2.750000e-06	-2.653431e-06	-4.541541e-09	-1.878455e+01	-2.979996e+02
2.760000e-06	-2.742707e-06	-4.779038e-09	-1.941656e+01	-3.134502e+02
2.770000e-06	-2.831065e-06	-5.009962e-09	-2.004207e+01	-3.284057e+02
2.780000e-06	-2.918593e-06	-5.232550e-09	-2.066172e+01	-3.428606e+02
2.790000e-06	-3.005139e-06	-5.445909e-09	-2.127440e+01	-3.568089e+02
2.800000e-06	-3.090415e-06	-5.650712e-09	-2.187810e+01	-3.702457e+02
2.810000e-06	-3.174530e-06	-5.848196e-09	-2.247359e+01	-3.831705e+02
2.820000e-06	-3.257629e-06	-6.038971e-09	-2.306187e+01	-3.955897e+02
2.830000e-06	-3.339647e-06	-6.223780e-09	-2.364250e+01	-4.075173e+02
2.840000e-06	-3.420591e-06	-6.399473e-09	-2.421554e+01	-4.189746e+02
2.850000e-06	-3.500423e-06	-6.564439e-09	-2.478069e+01	-4.299866e+02
2.860000e-06	-3.578879e-06	-6.722587e-09	-2.533611e+01	-4.405781e+02
2.870000e-06	-3.655730e-06	-6.877375e-09	-2.588016e+01	-4.507697e+02
2.880000e-06	-3.731056e-06	-7.028662e-09	-2.641342e+01	-4.605743e+02
2.890000e-06	-3.805006e-06	-7.173857e-09	-2.693694e+01	-4.699966e+02
2.900000e-06	-3.877602e-06	-7.313128e-09	-2.745087e+01	-4.790336e+02
2.910000e-06	-3.948857e-06	-7.447114e-09	-2.795530e+01	-4.876787e+02
2.920000e-06	-4.018593e-06	-7.573878e-09	-2.844899e+01	-4.959257e+02
2.930000e-06	-4.086761e-06	-7.694836e-09	-2.893158e+01	-5.037737e+02
2.940000e-06	-4.153532e-06	-7.811753e-09	-2.940427e+01	-5.112305e+02
