# Temperatura_=_64.71
# Concentracion g/m^3_=_15000.0
# C_Vs_to_Am_M_A/Vsm_=_65563218390.804596
# pendiente_HvsI_1/m_=_3716.3
# ordenada_HvsI_A/m_=_1297.0
# frecuencia_Hz_=_301589.48548725963

Tiempo_(s)	Campo_(V.s)	Magnetizacion_(V.s)	Campo_(kA/m)	Magnetizacion_(A/m)
0.000000e+00	-5.399815e-06	-8.995067e-09	-3.834429e+01	-5.877451e+02
1.000000e-08	-5.397449e-06	-8.992602e-09	-3.832749e+01	-5.874985e+02
2.000000e-08	-5.393258e-06	-8.987863e-09	-3.829773e+01	-5.871614e+02
3.000000e-08	-5.387455e-06	-8.982751e-09	-3.825652e+01	-5.867299e+02
4.000000e-08	-5.380044e-06	-8.974488e-09	-3.820389e+01	-5.861934e+02
5.000000e-08	-5.370875e-06	-8.960182e-09	-3.813878e+01	-5.855379e+02
6.000000e-08	-5.359644e-06	-8.942672e-09	-3.805903e+01	-5.847491e+02
7.000000e-08	-5.346470e-06	-8.926440e-09	-3.796548e+01	-5.838172e+02
8.000000e-08	-5.331327e-06	-8.910839e-09	-3.785795e+01	-5.827407e+02
9.000000e-08	-5.313906e-06	-8.919865e-09	-3.773425e+01	-5.815287e+02
1.000000e-07	-5.294314e-06	-8.916564e-09	-3.759512e+01	-5.802005e+02
1.100000e-07	-5.272792e-06	-8.872254e-09	-3.744229e+01	-5.787830e+02
1.200000e-07	-5.249494e-06	-8.826968e-09	-3.727685e+01	-5.773059e+02
1.300000e-07	-5.224646e-06	-8.771951e-09	-3.710040e+01	-5.757959e+02
1.400000e-07	-5.198259e-06	-8.745654e-09	-3.691303e+01	-5.742706e+02
1.500000e-07	-5.170289e-06	-8.793805e-09	-3.671442e+01	-5.727347e+02
1.600000e-07	-5.140804e-06	-8.740219e-09	-3.650504e+01	-5.711777e+02
1.700000e-07	-5.109739e-06	-8.686351e-09	-3.628445e+01	-5.695753e+02
1.800000e-07	-5.076681e-06	-8.690376e-09	-3.604970e+01	-5.678934e+02
1.900000e-07	-5.041635e-06	-8.583927e-09	-3.580084e+01	-5.660934e+02
2.000000e-07	-5.005108e-06	-8.571025e-09	-3.554146e+01	-5.641391e+02
2.100000e-07	-4.966898e-06	-8.609523e-09	-3.527013e+01	-5.620020e+02
2.200000e-07	-4.926844e-06	-8.517513e-09	-3.498571e+01	-5.596660e+02
2.300000e-07	-4.884890e-06	-8.479603e-09	-3.468778e+01	-5.571284e+02
2.400000e-07	-4.840946e-06	-8.455228e-09	-3.437574e+01	-5.543988e+02
2.500000e-07	-4.795216e-06	-8.369253e-09	-3.405101e+01	-5.514959e+02
2.600000e-07	-4.747627e-06	-8.350657e-09	-3.371307e+01	-5.484427e+02
2.700000e-07	-4.697942e-06	-8.311575e-09	-3.336026e+01	-5.452615e+02
2.800000e-07	-4.646145e-06	-8.258301e-09	-3.299245e+01	-5.419702e+02
2.900000e-07	-4.592477e-06	-8.197172e-09	-3.261135e+01	-5.385793e+02
3.000000e-07	-4.537151e-06	-8.128190e-09	-3.221848e+01	-5.350921e+02
3.100000e-07	-4.480233e-06	-8.095219e-09	-3.181430e+01	-5.315050e+02
3.200000e-07	-4.421544e-06	-8.050800e-09	-3.139755e+01	-5.278107e+02
3.300000e-07	-4.361199e-06	-7.991260e-09	-3.096904e+01	-5.240004e+02
3.400000e-07	-4.299426e-06	-7.915555e-09	-3.053038e+01	-5.200666e+02
3.500000e-07	-4.236229e-06	-7.851326e-09	-3.008162e+01	-5.160045e+02
3.600000e-07	-4.171584e-06	-7.798069e-09	-2.962257e+01	-5.118124e+02
3.700000e-07	-4.105245e-06	-7.722095e-09	-2.915150e+01	-5.074913e+02
3.800000e-07	-4.037231e-06	-7.658846e-09	-2.866853e+01	-5.030434e+02
3.900000e-07	-3.967856e-06	-7.589588e-09	-2.817589e+01	-4.984706e+02
4.000000e-07	-3.897258e-06	-7.506610e-09	-2.767457e+01	-4.937735e+02
4.100000e-07	-3.825467e-06	-7.441332e-09	-2.716478e+01	-4.889502e+02
4.200000e-07	-3.752241e-06	-7.373919e-09	-2.664480e+01	-4.839972e+02
4.300000e-07	-3.677346e-06	-7.302050e-09	-2.611297e+01	-4.789094e+02
4.400000e-07	-3.600925e-06	-7.210428e-09	-2.557030e+01	-4.736818e+02
4.500000e-07	-3.523093e-06	-7.117892e-09	-2.501762e+01	-4.683103e+02
4.600000e-07	-3.443810e-06	-7.036469e-09	-2.445462e+01	-4.627924e+02
4.700000e-07	-3.363118e-06	-6.957199e-09	-2.388162e+01	-4.571279e+02
4.800000e-07	-3.281270e-06	-6.875715e-09	-2.330042e+01	-4.513180e+02
4.900000e-07	-3.198380e-06	-6.780834e-09	-2.271182e+01	-4.453651e+02
5.000000e-07	-3.114478e-06	-6.685711e-09	-2.211602e+01	-4.392713e+02
5.100000e-07	-3.029635e-06	-6.585136e-09	-2.151355e+01	-4.330382e+02
5.200000e-07	-2.943848e-06	-6.488154e-09	-2.090438e+01	-4.266656e+02
5.300000e-07	-2.857081e-06	-6.395361e-09	-2.028824e+01	-4.201516e+02
5.400000e-07	-2.769335e-06	-6.295588e-09	-1.966515e+01	-4.134929e+02
5.500000e-07	-2.680669e-06	-6.185345e-09	-1.903553e+01	-4.066849e+02
5.600000e-07	-2.590870e-06	-6.069964e-09	-1.839786e+01	-3.997223e+02
5.700000e-07	-2.499885e-06	-5.964207e-09	-1.775178e+01	-3.925999e+02
5.800000e-07	-2.407979e-06	-5.858072e-09	-1.709915e+01	-3.853130e+02
5.900000e-07	-2.315316e-06	-5.745300e-09	-1.644114e+01	-3.778575e+02
6.000000e-07	-2.221853e-06	-5.627680e-09	-1.577746e+01	-3.702299e+02
6.100000e-07	-2.127620e-06	-5.508391e-09	-1.510831e+01	-3.624276e+02
6.200000e-07	-2.032658e-06	-5.388571e-09	-1.443398e+01	-3.544483e+02
6.300000e-07	-1.936929e-06	-5.264015e-09	-1.375421e+01	-3.462904e+02
6.400000e-07	-1.840510e-06	-5.134426e-09	-1.306953e+01	-3.379523e+02
6.500000e-07	-1.743371e-06	-5.001670e-09	-1.237974e+01	-3.294321e+02
6.600000e-07	-1.645435e-06	-4.864758e-09	-1.168430e+01	-3.207279e+02
6.700000e-07	-1.546710e-06	-4.726189e-09	-1.098325e+01	-3.118370e+02
6.800000e-07	-1.447397e-06	-4.589622e-09	-1.027802e+01	-3.027556e+02
6.900000e-07	-1.347702e-06	-4.449746e-09	-9.570080e+00	-2.934790e+02
7.000000e-07	-1.247647e-06	-4.304935e-09	-8.859587e+00	-2.840014e+02
7.100000e-07	-1.147263e-06	-4.155745e-09	-8.146754e+00	-2.743161e+02
7.200000e-07	-1.046573e-06	-4.002884e-09	-7.431754e+00	-2.644163e+02
7.300000e-07	-9.455439e-07	-3.847503e-09	-6.714342e+00	-2.542956e+02
7.400000e-07	-8.441689e-07	-3.689376e-09	-5.994475e+00	-2.439486e+02
7.500000e-07	-7.424676e-07	-3.527611e-09	-5.272290e+00	-2.333718e+02
7.600000e-07	-6.404509e-07	-3.360284e-09	-4.547866e+00	-2.225633e+02
7.700000e-07	-5.381987e-07	-3.188075e-09	-3.821769e+00	-2.115228e+02
7.800000e-07	-4.357954e-07	-3.014482e-09	-3.094599e+00	-2.002508e+02
7.900000e-07	-3.332638e-07	-2.839463e-09	-2.366519e+00	-1.887472e+02
8.000000e-07	-2.306484e-07	-2.660328e-09	-1.637843e+00	-1.770103e+02
8.100000e-07	-1.279489e-07	-2.477085e-09	-9.085702e-01	-1.650354e+02
8.200000e-07	-2.516026e-08	-2.290963e-09	-1.786639e-01	-1.528146e+02
8.300000e-07	7.766348e-08	-2.102573e-09	5.514913e-01	-1.403364e+02
8.400000e-07	1.804784e-07	-1.909019e-09	1.281584e+00	-1.275868e+02
8.500000e-07	2.832337e-07	-1.709999e-09	2.011253e+00	-1.145500e+02
8.600000e-07	3.859160e-07	-1.508272e-09	2.740404e+00	-1.012099e+02
8.700000e-07	4.884866e-07	-1.300427e-09	3.468762e+00	-8.755176e+01
8.800000e-07	5.908902e-07	-1.085256e-09	4.195933e+00	-7.356258e+01
8.900000e-07	6.931140e-07	-8.646577e-10	4.921828e+00	-5.923190e+01
9.000000e-07	7.951485e-07	-6.409986e-10	5.646379e+00	-4.455173e+01
9.100000e-07	8.969317e-07	-4.132504e-10	6.369146e+00	-2.951647e+01
9.200000e-07	9.983648e-07	-1.799657e-10	7.089426e+00	-1.412287e+01
9.300000e-07	1.099387e-06	5.917187e-11	7.806789e+00	1.629346e+00
9.400000e-07	1.200029e-06	3.049183e-10	8.521453e+00	1.773629e+01
9.500000e-07	1.300338e-06	5.546850e-10	9.233751e+00	3.418790e+01
9.600000e-07	1.400266e-06	8.078721e-10	9.943341e+00	5.096549e+01
9.700000e-07	1.499709e-06	1.067035e-09	1.064949e+01	6.803933e+01
9.800000e-07	1.598516e-06	1.331109e-09	1.135112e+01	8.536688e+01
9.900000e-07	1.696577e-06	1.597043e-09	1.204746e+01	1.028922e+02
1.000000e-06	1.793849e-06	1.863288e-09	1.273819e+01	1.205468e+02
1.010000e-06	1.890295e-06	2.128821e-09	1.342306e+01	1.382528e+02
1.020000e-06	1.986012e-06	2.394903e-09	1.410275e+01	1.559261e+02
1.030000e-06	2.081043e-06	2.662023e-09	1.477756e+01	1.734824e+02
1.040000e-06	2.175338e-06	2.927637e-09	1.544715e+01	1.908410e+02
1.050000e-06	2.268893e-06	3.186815e-09	1.611150e+01	2.079299e+02
1.060000e-06	2.361715e-06	3.438501e-09	1.677063e+01	2.246879e+02
1.070000e-06	2.453841e-06	3.684664e-09	1.742482e+01	2.410660e+02
1.080000e-06	2.545211e-06	3.926625e-09	1.807364e+01	2.570269e+02
1.090000e-06	2.635577e-06	4.162816e-09	1.871533e+01	2.725434e+02
1.100000e-06	2.724735e-06	4.390923e-09	1.934845e+01	2.875958e+02
1.110000e-06	2.812813e-06	4.610032e-09	1.997389e+01	3.021703e+02
1.120000e-06	2.899970e-06	4.821550e-09	2.059280e+01	3.162570e+02
1.130000e-06	2.986216e-06	5.027621e-09	2.120523e+01	3.298497e+02
1.140000e-06	3.071497e-06	5.227789e-09	2.181081e+01	3.429459e+02
1.150000e-06	3.155845e-06	5.420049e-09	2.240977e+01	3.555480e+02
1.160000e-06	3.239254e-06	5.603769e-09	2.300207e+01	3.676631e+02
1.170000e-06	3.321522e-06	5.779788e-09	2.358625e+01	3.793038e+02
1.180000e-06	3.402496e-06	5.948895e-09	2.416125e+01	3.904867e+02
1.190000e-06	3.482225e-06	6.111157e-09	2.472741e+01	4.012308e+02
1.200000e-06	3.560693e-06	6.267747e-09	2.528461e+01	4.115550e+02
1.210000e-06	3.637886e-06	6.419385e-09	2.583276e+01	4.214751e+02
1.220000e-06	3.713852e-06	6.566091e-09	2.637220e+01	4.310023e+02
1.230000e-06	3.788384e-06	6.707034e-09	2.690145e+01	4.401421e+02
1.240000e-06	3.861289e-06	6.840079e-09	2.741915e+01	4.488954e+02
1.250000e-06	3.932697e-06	6.966236e-09	2.792623e+01	4.572599e+02
1.260000e-06	4.002759e-06	7.085465e-09	2.842374e+01	4.652344e+02
1.270000e-06	4.071456e-06	7.198125e-09	2.891156e+01	4.728209e+02
1.280000e-06	4.138743e-06	7.304554e-09	2.938937e+01	4.800286e+02
1.290000e-06	4.204377e-06	7.405687e-09	2.985544e+01	4.868741e+02
1.300000e-06	4.268287e-06	7.503545e-09	3.030927e+01	4.933821e+02
1.310000e-06	4.330711e-06	7.598491e-09	3.075254e+01	4.995826e+02
1.320000e-06	4.391782e-06	7.690165e-09	3.118621e+01	5.055078e+02
1.330000e-06	4.451540e-06	7.779256e-09	3.161055e+01	5.111878e+02
1.340000e-06	4.509660e-06	7.864903e-09	3.202327e+01	5.166476e+02
1.350000e-06	4.565905e-06	7.945354e-09	3.242266e+01	5.219037e+02
1.360000e-06	4.620503e-06	8.018872e-09	3.281037e+01	5.269641e+02
1.370000e-06	4.673460e-06	8.088680e-09	3.318641e+01	5.318287e+02
1.380000e-06	4.724500e-06	8.157716e-09	3.354885e+01	5.364916e+02
1.390000e-06	4.773473e-06	8.224961e-09	3.389661e+01	5.409446e+02
1.400000e-06	4.820633e-06	8.289590e-09	3.423150e+01	5.451796e+02
1.410000e-06	4.866202e-06	8.350695e-09	3.455508e+01	5.491914e+02
1.420000e-06	4.910205e-06	8.408576e-09	3.486755e+01	5.529790e+02
1.430000e-06	4.952399e-06	8.463190e-09	3.516717e+01	5.565450e+02
1.440000e-06	4.992671e-06	8.515080e-09	3.545314e+01	5.598950e+02
1.450000e-06	5.031252e-06	8.563621e-09	3.572711e+01	5.630360e+02
1.460000e-06	5.068213e-06	8.607832e-09	3.598957e+01	5.659745e+02
1.470000e-06	5.103561e-06	8.646287e-09	3.624058e+01	5.687161e+02
1.480000e-06	5.137032e-06	8.680809e-09	3.647826e+01	5.712648e+02
1.490000e-06	5.168564e-06	8.714011e-09	3.670217e+01	5.736239e+02
1.500000e-06	5.198365e-06	8.745400e-09	3.691378e+01	5.757967e+02
1.510000e-06	5.226539e-06	8.774650e-09	3.711385e+01	5.777877e+02
1.520000e-06	5.252832e-06	8.801645e-09	3.730056e+01	5.796031e+02
1.530000e-06	5.276978e-06	8.826522e-09	3.747202e+01	5.812502e+02
1.540000e-06	5.299204e-06	8.848411e-09	3.762984e+01	5.827373e+02
1.550000e-06	5.319705e-06	8.867059e-09	3.777543e+01	5.840716e+02
1.560000e-06	5.338421e-06	8.882218e-09	3.790833e+01	5.852584e+02
1.570000e-06	5.355141e-06	8.895760e-09	3.802706e+01	5.863002e+02
1.580000e-06	5.369813e-06	8.909111e-09	3.813124e+01	5.871966e+02
1.590000e-06	5.382485e-06	8.920738e-09	3.822122e+01	5.879455e+02
1.600000e-06	5.393020e-06	8.930366e-09	3.829603e+01	5.885448e+02
1.610000e-06	5.401408e-06	8.938323e-09	3.835560e+01	5.889945e+02
1.620000e-06	5.407863e-06	8.944198e-09	3.840143e+01	5.892984e+02
1.630000e-06	5.412526e-06	8.948216e-09	3.843455e+01	5.894643e+02
1.640000e-06	5.415318e-06	8.951011e-09	3.845437e+01	5.895039e+02
1.650000e-06	5.416110e-06	8.951712e-09	3.846000e+01	5.894307e+02
1.660000e-06	5.415034e-06	8.950324e-09	3.845236e+01	5.892568e+02
1.670000e-06	5.412301e-06	8.944890e-09	3.843295e+01	5.889904e+02
1.680000e-06	5.407895e-06	8.940460e-09	3.840167e+01	5.886331e+02
1.690000e-06	5.401545e-06	8.934248e-09	3.835658e+01	5.881797e+02
1.700000e-06	5.393331e-06	8.924660e-09	3.829825e+01	5.876186e+02
1.710000e-06	5.383542e-06	8.915182e-09	3.822874e+01	5.869351e+02
1.720000e-06	5.372098e-06	8.906066e-09	3.814747e+01	5.861158e+02
1.730000e-06	5.358804e-06	8.897905e-09	3.805307e+01	5.851522e+02
1.740000e-06	5.343461e-06	8.858347e-09	3.794411e+01	5.840451e+02
1.750000e-06	5.325797e-06	8.810502e-09	3.781869e+01	5.828058e+02
1.760000e-06	5.305481e-06	8.812002e-09	3.767442e+01	5.814555e+02
1.770000e-06	5.282677e-06	8.816105e-09	3.751249e+01	5.800224e+02
1.780000e-06	5.258358e-06	8.834153e-09	3.733980e+01	5.785358e+02
1.790000e-06	5.233302e-06	8.798678e-09	3.716187e+01	5.770209e+02
1.800000e-06	5.207077e-06	8.687083e-09	3.697565e+01	5.754930e+02
1.810000e-06	5.178714e-06	8.719043e-09	3.677424e+01	5.739535e+02
1.820000e-06	5.148326e-06	8.701505e-09	3.655845e+01	5.723888e+02
1.830000e-06	5.116320e-06	8.628599e-09	3.633118e+01	5.707721e+02
1.840000e-06	5.082399e-06	8.702425e-09	3.609031e+01	5.690677e+02
1.850000e-06	5.046762e-06	8.652741e-09	3.583725e+01	5.672370e+02
1.860000e-06	5.009508e-06	8.574245e-09	3.557270e+01	5.652451e+02
1.870000e-06	4.970345e-06	8.617490e-09	3.529460e+01	5.630658e+02
1.880000e-06	4.929442e-06	8.524168e-09	3.500415e+01	5.606859e+02
1.890000e-06	4.886739e-06	8.511059e-09	3.470092e+01	5.581056e+02
1.900000e-06	4.842348e-06	8.526145e-09	3.438570e+01	5.553366e+02
1.910000e-06	4.796235e-06	8.397505e-09	3.405824e+01	5.523991e+02
1.920000e-06	4.748072e-06	8.390020e-09	3.371623e+01	5.493162e+02
1.930000e-06	4.698263e-06	8.309877e-09	3.336254e+01	5.461097e+02
1.940000e-06	4.646800e-06	8.266960e-09	3.299710e+01	5.427959e+02
1.950000e-06	4.593254e-06	8.291750e-09	3.261687e+01	5.393840e+02
1.960000e-06	4.537715e-06	8.163998e-09	3.222248e+01	5.358753e+02
1.970000e-06	4.480386e-06	8.113337e-09	3.181539e+01	5.322655e+02
1.980000e-06	4.421577e-06	8.058721e-09	3.139778e+01	5.285466e+02
1.990000e-06	4.361312e-06	8.005159e-09	3.096984e+01	5.247100e+02
2.000000e-06	4.299303e-06	7.967783e-09	3.052951e+01	5.207485e+02
2.010000e-06	4.235660e-06	7.861886e-09	3.007758e+01	5.166581e+02
2.020000e-06	4.170543e-06	7.842595e-09	2.961518e+01	5.124378e+02
2.030000e-06	4.103991e-06	7.750512e-09	2.914259e+01	5.080889e+02
2.040000e-06	4.036012e-06	7.674125e-09	2.865987e+01	5.036137e+02
2.050000e-06	3.966553e-06	7.640022e-09	2.816664e+01	4.990138e+02
2.060000e-06	3.895550e-06	7.543446e-09	2.766245e+01	4.942894e+02
2.070000e-06	3.823139e-06	7.482291e-09	2.714825e+01	4.894383e+02
2.080000e-06	3.749453e-06	7.374791e-09	2.662501e+01	4.844563e+02
2.090000e-06	3.674357e-06	7.319616e-09	2.609175e+01	4.793385e+02
2.100000e-06	3.597826e-06	7.260432e-09	2.554830e+01	4.740799e+02
2.110000e-06	3.519738e-06	7.161148e-09	2.499379e+01	4.686767e+02
2.120000e-06	3.440182e-06	7.081557e-09	2.442886e+01	4.631270e+02
2.130000e-06	3.359488e-06	6.975984e-09	2.385585e+01	4.574307e+02
2.140000e-06	3.277753e-06	6.895970e-09	2.327545e+01	4.515895e+02
2.150000e-06	3.194940e-06	6.798076e-09	2.268739e+01	4.456058e+02
2.160000e-06	3.111050e-06	6.718594e-09	2.209169e+01	4.394816e+02
2.170000e-06	3.026082e-06	6.631454e-09	2.148832e+01	4.332182e+02
2.180000e-06	2.939813e-06	6.519724e-09	2.087572e+01	4.268151e+02
2.190000e-06	2.852258e-06	6.417522e-09	2.025399e+01	4.202700e+02
2.200000e-06	2.763724e-06	6.316814e-09	1.962531e+01	4.135792e+02
2.210000e-06	2.674255e-06	6.229199e-09	1.898999e+01	4.067381e+02
2.220000e-06	2.583897e-06	6.118738e-09	1.834835e+01	3.997412e+02
2.230000e-06	2.492711e-06	6.005758e-09	1.770083e+01	3.925835e+02
2.240000e-06	2.400694e-06	5.890074e-09	1.704742e+01	3.852604e+02
2.250000e-06	2.307883e-06	5.774177e-09	1.638837e+01	3.777678e+02
2.260000e-06	2.214168e-06	5.658575e-09	1.572289e+01	3.701025e+02
2.270000e-06	2.119406e-06	5.539662e-09	1.504998e+01	3.622620e+02
2.280000e-06	2.023680e-06	5.421115e-09	1.437022e+01	3.542441e+02
2.290000e-06	1.927254e-06	5.294489e-09	1.368550e+01	3.460473e+02
2.300000e-06	1.830305e-06	5.169318e-09	1.299706e+01	3.376698e+02
2.310000e-06	1.732878e-06	5.043273e-09	1.230523e+01	3.291100e+02
2.320000e-06	1.634886e-06	4.913034e-09	1.160939e+01	3.203656e+02
2.330000e-06	1.536337e-06	4.772408e-09	1.090958e+01	3.114337e+02
2.340000e-06	1.437343e-06	4.629867e-09	1.020662e+01	3.023105e+02
2.350000e-06	1.337949e-06	4.486535e-09	9.500823e+00	2.929909e+02
2.360000e-06	1.238236e-06	4.344104e-09	8.792763e+00	2.834689e+02
2.370000e-06	1.138270e-06	4.201629e-09	8.082901e+00	2.737378e+02
2.380000e-06	1.038012e-06	4.050304e-09	7.370962e+00	2.637907e+02
2.390000e-06	9.372913e-07	3.892457e-09	6.655741e+00	2.536215e+02
2.400000e-06	8.361067e-07	3.733440e-09	5.937225e+00	2.432250e+02
2.410000e-06	7.345312e-07	3.576540e-09	5.215934e+00	2.325982e+02
2.420000e-06	6.325905e-07	3.415297e-09	4.492049e+00	2.217395e+02
2.430000e-06	5.303480e-07	3.247628e-09	3.766021e+00	2.106489e+02
2.440000e-06	4.278425e-07	3.074416e-09	3.038126e+00	1.993269e+02
2.450000e-06	3.251606e-07	2.897034e-09	2.308978e+00	1.877731e+02
2.460000e-06	2.222919e-07	2.714635e-09	1.578503e+00	1.759852e+02
2.470000e-06	1.192270e-07	2.533184e-09	8.466352e-01	1.639580e+02
2.480000e-06	1.613311e-08	2.350094e-09	1.145618e-01	1.516826e+02
2.490000e-06	-8.694349e-08	2.159344e-09	-6.173890e-01	1.391471e+02
2.500000e-06	-1.900200e-07	1.961817e-09	-1.349339e+00	1.263368e+02
2.510000e-06	-2.930428e-07	1.760822e-09	-2.080908e+00	1.132359e+02
2.520000e-06	-3.959822e-07	1.558255e-09	-2.811885e+00	9.982841e+01
2.530000e-06	-4.987233e-07	1.348312e-09	-3.541453e+00	8.609988e+01
2.540000e-06	-6.012124e-07	1.133908e-09	-4.269232e+00	7.203786e+01
2.550000e-06	-7.034279e-07	9.153319e-10	-4.995068e+00	5.763243e+01
2.560000e-06	-8.052874e-07	6.882446e-10	-5.718376e+00	4.287611e+01
2.570000e-06	-9.066758e-07	4.537589e-10	-6.438338e+00	2.776379e+01
2.580000e-06	-1.007595e-06	2.158346e-10	-7.154968e+00	1.229281e+01
2.590000e-06	-1.108124e-06	-2.516500e-11	-7.868831e+00	-3.536380e+00
2.600000e-06	-1.208238e-06	-2.711359e-10	-8.579745e+00	-1.971874e+01
2.610000e-06	-1.307913e-06	-5.222352e-10	-9.287541e+00	-3.624256e+01
2.620000e-06	-1.407194e-06	-7.792995e-10	-9.992534e+00	-5.308700e+01
2.630000e-06	-1.506082e-06	-1.040748e-09	-1.069474e+01	-7.021970e+01
2.640000e-06	-1.604444e-06	-1.308206e-09	-1.139321e+01	-8.759524e+01
2.650000e-06	-1.702193e-06	-1.580946e-09	-1.208734e+01	-1.051549e+02
2.660000e-06	-1.799342e-06	-1.855370e-09	-1.277719e+01	-1.228278e+02
2.670000e-06	-1.895904e-06	-2.128321e-09	-1.346288e+01	-1.405344e+02
2.680000e-06	-1.991881e-06	-2.397312e-09	-1.414442e+01	-1.581901e+02
2.690000e-06	-2.087305e-06	-2.664075e-09	-1.482203e+01	-1.757110e+02
2.700000e-06	-2.181980e-06	-2.928738e-09	-1.549432e+01	-1.930181e+02
2.710000e-06	-2.275609e-06	-3.189840e-09	-1.615918e+01	-2.100412e+02
2.720000e-06	-2.368218e-06	-3.445486e-09	-1.681680e+01	-2.267219e+02
2.730000e-06	-2.459955e-06	-3.695214e-09	-1.746823e+01	-2.430138e+02
2.740000e-06	-2.550871e-06	-3.939106e-09	-1.811383e+01	-2.588820e+02
2.750000e-06	-2.640898e-06	-4.176382e-09	-1.875311e+01	-2.743009e+02
2.760000e-06	-2.729952e-06	-4.407044e-09	-1.938549e+01	-2.892524e+02
2.770000e-06	-2.818112e-06	-4.631865e-09	-2.001152e+01	-3.037235e+02
2.780000e-06	-2.905473e-06	-4.847348e-09	-2.063187e+01	-3.177052e+02
2.790000e-06	-2.991806e-06	-5.052903e-09	-2.124493e+01	-3.311920e+02
2.800000e-06	-3.076886e-06	-5.251927e-09	-2.184908e+01	-3.441825e+02
2.810000e-06	-3.160835e-06	-5.443039e-09	-2.244521e+01	-3.566798e+02
2.820000e-06	-3.243739e-06	-5.625333e-09	-2.303392e+01	-3.686925e+02
2.830000e-06	-3.325612e-06	-5.800741e-09	-2.361529e+01	-3.802340e+02
2.840000e-06	-3.406395e-06	-5.968894e-09	-2.418894e+01	-3.913218e+02
2.850000e-06	-3.486014e-06	-6.130995e-09	-2.475432e+01	-4.019748e+02
2.860000e-06	-3.564266e-06	-6.287833e-09	-2.530999e+01	-4.122117e+02
2.870000e-06	-3.640922e-06	-6.438956e-09	-2.585433e+01	-4.220473e+02
2.880000e-06	-3.716063e-06	-6.583931e-09	-2.638790e+01	-4.314916e+02
2.890000e-06	-3.789841e-06	-6.721692e-09	-2.691180e+01	-4.405492e+02
2.900000e-06	-3.862402e-06	-6.854683e-09	-2.742706e+01	-4.492197e+02
2.910000e-06	-3.933617e-06	-6.983633e-09	-2.793276e+01	-4.575012e+02
2.920000e-06	-4.003230e-06	-7.105943e-09	-2.842709e+01	-4.653926e+02
2.930000e-06	-4.071262e-06	-7.221027e-09	-2.891018e+01	-4.728974e+02
2.940000e-06	-4.137874e-06	-7.331569e-09	-2.938319e+01	-4.800262e+02
