# Temperatura_=_73.18
# Concentracion g/m^3_=_15000.0
# C_Vs_to_Am_M_A/Vsm_=_65563218390.804596
# pendiente_HvsI_1/m_=_3716.3
# ordenada_HvsI_A/m_=_1297.0
# frecuencia_Hz_=_301600.9049965384

Tiempo_(s)	Campo_(V.s)	Magnetizacion_(V.s)	Campo_(kA/m)	Magnetizacion_(A/m)
0.000000e+00	-5.419763e-06	-9.349172e-09	-3.833737e+01	-6.106809e+02
1.000000e-08	-5.417501e-06	-9.345824e-09	-3.832136e+01	-6.103908e+02
2.000000e-08	-5.413327e-06	-9.338451e-09	-3.829184e+01	-6.100054e+02
3.000000e-08	-5.407507e-06	-9.330428e-09	-3.825067e+01	-6.095259e+02
4.000000e-08	-5.400139e-06	-9.320610e-09	-3.819855e+01	-6.089438e+02
5.000000e-08	-5.390964e-06	-9.307032e-09	-3.813365e+01	-6.082432e+02
6.000000e-08	-5.379666e-06	-9.290493e-09	-3.805374e+01	-6.074049e+02
7.000000e-08	-5.366459e-06	-9.271011e-09	-3.796032e+01	-6.064127e+02
8.000000e-08	-5.351239e-06	-9.262983e-09	-3.785266e+01	-6.052591e+02
9.000000e-08	-5.333785e-06	-9.284997e-09	-3.772919e+01	-6.039493e+02
1.000000e-07	-5.314271e-06	-9.263738e-09	-3.759116e+01	-6.025028e+02
1.100000e-07	-5.292851e-06	-9.210371e-09	-3.743964e+01	-6.009511e+02
1.200000e-07	-5.269650e-06	-9.164777e-09	-3.727552e+01	-5.993318e+02
1.300000e-07	-5.244827e-06	-9.077627e-09	-3.709994e+01	-5.976812e+02
1.400000e-07	-5.218395e-06	-9.093281e-09	-3.691297e+01	-5.960264e+02
1.500000e-07	-5.190339e-06	-9.153005e-09	-3.671451e+01	-5.943784e+02
1.600000e-07	-5.160763e-06	-9.035118e-09	-3.650530e+01	-5.927285e+02
1.700000e-07	-5.129656e-06	-9.038391e-09	-3.628526e+01	-5.910496e+02
1.800000e-07	-5.096530e-06	-9.041460e-09	-3.605094e+01	-5.892997e+02
1.900000e-07	-5.061431e-06	-8.904104e-09	-3.580266e+01	-5.874300e+02
2.000000e-07	-5.024887e-06	-8.954138e-09	-3.554417e+01	-5.853936e+02
2.100000e-07	-4.986618e-06	-8.923615e-09	-3.527346e+01	-5.831535e+02
2.200000e-07	-4.946460e-06	-8.774862e-09	-3.498940e+01	-5.806887e+02
2.300000e-07	-4.904339e-06	-8.790575e-09	-3.469145e+01	-5.779965e+02
2.400000e-07	-4.860261e-06	-8.779742e-09	-3.437966e+01	-5.750909e+02
2.500000e-07	-4.814442e-06	-8.726821e-09	-3.405555e+01	-5.719982e+02
2.600000e-07	-4.766730e-06	-8.700951e-09	-3.371806e+01	-5.687497e+02
2.700000e-07	-4.716857e-06	-8.600326e-09	-3.336527e+01	-5.653754e+02
2.800000e-07	-4.664864e-06	-8.533645e-09	-3.299750e+01	-5.618975e+02
2.900000e-07	-4.611051e-06	-8.495449e-09	-3.261684e+01	-5.583274e+02
3.000000e-07	-4.555668e-06	-8.453498e-09	-3.222508e+01	-5.546652e+02
3.100000e-07	-4.498627e-06	-8.412360e-09	-3.182159e+01	-5.509018e+02
3.200000e-07	-4.439732e-06	-8.347700e-09	-3.140499e+01	-5.470229e+02
3.300000e-07	-4.379216e-06	-8.261982e-09	-3.097693e+01	-5.430139e+02
3.400000e-07	-4.317237e-06	-8.184462e-09	-3.053851e+01	-5.388635e+02
3.500000e-07	-4.253846e-06	-8.161920e-09	-3.009011e+01	-5.345664e+02
3.600000e-07	-4.188924e-06	-8.098708e-09	-2.963087e+01	-5.301236e+02
3.700000e-07	-4.122267e-06	-7.991452e-09	-2.915937e+01	-5.255410e+02
3.800000e-07	-4.054057e-06	-7.926501e-09	-2.867688e+01	-5.208268e+02
3.900000e-07	-3.984467e-06	-7.861023e-09	-2.818463e+01	-5.159884e+02
4.000000e-07	-3.913629e-06	-7.783262e-09	-2.768354e+01	-5.110295e+02
4.100000e-07	-3.841603e-06	-7.705150e-09	-2.717406e+01	-5.059493e+02
4.200000e-07	-3.768081e-06	-7.626092e-09	-2.665399e+01	-5.007419e+02
4.300000e-07	-3.692932e-06	-7.539733e-09	-2.612241e+01	-4.953982e+02
4.400000e-07	-3.616284e-06	-7.448925e-09	-2.558024e+01	-4.899076e+02
4.500000e-07	-3.538126e-06	-7.378663e-09	-2.502737e+01	-4.842608e+02
4.600000e-07	-3.458490e-06	-7.308670e-09	-2.446406e+01	-4.784516e+02
4.700000e-07	-3.377619e-06	-7.212415e-09	-2.389201e+01	-4.724776e+02
4.800000e-07	-3.295642e-06	-7.095419e-09	-2.331213e+01	-4.663409e+02
4.900000e-07	-3.212566e-06	-6.995842e-09	-2.272448e+01	-4.600464e+02
5.000000e-07	-3.128468e-06	-6.913479e-09	-2.212961e+01	-4.536004e+02
5.100000e-07	-3.043399e-06	-6.812331e-09	-2.152786e+01	-4.470086e+02
5.200000e-07	-2.957354e-06	-6.704649e-09	-2.091921e+01	-4.402748e+02
5.300000e-07	-2.870279e-06	-6.597243e-09	-2.030327e+01	-4.333997e+02
5.400000e-07	-2.782186e-06	-6.486160e-09	-1.968014e+01	-4.263810e+02
5.500000e-07	-2.693062e-06	-6.378394e-09	-1.904971e+01	-4.192136e+02
5.600000e-07	-2.602768e-06	-6.272953e-09	-1.841100e+01	-4.118908e+02
5.700000e-07	-2.511432e-06	-6.163212e-09	-1.776493e+01	-4.044055e+02
5.800000e-07	-2.419274e-06	-6.037377e-09	-1.711303e+01	-3.967510e+02
5.900000e-07	-2.326274e-06	-5.910610e-09	-1.645519e+01	-3.889218e+02
6.000000e-07	-2.232436e-06	-5.792987e-09	-1.579141e+01	-3.809145e+02
6.100000e-07	-2.137847e-06	-5.673159e-09	-1.512233e+01	-3.727268e+02
6.200000e-07	-2.042602e-06	-5.542905e-09	-1.444860e+01	-3.643580e+02
6.300000e-07	-1.946582e-06	-5.405185e-09	-1.376939e+01	-3.558076e+02
6.400000e-07	-1.849684e-06	-5.270639e-09	-1.308397e+01	-3.470752e+02
6.500000e-07	-1.751983e-06	-5.138150e-09	-1.239287e+01	-3.381590e+02
6.600000e-07	-1.653573e-06	-5.001910e-09	-1.169675e+01	-3.290561e+02
6.700000e-07	-1.554575e-06	-4.859341e-09	-1.099648e+01	-3.197613e+02
6.800000e-07	-1.455066e-06	-4.711810e-09	-1.029259e+01	-3.102676e+02
6.900000e-07	-1.355113e-06	-4.559256e-09	-9.585563e+00	-3.005666e+02
7.000000e-07	-1.254778e-06	-4.406899e-09	-8.875830e+00	-2.906494e+02
7.100000e-07	-1.154081e-06	-4.254627e-09	-8.163536e+00	-2.805072e+02
7.200000e-07	-1.053068e-06	-4.094043e-09	-7.449011e+00	-2.701333e+02
7.300000e-07	-9.516933e-07	-3.926145e-09	-6.731921e+00	-2.595240e+02
7.400000e-07	-8.498889e-07	-3.756299e-09	-6.011795e+00	-2.486788e+02
7.500000e-07	-7.477586e-07	-3.586425e-09	-5.289363e+00	-2.376009e+02
7.600000e-07	-6.453977e-07	-3.415004e-09	-4.565301e+00	-2.262963e+02
7.700000e-07	-5.428702e-07	-3.239501e-09	-3.840060e+00	-2.147713e+02
7.800000e-07	-4.401924e-07	-3.058605e-09	-3.113755e+00	-2.030311e+02
7.900000e-07	-3.374008e-07	-2.875321e-09	-2.386646e+00	-1.910770e+02
8.000000e-07	-2.344961e-07	-2.688865e-09	-1.658737e+00	-1.789044e+02
8.100000e-07	-1.315256e-07	-2.499127e-09	-9.303629e-01	-1.665019e+02
8.200000e-07	-2.849775e-08	-2.306484e-09	-2.015824e-01	-1.538519e+02
8.300000e-07	7.459709e-08	-2.109787e-09	5.276718e-01	-1.409320e+02
8.400000e-07	1.776688e-07	-1.908387e-09	1.256762e+00	-1.277176e+02
8.500000e-07	2.807098e-07	-1.701903e-09	1.985636e+00	-1.141857e+02
8.600000e-07	3.836858e-07	-1.493439e-09	2.714049e+00	-1.003169e+02
8.700000e-07	4.865105e-07	-1.278056e-09	3.441393e+00	-8.609829e+01
8.800000e-07	5.892122e-07	-1.053944e-09	4.167866e+00	-7.152308e+01
8.900000e-07	6.917887e-07	-8.238116e-10	4.893453e+00	-5.659002e+01
9.000000e-07	7.941830e-07	-5.890019e-10	5.617752e+00	-4.130108e+01
9.100000e-07	8.963865e-07	-3.504324e-10	6.340702e+00	-2.565887e+01
9.200000e-07	9.982507e-07	-1.071037e-10	7.061251e+00	-9.664605e+00
9.300000e-07	1.099653e-06	1.414340e-10	7.778530e+00	6.682428e+00
9.400000e-07	1.200621e-06	3.963725e-10	8.492739e+00	2.338351e+01
9.500000e-07	1.301194e-06	6.559534e-10	9.204158e+00	4.043705e+01
9.600000e-07	1.401404e-06	9.184799e-10	9.913006e+00	5.783366e+01
9.700000e-07	1.501192e-06	1.184143e-09	1.061887e+01	7.555082e+01
9.800000e-07	1.600398e-06	1.454822e-09	1.132061e+01	9.354844e+01
9.900000e-07	1.698909e-06	1.730091e-09	1.201744e+01	1.117665e+02
1.000000e-06	1.796661e-06	2.007175e-09	1.270891e+01	1.301259e+02
1.010000e-06	1.893626e-06	2.284360e-09	1.339480e+01	1.485321e+02
1.020000e-06	1.989807e-06	2.562193e-09	1.407515e+01	1.668820e+02
1.030000e-06	2.085212e-06	2.839002e-09	1.475001e+01	1.850725e+02
1.040000e-06	2.179848e-06	3.111531e-09	1.541942e+01	2.030083e+02
1.050000e-06	2.273760e-06	3.376534e-09	1.608372e+01	2.206092e+02
1.060000e-06	2.366926e-06	3.633733e-09	1.674274e+01	2.378139e+02
1.070000e-06	2.459375e-06	3.886816e-09	1.739669e+01	2.545809e+02
1.080000e-06	2.551142e-06	4.135941e-09	1.804582e+01	2.708861e+02
1.090000e-06	2.642004e-06	4.378055e-09	1.868854e+01	2.867178e+02
1.100000e-06	2.731692e-06	4.613191e-09	1.932296e+01	3.020716e+02
1.110000e-06	2.820236e-06	4.838741e-09	1.994929e+01	3.169450e+02
1.120000e-06	2.907738e-06	5.054700e-09	2.056825e+01	3.313343e+02
1.130000e-06	2.994285e-06	5.264138e-09	2.118045e+01	3.452338e+02
1.140000e-06	3.079903e-06	5.468774e-09	2.178607e+01	3.586370e+02
1.150000e-06	3.164564e-06	5.665002e-09	2.238494e+01	3.715398e+02
1.160000e-06	3.248296e-06	5.851621e-09	2.297723e+01	3.839433e+02
1.170000e-06	3.330917e-06	6.031689e-09	2.356165e+01	3.958563e+02
1.180000e-06	3.412258e-06	6.205414e-09	2.413703e+01	4.072955e+02
1.190000e-06	3.492294e-06	6.373887e-09	2.470318e+01	4.182840e+02
1.200000e-06	3.571153e-06	6.536596e-09	2.526099e+01	4.288469e+02
1.210000e-06	3.648809e-06	6.691673e-09	2.581030e+01	4.390073e+02
1.220000e-06	3.725154e-06	6.840052e-09	2.635034e+01	4.487819e+02
1.230000e-06	3.800054e-06	6.984195e-09	2.688015e+01	4.581781e+02
1.240000e-06	3.873288e-06	7.123762e-09	2.739818e+01	4.671943e+02
1.250000e-06	3.944976e-06	7.256260e-09	2.790528e+01	4.758222e+02
1.260000e-06	4.015281e-06	7.378324e-09	2.840259e+01	4.840516e+02
1.270000e-06	4.084216e-06	7.492791e-09	2.889021e+01	4.918758e+02
1.280000e-06	4.151802e-06	7.603146e-09	2.936829e+01	4.992973e+02
1.290000e-06	4.217859e-06	7.708462e-09	2.983555e+01	5.063303e+02
1.300000e-06	4.282196e-06	7.809179e-09	3.029064e+01	5.130017e+02
1.310000e-06	4.344981e-06	7.906005e-09	3.073476e+01	5.193481e+02
1.320000e-06	4.406359e-06	7.998740e-09	3.116893e+01	5.254112e+02
1.330000e-06	4.466349e-06	8.088648e-09	3.159327e+01	5.312311e+02
1.340000e-06	4.524770e-06	8.176092e-09	3.200652e+01	5.368406e+02
1.350000e-06	4.581351e-06	8.260516e-09	3.240675e+01	5.422606e+02
1.360000e-06	4.636217e-06	8.338804e-09	3.279486e+01	5.474987e+02
1.370000e-06	4.689505e-06	8.412141e-09	3.317180e+01	5.525503e+02
1.380000e-06	4.740968e-06	8.484223e-09	3.353583e+01	5.574023e+02
1.390000e-06	4.790301e-06	8.554596e-09	3.388479e+01	5.620387e+02
1.400000e-06	4.837689e-06	8.621561e-09	3.421999e+01	5.664450e+02
1.410000e-06	4.883445e-06	8.684788e-09	3.454366e+01	5.706126e+02
1.420000e-06	4.927669e-06	8.744909e-09	3.485648e+01	5.745405e+02
1.430000e-06	4.970185e-06	8.801897e-09	3.515722e+01	5.782347e+02
1.440000e-06	5.010732e-06	8.856137e-09	3.544404e+01	5.817058e+02
1.450000e-06	5.049491e-06	8.907343e-09	3.571820e+01	5.849653e+02
1.460000e-06	5.086643e-06	8.953253e-09	3.598100e+01	5.880229e+02
1.470000e-06	5.122138e-06	8.994222e-09	3.623208e+01	5.908840e+02
1.480000e-06	5.155741e-06	9.031921e-09	3.646977e+01	5.935498e+02
1.490000e-06	5.187422e-06	9.066815e-09	3.669388e+01	5.960182e+02
1.500000e-06	5.217389e-06	9.099456e-09	3.690585e+01	5.982868e+02
1.510000e-06	5.245692e-06	9.129875e-09	3.710606e+01	6.003556e+02
1.520000e-06	5.272135e-06	9.157545e-09	3.729310e+01	6.022290e+02
1.530000e-06	5.296494e-06	9.181964e-09	3.746541e+01	6.039166e+02
1.540000e-06	5.318878e-06	9.203853e-09	3.762374e+01	6.054316e+02
1.550000e-06	5.339457e-06	9.224020e-09	3.776931e+01	6.067888e+02
1.560000e-06	5.358260e-06	9.241728e-09	3.790232e+01	6.080011e+02
1.570000e-06	5.375101e-06	9.256353e-09	3.802145e+01	6.090767e+02
1.580000e-06	5.389907e-06	9.268601e-09	3.812618e+01	6.100175e+02
1.590000e-06	5.402800e-06	9.280036e-09	3.821738e+01	6.108199e+02
1.600000e-06	5.413572e-06	9.290394e-09	3.829358e+01	6.114763e+02
1.610000e-06	5.422071e-06	9.299461e-09	3.835370e+01	6.119791e+02
1.620000e-06	5.428575e-06	9.306101e-09	3.839970e+01	6.123238e+02
1.630000e-06	5.433311e-06	9.311665e-09	3.843320e+01	6.125122e+02
1.640000e-06	5.436204e-06	9.315131e-09	3.845367e+01	6.125530e+02
1.650000e-06	5.437100e-06	9.315492e-09	3.846000e+01	6.124604e+02
1.660000e-06	5.436073e-06	9.312256e-09	3.845274e+01	6.122511e+02
1.670000e-06	5.433291e-06	9.306016e-09	3.843306e+01	6.119395e+02
1.680000e-06	5.428910e-06	9.299745e-09	3.840207e+01	6.115336e+02
1.690000e-06	5.422740e-06	9.290428e-09	3.835842e+01	6.110326e+02
1.700000e-06	5.414664e-06	9.281034e-09	3.830130e+01	6.104261e+02
1.710000e-06	5.404940e-06	9.272380e-09	3.823252e+01	6.096970e+02
1.720000e-06	5.393522e-06	9.266031e-09	3.815175e+01	6.088264e+02
1.730000e-06	5.380154e-06	9.255731e-09	3.805719e+01	6.077993e+02
1.740000e-06	5.364709e-06	9.189716e-09	3.794793e+01	6.066107e+02
1.750000e-06	5.346978e-06	9.152825e-09	3.782251e+01	6.052689e+02
1.760000e-06	5.326603e-06	9.157121e-09	3.767839e+01	6.037964e+02
1.770000e-06	5.303736e-06	9.154714e-09	3.751664e+01	6.022264e+02
1.780000e-06	5.279359e-06	9.209987e-09	3.734420e+01	6.005970e+02
1.790000e-06	5.254318e-06	9.126593e-09	3.716707e+01	5.989432e+02
1.800000e-06	5.228092e-06	9.020039e-09	3.698156e+01	5.972890e+02
1.810000e-06	5.199686e-06	9.093828e-09	3.678063e+01	5.956414e+02
1.820000e-06	5.169298e-06	9.012753e-09	3.656567e+01	5.939877e+02
1.830000e-06	5.137262e-06	8.985961e-09	3.633906e+01	5.922968e+02
1.840000e-06	5.103215e-06	9.073241e-09	3.609823e+01	5.905249e+02
1.850000e-06	5.067480e-06	8.933736e-09	3.584545e+01	5.886227e+02
1.860000e-06	5.030136e-06	8.929915e-09	3.558129e+01	5.865447e+02
1.870000e-06	4.990825e-06	8.984912e-09	3.530322e+01	5.842571e+02
1.880000e-06	4.949809e-06	8.840939e-09	3.501309e+01	5.817427e+02
1.890000e-06	4.907002e-06	8.845482e-09	3.471029e+01	5.790025e+02
1.900000e-06	4.862499e-06	8.783780e-09	3.439549e+01	5.760538e+02
1.910000e-06	4.816263e-06	8.690217e-09	3.406844e+01	5.729244e+02
1.920000e-06	4.767915e-06	8.732482e-09	3.372644e+01	5.696461e+02
1.930000e-06	4.717866e-06	8.621837e-09	3.337241e+01	5.662475e+02
1.940000e-06	4.666166e-06	8.612932e-09	3.300670e+01	5.627487e+02
1.950000e-06	4.612416e-06	8.575795e-09	3.262650e+01	5.591587e+02
1.960000e-06	4.556703e-06	8.421998e-09	3.223240e+01	5.554753e+02
1.970000e-06	4.499202e-06	8.392975e-09	3.182566e+01	5.516879e+02
1.980000e-06	4.440188e-06	8.353321e-09	3.140822e+01	5.477818e+02
1.990000e-06	4.379742e-06	8.329213e-09	3.098065e+01	5.437427e+02
2.000000e-06	4.317602e-06	8.226519e-09	3.054110e+01	5.395605e+02
2.010000e-06	4.253797e-06	8.141112e-09	3.008977e+01	5.352313e+02
2.020000e-06	4.188475e-06	8.132326e-09	2.962770e+01	5.307574e+02
2.030000e-06	4.121725e-06	7.999034e-09	2.915553e+01	5.261454e+02
2.040000e-06	4.053547e-06	7.947813e-09	2.867327e+01	5.214035e+02
2.050000e-06	3.983851e-06	7.907544e-09	2.818027e+01	5.165385e+02
2.060000e-06	3.912590e-06	7.814269e-09	2.767619e+01	5.115533e+02
2.070000e-06	3.839928e-06	7.724604e-09	2.716221e+01	5.064460e+02
2.080000e-06	3.765968e-06	7.623374e-09	2.663905e+01	5.012097e+02
2.090000e-06	3.690631e-06	7.592452e-09	2.610614e+01	4.958349e+02
2.100000e-06	3.613865e-06	7.494992e-09	2.556312e+01	4.903110e+02
2.110000e-06	3.535487e-06	7.376915e-09	2.500870e+01	4.846292e+02
2.120000e-06	3.455704e-06	7.296104e-09	2.444435e+01	4.787841e+02
2.130000e-06	3.374833e-06	7.218190e-09	2.387230e+01	4.727745e+02
2.140000e-06	3.292795e-06	7.130858e-09	2.329200e+01	4.666029e+02
2.150000e-06	3.209624e-06	7.021066e-09	2.270367e+01	4.602749e+02
2.160000e-06	3.125387e-06	6.938762e-09	2.210781e+01	4.537966e+02
2.170000e-06	3.040051e-06	6.824355e-09	2.150418e+01	4.471736e+02
2.180000e-06	2.953411e-06	6.708773e-09	2.089132e+01	4.404090e+02
2.190000e-06	2.865509e-06	6.614827e-09	2.026953e+01	4.335029e+02
2.200000e-06	2.776653e-06	6.522654e-09	1.964100e+01	4.264523e+02
2.210000e-06	2.686882e-06	6.417549e-09	1.900600e+01	4.192517e+02
2.220000e-06	2.596169e-06	6.288199e-09	1.836432e+01	4.118941e+02
2.230000e-06	2.504590e-06	6.174651e-09	1.771653e+01	4.043725e+02
2.240000e-06	2.412268e-06	6.061440e-09	1.706347e+01	3.966804e+02
2.250000e-06	2.319121e-06	5.944933e-09	1.640459e+01	3.888128e+02
2.260000e-06	2.225067e-06	5.821024e-09	1.573929e+01	3.807664e+02
2.270000e-06	2.130033e-06	5.692057e-09	1.506705e+01	3.725394e+02
2.280000e-06	2.034006e-06	5.562112e-09	1.438780e+01	3.641311e+02
2.290000e-06	1.937259e-06	5.433199e-09	1.370344e+01	3.555413e+02
2.300000e-06	1.840018e-06	5.307819e-09	1.301559e+01	3.467691e+02
2.310000e-06	1.742268e-06	5.175803e-09	1.232415e+01	3.378127e+02
2.320000e-06	1.643937e-06	5.034334e-09	1.162859e+01	3.286686e+02
2.330000e-06	1.545067e-06	4.885756e-09	1.092923e+01	3.193313e+02
2.340000e-06	1.445716e-06	4.742302e-09	1.022645e+01	3.097934e+02
2.350000e-06	1.345956e-06	4.596278e-09	9.520786e+00	3.000463e+02
2.360000e-06	1.245850e-06	4.446333e-09	8.812675e+00	2.900810e+02
2.370000e-06	1.145380e-06	4.290744e-09	8.101985e+00	2.798891e+02
2.380000e-06	1.044500e-06	4.127369e-09	7.388403e+00	2.694644e+02
2.390000e-06	9.431800e-07	3.967175e-09	6.671701e+00	2.588039e+02
2.400000e-06	8.414344e-07	3.810947e-09	5.951991e+00	2.479079e+02
2.410000e-06	7.393329e-07	3.650042e-09	5.229763e+00	2.367804e+02
2.420000e-06	6.369337e-07	3.475980e-09	4.505430e+00	2.254274e+02
2.430000e-06	5.343495e-07	3.293227e-09	3.779788e+00	2.138554e+02
2.440000e-06	4.316057e-07	3.110906e-09	3.053017e+00	2.020689e+02
2.450000e-06	3.286071e-07	2.931566e-09	2.324443e+00	1.900681e+02
2.460000e-06	2.253712e-07	2.747156e-09	1.594191e+00	1.778468e+02
2.470000e-06	1.219597e-07	2.557557e-09	8.626968e-01	1.653925e+02
2.480000e-06	1.848766e-08	2.360591e-09	1.307747e-01	1.526861e+02
2.490000e-06	-8.496310e-08	2.157272e-09	-6.009970e-01	1.397046e+02
2.500000e-06	-1.883432e-07	1.955606e-09	-1.332269e+00	1.264235e+02
2.510000e-06	-2.916428e-07	1.753529e-09	-2.062972e+00	1.128202e+02
2.520000e-06	-3.948639e-07	1.545570e-09	-2.793119e+00	9.887684e+01
2.530000e-06	-4.979470e-07	1.326699e-09	-3.522290e+00	8.458161e+01
2.540000e-06	-6.008748e-07	1.101994e-09	-4.250362e+00	6.992912e+01
2.550000e-06	-7.035799e-07	8.739393e-10	-4.976860e+00	5.491904e+01
2.560000e-06	-8.058865e-07	6.375338e-10	-5.700538e+00	3.955365e+01
2.570000e-06	-9.077128e-07	3.944925e-10	-6.420819e+00	2.383542e+01
2.580000e-06	-1.009102e-06	1.481732e-10	-7.138009e+00	7.765133e+00
2.590000e-06	-1.110096e-06	-1.028972e-10	-7.852402e+00	-8.658240e+00
2.600000e-06	-1.210738e-06	-3.577545e-10	-8.564304e+00	-2.543572e+01
2.610000e-06	-1.310892e-06	-6.145014e-10	-9.272756e+00	-4.256447e+01
2.620000e-06	-1.410529e-06	-8.775832e-10	-9.977549e+00	-6.003275e+01
2.630000e-06	-1.509710e-06	-1.152462e-09	-1.067912e+01	-7.781459e+01
2.640000e-06	-1.608376e-06	-1.435593e-09	-1.137705e+01	-9.586574e+01
2.650000e-06	-1.706476e-06	-1.719834e-09	-1.207097e+01	-1.141219e+02
2.660000e-06	-1.803964e-06	-2.003963e-09	-1.276056e+01	-1.325002e+02
2.670000e-06	-1.900869e-06	-2.287751e-09	-1.344603e+01	-1.509037e+02
2.680000e-06	-1.997215e-06	-2.568463e-09	-1.412755e+01	-1.692286e+02
2.690000e-06	-2.092965e-06	-2.846479e-09	-1.480485e+01	-1.873726e+02
2.700000e-06	-2.187961e-06	-3.121282e-09	-1.547681e+01	-2.052434e+02
2.710000e-06	-2.282059e-06	-3.388991e-09	-1.614243e+01	-2.227644e+02
2.720000e-06	-2.375170e-06	-3.649074e-09	-1.680106e+01	-2.398787e+02
2.730000e-06	-2.467289e-06	-3.903498e-09	-1.745268e+01	-2.565488e+02
2.740000e-06	-2.558525e-06	-4.153143e-09	-1.809805e+01	-2.727537e+02
2.750000e-06	-2.648830e-06	-4.396189e-09	-1.873683e+01	-2.884838e+02
2.760000e-06	-2.738144e-06	-4.631027e-09	-1.936860e+01	-3.037354e+02
2.770000e-06	-2.826629e-06	-4.858639e-09	-1.999451e+01	-3.185060e+02
2.780000e-06	-2.914334e-06	-5.079610e-09	-2.061490e+01	-3.327914e+02
2.790000e-06	-3.000999e-06	-5.290949e-09	-2.122794e+01	-3.465856e+02
2.800000e-06	-3.086398e-06	-5.493801e-09	-2.183202e+01	-3.598824e+02
2.810000e-06	-3.170588e-06	-5.688851e-09	-2.242755e+01	-3.726784e+02
2.820000e-06	-3.253716e-06	-5.874957e-09	-2.301556e+01	-3.849763e+02
2.830000e-06	-3.335812e-06	-6.055351e-09	-2.359628e+01	-3.967867e+02
2.840000e-06	-3.416881e-06	-6.231082e-09	-2.416974e+01	-4.081278e+02
2.850000e-06	-3.496849e-06	-6.399355e-09	-2.473540e+01	-4.190235e+02
2.860000e-06	-3.575480e-06	-6.557742e-09	-2.529160e+01	-4.294989e+02
2.870000e-06	-3.652552e-06	-6.709227e-09	-2.583678e+01	-4.395761e+02
2.880000e-06	-3.728075e-06	-6.856523e-09	-2.637100e+01	-4.492698e+02
2.890000e-06	-3.802147e-06	-6.998405e-09	-2.689496e+01	-4.585855e+02
2.900000e-06	-3.874896e-06	-7.135574e-09	-2.740956e+01	-4.675199e+02
2.910000e-06	-3.946350e-06	-7.269574e-09	-2.791500e+01	-4.760638e+02
2.920000e-06	-4.016264e-06	-7.396108e-09	-2.840954e+01	-4.842072e+02
2.930000e-06	-4.084601e-06	-7.513462e-09	-2.889294e+01	-4.919452e+02
2.940000e-06	-4.151544e-06	-7.625465e-09	-2.936646e+01	-4.992823e+02
