# Temperatura_=_77.79
# Concentracion g/m^3_=_15000.0
# C_Vs_to_Am_M_A/Vsm_=_65563218390.804596
# pendiente_HvsI_1/m_=_3716.3
# ordenada_HvsI_A/m_=_1297.0
# frecuencia_Hz_=_301599.9952318249

Tiempo_(s)	Campo_(V.s)	Magnetizacion_(V.s)	Campo_(kA/m)	Magnetizacion_(A/m)
0.000000e+00	-5.431514e-06	-9.575115e-09	-3.833814e+01	-6.259650e+02
1.000000e-08	-5.428854e-06	-9.574870e-09	-3.831936e+01	-6.257065e+02
2.000000e-08	-5.424414e-06	-9.568283e-09	-3.828802e+01	-6.253482e+02
3.000000e-08	-5.418314e-06	-9.564208e-09	-3.824496e+01	-6.248786e+02
4.000000e-08	-5.410597e-06	-9.556256e-09	-3.819050e+01	-6.242810e+02
5.000000e-08	-5.401013e-06	-9.539519e-09	-3.812284e+01	-6.235379e+02
6.000000e-08	-5.389321e-06	-9.516654e-09	-3.804032e+01	-6.226362e+02
7.000000e-08	-5.375786e-06	-9.479913e-09	-3.794478e+01	-6.215725e+02
8.000000e-08	-5.360185e-06	-9.496225e-09	-3.783466e+01	-6.203551e+02
9.000000e-08	-5.342312e-06	-9.557527e-09	-3.770850e+01	-6.190037e+02
1.000000e-07	-5.322357e-06	-9.503495e-09	-3.756766e+01	-6.175462e+02
1.100000e-07	-5.300450e-06	-9.437860e-09	-3.741302e+01	-6.160130e+02
1.200000e-07	-5.276876e-06	-9.387794e-09	-3.724663e+01	-6.144306e+02
1.300000e-07	-5.251679e-06	-9.223361e-09	-3.706878e+01	-6.128153e+02
1.400000e-07	-5.224825e-06	-9.350869e-09	-3.687923e+01	-6.111693e+02
1.500000e-07	-5.196422e-06	-9.427471e-09	-3.667875e+01	-6.094793e+02
1.600000e-07	-5.166518e-06	-9.181771e-09	-3.646767e+01	-6.077192e+02
1.700000e-07	-5.135003e-06	-9.325113e-09	-3.624522e+01	-6.058543e+02
1.800000e-07	-5.101348e-06	-9.286169e-09	-3.600768e+01	-6.038484e+02
1.900000e-07	-5.065817e-06	-9.033568e-09	-3.575688e+01	-6.016700e+02
2.000000e-07	-5.028806e-06	-9.184905e-09	-3.549564e+01	-5.992975e+02
2.100000e-07	-4.990047e-06	-9.101595e-09	-3.522206e+01	-5.967224e+02
2.200000e-07	-4.949464e-06	-8.962602e-09	-3.493560e+01	-5.939491e+02
2.300000e-07	-4.906894e-06	-9.056250e-09	-3.463513e+01	-5.909920e+02
2.400000e-07	-4.862366e-06	-8.973908e-09	-3.432082e+01	-5.878715e+02
2.500000e-07	-4.816122e-06	-8.921430e-09	-3.399442e+01	-5.846086e+02
2.600000e-07	-4.767891e-06	-8.871456e-09	-3.365398e+01	-5.812205e+02
2.700000e-07	-4.717443e-06	-8.782404e-09	-3.329789e+01	-5.777180e+02
2.800000e-07	-4.664973e-06	-8.762713e-09	-3.292754e+01	-5.741044e+02
2.900000e-07	-4.610744e-06	-8.668943e-09	-3.254476e+01	-5.703768e+02
3.000000e-07	-4.554933e-06	-8.603599e-09	-3.215083e+01	-5.665282e+02
3.100000e-07	-4.497372e-06	-8.589945e-09	-3.174453e+01	-5.625509e+02
3.200000e-07	-4.437984e-06	-8.554332e-09	-3.132534e+01	-5.584385e+02
3.300000e-07	-4.377003e-06	-8.449762e-09	-3.089491e+01	-5.541881e+02
3.400000e-07	-4.314610e-06	-8.341234e-09	-3.045451e+01	-5.498003e+02
3.500000e-07	-4.250844e-06	-8.318893e-09	-3.000442e+01	-5.452783e+02
3.600000e-07	-4.185476e-06	-8.236211e-09	-2.954302e+01	-5.406261e+02
3.700000e-07	-4.118412e-06	-8.161448e-09	-2.906965e+01	-5.358472e+02
3.800000e-07	-4.049832e-06	-8.124305e-09	-2.858559e+01	-5.309430e+02
3.900000e-07	-3.979886e-06	-8.024167e-09	-2.809188e+01	-5.259119e+02
4.000000e-07	-3.908772e-06	-7.918016e-09	-2.758992e+01	-5.207501e+02
4.100000e-07	-3.836355e-06	-7.821936e-09	-2.707877e+01	-5.154520e+02
4.200000e-07	-3.762368e-06	-7.774067e-09	-2.655653e+01	-5.100118e+02
4.300000e-07	-3.686841e-06	-7.698832e-09	-2.602343e+01	-5.044244e+02
4.400000e-07	-3.609839e-06	-7.598991e-09	-2.547991e+01	-4.986861e+02
4.500000e-07	-3.531258e-06	-7.511249e-09	-2.492525e+01	-4.927949e+02
4.600000e-07	-3.451231e-06	-7.418492e-09	-2.436039e+01	-4.867500e+02
4.700000e-07	-3.369997e-06	-7.328587e-09	-2.378699e+01	-4.805516e+02
4.800000e-07	-3.287581e-06	-7.222517e-09	-2.320526e+01	-4.741998e+02
4.900000e-07	-3.204123e-06	-7.125291e-09	-2.261618e+01	-4.676948e+02
5.000000e-07	-3.119646e-06	-7.023137e-09	-2.201990e+01	-4.610365e+02
5.100000e-07	-3.034168e-06	-6.911619e-09	-2.141656e+01	-4.542249e+02
5.200000e-07	-2.947764e-06	-6.805954e-09	-2.080668e+01	-4.472604e+02
5.300000e-07	-2.860471e-06	-6.704901e-09	-2.019052e+01	-4.401439e+02
5.400000e-07	-2.772193e-06	-6.596000e-09	-1.956742e+01	-4.328762e+02
5.500000e-07	-2.682706e-06	-6.473975e-09	-1.893578e+01	-4.254578e+02
5.600000e-07	-2.592086e-06	-6.346530e-09	-1.829614e+01	-4.178875e+02
5.700000e-07	-2.500493e-06	-6.229857e-09	-1.764964e+01	-4.101623e+02
5.800000e-07	-2.407965e-06	-6.124177e-09	-1.699653e+01	-4.022763e+02
5.900000e-07	-2.314622e-06	-6.007569e-09	-1.633768e+01	-3.942213e+02
6.000000e-07	-2.220501e-06	-5.872891e-09	-1.567332e+01	-3.859878e+02
6.100000e-07	-2.125682e-06	-5.734476e-09	-1.500404e+01	-3.775667e+02
6.200000e-07	-2.030158e-06	-5.600094e-09	-1.432979e+01	-3.689503e+02
6.300000e-07	-1.933755e-06	-5.465231e-09	-1.364934e+01	-3.601344e+02
6.400000e-07	-1.836426e-06	-5.334371e-09	-1.296234e+01	-3.511181e+02
6.500000e-07	-1.738263e-06	-5.199672e-09	-1.226947e+01	-3.419037e+02
6.600000e-07	-1.639511e-06	-5.052214e-09	-1.157243e+01	-3.324952e+02
6.700000e-07	-1.540255e-06	-4.896938e-09	-1.087183e+01	-3.228955e+02
6.800000e-07	-1.440483e-06	-4.745192e-09	-1.016759e+01	-3.131052e+02
6.900000e-07	-1.340234e-06	-4.596891e-09	-9.459993e+00	-3.031198e+02
7.000000e-07	-1.239563e-06	-4.442944e-09	-8.749410e+00	-2.929305e+02
7.100000e-07	-1.138534e-06	-4.280838e-09	-8.036300e+00	-2.825244e+02
7.200000e-07	-1.037175e-06	-4.112346e-09	-7.320858e+00	-2.718871e+02
7.300000e-07	-9.354860e-07	-3.944255e-09	-6.603092e+00	-2.610057e+02
7.400000e-07	-8.333865e-07	-3.775822e-09	-5.882427e+00	-2.498715e+02
7.500000e-07	-7.309426e-07	-3.604232e-09	-5.159331e+00	-2.384821e+02
7.600000e-07	-6.282904e-07	-3.424490e-09	-4.434764e+00	-2.268415e+02
7.700000e-07	-5.254607e-07	-3.236068e-09	-3.708945e+00	-2.149585e+02
7.800000e-07	-4.225326e-07	-3.047741e-09	-2.982430e+00	-2.028436e+02
7.900000e-07	-3.195486e-07	-2.862021e-09	-2.255522e+00	-1.905054e+02
8.000000e-07	-2.164875e-07	-2.674037e-09	-1.528069e+00	-1.779461e+02
8.100000e-07	-1.133507e-07	-2.479755e-09	-8.000819e-01	-1.651594e+02
8.200000e-07	-1.017236e-08	-2.279863e-09	-7.180124e-02	-1.521297e+02
8.300000e-07	9.299434e-08	-2.076164e-09	6.563970e-01	-1.388335e+02
8.400000e-07	1.961449e-07	-1.869998e-09	1.384482e+00	-1.252425e+02
8.500000e-07	2.993047e-07	-1.660707e-09	2.112631e+00	-1.113284e+02
8.600000e-07	4.024275e-07	-1.446846e-09	2.840520e+00	-9.706648e+01
8.700000e-07	5.054647e-07	-1.222365e-09	3.567804e+00	-8.243927e+01
8.800000e-07	6.083795e-07	-9.887960e-10	4.294224e+00	-6.743734e+01
8.900000e-07	7.111909e-07	-7.506982e-10	5.019914e+00	-5.205860e+01
9.000000e-07	8.138262e-07	-5.087191e-10	5.744361e+00	-3.630578e+01
9.100000e-07	9.161461e-07	-2.647915e-10	6.466583e+00	-2.018334e+01
9.200000e-07	1.018089e-06	-1.511836e-11	7.186146e+00	-3.694895e+00
9.300000e-07	1.119629e-06	2.416303e-10	7.902856e+00	1.315770e+01
9.400000e-07	1.220746e-06	5.049523e-10	8.616588e+00	3.037291e+01
9.500000e-07	1.321457e-06	7.705888e-10	9.327452e+00	4.794583e+01
9.600000e-07	1.421792e-06	1.037920e-09	1.003566e+01	6.586285e+01
9.700000e-07	1.521669e-06	1.311123e-09	1.074064e+01	8.409601e+01
9.800000e-07	1.621047e-06	1.591109e-09	1.144210e+01	1.025986e+02
9.900000e-07	1.719842e-06	1.875557e-09	1.213944e+01	1.213031e+02
1.000000e-06	1.817866e-06	2.159943e-09	1.283134e+01	1.401228e+02
1.010000e-06	1.915002e-06	2.443880e-09	1.351697e+01	1.589567e+02
1.020000e-06	2.011170e-06	2.727121e-09	1.419577e+01	1.776968e+02
1.030000e-06	2.106549e-06	3.009816e-09	1.486900e+01	1.962375e+02
1.040000e-06	2.201320e-06	3.289395e-09	1.553793e+01	2.144838e+02
1.050000e-06	2.295313e-06	3.558843e-09	1.620138e+01	2.323578e+02
1.060000e-06	2.388483e-06	3.819150e-09	1.685901e+01	2.498021e+02
1.070000e-06	2.480938e-06	4.073473e-09	1.751161e+01	2.667796e+02
1.080000e-06	2.572707e-06	4.325100e-09	1.815935e+01	2.832701e+02
1.090000e-06	2.663626e-06	4.571050e-09	1.880111e+01	2.992652e+02
1.100000e-06	2.753375e-06	4.807293e-09	1.943459e+01	3.147628e+02
1.110000e-06	2.841845e-06	5.033320e-09	2.005905e+01	3.297618e+02
1.120000e-06	2.929300e-06	5.250293e-09	2.067635e+01	3.442599e+02
1.130000e-06	3.015899e-06	5.461932e-09	2.128761e+01	3.582527e+02
1.140000e-06	3.101538e-06	5.668482e-09	2.189209e+01	3.717359e+02
1.150000e-06	3.186151e-06	5.866384e-09	2.248932e+01	3.847080e+02
1.160000e-06	3.269824e-06	6.054847e-09	2.307993e+01	3.971729e+02
1.170000e-06	3.352472e-06	6.235724e-09	2.366330e+01	4.091416e+02
1.180000e-06	3.433819e-06	6.409559e-09	2.423748e+01	4.206323e+02
1.190000e-06	3.513837e-06	6.578682e-09	2.480228e+01	4.316681e+02
1.200000e-06	3.592616e-06	6.742389e-09	2.535834e+01	4.422734e+02
1.210000e-06	3.670139e-06	6.899997e-09	2.590554e+01	4.524701e+02
1.220000e-06	3.746395e-06	7.050397e-09	2.644379e+01	4.622741e+02
1.230000e-06	3.821285e-06	7.195024e-09	2.697240e+01	4.716933e+02
1.240000e-06	3.894454e-06	7.332253e-09	2.748886e+01	4.807285e+02
1.250000e-06	3.966012e-06	7.463073e-09	2.799395e+01	4.893757e+02
1.260000e-06	4.036242e-06	7.586767e-09	2.848966e+01	4.976297e+02
1.270000e-06	4.105027e-06	7.702980e-09	2.897518e+01	5.054888e+02
1.280000e-06	4.172473e-06	7.814386e-09	2.945124e+01	5.129584e+02
1.290000e-06	4.238369e-06	7.919844e-09	2.991637e+01	5.200527e+02
1.300000e-06	4.302520e-06	8.022074e-09	3.036918e+01	5.267950e+02
1.310000e-06	4.365180e-06	8.119960e-09	3.081146e+01	5.332149e+02
1.320000e-06	4.426384e-06	8.213112e-09	3.124347e+01	5.393453e+02
1.330000e-06	4.486208e-06	8.301570e-09	3.166573e+01	5.452175e+02
1.340000e-06	4.544426e-06	8.387698e-09	3.207666e+01	5.508582e+02
1.350000e-06	4.600805e-06	8.471617e-09	3.247461e+01	5.562866e+02
1.360000e-06	4.655503e-06	8.550633e-09	3.286069e+01	5.615141e+02
1.370000e-06	4.708541e-06	8.626518e-09	3.323506e+01	5.665449e+02
1.380000e-06	4.759679e-06	8.700177e-09	3.359602e+01	5.713780e+02
1.390000e-06	4.808730e-06	8.771602e-09	3.394224e+01	5.760099e+02
1.400000e-06	4.855933e-06	8.839254e-09	3.427542e+01	5.804366e+02
1.410000e-06	4.901491e-06	8.902605e-09	3.459699e+01	5.846548e+02
1.420000e-06	4.945539e-06	8.962825e-09	3.490790e+01	5.886625e+02
1.430000e-06	4.987836e-06	9.020402e-09	3.520645e+01	5.924586e+02
1.440000e-06	5.028147e-06	9.074614e-09	3.549099e+01	5.960421e+02
1.450000e-06	5.066728e-06	9.125615e-09	3.576331e+01	5.994116e+02
1.460000e-06	5.103675e-06	9.173414e-09	3.602409e+01	6.025656e+02
1.470000e-06	5.138979e-06	9.216890e-09	3.627329e+01	6.055028e+02
1.480000e-06	5.172324e-06	9.255822e-09	3.650865e+01	6.082240e+02
1.490000e-06	5.203754e-06	9.290235e-09	3.673050e+01	6.107329e+02
1.500000e-06	5.233525e-06	9.322099e-09	3.694064e+01	6.130369e+02
1.510000e-06	5.261631e-06	9.353539e-09	3.713902e+01	6.151472e+02
1.520000e-06	5.287822e-06	9.383497e-09	3.732390e+01	6.170771e+02
1.530000e-06	5.311857e-06	9.409965e-09	3.749354e+01	6.188402e+02
1.540000e-06	5.333972e-06	9.432297e-09	3.764964e+01	6.204476e+02
1.550000e-06	5.354382e-06	9.452310e-09	3.779370e+01	6.219056e+02
1.560000e-06	5.372969e-06	9.471280e-09	3.792490e+01	6.232150e+02
1.570000e-06	5.389478e-06	9.488661e-09	3.804143e+01	6.243713e+02
1.580000e-06	5.403954e-06	9.503952e-09	3.814361e+01	6.253665e+02
1.590000e-06	5.416503e-06	9.516415e-09	3.823218e+01	6.261928e+02
1.600000e-06	5.426828e-06	9.526027e-09	3.830506e+01	6.268453e+02
1.610000e-06	5.434949e-06	9.533235e-09	3.836238e+01	6.273250e+02
1.620000e-06	5.441184e-06	9.538142e-09	3.840639e+01	6.276403e+02
1.630000e-06	5.445641e-06	9.543683e-09	3.843785e+01	6.278057e+02
1.640000e-06	5.448226e-06	9.548533e-09	3.845610e+01	6.278391e+02
1.650000e-06	5.448779e-06	9.551026e-09	3.846000e+01	6.277580e+02
1.660000e-06	5.447455e-06	9.544002e-09	3.845066e+01	6.275752e+02
1.670000e-06	5.444436e-06	9.535893e-09	3.842934e+01	6.272954e+02
1.680000e-06	5.439701e-06	9.530447e-09	3.839592e+01	6.269139e+02
1.690000e-06	5.433034e-06	9.522035e-09	3.834887e+01	6.264180e+02
1.700000e-06	5.424521e-06	9.512117e-09	3.828878e+01	6.257901e+02
1.710000e-06	5.414427e-06	9.504952e-09	3.821753e+01	6.250133e+02
1.720000e-06	5.402665e-06	9.513948e-09	3.813450e+01	6.240764e+02
1.730000e-06	5.388954e-06	9.496772e-09	3.803773e+01	6.229782e+02
1.740000e-06	5.373165e-06	9.372634e-09	3.792629e+01	6.217296e+02
1.750000e-06	5.355053e-06	9.366942e-09	3.779844e+01	6.203525e+02
1.760000e-06	5.334161e-06	9.383606e-09	3.765097e+01	6.188757e+02
1.770000e-06	5.310839e-06	9.392208e-09	3.748636e+01	6.173296e+02
1.780000e-06	5.286201e-06	9.516676e-09	3.731245e+01	6.157387e+02
1.790000e-06	5.260937e-06	9.280422e-09	3.713412e+01	6.141167e+02
1.800000e-06	5.234375e-06	9.237915e-09	3.694664e+01	6.124624e+02
1.810000e-06	5.205501e-06	9.408913e-09	3.674283e+01	6.107595e+02
1.820000e-06	5.174710e-06	9.131797e-09	3.652549e+01	6.089795e+02
1.830000e-06	5.142278e-06	9.234914e-09	3.629657e+01	6.070870e+02
1.840000e-06	5.107838e-06	9.373437e-09	3.605348e+01	6.050460e+02
1.850000e-06	5.071796e-06	9.073854e-09	3.579908e+01	6.028268e+02
1.860000e-06	5.034010e-06	9.217018e-09	3.553237e+01	6.004107e+02
1.870000e-06	4.994266e-06	9.179087e-09	3.525184e+01	5.977919e+02
1.880000e-06	4.952907e-06	8.943291e-09	3.495991e+01	5.949773e+02
1.890000e-06	4.909740e-06	9.068131e-09	3.465521e+01	5.919829e+02
1.900000e-06	4.864854e-06	8.927892e-09	3.433839e+01	5.888297e+02
1.910000e-06	4.818191e-06	8.955112e-09	3.400902e+01	5.855382e+02
1.920000e-06	4.769495e-06	8.943486e-09	3.366530e+01	5.821245e+02
1.930000e-06	4.719164e-06	8.709078e-09	3.331004e+01	5.785977e+02
1.940000e-06	4.667029e-06	8.846362e-09	3.294205e+01	5.749596e+02
1.950000e-06	4.612743e-06	8.734839e-09	3.255887e+01	5.712063e+02
1.960000e-06	4.556511e-06	8.591867e-09	3.216196e+01	5.673303e+02
1.970000e-06	4.498551e-06	8.572061e-09	3.175285e+01	5.633239e+02
1.980000e-06	4.439216e-06	8.486513e-09	3.133404e+01	5.591816e+02
1.990000e-06	4.378372e-06	8.518063e-09	3.090457e+01	5.549012e+02
2.000000e-06	4.315767e-06	8.361687e-09	3.046268e+01	5.504838e+02
2.010000e-06	4.251607e-06	8.347382e-09	3.000981e+01	5.459330e+02
2.020000e-06	4.185944e-06	8.294018e-09	2.954633e+01	5.412530e+02
2.030000e-06	4.118799e-06	8.098383e-09	2.907239e+01	5.364468e+02
2.040000e-06	4.050114e-06	8.093732e-09	2.858758e+01	5.315151e+02
2.050000e-06	3.979850e-06	8.032495e-09	2.809162e+01	5.264560e+02
2.060000e-06	3.908127e-06	7.997315e-09	2.758537e+01	5.212650e+02
2.070000e-06	3.835065e-06	7.859771e-09	2.706966e+01	5.159365e+02
2.080000e-06	3.760725e-06	7.741315e-09	2.654494e+01	5.104646e+02
2.090000e-06	3.684955e-06	7.709408e-09	2.601011e+01	5.048447e+02
2.100000e-06	3.607608e-06	7.596915e-09	2.546417e+01	4.990732e+02
2.110000e-06	3.528771e-06	7.531502e-09	2.490769e+01	4.931486e+02
2.120000e-06	3.448703e-06	7.424563e-09	2.434254e+01	4.870704e+02
2.130000e-06	3.367477e-06	7.342986e-09	2.376921e+01	4.808386e+02
2.140000e-06	3.285068e-06	7.227666e-09	2.318753e+01	4.744535e+02
2.150000e-06	3.201598e-06	7.109227e-09	2.259836e+01	4.679152e+02
2.160000e-06	3.117037e-06	7.042630e-09	2.200149e+01	4.612235e+02
2.170000e-06	3.031199e-06	6.938490e-09	2.139560e+01	4.543787e+02
2.180000e-06	2.944063e-06	6.826077e-09	2.078056e+01	4.473811e+02
2.190000e-06	2.855828e-06	6.695143e-09	2.015775e+01	4.402316e+02
2.200000e-06	2.766667e-06	6.605237e-09	1.952841e+01	4.329311e+02
2.210000e-06	2.676567e-06	6.516692e-09	1.889245e+01	4.254798e+02
2.220000e-06	2.585565e-06	6.395194e-09	1.825011e+01	4.178763e+02
2.230000e-06	2.493825e-06	6.256333e-09	1.760257e+01	4.101167e+02
2.240000e-06	2.401231e-06	6.126119e-09	1.694900e+01	4.021947e+02
2.250000e-06	2.307568e-06	6.012499e-09	1.628788e+01	3.941018e+02
2.260000e-06	2.213001e-06	5.889252e-09	1.562039e+01	3.858284e+02
2.270000e-06	2.117644e-06	5.772591e-09	1.494731e+01	3.773655e+02
2.280000e-06	2.021446e-06	5.645280e-09	1.426830e+01	3.687062e+02
2.290000e-06	1.924500e-06	5.498541e-09	1.358401e+01	3.598467e+02
2.300000e-06	1.827018e-06	5.344921e-09	1.289594e+01	3.507872e+02
2.310000e-06	1.728965e-06	5.212117e-09	1.220384e+01	3.415305e+02
2.320000e-06	1.630279e-06	5.088534e-09	1.150726e+01	3.320803e+02
2.330000e-06	1.531136e-06	4.944007e-09	1.080747e+01	3.224394e+02
2.340000e-06	1.431622e-06	4.783198e-09	1.010505e+01	3.126073e+02
2.350000e-06	1.331695e-06	4.624005e-09	9.399719e+00	3.025787e+02
2.360000e-06	1.231334e-06	4.474081e-09	8.691326e+00	2.923437e+02
2.370000e-06	1.130557e-06	4.321028e-09	7.979993e+00	2.818887e+02
2.380000e-06	1.029283e-06	4.160679e-09	7.265158e+00	2.711996e+02
2.390000e-06	9.274810e-07	3.993215e-09	6.546590e+00	2.602641e+02
2.400000e-06	8.252458e-07	3.821484e-09	5.824966e+00	2.490748e+02
2.410000e-06	7.227118e-07	3.649480e-09	5.101234e+00	2.376306e+02
2.420000e-06	6.199367e-07	3.477468e-09	4.375800e+00	2.259366e+02
2.430000e-06	5.169242e-07	3.301514e-09	3.648690e+00	2.140026e+02
2.440000e-06	4.137390e-07	3.115932e-09	2.920361e+00	2.018388e+02
2.450000e-06	3.104607e-07	2.919539e-09	2.191375e+00	1.894528e+02
2.460000e-06	2.070224e-07	2.722056e-09	1.461260e+00	1.768452e+02
2.470000e-06	1.034514e-07	2.531919e-09	7.302078e-01	1.640076e+02
2.480000e-06	-9.337761e-11	2.338523e-09	-6.591023e-04	1.509225e+02
2.490000e-06	-1.036260e-07	2.133056e-09	-7.314402e-01	1.375651e+02
2.500000e-06	-2.071768e-07	1.918771e-09	-1.462350e+00	1.239067e+02
2.510000e-06	-3.106180e-07	1.701930e-09	-2.192486e+00	1.099195e+02
2.520000e-06	-4.139437e-07	1.485676e-09	-2.921806e+00	9.558000e+01
2.530000e-06	-5.171530e-07	1.266440e-09	-3.650305e+00	8.087253e+01
2.540000e-06	-6.201994e-07	1.042592e-09	-4.377654e+00	6.578935e+01
2.550000e-06	-7.230995e-07	8.094932e-10	-5.103970e+00	5.032964e+01
2.560000e-06	-8.257253e-07	5.636078e-10	-5.828351e+00	3.449677e+01
2.570000e-06	-9.278870e-07	3.126073e-10	-6.549456e+00	1.829519e+01
2.580000e-06	-1.029554e-06	6.115189e-11	-7.267071e+00	1.728126e+00
2.590000e-06	-1.130745e-06	-1.951527e-10	-7.981324e+00	-1.520282e+01
2.600000e-06	-1.231428e-06	-4.614988e-10	-8.691992e+00	-3.249578e+01
2.610000e-06	-1.331589e-06	-7.350638e-10	-9.398970e+00	-5.014446e+01
2.620000e-06	-1.431267e-06	-1.012618e-09	-1.010254e+01	-6.813263e+01
2.630000e-06	-1.530527e-06	-1.293038e-09	-1.080317e+01	-8.642863e+01
2.640000e-06	-1.629355e-06	-1.575505e-09	-1.150074e+01	-1.049813e+02
2.650000e-06	-1.727636e-06	-1.861743e-09	-1.219446e+01	-1.237189e+02
2.660000e-06	-1.825244e-06	-2.152917e-09	-1.288342e+01	-1.425510e+02
2.670000e-06	-1.922230e-06	-2.445690e-09	-1.356799e+01	-1.613744e+02
2.680000e-06	-2.018582e-06	-2.731961e-09	-1.424808e+01	-1.800809e+02
2.690000e-06	-2.114318e-06	-3.012721e-09	-1.492384e+01	-1.985665e+02
2.700000e-06	-2.209397e-06	-3.291095e-09	-1.559495e+01	-2.167394e+02
2.710000e-06	-2.303565e-06	-3.566683e-09	-1.625963e+01	-2.345259e+02
2.720000e-06	-2.396667e-06	-3.835825e-09	-1.691678e+01	-2.518731e+02
2.730000e-06	-2.488743e-06	-4.094049e-09	-1.756670e+01	-2.687479e+02
2.740000e-06	-2.579978e-06	-4.341967e-09	-1.821068e+01	-2.851331e+02
2.750000e-06	-2.670367e-06	-4.582392e-09	-1.884869e+01	-3.010222e+02
2.760000e-06	-2.759748e-06	-4.819484e-09	-1.947958e+01	-3.164136e+02
2.770000e-06	-2.848225e-06	-5.051559e-09	-2.010409e+01	-3.313060e+02
2.780000e-06	-2.935941e-06	-5.274972e-09	-2.072323e+01	-3.456966e+02
2.790000e-06	-3.022653e-06	-5.488743e-09	-2.133528e+01	-3.595810e+02
2.800000e-06	-3.108089e-06	-5.694146e-09	-2.193833e+01	-3.729552e+02
2.810000e-06	-3.192305e-06	-5.891218e-09	-2.253277e+01	-3.858185e+02
2.820000e-06	-3.275443e-06	-6.078819e-09	-2.311959e+01	-3.981763e+02
2.830000e-06	-3.357497e-06	-6.259199e-09	-2.369877e+01	-4.100413e+02
2.840000e-06	-3.438458e-06	-6.432019e-09	-2.427023e+01	-4.214330e+02
2.850000e-06	-3.518371e-06	-6.597496e-09	-2.483429e+01	-4.323750e+02
2.860000e-06	-3.596946e-06	-6.756087e-09	-2.538891e+01	-4.428915e+02
2.870000e-06	-3.673904e-06	-6.909746e-09	-2.593211e+01	-4.530035e+02
2.880000e-06	-3.749323e-06	-7.059914e-09	-2.646446e+01	-4.627250e+02
2.890000e-06	-3.823324e-06	-7.202791e-09	-2.698679e+01	-4.720626e+02
2.900000e-06	-3.896011e-06	-7.340646e-09	-2.749984e+01	-4.810156e+02
2.910000e-06	-3.967368e-06	-7.474500e-09	-2.800352e+01	-4.895794e+02
2.920000e-06	-4.037122e-06	-7.599862e-09	-2.849587e+01	-4.977492e+02
2.930000e-06	-4.105299e-06	-7.717262e-09	-2.897710e+01	-5.055245e+02
2.940000e-06	-4.172093e-06	-7.830474e-09	-2.944856e+01	-5.129127e+02
