# Temperatura_=_56.45
# Concentracion g/m^3_=_15000.0
# C_Vs_to_Am_M_A/Vsm_=_65563218390.804596
# pendiente_HvsI_1/m_=_3716.3
# ordenada_HvsI_A/m_=_1297.0
# frecuencia_Hz_=_301600.67821937497

Tiempo_(s)	Campo_(V.s)	Magnetizacion_(V.s)	Campo_(kA/m)	Magnetizacion_(A/m)
0.000000e+00	-5.431509e-06	-8.715516e-09	-3.833371e+01	-5.690234e+02
1.000000e-08	-5.428933e-06	-8.713496e-09	-3.831553e+01	-5.687351e+02
2.000000e-08	-5.424464e-06	-8.707290e-09	-3.828398e+01	-5.683531e+02
3.000000e-08	-5.418331e-06	-8.701291e-09	-3.824070e+01	-5.678882e+02
4.000000e-08	-5.410642e-06	-8.691782e-09	-3.818644e+01	-5.673438e+02
5.000000e-08	-5.401212e-06	-8.678002e-09	-3.811988e+01	-5.667147e+02
6.000000e-08	-5.389697e-06	-8.661080e-09	-3.803861e+01	-5.659883e+02
7.000000e-08	-5.376250e-06	-8.635846e-09	-3.794371e+01	-5.651487e+02
8.000000e-08	-5.360755e-06	-8.643581e-09	-3.783435e+01	-5.641812e+02
9.000000e-08	-5.342937e-06	-8.682091e-09	-3.770860e+01	-5.630787e+02
1.000000e-07	-5.323002e-06	-8.645757e-09	-3.756790e+01	-5.618448e+02
1.100000e-07	-5.301166e-06	-8.593729e-09	-3.741379e+01	-5.604961e+02
1.200000e-07	-5.277596e-06	-8.548825e-09	-3.724744e+01	-5.590601e+02
1.300000e-07	-5.252433e-06	-8.436221e-09	-3.706985e+01	-5.575702e+02
1.400000e-07	-5.225671e-06	-8.511201e-09	-3.688098e+01	-5.560590e+02
1.500000e-07	-5.197338e-06	-8.573901e-09	-3.668101e+01	-5.545505e+02
1.600000e-07	-5.167527e-06	-8.403452e-09	-3.647061e+01	-5.530536e+02
1.700000e-07	-5.136126e-06	-8.456766e-09	-3.624899e+01	-5.515584e+02
1.800000e-07	-5.102628e-06	-8.425401e-09	-3.601258e+01	-5.500364e+02
1.900000e-07	-5.067165e-06	-8.264089e-09	-3.576230e+01	-5.484446e+02
2.000000e-07	-5.030144e-06	-8.387220e-09	-3.550101e+01	-5.467331e+02
2.100000e-07	-4.991422e-06	-8.365209e-09	-3.522772e+01	-5.448535e+02
2.200000e-07	-4.950913e-06	-8.244271e-09	-3.494182e+01	-5.427683e+02
2.300000e-07	-4.908460e-06	-8.267530e-09	-3.464221e+01	-5.404567e+02
2.400000e-07	-4.864072e-06	-8.195984e-09	-3.432893e+01	-5.379180e+02
2.500000e-07	-4.817891e-06	-8.135629e-09	-3.400300e+01	-5.351699e+02
2.600000e-07	-4.769769e-06	-8.114833e-09	-3.366337e+01	-5.322442e+02
2.700000e-07	-4.719565e-06	-8.059591e-09	-3.330905e+01	-5.291785e+02
2.800000e-07	-4.667285e-06	-8.019838e-09	-3.294008e+01	-5.260091e+02
2.900000e-07	-4.613105e-06	-7.947570e-09	-3.255770e+01	-5.227629e+02
3.000000e-07	-4.557319e-06	-7.900024e-09	-3.216398e+01	-5.194536e+02
3.100000e-07	-4.499865e-06	-7.875748e-09	-3.175849e+01	-5.160804e+02
3.200000e-07	-4.440575e-06	-7.841753e-09	-3.134004e+01	-5.126301e+02
3.300000e-07	-4.379650e-06	-7.764426e-09	-3.091005e+01	-5.090824e+02
3.400000e-07	-4.317319e-06	-7.675831e-09	-3.047014e+01	-5.054151e+02
3.500000e-07	-4.253596e-06	-7.652985e-09	-3.002041e+01	-5.016102e+02
3.600000e-07	-4.188294e-06	-7.594228e-09	-2.955952e+01	-4.976576e+02
3.700000e-07	-4.121320e-06	-7.517365e-09	-2.908685e+01	-4.935562e+02
3.800000e-07	-4.052801e-06	-7.466232e-09	-2.860326e+01	-4.893129e+02
3.900000e-07	-3.982886e-06	-7.386281e-09	-2.810983e+01	-4.849390e+02
4.000000e-07	-3.911739e-06	-7.304885e-09	-2.760769e+01	-4.804463e+02
4.100000e-07	-3.839368e-06	-7.241710e-09	-2.709693e+01	-4.758429e+02
4.200000e-07	-3.765479e-06	-7.199069e-09	-2.657544e+01	-4.711306e+02
4.300000e-07	-3.689931e-06	-7.125109e-09	-2.604225e+01	-4.663041e+02
4.400000e-07	-3.612891e-06	-7.025797e-09	-2.549853e+01	-4.613525e+02
4.500000e-07	-3.534362e-06	-6.938539e-09	-2.494430e+01	-4.562622e+02
4.600000e-07	-3.454412e-06	-6.866087e-09	-2.438004e+01	-4.510201e+02
4.700000e-07	-3.373227e-06	-6.795727e-09	-2.380707e+01	-4.456172e+02
4.800000e-07	-3.290898e-06	-6.706281e-09	-2.322602e+01	-4.400504e+02
4.900000e-07	-3.207492e-06	-6.621052e-09	-2.263737e+01	-4.343226e+02
5.000000e-07	-3.123069e-06	-6.531751e-09	-2.204154e+01	-4.284419e+02
5.100000e-07	-3.037648e-06	-6.430529e-09	-2.143867e+01	-4.224185e+02
5.200000e-07	-2.951222e-06	-6.335783e-09	-2.082870e+01	-4.162620e+02
5.300000e-07	-2.863863e-06	-6.247167e-09	-2.021215e+01	-4.099782e+02
5.400000e-07	-2.775607e-06	-6.147424e-09	-1.958927e+01	-4.035677e+02
5.500000e-07	-2.686249e-06	-6.036563e-09	-1.895862e+01	-3.970257e+02
5.600000e-07	-2.595642e-06	-5.931328e-09	-1.831914e+01	-3.903429e+02
5.700000e-07	-2.503995e-06	-5.836245e-09	-1.767233e+01	-3.835080e+02
5.800000e-07	-2.411557e-06	-5.735478e-09	-1.701994e+01	-3.765101e+02
5.900000e-07	-2.318341e-06	-5.622252e-09	-1.636205e+01	-3.693407e+02
6.000000e-07	-2.224268e-06	-5.504484e-09	-1.569811e+01	-3.619957e+02
6.100000e-07	-2.129394e-06	-5.387464e-09	-1.502852e+01	-3.544750e+02
6.200000e-07	-2.033811e-06	-5.271969e-09	-1.435393e+01	-3.467817e+02
6.300000e-07	-1.937486e-06	-5.154815e-09	-1.367410e+01	-3.389199e+02
6.400000e-07	-1.840320e-06	-5.033169e-09	-1.298834e+01	-3.308933e+02
6.500000e-07	-1.742296e-06	-4.903122e-09	-1.229652e+01	-3.227024e+02
6.600000e-07	-1.643556e-06	-4.767155e-09	-1.159965e+01	-3.143442e+02
6.700000e-07	-1.544214e-06	-4.634293e-09	-1.089853e+01	-3.058116e+02
6.800000e-07	-1.444366e-06	-4.506573e-09	-1.019384e+01	-2.970945e+02
6.900000e-07	-1.344111e-06	-4.374148e-09	-9.486271e+00	-2.881815e+02
7.000000e-07	-1.243438e-06	-4.233425e-09	-8.775755e+00	-2.790614e+02
7.100000e-07	-1.142385e-06	-4.087850e-09	-8.062554e+00	-2.697253e+02
7.200000e-07	-1.041006e-06	-3.938735e-09	-7.347056e+00	-2.601674e+02
7.300000e-07	-9.392948e-07	-3.789425e-09	-6.629217e+00	-2.503851e+02
7.400000e-07	-8.372257e-07	-3.637074e-09	-5.908849e+00	-2.403789e+02
7.500000e-07	-7.348725e-07	-3.477402e-09	-5.186475e+00	-2.301505e+02
7.600000e-07	-6.322534e-07	-3.310332e-09	-4.462225e+00	-2.197019e+02
7.700000e-07	-5.293953e-07	-3.141718e-09	-3.736288e+00	-2.090335e+02
7.800000e-07	-4.264228e-07	-2.976645e-09	-3.009544e+00	-1.981434e+02
7.900000e-07	-3.233447e-07	-2.811027e-09	-2.282054e+00	-1.870264e+02
8.000000e-07	-2.201864e-07	-2.638735e-09	-1.553999e+00	-1.756747e+02
8.100000e-07	-1.169465e-07	-2.459651e-09	-8.253676e-01	-1.640775e+02
8.200000e-07	-1.359946e-08	-2.276488e-09	-9.598025e-02	-1.522228e+02
8.300000e-07	8.974419e-08	-2.090592e-09	6.333834e-01	-1.400976e+02
8.400000e-07	1.930635e-07	-1.902792e-09	1.362575e+00	-1.276891e+02
8.500000e-07	2.963547e-07	-1.708228e-09	2.091569e+00	-1.149849e+02
8.600000e-07	3.995464e-07	-1.507839e-09	2.819860e+00	-1.019734e+02
8.700000e-07	5.026169e-07	-1.303622e-09	3.547296e+00	-8.864362e+01
8.800000e-07	6.055305e-07	-1.097220e-09	4.273624e+00	-7.498531e+01
8.900000e-07	7.082982e-07	-8.885867e-10	4.998923e+00	-6.098884e+01
9.000000e-07	8.109116e-07	-6.731200e-10	5.723133e+00	-4.664548e+01
9.100000e-07	9.132862e-07	-4.504299e-10	6.445657e+00	-3.194809e+01
9.200000e-07	1.015317e-06	-2.213808e-10	7.165756e+00	-1.689217e+01
9.300000e-07	1.116890e-06	1.438257e-11	7.882620e+00	-1.477432e+00
9.400000e-07	1.217987e-06	2.558942e-10	8.596130e+00	1.429043e+01
9.500000e-07	1.318705e-06	5.014105e-10	9.306959e+00	3.039784e+01
9.600000e-07	1.419038e-06	7.511449e-10	1.001508e+01	4.682160e+01
9.700000e-07	1.518948e-06	1.005331e-09	1.072021e+01	6.352771e+01
9.800000e-07	1.618343e-06	1.262158e-09	1.142170e+01	8.047080e+01
9.900000e-07	1.717082e-06	1.520086e-09	1.211857e+01	9.759460e+01
1.000000e-06	1.815035e-06	1.779436e-09	1.280989e+01	1.148334e+02
1.010000e-06	1.912085e-06	2.041802e-09	1.349483e+01	1.321144e+02
1.020000e-06	2.008279e-06	2.305851e-09	1.417374e+01	1.493610e+02
1.030000e-06	2.103722e-06	2.568345e-09	1.484734e+01	1.664963e+02
1.040000e-06	2.198460e-06	2.828750e-09	1.551597e+01	1.834464e+02
1.050000e-06	2.292462e-06	3.082522e-09	1.617940e+01	2.001440e+02
1.060000e-06	2.385713e-06	3.329066e-09	1.683754e+01	2.165301e+02
1.070000e-06	2.478246e-06	3.569896e-09	1.749060e+01	2.325554e+02
1.080000e-06	2.570086e-06	3.806188e-09	1.813878e+01	2.481807e+02
1.090000e-06	2.661035e-06	4.037368e-09	1.878066e+01	2.633760e+02
1.100000e-06	2.750723e-06	4.261002e-09	1.941365e+01	2.781190e+02
1.110000e-06	2.839180e-06	4.475531e-09	2.003795e+01	2.923942e+02
1.120000e-06	2.926737e-06	4.682571e-09	2.065590e+01	3.061912e+02
1.130000e-06	3.013422e-06	4.884604e-09	2.126769e+01	3.195041e+02
1.140000e-06	3.099090e-06	5.081686e-09	2.187230e+01	3.323309e+02
1.150000e-06	3.183785e-06	5.271559e-09	2.247005e+01	3.446739e+02
1.160000e-06	3.267578e-06	5.452321e-09	2.306143e+01	3.565391e+02
1.170000e-06	3.350260e-06	5.625512e-09	2.364497e+01	3.679363e+02
1.180000e-06	3.431576e-06	5.791865e-09	2.421888e+01	3.788785e+02
1.190000e-06	3.511616e-06	5.951852e-09	2.478377e+01	3.893805e+02
1.200000e-06	3.590451e-06	6.104504e-09	2.534016e+01	3.994573e+02
1.210000e-06	3.668006e-06	6.251087e-09	2.588752e+01	4.091224e+02
1.220000e-06	3.744298e-06	6.391932e-09	2.642596e+01	4.183864e+02
1.230000e-06	3.819128e-06	6.528194e-09	2.695408e+01	4.272565e+02
1.240000e-06	3.892262e-06	6.658893e-09	2.747024e+01	4.357364e+02
1.250000e-06	3.963918e-06	6.782364e-09	2.797596e+01	4.438286e+02
1.260000e-06	4.034230e-06	6.898252e-09	2.847219e+01	4.515360e+02
1.270000e-06	4.103132e-06	7.006326e-09	2.895848e+01	4.588650e+02
1.280000e-06	4.170690e-06	7.109710e-09	2.943529e+01	4.658273e+02
1.290000e-06	4.236657e-06	7.208808e-09	2.990085e+01	4.724416e+02
1.300000e-06	4.300897e-06	7.303979e-09	3.035424e+01	4.787328e+02
1.310000e-06	4.363623e-06	7.394800e-09	3.079694e+01	4.847307e+02
1.320000e-06	4.424928e-06	7.482863e-09	3.122960e+01	4.904665e+02
1.330000e-06	4.484918e-06	7.568748e-09	3.165300e+01	4.959694e+02
1.340000e-06	4.543342e-06	7.650918e-09	3.206533e+01	5.012625e+02
1.350000e-06	4.599894e-06	7.729436e-09	3.246446e+01	5.063608e+02
1.360000e-06	4.654722e-06	7.803657e-09	3.285141e+01	5.112698e+02
1.370000e-06	4.707862e-06	7.873801e-09	3.322645e+01	5.159862e+02
1.380000e-06	4.759020e-06	7.940420e-09	3.358751e+01	5.205009e+02
1.390000e-06	4.808069e-06	8.005317e-09	3.393369e+01	5.248022e+02
1.400000e-06	4.855302e-06	8.067577e-09	3.426704e+01	5.288794e+02
1.410000e-06	4.900924e-06	8.125211e-09	3.458902e+01	5.327264e+02
1.420000e-06	4.945009e-06	8.179132e-09	3.490016e+01	5.363427e+02
1.430000e-06	4.987325e-06	8.229335e-09	3.519881e+01	5.397341e+02
1.440000e-06	5.027684e-06	8.276539e-09	3.548365e+01	5.429104e+02
1.450000e-06	5.066352e-06	8.321013e-09	3.575655e+01	5.458834e+02
1.460000e-06	5.103415e-06	8.362882e-09	3.601814e+01	5.486640e+02
1.470000e-06	5.138720e-06	8.401431e-09	3.626730e+01	5.512598e+02
1.480000e-06	5.172075e-06	8.436536e-09	3.650271e+01	5.536745e+02
1.490000e-06	5.203557e-06	8.468181e-09	3.672490e+01	5.559080e+02
1.500000e-06	5.233312e-06	8.495193e-09	3.693490e+01	5.579590e+02
1.510000e-06	5.261390e-06	8.520107e-09	3.713306e+01	5.598264e+02
1.520000e-06	5.287571e-06	8.543864e-09	3.731784e+01	5.615126e+02
1.530000e-06	5.311626e-06	8.566497e-09	3.748761e+01	5.630244e+02
1.540000e-06	5.333736e-06	8.586622e-09	3.764366e+01	5.643732e+02
1.550000e-06	5.354156e-06	8.604211e-09	3.778777e+01	5.655731e+02
1.560000e-06	5.372811e-06	8.620061e-09	3.791944e+01	5.666391e+02
1.570000e-06	5.389446e-06	8.633484e-09	3.803684e+01	5.675834e+02
1.580000e-06	5.404086e-06	8.644857e-09	3.814016e+01	5.684129e+02
1.590000e-06	5.416712e-06	8.653997e-09	3.822927e+01	5.691287e+02
1.600000e-06	5.427105e-06	8.662244e-09	3.830262e+01	5.697258e+02
1.610000e-06	5.435325e-06	8.669609e-09	3.836064e+01	5.701957e+02
1.620000e-06	5.441634e-06	8.674643e-09	3.840516e+01	5.705297e+02
1.630000e-06	5.446179e-06	8.679287e-09	3.843724e+01	5.707221e+02
1.640000e-06	5.448816e-06	8.683725e-09	3.845586e+01	5.707732e+02
1.650000e-06	5.449404e-06	8.686354e-09	3.846000e+01	5.706900e+02
1.660000e-06	5.448144e-06	8.682387e-09	3.845111e+01	5.704855e+02
1.670000e-06	5.445197e-06	8.677493e-09	3.843031e+01	5.701754e+02
1.680000e-06	5.440531e-06	8.673345e-09	3.839738e+01	5.697744e+02
1.690000e-06	5.433975e-06	8.664778e-09	3.835111e+01	5.692919e+02
1.700000e-06	5.425599e-06	8.654974e-09	3.829199e+01	5.687296e+02
1.710000e-06	5.415596e-06	8.647193e-09	3.822140e+01	5.680804e+02
1.720000e-06	5.403823e-06	8.649199e-09	3.813831e+01	5.673306e+02
1.730000e-06	5.390092e-06	8.629680e-09	3.804140e+01	5.664640e+02
1.740000e-06	5.374355e-06	8.546048e-09	3.793033e+01	5.654674e+02
1.750000e-06	5.356311e-06	8.537817e-09	3.780298e+01	5.643354e+02
1.760000e-06	5.335558e-06	8.547582e-09	3.765652e+01	5.630746e+02
1.770000e-06	5.312430e-06	8.561078e-09	3.749329e+01	5.617041e+02
1.780000e-06	5.287944e-06	8.638290e-09	3.732047e+01	5.602530e+02
1.790000e-06	5.262713e-06	8.474423e-09	3.714240e+01	5.587555e+02
1.800000e-06	5.236093e-06	8.420680e-09	3.695453e+01	5.572428e+02
1.810000e-06	5.207147e-06	8.525765e-09	3.675024e+01	5.557361e+02
1.820000e-06	5.176247e-06	8.367614e-09	3.653215e+01	5.542405e+02
1.830000e-06	5.143834e-06	8.429334e-09	3.630339e+01	5.527420e+02
1.840000e-06	5.109590e-06	8.490888e-09	3.606172e+01	5.512085e+02
1.850000e-06	5.073710e-06	8.274810e-09	3.580849e+01	5.495948e+02
1.860000e-06	5.036040e-06	8.351052e-09	3.554263e+01	5.478505e+02
1.870000e-06	4.996378e-06	8.340314e-09	3.526271e+01	5.459291e+02
1.880000e-06	4.955061e-06	8.204563e-09	3.497110e+01	5.437959e+02
1.890000e-06	4.911951e-06	8.294743e-09	3.466684e+01	5.414345e+02
1.900000e-06	4.867126e-06	8.204253e-09	3.435049e+01	5.388483e+02
1.910000e-06	4.820504e-06	8.171695e-09	3.402145e+01	5.360586e+02
1.920000e-06	4.771845e-06	8.142053e-09	3.367803e+01	5.330991e+02
1.930000e-06	4.721515e-06	7.998163e-09	3.332282e+01	5.300079e+02
1.940000e-06	4.669375e-06	8.078157e-09	3.295483e+01	5.268196e+02
1.950000e-06	4.615154e-06	8.007634e-09	3.257216e+01	5.235587e+02
1.960000e-06	4.559026e-06	7.892161e-09	3.217603e+01	5.202357e+02
1.970000e-06	4.501129e-06	7.861385e-09	3.176741e+01	5.168468e+02
1.980000e-06	4.441802e-06	7.809342e-09	3.134870e+01	5.133770e+02
1.990000e-06	4.380958e-06	7.801439e-09	3.091929e+01	5.098049e+02
2.000000e-06	4.318411e-06	7.672543e-09	3.047785e+01	5.061089e+02
2.010000e-06	4.254284e-06	7.649549e-09	3.002526e+01	5.022724e+02
2.020000e-06	4.188625e-06	7.616050e-09	2.956186e+01	4.982872e+02
2.030000e-06	4.121537e-06	7.477986e-09	2.908838e+01	4.941540e+02
2.040000e-06	4.052914e-06	7.462310e-09	2.860406e+01	4.898812e+02
2.050000e-06	3.982694e-06	7.412406e-09	2.810847e+01	4.854804e+02
2.060000e-06	3.911032e-06	7.344928e-09	2.760271e+01	4.809629e+02
2.070000e-06	3.838091e-06	7.229284e-09	2.708791e+01	4.763357e+02
2.080000e-06	3.763842e-06	7.146395e-09	2.656389e+01	4.715991e+02
2.090000e-06	3.688071e-06	7.130262e-09	2.602913e+01	4.667463e+02
2.100000e-06	3.610717e-06	7.045950e-09	2.548319e+01	4.617657e+02
2.110000e-06	3.531890e-06	6.961502e-09	2.492686e+01	4.566433e+02
2.120000e-06	3.451862e-06	6.873943e-09	2.436205e+01	4.513668e+02
2.130000e-06	3.370748e-06	6.796424e-09	2.378957e+01	4.459283e+02
2.140000e-06	3.288443e-06	6.691432e-09	2.320869e+01	4.403260e+02
2.150000e-06	3.205030e-06	6.601193e-09	2.261999e+01	4.345641e+02
2.160000e-06	3.120485e-06	6.543644e-09	2.202330e+01	4.286514e+02
2.170000e-06	3.034657e-06	6.449513e-09	2.141756e+01	4.225983e+02
2.180000e-06	2.947639e-06	6.344049e-09	2.080341e+01	4.164136e+02
2.190000e-06	2.859543e-06	6.240730e-09	2.018166e+01	4.101022e+02
2.200000e-06	2.770429e-06	6.161329e-09	1.955273e+01	4.036636e+02
2.210000e-06	2.680371e-06	6.068256e-09	1.891713e+01	3.970918e+02
2.220000e-06	2.589441e-06	5.954123e-09	1.827538e+01	3.903769e+02
2.230000e-06	2.497659e-06	5.842610e-09	1.762761e+01	3.835073e+02
2.240000e-06	2.404963e-06	5.733101e-09	1.697339e+01	3.764727e+02
2.250000e-06	2.311335e-06	5.625827e-09	1.631260e+01	3.692654e+02
2.260000e-06	2.216822e-06	5.515418e-09	1.564556e+01	3.618821e+02
2.270000e-06	2.121448e-06	5.406216e-09	1.497245e+01	3.543236e+02
2.280000e-06	2.025229e-06	5.290004e-09	1.429337e+01	3.465932e+02
2.290000e-06	1.928310e-06	5.167285e-09	1.360934e+01	3.386954e+02
2.300000e-06	1.830811e-06	5.045193e-09	1.292123e+01	3.306331e+02
2.310000e-06	1.732721e-06	4.929781e-09	1.222894e+01	3.224062e+02
2.320000e-06	1.634105e-06	4.806304e-09	1.153295e+01	3.140108e+02
2.330000e-06	1.535020e-06	4.667261e-09	1.083364e+01	3.054391e+02
2.340000e-06	1.435496e-06	4.524664e-09	1.013123e+01	2.966805e+02
2.350000e-06	1.335561e-06	4.385108e-09	9.425925e+00	2.877234e+02
2.360000e-06	1.235204e-06	4.252432e-09	8.717641e+00	2.785571e+02
2.370000e-06	1.134445e-06	4.117994e-09	8.006519e+00	2.691734e+02
2.380000e-06	1.033212e-06	3.973849e-09	7.292054e+00	2.595669e+02
2.390000e-06	9.315027e-07	3.823185e-09	6.574223e+00	2.497360e+02
2.400000e-06	8.293799e-07	3.670916e-09	5.853476e+00	2.396815e+02
2.410000e-06	7.268806e-07	3.517594e-09	5.130071e+00	2.294052e+02
2.420000e-06	6.240221e-07	3.360778e-09	4.404132e+00	2.189090e+02
2.430000e-06	5.209280e-07	3.197603e-09	3.676529e+00	2.081928e+02
2.440000e-06	4.177051e-07	3.028810e-09	2.948018e+00	1.972541e+02
2.450000e-06	3.143161e-07	2.855524e-09	2.218334e+00	1.860871e+02
2.460000e-06	2.107610e-07	2.681824e-09	1.487478e+00	1.746832e+02
2.470000e-06	1.070681e-07	2.511918e-09	7.556492e-01	1.630313e+02
2.480000e-06	3.312944e-09	2.335293e-09	2.338161e-02	1.511192e+02
2.490000e-06	-1.004322e-07	2.147485e-09	-7.088157e-01	1.389339e+02
2.500000e-06	-2.041422e-07	1.955456e-09	-1.440765e+00	1.264625e+02
2.510000e-06	-3.077472e-07	1.761892e-09	-2.171973e+00	1.136929e+02
2.520000e-06	-4.112488e-07	1.564613e-09	-2.902451e+00	1.006135e+02
2.530000e-06	-5.146618e-07	1.359273e-09	-3.632304e+00	8.721364e+01
2.540000e-06	-6.178540e-07	1.147727e-09	-4.360599e+00	7.348312e+01
2.550000e-06	-7.208160e-07	9.305054e-10	-5.087269e+00	5.941247e+01
2.560000e-06	-8.235232e-07	7.053916e-10	-5.812141e+00	4.499325e+01
2.570000e-06	-9.258119e-07	4.771972e-10	-6.534059e+00	3.021876e+01
2.580000e-06	-1.027587e-06	2.481370e-10	-7.252352e+00	1.508526e+01
2.590000e-06	-1.128802e-06	1.478348e-11	-7.966693e+00	-4.063987e-01
2.600000e-06	-1.229476e-06	-2.272148e-10	-8.677213e+00	-1.624900e+01
2.610000e-06	-1.329629e-06	-4.748549e-10	-9.384064e+00	-3.242704e+01
2.620000e-06	-1.429304e-06	-7.255522e-10	-1.008753e+01	-4.891509e+01
2.630000e-06	-1.528543e-06	-9.809396e-10	-1.078792e+01	-6.567672e+01
2.640000e-06	-1.627315e-06	-1.241943e-09	-1.148502e+01	-8.266415e+01
2.650000e-06	-1.725516e-06	-1.507334e-09	-1.217809e+01	-9.981894e+01
2.660000e-06	-1.823086e-06	-1.773431e-09	-1.286671e+01	-1.170736e+02
2.670000e-06	-1.920023e-06	-2.038081e-09	-1.355085e+01	-1.343543e+02
2.680000e-06	-2.016332e-06	-2.297548e-09	-1.423057e+01	-1.515840e+02
2.690000e-06	-2.112073e-06	-2.555149e-09	-1.490628e+01	-1.686862e+02
2.700000e-06	-2.207201e-06	-2.814091e-09	-1.557766e+01	-1.855882e+02
2.710000e-06	-2.301487e-06	-3.071835e-09	-1.624309e+01	-2.022242e+02
2.720000e-06	-2.394700e-06	-3.324368e-09	-1.690096e+01	-2.185373e+02
2.730000e-06	-2.486847e-06	-3.568314e-09	-1.755130e+01	-2.344804e+02
2.740000e-06	-2.578080e-06	-3.804468e-09	-1.819520e+01	-2.500163e+02
2.750000e-06	-2.668431e-06	-4.035695e-09	-1.883286e+01	-2.651168e+02
2.760000e-06	-2.757803e-06	-4.263055e-09	-1.946362e+01	-2.797612e+02
2.770000e-06	-2.846227e-06	-4.483724e-09	-2.008768e+01	-2.939352e+02
2.780000e-06	-2.933864e-06	-4.694057e-09	-2.070619e+01	-3.076293e+02
2.790000e-06	-3.020632e-06	-4.894042e-09	-2.131857e+01	-3.208387e+02
2.800000e-06	-3.106183e-06	-5.088889e-09	-2.192237e+01	-3.335621e+02
2.810000e-06	-3.190438e-06	-5.277424e-09	-2.251701e+01	-3.458026e+02
2.820000e-06	-3.273618e-06	-5.456762e-09	-2.310406e+01	-3.575671e+02
2.830000e-06	-3.355720e-06	-5.628214e-09	-2.368351e+01	-3.688661e+02
2.840000e-06	-3.436720e-06	-5.791698e-09	-2.425518e+01	-3.797132e+02
2.850000e-06	-3.516667e-06	-5.948691e-09	-2.481942e+01	-3.901234e+02
2.860000e-06	-3.595248e-06	-6.099944e-09	-2.537401e+01	-4.001115e+02
2.870000e-06	-3.672236e-06	-6.247856e-09	-2.591736e+01	-4.096904e+02
2.880000e-06	-3.747747e-06	-6.391146e-09	-2.645030e+01	-4.188700e+02
2.890000e-06	-3.821860e-06	-6.525943e-09	-2.697336e+01	-4.276568e+02
2.900000e-06	-3.894606e-06	-6.655409e-09	-2.748678e+01	-4.360539e+02
2.910000e-06	-3.966057e-06	-6.780810e-09	-2.799105e+01	-4.440639e+02
2.920000e-06	-4.035990e-06	-6.899282e-09	-2.848461e+01	-4.516901e+02
2.930000e-06	-4.104301e-06	-7.009668e-09	-2.896673e+01	-4.589398e+02
2.940000e-06	-4.171148e-06	-7.114186e-09	-2.943852e+01	-4.658263e+02
