# Temperatura_=_79.5
# Concentracion g/m^3_=_15000.0
# C_Vs_to_Am_M_A/Vsm_=_65563218390.804596
# pendiente_HvsI_1/m_=_3716.3
# ordenada_HvsI_A/m_=_1297.0
# frecuencia_Hz_=_301962.0002304412

Tiempo_(s)	Campo_(V.s)	Magnetizacion_(V.s)	Campo_(kA/m)	Magnetizacion_(A/m)
0.000000e+00	-6.839651e-06	-1.261595e-08	-4.748713e+01	-8.268566e+02
1.000000e-08	-6.837919e-06	-1.261693e-08	-4.747510e+01	-8.265751e+02
2.000000e-08	-6.833828e-06	-1.260898e-08	-4.744671e+01	-8.260900e+02
3.000000e-08	-6.827576e-06	-1.259869e-08	-4.740329e+01	-8.254074e+02
4.000000e-08	-6.819089e-06	-1.258902e-08	-4.734437e+01	-8.245416e+02
5.000000e-08	-6.808202e-06	-1.257690e-08	-4.726878e+01	-8.235140e+02
6.000000e-08	-6.794854e-06	-1.256274e-08	-4.717611e+01	-8.223509e+02
7.000000e-08	-6.779083e-06	-1.253890e-08	-4.706662e+01	-8.210802e+02
8.000000e-08	-6.761072e-06	-1.252271e-08	-4.694156e+01	-8.197284e+02
9.000000e-08	-6.740874e-06	-1.255619e-08	-4.680133e+01	-8.183174e+02
1.000000e-07	-6.718109e-06	-1.253198e-08	-4.664328e+01	-8.168617e+02
1.100000e-07	-6.692512e-06	-1.247277e-08	-4.646556e+01	-8.153670e+02
1.200000e-07	-6.664297e-06	-1.244152e-08	-4.626966e+01	-8.138291e+02
1.300000e-07	-6.633871e-06	-1.239068e-08	-4.605842e+01	-8.122348e+02
1.400000e-07	-6.601501e-06	-1.229945e-08	-4.583367e+01	-8.105633e+02
1.500000e-07	-6.567236e-06	-1.233633e-08	-4.559578e+01	-8.087886e+02
1.600000e-07	-6.530991e-06	-1.235436e-08	-4.534413e+01	-8.068820e+02
1.700000e-07	-6.492707e-06	-1.222313e-08	-4.507833e+01	-8.048156e+02
1.800000e-07	-6.452263e-06	-1.228370e-08	-4.479753e+01	-8.025642e+02
1.900000e-07	-6.409329e-06	-1.222522e-08	-4.449944e+01	-8.001079e+02
2.000000e-07	-6.363966e-06	-1.213686e-08	-4.418449e+01	-7.974328e+02
2.100000e-07	-6.316305e-06	-1.215606e-08	-4.385359e+01	-7.945321e+02
2.200000e-07	-6.266017e-06	-1.203443e-08	-4.350444e+01	-7.914048e+02
2.300000e-07	-6.213017e-06	-1.196459e-08	-4.313646e+01	-7.880553e+02
2.400000e-07	-6.157588e-06	-1.192031e-08	-4.275163e+01	-7.844917e+02
2.500000e-07	-6.099883e-06	-1.188181e-08	-4.235098e+01	-7.807239e+02
2.600000e-07	-6.039947e-06	-1.187247e-08	-4.193485e+01	-7.767626e+02
2.700000e-07	-5.977805e-06	-1.180571e-08	-4.150341e+01	-7.726172e+02
2.800000e-07	-5.913430e-06	-1.171086e-08	-4.105646e+01	-7.682960e+02
2.900000e-07	-5.846858e-06	-1.161322e-08	-4.059425e+01	-7.638047e+02
3.000000e-07	-5.778120e-06	-1.156784e-08	-4.011701e+01	-7.591473e+02
3.100000e-07	-5.707270e-06	-1.149808e-08	-3.962511e+01	-7.543259e+02
3.200000e-07	-5.634242e-06	-1.141389e-08	-3.911808e+01	-7.493414e+02
3.300000e-07	-5.558918e-06	-1.136413e-08	-3.859511e+01	-7.441942e+02
3.400000e-07	-5.481282e-06	-1.125328e-08	-3.805608e+01	-7.388840e+02
3.500000e-07	-5.401429e-06	-1.116763e-08	-3.750168e+01	-7.334108e+02
3.600000e-07	-5.319642e-06	-1.109824e-08	-3.693384e+01	-7.277741e+02
3.700000e-07	-5.236105e-06	-1.101039e-08	-3.635384e+01	-7.219731e+02
3.800000e-07	-5.150855e-06	-1.090715e-08	-3.576196e+01	-7.160064e+02
3.900000e-07	-5.063896e-06	-1.080369e-08	-3.515821e+01	-7.098712e+02
4.000000e-07	-4.975215e-06	-1.072667e-08	-3.454251e+01	-7.035636e+02
4.100000e-07	-4.884697e-06	-1.063838e-08	-3.391405e+01	-6.970783e+02
4.200000e-07	-4.792446e-06	-1.054012e-08	-3.327356e+01	-6.904088e+02
4.300000e-07	-4.698623e-06	-1.042114e-08	-3.262215e+01	-6.835480e+02
4.400000e-07	-4.603131e-06	-1.030481e-08	-3.195916e+01	-6.764888e+02
4.500000e-07	-4.505911e-06	-1.019836e-08	-3.128417e+01	-6.692247e+02
4.600000e-07	-4.406945e-06	-1.009043e-08	-3.059706e+01	-6.617505e+02
4.700000e-07	-4.306445e-06	-9.987967e-09	-2.989929e+01	-6.540630e+02
4.800000e-07	-4.204507e-06	-9.866696e-09	-2.919155e+01	-6.461604e+02
4.900000e-07	-4.101054e-06	-9.727401e-09	-2.847328e+01	-6.380431e+02
5.000000e-07	-3.996145e-06	-9.590790e-09	-2.774490e+01	-6.297122e+02
5.100000e-07	-3.889704e-06	-9.468364e-09	-2.700590e+01	-6.211693e+02
5.200000e-07	-3.781776e-06	-9.343092e-09	-2.625656e+01	-6.124151e+02
5.300000e-07	-3.672553e-06	-9.207313e-09	-2.549823e+01	-6.034490e+02
5.400000e-07	-3.562077e-06	-9.064113e-09	-2.473120e+01	-5.942678e+02
5.500000e-07	-3.450288e-06	-8.920088e-09	-2.395507e+01	-5.848662e+02
5.600000e-07	-3.337086e-06	-8.778400e-09	-2.316911e+01	-5.752358e+02
5.700000e-07	-3.222339e-06	-8.625250e-09	-2.237243e+01	-5.653667e+02
5.800000e-07	-3.106170e-06	-8.463898e-09	-2.156588e+01	-5.552477e+02
5.900000e-07	-2.988840e-06	-8.296803e-09	-2.075127e+01	-5.448677e+02
6.000000e-07	-2.870415e-06	-8.133088e-09	-1.992906e+01	-5.342167e+02
6.100000e-07	-2.750937e-06	-7.973273e-09	-1.909953e+01	-5.232870e+02
6.200000e-07	-2.630551e-06	-7.812350e-09	-1.826370e+01	-5.120734e+02
6.300000e-07	-2.509245e-06	-7.639404e-09	-1.742148e+01	-5.005737e+02
6.400000e-07	-2.386846e-06	-7.452567e-09	-1.657167e+01	-4.887877e+02
6.500000e-07	-2.263386e-06	-7.265506e-09	-1.571450e+01	-4.767165e+02
6.600000e-07	-2.139150e-06	-7.080206e-09	-1.485194e+01	-4.643611e+02
6.700000e-07	-2.014345e-06	-6.893933e-09	-1.398543e+01	-4.517205e+02
6.800000e-07	-1.888903e-06	-6.699302e-09	-1.311450e+01	-4.387906e+02
6.900000e-07	-1.762806e-06	-6.495378e-09	-1.223902e+01	-4.255631e+02
7.000000e-07	-1.636140e-06	-6.284429e-09	-1.135959e+01	-4.120245e+02
7.100000e-07	-1.508876e-06	-6.069697e-09	-1.047600e+01	-3.981573e+02
7.200000e-07	-1.381062e-06	-5.853436e-09	-9.588597e+00	-3.839401e+02
7.300000e-07	-1.252865e-06	-5.630595e-09	-8.698540e+00	-3.693493e+02
7.400000e-07	-1.124318e-06	-5.400213e-09	-7.806048e+00	-3.543611e+02
7.500000e-07	-9.953770e-07	-5.165660e-09	-6.910820e+00	-3.389534e+02
7.600000e-07	-8.660788e-07	-4.929544e-09	-6.013113e+00	-3.231067e+02
7.700000e-07	-7.364954e-07	-4.689414e-09	-5.113426e+00	-3.068054e+02
7.800000e-07	-6.066420e-07	-4.440339e-09	-4.211865e+00	-2.900371e+02
7.900000e-07	-4.765872e-07	-4.177548e-09	-3.308906e+00	-2.727919e+02
8.000000e-07	-3.462973e-07	-3.904147e-09	-2.404313e+00	-2.550594e+02
8.100000e-07	-2.157742e-07	-3.622703e-09	-1.498103e+00	-2.368265e+02
8.200000e-07	-8.512802e-08	-3.334720e-09	-5.910368e-01	-2.180742e+02
8.300000e-07	4.564100e-08	-3.039618e-09	3.168817e-01	-1.987747e+02
8.400000e-07	1.764287e-07	-2.732173e-09	1.224930e+00	-1.788901e+02
8.500000e-07	3.070953e-07	-2.415969e-09	2.132137e+00	-1.583716e+02
8.600000e-07	4.376831e-07	-2.091560e-09	3.038797e+00	-1.371618e+02
8.700000e-07	5.681591e-07	-1.757227e-09	3.944682e+00	-1.151984e+02
8.800000e-07	6.983772e-07	-1.407519e-09	4.848775e+00	-9.241946e+01
8.900000e-07	8.283168e-07	-1.043640e-09	5.750935e+00	-6.877161e+01
9.000000e-07	9.578947e-07	-6.697423e-10	6.650584e+00	-4.421782e+01
9.100000e-07	1.087152e-06	-2.849048e-10	7.548006e+00	-1.874600e+01
9.200000e-07	1.216102e-06	1.126104e-10	8.443297e+00	7.623485e+00
9.300000e-07	1.344593e-06	5.257735e-10	9.335397e+00	3.483219e+01
9.400000e-07	1.472621e-06	9.527767e-10	1.022428e+01	6.278068e+01
9.500000e-07	1.600131e-06	1.391863e-09	1.110958e+01	9.132885e+01
9.600000e-07	1.727085e-06	1.837396e-09	1.199101e+01	1.202998e+02
9.700000e-07	1.853460e-06	2.287743e-09	1.286842e+01	1.494873e+02
9.800000e-07	1.979120e-06	2.738400e-09	1.374087e+01	1.786656e+02
9.900000e-07	2.104044e-06	3.183833e-09	1.460820e+01	2.076022e+02
1.000000e-06	2.228346e-06	3.617051e-09	1.547122e+01	2.360702e+02
1.010000e-06	2.351990e-06	4.033759e-09	1.632968e+01	2.638616e+02
1.020000e-06	2.474723e-06	4.437523e-09	1.718180e+01	2.907982e+02
1.030000e-06	2.596350e-06	4.828202e-09	1.802624e+01	3.167402e+02
1.040000e-06	2.716877e-06	5.207549e-09	1.886305e+01	3.415912e+02
1.050000e-06	2.836401e-06	5.569091e-09	1.969290e+01	3.652998e+02
1.060000e-06	2.954988e-06	5.909265e-09	2.051624e+01	3.878569e+02
1.070000e-06	3.072572e-06	6.234203e-09	2.133261e+01	4.092904e+02
1.080000e-06	3.189045e-06	6.547626e-09	2.214128e+01	4.296566e+02
1.090000e-06	3.304193e-06	6.848479e-09	2.294074e+01	4.490308e+02
1.100000e-06	3.417815e-06	7.132035e-09	2.372960e+01	4.674971e+02
1.110000e-06	3.530077e-06	7.401205e-09	2.450903e+01	4.851396e+02
1.120000e-06	3.641158e-06	7.656894e-09	2.528026e+01	5.020342e+02
1.130000e-06	3.751047e-06	7.900875e-09	2.604321e+01	5.182439e+02
1.140000e-06	3.859764e-06	8.135502e-09	2.679802e+01	5.338163e+02
1.150000e-06	3.967264e-06	8.362608e-09	2.754439e+01	5.487837e+02
1.160000e-06	4.073323e-06	8.582627e-09	2.828075e+01	5.631653e+02
1.170000e-06	4.177802e-06	8.794512e-09	2.900613e+01	5.769716e+02
1.180000e-06	4.280734e-06	8.997639e-09	2.972078e+01	5.902088e+02
1.190000e-06	4.382165e-06	9.190671e-09	3.042501e+01	6.028837e+02
1.200000e-06	4.482136e-06	9.371914e-09	3.111910e+01	6.150075e+02
1.210000e-06	4.580469e-06	9.541694e-09	3.180182e+01	6.265983e+02
1.220000e-06	4.677026e-06	9.704331e-09	3.247221e+01	6.376819e+02
1.230000e-06	4.771858e-06	9.862445e-09	3.313062e+01	6.482906e+02
1.240000e-06	4.865102e-06	1.001882e-08	3.377800e+01	6.584613e+02
1.250000e-06	4.956770e-06	1.017368e-08	3.441445e+01	6.682317e+02
1.260000e-06	5.046608e-06	1.032510e-08	3.503818e+01	6.776367e+02
1.270000e-06	5.134524e-06	1.046733e-08	3.564857e+01	6.867050e+02
1.280000e-06	5.220573e-06	1.060327e-08	3.624601e+01	6.954563e+02
1.290000e-06	5.304859e-06	1.073399e-08	3.683120e+01	7.039006e+02
1.300000e-06	5.387252e-06	1.085911e-08	3.740324e+01	7.120379e+02
1.310000e-06	5.467594e-06	1.097560e-08	3.796105e+01	7.198603e+02
1.320000e-06	5.545967e-06	1.108383e-08	3.850519e+01	7.273549e+02
1.330000e-06	5.622327e-06	1.119090e-08	3.903535e+01	7.345071e+02
1.340000e-06	5.696506e-06	1.129522e-08	3.955037e+01	7.413052e+02
1.350000e-06	5.768480e-06	1.139160e-08	4.005008e+01	7.477432e+02
1.360000e-06	5.838396e-06	1.148075e-08	4.053550e+01	7.538231e+02
1.370000e-06	5.906345e-06	1.156753e-08	4.100726e+01	7.595568e+02
1.380000e-06	5.972140e-06	1.165242e-08	4.146407e+01	7.649646e+02
1.390000e-06	6.035704e-06	1.173292e-08	4.190540e+01	7.700745e+02
1.400000e-06	6.097229e-06	1.180851e-08	4.233256e+01	7.749182e+02
1.410000e-06	6.156788e-06	1.188061e-08	4.274607e+01	7.795285e+02
1.420000e-06	6.214202e-06	1.194841e-08	4.314469e+01	7.839346e+02
1.430000e-06	6.269319e-06	1.201068e-08	4.352737e+01	7.881594e+02
1.440000e-06	6.322116e-06	1.207095e-08	4.389393e+01	7.922171e+02
1.450000e-06	6.372325e-06	1.213068e-08	4.424253e+01	7.961117e+02
1.460000e-06	6.419976e-06	1.218825e-08	4.457336e+01	7.998380e+02
1.470000e-06	6.465371e-06	1.224335e-08	4.488853e+01	8.033826e+02
1.480000e-06	6.508577e-06	1.229485e-08	4.518851e+01	8.067272e+02
1.490000e-06	6.549460e-06	1.234259e-08	4.547236e+01	8.098518e+02
1.500000e-06	6.587952e-06	1.238599e-08	4.573960e+01	8.127384e+02
1.510000e-06	6.624225e-06	1.242486e-08	4.599144e+01	8.153739e+02
1.520000e-06	6.658178e-06	1.245978e-08	4.622718e+01	8.177525e+02
1.530000e-06	6.689654e-06	1.249123e-08	4.644571e+01	8.198770e+02
1.540000e-06	6.718849e-06	1.251972e-08	4.664841e+01	8.217581e+02
1.550000e-06	6.745706e-06	1.254650e-08	4.683488e+01	8.234133e+02
1.560000e-06	6.770029e-06	1.257019e-08	4.700375e+01	8.248641e+02
1.570000e-06	6.791891e-06	1.258984e-08	4.715554e+01	8.261331e+02
1.580000e-06	6.811427e-06	1.260673e-08	4.729118e+01	8.272408e+02
1.590000e-06	6.828567e-06	1.262244e-08	4.741017e+01	8.282027e+02
1.600000e-06	6.843187e-06	1.263394e-08	4.751168e+01	8.290274e+02
1.610000e-06	6.855200e-06	1.264154e-08	4.759509e+01	8.297161e+02
1.620000e-06	6.864476e-06	1.264868e-08	4.765949e+01	8.302623e+02
1.630000e-06	6.871185e-06	1.265418e-08	4.770607e+01	8.306541e+02
1.640000e-06	6.875599e-06	1.265691e-08	4.773672e+01	8.308765e+02
1.650000e-06	6.877620e-06	1.265911e-08	4.775075e+01	8.309143e+02
1.660000e-06	6.877136e-06	1.265666e-08	4.774739e+01	8.307552e+02
1.670000e-06	6.874436e-06	1.264828e-08	4.772864e+01	8.303928e+02
1.680000e-06	6.869538e-06	1.263958e-08	4.769464e+01	8.298281e+02
1.690000e-06	6.862269e-06	1.262651e-08	4.764416e+01	8.290706e+02
1.700000e-06	6.852777e-06	1.261276e-08	4.757826e+01	8.281376e+02
1.710000e-06	6.841063e-06	1.260031e-08	4.749693e+01	8.270528e+02
1.720000e-06	6.826923e-06	1.259208e-08	4.739876e+01	8.258433e+02
1.730000e-06	6.810501e-06	1.257438e-08	4.728475e+01	8.245370e+02
1.740000e-06	6.792018e-06	1.248642e-08	4.715642e+01	8.231590e+02
1.750000e-06	6.770852e-06	1.246517e-08	4.700947e+01	8.217284e+02
1.760000e-06	6.746358e-06	1.247431e-08	4.683940e+01	8.202565e+02
1.770000e-06	6.718978e-06	1.243868e-08	4.664931e+01	8.187451e+02
1.780000e-06	6.689281e-06	1.246344e-08	4.644312e+01	8.171864e+02
1.790000e-06	6.657737e-06	1.247893e-08	4.622412e+01	8.155638e+02
1.800000e-06	6.624805e-06	1.234891e-08	4.599547e+01	8.138543e+02
1.810000e-06	6.589999e-06	1.239355e-08	4.575382e+01	8.120305e+02
1.820000e-06	6.552575e-06	1.236999e-08	4.549399e+01	8.100636e+02
1.830000e-06	6.512865e-06	1.225626e-08	4.521829e+01	8.079265e+02
1.840000e-06	6.471077e-06	1.235011e-08	4.492815e+01	8.055959e+02
1.850000e-06	6.427071e-06	1.222857e-08	4.462262e+01	8.030542e+02
1.860000e-06	6.380777e-06	1.220968e-08	4.430121e+01	8.002903e+02
1.870000e-06	6.332026e-06	1.224310e-08	4.396273e+01	7.972995e+02
1.880000e-06	6.281028e-06	1.212573e-08	4.360866e+01	7.940835e+02
1.890000e-06	6.227465e-06	1.214247e-08	4.323677e+01	7.906480e+02
1.900000e-06	6.171211e-06	1.200603e-08	4.284621e+01	7.870022e+02
1.910000e-06	6.112717e-06	1.191364e-08	4.244009e+01	7.831564e+02
1.920000e-06	6.051903e-06	1.189961e-08	4.201786e+01	7.791209e+02
1.930000e-06	5.988835e-06	1.180714e-08	4.157998e+01	7.749049e+02
1.940000e-06	5.923606e-06	1.181880e-08	4.112711e+01	7.705155e+02
1.950000e-06	5.856232e-06	1.170543e-08	4.065933e+01	7.659579e+02
1.960000e-06	5.786690e-06	1.164490e-08	4.017651e+01	7.612351e+02
1.970000e-06	5.714719e-06	1.154155e-08	3.967682e+01	7.563488e+02
1.980000e-06	5.640565e-06	1.144276e-08	3.916197e+01	7.512996e+02
1.990000e-06	5.564258e-06	1.142714e-08	3.863218e+01	7.460877e+02
2.000000e-06	5.485693e-06	1.130698e-08	3.808672e+01	7.407127e+02
2.010000e-06	5.405113e-06	1.124355e-08	3.752725e+01	7.351746e+02
2.020000e-06	5.322701e-06	1.114211e-08	3.695507e+01	7.294727e+02
2.030000e-06	5.238505e-06	1.105906e-08	3.637051e+01	7.236061e+02
2.040000e-06	5.152298e-06	1.096303e-08	3.577198e+01	7.175729e+02
2.050000e-06	5.064132e-06	1.085524e-08	3.515985e+01	7.113698e+02
2.060000e-06	4.974335e-06	1.077071e-08	3.453639e+01	7.049923e+02
2.070000e-06	4.882998e-06	1.064890e-08	3.390225e+01	6.984347e+02
2.080000e-06	4.789973e-06	1.056603e-08	3.325639e+01	6.916902e+02
2.090000e-06	4.695103e-06	1.046182e-08	3.259771e+01	6.847515e+02
2.100000e-06	4.598571e-06	1.036576e-08	3.192750e+01	6.776118e+02
2.110000e-06	4.500596e-06	1.023491e-08	3.124726e+01	6.702649e+02
2.120000e-06	4.401132e-06	1.010058e-08	3.055670e+01	6.627065e+02
2.130000e-06	4.300122e-06	9.987570e-09	2.985539e+01	6.549338e+02
2.140000e-06	4.197461e-06	9.878569e-09	2.914262e+01	6.469460e+02
2.150000e-06	4.093113e-06	9.771021e-09	2.841815e+01	6.387439e+02
2.160000e-06	3.987371e-06	9.642148e-09	2.768399e+01	6.303288e+02
2.170000e-06	3.880300e-06	9.508105e-09	2.694060e+01	6.217021e+02
2.180000e-06	3.771887e-06	9.354907e-09	2.618790e+01	6.128641e+02
2.190000e-06	3.662086e-06	9.214282e-09	2.542556e+01	6.038132e+02
2.200000e-06	3.550809e-06	9.073322e-09	2.465298e+01	5.945455e+02
2.210000e-06	3.438212e-06	8.936853e-09	2.387122e+01	5.850544e+02
2.220000e-06	3.324322e-06	8.788022e-09	2.308049e+01	5.753308e+02
2.230000e-06	3.209089e-06	8.635805e-09	2.228044e+01	5.653641e+02
2.240000e-06	3.092548e-06	8.485429e-09	2.147131e+01	5.551431e+02
2.250000e-06	2.974806e-06	8.330146e-09	2.065383e+01	5.446570e+02
2.260000e-06	2.855763e-06	8.166267e-09	1.982732e+01	5.338965e+02
2.270000e-06	2.735534e-06	7.990096e-09	1.899258e+01	5.228550e+02
2.280000e-06	2.614420e-06	7.814243e-09	1.815170e+01	5.115284e+02
2.290000e-06	2.492422e-06	7.636881e-09	1.730468e+01	4.999153e+02
2.300000e-06	2.369510e-06	7.461737e-09	1.645131e+01	4.880164e+02
2.310000e-06	2.245736e-06	7.277406e-09	1.559196e+01	4.758328e+02
2.320000e-06	2.121286e-06	7.085645e-09	1.472791e+01	4.633649e+02
2.330000e-06	1.996243e-06	6.885008e-09	1.385975e+01	4.506106e+02
2.340000e-06	1.870513e-06	6.683739e-09	1.298682e+01	4.375643e+02
2.350000e-06	1.744098e-06	6.483114e-09	1.210913e+01	4.242156e+02
2.360000e-06	1.616920e-06	6.279316e-09	1.122614e+01	4.105496e+02
2.370000e-06	1.489053e-06	6.066161e-09	1.033837e+01	3.965468e+02
2.380000e-06	1.360701e-06	5.841586e-09	9.447237e+00	3.821849e+02
2.390000e-06	1.231984e-06	5.613211e-09	8.553566e+00	3.674401e+02
2.400000e-06	1.103026e-06	5.380173e-09	7.658216e+00	3.522888e+02
2.410000e-06	9.737860e-07	5.142337e-09	6.760916e+00	3.367100e+02
2.420000e-06	8.441848e-07	4.897319e-09	5.861105e+00	3.206856e+02
2.430000e-06	7.142748e-07	4.645225e-09	4.959151e+00	3.042015e+02
2.440000e-06	5.841180e-07	4.388239e-09	4.055483e+00	2.872462e+02
2.450000e-06	4.537447e-07	4.125386e-09	3.150312e+00	2.698101e+02
2.460000e-06	3.231875e-07	3.854138e-09	2.243864e+00	2.518821e+02
2.470000e-06	1.924573e-07	3.572192e-09	1.336215e+00	2.334471e+02
2.480000e-06	6.165883e-08	3.280252e-09	4.280921e-01	2.144830e+02
2.490000e-06	-6.911228e-08	2.980208e-09	-4.798408e-01	1.949580e+02
2.500000e-06	-1.998639e-07	2.672589e-09	-1.387639e+00	1.748300e+02
2.510000e-06	-3.305719e-07	2.356272e-09	-2.295134e+00	1.540464e+02
2.520000e-06	-4.611751e-07	2.026434e-09	-3.201900e+00	1.325473e+02
2.530000e-06	-5.916503e-07	1.682808e-09	-4.107779e+00	1.102699e+02
2.540000e-06	-7.219337e-07	1.329450e-09	-5.012326e+00	8.715449e+01
2.550000e-06	-8.519840e-07	9.670806e-10	-5.915254e+00	6.315320e+01
2.560000e-06	-9.817690e-07	5.950154e-10	-6.816341e+00	3.823780e+01
2.570000e-06	-1.111180e-06	2.085599e-10	-7.714831e+00	1.240815e+01
2.580000e-06	-1.240178e-06	-1.950678e-10	-8.610452e+00	-1.430098e+01
2.590000e-06	-1.368840e-06	-6.132283e-10	-9.503746e+00	-4.181522e+01
2.600000e-06	-1.497191e-06	-1.043662e-09	-1.039487e+01	-7.001891e+01
2.610000e-06	-1.625015e-06	-1.484148e-09	-1.128234e+01	-9.875685e+01
2.620000e-06	-1.752092e-06	-1.932860e-09	-1.216463e+01	-1.278395e+02
2.630000e-06	-1.878309e-06	-2.384277e-09	-1.304095e+01	-1.570518e+02
2.640000e-06	-2.003660e-06	-2.832224e-09	-1.391124e+01	-1.861636e+02
2.650000e-06	-2.128272e-06	-3.273640e-09	-1.477641e+01	-2.149431e+02
2.660000e-06	-2.252136e-06	-3.705235e-09	-1.563639e+01	-2.431694e+02
2.670000e-06	-2.375152e-06	-4.123801e-09	-1.649049e+01	-2.706450e+02
2.680000e-06	-2.497238e-06	-4.527611e-09	-1.733811e+01	-2.972060e+02
2.690000e-06	-2.618425e-06	-4.914997e-09	-1.817951e+01	-3.227291e+02
2.700000e-06	-2.738733e-06	-5.284982e-09	-1.901480e+01	-3.471358e+02
2.710000e-06	-2.857996e-06	-5.637339e-09	-1.984283e+01	-3.703916e+02
2.720000e-06	-2.976033e-06	-5.973800e-09	-2.066235e+01	-3.925030e+02
2.730000e-06	-3.092809e-06	-6.295007e-09	-2.147312e+01	-4.135099e+02
2.740000e-06	-3.208403e-06	-6.601099e-09	-2.227568e+01	-4.334774e+02
2.750000e-06	-3.322743e-06	-6.894397e-09	-2.306953e+01	-4.524855e+02
2.760000e-06	-3.435731e-06	-7.175322e-09	-2.385400e+01	-4.706192e+02
2.770000e-06	-3.547320e-06	-7.443317e-09	-2.462875e+01	-4.879602e+02
2.780000e-06	-3.657516e-06	-7.698657e-09	-2.539383e+01	-5.045798e+02
2.790000e-06	-3.766493e-06	-7.941857e-09	-2.615045e+01	-5.205351e+02
2.800000e-06	-3.874304e-06	-8.173562e-09	-2.689897e+01	-5.358675e+02
2.810000e-06	-3.980857e-06	-8.393889e-09	-2.763876e+01	-5.506038e+02
2.820000e-06	-4.086080e-06	-8.606479e-09	-2.836931e+01	-5.647592e+02
2.830000e-06	-4.189785e-06	-8.814450e-09	-2.908933e+01	-5.783420e+02
2.840000e-06	-4.291781e-06	-9.016075e-09	-2.979748e+01	-5.913581e+02
2.850000e-06	-4.392171e-06	-9.209736e-09	-3.049448e+01	-6.038156e+02
2.860000e-06	-4.491125e-06	-9.395526e-09	-3.118151e+01	-6.157281e+02
2.870000e-06	-4.588596e-06	-9.572590e-09	-3.185824e+01	-6.271169e+02
2.880000e-06	-4.684471e-06	-9.738601e-09	-3.252390e+01	-6.380105e+02
2.890000e-06	-4.778622e-06	-9.896283e-09	-3.317757e+01	-6.484434e+02
2.900000e-06	-4.871031e-06	-1.004926e-08	-3.381917e+01	-6.584532e+02
2.910000e-06	-4.961749e-06	-1.019635e-08	-3.444902e+01	-6.680769e+02
2.920000e-06	-5.050692e-06	-1.033706e-08	-3.506654e+01	-6.773474e+02
2.930000e-06	-5.137761e-06	-1.047133e-08	-3.567105e+01	-6.862900e+02
2.940000e-06	-5.222844e-06	-1.060123e-08	-3.626178e+01	-6.949209e+02
