# Temperatura_=_42.1
# Concentracion g/m^3_=_15000.0
# C_Vs_to_Am_M_A/Vsm_=_65563218390.804596
# pendiente_HvsI_1/m_=_3716.3
# ordenada_HvsI_A/m_=_1297.0
# frecuencia_Hz_=_301965.64550944255

Tiempo_(s)	Campo_(V.s)	Magnetizacion_(V.s)	Campo_(kA/m)	Magnetizacion_(A/m)
0.000000e+00	-6.897927e-06	-1.026345e-08	-4.748745e+01	-6.728486e+02
1.000000e-08	-6.896201e-06	-1.026646e-08	-4.747557e+01	-6.727117e+02
2.000000e-08	-6.892078e-06	-1.026243e-08	-4.744719e+01	-6.724254e+02
3.000000e-08	-6.885806e-06	-1.025771e-08	-4.740401e+01	-6.719926e+02
4.000000e-08	-6.877276e-06	-1.025457e-08	-4.734529e+01	-6.714223e+02
5.000000e-08	-6.866317e-06	-1.024740e-08	-4.726984e+01	-6.707280e+02
6.000000e-08	-6.852884e-06	-1.023742e-08	-4.717737e+01	-6.699271e+02
7.000000e-08	-6.836970e-06	-1.021748e-08	-4.706781e+01	-6.690389e+02
8.000000e-08	-6.818792e-06	-1.020729e-08	-4.694267e+01	-6.680823e+02
9.000000e-08	-6.798401e-06	-1.024967e-08	-4.680229e+01	-6.670743e+02
1.000000e-07	-6.775415e-06	-1.022580e-08	-4.664404e+01	-6.660275e+02
1.100000e-07	-6.749604e-06	-1.016662e-08	-4.646635e+01	-6.649492e+02
1.200000e-07	-6.721167e-06	-1.014594e-08	-4.627058e+01	-6.638406e+02
1.300000e-07	-6.690548e-06	-1.011174e-08	-4.605979e+01	-6.626966e+02
1.400000e-07	-6.657916e-06	-1.004160e-08	-4.583514e+01	-6.615063e+02
1.500000e-07	-6.623344e-06	-1.009464e-08	-4.559714e+01	-6.602544e+02
1.600000e-07	-6.586835e-06	-1.009455e-08	-4.534580e+01	-6.589226e+02
1.700000e-07	-6.548281e-06	-9.962490e-09	-4.508038e+01	-6.574911e+02
1.800000e-07	-6.507564e-06	-1.002831e-08	-4.480007e+01	-6.559406e+02
1.900000e-07	-6.464286e-06	-9.974760e-09	-4.450214e+01	-6.542534e+02
2.000000e-07	-6.418548e-06	-9.938166e-09	-4.418726e+01	-6.524150e+02
2.100000e-07	-6.370461e-06	-1.000153e-08	-4.385622e+01	-6.504145e+02
2.200000e-07	-6.319641e-06	-9.914398e-09	-4.350635e+01	-6.482449e+02
2.300000e-07	-6.266188e-06	-9.858239e-09	-4.313836e+01	-6.459033e+02
2.400000e-07	-6.210410e-06	-9.788227e-09	-4.275438e+01	-6.433900e+02
2.500000e-07	-6.152237e-06	-9.737216e-09	-4.235389e+01	-6.407081e+02
2.600000e-07	-6.091716e-06	-9.731978e-09	-4.193725e+01	-6.378630e+02
2.700000e-07	-6.029082e-06	-9.683753e-09	-4.150606e+01	-6.348610e+02
2.800000e-07	-5.964253e-06	-9.630547e-09	-4.105976e+01	-6.317090e+02
2.900000e-07	-5.897154e-06	-9.555871e-09	-4.059782e+01	-6.284138e+02
3.000000e-07	-5.827813e-06	-9.522483e-09	-4.012046e+01	-6.249818e+02
3.100000e-07	-5.756328e-06	-9.472183e-09	-3.962833e+01	-6.214183e+02
3.200000e-07	-5.682677e-06	-9.415605e-09	-3.912130e+01	-6.177275e+02
3.300000e-07	-5.606716e-06	-9.387592e-09	-3.859836e+01	-6.139125e+02
3.400000e-07	-5.528415e-06	-9.298549e-09	-3.805931e+01	-6.099747e+02
3.500000e-07	-5.447885e-06	-9.239336e-09	-3.750492e+01	-6.059144e+02
3.600000e-07	-5.365441e-06	-9.188283e-09	-3.693735e+01	-6.017302e+02
3.700000e-07	-5.281267e-06	-9.127894e-09	-3.635787e+01	-5.974193e+02
3.800000e-07	-5.195384e-06	-9.048537e-09	-3.576662e+01	-5.929777e+02
3.900000e-07	-5.107768e-06	-8.960693e-09	-3.516345e+01	-5.884003e+02
4.000000e-07	-5.018230e-06	-8.896194e-09	-3.454704e+01	-5.836812e+02
4.100000e-07	-4.926797e-06	-8.831195e-09	-3.391759e+01	-5.788143e+02
4.200000e-07	-4.833753e-06	-8.773514e-09	-3.327704e+01	-5.737937e+02
4.300000e-07	-4.739145e-06	-8.686794e-09	-3.262573e+01	-5.686139e+02
4.400000e-07	-4.642817e-06	-8.589625e-09	-3.196258e+01	-5.632709e+02
4.500000e-07	-4.544642e-06	-8.495489e-09	-3.128672e+01	-5.577619e+02
4.600000e-07	-4.444799e-06	-8.406119e-09	-3.059937e+01	-5.520855e+02
4.700000e-07	-4.343495e-06	-8.333102e-09	-2.990196e+01	-5.462419e+02
4.800000e-07	-4.240720e-06	-8.251427e-09	-2.919442e+01	-5.402320e+02
4.900000e-07	-4.136483e-06	-8.154954e-09	-2.847682e+01	-5.340574e+02
5.000000e-07	-4.030715e-06	-8.048443e-09	-2.774868e+01	-5.277190e+02
5.100000e-07	-3.923340e-06	-7.948097e-09	-2.700948e+01	-5.212169e+02
5.200000e-07	-3.814506e-06	-7.851567e-09	-2.626023e+01	-5.145494e+02
5.300000e-07	-3.704412e-06	-7.750537e-09	-2.550231e+01	-5.077122e+02
5.400000e-07	-3.593096e-06	-7.638786e-09	-2.473598e+01	-5.006989e+02
5.500000e-07	-3.480316e-06	-7.521247e-09	-2.395957e+01	-4.935006e+02
5.600000e-07	-3.365936e-06	-7.409422e-09	-2.317214e+01	-4.861066e+02
5.700000e-07	-3.250067e-06	-7.299482e-09	-2.237446e+01	-4.785049e+02
5.800000e-07	-3.132862e-06	-7.186444e-09	-2.156759e+01	-4.706839e+02
5.900000e-07	-3.014572e-06	-7.060297e-09	-2.075324e+01	-4.626323e+02
6.000000e-07	-2.895287e-06	-6.928049e-09	-1.993205e+01	-4.543410e+02
6.100000e-07	-2.774900e-06	-6.796823e-09	-1.910327e+01	-4.458030e+02
6.200000e-07	-2.653445e-06	-6.669965e-09	-1.826713e+01	-4.370139e+02
6.300000e-07	-2.530956e-06	-6.535830e-09	-1.742388e+01	-4.279716e+02
6.400000e-07	-2.407448e-06	-6.385998e-09	-1.657361e+01	-4.186757e+02
6.500000e-07	-2.283037e-06	-6.231894e-09	-1.571713e+01	-4.091263e+02
6.600000e-07	-2.157920e-06	-6.078205e-09	-1.485579e+01	-3.993230e+02
6.700000e-07	-2.032162e-06	-5.928059e-09	-1.399003e+01	-3.892633e+02
6.800000e-07	-1.905727e-06	-5.779683e-09	-1.311961e+01	-3.789419e+02
6.900000e-07	-1.778658e-06	-5.624445e-09	-1.224483e+01	-3.683500e+02
7.000000e-07	-1.650889e-06	-5.455971e-09	-1.136523e+01	-3.574751e+02
7.100000e-07	-1.522403e-06	-5.279126e-09	-1.048069e+01	-3.463014e+02
7.200000e-07	-1.393415e-06	-5.102776e-09	-9.592697e+00	-3.348110e+02
7.300000e-07	-1.264079e-06	-4.924679e-09	-8.702310e+00	-3.229849e+02
7.400000e-07	-1.134367e-06	-4.739023e-09	-7.809332e+00	-3.108051e+02
7.500000e-07	-1.004286e-06	-4.543897e-09	-6.913813e+00	-2.982555e+02
7.600000e-07	-8.738700e-07	-4.346254e-09	-6.015990e+00	-2.853232e+02
7.700000e-07	-7.431207e-07	-4.146339e-09	-5.115872e+00	-2.719990e+02
7.800000e-07	-6.121033e-07	-3.941984e-09	-4.213907e+00	-2.582767e+02
7.900000e-07	-4.808597e-07	-3.732241e-09	-3.310386e+00	-2.441524e+02
8.000000e-07	-3.494049e-07	-3.511812e-09	-2.405411e+00	-2.296223e+02
8.100000e-07	-2.178001e-07	-3.280998e-09	-1.499403e+00	-2.146800e+02
8.200000e-07	-8.608318e-08	-3.045799e-09	-5.926231e-01	-1.993144e+02
8.300000e-07	4.565748e-08	-2.807925e-09	3.143202e-01	-1.835072e+02
8.400000e-07	1.774252e-07	-2.559990e-09	1.221450e+00	-1.672312e+02
8.500000e-07	3.091982e-07	-2.301589e-09	2.128616e+00	-1.504501e+02
8.600000e-07	4.408765e-07	-2.037098e-09	3.035129e+00	-1.331195e+02
8.700000e-07	5.724175e-07	-1.766317e-09	3.940698e+00	-1.151896e+02
8.800000e-07	7.037374e-07	-1.483053e-09	4.844745e+00	-9.660960e+01
8.900000e-07	8.348388e-07	-1.188644e-09	5.747287e+00	-7.733285e+01
9.000000e-07	9.656971e-07	-8.849647e-10	6.648156e+00	-5.732354e+01
9.100000e-07	1.096175e-06	-5.688628e-10	7.546403e+00	-3.656317e+01
9.200000e-07	1.226250e-06	-2.402198e-10	8.441880e+00	-1.505651e+01
9.300000e-07	1.355974e-06	9.835454e-11	9.334942e+00	7.163483e+00
9.400000e-07	1.485268e-06	4.441936e-10	1.022504e+01	3.003271e+01
9.500000e-07	1.614008e-06	8.015166e-10	1.111133e+01	5.345529e+01
9.600000e-07	1.742077e-06	1.167994e-09	1.199299e+01	7.730549e+01
9.700000e-07	1.869353e-06	1.539818e-09	1.286920e+01	1.014321e+02
9.800000e-07	1.995888e-06	1.913600e-09	1.374031e+01	1.256653e+02
9.900000e-07	2.121821e-06	2.285946e-09	1.460727e+01	1.498250e+02
1.000000e-06	2.247155e-06	2.654290e-09	1.547011e+01	1.737300e+02
1.010000e-06	2.371658e-06	3.013027e-09	1.632722e+01	1.972080e+02
1.020000e-06	2.495164e-06	3.360916e-09	1.717748e+01	2.201040e+02
1.030000e-06	2.617726e-06	3.696457e-09	1.802123e+01	2.422876e+02
1.040000e-06	2.739405e-06	4.021179e-09	1.885891e+01	2.636585e+02
1.050000e-06	2.860086e-06	4.332362e-09	1.968971e+01	2.841484e+02
1.060000e-06	2.979591e-06	4.629043e-09	2.051242e+01	3.037218e+02
1.070000e-06	3.097998e-06	4.912686e-09	2.132757e+01	3.223730e+02
1.080000e-06	3.215376e-06	5.183900e-09	2.213564e+01	3.401218e+02
1.090000e-06	3.331559e-06	5.440264e-09	2.293548e+01	3.570077e+02
1.100000e-06	3.446393e-06	5.681967e-09	2.372603e+01	3.730829e+02
1.110000e-06	3.559855e-06	5.915161e-09	2.450714e+01	3.884057e+02
1.120000e-06	3.671907e-06	6.138076e-09	2.527854e+01	4.030350e+02
1.130000e-06	3.782613e-06	6.351328e-09	2.604067e+01	4.170249e+02
1.140000e-06	3.892172e-06	6.555667e-09	2.679491e+01	4.304219e+02
1.150000e-06	4.000489e-06	6.752134e-09	2.754060e+01	4.432630e+02
1.160000e-06	4.107415e-06	6.941513e-09	2.827671e+01	4.555761e+02
1.170000e-06	4.212885e-06	7.122017e-09	2.900280e+01	4.673809e+02
1.180000e-06	4.316776e-06	7.293163e-09	2.971802e+01	4.786913e+02
1.190000e-06	4.419086e-06	7.456273e-09	3.042235e+01	4.895178e+02
1.200000e-06	4.519864e-06	7.610183e-09	3.111614e+01	4.998702e+02
1.210000e-06	4.619035e-06	7.756360e-09	3.179886e+01	5.097593e+02
1.220000e-06	4.716464e-06	7.898498e-09	3.246959e+01	5.191985e+02
1.230000e-06	4.812107e-06	8.037272e-09	3.312802e+01	5.282043e+02
1.240000e-06	4.906086e-06	8.171891e-09	3.377501e+01	5.367957e+02
1.250000e-06	4.998424e-06	8.302476e-09	3.441069e+01	5.449936e+02
1.260000e-06	5.088951e-06	8.429535e-09	3.503391e+01	5.528192e+02
1.270000e-06	5.177572e-06	8.548451e-09	3.564400e+01	5.602929e+02
1.280000e-06	5.264298e-06	8.658825e-09	3.624105e+01	5.674324e+02
1.290000e-06	5.349205e-06	8.763505e-09	3.682557e+01	5.742529e+02
1.300000e-06	5.432306e-06	8.862883e-09	3.739767e+01	5.807662e+02
1.310000e-06	5.513487e-06	8.954302e-09	3.795654e+01	5.869811e+02
1.320000e-06	5.592618e-06	9.039136e-09	3.850131e+01	5.929049e+02
1.330000e-06	5.669696e-06	9.123658e-09	3.903194e+01	5.985439e+02
1.340000e-06	5.744601e-06	9.206663e-09	3.954760e+01	6.039053e+02
1.350000e-06	5.817224e-06	9.284222e-09	4.004756e+01	6.089980e+02
1.360000e-06	5.887692e-06	9.354967e-09	4.053269e+01	6.138334e+02
1.370000e-06	5.956115e-06	9.422506e-09	4.100373e+01	6.184257e+02
1.380000e-06	6.022437e-06	9.490388e-09	4.146031e+01	6.227914e+02
1.390000e-06	6.086602e-06	9.555561e-09	4.190204e+01	6.269483e+02
1.400000e-06	6.148738e-06	9.616617e-09	4.232981e+01	6.309140e+02
1.410000e-06	6.208808e-06	9.674256e-09	4.274334e+01	6.347044e+02
1.420000e-06	6.266623e-06	9.731130e-09	4.314136e+01	6.383321e+02
1.430000e-06	6.322181e-06	9.785728e-09	4.352384e+01	6.418051e+02
1.440000e-06	6.375395e-06	9.837448e-09	4.389018e+01	6.451263e+02
1.450000e-06	6.426016e-06	9.887225e-09	4.423868e+01	6.482933e+02
1.460000e-06	6.474081e-06	9.932178e-09	4.456957e+01	6.512992e+02
1.470000e-06	6.519829e-06	9.972112e-09	4.488451e+01	6.541340e+02
1.480000e-06	6.563355e-06	1.000866e-08	4.518415e+01	6.567864e+02
1.490000e-06	6.604541e-06	1.004460e-08	4.546770e+01	6.592457e+02
1.500000e-06	6.643367e-06	1.007838e-08	4.573498e+01	6.615039e+02
1.510000e-06	6.679948e-06	1.010759e-08	4.598682e+01	6.635573e+02
1.520000e-06	6.714125e-06	1.013398e-08	4.622210e+01	6.654072e+02
1.530000e-06	6.745858e-06	1.015903e-08	4.644056e+01	6.670605e+02
1.540000e-06	6.775331e-06	1.018164e-08	4.664347e+01	6.685288e+02
1.550000e-06	6.802459e-06	1.020167e-08	4.683022e+01	6.698275e+02
1.560000e-06	6.827054e-06	1.021948e-08	4.699954e+01	6.709740e+02
1.570000e-06	6.849181e-06	1.023477e-08	4.715187e+01	6.719852e+02
1.580000e-06	6.869003e-06	1.024774e-08	4.728833e+01	6.728763e+02
1.590000e-06	6.886384e-06	1.025903e-08	4.740799e+01	6.736582e+02
1.600000e-06	6.901186e-06	1.026802e-08	4.750989e+01	6.743373e+02
1.610000e-06	6.913389e-06	1.027481e-08	4.759390e+01	6.749143e+02
1.620000e-06	6.922888e-06	1.027973e-08	4.765929e+01	6.753850e+02
1.630000e-06	6.929728e-06	1.028336e-08	4.770638e+01	6.757414e+02
1.640000e-06	6.934167e-06	1.028692e-08	4.773694e+01	6.759732e+02
1.650000e-06	6.936173e-06	1.029085e-08	4.775075e+01	6.760700e+02
1.660000e-06	6.935658e-06	1.029007e-08	4.774720e+01	6.760230e+02
1.670000e-06	6.932922e-06	1.028426e-08	4.772837e+01	6.758272e+02
1.680000e-06	6.927961e-06	1.027998e-08	4.769421e+01	6.754824e+02
1.690000e-06	6.920613e-06	1.027130e-08	4.764363e+01	6.749941e+02
1.700000e-06	6.911046e-06	1.026151e-08	4.757777e+01	6.743729e+02
1.710000e-06	6.899158e-06	1.025407e-08	4.749593e+01	6.736343e+02
1.720000e-06	6.884806e-06	1.025182e-08	4.739713e+01	6.727966e+02
1.730000e-06	6.868240e-06	1.023493e-08	4.728308e+01	6.718791e+02
1.740000e-06	6.849576e-06	1.014483e-08	4.715459e+01	6.709003e+02
1.750000e-06	6.828173e-06	1.013874e-08	4.700725e+01	6.698755e+02
1.760000e-06	6.803389e-06	1.016521e-08	4.683663e+01	6.688156e+02
1.770000e-06	6.775677e-06	1.013704e-08	4.664585e+01	6.677254e+02
1.780000e-06	6.745674e-06	1.017000e-08	4.643929e+01	6.666036e+02
1.790000e-06	6.713890e-06	1.017435e-08	4.622049e+01	6.654428e+02
1.800000e-06	6.680696e-06	1.004263e-08	4.599197e+01	6.642301e+02
1.810000e-06	6.645525e-06	1.012016e-08	4.574984e+01	6.629490e+02
1.820000e-06	6.607763e-06	1.012093e-08	4.548988e+01	6.615802e+02
1.830000e-06	6.567767e-06	1.003623e-08	4.521453e+01	6.601039e+02
1.840000e-06	6.525640e-06	1.012092e-08	4.492451e+01	6.585014e+02
1.850000e-06	6.481245e-06	9.955400e-09	4.461888e+01	6.567562e+02
1.860000e-06	6.434543e-06	9.942760e-09	4.429738e+01	6.548549e+02
1.870000e-06	6.385376e-06	9.977562e-09	4.395890e+01	6.527884e+02
1.880000e-06	6.333912e-06	9.889400e-09	4.360460e+01	6.505511e+02
1.890000e-06	6.279868e-06	9.975154e-09	4.323254e+01	6.481416e+02
1.900000e-06	6.223170e-06	9.875873e-09	4.284222e+01	6.455614e+02
1.910000e-06	6.164175e-06	9.816469e-09	4.243608e+01	6.428145e+02
1.920000e-06	6.102795e-06	9.778525e-09	4.201352e+01	6.399067e+02
1.930000e-06	6.039162e-06	9.672368e-09	4.157545e+01	6.368447e+02
1.940000e-06	5.973405e-06	9.726174e-09	4.112276e+01	6.336354e+02
1.950000e-06	5.905535e-06	9.628490e-09	4.065552e+01	6.302856e+02
1.960000e-06	5.835380e-06	9.601529e-09	4.017255e+01	6.268011e+02
1.970000e-06	5.762754e-06	9.513610e-09	3.967258e+01	6.231869e+02
1.980000e-06	5.687970e-06	9.427958e-09	3.915773e+01	6.194468e+02
1.990000e-06	5.610953e-06	9.429505e-09	3.862752e+01	6.155833e+02
2.000000e-06	5.531645e-06	9.321012e-09	3.808154e+01	6.115972e+02
2.010000e-06	5.450386e-06	9.293348e-09	3.752213e+01	6.074883e+02
2.020000e-06	5.367385e-06	9.204245e-09	3.695073e+01	6.032545e+02
2.030000e-06	5.282520e-06	9.144433e-09	3.636649e+01	5.988926e+02
2.040000e-06	5.195551e-06	9.080384e-09	3.576777e+01	5.943980e+02
2.050000e-06	5.106740e-06	9.005117e-09	3.515637e+01	5.897655e+02
2.060000e-06	5.016362e-06	8.937258e-09	3.453418e+01	5.849888e+02
2.070000e-06	4.924374e-06	8.825486e-09	3.390091e+01	5.800620e+02
2.080000e-06	4.830546e-06	8.770418e-09	3.325497e+01	5.749792e+02
2.090000e-06	4.734845e-06	8.694638e-09	3.259613e+01	5.697356e+02
2.100000e-06	4.637538e-06	8.645420e-09	3.192624e+01	5.643274e+02
2.110000e-06	4.538752e-06	8.551592e-09	3.124617e+01	5.587524e+02
2.120000e-06	4.438450e-06	8.448519e-09	3.055565e+01	5.530101e+02
2.130000e-06	4.336446e-06	8.345071e-09	2.985343e+01	5.471007e+02
2.140000e-06	4.232777e-06	8.243267e-09	2.913974e+01	5.410257e+02
2.150000e-06	4.127594e-06	8.165874e-09	2.841563e+01	5.347865e+02
2.160000e-06	4.021048e-06	8.076488e-09	2.768213e+01	5.283837e+02
2.170000e-06	3.913164e-06	7.987111e-09	2.693942e+01	5.218167e+02
2.180000e-06	3.803917e-06	7.869363e-09	2.618733e+01	5.150829e+02
2.190000e-06	3.693227e-06	7.759971e-09	2.542531e+01	5.081773e+02
2.200000e-06	3.581003e-06	7.648561e-09	2.465273e+01	5.010922e+02
2.210000e-06	3.467399e-06	7.547797e-09	2.387064e+01	4.938182e+02
2.220000e-06	3.352484e-06	7.432138e-09	2.307953e+01	4.863438e+02
2.230000e-06	3.236127e-06	7.310671e-09	2.227849e+01	4.786571e+02
2.240000e-06	3.118362e-06	7.185697e-09	2.146777e+01	4.707466e+02
2.250000e-06	2.999394e-06	7.061124e-09	2.064875e+01	4.626016e+02
2.260000e-06	2.879242e-06	6.938399e-09	1.982159e+01	4.542138e+02
2.270000e-06	2.758085e-06	6.806505e-09	1.898751e+01	4.455773e+02
2.280000e-06	2.636041e-06	6.673873e-09	1.814732e+01	4.366887e+02
2.290000e-06	2.513110e-06	6.535958e-09	1.730102e+01	4.275465e+02
2.300000e-06	2.389251e-06	6.399944e-09	1.644834e+01	4.181508e+02
2.310000e-06	2.264502e-06	6.257771e-09	1.558953e+01	4.085016e+02
2.320000e-06	2.139054e-06	6.110726e-09	1.472591e+01	3.985977e+02
2.330000e-06	2.012847e-06	5.947941e-09	1.385706e+01	3.884358e+02
2.340000e-06	1.885844e-06	5.779084e-09	1.298273e+01	3.780092e+02
2.350000e-06	1.758144e-06	5.610347e-09	1.210361e+01	3.673076e+02
2.360000e-06	1.629803e-06	5.447317e-09	1.122007e+01	3.563171e+02
2.370000e-06	1.500909e-06	5.283561e-09	1.033272e+01	3.450210e+02
2.380000e-06	1.371585e-06	5.108173e-09	9.442413e+00	3.334007e+02
2.390000e-06	1.241876e-06	4.923743e-09	8.549457e+00	3.214376e+02
2.400000e-06	1.111838e-06	4.731106e-09	7.654238e+00	3.091141e+02
2.410000e-06	9.814951e-07	4.537641e-09	6.756914e+00	2.964152e+02
2.420000e-06	8.508663e-07	4.341628e-09	5.857625e+00	2.833296e+02
2.430000e-06	7.199908e-07	4.136554e-09	4.956639e+00	2.698494e+02
2.440000e-06	5.889024e-07	3.922239e-09	4.054186e+00	2.559694e+02
2.450000e-06	4.576493e-07	3.701758e-09	3.150598e+00	2.416860e+02
2.460000e-06	3.262429e-07	3.476784e-09	2.245956e+00	2.269947e+02
2.470000e-06	1.946870e-07	3.246848e-09	1.340285e+00	2.118875e+02
2.480000e-06	6.298776e-08	3.010881e-09	4.336272e-01	1.963509e+02
2.490000e-06	-6.871485e-08	2.768010e-09	-4.730542e-01	1.803631e+02
2.500000e-06	-2.003793e-07	2.516096e-09	-1.379473e+00	1.638932e+02
2.510000e-06	-3.320058e-07	2.253514e-09	-2.285630e+00	1.469017e+02
2.520000e-06	-4.635438e-07	1.981448e-09	-3.191178e+00	1.293415e+02
2.530000e-06	-5.949489e-07	1.702731e-09	-4.095811e+00	1.111620e+02
2.540000e-06	-7.261285e-07	1.413259e-09	-4.998892e+00	9.231315e+01
2.550000e-06	-8.570882e-07	1.112230e-09	-5.900459e+00	7.275185e+01
2.560000e-06	-9.877500e-07	8.043352e-10	-6.799975e+00	5.244831e+01
2.570000e-06	-1.118058e-06	4.882799e-10	-7.697054e+00	3.139249e+01
2.580000e-06	-1.248074e-06	1.615148e-10	-8.592128e+00	9.599759e+00
2.590000e-06	-1.377749e-06	-1.764579e-10	-9.484848e+00	-1.288492e+01
2.600000e-06	-1.506999e-06	-5.257914e-10	-1.037465e+01	-3.598492e+01
2.610000e-06	-1.635724e-06	-8.858611e-10	-1.126083e+01	-5.959224e+01
2.620000e-06	-1.763794e-06	-1.255288e-09	-1.214250e+01	-8.357048e+01
2.630000e-06	-1.891122e-06	-1.627552e-09	-1.301906e+01	-1.077602e+02
2.640000e-06	-2.017685e-06	-1.997434e-09	-1.389036e+01	-1.319865e+02
2.650000e-06	-2.143574e-06	-2.364871e-09	-1.475702e+01	-1.560677e+02
2.660000e-06	-2.268684e-06	-2.730388e-09	-1.561832e+01	-1.798249e+02
2.670000e-06	-2.392816e-06	-3.087556e-09	-1.647288e+01	-2.030918e+02
2.680000e-06	-2.515905e-06	-3.431227e-09	-1.732027e+01	-2.257221e+02
2.690000e-06	-2.638095e-06	-3.761828e-09	-1.816146e+01	-2.475969e+02
2.700000e-06	-2.759428e-06	-4.080159e-09	-1.899676e+01	-2.686281e+02
2.710000e-06	-2.879673e-06	-4.384025e-09	-1.982456e+01	-2.887607e+02
2.720000e-06	-2.998792e-06	-4.674190e-09	-2.064461e+01	-3.079712e+02
2.730000e-06	-3.116853e-06	-4.954154e-09	-2.145738e+01	-3.262645e+02
2.740000e-06	-3.233712e-06	-5.223169e-09	-2.226187e+01	-3.436690e+02
2.750000e-06	-3.349144e-06	-5.480863e-09	-2.305654e+01	-3.602299e+02
2.760000e-06	-3.463171e-06	-5.725259e-09	-2.384154e+01	-3.760026e+02
2.770000e-06	-3.575887e-06	-5.955686e-09	-2.461751e+01	-3.910464e+02
2.780000e-06	-3.687167e-06	-6.175388e-09	-2.538359e+01	-4.054186e+02
2.790000e-06	-3.797041e-06	-6.385055e-09	-2.614000e+01	-4.191707e+02
2.800000e-06	-3.905715e-06	-6.586348e-09	-2.688814e+01	-4.323456e+02
2.810000e-06	-4.013136e-06	-6.781010e-09	-2.762767e+01	-4.449767e+02
2.820000e-06	-4.119220e-06	-6.969490e-09	-2.835798e+01	-4.570883e+02
2.830000e-06	-4.223853e-06	-7.150459e-09	-2.907831e+01	-4.686977e+02
2.840000e-06	-4.326872e-06	-7.320790e-09	-2.978752e+01	-4.798171e+02
2.850000e-06	-4.428287e-06	-7.480664e-09	-3.048569e+01	-4.904564e+02
2.860000e-06	-4.528093e-06	-7.633073e-09	-3.117279e+01	-5.006256e+02
2.870000e-06	-4.626343e-06	-7.779974e-09	-3.184917e+01	-5.103364e+02
2.880000e-06	-4.723090e-06	-7.920448e-09	-3.251521e+01	-5.196034e+02
2.890000e-06	-4.818144e-06	-8.053224e-09	-3.316959e+01	-5.284442e+02
2.900000e-06	-4.911355e-06	-8.179191e-09	-3.381128e+01	-5.368787e+02
2.910000e-06	-5.002786e-06	-8.301233e-09	-3.444072e+01	-5.449281e+02
2.920000e-06	-5.092505e-06	-8.419940e-09	-3.505837e+01	-5.526134e+02
2.930000e-06	-5.180341e-06	-8.533903e-09	-3.566306e+01	-5.599540e+02
2.940000e-06	-5.266178e-06	-8.642266e-09	-3.625399e+01	-5.669668e+02
