# Temperatura_=_56.55
# Concentracion g/m^3_=_15000.0
# C_Vs_to_Am_M_A/Vsm_=_65563218390.804596
# pendiente_HvsI_1/m_=_3716.3
# ordenada_HvsI_A/m_=_1297.0
# frecuencia_Hz_=_301962.7034212841

Tiempo_(s)	Campo_(V.s)	Magnetizacion_(V.s)	Campo_(kA/m)	Magnetizacion_(A/m)
0.000000e+00	-6.882544e-06	-1.091111e-08	-4.748268e+01	-7.152220e+02
1.000000e-08	-6.880465e-06	-1.091308e-08	-4.746834e+01	-7.150226e+02
2.000000e-08	-6.876051e-06	-1.090975e-08	-4.743789e+01	-7.146657e+02
3.000000e-08	-6.869472e-06	-1.090235e-08	-4.739250e+01	-7.141519e+02
4.000000e-08	-6.860656e-06	-1.089478e-08	-4.733168e+01	-7.134876e+02
5.000000e-08	-6.849415e-06	-1.088514e-08	-4.725413e+01	-7.126846e+02
6.000000e-08	-6.835711e-06	-1.087303e-08	-4.715959e+01	-7.117591e+02
7.000000e-08	-6.819561e-06	-1.085180e-08	-4.704817e+01	-7.107302e+02
8.000000e-08	-6.801099e-06	-1.084175e-08	-4.692080e+01	-7.096176e+02
9.000000e-08	-6.780423e-06	-1.088207e-08	-4.677816e+01	-7.084395e+02
1.000000e-07	-6.757188e-06	-1.086559e-08	-4.661786e+01	-7.072104e+02
1.100000e-07	-6.731112e-06	-1.079765e-08	-4.643796e+01	-7.059396e+02
1.200000e-07	-6.702476e-06	-1.076465e-08	-4.624040e+01	-7.046296e+02
1.300000e-07	-6.671767e-06	-1.072286e-08	-4.602853e+01	-7.032765e+02
1.400000e-07	-6.639094e-06	-1.064269e-08	-4.580312e+01	-7.018697e+02
1.500000e-07	-6.604431e-06	-1.069233e-08	-4.556399e+01	-7.003932e+02
1.600000e-07	-6.567783e-06	-1.070933e-08	-4.531115e+01	-6.988274e+02
1.700000e-07	-6.529051e-06	-1.058573e-08	-4.504394e+01	-6.971506e+02
1.800000e-07	-6.488113e-06	-1.063102e-08	-4.476150e+01	-6.953410e+02
1.900000e-07	-6.444688e-06	-1.058886e-08	-4.446192e+01	-6.933790e+02
2.000000e-07	-6.398815e-06	-1.052532e-08	-4.414544e+01	-6.912479e+02
2.100000e-07	-6.350596e-06	-1.055097e-08	-4.381278e+01	-6.889357e+02
2.200000e-07	-6.299685e-06	-1.045892e-08	-4.346154e+01	-6.864352e+02
2.300000e-07	-6.246172e-06	-1.040167e-08	-4.309235e+01	-6.837441e+02
2.400000e-07	-6.190259e-06	-1.035491e-08	-4.270661e+01	-6.808647e+02
2.500000e-07	-6.131917e-06	-1.031005e-08	-4.230411e+01	-6.778026e+02
2.600000e-07	-6.071335e-06	-1.029900e-08	-4.188616e+01	-6.745661e+02
2.700000e-07	-6.008606e-06	-1.023852e-08	-4.145339e+01	-6.711647e+02
2.800000e-07	-5.943631e-06	-1.016665e-08	-4.100512e+01	-6.676085e+02
2.900000e-07	-5.876370e-06	-1.009629e-08	-4.054109e+01	-6.639066e+02
3.000000e-07	-5.806906e-06	-1.006151e-08	-4.006186e+01	-6.600668e+02
3.100000e-07	-5.735327e-06	-1.000385e-08	-3.956804e+01	-6.560950e+02
3.200000e-07	-5.661467e-06	-9.929609e-09	-3.905848e+01	-6.519949e+02
3.300000e-07	-5.585280e-06	-9.885168e-09	-3.853286e+01	-6.477679e+02
3.400000e-07	-5.506895e-06	-9.794512e-09	-3.799208e+01	-6.434133e+02
3.500000e-07	-5.426291e-06	-9.728114e-09	-3.743599e+01	-6.389287e+02
3.600000e-07	-5.343750e-06	-9.673997e-09	-3.686654e+01	-6.343099e+02
3.700000e-07	-5.259516e-06	-9.603971e-09	-3.628541e+01	-6.295518e+02
3.800000e-07	-5.173525e-06	-9.518625e-09	-3.569216e+01	-6.246486e+02
3.900000e-07	-5.085846e-06	-9.428541e-09	-3.508727e+01	-6.195939e+02
4.000000e-07	-4.996338e-06	-9.359483e-09	-3.446974e+01	-6.143818e+02
4.100000e-07	-4.904954e-06	-9.284970e-09	-3.383929e+01	-6.090064e+02
4.200000e-07	-4.811915e-06	-9.206815e-09	-3.319741e+01	-6.034627e+02
4.300000e-07	-4.717233e-06	-9.110591e-09	-3.254420e+01	-5.977467e+02
4.400000e-07	-4.620859e-06	-9.014201e-09	-3.187931e+01	-5.918552e+02
4.500000e-07	-4.522702e-06	-8.922086e-09	-3.120213e+01	-5.857864e+02
4.600000e-07	-4.422856e-06	-8.830439e-09	-3.051329e+01	-5.795390e+02
4.700000e-07	-4.321555e-06	-8.744904e-09	-2.981442e+01	-5.731125e+02
4.800000e-07	-4.218763e-06	-8.643244e-09	-2.910526e+01	-5.665068e+02
4.900000e-07	-4.114481e-06	-8.530190e-09	-2.838581e+01	-5.597214e+02
5.000000e-07	-4.008647e-06	-8.418846e-09	-2.765567e+01	-5.527551e+02
5.100000e-07	-3.901202e-06	-8.314406e-09	-2.691440e+01	-5.456057e+02
5.200000e-07	-3.792436e-06	-8.206330e-09	-2.616403e+01	-5.382694e+02
5.300000e-07	-3.682461e-06	-8.091612e-09	-2.540531e+01	-5.307410e+02
5.400000e-07	-3.571180e-06	-7.970117e-09	-2.463758e+01	-5.230137e+02
5.500000e-07	-3.458501e-06	-7.844995e-09	-2.386020e+01	-5.150795e+02
5.600000e-07	-3.344271e-06	-7.723866e-09	-2.307213e+01	-5.069297e+02
5.700000e-07	-3.228516e-06	-7.600901e-09	-2.227354e+01	-4.985556e+02
5.800000e-07	-3.111494e-06	-7.470202e-09	-2.146621e+01	-4.899490e+02
5.900000e-07	-2.993362e-06	-7.329690e-09	-2.065121e+01	-4.811029e+02
6.000000e-07	-2.874134e-06	-7.188720e-09	-1.982866e+01	-4.720121e+02
6.100000e-07	-2.753885e-06	-7.050513e-09	-1.899906e+01	-4.626727e+02
6.200000e-07	-2.632644e-06	-6.910598e-09	-1.816262e+01	-4.530826e+02
6.300000e-07	-2.510349e-06	-6.759551e-09	-1.731890e+01	-4.432409e+02
6.400000e-07	-2.386966e-06	-6.599341e-09	-1.646768e+01	-4.331465e+02
6.500000e-07	-2.262673e-06	-6.437905e-09	-1.561019e+01	-4.227979e+02
6.600000e-07	-2.137669e-06	-6.276587e-09	-1.474778e+01	-4.121918e+02
6.700000e-07	-2.012025e-06	-6.115476e-09	-1.388097e+01	-4.013224e+02
6.800000e-07	-1.885748e-06	-5.948525e-09	-1.300978e+01	-3.901807e+02
6.900000e-07	-1.758852e-06	-5.774962e-09	-1.213432e+01	-3.787547e+02
7.000000e-07	-1.631327e-06	-5.594825e-09	-1.125453e+01	-3.670293e+02
7.100000e-07	-1.503190e-06	-5.409190e-09	-1.037051e+01	-3.549876e+02
7.200000e-07	-1.374539e-06	-5.221260e-09	-9.482950e+00	-3.426117e+02
7.300000e-07	-1.245460e-06	-5.027719e-09	-8.592429e+00	-3.298841e+02
7.400000e-07	-1.115974e-06	-4.826685e-09	-7.699106e+00	-3.167892e+02
7.500000e-07	-9.861321e-07	-4.617691e-09	-6.803328e+00	-3.033142e+02
7.600000e-07	-8.560198e-07	-4.407884e-09	-5.905682e+00	-2.894495e+02
7.700000e-07	-7.256324e-07	-4.195580e-09	-5.006139e+00	-2.751889e+02
7.800000e-07	-5.949521e-07	-3.974080e-09	-4.104576e+00	-2.605278e+02
7.900000e-07	-4.640409e-07	-3.744930e-09	-3.201419e+00	-2.454625e+02
8.000000e-07	-3.329544e-07	-3.508311e-09	-2.297053e+00	-2.299869e+02
8.100000e-07	-2.017062e-07	-3.265595e-09	-1.391571e+00	-2.140907e+02
8.200000e-07	-7.029239e-08	-3.017862e-09	-4.849474e-01	-1.977568e+02
8.300000e-07	6.120647e-08	-2.764686e-09	4.222636e-01	-1.809591e+02
8.400000e-07	1.927087e-07	-2.501808e-09	1.329498e+00	-1.636621e+02
8.500000e-07	3.242024e-07	-2.226975e-09	2.236673e+00	-1.458211e+02
8.600000e-07	4.555758e-07	-1.944055e-09	3.143019e+00	-1.273846e+02
8.700000e-07	5.867633e-07	-1.652563e-09	4.048082e+00	-1.082973e+02
8.800000e-07	7.177342e-07	-1.348212e-09	4.951650e+00	-8.850600e+01
8.900000e-07	8.484779e-07	-1.033853e-09	5.853651e+00	-6.796536e+01
9.000000e-07	9.789251e-07	-7.095428e-10	6.753607e+00	-4.664471e+01
9.100000e-07	1.109023e-06	-3.748773e-10	7.651154e+00	-2.453468e+01
9.200000e-07	1.238743e-06	-2.843100e-11	8.546090e+00	-1.652938e+00
9.300000e-07	1.368054e-06	3.324049e-10	9.438208e+00	2.195162e+01
9.400000e-07	1.496921e-06	7.037390e-10	1.032726e+01	4.619682e+01
9.500000e-07	1.625245e-06	1.083736e-09	1.121257e+01	7.096773e+01
9.600000e-07	1.752932e-06	1.468626e-09	1.209348e+01	9.611979e+01
9.700000e-07	1.879903e-06	1.857382e-09	1.296945e+01	1.214845e+02
9.800000e-07	2.006177e-06	2.247507e-09	1.384062e+01	1.468772e+02
9.900000e-07	2.131789e-06	2.634383e-09	1.470722e+01	1.721067e+02
1.000000e-06	2.256776e-06	3.016748e-09	1.556950e+01	1.969846e+02
1.010000e-06	2.381026e-06	3.388907e-09	1.642670e+01	2.213360e+02
1.020000e-06	2.504309e-06	3.747415e-09	1.727723e+01	2.450074e+02
1.030000e-06	2.626552e-06	4.093017e-09	1.812059e+01	2.678740e+02
1.040000e-06	2.747819e-06	4.427027e-09	1.895721e+01	2.898443e+02
1.050000e-06	2.868094e-06	4.745924e-09	1.978699e+01	3.108612e+02
1.060000e-06	2.987247e-06	5.047636e-09	2.060903e+01	3.309019e+02
1.070000e-06	3.105264e-06	5.334872e-09	2.142322e+01	3.499736e+02
1.080000e-06	3.222187e-06	5.610687e-09	2.222988e+01	3.681087e+02
1.090000e-06	3.337868e-06	5.873302e-09	2.302796e+01	3.853580e+02
1.100000e-06	3.452198e-06	6.121437e-09	2.381672e+01	4.017831e+02
1.110000e-06	3.565143e-06	6.359524e-09	2.459593e+01	4.174499e+02
1.120000e-06	3.676712e-06	6.586866e-09	2.536565e+01	4.324226e+02
1.130000e-06	3.787046e-06	6.804586e-09	2.612684e+01	4.467585e+02
1.140000e-06	3.896237e-06	7.012862e-09	2.688014e+01	4.605059e+02
1.150000e-06	4.004152e-06	7.214097e-09	2.762465e+01	4.737025e+02
1.160000e-06	4.110664e-06	7.408450e-09	2.835948e+01	4.863760e+02
1.170000e-06	4.215730e-06	7.592953e-09	2.908433e+01	4.985459e+02
1.180000e-06	4.319237e-06	7.768770e-09	2.979843e+01	5.102261e+02
1.190000e-06	4.421168e-06	7.936944e-09	3.050165e+01	5.214275e+02
1.200000e-06	4.521577e-06	8.097495e-09	3.119437e+01	5.321606e+02
1.210000e-06	4.620382e-06	8.251530e-09	3.187603e+01	5.424377e+02
1.220000e-06	4.717434e-06	8.400092e-09	3.254558e+01	5.522738e+02
1.230000e-06	4.812710e-06	8.543676e-09	3.320290e+01	5.616869e+02
1.240000e-06	4.906327e-06	8.683684e-09	3.384876e+01	5.706971e+02
1.250000e-06	4.998262e-06	8.820552e-09	3.448302e+01	5.793253e+02
1.260000e-06	5.088379e-06	8.953345e-09	3.510474e+01	5.875920e+02
1.270000e-06	5.176617e-06	9.078153e-09	3.571349e+01	5.955152e+02
1.280000e-06	5.262998e-06	9.195570e-09	3.630944e+01	6.031092e+02
1.290000e-06	5.347584e-06	9.307939e-09	3.689299e+01	6.103842e+02
1.300000e-06	5.430321e-06	9.414588e-09	3.746380e+01	6.173465e+02
1.310000e-06	5.511044e-06	9.512849e-09	3.802071e+01	6.239988e+02
1.320000e-06	5.589701e-06	9.604864e-09	3.856336e+01	6.303424e+02
1.330000e-06	5.666317e-06	9.695247e-09	3.909193e+01	6.363783e+02
1.340000e-06	5.740761e-06	9.783585e-09	3.960552e+01	6.421095e+02
1.350000e-06	5.813001e-06	9.867458e-09	4.010391e+01	6.475424e+02
1.360000e-06	5.883177e-06	9.944043e-09	4.058805e+01	6.526877e+02
1.370000e-06	5.951295e-06	1.001495e-08	4.105800e+01	6.575610e+02
1.380000e-06	6.017272e-06	1.008438e-08	4.151317e+01	6.621819e+02
1.390000e-06	6.081094e-06	1.015284e-08	4.195348e+01	6.665730e+02
1.400000e-06	6.142821e-06	1.022025e-08	4.237934e+01	6.707575e+02
1.410000e-06	6.202481e-06	1.028364e-08	4.279093e+01	6.747576e+02
1.420000e-06	6.259929e-06	1.034321e-08	4.318727e+01	6.785918e+02
1.430000e-06	6.315082e-06	1.039945e-08	4.356777e+01	6.822731e+02
1.440000e-06	6.367888e-06	1.045314e-08	4.393208e+01	6.858082e+02
1.450000e-06	6.418141e-06	1.050515e-08	4.427877e+01	6.891962e+02
1.460000e-06	6.465828e-06	1.055436e-08	4.460776e+01	6.924303e+02
1.470000e-06	6.511242e-06	1.060093e-08	4.492107e+01	6.954980e+02
1.480000e-06	6.554447e-06	1.064448e-08	4.521915e+01	6.983842e+02
1.490000e-06	6.595251e-06	1.068559e-08	4.550065e+01	7.010728e+02
1.500000e-06	6.633693e-06	1.072354e-08	4.576586e+01	7.035499e+02
1.510000e-06	6.669956e-06	1.075745e-08	4.601604e+01	7.058055e+02
1.520000e-06	6.703903e-06	1.078711e-08	4.625024e+01	7.078353e+02
1.530000e-06	6.735383e-06	1.081314e-08	4.646743e+01	7.096417e+02
1.540000e-06	6.764531e-06	1.083679e-08	4.666851e+01	7.112335e+02
1.550000e-06	6.791335e-06	1.085916e-08	4.685344e+01	7.126247e+02
1.560000e-06	6.815584e-06	1.087869e-08	4.702073e+01	7.138334e+02
1.570000e-06	6.837356e-06	1.089419e-08	4.717093e+01	7.148789e+02
1.580000e-06	6.856846e-06	1.090749e-08	4.730539e+01	7.157797e+02
1.590000e-06	6.873876e-06	1.091847e-08	4.742288e+01	7.165514e+02
1.600000e-06	6.888300e-06	1.092698e-08	4.752240e+01	7.172049e+02
1.610000e-06	6.900061e-06	1.093498e-08	4.760353e+01	7.177455e+02
1.620000e-06	6.909074e-06	1.094214e-08	4.766572e+01	7.181725e+02
1.630000e-06	6.915541e-06	1.094667e-08	4.771033e+01	7.184807e+02
1.640000e-06	6.919678e-06	1.094887e-08	4.773888e+01	7.186610e+02
1.650000e-06	6.921399e-06	1.095068e-08	4.775075e+01	7.187030e+02
1.660000e-06	6.920642e-06	1.094697e-08	4.774552e+01	7.185967e+02
1.670000e-06	6.917613e-06	1.093793e-08	4.772463e+01	7.183352e+02
1.680000e-06	6.912328e-06	1.092986e-08	4.768817e+01	7.179158e+02
1.690000e-06	6.904680e-06	1.091938e-08	4.763541e+01	7.173413e+02
1.700000e-06	6.894818e-06	1.090904e-08	4.756736e+01	7.166203e+02
1.710000e-06	6.882719e-06	1.090230e-08	4.748390e+01	7.157666e+02
1.720000e-06	6.868237e-06	1.090311e-08	4.738398e+01	7.147976e+02
1.730000e-06	6.851497e-06	1.088711e-08	4.726849e+01	7.137330e+02
1.740000e-06	6.832564e-06	1.079946e-08	4.713788e+01	7.125922e+02
1.750000e-06	6.810844e-06	1.077765e-08	4.698803e+01	7.113921e+02
1.760000e-06	6.785820e-06	1.080179e-08	4.681539e+01	7.101454e+02
1.770000e-06	6.757994e-06	1.077395e-08	4.662342e+01	7.088587e+02
1.780000e-06	6.727875e-06	1.080469e-08	4.641563e+01	7.075321e+02
1.790000e-06	6.695918e-06	1.081212e-08	4.619515e+01	7.061590e+02
1.800000e-06	6.662541e-06	1.067900e-08	4.596488e+01	7.047265e+02
1.810000e-06	6.627198e-06	1.071939e-08	4.572105e+01	7.032169e+02
1.820000e-06	6.589263e-06	1.071600e-08	4.545934e+01	7.016097e+02
1.830000e-06	6.549075e-06	1.063969e-08	4.518209e+01	6.998827e+02
1.840000e-06	6.506749e-06	1.071678e-08	4.489007e+01	6.980150e+02
1.850000e-06	6.462186e-06	1.059139e-08	4.458264e+01	6.959877e+02
1.860000e-06	6.415299e-06	1.056790e-08	4.425916e+01	6.937861e+02
1.870000e-06	6.365918e-06	1.059391e-08	4.391848e+01	6.914001e+02
1.880000e-06	6.314257e-06	1.049639e-08	4.356207e+01	6.888242e+02
1.890000e-06	6.260042e-06	1.053017e-08	4.318804e+01	6.860582e+02
1.900000e-06	6.203231e-06	1.041979e-08	4.279610e+01	6.831057e+02
1.910000e-06	6.144122e-06	1.035418e-08	4.238831e+01	6.799734e+02
1.920000e-06	6.082618e-06	1.033932e-08	4.196400e+01	6.766705e+02
1.930000e-06	6.018860e-06	1.024335e-08	4.152413e+01	6.732066e+02
1.940000e-06	5.952972e-06	1.026586e-08	4.106957e+01	6.695916e+02
1.950000e-06	5.884920e-06	1.017026e-08	4.060008e+01	6.658342e+02
1.960000e-06	5.814523e-06	1.011672e-08	4.011440e+01	6.619415e+02
1.970000e-06	5.741764e-06	1.003717e-08	3.961244e+01	6.579185e+02
1.980000e-06	5.666935e-06	9.953011e-09	3.909620e+01	6.537680e+02
1.990000e-06	5.589854e-06	9.946408e-09	3.856441e+01	6.494906e+02
2.000000e-06	5.510542e-06	9.842525e-09	3.801724e+01	6.450848e+02
2.010000e-06	5.429322e-06	9.791884e-09	3.745691e+01	6.405475e+02
2.020000e-06	5.346288e-06	9.705297e-09	3.688405e+01	6.358742e+02
2.030000e-06	5.261368e-06	9.633125e-09	3.629819e+01	6.310593e+02
2.040000e-06	5.174358e-06	9.562637e-09	3.569791e+01	6.260968e+02
2.050000e-06	5.085469e-06	9.478503e-09	3.508466e+01	6.209805e+02
2.060000e-06	4.995019e-06	9.408518e-09	3.446065e+01	6.157044e+02
2.070000e-06	4.902976e-06	9.298762e-09	3.382564e+01	6.102629e+02
2.080000e-06	4.809095e-06	9.225899e-09	3.317796e+01	6.046515e+02
2.090000e-06	4.713367e-06	9.139953e-09	3.251753e+01	5.988663e+02
2.100000e-06	4.616089e-06	9.065936e-09	3.184641e+01	5.929049e+02
2.110000e-06	4.517349e-06	8.960213e-09	3.116520e+01	5.867655e+02
2.120000e-06	4.417121e-06	8.851305e-09	3.047373e+01	5.804473e+02
2.130000e-06	4.315225e-06	8.755936e-09	2.977075e+01	5.739500e+02
2.140000e-06	4.211591e-06	8.657457e-09	2.905578e+01	5.672733e+02
2.150000e-06	4.106411e-06	8.566089e-09	2.833014e+01	5.604165e+02
2.160000e-06	3.999826e-06	8.456334e-09	2.759481e+01	5.533781e+02
2.170000e-06	3.891985e-06	8.345162e-09	2.685081e+01	5.461553e+02
2.180000e-06	3.782832e-06	8.220417e-09	2.609777e+01	5.387438e+02
2.190000e-06	3.672149e-06	8.106138e-09	2.533416e+01	5.311376e+02
2.200000e-06	3.560029e-06	7.989874e-09	2.456065e+01	5.233295e+02
2.210000e-06	3.446571e-06	7.874640e-09	2.377790e+01	5.153111e+02
2.220000e-06	3.331765e-06	7.746062e-09	2.298585e+01	5.070737e+02
2.230000e-06	3.215613e-06	7.613801e-09	2.218452e+01	4.986087e+02
2.240000e-06	3.098075e-06	7.480484e-09	2.137363e+01	4.899083e+02
2.250000e-06	2.979192e-06	7.344768e-09	2.055345e+01	4.809661e+02
2.260000e-06	2.859127e-06	7.208103e-09	1.972513e+01	4.717775e+02
2.270000e-06	2.738099e-06	7.060240e-09	1.889015e+01	4.623393e+02
2.280000e-06	2.616172e-06	6.912326e-09	1.804898e+01	4.526500e+02
2.290000e-06	2.493332e-06	6.762694e-09	1.720150e+01	4.427086e+02
2.300000e-06	2.369614e-06	6.613423e-09	1.634797e+01	4.325141e+02
2.310000e-06	2.245095e-06	6.456814e-09	1.548891e+01	4.220644e+02
2.320000e-06	2.119844e-06	6.294476e-09	1.462481e+01	4.113552e+02
2.330000e-06	1.993855e-06	6.121691e-09	1.375561e+01	4.003796e+02
2.340000e-06	1.867060e-06	5.945820e-09	1.288085e+01	3.891273e+02
2.350000e-06	1.739526e-06	5.768259e-09	1.200099e+01	3.775851e+02
2.360000e-06	1.611364e-06	5.590795e-09	1.111681e+01	3.657371e+02
2.370000e-06	1.482703e-06	5.407231e-09	1.022917e+01	3.535657e+02
2.380000e-06	1.353674e-06	5.212808e-09	9.338997e+00	3.410531e+02
2.390000e-06	1.224295e-06	5.015854e-09	8.446416e+00	3.281824e+02
2.400000e-06	1.094527e-06	4.812916e-09	7.551145e+00	3.149391e+02
2.410000e-06	9.643965e-07	4.606347e-09	6.653374e+00	3.013115e+02
2.420000e-06	8.339612e-07	4.394052e-09	5.753500e+00	2.872914e+02
2.430000e-06	7.032435e-07	4.173885e-09	4.851678e+00	2.728734e+02
2.440000e-06	5.723002e-07	3.946836e-09	3.948301e+00	2.580535e+02
2.450000e-06	4.411494e-07	3.714868e-09	3.043490e+00	2.428274e+02
2.460000e-06	3.098350e-07	3.477561e-09	2.137553e+00	2.271876e+02
2.470000e-06	1.783665e-07	3.231537e-09	1.230551e+00	2.111215e+02
2.480000e-06	4.682757e-08	2.976961e-09	3.230635e-01	1.946085e+02
2.490000e-06	-8.471010e-08	2.716932e-09	-5.844152e-01	1.776189e+02
2.500000e-06	-2.162707e-07	2.450917e-09	-1.492052e+00	1.601135e+02
2.510000e-06	-3.477670e-07	2.175114e-09	-2.399245e+00	1.420445e+02
2.520000e-06	-4.791226e-07	1.886832e-09	-3.305468e+00	1.233584e+02
2.530000e-06	-6.103210e-07	1.589036e-09	-4.210606e+00	1.040001e+02
2.540000e-06	-7.413058e-07	1.281564e-09	-5.114270e+00	8.391870e+01
2.550000e-06	-8.719800e-07	9.644902e-10	-6.015792e+00	6.307375e+01
2.560000e-06	-1.002340e-06	6.385345e-10	-6.915147e+00	4.144222e+01
2.570000e-06	-1.132330e-06	2.991748e-10	-7.811950e+00	1.902475e+01
2.580000e-06	-1.261965e-06	-5.172117e-11	-8.706302e+00	-4.149098e+00
2.590000e-06	-1.391276e-06	-4.129763e-10	-9.598417e+00	-2.801749e+01
2.600000e-06	-1.520227e-06	-7.830968e-10	-1.048805e+01	-5.248516e+01
2.610000e-06	-1.648729e-06	-1.161937e-09	-1.137459e+01	-7.742503e+01
2.620000e-06	-1.776513e-06	-1.549351e-09	-1.225616e+01	-1.026823e+02
2.630000e-06	-1.903434e-06	-1.940753e-09	-1.313180e+01	-1.280811e+02
2.640000e-06	-2.029628e-06	-2.329385e-09	-1.400241e+01	-1.534331e+02
2.650000e-06	-2.155133e-06	-2.713082e-09	-1.486827e+01	-1.785468e+02
2.660000e-06	-2.279807e-06	-3.090811e-09	-1.572840e+01	-2.032383e+02
2.670000e-06	-2.403607e-06	-3.458426e-09	-1.658249e+01	-2.273398e+02
2.680000e-06	-2.526397e-06	-3.815530e-09	-1.742962e+01	-2.507087e+02
2.690000e-06	-2.648166e-06	-4.160786e-09	-1.826971e+01	-2.732327e+02
2.700000e-06	-2.769059e-06	-4.491200e-09	-1.910375e+01	-2.948338e+02
2.710000e-06	-2.888936e-06	-4.803619e-09	-1.993078e+01	-3.154687e+02
2.720000e-06	-3.007619e-06	-5.099735e-09	-2.074957e+01	-3.351268e+02
2.730000e-06	-3.125180e-06	-5.385121e-09	-2.156063e+01	-3.538260e+02
2.740000e-06	-3.241568e-06	-5.661477e-09	-2.236359e+01	-3.716068e+02
2.750000e-06	-3.356579e-06	-5.924893e-09	-2.315705e+01	-3.885250e+02
2.760000e-06	-3.470126e-06	-6.172322e-09	-2.394041e+01	-4.046449e+02
2.770000e-06	-3.582300e-06	-6.406427e-09	-2.471430e+01	-4.200321e+02
2.780000e-06	-3.693157e-06	-6.631218e-09	-2.547910e+01	-4.347487e+02
2.790000e-06	-3.802714e-06	-6.846445e-09	-2.623494e+01	-4.488488e+02
2.800000e-06	-3.911044e-06	-7.053947e-09	-2.698230e+01	-4.623764e+02
2.810000e-06	-4.018059e-06	-7.254926e-09	-2.772060e+01	-4.753652e+02
2.820000e-06	-4.123741e-06	-7.448121e-09	-2.844970e+01	-4.878394e+02
2.830000e-06	-4.227976e-06	-7.633270e-09	-2.916881e+01	-4.998160e+02
2.840000e-06	-4.330595e-06	-7.809905e-09	-2.987679e+01	-5.113073e+02
2.850000e-06	-4.431569e-06	-7.978299e-09	-3.057340e+01	-5.223239e+02
2.860000e-06	-4.530960e-06	-8.137356e-09	-3.125911e+01	-5.328768e+02
2.870000e-06	-4.628860e-06	-8.288067e-09	-3.193452e+01	-5.429792e+02
2.880000e-06	-4.725164e-06	-8.432633e-09	-3.259892e+01	-5.526473e+02
2.890000e-06	-4.819750e-06	-8.572149e-09	-3.325146e+01	-5.619001e+02
2.900000e-06	-4.912597e-06	-8.707136e-09	-3.389202e+01	-5.707582e+02
2.910000e-06	-5.003659e-06	-8.835761e-09	-3.452026e+01	-5.792426e+02
2.920000e-06	-5.092953e-06	-8.959297e-09	-3.513630e+01	-5.873729e+02
2.930000e-06	-5.180384e-06	-9.078120e-09	-3.573948e+01	-5.951657e+02
2.940000e-06	-5.265828e-06	-9.192165e-09	-3.632896e+01	-6.026339e+02
