# Temperatura_=_66.46
# Concentracion g/m^3_=_15000.0
# C_Vs_to_Am_M_A/Vsm_=_65563218390.804596
# pendiente_HvsI_1/m_=_3716.3
# ordenada_HvsI_A/m_=_1297.0
# frecuencia_Hz_=_301961.05450623296

Tiempo_(s)	Campo_(V.s)	Magnetizacion_(V.s)	Campo_(kA/m)	Magnetizacion_(A/m)
0.000000e+00	-6.903312e-06	-1.152243e-08	-4.748623e+01	-7.552944e+02
1.000000e-08	-6.901551e-06	-1.152583e-08	-4.747412e+01	-7.551145e+02
2.000000e-08	-6.897461e-06	-1.152200e-08	-4.744599e+01	-7.547594e+02
3.000000e-08	-6.891225e-06	-1.151324e-08	-4.740310e+01	-7.542246e+02
4.000000e-08	-6.882760e-06	-1.150591e-08	-4.734487e+01	-7.535124e+02
5.000000e-08	-6.871834e-06	-1.149425e-08	-4.726971e+01	-7.526328e+02
6.000000e-08	-6.858360e-06	-1.147872e-08	-4.717703e+01	-7.516024e+02
7.000000e-08	-6.842444e-06	-1.145420e-08	-4.706754e+01	-7.504438e+02
8.000000e-08	-6.824265e-06	-1.143519e-08	-4.694249e+01	-7.491825e+02
9.000000e-08	-6.803911e-06	-1.147328e-08	-4.680248e+01	-7.478448e+02
1.000000e-07	-6.781002e-06	-1.147877e-08	-4.664489e+01	-7.464546e+02
1.100000e-07	-6.755191e-06	-1.140470e-08	-4.646735e+01	-7.450310e+02
1.200000e-07	-6.726720e-06	-1.136073e-08	-4.627151e+01	-7.435856e+02
1.300000e-07	-6.696053e-06	-1.133775e-08	-4.606056e+01	-7.421213e+02
1.400000e-07	-6.663361e-06	-1.124756e-08	-4.583567e+01	-7.406317e+02
1.500000e-07	-6.628724e-06	-1.123543e-08	-4.559741e+01	-7.391014e+02
1.600000e-07	-6.592168e-06	-1.132109e-08	-4.534595e+01	-7.375075e+02
1.700000e-07	-6.553563e-06	-1.117369e-08	-4.508040e+01	-7.358214e+02
1.800000e-07	-6.512807e-06	-1.115656e-08	-4.480004e+01	-7.340117e+02
1.900000e-07	-6.469534e-06	-1.120141e-08	-4.450238e+01	-7.320470e+02
2.000000e-07	-6.423785e-06	-1.109839e-08	-4.418769e+01	-7.298981e+02
2.100000e-07	-6.375717e-06	-1.114804e-08	-4.385704e+01	-7.275410e+02
2.200000e-07	-6.324964e-06	-1.110504e-08	-4.350792e+01	-7.249585e+02
2.300000e-07	-6.271518e-06	-1.100842e-08	-4.314028e+01	-7.221409e+02
2.400000e-07	-6.215672e-06	-1.093630e-08	-4.275613e+01	-7.190866e+02
2.500000e-07	-6.157481e-06	-1.085987e-08	-4.235584e+01	-7.158016e+02
2.600000e-07	-6.096975e-06	-1.085362e-08	-4.193964e+01	-7.122978e+02
2.700000e-07	-6.034295e-06	-1.080559e-08	-4.150848e+01	-7.085916e+02
2.800000e-07	-5.969414e-06	-1.073027e-08	-4.106218e+01	-7.047021e+02
2.900000e-07	-5.902267e-06	-1.064765e-08	-4.060029e+01	-7.006482e+02
3.000000e-07	-5.832925e-06	-1.058045e-08	-4.012330e+01	-6.964477e+02
3.100000e-07	-5.761419e-06	-1.054258e-08	-3.963143e+01	-6.921145e+02
3.200000e-07	-5.687677e-06	-1.047579e-08	-3.912417e+01	-6.876584e+02
3.300000e-07	-5.611622e-06	-1.043667e-08	-3.860101e+01	-6.830840e+02
3.400000e-07	-5.533271e-06	-1.034797e-08	-3.806205e+01	-6.783905e+02
3.500000e-07	-5.452732e-06	-1.025151e-08	-3.750804e+01	-6.735725e+02
3.600000e-07	-5.370254e-06	-1.019183e-08	-3.694070e+01	-6.686209e+02
3.700000e-07	-5.286008e-06	-1.012431e-08	-3.636119e+01	-6.635239e+02
3.800000e-07	-5.200013e-06	-1.004547e-08	-3.576965e+01	-6.582683e+02
3.900000e-07	-5.112212e-06	-9.937846e-09	-3.516568e+01	-6.528416e+02
4.000000e-07	-5.022577e-06	-9.855515e-09	-3.454911e+01	-6.472325e+02
4.100000e-07	-4.931144e-06	-9.778365e-09	-3.392017e+01	-6.414321e+02
4.200000e-07	-4.838037e-06	-9.702322e-09	-3.327971e+01	-6.354350e+02
4.300000e-07	-4.743386e-06	-9.607929e-09	-3.262862e+01	-6.292389e+02
4.400000e-07	-4.646978e-06	-9.493252e-09	-3.196545e+01	-6.228450e+02
4.500000e-07	-4.548775e-06	-9.381780e-09	-3.128994e+01	-6.162568e+02
4.600000e-07	-4.448924e-06	-9.275441e-09	-3.060309e+01	-6.094797e+02
4.700000e-07	-4.347537e-06	-9.187161e-09	-2.990567e+01	-6.025197e+02
4.800000e-07	-4.244730e-06	-9.092864e-09	-2.919849e+01	-5.953822e+02
4.900000e-07	-4.140376e-06	-8.980647e-09	-2.848066e+01	-5.880710e+02
5.000000e-07	-4.034406e-06	-8.850992e-09	-2.775171e+01	-5.805873e+02
5.100000e-07	-3.926920e-06	-8.727189e-09	-2.701234e+01	-5.729292e+02
5.200000e-07	-3.818035e-06	-8.614395e-09	-2.626335e+01	-5.650913e+02
5.300000e-07	-3.707885e-06	-8.500228e-09	-2.550566e+01	-5.570653e+02
5.400000e-07	-3.596391e-06	-8.373465e-09	-2.473872e+01	-5.488402e+02
5.500000e-07	-3.483405e-06	-8.234921e-09	-2.396151e+01	-5.404035e+02
5.600000e-07	-3.368927e-06	-8.097136e-09	-2.317405e+01	-5.317421e+02
5.700000e-07	-3.252988e-06	-7.962761e-09	-2.237653e+01	-5.228436e+02
5.800000e-07	-3.135738e-06	-7.831428e-09	-2.156999e+01	-5.136974e+02
5.900000e-07	-3.017403e-06	-7.690056e-09	-2.075600e+01	-5.042950e+02
6.000000e-07	-2.898019e-06	-7.541200e-09	-1.993478e+01	-4.946311e+02
6.100000e-07	-2.777490e-06	-7.388606e-09	-1.910569e+01	-4.847030e+02
6.200000e-07	-2.655962e-06	-7.238354e-09	-1.826973e+01	-4.745103e+02
6.300000e-07	-2.533429e-06	-7.083613e-09	-1.742685e+01	-4.640539e+02
6.400000e-07	-2.409843e-06	-6.914326e-09	-1.657673e+01	-4.533348e+02
6.500000e-07	-2.285350e-06	-6.735563e-09	-1.572037e+01	-4.423530e+02
6.600000e-07	-2.160072e-06	-6.557174e-09	-1.485862e+01	-4.311059e+02
6.700000e-07	-2.034195e-06	-6.384946e-09	-1.399274e+01	-4.195878e+02
6.800000e-07	-1.907765e-06	-6.213167e-09	-1.312306e+01	-4.077891e+02
6.900000e-07	-1.780632e-06	-6.035997e-09	-1.224854e+01	-3.956966e+02
7.000000e-07	-1.652755e-06	-5.846308e-09	-1.136890e+01	-3.832940e+02
7.100000e-07	-1.524243e-06	-5.645538e-09	-1.048490e+01	-3.705630e+02
7.200000e-07	-1.395220e-06	-5.443194e-09	-9.597384e+00	-3.574847e+02
7.300000e-07	-1.265746e-06	-5.241375e-09	-8.706767e+00	-3.440413e+02
7.400000e-07	-1.135913e-06	-5.032551e-09	-7.813676e+00	-3.302173e+02
7.500000e-07	-1.005748e-06	-4.813927e-09	-6.918300e+00	-3.160005e+02
7.600000e-07	-8.752343e-07	-4.589152e-09	-6.020528e+00	-3.013822e+02
7.700000e-07	-7.443794e-07	-4.361062e-09	-5.120408e+00	-2.863568e+02
7.800000e-07	-6.132011e-07	-4.128730e-09	-4.218064e+00	-2.709202e+02
7.900000e-07	-4.817947e-07	-3.891563e-09	-3.314151e+00	-2.550681e+02
8.000000e-07	-3.501812e-07	-3.648541e-09	-2.408813e+00	-2.387928e+02
8.100000e-07	-2.184064e-07	-3.393649e-09	-1.502366e+00	-2.220811e+02
8.200000e-07	-8.652222e-08	-3.130697e-09	-5.951657e-01	-2.049113e+02
8.300000e-07	4.542471e-08	-2.861578e-09	3.124658e-01	-1.872521e+02
8.400000e-07	1.773743e-07	-2.581133e-09	1.220116e+00	-1.690614e+02
8.500000e-07	3.092371e-07	-2.287339e-09	2.127168e+00	-1.502881e+02
8.600000e-07	4.409667e-07	-1.984385e-09	3.033305e+00	-1.308742e+02
8.700000e-07	5.725865e-07	-1.677560e-09	3.938686e+00	-1.107592e+02
8.800000e-07	7.040708e-07	-1.360621e-09	4.843135e+00	-8.988620e+01
8.900000e-07	8.353465e-07	-1.031720e-09	5.746149e+00	-6.820848e+01
9.000000e-07	9.663307e-07	-6.913630e-10	6.647158e+00	-4.569651e+01
9.100000e-07	1.096950e-06	-3.367334e-10	7.545660e+00	-2.234490e+01
9.200000e-07	1.227164e-06	3.200738e-11	8.441368e+00	1.821953e+00
9.300000e-07	1.356920e-06	4.132695e-10	9.333930e+00	2.674591e+01
9.400000e-07	1.486195e-06	8.005366e-10	1.022318e+01	5.233355e+01
9.500000e-07	1.614958e-06	1.195530e-09	1.110891e+01	7.845724e+01
9.600000e-07	1.743061e-06	1.599422e-09	1.199010e+01	1.049591e+02
9.700000e-07	1.870438e-06	2.009070e-09	1.286630e+01	1.316573e+02
9.800000e-07	1.997115e-06	2.420533e-09	1.373768e+01	1.583550e+02
9.900000e-07	2.123128e-06	2.828020e-09	1.460449e+01	1.848498e+02
1.000000e-06	2.248455e-06	3.226395e-09	1.546659e+01	2.109447e+02
1.010000e-06	2.373061e-06	3.610681e-09	1.632372e+01	2.364582e+02
1.020000e-06	2.496870e-06	3.982624e-09	1.717537e+01	2.612330e+02
1.030000e-06	2.619748e-06	4.343473e-09	1.802062e+01	2.851429e+02
1.040000e-06	2.741651e-06	4.691973e-09	1.885916e+01	3.080970e+02
1.050000e-06	2.862447e-06	5.024705e-09	1.969009e+01	3.300413e+02
1.060000e-06	2.982082e-06	5.341697e-09	2.051303e+01	3.509570e+02
1.070000e-06	3.100609e-06	5.645493e-09	2.132835e+01	3.708568e+02
1.080000e-06	3.218040e-06	5.935861e-09	2.213613e+01	3.897787e+02
1.090000e-06	3.334279e-06	6.210879e-09	2.293571e+01	4.077788e+02
1.100000e-06	3.449190e-06	6.469752e-09	2.372616e+01	4.249239e+02
1.110000e-06	3.562693e-06	6.715535e-09	2.450691e+01	4.412841e+02
1.120000e-06	3.674811e-06	6.951820e-09	2.527815e+01	4.569264e+02
1.130000e-06	3.785696e-06	7.180481e-09	2.604090e+01	4.719103e+02
1.140000e-06	3.895349e-06	7.401466e-09	2.679518e+01	4.862849e+02
1.150000e-06	4.003704e-06	7.614180e-09	2.754053e+01	5.000879e+02
1.160000e-06	4.110734e-06	7.818519e-09	2.827676e+01	5.133465e+02
1.170000e-06	4.216260e-06	8.013435e-09	2.900265e+01	5.260794e+02
1.180000e-06	4.320154e-06	8.197554e-09	2.971731e+01	5.382997e+02
1.190000e-06	4.422482e-06	8.371917e-09	3.042120e+01	5.500183e+02
1.200000e-06	4.523364e-06	8.538728e-09	3.111514e+01	5.612462e+02
1.210000e-06	4.622766e-06	8.699743e-09	3.179891e+01	5.719971e+02
1.220000e-06	4.720371e-06	8.853833e-09	3.247031e+01	5.822884e+02
1.230000e-06	4.816096e-06	9.002201e-09	3.312877e+01	5.921413e+02
1.240000e-06	4.910118e-06	9.147189e-09	3.377553e+01	6.015796e+02
1.250000e-06	5.002539e-06	9.290830e-09	3.441127e+01	6.106286e+02
1.260000e-06	5.093245e-06	9.431030e-09	3.503522e+01	6.193124e+02
1.270000e-06	5.182014e-06	9.563532e-09	3.564584e+01	6.276522e+02
1.280000e-06	5.268839e-06	9.688257e-09	3.624308e+01	6.356649e+02
1.290000e-06	5.353841e-06	9.806431e-09	3.682780e+01	6.433616e+02
1.300000e-06	5.436996e-06	9.920593e-09	3.739980e+01	6.507478e+02
1.310000e-06	5.518159e-06	1.002681e-08	3.795810e+01	6.578243e+02
1.320000e-06	5.597287e-06	1.012510e-08	3.850240e+01	6.645888e+02
1.330000e-06	5.674424e-06	1.022128e-08	3.903301e+01	6.710377e+02
1.340000e-06	5.749398e-06	1.031580e-08	3.954874e+01	6.771687e+02
1.350000e-06	5.822087e-06	1.040540e-08	4.004875e+01	6.829832e+02
1.360000e-06	5.892668e-06	1.048893e-08	4.053426e+01	6.884873e+02
1.370000e-06	5.961253e-06	1.056776e-08	4.100604e+01	6.936929e+02
1.380000e-06	6.027670e-06	1.064235e-08	4.146290e+01	6.986177e+02
1.390000e-06	6.091805e-06	1.071330e-08	4.190408e+01	7.032840e+02
1.400000e-06	6.153848e-06	1.078051e-08	4.233085e+01	7.077168e+02
1.410000e-06	6.213939e-06	1.084538e-08	4.274421e+01	7.119416e+02
1.420000e-06	6.271858e-06	1.090878e-08	4.314261e+01	7.159814e+02
1.430000e-06	6.327422e-06	1.096935e-08	4.352483e+01	7.198546e+02
1.440000e-06	6.380724e-06	1.102750e-08	4.389148e+01	7.235730e+02
1.450000e-06	6.431474e-06	1.108279e-08	4.424057e+01	7.271410e+02
1.460000e-06	6.479575e-06	1.113540e-08	4.457145e+01	7.305552e+02
1.470000e-06	6.525412e-06	1.118463e-08	4.488675e+01	7.338055e+02
1.480000e-06	6.569104e-06	1.123020e-08	4.518730e+01	7.368772e+02
1.490000e-06	6.610415e-06	1.127280e-08	4.547147e+01	7.397528e+02
1.500000e-06	6.649255e-06	1.131200e-08	4.573864e+01	7.424157e+02
1.510000e-06	6.685826e-06	1.134682e-08	4.599020e+01	7.448520e+02
1.520000e-06	6.720072e-06	1.137859e-08	4.622578e+01	7.470534e+02
1.530000e-06	6.751857e-06	1.140794e-08	4.644441e+01	7.490180e+02
1.540000e-06	6.781343e-06	1.143454e-08	4.664724e+01	7.507514e+02
1.550000e-06	6.808535e-06	1.145980e-08	4.683429e+01	7.522659e+02
1.560000e-06	6.833085e-06	1.148333e-08	4.700316e+01	7.535790e+02
1.570000e-06	6.855114e-06	1.150352e-08	4.715469e+01	7.547113e+02
1.580000e-06	6.874970e-06	1.151949e-08	4.729128e+01	7.556838e+02
1.590000e-06	6.892374e-06	1.153186e-08	4.741099e+01	7.565156e+02
1.600000e-06	6.907139e-06	1.154022e-08	4.751256e+01	7.572213e+02
1.610000e-06	6.919283e-06	1.154663e-08	4.759610e+01	7.578095e+02
1.620000e-06	6.928673e-06	1.155191e-08	4.766069e+01	7.582821e+02
1.630000e-06	6.935427e-06	1.155540e-08	4.770715e+01	7.586346e+02
1.640000e-06	6.939816e-06	1.155837e-08	4.773734e+01	7.588569e+02
1.650000e-06	6.941766e-06	1.156167e-08	4.775075e+01	7.589359e+02
1.660000e-06	6.941264e-06	1.156259e-08	4.774730e+01	7.588575e+02
1.670000e-06	6.938542e-06	1.155456e-08	4.772858e+01	7.586094e+02
1.680000e-06	6.933590e-06	1.154768e-08	4.769451e+01	7.581835e+02
1.690000e-06	6.926241e-06	1.153801e-08	4.764396e+01	7.575779e+02
1.700000e-06	6.916605e-06	1.152528e-08	4.757768e+01	7.567980e+02
1.710000e-06	6.904733e-06	1.151259e-08	4.749601e+01	7.558564e+02
1.720000e-06	6.890391e-06	1.150450e-08	4.739736e+01	7.547725e+02
1.730000e-06	6.873808e-06	1.149447e-08	4.728329e+01	7.535699e+02
1.740000e-06	6.855163e-06	1.141034e-08	4.715503e+01	7.522752e+02
1.750000e-06	6.833811e-06	1.136104e-08	4.700816e+01	7.509139e+02
1.760000e-06	6.809060e-06	1.139616e-08	4.683790e+01	7.495083e+02
1.770000e-06	6.781312e-06	1.137608e-08	4.664703e+01	7.480749e+02
1.780000e-06	6.751249e-06	1.136921e-08	4.644023e+01	7.466219e+02
1.790000e-06	6.719325e-06	1.143381e-08	4.622064e+01	7.451485e+02
1.800000e-06	6.686032e-06	1.130145e-08	4.599162e+01	7.436448e+02
1.810000e-06	6.650944e-06	1.125141e-08	4.575026e+01	7.420923e+02
1.820000e-06	6.613227e-06	1.135234e-08	4.549081e+01	7.404654e+02
1.830000e-06	6.573214e-06	1.126104e-08	4.521557e+01	7.387342e+02
1.840000e-06	6.531072e-06	1.131651e-08	4.492569e+01	7.368670e+02
1.850000e-06	6.486639e-06	1.123821e-08	4.462004e+01	7.348327e+02
1.860000e-06	6.439922e-06	1.109634e-08	4.429869e+01	7.326042e+02
1.870000e-06	6.390696e-06	1.116826e-08	4.396007e+01	7.301599e+02
1.880000e-06	6.339171e-06	1.108333e-08	4.360565e+01	7.274853e+02
1.890000e-06	6.285154e-06	1.112546e-08	4.323408e+01	7.245741e+02
1.900000e-06	6.228466e-06	1.108203e-08	4.284413e+01	7.214278e+02
1.910000e-06	6.169506e-06	1.093686e-08	4.243856e+01	7.180547e+02
1.920000e-06	6.108172e-06	1.092882e-08	4.201666e+01	7.144689e+02
1.930000e-06	6.044533e-06	1.080015e-08	4.157890e+01	7.106880e+02
1.940000e-06	5.978746e-06	1.081966e-08	4.112637e+01	7.067313e+02
1.950000e-06	5.910758e-06	1.077929e-08	4.065870e+01	7.026176e+02
1.960000e-06	5.840542e-06	1.068423e-08	4.017570e+01	6.983631e+02
1.970000e-06	5.767948e-06	1.062862e-08	3.967634e+01	6.939804e+02
1.980000e-06	5.693169e-06	1.048677e-08	3.916195e+01	6.894772e+02
1.990000e-06	5.616126e-06	1.047813e-08	3.863199e+01	6.848560e+02
2.000000e-06	5.536840e-06	1.039842e-08	3.808660e+01	6.801141e+02
2.010000e-06	5.455621e-06	1.032723e-08	3.752792e+01	6.752446e+02
2.020000e-06	5.372604e-06	1.025239e-08	3.695686e+01	6.702370e+02
2.030000e-06	5.287691e-06	1.014595e-08	3.637277e+01	6.650789e+02
2.040000e-06	5.200698e-06	1.007918e-08	3.577436e+01	6.597572e+02
2.050000e-06	5.111817e-06	9.976083e-09	3.516297e+01	6.542597e+02
2.060000e-06	5.021323e-06	9.909418e-09	3.454048e+01	6.485759e+02
2.070000e-06	4.929216e-06	9.800256e-09	3.390690e+01	6.426984e+02
2.080000e-06	4.835226e-06	9.711309e-09	3.326036e+01	6.366228e+02
2.090000e-06	4.739411e-06	9.625842e-09	3.260128e+01	6.303484e+02
2.100000e-06	4.642058e-06	9.544774e-09	3.193161e+01	6.238772e+02
2.110000e-06	4.543258e-06	9.451844e-09	3.125199e+01	6.172137e+02
2.120000e-06	4.442875e-06	9.321931e-09	3.056148e+01	6.103637e+02
2.130000e-06	4.340737e-06	9.200581e-09	2.985890e+01	6.033330e+02
2.140000e-06	4.236975e-06	9.080024e-09	2.914514e+01	5.961266e+02
2.150000e-06	4.131711e-06	8.988755e-09	2.842105e+01	5.887473e+02
2.160000e-06	4.025092e-06	8.886692e-09	2.768765e+01	5.811951e+02
2.170000e-06	3.917081e-06	8.777116e-09	2.694466e+01	5.734668e+02
2.180000e-06	3.807673e-06	8.644981e-09	2.619207e+01	5.655558e+02
2.190000e-06	3.696843e-06	8.508936e-09	2.542970e+01	5.574527e+02
2.200000e-06	3.584533e-06	8.379993e-09	2.465715e+01	5.491456e+02
2.210000e-06	3.470918e-06	8.260250e-09	2.387562e+01	5.406218e+02
2.220000e-06	3.355925e-06	8.133034e-09	2.308461e+01	5.318684e+02
2.230000e-06	3.239465e-06	7.986997e-09	2.228351e+01	5.228733e+02
2.240000e-06	3.121583e-06	7.835682e-09	2.147263e+01	5.136269e+02
2.250000e-06	3.002486e-06	7.684471e-09	2.065339e+01	5.041219e+02
2.260000e-06	2.882268e-06	7.544424e-09	1.982644e+01	4.943541e+02
2.270000e-06	2.760992e-06	7.397176e-09	1.899220e+01	4.843216e+02
2.280000e-06	2.638800e-06	7.246579e-09	1.815168e+01	4.740248e+02
2.290000e-06	2.515697e-06	7.086999e-09	1.730488e+01	4.634648e+02
2.300000e-06	2.391686e-06	6.922954e-09	1.645184e+01	4.526422e+02
2.310000e-06	2.266776e-06	6.756244e-09	1.559261e+01	4.415563e+02
2.320000e-06	2.141081e-06	6.586341e-09	1.472799e+01	4.302033e+02
2.330000e-06	2.014683e-06	6.403520e-09	1.385852e+01	4.185759e+02
2.340000e-06	1.887559e-06	6.208944e-09	1.298407e+01	4.066632e+02
2.350000e-06	1.759783e-06	6.016861e-09	1.210512e+01	3.944506e+02
2.360000e-06	1.631420e-06	5.832913e-09	1.122215e+01	3.819209e+02
2.370000e-06	1.502511e-06	5.648827e-09	1.033541e+01	3.690553e+02
2.380000e-06	1.373105e-06	5.450944e-09	9.445264e+00	3.558352e+02
2.390000e-06	1.243269e-06	5.240181e-09	8.552153e+00	3.422436e+02
2.400000e-06	1.113101e-06	5.018280e-09	7.656756e+00	3.282662e+02
2.410000e-06	9.826418e-07	4.794565e-09	6.759359e+00	3.138921e+02
2.420000e-06	8.518831e-07	4.574119e-09	5.859901e+00	2.991141e+02
2.430000e-06	7.208933e-07	4.348456e-09	4.958853e+00	2.839272e+02
2.440000e-06	5.897642e-07	4.109970e-09	4.056848e+00	2.683277e+02
2.450000e-06	4.584268e-07	3.858874e-09	3.153408e+00	2.523101e+02
2.460000e-06	3.268237e-07	3.604358e-09	2.248143e+00	2.358650e+02
2.470000e-06	1.950731e-07	3.349495e-09	1.341861e+00	2.189761e+02
2.480000e-06	6.326979e-08	3.089001e-09	4.352178e-01	2.016180e+02
2.490000e-06	-6.856783e-08	2.819084e-09	-4.716618e-01	1.837552e+02
2.500000e-06	-2.003708e-07	2.538374e-09	-1.378303e+00	1.653418e+02
2.510000e-06	-3.320909e-07	2.246218e-09	-2.284374e+00	1.463236e+02
2.520000e-06	-4.637491e-07	1.943274e-09	-3.190020e+00	1.266411e+02
2.530000e-06	-5.952882e-07	1.633224e-09	-4.094845e+00	1.062343e+02
2.540000e-06	-7.266302e-07	1.310611e-09	-4.998316e+00	8.504962e+01
2.550000e-06	-8.577396e-07	9.732969e-10	-5.900186e+00	6.304612e+01
2.560000e-06	-9.885132e-07	6.250902e-10	-6.799747e+00	4.020303e+01
2.570000e-06	-1.118987e-06	2.670013e-10	-7.697241e+00	1.652607e+01
2.580000e-06	-1.249130e-06	-9.918946e-11	-8.592467e+00	-7.947459e+00
2.590000e-06	-1.378837e-06	-4.771214e-10	-9.484689e+00	-3.314560e+01
2.600000e-06	-1.508128e-06	-8.713268e-10	-1.037405e+01	-5.896120e+01
2.610000e-06	-1.636882e-06	-1.278660e-09	-1.125972e+01	-8.525413e+01
2.620000e-06	-1.764997e-06	-1.692398e-09	-1.214099e+01	-1.118562e+02
2.630000e-06	-1.892436e-06	-2.105433e-09	-1.301761e+01	-1.385786e+02
2.640000e-06	-2.019180e-06	-2.513904e-09	-1.388946e+01	-1.652210e+02
2.650000e-06	-2.145255e-06	-2.918113e-09	-1.475669e+01	-1.915819e+02
2.660000e-06	-2.270566e-06	-3.315570e-09	-1.561868e+01	-2.174693e+02
2.670000e-06	-2.394914e-06	-3.700512e-09	-1.647404e+01	-2.427101e+02
2.680000e-06	-2.518214e-06	-4.071597e-09	-1.732219e+01	-2.671587e+02
2.690000e-06	-2.640523e-06	-4.428882e-09	-1.816353e+01	-2.907022e+02
2.700000e-06	-2.761872e-06	-4.774063e-09	-1.899826e+01	-3.132644e+02
2.710000e-06	-2.882198e-06	-5.105090e-09	-1.982595e+01	-3.348054e+02
2.720000e-06	-3.001454e-06	-5.419038e-09	-2.064629e+01	-3.553193e+02
2.730000e-06	-3.119624e-06	-5.716651e-09	-2.145915e+01	-3.748296e+02
2.740000e-06	-3.236502e-06	-6.000081e-09	-2.226312e+01	-3.933822e+02
2.750000e-06	-3.352016e-06	-6.271772e-09	-2.305772e+01	-4.110385e+02
2.760000e-06	-3.466218e-06	-6.530364e-09	-2.384329e+01	-4.278673e+02
2.770000e-06	-3.578989e-06	-6.776389e-09	-2.461901e+01	-4.439381e+02
2.780000e-06	-3.690277e-06	-7.011027e-09	-2.538454e+01	-4.593156e+02
2.790000e-06	-3.800256e-06	-7.234108e-09	-2.614105e+01	-4.740553e+02
2.800000e-06	-3.909013e-06	-7.449596e-09	-2.688917e+01	-4.882018e+02
2.810000e-06	-4.016537e-06	-7.658171e-09	-2.762880e+01	-5.017886e+02
2.820000e-06	-4.122783e-06	-7.860584e-09	-2.835964e+01	-5.148391e+02
2.830000e-06	-4.227572e-06	-8.055756e-09	-2.908046e+01	-5.273697e+02
2.840000e-06	-4.330763e-06	-8.240163e-09	-2.979029e+01	-5.393920e+02
2.850000e-06	-4.432261e-06	-8.415068e-09	-3.048847e+01	-5.509167e+02
2.860000e-06	-4.532130e-06	-8.583441e-09	-3.117544e+01	-5.619558e+02
2.870000e-06	-4.630469e-06	-8.746465e-09	-3.185189e+01	-5.725242e+02
2.880000e-06	-4.727276e-06	-8.899943e-09	-3.251780e+01	-5.826409e+02
2.890000e-06	-4.822406e-06	-9.042924e-09	-3.317218e+01	-5.923283e+02
2.900000e-06	-4.915716e-06	-9.181558e-09	-3.381404e+01	-6.016111e+02
2.910000e-06	-5.007265e-06	-9.316380e-09	-3.444378e+01	-6.105142e+02
2.920000e-06	-5.097002e-06	-9.447145e-09	-3.506106e+01	-6.190609e+02
2.930000e-06	-5.184900e-06	-9.572900e-09	-3.566569e+01	-6.272709e+02
2.940000e-06	-5.270844e-06	-9.693612e-09	-3.625688e+01	-6.351587e+02
