# Temperatura_=_55.3
# Concentracion g/m^3_=_15000.0
# C_Vs_to_Am_M_A/Vsm_=_65563218390.804596
# pendiente_HvsI_1/m_=_3716.3
# ordenada_HvsI_A/m_=_1297.0
# frecuencia_Hz_=_301962.33375593025

Tiempo_(s)	Campo_(V.s)	Magnetizacion_(V.s)	Campo_(kA/m)	Magnetizacion_(A/m)
0.000000e+00	-6.850635e-06	-1.083602e-08	-4.747152e+01	-7.094917e+02
1.000000e-08	-6.846896e-06	-1.083198e-08	-4.744561e+01	-7.091719e+02
2.000000e-08	-6.840930e-06	-1.082546e-08	-4.740427e+01	-7.086954e+02
3.000000e-08	-6.832796e-06	-1.082156e-08	-4.734791e+01	-7.080718e+02
4.000000e-08	-6.822292e-06	-1.081581e-08	-4.727512e+01	-7.073162e+02
5.000000e-08	-6.809246e-06	-1.080562e-08	-4.718472e+01	-7.064475e+02
6.000000e-08	-6.793715e-06	-1.078776e-08	-4.707710e+01	-7.054864e+02
7.000000e-08	-6.775889e-06	-1.076768e-08	-4.695357e+01	-7.044533e+02
8.000000e-08	-6.755939e-06	-1.077712e-08	-4.681532e+01	-7.033653e+02
9.000000e-08	-6.733503e-06	-1.079154e-08	-4.665986e+01	-7.022346e+02
1.000000e-07	-6.708246e-06	-1.074779e-08	-4.648484e+01	-7.010670e+02
1.100000e-07	-6.680292e-06	-1.070078e-08	-4.629113e+01	-6.998611e+02
1.200000e-07	-6.650069e-06	-1.067479e-08	-4.608169e+01	-6.986082e+02
1.300000e-07	-6.617940e-06	-1.061441e-08	-4.585906e+01	-6.972937e+02
1.400000e-07	-6.583900e-06	-1.058113e-08	-4.562318e+01	-6.958984e+02
1.500000e-07	-6.547877e-06	-1.064640e-08	-4.537356e+01	-6.944004e+02
1.600000e-07	-6.509775e-06	-1.057468e-08	-4.510953e+01	-6.927772e+02
1.700000e-07	-6.469544e-06	-1.053297e-08	-4.483075e+01	-6.910080e+02
1.800000e-07	-6.426920e-06	-1.056235e-08	-4.453538e+01	-6.890751e+02
1.900000e-07	-6.381830e-06	-1.045851e-08	-4.422293e+01	-6.869654e+02
2.000000e-07	-6.334475e-06	-1.045706e-08	-4.389479e+01	-6.846703e+02
2.100000e-07	-6.284477e-06	-1.042843e-08	-4.354832e+01	-6.821867e+02
2.200000e-07	-6.231777e-06	-1.034231e-08	-4.318314e+01	-6.795155e+02
2.300000e-07	-6.176680e-06	-1.031942e-08	-4.280135e+01	-6.766613e+02
2.400000e-07	-6.119186e-06	-1.027512e-08	-4.240294e+01	-6.736311e+02
2.500000e-07	-6.059365e-06	-1.023918e-08	-4.198841e+01	-6.704330e+02
2.600000e-07	-5.997394e-06	-1.019401e-08	-4.155898e+01	-6.670754e+02
2.700000e-07	-5.933259e-06	-1.011941e-08	-4.111456e+01	-6.635661e+02
2.800000e-07	-5.866891e-06	-1.004788e-08	-4.065466e+01	-6.599115e+02
2.900000e-07	-5.798286e-06	-9.993673e-09	-4.017926e+01	-6.561168e+02
3.000000e-07	-5.727532e-06	-9.966175e-09	-3.968897e+01	-6.521855e+02
3.100000e-07	-5.654622e-06	-9.896196e-09	-3.918374e+01	-6.481201e+02
3.200000e-07	-5.579456e-06	-9.836645e-09	-3.866288e+01	-6.439218e+02
3.300000e-07	-5.501991e-06	-9.763466e-09	-3.812608e+01	-6.395908e+02
3.400000e-07	-5.422346e-06	-9.671099e-09	-3.757418e+01	-6.351268e+02
3.500000e-07	-5.340713e-06	-9.617758e-09	-3.700851e+01	-6.305287e+02
3.600000e-07	-5.257238e-06	-9.554257e-09	-3.643007e+01	-6.257946e+02
3.700000e-07	-5.171988e-06	-9.482168e-09	-3.583932e+01	-6.209218e+02
3.800000e-07	-5.085030e-06	-9.396180e-09	-3.523675e+01	-6.159068e+02
3.900000e-07	-4.996321e-06	-9.317128e-09	-3.462204e+01	-6.107451e+02
4.000000e-07	-4.905809e-06	-9.237069e-09	-3.399484e+01	-6.054314e+02
4.100000e-07	-4.813617e-06	-9.153767e-09	-3.335599e+01	-5.999601e+02
4.200000e-07	-4.719782e-06	-9.067070e-09	-3.270576e+01	-5.943251e+02
4.300000e-07	-4.624282e-06	-8.973797e-09	-3.204399e+01	-5.885207e+02
4.400000e-07	-4.527071e-06	-8.888431e-09	-3.137037e+01	-5.825420e+02
4.500000e-07	-4.428157e-06	-8.795718e-09	-3.068494e+01	-5.763849e+02
4.600000e-07	-4.327672e-06	-8.702026e-09	-2.998863e+01	-5.700468e+02
4.700000e-07	-4.225709e-06	-8.603416e-09	-2.928208e+01	-5.635264e+02
4.800000e-07	-4.122307e-06	-8.492705e-09	-2.856555e+01	-5.568231e+02
4.900000e-07	-4.017469e-06	-8.378530e-09	-2.783907e+01	-5.499373e+02
5.000000e-07	-3.911077e-06	-8.272483e-09	-2.710183e+01	-5.428690e+02
5.100000e-07	-3.803169e-06	-8.169920e-09	-2.635409e+01	-5.356179e+02
5.200000e-07	-3.693916e-06	-8.058461e-09	-2.559702e+01	-5.281821e+02
5.300000e-07	-3.583443e-06	-7.938424e-09	-2.483149e+01	-5.205580e+02
5.400000e-07	-3.471668e-06	-7.814061e-09	-2.405694e+01	-5.127402e+02
5.500000e-07	-3.358401e-06	-7.691611e-09	-2.327206e+01	-5.047214e+02
5.600000e-07	-3.243604e-06	-7.567209e-09	-2.247657e+01	-4.964929e+02
5.700000e-07	-3.127384e-06	-7.439696e-09	-2.167123e+01	-4.880450e+02
5.800000e-07	-3.009917e-06	-7.306573e-09	-2.085724e+01	-4.793684e+02
5.900000e-07	-2.891437e-06	-7.169225e-09	-2.003623e+01	-4.704542e+02
6.000000e-07	-2.771971e-06	-7.029104e-09	-1.920839e+01	-4.612954e+02
6.100000e-07	-2.651488e-06	-6.888547e-09	-1.837350e+01	-4.518863e+02
6.200000e-07	-2.530022e-06	-6.741993e-09	-1.753181e+01	-4.422234e+02
6.300000e-07	-2.407446e-06	-6.585614e-09	-1.668241e+01	-4.323044e+02
6.400000e-07	-2.283873e-06	-6.427896e-09	-1.582612e+01	-4.221278e+02
6.500000e-07	-2.159528e-06	-6.269953e-09	-1.496447e+01	-4.116917e+02
6.600000e-07	-2.034583e-06	-6.108569e-09	-1.409866e+01	-4.009930e+02
6.700000e-07	-1.909047e-06	-5.941904e-09	-1.322876e+01	-3.900262e+02
6.800000e-07	-1.782836e-06	-5.771626e-09	-1.235418e+01	-3.787828e+02
6.900000e-07	-1.656022e-06	-5.595576e-09	-1.147541e+01	-3.672510e+02
7.000000e-07	-1.528607e-06	-5.412519e-09	-1.059249e+01	-3.554163e+02
7.100000e-07	-1.400588e-06	-5.226774e-09	-9.705382e+00	-3.432619e+02
7.200000e-07	-1.272122e-06	-5.038394e-09	-8.815176e+00	-3.307701e+02
7.300000e-07	-1.143304e-06	-4.842174e-09	-7.922533e+00	-3.179233e+02
7.400000e-07	-1.014173e-06	-4.637737e-09	-7.027722e+00	-3.047059e+02
7.500000e-07	-8.847048e-07	-4.429090e-09	-6.130567e+00	-2.911047e+02
7.600000e-07	-7.548913e-07	-4.218440e-09	-5.231024e+00	-2.771099e+02
7.700000e-07	-6.247665e-07	-4.000852e-09	-4.329324e+00	-2.627141e+02
7.800000e-07	-4.943774e-07	-3.774790e-09	-3.425791e+00	-2.479119e+02
7.900000e-07	-3.637757e-07	-3.542808e-09	-2.520786e+00	-2.326973e+02
8.000000e-07	-2.329851e-07	-3.304446e-09	-1.614472e+00	-2.170623e+02
8.100000e-07	-1.020453e-07	-3.061745e-09	-7.071236e-01	-2.009935e+02
8.200000e-07	2.905139e-08	-2.811626e-09	2.013118e-01	-1.844705e+02
8.300000e-07	1.602101e-07	-2.551257e-09	1.110177e+00	-1.674640e+02
8.400000e-07	2.913517e-07	-2.282050e-09	2.018924e+00	-1.499357e+02
8.500000e-07	4.223742e-07	-2.005868e-09	2.926845e+00	-1.318393e+02
8.600000e-07	5.532383e-07	-1.720643e-09	3.833668e+00	-1.131233e+02
8.700000e-07	6.838907e-07	-1.421910e-09	4.739025e+00	-9.373524e+01
8.800000e-07	8.142017e-07	-1.112808e-09	5.642016e+00	-7.362761e+01
8.900000e-07	9.441851e-07	-7.939929e-10	6.542737e+00	-5.276413e+01
9.000000e-07	1.073732e-06	-4.643448e-10	7.440431e+00	-3.112664e+01
9.100000e-07	1.202828e-06	-1.238067e-10	8.335005e+00	-8.721340e+00
9.200000e-07	1.331544e-06	2.275004e-10	9.226940e+00	1.441626e+01
9.300000e-07	1.459885e-06	5.903152e-10	1.011628e+01	3.821825e+01
9.400000e-07	1.587763e-06	9.644557e-10	1.100241e+01	6.258366e+01
9.500000e-07	1.715010e-06	1.343387e-09	1.188417e+01	8.738055e+01
9.600000e-07	1.841629e-06	1.726576e-09	1.276158e+01	1.124507e+02
9.700000e-07	1.967636e-06	2.114369e-09	1.363475e+01	1.376168e+02
9.800000e-07	2.092927e-06	2.502140e-09	1.450295e+01	1.626911e+02
9.900000e-07	2.217526e-06	2.883490e-09	1.536636e+01	1.874855e+02
1.000000e-06	2.341503e-06	3.253697e-09	1.622546e+01	2.118218e+02
1.010000e-06	2.464613e-06	3.612405e-09	1.707855e+01	2.355402e+02
1.020000e-06	2.586533e-06	3.959395e-09	1.792340e+01	2.585075e+02
1.030000e-06	2.707339e-06	4.294695e-09	1.876052e+01	2.806222e+02
1.040000e-06	2.827243e-06	4.616550e-09	1.959140e+01	3.018170e+02
1.050000e-06	2.946130e-06	4.922851e-09	2.041523e+01	3.220586e+02
1.060000e-06	3.063964e-06	5.213856e-09	2.123176e+01	3.413447e+02
1.070000e-06	3.180784e-06	5.493372e-09	2.204127e+01	3.596994e+02
1.080000e-06	3.296374e-06	5.760635e-09	2.284224e+01	3.771665e+02
1.090000e-06	3.410422e-06	6.014705e-09	2.363254e+01	3.938025e+02
1.100000e-06	3.523064e-06	6.255492e-09	2.441310e+01	4.096692e+02
1.110000e-06	3.634510e-06	6.483692e-09	2.518536e+01	4.248281e+02
1.120000e-06	3.744713e-06	6.701756e-09	2.594901e+01	4.393349e+02
1.130000e-06	3.853709e-06	6.911773e-09	2.670430e+01	4.532370e+02
1.140000e-06	3.961609e-06	7.114488e-09	2.745199e+01	4.665717e+02
1.150000e-06	4.068053e-06	7.311425e-09	2.818960e+01	4.793668e+02
1.160000e-06	4.172853e-06	7.501207e-09	2.891581e+01	4.916423e+02
1.170000e-06	4.276196e-06	7.680250e-09	2.963193e+01	5.034128e+02
1.180000e-06	4.378030e-06	7.849518e-09	3.033759e+01	5.146902e+02
1.190000e-06	4.478433e-06	8.009551e-09	3.103333e+01	5.254865e+02
1.200000e-06	4.577240e-06	8.162187e-09	3.171801e+01	5.358159e+02
1.210000e-06	4.674217e-06	8.308682e-09	3.239001e+01	5.456954e+02
1.220000e-06	4.769410e-06	8.451997e-09	3.304965e+01	5.551451e+02
1.230000e-06	4.862938e-06	8.592875e-09	3.369776e+01	5.641874e+02
1.240000e-06	4.954952e-06	8.729776e-09	3.433537e+01	5.728457e+02
1.250000e-06	5.045168e-06	8.862061e-09	3.496053e+01	5.811420e+02
1.260000e-06	5.133403e-06	8.986379e-09	3.557195e+01	5.890958e+02
1.270000e-06	5.219833e-06	9.103074e-09	3.617087e+01	5.967223e+02
1.280000e-06	5.304519e-06	9.215733e-09	3.675770e+01	6.040317e+02
1.290000e-06	5.387368e-06	9.324529e-09	3.733180e+01	6.110299e+02
1.300000e-06	5.468161e-06	9.426160e-09	3.789166e+01	6.177189e+02
1.310000e-06	5.546921e-06	9.519047e-09	3.843742e+01	6.240983e+02
1.320000e-06	5.623731e-06	9.607560e-09	3.896968e+01	6.301681e+02
1.330000e-06	5.698347e-06	9.694977e-09	3.948673e+01	6.359298e+02
1.340000e-06	5.770722e-06	9.777342e-09	3.998825e+01	6.413890e+02
1.350000e-06	5.841057e-06	9.853777e-09	4.047564e+01	6.465558e+02
1.360000e-06	5.909361e-06	9.926501e-09	4.094896e+01	6.514458e+02
1.370000e-06	5.975527e-06	9.996565e-09	4.140745e+01	6.560790e+02
1.380000e-06	6.039448e-06	1.006565e-08	4.185040e+01	6.604788e+02
1.390000e-06	6.101305e-06	1.013135e-08	4.227903e+01	6.646697e+02
1.400000e-06	6.161245e-06	1.019325e-08	4.269439e+01	6.686749e+02
1.410000e-06	6.219019e-06	1.025261e-08	4.309473e+01	6.725139e+02
1.420000e-06	6.274514e-06	1.030886e-08	4.347928e+01	6.762008e+02
1.430000e-06	6.327705e-06	1.036326e-08	4.384787e+01	6.797426e+02
1.440000e-06	6.378266e-06	1.041495e-08	4.419823e+01	6.831390e+02
1.450000e-06	6.426210e-06	1.046268e-08	4.453046e+01	6.863831e+02
1.460000e-06	6.471900e-06	1.050682e-08	4.484707e+01	6.894626e+02
1.470000e-06	6.515482e-06	1.054908e-08	4.514908e+01	6.923622e+02
1.480000e-06	6.556707e-06	1.059047e-08	4.543475e+01	6.950661e+02
1.490000e-06	6.595561e-06	1.062899e-08	4.570398e+01	6.975609e+02
1.500000e-06	6.632247e-06	1.066155e-08	4.595820e+01	6.998371e+02
1.510000e-06	6.666561e-06	1.069048e-08	4.619598e+01	7.018916e+02
1.520000e-06	6.698401e-06	1.071751e-08	4.641661e+01	7.037277e+02
1.530000e-06	6.727977e-06	1.074139e-08	4.662156e+01	7.053552e+02
1.540000e-06	6.755258e-06	1.076298e-08	4.681060e+01	7.067889e+02
1.550000e-06	6.779982e-06	1.078264e-08	4.698193e+01	7.080470e+02
1.560000e-06	6.802187e-06	1.079936e-08	4.713580e+01	7.091484e+02
1.570000e-06	6.822146e-06	1.081320e-08	4.727411e+01	7.101108e+02
1.580000e-06	6.839733e-06	1.082669e-08	4.739597e+01	7.109478e+02
1.590000e-06	6.854709e-06	1.083692e-08	4.749975e+01	7.116681e+02
1.600000e-06	6.867072e-06	1.084397e-08	4.758542e+01	7.122744e+02
1.610000e-06	6.876733e-06	1.085126e-08	4.765237e+01	7.127638e+02
1.620000e-06	6.883814e-06	1.085586e-08	4.770143e+01	7.131288e+02
1.630000e-06	6.888587e-06	1.085869e-08	4.773451e+01	7.133592e+02
1.640000e-06	6.890931e-06	1.085926e-08	4.775075e+01	7.134440e+02
1.650000e-06	6.890732e-06	1.085903e-08	4.774937e+01	7.133743e+02
1.660000e-06	6.888237e-06	1.085323e-08	4.773208e+01	7.131450e+02
1.670000e-06	6.883598e-06	1.084650e-08	4.769994e+01	7.127560e+02
1.680000e-06	6.876647e-06	1.083901e-08	4.765177e+01	7.122138e+02
1.690000e-06	6.867405e-06	1.082781e-08	4.758773e+01	7.115303e+02
1.700000e-06	6.855946e-06	1.081757e-08	4.750832e+01	7.107226e+02
1.710000e-06	6.842074e-06	1.080716e-08	4.741220e+01	7.098105e+02
1.720000e-06	6.825907e-06	1.080077e-08	4.730017e+01	7.088151e+02
1.730000e-06	6.807741e-06	1.075589e-08	4.717428e+01	7.077554e+02
1.740000e-06	6.787036e-06	1.069797e-08	4.703081e+01	7.066468e+02
1.750000e-06	6.762966e-06	1.070812e-08	4.686402e+01	7.054988e+02
1.760000e-06	6.735851e-06	1.070445e-08	4.667612e+01	7.043142e+02
1.770000e-06	6.706335e-06	1.068617e-08	4.647159e+01	7.030884e+02
1.780000e-06	6.674894e-06	1.073148e-08	4.625372e+01	7.018100e+02
1.790000e-06	6.642098e-06	1.066848e-08	4.602646e+01	7.004623e+02
1.800000e-06	6.607553e-06	1.060147e-08	4.578708e+01	6.990245e+02
1.810000e-06	6.570357e-06	1.066440e-08	4.552933e+01	6.974744e+02
1.820000e-06	6.530833e-06	1.058822e-08	4.525545e+01	6.957898e+02
1.830000e-06	6.489248e-06	1.059126e-08	4.496728e+01	6.939512e+02
1.840000e-06	6.445407e-06	1.059352e-08	4.466349e+01	6.919427e+02
1.850000e-06	6.399317e-06	1.046694e-08	4.434411e+01	6.897531e+02
1.860000e-06	6.350764e-06	1.050830e-08	4.400766e+01	6.873762e+02
1.870000e-06	6.299899e-06	1.044890e-08	4.365519e+01	6.848106e+02
1.880000e-06	6.246548e-06	1.039828e-08	4.328549e+01	6.820591e+02
1.890000e-06	6.190533e-06	1.038624e-08	4.289734e+01	6.791273e+02
1.900000e-06	6.132261e-06	1.027018e-08	4.249355e+01	6.760230e+02
1.910000e-06	6.071634e-06	1.026723e-08	4.207343e+01	6.727543e+02
1.920000e-06	6.008675e-06	1.019741e-08	4.163715e+01	6.693297e+02
1.930000e-06	5.943617e-06	1.016227e-08	4.118634e+01	6.657562e+02
1.940000e-06	5.876474e-06	1.013039e-08	4.072107e+01	6.620398e+02
1.950000e-06	5.807086e-06	1.001829e-08	4.024024e+01	6.581850e+02
1.960000e-06	5.735229e-06	9.985659e-09	3.974231e+01	6.541949e+02
1.970000e-06	5.661241e-06	9.880012e-09	3.922961e+01	6.500712e+02
1.980000e-06	5.585033e-06	9.854481e-09	3.870152e+01	6.458148e+02
1.990000e-06	5.506497e-06	9.807504e-09	3.815731e+01	6.414258e+02
2.000000e-06	5.425999e-06	9.710426e-09	3.759949e+01	6.369033e+02
2.010000e-06	5.343701e-06	9.656659e-09	3.702921e+01	6.322460e+02
2.020000e-06	5.259650e-06	9.555496e-09	3.644678e+01	6.274516e+02
2.030000e-06	5.173564e-06	9.493098e-09	3.585025e+01	6.225172e+02
2.040000e-06	5.085488e-06	9.408477e-09	3.523992e+01	6.174387e+02
2.050000e-06	4.995756e-06	9.339653e-09	3.461812e+01	6.122114e+02
2.060000e-06	4.904492e-06	9.257023e-09	3.398571e+01	6.068297e+02
2.070000e-06	4.811531e-06	9.164390e-09	3.334154e+01	6.012878e+02
2.080000e-06	4.716729e-06	9.084469e-09	3.268461e+01	5.955797e+02
2.090000e-06	4.620242e-06	8.992994e-09	3.201600e+01	5.897000e+02
2.100000e-06	4.522212e-06	8.912333e-09	3.133669e+01	5.836440e+02
2.110000e-06	4.422760e-06	8.805018e-09	3.064755e+01	5.774085e+02
2.120000e-06	4.321728e-06	8.709724e-09	2.994744e+01	5.709912e+02
2.130000e-06	4.218964e-06	8.611413e-09	2.923534e+01	5.643912e+02
2.140000e-06	4.114572e-06	8.515937e-09	2.851195e+01	5.576084e+02
2.150000e-06	4.008770e-06	8.409616e-09	2.777880e+01	5.506432e+02
2.160000e-06	3.901736e-06	8.297935e-09	2.703710e+01	5.434956e+02
2.170000e-06	3.793387e-06	8.184867e-09	2.628630e+01	5.361644e+02
2.180000e-06	3.683644e-06	8.065143e-09	2.552583e+01	5.286473e+02
2.190000e-06	3.572433e-06	7.953286e-09	2.475520e+01	5.209398e+02
2.200000e-06	3.459816e-06	7.837359e-09	2.397482e+01	5.130357e+02
2.210000e-06	3.345876e-06	7.716270e-09	2.318527e+01	5.049269e+02
2.220000e-06	3.230593e-06	7.581181e-09	2.238641e+01	4.966044e+02
2.230000e-06	3.113891e-06	7.449608e-09	2.157772e+01	4.880584e+02
2.240000e-06	2.995889e-06	7.315746e-09	2.076003e+01	4.792798e+02
2.250000e-06	2.876695e-06	7.182512e-09	1.993407e+01	4.702604e+02
2.260000e-06	2.756349e-06	7.042338e-09	1.910014e+01	4.609937e+02
2.270000e-06	2.635072e-06	6.898254e-09	1.825975e+01	4.514750e+02
2.280000e-06	2.512908e-06	6.751909e-09	1.741321e+01	4.417013e+02
2.290000e-06	2.389839e-06	6.599681e-09	1.656041e+01	4.316709e+02
2.300000e-06	2.265947e-06	6.444360e-09	1.570189e+01	4.213822e+02
2.310000e-06	2.141385e-06	6.284318e-09	1.483874e+01	4.108330e+02
2.320000e-06	2.016139e-06	6.118327e-09	1.397085e+01	4.000190e+02
2.330000e-06	1.890095e-06	5.944798e-09	1.309743e+01	3.889337e+02
2.340000e-06	1.763269e-06	5.769398e-09	1.221858e+01	3.775671e+02
2.350000e-06	1.635757e-06	5.592108e-09	1.133499e+01	3.659063e+02
2.360000e-06	1.507688e-06	5.411701e-09	1.044753e+01	3.539356e+02
2.370000e-06	1.379187e-06	5.224716e-09	9.557083e+00	3.416375e+02
2.380000e-06	1.250329e-06	5.033096e-09	8.664160e+00	3.289944e+02
2.390000e-06	1.121127e-06	4.834363e-09	7.768860e+00	3.159894e+02
2.400000e-06	9.916049e-07	4.629264e-09	6.871333e+00	3.026078e+02
2.410000e-06	8.617877e-07	4.420142e-09	5.971763e+00	2.888378e+02
2.420000e-06	7.316687e-07	4.203334e-09	5.070103e+00	2.746707e+02
2.430000e-06	6.013165e-07	3.980082e-09	4.166827e+00	2.601002e+02
2.440000e-06	4.707873e-07	3.751409e-09	3.262324e+00	2.451208e+02
2.450000e-06	3.401033e-07	3.516859e-09	2.356748e+00	2.297262e+02
2.460000e-06	2.092400e-07	3.275603e-09	1.449930e+00	2.139061e+02
2.470000e-06	7.822313e-08	3.027251e-09	5.420477e-01	1.976444e+02
2.480000e-06	-5.276677e-08	2.773596e-09	-3.656477e-01	1.809171e+02
2.490000e-06	-1.837016e-07	2.513772e-09	-1.272961e+00	1.636910e+02
2.500000e-06	-3.145795e-07	2.242242e-09	-2.179881e+00	1.459241e+02
2.510000e-06	-4.453814e-07	1.956807e-09	-3.086273e+00	1.275675e+02
2.520000e-06	-5.760898e-07	1.663712e-09	-3.992018e+00	1.085685e+02
2.530000e-06	-7.066271e-07	1.362796e-09	-4.896577e+00	8.887623e+01
2.540000e-06	-8.369506e-07	1.052068e-09	-5.799654e+00	6.844702e+01
2.550000e-06	-9.669434e-07	7.322831e-10	-6.700441e+00	4.725158e+01
2.560000e-06	-1.096552e-06	4.013077e-10	-7.598566e+00	2.528147e+01
2.570000e-06	-1.225819e-06	5.744939e-11	-8.494323e+00	2.554954e+00
2.580000e-06	-1.354694e-06	-2.957222e-10	-9.387362e+00	-2.087882e+01
2.590000e-06	-1.483154e-06	-6.577511e-10	-1.027752e+01	-4.493770e+01
2.600000e-06	-1.611224e-06	-1.031072e-09	-1.116499e+01	-6.950704e+01
2.610000e-06	-1.738720e-06	-1.413840e-09	-1.204847e+01	-9.444291e+01
2.620000e-06	-1.865406e-06	-1.800401e-09	-1.292635e+01	-1.195779e+02
2.630000e-06	-1.991190e-06	-2.184497e-09	-1.379796e+01	-1.447290e+02
2.640000e-06	-2.116151e-06	-2.565559e-09	-1.466388e+01	-1.697073e+02
2.650000e-06	-2.240377e-06	-2.942922e-09	-1.552471e+01	-1.943275e+02
2.660000e-06	-2.363798e-06	-3.312271e-09	-1.637995e+01	-2.184183e+02
2.670000e-06	-2.486263e-06	-3.669983e-09	-1.722858e+01	-2.418305e+02
2.680000e-06	-2.607751e-06	-4.014212e-09	-1.807043e+01	-2.644441e+02
2.690000e-06	-2.728376e-06	-4.344100e-09	-1.890630e+01	-2.861720e+02
2.700000e-06	-2.848083e-06	-4.658601e-09	-1.973581e+01	-3.069616e+02
2.710000e-06	-2.966514e-06	-4.958367e-09	-2.055648e+01	-3.267934e+02
2.720000e-06	-3.083640e-06	-5.247239e-09	-2.136810e+01	-3.456773e+02
2.730000e-06	-3.199674e-06	-5.524817e-09	-2.217216e+01	-3.636466e+02
2.740000e-06	-3.314468e-06	-5.788659e-09	-2.296763e+01	-3.807513e+02
2.750000e-06	-3.427861e-06	-6.039942e-09	-2.375339e+01	-3.970511e+02
2.760000e-06	-3.539817e-06	-6.280102e-09	-2.452919e+01	-4.126083e+02
2.770000e-06	-3.650482e-06	-6.508870e-09	-2.529604e+01	-4.274825e+02
2.780000e-06	-3.759858e-06	-6.725906e-09	-2.605396e+01	-4.417262e+02
2.790000e-06	-3.867986e-06	-6.934615e-09	-2.680323e+01	-4.553823e+02
2.800000e-06	-3.974920e-06	-7.135753e-09	-2.754424e+01	-4.684840e+02
2.810000e-06	-4.080513e-06	-7.329823e-09	-2.827594e+01	-4.810556e+02
2.820000e-06	-4.184703e-06	-7.517292e-09	-2.899793e+01	-4.931142e+02
2.830000e-06	-4.287197e-06	-7.695132e-09	-2.970816e+01	-5.046731e+02
2.840000e-06	-4.388050e-06	-7.864181e-09	-3.040702e+01	-5.157440e+02
2.850000e-06	-4.487469e-06	-8.025658e-09	-3.109594e+01	-5.263395e+02
2.860000e-06	-4.585375e-06	-8.180354e-09	-3.177438e+01	-5.364750e+02
2.870000e-06	-4.681769e-06	-8.326976e-09	-3.244235e+01	-5.461688e+02
2.880000e-06	-4.776393e-06	-8.466657e-09	-3.309805e+01	-5.554423e+02
2.890000e-06	-4.869198e-06	-8.600971e-09	-3.374114e+01	-5.643184e+02
2.900000e-06	-4.960288e-06	-8.729972e-09	-3.437235e+01	-5.728201e+02
2.910000e-06	-5.049586e-06	-8.854597e-09	-3.499114e+01	-5.809687e+02
2.920000e-06	-5.137066e-06	-8.973617e-09	-3.559733e+01	-5.887817e+02
2.930000e-06	-5.222577e-06	-9.088385e-09	-3.618988e+01	-5.962725e+02
2.940000e-06	-5.306159e-06	-9.199261e-09	-3.676906e+01	-6.034493e+02
