# Temperatura_=_44.53
# Concentracion g/m^3_=_15000.0
# C_Vs_to_Am_M_A/Vsm_=_65563218390.804596
# pendiente_HvsI_1/m_=_3716.3
# ordenada_HvsI_A/m_=_1297.0
# frecuencia_Hz_=_301961.43275363004

Tiempo_(s)	Campo_(V.s)	Magnetizacion_(V.s)	Campo_(kA/m)	Magnetizacion_(A/m)
0.000000e+00	-6.885650e-06	-1.036729e-08	-4.748811e+01	-6.790968e+02
1.000000e-08	-6.883885e-06	-1.036891e-08	-4.747594e+01	-6.789511e+02
2.000000e-08	-6.879752e-06	-1.036733e-08	-4.744743e+01	-6.786465e+02
3.000000e-08	-6.873410e-06	-1.036307e-08	-4.740370e+01	-6.781839e+02
4.000000e-08	-6.864809e-06	-1.035397e-08	-4.734438e+01	-6.775708e+02
5.000000e-08	-6.853825e-06	-1.034358e-08	-4.726863e+01	-6.768210e+02
6.000000e-08	-6.840312e-06	-1.033175e-08	-4.717543e+01	-6.759538e+02
7.000000e-08	-6.824275e-06	-1.031831e-08	-4.706483e+01	-6.749915e+02
8.000000e-08	-6.806069e-06	-1.031973e-08	-4.693927e+01	-6.739573e+02
9.000000e-08	-6.785725e-06	-1.032514e-08	-4.679896e+01	-6.728731e+02
1.000000e-07	-6.762824e-06	-1.028587e-08	-4.664102e+01	-6.717564e+02
1.100000e-07	-6.737082e-06	-1.026273e-08	-4.646349e+01	-6.706189e+02
1.200000e-07	-6.708758e-06	-1.024630e-08	-4.626815e+01	-6.694652e+02
1.300000e-07	-6.678245e-06	-1.019472e-08	-4.605771e+01	-6.682922e+02
1.400000e-07	-6.645691e-06	-1.016673e-08	-4.583320e+01	-6.670893e+02
1.500000e-07	-6.611174e-06	-1.020704e-08	-4.559514e+01	-6.658399e+02
1.600000e-07	-6.574717e-06	-1.011060e-08	-4.534371e+01	-6.645227e+02
1.700000e-07	-6.536258e-06	-1.009987e-08	-4.507847e+01	-6.631138e+02
1.800000e-07	-6.495594e-06	-1.013324e-08	-4.479802e+01	-6.615893e+02
1.900000e-07	-6.452440e-06	-1.002720e-08	-4.450040e+01	-6.599264e+02
2.000000e-07	-6.406815e-06	-1.007060e-08	-4.418574e+01	-6.581062e+02
2.100000e-07	-6.358805e-06	-1.004197e-08	-4.385463e+01	-6.561139e+02
2.200000e-07	-6.308162e-06	-9.985605e-09	-4.350537e+01	-6.539402e+02
2.300000e-07	-6.254879e-06	-9.955066e-09	-4.313789e+01	-6.515809e+02
2.400000e-07	-6.199140e-06	-9.861235e-09	-4.275347e+01	-6.490368e+02
2.500000e-07	-6.141019e-06	-9.835810e-09	-4.235263e+01	-6.463126e+02
2.600000e-07	-6.080627e-06	-9.811090e-09	-4.193613e+01	-6.434160e+02
2.700000e-07	-6.018048e-06	-9.761780e-09	-4.150454e+01	-6.403566e+02
2.800000e-07	-5.953261e-06	-9.718096e-09	-4.105772e+01	-6.371445e+02
2.900000e-07	-5.886263e-06	-9.659280e-09	-4.059566e+01	-6.337897e+02
3.000000e-07	-5.817098e-06	-9.602441e-09	-4.011866e+01	-6.303009e+02
3.100000e-07	-5.745784e-06	-9.527830e-09	-3.962682e+01	-6.266850e+02
3.200000e-07	-5.672244e-06	-9.509937e-09	-3.911964e+01	-6.229469e+02
3.300000e-07	-5.596366e-06	-9.458617e-09	-3.859634e+01	-6.190894e+02
3.400000e-07	-5.518211e-06	-9.376019e-09	-3.805732e+01	-6.151133e+02
3.500000e-07	-5.437900e-06	-9.327348e-09	-3.750345e+01	-6.110173e+02
3.600000e-07	-5.355653e-06	-9.256602e-09	-3.693622e+01	-6.067985e+02
3.700000e-07	-5.271620e-06	-9.192526e-09	-3.635667e+01	-6.024527e+02
3.800000e-07	-5.185863e-06	-9.111946e-09	-3.576523e+01	-5.979747e+02
3.900000e-07	-5.098350e-06	-9.047166e-09	-3.516168e+01	-5.933586e+02
4.000000e-07	-5.008926e-06	-8.978559e-09	-3.454495e+01	-5.885982e+02
4.100000e-07	-4.917691e-06	-8.907797e-09	-3.391573e+01	-5.836875e+02
4.200000e-07	-4.824802e-06	-8.839949e-09	-3.327511e+01	-5.786208e+02
4.300000e-07	-4.730291e-06	-8.755601e-09	-3.262330e+01	-5.733933e+02
4.400000e-07	-4.634137e-06	-8.663562e-09	-3.196015e+01	-5.680010e+02
4.500000e-07	-4.536183e-06	-8.562836e-09	-3.128459e+01	-5.624409e+02
4.600000e-07	-4.436540e-06	-8.480996e-09	-3.059739e+01	-5.567112e+02
4.700000e-07	-4.335386e-06	-8.402967e-09	-2.989976e+01	-5.508108e+02
4.800000e-07	-4.232778e-06	-8.316347e-09	-2.919211e+01	-5.447394e+02
4.900000e-07	-4.128681e-06	-8.221466e-09	-2.847418e+01	-5.384965e+02
5.000000e-07	-4.022960e-06	-8.118171e-09	-2.774506e+01	-5.320814e+02
5.100000e-07	-3.915720e-06	-8.008930e-09	-2.700546e+01	-5.254924e+02
5.200000e-07	-3.807099e-06	-7.905404e-09	-2.625634e+01	-5.187266e+02
5.300000e-07	-3.697223e-06	-7.806043e-09	-2.549856e+01	-5.117793e+02
5.400000e-07	-3.586111e-06	-7.696696e-09	-2.473225e+01	-5.046443e+02
5.500000e-07	-3.473518e-06	-7.582298e-09	-2.395574e+01	-4.973139e+02
5.600000e-07	-3.359345e-06	-7.465838e-09	-2.316832e+01	-4.897790e+02
5.700000e-07	-3.243694e-06	-7.348464e-09	-2.237071e+01	-4.820305e+02
5.800000e-07	-3.126695e-06	-7.225315e-09	-2.156381e+01	-4.740590e+02
5.900000e-07	-3.008584e-06	-7.098645e-09	-2.074924e+01	-4.658564e+02
6.000000e-07	-2.889466e-06	-6.969163e-09	-1.992772e+01	-4.574157e+02
6.100000e-07	-2.769292e-06	-6.838333e-09	-1.909891e+01	-4.487318e+02
6.200000e-07	-2.648106e-06	-6.707656e-09	-1.826314e+01	-4.398013e+02
6.300000e-07	-2.525880e-06	-6.571242e-09	-1.742018e+01	-4.306223e+02
6.400000e-07	-2.402581e-06	-6.422934e-09	-1.656983e+01	-4.211935e+02
6.500000e-07	-2.278432e-06	-6.267599e-09	-1.571361e+01	-4.115135e+02
6.600000e-07	-2.153580e-06	-6.112196e-09	-1.485255e+01	-4.015799e+02
6.700000e-07	-2.028049e-06	-5.957749e-09	-1.398680e+01	-3.913879e+02
6.800000e-07	-1.901905e-06	-5.802606e-09	-1.311682e+01	-3.809303e+02
6.900000e-07	-1.775096e-06	-5.641748e-09	-1.224227e+01	-3.701963e+02
7.000000e-07	-1.647557e-06	-5.473599e-09	-1.136267e+01	-3.591723e+02
7.100000e-07	-1.519338e-06	-5.295726e-09	-1.047839e+01	-3.478423e+02
7.200000e-07	-1.390605e-06	-5.115748e-09	-9.590554e+00	-3.361889e+02
7.300000e-07	-1.261475e-06	-4.936969e-09	-8.699990e+00	-3.241944e+02
7.400000e-07	-1.131995e-06	-4.752345e-09	-7.807006e+00	-3.118426e+02
7.500000e-07	-1.002185e-06	-4.557329e-09	-6.911750e+00	-2.991197e+02
7.600000e-07	-8.720367e-07	-4.356723e-09	-6.014157e+00	-2.860152e+02
7.700000e-07	-7.415709e-07	-4.152691e-09	-5.114376e+00	-2.725219e+02
7.800000e-07	-6.108054e-07	-3.941471e-09	-4.212529e+00	-2.586355e+02
7.900000e-07	-4.798063e-07	-3.723740e-09	-3.309069e+00	-2.443532e+02
8.000000e-07	-3.485899e-07	-3.499848e-09	-2.404112e+00	-2.296711e+02
8.100000e-07	-2.171905e-07	-3.271042e-09	-1.497893e+00	-2.145828e+02
8.200000e-07	-8.567013e-08	-3.037421e-09	-5.908393e-01	-1.990758e+02
8.300000e-07	4.595959e-08	-2.797289e-09	3.169685e-01	-1.831302e+02
8.400000e-07	1.775812e-07	-2.547316e-09	1.224720e+00	-1.667170e+02
8.500000e-07	3.090965e-07	-2.288248e-09	2.131739e+00	-1.497978e+02
8.600000e-07	4.404921e-07	-2.021628e-09	3.037932e+00	-1.323267e+02
8.700000e-07	5.717860e-07	-1.745204e-09	3.943424e+00	-1.142524e+02
8.800000e-07	7.029185e-07	-1.456006e-09	4.847802e+00	-9.552328e+01
8.900000e-07	8.338340e-07	-1.157249e-09	5.750685e+00	-7.609272e+01
9.000000e-07	9.644078e-07	-8.512283e-10	6.651210e+00	-5.592546e+01
9.100000e-07	1.094541e-06	-5.339393e-10	7.548695e+00	-3.500415e+01
9.200000e-07	1.224306e-06	-2.058411e-10	8.443644e+00	-1.333525e+01
9.300000e-07	1.353690e-06	1.339674e-10	9.335965e+00	9.046224e+00
9.400000e-07	1.482662e-06	4.828429e-10	1.022544e+01	3.207397e+01
9.500000e-07	1.611100e-06	8.432599e-10	1.111124e+01	5.564990e+01
9.600000e-07	1.738894e-06	1.212569e-09	1.199259e+01	7.964617e+01
9.700000e-07	1.865976e-06	1.587368e-09	1.286903e+01	1.039099e+02
9.800000e-07	1.992288e-06	1.965519e-09	1.374017e+01	1.282697e+02
9.900000e-07	2.117887e-06	2.339386e-09	1.460639e+01	1.525447e+02
1.000000e-06	2.242891e-06	2.706620e-09	1.546850e+01	1.765533e+02
1.010000e-06	2.367247e-06	3.063136e-09	1.632614e+01	2.001233e+02
1.020000e-06	2.490711e-06	3.408930e-09	1.717763e+01	2.231000e+02
1.030000e-06	2.613176e-06	3.746144e-09	1.802223e+01	2.453543e+02
1.040000e-06	2.734627e-06	4.073440e-09	1.885984e+01	2.667867e+02
1.050000e-06	2.854991e-06	4.387376e-09	1.968995e+01	2.873309e+02
1.060000e-06	2.974289e-06	4.684489e-09	2.051271e+01	3.069529e+02
1.070000e-06	3.092576e-06	4.968300e-09	2.132850e+01	3.256489e+02
1.080000e-06	3.209765e-06	5.239499e-09	2.213672e+01	3.434405e+02
1.090000e-06	3.325700e-06	5.497169e-09	2.293628e+01	3.603688e+02
1.100000e-06	3.440298e-06	5.741924e-09	2.372663e+01	3.764876e+02
1.110000e-06	3.553533e-06	5.974967e-09	2.450758e+01	3.918566e+02
1.120000e-06	3.665365e-06	6.196671e-09	2.527884e+01	4.065354e+02
1.130000e-06	3.775917e-06	6.409523e-09	2.604129e+01	4.205789e+02
1.140000e-06	3.885286e-06	6.614274e-09	2.679557e+01	4.340339e+02
1.150000e-06	3.993432e-06	6.810459e-09	2.754142e+01	4.469374e+02
1.160000e-06	4.100237e-06	7.000740e-09	2.827802e+01	4.593172e+02
1.170000e-06	4.205528e-06	7.183714e-09	2.900417e+01	4.711925e+02
1.180000e-06	4.309224e-06	7.358832e-09	2.971933e+01	4.825769e+02
1.190000e-06	4.411399e-06	7.523888e-09	3.042400e+01	4.934805e+02
1.200000e-06	4.512046e-06	7.678916e-09	3.111813e+01	5.039127e+02
1.210000e-06	4.611069e-06	7.826429e-09	3.180106e+01	5.138841e+02
1.220000e-06	4.708333e-06	7.968053e-09	3.247185e+01	5.234081e+02
1.230000e-06	4.803813e-06	8.104457e-09	3.313035e+01	5.325012e+02
1.240000e-06	4.897634e-06	8.238519e-09	3.377740e+01	5.411827e+02
1.250000e-06	4.989805e-06	8.371630e-09	3.441308e+01	5.494735e+02
1.260000e-06	5.080281e-06	8.501495e-09	3.503706e+01	5.573947e+02
1.270000e-06	5.168848e-06	8.621649e-09	3.564788e+01	5.649664e+02
1.280000e-06	5.255456e-06	8.733048e-09	3.624519e+01	5.722059e+02
1.290000e-06	5.340232e-06	8.840343e-09	3.682986e+01	5.791275e+02
1.300000e-06	5.423137e-06	8.941825e-09	3.740163e+01	5.857417e+02
1.310000e-06	5.504025e-06	9.035106e-09	3.795949e+01	5.920563e+02
1.320000e-06	5.582947e-06	9.121486e-09	3.850379e+01	5.980769e+02
1.330000e-06	5.659883e-06	9.206126e-09	3.903439e+01	6.038087e+02
1.340000e-06	5.734677e-06	9.288314e-09	3.955022e+01	6.092576e+02
1.350000e-06	5.807252e-06	9.366260e-09	4.005075e+01	6.144319e+02
1.360000e-06	5.877663e-06	9.440394e-09	4.053635e+01	6.193428e+02
1.370000e-06	5.945996e-06	9.511026e-09	4.100762e+01	6.240051e+02
1.380000e-06	6.012189e-06	9.579739e-09	4.146413e+01	6.284361e+02
1.390000e-06	6.076229e-06	9.645541e-09	4.190579e+01	6.326549e+02
1.400000e-06	6.138234e-06	9.707558e-09	4.233343e+01	6.366808e+02
1.410000e-06	6.198170e-06	9.766818e-09	4.274678e+01	6.405314e+02
1.420000e-06	6.255864e-06	9.823308e-09	4.314468e+01	6.442207e+02
1.430000e-06	6.311332e-06	9.876461e-09	4.352722e+01	6.477576e+02
1.440000e-06	6.364484e-06	9.927518e-09	4.389380e+01	6.511452e+02
1.450000e-06	6.415051e-06	9.977392e-09	4.424254e+01	6.543805e+02
1.460000e-06	6.463031e-06	1.002575e-08	4.457345e+01	6.574553e+02
1.470000e-06	6.508733e-06	1.007024e-08	4.488863e+01	6.603576e+02
1.480000e-06	6.552238e-06	1.010987e-08	4.518868e+01	6.630733e+02
1.490000e-06	6.593390e-06	1.014690e-08	4.547249e+01	6.655891e+02
1.500000e-06	6.632129e-06	1.018136e-08	4.573966e+01	6.678942e+02
1.510000e-06	6.668573e-06	1.021159e-08	4.599100e+01	6.699828e+02
1.520000e-06	6.702704e-06	1.023762e-08	4.622639e+01	6.718548e+02
1.530000e-06	6.734375e-06	1.026157e-08	4.644482e+01	6.735168e+02
1.540000e-06	6.763731e-06	1.028470e-08	4.664728e+01	6.749813e+02
1.550000e-06	6.790809e-06	1.030574e-08	4.683403e+01	6.762656e+02
1.560000e-06	6.815336e-06	1.032395e-08	4.700318e+01	6.773896e+02
1.570000e-06	6.837365e-06	1.034037e-08	4.715510e+01	6.783738e+02
1.580000e-06	6.857092e-06	1.035614e-08	4.729116e+01	6.792366e+02
1.590000e-06	6.874363e-06	1.036957e-08	4.741027e+01	6.799925e+02
1.600000e-06	6.889093e-06	1.037792e-08	4.751185e+01	6.806500e+02
1.610000e-06	6.901196e-06	1.038183e-08	4.759533e+01	6.812115e+02
1.620000e-06	6.910582e-06	1.038510e-08	4.766006e+01	6.816731e+02
1.630000e-06	6.917346e-06	1.038917e-08	4.770671e+01	6.820255e+02
1.640000e-06	6.921707e-06	1.039320e-08	4.773678e+01	6.822564e+02
1.650000e-06	6.923732e-06	1.039694e-08	4.775075e+01	6.823520e+02
1.660000e-06	6.923258e-06	1.039499e-08	4.774748e+01	6.823000e+02
1.670000e-06	6.920505e-06	1.039460e-08	4.772850e+01	6.820920e+02
1.680000e-06	6.915511e-06	1.038853e-08	4.769405e+01	6.817246e+02
1.690000e-06	6.908118e-06	1.037755e-08	4.764306e+01	6.812014e+02
1.700000e-06	6.898509e-06	1.036676e-08	4.757680e+01	6.805324e+02
1.710000e-06	6.886670e-06	1.035563e-08	4.749514e+01	6.797337e+02
1.720000e-06	6.872427e-06	1.034609e-08	4.739691e+01	6.788261e+02
1.730000e-06	6.855923e-06	1.031007e-08	4.728309e+01	6.778326e+02
1.740000e-06	6.837281e-06	1.026542e-08	4.715452e+01	6.767761e+02
1.750000e-06	6.815948e-06	1.027584e-08	4.700740e+01	6.756771e+02
1.760000e-06	6.791301e-06	1.025965e-08	4.683742e+01	6.745509e+02
1.770000e-06	6.763724e-06	1.024143e-08	4.664723e+01	6.734067e+02
1.780000e-06	6.733853e-06	1.027929e-08	4.644121e+01	6.722460e+02
1.790000e-06	6.702150e-06	1.020501e-08	4.622257e+01	6.710626e+02
1.800000e-06	6.668968e-06	1.016279e-08	4.599373e+01	6.698435e+02
1.810000e-06	6.633866e-06	1.022844e-08	4.575164e+01	6.685699e+02
1.820000e-06	6.596218e-06	1.012897e-08	4.549199e+01	6.672194e+02
1.830000e-06	6.556251e-06	1.018128e-08	4.521635e+01	6.657677e+02
1.840000e-06	6.514175e-06	1.017062e-08	4.492617e+01	6.641911e+02
1.850000e-06	6.469873e-06	1.003913e-08	4.462063e+01	6.624683e+02
1.860000e-06	6.423265e-06	1.011336e-08	4.429919e+01	6.605817e+02
1.870000e-06	6.374230e-06	1.001514e-08	4.396101e+01	6.585187e+02
1.880000e-06	6.322819e-06	1.001324e-08	4.360645e+01	6.562721e+02
1.890000e-06	6.268837e-06	1.003428e-08	4.323415e+01	6.538396e+02
1.900000e-06	6.212258e-06	9.916231e-09	4.284394e+01	6.512237e+02
1.910000e-06	6.153375e-06	9.931418e-09	4.243785e+01	6.484304e+02
1.920000e-06	6.092213e-06	9.819435e-09	4.201603e+01	6.454684e+02
1.930000e-06	6.028794e-06	9.771298e-09	4.157865e+01	6.423476e+02
1.940000e-06	5.963193e-06	9.774097e-09	4.112622e+01	6.390782e+02
1.950000e-06	5.895444e-06	9.703391e-09	4.065898e+01	6.356695e+02
1.960000e-06	5.825403e-06	9.685902e-09	4.017593e+01	6.321298e+02
1.970000e-06	5.752989e-06	9.566766e-09	3.967652e+01	6.284651e+02
1.980000e-06	5.678383e-06	9.545142e-09	3.916198e+01	6.246797e+02
1.990000e-06	5.601464e-06	9.467245e-09	3.863149e+01	6.207754e+02
2.000000e-06	5.522287e-06	9.392084e-09	3.808544e+01	6.167522e+02
2.010000e-06	5.441153e-06	9.368200e-09	3.752588e+01	6.126082e+02
2.020000e-06	5.358239e-06	9.274989e-09	3.695405e+01	6.083398e+02
2.030000e-06	5.273516e-06	9.228930e-09	3.636974e+01	6.039425e+02
2.040000e-06	5.186732e-06	9.135673e-09	3.577122e+01	5.994107e+02
2.050000e-06	5.098015e-06	9.081402e-09	3.515937e+01	5.947384e+02
2.060000e-06	5.007688e-06	8.987466e-09	3.453641e+01	5.899194e+02
2.070000e-06	4.915797e-06	8.901038e-09	3.390267e+01	5.849479e+02
2.080000e-06	4.822129e-06	8.843662e-09	3.325667e+01	5.798183e+02
2.090000e-06	4.726624e-06	8.767384e-09	3.259800e+01	5.745262e+02
2.100000e-06	4.629458e-06	8.698342e-09	3.192788e+01	5.690680e+02
2.110000e-06	4.530837e-06	8.591251e-09	3.124772e+01	5.634412e+02
2.120000e-06	4.430743e-06	8.515495e-09	3.055741e+01	5.576443e+02
2.130000e-06	4.328950e-06	8.411158e-09	2.985538e+01	5.516766e+02
2.140000e-06	4.225482e-06	8.313807e-09	2.914179e+01	5.455376e+02
2.150000e-06	4.120456e-06	8.226145e-09	2.841746e+01	5.392269e+02
2.160000e-06	4.014045e-06	8.140101e-09	2.768358e+01	5.327435e+02
2.170000e-06	3.906301e-06	8.040965e-09	2.694050e+01	5.260853e+02
2.180000e-06	3.797204e-06	7.926311e-09	2.618810e+01	5.192486e+02
2.190000e-06	3.686646e-06	7.817593e-09	2.542561e+01	5.122282e+02
2.200000e-06	3.574629e-06	7.701957e-09	2.465307e+01	5.050171e+02
2.210000e-06	3.461300e-06	7.596071e-09	2.387147e+01	4.976072e+02
2.220000e-06	3.346655e-06	7.479662e-09	2.308080e+01	4.899893e+02
2.230000e-06	3.230611e-06	7.365555e-09	2.228048e+01	4.821540e+02
2.240000e-06	3.113107e-06	7.237650e-09	2.147010e+01	4.740924e+02
2.250000e-06	2.994356e-06	7.109676e-09	2.065111e+01	4.657968e+02
2.260000e-06	2.874453e-06	6.976366e-09	1.982417e+01	4.572608e+02
2.270000e-06	2.753475e-06	6.842218e-09	1.898983e+01	4.484801e+02
2.280000e-06	2.631522e-06	6.709949e-09	1.814876e+01	4.394519e+02
2.290000e-06	2.508731e-06	6.575715e-09	1.730191e+01	4.301746e+02
2.300000e-06	2.385086e-06	6.437433e-09	1.644917e+01	4.206471e+02
2.310000e-06	2.260530e-06	6.288619e-09	1.559015e+01	4.108677e+02
2.320000e-06	2.135269e-06	6.133069e-09	1.472626e+01	4.008330e+02
2.330000e-06	2.009296e-06	5.967164e-09	1.385747e+01	3.905375e+02
2.340000e-06	1.882587e-06	5.800979e-09	1.298359e+01	3.799725e+02
2.350000e-06	1.755166e-06	5.634389e-09	1.210481e+01	3.691261e+02
2.360000e-06	1.627062e-06	5.471249e-09	1.122133e+01	3.579837e+02
2.370000e-06	1.498393e-06	5.302126e-09	1.033393e+01	3.465285e+02
2.380000e-06	1.369283e-06	5.124581e-09	9.443506e+00	3.347429e+02
2.390000e-06	1.239800e-06	4.940618e-09	8.550500e+00	3.226096e+02
2.400000e-06	1.109978e-06	4.745634e-09	7.655164e+00	3.101133e+02
2.410000e-06	9.798342e-07	4.543276e-09	6.757601e+00	2.972413e+02
2.420000e-06	8.494148e-07	4.337998e-09	5.858140e+00	2.839845e+02
2.430000e-06	7.188107e-07	4.131767e-09	4.957406e+00	2.703369e+02
2.440000e-06	5.879449e-07	3.920693e-09	4.054867e+00	2.562951e+02
2.450000e-06	4.568014e-07	3.700927e-09	3.150412e+00	2.418560e+02
2.460000e-06	3.255283e-07	3.473663e-09	2.245064e+00	2.270152e+02
2.470000e-06	1.941368e-07	3.240113e-09	1.338899e+00	2.117640e+02
2.480000e-06	6.259736e-08	3.001612e-09	4.317138e-01	1.960873e+02
2.490000e-06	-6.897198e-08	2.757733e-09	-4.756775e-01	1.799617e+02
2.500000e-06	-2.004703e-07	2.505103e-09	-1.382579e+00	1.633546e+02
2.510000e-06	-3.318535e-07	2.239900e-09	-2.288687e+00	1.462242e+02
2.520000e-06	-4.631654e-07	1.961420e-09	-3.194303e+00	1.285221e+02
2.530000e-06	-5.944121e-07	1.676050e-09	-4.099469e+00	1.101963e+02
2.540000e-06	-7.254378e-07	1.384658e-09	-5.003111e+00	9.119649e+01
2.550000e-06	-8.562339e-07	1.085915e-09	-5.905170e+00	7.147963e+01
2.560000e-06	-9.867512e-07	7.790017e-10	-6.805305e+00	5.101677e+01
2.570000e-06	-1.116922e-06	4.608443e-10	-7.703053e+00	2.979925e+01
2.580000e-06	-1.246786e-06	1.311594e-10	-8.598683e+00	7.844308e+00
2.590000e-06	-1.376265e-06	-2.093387e-10	-9.491659e+00	-1.480098e+01
2.600000e-06	-1.505269e-06	-5.599515e-10	-1.038136e+01	-3.805775e+01
2.610000e-06	-1.633773e-06	-9.231098e-10	-1.126761e+01	-6.181581e+01
2.620000e-06	-1.761689e-06	-1.297015e-09	-1.214980e+01	-8.593681e+01
2.630000e-06	-1.888888e-06	-1.673023e-09	-1.302705e+01	-1.102597e+02
2.640000e-06	-2.015339e-06	-2.044545e-09	-1.389915e+01	-1.346083e+02
2.650000e-06	-2.140993e-06	-2.410254e-09	-1.476574e+01	-1.588002e+02
2.660000e-06	-2.265798e-06	-2.773537e-09	-1.562648e+01	-1.826565e+02
2.670000e-06	-2.389711e-06	-3.131213e-09	-1.648107e+01	-2.060108e+02
2.680000e-06	-2.512656e-06	-3.479113e-09	-1.732898e+01	-2.287178e+02
2.690000e-06	-2.634626e-06	-3.814409e-09	-1.817017e+01	-2.506595e+02
2.700000e-06	-2.755669e-06	-4.133610e-09	-1.900496e+01	-2.717493e+02
2.710000e-06	-2.875768e-06	-4.437677e-09	-1.983325e+01	-2.919337e+02
2.720000e-06	-2.994774e-06	-4.728805e-09	-2.065399e+01	-3.111911e+02
2.730000e-06	-3.112572e-06	-5.010622e-09	-2.146641e+01	-3.295283e+02
2.740000e-06	-3.229064e-06	-5.281710e-09	-2.226981e+01	-3.469752e+02
2.750000e-06	-3.344206e-06	-5.538528e-09	-2.306392e+01	-3.635788e+02
2.760000e-06	-3.458022e-06	-5.781332e-09	-2.384887e+01	-3.793960e+02
2.770000e-06	-3.570478e-06	-6.011269e-09	-2.462444e+01	-3.944871e+02
2.780000e-06	-3.681545e-06	-6.231129e-09	-2.539043e+01	-4.089105e+02
2.790000e-06	-3.791316e-06	-6.441622e-09	-2.614749e+01	-4.227180e+02
2.800000e-06	-3.899820e-06	-6.644467e-09	-2.689580e+01	-4.359527e+02
2.810000e-06	-4.007031e-06	-6.840681e-09	-2.763520e+01	-4.486479e+02
2.820000e-06	-4.112966e-06	-7.029383e-09	-2.836580e+01	-4.608278e+02
2.830000e-06	-4.217430e-06	-7.210964e-09	-2.908626e+01	-4.725092e+02
2.840000e-06	-4.320267e-06	-7.383143e-09	-2.979549e+01	-4.837038e+02
2.850000e-06	-4.421460e-06	-7.545017e-09	-3.049339e+01	-4.944212e+02
2.860000e-06	-4.521058e-06	-7.697536e-09	-3.118028e+01	-5.046712e+02
2.870000e-06	-4.619223e-06	-7.843327e-09	-3.185730e+01	-5.144653e+02
2.880000e-06	-4.715840e-06	-7.982817e-09	-3.252363e+01	-5.238182e+02
2.890000e-06	-4.810737e-06	-8.116683e-09	-3.317811e+01	-5.327474e+02
2.900000e-06	-4.903861e-06	-8.246601e-09	-3.382035e+01	-5.412731e+02
2.910000e-06	-4.995145e-06	-8.371549e-09	-3.444991e+01	-5.494164e+02
2.920000e-06	-5.084662e-06	-8.492107e-09	-3.506727e+01	-5.571983e+02
2.930000e-06	-5.172348e-06	-8.607397e-09	-3.567202e+01	-5.646378e+02
2.940000e-06	-5.258027e-06	-8.716962e-09	-3.626292e+01	-5.717512e+02
