# Temperatura_=_79.7
# Concentracion g/m^3_=_15000.0
# C_Vs_to_Am_M_A/Vsm_=_65563218390.804596
# pendiente_HvsI_1/m_=_3716.3
# ordenada_HvsI_A/m_=_1297.0
# frecuencia_Hz_=_301580.43203883193

Tiempo_(s)	Campo_(V.s)	Magnetizacion_(V.s)	Campo_(kA/m)	Magnetizacion_(A/m)
0.000000e+00	-5.380784e-06	-6.989181e-09	-3.834248e+01	-4.563004e+02
1.000000e-08	-5.377934e-06	-6.989769e-09	-3.832217e+01	-4.561332e+02
2.000000e-08	-5.373327e-06	-6.984440e-09	-3.828934e+01	-4.558615e+02
3.000000e-08	-5.367021e-06	-6.977224e-09	-3.824440e+01	-4.554804e+02
4.000000e-08	-5.359162e-06	-6.968603e-09	-3.818840e+01	-4.549865e+02
5.000000e-08	-5.349516e-06	-6.957371e-09	-3.811967e+01	-4.543791e+02
6.000000e-08	-5.337810e-06	-6.946556e-09	-3.803625e+01	-4.536605e+02
7.000000e-08	-5.324178e-06	-6.931994e-09	-3.793911e+01	-4.528360e+02
8.000000e-08	-5.308365e-06	-6.911704e-09	-3.782644e+01	-4.519140e+02
9.000000e-08	-5.290264e-06	-6.940529e-09	-3.769745e+01	-4.509047e+02
1.000000e-07	-5.270171e-06	-6.950353e-09	-3.755427e+01	-4.498191e+02
1.100000e-07	-5.248190e-06	-6.907718e-09	-3.739764e+01	-4.486680e+02
1.200000e-07	-5.224533e-06	-6.890654e-09	-3.722906e+01	-4.474599e+02
1.300000e-07	-5.199343e-06	-6.805758e-09	-3.704957e+01	-4.462005e+02
1.400000e-07	-5.172575e-06	-6.738228e-09	-3.685882e+01	-4.448914e+02
1.500000e-07	-5.144247e-06	-6.858275e-09	-3.665696e+01	-4.435300e+02
1.600000e-07	-5.114432e-06	-6.775386e-09	-3.644450e+01	-4.421094e+02
1.700000e-07	-5.083013e-06	-6.703751e-09	-3.622062e+01	-4.406190e+02
1.800000e-07	-5.049437e-06	-6.782971e-09	-3.598136e+01	-4.390457e+02
1.900000e-07	-5.014013e-06	-6.641306e-09	-3.572894e+01	-4.373749e+02
2.000000e-07	-4.977223e-06	-6.636852e-09	-3.546678e+01	-4.355925e+02
2.100000e-07	-4.938681e-06	-6.702309e-09	-3.519214e+01	-4.336855e+02
2.200000e-07	-4.898297e-06	-6.584462e-09	-3.490436e+01	-4.316441e+02
2.300000e-07	-4.855962e-06	-6.562608e-09	-3.460269e+01	-4.294618e+02
2.400000e-07	-4.811662e-06	-6.543518e-09	-3.428702e+01	-4.271364e+02
2.500000e-07	-4.765603e-06	-6.464059e-09	-3.395881e+01	-4.246695e+02
2.600000e-07	-4.717623e-06	-6.465614e-09	-3.361691e+01	-4.220664e+02
2.700000e-07	-4.667514e-06	-6.388356e-09	-3.325985e+01	-4.193350e+02
2.800000e-07	-4.615338e-06	-6.336970e-09	-3.288805e+01	-4.164849e+02
2.900000e-07	-4.561343e-06	-6.319944e-09	-3.250329e+01	-4.135263e+02
3.000000e-07	-4.505833e-06	-6.269732e-09	-3.210774e+01	-4.104688e+02
3.100000e-07	-4.448672e-06	-6.220457e-09	-3.170042e+01	-4.073207e+02
3.200000e-07	-4.389649e-06	-6.172754e-09	-3.127983e+01	-4.040882e+02
3.300000e-07	-4.329031e-06	-6.128497e-09	-3.084788e+01	-4.007750e+02
3.400000e-07	-4.266999e-06	-6.040920e-09	-3.040585e+01	-3.973827e+02
3.500000e-07	-4.203641e-06	-5.999358e-09	-2.995437e+01	-3.939105e+02
3.600000e-07	-4.138730e-06	-5.974552e-09	-2.949183e+01	-3.903561e+02
3.700000e-07	-4.072112e-06	-5.902103e-09	-2.901712e+01	-3.867162e+02
3.800000e-07	-4.003987e-06	-5.842549e-09	-2.853167e+01	-3.829869e+02
3.900000e-07	-3.934477e-06	-5.780461e-09	-2.803636e+01	-3.791645e+02
4.000000e-07	-3.863736e-06	-5.722584e-09	-2.753228e+01	-3.752457e+02
4.100000e-07	-3.791879e-06	-5.663475e-09	-2.702024e+01	-3.712279e+02
4.200000e-07	-3.718580e-06	-5.593348e-09	-2.649792e+01	-3.671092e+02
4.300000e-07	-3.643514e-06	-5.539473e-09	-2.596302e+01	-3.628885e+02
4.400000e-07	-3.566868e-06	-5.472312e-09	-2.541685e+01	-3.585653e+02
4.500000e-07	-3.488823e-06	-5.398462e-09	-2.486072e+01	-3.541392e+02
4.600000e-07	-3.409371e-06	-5.327112e-09	-2.429455e+01	-3.496099e+02
4.700000e-07	-3.328710e-06	-5.257831e-09	-2.371977e+01	-3.449769e+02
4.800000e-07	-3.246898e-06	-5.186727e-09	-2.313680e+01	-3.402395e+02
4.900000e-07	-3.163926e-06	-5.108175e-09	-2.254556e+01	-3.353964e+02
5.000000e-07	-3.079978e-06	-5.039540e-09	-2.194736e+01	-3.304462e+02
5.100000e-07	-2.995116e-06	-4.965461e-09	-2.134265e+01	-3.253870e+02
5.200000e-07	-2.909297e-06	-4.885518e-09	-2.073112e+01	-3.202169e+02
5.300000e-07	-2.822478e-06	-4.794594e-09	-2.011246e+01	-3.149339e+02
5.400000e-07	-2.734792e-06	-4.701212e-09	-1.948763e+01	-3.095361e+02
5.500000e-07	-2.646192e-06	-4.616300e-09	-1.885628e+01	-3.040217e+02
5.600000e-07	-2.556358e-06	-4.532377e-09	-1.821614e+01	-2.983893e+02
5.700000e-07	-2.465357e-06	-4.449843e-09	-1.756768e+01	-2.926373e+02
5.800000e-07	-2.373503e-06	-4.357886e-09	-1.691314e+01	-2.867646e+02
5.900000e-07	-2.280900e-06	-4.266646e-09	-1.625328e+01	-2.807702e+02
6.000000e-07	-2.187486e-06	-4.173618e-09	-1.558762e+01	-2.746531e+02
6.100000e-07	-2.093250e-06	-4.076268e-09	-1.491612e+01	-2.684127e+02
6.200000e-07	-1.998310e-06	-3.977787e-09	-1.423959e+01	-2.620482e+02
6.300000e-07	-1.902781e-06	-3.877761e-09	-1.355887e+01	-2.555592e+02
6.400000e-07	-1.806568e-06	-3.776426e-09	-1.287327e+01	-2.489451e+02
6.500000e-07	-1.709601e-06	-3.673062e-09	-1.218230e+01	-2.422057e+02
6.600000e-07	-1.611883e-06	-3.569572e-09	-1.148598e+01	-2.353405e+02
6.700000e-07	-1.513382e-06	-3.461253e-09	-1.078408e+01	-2.283487e+02
6.800000e-07	-1.414236e-06	-3.350438e-09	-1.007759e+01	-2.212291e+02
6.900000e-07	-1.314634e-06	-3.237118e-09	-9.367841e+00	-2.139797e+02
7.000000e-07	-1.214748e-06	-3.124831e-09	-8.656074e+00	-2.065974e+02
7.100000e-07	-1.114576e-06	-3.012901e-09	-7.942264e+00	-1.990779e+02
7.200000e-07	-1.014083e-06	-2.897040e-09	-7.226172e+00	-1.914155e+02
7.300000e-07	-9.133300e-07	-2.777319e-09	-6.508222e+00	-1.836029e+02
7.400000e-07	-8.122413e-07	-2.652967e-09	-5.787882e+00	-1.756316e+02
7.500000e-07	-7.107983e-07	-2.526785e-09	-5.065018e+00	-1.674921e+02
7.600000e-07	-6.090752e-07	-2.399590e-09	-4.340158e+00	-1.591745e+02
7.700000e-07	-5.071529e-07	-2.270450e-09	-3.613878e+00	-1.506685e+02
7.800000e-07	-4.051001e-07	-2.139092e-09	-2.886669e+00	-1.419645e+02
7.900000e-07	-3.029119e-07	-2.002920e-09	-2.158494e+00	-1.330539e+02
8.000000e-07	-2.006279e-07	-1.860000e-09	-1.429637e+00	-1.239294e+02
8.100000e-07	-9.829624e-08	-1.716112e-09	-7.004409e-01	-1.145852e+02
8.200000e-07	4.133690e-09	-1.571840e-09	2.945592e-02	-1.050167e+02
8.300000e-07	1.066021e-07	-1.422174e-09	7.596273e-01	-9.522065e+01
8.400000e-07	2.089890e-07	-1.268066e-09	1.489217e+00	-8.519411e+01
8.500000e-07	3.113056e-07	-1.110472e-09	2.218306e+00	-7.493420e+01
8.600000e-07	4.135694e-07	-9.489516e-10	2.947019e+00	-6.443731e+01
8.700000e-07	5.157676e-07	-7.827087e-10	3.675265e+00	-5.369870e+01
8.800000e-07	6.178015e-07	-6.143649e-10	4.402340e+00	-4.271228e+01
8.900000e-07	7.196573e-07	-4.424523e-10	5.128146e+00	-3.147085e+01
9.000000e-07	8.213200e-07	-2.664978e-10	5.852576e+00	-1.996672e+01
9.100000e-07	9.226696e-07	-8.580750e-11	6.574775e+00	-8.192837e+00
9.200000e-07	1.023620e-06	9.855066e-11	7.294126e+00	3.855709e+00
9.300000e-07	1.124169e-06	2.850929e-10	8.010624e+00	1.617987e+01
9.400000e-07	1.224382e-06	4.764474e-10	8.724724e+00	2.877475e+01
9.500000e-07	1.324263e-06	6.716514e-10	9.436453e+00	4.162787e+01
9.600000e-07	1.423718e-06	8.693929e-10	1.014515e+01	5.471769e+01
9.700000e-07	1.522607e-06	1.068288e-09	1.084982e+01	6.801281e+01
9.800000e-07	1.620795e-06	1.269639e-09	1.154949e+01	8.147184e+01
9.900000e-07	1.718186e-06	1.473685e-09	1.224347e+01	9.504406e+01
1.000000e-06	1.814831e-06	1.679558e-09	1.293215e+01	1.086710e+02
1.010000e-06	1.910820e-06	1.885305e-09	1.361615e+01	1.222887e+02
1.020000e-06	2.006129e-06	2.091764e-09	1.429531e+01	1.358303e+02
1.030000e-06	2.100642e-06	2.295816e-09	1.496879e+01	1.492297e+02
1.040000e-06	2.194383e-06	2.494554e-09	1.563677e+01	1.624242e+02
1.050000e-06	2.287428e-06	2.688949e-09	1.629979e+01	1.753572e+02
1.060000e-06	2.379786e-06	2.878390e-09	1.695792e+01	1.879813e+02
1.070000e-06	2.471464e-06	3.063614e-09	1.761120e+01	2.002588e+02
1.080000e-06	2.562267e-06	3.243645e-09	1.825824e+01	2.121631e+02
1.090000e-06	2.651933e-06	3.420152e-09	1.889719e+01	2.236779e+02
1.100000e-06	2.740443e-06	3.592081e-09	1.952790e+01	2.347964e+02
1.110000e-06	2.827970e-06	3.756025e-09	2.015159e+01	2.455192e+02
1.120000e-06	2.914641e-06	3.913710e-09	2.076919e+01	2.558525e+02
1.130000e-06	3.000392e-06	4.065998e-09	2.138024e+01	2.658055e+02
1.140000e-06	3.085152e-06	4.213268e-09	2.198423e+01	2.753886e+02
1.150000e-06	3.169027e-06	4.354366e-09	2.258191e+01	2.846112e+02
1.160000e-06	3.251888e-06	4.489819e-09	2.317236e+01	2.934814e+02
1.170000e-06	3.333464e-06	4.619438e-09	2.375365e+01	3.020049e+02
1.180000e-06	3.413765e-06	4.742190e-09	2.432586e+01	3.101853e+02
1.190000e-06	3.492848e-06	4.859327e-09	2.488939e+01	3.180256e+02
1.200000e-06	3.570731e-06	4.973007e-09	2.544437e+01	3.255284e+02
1.210000e-06	3.647391e-06	5.082604e-09	2.599064e+01	3.326983e+02
1.220000e-06	3.722695e-06	5.185436e-09	2.652724e+01	3.395422e+02
1.230000e-06	3.796462e-06	5.282303e-09	2.705289e+01	3.460706e+02
1.240000e-06	3.868622e-06	5.374676e-09	2.756709e+01	3.522981e+02
1.250000e-06	3.939329e-06	5.462924e-09	2.807094e+01	3.582430e+02
1.260000e-06	4.008645e-06	5.548712e-09	2.856487e+01	3.639264e+02
1.270000e-06	4.076614e-06	5.634460e-09	2.904920e+01	3.693712e+02
1.280000e-06	4.143176e-06	5.716578e-09	2.952351e+01	3.746005e+02
1.290000e-06	4.208065e-06	5.793245e-09	2.998590e+01	3.796352e+02
1.300000e-06	4.271348e-06	5.866868e-09	3.043684e+01	3.844934e+02
1.310000e-06	4.333203e-06	5.939822e-09	3.087761e+01	3.891884e+02
1.320000e-06	4.393708e-06	6.010908e-09	3.130876e+01	3.937282e+02
1.330000e-06	4.452813e-06	6.076877e-09	3.172993e+01	3.981154e+02
1.340000e-06	4.510161e-06	6.139116e-09	3.213858e+01	4.023477e+02
1.350000e-06	4.565737e-06	6.199521e-09	3.253461e+01	4.064190e+02
1.360000e-06	4.619770e-06	6.258734e-09	3.291964e+01	4.103211e+02
1.370000e-06	4.672096e-06	6.315052e-09	3.329250e+01	4.140449e+02
1.380000e-06	4.722383e-06	6.367854e-09	3.365083e+01	4.175826e+02
1.390000e-06	4.770667e-06	6.417598e-09	3.399490e+01	4.209289e+02
1.400000e-06	4.817206e-06	6.463282e-09	3.432653e+01	4.240820e+02
1.410000e-06	4.862154e-06	6.506233e-09	3.464682e+01	4.270442e+02
1.420000e-06	4.905519e-06	6.547270e-09	3.495583e+01	4.298217e+02
1.430000e-06	4.947014e-06	6.584599e-09	3.525152e+01	4.324237e+02
1.440000e-06	4.986661e-06	6.618434e-09	3.553403e+01	4.348621e+02
1.450000e-06	5.024665e-06	6.650780e-09	3.580484e+01	4.371490e+02
1.460000e-06	5.061074e-06	6.682454e-09	3.606428e+01	4.392965e+02
1.470000e-06	5.095780e-06	6.713577e-09	3.631159e+01	4.413146e+02
1.480000e-06	5.128513e-06	6.742273e-09	3.654484e+01	4.432111e+02
1.490000e-06	5.159378e-06	6.766966e-09	3.676478e+01	4.449904e+02
1.500000e-06	5.188617e-06	6.788276e-09	3.697313e+01	4.466541e+02
1.510000e-06	5.216210e-06	6.808394e-09	3.716976e+01	4.482012e+02
1.520000e-06	5.241788e-06	6.828078e-09	3.735202e+01	4.496291e+02
1.530000e-06	5.265258e-06	6.847161e-09	3.751927e+01	4.509345e+02
1.540000e-06	5.286865e-06	6.864286e-09	3.767323e+01	4.521147e+02
1.550000e-06	5.306770e-06	6.878865e-09	3.781507e+01	4.531682e+02
1.560000e-06	5.324851e-06	6.892515e-09	3.794391e+01	4.540957e+02
1.570000e-06	5.340891e-06	6.906379e-09	3.805821e+01	4.548998e+02
1.580000e-06	5.354980e-06	6.919911e-09	3.815861e+01	4.555854e+02
1.590000e-06	5.367087e-06	6.930478e-09	3.824488e+01	4.561588e+02
1.600000e-06	5.376930e-06	6.937201e-09	3.831502e+01	4.566270e+02
1.610000e-06	5.384664e-06	6.941402e-09	3.837013e+01	4.569965e+02
1.620000e-06	5.390623e-06	6.945824e-09	3.841259e+01	4.572726e+02
1.630000e-06	5.394816e-06	6.951421e-09	3.844247e+01	4.574586e+02
1.640000e-06	5.397055e-06	6.954686e-09	3.845842e+01	4.575553e+02
1.650000e-06	5.397276e-06	6.955821e-09	3.846000e+01	4.575609e+02
1.660000e-06	5.395721e-06	6.953097e-09	3.844891e+01	4.574716e+02
1.670000e-06	5.392534e-06	6.946621e-09	3.842621e+01	4.572822e+02
1.680000e-06	5.387669e-06	6.944439e-09	3.839154e+01	4.569872e+02
1.690000e-06	5.380848e-06	6.940276e-09	3.834293e+01	4.565819e+02
1.700000e-06	5.372216e-06	6.932304e-09	3.828142e+01	4.560635e+02
1.710000e-06	5.362082e-06	6.923309e-09	3.820921e+01	4.554317e+02
1.720000e-06	5.350224e-06	6.914996e-09	3.812471e+01	4.546896e+02
1.730000e-06	5.336298e-06	6.921618e-09	3.802548e+01	4.538432e+02
1.740000e-06	5.320304e-06	6.866786e-09	3.791151e+01	4.529013e+02
1.750000e-06	5.302031e-06	6.814750e-09	3.778130e+01	4.518745e+02
1.760000e-06	5.281006e-06	6.823496e-09	3.763148e+01	4.507739e+02
1.770000e-06	5.257671e-06	6.801938e-09	3.746519e+01	4.496096e+02
1.780000e-06	5.233113e-06	6.879980e-09	3.729020e+01	4.483900e+02
1.790000e-06	5.207861e-06	6.863036e-09	3.711026e+01	4.471197e+02
1.800000e-06	5.181183e-06	6.675394e-09	3.692016e+01	4.457995e+02
1.810000e-06	5.152328e-06	6.781608e-09	3.671454e+01	4.444259e+02
1.820000e-06	5.121686e-06	6.771712e-09	3.649620e+01	4.429912e+02
1.830000e-06	5.089368e-06	6.642436e-09	3.626590e+01	4.414840e+02
1.840000e-06	5.055054e-06	6.784508e-09	3.602139e+01	4.398908e+02
1.850000e-06	5.019116e-06	6.688405e-09	3.576530e+01	4.381970e+02
1.860000e-06	4.981427e-06	6.582607e-09	3.549673e+01	4.363887e+02
1.870000e-06	4.941790e-06	6.670285e-09	3.521429e+01	4.344534e+02
1.880000e-06	4.900521e-06	6.544019e-09	3.492021e+01	4.323819e+02
1.890000e-06	4.857473e-06	6.557711e-09	3.461346e+01	4.301688e+02
1.900000e-06	4.812822e-06	6.544577e-09	3.429529e+01	4.278126e+02
1.910000e-06	4.766355e-06	6.413735e-09	3.396417e+01	4.253157e+02
1.920000e-06	4.717782e-06	6.502482e-09	3.361805e+01	4.226841e+02
1.930000e-06	4.667609e-06	6.380931e-09	3.326052e+01	4.199262e+02
1.940000e-06	4.615717e-06	6.321212e-09	3.289075e+01	4.170518e+02
1.950000e-06	4.561768e-06	6.352463e-09	3.250632e+01	4.140710e+02
1.960000e-06	4.505883e-06	6.233333e-09	3.210809e+01	4.109933e+02
1.970000e-06	4.448287e-06	6.214243e-09	3.169767e+01	4.078264e+02
1.980000e-06	4.389270e-06	6.152821e-09	3.127713e+01	4.045761e+02
1.990000e-06	4.328783e-06	6.142218e-09	3.084611e+01	4.012457e+02
2.000000e-06	4.266534e-06	6.085899e-09	3.040254e+01	3.978361e+02
2.010000e-06	4.202660e-06	5.964652e-09	2.994739e+01	3.943463e+02
2.020000e-06	4.137330e-06	5.975669e-09	2.948185e+01	3.907737e+02
2.030000e-06	4.070589e-06	5.884156e-09	2.900627e+01	3.871148e+02
2.040000e-06	4.002465e-06	5.839624e-09	2.852083e+01	3.833656e+02
2.050000e-06	3.932799e-06	5.793697e-09	2.802441e+01	3.795226e+02
2.060000e-06	3.861630e-06	5.720520e-09	2.751727e+01	3.755825e+02
2.070000e-06	3.789169e-06	5.684907e-09	2.700092e+01	3.715430e+02
2.080000e-06	3.715458e-06	5.567631e-09	2.647567e+01	3.674023e+02
2.090000e-06	3.640361e-06	5.533808e-09	2.594054e+01	3.631595e+02
2.100000e-06	3.563714e-06	5.473494e-09	2.539437e+01	3.588140e+02
2.110000e-06	3.485436e-06	5.398599e-09	2.483657e+01	3.543656e+02
2.120000e-06	3.405829e-06	5.336645e-09	2.426931e+01	3.498139e+02
2.130000e-06	3.325169e-06	5.252943e-09	2.369454e+01	3.451584e+02
2.140000e-06	3.243334e-06	5.201132e-09	2.311140e+01	3.403982e+02
2.150000e-06	3.160407e-06	5.110795e-09	2.252048e+01	3.355321e+02
2.160000e-06	3.076535e-06	5.039030e-09	2.192282e+01	3.305584e+02
2.170000e-06	2.991508e-06	4.958061e-09	2.131694e+01	3.254754e+02
2.180000e-06	2.905081e-06	4.885067e-09	2.070107e+01	3.202810e+02
2.190000e-06	2.817502e-06	4.815594e-09	2.007700e+01	3.149734e+02
2.200000e-06	2.728984e-06	4.730792e-09	1.944624e+01	3.095505e+02
2.210000e-06	2.639520e-06	4.650756e-09	1.880873e+01	3.040107e+02
2.220000e-06	2.549131e-06	4.552229e-09	1.816464e+01	2.983525e+02
2.230000e-06	2.457902e-06	4.466613e-09	1.751456e+01	2.925745e+02
2.240000e-06	2.366004e-06	4.374132e-09	1.685971e+01	2.866756e+02
2.250000e-06	2.273320e-06	4.291390e-09	1.619926e+01	2.806548e+02
2.260000e-06	2.179692e-06	4.207859e-09	1.553209e+01	2.745111e+02
2.270000e-06	2.085019e-06	4.109663e-09	1.485746e+01	2.682439e+02
2.280000e-06	1.989394e-06	4.007359e-09	1.417606e+01	2.618526e+02
2.290000e-06	1.893094e-06	3.905507e-09	1.348984e+01	2.553365e+02
2.300000e-06	1.796314e-06	3.810523e-09	1.280020e+01	2.486954e+02
2.310000e-06	1.699044e-06	3.710917e-09	1.210708e+01	2.419289e+02
2.320000e-06	1.601225e-06	3.606268e-09	1.141003e+01	2.350364e+02
2.330000e-06	1.502820e-06	3.495315e-09	1.070882e+01	2.280171e+02
2.340000e-06	1.403859e-06	3.388414e-09	1.000364e+01	2.208696e+02
2.350000e-06	1.304554e-06	3.278044e-09	9.296015e+00	2.135918e+02
2.360000e-06	1.204961e-06	3.166696e-09	8.586328e+00	2.061803e+02
2.370000e-06	1.105143e-06	3.054354e-09	7.875048e+00	1.986305e+02
2.380000e-06	1.005036e-06	2.934539e-09	7.161704e+00	1.909363e+02
2.390000e-06	9.044783e-07	2.815550e-09	6.445146e+00	1.830902e+02
2.400000e-06	8.035307e-07	2.695255e-09	5.725812e+00	1.750835e+02
2.410000e-06	7.022327e-07	2.572453e-09	5.003981e+00	1.669065e+02
2.420000e-06	6.006028e-07	2.443949e-09	4.279785e+00	1.585491e+02
2.430000e-06	4.987021e-07	2.309957e-09	3.553660e+00	1.500013e+02
2.440000e-06	3.965908e-07	2.178127e-09	2.826033e+00	1.412535e+02
2.450000e-06	2.942967e-07	2.048577e-09	2.097104e+00	1.322974e+02
2.460000e-06	1.918708e-07	1.912121e-09	1.367236e+00	1.231260e+02
2.470000e-06	8.933475e-08	1.769014e-09	6.365830e-01	1.137338e+02
2.480000e-06	-1.329255e-08	1.619197e-09	-9.472024e-02	1.041166e+02
2.490000e-06	-1.159303e-07	1.464636e-09	-8.260982e-01	9.427117e+01
2.500000e-06	-2.185267e-07	1.310764e-09	-1.557181e+00	8.419466e+01
2.510000e-06	-3.209858e-07	1.156966e-09	-2.287286e+00	7.388408e+01
2.520000e-06	-4.232868e-07	1.000583e-09	-3.016264e+00	6.333561e+01
2.530000e-06	-5.254475e-07	8.384996e-10	-3.744243e+00	5.254422e+01
2.540000e-06	-6.274313e-07	6.714080e-10	-4.470960e+00	4.150357e+01
2.550000e-06	-7.291146e-07	5.009156e-10	-5.195537e+00	3.020626e+01
2.560000e-06	-8.303874e-07	3.250255e-10	-5.917188e+00	1.864465e+01
2.570000e-06	-9.313038e-07	1.423730e-10	-6.636300e+00	6.811982e+00
2.580000e-06	-1.031858e-06	-4.377528e-11	-7.352828e+00	-5.295942e+00
2.590000e-06	-1.132030e-06	-2.322818e-10	-8.066641e+00	-1.767899e+01
2.600000e-06	-1.231827e-06	-4.253735e-10	-8.777776e+00	-3.033078e+01
2.610000e-06	-1.331184e-06	-6.229603e-10	-9.485770e+00	-4.323698e+01
2.620000e-06	-1.430083e-06	-8.249929e-10	-1.019051e+01	-5.637401e+01
2.630000e-06	-1.528508e-06	-1.032204e-09	-1.089187e+01	-6.970830e+01
2.640000e-06	-1.626377e-06	-1.241872e-09	-1.158926e+01	-8.319638e+01
2.650000e-06	-1.723655e-06	-1.452809e-09	-1.228245e+01	-9.678570e+01
2.660000e-06	-1.820332e-06	-1.662382e-09	-1.297135e+01	-1.104164e+02
2.670000e-06	-1.916476e-06	-1.872121e-09	-1.365646e+01	-1.240237e+02
2.680000e-06	-2.012092e-06	-2.082108e-09	-1.433780e+01	-1.375406e+02
2.690000e-06	-2.106919e-06	-2.288470e-09	-1.501352e+01	-1.509014e+02
2.700000e-06	-2.200808e-06	-2.490516e-09	-1.568255e+01	-1.640445e+02
2.710000e-06	-2.293780e-06	-2.690103e-09	-1.634506e+01	-1.769153e+02
2.720000e-06	-2.385879e-06	-2.884260e-09	-1.700134e+01	-1.894681e+02
2.730000e-06	-2.477121e-06	-3.070292e-09	-1.765151e+01	-2.016678e+02
2.740000e-06	-2.567445e-06	-3.250313e-09	-1.829514e+01	-2.134898e+02
2.750000e-06	-2.656846e-06	-3.424825e-09	-1.893220e+01	-2.249202e+02
2.760000e-06	-2.745398e-06	-3.593195e-09	-1.956320e+01	-2.359539e+02
2.770000e-06	-2.833167e-06	-3.753416e-09	-2.018863e+01	-2.465928e+02
2.780000e-06	-2.919977e-06	-3.907957e-09	-2.080722e+01	-2.568440e+02
2.790000e-06	-3.005528e-06	-4.057920e-09	-2.141684e+01	-2.667171e+02
2.800000e-06	-3.089884e-06	-4.202989e-09	-2.201794e+01	-2.762224e+02
2.810000e-06	-3.173221e-06	-4.343372e-09	-2.261179e+01	-2.853692e+02
2.820000e-06	-3.255538e-06	-4.478222e-09	-2.319836e+01	-2.941649e+02
2.830000e-06	-3.336816e-06	-4.609690e-09	-2.377754e+01	-3.026148e+02
2.840000e-06	-3.417047e-06	-4.736372e-09	-2.434925e+01	-3.107223e+02
2.850000e-06	-3.496074e-06	-4.856500e-09	-2.491238e+01	-3.184902e+02
2.860000e-06	-3.573582e-06	-4.971657e-09	-2.546469e+01	-3.259216e+02
2.870000e-06	-3.649584e-06	-5.081192e-09	-2.600626e+01	-3.330211e+02
2.880000e-06	-3.724172e-06	-5.184231e-09	-2.653776e+01	-3.397966e+02
2.890000e-06	-3.797401e-06	-5.280435e-09	-2.705958e+01	-3.462594e+02
2.900000e-06	-3.869362e-06	-5.374124e-09	-2.757236e+01	-3.524249e+02
2.910000e-06	-3.939882e-06	-5.466622e-09	-2.807488e+01	-3.583121e+02
2.920000e-06	-4.008789e-06	-5.554651e-09	-2.856590e+01	-3.639427e+02
2.930000e-06	-4.076216e-06	-5.638070e-09	-2.904637e+01	-3.693396e+02
2.940000e-06	-4.142231e-06	-5.718448e-09	-2.951678e+01	-3.745257e+02
