# Temperatura_=_78.94
# Concentracion g/m^3_=_15000.0
# C_Vs_to_Am_M_A/Vsm_=_65563218390.804596
# pendiente_HvsI_1/m_=_3716.3
# ordenada_HvsI_A/m_=_1297.0
# frecuencia_Hz_=_301580.24881280225

Tiempo_(s)	Campo_(V.s)	Magnetizacion_(V.s)	Campo_(kA/m)	Magnetizacion_(A/m)
0.000000e+00	-5.379544e-06	-6.996599e-09	-3.833855e+01	-4.568804e+02
1.000000e-08	-5.376579e-06	-6.993929e-09	-3.831742e+01	-4.566590e+02
2.000000e-08	-5.371851e-06	-6.987970e-09	-3.828372e+01	-4.563260e+02
3.000000e-08	-5.365524e-06	-6.978149e-09	-3.823863e+01	-4.558779e+02
4.000000e-08	-5.357658e-06	-6.966881e-09	-3.818257e+01	-4.553138e+02
5.000000e-08	-5.347914e-06	-6.955350e-09	-3.811313e+01	-4.546368e+02
6.000000e-08	-5.336083e-06	-6.945423e-09	-3.802881e+01	-4.538533e+02
7.000000e-08	-5.322298e-06	-6.934867e-09	-3.793057e+01	-4.529734e+02
8.000000e-08	-5.306379e-06	-6.919354e-09	-3.781712e+01	-4.520091e+02
9.000000e-08	-5.288296e-06	-6.923538e-09	-3.768825e+01	-4.509737e+02
1.000000e-07	-5.268243e-06	-6.933047e-09	-3.754533e+01	-4.498797e+02
1.100000e-07	-5.246261e-06	-6.906491e-09	-3.738867e+01	-4.487375e+02
1.200000e-07	-5.222595e-06	-6.872043e-09	-3.722001e+01	-4.475536e+02
1.300000e-07	-5.197365e-06	-6.818026e-09	-3.704021e+01	-4.463301e+02
1.400000e-07	-5.170481e-06	-6.741380e-09	-3.684861e+01	-4.450639e+02
1.500000e-07	-5.142034e-06	-6.793649e-09	-3.664588e+01	-4.437469e+02
1.600000e-07	-5.112182e-06	-6.800804e-09	-3.643313e+01	-4.423666e+02
1.700000e-07	-5.080679e-06	-6.732441e-09	-3.620862e+01	-4.409078e+02
1.800000e-07	-5.047020e-06	-6.750315e-09	-3.596874e+01	-4.393535e+02
1.900000e-07	-5.011579e-06	-6.674052e-09	-3.571616e+01	-4.376876e+02
2.000000e-07	-4.974651e-06	-6.610523e-09	-3.545298e+01	-4.358954e+02
2.100000e-07	-4.935941e-06	-6.641072e-09	-3.517711e+01	-4.339662e+02
2.200000e-07	-4.895411e-06	-6.591153e-09	-3.488826e+01	-4.318934e+02
2.300000e-07	-4.852929e-06	-6.554560e-09	-3.458550e+01	-4.296752e+02
2.400000e-07	-4.808562e-06	-6.523906e-09	-3.426931e+01	-4.273145e+02
2.500000e-07	-4.762457e-06	-6.452086e-09	-3.394074e+01	-4.248181e+02
2.600000e-07	-4.714364e-06	-6.451702e-09	-3.359799e+01	-4.221955e+02
2.700000e-07	-4.664181e-06	-6.399732e-09	-3.324035e+01	-4.194579e+02
2.800000e-07	-4.611984e-06	-6.340065e-09	-3.286835e+01	-4.166162e+02
2.900000e-07	-4.557961e-06	-6.325410e-09	-3.248335e+01	-4.136802e+02
3.000000e-07	-4.502370e-06	-6.271687e-09	-3.208717e+01	-4.106572e+02
3.100000e-07	-4.445074e-06	-6.212401e-09	-3.167884e+01	-4.075518e+02
3.200000e-07	-4.386003e-06	-6.165601e-09	-3.125785e+01	-4.043652e+02
3.300000e-07	-4.325343e-06	-6.115694e-09	-3.082554e+01	-4.010960e+02
3.400000e-07	-4.263275e-06	-6.045956e-09	-3.038320e+01	-3.977404e+02
3.500000e-07	-4.199828e-06	-5.995907e-09	-2.993103e+01	-3.942932e+02
3.600000e-07	-4.134842e-06	-5.969329e-09	-2.946790e+01	-3.907489e+02
3.700000e-07	-4.068231e-06	-5.917201e-09	-2.899317e+01	-3.871023e+02
3.800000e-07	-4.000084e-06	-5.852502e-09	-2.850751e+01	-3.833496e+02
3.900000e-07	-3.930549e-06	-5.779430e-09	-2.801195e+01	-3.794884e+02
4.000000e-07	-3.859821e-06	-5.713217e-09	-2.750789e+01	-3.755184e+02
4.100000e-07	-3.787861e-06	-5.659993e-09	-2.699506e+01	-3.714408e+02
4.200000e-07	-3.714456e-06	-5.588660e-09	-2.647192e+01	-3.672581e+02
4.300000e-07	-3.639444e-06	-5.535613e-09	-2.593733e+01	-3.629735e+02
4.400000e-07	-3.562847e-06	-5.475904e-09	-2.539144e+01	-3.585902e+02
4.500000e-07	-3.484842e-06	-5.396784e-09	-2.483552e+01	-3.541110e+02
4.600000e-07	-3.405464e-06	-5.320146e-09	-2.426981e+01	-3.495374e+02
4.700000e-07	-3.324759e-06	-5.246787e-09	-2.369465e+01	-3.448697e+02
4.800000e-07	-3.242868e-06	-5.179230e-09	-2.311104e+01	-3.401066e+02
4.900000e-07	-3.159937e-06	-5.105995e-09	-2.252001e+01	-3.352458e+02
5.000000e-07	-3.076034e-06	-5.032208e-09	-2.192206e+01	-3.302835e+02
5.100000e-07	-2.991240e-06	-4.953978e-09	-2.131775e+01	-3.252157e+02
5.200000e-07	-2.905490e-06	-4.873135e-09	-2.070664e+01	-3.200380e+02
5.300000e-07	-2.818685e-06	-4.784219e-09	-2.008800e+01	-3.147461e+02
5.400000e-07	-2.730949e-06	-4.695259e-09	-1.946273e+01	-3.093363e+02
5.500000e-07	-2.642262e-06	-4.611339e-09	-1.883069e+01	-3.038058e+02
5.600000e-07	-2.552437e-06	-4.529222e-09	-1.819053e+01	-2.981524e+02
5.700000e-07	-2.461471e-06	-4.448045e-09	-1.754224e+01	-2.923747e+02
5.800000e-07	-2.369557e-06	-4.356172e-09	-1.688719e+01	-2.864719e+02
5.900000e-07	-2.276921e-06	-4.259168e-09	-1.622700e+01	-2.804437e+02
6.000000e-07	-2.183513e-06	-4.160945e-09	-1.556131e+01	-2.742899e+02
6.100000e-07	-2.089299e-06	-4.062001e-09	-1.488987e+01	-2.680106e+02
6.200000e-07	-1.994435e-06	-3.963670e-09	-1.421380e+01	-2.616060e+02
6.300000e-07	-1.898850e-06	-3.867080e-09	-1.353259e+01	-2.550758e+02
6.400000e-07	-1.802504e-06	-3.770232e-09	-1.284595e+01	-2.484202e+02
6.500000e-07	-1.705484e-06	-3.668888e-09	-1.215452e+01	-2.416390e+02
6.600000e-07	-1.607816e-06	-3.560583e-09	-1.145847e+01	-2.347318e+02
6.700000e-07	-1.509470e-06	-3.449437e-09	-1.075758e+01	-2.276981e+02
6.800000e-07	-1.410494e-06	-3.339846e-09	-1.005221e+01	-2.205368e+02
6.900000e-07	-1.310998e-06	-3.226976e-09	-9.343128e+00	-2.132463e+02
7.000000e-07	-1.211070e-06	-3.111600e-09	-8.630967e+00	-2.058240e+02
7.100000e-07	-1.110846e-06	-2.995921e-09	-7.916695e+00	-1.982659e+02
7.200000e-07	-1.010357e-06	-2.878961e-09	-7.200537e+00	-1.905669e+02
7.300000e-07	-9.095628e-07	-2.757570e-09	-6.482207e+00	-1.827201e+02
7.400000e-07	-8.084392e-07	-2.634584e-09	-5.761526e+00	-1.747175e+02
7.500000e-07	-7.069988e-07	-2.512595e-09	-5.038588e+00	-1.665495e+02
7.600000e-07	-6.052872e-07	-2.388547e-09	-4.313718e+00	-1.582059e+02
7.700000e-07	-5.033748e-07	-2.258395e-09	-3.587415e+00	-1.496762e+02
7.800000e-07	-4.013328e-07	-2.123223e-09	-2.860189e+00	-1.409501e+02
7.900000e-07	-2.991817e-07	-1.983664e-09	-2.132186e+00	-1.320182e+02
8.000000e-07	-1.969176e-07	-1.839135e-09	-1.403378e+00	-1.228721e+02
8.100000e-07	-9.454184e-08	-1.694479e-09	-6.737740e-01	-1.135053e+02
8.200000e-07	7.845805e-09	-1.549577e-09	5.591492e-02	-1.039127e+02
8.300000e-07	1.102237e-07	-1.401222e-09	7.855343e-01	-9.409057e+01
8.400000e-07	2.126420e-07	-1.248728e-09	1.515442e+00	-8.403607e+01
8.500000e-07	3.150320e-07	-1.092464e-09	2.245148e+00	-7.374673e+01
8.600000e-07	4.173374e-07	-9.308797e-10	2.974250e+00	-6.321975e+01
8.700000e-07	5.195056e-07	-7.621324e-10	3.702375e+00	-5.245156e+01
8.800000e-07	6.214949e-07	-5.905491e-10	4.429225e+00	-4.143745e+01
8.900000e-07	7.232711e-07	-4.180928e-10	5.154557e+00	-3.017175e+01
9.000000e-07	8.248422e-07	-2.429926e-10	5.878426e+00	-1.864825e+01
9.100000e-07	9.261205e-07	-6.339505e-11	6.600209e+00	-6.861296e+00
9.200000e-07	1.027029e-06	1.186498e-10	7.319357e+00	5.192899e+00
9.300000e-07	1.127597e-06	3.028476e-10	8.036076e+00	1.751449e+01
9.400000e-07	1.227842e-06	4.917535e-10	8.750497e+00	3.009821e+01
9.500000e-07	1.327746e-06	6.865955e-10	9.462484e+00	4.293158e+01
9.600000e-07	1.427218e-06	8.850697e-10	1.017139e+01	5.599355e+01
9.700000e-07	1.526130e-06	1.084683e-09	1.087632e+01	6.925356e+01
9.800000e-07	1.624387e-06	1.287646e-09	1.157657e+01	8.267139e+01
9.900000e-07	1.721920e-06	1.492260e-09	1.227165e+01	9.619780e+01
1.000000e-06	1.818620e-06	1.696906e-09	1.296081e+01	1.097759e+02
1.010000e-06	1.914523e-06	1.900262e-09	1.364429e+01	1.233435e+02
1.020000e-06	2.009735e-06	2.104047e-09	1.432284e+01	1.368356e+02
1.030000e-06	2.104238e-06	2.306222e-09	1.499634e+01	1.501874e+02
1.040000e-06	2.197983e-06	2.503044e-09	1.566443e+01	1.633377e+02
1.050000e-06	2.290994e-06	2.695124e-09	1.632729e+01	1.762312e+02
1.060000e-06	2.383272e-06	2.883205e-09	1.698493e+01	1.888209e+02
1.070000e-06	2.474791e-06	3.068658e-09	1.763716e+01	2.010697e+02
1.080000e-06	2.565507e-06	3.249074e-09	1.828367e+01	2.129508e+02
1.090000e-06	2.655227e-06	3.425465e-09	1.892308e+01	2.244475e+02
1.100000e-06	2.743767e-06	3.596518e-09	1.955408e+01	2.355519e+02
1.110000e-06	2.831240e-06	3.760972e-09	2.017748e+01	2.462637e+02
1.120000e-06	2.917834e-06	3.918195e-09	2.079461e+01	2.565877e+02
1.130000e-06	3.003501e-06	4.071112e-09	2.140513e+01	2.665318e+02
1.140000e-06	3.088202e-06	4.219694e-09	2.200878e+01	2.761054e+02
1.150000e-06	3.171959e-06	4.362164e-09	2.260569e+01	2.853172e+02
1.160000e-06	3.254702e-06	4.497700e-09	2.319538e+01	2.941748e+02
1.170000e-06	3.336234e-06	4.624767e-09	2.377643e+01	3.026843e+02
1.180000e-06	3.416459e-06	4.745612e-09	2.434817e+01	3.108503e+02
1.190000e-06	3.495520e-06	4.860564e-09	2.491162e+01	3.186770e+02
1.200000e-06	3.573395e-06	4.972677e-09	2.546661e+01	3.261688e+02
1.210000e-06	3.649941e-06	5.082283e-09	2.601214e+01	3.333320e+02
1.220000e-06	3.725180e-06	5.188094e-09	2.654834e+01	3.401756e+02
1.230000e-06	3.798881e-06	5.289632e-09	2.707359e+01	3.467114e+02
1.240000e-06	3.870908e-06	5.384812e-09	2.758691e+01	3.529551e+02
1.250000e-06	3.941501e-06	5.472799e-09	2.809001e+01	3.589250e+02
1.260000e-06	4.010767e-06	5.558172e-09	2.858365e+01	3.646416e+02
1.270000e-06	4.078701e-06	5.641604e-09	2.906779e+01	3.701262e+02
1.280000e-06	4.145221e-06	5.721908e-09	2.954187e+01	3.753993e+02
1.290000e-06	4.210020e-06	5.799352e-09	3.000367e+01	3.804792e+02
1.300000e-06	4.273206e-06	5.873373e-09	3.045398e+01	3.853806e+02
1.310000e-06	4.335063e-06	5.946016e-09	3.089481e+01	3.901137e+02
1.320000e-06	4.395543e-06	6.017590e-09	3.132584e+01	3.946839e+02
1.330000e-06	4.454621e-06	6.086251e-09	3.174687e+01	3.990920e+02
1.340000e-06	4.511941e-06	6.152515e-09	3.215538e+01	4.033348e+02
1.350000e-06	4.567418e-06	6.214046e-09	3.255075e+01	4.074067e+02
1.360000e-06	4.621289e-06	6.270379e-09	3.293467e+01	4.113010e+02
1.370000e-06	4.673447e-06	6.322578e-09	3.330639e+01	4.150112e+02
1.380000e-06	4.723614e-06	6.373006e-09	3.366391e+01	4.185329e+02
1.390000e-06	4.771794e-06	6.423463e-09	3.400728e+01	4.218642e+02
1.400000e-06	4.818268e-06	6.471403e-09	3.433849e+01	4.250069e+02
1.410000e-06	4.863134e-06	6.515199e-09	3.465824e+01	4.279662e+02
1.420000e-06	4.906436e-06	6.556010e-09	3.496683e+01	4.307500e+02
1.430000e-06	4.947954e-06	6.594873e-09	3.526272e+01	4.333686e+02
1.440000e-06	4.987596e-06	6.632519e-09	3.554524e+01	4.358328e+02
1.450000e-06	5.025568e-06	6.666791e-09	3.581586e+01	4.381529e+02
1.460000e-06	5.061960e-06	6.697203e-09	3.607521e+01	4.403379e+02
1.470000e-06	5.096613e-06	6.726737e-09	3.632218e+01	4.423941e+02
1.480000e-06	5.129274e-06	6.753728e-09	3.655494e+01	4.443250e+02
1.490000e-06	5.160108e-06	6.778510e-09	3.677469e+01	4.461314e+02
1.500000e-06	5.189306e-06	6.800698e-09	3.698277e+01	4.478116e+02
1.510000e-06	5.216788e-06	6.821515e-09	3.717863e+01	4.493625e+02
1.520000e-06	5.242235e-06	6.841400e-09	3.735999e+01	4.507808e+02
1.530000e-06	5.265575e-06	6.860051e-09	3.752632e+01	4.520637e+02
1.540000e-06	5.287114e-06	6.878361e-09	3.767983e+01	4.532101e+02
1.550000e-06	5.306999e-06	6.895094e-09	3.782154e+01	4.542214e+02
1.560000e-06	5.325032e-06	6.910733e-09	3.795005e+01	4.551013e+02
1.570000e-06	5.341038e-06	6.923668e-09	3.806413e+01	4.558559e+02
1.580000e-06	5.355055e-06	6.933091e-09	3.816402e+01	4.564927e+02
1.590000e-06	5.367070e-06	6.941253e-09	3.824965e+01	4.570202e+02
1.600000e-06	5.376912e-06	6.948513e-09	3.831979e+01	4.574463e+02
1.610000e-06	5.384595e-06	6.954177e-09	3.837454e+01	4.577774e+02
1.620000e-06	5.390386e-06	6.959719e-09	3.841582e+01	4.580175e+02
1.630000e-06	5.394428e-06	6.963982e-09	3.844463e+01	4.581679e+02
1.640000e-06	5.396523e-06	6.965500e-09	3.845955e+01	4.582269e+02
1.650000e-06	5.396586e-06	6.965557e-09	3.846000e+01	4.581903e+02
1.660000e-06	5.394849e-06	6.963675e-09	3.844762e+01	4.580524e+02
1.670000e-06	5.391530e-06	6.958678e-09	3.842397e+01	4.578072e+02
1.680000e-06	5.386551e-06	6.953807e-09	3.838849e+01	4.574494e+02
1.690000e-06	5.379628e-06	6.947343e-09	3.833915e+01	4.569760e+02
1.700000e-06	5.370915e-06	6.939129e-09	3.827705e+01	4.563870e+02
1.710000e-06	5.360619e-06	6.930008e-09	3.820368e+01	4.556861e+02
1.720000e-06	5.348694e-06	6.921339e-09	3.811869e+01	4.548807e+02
1.730000e-06	5.334884e-06	6.913492e-09	3.802027e+01	4.539813e+02
1.740000e-06	5.318888e-06	6.887958e-09	3.790627e+01	4.530003e+02
1.750000e-06	5.300424e-06	6.841484e-09	3.777468e+01	4.519510e+02
1.760000e-06	5.279328e-06	6.829240e-09	3.762433e+01	4.508456e+02
1.770000e-06	5.255983e-06	6.824439e-09	3.745796e+01	4.496936e+02
1.780000e-06	5.231416e-06	6.846734e-09	3.728288e+01	4.485009e+02
1.790000e-06	5.206215e-06	6.853467e-09	3.710328e+01	4.472684e+02
1.800000e-06	5.179508e-06	6.730629e-09	3.691294e+01	4.459918e+02
1.810000e-06	5.150612e-06	6.737657e-09	3.670701e+01	4.446620e+02
1.820000e-06	5.119928e-06	6.762428e-09	3.648834e+01	4.432659e+02
1.830000e-06	5.087446e-06	6.670125e-09	3.625685e+01	4.417877e+02
1.840000e-06	5.053061e-06	6.737749e-09	3.601180e+01	4.402105e+02
1.850000e-06	5.017168e-06	6.746466e-09	3.575599e+01	4.385182e+02
1.860000e-06	4.979477e-06	6.643611e-09	3.548738e+01	4.366972e+02
1.870000e-06	4.939862e-06	6.639942e-09	3.520505e+01	4.347372e+02
1.880000e-06	4.898525e-06	6.568289e-09	3.491045e+01	4.326329e+02
1.890000e-06	4.855339e-06	6.555001e-09	3.460268e+01	4.303834e+02
1.900000e-06	4.810589e-06	6.556630e-09	3.428376e+01	4.279925e+02
1.910000e-06	4.764001e-06	6.438462e-09	3.395174e+01	4.254679e+02
1.920000e-06	4.715355e-06	6.467760e-09	3.360506e+01	4.228194e+02
1.930000e-06	4.665151e-06	6.426176e-09	3.324726e+01	4.200582e+02
1.940000e-06	4.613206e-06	6.322710e-09	3.287706e+01	4.171952e+02
1.950000e-06	4.559197e-06	6.335416e-09	3.249216e+01	4.142397e+02
1.960000e-06	4.503208e-06	6.274348e-09	3.209314e+01	4.111984e+02
1.970000e-06	4.445488e-06	6.224691e-09	3.168178e+01	4.080752e+02
1.980000e-06	4.386439e-06	6.177069e-09	3.126096e+01	4.048708e+02
1.990000e-06	4.325947e-06	6.131608e-09	3.082985e+01	4.015831e+02
2.000000e-06	4.263712e-06	6.099045e-09	3.038632e+01	3.982079e+02
2.010000e-06	4.199837e-06	5.993805e-09	2.993110e+01	3.947400e+02
2.020000e-06	4.134454e-06	5.951477e-09	2.946513e+01	3.911739e+02
2.030000e-06	4.067643e-06	5.907082e-09	2.898898e+01	3.875045e+02
2.040000e-06	3.999442e-06	5.861706e-09	2.850294e+01	3.837283e+02
2.050000e-06	3.929768e-06	5.811211e-09	2.800639e+01	3.798434e+02
2.060000e-06	3.858530e-06	5.729584e-09	2.749870e+01	3.758499e+02
2.070000e-06	3.785913e-06	5.691279e-09	2.698117e+01	3.717491e+02
2.080000e-06	3.712050e-06	5.593297e-09	2.645477e+01	3.675440e+02
2.090000e-06	3.636849e-06	5.522304e-09	2.591883e+01	3.632376e+02
2.100000e-06	3.560188e-06	5.472763e-09	2.537249e+01	3.588332e+02
2.110000e-06	3.481872e-06	5.404895e-09	2.481435e+01	3.543333e+02
2.120000e-06	3.402128e-06	5.349641e-09	2.424604e+01	3.497392e+02
2.130000e-06	3.321304e-06	5.260511e-09	2.367003e+01	3.450509e+02
2.140000e-06	3.239387e-06	5.197284e-09	2.308623e+01	3.402668e+02
2.150000e-06	3.156432e-06	5.124934e-09	2.249504e+01	3.353842e+02
2.160000e-06	3.072496e-06	5.042927e-09	2.189684e+01	3.303993e+02
2.170000e-06	2.987441e-06	4.964585e-09	2.129068e+01	3.253080e+02
2.180000e-06	2.901050e-06	4.886739e-09	2.067500e+01	3.201057e+02
2.190000e-06	2.813393e-06	4.813897e-09	2.005028e+01	3.147885e+02
2.200000e-06	2.724770e-06	4.728282e-09	1.941869e+01	3.093528e+02
2.210000e-06	2.635272e-06	4.643323e-09	1.878087e+01	3.037957e+02
2.220000e-06	2.544859e-06	4.552492e-09	1.813652e+01	2.981155e+02
2.230000e-06	2.453623e-06	4.470259e-09	1.748630e+01	2.923106e+02
2.240000e-06	2.361593e-06	4.382445e-09	1.683043e+01	2.863806e+02
2.250000e-06	2.268763e-06	4.293460e-09	1.616886e+01	2.803251e+02
2.260000e-06	2.175115e-06	4.205622e-09	1.550146e+01	2.741441e+02
2.270000e-06	2.080505e-06	4.105503e-09	1.482719e+01	2.678376e+02
2.280000e-06	1.984917e-06	4.000099e-09	1.414597e+01	2.614057e+02
2.290000e-06	1.888561e-06	3.893285e-09	1.345926e+01	2.548483e+02
2.300000e-06	1.791737e-06	3.795045e-09	1.276922e+01	2.481655e+02
2.310000e-06	1.694465e-06	3.699075e-09	1.207599e+01	2.413569e+02
2.320000e-06	1.596588e-06	3.594924e-09	1.137845e+01	2.344223e+02
2.330000e-06	1.498128e-06	3.485060e-09	1.067675e+01	2.273610e+02
2.340000e-06	1.399204e-06	3.380685e-09	9.971748e+00	2.201719e+02
2.350000e-06	1.299886e-06	3.271314e-09	9.263934e+00	2.128531e+02
2.360000e-06	1.200190e-06	3.156740e-09	8.553425e+00	2.054016e+02
2.370000e-06	1.100204e-06	3.041010e-09	7.840853e+00	1.978135e+02
2.380000e-06	9.998652e-07	2.917995e-09	7.125768e+00	1.900831e+02
2.390000e-06	8.991215e-07	2.794343e-09	6.407794e+00	1.822033e+02
2.400000e-06	7.980577e-07	2.670171e-09	5.687540e+00	1.741657e+02
2.410000e-06	6.967625e-07	2.547891e-09	4.965637e+00	1.659606e+02
2.420000e-06	5.952618e-07	2.423854e-09	4.242269e+00	1.575777e+02
2.430000e-06	4.934799e-07	2.292822e-09	3.516897e+00	1.490064e+02
2.440000e-06	3.914625e-07	2.162297e-09	2.789847e+00	1.402366e+02
2.450000e-06	2.892933e-07	2.032126e-09	2.061715e+00	1.312590e+02
2.460000e-06	1.870053e-07	1.893537e-09	1.332736e+00	1.220658e+02
2.470000e-06	8.459774e-08	1.746218e-09	6.029051e-01	1.126507e+02
2.480000e-06	-1.791295e-08	1.593757e-09	-1.276607e-01	1.030088e+02
2.490000e-06	-1.204022e-07	1.439616e-09	-8.580735e-01	9.313674e+01
2.500000e-06	-2.228133e-07	1.286086e-09	-1.587930e+00	8.303178e+01
2.510000e-06	-3.252253e-07	1.133275e-09	-2.317792e+00	7.269141e+01
2.520000e-06	-4.275481e-07	9.794072e-10	-3.047019e+00	6.211273e+01
2.530000e-06	-5.296878e-07	8.181546e-10	-3.774941e+00	5.129192e+01
2.540000e-06	-6.315522e-07	6.490075e-10	-4.500901e+00	4.022406e+01
2.550000e-06	-7.330651e-07	4.771529e-10	-5.224356e+00	2.890328e+01
2.560000e-06	-8.342666e-07	3.010423e-10	-5.945591e+00	1.732342e+01
2.570000e-06	-9.351236e-07	1.154820e-10	-6.664372e+00	5.479062e+00
2.580000e-06	-1.035640e-06	-7.384788e-11	-7.380726e+00	-6.632929e+00
2.590000e-06	-1.135849e-06	-2.641926e-10	-8.094886e+00	-1.901171e+01
2.600000e-06	-1.235689e-06	-4.561095e-10	-8.806419e+00	-3.165060e+01
2.610000e-06	-1.335078e-06	-6.515476e-10	-9.514736e+00	-4.453540e+01
2.620000e-06	-1.433981e-06	-8.540296e-10	-1.021959e+01	-5.764306e+01
2.630000e-06	-1.532350e-06	-1.058503e-09	-1.092064e+01	-7.094095e+01
2.640000e-06	-1.630187e-06	-1.264277e-09	-1.161790e+01	-8.438683e+01
2.650000e-06	-1.727470e-06	-1.473352e-09	-1.231121e+01	-9.792969e+01
2.660000e-06	-1.824157e-06	-1.684607e-09	-1.300027e+01	-1.115113e+02
2.670000e-06	-1.920319e-06	-1.897048e-09	-1.368559e+01	-1.250686e+02
2.680000e-06	-2.015877e-06	-2.108291e-09	-1.436661e+01	-1.385363e+02
2.690000e-06	-2.110566e-06	-2.314573e-09	-1.504143e+01	-1.518503e+02
2.700000e-06	-2.204260e-06	-2.516152e-09	-1.570916e+01	-1.649503e+02
2.710000e-06	-2.297059e-06	-2.713395e-09	-1.637051e+01	-1.777826e+02
2.720000e-06	-2.389035e-06	-2.904758e-09	-1.702600e+01	-1.903025e+02
2.730000e-06	-2.480209e-06	-3.089201e-09	-1.767577e+01	-2.024748e+02
2.740000e-06	-2.570523e-06	-3.267328e-09	-1.831942e+01	-2.142749e+02
2.750000e-06	-2.659891e-06	-3.441512e-09	-1.895632e+01	-2.256882e+02
2.760000e-06	-2.748411e-06	-3.609401e-09	-1.958718e+01	-2.367087e+02
2.770000e-06	-2.836183e-06	-3.771134e-09	-2.021270e+01	-2.473372e+02
2.780000e-06	-2.923018e-06	-3.927853e-09	-2.083156e+01	-2.575794e+02
2.790000e-06	-3.008620e-06	-4.078437e-09	-2.144161e+01	-2.674437e+02
2.800000e-06	-3.093002e-06	-4.223058e-09	-2.204298e+01	-2.769394e+02
2.810000e-06	-3.176319e-06	-4.362145e-09	-2.263676e+01	-2.860750e+02
2.820000e-06	-3.258597e-06	-4.496597e-09	-2.322314e+01	-2.948580e+02
2.830000e-06	-3.339840e-06	-4.627030e-09	-2.380214e+01	-3.032939e+02
2.840000e-06	-3.420022e-06	-4.752130e-09	-2.437356e+01	-3.113872e+02
2.850000e-06	-3.498938e-06	-4.870205e-09	-2.493598e+01	-3.191420e+02
2.860000e-06	-3.576375e-06	-4.983689e-09	-2.548785e+01	-3.265632e+02
2.870000e-06	-3.652347e-06	-5.093087e-09	-2.602929e+01	-3.336574e+02
2.880000e-06	-3.726917e-06	-5.198343e-09	-2.656072e+01	-3.404342e+02
2.890000e-06	-3.800098e-06	-5.297893e-09	-2.708226e+01	-3.469064e+02
2.900000e-06	-3.871956e-06	-5.393219e-09	-2.759438e+01	-3.530901e+02
2.910000e-06	-3.942322e-06	-5.485535e-09	-2.809586e+01	-3.590043e+02
2.920000e-06	-4.011071e-06	-5.572268e-09	-2.858581e+01	-3.646698e+02
2.930000e-06	-4.078425e-06	-5.655069e-09	-2.906583e+01	-3.701077e+02
2.940000e-06	-4.144460e-06	-5.734493e-09	-2.953644e+01	-3.753384e+02
