# Temperatura_=_43.0
# Concentracion g/m^3_=_15000.0
# C_Vs_to_Am_M_A/Vsm_=_65563218390.804596
# pendiente_HvsI_1/m_=_3716.3
# ordenada_HvsI_A/m_=_1297.0
# frecuencia_Hz_=_301570.53357563785

Tiempo_(s)	Campo_(V.s)	Magnetizacion_(V.s)	Campo_(kA/m)	Magnetizacion_(A/m)
0.000000e+00	-5.375408e-06	-5.094453e-09	-3.834652e+01	-3.323364e+02
1.000000e-08	-5.372753e-06	-5.094962e-09	-3.832758e+01	-3.321917e+02
2.000000e-08	-5.368344e-06	-5.091525e-09	-3.829613e+01	-3.319808e+02
3.000000e-08	-5.362331e-06	-5.084690e-09	-3.825324e+01	-3.317081e+02
4.000000e-08	-5.354751e-06	-5.077201e-09	-3.819916e+01	-3.313777e+02
5.000000e-08	-5.345341e-06	-5.068733e-09	-3.813203e+01	-3.309927e+02
6.000000e-08	-5.333861e-06	-5.062387e-09	-3.805014e+01	-3.305548e+02
7.000000e-08	-5.320476e-06	-5.058622e-09	-3.795466e+01	-3.300647e+02
8.000000e-08	-5.305063e-06	-5.054775e-09	-3.784470e+01	-3.295213e+02
9.000000e-08	-5.287383e-06	-5.068780e-09	-3.771858e+01	-3.289224e+02
1.000000e-07	-5.267599e-06	-5.066370e-09	-3.757745e+01	-3.282650e+02
1.100000e-07	-5.245939e-06	-5.030674e-09	-3.742293e+01	-3.275451e+02
1.200000e-07	-5.222609e-06	-4.995972e-09	-3.725650e+01	-3.267588e+02
1.300000e-07	-5.197712e-06	-4.952639e-09	-3.707889e+01	-3.259023e+02
1.400000e-07	-5.171142e-06	-4.934795e-09	-3.688935e+01	-3.249722e+02
1.500000e-07	-5.142970e-06	-4.979678e-09	-3.668838e+01	-3.239662e+02
1.600000e-07	-5.113391e-06	-4.967289e-09	-3.647737e+01	-3.228830e+02
1.700000e-07	-5.082225e-06	-4.956544e-09	-3.625504e+01	-3.217219e+02
1.800000e-07	-5.048990e-06	-4.950055e-09	-3.601796e+01	-3.204836e+02
1.900000e-07	-5.013869e-06	-4.839141e-09	-3.576742e+01	-3.191691e+02
2.000000e-07	-4.977252e-06	-4.796025e-09	-3.550620e+01	-3.177799e+02
2.100000e-07	-4.938954e-06	-4.815411e-09	-3.523299e+01	-3.163176e+02
2.200000e-07	-4.898848e-06	-4.800365e-09	-3.494689e+01	-3.147837e+02
2.300000e-07	-4.856762e-06	-4.819800e-09	-3.464666e+01	-3.131792e+02
2.400000e-07	-4.812690e-06	-4.805181e-09	-3.433226e+01	-3.115045e+02
2.500000e-07	-4.766895e-06	-4.726119e-09	-3.400557e+01	-3.097597e+02
2.600000e-07	-4.719300e-06	-4.681967e-09	-3.366605e+01	-3.079444e+02
2.700000e-07	-4.669651e-06	-4.668985e-09	-3.331187e+01	-3.060576e+02
2.800000e-07	-4.617910e-06	-4.672369e-09	-3.294276e+01	-3.040984e+02
2.900000e-07	-4.564261e-06	-4.633412e-09	-3.256005e+01	-3.020660e+02
3.000000e-07	-4.508958e-06	-4.582722e-09	-3.216553e+01	-2.999595e+02
3.100000e-07	-4.452067e-06	-4.556212e-09	-3.175969e+01	-2.977786e+02
3.200000e-07	-4.393444e-06	-4.512668e-09	-3.134149e+01	-2.955233e+02
3.300000e-07	-4.333198e-06	-4.472423e-09	-3.091171e+01	-2.931937e+02
3.400000e-07	-4.271459e-06	-4.430652e-09	-3.047128e+01	-2.907904e+02
3.500000e-07	-4.208292e-06	-4.392497e-09	-3.002067e+01	-2.883141e+02
3.600000e-07	-4.143669e-06	-4.361165e-09	-2.955967e+01	-2.857652e+02
3.700000e-07	-4.077303e-06	-4.336770e-09	-2.908623e+01	-2.831442e+02
3.800000e-07	-4.009366e-06	-4.314016e-09	-2.860159e+01	-2.804512e+02
3.900000e-07	-3.940136e-06	-4.254169e-09	-2.810773e+01	-2.776860e+02
4.000000e-07	-3.869625e-06	-4.179653e-09	-2.760472e+01	-2.748482e+02
4.100000e-07	-3.797854e-06	-4.126581e-09	-2.709273e+01	-2.719371e+02
4.200000e-07	-3.724704e-06	-4.091725e-09	-2.657090e+01	-2.689520e+02
4.300000e-07	-3.649980e-06	-4.067624e-09	-2.603785e+01	-2.658924e+02
4.400000e-07	-3.573763e-06	-4.035340e-09	-2.549414e+01	-2.627578e+02
4.500000e-07	-3.496177e-06	-3.983412e-09	-2.494066e+01	-2.595481e+02
4.600000e-07	-3.417134e-06	-3.907105e-09	-2.437679e+01	-2.562636e+02
4.700000e-07	-3.336764e-06	-3.836180e-09	-2.380346e+01	-2.529047e+02
4.800000e-07	-3.255166e-06	-3.794367e-09	-2.322136e+01	-2.494720e+02
4.900000e-07	-3.172402e-06	-3.755574e-09	-2.263095e+01	-2.459660e+02
5.000000e-07	-3.088680e-06	-3.705478e-09	-2.203370e+01	-2.423871e+02
5.100000e-07	-3.004074e-06	-3.643510e-09	-2.143015e+01	-2.387349e+02
5.200000e-07	-2.918521e-06	-3.577497e-09	-2.081984e+01	-2.350087e+02
5.300000e-07	-2.831924e-06	-3.514002e-09	-2.020209e+01	-2.312068e+02
5.400000e-07	-2.744383e-06	-3.459447e-09	-1.957759e+01	-2.273271e+02
5.500000e-07	-2.655961e-06	-3.401626e-09	-1.894682e+01	-2.233666e+02
5.600000e-07	-2.566383e-06	-3.330548e-09	-1.830780e+01	-2.193220e+02
5.700000e-07	-2.475610e-06	-3.263031e-09	-1.766025e+01	-2.151902e+02
5.800000e-07	-2.383954e-06	-3.204533e-09	-1.700640e+01	-2.109679e+02
5.900000e-07	-2.291553e-06	-3.144599e-09	-1.634724e+01	-2.066525e+02
6.000000e-07	-2.198357e-06	-3.070824e-09	-1.568241e+01	-2.022421e+02
6.100000e-07	-2.104348e-06	-2.992446e-09	-1.501177e+01	-1.977356e+02
6.200000e-07	-2.009644e-06	-2.918397e-09	-1.433619e+01	-1.931330e+02
6.300000e-07	-1.914290e-06	-2.850115e-09	-1.365596e+01	-1.884348e+02
6.400000e-07	-1.818201e-06	-2.788652e-09	-1.297049e+01	-1.836422e+02
6.500000e-07	-1.721398e-06	-2.724635e-09	-1.227993e+01	-1.787565e+02
6.600000e-07	-1.623921e-06	-2.644999e-09	-1.158456e+01	-1.737790e+02
6.700000e-07	-1.525709e-06	-2.551638e-09	-1.088394e+01	-1.687104e+02
6.800000e-07	-1.426806e-06	-2.464612e-09	-1.017840e+01	-1.635506e+02
6.900000e-07	-1.327395e-06	-2.387087e-09	-9.469228e+00	-1.582985e+02
7.000000e-07	-1.227633e-06	-2.308588e-09	-8.757558e+00	-1.529520e+02
7.100000e-07	-1.127561e-06	-2.224991e-09	-8.043673e+00	-1.475079e+02
7.200000e-07	-1.027181e-06	-2.138290e-09	-7.327598e+00	-1.419624e+02
7.300000e-07	-9.265184e-07	-2.050430e-09	-6.609500e+00	-1.363111e+02
7.400000e-07	-8.255540e-07	-1.964004e-09	-5.889251e+00	-1.305495e+02
7.500000e-07	-7.242993e-07	-1.880240e-09	-5.166931e+00	-1.246733e+02
7.600000e-07	-6.227488e-07	-1.792127e-09	-4.442500e+00	-1.186787e+02
7.700000e-07	-5.209861e-07	-1.693573e-09	-3.716556e+00	-1.125625e+02
7.800000e-07	-4.190903e-07	-1.589173e-09	-2.989662e+00	-1.063220e+02
7.900000e-07	-3.170336e-07	-1.489934e-09	-2.261621e+00	-9.995503e+01
8.000000e-07	-2.148234e-07	-1.393917e-09	-1.532484e+00	-9.345949e+01
8.100000e-07	-1.125578e-07	-1.295467e-09	-8.029530e-01	-8.683294e+01
8.200000e-07	-1.028543e-08	-1.193739e-09	-7.337313e-02	-8.007215e+01
8.300000e-07	9.202813e-08	-1.089454e-09	6.565006e-01	-7.317272e+01
8.400000e-07	1.943236e-07	-9.850154e-10	1.386245e+00	-6.612873e+01
8.500000e-07	2.965629e-07	-8.799895e-10	2.115590e+00	-5.893264e+01
8.600000e-07	3.987650e-07	-7.723276e-10	2.844668e+00	-5.157541e+01
8.700000e-07	5.008598e-07	-6.564862e-10	3.572981e+00	-4.404684e+01
8.800000e-07	6.027948e-07	-5.353615e-10	4.300155e+00	-3.633623e+01
8.900000e-07	7.045560e-07	-4.145837e-10	5.026088e+00	-2.843322e+01
9.000000e-07	8.060647e-07	-2.946612e-10	5.750220e+00	-2.032878e+01
9.100000e-07	9.072216e-07	-1.732051e-10	6.471842e+00	-1.201626e+01
9.200000e-07	1.008034e-06	-4.586412e-11	7.191007e+00	-3.492493e+00
9.300000e-07	1.108569e-06	8.840649e-11	7.908192e+00	5.241360e+00
9.400000e-07	1.208836e-06	2.273465e-10	8.623465e+00	1.417906e+01
9.500000e-07	1.308717e-06	3.668567e-10	9.335986e+00	2.330886e+01
9.600000e-07	1.408091e-06	5.068820e-10	1.004489e+01	3.261341e+01
9.700000e-07	1.506868e-06	6.500166e-10	1.074954e+01	4.206995e+01
9.800000e-07	1.604964e-06	7.968231e-10	1.144932e+01	5.165080e+01
9.900000e-07	1.702329e-06	9.453926e-10	1.214390e+01	6.132413e+01
1.000000e-06	1.799013e-06	1.094810e-09	1.283361e+01	7.105493e+01
1.010000e-06	1.895000e-06	1.243631e-09	1.351835e+01	8.080603e+01
1.020000e-06	1.990223e-06	1.392787e-09	1.419764e+01	9.053924e+01
1.030000e-06	2.084730e-06	1.542321e-09	1.487183e+01	1.002164e+02
1.040000e-06	2.178512e-06	1.690199e-09	1.554084e+01	1.098002e+02
1.050000e-06	2.271559e-06	1.835170e-09	1.620461e+01	1.192555e+02
1.060000e-06	2.363962e-06	1.974479e-09	1.686378e+01	1.285493e+02
1.070000e-06	2.455652e-06	2.109312e-09	1.751787e+01	1.376521e+02
1.080000e-06	2.546363e-06	2.243235e-09	1.816498e+01	1.465374e+02
1.090000e-06	2.636042e-06	2.376337e-09	1.880472e+01	1.551831e+02
1.100000e-06	2.724705e-06	2.505397e-09	1.943722e+01	1.635707e+02
1.110000e-06	2.812361e-06	2.626742e-09	2.006253e+01	1.716858e+02
1.120000e-06	2.899093e-06	2.742457e-09	2.068124e+01	1.795184e+02
1.130000e-06	2.984909e-06	2.856308e-09	2.129343e+01	1.870625e+02
1.140000e-06	3.069774e-06	2.969132e-09	2.189883e+01	1.943161e+02
1.150000e-06	3.153707e-06	3.078064e-09	2.249758e+01	2.012810e+02
1.160000e-06	3.236588e-06	3.180693e-09	2.308883e+01	2.079623e+02
1.170000e-06	3.318231e-06	3.276645e-09	2.367125e+01	2.143685e+02
1.180000e-06	3.398607e-06	3.368390e-09	2.424463e+01	2.205103e+02
1.190000e-06	3.477732e-06	3.458135e-09	2.480908e+01	2.264004e+02
1.200000e-06	3.555628e-06	3.546504e-09	2.536477e+01	2.320526e+02
1.210000e-06	3.632315e-06	3.632733e-09	2.591183e+01	2.374811e+02
1.220000e-06	3.707672e-06	3.714319e-09	2.644940e+01	2.426996e+02
1.230000e-06	3.781489e-06	3.791027e-09	2.697599e+01	2.477212e+02
1.240000e-06	3.853756e-06	3.862630e-09	2.749152e+01	2.525571e+02
1.250000e-06	3.924546e-06	3.931095e-09	2.799652e+01	2.572166e+02
1.260000e-06	3.993940e-06	3.998764e-09	2.849155e+01	2.617070e+02
1.270000e-06	4.062030e-06	4.065907e-09	2.897728e+01	2.660335e+02
1.280000e-06	4.128659e-06	4.130667e-09	2.945260e+01	2.701992e+02
1.290000e-06	4.193671e-06	4.191271e-09	2.991637e+01	2.742057e+02
1.300000e-06	4.257160e-06	4.248144e-09	3.036928e+01	2.780535e+02
1.310000e-06	4.319219e-06	4.303161e-09	3.081199e+01	2.817425e+02
1.320000e-06	4.379922e-06	4.355969e-09	3.124503e+01	2.852723e+02
1.330000e-06	4.439153e-06	4.406076e-09	3.166756e+01	2.886431e+02
1.340000e-06	4.496671e-06	4.452273e-09	3.207788e+01	2.918555e+02
1.350000e-06	4.552465e-06	4.496357e-09	3.247590e+01	2.949113e+02
1.360000e-06	4.606622e-06	4.539063e-09	3.286224e+01	2.978131e+02
1.370000e-06	4.659041e-06	4.578518e-09	3.323618e+01	3.005644e+02
1.380000e-06	4.709496e-06	4.615207e-09	3.359611e+01	3.031696e+02
1.390000e-06	4.757993e-06	4.649586e-09	3.394207e+01	3.056336e+02
1.400000e-06	4.804719e-06	4.682041e-09	3.427540e+01	3.079619e+02
1.410000e-06	4.849876e-06	4.713584e-09	3.459754e+01	3.101596e+02
1.420000e-06	4.893452e-06	4.744725e-09	3.490839e+01	3.122322e+02
1.430000e-06	4.935198e-06	4.773834e-09	3.520620e+01	3.141847e+02
1.440000e-06	4.975104e-06	4.799198e-09	3.549088e+01	3.160219e+02
1.450000e-06	5.013307e-06	4.821100e-09	3.576340e+01	3.177482e+02
1.460000e-06	5.049868e-06	4.841618e-09	3.602422e+01	3.193679e+02
1.470000e-06	5.084736e-06	4.863616e-09	3.627296e+01	3.208849e+02
1.480000e-06	5.117736e-06	4.885509e-09	3.650837e+01	3.223030e+02
1.490000e-06	5.148908e-06	4.904424e-09	3.673074e+01	3.236259e+02
1.500000e-06	5.178378e-06	4.920997e-09	3.694097e+01	3.248568e+02
1.510000e-06	5.206151e-06	4.936779e-09	3.713910e+01	3.259991e+02
1.520000e-06	5.232022e-06	4.952240e-09	3.732365e+01	3.270553e+02
1.530000e-06	5.255835e-06	4.967718e-09	3.749352e+01	3.280278e+02
1.540000e-06	5.277730e-06	4.981914e-09	3.764972e+01	3.289182e+02
1.550000e-06	5.297900e-06	4.993641e-09	3.779361e+01	3.297273e+02
1.560000e-06	5.316233e-06	5.004199e-09	3.792438e+01	3.304555e+02
1.570000e-06	5.332590e-06	5.014204e-09	3.804107e+01	3.311023e+02
1.580000e-06	5.346980e-06	5.023612e-09	3.814373e+01	3.316670e+02
1.590000e-06	5.359347e-06	5.031239e-09	3.823195e+01	3.321484e+02
1.600000e-06	5.369578e-06	5.036445e-09	3.830493e+01	3.325457e+02
1.610000e-06	5.377660e-06	5.040354e-09	3.836259e+01	3.328583e+02
1.620000e-06	5.383868e-06	5.045081e-09	3.840687e+01	3.330864e+02
1.630000e-06	5.388327e-06	5.050341e-09	3.843868e+01	3.332310e+02
1.640000e-06	5.390835e-06	5.054038e-09	3.845657e+01	3.332943e+02
1.650000e-06	5.391315e-06	5.055924e-09	3.846000e+01	3.332792e+02
1.660000e-06	5.389985e-06	5.053728e-09	3.845051e+01	3.331896e+02
1.670000e-06	5.387028e-06	5.047955e-09	3.842941e+01	3.330301e+02
1.680000e-06	5.382359e-06	5.044560e-09	3.839611e+01	3.328054e+02
1.690000e-06	5.375793e-06	5.041930e-09	3.834927e+01	3.325198e+02
1.700000e-06	5.367422e-06	5.038268e-09	3.828955e+01	3.321772e+02
1.710000e-06	5.357470e-06	5.032787e-09	3.821856e+01	3.317805e+02
1.720000e-06	5.345867e-06	5.026603e-09	3.813579e+01	3.313312e+02
1.730000e-06	5.332341e-06	5.021333e-09	3.803929e+01	3.308296e+02
1.740000e-06	5.316689e-06	4.987306e-09	3.792764e+01	3.302743e+02
1.750000e-06	5.298658e-06	4.963455e-09	3.779901e+01	3.296629e+02
1.760000e-06	5.278019e-06	4.975096e-09	3.765178e+01	3.289922e+02
1.770000e-06	5.255108e-06	4.982655e-09	3.748834e+01	3.282582e+02
1.780000e-06	5.230861e-06	5.013050e-09	3.731536e+01	3.274569e+02
1.790000e-06	5.205841e-06	4.986025e-09	3.713689e+01	3.265846e+02
1.800000e-06	5.179443e-06	4.901266e-09	3.694857e+01	3.256383e+02
1.810000e-06	5.150950e-06	4.922912e-09	3.674531e+01	3.246156e+02
1.820000e-06	5.120592e-06	4.900429e-09	3.652875e+01	3.235154e+02
1.830000e-06	5.088519e-06	4.868082e-09	3.629994e+01	3.223375e+02
1.840000e-06	5.054532e-06	4.950097e-09	3.605749e+01	3.210825e+02
1.850000e-06	5.018866e-06	4.920871e-09	3.580306e+01	3.197516e+02
1.860000e-06	4.981471e-06	4.873512e-09	3.553629e+01	3.183464e+02
1.870000e-06	4.942170e-06	4.863192e-09	3.525594e+01	3.168685e+02
1.880000e-06	4.901155e-06	4.745336e-09	3.496335e+01	3.153191e+02
1.890000e-06	4.858410e-06	4.742899e-09	3.465841e+01	3.136993e+02
1.900000e-06	4.814047e-06	4.790424e-09	3.434194e+01	3.120094e+02
1.910000e-06	4.767866e-06	4.758879e-09	3.401251e+01	3.102493e+02
1.920000e-06	4.719600e-06	4.739846e-09	3.366819e+01	3.084185e+02
1.930000e-06	4.669645e-06	4.644375e-09	3.331183e+01	3.065160e+02
1.940000e-06	4.618108e-06	4.625020e-09	3.294417e+01	3.045410e+02
1.950000e-06	4.564623e-06	4.622151e-09	3.256263e+01	3.024925e+02
1.960000e-06	4.509091e-06	4.563436e-09	3.216648e+01	3.003699e+02
1.970000e-06	4.451776e-06	4.568932e-09	3.175761e+01	2.981728e+02
1.980000e-06	4.393010e-06	4.518480e-09	3.133839e+01	2.959013e+02
1.990000e-06	4.332791e-06	4.489317e-09	3.090881e+01	2.935556e+02
2.000000e-06	4.270887e-06	4.461312e-09	3.046721e+01	2.911364e+02
2.010000e-06	4.207315e-06	4.395522e-09	3.001370e+01	2.886443e+02
2.020000e-06	4.142266e-06	4.368404e-09	2.954966e+01	2.860797e+02
2.030000e-06	4.075846e-06	4.300261e-09	2.907584e+01	2.834430e+02
2.040000e-06	4.008003e-06	4.283379e-09	2.859187e+01	2.807344e+02
2.050000e-06	3.938698e-06	4.266973e-09	2.809747e+01	2.779534e+02
2.060000e-06	3.867822e-06	4.221346e-09	2.759186e+01	2.750997e+02
2.070000e-06	3.795529e-06	4.183679e-09	2.707614e+01	2.721726e+02
2.080000e-06	3.722008e-06	4.095693e-09	2.655167e+01	2.691713e+02
2.090000e-06	3.647140e-06	4.038210e-09	2.601758e+01	2.660954e+02
2.100000e-06	3.570850e-06	3.991880e-09	2.547336e+01	2.629445e+02
2.110000e-06	3.492967e-06	3.970653e-09	2.491776e+01	2.597185e+02
2.120000e-06	3.413618e-06	3.944096e-09	2.435171e+01	2.564178e+02
2.130000e-06	3.333145e-06	3.880851e-09	2.377764e+01	2.530428e+02
2.140000e-06	3.251529e-06	3.825052e-09	2.319542e+01	2.495941e+02
2.150000e-06	3.168778e-06	3.750632e-09	2.260509e+01	2.460723e+02
2.160000e-06	3.085060e-06	3.696741e-09	2.200788e+01	2.424775e+02
2.170000e-06	3.000354e-06	3.654586e-09	2.140361e+01	2.388093e+02
2.180000e-06	2.914326e-06	3.609036e-09	2.078991e+01	2.350668e+02
2.190000e-06	2.826983e-06	3.545558e-09	2.016684e+01	2.312482e+02
2.200000e-06	2.738665e-06	3.476888e-09	1.953680e+01	2.273512e+02
2.210000e-06	2.649466e-06	3.424460e-09	1.890049e+01	2.233727e+02
2.220000e-06	2.559349e-06	3.360083e-09	1.825761e+01	2.193095e+02
2.230000e-06	2.468368e-06	3.293369e-09	1.760859e+01	2.151583e+02
2.240000e-06	2.376623e-06	3.230417e-09	1.695410e+01	2.109160e+02
2.250000e-06	2.284133e-06	3.175331e-09	1.629431e+01	2.065801e+02
2.260000e-06	2.190841e-06	3.111278e-09	1.562879e+01	2.021490e+02
2.270000e-06	2.096489e-06	3.042060e-09	1.495572e+01	1.976217e+02
2.280000e-06	2.001066e-06	2.973441e-09	1.427499e+01	1.929982e+02
2.290000e-06	1.904938e-06	2.891380e-09	1.358925e+01	1.882795e+02
2.300000e-06	1.808301e-06	2.803545e-09	1.289987e+01	1.834666e+02
2.310000e-06	1.711158e-06	2.729863e-09	1.220688e+01	1.785609e+02
2.320000e-06	1.613466e-06	2.671489e-09	1.150998e+01	1.735636e+02
2.330000e-06	1.515228e-06	2.603376e-09	1.080918e+01	1.684753e+02
2.340000e-06	1.416485e-06	2.524106e-09	1.010477e+01	1.632956e+02
2.350000e-06	1.317259e-06	2.439693e-09	9.396926e+00	1.580232e+02
2.360000e-06	1.217615e-06	2.353444e-09	8.686092e+00	1.526559e+02
2.370000e-06	1.117708e-06	2.267813e-09	7.973386e+00	1.471902e+02
2.380000e-06	1.017527e-06	2.186642e-09	7.258728e+00	1.416221e+02
2.390000e-06	9.169589e-07	2.106590e-09	6.541305e+00	1.359473e+02
2.400000e-06	8.160469e-07	2.016692e-09	5.821430e+00	1.301613e+02
2.410000e-06	7.148572e-07	1.920053e-09	5.099573e+00	1.242598e+02
2.420000e-06	6.134480e-07	1.826316e-09	4.376151e+00	1.182391e+02
2.430000e-06	5.119002e-07	1.737615e-09	3.651740e+00	1.120963e+02
2.440000e-06	4.101292e-07	1.647564e-09	2.925737e+00	1.058286e+02
2.450000e-06	3.081065e-07	1.552584e-09	2.197938e+00	9.943406e+01
2.460000e-06	2.059112e-07	1.452271e-09	1.468908e+00	9.291045e+01
2.470000e-06	1.035865e-07	1.347378e-09	7.389542e-01	8.625520e+01
2.480000e-06	1.202886e-09	1.238485e-09	8.581025e-03	7.946489e+01
2.490000e-06	-1.012151e-07	1.128957e-09	-7.220378e-01	7.253480e+01
2.500000e-06	-2.035745e-07	1.020776e-09	-1.452238e+00	6.545868e+01
2.510000e-06	-3.058260e-07	9.114107e-10	-2.181669e+00	5.822863e+01
2.520000e-06	-4.079141e-07	7.988808e-10	-2.909935e+00	5.083534e+01
2.530000e-06	-5.098303e-07	6.844150e-10	-3.636974e+00	4.326843e+01
2.540000e-06	-6.115826e-07	5.692837e-10	-4.362844e+00	3.551721e+01
2.550000e-06	-7.130887e-07	4.481583e-10	-5.086957e+00	2.757149e+01
2.560000e-06	-8.142757e-07	3.168929e-10	-5.808794e+00	1.942269e+01
2.570000e-06	-9.151221e-07	1.799920e-10	-6.528202e+00	1.106480e+01
2.580000e-06	-1.015705e-06	4.513313e-11	-7.245728e+00	2.495522e+00
2.590000e-06	-1.115961e-06	-8.563552e-11	-7.960927e+00	-6.282953e+00
2.600000e-06	-1.215746e-06	-2.179278e-10	-8.672761e+00	-1.526323e+01
2.610000e-06	-1.315004e-06	-3.565581e-10	-9.380835e+00	-2.443236e+01
2.620000e-06	-1.413796e-06	-5.012517e-10	-1.008559e+01	-3.377181e+01
2.630000e-06	-1.512131e-06	-6.472693e-10	-1.078708e+01	-4.325770e+01
2.640000e-06	-1.609934e-06	-7.904269e-10	-1.148478e+01	-5.286140e+01
2.650000e-06	-1.707186e-06	-9.338370e-10	-1.217854e+01	-6.255032e+01
2.660000e-06	-1.803925e-06	-1.082411e-09	-1.286865e+01	-7.228888e+01
2.670000e-06	-1.900164e-06	-1.235395e-09	-1.355519e+01	-8.203961e+01
2.680000e-06	-1.995725e-06	-1.387373e-09	-1.423689e+01	-9.176423e+01
2.690000e-06	-2.090451e-06	-1.533834e-09	-1.491264e+01	-1.014247e+02
2.700000e-06	-2.184296e-06	-1.675409e-09	-1.558210e+01	-1.109841e+02
2.710000e-06	-2.277288e-06	-1.817408e-09	-1.624548e+01	-1.204077e+02
2.720000e-06	-2.369489e-06	-1.959421e-09	-1.690322e+01	-1.296632e+02
2.730000e-06	-2.460775e-06	-2.098661e-09	-1.755442e+01	-1.387217e+02
2.740000e-06	-2.551035e-06	-2.233759e-09	-1.819831e+01	-1.475577e+02
2.750000e-06	-2.640371e-06	-2.365952e-09	-1.883560e+01	-1.561497e+02
2.760000e-06	-2.728958e-06	-2.496309e-09	-1.946756e+01	-1.644801e+02
2.770000e-06	-2.816826e-06	-2.621597e-09	-2.009438e+01	-1.725357e+02
2.780000e-06	-2.903663e-06	-2.741188e-09	-2.071385e+01	-1.803071e+02
2.790000e-06	-2.989300e-06	-2.854380e-09	-2.132476e+01	-1.877892e+02
2.800000e-06	-3.073868e-06	-2.962169e-09	-2.192804e+01	-1.949809e+02
2.810000e-06	-3.157384e-06	-3.066843e-09	-2.252382e+01	-2.018846e+02
2.820000e-06	-3.239819e-06	-3.168669e-09	-2.311188e+01	-2.085065e+02
2.830000e-06	-3.321194e-06	-3.267475e-09	-2.369238e+01	-2.148553e+02
2.840000e-06	-3.401538e-06	-3.361795e-09	-2.426553e+01	-2.209422e+02
2.850000e-06	-3.480616e-06	-3.450766e-09	-2.482965e+01	-2.267804e+02
2.860000e-06	-3.558215e-06	-3.534584e-09	-2.538322e+01	-2.323837e+02
2.870000e-06	-3.634313e-06	-3.614454e-09	-2.592608e+01	-2.377663e+02
2.880000e-06	-3.708940e-06	-3.692724e-09	-2.645845e+01	-2.429418e+02
2.890000e-06	-3.782254e-06	-3.769633e-09	-2.698145e+01	-2.479230e+02
2.900000e-06	-3.854316e-06	-3.844742e-09	-2.749552e+01	-2.527205e+02
2.910000e-06	-3.924950e-06	-3.915836e-09	-2.799940e+01	-2.573435e+02
2.920000e-06	-3.994018e-06	-3.982371e-09	-2.849210e+01	-2.617987e+02
2.930000e-06	-4.061609e-06	-4.048220e-09	-2.897428e+01	-2.660907e+02
2.940000e-06	-4.127801e-06	-4.112925e-09	-2.944648e+01	-2.702224e+02
