# Temperatura_=_69.51
# Concentracion g/m^3_=_15000.0
# C_Vs_to_Am_M_A/Vsm_=_65563218390.804596
# pendiente_HvsI_1/m_=_3716.3
# ordenada_HvsI_A/m_=_1297.0
# frecuencia_Hz_=_301580.0345112991

Tiempo_(s)	Campo_(V.s)	Magnetizacion_(V.s)	Campo_(kA/m)	Magnetizacion_(A/m)
0.000000e+00	-5.364335e-06	-5.843347e-09	-3.834428e+01	-3.821529e+02
1.000000e-08	-5.361483e-06	-5.843490e-09	-3.832389e+01	-3.819672e+02
2.000000e-08	-5.356869e-06	-5.839512e-09	-3.829091e+01	-3.817016e+02
3.000000e-08	-5.350610e-06	-5.833189e-09	-3.824616e+01	-3.813560e+02
4.000000e-08	-5.342780e-06	-5.825053e-09	-3.819020e+01	-3.809303e+02
5.000000e-08	-5.333130e-06	-5.814813e-09	-3.812122e+01	-3.804249e+02
6.000000e-08	-5.321414e-06	-5.807028e-09	-3.803747e+01	-3.798405e+02
7.000000e-08	-5.307852e-06	-5.800158e-09	-3.794054e+01	-3.791786e+02
8.000000e-08	-5.292193e-06	-5.776779e-09	-3.782860e+01	-3.784410e+02
9.000000e-08	-5.274251e-06	-5.798309e-09	-3.770035e+01	-3.776300e+02
1.000000e-07	-5.254301e-06	-5.816376e-09	-3.755775e+01	-3.767478e+02
1.100000e-07	-5.232472e-06	-5.774739e-09	-3.740172e+01	-3.757964e+02
1.200000e-07	-5.208982e-06	-5.752911e-09	-3.723381e+01	-3.747772e+02
1.300000e-07	-5.183950e-06	-5.696495e-09	-3.705488e+01	-3.736905e+02
1.400000e-07	-5.157242e-06	-5.611180e-09	-3.686397e+01	-3.725356e+02
1.500000e-07	-5.128943e-06	-5.730093e-09	-3.666169e+01	-3.713103e+02
1.600000e-07	-5.099206e-06	-5.701971e-09	-3.644913e+01	-3.700113e+02
1.700000e-07	-5.067874e-06	-5.610708e-09	-3.622517e+01	-3.686343e+02
1.800000e-07	-5.034423e-06	-5.676421e-09	-3.598606e+01	-3.671744e+02
1.900000e-07	-4.999118e-06	-5.535232e-09	-3.573370e+01	-3.656262e+02
2.000000e-07	-4.962429e-06	-5.496378e-09	-3.547145e+01	-3.639850e+02
2.100000e-07	-4.923963e-06	-5.586287e-09	-3.519649e+01	-3.622464e+02
2.200000e-07	-4.883616e-06	-5.509087e-09	-3.490810e+01	-3.604074e+02
2.300000e-07	-4.841326e-06	-5.503285e-09	-3.460580e+01	-3.584666e+02
2.400000e-07	-4.797124e-06	-5.495608e-09	-3.428985e+01	-3.564238e+02
2.500000e-07	-4.751213e-06	-5.384963e-09	-3.396168e+01	-3.542805e+02
2.600000e-07	-4.703457e-06	-5.385701e-09	-3.362032e+01	-3.520395e+02
2.700000e-07	-4.653565e-06	-5.335021e-09	-3.326369e+01	-3.497045e+02
2.800000e-07	-4.601558e-06	-5.298099e-09	-3.289194e+01	-3.472796e+02
2.900000e-07	-4.547734e-06	-5.283216e-09	-3.250721e+01	-3.447688e+02
3.000000e-07	-4.492372e-06	-5.228699e-09	-3.211148e+01	-3.421757e+02
3.100000e-07	-4.435415e-06	-5.191361e-09	-3.170435e+01	-3.395029e+02
3.200000e-07	-4.376585e-06	-5.150341e-09	-3.128384e+01	-3.367518e+02
3.300000e-07	-4.316142e-06	-5.115363e-09	-3.085179e+01	-3.339227e+02
3.400000e-07	-4.254302e-06	-5.037683e-09	-3.040975e+01	-3.310148e+02
3.500000e-07	-4.191143e-06	-4.988924e-09	-2.995830e+01	-3.280263e+02
3.600000e-07	-4.126480e-06	-4.971722e-09	-2.949609e+01	-3.249548e+02
3.700000e-07	-4.060020e-06	-4.923998e-09	-2.902103e+01	-3.217980e+02
3.800000e-07	-3.992031e-06	-4.885075e-09	-2.853504e+01	-3.185537e+02
3.900000e-07	-3.922719e-06	-4.823560e-09	-2.803960e+01	-3.152205e+02
4.000000e-07	-3.852128e-06	-4.753390e-09	-2.753502e+01	-3.117976e+02
4.100000e-07	-3.780385e-06	-4.699813e-09	-2.702220e+01	-3.082853e+02
4.200000e-07	-3.707291e-06	-4.640412e-09	-2.649972e+01	-3.046850e+02
4.300000e-07	-3.632558e-06	-4.608251e-09	-2.596553e+01	-3.009985e+02
4.400000e-07	-3.556267e-06	-4.559552e-09	-2.542020e+01	-2.972279e+02
4.500000e-07	-3.478595e-06	-4.490127e-09	-2.486500e+01	-2.933753e+02
4.600000e-07	-3.399519e-06	-4.416708e-09	-2.429976e+01	-2.894423e+02
4.700000e-07	-3.319125e-06	-4.350745e-09	-2.372511e+01	-2.854297e+02
4.800000e-07	-3.237570e-06	-4.299711e-09	-2.314215e+01	-2.813372e+02
4.900000e-07	-3.154863e-06	-4.235520e-09	-2.255096e+01	-2.771632e+02
5.000000e-07	-3.071187e-06	-4.173712e-09	-2.195285e+01	-2.729051e+02
5.100000e-07	-2.986621e-06	-4.102627e-09	-2.134837e+01	-2.685593e+02
5.200000e-07	-2.901043e-06	-4.033354e-09	-2.073666e+01	-2.641218e+02
5.300000e-07	-2.814415e-06	-3.963042e-09	-2.011744e+01	-2.595884e+02
5.400000e-07	-2.726939e-06	-3.890149e-09	-1.949217e+01	-2.549553e+02
5.500000e-07	-2.638666e-06	-3.815625e-09	-1.886119e+01	-2.502195e+02
5.600000e-07	-2.549191e-06	-3.733619e-09	-1.822162e+01	-2.453791e+02
5.700000e-07	-2.458435e-06	-3.660178e-09	-1.757290e+01	-2.404337e+02
5.800000e-07	-2.366831e-06	-3.587129e-09	-1.691811e+01	-2.353839e+02
5.900000e-07	-2.274572e-06	-3.514816e-09	-1.625864e+01	-2.302316e+02
6.000000e-07	-2.181529e-06	-3.432676e-09	-1.559358e+01	-2.249797e+02
6.100000e-07	-2.087624e-06	-3.344024e-09	-1.492234e+01	-2.196310e+02
6.200000e-07	-1.992938e-06	-3.258132e-09	-1.424552e+01	-2.141885e+02
6.300000e-07	-1.897649e-06	-3.177303e-09	-1.356439e+01	-2.086544e+02
6.400000e-07	-1.801832e-06	-3.098665e-09	-1.287950e+01	-2.030298e+02
6.500000e-07	-1.705324e-06	-3.013833e-09	-1.218966e+01	-1.973144e+02
6.600000e-07	-1.608010e-06	-2.920843e-09	-1.149406e+01	-1.915063e+02
6.700000e-07	-1.509891e-06	-2.822080e-09	-1.079270e+01	-1.856024e+02
6.800000e-07	-1.411044e-06	-2.729313e-09	-1.008615e+01	-1.795980e+02
6.900000e-07	-1.311764e-06	-2.638955e-09	-9.376492e+00	-1.734879e+02
7.000000e-07	-1.212195e-06	-2.547428e-09	-8.664772e+00	-1.672663e+02
7.100000e-07	-1.112321e-06	-2.450553e-09	-7.950875e+00	-1.609278e+02
7.200000e-07	-1.012185e-06	-2.348559e-09	-7.235101e+00	-1.544674e+02
7.300000e-07	-9.117994e-07	-2.246628e-09	-6.517543e+00	-1.478812e+02
7.400000e-07	-8.110494e-07	-2.147314e-09	-5.797382e+00	-1.411661e+02
7.500000e-07	-7.099300e-07	-2.047366e-09	-5.074581e+00	-1.343205e+02
7.600000e-07	-6.085350e-07	-1.941065e-09	-4.349809e+00	-1.273435e+02
7.700000e-07	-5.069356e-07	-1.828946e-09	-3.623576e+00	-1.202344e+02
7.800000e-07	-4.052052e-07	-1.715779e-09	-2.896407e+00	-1.129927e+02
7.900000e-07	-3.033294e-07	-1.605390e-09	-2.168199e+00	-1.056170e+02
8.000000e-07	-2.013034e-07	-1.492140e-09	-1.438917e+00	-9.810453e+01
8.100000e-07	-9.920858e-08	-1.376442e-09	-7.091431e-01	-9.045066e+01
8.200000e-07	2.922054e-09	-1.258309e-09	2.088685e-02	-8.264854e+01
8.300000e-07	1.051154e-07	-1.136713e-09	7.513649e-01	-7.468896e+01
8.400000e-07	2.073038e-07	-1.015269e-09	1.481808e+00	-6.656060e+01
8.500000e-07	3.093991e-07	-8.940615e-10	2.211585e+00	-5.825040e+01
8.600000e-07	4.114371e-07	-7.672918e-10	2.940953e+00	-4.974435e+01
8.700000e-07	5.133701e-07	-6.296627e-10	3.669570e+00	-4.102844e+01
8.800000e-07	6.151348e-07	-4.893464e-10	4.396985e+00	-3.208975e+01
8.900000e-07	7.166923e-07	-3.502339e-10	5.122917e+00	-2.291765e+01
9.000000e-07	8.179834e-07	-2.080109e-10	5.846946e+00	-1.350494e+01
9.100000e-07	9.189150e-07	-6.066636e-11	6.568406e+00	-3.848909e+00
9.200000e-07	1.019504e-06	9.122366e-11	7.287419e+00	6.047833e+00
9.300000e-07	1.119823e-06	2.480125e-10	8.004498e+00	1.617679e+01
9.400000e-07	1.219792e-06	4.076018e-10	8.719076e+00	2.652333e+01
9.500000e-07	1.319428e-06	5.678243e-10	9.431275e+00	3.706669e+01
9.600000e-07	1.418669e-06	7.302447e-10	1.014065e+01	4.778043e+01
9.700000e-07	1.517354e-06	8.959739e-10	1.084605e+01	5.863303e+01
9.800000e-07	1.615244e-06	1.065305e-09	1.154577e+01	6.958880e+01
9.900000e-07	1.712278e-06	1.233623e-09	1.223936e+01	8.060892e+01
1.000000e-06	1.808565e-06	1.401138e-09	1.292762e+01	9.165259e+01
1.010000e-06	1.904146e-06	1.569031e-09	1.361084e+01	1.026781e+02
1.020000e-06	1.999040e-06	1.738919e-09	1.428914e+01	1.136442e+02
1.030000e-06	2.093272e-06	1.907661e-09	1.496271e+01	1.245106e+02
1.040000e-06	2.186838e-06	2.072055e-09	1.563152e+01	1.352393e+02
1.050000e-06	2.279657e-06	2.233289e-09	1.629499e+01	1.457950e+02
1.060000e-06	2.371765e-06	2.389643e-09	1.695338e+01	1.561458e+02
1.070000e-06	2.463126e-06	2.542369e-09	1.760643e+01	1.662634e+02
1.080000e-06	2.553546e-06	2.693568e-09	1.825275e+01	1.761232e+02
1.090000e-06	2.642885e-06	2.842932e-09	1.889135e+01	1.857049e+02
1.100000e-06	2.731121e-06	2.986749e-09	1.952205e+01	1.949919e+02
1.110000e-06	2.818403e-06	3.120175e-09	2.014595e+01	2.039716e+02
1.120000e-06	2.904849e-06	3.248514e-09	2.076386e+01	2.126352e+02
1.130000e-06	2.990345e-06	3.375897e-09	2.137499e+01	2.209775e+02
1.140000e-06	3.074916e-06	3.500738e-09	2.197950e+01	2.289970e+02
1.150000e-06	3.158580e-06	3.617774e-09	2.257754e+01	2.366954e+02
1.160000e-06	3.241158e-06	3.728334e-09	2.316780e+01	2.440777e+02
1.170000e-06	3.322511e-06	3.834459e-09	2.374931e+01	2.511517e+02
1.180000e-06	3.402589e-06	3.935347e-09	2.432171e+01	2.579279e+02
1.190000e-06	3.481480e-06	4.033392e-09	2.488563e+01	2.644189e+02
1.200000e-06	3.559164e-06	4.128734e-09	2.544091e+01	2.706392e+02
1.210000e-06	3.635544e-06	4.221176e-09	2.598687e+01	2.766042e+02
1.220000e-06	3.710540e-06	4.309880e-09	2.652295e+01	2.823302e+02
1.230000e-06	3.784054e-06	4.394942e-09	2.704842e+01	2.878333e+02
1.240000e-06	3.856017e-06	4.476206e-09	2.756281e+01	2.931290e+02
1.250000e-06	3.926545e-06	4.552990e-09	2.806695e+01	2.982312e+02
1.260000e-06	3.995725e-06	4.626026e-09	2.856145e+01	3.031524e+02
1.270000e-06	4.063549e-06	4.699168e-09	2.904626e+01	3.079025e+02
1.280000e-06	4.129906e-06	4.770533e-09	2.952058e+01	3.124892e+02
1.290000e-06	4.194576e-06	4.837753e-09	2.998284e+01	3.169173e+02
1.300000e-06	4.257656e-06	4.900711e-09	3.043373e+01	3.211895e+02
1.310000e-06	4.319313e-06	4.962526e-09	3.087445e+01	3.253060e+02
1.320000e-06	4.379591e-06	5.022889e-09	3.130533e+01	3.292656e+02
1.330000e-06	4.438438e-06	5.079379e-09	3.172596e+01	3.330658e+02
1.340000e-06	4.495604e-06	5.133252e-09	3.213458e+01	3.367037e+02
1.350000e-06	4.551030e-06	5.185594e-09	3.253077e+01	3.401764e+02
1.360000e-06	4.604821e-06	5.233923e-09	3.291527e+01	3.434820e+02
1.370000e-06	4.656868e-06	5.276668e-09	3.328730e+01	3.466197e+02
1.380000e-06	4.706932e-06	5.318801e-09	3.364516e+01	3.495906e+02
1.390000e-06	4.755013e-06	5.361608e-09	3.398884e+01	3.523972e+02
1.400000e-06	4.801371e-06	5.401064e-09	3.432021e+01	3.550440e+02
1.410000e-06	4.846182e-06	5.435634e-09	3.464052e+01	3.575371e+02
1.420000e-06	4.889452e-06	5.468765e-09	3.494981e+01	3.598834e+02
1.430000e-06	4.930916e-06	5.500868e-09	3.524620e+01	3.620909e+02
1.440000e-06	4.970540e-06	5.530134e-09	3.552943e+01	3.641676e+02
1.450000e-06	5.008499e-06	5.556079e-09	3.580076e+01	3.661210e+02
1.460000e-06	5.044828e-06	5.581044e-09	3.606044e+01	3.679578e+02
1.470000e-06	5.079434e-06	5.607412e-09	3.630780e+01	3.696836e+02
1.480000e-06	5.112083e-06	5.631482e-09	3.654118e+01	3.713023e+02
1.490000e-06	5.142869e-06	5.651972e-09	3.676124e+01	3.728167e+02
1.500000e-06	5.172022e-06	5.670334e-09	3.696962e+01	3.742278e+02
1.510000e-06	5.199539e-06	5.687649e-09	3.716631e+01	3.755360e+02
1.520000e-06	5.225080e-06	5.704269e-09	3.734888e+01	3.767406e+02
1.530000e-06	5.248526e-06	5.720466e-09	3.751647e+01	3.778409e+02
1.540000e-06	5.270134e-06	5.736428e-09	3.767093e+01	3.788361e+02
1.550000e-06	5.289998e-06	5.749954e-09	3.781291e+01	3.797259e+02
1.560000e-06	5.308011e-06	5.760840e-09	3.794167e+01	3.805109e+02
1.570000e-06	5.324069e-06	5.771789e-09	3.805645e+01	3.811922e+02
1.580000e-06	5.338179e-06	5.782295e-09	3.815731e+01	3.817722e+02
1.590000e-06	5.350233e-06	5.791240e-09	3.824347e+01	3.822536e+02
1.600000e-06	5.360141e-06	5.797094e-09	3.831430e+01	3.826398e+02
1.610000e-06	5.368001e-06	5.799312e-09	3.837048e+01	3.829345e+02
1.620000e-06	5.373945e-06	5.801374e-09	3.841297e+01	3.831408e+02
1.630000e-06	5.378062e-06	5.804718e-09	3.844239e+01	3.832620e+02
1.640000e-06	5.380285e-06	5.807672e-09	3.845828e+01	3.833003e+02
1.650000e-06	5.380525e-06	5.810045e-09	3.846000e+01	3.832573e+02
1.660000e-06	5.378952e-06	5.808702e-09	3.844876e+01	3.831341e+02
1.670000e-06	5.375802e-06	5.801683e-09	3.842624e+01	3.829310e+02
1.680000e-06	5.370975e-06	5.798424e-09	3.839174e+01	3.826479e+02
1.690000e-06	5.364164e-06	5.793843e-09	3.834305e+01	3.822848e+02
1.700000e-06	5.355539e-06	5.786974e-09	3.828140e+01	3.818417e+02
1.710000e-06	5.345395e-06	5.779554e-09	3.820889e+01	3.813189e+02
1.720000e-06	5.333572e-06	5.770943e-09	3.812438e+01	3.807175e+02
1.730000e-06	5.319800e-06	5.778599e-09	3.802594e+01	3.800389e+02
1.740000e-06	5.303930e-06	5.738543e-09	3.791250e+01	3.792850e+02
1.750000e-06	5.285663e-06	5.681534e-09	3.778193e+01	3.784583e+02
1.760000e-06	5.264702e-06	5.692402e-09	3.763210e+01	3.775608e+02
1.770000e-06	5.241480e-06	5.680998e-09	3.746611e+01	3.765945e+02
1.780000e-06	5.217023e-06	5.735853e-09	3.729129e+01	3.755605e+02
1.790000e-06	5.191879e-06	5.752240e-09	3.711156e+01	3.744590e+02
1.800000e-06	5.165306e-06	5.555262e-09	3.692161e+01	3.732888e+02
1.810000e-06	5.136568e-06	5.630968e-09	3.671620e+01	3.720477e+02
1.820000e-06	5.106041e-06	5.672079e-09	3.649799e+01	3.707321e+02
1.830000e-06	5.073801e-06	5.536385e-09	3.626754e+01	3.693375e+02
1.840000e-06	5.039584e-06	5.694959e-09	3.602295e+01	3.678588e+02
1.850000e-06	5.003741e-06	5.663626e-09	3.576675e+01	3.662908e+02
1.860000e-06	4.966171e-06	5.518331e-09	3.549820e+01	3.646286e+02
1.870000e-06	4.926711e-06	5.584174e-09	3.521614e+01	3.628684e+02
1.880000e-06	4.885562e-06	5.445094e-09	3.492201e+01	3.610074e+02
1.890000e-06	4.842559e-06	5.453688e-09	3.461462e+01	3.590443e+02
1.900000e-06	4.797960e-06	5.519270e-09	3.429582e+01	3.569795e+02
1.910000e-06	4.751621e-06	5.375383e-09	3.396459e+01	3.548147e+02
1.920000e-06	4.703266e-06	5.449671e-09	3.361895e+01	3.525529e+02
1.930000e-06	4.653295e-06	5.347920e-09	3.326176e+01	3.501980e+02
1.940000e-06	4.601606e-06	5.268492e-09	3.289228e+01	3.477540e+02
1.950000e-06	4.547848e-06	5.322719e-09	3.250802e+01	3.452250e+02
1.960000e-06	4.492116e-06	5.207821e-09	3.210966e+01	3.426143e+02
1.970000e-06	4.434686e-06	5.205138e-09	3.169914e+01	3.399243e+02
1.980000e-06	4.375845e-06	5.149897e-09	3.127854e+01	3.371562e+02
1.990000e-06	4.315580e-06	5.125200e-09	3.084777e+01	3.343101e+02
2.000000e-06	4.253614e-06	5.111161e-09	3.040484e+01	3.313847e+02
2.010000e-06	4.189982e-06	4.982462e-09	2.995000e+01	3.283783e+02
2.020000e-06	4.124832e-06	4.989944e-09	2.948430e+01	3.252885e+02
2.030000e-06	4.058233e-06	4.909902e-09	2.900826e+01	3.221127e+02
2.040000e-06	3.990297e-06	4.872589e-09	2.852265e+01	3.188492e+02
2.050000e-06	3.920962e-06	4.852822e-09	2.802704e+01	3.154964e+02
2.060000e-06	3.850032e-06	4.778870e-09	2.752003e+01	3.120540e+02
2.070000e-06	3.777709e-06	4.761884e-09	2.700307e+01	3.085224e+02
2.080000e-06	3.704117e-06	4.637169e-09	2.647703e+01	3.049032e+02
2.090000e-06	3.629139e-06	4.591474e-09	2.594109e+01	3.011981e+02
2.100000e-06	3.552800e-06	4.545542e-09	2.539542e+01	2.974094e+02
2.110000e-06	3.474836e-06	4.489209e-09	2.483813e+01	2.935392e+02
2.120000e-06	3.395437e-06	4.453145e-09	2.427059e+01	2.895888e+02
2.130000e-06	3.315007e-06	4.367108e-09	2.369567e+01	2.855588e+02
2.140000e-06	3.233410e-06	4.322515e-09	2.311242e+01	2.814487e+02
2.150000e-06	3.150669e-06	4.238528e-09	2.252099e+01	2.772566e+02
2.160000e-06	3.066956e-06	4.175365e-09	2.192260e+01	2.729797e+02
2.170000e-06	2.982290e-06	4.112699e-09	2.131742e+01	2.686143e+02
2.180000e-06	2.896328e-06	4.049270e-09	2.070296e+01	2.641563e+02
2.190000e-06	2.809029e-06	3.987561e-09	2.007894e+01	2.596015e+02
2.200000e-06	2.720776e-06	3.909961e-09	1.944811e+01	2.549463e+02
2.210000e-06	2.631633e-06	3.846414e-09	1.881091e+01	2.501879e+02
2.220000e-06	2.541512e-06	3.760366e-09	1.816673e+01	2.453247e+02
2.230000e-06	2.450493e-06	3.684862e-09	1.751613e+01	2.403564e+02
2.240000e-06	2.358798e-06	3.601971e-09	1.686069e+01	2.352842e+02
2.250000e-06	2.266482e-06	3.529262e-09	1.620081e+01	2.301100e+02
2.260000e-06	2.173399e-06	3.458048e-09	1.553546e+01	2.248367e+02
2.270000e-06	2.079196e-06	3.376499e-09	1.486210e+01	2.194674e+02
2.280000e-06	1.983829e-06	3.291569e-09	1.418041e+01	2.140048e+02
2.290000e-06	1.887732e-06	3.198772e-09	1.349351e+01	2.084510e+02
2.300000e-06	1.791203e-06	3.111498e-09	1.280352e+01	2.028067e+02
2.310000e-06	1.694212e-06	3.027189e-09	1.211023e+01	1.970713e+02
2.320000e-06	1.596628e-06	2.944255e-09	1.141270e+01	1.912427e+02
2.330000e-06	1.498495e-06	2.852440e-09	1.071125e+01	1.853173e+02
2.340000e-06	1.399816e-06	2.763217e-09	1.000589e+01	1.792904e+02
2.350000e-06	1.300641e-06	2.667046e-09	9.296985e+00	1.731566e+02
2.360000e-06	1.201164e-06	2.568000e-09	8.585925e+00	1.669101e+02
2.370000e-06	1.101493e-06	2.472011e-09	7.873476e+00	1.605456e+02
2.380000e-06	1.001580e-06	2.374841e-09	7.159293e+00	1.540582e+02
2.390000e-06	9.013974e-07	2.276326e-09	6.443190e+00	1.474442e+02
2.400000e-06	8.008995e-07	2.170931e-09	5.724831e+00	1.407010e+02
2.410000e-06	7.000078e-07	2.065115e-09	5.003656e+00	1.338270e+02
2.420000e-06	5.988568e-07	1.958640e-09	4.280629e+00	1.268213e+02
2.430000e-06	4.975060e-07	1.849409e-09	3.556174e+00	1.196836e+02
2.440000e-06	3.958413e-07	1.739650e-09	2.829474e+00	1.124130e+02
2.450000e-06	2.939591e-07	1.630574e-09	2.101220e+00	1.050080e+02
2.460000e-06	1.919675e-07	1.515112e-09	1.372184e+00	9.746535e+01
2.470000e-06	8.982385e-08	1.394454e-09	6.420610e-01	8.978005e+01
2.480000e-06	-1.240837e-08	1.270770e-09	-8.869503e-02	8.194472e+01
2.490000e-06	-1.146229e-07	1.145254e-09	-8.193247e-01	7.394969e+01
2.500000e-06	-2.167920e-07	1.019085e-09	-1.549629e+00	6.578318e+01
2.510000e-06	-3.188747e-07	8.914702e-10	-2.279317e+00	5.743189e+01
2.520000e-06	-4.208045e-07	7.639849e-10	-3.007911e+00	4.888172e+01
2.530000e-06	-5.225648e-07	6.342145e-10	-3.735294e+00	4.011878e+01
2.540000e-06	-6.240805e-07	4.998001e-10	-4.460929e+00	3.113055e+01
2.550000e-06	-7.252716e-07	3.601407e-10	-5.184243e+00	2.190704e+01
2.560000e-06	-8.261261e-07	2.136212e-10	-5.905151e+00	1.244193e+01
2.570000e-06	-9.266481e-07	6.036613e-11	-6.623682e+00	2.733585e+00
2.580000e-06	-1.026852e-06	-9.306950e-11	-7.339942e+00	-7.214159e+00
2.590000e-06	-1.126724e-06	-2.444124e-10	-8.053826e+00	-1.739150e+01
2.600000e-06	-1.226233e-06	-3.988879e-10	-8.765117e+00	-2.778248e+01
2.610000e-06	-1.325356e-06	-5.582693e-10	-9.473646e+00	-3.836508e+01
2.620000e-06	-1.424009e-06	-7.216207e-10	-1.017882e+01	-4.911171e+01
2.630000e-06	-1.522098e-06	-8.879396e-10	-1.087996e+01	-5.998986e+01
2.640000e-06	-1.619633e-06	-1.055544e-09	-1.157714e+01	-7.096309e+01
2.650000e-06	-1.716644e-06	-1.223146e-09	-1.227057e+01	-8.199206e+01
2.660000e-06	-1.813146e-06	-1.391237e-09	-1.296037e+01	-9.303568e+01
2.670000e-06	-1.909169e-06	-1.559845e-09	-1.364674e+01	-1.040523e+02
2.680000e-06	-2.004587e-06	-1.727096e-09	-1.432879e+01	-1.150006e+02
2.690000e-06	-2.099114e-06	-1.890842e-09	-1.500447e+01	-1.258409e+02
2.700000e-06	-2.192621e-06	-2.052459e-09	-1.567286e+01	-1.365357e+02
2.710000e-06	-2.285194e-06	-2.213828e-09	-1.633457e+01	-1.470504e+02
2.720000e-06	-2.376960e-06	-2.371218e-09	-1.699051e+01	-1.573538e+02
2.730000e-06	-2.467939e-06	-2.522555e-09	-1.764083e+01	-1.674184e+02
2.740000e-06	-2.558011e-06	-2.669058e-09	-1.828467e+01	-1.772206e+02
2.750000e-06	-2.647125e-06	-2.814148e-09	-1.892165e+01	-1.867407e+02
2.760000e-06	-2.735450e-06	-2.956884e-09	-1.955300e+01	-1.959631e+02
2.770000e-06	-2.823027e-06	-3.093926e-09	-2.017900e+01	-2.048760e+02
2.780000e-06	-2.909526e-06	-3.226472e-09	-2.079730e+01	-2.134713e+02
2.790000e-06	-2.994803e-06	-3.352792e-09	-2.140685e+01	-2.217448e+02
2.800000e-06	-3.078995e-06	-3.474107e-09	-2.200866e+01	-2.296955e+02
2.810000e-06	-3.162168e-06	-3.592351e-09	-2.260318e+01	-2.373260e+02
2.820000e-06	-3.244286e-06	-3.705742e-09	-2.319016e+01	-2.446418e+02
2.830000e-06	-3.325342e-06	-3.814839e-09	-2.376955e+01	-2.516513e+02
2.840000e-06	-3.405343e-06	-3.918313e-09	-2.434140e+01	-2.583656e+02
2.850000e-06	-3.484033e-06	-4.014768e-09	-2.490387e+01	-2.647976e+02
2.860000e-06	-3.561157e-06	-4.108460e-09	-2.545516e+01	-2.709622e+02
2.870000e-06	-3.636824e-06	-4.199710e-09	-2.599602e+01	-2.768750e+02
2.880000e-06	-3.711134e-06	-4.286857e-09	-2.652719e+01	-2.825522e+02
2.890000e-06	-3.784130e-06	-4.370289e-09	-2.704897e+01	-2.880099e+02
2.900000e-06	-3.855861e-06	-4.451012e-09	-2.756170e+01	-2.932633e+02
2.910000e-06	-3.926145e-06	-4.529333e-09	-2.806409e+01	-2.983261e+02
2.920000e-06	-3.994845e-06	-4.604185e-09	-2.855516e+01	-3.032102e+02
2.930000e-06	-4.062101e-06	-4.676785e-09	-2.903591e+01	-3.079251e+02
2.940000e-06	-4.127962e-06	-4.747044e-09	-2.950668e+01	-3.124777e+02
