# Temperatura_=_76.84
# Concentracion g/m^3_=_15000.0
# C_Vs_to_Am_M_A/Vsm_=_65563218390.804596
# pendiente_HvsI_1/m_=_3716.3
# ordenada_HvsI_A/m_=_1297.0
# frecuencia_Hz_=_301582.9158820177

Tiempo_(s)	Campo_(V.s)	Magnetizacion_(V.s)	Campo_(kA/m)	Magnetizacion_(A/m)
0.000000e+00	-5.382587e-06	-6.877399e-09	-3.833528e+01	-4.496236e+02
1.000000e-08	-5.379616e-06	-6.875213e-09	-3.831413e+01	-4.494461e+02
2.000000e-08	-5.374848e-06	-6.870393e-09	-3.828017e+01	-4.491728e+02
3.000000e-08	-5.368433e-06	-6.862758e-09	-3.823448e+01	-4.488008e+02
4.000000e-08	-5.360451e-06	-6.853412e-09	-3.817763e+01	-4.483279e+02
5.000000e-08	-5.350688e-06	-6.843746e-09	-3.810810e+01	-4.477532e+02
6.000000e-08	-5.338925e-06	-6.837480e-09	-3.802432e+01	-4.470772e+02
7.000000e-08	-5.325242e-06	-6.835880e-09	-3.792687e+01	-4.463024e+02
8.000000e-08	-5.309403e-06	-6.804862e-09	-3.781406e+01	-4.454326e+02
9.000000e-08	-5.291259e-06	-6.795574e-09	-3.768484e+01	-4.444727e+02
1.000000e-07	-5.271078e-06	-6.819183e-09	-3.754110e+01	-4.434282e+02
1.100000e-07	-5.249031e-06	-6.792450e-09	-3.738409e+01	-4.423043e+02
1.200000e-07	-5.225358e-06	-6.777882e-09	-3.721548e+01	-4.411056e+02
1.300000e-07	-5.200162e-06	-6.758581e-09	-3.703604e+01	-4.398348e+02
1.400000e-07	-5.173307e-06	-6.613256e-09	-3.684477e+01	-4.384927e+02
1.500000e-07	-5.144855e-06	-6.675678e-09	-3.664213e+01	-4.370780e+02
1.600000e-07	-5.114946e-06	-6.719857e-09	-3.642912e+01	-4.355871e+02
1.700000e-07	-5.083404e-06	-6.582976e-09	-3.620448e+01	-4.340147e+02
1.800000e-07	-5.049795e-06	-6.653083e-09	-3.596511e+01	-4.323541e+02
1.900000e-07	-5.014332e-06	-6.599114e-09	-3.571254e+01	-4.305979e+02
2.000000e-07	-4.977398e-06	-6.475002e-09	-3.544949e+01	-4.287390e+02
2.100000e-07	-4.938715e-06	-6.556223e-09	-3.517398e+01	-4.267708e+02
2.200000e-07	-4.898127e-06	-6.523757e-09	-3.488491e+01	-4.246884e+02
2.300000e-07	-4.855611e-06	-6.450518e-09	-3.458211e+01	-4.224885e+02
2.400000e-07	-4.811236e-06	-6.439219e-09	-3.426607e+01	-4.201699e+02
2.500000e-07	-4.765127e-06	-6.349175e-09	-3.393767e+01	-4.177333e+02
2.600000e-07	-4.717124e-06	-6.345764e-09	-3.359580e+01	-4.151812e+02
2.700000e-07	-4.666998e-06	-6.308310e-09	-3.323879e+01	-4.125172e+02
2.800000e-07	-4.614773e-06	-6.246465e-09	-3.286684e+01	-4.097459e+02
2.900000e-07	-4.560741e-06	-6.223637e-09	-3.248202e+01	-4.068721e+02
3.000000e-07	-4.505110e-06	-6.169192e-09	-3.208581e+01	-4.039005e+02
3.100000e-07	-4.447786e-06	-6.119033e-09	-3.167755e+01	-4.008347e+02
3.200000e-07	-4.388675e-06	-6.066559e-09	-3.125655e+01	-3.976780e+02
3.300000e-07	-4.328018e-06	-6.035515e-09	-3.082455e+01	-3.944321e+02
3.400000e-07	-4.265935e-06	-5.967535e-09	-3.038238e+01	-3.910979e+02
3.500000e-07	-4.202464e-06	-5.889802e-09	-2.993034e+01	-3.876752e+02
3.600000e-07	-4.137471e-06	-5.870069e-09	-2.946745e+01	-3.841631e+02
3.700000e-07	-4.070741e-06	-5.829924e-09	-2.899220e+01	-3.805601e+02
3.800000e-07	-4.002485e-06	-5.760871e-09	-2.850607e+01	-3.768645e+02
3.900000e-07	-3.932879e-06	-5.688981e-09	-2.801033e+01	-3.730745e+02
4.000000e-07	-3.862024e-06	-5.626101e-09	-2.750569e+01	-3.691886e+02
4.100000e-07	-3.789982e-06	-5.574979e-09	-2.699260e+01	-3.652052e+02
4.200000e-07	-3.716542e-06	-5.497192e-09	-2.646956e+01	-3.611234e+02
4.300000e-07	-3.641509e-06	-5.447989e-09	-2.593517e+01	-3.569423e+02
4.400000e-07	-3.564918e-06	-5.395010e-09	-2.538968e+01	-3.526615e+02
4.500000e-07	-3.486907e-06	-5.312018e-09	-2.483408e+01	-3.482807e+02
4.600000e-07	-3.407546e-06	-5.228075e-09	-2.426886e+01	-3.437997e+02
4.700000e-07	-3.326849e-06	-5.156835e-09	-2.369412e+01	-3.392185e+02
4.800000e-07	-3.244960e-06	-5.106125e-09	-2.311091e+01	-3.345371e+02
4.900000e-07	-3.161967e-06	-5.030123e-09	-2.251982e+01	-3.297551e+02
5.000000e-07	-3.077944e-06	-4.947115e-09	-2.192141e+01	-3.248724e+02
5.100000e-07	-2.992968e-06	-4.871638e-09	-2.131620e+01	-3.198882e+02
5.200000e-07	-2.907019e-06	-4.796515e-09	-2.070406e+01	-3.148018e+02
5.300000e-07	-2.820132e-06	-4.709883e-09	-2.008524e+01	-3.096119e+02
5.400000e-07	-2.732327e-06	-4.621164e-09	-1.945988e+01	-3.043169e+02
5.500000e-07	-2.643585e-06	-4.536556e-09	-1.882786e+01	-2.989147e+02
5.600000e-07	-2.553712e-06	-4.448670e-09	-1.818777e+01	-2.934029e+02
5.700000e-07	-2.462668e-06	-4.367005e-09	-1.753935e+01	-2.877787e+02
5.800000e-07	-2.370733e-06	-4.282949e-09	-1.688458e+01	-2.820392e+02
5.900000e-07	-2.278067e-06	-4.196888e-09	-1.622461e+01	-2.761814e+02
6.000000e-07	-2.184594e-06	-4.100447e-09	-1.555888e+01	-2.702025e+02
6.100000e-07	-2.090325e-06	-4.000718e-09	-1.488749e+01	-2.641000e+02
6.200000e-07	-1.995347e-06	-3.906338e-09	-1.421105e+01	-2.578719e+02
6.300000e-07	-1.899657e-06	-3.812402e-09	-1.352953e+01	-2.515171e+02
6.400000e-07	-1.803299e-06	-3.716021e-09	-1.284326e+01	-2.450348e+02
6.500000e-07	-1.706320e-06	-3.615477e-09	-1.215257e+01	-2.384249e+02
6.600000e-07	-1.608621e-06	-3.510253e-09	-1.145675e+01	-2.316878e+02
6.700000e-07	-1.510156e-06	-3.400367e-09	-1.075547e+01	-2.248237e+02
6.800000e-07	-1.411064e-06	-3.293163e-09	-1.004973e+01	-2.178325e+02
6.900000e-07	-1.311442e-06	-3.184703e-09	-9.340208e+00	-2.107133e+02
7.000000e-07	-1.211397e-06	-3.075493e-09	-8.627679e+00	-2.034640e+02
7.100000e-07	-1.111078e-06	-2.965394e-09	-7.913198e+00	-1.960809e+02
7.200000e-07	-1.010508e-06	-2.851227e-09	-7.196933e+00	-1.885587e+02
7.300000e-07	-9.096694e-07	-2.732199e-09	-6.478750e+00	-1.808903e+02
7.400000e-07	-8.084677e-07	-2.610944e-09	-5.757982e+00	-1.730670e+02
7.500000e-07	-7.069003e-07	-2.488775e-09	-5.034609e+00	-1.650788e+02
7.600000e-07	-6.051068e-07	-2.361407e-09	-4.309627e+00	-1.569153e+02
7.700000e-07	-5.031706e-07	-2.230234e-09	-3.583627e+00	-1.485657e+02
7.800000e-07	-4.010888e-07	-2.098712e-09	-2.856592e+00	-1.400197e+02
7.900000e-07	-2.988624e-07	-1.967755e-09	-2.128526e+00	-1.312681e+02
8.000000e-07	-1.965431e-07	-1.831168e-09	-1.399798e+00	-1.223027e+02
8.100000e-07	-9.409589e-08	-1.691444e-09	-6.701597e-01	-1.131170e+02
8.200000e-07	8.407966e-09	-1.548385e-09	5.988231e-02	-1.037055e+02
8.300000e-07	1.108800e-07	-1.399610e-09	7.896980e-01	-9.406383e+01
8.400000e-07	2.133841e-07	-1.247780e-09	1.519742e+00	-8.418803e+01
8.500000e-07	3.158625e-07	-1.093376e-09	2.249602e+00	-7.407408e+01
8.600000e-07	4.181949e-07	-9.356718e-10	2.978423e+00	-6.371742e+01
8.700000e-07	5.203816e-07	-7.702703e-10	3.706206e+00	-5.311259e+01
8.800000e-07	6.224441e-07	-6.010779e-10	4.433105e+00	-4.225321e+01
8.900000e-07	7.243274e-07	-4.315646e-10	5.158727e+00	-3.113232e+01
9.000000e-07	8.259162e-07	-2.604210e-10	5.882252e+00	-1.974316e+01
9.100000e-07	9.271829e-07	-8.211108e-11	6.603483e+00	-8.080234e+00
9.200000e-07	1.028132e-06	1.011943e-10	7.322452e+00	3.859151e+00
9.300000e-07	1.128736e-06	2.859809e-10	8.038964e+00	1.607328e+01
9.400000e-07	1.228979e-06	4.743960e-10	8.752902e+00	2.855437e+01
9.500000e-07	1.328873e-06	6.671573e-10	9.464356e+00	4.128705e+01
9.600000e-07	1.428366e-06	8.635248e-10	1.017296e+01	5.424733e+01
9.700000e-07	1.527339e-06	1.060444e-09	1.087785e+01	6.740197e+01
9.800000e-07	1.625639e-06	1.259905e-09	1.157796e+01	8.070867e+01
9.900000e-07	1.723107e-06	1.461498e-09	1.227213e+01	9.411690e+01
1.000000e-06	1.819750e-06	1.664366e-09	1.296043e+01	1.075694e+02
1.010000e-06	1.915648e-06	1.868328e-09	1.364342e+01	1.210045e+02
1.020000e-06	2.010861e-06	2.074437e-09	1.432154e+01	1.343585e+02
1.030000e-06	2.105407e-06	2.277975e-09	1.499490e+01	1.475684e+02
1.040000e-06	2.199243e-06	2.475791e-09	1.566322e+01	1.605751e+02
1.050000e-06	2.292316e-06	2.667937e-09	1.632609e+01	1.733253e+02
1.060000e-06	2.384604e-06	2.852422e-09	1.698337e+01	1.857737e+02
1.070000e-06	2.476174e-06	3.032313e-09	1.763554e+01	1.978841e+02
1.080000e-06	2.566949e-06	3.208792e-09	1.828205e+01	2.096302e+02
1.090000e-06	2.656636e-06	3.384046e-09	1.892080e+01	2.209948e+02
1.100000e-06	2.745121e-06	3.555523e-09	1.955100e+01	2.319694e+02
1.110000e-06	2.832639e-06	3.719655e-09	2.017432e+01	2.425524e+02
1.120000e-06	2.919315e-06	3.876807e-09	2.079163e+01	2.527476e+02
1.130000e-06	3.005048e-06	4.028576e-09	2.140223e+01	2.625618e+02
1.140000e-06	3.089821e-06	4.174650e-09	2.200599e+01	2.720037e+02
1.150000e-06	3.173639e-06	4.312606e-09	2.260295e+01	2.810823e+02
1.160000e-06	3.256443e-06	4.444440e-09	2.319269e+01	2.898058e+02
1.170000e-06	3.338007e-06	4.570261e-09	2.377359e+01	2.981813e+02
1.180000e-06	3.418308e-06	4.690525e-09	2.434550e+01	3.062149e+02
1.190000e-06	3.497442e-06	4.807526e-09	2.490911e+01	3.139122e+02
1.200000e-06	3.575376e-06	4.920343e-09	2.546416e+01	3.212793e+02
1.210000e-06	3.652047e-06	5.026543e-09	2.601022e+01	3.283229e+02
1.220000e-06	3.727364e-06	5.127851e-09	2.654663e+01	3.350521e+02
1.230000e-06	3.801091e-06	5.225770e-09	2.707172e+01	3.414782e+02
1.240000e-06	3.873165e-06	5.318861e-09	2.758504e+01	3.476152e+02
1.250000e-06	3.943836e-06	5.407185e-09	2.808837e+01	3.534796e+02
1.260000e-06	4.013179e-06	5.493025e-09	2.858223e+01	3.590895e+02
1.270000e-06	4.081184e-06	5.577356e-09	2.906657e+01	3.644640e+02
1.280000e-06	4.147737e-06	5.657227e-09	2.954057e+01	3.696218e+02
1.290000e-06	4.212587e-06	5.731891e-09	3.000243e+01	3.745801e+02
1.300000e-06	4.275849e-06	5.803577e-09	3.045299e+01	3.793535e+02
1.310000e-06	4.337741e-06	5.874358e-09	3.089379e+01	3.839531e+02
1.320000e-06	4.398233e-06	5.942936e-09	3.132462e+01	3.883864e+02
1.330000e-06	4.457279e-06	6.008694e-09	3.174515e+01	3.926568e+02
1.340000e-06	4.514582e-06	6.070468e-09	3.215327e+01	3.967645e+02
1.350000e-06	4.570112e-06	6.129008e-09	3.254876e+01	4.007071e+02
1.360000e-06	4.624014e-06	6.185448e-09	3.293266e+01	4.044808e+02
1.370000e-06	4.676149e-06	6.238226e-09	3.330397e+01	4.080813e+02
1.380000e-06	4.726359e-06	6.288600e-09	3.366157e+01	4.115053e+02
1.390000e-06	4.774619e-06	6.336149e-09	3.400528e+01	4.147512e+02
1.400000e-06	4.821125e-06	6.381252e-09	3.433650e+01	4.178199e+02
1.410000e-06	4.866075e-06	6.424941e-09	3.465664e+01	4.207148e+02
1.420000e-06	4.909431e-06	6.466240e-09	3.496543e+01	4.234417e+02
1.430000e-06	4.950880e-06	6.503579e-09	3.526063e+01	4.260086e+02
1.440000e-06	4.990433e-06	6.537329e-09	3.554233e+01	4.284242e+02
1.450000e-06	5.028383e-06	6.568145e-09	3.581261e+01	4.306979e+02
1.460000e-06	5.064766e-06	6.598726e-09	3.607174e+01	4.328380e+02
1.470000e-06	5.099400e-06	6.630854e-09	3.631840e+01	4.348517e+02
1.480000e-06	5.132082e-06	6.660111e-09	3.655117e+01	4.367440e+02
1.490000e-06	5.162910e-06	6.685094e-09	3.677072e+01	4.385175e+02
1.500000e-06	5.192123e-06	6.706788e-09	3.697878e+01	4.401732e+02
1.510000e-06	5.219638e-06	6.728042e-09	3.717475e+01	4.417099e+02
1.520000e-06	5.245111e-06	6.748636e-09	3.735617e+01	4.431256e+02
1.530000e-06	5.268511e-06	6.767288e-09	3.752283e+01	4.444181e+02
1.540000e-06	5.290098e-06	6.783996e-09	3.767657e+01	4.455855e+02
1.550000e-06	5.310009e-06	6.798201e-09	3.781838e+01	4.466273e+02
1.560000e-06	5.328108e-06	6.812291e-09	3.794728e+01	4.475442e+02
1.570000e-06	5.344199e-06	6.827407e-09	3.806188e+01	4.483388e+02
1.580000e-06	5.358289e-06	6.841535e-09	3.816223e+01	4.490153e+02
1.590000e-06	5.370354e-06	6.851818e-09	3.824816e+01	4.495791e+02
1.600000e-06	5.380170e-06	6.858714e-09	3.831807e+01	4.500359e+02
1.610000e-06	5.387845e-06	6.863479e-09	3.837273e+01	4.503917e+02
1.620000e-06	5.393721e-06	6.867988e-09	3.841458e+01	4.506513e+02
1.630000e-06	5.397832e-06	6.872746e-09	3.844386e+01	4.508186e+02
1.640000e-06	5.399981e-06	6.875212e-09	3.845917e+01	4.508955e+02
1.650000e-06	5.400098e-06	6.875904e-09	3.846000e+01	4.508824e+02
1.660000e-06	5.398370e-06	6.875753e-09	3.844770e+01	4.507780e+02
1.670000e-06	5.395008e-06	6.870237e-09	3.842375e+01	4.505800e+02
1.680000e-06	5.390003e-06	6.866393e-09	3.838810e+01	4.502855e+02
1.690000e-06	5.383090e-06	6.862193e-09	3.833887e+01	4.498917e+02
1.700000e-06	5.374382e-06	6.854400e-09	3.827685e+01	4.493968e+02
1.710000e-06	5.364120e-06	6.844233e-09	3.820376e+01	4.488000e+02
1.720000e-06	5.352156e-06	6.824774e-09	3.811855e+01	4.481024e+02
1.730000e-06	5.338230e-06	6.828978e-09	3.801937e+01	4.473066e+02
1.740000e-06	5.322195e-06	6.826775e-09	3.790517e+01	4.464167e+02
1.750000e-06	5.303754e-06	6.771590e-09	3.777383e+01	4.454379e+02
1.760000e-06	5.282630e-06	6.763706e-09	3.762338e+01	4.443757e+02
1.770000e-06	5.259329e-06	6.732950e-09	3.745743e+01	4.432353e+02
1.780000e-06	5.234809e-06	6.736191e-09	3.728280e+01	4.420206e+02
1.790000e-06	5.209447e-06	6.827766e-09	3.710217e+01	4.407343e+02
1.800000e-06	5.182551e-06	6.663468e-09	3.691061e+01	4.393766e+02
1.810000e-06	5.153497e-06	6.643155e-09	3.670368e+01	4.379456e+02
1.820000e-06	5.122684e-06	6.740213e-09	3.648423e+01	4.364375e+02
1.830000e-06	5.090231e-06	6.542453e-09	3.625310e+01	4.348466e+02
1.840000e-06	5.055866e-06	6.580501e-09	3.600835e+01	4.331658e+02
1.850000e-06	5.019862e-06	6.656731e-09	3.575192e+01	4.313879e+02
1.860000e-06	4.982042e-06	6.472605e-09	3.548256e+01	4.295058e+02
1.870000e-06	4.942350e-06	6.490665e-09	3.519987e+01	4.275133e+02
1.880000e-06	4.901029e-06	6.446367e-09	3.490559e+01	4.254056e+02
1.890000e-06	4.857867e-06	6.392467e-09	3.459818e+01	4.231801e+02
1.900000e-06	4.813034e-06	6.452314e-09	3.427888e+01	4.208358e+02
1.910000e-06	4.766395e-06	6.298516e-09	3.394671e+01	4.183739e+02
1.920000e-06	4.717706e-06	6.325411e-09	3.359994e+01	4.157972e+02
1.930000e-06	4.667416e-06	6.304933e-09	3.324177e+01	4.131095e+02
1.940000e-06	4.615415e-06	6.168006e-09	3.287141e+01	4.103156e+02
1.950000e-06	4.561396e-06	6.212807e-09	3.248669e+01	4.074202e+02
1.960000e-06	4.505444e-06	6.151110e-09	3.208819e+01	4.044278e+02
1.970000e-06	4.447745e-06	6.103715e-09	3.167726e+01	4.013421e+02
1.980000e-06	4.388645e-06	6.032332e-09	3.125634e+01	3.981659e+02
1.990000e-06	4.328038e-06	5.976300e-09	3.082469e+01	3.949008e+02
2.000000e-06	4.265732e-06	5.997975e-09	3.038094e+01	3.915474e+02
2.010000e-06	4.201820e-06	5.856409e-09	2.992575e+01	3.881053e+02
2.020000e-06	4.136400e-06	5.816828e-09	2.945983e+01	3.845736e+02
2.030000e-06	4.069596e-06	5.793464e-09	2.898404e+01	3.809507e+02
2.040000e-06	4.001361e-06	5.728626e-09	2.849806e+01	3.772347e+02
2.050000e-06	3.931678e-06	5.678358e-09	2.800178e+01	3.734241e+02
2.060000e-06	3.860469e-06	5.594434e-09	2.749462e+01	3.695171e+02
2.070000e-06	3.787812e-06	5.590267e-09	2.697715e+01	3.655124e+02
2.080000e-06	3.713913e-06	5.480550e-09	2.645083e+01	3.614091e+02
2.090000e-06	3.638649e-06	5.390171e-09	2.591479e+01	3.572064e+02
2.100000e-06	3.561910e-06	5.354509e-09	2.536825e+01	3.529039e+02
2.110000e-06	3.483636e-06	5.296687e-09	2.481078e+01	3.485014e+02
2.120000e-06	3.404005e-06	5.243398e-09	2.424364e+01	3.439987e+02
2.130000e-06	3.323195e-06	5.135264e-09	2.366811e+01	3.393958e+02
2.140000e-06	3.241266e-06	5.086010e-09	2.308460e+01	3.346925e+02
2.150000e-06	3.158270e-06	5.017510e-09	2.249349e+01	3.298887e+02
2.160000e-06	3.074226e-06	4.930100e-09	2.189492e+01	3.249840e+02
2.170000e-06	2.989097e-06	4.862641e-09	2.128863e+01	3.199778e+02
2.180000e-06	2.902634e-06	4.792191e-09	2.067283e+01	3.148691e+02
2.190000e-06	2.814912e-06	4.718222e-09	2.004806e+01	3.096565e+02
2.200000e-06	2.726291e-06	4.623988e-09	1.941690e+01	3.043385e+02
2.210000e-06	2.636737e-06	4.547580e-09	1.877909e+01	2.989127e+02
2.220000e-06	2.546280e-06	4.463270e-09	1.813484e+01	2.933768e+02
2.230000e-06	2.455024e-06	4.376289e-09	1.748491e+01	2.877279e+02
2.240000e-06	2.362963e-06	4.281397e-09	1.682924e+01	2.819631e+02
2.250000e-06	2.270117e-06	4.197058e-09	1.616798e+01	2.760793e+02
2.260000e-06	2.176443e-06	4.118856e-09	1.550083e+01	2.700738e+02
2.270000e-06	2.081816e-06	4.026498e-09	1.482688e+01	2.639442e+02
2.280000e-06	1.986150e-06	3.930799e-09	1.414555e+01	2.576888e+02
2.290000e-06	1.889760e-06	3.826389e-09	1.345905e+01	2.513064e+02
2.300000e-06	1.792895e-06	3.725624e-09	1.276916e+01	2.447965e+02
2.310000e-06	1.695458e-06	3.629045e-09	1.207521e+01	2.381591e+02
2.320000e-06	1.597442e-06	3.531590e-09	1.137713e+01	2.313944e+02
2.330000e-06	1.498971e-06	3.424451e-09	1.067581e+01	2.245029e+02
2.340000e-06	1.400042e-06	3.317806e-09	9.971227e+00	2.174841e+02
2.350000e-06	1.300636e-06	3.208073e-09	9.263250e+00	2.103370e+02
2.360000e-06	1.200870e-06	3.096039e-09	8.552705e+00	2.030591e+02
2.370000e-06	1.100813e-06	2.987286e-09	7.840095e+00	1.956465e+02
2.380000e-06	1.000442e-06	2.874591e-09	7.125237e+00	1.880934e+02
2.390000e-06	8.997243e-07	2.758604e-09	6.407920e+00	1.803922e+02
2.400000e-06	7.986635e-07	2.634626e-09	5.688155e+00	1.725342e+02
2.410000e-06	6.973088e-07	2.511468e-09	4.966298e+00	1.645091e+02
2.420000e-06	5.957082e-07	2.389354e-09	4.242689e+00	1.563063e+02
2.430000e-06	4.938541e-07	2.261092e-09	3.517275e+00	1.479152e+02
2.440000e-06	3.917613e-07	2.131510e-09	2.790160e+00	1.393256e+02
2.450000e-06	2.894726e-07	2.003253e-09	2.061651e+00	1.305286e+02
2.460000e-06	1.869857e-07	1.869451e-09	1.331730e+00	1.215162e+02
2.470000e-06	8.436888e-08	1.728636e-09	6.008830e-01	1.122823e+02
2.480000e-06	-1.828763e-08	1.584022e-09	-1.302462e-01	1.028215e+02
2.490000e-06	-1.209595e-07	1.435246e-09	-8.614846e-01	9.312974e+01
2.500000e-06	-2.236101e-07	1.281073e-09	-1.592572e+00	8.320299e+01
2.510000e-06	-3.261905e-07	1.123405e-09	-2.323159e+00	7.303717e+01
2.520000e-06	-4.286598e-07	9.689033e-10	-3.052955e+00	6.262756e+01
2.530000e-06	-5.309303e-07	8.126206e-10	-3.781335e+00	5.196847e+01
2.540000e-06	-6.329396e-07	6.492333e-10	-4.507855e+00	4.105338e+01
2.550000e-06	-7.345944e-07	4.812583e-10	-5.231850e+00	2.987529e+01
2.560000e-06	-8.358245e-07	3.070441e-10	-5.952820e+00	1.842758e+01
2.570000e-06	-9.367368e-07	1.259256e-10	-6.671527e+00	6.705251e+00
2.580000e-06	-1.037310e-06	-6.009982e-11	-7.387816e+00	-5.293603e+00
2.590000e-06	-1.137439e-06	-2.491484e-10	-8.100950e+00	-1.756610e+01
2.600000e-06	-1.237214e-06	-4.410790e-10	-8.811556e+00	-3.010294e+01
2.610000e-06	-1.336630e-06	-6.373734e-10	-9.519605e+00	-4.288700e+01
2.620000e-06	-1.435588e-06	-8.379746e-10	-1.022439e+01	-5.589230e+01
2.630000e-06	-1.534019e-06	-1.039238e-09	-1.092542e+01	-6.908365e+01
2.640000e-06	-1.631839e-06	-1.241323e-09	-1.162211e+01	-8.241689e+01
2.650000e-06	-1.729056e-06	-1.447948e-09	-1.231450e+01	-9.583989e+01
2.660000e-06	-1.825699e-06	-1.658381e-09	-1.300280e+01	-1.092943e+02
2.670000e-06	-1.921859e-06	-1.868505e-09	-1.368766e+01	-1.227176e+02
2.680000e-06	-2.017483e-06	-2.075679e-09	-1.436870e+01	-1.360462e+02
2.690000e-06	-2.112387e-06	-2.277954e-09	-1.504462e+01	-1.492177e+02
2.700000e-06	-2.206339e-06	-2.475064e-09	-1.571375e+01	-1.621739e+02
2.710000e-06	-2.299172e-06	-2.669621e-09	-1.637492e+01	-1.748632e+02
2.720000e-06	-2.391093e-06	-2.860375e-09	-1.702959e+01	-1.872421e+02
2.730000e-06	-2.482248e-06	-3.044343e-09	-1.767880e+01	-1.992767e+02
2.740000e-06	-2.572583e-06	-3.220477e-09	-1.832218e+01	-2.109424e+02
2.750000e-06	-2.662020e-06	-3.392269e-09	-1.895915e+01	-2.222241e+02
2.760000e-06	-2.750544e-06	-3.558305e-09	-1.958963e+01	-2.331150e+02
2.770000e-06	-2.838239e-06	-3.717091e-09	-2.021420e+01	-2.436148e+02
2.780000e-06	-2.924994e-06	-3.871983e-09	-2.083208e+01	-2.537279e+02
2.790000e-06	-3.010572e-06	-4.020621e-09	-2.144158e+01	-2.634618e+02
2.800000e-06	-3.094952e-06	-4.162272e-09	-2.204254e+01	-2.728254e+02
2.810000e-06	-3.178339e-06	-4.299173e-09	-2.263643e+01	-2.818275e+02
2.820000e-06	-3.260693e-06	-4.432173e-09	-2.322296e+01	-2.904761e+02
2.830000e-06	-3.341930e-06	-4.561556e-09	-2.380153e+01	-2.987781e+02
2.840000e-06	-3.422035e-06	-4.685110e-09	-2.437205e+01	-3.067395e+02
2.850000e-06	-3.500948e-06	-4.801280e-09	-2.493408e+01	-3.143658e+02
2.860000e-06	-3.578450e-06	-4.912153e-09	-2.548605e+01	-3.216632e+02
2.870000e-06	-3.654378e-06	-5.018790e-09	-2.602682e+01	-3.286389e+02
2.880000e-06	-3.728883e-06	-5.121541e-09	-2.655745e+01	-3.353023e+02
2.890000e-06	-3.802048e-06	-5.219254e-09	-2.707854e+01	-3.416655e+02
2.900000e-06	-3.873949e-06	-5.313344e-09	-2.759062e+01	-3.477429e+02
2.910000e-06	-3.944427e-06	-5.402588e-09	-2.809257e+01	-3.535515e+02
2.920000e-06	-4.013294e-06	-5.486682e-09	-2.858305e+01	-3.591096e+02
2.930000e-06	-4.080698e-06	-5.568785e-09	-2.906311e+01	-3.644364e+02
2.940000e-06	-4.146676e-06	-5.647451e-09	-2.953301e+01	-3.695503e+02
