# Temperatura_=_64.84
# Concentracion g/m^3_=_15000.0
# C_Vs_to_Am_M_A/Vsm_=_65563218390.804596
# pendiente_HvsI_1/m_=_3716.3
# ordenada_HvsI_A/m_=_1297.0
# frecuencia_Hz_=_301581.6395071392

Tiempo_(s)	Campo_(V.s)	Magnetizacion_(V.s)	Campo_(kA/m)	Magnetizacion_(A/m)
0.000000e+00	-5.391137e-06	-5.707562e-09	-3.834021e+01	-3.721940e+02
1.000000e-08	-5.388054e-06	-5.703257e-09	-3.831828e+01	-3.720271e+02
2.000000e-08	-5.383217e-06	-5.696340e-09	-3.828388e+01	-3.717806e+02
3.000000e-08	-5.376758e-06	-5.689860e-09	-3.823795e+01	-3.714524e+02
4.000000e-08	-5.368723e-06	-5.683063e-09	-3.818081e+01	-3.710406e+02
5.000000e-08	-5.358683e-06	-5.673900e-09	-3.810941e+01	-3.705442e+02
6.000000e-08	-5.346540e-06	-5.665490e-09	-3.802305e+01	-3.699636e+02
7.000000e-08	-5.332621e-06	-5.658501e-09	-3.792406e+01	-3.693010e+02
8.000000e-08	-5.316620e-06	-5.656668e-09	-3.781026e+01	-3.685597e+02
9.000000e-08	-5.298348e-06	-5.662900e-09	-3.768032e+01	-3.677447e+02
1.000000e-07	-5.278088e-06	-5.658746e-09	-3.753623e+01	-3.668616e+02
1.100000e-07	-5.255953e-06	-5.633893e-09	-3.737882e+01	-3.659163e+02
1.200000e-07	-5.232126e-06	-5.597855e-09	-3.720936e+01	-3.649138e+02
1.300000e-07	-5.206686e-06	-5.547151e-09	-3.702845e+01	-3.638580e+02
1.400000e-07	-5.179612e-06	-5.511796e-09	-3.683590e+01	-3.627508e+02
1.500000e-07	-5.151041e-06	-5.539395e-09	-3.663271e+01	-3.615915e+02
1.600000e-07	-5.121049e-06	-5.538968e-09	-3.641942e+01	-3.603771e+02
1.700000e-07	-5.089362e-06	-5.508442e-09	-3.619407e+01	-3.591019e+02
1.800000e-07	-5.055498e-06	-5.494310e-09	-3.595324e+01	-3.577584e+02
1.900000e-07	-5.019913e-06	-5.438823e-09	-3.570017e+01	-3.563378e+02
2.000000e-07	-4.982871e-06	-5.405406e-09	-3.543673e+01	-3.548307e+02
2.100000e-07	-4.944032e-06	-5.406929e-09	-3.516052e+01	-3.532283e+02
2.200000e-07	-4.903308e-06	-5.374613e-09	-3.487091e+01	-3.515231e+02
2.300000e-07	-4.860526e-06	-5.335463e-09	-3.456665e+01	-3.497097e+02
2.400000e-07	-4.815866e-06	-5.295361e-09	-3.424905e+01	-3.477851e+02
2.500000e-07	-4.769476e-06	-5.264280e-09	-3.391913e+01	-3.457491e+02
2.600000e-07	-4.721142e-06	-5.252083e-09	-3.357539e+01	-3.436041e+02
2.700000e-07	-4.670727e-06	-5.213038e-09	-3.321686e+01	-3.413546e+02
2.800000e-07	-4.618260e-06	-5.175703e-09	-3.284373e+01	-3.390066e+02
2.900000e-07	-4.563960e-06	-5.137787e-09	-3.245756e+01	-3.365671e+02
3.000000e-07	-4.508201e-06	-5.095970e-09	-3.206102e+01	-3.340425e+02
3.100000e-07	-4.450723e-06	-5.073472e-09	-3.165225e+01	-3.314390e+02
3.200000e-07	-4.391400e-06	-5.032943e-09	-3.123037e+01	-3.287609e+02
3.300000e-07	-4.330560e-06	-4.968101e-09	-3.079769e+01	-3.260109e+02
3.400000e-07	-4.268257e-06	-4.909820e-09	-3.035461e+01	-3.231898e+02
3.500000e-07	-4.204620e-06	-4.873683e-09	-2.990204e+01	-3.202968e+02
3.600000e-07	-4.139400e-06	-4.851624e-09	-2.943822e+01	-3.173296e+02
3.700000e-07	-4.072461e-06	-4.822119e-09	-2.896216e+01	-3.142851e+02
3.800000e-07	-4.004030e-06	-4.765518e-09	-2.847550e+01	-3.111602e+02
3.900000e-07	-3.934252e-06	-4.691580e-09	-2.797926e+01	-3.079519e+02
4.000000e-07	-3.863282e-06	-4.633145e-09	-2.747455e+01	-3.046581e+02
4.100000e-07	-3.791087e-06	-4.587571e-09	-2.696111e+01	-3.012779e+02
4.200000e-07	-3.717378e-06	-4.534856e-09	-2.643692e+01	-2.978113e+02
4.300000e-07	-3.642001e-06	-4.487749e-09	-2.590086e+01	-2.942597e+02
4.400000e-07	-3.565127e-06	-4.438770e-09	-2.535415e+01	-2.906247e+02
4.500000e-07	-3.486866e-06	-4.376857e-09	-2.479758e+01	-2.869084e+02
4.600000e-07	-3.407248e-06	-4.313224e-09	-2.423136e+01	-2.831127e+02
4.700000e-07	-3.326352e-06	-4.256158e-09	-2.365605e+01	-2.792384e+02
4.800000e-07	-3.244217e-06	-4.199641e-09	-2.307193e+01	-2.752855e+02
4.900000e-07	-3.161048e-06	-4.131403e-09	-2.248046e+01	-2.712526e+02
5.000000e-07	-3.076894e-06	-4.062147e-09	-2.188198e+01	-2.671372e+02
5.100000e-07	-2.991742e-06	-4.003021e-09	-2.127640e+01	-2.629356e+02
5.200000e-07	-2.905634e-06	-3.942532e-09	-2.066403e+01	-2.586435e+02
5.300000e-07	-2.818546e-06	-3.868426e-09	-2.004468e+01	-2.542565e+02
5.400000e-07	-2.730590e-06	-3.792224e-09	-1.941917e+01	-2.497706e+02
5.500000e-07	-2.641569e-06	-3.718061e-09	-1.878608e+01	-2.451827e+02
5.600000e-07	-2.551328e-06	-3.645982e-09	-1.814430e+01	-2.404910e+02
5.700000e-07	-2.460079e-06	-3.581005e-09	-1.749537e+01	-2.356951e+02
5.800000e-07	-2.368032e-06	-3.513890e-09	-1.684076e+01	-2.307962e+02
5.900000e-07	-2.275244e-06	-3.433743e-09	-1.618088e+01	-2.257965e+02
6.000000e-07	-2.181630e-06	-3.343988e-09	-1.551512e+01	-2.206991e+02
6.100000e-07	-2.087199e-06	-3.260263e-09	-1.484355e+01	-2.155073e+02
6.200000e-07	-1.992086e-06	-3.181997e-09	-1.416714e+01	-2.102241e+02
6.300000e-07	-1.896288e-06	-3.102383e-09	-1.348585e+01	-2.048516e+02
6.400000e-07	-1.799705e-06	-3.023654e-09	-1.279898e+01	-1.993905e+02
6.500000e-07	-1.702376e-06	-2.945259e-09	-1.210680e+01	-1.938399e+02
6.600000e-07	-1.604295e-06	-2.858859e-09	-1.140929e+01	-1.881973e+02
6.700000e-07	-1.505530e-06	-2.764711e-09	-1.070689e+01	-1.824584e+02
6.800000e-07	-1.406273e-06	-2.672519e-09	-1.000100e+01	-1.766182e+02
6.900000e-07	-1.306594e-06	-2.581113e-09	-9.292119e+00	-1.706708e+02
7.000000e-07	-1.206550e-06	-2.486711e-09	-8.580635e+00	-1.646101e+02
7.100000e-07	-1.106160e-06	-2.391286e-09	-7.866688e+00	-1.584308e+02
7.200000e-07	-1.005419e-06	-2.296485e-09	-7.150248e+00	-1.521286e+02
7.300000e-07	-9.043689e-07	-2.198372e-09	-6.431610e+00	-1.457001e+02
7.400000e-07	-8.029921e-07	-2.097464e-09	-5.710648e+00	-1.391436e+02
7.500000e-07	-7.012677e-07	-1.997642e-09	-4.987213e+00	-1.324584e+02
7.600000e-07	-5.993343e-07	-1.895679e-09	-4.262292e+00	-1.256446e+02
7.700000e-07	-4.972230e-07	-1.787892e-09	-3.536106e+00	-1.187025e+02
7.800000e-07	-3.949247e-07	-1.678394e-09	-2.808591e+00	-1.116319e+02
7.900000e-07	-2.925327e-07	-1.570522e-09	-2.080408e+00	-1.044315e+02
8.000000e-07	-1.900565e-07	-1.459945e-09	-1.351627e+00	-9.709820e+01
8.100000e-07	-8.747378e-08	-1.346816e-09	-6.220882e-01	-8.962648e+01
8.200000e-07	1.516470e-08	-1.233009e-09	1.078469e-01	-8.200849e+01
8.300000e-07	1.177856e-07	-1.116731e-09	8.376569e-01	-7.423391e+01
8.400000e-07	2.203906e-07	-9.969683e-10	1.567354e+00	-6.629037e+01
8.500000e-07	3.229352e-07	-8.746211e-10	2.296622e+00	-5.816404e+01
8.600000e-07	4.253849e-07	-7.480366e-10	3.025214e+00	-4.984059e+01
8.700000e-07	5.277327e-07	-6.161689e-10	3.753082e+00	-4.130615e+01
8.800000e-07	6.299600e-07	-4.813035e-10	4.480093e+00	-3.254851e+01
8.900000e-07	7.320075e-07	-3.440518e-10	5.205825e+00	-2.355818e+01
9.000000e-07	8.337940e-07	-2.053873e-10	5.929702e+00	-1.432948e+01
9.100000e-07	9.352810e-07	-6.299326e-11	6.651448e+00	-4.861348e+00
9.200000e-07	1.036382e-06	8.353962e-11	7.370450e+00	4.842010e+00
9.300000e-07	1.137071e-06	2.355268e-10	8.086518e+00	1.477077e+01
9.400000e-07	1.237438e-06	3.929820e-10	8.800302e+00	2.490939e+01
9.500000e-07	1.337467e-06	5.530007e-10	9.511677e+00	3.523682e+01
9.600000e-07	1.437092e-06	7.141200e-10	1.022018e+01	4.572691e+01
9.700000e-07	1.536197e-06	8.771509e-10	1.092499e+01	5.634904e+01
9.800000e-07	1.634584e-06	1.043365e-09	1.162469e+01	6.706889e+01
9.900000e-07	1.732192e-06	1.209880e-09	1.231885e+01	7.784934e+01
1.000000e-06	1.829034e-06	1.374575e-09	1.300756e+01	8.865137e+01
1.010000e-06	1.925142e-06	1.538792e-09	1.369105e+01	9.943504e+01
1.020000e-06	2.020478e-06	1.704740e-09	1.436905e+01	1.101604e+02
1.030000e-06	2.115064e-06	1.867967e-09	1.504172e+01	1.207881e+02
1.040000e-06	2.208931e-06	2.027294e-09	1.570928e+01	1.312808e+02
1.050000e-06	2.302012e-06	2.184436e-09	1.637125e+01	1.416032e+02
1.060000e-06	2.394397e-06	2.337721e-09	1.702826e+01	1.517229e+02
1.070000e-06	2.486121e-06	2.487733e-09	1.768057e+01	1.616109e+02
1.080000e-06	2.576956e-06	2.635212e-09	1.832657e+01	1.712422e+02
1.090000e-06	2.666696e-06	2.781484e-09	1.896477e+01	1.805956e+02
1.100000e-06	2.755364e-06	2.920915e-09	1.959535e+01	1.896543e+02
1.110000e-06	2.843020e-06	3.051145e-09	2.021873e+01	1.984059e+02
1.120000e-06	2.929712e-06	3.175877e-09	2.083526e+01	2.068422e+02
1.130000e-06	3.015529e-06	3.300294e-09	2.144557e+01	2.149592e+02
1.140000e-06	3.100405e-06	3.421518e-09	2.204918e+01	2.227568e+02
1.150000e-06	3.184328e-06	3.535231e-09	2.264602e+01	2.302386e+02
1.160000e-06	3.267174e-06	3.643595e-09	2.323520e+01	2.374113e+02
1.170000e-06	3.348796e-06	3.747553e-09	2.381567e+01	2.442846e+02
1.180000e-06	3.429228e-06	3.846066e-09	2.438768e+01	2.508704e+02
1.190000e-06	3.508415e-06	3.940434e-09	2.495083e+01	2.571823e+02
1.200000e-06	3.586350e-06	4.033908e-09	2.550509e+01	2.632352e+02
1.210000e-06	3.663024e-06	4.123685e-09	2.605037e+01	2.690447e+02
1.220000e-06	3.738357e-06	4.209170e-09	2.658611e+01	2.746263e+02
1.230000e-06	3.812094e-06	4.290878e-09	2.711051e+01	2.799952e+02
1.240000e-06	3.884209e-06	4.370174e-09	2.762337e+01	2.851658e+02
1.250000e-06	3.954937e-06	4.447026e-09	2.812637e+01	2.901507e+02
1.260000e-06	4.024294e-06	4.521329e-09	2.861961e+01	2.949611e+02
1.270000e-06	4.092302e-06	4.592797e-09	2.910327e+01	2.996058e+02
1.280000e-06	4.158822e-06	4.660335e-09	2.957634e+01	3.040918e+02
1.290000e-06	4.223662e-06	4.724614e-09	3.003746e+01	3.084232e+02
1.300000e-06	4.286949e-06	4.786740e-09	3.048754e+01	3.126025e+02
1.310000e-06	4.348779e-06	4.847293e-09	3.092726e+01	3.166299e+02
1.320000e-06	4.409247e-06	4.905508e-09	3.135729e+01	3.205039e+02
1.330000e-06	4.468283e-06	4.959733e-09	3.177714e+01	3.242223e+02
1.340000e-06	4.525554e-06	5.011284e-09	3.218443e+01	3.277821e+02
1.350000e-06	4.581064e-06	5.062047e-09	3.257920e+01	3.311804e+02
1.360000e-06	4.634966e-06	5.111099e-09	3.296254e+01	3.344150e+02
1.370000e-06	4.687180e-06	5.156007e-09	3.333387e+01	3.374848e+02
1.380000e-06	4.737373e-06	5.197503e-09	3.369083e+01	3.403905e+02
1.390000e-06	4.785480e-06	5.236235e-09	3.403295e+01	3.431344e+02
1.400000e-06	4.831893e-06	5.272425e-09	3.436302e+01	3.457206e+02
1.410000e-06	4.876768e-06	5.306281e-09	3.468216e+01	3.481551e+02
1.420000e-06	4.920054e-06	5.338499e-09	3.499000e+01	3.504451e+02
1.430000e-06	4.961487e-06	5.369938e-09	3.528466e+01	3.525985e+02
1.440000e-06	5.001030e-06	5.399624e-09	3.556588e+01	3.546239e+02
1.450000e-06	5.038937e-06	5.427525e-09	3.583547e+01	3.565291e+02
1.460000e-06	5.075272e-06	5.454219e-09	3.609387e+01	3.583212e+02
1.470000e-06	5.109868e-06	5.480117e-09	3.633991e+01	3.600061e+02
1.480000e-06	5.142477e-06	5.502738e-09	3.657181e+01	3.615877e+02
1.490000e-06	5.173231e-06	5.521123e-09	3.679052e+01	3.630686e+02
1.500000e-06	5.202335e-06	5.538062e-09	3.699750e+01	3.644495e+02
1.510000e-06	5.229726e-06	5.555162e-09	3.719230e+01	3.657300e+02
1.520000e-06	5.255066e-06	5.571080e-09	3.737251e+01	3.669087e+02
1.530000e-06	5.278316e-06	5.586417e-09	3.753786e+01	3.679842e+02
1.540000e-06	5.299803e-06	5.601214e-09	3.769067e+01	3.689550e+02
1.550000e-06	5.319595e-06	5.615210e-09	3.783142e+01	3.698206e+02
1.560000e-06	5.337467e-06	5.628152e-09	3.795852e+01	3.705815e+02
1.570000e-06	5.353300e-06	5.639875e-09	3.807112e+01	3.712395e+02
1.580000e-06	5.367183e-06	5.649583e-09	3.816986e+01	3.717976e+02
1.590000e-06	5.379039e-06	5.655696e-09	3.825417e+01	3.722597e+02
1.600000e-06	5.388681e-06	5.660226e-09	3.832274e+01	3.726306e+02
1.610000e-06	5.396259e-06	5.664051e-09	3.837663e+01	3.729147e+02
1.620000e-06	5.401997e-06	5.668513e-09	3.841744e+01	3.731165e+02
1.630000e-06	5.405969e-06	5.673793e-09	3.844568e+01	3.732394e+02
1.640000e-06	5.407979e-06	5.677633e-09	3.845998e+01	3.732855e+02
1.650000e-06	5.407982e-06	5.679081e-09	3.846000e+01	3.732557e+02
1.660000e-06	5.406222e-06	5.676190e-09	3.844749e+01	3.731496e+02
1.670000e-06	5.402831e-06	5.671313e-09	3.842337e+01	3.729656e+02
1.680000e-06	5.397733e-06	5.667613e-09	3.838712e+01	3.727015e+02
1.690000e-06	5.390735e-06	5.663225e-09	3.833735e+01	3.723552e+02
1.700000e-06	5.381911e-06	5.656511e-09	3.827459e+01	3.719250e+02
1.710000e-06	5.371486e-06	5.648272e-09	3.820045e+01	3.714103e+02
1.720000e-06	5.359411e-06	5.641001e-09	3.811458e+01	3.708116e+02
1.730000e-06	5.345289e-06	5.628069e-09	3.801415e+01	3.701315e+02
1.740000e-06	5.329022e-06	5.601688e-09	3.789847e+01	3.693737e+02
1.750000e-06	5.310384e-06	5.578494e-09	3.776592e+01	3.685433e+02
1.760000e-06	5.289025e-06	5.573362e-09	3.761402e+01	3.676462e+02
1.770000e-06	5.265514e-06	5.577838e-09	3.744681e+01	3.666879e+02
1.780000e-06	5.240926e-06	5.594267e-09	3.727195e+01	3.656735e+02
1.790000e-06	5.215600e-06	5.576007e-09	3.709184e+01	3.646063e+02
1.800000e-06	5.188685e-06	5.509018e-09	3.690042e+01	3.634878e+02
1.810000e-06	5.159561e-06	5.496043e-09	3.669331e+01	3.623168e+02
1.820000e-06	5.128733e-06	5.485193e-09	3.647407e+01	3.610896e+02
1.830000e-06	5.096095e-06	5.447659e-09	3.624195e+01	3.598002e+02
1.840000e-06	5.061442e-06	5.467398e-09	3.599551e+01	3.584407e+02
1.850000e-06	5.025264e-06	5.455986e-09	3.573822e+01	3.570020e+02
1.860000e-06	4.987241e-06	5.409716e-09	3.546782e+01	3.554750e+02
1.870000e-06	4.947357e-06	5.381975e-09	3.518417e+01	3.538508e+02
1.880000e-06	4.905852e-06	5.352672e-09	3.488900e+01	3.521226e+02
1.890000e-06	4.862490e-06	5.353865e-09	3.458062e+01	3.502852e+02
1.900000e-06	4.817506e-06	5.312563e-09	3.426071e+01	3.483364e+02
1.910000e-06	4.770648e-06	5.250094e-09	3.392747e+01	3.462765e+02
1.920000e-06	4.721763e-06	5.234430e-09	3.357981e+01	3.441084e+02
1.930000e-06	4.671300e-06	5.191448e-09	3.322094e+01	3.418370e+02
1.940000e-06	4.619050e-06	5.165154e-09	3.284935e+01	3.394685e+02
1.950000e-06	4.564735e-06	5.143596e-09	3.246308e+01	3.370099e+02
1.960000e-06	4.508516e-06	5.089382e-09	3.206326e+01	3.344677e+02
1.970000e-06	4.450674e-06	5.044133e-09	3.165191e+01	3.318476e+02
1.980000e-06	4.391464e-06	4.999371e-09	3.123082e+01	3.291537e+02
1.990000e-06	4.330695e-06	4.982304e-09	3.079865e+01	3.263882e+02
2.000000e-06	4.268167e-06	4.945790e-09	3.035397e+01	3.235515e+02
2.010000e-06	4.204047e-06	4.864438e-09	2.989796e+01	3.206426e+02
2.020000e-06	4.138468e-06	4.806747e-09	2.943159e+01	3.176588e+02
2.030000e-06	4.071428e-06	4.774193e-09	2.895482e+01	3.145971e+02
2.040000e-06	4.002929e-06	4.749432e-09	2.846768e+01	3.114542e+02
2.050000e-06	3.932888e-06	4.701788e-09	2.796956e+01	3.082275e+02
2.060000e-06	3.861336e-06	4.656762e-09	2.746071e+01	3.049149e+02
2.070000e-06	3.788509e-06	4.609850e-09	2.694278e+01	3.015159e+02
2.080000e-06	3.714383e-06	4.525342e-09	2.641562e+01	2.980307e+02
2.090000e-06	3.638910e-06	4.462981e-09	2.587887e+01	2.944608e+02
2.100000e-06	3.562000e-06	4.425010e-09	2.533192e+01	2.908079e+02
2.110000e-06	3.483459e-06	4.380925e-09	2.477335e+01	2.870742e+02
2.120000e-06	3.403567e-06	4.314699e-09	2.420518e+01	2.832613e+02
2.130000e-06	3.322586e-06	4.244366e-09	2.362927e+01	2.793699e+02
2.140000e-06	3.240486e-06	4.197758e-09	2.304540e+01	2.753998e+02
2.150000e-06	3.157317e-06	4.141280e-09	2.245393e+01	2.713492e+02
2.160000e-06	3.073179e-06	4.072214e-09	2.185556e+01	2.672154e+02
2.170000e-06	2.987922e-06	4.010564e-09	2.124923e+01	2.629945e+02
2.180000e-06	2.901210e-06	3.946498e-09	2.063256e+01	2.586821e+02
2.190000e-06	2.813331e-06	3.873647e-09	2.000760e+01	2.542740e+02
2.200000e-06	2.724573e-06	3.811830e-09	1.937637e+01	2.497662e+02
2.210000e-06	2.634896e-06	3.752764e-09	1.873861e+01	2.451559e+02
2.220000e-06	2.544283e-06	3.673970e-09	1.809421e+01	2.404416e+02
2.230000e-06	2.452832e-06	3.585442e-09	1.744383e+01	2.356232e+02
2.240000e-06	2.360647e-06	3.511107e-09	1.678824e+01	2.307022e+02
2.250000e-06	2.267622e-06	3.450955e-09	1.612667e+01	2.256810e+02
2.260000e-06	2.173705e-06	3.381606e-09	1.545876e+01	2.205628e+02
2.270000e-06	2.078742e-06	3.301818e-09	1.478341e+01	2.153509e+02
2.280000e-06	1.982846e-06	3.216504e-09	1.410143e+01	2.100482e+02
2.290000e-06	1.886295e-06	3.123853e-09	1.341478e+01	2.046564e+02
2.300000e-06	1.789215e-06	3.033709e-09	1.272438e+01	1.991760e+02
2.310000e-06	1.691643e-06	2.956275e-09	1.203048e+01	1.936057e+02
2.320000e-06	1.593521e-06	2.879567e-09	1.133266e+01	1.879426e+02
2.330000e-06	1.494863e-06	2.790573e-09	1.063103e+01	1.821822e+02
2.340000e-06	1.395734e-06	2.698983e-09	9.926058e+00	1.763192e+02
2.350000e-06	1.296156e-06	2.610134e-09	9.217890e+00	1.703477e+02
2.360000e-06	1.196227e-06	2.520587e-09	8.507217e+00	1.642618e+02
2.370000e-06	1.096089e-06	2.424977e-09	7.795068e+00	1.580563e+02
2.380000e-06	9.956536e-07	2.325304e-09	7.080800e+00	1.517269e+02
2.390000e-06	8.948167e-07	2.226835e-09	6.363677e+00	1.452708e+02
2.400000e-06	7.935118e-07	2.125232e-09	5.643226e+00	1.386865e+02
2.410000e-06	6.919185e-07	2.023492e-09	4.920724e+00	1.319734e+02
2.420000e-06	5.901396e-07	1.922243e-09	4.196902e+00	1.251318e+02
2.430000e-06	4.880415e-07	1.815973e-09	3.470810e+00	1.181620e+02
2.440000e-06	3.856986e-07	1.706588e-09	2.742977e+00	1.110635e+02
2.450000e-06	2.832386e-07	1.596428e-09	2.014311e+00	1.038347e+02
2.460000e-06	1.806350e-07	1.485696e-09	1.284624e+00	9.647196e+01
2.470000e-06	7.787015e-08	1.372630e-09	5.537899e-01	8.896937e+01
2.480000e-06	-2.491921e-08	1.252562e-09	-1.772182e-01	8.131850e+01
2.490000e-06	-1.276688e-07	1.125748e-09	-9.079436e-01	7.350855e+01
2.500000e-06	-2.303992e-07	9.980839e-10	-1.638532e+00	6.552676e+01
2.510000e-06	-3.330750e-07	8.755215e-10	-2.368733e+00	5.735912e+01
2.520000e-06	-4.356543e-07	7.541419e-10	-3.098247e+00	4.899132e+01
2.530000e-06	-5.380334e-07	6.277672e-10	-3.826338e+00	4.040973e+01
2.540000e-06	-6.401400e-07	4.942607e-10	-4.552491e+00	3.160263e+01
2.550000e-06	-7.419742e-07	3.549772e-10	-5.276706e+00	2.256128e+01
2.560000e-06	-8.434421e-07	2.103388e-10	-5.998316e+00	1.328092e+01
2.570000e-06	-9.445497e-07	6.039038e-11	-6.717364e+00	3.761569e+00
2.580000e-06	-1.045301e-06	-8.870789e-11	-7.433879e+00	-5.991384e+00
2.590000e-06	-1.145611e-06	-2.380294e-10	-8.147256e+00	-1.596689e+01
2.600000e-06	-1.245485e-06	-3.919157e-10	-8.857532e+00	-2.614819e+01
2.610000e-06	-1.344931e-06	-5.483803e-10	-9.564760e+00	-3.651312e+01
2.620000e-06	-1.443913e-06	-7.064302e-10	-1.026869e+01	-4.703449e+01
2.630000e-06	-1.542426e-06	-8.648856e-10	-1.096929e+01	-5.768083e+01
2.640000e-06	-1.640426e-06	-1.026652e-09	-1.166624e+01	-6.841714e+01
2.650000e-06	-1.737766e-06	-1.191600e-09	-1.235849e+01	-7.920582e+01
2.660000e-06	-1.834498e-06	-1.356748e-09	-1.304642e+01	-9.000757e+01
2.670000e-06	-1.930795e-06	-1.523143e-09	-1.373126e+01	-1.007824e+02
2.680000e-06	-2.026613e-06	-1.688106e-09	-1.441269e+01	-1.114903e+02
2.690000e-06	-2.121626e-06	-1.847362e-09	-1.508839e+01	-1.220925e+02
2.700000e-06	-2.215637e-06	-2.002087e-09	-1.575697e+01	-1.325519e+02
2.710000e-06	-2.308681e-06	-2.159271e-09	-1.641867e+01	-1.428337e+02
2.720000e-06	-2.400782e-06	-2.314685e-09	-1.707367e+01	-1.529063e+02
2.730000e-06	-2.492034e-06	-2.463241e-09	-1.772262e+01	-1.627416e+02
2.740000e-06	-2.582379e-06	-2.607113e-09	-1.836513e+01	-1.723152e+02
2.750000e-06	-2.671792e-06	-2.749611e-09	-1.900101e+01	-1.816070e+02
2.760000e-06	-2.760448e-06	-2.889078e-09	-1.963151e+01	-1.906011e+02
2.770000e-06	-2.848318e-06	-3.022027e-09	-2.025641e+01	-1.992859e+02
2.780000e-06	-2.935176e-06	-3.151191e-09	-2.087412e+01	-2.076543e+02
2.790000e-06	-3.020803e-06	-3.274832e-09	-2.148308e+01	-2.157030e+02
2.800000e-06	-3.105251e-06	-3.393378e-09	-2.208364e+01	-2.234327e+02
2.810000e-06	-3.188654e-06	-3.508797e-09	-2.267679e+01	-2.308479e+02
2.820000e-06	-3.271019e-06	-3.619291e-09	-2.326254e+01	-2.379559e+02
2.830000e-06	-3.352332e-06	-3.725138e-09	-2.384082e+01	-2.447668e+02
2.840000e-06	-3.432564e-06	-3.823246e-09	-2.441140e+01	-2.512929e+02
2.850000e-06	-3.511559e-06	-3.915636e-09	-2.497319e+01	-2.575483e+02
2.860000e-06	-3.589090e-06	-4.007437e-09	-2.552457e+01	-2.635480e+02
2.870000e-06	-3.665113e-06	-4.095915e-09	-2.606522e+01	-2.693076e+02
2.880000e-06	-3.739662e-06	-4.179247e-09	-2.659539e+01	-2.748427e+02
2.890000e-06	-3.812870e-06	-4.259445e-09	-2.711603e+01	-2.801682e+02
2.900000e-06	-3.884847e-06	-4.339046e-09	-2.762791e+01	-2.852982e+02
2.910000e-06	-3.955323e-06	-4.415554e-09	-2.812911e+01	-2.902452e+02
2.920000e-06	-4.024157e-06	-4.487510e-09	-2.861864e+01	-2.950196e+02
2.930000e-06	-4.091570e-06	-4.559583e-09	-2.909806e+01	-2.996302e+02
2.940000e-06	-4.157571e-06	-4.629673e-09	-2.956745e+01	-3.040830e+02
