# Temperatura_=_58.16
# Concentracion g/m^3_=_15000.0
# C_Vs_to_Am_M_A/Vsm_=_65563218390.804596
# pendiente_HvsI_1/m_=_3716.3
# ordenada_HvsI_A/m_=_1297.0
# frecuencia_Hz_=_301571.64445538307

Tiempo_(s)	Campo_(V.s)	Magnetizacion_(V.s)	Campo_(kA/m)	Magnetizacion_(A/m)
0.000000e+00	-5.372605e-06	-5.520376e-09	-3.834423e+01	-3.603809e+02
1.000000e-08	-5.369687e-06	-5.521814e-09	-3.832340e+01	-3.602403e+02
2.000000e-08	-5.365063e-06	-5.516547e-09	-3.829040e+01	-3.600186e+02
3.000000e-08	-5.358808e-06	-5.510700e-09	-3.824575e+01	-3.597142e+02
4.000000e-08	-5.350988e-06	-5.502055e-09	-3.818994e+01	-3.593264e+02
5.000000e-08	-5.341302e-06	-5.490688e-09	-3.812081e+01	-3.588550e+02
6.000000e-08	-5.329551e-06	-5.479712e-09	-3.803695e+01	-3.583009e+02
7.000000e-08	-5.315944e-06	-5.456954e-09	-3.793983e+01	-3.576661e+02
8.000000e-08	-5.300252e-06	-5.456283e-09	-3.782784e+01	-3.569534e+02
9.000000e-08	-5.282356e-06	-5.521378e-09	-3.770011e+01	-3.561663e+02
1.000000e-07	-5.262437e-06	-5.503890e-09	-3.755796e+01	-3.553087e+02
1.100000e-07	-5.240603e-06	-5.444714e-09	-3.740213e+01	-3.543843e+02
1.200000e-07	-5.217107e-06	-5.419824e-09	-3.723443e+01	-3.533964e+02
1.300000e-07	-5.192086e-06	-5.280826e-09	-3.705586e+01	-3.523471e+02
1.400000e-07	-5.165405e-06	-5.339531e-09	-3.686544e+01	-3.512374e+02
1.500000e-07	-5.137121e-06	-5.487137e-09	-3.666357e+01	-3.500668e+02
1.600000e-07	-5.107407e-06	-5.282738e-09	-3.645151e+01	-3.488333e+02
1.700000e-07	-5.076103e-06	-5.332835e-09	-3.622809e+01	-3.475338e+02
1.800000e-07	-5.042596e-06	-5.369356e-09	-3.598896e+01	-3.461641e+02
1.900000e-07	-5.007261e-06	-5.147721e-09	-3.573676e+01	-3.447194e+02
2.000000e-07	-4.970521e-06	-5.295230e-09	-3.547455e+01	-3.431951e+02
2.100000e-07	-4.931997e-06	-5.294438e-09	-3.519961e+01	-3.415869e+02
2.200000e-07	-4.891609e-06	-5.123218e-09	-3.491136e+01	-3.398913e+02
2.300000e-07	-4.849228e-06	-5.194973e-09	-3.460888e+01	-3.381061e+02
2.400000e-07	-4.804989e-06	-5.165523e-09	-3.429315e+01	-3.362305e+02
2.500000e-07	-4.759047e-06	-5.118392e-09	-3.396526e+01	-3.342648e+02
2.600000e-07	-4.711177e-06	-5.108513e-09	-3.362362e+01	-3.322109e+02
2.700000e-07	-4.661250e-06	-5.008243e-09	-3.326729e+01	-3.300712e+02
2.800000e-07	-4.609247e-06	-4.997898e-09	-3.289615e+01	-3.278488e+02
2.900000e-07	-4.555399e-06	-4.977083e-09	-3.251183e+01	-3.255469e+02
3.000000e-07	-4.500044e-06	-4.945980e-09	-3.211677e+01	-3.231682e+02
3.100000e-07	-4.442976e-06	-4.928121e-09	-3.170947e+01	-3.207149e+02
3.200000e-07	-4.384076e-06	-4.884628e-09	-3.128910e+01	-3.181882e+02
3.300000e-07	-4.323610e-06	-4.812797e-09	-3.085755e+01	-3.155882e+02
3.400000e-07	-4.261679e-06	-4.731232e-09	-3.041556e+01	-3.129142e+02
3.500000e-07	-4.198378e-06	-4.753277e-09	-2.996378e+01	-3.101646e+02
3.600000e-07	-4.133525e-06	-4.724029e-09	-2.950093e+01	-3.073374e+02
3.700000e-07	-4.067010e-06	-4.642759e-09	-2.902621e+01	-3.044303e+02
3.800000e-07	-3.998993e-06	-4.610517e-09	-2.854077e+01	-3.014415e+02
3.900000e-07	-3.929636e-06	-4.553553e-09	-2.804577e+01	-2.983694e+02
4.000000e-07	-3.859100e-06	-4.501627e-09	-2.754236e+01	-2.952135e+02
4.100000e-07	-3.787297e-06	-4.446604e-09	-2.702990e+01	-2.919737e+02
4.200000e-07	-3.714009e-06	-4.407401e-09	-2.650684e+01	-2.886512e+02
4.300000e-07	-3.639123e-06	-4.362165e-09	-2.597238e+01	-2.852476e+02
4.400000e-07	-3.562701e-06	-4.296405e-09	-2.542696e+01	-2.817648e+02
4.500000e-07	-3.484906e-06	-4.245300e-09	-2.487174e+01	-2.782049e+02
4.600000e-07	-3.405769e-06	-4.196354e-09	-2.430694e+01	-2.745699e+02
4.700000e-07	-3.325414e-06	-4.136743e-09	-2.373345e+01	-2.708609e+02
4.800000e-07	-3.243843e-06	-4.058137e-09	-2.315127e+01	-2.670783e+02
4.900000e-07	-3.161085e-06	-3.999792e-09	-2.256063e+01	-2.632215e+02
5.000000e-07	-3.077319e-06	-3.960392e-09	-2.196279e+01	-2.592888e+02
5.100000e-07	-2.992633e-06	-3.902278e-09	-2.135839e+01	-2.552776e+02
5.200000e-07	-2.906951e-06	-3.834061e-09	-2.074688e+01	-2.511847e+02
5.300000e-07	-2.820274e-06	-3.759080e-09	-2.012826e+01	-2.470064e+02
5.400000e-07	-2.732715e-06	-3.682091e-09	-1.950336e+01	-2.427389e+02
5.500000e-07	-2.644111e-06	-3.614250e-09	-1.887099e+01	-2.383788e+02
5.600000e-07	-2.554351e-06	-3.552241e-09	-1.823038e+01	-2.339232e+02
5.700000e-07	-2.463508e-06	-3.492010e-09	-1.758203e+01	-2.293699e+02
5.800000e-07	-2.371745e-06	-3.418186e-09	-1.692712e+01	-2.247176e+02
5.900000e-07	-2.279228e-06	-3.341173e-09	-1.626683e+01	-2.199658e+02
6.000000e-07	-2.185970e-06	-3.267759e-09	-1.560124e+01	-2.151147e+02
6.100000e-07	-2.091908e-06	-3.194153e-09	-1.492993e+01	-2.101650e+02
6.200000e-07	-1.997172e-06	-3.116435e-09	-1.425379e+01	-2.051173e+02
6.300000e-07	-1.901834e-06	-3.034267e-09	-1.357337e+01	-1.999723e+02
6.400000e-07	-1.805749e-06	-2.954281e-09	-1.288761e+01	-1.947303e+02
6.500000e-07	-1.708871e-06	-2.874375e-09	-1.219619e+01	-1.893909e+02
6.600000e-07	-1.611268e-06	-2.793800e-09	-1.149960e+01	-1.839530e+02
6.700000e-07	-1.513038e-06	-2.708247e-09	-1.079853e+01	-1.784147e+02
6.800000e-07	-1.414265e-06	-2.620007e-09	-1.009359e+01	-1.727734e+02
6.900000e-07	-1.315006e-06	-2.530116e-09	-9.385184e+00	-1.670263e+02
7.000000e-07	-1.215271e-06	-2.441274e-09	-8.673378e+00	-1.611700e+02
7.100000e-07	-1.115154e-06	-2.353613e-09	-7.958841e+00	-1.552014e+02
7.200000e-07	-1.014773e-06	-2.260684e-09	-7.242427e+00	-1.491174e+02
7.300000e-07	-9.141440e-07	-2.163565e-09	-6.524235e+00	-1.429156e+02
7.400000e-07	-8.132491e-07	-2.063923e-09	-5.804150e+00	-1.365938e+02
7.500000e-07	-7.120248e-07	-1.964205e-09	-5.081713e+00	-1.301504e+02
7.600000e-07	-6.104743e-07	-1.864686e-09	-4.356948e+00	-1.235839e+02
7.700000e-07	-5.087208e-07	-1.763190e-09	-3.630735e+00	-1.168929e+02
7.800000e-07	-4.068109e-07	-1.659365e-09	-2.903405e+00	-1.100757e+02
7.900000e-07	-3.047540e-07	-1.553174e-09	-2.175026e+00	-1.031297e+02
8.000000e-07	-2.025851e-07	-1.443956e-09	-1.445848e+00	-9.605111e+01
8.100000e-07	-1.003145e-07	-1.335346e-09	-7.159437e-01	-8.883485e+01
8.200000e-07	1.999958e-09	-1.228155e-09	1.427368e-02	-8.147408e+01
8.300000e-07	1.042962e-07	-1.115580e-09	7.443606e-01	-7.396031e+01
8.400000e-07	2.066194e-07	-9.996127e-10	1.474640e+00	-6.628352e+01
8.500000e-07	3.089412e-07	-8.802157e-10	2.204910e+00	-5.843251e+01
8.600000e-07	4.111328e-07	-7.565926e-10	2.934250e+00	-5.039549e+01
8.700000e-07	5.131668e-07	-6.283375e-10	3.662466e+00	-4.216071e+01
8.800000e-07	6.150584e-07	-4.993641e-10	4.389665e+00	-3.371741e+01
8.900000e-07	7.167751e-07	-3.694015e-10	5.115616e+00	-2.505666e+01
9.000000e-07	8.182004e-07	-2.347243e-10	5.839487e+00	-1.617228e+01
9.100000e-07	9.192462e-07	-9.819123e-11	6.560650e+00	-7.061738e+00
9.200000e-07	1.019974e-06	4.159159e-11	7.279545e+00	2.273143e+00
9.300000e-07	1.120419e-06	1.872547e-10	7.996420e+00	1.182561e+01
9.400000e-07	1.220563e-06	3.400186e-10	8.711147e+00	2.158366e+01
9.500000e-07	1.320377e-06	4.939827e-10	9.423518e+00	3.152989e+01
9.600000e-07	1.419700e-06	6.489829e-10	1.013238e+01	4.164171e+01
9.700000e-07	1.518445e-06	8.066818e-10	1.083713e+01	5.189170e+01
9.800000e-07	1.616520e-06	9.660253e-10	1.153709e+01	6.224821e+01
9.900000e-07	1.713840e-06	1.125915e-09	1.223166e+01	7.267618e+01
1.000000e-06	1.810402e-06	1.286079e-09	1.292082e+01	8.313806e+01
1.010000e-06	1.906219e-06	1.446888e-09	1.360466e+01	9.359475e+01
1.020000e-06	2.001312e-06	1.607586e-09	1.428334e+01	1.040067e+02
1.030000e-06	2.095711e-06	1.767614e-09	1.495707e+01	1.143348e+02
1.040000e-06	2.189355e-06	1.925178e-09	1.562541e+01	1.245414e+02
1.050000e-06	2.282231e-06	2.078938e-09	1.628826e+01	1.345910e+02
1.060000e-06	2.374459e-06	2.229124e-09	1.694649e+01	1.444511e+02
1.070000e-06	2.465994e-06	2.374880e-09	1.759977e+01	1.540927e+02
1.080000e-06	2.556653e-06	2.518152e-09	1.824681e+01	1.634904e+02
1.090000e-06	2.646257e-06	2.658832e-09	1.888631e+01	1.726231e+02
1.100000e-06	2.734734e-06	2.796078e-09	1.951776e+01	1.814738e+02
1.110000e-06	2.822170e-06	2.924908e-09	2.014180e+01	1.900300e+02
1.120000e-06	2.908744e-06	3.046858e-09	2.075968e+01	1.982829e+02
1.130000e-06	2.994414e-06	3.167542e-09	2.137110e+01	2.062282e+02
1.140000e-06	3.079099e-06	3.286999e-09	2.197550e+01	2.138650e+02
1.150000e-06	3.162838e-06	3.399195e-09	2.257314e+01	2.211962e+02
1.160000e-06	3.245500e-06	3.502977e-09	2.316310e+01	2.282277e+02
1.170000e-06	3.326900e-06	3.603647e-09	2.374405e+01	2.349682e+02
1.180000e-06	3.407090e-06	3.701360e-09	2.431636e+01	2.414286e+02
1.190000e-06	3.486141e-06	3.795796e-09	2.488055e+01	2.476218e+02
1.200000e-06	3.563987e-06	3.886078e-09	2.543614e+01	2.535618e+02
1.210000e-06	3.640578e-06	3.974124e-09	2.598276e+01	2.592635e+02
1.220000e-06	3.715813e-06	4.059147e-09	2.651972e+01	2.647417e+02
1.230000e-06	3.789429e-06	4.139426e-09	2.704511e+01	2.700108e+02
1.240000e-06	3.861423e-06	4.216117e-09	2.755894e+01	2.750842e+02
1.250000e-06	3.932031e-06	4.290870e-09	2.806286e+01	2.799736e+02
1.260000e-06	4.001274e-06	4.362657e-09	2.855705e+01	2.846892e+02
1.270000e-06	4.069200e-06	4.432582e-09	2.904184e+01	2.892386e+02
1.280000e-06	4.135648e-06	4.499486e-09	2.951608e+01	2.936274e+02
1.290000e-06	4.200356e-06	4.563156e-09	2.997789e+01	2.978591e+02
1.300000e-06	4.263500e-06	4.623163e-09	3.042855e+01	3.019352e+02
1.310000e-06	4.325314e-06	4.681247e-09	3.086972e+01	3.058554e+02
1.320000e-06	4.385791e-06	4.738626e-09	3.130134e+01	3.096186e+02
1.330000e-06	4.444887e-06	4.791863e-09	3.172311e+01	3.132231e+02
1.340000e-06	4.502233e-06	4.842144e-09	3.213239e+01	3.166671e+02
1.350000e-06	4.557788e-06	4.890427e-09	3.252888e+01	3.199496e+02
1.360000e-06	4.611781e-06	4.936617e-09	3.291423e+01	3.230704e+02
1.370000e-06	4.664047e-06	4.979994e-09	3.328725e+01	3.260309e+02
1.380000e-06	4.714284e-06	5.019565e-09	3.364579e+01	3.288340e+02
1.390000e-06	4.762494e-06	5.057360e-09	3.398987e+01	3.314841e+02
1.400000e-06	4.808962e-06	5.092211e-09	3.432151e+01	3.339869e+02
1.410000e-06	4.853836e-06	5.123384e-09	3.464178e+01	3.363493e+02
1.420000e-06	4.897204e-06	5.153350e-09	3.495129e+01	3.385789e+02
1.430000e-06	4.938721e-06	5.183352e-09	3.524760e+01	3.406830e+02
1.440000e-06	4.978356e-06	5.212669e-09	3.553047e+01	3.426691e+02
1.450000e-06	5.016316e-06	5.239996e-09	3.580139e+01	3.445433e+02
1.460000e-06	5.052629e-06	5.265226e-09	3.606056e+01	3.463110e+02
1.470000e-06	5.087267e-06	5.289597e-09	3.630777e+01	3.479760e+02
1.480000e-06	5.119976e-06	5.312723e-09	3.654121e+01	3.495408e+02
1.490000e-06	5.150869e-06	5.333518e-09	3.676169e+01	3.510064e+02
1.500000e-06	5.180108e-06	5.350015e-09	3.697037e+01	3.523732e+02
1.510000e-06	5.207686e-06	5.365536e-09	3.716720e+01	3.536404e+02
1.520000e-06	5.233266e-06	5.382251e-09	3.734977e+01	3.548074e+02
1.530000e-06	5.256723e-06	5.397962e-09	3.751718e+01	3.558735e+02
1.540000e-06	5.278370e-06	5.412733e-09	3.767167e+01	3.568385e+02
1.550000e-06	5.298299e-06	5.426399e-09	3.781390e+01	3.577031e+02
1.560000e-06	5.316256e-06	5.439412e-09	3.794206e+01	3.584688e+02
1.570000e-06	5.332224e-06	5.450174e-09	3.805603e+01	3.591378e+02
1.580000e-06	5.346336e-06	5.460078e-09	3.815674e+01	3.597134e+02
1.590000e-06	5.358435e-06	5.469367e-09	3.824309e+01	3.601988e+02
1.600000e-06	5.368321e-06	5.475658e-09	3.831365e+01	3.605977e+02
1.610000e-06	5.376089e-06	5.478036e-09	3.836909e+01	3.609133e+02
1.620000e-06	5.382047e-06	5.480582e-09	3.841161e+01	3.611483e+02
1.630000e-06	5.386279e-06	5.485937e-09	3.844182e+01	3.613046e+02
1.640000e-06	5.388573e-06	5.490361e-09	3.845819e+01	3.613831e+02
1.650000e-06	5.388827e-06	5.494400e-09	3.846000e+01	3.613838e+02
1.660000e-06	5.387276e-06	5.490981e-09	3.844893e+01	3.613058e+02
1.670000e-06	5.384063e-06	5.484119e-09	3.842600e+01	3.611477e+02
1.680000e-06	5.379180e-06	5.483292e-09	3.839115e+01	3.609082e+02
1.690000e-06	5.372348e-06	5.480821e-09	3.834239e+01	3.605858e+02
1.700000e-06	5.363726e-06	5.477251e-09	3.828085e+01	3.601799e+02
1.710000e-06	5.353606e-06	5.474373e-09	3.820862e+01	3.596904e+02
1.720000e-06	5.341790e-06	5.479135e-09	3.812430e+01	3.591187e+02
1.730000e-06	5.327978e-06	5.490403e-09	3.802572e+01	3.584667e+02
1.740000e-06	5.312038e-06	5.382678e-09	3.791196e+01	3.577375e+02
1.750000e-06	5.293759e-06	5.355098e-09	3.778150e+01	3.569347e+02
1.760000e-06	5.272773e-06	5.387962e-09	3.763172e+01	3.560623e+02
1.770000e-06	5.249468e-06	5.381984e-09	3.746540e+01	3.551239e+02
1.780000e-06	5.225006e-06	5.537098e-09	3.729081e+01	3.541225e+02
1.790000e-06	5.199950e-06	5.385937e-09	3.711198e+01	3.530600e+02
1.800000e-06	5.173407e-06	5.222341e-09	3.692255e+01	3.519372e+02
1.810000e-06	5.144608e-06	5.427270e-09	3.671701e+01	3.507531e+02
1.820000e-06	5.114115e-06	5.248936e-09	3.649938e+01	3.495056e+02
1.830000e-06	5.081930e-06	5.236901e-09	3.626968e+01	3.481912e+02
1.840000e-06	5.047656e-06	5.448825e-09	3.602506e+01	3.468056e+02
1.850000e-06	5.011876e-06	5.160334e-09	3.576971e+01	3.453441e+02
1.860000e-06	4.974349e-06	5.197223e-09	3.550187e+01	3.438020e+02
1.870000e-06	4.934813e-06	5.306214e-09	3.521971e+01	3.421751e+02
1.880000e-06	4.893629e-06	5.083090e-09	3.492578e+01	3.404602e+02
1.890000e-06	4.850597e-06	5.188918e-09	3.461866e+01	3.386555e+02
1.900000e-06	4.805949e-06	5.100513e-09	3.430001e+01	3.367602e+02
1.910000e-06	4.759463e-06	5.048787e-09	3.396823e+01	3.347753e+02
1.920000e-06	4.710893e-06	5.160014e-09	3.362159e+01	3.327025e+02
1.930000e-06	4.660827e-06	4.940045e-09	3.326427e+01	3.305447e+02
1.940000e-06	4.609109e-06	5.025904e-09	3.289516e+01	3.283048e+02
1.950000e-06	4.555374e-06	5.005309e-09	3.251165e+01	3.259860e+02
1.960000e-06	4.499669e-06	4.846636e-09	3.211409e+01	3.235910e+02
1.970000e-06	4.442197e-06	4.884228e-09	3.170391e+01	3.211217e+02
1.980000e-06	4.383278e-06	4.836464e-09	3.128341e+01	3.185791e+02
1.990000e-06	4.322904e-06	4.886941e-09	3.085252e+01	3.159631e+02
2.000000e-06	4.260897e-06	4.749337e-09	3.040997e+01	3.132729e+02
2.010000e-06	4.197248e-06	4.682255e-09	2.995571e+01	3.105066e+02
2.020000e-06	4.132031e-06	4.730757e-09	2.949026e+01	3.076623e+02
2.030000e-06	4.065388e-06	4.578803e-09	2.901463e+01	3.047376e+02
2.040000e-06	3.997390e-06	4.598632e-09	2.852933e+01	3.017309e+02
2.050000e-06	3.927968e-06	4.569948e-09	2.803387e+01	2.986407e+02
2.060000e-06	3.856975e-06	4.528185e-09	2.752719e+01	2.954665e+02
2.070000e-06	3.784551e-06	4.456236e-09	2.701030e+01	2.922087e+02
2.080000e-06	3.710870e-06	4.347086e-09	2.648444e+01	2.888685e+02
2.090000e-06	3.635863e-06	4.375416e-09	2.594912e+01	2.854475e+02
2.100000e-06	3.559482e-06	4.298752e-09	2.540398e+01	2.819478e+02
2.110000e-06	3.481477e-06	4.235986e-09	2.484726e+01	2.783715e+02
2.120000e-06	3.402042e-06	4.175580e-09	2.428034e+01	2.747204e+02
2.130000e-06	3.321507e-06	4.133669e-09	2.370556e+01	2.709954e+02
2.140000e-06	3.239806e-06	4.086203e-09	2.312246e+01	2.671968e+02
2.150000e-06	3.156991e-06	3.999279e-09	2.253141e+01	2.633237e+02
2.160000e-06	3.073187e-06	3.964653e-09	2.193330e+01	2.593742e+02
2.170000e-06	2.988338e-06	3.888181e-09	2.132774e+01	2.553456e+02
2.180000e-06	2.902170e-06	3.830850e-09	2.071276e+01	2.512345e+02
2.190000e-06	2.814774e-06	3.773015e-09	2.008901e+01	2.470372e+02
2.200000e-06	2.726366e-06	3.720223e-09	1.945805e+01	2.427499e+02
2.210000e-06	2.637055e-06	3.658381e-09	1.882063e+01	2.383694e+02
2.220000e-06	2.546873e-06	3.564401e-09	1.817700e+01	2.338928e+02
2.230000e-06	2.455805e-06	3.492295e-09	1.752706e+01	2.293182e+02
2.240000e-06	2.363997e-06	3.422563e-09	1.687182e+01	2.246444e+02
2.250000e-06	2.271401e-06	3.365804e-09	1.621096e+01	2.198711e+02
2.260000e-06	2.177976e-06	3.297855e-09	1.554419e+01	2.149986e+02
2.270000e-06	2.083592e-06	3.220332e-09	1.487057e+01	2.100275e+02
2.280000e-06	1.988167e-06	3.134136e-09	1.418953e+01	2.049588e+02
2.290000e-06	1.891977e-06	3.050820e-09	1.350302e+01	1.997928e+02
2.300000e-06	1.795231e-06	2.974610e-09	1.281254e+01	1.945298e+02
2.310000e-06	1.698026e-06	2.899016e-09	1.211879e+01	1.891692e+02
2.320000e-06	1.600332e-06	2.818988e-09	1.142155e+01	1.837098e+02
2.330000e-06	1.502084e-06	2.725011e-09	1.072035e+01	1.781494e+02
2.340000e-06	1.403332e-06	2.637385e-09	1.001556e+01	1.724856e+02
2.350000e-06	1.304173e-06	2.551034e-09	9.307869e+00	1.667151e+02
2.360000e-06	1.204656e-06	2.467944e-09	8.597616e+00	1.608348e+02
2.370000e-06	1.104851e-06	2.380935e-09	7.885310e+00	1.548415e+02
2.380000e-06	1.004756e-06	2.283372e-09	7.170934e+00	1.487323e+02
2.390000e-06	9.042689e-07	2.187029e-09	6.453757e+00	1.425047e+02
2.400000e-06	8.033392e-07	2.093853e-09	5.733423e+00	1.361568e+02
2.410000e-06	7.020533e-07	1.998248e-09	5.010547e+00	1.296869e+02
2.420000e-06	6.006034e-07	1.895178e-09	4.286500e+00	1.230936e+02
2.430000e-06	4.989662e-07	1.787367e-09	3.561117e+00	1.163756e+02
2.440000e-06	3.971079e-07	1.681619e-09	2.834154e+00	1.095308e+02
2.450000e-06	2.951207e-07	1.580021e-09	2.106273e+00	1.025566e+02
2.460000e-06	1.929641e-07	1.475815e-09	1.377183e+00	9.544878e+01
2.470000e-06	9.069478e-08	1.367324e-09	6.472877e-01	8.820198e+01
2.480000e-06	-1.163182e-08	1.250485e-09	-8.301615e-02	8.080900e+01
2.490000e-06	-1.139738e-07	1.126799e-09	-8.134297e-01	7.326099e+01
2.500000e-06	-2.162778e-07	1.007084e-09	-1.543572e+00	6.554764e+01
2.510000e-06	-3.184906e-07	8.932526e-10	-2.273064e+00	5.765757e+01
2.520000e-06	-4.205271e-07	7.750150e-10	-3.001297e+00	4.957894e+01
2.530000e-06	-5.223668e-07	6.465742e-10	-3.728126e+00	4.130014e+01
2.540000e-06	-6.240377e-07	5.139240e-10	-4.453750e+00	3.281071e+01
2.550000e-06	-7.254891e-07	3.803567e-10	-5.177808e+00	2.410224e+01
2.560000e-06	-8.265948e-07	2.437326e-10	-5.899398e+00	1.516928e+01
2.570000e-06	-9.273481e-07	1.024411e-10	-6.618473e+00	6.010148e+00
2.580000e-06	-1.027763e-06	-4.053938e-11	-7.335133e+00	-3.372305e+00
2.590000e-06	-1.127791e-06	-1.858903e-10	-8.049034e+00	-1.297022e+01
2.600000e-06	-1.227346e-06	-3.354562e-10	-8.759555e+00	-2.277044e+01
2.610000e-06	-1.326488e-06	-4.855110e-10	-9.467127e+00	-3.275443e+01
2.620000e-06	-1.425253e-06	-6.373000e-10	-1.017201e+01	-4.289852e+01
2.630000e-06	-1.523531e-06	-7.934876e-10	-1.087342e+01	-5.317433e+01
2.640000e-06	-1.621235e-06	-9.530232e-10	-1.157073e+01	-6.354940e+01
2.650000e-06	-1.718346e-06	-1.112952e-09	-1.226382e+01	-7.398807e+01
2.660000e-06	-1.814963e-06	-1.270401e-09	-1.295337e+01	-8.445236e+01
2.670000e-06	-1.911100e-06	-1.427467e-09	-1.363950e+01	-9.490299e+01
2.680000e-06	-2.006639e-06	-1.584120e-09	-1.432136e+01	-1.053004e+02
2.690000e-06	-2.101326e-06	-1.739645e-09	-1.499714e+01	-1.156058e+02
2.700000e-06	-2.195030e-06	-1.894177e-09	-1.566590e+01	-1.257818e+02
2.710000e-06	-2.287817e-06	-2.047782e-09	-1.632812e+01	-1.357937e+02
2.720000e-06	-2.379725e-06	-2.197989e-09	-1.698407e+01	-1.456095e+02
2.730000e-06	-2.470796e-06	-2.343785e-09	-1.763405e+01	-1.552010e+02
2.740000e-06	-2.561007e-06	-2.487322e-09	-1.827788e+01	-1.645437e+02
2.750000e-06	-2.650333e-06	-2.627553e-09	-1.891540e+01	-1.736175e+02
2.760000e-06	-2.738851e-06	-2.762728e-09	-1.954715e+01	-1.824063e+02
2.770000e-06	-2.826545e-06	-2.891475e-09	-2.017302e+01	-1.908982e+02
2.780000e-06	-2.913201e-06	-3.013400e-09	-2.079148e+01	-1.990857e+02
2.790000e-06	-2.998657e-06	-3.131763e-09	-2.140139e+01	-2.069650e+02
2.800000e-06	-3.082964e-06	-3.250464e-09	-2.200308e+01	-2.145362e+02
2.810000e-06	-3.166244e-06	-3.366162e-09	-2.259745e+01	-2.218028e+02
2.820000e-06	-3.248508e-06	-3.473534e-09	-2.318457e+01	-2.287713e+02
2.830000e-06	-3.329711e-06	-3.574509e-09	-2.376411e+01	-2.354509e+02
2.840000e-06	-3.409811e-06	-3.673728e-09	-2.433579e+01	-2.418532e+02
2.850000e-06	-3.488668e-06	-3.769786e-09	-2.489859e+01	-2.479911e+02
2.860000e-06	-3.566059e-06	-3.859631e-09	-2.545093e+01	-2.538790e+02
2.870000e-06	-3.641960e-06	-3.944797e-09	-2.599263e+01	-2.595318e+02
2.880000e-06	-3.716406e-06	-4.027205e-09	-2.652395e+01	-2.649642e+02
2.890000e-06	-3.789541e-06	-4.105923e-09	-2.704591e+01	-2.701904e+02
2.900000e-06	-3.861440e-06	-4.181478e-09	-2.755905e+01	-2.752236e+02
2.910000e-06	-3.931845e-06	-4.254860e-09	-2.806154e+01	-2.800753e+02
2.920000e-06	-4.000698e-06	-4.326241e-09	-2.855294e+01	-2.847548e+02
2.930000e-06	-4.068099e-06	-4.395776e-09	-2.903398e+01	-2.892696e+02
2.940000e-06	-4.134108e-06	-4.463545e-09	-2.950508e+01	-2.936248e+02
