# Temperatura_=_77.74
# Concentracion g/m^3_=_15000.0
# C_Vs_to_Am_M_A/Vsm_=_65563218390.804596
# pendiente_HvsI_1/m_=_3716.3
# ordenada_HvsI_A/m_=_1297.0
# frecuencia_Hz_=_301578.984409237

Tiempo_(s)	Campo_(V.s)	Magnetizacion_(V.s)	Campo_(kA/m)	Magnetizacion_(A/m)
0.000000e+00	-5.382618e-06	-6.961362e-09	-3.834279e+01	-4.549170e+02
1.000000e-08	-5.379568e-06	-6.958836e-09	-3.832106e+01	-4.546907e+02
2.000000e-08	-5.374790e-06	-6.952764e-09	-3.828702e+01	-4.543549e+02
3.000000e-08	-5.368418e-06	-6.943541e-09	-3.824164e+01	-4.539085e+02
4.000000e-08	-5.360465e-06	-6.932821e-09	-3.818498e+01	-4.533523e+02
5.000000e-08	-5.350562e-06	-6.920992e-09	-3.811444e+01	-4.526896e+02
6.000000e-08	-5.338641e-06	-6.910159e-09	-3.802952e+01	-4.519260e+02
7.000000e-08	-5.324876e-06	-6.898720e-09	-3.793147e+01	-4.510695e+02
8.000000e-08	-5.308987e-06	-6.887185e-09	-3.781828e+01	-4.501292e+02
9.000000e-08	-5.290874e-06	-6.892262e-09	-3.768925e+01	-4.491144e+02
1.000000e-07	-5.270716e-06	-6.897447e-09	-3.754566e+01	-4.480341e+02
1.100000e-07	-5.248650e-06	-6.874261e-09	-3.738847e+01	-4.468954e+02
1.200000e-07	-5.224985e-06	-6.839142e-09	-3.721990e+01	-4.457025e+02
1.300000e-07	-5.199836e-06	-6.776823e-09	-3.704075e+01	-4.444568e+02
1.400000e-07	-5.173038e-06	-6.725716e-09	-3.684985e+01	-4.431558e+02
1.500000e-07	-5.144596e-06	-6.764096e-09	-3.664725e+01	-4.417938e+02
1.600000e-07	-5.114658e-06	-6.752339e-09	-3.643399e+01	-4.403623e+02
1.700000e-07	-5.083032e-06	-6.696200e-09	-3.620870e+01	-4.388509e+02
1.800000e-07	-5.049351e-06	-6.697920e-09	-3.596877e+01	-4.372481e+02
1.900000e-07	-5.013925e-06	-6.646960e-09	-3.571642e+01	-4.355426e+02
2.000000e-07	-4.976953e-06	-6.610505e-09	-3.545305e+01	-4.337245e+02
2.100000e-07	-4.938202e-06	-6.619604e-09	-3.517701e+01	-4.317860e+02
2.200000e-07	-4.897640e-06	-6.569018e-09	-3.488807e+01	-4.297219e+02
2.300000e-07	-4.855109e-06	-6.521679e-09	-3.458511e+01	-4.275303e+02
2.400000e-07	-4.810666e-06	-6.479206e-09	-3.426852e+01	-4.252119e+02
2.500000e-07	-4.764460e-06	-6.441135e-09	-3.393937e+01	-4.227701e+02
2.600000e-07	-4.716282e-06	-6.433274e-09	-3.359618e+01	-4.202100e+02
2.700000e-07	-4.666025e-06	-6.371624e-09	-3.323818e+01	-4.175379e+02
2.800000e-07	-4.613790e-06	-6.313148e-09	-3.286608e+01	-4.147603e+02
2.900000e-07	-4.559755e-06	-6.285029e-09	-3.248117e+01	-4.118830e+02
3.000000e-07	-4.504148e-06	-6.242836e-09	-3.208505e+01	-4.089108e+02
3.100000e-07	-4.446833e-06	-6.208055e-09	-3.167677e+01	-4.058471e+02
3.200000e-07	-4.387696e-06	-6.159481e-09	-3.125551e+01	-4.026934e+02
3.300000e-07	-4.327006e-06	-6.095128e-09	-3.082319e+01	-3.994498e+02
3.400000e-07	-4.264885e-06	-6.029480e-09	-3.038068e+01	-3.961151e+02
3.500000e-07	-4.201376e-06	-5.981663e-09	-2.992828e+01	-3.926871e+02
3.600000e-07	-4.136361e-06	-5.950773e-09	-2.946514e+01	-3.891633e+02
3.700000e-07	-4.069698e-06	-5.904889e-09	-2.899027e+01	-3.855411e+02
3.800000e-07	-4.001495e-06	-5.839680e-09	-2.850443e+01	-3.818183e+02
3.900000e-07	-3.931930e-06	-5.764987e-09	-2.800889e+01	-3.779934e+02
4.000000e-07	-3.861097e-06	-5.707546e-09	-2.750432e+01	-3.740654e+02
4.100000e-07	-3.788970e-06	-5.653147e-09	-2.699052e+01	-3.700341e+02
4.200000e-07	-3.715390e-06	-5.578201e-09	-2.646638e+01	-3.658999e+02
4.300000e-07	-3.640246e-06	-5.516349e-09	-2.593110e+01	-3.616634e+02
4.400000e-07	-3.563594e-06	-5.453671e-09	-2.538507e+01	-3.573253e+02
4.500000e-07	-3.485461e-06	-5.379593e-09	-2.482849e+01	-3.528865e+02
4.600000e-07	-3.405944e-06	-5.311667e-09	-2.426206e+01	-3.483473e+02
4.700000e-07	-3.325220e-06	-5.246353e-09	-2.368703e+01	-3.437078e+02
4.800000e-07	-3.243323e-06	-5.177358e-09	-2.310363e+01	-3.389677e+02
4.900000e-07	-3.160308e-06	-5.097546e-09	-2.251228e+01	-3.341261e+02
5.000000e-07	-3.076321e-06	-5.016172e-09	-2.191400e+01	-3.291819e+02
5.100000e-07	-2.991446e-06	-4.942199e-09	-2.130940e+01	-3.241337e+02
5.200000e-07	-2.905600e-06	-4.867021e-09	-2.069788e+01	-3.189795e+02
5.300000e-07	-2.818723e-06	-4.776265e-09	-2.007902e+01	-3.137174e+02
5.400000e-07	-2.730917e-06	-4.682971e-09	-1.945354e+01	-3.083449e+02
5.500000e-07	-2.642115e-06	-4.596437e-09	-1.882096e+01	-3.028595e+02
5.600000e-07	-2.552156e-06	-4.515141e-09	-1.818014e+01	-2.972584e+02
5.700000e-07	-2.461121e-06	-4.438075e-09	-1.753166e+01	-2.915386e+02
5.800000e-07	-2.369159e-06	-4.352475e-09	-1.687658e+01	-2.856970e+02
5.900000e-07	-2.276441e-06	-4.257915e-09	-1.621610e+01	-2.797307e+02
6.000000e-07	-2.183015e-06	-4.159363e-09	-1.555059e+01	-2.736368e+02
6.100000e-07	-2.088805e-06	-4.060697e-09	-1.487949e+01	-2.674128e+02
6.200000e-07	-1.993904e-06	-3.963589e-09	-1.420347e+01	-2.610569e+02
6.300000e-07	-1.898362e-06	-3.864002e-09	-1.352288e+01	-2.545679e+02
6.400000e-07	-1.802002e-06	-3.761303e-09	-1.283646e+01	-2.479453e+02
6.500000e-07	-1.704800e-06	-3.660089e-09	-1.214405e+01	-2.411895e+02
6.600000e-07	-1.606892e-06	-3.559058e-09	-1.144661e+01	-2.343012e+02
6.700000e-07	-1.508365e-06	-3.454456e-09	-1.074475e+01	-2.272813e+02
6.800000e-07	-1.409334e-06	-3.344135e-09	-1.003932e+01	-2.201304e+02
6.900000e-07	-1.309858e-06	-3.226936e-09	-9.330699e+00	-2.128484e+02
7.000000e-07	-1.209937e-06	-3.110006e-09	-8.618922e+00	-2.054340e+02
7.100000e-07	-1.109669e-06	-2.995465e-09	-7.904668e+00	-1.978845e+02
7.200000e-07	-1.009145e-06	-2.879370e-09	-7.188589e+00	-1.901952e+02
7.300000e-07	-9.083779e-07	-2.760060e-09	-6.470780e+00	-1.823596e+02
7.400000e-07	-8.073099e-07	-2.636118e-09	-5.750828e+00	-1.743694e+02
7.500000e-07	-7.058619e-07	-2.509053e-09	-5.028169e+00	-1.662151e+02
7.600000e-07	-6.041103e-07	-2.380931e-09	-4.303347e+00	-1.578865e+02
7.700000e-07	-5.021612e-07	-2.252303e-09	-3.577118e+00	-1.493732e+02
7.800000e-07	-4.000983e-07	-2.122025e-09	-2.850079e+00	-1.406652e+02
7.900000e-07	-2.979390e-07	-1.984864e-09	-2.122352e+00	-1.317537e+02
8.000000e-07	-1.956217e-07	-1.840139e-09	-1.393500e+00	-1.226314e+02
8.100000e-07	-9.319284e-08	-1.694555e-09	-6.638541e-01	-1.132924e+02
8.200000e-07	9.245792e-09	-1.548512e-09	6.586190e-02	-1.037324e+02
8.300000e-07	1.117239e-07	-1.398329e-09	7.958594e-01	-9.394828e+01
8.400000e-07	2.142364e-07	-1.243746e-09	1.526101e+00	-8.393716e+01
8.500000e-07	3.167036e-07	-1.086689e-09	2.256021e+00	-7.369613e+01
8.600000e-07	4.190794e-07	-9.273413e-10	2.985289e+00	-6.322137e+01
8.700000e-07	5.212958e-07	-7.622191e-10	3.713423e+00	-5.250780e+01
8.800000e-07	6.233860e-07	-5.927818e-10	4.440656e+00	-4.154894e+01
8.900000e-07	7.253225e-07	-4.188351e-10	5.166795e+00	-3.033718e+01
9.000000e-07	8.269600e-07	-2.421951e-10	5.890804e+00	-1.886455e+01
9.100000e-07	9.282270e-07	-6.275054e-11	6.612174e+00	-7.123967e+00
9.200000e-07	1.029161e-06	1.192750e-10	7.331170e+00	4.889179e+00
9.300000e-07	1.129775e-06	3.040286e-10	8.047893e+00	1.717518e+01
9.400000e-07	1.230006e-06	4.945554e-10	8.761883e+00	2.972813e+01
9.500000e-07	1.329867e-06	6.893096e-10	9.473238e+00	4.253426e+01
9.600000e-07	1.429298e-06	8.862375e-10	1.018153e+01	5.557065e+01
9.700000e-07	1.528209e-06	1.085228e-09	1.088611e+01	6.880456e+01
9.800000e-07	1.626477e-06	1.286080e-09	1.158612e+01	8.219352e+01
9.900000e-07	1.724001e-06	1.488414e-09	1.228083e+01	9.568621e+01
1.000000e-06	1.820723e-06	1.693018e-09	1.296982e+01	1.092241e+02
1.010000e-06	1.916606e-06	1.899084e-09	1.365284e+01	1.227439e+02
1.020000e-06	2.011766e-06	2.105464e-09	1.433071e+01	1.361801e+02
1.030000e-06	2.106231e-06	2.308476e-09	1.500362e+01	1.494683e+02
1.040000e-06	2.199953e-06	2.506301e-09	1.567124e+01	1.625481e+02
1.050000e-06	2.292973e-06	2.698685e-09	1.633387e+01	1.753653e+02
1.060000e-06	2.385328e-06	2.885577e-09	1.699176e+01	1.878746e+02
1.070000e-06	2.477026e-06	3.068648e-09	1.764496e+01	2.000403e+02
1.080000e-06	2.567925e-06	3.247291e-09	1.829247e+01	2.118371e+02
1.090000e-06	2.657713e-06	3.422166e-09	1.893207e+01	2.232496e+02
1.100000e-06	2.746267e-06	3.592293e-09	1.956289e+01	2.342709e+02
1.110000e-06	2.833793e-06	3.755834e-09	2.018637e+01	2.449016e+02
1.120000e-06	2.920421e-06	3.912575e-09	2.080346e+01	2.551470e+02
1.130000e-06	3.006099e-06	4.064706e-09	2.141378e+01	2.650156e+02
1.140000e-06	3.090796e-06	4.213356e-09	2.201711e+01	2.745173e+02
1.150000e-06	3.174556e-06	4.354357e-09	2.261378e+01	2.836616e+02
1.160000e-06	3.257332e-06	4.486341e-09	2.320343e+01	2.924569e+02
1.170000e-06	3.338880e-06	4.612234e-09	2.378433e+01	3.009100e+02
1.180000e-06	3.419174e-06	4.733582e-09	2.435630e+01	3.090265e+02
1.190000e-06	3.498267e-06	4.850865e-09	2.491972e+01	3.168113e+02
1.200000e-06	3.576081e-06	4.964458e-09	2.547402e+01	3.242693e+02
1.210000e-06	3.652676e-06	5.073128e-09	2.601964e+01	3.314069e+02
1.220000e-06	3.728000e-06	5.176646e-09	2.655621e+01	3.382323e+02
1.230000e-06	3.801720e-06	5.274829e-09	2.708135e+01	3.447565e+02
1.240000e-06	3.873782e-06	5.369914e-09	2.759468e+01	3.509932e+02
1.250000e-06	3.944457e-06	5.461523e-09	2.809812e+01	3.569588e+02
1.260000e-06	4.013761e-06	5.549666e-09	2.859181e+01	3.626713e+02
1.270000e-06	4.081736e-06	5.634979e-09	2.907602e+01	3.681499e+02
1.280000e-06	4.148217e-06	5.715549e-09	2.954960e+01	3.734130e+02
1.290000e-06	4.212983e-06	5.791256e-09	3.001096e+01	3.784777e+02
1.300000e-06	4.276237e-06	5.863867e-09	3.046154e+01	3.833581e+02
1.310000e-06	4.338034e-06	5.934951e-09	3.090175e+01	3.880650e+02
1.320000e-06	4.398425e-06	6.004094e-09	3.133194e+01	3.926051e+02
1.330000e-06	4.457461e-06	6.071265e-09	3.175248e+01	3.969813e+02
1.340000e-06	4.514769e-06	6.136588e-09	3.216071e+01	4.011933e+02
1.350000e-06	4.570276e-06	6.198754e-09	3.255611e+01	4.052383e+02
1.360000e-06	4.624208e-06	6.257371e-09	3.294030e+01	4.091120e+02
1.370000e-06	4.676389e-06	6.311753e-09	3.331201e+01	4.128102e+02
1.380000e-06	4.726549e-06	6.363599e-09	3.366931e+01	4.163295e+02
1.390000e-06	4.774722e-06	6.413615e-09	3.401247e+01	4.196681e+02
1.400000e-06	4.821177e-06	6.458762e-09	3.434339e+01	4.228267e+02
1.410000e-06	4.866074e-06	6.501060e-09	3.466321e+01	4.258083e+02
1.420000e-06	4.909382e-06	6.543327e-09	3.497171e+01	4.286182e+02
1.430000e-06	4.950790e-06	6.584492e-09	3.526668e+01	4.312632e+02
1.440000e-06	4.990347e-06	6.623303e-09	3.554847e+01	4.337509e+02
1.450000e-06	5.028304e-06	6.657882e-09	3.581885e+01	4.360891e+02
1.460000e-06	5.064675e-06	6.689700e-09	3.607794e+01	4.382848e+02
1.470000e-06	5.099263e-06	6.720197e-09	3.632432e+01	4.403435e+02
1.480000e-06	5.131878e-06	6.747571e-09	3.655665e+01	4.422691e+02
1.490000e-06	5.162702e-06	6.772032e-09	3.677622e+01	4.440639e+02
1.500000e-06	5.191863e-06	6.794724e-09	3.698395e+01	4.457287e+02
1.510000e-06	5.219349e-06	6.816473e-09	3.717975e+01	4.472635e+02
1.520000e-06	5.244828e-06	6.836852e-09	3.736124e+01	4.486679e+02
1.530000e-06	5.268210e-06	6.856287e-09	3.752780e+01	4.499419e+02
1.540000e-06	5.289796e-06	6.874083e-09	3.768157e+01	4.510865e+02
1.550000e-06	5.309712e-06	6.889273e-09	3.782344e+01	4.521038e+02
1.560000e-06	5.327715e-06	6.903179e-09	3.795168e+01	4.529975e+02
1.570000e-06	5.343634e-06	6.917466e-09	3.806508e+01	4.537722e+02
1.580000e-06	5.357613e-06	6.930139e-09	3.816467e+01	4.544335e+02
1.590000e-06	5.369579e-06	6.939741e-09	3.824990e+01	4.549870e+02
1.600000e-06	5.379327e-06	6.946717e-09	3.831934e+01	4.554378e+02
1.610000e-06	5.387011e-06	6.952040e-09	3.837408e+01	4.557897e+02
1.620000e-06	5.392829e-06	6.957244e-09	3.841552e+01	4.560450e+02
1.630000e-06	5.396872e-06	6.961427e-09	3.844433e+01	4.562040e+02
1.640000e-06	5.398987e-06	6.963275e-09	3.845939e+01	4.562655e+02
1.650000e-06	5.399073e-06	6.962640e-09	3.846000e+01	4.562267e+02
1.660000e-06	5.397411e-06	6.959738e-09	3.844816e+01	4.560840e+02
1.670000e-06	5.394137e-06	6.954864e-09	3.842484e+01	4.558340e+02
1.680000e-06	5.389160e-06	6.949526e-09	3.838939e+01	4.554743e+02
1.690000e-06	5.382237e-06	6.943133e-09	3.834007e+01	4.550038e+02
1.700000e-06	5.373527e-06	6.935430e-09	3.827803e+01	4.544240e+02
1.710000e-06	5.363268e-06	6.926807e-09	3.820495e+01	4.537388e+02
1.720000e-06	5.351303e-06	6.918596e-09	3.811971e+01	4.529542e+02
1.730000e-06	5.337365e-06	6.909386e-09	3.802043e+01	4.520786e+02
1.740000e-06	5.321312e-06	6.878131e-09	3.790608e+01	4.511211e+02
1.750000e-06	5.302853e-06	6.839030e-09	3.777459e+01	4.500913e+02
1.760000e-06	5.281590e-06	6.825067e-09	3.762312e+01	4.489976e+02
1.770000e-06	5.258107e-06	6.821302e-09	3.745584e+01	4.478466e+02
1.780000e-06	5.233598e-06	6.850826e-09	3.728125e+01	4.466421e+02
1.790000e-06	5.208400e-06	6.837394e-09	3.710175e+01	4.453844e+02
1.800000e-06	5.181611e-06	6.742937e-09	3.691093e+01	4.440706e+02
1.810000e-06	5.152554e-06	6.748576e-09	3.670394e+01	4.426941e+02
1.820000e-06	5.121752e-06	6.742164e-09	3.648452e+01	4.412461e+02
1.830000e-06	5.089272e-06	6.662928e-09	3.625315e+01	4.397157e+02
1.840000e-06	5.054848e-06	6.687263e-09	3.600793e+01	4.380914e+02
1.850000e-06	5.018824e-06	6.666243e-09	3.575132e+01	4.363622e+02
1.860000e-06	4.980963e-06	6.594983e-09	3.548162e+01	4.345185e+02
1.870000e-06	4.941216e-06	6.575815e-09	3.519848e+01	4.325531e+02
1.880000e-06	4.899861e-06	6.528753e-09	3.490389e+01	4.304614e+02
1.890000e-06	4.856703e-06	6.529762e-09	3.459646e+01	4.282420e+02
1.900000e-06	4.811955e-06	6.479548e-09	3.427770e+01	4.258965e+02
1.910000e-06	4.765328e-06	6.386826e-09	3.394555e+01	4.234285e+02
1.920000e-06	4.716659e-06	6.414729e-09	3.359887e+01	4.208435e+02
1.930000e-06	4.666460e-06	6.363183e-09	3.324127e+01	4.181479e+02
1.940000e-06	4.614482e-06	6.295827e-09	3.287101e+01	4.153480e+02
1.950000e-06	4.560443e-06	6.291122e-09	3.248607e+01	4.124497e+02
1.960000e-06	4.504441e-06	6.216499e-09	3.208714e+01	4.094573e+02
1.970000e-06	4.446721e-06	6.160673e-09	3.167597e+01	4.063739e+02
1.980000e-06	4.387591e-06	6.115906e-09	3.125477e+01	4.032006e+02
1.990000e-06	4.326965e-06	6.085977e-09	3.082290e+01	3.999372e+02
2.000000e-06	4.264703e-06	6.043729e-09	3.037938e+01	3.965824e+02
2.010000e-06	4.200820e-06	5.949474e-09	2.992431e+01	3.931337e+02
2.020000e-06	4.135389e-06	5.898850e-09	2.945822e+01	3.895886e+02
2.030000e-06	4.068543e-06	5.849946e-09	2.898204e+01	3.859447e+02
2.040000e-06	4.000287e-06	5.808904e-09	2.849582e+01	3.821998e+02
2.050000e-06	3.930568e-06	5.751439e-09	2.799919e+01	3.783525e+02
2.060000e-06	3.859305e-06	5.686255e-09	2.749155e+01	3.744020e+02
2.070000e-06	3.786639e-06	5.642023e-09	2.697392e+01	3.703483e+02
2.080000e-06	3.712683e-06	5.546049e-09	2.644709e+01	3.661917e+02
2.090000e-06	3.637381e-06	5.484248e-09	2.591069e+01	3.619330e+02
2.100000e-06	3.560672e-06	5.432613e-09	2.536425e+01	3.575729e+02
2.110000e-06	3.482390e-06	5.360426e-09	2.480661e+01	3.531122e+02
2.120000e-06	3.402724e-06	5.292483e-09	2.423912e+01	3.485511e+02
2.130000e-06	3.321935e-06	5.210289e-09	2.366362e+01	3.438897e+02
2.140000e-06	3.240001e-06	5.155030e-09	2.307997e+01	3.391276e+02
2.150000e-06	3.156991e-06	5.090596e-09	2.248865e+01	3.342638e+02
2.160000e-06	3.072970e-06	5.008574e-09	2.189013e+01	3.292971e+02
2.170000e-06	2.987812e-06	4.923603e-09	2.128351e+01	3.242259e+02
2.180000e-06	2.901361e-06	4.845232e-09	2.066768e+01	3.190484e+02
2.190000e-06	2.813682e-06	4.772291e-09	2.004311e+01	3.137625e+02
2.200000e-06	2.725031e-06	4.695158e-09	1.941161e+01	3.083656e+02
2.210000e-06	2.635537e-06	4.614790e-09	1.877411e+01	3.028553e+02
2.220000e-06	2.545142e-06	4.521850e-09	1.813018e+01	2.972287e+02
2.230000e-06	2.453869e-06	4.431825e-09	1.748000e+01	2.914827e+02
2.240000e-06	2.361853e-06	4.339637e-09	1.682453e+01	2.856143e+02
2.250000e-06	2.269079e-06	4.256036e-09	1.616366e+01	2.796205e+02
2.260000e-06	2.175407e-06	4.175169e-09	1.549639e+01	2.734985e+02
2.270000e-06	2.080714e-06	4.077086e-09	1.482185e+01	2.672460e+02
2.280000e-06	1.985069e-06	3.970222e-09	1.414053e+01	2.608613e+02
2.290000e-06	1.888719e-06	3.864574e-09	1.345419e+01	2.543433e+02
2.300000e-06	1.791861e-06	3.768637e-09	1.276423e+01	2.476918e+02
2.310000e-06	1.694513e-06	3.673616e-09	1.207077e+01	2.409072e+02
2.320000e-06	1.596585e-06	3.567483e-09	1.137319e+01	2.339902e+02
2.330000e-06	1.498096e-06	3.455587e-09	1.067161e+01	2.269418e+02
2.340000e-06	1.399127e-06	3.347877e-09	9.966604e+00	2.197625e+02
2.350000e-06	1.299749e-06	3.238206e-09	9.258692e+00	2.124519e+02
2.360000e-06	1.200094e-06	3.127915e-09	8.548803e+00	2.050086e+02
2.370000e-06	1.100118e-06	3.015678e-09	7.836630e+00	1.974292e+02
2.380000e-06	9.997568e-07	2.893500e-09	7.121713e+00	1.897087e+02
2.390000e-06	8.990263e-07	2.769079e-09	6.404165e+00	1.818403e+02
2.400000e-06	7.978957e-07	2.647221e-09	5.683767e+00	1.738155e+02
2.410000e-06	6.964351e-07	2.527306e-09	4.961018e+00	1.656244e+02
2.420000e-06	5.947460e-07	2.401938e-09	4.236641e+00	1.572567e+02
2.430000e-06	4.928562e-07	2.267711e-09	3.510834e+00	1.487021e+02
2.440000e-06	3.907813e-07	2.134347e-09	2.783710e+00	1.399508e+02
2.450000e-06	2.885947e-07	2.004662e-09	2.055789e+00	1.309944e+02
2.460000e-06	1.862408e-07	1.871359e-09	1.326676e+00	1.218256e+02
2.470000e-06	8.368469e-08	1.731186e-09	5.961233e-01	1.124393e+02
2.480000e-06	-1.894566e-08	1.583217e-09	-1.349584e-01	1.028311e+02
2.490000e-06	-1.216074e-07	1.427969e-09	-8.662637e-01	9.299822e+01
2.500000e-06	-2.242547e-07	1.270693e-09	-1.597466e+00	8.293774e+01
2.510000e-06	-3.267750e-07	1.115255e-09	-2.327764e+00	7.264661e+01
2.520000e-06	-4.291224e-07	9.619902e-10	-3.056830e+00	6.212079e+01
2.530000e-06	-5.313373e-07	8.028215e-10	-3.784952e+00	5.135489e+01
2.540000e-06	-6.333331e-07	6.342182e-10	-4.511514e+00	4.034214e+01
2.550000e-06	-7.350160e-07	4.634822e-10	-5.235847e+00	2.907477e+01
2.560000e-06	-8.363365e-07	2.899957e-10	-5.957598e+00	1.754490e+01
2.570000e-06	-9.372630e-07	1.101261e-10	-6.676542e+00	5.745808e+00
2.580000e-06	-1.037830e-06	-7.577511e-11	-7.392926e+00	-6.326332e+00
2.590000e-06	-1.137983e-06	-2.668652e-10	-8.106361e+00	-1.867064e+01
2.600000e-06	-1.237693e-06	-4.621647e-10	-8.816636e+00	-3.127967e+01
2.610000e-06	-1.337038e-06	-6.594795e-10	-9.524317e+00	-4.413777e+01
2.620000e-06	-1.435975e-06	-8.586831e-10	-1.022909e+01	-5.721994e+01
2.630000e-06	-1.534380e-06	-1.061011e-09	-1.093007e+01	-7.049134e+01
2.640000e-06	-1.632242e-06	-1.268079e-09	-1.162719e+01	-8.390749e+01
2.650000e-06	-1.729488e-06	-1.478618e-09	-1.231992e+01	-9.741536e+01
2.660000e-06	-1.826186e-06	-1.687403e-09	-1.300874e+01	-1.109552e+02
2.670000e-06	-1.922388e-06	-1.894051e-09	-1.369403e+01	-1.244629e+02
2.680000e-06	-2.017963e-06	-2.100709e-09	-1.437485e+01	-1.378732e+02
2.690000e-06	-2.112781e-06	-2.305472e-09	-1.505028e+01	-1.511220e+02
2.700000e-06	-2.206675e-06	-2.507575e-09	-1.571913e+01	-1.641501e+02
2.710000e-06	-2.299569e-06	-2.705845e-09	-1.638086e+01	-1.769052e+02
2.720000e-06	-2.391526e-06	-2.896304e-09	-1.703591e+01	-1.893439e+02
2.730000e-06	-2.482662e-06	-3.078956e-09	-1.768511e+01	-2.014327e+02
2.740000e-06	-2.572922e-06	-3.255666e-09	-1.832807e+01	-2.131485e+02
2.750000e-06	-2.662264e-06	-3.428826e-09	-1.896449e+01	-2.244778e+02
2.760000e-06	-2.750779e-06	-3.595480e-09	-1.959502e+01	-2.354156e+02
2.770000e-06	-2.838534e-06	-3.753927e-09	-2.022014e+01	-2.459635e+02
2.780000e-06	-2.925380e-06	-3.906550e-09	-2.083878e+01	-2.561277e+02
2.790000e-06	-3.010969e-06	-4.054258e-09	-2.144848e+01	-2.659173e+02
2.800000e-06	-3.095306e-06	-4.199710e-09	-2.204924e+01	-2.753420e+02
2.810000e-06	-3.178658e-06	-4.341266e-09	-2.264300e+01	-2.844112e+02
2.820000e-06	-3.261032e-06	-4.475736e-09	-2.322978e+01	-2.931330e+02
2.830000e-06	-3.342317e-06	-4.603076e-09	-2.380882e+01	-3.015139e+02
2.840000e-06	-3.422530e-06	-4.725177e-09	-2.438020e+01	-3.095593e+02
2.850000e-06	-3.501437e-06	-4.843287e-09	-2.494230e+01	-3.172740e+02
2.860000e-06	-3.578774e-06	-4.956772e-09	-2.549320e+01	-3.246631e+02
2.870000e-06	-3.654639e-06	-5.064575e-09	-2.603362e+01	-3.317334e+02
2.880000e-06	-3.729114e-06	-5.166577e-09	-2.656414e+01	-3.384936e+02
2.890000e-06	-3.802266e-06	-5.265069e-09	-2.708523e+01	-3.449553e+02
2.900000e-06	-3.874129e-06	-5.361811e-09	-2.759715e+01	-3.511328e+02
2.910000e-06	-3.944528e-06	-5.454672e-09	-2.809863e+01	-3.570430e+02
2.920000e-06	-4.013354e-06	-5.541884e-09	-2.858891e+01	-3.627041e+02
2.930000e-06	-4.080695e-06	-5.624480e-09	-2.906861e+01	-3.681354e+02
2.940000e-06	-4.146642e-06	-5.703018e-09	-2.953838e+01	-3.733550e+02
