# Temperatura_=_25.84
# Concentracion g/m^3_=_15000.0
# C_Vs_to_Am_M_A/Vsm_=_65563218390.804596
# pendiente_HvsI_1/m_=_3716.3
# ordenada_HvsI_A/m_=_1297.0
# frecuencia_Hz_=_301575.06699827773

Tiempo_(s)	Campo_(V.s)	Magnetizacion_(V.s)	Campo_(kA/m)	Magnetizacion_(A/m)
0.000000e+00	-5.381907e-06	-4.553515e-09	-3.834065e+01	-2.971004e+02
1.000000e-08	-5.378837e-06	-4.553372e-09	-3.831879e+01	-2.969731e+02
2.000000e-08	-5.374056e-06	-4.549707e-09	-3.828473e+01	-2.967903e+02
3.000000e-08	-5.367662e-06	-4.544476e-09	-3.823918e+01	-2.965529e+02
4.000000e-08	-5.359654e-06	-4.538243e-09	-3.818213e+01	-2.962610e+02
5.000000e-08	-5.349702e-06	-4.530233e-09	-3.811123e+01	-2.959147e+02
6.000000e-08	-5.337689e-06	-4.523878e-09	-3.802565e+01	-2.955134e+02
7.000000e-08	-5.323823e-06	-4.521502e-09	-3.792687e+01	-2.950567e+02
8.000000e-08	-5.307772e-06	-4.519571e-09	-3.781252e+01	-2.945441e+02
9.000000e-08	-5.289498e-06	-4.530172e-09	-3.768234e+01	-2.939754e+02
1.000000e-07	-5.269283e-06	-4.522119e-09	-3.753833e+01	-2.933505e+02
1.100000e-07	-5.247122e-06	-4.487683e-09	-3.738045e+01	-2.926695e+02
1.200000e-07	-5.223281e-06	-4.462335e-09	-3.721061e+01	-2.919328e+02
1.300000e-07	-5.197871e-06	-4.444069e-09	-3.702959e+01	-2.911404e+02
1.400000e-07	-5.170853e-06	-4.424648e-09	-3.683711e+01	-2.902928e+02
1.500000e-07	-5.142335e-06	-4.457425e-09	-3.663395e+01	-2.893896e+02
1.600000e-07	-5.112376e-06	-4.437569e-09	-3.642052e+01	-2.884305e+02
1.700000e-07	-5.080684e-06	-4.402916e-09	-3.619475e+01	-2.874146e+02
1.800000e-07	-5.046800e-06	-4.400575e-09	-3.595336e+01	-2.863408e+02
1.900000e-07	-5.011264e-06	-4.340986e-09	-3.570020e+01	-2.852077e+02
2.000000e-07	-4.974256e-06	-4.346934e-09	-3.543656e+01	-2.840135e+02
2.100000e-07	-4.935445e-06	-4.364805e-09	-3.516007e+01	-2.827568e+02
2.200000e-07	-4.894821e-06	-4.327032e-09	-3.487066e+01	-2.814364e+02
2.300000e-07	-4.852159e-06	-4.322243e-09	-3.456674e+01	-2.800513e+02
2.400000e-07	-4.807651e-06	-4.281399e-09	-3.424967e+01	-2.786013e+02
2.500000e-07	-4.761435e-06	-4.213421e-09	-3.392042e+01	-2.770868e+02
2.600000e-07	-4.713243e-06	-4.215544e-09	-3.357710e+01	-2.755087e+02
2.700000e-07	-4.662903e-06	-4.194579e-09	-3.321848e+01	-2.738685e+02
2.800000e-07	-4.610497e-06	-4.169500e-09	-3.284514e+01	-2.721682e+02
2.900000e-07	-4.556297e-06	-4.154622e-09	-3.245902e+01	-2.704096e+02
3.000000e-07	-4.500613e-06	-4.124820e-09	-3.206233e+01	-2.685949e+02
3.100000e-07	-4.443250e-06	-4.085311e-09	-3.165367e+01	-2.667254e+02
3.200000e-07	-4.384042e-06	-4.046290e-09	-3.123188e+01	-2.648021e+02
3.300000e-07	-4.323270e-06	-4.019934e-09	-3.079894e+01	-2.628254e+02
3.400000e-07	-4.261063e-06	-3.977451e-09	-3.035577e+01	-2.607946e+02
3.500000e-07	-4.197546e-06	-3.950211e-09	-2.990328e+01	-2.587085e+02
3.600000e-07	-4.132406e-06	-3.932289e-09	-2.943923e+01	-2.565651e+02
3.700000e-07	-4.065530e-06	-3.903160e-09	-2.896280e+01	-2.543621e+02
3.800000e-07	-3.997245e-06	-3.866796e-09	-2.847634e+01	-2.520970e+02
3.900000e-07	-3.927644e-06	-3.813409e-09	-2.798050e+01	-2.497673e+02
4.000000e-07	-3.856812e-06	-3.771935e-09	-2.747589e+01	-2.473711e+02
4.100000e-07	-3.784734e-06	-3.744381e-09	-2.696241e+01	-2.449067e+02
4.200000e-07	-3.711097e-06	-3.706122e-09	-2.643782e+01	-2.423735e+02
4.300000e-07	-3.635787e-06	-3.672499e-09	-2.590131e+01	-2.397715e+02
4.400000e-07	-3.559037e-06	-3.634372e-09	-2.535455e+01	-2.371012e+02
4.500000e-07	-3.480893e-06	-3.580883e-09	-2.479785e+01	-2.343637e+02
4.600000e-07	-3.401286e-06	-3.525493e-09	-2.423073e+01	-2.315606e+02
4.700000e-07	-3.320427e-06	-3.483908e-09	-2.365469e+01	-2.286932e+02
4.800000e-07	-3.238440e-06	-3.452603e-09	-2.307062e+01	-2.257626e+02
4.900000e-07	-3.155389e-06	-3.411560e-09	-2.247896e+01	-2.227692e+02
5.000000e-07	-3.071441e-06	-3.361981e-09	-2.188092e+01	-2.197127e+02
5.100000e-07	-2.986594e-06	-3.307647e-09	-2.127647e+01	-2.165918e+02
5.200000e-07	-2.900784e-06	-3.253490e-09	-2.066516e+01	-2.134043e+02
5.300000e-07	-2.813954e-06	-3.196996e-09	-2.004658e+01	-2.101470e+02
5.400000e-07	-2.726196e-06	-3.144224e-09	-1.942140e+01	-2.068164e+02
5.500000e-07	-2.637342e-06	-3.093616e-09	-1.878840e+01	-2.034080e+02
5.600000e-07	-2.547207e-06	-3.038804e-09	-1.814628e+01	-1.999178e+02
5.700000e-07	-2.456082e-06	-2.987993e-09	-1.749710e+01	-1.963418e+02
5.800000e-07	-2.364164e-06	-2.936117e-09	-1.684228e+01	-1.926765e+02
5.900000e-07	-2.271450e-06	-2.877633e-09	-1.618179e+01	-1.889193e+02
6.000000e-07	-2.177898e-06	-2.810359e-09	-1.551532e+01	-1.850687e+02
6.100000e-07	-2.083545e-06	-2.744167e-09	-1.484316e+01	-1.811240e+02
6.200000e-07	-1.988550e-06	-2.683757e-09	-1.416641e+01	-1.770858e+02
6.300000e-07	-1.892962e-06	-2.624472e-09	-1.348545e+01	-1.729550e+02
6.400000e-07	-1.796626e-06	-2.562775e-09	-1.279915e+01	-1.687336e+02
6.500000e-07	-1.699381e-06	-2.495434e-09	-1.210638e+01	-1.644233e+02
6.600000e-07	-1.601327e-06	-2.422418e-09	-1.140784e+01	-1.600260e+02
6.700000e-07	-1.502665e-06	-2.348254e-09	-1.070497e+01	-1.555429e+02
6.800000e-07	-1.403512e-06	-2.279714e-09	-9.998607e+00	-1.509746e+02
6.900000e-07	-1.303951e-06	-2.211545e-09	-9.289333e+00	-1.463205e+02
7.000000e-07	-1.204025e-06	-2.140378e-09	-8.577465e+00	-1.415790e+02
7.100000e-07	-1.103733e-06	-2.065472e-09	-7.862986e+00	-1.367474e+02
7.200000e-07	-1.003110e-06	-1.985963e-09	-7.146150e+00	-1.318221e+02
7.300000e-07	-9.021944e-07	-1.905421e-09	-6.427225e+00	-1.267985e+02
7.400000e-07	-8.009368e-07	-1.827268e-09	-5.705867e+00	-1.216716e+02
7.500000e-07	-6.993793e-07	-1.749143e-09	-4.982372e+00	-1.164363e+02
7.600000e-07	-5.976047e-07	-1.667375e-09	-4.257331e+00	-1.110876e+02
7.700000e-07	-4.956076e-07	-1.583018e-09	-3.530704e+00	-1.056208e+02
7.800000e-07	-3.934530e-07	-1.497777e-09	-2.802955e+00	-1.000319e+02
7.900000e-07	-2.911980e-07	-1.411722e-09	-2.074492e+00	-9.431763e+01
8.000000e-07	-1.888218e-07	-1.321087e-09	-1.345165e+00	-8.847553e+01
8.100000e-07	-8.636109e-08	-1.228036e-09	-6.152357e-01	-8.250367e+01
8.200000e-07	1.611087e-08	-1.134975e-09	1.147737e-01	-7.640055e+01
8.300000e-07	1.185644e-07	-1.041552e-09	8.446515e-01	-7.016481e+01
8.400000e-07	2.209905e-07	-9.476151e-10	1.574334e+00	-6.379488e+01
8.500000e-07	3.233594e-07	-8.505264e-10	2.303610e+00	-5.728868e+01
8.600000e-07	4.256060e-07	-7.493809e-10	3.032014e+00	-5.064339e+01
8.700000e-07	5.277270e-07	-6.432293e-10	3.759523e+00	-4.385526e+01
8.800000e-07	6.297993e-07	-5.367279e-10	4.486684e+00	-3.691964e+01
8.900000e-07	7.317073e-07	-4.321024e-10	5.212676e+00	-2.983116e+01
9.000000e-07	8.333007e-07	-3.262679e-10	5.936427e+00	-2.258408e+01
9.100000e-07	9.345071e-07	-2.156273e-10	6.657420e+00	-1.517285e+01
9.200000e-07	1.035305e-06	-1.011345e-10	7.375501e+00	-7.592798e+00
9.300000e-07	1.135763e-06	1.472796e-11	8.091163e+00	1.590648e-01
9.400000e-07	1.235919e-06	1.341339e-10	8.804673e+00	8.083163e+00
9.500000e-07	1.335723e-06	2.572223e-10	9.515677e+00	1.617653e+01
9.600000e-07	1.435105e-06	3.840319e-10	1.022367e+01	2.443206e+01
9.700000e-07	1.533988e-06	5.130198e-10	1.092811e+01	3.283792e+01
9.800000e-07	1.632183e-06	6.422777e-10	1.162766e+01	4.137722e+01
9.900000e-07	1.729614e-06	7.722692e-10	1.232176e+01	5.002794e+01
1.000000e-06	1.826300e-06	9.044774e-10	1.301055e+01	5.876315e+01
1.010000e-06	1.922190e-06	1.038662e-09	1.369366e+01	6.755160e+01
1.020000e-06	2.017342e-06	1.174473e-09	1.437152e+01	7.635854e+01
1.030000e-06	2.111828e-06	1.308992e-09	1.504464e+01	8.514678e+01
1.040000e-06	2.205584e-06	1.439931e-09	1.571256e+01	9.387802e+01
1.050000e-06	2.298559e-06	1.566933e-09	1.637491e+01	1.025141e+02
1.060000e-06	2.390806e-06	1.692686e-09	1.703208e+01	1.110184e+02
1.070000e-06	2.482354e-06	1.818938e-09	1.768426e+01	1.193573e+02
1.080000e-06	2.573039e-06	1.943135e-09	1.833031e+01	1.275007e+02
1.090000e-06	2.662649e-06	2.064052e-09	1.896869e+01	1.354235e+02
1.100000e-06	2.751166e-06	2.182262e-09	1.959928e+01	1.431060e+02
1.110000e-06	2.838668e-06	2.294681e-09	2.022264e+01	1.505338e+02
1.120000e-06	2.925262e-06	2.401590e-09	2.083954e+01	1.576983e+02
1.130000e-06	3.010960e-06	2.506469e-09	2.145005e+01	1.645957e+02
1.140000e-06	3.095659e-06	2.610542e-09	2.205345e+01	1.712273e+02
1.150000e-06	3.179390e-06	2.709802e-09	2.264995e+01	1.775977e+02
1.160000e-06	3.262048e-06	2.802698e-09	2.323880e+01	1.837149e+02
1.170000e-06	3.343488e-06	2.890488e-09	2.381898e+01	1.895888e+02
1.180000e-06	3.423686e-06	2.974021e-09	2.439031e+01	1.952306e+02
1.190000e-06	3.502642e-06	3.057436e-09	2.495279e+01	2.006519e+02
1.200000e-06	3.580323e-06	3.140616e-09	2.550619e+01	2.058640e+02
1.210000e-06	3.656784e-06	3.221149e-09	2.605090e+01	2.108777e+02
1.220000e-06	3.731986e-06	3.295668e-09	2.658664e+01	2.157026e+02
1.230000e-06	3.805649e-06	3.365021e-09	2.711141e+01	2.203469e+02
1.240000e-06	3.877645e-06	3.431663e-09	2.762431e+01	2.248178e+02
1.250000e-06	3.948157e-06	3.495683e-09	2.812663e+01	2.291208e+02
1.260000e-06	4.017342e-06	3.558219e-09	2.861951e+01	2.332606e+02
1.270000e-06	4.085213e-06	3.619934e-09	2.910302e+01	2.372406e+02
1.280000e-06	4.151705e-06	3.678104e-09	2.957671e+01	2.410635e+02
1.290000e-06	4.216520e-06	3.732135e-09	3.003845e+01	2.447315e+02
1.300000e-06	4.279695e-06	3.782107e-09	3.048851e+01	2.482462e+02
1.310000e-06	4.341419e-06	3.830073e-09	3.092823e+01	2.516089e+02
1.320000e-06	4.401749e-06	3.877130e-09	3.135802e+01	2.548210e+02
1.330000e-06	4.460624e-06	3.921032e-09	3.177744e+01	2.578839e+02
1.340000e-06	4.517738e-06	3.962902e-09	3.218433e+01	2.607991e+02
1.350000e-06	4.573064e-06	4.004278e-09	3.257847e+01	2.635688e+02
1.360000e-06	4.626800e-06	4.044434e-09	3.296129e+01	2.661953e+02
1.370000e-06	4.678871e-06	4.081192e-09	3.333223e+01	2.686817e+02
1.380000e-06	4.728899e-06	4.113946e-09	3.368864e+01	2.710319e+02
1.390000e-06	4.776875e-06	4.142818e-09	3.403042e+01	2.732502e+02
1.400000e-06	4.823162e-06	4.169160e-09	3.436016e+01	2.753417e+02
1.410000e-06	4.867955e-06	4.196042e-09	3.467927e+01	2.773121e+02
1.420000e-06	4.911172e-06	4.223118e-09	3.498715e+01	2.791675e+02
1.430000e-06	4.952505e-06	4.249266e-09	3.528160e+01	2.809143e+02
1.440000e-06	4.992000e-06	4.273211e-09	3.556296e+01	2.825586e+02
1.450000e-06	5.029877e-06	4.294501e-09	3.583280e+01	2.841066e+02
1.460000e-06	5.066173e-06	4.315054e-09	3.609137e+01	2.855636e+02
1.470000e-06	5.100736e-06	4.337315e-09	3.633760e+01	2.869343e+02
1.480000e-06	5.133331e-06	4.357850e-09	3.656980e+01	2.882221e+02
1.490000e-06	5.164089e-06	4.373899e-09	3.678892e+01	2.894297e+02
1.500000e-06	5.193184e-06	4.387747e-09	3.699620e+01	2.905584e+02
1.510000e-06	5.220562e-06	4.402015e-09	3.719124e+01	2.916086e+02
1.520000e-06	5.245899e-06	4.416126e-09	3.737174e+01	2.925799e+02
1.530000e-06	5.269123e-06	4.429652e-09	3.753718e+01	2.934713e+02
1.540000e-06	5.290527e-06	4.442296e-09	3.768966e+01	2.942816e+02
1.550000e-06	5.310254e-06	4.452060e-09	3.783021e+01	2.950097e+02
1.560000e-06	5.328162e-06	4.461939e-09	3.795778e+01	2.956548e+02
1.570000e-06	5.344028e-06	4.473210e-09	3.807081e+01	2.962167e+02
1.580000e-06	5.357904e-06	4.483485e-09	3.816966e+01	2.966960e+02
1.590000e-06	5.369794e-06	4.489784e-09	3.825437e+01	2.970943e+02
1.600000e-06	5.379484e-06	4.492279e-09	3.832340e+01	2.974139e+02
1.610000e-06	5.387050e-06	4.494145e-09	3.837730e+01	2.976578e+02
1.620000e-06	5.392734e-06	4.498280e-09	3.841779e+01	2.978293e+02
1.630000e-06	5.396645e-06	4.503652e-09	3.844565e+01	2.979322e+02
1.640000e-06	5.398655e-06	4.506878e-09	3.845997e+01	2.979701e+02
1.650000e-06	5.398659e-06	4.507681e-09	3.846000e+01	2.979463e+02
1.660000e-06	5.396858e-06	4.504701e-09	3.844717e+01	2.978636e+02
1.670000e-06	5.393457e-06	4.498723e-09	3.842294e+01	2.977242e+02
1.680000e-06	5.388426e-06	4.497124e-09	3.838710e+01	2.975294e+02
1.690000e-06	5.381412e-06	4.495951e-09	3.833713e+01	2.972800e+02
1.700000e-06	5.372542e-06	4.492728e-09	3.827394e+01	2.969763e+02
1.710000e-06	5.362148e-06	4.487697e-09	3.819990e+01	2.966180e+02
1.720000e-06	5.350086e-06	4.480096e-09	3.811396e+01	2.962047e+02
1.730000e-06	5.336074e-06	4.472214e-09	3.801414e+01	2.957359e+02
1.740000e-06	5.319893e-06	4.440533e-09	3.789887e+01	2.952111e+02
1.750000e-06	5.301253e-06	4.424008e-09	3.776608e+01	2.946301e+02
1.760000e-06	5.279934e-06	4.440729e-09	3.761420e+01	2.939930e+02
1.770000e-06	5.256464e-06	4.446285e-09	3.744700e+01	2.932998e+02
1.780000e-06	5.231942e-06	4.459213e-09	3.727231e+01	2.925509e+02
1.790000e-06	5.206686e-06	4.429613e-09	3.709238e+01	2.917465e+02
1.800000e-06	5.179743e-06	4.344830e-09	3.690045e+01	2.908867e+02
1.810000e-06	5.150659e-06	4.381607e-09	3.669325e+01	2.899714e+02
1.820000e-06	5.119870e-06	4.396131e-09	3.647391e+01	2.890000e+02
1.830000e-06	5.087248e-06	4.357933e-09	3.624151e+01	2.879716e+02
1.840000e-06	5.052675e-06	4.405599e-09	3.599522e+01	2.868850e+02
1.850000e-06	5.016570e-06	4.367756e-09	3.573800e+01	2.857387e+02
1.860000e-06	4.978637e-06	4.325643e-09	3.546777e+01	2.845310e+02
1.870000e-06	4.938799e-06	4.318980e-09	3.518396e+01	2.832606e+02
1.880000e-06	4.897292e-06	4.249076e-09	3.488826e+01	2.819261e+02
1.890000e-06	4.853964e-06	4.293822e-09	3.457960e+01	2.805269e+02
1.900000e-06	4.809091e-06	4.299477e-09	3.425992e+01	2.790628e+02
1.910000e-06	4.762372e-06	4.221845e-09	3.392710e+01	2.775344e+02
1.920000e-06	4.713592e-06	4.238235e-09	3.357958e+01	2.759426e+02
1.930000e-06	4.663245e-06	4.176240e-09	3.322092e+01	2.742892e+02
1.940000e-06	4.611147e-06	4.140595e-09	3.284977e+01	2.725760e+02
1.950000e-06	4.556955e-06	4.136830e-09	3.246371e+01	2.708050e+02
1.960000e-06	4.500787e-06	4.104694e-09	3.206357e+01	2.689782e+02
1.970000e-06	4.442947e-06	4.102979e-09	3.165152e+01	2.670969e+02
1.980000e-06	4.383706e-06	4.051120e-09	3.122948e+01	2.651620e+02
1.990000e-06	4.323008e-06	4.038678e-09	3.079707e+01	2.631735e+02
2.000000e-06	4.260661e-06	4.004766e-09	3.035291e+01	2.611308e+02
2.010000e-06	4.196685e-06	3.939363e-09	2.989715e+01	2.590324e+02
2.020000e-06	4.131226e-06	3.921739e-09	2.943082e+01	2.568762e+02
2.030000e-06	4.064342e-06	3.881205e-09	2.895434e+01	2.546599e+02
2.040000e-06	3.996130e-06	3.878463e-09	2.846839e+01	2.523810e+02
2.050000e-06	3.926436e-06	3.836378e-09	2.797189e+01	2.500370e+02
2.060000e-06	3.855058e-06	3.789361e-09	2.746340e+01	2.476260e+02
2.070000e-06	3.782279e-06	3.767991e-09	2.694492e+01	2.451467e+02
2.080000e-06	3.708250e-06	3.696658e-09	2.641754e+01	2.425985e+02
2.090000e-06	3.632894e-06	3.662246e-09	2.588071e+01	2.399816e+02
2.100000e-06	3.556152e-06	3.631415e-09	2.533400e+01	2.372965e+02
2.110000e-06	3.477784e-06	3.604298e-09	2.477570e+01	2.345447e+02
2.120000e-06	3.398012e-06	3.559242e-09	2.420741e+01	2.317275e+02
2.130000e-06	3.317148e-06	3.496085e-09	2.363133e+01	2.288463e+02
2.140000e-06	3.235131e-06	3.455968e-09	2.304705e+01	2.259020e+02
2.150000e-06	3.152030e-06	3.406766e-09	2.245504e+01	2.228949e+02
2.160000e-06	3.067962e-06	3.367673e-09	2.185614e+01	2.198245e+02
2.170000e-06	2.982846e-06	3.327030e-09	2.124977e+01	2.166893e+02
2.180000e-06	2.896365e-06	3.290004e-09	2.063368e+01	2.134869e+02
2.190000e-06	2.808660e-06	3.238395e-09	2.000887e+01	2.102141e+02
2.200000e-06	2.719998e-06	3.178842e-09	1.937724e+01	2.068669e+02
2.210000e-06	2.630343e-06	3.125212e-09	1.873854e+01	2.034412e+02
2.220000e-06	2.539759e-06	3.064355e-09	1.809322e+01	1.999327e+02
2.230000e-06	2.448358e-06	3.010615e-09	1.744208e+01	1.963375e+02
2.240000e-06	2.356243e-06	2.955499e-09	1.678585e+01	1.926525e+02
2.250000e-06	2.263425e-06	2.908816e-09	1.612462e+01	1.888752e+02
2.260000e-06	2.169788e-06	2.857657e-09	1.545755e+01	1.850043e+02
2.270000e-06	2.075068e-06	2.797012e-09	1.478276e+01	1.810393e+02
2.280000e-06	1.979372e-06	2.732532e-09	1.410103e+01	1.769808e+02
2.290000e-06	1.882995e-06	2.666013e-09	1.341444e+01	1.728303e+02
2.300000e-06	1.786052e-06	2.601258e-09	1.272382e+01	1.685895e+02
2.310000e-06	1.688637e-06	2.537979e-09	1.202984e+01	1.642602e+02
2.320000e-06	1.590627e-06	2.473650e-09	1.133162e+01	1.598442e+02
2.330000e-06	1.492004e-06	2.403341e-09	1.062902e+01	1.553426e+02
2.340000e-06	1.392915e-06	2.334882e-09	9.923113e+00	1.507558e+02
2.350000e-06	1.293454e-06	2.263341e-09	9.214551e+00	1.460829e+02
2.360000e-06	1.193706e-06	2.193239e-09	8.503951e+00	1.413221e+02
2.370000e-06	1.093747e-06	2.126059e-09	7.791843e+00	1.364706e+02
2.380000e-06	9.935480e-07	2.053418e-09	7.078027e+00	1.315244e+02
2.390000e-06	8.929290e-07	1.976414e-09	6.361218e+00	1.264789e+02
2.400000e-06	7.917942e-07	1.895464e-09	5.640735e+00	1.213290e+02
2.410000e-06	6.903314e-07	1.811758e-09	4.917915e+00	1.160696e+02
2.420000e-06	5.886866e-07	1.728430e-09	4.193798e+00	1.106957e+02
2.430000e-06	4.868046e-07	1.645407e-09	3.467992e+00	1.052028e+02
2.440000e-06	3.846531e-07	1.563894e-09	2.740265e+00	9.958713e+01
2.450000e-06	2.823563e-07	1.481587e-09	2.011504e+00	9.384547e+01
2.460000e-06	1.799936e-07	1.392450e-09	1.282273e+00	8.797549e+01
2.470000e-06	7.752117e-08	1.299547e-09	5.522601e-01	8.197541e+01
2.480000e-06	-2.506564e-08	1.203101e-09	-1.785674e-01	7.584377e+01
2.490000e-06	-1.276758e-07	1.104145e-09	-9.095612e-01	6.957920e+01
2.500000e-06	-2.302231e-07	1.005264e-09	-1.640108e+00	6.318005e+01
2.510000e-06	-3.326991e-07	9.069653e-10	-2.370146e+00	5.664411e+01
2.520000e-06	-4.350539e-07	8.074387e-10	-3.099320e+00	4.996834e+01
2.530000e-06	-5.371807e-07	7.024475e-10	-3.826871e+00	4.314881e+01
2.540000e-06	-6.390574e-07	5.932731e-10	-4.552640e+00	3.618069e+01
2.550000e-06	-7.406394e-07	4.851876e-10	-5.276309e+00	2.905850e+01
2.560000e-06	-8.418757e-07	3.737524e-10	-5.997515e+00	2.177648e+01
2.570000e-06	-9.427866e-07	2.556772e-10	-6.716404e+00	1.432921e+01
2.580000e-06	-1.043353e-06	1.368215e-10	-7.432837e+00	6.712300e+00
2.590000e-06	-1.143520e-06	1.692745e-11	-8.146427e+00	-1.076751e+00
2.600000e-06	-1.243279e-06	-1.050480e-10	-8.857110e+00	-9.037716e+00
2.610000e-06	-1.342668e-06	-2.291273e-10	-9.565155e+00	-1.716680e+01
2.620000e-06	-1.441605e-06	-3.571610e-10	-1.026998e+01	-2.545592e+01
2.630000e-06	-1.539992e-06	-4.880712e-10	-1.097089e+01	-3.389219e+01
2.640000e-06	-1.637801e-06	-6.206456e-10	-1.166768e+01	-4.245761e+01
2.650000e-06	-1.735065e-06	-7.524629e-10	-1.236059e+01	-5.112907e+01
2.660000e-06	-1.831798e-06	-8.837141e-10	-1.304971e+01	-5.987867e+01
2.670000e-06	-1.927943e-06	-1.017351e-09	-1.373465e+01	-6.867432e+01
2.680000e-06	-2.023489e-06	-1.153412e-09	-1.441532e+01	-7.748065e+01
2.690000e-06	-2.118240e-06	-1.287852e-09	-1.509032e+01	-8.626014e+01
2.700000e-06	-2.212041e-06	-1.421184e-09	-1.575856e+01	-9.497437e+01
2.710000e-06	-2.304890e-06	-1.556151e-09	-1.642001e+01	-1.035854e+02
2.720000e-06	-2.396786e-06	-1.689457e-09	-1.707468e+01	-1.120573e+02
2.730000e-06	-2.487888e-06	-1.818653e-09	-1.772369e+01	-1.203568e+02
2.740000e-06	-2.578140e-06	-1.943191e-09	-1.836664e+01	-1.284551e+02
2.750000e-06	-2.667483e-06	-2.064403e-09	-1.900313e+01	-1.363281e+02
2.760000e-06	-2.756017e-06	-2.179974e-09	-1.963384e+01	-1.439573e+02
2.770000e-06	-2.843677e-06	-2.290596e-09	-2.025833e+01	-1.513294e+02
2.780000e-06	-2.930320e-06	-2.398290e-09	-2.087557e+01	-1.584370e+02
2.790000e-06	-3.015822e-06	-2.503228e-09	-2.148469e+01	-1.652775e+02
2.800000e-06	-3.100185e-06	-2.605281e-09	-2.208569e+01	-1.718527e+02
2.810000e-06	-3.183500e-06	-2.702524e-09	-2.267923e+01	-1.781684e+02
2.820000e-06	-3.265776e-06	-2.794339e-09	-2.326536e+01	-1.842328e+02
2.830000e-06	-3.346996e-06	-2.884173e-09	-2.384397e+01	-1.900562e+02
2.840000e-06	-3.427113e-06	-2.970131e-09	-2.441473e+01	-1.956500e+02
2.850000e-06	-3.505916e-06	-3.050188e-09	-2.497611e+01	-2.010257e+02
2.860000e-06	-3.583229e-06	-3.127307e-09	-2.552689e+01	-2.061947e+02
2.870000e-06	-3.659030e-06	-3.200950e-09	-2.606690e+01	-2.111673e+02
2.880000e-06	-3.733405e-06	-3.273228e-09	-2.659675e+01	-2.159531e+02
2.890000e-06	-3.806527e-06	-3.345042e-09	-2.711766e+01	-2.205599e+02
2.900000e-06	-3.878397e-06	-3.415350e-09	-2.762966e+01	-2.249945e+02
2.910000e-06	-3.948812e-06	-3.481503e-09	-2.813130e+01	-2.292625e+02
2.920000e-06	-4.017635e-06	-3.543500e-09	-2.862160e+01	-2.333680e+02
2.930000e-06	-4.084960e-06	-3.604866e-09	-2.910122e+01	-2.373143e+02
2.940000e-06	-4.150894e-06	-3.665000e-09	-2.957093e+01	-2.411041e+02
