# Temperatura_=_25.74
# Concentracion g/m^3_=_15000.0
# C_Vs_to_Am_M_A/Vsm_=_65563218390.804596
# pendiente_HvsI_1/m_=_3716.3
# ordenada_HvsI_A/m_=_1297.0
# frecuencia_Hz_=_301574.17720158247

Tiempo_(s)	Campo_(V.s)	Magnetizacion_(V.s)	Campo_(kA/m)	Magnetizacion_(A/m)
0.000000e+00	-5.392057e-06	-4.571975e-09	-3.835373e+01	-2.985654e+02
1.000000e-08	-5.390847e-06	-4.570943e-09	-3.834513e+01	-2.985247e+02
2.000000e-08	-5.387709e-06	-4.571583e-09	-3.832281e+01	-2.984254e+02
3.000000e-08	-5.382828e-06	-4.569236e-09	-3.828809e+01	-2.982682e+02
4.000000e-08	-5.376334e-06	-4.564569e-09	-3.824190e+01	-2.980537e+02
5.000000e-08	-5.368241e-06	-4.558215e-09	-3.818433e+01	-2.977824e+02
6.000000e-08	-5.358192e-06	-4.550559e-09	-3.811285e+01	-2.974549e+02
7.000000e-08	-5.346118e-06	-4.544381e-09	-3.802697e+01	-2.970719e+02
8.000000e-08	-5.332183e-06	-4.539599e-09	-3.792785e+01	-2.966341e+02
9.000000e-08	-5.316044e-06	-4.531727e-09	-3.781305e+01	-2.961422e+02
1.000000e-07	-5.297687e-06	-4.547543e-09	-3.768248e+01	-2.955968e+02
1.100000e-07	-5.277366e-06	-4.546182e-09	-3.753794e+01	-2.949984e+02
1.200000e-07	-5.255177e-06	-4.512537e-09	-3.738011e+01	-2.943469e+02
1.300000e-07	-5.231327e-06	-4.496672e-09	-3.721046e+01	-2.936421e+02
1.400000e-07	-5.205911e-06	-4.451009e-09	-3.702967e+01	-2.928832e+02
1.500000e-07	-5.178829e-06	-4.430493e-09	-3.683704e+01	-2.920689e+02
1.600000e-07	-5.150137e-06	-4.493469e-09	-3.663295e+01	-2.911975e+02
1.700000e-07	-5.120025e-06	-4.441284e-09	-3.641877e+01	-2.902671e+02
1.800000e-07	-5.088216e-06	-4.417782e-09	-3.619251e+01	-2.892756e+02
1.900000e-07	-5.054225e-06	-4.448042e-09	-3.595073e+01	-2.882210e+02
2.000000e-07	-5.018535e-06	-4.354551e-09	-3.569687e+01	-2.871017e+02
2.100000e-07	-4.981411e-06	-4.351502e-09	-3.543280e+01	-2.859164e+02
2.200000e-07	-4.942444e-06	-4.373926e-09	-3.515563e+01	-2.846644e+02
2.300000e-07	-4.901612e-06	-4.323605e-09	-3.486520e+01	-2.833457e+02
2.400000e-07	-4.858831e-06	-4.327861e-09	-3.456090e+01	-2.819607e+02
2.500000e-07	-4.814206e-06	-4.305965e-09	-3.424348e+01	-2.805107e+02
2.600000e-07	-4.767833e-06	-4.257341e-09	-3.391362e+01	-2.789968e+02
2.700000e-07	-4.719502e-06	-4.247940e-09	-3.356985e+01	-2.774207e+02
2.800000e-07	-4.669089e-06	-4.209391e-09	-3.321125e+01	-2.757837e+02
2.900000e-07	-4.616609e-06	-4.185028e-09	-3.283797e+01	-2.740868e+02
3.000000e-07	-4.562328e-06	-4.158577e-09	-3.245186e+01	-2.723308e+02
3.100000e-07	-4.506474e-06	-4.135261e-09	-3.205457e+01	-2.705156e+02
3.200000e-07	-4.448881e-06	-4.120185e-09	-3.164492e+01	-2.686408e+02
3.300000e-07	-4.389515e-06	-4.083164e-09	-3.122264e+01	-2.667051e+02
3.400000e-07	-4.328615e-06	-4.050513e-09	-3.078946e+01	-2.647073e+02
3.500000e-07	-4.266311e-06	-4.001314e-09	-3.034630e+01	-2.626456e+02
3.600000e-07	-4.202667e-06	-3.966864e-09	-2.989359e+01	-2.605183e+02
3.700000e-07	-4.137444e-06	-3.944871e-09	-2.942966e+01	-2.583240e+02
3.800000e-07	-4.070497e-06	-3.914048e-09	-2.895347e+01	-2.560616e+02
3.900000e-07	-4.002022e-06	-3.882866e-09	-2.846641e+01	-2.537305e+02
4.000000e-07	-3.932198e-06	-3.836774e-09	-2.796975e+01	-2.513307e+02
4.100000e-07	-3.861178e-06	-3.796387e-09	-2.746458e+01	-2.488626e+02
4.200000e-07	-3.788886e-06	-3.755734e-09	-2.695037e+01	-2.463269e+02
4.300000e-07	-3.715015e-06	-3.712275e-09	-2.642493e+01	-2.437249e+02
4.400000e-07	-3.639548e-06	-3.678286e-09	-2.588813e+01	-2.410576e+02
4.500000e-07	-3.562673e-06	-3.642223e-09	-2.534132e+01	-2.383260e+02
4.600000e-07	-3.484380e-06	-3.599743e-09	-2.478442e+01	-2.355307e+02
4.700000e-07	-3.404705e-06	-3.549234e-09	-2.421769e+01	-2.326719e+02
4.800000e-07	-3.323794e-06	-3.501137e-09	-2.364217e+01	-2.297493e+02
4.900000e-07	-3.241675e-06	-3.458537e-09	-2.305806e+01	-2.267619e+02
5.000000e-07	-3.158441e-06	-3.410709e-09	-2.246601e+01	-2.237085e+02
5.100000e-07	-3.074261e-06	-3.361714e-09	-2.186724e+01	-2.205872e+02
5.200000e-07	-2.989200e-06	-3.313168e-09	-2.126220e+01	-2.173959e+02
5.300000e-07	-2.903166e-06	-3.264255e-09	-2.065024e+01	-2.141326e+02
5.400000e-07	-2.816094e-06	-3.209653e-09	-2.003089e+01	-2.107951e+02
5.500000e-07	-2.728042e-06	-3.152762e-09	-1.940458e+01	-2.073814e+02
5.600000e-07	-2.638972e-06	-3.096146e-09	-1.877102e+01	-2.038900e+02
5.700000e-07	-2.548736e-06	-3.036746e-09	-1.812917e+01	-2.003191e+02
5.800000e-07	-2.457440e-06	-2.983274e-09	-1.747979e+01	-1.966677e+02
5.900000e-07	-2.365348e-06	-2.929596e-09	-1.682473e+01	-1.929345e+02
6.000000e-07	-2.272497e-06	-2.874654e-09	-1.616428e+01	-1.891189e+02
6.100000e-07	-2.178789e-06	-2.814774e-09	-1.549774e+01	-1.852198e+02
6.200000e-07	-2.084336e-06	-2.749044e-09	-1.482589e+01	-1.812366e+02
6.300000e-07	-1.989238e-06	-2.683389e-09	-1.414946e+01	-1.771682e+02
6.400000e-07	-1.893455e-06	-2.618656e-09	-1.346816e+01	-1.730140e+02
6.500000e-07	-1.796909e-06	-2.556371e-09	-1.278143e+01	-1.687729e+02
6.600000e-07	-1.699541e-06	-2.492586e-09	-1.208885e+01	-1.644442e+02
6.700000e-07	-1.601452e-06	-2.424838e-09	-1.139113e+01	-1.600268e+02
6.800000e-07	-1.502719e-06	-2.351535e-09	-1.068885e+01	-1.555199e+02
6.900000e-07	-1.403426e-06	-2.277054e-09	-9.982577e+00	-1.509229e+02
7.000000e-07	-1.303692e-06	-2.203273e-09	-9.273170e+00	-1.462349e+02
7.100000e-07	-1.203595e-06	-2.129706e-09	-8.561181e+00	-1.414551e+02
7.200000e-07	-1.103241e-06	-2.055869e-09	-7.847356e+00	-1.365826e+02
7.300000e-07	-1.002608e-06	-1.979949e-09	-7.131560e+00	-1.316162e+02
7.400000e-07	-9.015990e-07	-1.903402e-09	-6.413079e+00	-1.265546e+02
7.500000e-07	-8.002497e-07	-1.827247e-09	-5.692181e+00	-1.213957e+02
7.600000e-07	-6.985924e-07	-1.748222e-09	-4.969092e+00	-1.161372e+02
7.700000e-07	-5.966345e-07	-1.663747e-09	-4.243865e+00	-1.107761e+02
7.800000e-07	-4.944806e-07	-1.575861e-09	-3.517244e+00	-1.053088e+02
7.900000e-07	-3.922459e-07	-1.487246e-09	-2.790047e+00	-9.973144e+01
8.000000e-07	-2.898886e-07	-1.400908e-09	-2.061979e+00	-9.403939e+01
8.100000e-07	-1.874131e-07	-1.314137e-09	-1.333070e+00	-8.822792e+01
8.200000e-07	-8.485929e-08	-1.225552e-09	-6.036046e-01	-8.229202e+01
8.300000e-07	1.776828e-08	-1.134422e-09	1.263859e-01	-7.622657e+01
8.400000e-07	1.204136e-07	-1.039310e-09	8.565025e-01	-7.002641e+01
8.500000e-07	2.230463e-07	-9.421390e-10	1.586530e+00	-6.368638e+01
8.600000e-07	3.256329e-07	-8.441386e-10	2.316229e+00	-5.720137e+01
8.700000e-07	4.281261e-07	-7.446472e-10	3.045263e+00	-5.056632e+01
8.800000e-07	5.304990e-07	-6.389791e-10	3.773443e+00	-4.377622e+01
8.900000e-07	6.327144e-07	-5.302586e-10	4.500501e+00	-3.682620e+01
9.000000e-07	7.346865e-07	-4.222635e-10	5.225830e+00	-2.971163e+01
9.100000e-07	8.363769e-07	-3.142171e-10	5.949154e+00	-2.242830e+01
9.200000e-07	9.377920e-07	-2.040649e-10	6.670520e+00	-1.497278e+01
9.300000e-07	1.038853e-06	-9.019140e-11	7.389367e+00	-7.342859e+00
9.400000e-07	1.139494e-06	2.663858e-11	8.105226e+00	4.619761e-01
9.500000e-07	1.239774e-06	1.470760e-10	8.818521e+00	8.439868e+00
9.600000e-07	1.339690e-06	2.695990e-10	9.529221e+00	1.658597e+01
9.700000e-07	1.439217e-06	3.949841e-10	1.023716e+01	2.489182e+01
9.800000e-07	1.538320e-06	5.237752e-10	1.094208e+01	3.334482e+01
9.900000e-07	1.636790e-06	6.541971e-10	1.164250e+01	4.192786e+01
1.000000e-06	1.734379e-06	7.851154e-10	1.233665e+01	5.061920e+01
1.010000e-06	1.831075e-06	9.173186e-10	1.302445e+01	5.939258e+01
1.020000e-06	1.927012e-06	1.050415e-09	1.370685e+01	6.821759e+01
1.030000e-06	2.022295e-06	1.185319e-09	1.438460e+01	7.706047e+01
1.040000e-06	2.116916e-06	1.322068e-09	1.505763e+01	8.588498e+01
1.050000e-06	2.210774e-06	1.455912e-09	1.572525e+01	9.465360e+01
1.060000e-06	2.303863e-06	1.586262e-09	1.638739e+01	1.033288e+02
1.070000e-06	2.396210e-06	1.713627e-09	1.704426e+01	1.118745e+02
1.080000e-06	2.487898e-06	1.837970e-09	1.769643e+01	1.202572e+02
1.090000e-06	2.578874e-06	1.961224e-09	1.834354e+01	1.284469e+02
1.100000e-06	2.668710e-06	2.082958e-09	1.898255e+01	1.364186e+02
1.110000e-06	2.757249e-06	2.203152e-09	1.961233e+01	1.441523e+02
1.120000e-06	2.844845e-06	2.317525e-09	2.023540e+01	1.516337e+02
1.130000e-06	2.931583e-06	2.425193e-09	2.085237e+01	1.588537e+02
1.140000e-06	3.017339e-06	2.530924e-09	2.146235e+01	1.658086e+02
1.150000e-06	3.102078e-06	2.635589e-09	2.206510e+01	1.724992e+02
1.160000e-06	3.185921e-06	2.734970e-09	2.266147e+01	1.789300e+02
1.170000e-06	3.268854e-06	2.828718e-09	2.325138e+01	1.851084e+02
1.180000e-06	3.350468e-06	2.919398e-09	2.383190e+01	1.910439e+02
1.190000e-06	3.430725e-06	3.006105e-09	2.440276e+01	1.967469e+02
1.200000e-06	3.509814e-06	3.089592e-09	2.496533e+01	2.022284e+02
1.210000e-06	3.587706e-06	3.170912e-09	2.551937e+01	2.074988e+02
1.220000e-06	3.664322e-06	3.250302e-09	2.606434e+01	2.125680e+02
1.230000e-06	3.739569e-06	3.326286e-09	2.659958e+01	2.174445e+02
1.240000e-06	3.813175e-06	3.398712e-09	2.712314e+01	2.221358e+02
1.250000e-06	3.885157e-06	3.467426e-09	2.763514e+01	2.266482e+02
1.260000e-06	3.955775e-06	3.532798e-09	2.813745e+01	2.309866e+02
1.270000e-06	4.025005e-06	3.594942e-09	2.862988e+01	2.351550e+02
1.280000e-06	4.092969e-06	3.655026e-09	2.911332e+01	2.391567e+02
1.290000e-06	4.159513e-06	3.714182e-09	2.958664e+01	2.429943e+02
1.300000e-06	4.224274e-06	3.768960e-09	3.004728e+01	2.466698e+02
1.310000e-06	4.287439e-06	3.818029e-09	3.049658e+01	2.501853e+02
1.320000e-06	4.349215e-06	3.865567e-09	3.093599e+01	2.535427e+02
1.330000e-06	4.409638e-06	3.913691e-09	3.136578e+01	2.567437e+02
1.340000e-06	4.468745e-06	3.959663e-09	3.178621e+01	2.597906e+02
1.350000e-06	4.526090e-06	4.001657e-09	3.219410e+01	2.626857e+02
1.360000e-06	4.581551e-06	4.041612e-09	3.258860e+01	2.654318e+02
1.370000e-06	4.635433e-06	4.080146e-09	3.297186e+01	2.680323e+02
1.380000e-06	4.687578e-06	4.115625e-09	3.334277e+01	2.704909e+02
1.390000e-06	4.737657e-06	4.148683e-09	3.369898e+01	2.728121e+02
1.400000e-06	4.785703e-06	4.179740e-09	3.404074e+01	2.750008e+02
1.410000e-06	4.832042e-06	4.207212e-09	3.437034e+01	2.770624e+02
1.420000e-06	4.876837e-06	4.232614e-09	3.468897e+01	2.790029e+02
1.430000e-06	4.920087e-06	4.257706e-09	3.499661e+01	2.808282e+02
1.440000e-06	4.961447e-06	4.283304e-09	3.529080e+01	2.825444e+02
1.450000e-06	5.000913e-06	4.308053e-09	3.557153e+01	2.841575e+02
1.460000e-06	5.038795e-06	4.330529e-09	3.584098e+01	2.856730e+02
1.470000e-06	5.075087e-06	4.351288e-09	3.609913e+01	2.870959e+02
1.480000e-06	5.109577e-06	4.372174e-09	3.634445e+01	2.884303e+02
1.490000e-06	5.142106e-06	4.392228e-09	3.657583e+01	2.896798e+02
1.500000e-06	5.172839e-06	4.409169e-09	3.679443e+01	2.908468e+02
1.510000e-06	5.201899e-06	4.423537e-09	3.700114e+01	2.919333e+02
1.520000e-06	5.229231e-06	4.437188e-09	3.719555e+01	2.929404e+02
1.530000e-06	5.254515e-06	4.450193e-09	3.737539e+01	2.938689e+02
1.540000e-06	5.277723e-06	4.462673e-09	3.754047e+01	2.947191e+02
1.550000e-06	5.299156e-06	4.476023e-09	3.769293e+01	2.954915e+02
1.560000e-06	5.318912e-06	4.488397e-09	3.783345e+01	2.961866e+02
1.570000e-06	5.336768e-06	4.498750e-09	3.796046e+01	2.968053e+02
1.580000e-06	5.352521e-06	4.509155e-09	3.807251e+01	2.973486e+02
1.590000e-06	5.366321e-06	4.518217e-09	3.817067e+01	2.978180e+02
1.600000e-06	5.378167e-06	4.524319e-09	3.825493e+01	2.982155e+02
1.610000e-06	5.387781e-06	4.528985e-09	3.832332e+01	2.985430e+02
1.620000e-06	5.395325e-06	4.533004e-09	3.837698e+01	2.988028e+02
1.630000e-06	5.401045e-06	4.538083e-09	3.841767e+01	2.989969e+02
1.640000e-06	5.404978e-06	4.542985e-09	3.844564e+01	2.991274e+02
1.650000e-06	5.406997e-06	4.545362e-09	3.846000e+01	2.991960e+02
1.660000e-06	5.406975e-06	4.546963e-09	3.845984e+01	2.992042e+02
1.670000e-06	5.405168e-06	4.545969e-09	3.844699e+01	2.991529e+02
1.680000e-06	5.401770e-06	4.541387e-09	3.842282e+01	2.990433e+02
1.690000e-06	5.396685e-06	4.539953e-09	3.838665e+01	2.988758e+02
1.700000e-06	5.389646e-06	4.538344e-09	3.833658e+01	2.986511e+02
1.710000e-06	5.380799e-06	4.534881e-09	3.827365e+01	2.983697e+02
1.720000e-06	5.370384e-06	4.529872e-09	3.819957e+01	2.980323e+02
1.730000e-06	5.358238e-06	4.520289e-09	3.811318e+01	2.976395e+02
1.740000e-06	5.344130e-06	4.523464e-09	3.801283e+01	2.971920e+02
1.750000e-06	5.327889e-06	4.491234e-09	3.789731e+01	2.966905e+02
1.760000e-06	5.309168e-06	4.470750e-09	3.776415e+01	2.961357e+02
1.770000e-06	5.287740e-06	4.488302e-09	3.761172e+01	2.955277e+02
1.780000e-06	5.264177e-06	4.477795e-09	3.744413e+01	2.948668e+02
1.790000e-06	5.239547e-06	4.516084e-09	3.726893e+01	2.941524e+02
1.800000e-06	5.214202e-06	4.490540e-09	3.708865e+01	2.933838e+02
1.810000e-06	5.187203e-06	4.387165e-09	3.689660e+01	2.925594e+02
1.820000e-06	5.157999e-06	4.442769e-09	3.668888e+01	2.916776e+02
1.830000e-06	5.127112e-06	4.425201e-09	3.646918e+01	2.907365e+02
1.840000e-06	5.094376e-06	4.359387e-09	3.623633e+01	2.897339e+02
1.850000e-06	5.059655e-06	4.438443e-09	3.598936e+01	2.886679e+02
1.860000e-06	5.023427e-06	4.395918e-09	3.573167e+01	2.875369e+02
1.870000e-06	4.985388e-06	4.345997e-09	3.546109e+01	2.863397e+02
1.880000e-06	4.945473e-06	4.354662e-09	3.517718e+01	2.850758e+02
1.890000e-06	4.903913e-06	4.273080e-09	3.488156e+01	2.837452e+02
1.900000e-06	4.860559e-06	4.295869e-09	3.457318e+01	2.823486e+02
1.910000e-06	4.815587e-06	4.281430e-09	3.425330e+01	2.808871e+02
1.920000e-06	4.768701e-06	4.223511e-09	3.391980e+01	2.793620e+02
1.930000e-06	4.719792e-06	4.263139e-09	3.357191e+01	2.777749e+02
1.940000e-06	4.669359e-06	4.187279e-09	3.321318e+01	2.761272e+02
1.950000e-06	4.617156e-06	4.174859e-09	3.284186e+01	2.744197e+02
1.960000e-06	4.562830e-06	4.165689e-09	3.245544e+01	2.726532e+02
1.970000e-06	4.506561e-06	4.094915e-09	3.205519e+01	2.708274e+02
1.980000e-06	4.448663e-06	4.099560e-09	3.164337e+01	2.689418e+02
1.990000e-06	4.389346e-06	4.047075e-09	3.122144e+01	2.669952e+02
2.000000e-06	4.328472e-06	4.045081e-09	3.078844e+01	2.649861e+02
2.010000e-06	4.265910e-06	4.024402e-09	3.034344e+01	2.629128e+02
2.020000e-06	4.201781e-06	3.957944e-09	2.988730e+01	2.607737e+02
2.030000e-06	4.136151e-06	3.948833e-09	2.942047e+01	2.585673e+02
2.040000e-06	4.069079e-06	3.888371e-09	2.894338e+01	2.562927e+02
2.050000e-06	4.000652e-06	3.871063e-09	2.845666e+01	2.539493e+02
2.060000e-06	3.930777e-06	3.837847e-09	2.795964e+01	2.515373e+02
2.070000e-06	3.859321e-06	3.795625e-09	2.745137e+01	2.490570e+02
2.080000e-06	3.786479e-06	3.777532e-09	2.693325e+01	2.465095e+02
2.090000e-06	3.712400e-06	3.707969e-09	2.640632e+01	2.438957e+02
2.100000e-06	3.636920e-06	3.674105e-09	2.586943e+01	2.412169e+02
2.110000e-06	3.559942e-06	3.627737e-09	2.532189e+01	2.384739e+02
2.120000e-06	3.481379e-06	3.592958e-09	2.476307e+01	2.356673e+02
2.130000e-06	3.401485e-06	3.555960e-09	2.419478e+01	2.327971e+02
2.140000e-06	3.320513e-06	3.497788e-09	2.361883e+01	2.298631e+02
2.150000e-06	3.238397e-06	3.463824e-09	2.303474e+01	2.268641e+02
2.160000e-06	3.155224e-06	3.414599e-09	2.244313e+01	2.237986e+02
2.170000e-06	3.071035e-06	3.370726e-09	2.184429e+01	2.206650e+02
2.180000e-06	2.985687e-06	3.318600e-09	2.123721e+01	2.174610e+02
2.190000e-06	2.899038e-06	3.273200e-09	2.062087e+01	2.141846e+02
2.200000e-06	2.811210e-06	3.227081e-09	1.999616e+01	2.108337e+02
2.210000e-06	2.722416e-06	3.174466e-09	1.936456e+01	2.074063e+02
2.220000e-06	2.632703e-06	3.127516e-09	1.872643e+01	2.039008e+02
2.230000e-06	2.542093e-06	3.069441e-09	1.808192e+01	2.003156e+02
2.240000e-06	2.450671e-06	3.012806e-09	1.743164e+01	1.966497e+02
2.250000e-06	2.358507e-06	2.947914e-09	1.677608e+01	1.929019e+02
2.260000e-06	2.265495e-06	2.891998e-09	1.611448e+01	1.890714e+02
2.270000e-06	2.171597e-06	2.840466e-09	1.544659e+01	1.851574e+02
2.280000e-06	2.076746e-06	2.782510e-09	1.477191e+01	1.811590e+02
2.290000e-06	1.980942e-06	2.720176e-09	1.409045e+01	1.770755e+02
2.300000e-06	1.884427e-06	2.654259e-09	1.340394e+01	1.729058e+02
2.310000e-06	1.787394e-06	2.590073e-09	1.271374e+01	1.686492e+02
2.320000e-06	1.689831e-06	2.524805e-09	1.201978e+01	1.643046e+02
2.330000e-06	1.591626e-06	2.460581e-09	1.132124e+01	1.598714e+02
2.340000e-06	1.492906e-06	2.392518e-09	1.061905e+01	1.553485e+02
2.350000e-06	1.393768e-06	2.323848e-09	9.913883e+00	1.507353e+02
2.360000e-06	1.294202e-06	2.250754e-09	9.205665e+00	1.460309e+02
2.370000e-06	1.194354e-06	2.178127e-09	8.495446e+00	1.412347e+02
2.380000e-06	1.094318e-06	2.106852e-09	7.783888e+00	1.363455e+02
2.390000e-06	9.939265e-07	2.030556e-09	7.069805e+00	1.313623e+02
2.400000e-06	8.930490e-07	1.953230e-09	6.352263e+00	1.262834e+02
2.410000e-06	7.916690e-07	1.873831e-09	5.631146e+00	1.211070e+02
2.420000e-06	6.899976e-07	1.793854e-09	4.907957e+00	1.158304e+02
2.430000e-06	5.881903e-07	1.713828e-09	4.183801e+00	1.104506e+02
2.440000e-06	4.861070e-07	1.631264e-09	3.457682e+00	1.049641e+02
2.450000e-06	3.836793e-07	1.546114e-09	2.729113e+00	9.936653e+01
2.460000e-06	2.810279e-07	1.460254e-09	1.998953e+00	9.365353e+01
2.470000e-06	1.783081e-07	1.370972e-09	1.268306e+00	8.782023e+01
2.480000e-06	7.555240e-08	1.279935e-09	5.374047e-01	8.186160e+01
2.490000e-06	-2.728377e-08	1.186339e-09	-1.940696e-01	7.577249e+01
2.500000e-06	-1.301376e-07	1.088652e-09	-9.256699e-01	6.954774e+01
2.510000e-06	-2.329772e-07	9.905089e-10	-1.657168e+00	6.318221e+01
2.520000e-06	-3.358191e-07	8.926905e-10	-2.388684e+00	5.667080e+01
2.530000e-06	-4.385559e-07	7.935612e-10	-3.119451e+00	5.000844e+01
2.540000e-06	-5.410169e-07	6.889006e-10	-3.848256e+00	4.319016e+01
2.550000e-06	-6.431303e-07	5.807966e-10	-4.574589e+00	3.621110e+01
2.560000e-06	-7.449378e-07	4.717162e-10	-5.298747e+00	2.906670e+01
2.570000e-06	-8.463253e-07	3.585528e-10	-6.019917e+00	2.175286e+01
2.580000e-06	-9.472416e-07	2.422238e-10	-6.737735e+00	1.426634e+01
2.590000e-06	-1.047761e-06	1.235794e-10	-7.452729e+00	6.605176e+00
2.600000e-06	-1.147956e-06	1.654114e-12	-8.165419e+00	-1.230759e+00
2.610000e-06	-1.247863e-06	-1.228650e-10	-8.876056e+00	-9.239124e+00
2.620000e-06	-1.347388e-06	-2.488351e-10	-9.583982e+00	-1.741447e+01
2.630000e-06	-1.446411e-06	-3.772380e-10	-1.028833e+01	-2.574763e+01
2.640000e-06	-1.544908e-06	-5.085797e-10	-1.098894e+01	-3.422522e+01
2.650000e-06	-1.642877e-06	-6.394207e-10	-1.168580e+01	-4.282931e+01
2.660000e-06	-1.740197e-06	-7.715476e-10	-1.237804e+01	-5.153734e+01
2.670000e-06	-1.836886e-06	-9.074876e-10	-1.306578e+01	-6.032225e+01
2.680000e-06	-1.933099e-06	-1.044126e-09	-1.375014e+01	-6.915301e+01
2.690000e-06	-2.028850e-06	-1.179234e-09	-1.443122e+01	-7.799530e+01
2.700000e-06	-2.123888e-06	-1.313320e-09	-1.510723e+01	-8.681258e+01
2.710000e-06	-2.217818e-06	-1.447491e-09	-1.577536e+01	-9.556724e+01
2.720000e-06	-2.310633e-06	-1.582287e-09	-1.643554e+01	-1.042219e+02
2.730000e-06	-2.402638e-06	-1.713161e-09	-1.708998e+01	-1.127408e+02
2.740000e-06	-2.493916e-06	-1.841245e-09	-1.773924e+01	-1.210911e+02
2.750000e-06	-2.584304e-06	-1.967214e-09	-1.838217e+01	-1.292436e+02
2.760000e-06	-2.673704e-06	-2.089642e-09	-1.901808e+01	-1.371741e+02
2.770000e-06	-2.762214e-06	-2.207280e-09	-1.964764e+01	-1.448636e+02
2.780000e-06	-2.850000e-06	-2.318877e-09	-2.027207e+01	-1.522988e+02
2.790000e-06	-2.936903e-06	-2.426772e-09	-2.089021e+01	-1.594716e+02
2.800000e-06	-3.022524e-06	-2.531455e-09	-2.149923e+01	-1.663791e+02
2.810000e-06	-3.106904e-06	-2.634502e-09	-2.209943e+01	-1.730228e+02
2.820000e-06	-3.190310e-06	-2.734421e-09	-2.269269e+01	-1.794079e+02
2.830000e-06	-3.272686e-06	-2.828029e-09	-2.327864e+01	-1.855422e+02
2.840000e-06	-3.353940e-06	-2.916359e-09	-2.385660e+01	-1.914354e+02
2.850000e-06	-3.434163e-06	-3.001546e-09	-2.442722e+01	-1.970980e+02
2.860000e-06	-3.513126e-06	-3.082871e-09	-2.498888e+01	-2.025410e+02
2.870000e-06	-3.590501e-06	-3.161149e-09	-2.553925e+01	-2.077748e+02
2.880000e-06	-3.666368e-06	-3.236335e-09	-2.607890e+01	-2.128089e+02
2.890000e-06	-3.740862e-06	-3.308581e-09	-2.660877e+01	-2.176519e+02
2.900000e-06	-3.813999e-06	-3.379280e-09	-2.712900e+01	-2.223108e+02
2.910000e-06	-3.885907e-06	-3.448839e-09	-2.764048e+01	-2.267918e+02
2.920000e-06	-3.956356e-06	-3.515283e-09	-2.814158e+01	-2.310995e+02
2.930000e-06	-4.025135e-06	-3.579005e-09	-2.863081e+01	-2.352379e+02
2.940000e-06	-4.092508e-06	-3.641312e-09	-2.911003e+01	-2.392101e+02
