# Temperatura_=_65.59
# Concentracion g/m^3_=_15000.0
# C_Vs_to_Am_M_A/Vsm_=_65563218390.804596
# pendiente_HvsI_1/m_=_3716.3
# ordenada_HvsI_A/m_=_1297.0
# frecuencia_Hz_=_301577.50814678223

Tiempo_(s)	Campo_(V.s)	Magnetizacion_(V.s)	Campo_(kA/m)	Magnetizacion_(A/m)
0.000000e+00	-5.400471e-06	-5.732042e-09	-3.834423e+01	-3.743906e+02
1.000000e-08	-5.397966e-06	-5.734594e-09	-3.832645e+01	-3.742650e+02
2.000000e-08	-5.393623e-06	-5.729655e-09	-3.829561e+01	-3.740499e+02
3.000000e-08	-5.387634e-06	-5.723828e-09	-3.825309e+01	-3.737420e+02
4.000000e-08	-5.380077e-06	-5.715961e-09	-3.819943e+01	-3.733395e+02
5.000000e-08	-5.370779e-06	-5.704626e-09	-3.813342e+01	-3.728427e+02
6.000000e-08	-5.359419e-06	-5.692870e-09	-3.805276e+01	-3.722547e+02
7.000000e-08	-5.346183e-06	-5.672053e-09	-3.795878e+01	-3.715811e+02
8.000000e-08	-5.330912e-06	-5.657904e-09	-3.785035e+01	-3.708301e+02
9.000000e-08	-5.313335e-06	-5.725389e-09	-3.772555e+01	-3.700112e+02
1.000000e-07	-5.293642e-06	-5.733173e-09	-3.758573e+01	-3.691348e+02
1.100000e-07	-5.272047e-06	-5.670272e-09	-3.743240e+01	-3.682107e+02
1.200000e-07	-5.248740e-06	-5.655572e-09	-3.726692e+01	-3.672469e+02
1.300000e-07	-5.223871e-06	-5.516478e-09	-3.709035e+01	-3.662487e+02
1.400000e-07	-5.197360e-06	-5.480514e-09	-3.690211e+01	-3.652177e+02
1.500000e-07	-5.169238e-06	-5.682355e-09	-3.670244e+01	-3.641514e+02
1.600000e-07	-5.139691e-06	-5.531858e-09	-3.649265e+01	-3.630432e+02
1.700000e-07	-5.108613e-06	-5.517574e-09	-3.627199e+01	-3.618830e+02
1.800000e-07	-5.075475e-06	-5.634505e-09	-3.603671e+01	-3.606577e+02
1.900000e-07	-5.040374e-06	-5.378823e-09	-3.578748e+01	-3.593528e+02
2.000000e-07	-5.003798e-06	-5.430516e-09	-3.552779e+01	-3.579535e+02
2.100000e-07	-4.965498e-06	-5.524409e-09	-3.525586e+01	-3.564465e+02
2.200000e-07	-4.925376e-06	-5.369211e-09	-3.497098e+01	-3.548205e+02
2.300000e-07	-4.883325e-06	-5.396845e-09	-3.467241e+01	-3.530681e+02
2.400000e-07	-4.839267e-06	-5.367596e-09	-3.435959e+01	-3.511859e+02
2.500000e-07	-4.793454e-06	-5.281263e-09	-3.403432e+01	-3.491745e+02
2.600000e-07	-4.745772e-06	-5.313977e-09	-3.369576e+01	-3.470386e+02
2.700000e-07	-4.695968e-06	-5.240580e-09	-3.334215e+01	-3.447859e+02
2.800000e-07	-4.644051e-06	-5.222629e-09	-3.297353e+01	-3.424262e+02
2.900000e-07	-4.590262e-06	-5.197946e-09	-3.259162e+01	-3.399702e+02
3.000000e-07	-4.534884e-06	-5.126763e-09	-3.219843e+01	-3.374281e+02
3.100000e-07	-4.477871e-06	-5.101837e-09	-3.179362e+01	-3.348088e+02
3.200000e-07	-4.419018e-06	-5.088073e-09	-3.137576e+01	-3.321188e+02
3.300000e-07	-4.358551e-06	-5.041376e-09	-3.094643e+01	-3.293616e+02
3.400000e-07	-4.296681e-06	-4.931664e-09	-3.050714e+01	-3.265380e+02
3.500000e-07	-4.233405e-06	-4.917138e-09	-3.005788e+01	-3.236460e+02
3.600000e-07	-4.168645e-06	-4.908119e-09	-2.959807e+01	-3.206817e+02
3.700000e-07	-4.102217e-06	-4.843604e-09	-2.912642e+01	-3.176396e+02
3.800000e-07	-4.034177e-06	-4.813204e-09	-2.864333e+01	-3.145141e+02
3.900000e-07	-3.964688e-06	-4.749838e-09	-2.814994e+01	-3.113001e+02
4.000000e-07	-3.893896e-06	-4.678275e-09	-2.764730e+01	-3.079936e+02
4.100000e-07	-3.821879e-06	-4.620253e-09	-2.713597e+01	-3.045924e+02
4.200000e-07	-3.748496e-06	-4.580813e-09	-2.661494e+01	-3.010962e+02
4.300000e-07	-3.673562e-06	-4.551529e-09	-2.608290e+01	-2.975065e+02
4.400000e-07	-3.597132e-06	-4.484018e-09	-2.554023e+01	-2.938263e+02
4.500000e-07	-3.519283e-06	-4.411731e-09	-2.498749e+01	-2.900594e+02
4.600000e-07	-3.439959e-06	-4.347989e-09	-2.442428e+01	-2.862098e+02
4.700000e-07	-3.359291e-06	-4.297432e-09	-2.385152e+01	-2.822811e+02
4.800000e-07	-3.277399e-06	-4.240497e-09	-2.327008e+01	-2.782756e+02
4.900000e-07	-3.194403e-06	-4.170219e-09	-2.268079e+01	-2.741944e+02
5.000000e-07	-3.110414e-06	-4.112815e-09	-2.208445e+01	-2.700366e+02
5.100000e-07	-3.025503e-06	-4.043697e-09	-2.148157e+01	-2.658001e+02
5.200000e-07	-2.939680e-06	-3.975107e-09	-2.087221e+01	-2.614810e+02
5.300000e-07	-2.852842e-06	-3.907398e-09	-2.025565e+01	-2.570752e+02
5.400000e-07	-2.765050e-06	-3.835000e-09	-1.963231e+01	-2.525777e+02
5.500000e-07	-2.676303e-06	-3.762945e-09	-1.900219e+01	-2.479842e+02
5.600000e-07	-2.586354e-06	-3.685882e-09	-1.836354e+01	-2.432913e+02
5.700000e-07	-2.495267e-06	-3.617604e-09	-1.771681e+01	-2.384965e+02
5.800000e-07	-2.403317e-06	-3.550436e-09	-1.706394e+01	-2.335989e+02
5.900000e-07	-2.310611e-06	-3.475102e-09	-1.640572e+01	-2.285990e+02
6.000000e-07	-2.217109e-06	-3.385066e-09	-1.574184e+01	-2.234984e+02
6.100000e-07	-2.122760e-06	-3.299321e-09	-1.507195e+01	-2.182993e+02
6.200000e-07	-2.027721e-06	-3.222691e-09	-1.439715e+01	-2.130046e+02
6.300000e-07	-1.932033e-06	-3.145091e-09	-1.371775e+01	-2.076165e+02
6.400000e-07	-1.835593e-06	-3.066609e-09	-1.303301e+01	-2.021369e+02
6.500000e-07	-1.738338e-06	-2.982494e-09	-1.234249e+01	-1.965664e+02
6.600000e-07	-1.640290e-06	-2.892840e-09	-1.164633e+01	-1.909043e+02
6.700000e-07	-1.541539e-06	-2.796960e-09	-1.094518e+01	-1.851488e+02
6.800000e-07	-1.442273e-06	-2.706026e-09	-1.024037e+01	-1.792967e+02
6.900000e-07	-1.342617e-06	-2.618683e-09	-9.532804e+00	-1.733439e+02
7.000000e-07	-1.242526e-06	-2.529132e-09	-8.822137e+00	-1.672858e+02
7.100000e-07	-1.142033e-06	-2.433528e-09	-8.108626e+00	-1.611175e+02
7.200000e-07	-1.041234e-06	-2.334317e-09	-7.392932e+00	-1.548344e+02
7.300000e-07	-9.401294e-07	-2.234921e-09	-6.675074e+00	-1.484323e+02
7.400000e-07	-8.387059e-07	-2.135635e-09	-5.954950e+00	-1.419074e+02
7.500000e-07	-7.369959e-07	-2.037348e-09	-5.232792e+00	-1.352569e+02
7.600000e-07	-6.349927e-07	-1.935891e-09	-4.508553e+00	-1.284781e+02
7.700000e-07	-5.327427e-07	-1.828888e-09	-3.782561e+00	-1.215686e+02
7.800000e-07	-4.303200e-07	-1.718878e-09	-3.055343e+00	-1.145258e+02
7.900000e-07	-3.277837e-07	-1.610923e-09	-2.327318e+00	-1.073464e+02
8.000000e-07	-2.251440e-07	-1.499883e-09	-1.598560e+00	-1.000263e+02
8.100000e-07	-1.223856e-07	-1.385561e-09	-8.689581e-01	-9.255980e+01
8.200000e-07	-1.957526e-08	-1.271430e-09	-1.389876e-01	-8.493976e+01
8.300000e-07	8.325250e-08	-1.153989e-09	5.911065e-01	-7.715751e+01
8.400000e-07	1.860496e-07	-1.034283e-09	1.320983e+00	-6.920294e+01
8.500000e-07	2.887813e-07	-9.129402e-10	2.050395e+00	-6.106490e+01
8.600000e-07	3.914448e-07	-7.868283e-10	2.779322e+00	-5.273171e+01
8.700000e-07	4.940304e-07	-6.514266e-10	3.507697e+00	-4.419189e+01
8.800000e-07	5.965316e-07	-5.125117e-10	4.235473e+00	-3.543489e+01
8.900000e-07	6.988371e-07	-3.755928e-10	4.961858e+00	-2.645203e+01
9.000000e-07	8.008541e-07	-2.377629e-10	5.686196e+00	-1.723731e+01
9.100000e-07	9.026056e-07	-9.671349e-11	6.408649e+00	-7.788244e+00
9.200000e-07	1.004016e-06	4.970689e-11	7.128677e+00	1.893391e+00
9.300000e-07	1.105007e-06	2.013125e-10	7.845735e+00	1.180101e+01
9.400000e-07	1.205650e-06	3.583974e-10	8.560316e+00	2.192282e+01
9.500000e-07	1.305898e-06	5.179227e-10	9.272093e+00	3.224162e+01
9.600000e-07	1.405738e-06	6.793246e-10	9.980971e+00	4.273487e+01
9.700000e-07	1.505148e-06	8.426510e-10	1.068680e+01	5.337497e+01
9.800000e-07	1.603974e-06	1.009399e-09	1.138848e+01	6.412976e+01
9.900000e-07	1.702105e-06	1.177598e-09	1.208523e+01	7.496321e+01
1.000000e-06	1.799428e-06	1.345200e-09	1.277623e+01	8.583636e+01
1.010000e-06	1.895899e-06	1.511992e-09	1.346120e+01	9.670829e+01
1.020000e-06	1.991601e-06	1.679496e-09	1.414070e+01	1.075373e+02
1.030000e-06	2.086545e-06	1.846010e-09	1.481481e+01	1.182818e+02
1.040000e-06	2.180779e-06	2.007484e-09	1.548389e+01	1.289018e+02
1.050000e-06	2.274312e-06	2.164939e-09	1.614799e+01	1.393595e+02
1.060000e-06	2.367103e-06	2.319819e-09	1.680683e+01	1.496205e+02
1.070000e-06	2.459239e-06	2.471015e-09	1.746100e+01	1.596542e+02
1.080000e-06	2.550643e-06	2.620818e-09	1.810999e+01	1.694343e+02
1.090000e-06	2.640980e-06	2.769937e-09	1.875139e+01	1.789393e+02
1.100000e-06	2.730105e-06	2.915988e-09	1.938420e+01	1.881523e+02
1.110000e-06	2.818164e-06	3.051744e-09	2.000943e+01	1.970611e+02
1.120000e-06	2.905255e-06	3.179077e-09	2.062779e+01	2.056577e+02
1.130000e-06	2.991406e-06	3.302693e-09	2.123947e+01	2.139381e+02
1.140000e-06	3.076648e-06	3.424887e-09	2.184471e+01	2.219017e+02
1.150000e-06	3.160975e-06	3.540940e-09	2.244344e+01	2.295511e+02
1.160000e-06	3.244351e-06	3.649677e-09	2.303543e+01	2.368915e+02
1.170000e-06	3.326589e-06	3.755870e-09	2.361933e+01	2.439303e+02
1.180000e-06	3.407521e-06	3.858360e-09	2.419396e+01	2.506769e+02
1.190000e-06	3.487205e-06	3.957632e-09	2.475973e+01	2.571423e+02
1.200000e-06	3.565703e-06	4.052804e-09	2.531708e+01	2.633389e+02
1.210000e-06	3.642970e-06	4.145067e-09	2.586569e+01	2.692798e+02
1.220000e-06	3.718877e-06	4.232633e-09	2.640464e+01	2.749791e+02
1.230000e-06	3.793199e-06	4.315830e-09	2.693234e+01	2.804512e+02
1.240000e-06	3.865892e-06	4.395383e-09	2.744847e+01	2.857104e+02
1.250000e-06	3.937169e-06	4.473409e-09	2.795455e+01	2.907703e+02
1.260000e-06	4.007093e-06	4.548619e-09	2.845102e+01	2.956435e+02
1.270000e-06	4.075687e-06	4.621169e-09	2.893805e+01	3.003412e+02
1.280000e-06	4.142883e-06	4.690364e-09	2.941515e+01	3.048724e+02
1.290000e-06	4.208369e-06	4.757307e-09	2.988011e+01	3.092441e+02
1.300000e-06	4.272169e-06	4.821588e-09	3.033310e+01	3.134607e+02
1.310000e-06	4.334539e-06	4.882647e-09	3.077594e+01	3.175242e+02
1.320000e-06	4.395514e-06	4.941897e-09	3.120887e+01	3.214347e+02
1.330000e-06	4.455111e-06	4.998737e-09	3.163202e+01	3.251906e+02
1.340000e-06	4.513052e-06	5.051281e-09	3.204342e+01	3.287889e+02
1.350000e-06	4.569176e-06	5.102127e-09	3.244190e+01	3.322268e+02
1.360000e-06	4.623723e-06	5.152297e-09	3.282920e+01	3.355014e+02
1.370000e-06	4.676638e-06	5.197537e-09	3.320490e+01	3.386112e+02
1.380000e-06	4.727537e-06	5.238415e-09	3.356629e+01	3.415561e+02
1.390000e-06	4.776375e-06	5.277951e-09	3.391305e+01	3.443382e+02
1.400000e-06	4.823451e-06	5.316061e-09	3.424730e+01	3.469614e+02
1.410000e-06	4.868913e-06	5.351391e-09	3.457009e+01	3.494318e+02
1.420000e-06	4.912850e-06	5.384050e-09	3.488204e+01	3.517567e+02
1.430000e-06	4.955021e-06	5.415001e-09	3.518147e+01	3.539447e+02
1.440000e-06	4.995255e-06	5.444203e-09	3.546713e+01	3.560044e+02
1.450000e-06	5.033790e-06	5.471879e-09	3.574074e+01	3.579440e+02
1.460000e-06	5.070718e-06	5.497947e-09	3.600293e+01	3.597708e+02
1.470000e-06	5.106005e-06	5.523196e-09	3.625347e+01	3.614903e+02
1.480000e-06	5.139383e-06	5.547497e-09	3.649047e+01	3.631061e+02
1.490000e-06	5.170826e-06	5.568480e-09	3.671372e+01	3.646203e+02
1.500000e-06	5.200563e-06	5.587727e-09	3.692486e+01	3.660329e+02
1.510000e-06	5.228682e-06	5.606627e-09	3.712451e+01	3.673433e+02
1.520000e-06	5.254892e-06	5.623701e-09	3.731060e+01	3.685499e+02
1.530000e-06	5.278915e-06	5.638470e-09	3.748117e+01	3.696514e+02
1.540000e-06	5.300994e-06	5.651751e-09	3.763793e+01	3.706471e+02
1.550000e-06	5.321349e-06	5.664546e-09	3.778246e+01	3.715376e+02
1.560000e-06	5.339897e-06	5.677732e-09	3.791415e+01	3.723246e+02
1.570000e-06	5.356450e-06	5.691058e-09	3.803168e+01	3.730113e+02
1.580000e-06	5.371027e-06	5.702556e-09	3.813518e+01	3.736023e+02
1.590000e-06	5.383663e-06	5.710923e-09	3.822489e+01	3.741024e+02
1.600000e-06	5.394085e-06	5.717122e-09	3.829890e+01	3.745169e+02
1.610000e-06	5.402342e-06	5.721316e-09	3.835752e+01	3.748501e+02
1.620000e-06	5.408704e-06	5.725939e-09	3.840269e+01	3.751053e+02
1.630000e-06	5.413252e-06	5.731730e-09	3.843498e+01	3.752840e+02
1.640000e-06	5.416008e-06	5.735576e-09	3.845455e+01	3.753862e+02
1.650000e-06	5.416776e-06	5.738796e-09	3.846000e+01	3.754097e+02
1.660000e-06	5.415588e-06	5.735227e-09	3.845157e+01	3.753512e+02
1.670000e-06	5.412695e-06	5.725647e-09	3.843103e+01	3.752066e+02
1.680000e-06	5.408214e-06	5.723525e-09	3.839921e+01	3.749717e+02
1.690000e-06	5.401831e-06	5.719762e-09	3.835389e+01	3.746435e+02
1.700000e-06	5.393551e-06	5.715001e-09	3.829510e+01	3.742205e+02
1.710000e-06	5.383723e-06	5.713718e-09	3.822532e+01	3.737037e+02
1.720000e-06	5.372193e-06	5.716811e-09	3.814345e+01	3.730966e+02
1.730000e-06	5.358653e-06	5.736208e-09	3.804732e+01	3.724056e+02
1.740000e-06	5.343086e-06	5.642751e-09	3.793679e+01	3.716390e+02
1.750000e-06	5.325297e-06	5.589020e-09	3.781049e+01	3.708068e+02
1.760000e-06	5.304881e-06	5.624096e-09	3.766553e+01	3.699192e+02
1.770000e-06	5.282006e-06	5.600657e-09	3.750311e+01	3.689858e+02
1.780000e-06	5.257647e-06	5.749050e-09	3.733016e+01	3.680142e+02
1.790000e-06	5.232634e-06	5.692063e-09	3.715256e+01	3.670088e+02
1.800000e-06	5.206364e-06	5.459048e-09	3.696604e+01	3.659704e+02
1.810000e-06	5.177806e-06	5.649701e-09	3.676328e+01	3.648957e+02
1.820000e-06	5.147328e-06	5.525067e-09	3.654688e+01	3.637772e+02
1.830000e-06	5.115301e-06	5.384280e-09	3.631948e+01	3.626040e+02
1.840000e-06	5.081284e-06	5.661304e-09	3.607796e+01	3.613628e+02
1.850000e-06	5.045614e-06	5.455600e-09	3.582469e+01	3.600388e+02
1.860000e-06	5.008287e-06	5.362521e-09	3.555966e+01	3.586173e+02
1.870000e-06	4.968939e-06	5.518926e-09	3.528029e+01	3.570854e+02
1.880000e-06	4.927927e-06	5.305408e-09	3.498909e+01	3.554327e+02
1.890000e-06	4.885148e-06	5.376895e-09	3.468535e+01	3.536525e+02
1.900000e-06	4.840673e-06	5.373533e-09	3.436958e+01	3.517423e+02
1.910000e-06	4.794543e-06	5.244468e-09	3.404205e+01	3.497036e+02
1.920000e-06	4.746310e-06	5.362211e-09	3.369959e+01	3.475418e+02
1.930000e-06	4.696324e-06	5.147757e-09	3.334467e+01	3.452651e+02
1.940000e-06	4.644714e-06	5.173463e-09	3.297824e+01	3.428837e+02
1.950000e-06	4.591037e-06	5.249218e-09	3.259712e+01	3.404083e+02
1.960000e-06	4.535342e-06	5.081264e-09	3.220168e+01	3.378488e+02
1.970000e-06	4.477930e-06	5.081515e-09	3.179404e+01	3.352138e+02
1.980000e-06	4.419072e-06	5.004625e-09	3.137614e+01	3.325090e+02
1.990000e-06	4.358711e-06	5.045422e-09	3.094757e+01	3.297375e+02
2.000000e-06	4.296655e-06	4.979180e-09	3.050696e+01	3.268993e+02
2.010000e-06	4.232970e-06	4.855431e-09	3.005479e+01	3.239921e+02
2.020000e-06	4.167756e-06	4.909280e-09	2.959176e+01	3.210114e+02
2.030000e-06	4.101128e-06	4.771933e-09	2.911869e+01	3.179518e+02
2.040000e-06	4.033061e-06	4.749008e-09	2.863540e+01	3.148076e+02
2.050000e-06	3.963498e-06	4.741701e-09	2.814149e+01	3.115738e+02
2.060000e-06	3.892397e-06	4.700422e-09	2.763666e+01	3.082470e+02
2.070000e-06	3.819922e-06	4.654411e-09	2.712207e+01	3.048252e+02
2.080000e-06	3.746171e-06	4.506126e-09	2.659843e+01	3.013087e+02
2.090000e-06	3.671015e-06	4.502830e-09	2.606481e+01	2.976992e+02
2.100000e-06	3.594453e-06	4.458567e-09	2.552121e+01	2.939999e+02
2.110000e-06	3.516286e-06	4.406704e-09	2.496621e+01	2.902148e+02
2.120000e-06	3.436693e-06	4.342236e-09	2.440109e+01	2.863479e+02
2.130000e-06	3.356057e-06	4.268469e-09	2.382856e+01	2.824024e+02
2.140000e-06	3.274248e-06	4.231200e-09	2.324770e+01	2.783805e+02
2.150000e-06	3.191310e-06	4.137147e-09	2.265883e+01	2.742828e+02
2.160000e-06	3.107409e-06	4.098882e-09	2.206312e+01	2.701083e+02
2.170000e-06	3.022383e-06	4.038351e-09	2.145942e+01	2.658542e+02
2.180000e-06	2.936017e-06	3.967996e-09	2.084620e+01	2.615169e+02
2.190000e-06	2.848414e-06	3.887875e-09	2.022421e+01	2.570916e+02
2.200000e-06	2.759841e-06	3.815314e-09	1.959532e+01	2.525738e+02
2.210000e-06	2.670299e-06	3.773941e-09	1.895957e+01	2.479591e+02
2.220000e-06	2.579787e-06	3.692960e-09	1.831692e+01	2.432443e+02
2.230000e-06	2.488437e-06	3.605758e-09	1.766832e+01	2.384274e+02
2.240000e-06	2.396334e-06	3.523532e-09	1.701437e+01	2.335076e+02
2.250000e-06	2.303375e-06	3.466631e-09	1.635434e+01	2.284858e+02
2.260000e-06	2.209535e-06	3.396113e-09	1.568806e+01	2.233637e+02
2.270000e-06	2.114793e-06	3.315210e-09	1.501538e+01	2.181438e+02
2.280000e-06	2.019067e-06	3.230730e-09	1.433571e+01	2.128288e+02
2.290000e-06	1.922602e-06	3.137887e-09	1.365079e+01	2.074208e+02
2.300000e-06	1.825616e-06	3.048989e-09	1.296217e+01	2.019216e+02
2.310000e-06	1.728136e-06	2.969015e-09	1.227005e+01	1.963314e+02
2.320000e-06	1.630074e-06	2.900833e-09	1.157379e+01	1.906493e+02
2.330000e-06	1.531411e-06	2.811207e-09	1.087327e+01	1.848733e+02
2.340000e-06	1.432303e-06	2.710352e-09	1.016959e+01	1.789998e+02
2.350000e-06	1.332819e-06	2.612751e-09	9.463232e+00	1.730247e+02
2.360000e-06	1.232961e-06	2.526837e-09	8.754227e+00	1.669432e+02
2.370000e-06	1.132844e-06	2.441687e-09	8.043381e+00	1.607506e+02
2.380000e-06	1.032433e-06	2.346413e-09	7.330447e+00	1.544422e+02
2.390000e-06	9.315596e-07	2.245994e-09	6.614227e+00	1.480138e+02
2.400000e-06	8.301980e-07	2.141443e-09	5.894542e+00	1.414622e+02
2.410000e-06	7.284019e-07	2.037203e-09	5.171774e+00	1.347842e+02
2.420000e-06	6.263532e-07	1.933126e-09	4.447211e+00	1.279774e+02
2.430000e-06	5.241055e-07	1.830069e-09	3.721235e+00	1.210395e+02
2.440000e-06	4.216384e-07	1.724408e-09	2.993702e+00	1.139676e+02
2.450000e-06	3.190197e-07	1.616629e-09	2.265093e+00	1.067583e+02
2.460000e-06	2.162113e-07	1.505422e-09	1.535136e+00	9.940717e+01
2.470000e-06	1.132928e-07	1.393397e-09	8.043975e-01	9.190826e+01
2.480000e-06	1.029664e-08	1.276714e-09	7.310781e-02	8.425410e+01
2.490000e-06	-9.276755e-08	1.149231e-09	-6.586649e-01	7.643567e+01
2.500000e-06	-1.957607e-07	1.018551e-09	-1.389933e+00	6.844260e+01
2.510000e-06	-2.986834e-07	8.931587e-10	-2.120701e+00	6.026358e+01
2.520000e-06	-4.015576e-07	7.723046e-10	-2.851125e+00	5.188691e+01
2.530000e-06	-5.042761e-07	6.462541e-10	-3.580443e+00	4.330124e+01
2.540000e-06	-6.067481e-07	5.139544e-10	-4.308011e+00	3.449635e+01
2.550000e-06	-7.089383e-07	3.768797e-10	-5.033579e+00	2.546405e+01
2.560000e-06	-8.107704e-07	2.332985e-10	-5.756604e+00	1.619904e+01
2.570000e-06	-9.121884e-07	8.501151e-11	-6.476688e+00	6.699681e+00
2.580000e-06	-1.013173e-06	-6.334341e-11	-7.193693e+00	-3.031256e+00
2.590000e-06	-1.113685e-06	-2.116465e-10	-7.907349e+00	-1.298610e+01
2.600000e-06	-1.213740e-06	-3.641422e-10	-8.617754e+00	-2.315190e+01
2.610000e-06	-1.313415e-06	-5.202985e-10	-9.325461e+00	-3.351031e+01
2.620000e-06	-1.412724e-06	-6.793997e-10	-1.003057e+01	-4.403767e+01
2.630000e-06	-1.511621e-06	-8.410431e-10	-1.073276e+01	-5.470534e+01
2.640000e-06	-1.610005e-06	-1.004295e-09	-1.143130e+01	-6.548028e+01
2.650000e-06	-1.707755e-06	-1.167601e-09	-1.212534e+01	-7.632575e+01
2.660000e-06	-1.804861e-06	-1.330771e-09	-1.281481e+01	-8.720228e+01
2.670000e-06	-1.901384e-06	-1.496600e-09	-1.350014e+01	-9.806867e+01
2.680000e-06	-1.997385e-06	-1.662967e-09	-1.418176e+01	-1.088832e+02
2.690000e-06	-2.092797e-06	-1.824695e-09	-1.485921e+01	-1.196045e+02
2.700000e-06	-2.187358e-06	-1.982070e-09	-1.553060e+01	-1.301929e+02
2.710000e-06	-2.280911e-06	-2.139293e-09	-1.619485e+01	-1.406114e+02
2.720000e-06	-2.373500e-06	-2.296269e-09	-1.685224e+01	-1.508263e+02
2.730000e-06	-2.465219e-06	-2.448722e-09	-1.750346e+01	-1.608078e+02
2.740000e-06	-2.556114e-06	-2.595315e-09	-1.814883e+01	-1.705308e+02
2.750000e-06	-2.646062e-06	-2.738318e-09	-1.878748e+01	-1.799746e+02
2.760000e-06	-2.735052e-06	-2.877839e-09	-1.941932e+01	-1.891235e+02
2.770000e-06	-2.823243e-06	-3.012652e-09	-2.004549e+01	-1.979661e+02
2.780000e-06	-2.910623e-06	-3.143578e-09	-2.066591e+01	-2.064953e+02
2.790000e-06	-2.996908e-06	-3.269297e-09	-2.127854e+01	-2.147078e+02
2.800000e-06	-3.081918e-06	-3.390106e-09	-2.188213e+01	-2.226040e+02
2.810000e-06	-3.165823e-06	-3.507626e-09	-2.247787e+01	-2.301868e+02
2.820000e-06	-3.248706e-06	-3.621361e-09	-2.306635e+01	-2.374620e+02
2.830000e-06	-3.330516e-06	-3.730535e-09	-2.364721e+01	-2.444375e+02
2.840000e-06	-3.411260e-06	-3.834585e-09	-2.422051e+01	-2.511230e+02
2.850000e-06	-3.490848e-06	-3.932346e-09	-2.478560e+01	-2.575299e+02
2.860000e-06	-3.568920e-06	-4.024309e-09	-2.533992e+01	-2.636706e+02
2.870000e-06	-3.645474e-06	-4.112927e-09	-2.588347e+01	-2.695587e+02
2.880000e-06	-3.720681e-06	-4.197905e-09	-2.641745e+01	-2.752083e+02
2.890000e-06	-3.794384e-06	-4.280232e-09	-2.694075e+01	-2.806338e+02
2.900000e-06	-3.866779e-06	-4.360153e-09	-2.745477e+01	-2.858493e+02
2.910000e-06	-3.937940e-06	-4.436882e-09	-2.796002e+01	-2.908683e+02
2.920000e-06	-4.007484e-06	-4.510378e-09	-2.845380e+01	-2.957032e+02
2.930000e-06	-4.075445e-06	-4.581766e-09	-2.893633e+01	-3.003646e+02
2.940000e-06	-4.142015e-06	-4.651687e-09	-2.940899e+01	-3.048613e+02
