# Temperatura_=_75.49
# Concentracion g/m^3_=_15000.0
# C_Vs_to_Am_M_A/Vsm_=_65563218390.804596
# pendiente_HvsI_1/m_=_3716.3
# ordenada_HvsI_A/m_=_1297.0
# frecuencia_Hz_=_301574.14737246925

Tiempo_(s)	Campo_(V.s)	Magnetizacion_(V.s)	Campo_(kA/m)	Magnetizacion_(A/m)
0.000000e+00	-5.377295e-06	-6.699515e-09	-3.834134e+01	-4.377557e+02
1.000000e-08	-5.374409e-06	-6.698720e-09	-3.832077e+01	-4.375786e+02
2.000000e-08	-5.369778e-06	-6.693063e-09	-3.828774e+01	-4.373048e+02
3.000000e-08	-5.363524e-06	-6.685631e-09	-3.824315e+01	-4.369313e+02
4.000000e-08	-5.355695e-06	-6.678535e-09	-3.818733e+01	-4.364561e+02
5.000000e-08	-5.346043e-06	-6.669476e-09	-3.811851e+01	-4.358793e+02
6.000000e-08	-5.334319e-06	-6.660443e-09	-3.803491e+01	-4.352029e+02
7.000000e-08	-5.320638e-06	-6.645875e-09	-3.793737e+01	-4.344315e+02
8.000000e-08	-5.304862e-06	-6.618652e-09	-3.782488e+01	-4.335711e+02
9.000000e-08	-5.286869e-06	-6.647661e-09	-3.769658e+01	-4.326293e+02
1.000000e-07	-5.266842e-06	-6.665079e-09	-3.755379e+01	-4.316136e+02
1.100000e-07	-5.244913e-06	-6.622359e-09	-3.739743e+01	-4.305311e+02
1.200000e-07	-5.221338e-06	-6.612600e-09	-3.722933e+01	-4.293872e+02
1.300000e-07	-5.196241e-06	-6.527356e-09	-3.705038e+01	-4.281847e+02
1.400000e-07	-5.169472e-06	-6.433403e-09	-3.685952e+01	-4.269235e+02
1.500000e-07	-5.141100e-06	-6.571231e-09	-3.665721e+01	-4.256002e+02
1.600000e-07	-5.111330e-06	-6.503706e-09	-3.644495e+01	-4.242084e+02
1.700000e-07	-5.080005e-06	-6.421493e-09	-3.622159e+01	-4.227394e+02
1.800000e-07	-5.046567e-06	-6.518971e-09	-3.598317e+01	-4.211827e+02
1.900000e-07	-5.011247e-06	-6.355115e-09	-3.573133e+01	-4.195273e+02
2.000000e-07	-4.974486e-06	-6.328665e-09	-3.546922e+01	-4.177629e+02
2.100000e-07	-4.935970e-06	-6.424939e-09	-3.519459e+01	-4.158805e+02
2.200000e-07	-4.895609e-06	-6.315657e-09	-3.490681e+01	-4.138737e+02
2.300000e-07	-4.853288e-06	-6.286893e-09	-3.460505e+01	-4.117392e+02
2.400000e-07	-4.809030e-06	-6.266435e-09	-3.428948e+01	-4.094767e+02
2.500000e-07	-4.763080e-06	-6.176041e-09	-3.396185e+01	-4.070890e+02
2.600000e-07	-4.715200e-06	-6.193610e-09	-3.362045e+01	-4.045814e+02
2.700000e-07	-4.665204e-06	-6.136766e-09	-3.326397e+01	-4.019611e+02
2.800000e-07	-4.613152e-06	-6.082412e-09	-3.289283e+01	-3.992362e+02
2.900000e-07	-4.559243e-06	-6.050469e-09	-3.250845e+01	-3.964144e+02
3.000000e-07	-4.503808e-06	-5.996522e-09	-3.211318e+01	-3.935031e+02
3.100000e-07	-4.446673e-06	-5.956230e-09	-3.170579e+01	-3.905075e+02
3.200000e-07	-4.387697e-06	-5.914981e-09	-3.128528e+01	-3.874312e+02
3.300000e-07	-4.327194e-06	-5.881603e-09	-3.085388e+01	-3.842754e+02
3.400000e-07	-4.265247e-06	-5.792144e-09	-3.041218e+01	-3.810393e+02
3.500000e-07	-4.201901e-06	-5.741977e-09	-2.996051e+01	-3.777205e+02
3.600000e-07	-4.137021e-06	-5.724666e-09	-2.949791e+01	-3.743152e+02
3.700000e-07	-4.070429e-06	-5.662215e-09	-2.902309e+01	-3.708191e+02
3.800000e-07	-4.002336e-06	-5.604469e-09	-2.853757e+01	-3.672281e+02
3.900000e-07	-3.932884e-06	-5.537219e-09	-2.804236e+01	-3.635386e+02
4.000000e-07	-3.862158e-06	-5.475669e-09	-2.753807e+01	-3.597480e+02
4.100000e-07	-3.790242e-06	-5.422360e-09	-2.702529e+01	-3.558548e+02
4.200000e-07	-3.716847e-06	-5.359322e-09	-2.650197e+01	-3.518590e+02
4.300000e-07	-3.641876e-06	-5.311841e-09	-2.596741e+01	-3.477614e+02
4.400000e-07	-3.565454e-06	-5.246781e-09	-2.542250e+01	-3.435639e+02
4.500000e-07	-3.487555e-06	-5.169399e-09	-2.486707e+01	-3.392685e+02
4.600000e-07	-3.408250e-06	-5.097108e-09	-2.430160e+01	-3.348773e+02
4.700000e-07	-3.327659e-06	-5.034060e-09	-2.372697e+01	-3.303921e+02
4.800000e-07	-3.245852e-06	-4.972522e-09	-2.314366e+01	-3.258135e+02
4.900000e-07	-3.162994e-06	-4.892775e-09	-2.255287e+01	-3.211417e+02
5.000000e-07	-3.079174e-06	-4.818128e-09	-2.195521e+01	-3.163753e+02
5.100000e-07	-2.994403e-06	-4.743857e-09	-2.135078e+01	-3.115122e+02
5.200000e-07	-2.908637e-06	-4.669310e-09	-2.073925e+01	-3.065492e+02
5.300000e-07	-2.821835e-06	-4.587448e-09	-2.012033e+01	-3.014825e+02
5.400000e-07	-2.734180e-06	-4.501418e-09	-1.949533e+01	-2.963081e+02
5.500000e-07	-2.645562e-06	-4.419587e-09	-1.886346e+01	-2.910216e+02
5.600000e-07	-2.555723e-06	-4.336525e-09	-1.822289e+01	-2.856193e+02
5.700000e-07	-2.464813e-06	-4.257615e-09	-1.757468e+01	-2.800977e+02
5.800000e-07	-2.373039e-06	-4.171696e-09	-1.692031e+01	-2.744542e+02
5.900000e-07	-2.280456e-06	-4.082745e-09	-1.626017e+01	-2.686872e+02
6.000000e-07	-2.187145e-06	-3.988674e-09	-1.559484e+01	-2.627958e+02
6.100000e-07	-2.093057e-06	-3.895131e-09	-1.492397e+01	-2.567803e+02
6.200000e-07	-1.998223e-06	-3.804351e-09	-1.424779e+01	-2.506414e+02
6.300000e-07	-1.902780e-06	-3.711306e-09	-1.356725e+01	-2.443808e+02
6.400000e-07	-1.806654e-06	-3.614587e-09	-1.288185e+01	-2.380002e+02
6.500000e-07	-1.709692e-06	-3.512080e-09	-1.219049e+01	-2.315014e+02
6.600000e-07	-1.611903e-06	-3.408294e-09	-1.149324e+01	-2.248857e+02
6.700000e-07	-1.513482e-06	-3.302248e-09	-1.079147e+01	-2.181537e+02
6.800000e-07	-1.414568e-06	-3.199081e-09	-1.008619e+01	-2.113051e+02
6.900000e-07	-1.315200e-06	-3.092715e-09	-9.377679e+00	-2.043380e+02
7.000000e-07	-1.215426e-06	-2.983760e-09	-8.666267e+00	-1.972490e+02
7.100000e-07	-1.115258e-06	-2.875543e-09	-7.952041e+00	-1.900332e+02
7.200000e-07	-1.014716e-06	-2.764421e-09	-7.235154e+00	-1.826840e+02
7.300000e-07	-9.138667e-07	-2.650213e-09	-6.516078e+00	-1.751934e+02
7.400000e-07	-8.128087e-07	-2.532482e-09	-5.795512e+00	-1.675525e+02
7.500000e-07	-7.115253e-07	-2.411914e-09	-5.073338e+00	-1.597514e+02
7.600000e-07	-6.099136e-07	-2.287826e-09	-4.348824e+00	-1.517804e+02
7.700000e-07	-5.080257e-07	-2.162102e-09	-3.622340e+00	-1.436297e+02
7.800000e-07	-4.059518e-07	-2.035100e-09	-2.894529e+00	-1.352907e+02
7.900000e-07	-3.037368e-07	-1.905476e-09	-2.165713e+00	-1.267554e+02
8.000000e-07	-2.014545e-07	-1.769418e-09	-1.436416e+00	-1.180174e+02
8.100000e-07	-9.911198e-08	-1.631459e-09	-7.066910e-01	-1.090712e+02
8.200000e-07	3.306973e-09	-1.493952e-09	2.357947e-02	-9.991268e+01
8.300000e-07	1.057435e-07	-1.351867e-09	7.539753e-01	-9.053814e+01
8.400000e-07	2.081608e-07	-1.204541e-09	1.484234e+00	-8.094429e+01
8.500000e-07	3.104878e-07	-1.051667e-09	2.213849e+00	-7.112758e+01
8.600000e-07	4.127174e-07	-8.947656e-10	2.942769e+00	-6.108387e+01
8.700000e-07	5.148969e-07	-7.339251e-10	3.671333e+00	-5.080820e+01
8.800000e-07	6.168974e-07	-5.723642e-10	4.398619e+00	-4.029483e+01
8.900000e-07	7.186885e-07	-4.107047e-10	5.124414e+00	-2.953758e+01
9.000000e-07	8.202593e-07	-2.448249e-10	5.848636e+00	-1.853055e+01
9.100000e-07	9.214477e-07	-7.290658e-11	6.570132e+00	-7.269122e+00
9.200000e-07	1.022265e-06	1.028539e-10	7.288982e+00	4.248727e+00
9.300000e-07	1.122777e-06	2.822221e-10	8.005660e+00	1.602103e+01
9.400000e-07	1.222978e-06	4.669270e-10	8.720113e+00	2.804037e+01
9.500000e-07	1.322814e-06	6.561226e-10	9.431968e+00	4.029261e+01
9.600000e-07	1.422241e-06	8.465564e-10	1.014090e+01	5.275598e+01
9.700000e-07	1.521146e-06	1.036489e-09	1.084612e+01	6.540050e+01
9.800000e-07	1.619316e-06	1.227935e-09	1.154609e+01	7.818816e+01
9.900000e-07	1.716667e-06	1.419674e-09	1.224023e+01	9.107351e+01
1.000000e-06	1.813224e-06	1.612720e-09	1.292870e+01	1.040050e+02
1.010000e-06	1.909082e-06	1.807293e-09	1.361219e+01	1.169269e+02
1.020000e-06	2.004268e-06	2.002602e-09	1.429089e+01	1.297813e+02
1.030000e-06	2.098769e-06	2.196525e-09	1.496471e+01	1.425104e+02
1.040000e-06	2.192533e-06	2.387024e-09	1.563326e+01	1.550593e+02
1.050000e-06	2.285549e-06	2.574335e-09	1.629648e+01	1.673777e+02
1.060000e-06	2.377879e-06	2.756031e-09	1.695482e+01	1.794220e+02
1.070000e-06	2.469512e-06	2.932964e-09	1.760819e+01	1.911563e+02
1.080000e-06	2.560301e-06	3.107004e-09	1.825553e+01	2.025529e+02
1.090000e-06	2.649985e-06	3.277511e-09	1.889500e+01	2.135924e+02
1.100000e-06	2.738471e-06	3.442432e-09	1.952592e+01	2.242632e+02
1.110000e-06	2.825924e-06	3.599723e-09	2.014949e+01	2.345602e+02
1.120000e-06	2.912491e-06	3.752268e-09	2.076672e+01	2.444835e+02
1.130000e-06	2.998119e-06	3.900407e-09	2.137727e+01	2.540368e+02
1.140000e-06	3.082791e-06	4.043457e-09	2.198101e+01	2.632266e+02
1.150000e-06	3.166551e-06	4.178016e-09	2.257823e+01	2.720601e+02
1.160000e-06	3.249315e-06	4.303779e-09	2.316836e+01	2.805452e+02
1.170000e-06	3.330870e-06	4.424663e-09	2.374986e+01	2.886897e+02
1.180000e-06	3.411110e-06	4.541810e-09	2.432199e+01	2.965012e+02
1.190000e-06	3.490135e-06	4.655916e-09	2.488546e+01	3.039875e+02
1.200000e-06	3.567972e-06	4.766032e-09	2.544046e+01	3.111570e+02
1.210000e-06	3.644587e-06	4.871828e-09	2.598674e+01	3.180192e+02
1.220000e-06	3.719877e-06	4.972391e-09	2.652357e+01	3.245852e+02
1.230000e-06	3.793592e-06	5.066440e-09	2.704918e+01	3.308680e+02
1.240000e-06	3.865691e-06	5.154979e-09	2.756326e+01	3.368823e+02
1.250000e-06	3.936347e-06	5.240390e-09	2.806706e+01	3.426445e+02
1.260000e-06	4.005662e-06	5.325114e-09	2.856129e+01	3.481715e+02
1.270000e-06	4.073655e-06	5.408964e-09	2.904609e+01	3.534805e+02
1.280000e-06	4.140226e-06	5.488027e-09	2.952076e+01	3.585875e+02
1.290000e-06	4.205083e-06	5.562270e-09	2.998320e+01	3.635067e+02
1.300000e-06	4.268306e-06	5.633539e-09	3.043400e+01	3.682495e+02
1.310000e-06	4.330146e-06	5.704341e-09	3.087493e+01	3.728238e+02
1.320000e-06	4.390591e-06	5.773448e-09	3.130592e+01	3.772343e+02
1.330000e-06	4.449650e-06	5.837868e-09	3.172702e+01	3.814821e+02
1.340000e-06	4.507042e-06	5.898835e-09	3.213624e+01	3.855660e+02
1.350000e-06	4.562608e-06	5.956774e-09	3.253244e+01	3.894825e+02
1.360000e-06	4.616505e-06	6.011379e-09	3.291674e+01	3.932276e+02
1.370000e-06	4.668667e-06	6.063808e-09	3.328866e+01	3.967974e+02
1.380000e-06	4.718901e-06	6.114027e-09	3.364684e+01	4.001894e+02
1.390000e-06	4.767150e-06	6.162664e-09	3.399087e+01	4.034030e+02
1.400000e-06	4.813628e-06	6.207727e-09	3.432227e+01	4.064402e+02
1.410000e-06	4.858560e-06	6.247853e-09	3.464264e+01	4.093054e+02
1.420000e-06	4.901942e-06	6.285753e-09	3.495196e+01	4.120051e+02
1.430000e-06	4.943490e-06	6.321718e-09	3.524821e+01	4.145477e+02
1.440000e-06	4.983189e-06	6.355636e-09	3.553128e+01	4.169419e+02
1.450000e-06	5.021226e-06	6.388424e-09	3.580249e+01	4.191966e+02
1.460000e-06	5.057663e-06	6.420022e-09	3.606229e+01	4.213196e+02
1.470000e-06	5.092351e-06	6.452346e-09	3.630963e+01	4.233168e+02
1.480000e-06	5.125042e-06	6.482354e-09	3.654272e+01	4.251923e+02
1.490000e-06	5.155891e-06	6.507966e-09	3.676268e+01	4.269477e+02
1.500000e-06	5.185088e-06	6.529948e-09	3.697086e+01	4.285829e+02
1.510000e-06	5.212635e-06	6.548477e-09	3.716728e+01	4.300964e+02
1.520000e-06	5.238205e-06	6.565304e-09	3.734960e+01	4.314859e+02
1.530000e-06	5.261671e-06	6.582180e-09	3.751692e+01	4.327495e+02
1.540000e-06	5.283322e-06	6.600446e-09	3.767129e+01	4.338859e+02
1.550000e-06	5.303308e-06	6.616885e-09	3.781380e+01	4.348956e+02
1.560000e-06	5.321457e-06	6.631026e-09	3.794320e+01	4.357805e+02
1.570000e-06	5.337533e-06	6.644913e-09	3.805783e+01	4.365446e+02
1.580000e-06	5.351592e-06	6.657618e-09	3.815807e+01	4.371933e+02
1.590000e-06	5.363680e-06	6.667827e-09	3.824426e+01	4.377330e+02
1.600000e-06	5.373578e-06	6.673836e-09	3.831484e+01	4.381704e+02
1.610000e-06	5.381355e-06	6.677006e-09	3.837029e+01	4.385115e+02
1.620000e-06	5.387284e-06	6.681209e-09	3.841256e+01	4.387613e+02
1.630000e-06	5.391443e-06	6.686323e-09	3.844222e+01	4.389227e+02
1.640000e-06	5.393698e-06	6.689203e-09	3.845830e+01	4.389971e+02
1.650000e-06	5.393937e-06	6.690437e-09	3.846000e+01	4.389835e+02
1.660000e-06	5.392363e-06	6.688659e-09	3.844878e+01	4.388795e+02
1.670000e-06	5.389133e-06	6.681996e-09	3.842575e+01	4.386817e+02
1.680000e-06	5.384203e-06	6.679734e-09	3.839060e+01	4.383865e+02
1.690000e-06	5.377394e-06	6.676889e-09	3.834205e+01	4.379910e+02
1.700000e-06	5.368787e-06	6.670509e-09	3.828068e+01	4.374937e+02
1.710000e-06	5.358609e-06	6.661828e-09	3.820811e+01	4.368950e+02
1.720000e-06	5.346756e-06	6.650237e-09	3.812359e+01	4.361976e+02
1.730000e-06	5.332936e-06	6.663782e-09	3.802506e+01	4.354063e+02
1.740000e-06	5.317011e-06	6.614206e-09	3.791150e+01	4.345275e+02
1.750000e-06	5.298721e-06	6.557040e-09	3.778109e+01	4.335689e+02
1.760000e-06	5.277758e-06	6.567216e-09	3.763162e+01	4.325381e+02
1.770000e-06	5.254520e-06	6.532671e-09	3.746593e+01	4.314419e+02
1.780000e-06	5.230083e-06	6.613244e-09	3.729169e+01	4.302850e+02
1.790000e-06	5.204929e-06	6.626915e-09	3.711233e+01	4.290698e+02
1.800000e-06	5.178295e-06	6.419119e-09	3.692243e+01	4.277954e+02
1.810000e-06	5.149408e-06	6.516186e-09	3.671646e+01	4.264577e+02
1.820000e-06	5.118680e-06	6.508370e-09	3.649736e+01	4.250500e+02
1.830000e-06	5.086356e-06	6.341774e-09	3.626688e+01	4.235628e+02
1.840000e-06	5.052091e-06	6.511800e-09	3.602257e+01	4.219856e+02
1.850000e-06	5.016166e-06	6.440817e-09	3.576641e+01	4.203075e+02
1.860000e-06	4.978497e-06	6.302042e-09	3.549782e+01	4.185181e+02
1.870000e-06	4.938941e-06	6.396368e-09	3.521578e+01	4.166092e+02
1.880000e-06	4.897692e-06	6.262509e-09	3.492166e+01	4.145750e+02
1.890000e-06	4.854642e-06	6.275208e-09	3.461470e+01	4.124127e+02
1.900000e-06	4.809996e-06	6.291702e-09	3.429637e+01	4.101228e+02
1.910000e-06	4.763542e-06	6.133521e-09	3.396514e+01	4.077086e+02
1.920000e-06	4.715018e-06	6.211500e-09	3.361915e+01	4.051760e+02
1.930000e-06	4.664878e-06	6.102682e-09	3.326164e+01	4.025323e+02
1.940000e-06	4.613021e-06	6.046355e-09	3.289189e+01	3.997857e+02
1.950000e-06	4.559108e-06	6.092088e-09	3.250748e+01	3.969439e+02
1.960000e-06	4.503271e-06	5.977100e-09	3.210935e+01	3.940138e+02
1.970000e-06	4.445765e-06	5.956585e-09	3.169932e+01	3.910005e+02
1.980000e-06	4.386835e-06	5.873890e-09	3.127914e+01	3.879068e+02
1.990000e-06	4.326411e-06	5.869575e-09	3.084830e+01	3.847337e+02
2.000000e-06	4.264262e-06	5.840445e-09	3.040516e+01	3.814799e+02
2.010000e-06	4.200469e-06	5.708306e-09	2.995030e+01	3.781426e+02
2.020000e-06	4.135197e-06	5.721782e-09	2.948490e+01	3.747180e+02
2.030000e-06	4.068513e-06	5.631051e-09	2.900943e+01	3.712017e+02
2.040000e-06	4.000402e-06	5.584581e-09	2.852378e+01	3.675896e+02
2.050000e-06	3.930837e-06	5.545875e-09	2.802777e+01	3.638783e+02
2.060000e-06	3.859808e-06	5.472944e-09	2.752131e+01	3.600655e+02
2.070000e-06	3.787368e-06	5.447129e-09	2.700480e+01	3.561500e+02
2.080000e-06	3.713603e-06	5.322109e-09	2.647884e+01	3.521320e+02
2.090000e-06	3.638488e-06	5.281257e-09	2.594325e+01	3.480126e+02
2.100000e-06	3.561911e-06	5.232745e-09	2.539724e+01	3.437936e+02
2.110000e-06	3.483737e-06	5.167479e-09	2.483984e+01	3.394773e+02
2.120000e-06	3.404219e-06	5.103763e-09	2.427286e+01	3.350656e+02
2.130000e-06	3.323614e-06	5.010226e-09	2.369813e+01	3.305600e+02
2.140000e-06	3.241841e-06	4.962928e-09	2.311507e+01	3.259613e+02
2.150000e-06	3.158968e-06	4.880450e-09	2.252416e+01	3.212690e+02
2.160000e-06	3.075121e-06	4.817025e-09	2.192632e+01	3.164819e+02
2.170000e-06	2.990178e-06	4.744514e-09	2.132065e+01	3.115974e+02
2.180000e-06	2.903919e-06	4.668418e-09	2.070561e+01	3.066123e+02
2.190000e-06	2.816475e-06	4.592714e-09	2.008211e+01	3.015226e+02
2.200000e-06	2.728017e-06	4.509087e-09	1.945138e+01	2.963242e+02
2.210000e-06	2.638632e-06	4.439326e-09	1.881405e+01	2.910130e+02
2.220000e-06	2.548313e-06	4.346680e-09	1.817005e+01	2.855850e+02
2.230000e-06	2.457129e-06	4.261877e-09	1.751989e+01	2.800372e+02
2.240000e-06	2.365252e-06	4.169691e-09	1.686479e+01	2.743671e+02
2.250000e-06	2.272555e-06	4.088504e-09	1.620384e+01	2.685732e+02
2.260000e-06	2.178961e-06	4.009753e-09	1.553649e+01	2.626550e+02
2.270000e-06	2.084438e-06	3.918837e-09	1.486252e+01	2.566126e+02
2.280000e-06	1.988978e-06	3.820555e-09	1.418187e+01	2.504473e+02
2.290000e-06	1.892739e-06	3.715718e-09	1.349566e+01	2.441606e+02
2.300000e-06	1.795954e-06	3.619728e-09	1.280556e+01	2.377542e+02
2.310000e-06	1.698742e-06	3.527164e-09	1.211242e+01	2.312300e+02
2.320000e-06	1.600996e-06	3.430497e-09	1.141547e+01	2.245890e+02
2.330000e-06	1.502684e-06	3.321201e-09	1.071448e+01	2.178319e+02
2.340000e-06	1.403816e-06	3.215484e-09	1.000953e+01	2.109578e+02
2.350000e-06	1.304535e-06	3.109404e-09	9.301633e+00	2.039647e+02
2.360000e-06	1.205003e-06	3.003348e-09	8.591943e+00	1.968487e+02
2.370000e-06	1.105222e-06	2.898431e-09	7.880489e+00	1.896047e+02
2.380000e-06	1.005107e-06	2.786147e-09	7.166646e+00	1.822256e+02
2.390000e-06	9.045625e-07	2.668390e-09	6.449738e+00	1.747034e+02
2.400000e-06	8.036159e-07	2.547225e-09	5.729965e+00	1.670287e+02
2.410000e-06	7.023206e-07	2.429009e-09	5.007707e+00	1.591917e+02
2.420000e-06	6.007350e-07	2.310113e-09	4.283378e+00	1.511827e+02
2.430000e-06	4.989274e-07	2.184043e-09	3.557466e+00	1.429922e+02
2.440000e-06	3.969496e-07	2.054886e-09	2.830341e+00	1.346114e+02
2.450000e-06	2.948374e-07	1.929508e-09	2.102258e+00	1.260329e+02
2.460000e-06	1.925499e-07	1.799918e-09	1.372925e+00	1.172505e+02
2.470000e-06	9.009778e-08	1.663151e-09	6.424177e-01	1.082588e+02
2.480000e-06	-1.238466e-08	1.521557e-09	-8.830548e-02	9.905404e+01
2.490000e-06	-1.148899e-07	1.375455e-09	-8.191909e-01	8.963252e+01
2.500000e-06	-2.173711e-07	1.227710e-09	-1.549906e+00	7.999096e+01
2.510000e-06	-3.196922e-07	1.079515e-09	-2.279479e+00	7.012572e+01
2.520000e-06	-4.218994e-07	9.315835e-10	-3.008239e+00	6.003249e+01
2.530000e-06	-5.240091e-07	7.779040e-10	-3.736304e+00	4.970612e+01
2.540000e-06	-6.259412e-07	6.158874e-10	-4.463104e+00	3.914074e+01
2.550000e-06	-7.275712e-07	4.497914e-10	-5.187749e+00	2.833017e+01
2.560000e-06	-8.288310e-07	2.807253e-10	-5.909754e+00	1.726868e+01
2.570000e-06	-9.297132e-07	1.076139e-10	-6.629068e+00	5.952097e+00
2.580000e-06	-1.030184e-06	-6.842696e-11	-7.345444e+00	-5.620874e+00
2.590000e-06	-1.130269e-06	-2.473045e-10	-8.059080e+00	-1.744721e+01
2.600000e-06	-1.229941e-06	-4.315267e-10	-8.769762e+00	-2.951817e+01
2.610000e-06	-1.329182e-06	-6.197546e-10	-9.477373e+00	-4.181803e+01
2.620000e-06	-1.427989e-06	-8.106794e-10	-1.018189e+01	-5.432328e+01
2.630000e-06	-1.526332e-06	-1.004719e-09	-1.088310e+01	-6.700221e+01
2.640000e-06	-1.624164e-06	-1.202873e-09	-1.158066e+01	-7.981512e+01
2.650000e-06	-1.721407e-06	-1.404444e-09	-1.227403e+01	-9.271516e+01
2.660000e-06	-1.818110e-06	-1.605767e-09	-1.296354e+01	-1.056497e+02
2.670000e-06	-1.914320e-06	-1.804704e-09	-1.364954e+01	-1.185623e+02
2.680000e-06	-2.009903e-06	-2.000921e-09	-1.433107e+01	-1.313948e+02
2.690000e-06	-2.104671e-06	-2.195550e-09	-1.500678e+01	-1.440901e+02
2.700000e-06	-2.198480e-06	-2.389060e-09	-1.567567e+01	-1.565939e+02
2.710000e-06	-2.291363e-06	-2.580271e-09	-1.633794e+01	-1.688573e+02
2.720000e-06	-2.383360e-06	-2.764979e-09	-1.699390e+01	-1.808382e+02
2.730000e-06	-2.474535e-06	-2.941285e-09	-1.764400e+01	-1.925024e+02
2.740000e-06	-2.564825e-06	-3.112547e-09	-1.828779e+01	-2.038241e+02
2.750000e-06	-2.654159e-06	-3.280152e-09	-1.892476e+01	-2.147856e+02
2.760000e-06	-2.742694e-06	-3.440940e-09	-1.955604e+01	-2.253768e+02
2.770000e-06	-2.830428e-06	-3.593830e-09	-2.018160e+01	-2.355938e+02
2.780000e-06	-2.917165e-06	-3.741235e-09	-2.080005e+01	-2.454377e+02
2.790000e-06	-3.002706e-06	-3.883459e-09	-2.140998e+01	-2.549128e+02
2.800000e-06	-3.087069e-06	-4.021778e-09	-2.201151e+01	-2.640258e+02
2.810000e-06	-3.170440e-06	-4.158255e-09	-2.260596e+01	-2.727843e+02
2.820000e-06	-3.252804e-06	-4.289803e-09	-2.319324e+01	-2.811961e+02
2.830000e-06	-3.334027e-06	-4.416443e-09	-2.377237e+01	-2.892688e+02
2.840000e-06	-3.414122e-06	-4.538413e-09	-2.434347e+01	-2.970102e+02
2.850000e-06	-3.493014e-06	-4.653850e-09	-2.490599e+01	-3.044281e+02
2.860000e-06	-3.570510e-06	-4.762796e-09	-2.545856e+01	-3.115312e+02
2.870000e-06	-3.646500e-06	-4.863278e-09	-2.600038e+01	-3.183292e+02
2.880000e-06	-3.721034e-06	-4.958035e-09	-2.653182e+01	-3.248336e+02
2.890000e-06	-3.794219e-06	-5.050740e-09	-2.705365e+01	-3.310579e+02
2.900000e-06	-3.866117e-06	-5.143438e-09	-2.756630e+01	-3.370171e+02
2.910000e-06	-3.936559e-06	-5.236007e-09	-2.806856e+01	-3.427276e+02
2.920000e-06	-4.005456e-06	-5.323899e-09	-2.855982e+01	-3.482068e+02
2.930000e-06	-4.072959e-06	-5.405406e-09	-2.904113e+01	-3.534715e+02
2.940000e-06	-4.139052e-06	-5.480820e-09	-2.951239e+01	-3.585374e+02
