# Temperatura_=_47.35
# Concentracion g/m^3_=_15000.0
# C_Vs_to_Am_M_A/Vsm_=_65563218390.804596
# pendiente_HvsI_1/m_=_3716.3
# ordenada_HvsI_A/m_=_1297.0
# frecuencia_Hz_=_301569.731214951

Tiempo_(s)	Campo_(V.s)	Magnetizacion_(V.s)	Campo_(kA/m)	Magnetizacion_(A/m)
0.000000e+00	-5.395117e-06	-5.220975e-09	-3.834008e+01	-3.409459e+02
1.000000e-08	-5.392077e-06	-5.221390e-09	-3.831848e+01	-3.408080e+02
2.000000e-08	-5.387301e-06	-5.217209e-09	-3.828454e+01	-3.406034e+02
3.000000e-08	-5.380879e-06	-5.211755e-09	-3.823890e+01	-3.403285e+02
4.000000e-08	-5.372864e-06	-5.205466e-09	-3.818194e+01	-3.399802e+02
5.000000e-08	-5.363042e-06	-5.196990e-09	-3.811214e+01	-3.395561e+02
6.000000e-08	-5.351166e-06	-5.187504e-09	-3.802775e+01	-3.390554e+02
7.000000e-08	-5.337368e-06	-5.173048e-09	-3.792969e+01	-3.384796e+02
8.000000e-08	-5.321437e-06	-5.174514e-09	-3.781648e+01	-3.378322e+02
9.000000e-08	-5.303262e-06	-5.212120e-09	-3.768732e+01	-3.371182e+02
1.000000e-07	-5.283068e-06	-5.198954e-09	-3.754381e+01	-3.363443e+02
1.100000e-07	-5.260979e-06	-5.156761e-09	-3.738684e+01	-3.355171e+02
1.200000e-07	-5.237268e-06	-5.130485e-09	-3.721834e+01	-3.346429e+02
1.300000e-07	-5.211971e-06	-5.042807e-09	-3.703857e+01	-3.337260e+02
1.400000e-07	-5.185004e-06	-5.063749e-09	-3.684693e+01	-3.327685e+02
1.500000e-07	-5.156463e-06	-5.149361e-09	-3.664410e+01	-3.317695e+02
1.600000e-07	-5.126472e-06	-5.036172e-09	-3.643097e+01	-3.307249e+02
1.700000e-07	-5.094809e-06	-5.047155e-09	-3.620596e+01	-3.296277e+02
1.800000e-07	-5.060946e-06	-5.059088e-09	-3.596532e+01	-3.284687e+02
1.900000e-07	-5.025351e-06	-4.941755e-09	-3.571236e+01	-3.272373e+02
2.000000e-07	-4.988325e-06	-5.025630e-09	-3.544924e+01	-3.259227e+02
2.100000e-07	-4.949473e-06	-5.017636e-09	-3.517314e+01	-3.245154e+02
2.200000e-07	-4.908801e-06	-4.912263e-09	-3.488411e+01	-3.230077e+02
2.300000e-07	-4.866157e-06	-4.920073e-09	-3.458106e+01	-3.213951e+02
2.400000e-07	-4.821624e-06	-4.865198e-09	-3.426459e+01	-3.196765e+02
2.500000e-07	-4.775333e-06	-4.846145e-09	-3.393563e+01	-3.178543e+02
2.600000e-07	-4.727098e-06	-4.861936e-09	-3.359285e+01	-3.159339e+02
2.700000e-07	-4.676781e-06	-4.781367e-09	-3.323527e+01	-3.139234e+02
2.800000e-07	-4.624384e-06	-4.751046e-09	-3.286291e+01	-3.118317e+02
2.900000e-07	-4.570216e-06	-4.725634e-09	-3.247797e+01	-3.096683e+02
3.000000e-07	-4.514514e-06	-4.685210e-09	-3.208213e+01	-3.074413e+02
3.100000e-07	-4.456995e-06	-4.671872e-09	-3.167337e+01	-3.051570e+02
3.200000e-07	-4.397669e-06	-4.645641e-09	-3.125178e+01	-3.028189e+02
3.300000e-07	-4.336899e-06	-4.579524e-09	-3.081992e+01	-3.004277e+02
3.400000e-07	-4.274676e-06	-4.516842e-09	-3.037773e+01	-2.979812e+02
3.500000e-07	-4.211028e-06	-4.520895e-09	-2.992542e+01	-2.954745e+02
3.600000e-07	-4.145803e-06	-4.487292e-09	-2.946191e+01	-2.929016e+02
3.700000e-07	-4.078870e-06	-4.426665e-09	-2.898625e+01	-2.902556e+02
3.800000e-07	-4.010432e-06	-4.387447e-09	-2.849990e+01	-2.875298e+02
3.900000e-07	-3.940647e-06	-4.331600e-09	-2.800398e+01	-2.847190e+02
4.000000e-07	-3.869698e-06	-4.295117e-09	-2.749978e+01	-2.818197e+02
4.100000e-07	-3.797569e-06	-4.260762e-09	-2.698720e+01	-2.788306e+02
4.200000e-07	-3.723864e-06	-4.216766e-09	-2.646342e+01	-2.757526e+02
4.300000e-07	-3.648461e-06	-4.160490e-09	-2.592758e+01	-2.725885e+02
4.400000e-07	-3.571608e-06	-4.092028e-09	-2.538142e+01	-2.693420e+02
4.500000e-07	-3.493378e-06	-4.042708e-09	-2.482548e+01	-2.660176e+02
4.600000e-07	-3.413720e-06	-4.008836e-09	-2.425940e+01	-2.626193e+02
4.700000e-07	-3.332813e-06	-3.961791e-09	-2.368444e+01	-2.591498e+02
4.800000e-07	-3.250727e-06	-3.894683e-09	-2.310110e+01	-2.556103e+02
4.900000e-07	-3.167519e-06	-3.836814e-09	-2.250979e+01	-2.520000e+02
5.000000e-07	-3.083353e-06	-3.783958e-09	-2.191167e+01	-2.483164e+02
5.100000e-07	-2.998250e-06	-3.724619e-09	-2.130689e+01	-2.445550e+02
5.200000e-07	-2.912146e-06	-3.670439e-09	-2.069499e+01	-2.407108e+02
5.300000e-07	-2.825059e-06	-3.605998e-09	-2.007611e+01	-2.367781e+02
5.400000e-07	-2.737098e-06	-3.531876e-09	-1.945103e+01	-2.327519e+02
5.500000e-07	-2.648039e-06	-3.465931e-09	-1.881814e+01	-2.286279e+02
5.600000e-07	-2.557734e-06	-3.409989e-09	-1.817639e+01	-2.244037e+02
5.700000e-07	-2.466439e-06	-3.352981e-09	-1.752760e+01	-2.200786e+02
5.800000e-07	-2.374335e-06	-3.278946e-09	-1.687307e+01	-2.156534e+02
5.900000e-07	-2.281417e-06	-3.201648e-09	-1.621275e+01	-2.111306e+02
6.000000e-07	-2.187679e-06	-3.131351e-09	-1.554661e+01	-2.065133e+02
6.100000e-07	-2.093174e-06	-3.063593e-09	-1.487502e+01	-2.018049e+02
6.200000e-07	-1.998046e-06	-2.992494e-09	-1.419900e+01	-1.970085e+02
6.300000e-07	-1.902335e-06	-2.916526e-09	-1.351884e+01	-1.921260e+02
6.400000e-07	-1.805825e-06	-2.837165e-09	-1.283299e+01	-1.871579e+02
6.500000e-07	-1.708419e-06	-2.756006e-09	-1.214078e+01	-1.821031e+02
6.600000e-07	-1.610228e-06	-2.679705e-09	-1.144299e+01	-1.769587e+02
6.700000e-07	-1.511448e-06	-2.605797e-09	-1.074102e+01	-1.717207e+02
6.800000e-07	-1.412200e-06	-2.527200e-09	-1.003572e+01	-1.663841e+02
6.900000e-07	-1.312533e-06	-2.438545e-09	-9.327439e+00	-1.609437e+02
7.000000e-07	-1.212457e-06	-2.349017e-09	-8.616251e+00	-1.553946e+02
7.100000e-07	-1.111966e-06	-2.263517e-09	-7.902124e+00	-1.497328e+02
7.200000e-07	-1.011159e-06	-2.177280e-09	-7.185742e+00	-1.439555e+02
7.300000e-07	-9.100456e-07	-2.087948e-09	-6.467186e+00	-1.380612e+02
7.400000e-07	-8.086646e-07	-1.994416e-09	-5.746728e+00	-1.320498e+02
7.500000e-07	-7.069912e-07	-1.899661e-09	-5.024191e+00	-1.259217e+02
7.600000e-07	-6.049917e-07	-1.805644e-09	-4.299338e+00	-1.196780e+02
7.700000e-07	-5.028204e-07	-1.710304e-09	-3.573264e+00	-1.133192e+02
7.800000e-07	-4.004635e-07	-1.611930e-09	-2.845870e+00	-1.068452e+02
7.900000e-07	-2.979436e-07	-1.510808e-09	-2.117319e+00	-1.002540e+02
8.000000e-07	-1.953404e-07	-1.406435e-09	-1.388175e+00	-9.354169e+01
8.100000e-07	-9.265054e-08	-1.303409e-09	-6.584156e-01	-8.670231e+01
8.200000e-07	1.009759e-08	-1.202576e-09	7.175792e-02	-7.972761e+01
8.300000e-07	1.129014e-07	-1.097666e-09	8.023268e-01	-7.260744e+01
8.400000e-07	2.156738e-07	-9.866570e-10	1.532674e+00	-6.533027e+01
8.500000e-07	3.183524e-07	-8.708246e-10	2.262352e+00	-5.788385e+01
8.600000e-07	4.209366e-07	-7.525181e-10	2.991361e+00	-5.025595e+01
8.700000e-07	5.234292e-07	-6.322472e-10	3.719719e+00	-4.243525e+01
8.800000e-07	6.257321e-07	-5.110096e-10	4.446729e+00	-3.441203e+01
8.900000e-07	7.277682e-07	-3.879471e-10	5.171842e+00	-2.617893e+01
9.000000e-07	8.295002e-07	-2.618592e-10	5.894795e+00	-1.773153e+01
9.100000e-07	9.309202e-07	-1.328879e-10	6.615530e+00	-9.068795e+00
9.200000e-07	1.032077e-06	-1.298158e-13	7.334396e+00	-1.934260e-01
9.300000e-07	1.132903e-06	1.377737e-10	8.050906e+00	8.887922e+00
9.400000e-07	1.233355e-06	2.822085e-10	8.764768e+00	1.816450e+01
9.500000e-07	1.333415e-06	4.289667e-10	9.475835e+00	2.762140e+01
9.600000e-07	1.432957e-06	5.771892e-10	1.018323e+01	3.723955e+01
9.700000e-07	1.532000e-06	7.269400e-10	1.088707e+01	4.699580e+01
9.800000e-07	1.630522e-06	8.768998e-10	1.158721e+01	5.686304e+01
9.900000e-07	1.728371e-06	1.027913e-09	1.228257e+01	6.681048e+01
1.000000e-06	1.825401e-06	1.181111e-09	1.297211e+01	7.680404e+01
1.010000e-06	1.921515e-06	1.335581e-09	1.365513e+01	8.680687e+01
1.020000e-06	2.016881e-06	1.490379e-09	1.433285e+01	9.678018e+01
1.030000e-06	2.111593e-06	1.643322e-09	1.500591e+01	1.066840e+02
1.040000e-06	2.205569e-06	1.793060e-09	1.567374e+01	1.164786e+02
1.050000e-06	2.298823e-06	1.939304e-09	1.633645e+01	1.261249e+02
1.060000e-06	2.391360e-06	2.081377e-09	1.699406e+01	1.355868e+02
1.070000e-06	2.483130e-06	2.219783e-09	1.764622e+01	1.448313e+02
1.080000e-06	2.574099e-06	2.356300e-09	1.829268e+01	1.538300e+02
1.090000e-06	2.664068e-06	2.489974e-09	1.893204e+01	1.625598e+02
1.100000e-06	2.752839e-06	2.618759e-09	1.956289e+01	1.710037e+02
1.110000e-06	2.840518e-06	2.740930e-09	2.018598e+01	1.791503e+02
1.120000e-06	2.927331e-06	2.857171e-09	2.080291e+01	1.869942e+02
1.130000e-06	3.013245e-06	2.972253e-09	2.141345e+01	1.945353e+02
1.140000e-06	3.098144e-06	3.086232e-09	2.201678e+01	2.017782e+02
1.150000e-06	3.182068e-06	3.193192e-09	2.261318e+01	2.087310e+02
1.160000e-06	3.265047e-06	3.292791e-09	2.320287e+01	2.154046e+02
1.170000e-06	3.346829e-06	3.388576e-09	2.378404e+01	2.218113e+02
1.180000e-06	3.427262e-06	3.480679e-09	2.435564e+01	2.279645e+02
1.190000e-06	3.506496e-06	3.570080e-09	2.491871e+01	2.338773e+02
1.200000e-06	3.584507e-06	3.657068e-09	2.547309e+01	2.395625e+02
1.210000e-06	3.661279e-06	3.741447e-09	2.601867e+01	2.450318e+02
1.220000e-06	3.736715e-06	3.821848e-09	2.655474e+01	2.502960e+02
1.230000e-06	3.810559e-06	3.899325e-09	2.707951e+01	2.553649e+02
1.240000e-06	3.882772e-06	3.974882e-09	2.759269e+01	2.602471e+02
1.250000e-06	3.953543e-06	4.046952e-09	2.809562e+01	2.649504e+02
1.260000e-06	4.022936e-06	4.116428e-09	2.858876e+01	2.694819e+02
1.270000e-06	4.091015e-06	4.184848e-09	2.907256e+01	2.738479e+02
1.280000e-06	4.157686e-06	4.250240e-09	2.954635e+01	2.780537e+02
1.290000e-06	4.222653e-06	4.310128e-09	3.000803e+01	2.821038e+02
1.300000e-06	4.286023e-06	4.365325e-09	3.045837e+01	2.860016e+02
1.310000e-06	4.347941e-06	4.419478e-09	3.089839e+01	2.897494e+02
1.320000e-06	4.408468e-06	4.472841e-09	3.132852e+01	2.933483e+02
1.330000e-06	4.467626e-06	4.523451e-09	3.174892e+01	2.967984e+02
1.340000e-06	4.525120e-06	4.572143e-09	3.215750e+01	3.000988e+02
1.350000e-06	4.580798e-06	4.619907e-09	3.255317e+01	3.032481e+02
1.360000e-06	4.634795e-06	4.664263e-09	3.293690e+01	3.062449e+02
1.370000e-06	4.687116e-06	4.702887e-09	3.330872e+01	3.090882e+02
1.380000e-06	4.737443e-06	4.739402e-09	3.366636e+01	3.117782e+02
1.390000e-06	4.785752e-06	4.776422e-09	3.400966e+01	3.143161e+02
1.400000e-06	4.832351e-06	4.811892e-09	3.434082e+01	3.167052e+02
1.410000e-06	4.877351e-06	4.843251e-09	3.466061e+01	3.189505e+02
1.420000e-06	4.920789e-06	4.872994e-09	3.496930e+01	3.210586e+02
1.430000e-06	4.962368e-06	4.902958e-09	3.526477e+01	3.230374e+02
1.440000e-06	5.002025e-06	4.930623e-09	3.554660e+01	3.248956e+02
1.450000e-06	5.040045e-06	4.954935e-09	3.581679e+01	3.266418e+02
1.460000e-06	5.076460e-06	4.977729e-09	3.607556e+01	3.282841e+02
1.470000e-06	5.111145e-06	5.001441e-09	3.632205e+01	3.298290e+02
1.480000e-06	5.143902e-06	5.024167e-09	3.655484e+01	3.312815e+02
1.490000e-06	5.174836e-06	5.043813e-09	3.677467e+01	3.326442e+02
1.500000e-06	5.204112e-06	5.060650e-09	3.698272e+01	3.339177e+02
1.510000e-06	5.231673e-06	5.077459e-09	3.717858e+01	3.351010e+02
1.520000e-06	5.257214e-06	5.093880e-09	3.736009e+01	3.361914e+02
1.530000e-06	5.280669e-06	5.108385e-09	3.752677e+01	3.371860e+02
1.540000e-06	5.302263e-06	5.121388e-09	3.768022e+01	3.380818e+02
1.550000e-06	5.322124e-06	5.133022e-09	3.782136e+01	3.388770e+02
1.560000e-06	5.340139e-06	5.144170e-09	3.794938e+01	3.395710e+02
1.570000e-06	5.356125e-06	5.155315e-09	3.806299e+01	3.401651e+02
1.580000e-06	5.370141e-06	5.165099e-09	3.816259e+01	3.406626e+02
1.590000e-06	5.382149e-06	5.172829e-09	3.824793e+01	3.410684e+02
1.600000e-06	5.391957e-06	5.177566e-09	3.831763e+01	3.413886e+02
1.610000e-06	5.399691e-06	5.180683e-09	3.837259e+01	3.416296e+02
1.620000e-06	5.405580e-06	5.185086e-09	3.841443e+01	3.417978e+02
1.630000e-06	5.409694e-06	5.189367e-09	3.844367e+01	3.418984e+02
1.640000e-06	5.411870e-06	5.192410e-09	3.845914e+01	3.419352e+02
1.650000e-06	5.411991e-06	5.194877e-09	3.846000e+01	3.419097e+02
1.660000e-06	5.410326e-06	5.192692e-09	3.844816e+01	3.418219e+02
1.670000e-06	5.407017e-06	5.187724e-09	3.842465e+01	3.416697e+02
1.680000e-06	5.401965e-06	5.185446e-09	3.838875e+01	3.414502e+02
1.690000e-06	5.395011e-06	5.181879e-09	3.833933e+01	3.411596e+02
1.700000e-06	5.386344e-06	5.176334e-09	3.827774e+01	3.407949e+02
1.710000e-06	5.376141e-06	5.171158e-09	3.820523e+01	3.403542e+02
1.720000e-06	5.364147e-06	5.170592e-09	3.812000e+01	3.398370e+02
1.730000e-06	5.350113e-06	5.168102e-09	3.802026e+01	3.392453e+02
1.740000e-06	5.333990e-06	5.099635e-09	3.790569e+01	3.385828e+02
1.750000e-06	5.315469e-06	5.083454e-09	3.777407e+01	3.378553e+02
1.760000e-06	5.294185e-06	5.104743e-09	3.762281e+01	3.370692e+02
1.770000e-06	5.270691e-06	5.107753e-09	3.745586e+01	3.362312e+02
1.780000e-06	5.246136e-06	5.191788e-09	3.728136e+01	3.353472e+02
1.790000e-06	5.220924e-06	5.092114e-09	3.710219e+01	3.344213e+02
1.800000e-06	5.194088e-06	4.984014e-09	3.691148e+01	3.334549e+02
1.810000e-06	5.164898e-06	5.096071e-09	3.670405e+01	3.324464e+02
1.820000e-06	5.134003e-06	5.003029e-09	3.648449e+01	3.313910e+02
1.830000e-06	5.101431e-06	4.996676e-09	3.625302e+01	3.302811e+02
1.840000e-06	5.066879e-06	5.106830e-09	3.600748e+01	3.291073e+02
1.850000e-06	5.030813e-06	4.941825e-09	3.575118e+01	3.278587e+02
1.860000e-06	4.992905e-06	4.964422e-09	3.548178e+01	3.265248e+02
1.870000e-06	4.953084e-06	5.005866e-09	3.519880e+01	3.250963e+02
1.880000e-06	4.911651e-06	4.887085e-09	3.490436e+01	3.235662e+02
1.890000e-06	4.868389e-06	4.966155e-09	3.459692e+01	3.219306e+02
1.900000e-06	4.823536e-06	4.876536e-09	3.427818e+01	3.201892e+02
1.910000e-06	4.776818e-06	4.810962e-09	3.394618e+01	3.183452e+02
1.920000e-06	4.728003e-06	4.869975e-09	3.359928e+01	3.164046e+02
1.930000e-06	4.677638e-06	4.744588e-09	3.324136e+01	3.143757e+02
1.940000e-06	4.625467e-06	4.796689e-09	3.287061e+01	3.122677e+02
1.950000e-06	4.571119e-06	4.775524e-09	3.248439e+01	3.100897e+02
1.960000e-06	4.514912e-06	4.657933e-09	3.208495e+01	3.078498e+02
1.970000e-06	4.457076e-06	4.656029e-09	3.167395e+01	3.055535e+02
1.980000e-06	4.397858e-06	4.621090e-09	3.125312e+01	3.032039e+02
1.990000e-06	4.337108e-06	4.631761e-09	3.082140e+01	3.008009e+02
2.000000e-06	4.274536e-06	4.540227e-09	3.037674e+01	2.983417e+02
2.010000e-06	4.210384e-06	4.500861e-09	2.992085e+01	2.958212e+02
2.020000e-06	4.144806e-06	4.504551e-09	2.945482e+01	2.932330e+02
2.030000e-06	4.077827e-06	4.404147e-09	2.897884e+01	2.905701e+02
2.040000e-06	4.009466e-06	4.410634e-09	2.849304e+01	2.878263e+02
2.050000e-06	3.939593e-06	4.369391e-09	2.799648e+01	2.849966e+02
2.060000e-06	3.868159e-06	4.317143e-09	2.748885e+01	2.820778e+02
2.070000e-06	3.795370e-06	4.256203e-09	2.697157e+01	2.790693e+02
2.080000e-06	3.721301e-06	4.189921e-09	2.644521e+01	2.759723e+02
2.090000e-06	3.645896e-06	4.199343e-09	2.590934e+01	2.727900e+02
2.100000e-06	3.568984e-06	4.129665e-09	2.536277e+01	2.695262e+02
2.110000e-06	3.490408e-06	4.064174e-09	2.480438e+01	2.661855e+02
2.120000e-06	3.410557e-06	4.008197e-09	2.423692e+01	2.627715e+02
2.130000e-06	3.329613e-06	3.957906e-09	2.366170e+01	2.592867e+02
2.140000e-06	3.247460e-06	3.908807e-09	2.307788e+01	2.557320e+02
2.150000e-06	3.164245e-06	3.855471e-09	2.248652e+01	2.521060e+02
2.160000e-06	3.080091e-06	3.820046e-09	2.188849e+01	2.484059e+02
2.170000e-06	2.994764e-06	3.742552e-09	2.128212e+01	2.446270e+02
2.180000e-06	2.908018e-06	3.679129e-09	2.066566e+01	2.407641e+02
2.190000e-06	2.820137e-06	3.626155e-09	2.004113e+01	2.368115e+02
2.200000e-06	2.731373e-06	3.575372e-09	1.941034e+01	2.327644e+02
2.210000e-06	2.641672e-06	3.509323e-09	1.877289e+01	2.286189e+02
2.220000e-06	2.551052e-06	3.430023e-09	1.812890e+01	2.243729e+02
2.230000e-06	2.459649e-06	3.368867e-09	1.747935e+01	2.200260e+02
2.240000e-06	2.367524e-06	3.301877e-09	1.682467e+01	2.155794e+02
2.250000e-06	2.274525e-06	3.239621e-09	1.616378e+01	2.110358e+02
2.260000e-06	2.180562e-06	3.174678e-09	1.549604e+01	2.063984e+02
2.270000e-06	2.085588e-06	3.101747e-09	1.482111e+01	2.016707e+02
2.280000e-06	1.989718e-06	3.019415e-09	1.413982e+01	1.968555e+02
2.290000e-06	1.893186e-06	2.943572e-09	1.345382e+01	1.919545e+02
2.300000e-06	1.796081e-06	2.878168e-09	1.276374e+01	1.869678e+02
2.310000e-06	1.698517e-06	2.808500e-09	1.207041e+01	1.818938e+02
2.320000e-06	1.600429e-06	2.724304e-09	1.137336e+01	1.767295e+02
2.330000e-06	1.501716e-06	2.630459e-09	1.067186e+01	1.714706e+02
2.340000e-06	1.402512e-06	2.547689e-09	9.966866e+00	1.661119e+02
2.350000e-06	1.302948e-06	2.469804e-09	9.259324e+00	1.606484e+02
2.360000e-06	1.203141e-06	2.393036e-09	8.550051e+00	1.550752e+02
2.370000e-06	1.103147e-06	2.309834e-09	7.839451e+00	1.493886e+02
2.380000e-06	1.002752e-06	2.216267e-09	7.125998e+00	1.435862e+02
2.390000e-06	9.017908e-07	2.122811e-09	6.408523e+00	1.376666e+02
2.400000e-06	8.003854e-07	2.031736e-09	5.687892e+00	1.316298e+02
2.410000e-06	6.986280e-07	1.940839e-09	4.964759e+00	1.254766e+02
2.420000e-06	5.966212e-07	1.844439e-09	4.239853e+00	1.192080e+02
2.430000e-06	4.943699e-07	1.740571e-09	3.513211e+00	1.128244e+02
2.440000e-06	3.918065e-07	1.638756e-09	2.784350e+00	1.063252e+02
2.450000e-06	2.890670e-07	1.543890e-09	2.054238e+00	9.970824e+01
2.460000e-06	1.862116e-07	1.447589e-09	1.323302e+00	9.296910e+01
2.470000e-06	8.325437e-08	1.343507e-09	5.916423e-01	8.610126e+01
2.480000e-06	-1.970134e-08	1.229665e-09	-1.400064e-01	7.909607e+01
2.490000e-06	-1.226277e-07	1.112116e-09	-8.714468e-01	7.194304e+01
2.500000e-06	-2.255773e-07	9.994020e-10	-1.603052e+00	6.463042e+01
2.510000e-06	-3.284712e-07	8.901946e-10	-2.334261e+00	5.714589e+01
2.520000e-06	-4.312173e-07	7.763503e-10	-3.064421e+00	4.947737e+01
2.530000e-06	-5.338020e-07	6.529949e-10	-3.793433e+00	4.161379e+01
2.540000e-06	-6.361952e-07	5.259904e-10	-4.521084e+00	3.354590e+01
2.550000e-06	-7.382646e-07	4.001437e-10	-5.246434e+00	2.526691e+01
2.560000e-06	-8.398705e-07	2.717734e-10	-5.968490e+00	1.677311e+01
2.570000e-06	-9.409990e-07	1.383303e-10	-6.687154e+00	8.064225e+00
2.580000e-06	-1.041683e-06	1.502689e-12	-7.402657e+00	-8.562061e-01
2.590000e-06	-1.141945e-06	-1.390744e-10	-8.115165e+00	-9.980660e+00
2.600000e-06	-1.241798e-06	-2.813099e-10	-8.824763e+00	-1.929750e+01
2.610000e-06	-1.341299e-06	-4.233463e-10	-9.531861e+00	-2.879093e+01
2.620000e-06	-1.440404e-06	-5.680825e-10	-1.023615e+01	-3.844098e+01
2.630000e-06	-1.539023e-06	-7.179387e-10	-1.093698e+01	-4.822366e+01
2.640000e-06	-1.637052e-06	-8.706050e-10	-1.163361e+01	-5.811102e+01
2.650000e-06	-1.734489e-06	-1.022373e-09	-1.232604e+01	-6.807154e+01
2.660000e-06	-1.831389e-06	-1.172175e-09	-1.301466e+01	-7.807049e+01
2.670000e-06	-1.927699e-06	-1.322224e-09	-1.369908e+01	-8.807054e+01
2.680000e-06	-2.023424e-06	-1.473203e-09	-1.437934e+01	-9.803257e+01
2.690000e-06	-2.118508e-06	-1.623851e-09	-1.505506e+01	-1.079166e+02
2.700000e-06	-2.212716e-06	-1.773646e-09	-1.572454e+01	-1.176828e+02
2.710000e-06	-2.305889e-06	-1.921447e-09	-1.638667e+01	-1.272928e+02
2.720000e-06	-2.398076e-06	-2.065560e-09	-1.704179e+01	-1.367109e+02
2.730000e-06	-2.489414e-06	-2.205299e-09	-1.769088e+01	-1.459052e+02
2.740000e-06	-2.579936e-06	-2.342507e-09	-1.833417e+01	-1.548482e+02
2.750000e-06	-2.669539e-06	-2.477266e-09	-1.897092e+01	-1.635183e+02
2.760000e-06	-2.758209e-06	-2.606191e-09	-1.960105e+01	-1.718994e+02
2.770000e-06	-2.846075e-06	-2.727740e-09	-2.022546e+01	-1.799816e+02
2.780000e-06	-2.933082e-06	-2.844346e-09	-2.084377e+01	-1.877607e+02
2.790000e-06	-3.018924e-06	-2.958804e-09	-2.145381e+01	-1.952377e+02
2.800000e-06	-3.103509e-06	-3.072834e-09	-2.205490e+01	-2.024178e+02
2.810000e-06	-3.187030e-06	-3.181839e-09	-2.264844e+01	-2.093100e+02
2.820000e-06	-3.269509e-06	-3.282840e-09	-2.323457e+01	-2.159255e+02
2.830000e-06	-3.350896e-06	-3.379148e-09	-2.381294e+01	-2.222771e+02
2.840000e-06	-3.431216e-06	-3.472366e-09	-2.438374e+01	-2.283778e+02
2.850000e-06	-3.510345e-06	-3.562470e-09	-2.494606e+01	-2.342411e+02
2.860000e-06	-3.587983e-06	-3.648096e-09	-2.549779e+01	-2.398792e+02
2.870000e-06	-3.664064e-06	-3.728010e-09	-2.603846e+01	-2.453040e+02
2.880000e-06	-3.738722e-06	-3.805328e-09	-2.656901e+01	-2.505258e+02
2.890000e-06	-3.811984e-06	-3.881926e-09	-2.708964e+01	-2.555542e+02
2.900000e-06	-3.884006e-06	-3.958385e-09	-2.760146e+01	-2.603976e+02
2.910000e-06	-3.954639e-06	-4.032244e-09	-2.810341e+01	-2.650638e+02
2.920000e-06	-4.023616e-06	-4.100430e-09	-2.859359e+01	-2.695596e+02
2.930000e-06	-4.091109e-06	-4.165183e-09	-2.907323e+01	-2.738910e+02
2.940000e-06	-4.157228e-06	-4.228667e-09	-2.954310e+01	-2.780633e+02
