# Temperatura_=_53.89
# Concentracion g/m^3_=_15000.0
# C_Vs_to_Am_M_A/Vsm_=_65563218390.804596
# pendiente_HvsI_1/m_=_3716.3
# ordenada_HvsI_A/m_=_1297.0
# frecuencia_Hz_=_301573.19580322306

Tiempo_(s)	Campo_(V.s)	Magnetizacion_(V.s)	Campo_(kA/m)	Magnetizacion_(A/m)
0.000000e+00	-5.373180e-06	-5.390070e-09	-3.834127e+01	-3.521738e+02
1.000000e-08	-5.370342e-06	-5.393281e-09	-3.832101e+01	-3.520383e+02
2.000000e-08	-5.365736e-06	-5.390033e-09	-3.828814e+01	-3.518280e+02
3.000000e-08	-5.359527e-06	-5.383138e-09	-3.824384e+01	-3.515417e+02
4.000000e-08	-5.351708e-06	-5.375079e-09	-3.818805e+01	-3.511788e+02
5.000000e-08	-5.342021e-06	-5.365135e-09	-3.811893e+01	-3.507399e+02
6.000000e-08	-5.330293e-06	-5.355293e-09	-3.803523e+01	-3.502265e+02
7.000000e-08	-5.316647e-06	-5.344814e-09	-3.793786e+01	-3.496414e+02
8.000000e-08	-5.300931e-06	-5.336833e-09	-3.782572e+01	-3.489882e+02
9.000000e-08	-5.283028e-06	-5.366975e-09	-3.769797e+01	-3.482712e+02
1.000000e-07	-5.263090e-06	-5.368278e-09	-3.755570e+01	-3.474943e+02
1.100000e-07	-5.241253e-06	-5.323158e-09	-3.739987e+01	-3.466613e+02
1.200000e-07	-5.217710e-06	-5.295398e-09	-3.723188e+01	-3.457744e+02
1.300000e-07	-5.192612e-06	-5.230988e-09	-3.705279e+01	-3.448343e+02
1.400000e-07	-5.165842e-06	-5.205433e-09	-3.686177e+01	-3.438400e+02
1.500000e-07	-5.137456e-06	-5.304517e-09	-3.665921e+01	-3.427882e+02
1.600000e-07	-5.107676e-06	-5.242296e-09	-3.644672e+01	-3.416742e+02
1.700000e-07	-5.076287e-06	-5.203935e-09	-3.622274e+01	-3.404917e+02
1.800000e-07	-5.042808e-06	-5.237553e-09	-3.598384e+01	-3.392335e+02
1.900000e-07	-5.007533e-06	-5.106015e-09	-3.573212e+01	-3.378926e+02
2.000000e-07	-4.970792e-06	-5.116653e-09	-3.546995e+01	-3.364624e+02
2.100000e-07	-4.932270e-06	-5.155803e-09	-3.519508e+01	-3.349377e+02
2.200000e-07	-4.891934e-06	-5.067398e-09	-3.490725e+01	-3.333151e+02
2.300000e-07	-4.849672e-06	-5.077393e-09	-3.460568e+01	-3.315933e+02
2.400000e-07	-4.805457e-06	-5.067088e-09	-3.429018e+01	-3.297732e+02
2.500000e-07	-4.759450e-06	-4.998619e-09	-3.396189e+01	-3.278577e+02
2.600000e-07	-4.711559e-06	-4.984162e-09	-3.362015e+01	-3.258513e+02
2.700000e-07	-4.661621e-06	-4.915802e-09	-3.326381e+01	-3.237593e+02
2.800000e-07	-4.609611e-06	-4.897192e-09	-3.289268e+01	-3.215874e+02
2.900000e-07	-4.555759e-06	-4.892389e-09	-3.250841e+01	-3.193409e+02
3.000000e-07	-4.500365e-06	-4.850670e-09	-3.211314e+01	-3.170238e+02
3.100000e-07	-4.443328e-06	-4.818132e-09	-3.170614e+01	-3.146389e+02
3.200000e-07	-4.384457e-06	-4.772869e-09	-3.128606e+01	-3.121870e+02
3.300000e-07	-4.324004e-06	-4.721328e-09	-3.085468e+01	-3.096672e+02
3.400000e-07	-4.262111e-06	-4.659619e-09	-3.041304e+01	-3.070772e+02
3.500000e-07	-4.198851e-06	-4.641914e-09	-2.996163e+01	-3.044135e+02
3.600000e-07	-4.134104e-06	-4.619829e-09	-2.949962e+01	-3.016720e+02
3.700000e-07	-4.067636e-06	-4.565062e-09	-2.902533e+01	-2.988488e+02
3.800000e-07	-3.999590e-06	-4.526410e-09	-2.853977e+01	-2.959405e+02
3.900000e-07	-3.930232e-06	-4.473724e-09	-2.804486e+01	-2.929449e+02
4.000000e-07	-3.859659e-06	-4.417537e-09	-2.754127e+01	-2.898610e+02
4.100000e-07	-3.787834e-06	-4.368826e-09	-2.702875e+01	-2.866894e+02
4.200000e-07	-3.714583e-06	-4.318123e-09	-2.650606e+01	-2.834320e+02
4.300000e-07	-3.639700e-06	-4.280355e-09	-2.597171e+01	-2.800916e+02
4.400000e-07	-3.563285e-06	-4.230657e-09	-2.542645e+01	-2.766716e+02
4.500000e-07	-3.485513e-06	-4.174674e-09	-2.487148e+01	-2.731754e+02
4.600000e-07	-3.406367e-06	-4.115250e-09	-2.430673e+01	-2.696057e+02
4.700000e-07	-3.325938e-06	-4.051051e-09	-2.373281e+01	-2.659645e+02
4.800000e-07	-3.244286e-06	-3.991554e-09	-2.315017e+01	-2.622524e+02
4.900000e-07	-3.161440e-06	-3.936448e-09	-2.255901e+01	-2.584685e+02
5.000000e-07	-3.077570e-06	-3.887926e-09	-2.196054e+01	-2.546109e+02
5.100000e-07	-2.992839e-06	-3.825841e-09	-2.135592e+01	-2.506763e+02
5.200000e-07	-2.907221e-06	-3.757610e-09	-2.074498e+01	-2.466610e+02
5.300000e-07	-2.820615e-06	-3.684447e-09	-2.012699e+01	-2.425611e+02
5.400000e-07	-2.733084e-06	-3.614197e-09	-1.950240e+01	-2.383729e+02
5.500000e-07	-2.644579e-06	-3.551472e-09	-1.887085e+01	-2.340934e+02
5.600000e-07	-2.554857e-06	-3.487610e-09	-1.823063e+01	-2.297208e+02
5.700000e-07	-2.464012e-06	-3.424460e-09	-1.758239e+01	-2.252543e+02
5.800000e-07	-2.372343e-06	-3.353740e-09	-1.692827e+01	-2.206942e+02
5.900000e-07	-2.279912e-06	-3.281487e-09	-1.626871e+01	-2.160417e+02
6.000000e-07	-2.186666e-06	-3.205404e-09	-1.560333e+01	-2.112985e+02
6.100000e-07	-2.092604e-06	-3.127924e-09	-1.493214e+01	-2.064664e+02
6.200000e-07	-1.997800e-06	-3.051174e-09	-1.425565e+01	-2.015470e+02
6.300000e-07	-1.902325e-06	-2.976070e-09	-1.357437e+01	-1.965408e+02
6.400000e-07	-1.806257e-06	-2.903470e-09	-1.288886e+01	-1.914475e+02
6.500000e-07	-1.709496e-06	-2.828903e-09	-1.219841e+01	-1.862653e+02
6.600000e-07	-1.611902e-06	-2.748631e-09	-1.150201e+01	-1.809914e+02
6.700000e-07	-1.513529e-06	-2.661146e-09	-1.080005e+01	-1.756219e+02
6.800000e-07	-1.414540e-06	-2.575314e-09	-1.009370e+01	-1.701521e+02
6.900000e-07	-1.315141e-06	-2.490511e-09	-9.384415e+00	-1.645770e+02
7.000000e-07	-1.215389e-06	-2.406246e-09	-8.672621e+00	-1.588919e+02
7.100000e-07	-1.115322e-06	-2.319253e-09	-7.958574e+00	-1.530925e+02
7.200000e-07	-1.014988e-06	-2.226667e-09	-7.242624e+00	-1.471756e+02
7.300000e-07	-9.143451e-07	-2.130942e-09	-6.524469e+00	-1.411389e+02
7.400000e-07	-8.133779e-07	-2.036338e-09	-5.804000e+00	-1.349813e+02
7.500000e-07	-7.121034e-07	-1.943021e-09	-5.081338e+00	-1.287024e+02
7.600000e-07	-6.105503e-07	-1.847639e-09	-4.356688e+00	-1.223026e+02
7.700000e-07	-5.087959e-07	-1.747599e-09	-3.630602e+00	-1.157820e+02
7.800000e-07	-4.068981e-07	-1.643909e-09	-2.903492e+00	-1.091404e+02
7.900000e-07	-3.048882e-07	-1.542010e-09	-2.175583e+00	-1.023763e+02
8.000000e-07	-2.027674e-07	-1.438037e-09	-1.446882e+00	-9.548685e+01
8.100000e-07	-1.004841e-07	-1.332232e-09	-7.170220e-01	-8.846692e+01
8.200000e-07	1.907446e-09	-1.225814e-09	1.361092e-02	-8.130936e+01
8.300000e-07	1.042505e-07	-1.115737e-09	7.438977e-01	-7.400490e+01
8.400000e-07	2.065442e-07	-1.003119e-09	1.473832e+00	-6.654236e+01
8.500000e-07	3.087623e-07	-8.889325e-10	2.203227e+00	-5.890925e+01
8.600000e-07	4.108656e-07	-7.711157e-10	2.931803e+00	-5.109241e+01
8.700000e-07	5.128993e-07	-6.463695e-10	3.659883e+00	-4.307885e+01
8.800000e-07	6.148154e-07	-5.203660e-10	4.387123e+00	-3.485668e+01
8.900000e-07	7.164867e-07	-3.945279e-10	5.112616e+00	-2.641606e+01
9.000000e-07	8.178874e-07	-2.662068e-10	5.836178e+00	-1.775012e+01
9.100000e-07	9.190308e-07	-1.325563e-10	6.557905e+00	-8.855689e+00
9.200000e-07	1.019824e-06	7.055010e-12	7.277130e+00	2.659634e-01
9.300000e-07	1.120272e-06	1.507019e-10	7.993894e+00	9.608738e+00
9.400000e-07	1.220420e-06	2.991675e-10	8.708523e+00	1.916142e+01
9.500000e-07	1.320262e-06	4.489392e-10	9.420958e+00	2.890763e+01
9.600000e-07	1.419684e-06	5.994087e-10	1.013041e+01	3.882601e+01
9.700000e-07	1.518476e-06	7.516770e-10	1.083535e+01	4.889056e+01
9.800000e-07	1.616597e-06	9.059683e-10	1.153551e+01	5.907115e+01
9.900000e-07	1.713958e-06	1.062349e-09	1.223024e+01	6.933418e+01
1.000000e-06	1.810475e-06	1.222185e-09	1.291896e+01	7.964336e+01
1.010000e-06	1.906236e-06	1.383519e-09	1.360228e+01	8.996049e+01
1.020000e-06	2.001308e-06	1.544389e-09	1.428068e+01	1.002464e+02
1.030000e-06	2.095718e-06	1.702606e-09	1.495436e+01	1.104618e+02
1.040000e-06	2.189400e-06	1.857275e-09	1.562285e+01	1.205680e+02
1.050000e-06	2.282305e-06	2.007993e-09	1.628579e+01	1.305283e+02
1.060000e-06	2.374501e-06	2.153636e-09	1.694367e+01	1.403079e+02
1.070000e-06	2.465996e-06	2.296570e-09	1.759655e+01	1.498754e+02
1.080000e-06	2.556597e-06	2.438424e-09	1.824305e+01	1.592028e+02
1.090000e-06	2.646153e-06	2.578599e-09	1.888209e+01	1.682664e+02
1.100000e-06	2.734591e-06	2.713380e-09	1.951315e+01	1.770468e+02
1.110000e-06	2.822026e-06	2.839932e-09	2.013706e+01	1.855294e+02
1.120000e-06	2.908598e-06	2.961761e-09	2.075481e+01	1.937044e+02
1.130000e-06	2.994252e-06	3.082388e-09	2.136601e+01	2.015664e+02
1.140000e-06	3.078995e-06	3.200714e-09	2.197071e+01	2.091148e+02
1.150000e-06	3.162838e-06	3.311740e-09	2.256899e+01	2.163529e+02
1.160000e-06	3.245604e-06	3.415279e-09	2.315958e+01	2.232878e+02
1.170000e-06	3.327088e-06	3.513902e-09	2.374102e+01	2.299297e+02
1.180000e-06	3.407269e-06	3.608865e-09	2.431317e+01	2.362914e+02
1.190000e-06	3.486289e-06	3.702186e-09	2.487703e+01	2.423873e+02
1.200000e-06	3.564124e-06	3.793728e-09	2.543243e+01	2.482331e+02
1.210000e-06	3.640681e-06	3.881962e-09	2.597871e+01	2.538450e+02
1.220000e-06	3.715859e-06	3.966124e-09	2.651516e+01	2.592386e+02
1.230000e-06	3.789493e-06	4.046122e-09	2.704059e+01	2.644287e+02
1.240000e-06	3.861554e-06	4.121799e-09	2.755480e+01	2.694286e+02
1.250000e-06	3.932196e-06	4.193543e-09	2.805887e+01	2.742498e+02
1.260000e-06	4.001487e-06	4.261459e-09	2.855331e+01	2.789012e+02
1.270000e-06	4.069421e-06	4.328742e-09	2.903806e+01	2.833897e+02
1.280000e-06	4.135908e-06	4.395806e-09	2.951249e+01	2.877193e+02
1.290000e-06	4.200738e-06	4.461078e-09	2.997510e+01	2.918922e+02
1.300000e-06	4.263974e-06	4.521578e-09	3.042633e+01	2.959085e+02
1.310000e-06	4.325766e-06	4.578864e-09	3.086726e+01	2.997670e+02
1.320000e-06	4.386159e-06	4.634588e-09	3.129820e+01	3.034653e+02
1.330000e-06	4.445154e-06	4.686725e-09	3.171917e+01	3.070011e+02
1.340000e-06	4.502478e-06	4.735945e-09	3.212822e+01	3.103721e+02
1.350000e-06	4.558052e-06	4.783895e-09	3.252478e+01	3.135773e+02
1.360000e-06	4.612029e-06	4.828834e-09	3.290994e+01	3.166167e+02
1.370000e-06	4.664313e-06	4.868814e-09	3.328302e+01	3.194921e+02
1.380000e-06	4.714592e-06	4.905843e-09	3.364180e+01	3.222070e+02
1.390000e-06	4.762824e-06	4.942215e-09	3.398596e+01	3.247669e+02
1.400000e-06	4.809291e-06	4.977220e-09	3.431754e+01	3.271784e+02
1.410000e-06	4.854196e-06	5.008199e-09	3.463797e+01	3.294496e+02
1.420000e-06	4.897576e-06	5.037436e-09	3.494751e+01	3.315889e+02
1.430000e-06	4.939168e-06	5.067051e-09	3.524429e+01	3.336049e+02
1.440000e-06	4.978892e-06	5.094967e-09	3.552776e+01	3.355055e+02
1.450000e-06	5.016924e-06	5.119800e-09	3.579914e+01	3.372977e+02
1.460000e-06	5.053330e-06	5.142395e-09	3.605892e+01	3.389871e+02
1.470000e-06	5.087980e-06	5.164988e-09	3.630617e+01	3.405775e+02
1.480000e-06	5.120671e-06	5.187137e-09	3.653944e+01	3.420713e+02
1.490000e-06	5.151535e-06	5.207794e-09	3.675968e+01	3.434693e+02
1.500000e-06	5.180763e-06	5.226014e-09	3.696824e+01	3.447712e+02
1.510000e-06	5.208318e-06	5.240911e-09	3.716486e+01	3.459760e+02
1.520000e-06	5.233895e-06	5.254326e-09	3.734737e+01	3.470826e+02
1.530000e-06	5.257404e-06	5.268070e-09	3.751512e+01	3.480899e+02
1.540000e-06	5.279084e-06	5.281960e-09	3.766982e+01	3.489977e+02
1.550000e-06	5.299027e-06	5.294573e-09	3.781213e+01	3.498069e+02
1.560000e-06	5.317082e-06	5.305642e-09	3.794097e+01	3.505192e+02
1.570000e-06	5.333080e-06	5.316082e-09	3.805512e+01	3.511376e+02
1.580000e-06	5.347114e-06	5.325469e-09	3.815527e+01	3.516658e+02
1.590000e-06	5.359249e-06	5.332131e-09	3.824186e+01	3.521081e+02
1.600000e-06	5.369268e-06	5.336880e-09	3.831335e+01	3.524688e+02
1.610000e-06	5.377133e-06	5.340900e-09	3.836947e+01	3.527519e+02
1.620000e-06	5.383057e-06	5.345080e-09	3.841174e+01	3.529605e+02
1.630000e-06	5.387240e-06	5.349709e-09	3.844159e+01	3.530969e+02
1.640000e-06	5.389562e-06	5.353250e-09	3.845816e+01	3.531621e+02
1.650000e-06	5.389820e-06	5.355582e-09	3.846000e+01	3.531562e+02
1.660000e-06	5.388251e-06	5.352950e-09	3.844881e+01	3.530780e+02
1.670000e-06	5.385073e-06	5.345471e-09	3.842613e+01	3.529264e+02
1.680000e-06	5.380251e-06	5.342312e-09	3.839172e+01	3.526997e+02
1.690000e-06	5.373506e-06	5.339095e-09	3.834359e+01	3.523968e+02
1.700000e-06	5.364951e-06	5.335463e-09	3.828254e+01	3.520174e+02
1.710000e-06	5.354849e-06	5.332310e-09	3.821046e+01	3.515621e+02
1.720000e-06	5.343016e-06	5.329539e-09	3.812602e+01	3.510329e+02
1.730000e-06	5.329159e-06	5.329837e-09	3.802715e+01	3.504327e+02
1.740000e-06	5.313197e-06	5.277512e-09	3.791324e+01	3.497653e+02
1.750000e-06	5.294926e-06	5.241847e-09	3.778287e+01	3.490349e+02
1.760000e-06	5.273977e-06	5.261412e-09	3.763339e+01	3.482455e+02
1.770000e-06	5.250769e-06	5.265042e-09	3.746778e+01	3.474006e+02
1.780000e-06	5.226375e-06	5.324143e-09	3.729371e+01	3.465020e+02
1.790000e-06	5.201295e-06	5.277808e-09	3.711475e+01	3.455503e+02
1.800000e-06	5.174728e-06	5.132532e-09	3.692518e+01	3.445438e+02
1.810000e-06	5.145958e-06	5.217530e-09	3.671988e+01	3.434790e+02
1.820000e-06	5.115400e-06	5.190403e-09	3.650183e+01	3.423507e+02
1.830000e-06	5.083119e-06	5.126087e-09	3.627148e+01	3.411523e+02
1.840000e-06	5.048866e-06	5.263305e-09	3.602707e+01	3.398768e+02
1.850000e-06	5.013054e-06	5.170744e-09	3.577153e+01	3.385171e+02
1.860000e-06	4.975511e-06	5.103277e-09	3.550363e+01	3.370669e+02
1.870000e-06	4.936025e-06	5.160366e-09	3.522187e+01	3.355212e+02
1.880000e-06	4.894869e-06	5.028164e-09	3.492819e+01	3.338772e+02
1.890000e-06	4.851900e-06	5.051375e-09	3.462158e+01	3.321339e+02
1.900000e-06	4.807307e-06	5.054769e-09	3.430338e+01	3.302929e+02
1.910000e-06	4.760879e-06	4.974674e-09	3.397209e+01	3.283573e+02
1.920000e-06	4.712385e-06	5.043119e-09	3.362604e+01	3.263319e+02
1.930000e-06	4.662327e-06	4.920388e-09	3.326885e+01	3.242221e+02
1.940000e-06	4.610554e-06	4.888033e-09	3.289942e+01	3.220336e+02
1.950000e-06	4.556665e-06	4.907415e-09	3.251488e+01	3.197714e+02
1.960000e-06	4.500824e-06	4.799562e-09	3.211641e+01	3.174395e+02
1.970000e-06	4.443334e-06	4.805753e-09	3.170619e+01	3.150400e+02
1.980000e-06	4.384414e-06	4.775854e-09	3.128575e+01	3.125734e+02
1.990000e-06	4.324031e-06	4.766544e-09	3.085488e+01	3.100387e+02
2.000000e-06	4.261913e-06	4.705744e-09	3.041163e+01	3.074330e+02
2.010000e-06	4.198105e-06	4.612431e-09	2.995631e+01	3.047528e+02
2.020000e-06	4.132820e-06	4.622268e-09	2.949046e+01	3.019939e+02
2.030000e-06	4.066153e-06	4.540464e-09	2.901475e+01	2.991525e+02
2.040000e-06	3.998130e-06	4.523883e-09	2.852936e+01	2.962254e+02
2.050000e-06	3.928628e-06	4.502729e-09	2.803341e+01	2.932107e+02
2.060000e-06	3.857624e-06	4.441467e-09	2.752675e+01	2.901077e+02
2.070000e-06	3.785246e-06	4.398417e-09	2.701029e+01	2.869173e+02
2.080000e-06	3.711544e-06	4.296801e-09	2.648437e+01	2.836417e+02
2.090000e-06	3.636507e-06	4.271887e-09	2.594893e+01	2.802838e+02
2.100000e-06	3.560048e-06	4.222611e-09	2.540334e+01	2.768470e+02
2.110000e-06	3.481952e-06	4.167998e-09	2.484608e+01	2.733346e+02
2.120000e-06	3.402455e-06	4.128197e-09	2.427881e+01	2.697493e+02
2.130000e-06	3.321880e-06	4.067662e-09	2.370385e+01	2.660927e+02
2.140000e-06	3.240189e-06	4.018872e-09	2.312093e+01	2.623651e+02
2.150000e-06	3.157413e-06	3.939564e-09	2.253027e+01	2.585654e+02
2.160000e-06	3.073642e-06	3.885041e-09	2.193251e+01	2.546914e+02
2.170000e-06	2.988796e-06	3.825316e-09	2.132708e+01	2.507396e+02
2.180000e-06	2.902571e-06	3.774047e-09	2.071180e+01	2.467063e+02
2.190000e-06	2.815093e-06	3.722230e-09	2.008759e+01	2.425876e+02
2.200000e-06	2.726653e-06	3.656202e-09	1.945651e+01	2.383798e+02
2.210000e-06	2.637285e-06	3.591840e-09	1.881880e+01	2.340803e+02
2.220000e-06	2.547006e-06	3.511489e-09	1.817461e+01	2.296874e+02
2.230000e-06	2.455848e-06	3.443567e-09	1.752413e+01	2.252006e+02
2.240000e-06	2.363985e-06	3.374633e-09	1.686863e+01	2.206204e+02
2.250000e-06	2.271488e-06	3.313781e-09	1.620860e+01	2.159480e+02
2.260000e-06	2.178186e-06	3.247805e-09	1.554283e+01	2.111855e+02
2.270000e-06	2.083799e-06	3.171441e-09	1.486931e+01	2.063344e+02
2.280000e-06	1.988355e-06	3.091383e-09	1.418825e+01	2.013961e+02
2.290000e-06	1.892146e-06	3.009484e-09	1.350174e+01	1.963711e+02
2.300000e-06	1.795424e-06	2.931134e-09	1.281156e+01	1.912588e+02
2.310000e-06	1.698257e-06	2.853917e-09	1.211821e+01	1.860570e+02
2.320000e-06	1.600515e-06	2.777604e-09	1.142076e+01	1.807628e+02
2.330000e-06	1.502184e-06	2.693879e-09	1.071909e+01	1.753720e+02
2.340000e-06	1.403365e-06	2.611914e-09	1.001396e+01	1.698798e+02
2.350000e-06	1.304102e-06	2.526127e-09	9.305648e+00	1.642814e+02
2.360000e-06	1.204439e-06	2.438688e-09	8.594485e+00	1.585719e+02
2.370000e-06	1.104560e-06	2.351789e-09	7.881783e+00	1.527474e+02
2.380000e-06	1.004472e-06	2.261705e-09	7.167588e+00	1.468048e+02
2.390000e-06	9.040282e-07	2.170713e-09	6.450851e+00	1.407420e+02
2.400000e-06	8.031955e-07	2.077427e-09	5.731342e+00	1.345582e+02
2.410000e-06	7.020875e-07	1.981161e-09	5.009868e+00	1.282532e+02
2.420000e-06	6.008174e-07	1.879577e-09	4.287237e+00	1.218273e+02
2.430000e-06	4.992934e-07	1.775006e-09	3.562796e+00	1.152806e+02
2.440000e-06	3.974660e-07	1.673584e-09	2.836188e+00	1.086127e+02
2.450000e-06	2.954157e-07	1.577380e-09	2.107991e+00	1.018219e+02
2.460000e-06	1.932237e-07	1.475217e-09	1.378781e+00	9.490477e+01
2.470000e-06	9.087730e-08	1.365158e-09	6.484709e-01	8.785582e+01
2.480000e-06	-1.156359e-08	1.250619e-09	-8.251400e-02	8.066744e+01
2.490000e-06	-1.139786e-07	1.133066e-09	-8.133141e-01	7.332989e+01
2.500000e-06	-2.163741e-07	1.017024e-09	-1.543975e+00	6.583169e+01
2.510000e-06	-3.187114e-07	9.030021e-10	-2.274221e+00	5.816013e+01
2.520000e-06	-4.208202e-07	7.877433e-10	-3.002836e+00	5.030200e+01
2.530000e-06	-5.226772e-07	6.659359e-10	-3.729655e+00	4.224448e+01
2.540000e-06	-6.243940e-07	5.379928e-10	-4.455473e+00	3.397604e+01
2.550000e-06	-7.258148e-07	4.072663e-10	-5.179179e+00	2.548740e+01
2.560000e-06	-8.268115e-07	2.721148e-10	-5.899858e+00	1.677242e+01
2.570000e-06	-9.274860e-07	1.317713e-10	-6.618238e+00	7.828835e+00
2.580000e-06	-1.027875e-06	-9.629597e-12	-7.334585e+00	-1.341087e+00
2.590000e-06	-1.127918e-06	-1.504193e-10	-8.048455e+00	-1.073016e+01
2.600000e-06	-1.227568e-06	-2.930681e-10	-8.759526e+00	-2.032607e+01
2.610000e-06	-1.326819e-06	-4.402451e-10	-9.467752e+00	-3.011134e+01
2.620000e-06	-1.425637e-06	-5.920437e-10	-1.017288e+01	-4.006358e+01
2.630000e-06	-1.523924e-06	-7.465770e-10	-1.087422e+01	-5.015586e+01
2.640000e-06	-1.621671e-06	-9.007884e-10	-1.157172e+01	-6.035725e+01
2.650000e-06	-1.718845e-06	-1.055210e-09	-1.226512e+01	-7.063350e+01
2.660000e-06	-1.815432e-06	-1.210322e-09	-1.295433e+01	-8.094785e+01
2.670000e-06	-1.911500e-06	-1.367046e-09	-1.363984e+01	-9.126180e+01
2.680000e-06	-2.007050e-06	-1.524656e-09	-1.432166e+01	-1.015361e+02
2.690000e-06	-2.101858e-06	-1.679101e-09	-1.499817e+01	-1.117315e+02
2.700000e-06	-2.195617e-06	-1.830907e-09	-1.566721e+01	-1.218097e+02
2.710000e-06	-2.288375e-06	-1.982071e-09	-1.632910e+01	-1.317343e+02
2.720000e-06	-2.380285e-06	-2.131785e-09	-1.698494e+01	-1.414712e+02
2.730000e-06	-2.471367e-06	-2.277246e-09	-1.763487e+01	-1.509896e+02
2.740000e-06	-2.561554e-06	-2.418362e-09	-1.827842e+01	-1.602626e+02
2.750000e-06	-2.650804e-06	-2.556381e-09	-1.891527e+01	-1.692671e+02
2.760000e-06	-2.739196e-06	-2.689983e-09	-1.954601e+01	-1.779850e+02
2.770000e-06	-2.826864e-06	-2.818123e-09	-2.017158e+01	-1.864026e+02
2.780000e-06	-2.913591e-06	-2.941795e-09	-2.079044e+01	-1.945110e+02
2.790000e-06	-2.999059e-06	-3.061316e-09	-2.140031e+01	-2.023059e+02
2.800000e-06	-3.083375e-06	-3.177921e-09	-2.200196e+01	-2.097876e+02
2.810000e-06	-3.166705e-06	-3.290783e-09	-2.259658e+01	-2.169602e+02
2.820000e-06	-3.249036e-06	-3.396059e-09	-2.318406e+01	-2.238316e+02
2.830000e-06	-3.330289e-06	-3.496342e-09	-2.376386e+01	-2.304125e+02
2.840000e-06	-3.410415e-06	-3.593277e-09	-2.433561e+01	-2.367161e+02
2.850000e-06	-3.489283e-06	-3.684559e-09	-2.489839e+01	-2.427573e+02
2.860000e-06	-3.566688e-06	-3.771748e-09	-2.545072e+01	-2.485519e+02
2.870000e-06	-3.642572e-06	-3.855252e-09	-2.599221e+01	-2.541158e+02
2.880000e-06	-3.716985e-06	-3.936241e-09	-2.652319e+01	-2.594648e+02
2.890000e-06	-3.790066e-06	-4.015299e-09	-2.704467e+01	-2.646133e+02
2.900000e-06	-3.861914e-06	-4.092388e-09	-2.755736e+01	-2.695743e+02
2.910000e-06	-3.932314e-06	-4.166533e-09	-2.805971e+01	-2.743586e+02
2.920000e-06	-4.001115e-06	-4.237298e-09	-2.855065e+01	-2.789748e+02
2.930000e-06	-4.068468e-06	-4.306561e-09	-2.903126e+01	-2.834291e+02
2.940000e-06	-4.134457e-06	-4.373446e-09	-2.950214e+01	-2.877253e+02
