# Temperatura_=_62.17
# Concentracion g/m^3_=_15000.0
# C_Vs_to_Am_M_A/Vsm_=_65563218390.804596
# pendiente_HvsI_1/m_=_3716.3
# ordenada_HvsI_A/m_=_1297.0
# frecuencia_Hz_=_301575.1313844902

Tiempo_(s)	Campo_(V.s)	Magnetizacion_(V.s)	Campo_(kA/m)	Magnetizacion_(A/m)
0.000000e+00	-5.374945e-06	-5.595072e-09	-3.834175e+01	-3.657506e+02
1.000000e-08	-5.372204e-06	-5.596531e-09	-3.832219e+01	-3.655572e+02
2.000000e-08	-5.367722e-06	-5.590552e-09	-3.829022e+01	-3.652868e+02
3.000000e-08	-5.361625e-06	-5.584234e-09	-3.824673e+01	-3.649433e+02
4.000000e-08	-5.353887e-06	-5.578169e-09	-3.819153e+01	-3.645302e+02
5.000000e-08	-5.344360e-06	-5.566537e-09	-3.812357e+01	-3.640502e+02
6.000000e-08	-5.332758e-06	-5.553544e-09	-3.804081e+01	-3.635046e+02
7.000000e-08	-5.319236e-06	-5.533870e-09	-3.794435e+01	-3.628936e+02
8.000000e-08	-5.303681e-06	-5.517541e-09	-3.783339e+01	-3.622157e+02
9.000000e-08	-5.285877e-06	-5.586360e-09	-3.770639e+01	-3.614685e+02
1.000000e-07	-5.266018e-06	-5.589692e-09	-3.756473e+01	-3.606484e+02
1.100000e-07	-5.244263e-06	-5.523255e-09	-3.740954e+01	-3.597517e+02
1.200000e-07	-5.220808e-06	-5.515147e-09	-3.724222e+01	-3.587743e+02
1.300000e-07	-5.195870e-06	-5.376189e-09	-3.706433e+01	-3.577130e+02
1.400000e-07	-5.169329e-06	-5.349941e-09	-3.687500e+01	-3.565652e+02
1.500000e-07	-5.141129e-06	-5.557538e-09	-3.667384e+01	-3.553297e+02
1.600000e-07	-5.111482e-06	-5.388138e-09	-3.646235e+01	-3.540066e+02
1.700000e-07	-5.080206e-06	-5.398248e-09	-3.623925e+01	-3.525971e+02
1.800000e-07	-5.046811e-06	-5.508483e-09	-3.600103e+01	-3.511037e+02
1.900000e-07	-5.011556e-06	-5.221481e-09	-3.574954e+01	-3.495293e+02
2.000000e-07	-4.974843e-06	-5.287564e-09	-3.548765e+01	-3.478774e+02
2.100000e-07	-4.936354e-06	-5.350153e-09	-3.521309e+01	-3.461508e+02
2.200000e-07	-4.896052e-06	-5.185316e-09	-3.492560e+01	-3.443523e+02
2.300000e-07	-4.853818e-06	-5.255150e-09	-3.462432e+01	-3.424832e+02
2.400000e-07	-4.809675e-06	-5.247592e-09	-3.430944e+01	-3.405441e+02
2.500000e-07	-4.763862e-06	-5.178285e-09	-3.398263e+01	-3.385344e+02
2.600000e-07	-4.716155e-06	-5.192940e-09	-3.364232e+01	-3.364523e+02
2.700000e-07	-4.666321e-06	-5.080800e-09	-3.328683e+01	-3.342955e+02
2.800000e-07	-4.614384e-06	-5.073544e-09	-3.291634e+01	-3.320614e+02
2.900000e-07	-4.560628e-06	-5.057925e-09	-3.253288e+01	-3.297471e+02
3.000000e-07	-4.505335e-06	-4.993103e-09	-3.213845e+01	-3.273504e+02
3.100000e-07	-4.448415e-06	-4.984416e-09	-3.173242e+01	-3.248695e+02
3.200000e-07	-4.389596e-06	-4.962140e-09	-3.131284e+01	-3.223033e+02
3.300000e-07	-4.329152e-06	-4.898222e-09	-3.088167e+01	-3.196517e+02
3.400000e-07	-4.267303e-06	-4.789182e-09	-3.044047e+01	-3.169152e+02
3.500000e-07	-4.204047e-06	-4.789428e-09	-2.998924e+01	-3.140950e+02
3.600000e-07	-4.139322e-06	-4.774091e-09	-2.952753e+01	-3.111924e+02
3.700000e-07	-4.072925e-06	-4.704634e-09	-2.905389e+01	-3.082088e+02
3.800000e-07	-4.004939e-06	-4.684313e-09	-2.856892e+01	-3.051453e+02
3.900000e-07	-3.935564e-06	-4.628022e-09	-2.807404e+01	-3.020027e+02
4.000000e-07	-3.864999e-06	-4.563542e-09	-2.757066e+01	-2.987812e+02
4.100000e-07	-3.793265e-06	-4.496944e-09	-2.705896e+01	-2.954807e+02
4.200000e-07	-3.720108e-06	-4.448784e-09	-2.653710e+01	-2.921005e+02
4.300000e-07	-3.645351e-06	-4.420591e-09	-2.600383e+01	-2.886398e+02
4.400000e-07	-3.569034e-06	-4.364592e-09	-2.545942e+01	-2.850978e+02
4.500000e-07	-3.491285e-06	-4.307635e-09	-2.490480e+01	-2.814739e+02
4.600000e-07	-3.412166e-06	-4.248228e-09	-2.434042e+01	-2.777675e+02
4.700000e-07	-3.331785e-06	-4.189374e-09	-2.376703e+01	-2.739785e+02
4.800000e-07	-3.250170e-06	-4.120925e-09	-2.318483e+01	-2.701071e+02
4.900000e-07	-3.167354e-06	-4.049705e-09	-2.259407e+01	-2.661535e+02
5.000000e-07	-3.083554e-06	-4.001884e-09	-2.199629e+01	-2.621178e+02
5.100000e-07	-2.998920e-06	-3.942520e-09	-2.139256e+01	-2.579997e+02
5.200000e-07	-2.913325e-06	-3.876917e-09	-2.078197e+01	-2.537987e+02
5.300000e-07	-2.826662e-06	-3.807622e-09	-2.016377e+01	-2.495133e+02
5.400000e-07	-2.739039e-06	-3.735158e-09	-1.953872e+01	-2.451414e+02
5.500000e-07	-2.650470e-06	-3.666539e-09	-1.890692e+01	-2.406804e+02
5.600000e-07	-2.560824e-06	-3.590696e-09	-1.826743e+01	-2.361269e+02
5.700000e-07	-2.470109e-06	-3.521986e-09	-1.762033e+01	-2.314775e+02
5.800000e-07	-2.378476e-06	-3.453203e-09	-1.696667e+01	-2.267289e+02
5.900000e-07	-2.286018e-06	-3.381265e-09	-1.630713e+01	-2.218785e+02
6.000000e-07	-2.192787e-06	-3.298932e-09	-1.564208e+01	-2.169241e+02
6.100000e-07	-2.098782e-06	-3.217916e-09	-1.497150e+01	-2.118648e+02
6.200000e-07	-2.004063e-06	-3.138776e-09	-1.429582e+01	-2.067009e+02
6.300000e-07	-1.908673e-06	-3.055584e-09	-1.361537e+01	-2.014335e+02
6.400000e-07	-1.812584e-06	-2.979479e-09	-1.292992e+01	-1.960649e+02
6.500000e-07	-1.715781e-06	-2.903744e-09	-1.223939e+01	-1.905977e+02
6.600000e-07	-1.618271e-06	-2.823034e-09	-1.154381e+01	-1.850344e+02
6.700000e-07	-1.520031e-06	-2.729433e-09	-1.084302e+01	-1.793775e+02
6.800000e-07	-1.421132e-06	-2.634965e-09	-1.013753e+01	-1.736283e+02
6.900000e-07	-1.321708e-06	-2.543159e-09	-9.428297e+00	-1.677870e+02
7.000000e-07	-1.221847e-06	-2.451229e-09	-8.715953e+00	-1.618526e+02
7.100000e-07	-1.121693e-06	-2.358785e-09	-8.001508e+00	-1.558225e+02
7.200000e-07	-1.021315e-06	-2.264907e-09	-7.285472e+00	-1.496927e+02
7.300000e-07	-9.206753e-07	-2.170073e-09	-6.567565e+00	-1.434582e+02
7.400000e-07	-8.197333e-07	-2.075192e-09	-5.847503e+00	-1.371135e+02
7.500000e-07	-7.184116e-07	-1.982262e-09	-5.124732e+00	-1.306525e+02
7.600000e-07	-6.167890e-07	-1.884160e-09	-4.399816e+00	-1.240694e+02
7.700000e-07	-5.149823e-07	-1.777757e-09	-3.673586e+00	-1.173585e+02
7.800000e-07	-4.130048e-07	-1.667550e-09	-2.946137e+00	-1.105148e+02
7.900000e-07	-3.108974e-07	-1.559662e-09	-2.217762e+00	-1.035336e+02
8.000000e-07	-2.086789e-07	-1.451756e-09	-1.488594e+00	-9.641024e+01
8.100000e-07	-1.063345e-07	-1.343366e-09	-7.585290e-01	-8.914012e+01
8.200000e-07	-3.921079e-09	-1.234806e-09	-2.797071e-02	-8.171806e+01
8.300000e-07	9.843113e-08	-1.120598e-09	7.021507e-01	-7.413795e+01
8.400000e-07	2.007427e-07	-1.002537e-09	1.431982e+00	-6.639247e+01
8.500000e-07	3.030200e-07	-8.842095e-10	2.161569e+00	-5.847301e+01
8.600000e-07	4.052063e-07	-7.644030e-10	2.890507e+00	-5.036973e+01
8.700000e-07	5.072987e-07	-6.364152e-10	3.618775e+00	-4.207200e+01
8.800000e-07	6.092898e-07	-5.016990e-10	4.346321e+00	-3.356905e+01
8.900000e-07	7.110790e-07	-3.663814e-10	5.072426e+00	-2.485086e+01
9.000000e-07	8.126000e-07	-2.309769e-10	5.796618e+00	-1.590923e+01
9.100000e-07	9.138011e-07	-9.583323e-11	6.518528e+00	-6.738936e+00
9.200000e-07	1.014640e-06	4.287362e-11	7.237858e+00	2.661180e+00
9.300000e-07	1.115124e-06	1.893963e-10	7.954648e+00	1.228726e+01
9.400000e-07	1.215285e-06	3.432332e-10	8.669143e+00	2.212970e+01
9.500000e-07	1.315174e-06	4.992389e-10	9.381693e+00	3.217280e+01
9.600000e-07	1.414675e-06	6.550764e-10	1.009147e+01	4.239471e+01
9.700000e-07	1.513576e-06	8.114904e-10	1.079697e+01	5.276778e+01
9.800000e-07	1.611715e-06	9.726404e-10	1.149704e+01	6.325930e+01
9.900000e-07	1.709028e-06	1.137167e-09	1.219122e+01	7.383244e+01
1.000000e-06	1.805635e-06	1.302314e-09	1.288035e+01	8.444743e+01
1.010000e-06	1.901537e-06	1.466711e-09	1.356447e+01	9.506285e+01
1.020000e-06	1.996654e-06	1.628488e-09	1.424297e+01	1.056369e+02
1.030000e-06	2.091112e-06	1.789694e-09	1.491679e+01	1.161284e+02
1.040000e-06	2.184925e-06	1.949740e-09	1.558599e+01	1.264984e+02
1.050000e-06	2.277945e-06	2.106250e-09	1.624954e+01	1.367100e+02
1.060000e-06	2.370249e-06	2.257423e-09	1.690799e+01	1.467302e+02
1.070000e-06	2.461899e-06	2.402010e-09	1.756176e+01	1.565291e+02
1.080000e-06	2.552646e-06	2.545605e-09	1.820910e+01	1.660812e+02
1.090000e-06	2.642260e-06	2.692099e-09	1.884835e+01	1.753649e+02
1.100000e-06	2.730785e-06	2.837539e-09	1.947984e+01	1.843625e+02
1.110000e-06	2.818341e-06	2.971155e-09	2.010442e+01	1.930608e+02
1.120000e-06	2.904985e-06	3.093884e-09	2.072248e+01	2.014503e+02
1.130000e-06	2.990692e-06	3.212285e-09	2.133386e+01	2.095256e+02
1.140000e-06	3.075441e-06	3.330497e-09	2.193841e+01	2.172852e+02
1.150000e-06	3.159277e-06	3.444627e-09	2.253645e+01	2.247314e+02
1.160000e-06	3.242069e-06	3.551597e-09	2.312704e+01	2.318700e+02
1.170000e-06	3.323621e-06	3.655061e-09	2.370879e+01	2.387100e+02
1.180000e-06	3.403910e-06	3.752050e-09	2.428153e+01	2.452632e+02
1.190000e-06	3.483025e-06	3.846257e-09	2.484588e+01	2.515437e+02
1.200000e-06	3.560925e-06	3.940034e-09	2.540158e+01	2.575670e+02
1.210000e-06	3.637577e-06	4.031694e-09	2.594837e+01	2.633496e+02
1.220000e-06	3.712870e-06	4.119714e-09	2.648546e+01	2.689075e+02
1.230000e-06	3.786566e-06	4.202342e-09	2.701117e+01	2.742564e+02
1.240000e-06	3.858655e-06	4.279984e-09	2.752542e+01	2.794100e+02
1.250000e-06	3.929323e-06	4.354862e-09	2.802952e+01	2.843801e+02
1.260000e-06	3.998644e-06	4.427136e-09	2.852401e+01	2.891763e+02
1.270000e-06	4.066699e-06	4.499102e-09	2.900948e+01	2.938052e+02
1.280000e-06	4.133299e-06	4.568222e-09	2.948456e+01	2.982713e+02
1.290000e-06	4.198149e-06	4.633475e-09	2.994717e+01	3.025767e+02
1.300000e-06	4.261468e-06	4.694033e-09	3.039885e+01	3.067221e+02
1.310000e-06	4.323422e-06	4.752781e-09	3.084079e+01	3.107070e+02
1.320000e-06	4.383991e-06	4.811160e-09	3.127286e+01	3.145303e+02
1.330000e-06	4.443183e-06	4.864609e-09	3.169510e+01	3.181911e+02
1.340000e-06	4.500678e-06	4.914402e-09	3.210523e+01	3.216891e+02
1.350000e-06	4.556339e-06	4.964070e-09	3.250229e+01	3.250249e+02
1.360000e-06	4.610375e-06	5.012630e-09	3.288774e+01	3.282000e+02
1.370000e-06	4.662730e-06	5.057126e-09	3.326122e+01	3.312171e+02
1.380000e-06	4.713115e-06	5.097611e-09	3.362064e+01	3.340799e+02
1.390000e-06	4.761455e-06	5.136566e-09	3.396546e+01	3.367927e+02
1.400000e-06	4.808043e-06	5.173605e-09	3.429780e+01	3.393602e+02
1.410000e-06	4.853085e-06	5.206998e-09	3.461910e+01	3.417873e+02
1.420000e-06	4.896624e-06	5.239176e-09	3.492968e+01	3.440787e+02
1.430000e-06	4.938334e-06	5.270545e-09	3.522722e+01	3.462390e+02
1.440000e-06	4.978097e-06	5.299445e-09	3.551087e+01	3.482722e+02
1.450000e-06	5.016213e-06	5.326349e-09	3.578276e+01	3.501820e+02
1.460000e-06	5.052753e-06	5.352968e-09	3.604341e+01	3.519720e+02
1.470000e-06	5.087643e-06	5.378107e-09	3.629230e+01	3.536455e+02
1.480000e-06	5.120610e-06	5.399446e-09	3.652747e+01	3.552056e+02
1.490000e-06	5.151598e-06	5.418146e-09	3.674852e+01	3.566558e+02
1.500000e-06	5.180864e-06	5.436157e-09	3.695729e+01	3.579993e+02
1.510000e-06	5.208529e-06	5.453663e-09	3.715463e+01	3.592396e+02
1.520000e-06	5.234168e-06	5.469631e-09	3.733753e+01	3.603799e+02
1.530000e-06	5.257680e-06	5.484335e-09	3.750524e+01	3.614234e+02
1.540000e-06	5.279403e-06	5.498058e-09	3.766021e+01	3.623727e+02
1.550000e-06	5.299441e-06	5.510631e-09	3.780315e+01	3.632299e+02
1.560000e-06	5.317683e-06	5.522964e-09	3.793327e+01	3.639963e+02
1.570000e-06	5.333911e-06	5.535368e-09	3.804904e+01	3.646726e+02
1.580000e-06	5.348153e-06	5.546606e-09	3.815063e+01	3.652590e+02
1.590000e-06	5.360396e-06	5.554643e-09	3.823797e+01	3.657548e+02
1.600000e-06	5.370406e-06	5.560355e-09	3.830937e+01	3.661597e+02
1.610000e-06	5.378292e-06	5.564824e-09	3.836562e+01	3.664729e+02
1.620000e-06	5.384362e-06	5.568849e-09	3.840892e+01	3.666945e+02
1.630000e-06	5.388712e-06	5.572576e-09	3.843996e+01	3.668250e+02
1.640000e-06	5.391163e-06	5.574286e-09	3.845743e+01	3.668660e+02
1.650000e-06	5.391522e-06	5.577638e-09	3.846000e+01	3.668197e+02
1.660000e-06	5.390029e-06	5.575249e-09	3.844935e+01	3.666893e+02
1.670000e-06	5.386919e-06	5.566148e-09	3.842716e+01	3.664788e+02
1.680000e-06	5.382215e-06	5.564752e-09	3.839361e+01	3.661920e+02
1.690000e-06	5.375604e-06	5.561770e-09	3.834645e+01	3.658330e+02
1.700000e-06	5.367149e-06	5.555662e-09	3.828613e+01	3.654051e+02
1.710000e-06	5.357130e-06	5.550476e-09	3.821467e+01	3.649106e+02
1.720000e-06	5.345390e-06	5.548083e-09	3.813092e+01	3.643507e+02
1.730000e-06	5.331712e-06	5.575999e-09	3.803335e+01	3.637252e+02
1.740000e-06	5.315946e-06	5.477800e-09	3.792088e+01	3.630323e+02
1.750000e-06	5.297823e-06	5.428280e-09	3.779160e+01	3.622695e+02
1.760000e-06	5.277047e-06	5.469498e-09	3.764340e+01	3.614330e+02
1.770000e-06	5.253950e-06	5.435066e-09	3.747864e+01	3.605189e+02
1.780000e-06	5.229533e-06	5.598654e-09	3.730446e+01	3.595235e+02
1.790000e-06	5.204488e-06	5.530755e-09	3.712580e+01	3.584435e+02
1.800000e-06	5.178074e-06	5.284130e-09	3.693738e+01	3.572766e+02
1.810000e-06	5.149406e-06	5.496338e-09	3.673288e+01	3.560220e+02
1.820000e-06	5.118903e-06	5.358565e-09	3.651529e+01	3.546799e+02
1.830000e-06	5.086772e-06	5.234672e-09	3.628609e+01	3.532519e+02
1.840000e-06	5.052648e-06	5.547572e-09	3.604267e+01	3.517405e+02
1.850000e-06	5.016879e-06	5.328130e-09	3.578751e+01	3.501489e+02
1.860000e-06	4.979322e-06	5.260043e-09	3.551960e+01	3.484803e+02
1.870000e-06	4.939775e-06	5.413475e-09	3.523750e+01	3.467378e+02
1.880000e-06	4.898666e-06	5.148418e-09	3.494425e+01	3.449237e+02
1.890000e-06	4.855766e-06	5.222023e-09	3.463822e+01	3.430393e+02
1.900000e-06	4.811206e-06	5.197925e-09	3.432036e+01	3.410849e+02
1.910000e-06	4.764917e-06	5.091645e-09	3.399016e+01	3.390594e+02
1.920000e-06	4.716568e-06	5.266039e-09	3.364527e+01	3.369612e+02
1.930000e-06	4.666633e-06	5.016635e-09	3.328906e+01	3.347878e+02
1.940000e-06	4.614973e-06	5.047122e-09	3.292054e+01	3.325364e+02
1.950000e-06	4.561174e-06	5.115206e-09	3.253677e+01	3.302043e+02
1.960000e-06	4.505461e-06	4.919352e-09	3.213935e+01	3.277893e+02
1.970000e-06	4.448065e-06	4.941739e-09	3.172992e+01	3.252898e+02
1.980000e-06	4.389194e-06	4.876957e-09	3.130997e+01	3.227049e+02
1.990000e-06	4.328871e-06	4.939639e-09	3.087966e+01	3.200348e+02
2.000000e-06	4.266923e-06	4.861313e-09	3.043776e+01	3.172799e+02
2.010000e-06	4.203334e-06	4.732588e-09	2.998415e+01	3.144416e+02
2.020000e-06	4.138199e-06	4.801730e-09	2.951952e+01	3.115212e+02
2.030000e-06	4.071649e-06	4.647049e-09	2.904479e+01	3.085201e+02
2.040000e-06	4.003648e-06	4.630159e-09	2.855971e+01	3.054392e+02
2.050000e-06	3.934180e-06	4.618304e-09	2.806416e+01	3.022794e+02
2.060000e-06	3.863181e-06	4.590834e-09	2.755770e+01	2.990407e+02
2.070000e-06	3.790788e-06	4.558967e-09	2.704128e+01	2.957228e+02
2.080000e-06	3.717170e-06	4.400298e-09	2.651614e+01	2.923250e+02
2.090000e-06	3.642204e-06	4.402097e-09	2.598137e+01	2.888467e+02
2.100000e-06	3.565847e-06	4.340745e-09	2.543669e+01	2.852868e+02
2.110000e-06	3.487860e-06	4.287218e-09	2.488038e+01	2.816449e+02
2.120000e-06	3.408384e-06	4.230711e-09	2.431344e+01	2.779205e+02
2.130000e-06	3.327824e-06	4.174879e-09	2.373877e+01	2.741135e+02
2.140000e-06	3.246104e-06	4.153683e-09	2.315583e+01	2.702241e+02
2.150000e-06	3.163326e-06	4.048145e-09	2.256533e+01	2.662526e+02
2.160000e-06	3.079607e-06	4.003719e-09	2.196814e+01	2.621989e+02
2.170000e-06	2.994799e-06	3.936056e-09	2.136316e+01	2.580628e+02
2.180000e-06	2.908721e-06	3.871748e-09	2.074913e+01	2.538435e+02
2.190000e-06	2.821324e-06	3.802678e-09	2.012569e+01	2.495394e+02
2.200000e-06	2.732905e-06	3.738935e-09	1.949496e+01	2.451484e+02
2.210000e-06	2.643683e-06	3.701261e-09	1.885851e+01	2.406674e+02
2.220000e-06	2.553526e-06	3.616891e-09	1.821538e+01	2.360933e+02
2.230000e-06	2.462409e-06	3.531172e-09	1.756540e+01	2.314226e+02
2.240000e-06	2.370518e-06	3.448490e-09	1.690990e+01	2.266521e+02
2.250000e-06	2.277891e-06	3.394054e-09	1.624916e+01	2.217792e+02
2.260000e-06	2.184513e-06	3.322688e-09	1.558305e+01	2.168020e+02
2.270000e-06	2.090245e-06	3.245382e-09	1.491060e+01	2.117199e+02
2.280000e-06	1.994891e-06	3.167712e-09	1.423040e+01	2.065334e+02
2.290000e-06	1.898671e-06	3.079056e-09	1.354402e+01	2.012438e+02
2.300000e-06	1.801919e-06	2.990556e-09	1.285385e+01	1.958535e+02
2.310000e-06	1.704716e-06	2.905049e-09	1.216046e+01	1.903651e+02
2.320000e-06	1.606903e-06	2.834887e-09	1.146272e+01	1.847813e+02
2.330000e-06	1.508536e-06	2.750313e-09	1.076102e+01	1.791041e+02
2.340000e-06	1.409764e-06	2.659669e-09	1.005644e+01	1.733349e+02
2.350000e-06	1.310582e-06	2.568238e-09	9.348934e+00	1.674735e+02
2.360000e-06	1.211054e-06	2.481503e-09	8.638956e+00	1.615185e+02
2.370000e-06	1.111251e-06	2.390545e-09	7.927021e+00	1.554670e+02
2.380000e-06	1.011091e-06	2.292643e-09	7.212537e+00	1.493149e+02
2.390000e-06	9.104762e-07	2.196317e-09	6.494810e+00	1.430570e+02
2.400000e-06	8.095210e-07	2.098730e-09	5.774655e+00	1.366875e+02
2.410000e-06	7.082655e-07	2.001768e-09	5.052356e+00	1.302005e+02
2.420000e-06	6.068222e-07	1.901453e-09	4.328718e+00	1.235901e+02
2.430000e-06	5.052089e-07	1.799496e-09	3.603868e+00	1.168509e+02
2.440000e-06	4.033651e-07	1.696319e-09	2.877373e+00	1.099778e+02
2.450000e-06	3.013803e-07	1.591514e-09	2.149872e+00	1.029661e+02
2.460000e-06	1.992519e-07	1.481380e-09	1.421348e+00	9.581137e+01
2.470000e-06	9.693829e-08	1.369125e-09	6.915016e-01	8.850882e+01
2.480000e-06	-5.426814e-09	1.253350e-09	-3.871175e-02	8.105310e+01
2.490000e-06	-1.077363e-07	1.131356e-09	-7.685286e-01	7.343787e+01
2.500000e-06	-2.100549e-07	1.008151e-09	-1.498410e+00	6.565555e+01
2.510000e-06	-3.123750e-07	8.884491e-10	-2.228303e+00	5.769722e+01
2.520000e-06	-4.145735e-07	7.703481e-10	-2.957327e+00	4.955285e+01
2.530000e-06	-5.165526e-07	6.446823e-10	-3.684787e+00	4.121170e+01
2.540000e-06	-6.183246e-07	5.140046e-10	-4.410770e+00	3.266309e+01
2.550000e-06	-7.198382e-07	3.797808e-10	-5.134909e+00	2.389729e+01
2.560000e-06	-8.210407e-07	2.398555e-10	-5.856829e+00	1.490664e+01
2.570000e-06	-9.219135e-07	9.495976e-11	-6.576397e+00	5.686701e+00
2.580000e-06	-1.022482e-06	-5.049461e-11	-7.293793e+00	-3.762685e+00
2.590000e-06	-1.122678e-06	-1.949708e-10	-8.008535e+00	-1.343648e+01
2.600000e-06	-1.222405e-06	-3.429889e-10	-8.719928e+00	-2.332379e+01
2.610000e-06	-1.321668e-06	-4.953578e-10	-9.428014e+00	-3.340759e+01
2.620000e-06	-1.420475e-06	-6.509272e-10	-1.013285e+01	-4.366474e+01
2.630000e-06	-1.518820e-06	-8.084658e-10	-1.083438e+01	-5.406644e+01
2.640000e-06	-1.616632e-06	-9.685083e-10	-1.153211e+01	-6.457901e+01
2.650000e-06	-1.713838e-06	-1.129461e-09	-1.222553e+01	-7.516488e+01
2.660000e-06	-1.810508e-06	-1.289450e-09	-1.291512e+01	-8.578382e+01
2.670000e-06	-1.906723e-06	-1.451773e-09	-1.360146e+01	-9.639421e+01
2.680000e-06	-2.002347e-06	-1.613717e-09	-1.428359e+01	-1.069543e+02
2.690000e-06	-2.097098e-06	-1.770979e-09	-1.495948e+01	-1.174234e+02
2.700000e-06	-2.190857e-06	-1.925179e-09	-1.562830e+01	-1.277627e+02
2.710000e-06	-2.283758e-06	-2.079517e-09	-1.629101e+01	-1.379364e+02
2.720000e-06	-2.375813e-06	-2.232594e-09	-1.694767e+01	-1.479118e+02
2.730000e-06	-2.467004e-06	-2.380341e-09	-1.759818e+01	-1.576602e+02
2.740000e-06	-2.557290e-06	-2.523888e-09	-1.824223e+01	-1.671568e+02
2.750000e-06	-2.646644e-06	-2.665669e-09	-1.887963e+01	-1.763808e+02
2.760000e-06	-2.735190e-06	-2.803179e-09	-1.951126e+01	-1.853157e+02
2.770000e-06	-2.822922e-06	-2.934400e-09	-2.013709e+01	-1.939488e+02
2.780000e-06	-2.909668e-06	-3.062126e-09	-2.075589e+01	-2.022716e+02
2.790000e-06	-2.995266e-06	-3.184932e-09	-2.136650e+01	-2.102796e+02
2.800000e-06	-3.079712e-06	-3.302911e-09	-2.196889e+01	-2.179720e+02
2.810000e-06	-3.163093e-06	-3.417342e-09	-2.256368e+01	-2.253521e+02
2.820000e-06	-3.245433e-06	-3.527219e-09	-2.315104e+01	-2.324261e+02
2.830000e-06	-3.326715e-06	-3.632776e-09	-2.373086e+01	-2.392039e+02
2.840000e-06	-3.406956e-06	-3.733184e-09	-2.430326e+01	-2.456978e+02
2.850000e-06	-3.485991e-06	-3.827154e-09	-2.486704e+01	-2.519222e+02
2.860000e-06	-3.563517e-06	-3.916391e-09	-2.542007e+01	-2.578929e+02
2.870000e-06	-3.639499e-06	-4.002111e-09	-2.596208e+01	-2.636263e+02
2.880000e-06	-3.714061e-06	-4.085166e-09	-2.649396e+01	-2.691385e+02
2.890000e-06	-3.787328e-06	-4.166156e-09	-2.701661e+01	-2.744447e+02
2.900000e-06	-3.859354e-06	-4.244594e-09	-2.753040e+01	-2.795584e+02
2.910000e-06	-3.929928e-06	-4.320222e-09	-2.803383e+01	-2.844910e+02
2.920000e-06	-3.998854e-06	-4.393116e-09	-2.852551e+01	-2.892511e+02
2.930000e-06	-4.066273e-06	-4.464103e-09	-2.900644e+01	-2.938452e+02
2.940000e-06	-4.132311e-06	-4.533363e-09	-2.947751e+01	-2.982771e+02
