# Temperatura_=_35.96
# Concentracion g/m^3_=_15000.0
# C_Vs_to_Am_M_A/Vsm_=_65563218390.804596
# pendiente_HvsI_1/m_=_3716.3
# ordenada_HvsI_A/m_=_1297.0
# frecuencia_Hz_=_301973.0066752343

Tiempo_(s)	Campo_(V.s)	Magnetizacion_(V.s)	Campo_(kA/m)	Magnetizacion_(A/m)
0.000000e+00	-6.856733e-06	-1.000547e-08	-4.746600e+01	-6.548932e+02
1.000000e-08	-6.853000e-06	-1.000378e-08	-4.744016e+01	-6.546620e+02
2.000000e-08	-6.847045e-06	-9.998471e-09	-4.739894e+01	-6.543210e+02
3.000000e-08	-6.838894e-06	-9.993088e-09	-4.734252e+01	-6.538696e+02
4.000000e-08	-6.828369e-06	-9.984850e-09	-4.726966e+01	-6.533069e+02
5.000000e-08	-6.815389e-06	-9.973217e-09	-4.717980e+01	-6.526336e+02
6.000000e-08	-6.799918e-06	-9.955934e-09	-4.707270e+01	-6.518533e+02
7.000000e-08	-6.782122e-06	-9.939975e-09	-4.694951e+01	-6.509733e+02
8.000000e-08	-6.762205e-06	-9.963631e-09	-4.681163e+01	-6.500059e+02
9.000000e-08	-6.739835e-06	-9.977423e-09	-4.665678e+01	-6.489672e+02
1.000000e-07	-6.714586e-06	-9.929591e-09	-4.648199e+01	-6.478759e+02
1.100000e-07	-6.686650e-06	-9.889701e-09	-4.628860e+01	-6.467507e+02
1.200000e-07	-6.656491e-06	-9.871912e-09	-4.607983e+01	-6.456069e+02
1.300000e-07	-6.624372e-06	-9.805340e-09	-4.585748e+01	-6.444531e+02
1.400000e-07	-6.590327e-06	-9.780744e-09	-4.562180e+01	-6.432884e+02
1.500000e-07	-6.554350e-06	-9.857893e-09	-4.537274e+01	-6.421008e+02
1.600000e-07	-6.516350e-06	-9.782997e-09	-4.510969e+01	-6.408675e+02
1.700000e-07	-6.476232e-06	-9.739212e-09	-4.483197e+01	-6.395569e+02
1.800000e-07	-6.433702e-06	-9.747266e-09	-4.453756e+01	-6.381324e+02
1.900000e-07	-6.388588e-06	-9.666220e-09	-4.422526e+01	-6.365572e+02
2.000000e-07	-6.341117e-06	-9.674374e-09	-4.389664e+01	-6.347996e+02
2.100000e-07	-6.291103e-06	-9.679423e-09	-4.355041e+01	-6.328374e+02
2.200000e-07	-6.238458e-06	-9.684236e-09	-4.318598e+01	-6.306612e+02
2.300000e-07	-6.183399e-06	-9.625119e-09	-4.280483e+01	-6.282752e+02
2.400000e-07	-6.125931e-06	-9.502144e-09	-4.240700e+01	-6.256961e+02
2.500000e-07	-6.066173e-06	-9.477498e-09	-4.199333e+01	-6.229497e+02
2.600000e-07	-6.004251e-06	-9.450937e-09	-4.156467e+01	-6.200660e+02
2.700000e-07	-5.940140e-06	-9.405217e-09	-4.112086e+01	-6.170740e+02
2.800000e-07	-5.873759e-06	-9.372625e-09	-4.066133e+01	-6.139965e+02
2.900000e-07	-5.805085e-06	-9.312844e-09	-4.018593e+01	-6.108467e+02
3.000000e-07	-5.734294e-06	-9.245673e-09	-3.969588e+01	-6.076263e+02
3.100000e-07	-5.661325e-06	-9.202053e-09	-3.919075e+01	-6.043263e+02
3.200000e-07	-5.586140e-06	-9.197983e-09	-3.867027e+01	-6.009294e+02
3.300000e-07	-5.508749e-06	-9.128474e-09	-3.813453e+01	-5.974137e+02
3.400000e-07	-5.429091e-06	-9.040263e-09	-3.758310e+01	-5.937577e+02
3.500000e-07	-5.347363e-06	-8.983059e-09	-3.701733e+01	-5.899434e+02
3.600000e-07	-5.263864e-06	-8.934308e-09	-3.643931e+01	-5.859600e+02
3.700000e-07	-5.178665e-06	-8.899858e-09	-3.584951e+01	-5.818044e+02
3.800000e-07	-5.091806e-06	-8.829234e-09	-3.524823e+01	-5.774807e+02
3.900000e-07	-5.003144e-06	-8.744446e-09	-3.463446e+01	-5.729980e+02
4.000000e-07	-4.912548e-06	-8.650302e-09	-3.400731e+01	-5.683671e+02
4.100000e-07	-4.820247e-06	-8.580131e-09	-3.336835e+01	-5.635976e+02
4.200000e-07	-4.726422e-06	-8.539495e-09	-3.271884e+01	-5.586949e+02
4.300000e-07	-4.631001e-06	-8.475227e-09	-3.205829e+01	-5.536589e+02
4.400000e-07	-4.533756e-06	-8.376851e-09	-3.138511e+01	-5.484840e+02
4.500000e-07	-4.434757e-06	-8.272997e-09	-3.069978e+01	-5.431606e+02
4.600000e-07	-4.334191e-06	-8.187511e-09	-3.000361e+01	-5.376773e+02
4.700000e-07	-4.232154e-06	-8.108063e-09	-2.929725e+01	-5.320231e+02
4.800000e-07	-4.128745e-06	-8.037557e-09	-2.858140e+01	-5.261904e+02
4.900000e-07	-4.023836e-06	-7.949597e-09	-2.785516e+01	-5.201753e+02
5.000000e-07	-3.917314e-06	-7.833592e-09	-2.711776e+01	-5.139781e+02
5.100000e-07	-3.809322e-06	-7.722837e-09	-2.637018e+01	-5.076018e+02
5.200000e-07	-3.700037e-06	-7.636654e-09	-2.561365e+01	-5.010503e+02
5.300000e-07	-3.589532e-06	-7.548291e-09	-2.484867e+01	-4.943256e+02
5.400000e-07	-3.477656e-06	-7.433930e-09	-2.407421e+01	-4.874257e+02
5.500000e-07	-3.364244e-06	-7.314827e-09	-2.328911e+01	-4.803440e+02
5.600000e-07	-3.249339e-06	-7.201492e-09	-2.249368e+01	-4.730683e+02
5.700000e-07	-3.133032e-06	-7.091311e-09	-2.168854e+01	-4.655833e+02
5.800000e-07	-3.015520e-06	-6.984446e-09	-2.087506e+01	-4.578718e+02
5.900000e-07	-2.897034e-06	-6.873510e-09	-2.005483e+01	-4.499176e+02
6.000000e-07	-2.777570e-06	-6.739657e-09	-1.922784e+01	-4.417084e+02
6.100000e-07	-2.657040e-06	-6.594451e-09	-1.839347e+01	-4.332366e+02
6.200000e-07	-2.535464e-06	-6.461150e-09	-1.755185e+01	-4.245005e+02
6.300000e-07	-2.412867e-06	-6.336284e-09	-1.670317e+01	-4.155029e+02
6.400000e-07	-2.289311e-06	-6.198341e-09	-1.584785e+01	-4.062496e+02
6.500000e-07	-2.164962e-06	-6.042555e-09	-1.498704e+01	-3.967465e+02
6.600000e-07	-2.039928e-06	-5.883753e-09	-1.412149e+01	-3.869976e+02
6.700000e-07	-1.914275e-06	-5.728534e-09	-1.325164e+01	-3.770024e+02
6.800000e-07	-1.788029e-06	-5.576673e-09	-1.237770e+01	-3.667554e+02
6.900000e-07	-1.661183e-06	-5.423913e-09	-1.149960e+01	-3.562453e+02
7.000000e-07	-1.533703e-06	-5.263205e-09	-1.061712e+01	-3.454568e+02
7.100000e-07	-1.405620e-06	-5.089732e-09	-9.730457e+00	-3.343717e+02
7.200000e-07	-1.277015e-06	-4.911928e-09	-8.840187e+00	-3.229710e+02
7.300000e-07	-1.147923e-06	-4.734831e-09	-7.946540e+00	-3.112363e+02
7.400000e-07	-1.018455e-06	-4.553105e-09	-7.050295e+00	-2.991515e+02
7.500000e-07	-8.886795e-07	-4.363134e-09	-6.151919e+00	-2.867026e+02
7.600000e-07	-7.586338e-07	-4.161675e-09	-5.251673e+00	-2.738780e+02
7.700000e-07	-6.283845e-07	-3.955323e-09	-4.350016e+00	-2.606679e+02
7.800000e-07	-4.979585e-07	-3.750022e-09	-3.447137e+00	-2.470631e+02
7.900000e-07	-3.673435e-07	-3.541817e-09	-2.542950e+00	-2.330548e+02
8.000000e-07	-2.365830e-07	-3.325576e-09	-1.637755e+00	-2.186335e+02
8.100000e-07	-1.057195e-07	-3.097026e-09	-7.318474e-01	-2.037891e+02
8.200000e-07	2.523411e-08	-2.861087e-09	1.746841e-01	-1.885095e+02
8.300000e-07	1.562225e-07	-2.621636e-09	1.081456e+00	-1.727808e+02
8.400000e-07	2.872218e-07	-2.377658e-09	1.988304e+00	-1.565856e+02
8.500000e-07	4.181447e-07	-2.127216e-09	2.894623e+00	-1.399020e+02
8.600000e-07	5.489010e-07	-1.866460e-09	3.799789e+00	-1.227029e+02
8.700000e-07	6.794827e-07	-1.591828e-09	4.703746e+00	-1.049551e+02
8.800000e-07	8.099090e-07	-1.306672e-09	5.606627e+00	-8.662077e+01
8.900000e-07	9.401231e-07	-1.017818e-09	6.508039e+00	-6.765979e+01
9.000000e-07	1.070026e-06	-7.230601e-10	7.407298e+00	-4.803499e+01
9.100000e-07	1.199533e-06	-4.148108e-10	8.303817e+00	-2.771879e+01
9.200000e-07	1.328568e-06	-9.126918e-11	9.197066e+00	-6.701420e+00
9.300000e-07	1.457139e-06	2.436748e-10	1.008710e+01	1.500082e+01
9.400000e-07	1.585146e-06	5.856627e-10	1.097323e+01	3.733843e+01
9.500000e-07	1.712477e-06	9.347946e-10	1.185469e+01	6.022441e+01
9.600000e-07	1.839165e-06	1.290891e-09	1.273169e+01	8.353375e+01
9.700000e-07	1.965242e-06	1.650841e-09	1.360447e+01	1.071077e+02
9.800000e-07	2.090728e-06	2.012980e-09	1.447315e+01	1.307623e+02
9.900000e-07	2.215540e-06	2.370951e-09	1.533716e+01	1.543010e+02
1.000000e-06	2.339535e-06	2.721902e-09	1.619552e+01	1.775286e+02
1.010000e-06	2.462669e-06	3.066925e-09	1.704792e+01	2.002663e+02
1.020000e-06	2.584876e-06	3.402957e-09	1.789391e+01	2.223635e+02
1.030000e-06	2.706086e-06	3.729137e-09	1.873298e+01	2.437070e+02
1.040000e-06	2.826283e-06	4.042196e-09	1.956505e+01	2.642244e+02
1.050000e-06	2.945339e-06	4.342384e-09	2.038922e+01	2.838830e+02
1.060000e-06	3.063308e-06	4.629272e-09	2.120587e+01	3.026835e+02
1.070000e-06	3.180222e-06	4.903076e-09	2.201521e+01	3.206512e+02
1.080000e-06	3.295912e-06	5.165231e-09	2.281608e+01	3.378256e+02
1.090000e-06	3.410250e-06	5.415183e-09	2.360759e+01	3.542507e+02
1.100000e-06	3.523151e-06	5.653976e-09	2.438915e+01	3.699672e+02
1.110000e-06	3.634669e-06	5.879047e-09	2.516114e+01	3.850085e+02
1.120000e-06	3.745011e-06	6.093663e-09	2.592499e+01	3.993992e+02
1.130000e-06	3.854210e-06	6.302052e-09	2.668092e+01	4.131576e+02
1.140000e-06	3.962183e-06	6.504103e-09	2.742837e+01	4.262989e+02
1.150000e-06	4.068849e-06	6.696840e-09	2.816677e+01	4.388396e+02
1.160000e-06	4.174023e-06	6.879255e-09	2.889484e+01	4.508007e+02
1.170000e-06	4.277550e-06	7.051919e-09	2.961151e+01	4.622098e+02
1.180000e-06	4.379508e-06	7.216883e-09	3.031732e+01	4.730997e+02
1.190000e-06	4.480028e-06	7.374678e-09	3.101317e+01	4.835067e+02
1.200000e-06	4.578982e-06	7.525383e-09	3.169818e+01	4.934666e+02
1.210000e-06	4.676197e-06	7.669311e-09	3.237116e+01	5.030107e+02
1.220000e-06	4.771601e-06	7.808298e-09	3.303160e+01	5.121625e+02
1.230000e-06	4.865292e-06	7.944631e-09	3.368018e+01	5.209363e+02
1.240000e-06	4.957339e-06	8.077128e-09	3.431737e+01	5.293372e+02
1.250000e-06	5.047684e-06	8.203292e-09	3.494279e+01	5.373637e+02
1.260000e-06	5.136182e-06	8.322857e-09	3.555542e+01	5.450107e+02
1.270000e-06	5.222793e-06	8.432342e-09	3.615499e+01	5.522741e+02
1.280000e-06	5.307596e-06	8.533602e-09	3.674205e+01	5.591541e+02
1.290000e-06	5.390604e-06	8.632953e-09	3.731667e+01	5.656581e+02
1.300000e-06	5.471595e-06	8.725672e-09	3.787734e+01	5.718015e+02
1.310000e-06	5.550488e-06	8.811761e-09	3.842347e+01	5.776074e+02
1.320000e-06	5.627436e-06	8.894373e-09	3.895615e+01	5.831039e+02
1.330000e-06	5.702283e-06	8.974178e-09	3.947428e+01	5.883216e+02
1.340000e-06	5.774856e-06	9.051721e-09	3.997667e+01	5.932901e+02
1.350000e-06	5.845274e-06	9.125547e-09	4.046414e+01	5.980354e+02
1.360000e-06	5.913681e-06	9.195340e-09	4.093769e+01	6.025779e+02
1.370000e-06	5.979967e-06	9.261721e-09	4.139656e+01	6.069316e+02
1.380000e-06	6.044026e-06	9.325122e-09	4.184001e+01	6.111041e+02
1.390000e-06	6.106020e-06	9.385340e-09	4.226916e+01	6.150981e+02
1.400000e-06	6.166066e-06	9.442831e-09	4.268484e+01	6.189125e+02
1.410000e-06	6.223924e-06	9.496914e-09	4.308536e+01	6.225443e+02
1.420000e-06	6.279497e-06	9.547156e-09	4.347007e+01	6.259896e+02
1.430000e-06	6.332857e-06	9.596787e-09	4.383945e+01	6.292448e+02
1.440000e-06	6.383665e-06	9.646255e-09	4.419117e+01	6.323072e+02
1.450000e-06	6.431800e-06	9.692702e-09	4.452439e+01	6.351751e+02
1.460000e-06	6.477655e-06	9.734190e-09	4.484182e+01	6.378480e+02
1.470000e-06	6.521357e-06	9.771085e-09	4.514435e+01	6.403270e+02
1.480000e-06	6.562623e-06	9.802599e-09	4.543002e+01	6.426146e+02
1.490000e-06	6.601449e-06	9.830809e-09	4.569879e+01	6.447147e+02
1.500000e-06	6.638094e-06	9.857993e-09	4.595247e+01	6.466334e+02
1.510000e-06	6.672473e-06	9.884460e-09	4.619046e+01	6.483779e+02
1.520000e-06	6.704410e-06	9.909041e-09	4.641154e+01	6.499571e+02
1.530000e-06	6.734043e-06	9.930345e-09	4.661668e+01	6.513802e+02
1.540000e-06	6.761428e-06	9.949913e-09	4.680625e+01	6.526568e+02
1.550000e-06	6.786281e-06	9.966705e-09	4.697830e+01	6.537953e+02
1.560000e-06	6.808594e-06	9.979645e-09	4.713277e+01	6.548026e+02
1.570000e-06	6.828628e-06	9.989354e-09	4.727145e+01	6.556840e+02
1.580000e-06	6.846283e-06	9.997949e-09	4.739366e+01	6.564428e+02
1.590000e-06	6.861337e-06	1.000703e-08	4.749788e+01	6.570808e+02
1.600000e-06	6.873786e-06	1.001547e-08	4.758405e+01	6.575991e+02
1.610000e-06	6.883545e-06	1.002154e-08	4.765161e+01	6.579986e+02
1.620000e-06	6.890688e-06	1.002726e-08	4.770106e+01	6.582805e+02
1.630000e-06	6.895490e-06	1.003309e-08	4.773430e+01	6.584465e+02
1.640000e-06	6.897866e-06	1.003717e-08	4.775075e+01	6.584988e+02
1.650000e-06	6.897721e-06	1.003759e-08	4.774975e+01	6.584395e+02
1.660000e-06	6.895277e-06	1.002954e-08	4.773283e+01	6.582701e+02
1.670000e-06	6.890677e-06	1.002229e-08	4.770098e+01	6.579910e+02
1.680000e-06	6.883738e-06	1.001556e-08	4.765295e+01	6.576020e+02
1.690000e-06	6.874479e-06	1.000759e-08	4.758885e+01	6.571020e+02
1.700000e-06	6.862968e-06	9.998948e-09	4.750917e+01	6.564908e+02
1.710000e-06	6.849021e-06	9.994274e-09	4.741262e+01	6.557702e+02
1.720000e-06	6.832812e-06	9.993432e-09	4.730041e+01	6.549451e+02
1.730000e-06	6.814578e-06	9.937638e-09	4.717418e+01	6.540251e+02
1.740000e-06	6.793814e-06	9.889709e-09	4.703045e+01	6.530240e+02
1.750000e-06	6.769784e-06	9.907847e-09	4.686410e+01	6.519595e+02
1.760000e-06	6.742693e-06	9.898834e-09	4.667656e+01	6.508506e+02
1.770000e-06	6.713160e-06	9.888729e-09	4.647212e+01	6.497150e+02
1.780000e-06	6.681712e-06	9.936744e-09	4.625442e+01	6.485655e+02
1.790000e-06	6.648874e-06	9.859230e-09	4.602709e+01	6.474069e+02
1.800000e-06	6.614347e-06	9.808654e-09	4.578808e+01	6.462336e+02
1.810000e-06	6.577266e-06	9.860141e-09	4.553139e+01	6.450290e+02
1.820000e-06	6.537843e-06	9.794817e-09	4.525848e+01	6.437659e+02
1.830000e-06	6.496323e-06	9.846342e-09	4.497105e+01	6.424103e+02
1.840000e-06	6.452544e-06	9.824254e-09	4.466799e+01	6.409246e+02
1.850000e-06	6.406503e-06	9.715931e-09	4.434927e+01	6.392738e+02
1.860000e-06	6.357973e-06	9.706333e-09	4.401332e+01	6.374297e+02
1.870000e-06	6.307136e-06	9.581785e-09	4.366140e+01	6.353753e+02
1.880000e-06	6.253855e-06	9.620511e-09	4.329256e+01	6.331069e+02
1.890000e-06	6.197870e-06	9.658248e-09	4.290500e+01	6.306346e+02
1.900000e-06	6.139557e-06	9.583921e-09	4.250133e+01	6.279794e+02
1.910000e-06	6.078928e-06	9.588179e-09	4.208162e+01	6.251696e+02
1.920000e-06	6.015964e-06	9.447361e-09	4.164575e+01	6.222354e+02
1.930000e-06	5.950844e-06	9.396853e-09	4.119496e+01	6.192036e+02
1.940000e-06	5.883659e-06	9.405981e-09	4.072986e+01	6.160932e+02
1.950000e-06	5.814269e-06	9.369827e-09	4.024951e+01	6.129127e+02
1.960000e-06	5.742418e-06	9.321320e-09	3.975211e+01	6.096590e+02
1.970000e-06	5.668409e-06	9.206850e-09	3.923979e+01	6.063191e+02
1.980000e-06	5.592228e-06	9.185035e-09	3.871242e+01	6.028732e+02
1.990000e-06	5.513756e-06	9.130408e-09	3.816920e+01	5.992990e+02
2.000000e-06	5.433260e-06	9.095899e-09	3.761196e+01	5.955761e+02
2.010000e-06	5.350915e-06	9.037803e-09	3.704192e+01	5.916894e+02
2.020000e-06	5.266827e-06	8.936628e-09	3.645982e+01	5.876312e+02
2.030000e-06	5.180729e-06	8.877097e-09	3.586380e+01	5.834018e+02
2.040000e-06	5.092594e-06	8.801584e-09	3.525368e+01	5.790078e+02
2.050000e-06	5.002777e-06	8.783141e-09	3.463192e+01	5.744593e+02
2.060000e-06	4.911482e-06	8.706453e-09	3.399993e+01	5.697672e+02
2.070000e-06	4.818517e-06	8.606056e-09	3.335637e+01	5.649394e+02
2.080000e-06	4.723638e-06	8.511939e-09	3.269957e+01	5.599790e+02
2.090000e-06	4.627047e-06	8.435940e-09	3.203092e+01	5.548836e+02
2.100000e-06	4.528936e-06	8.389961e-09	3.135174e+01	5.496456e+02
2.110000e-06	4.429419e-06	8.320707e-09	3.066283e+01	5.442542e+02
2.120000e-06	4.328288e-06	8.231989e-09	2.996274e+01	5.386979e+02
2.130000e-06	4.225425e-06	8.108427e-09	2.925067e+01	5.329671e+02
2.140000e-06	4.120961e-06	8.010875e-09	2.852751e+01	5.270556e+02
2.150000e-06	4.015077e-06	7.931174e-09	2.779453e+01	5.209613e+02
2.160000e-06	3.907945e-06	7.863673e-09	2.705290e+01	5.146860e+02
2.170000e-06	3.799473e-06	7.770851e-09	2.630200e+01	5.082334e+02
2.180000e-06	3.689574e-06	7.653770e-09	2.554122e+01	5.016067e+02
2.190000e-06	3.578221e-06	7.534517e-09	2.477038e+01	4.948065e+02
2.200000e-06	3.465503e-06	7.429527e-09	2.399008e+01	4.878290e+02
2.210000e-06	3.351441e-06	7.343862e-09	2.320048e+01	4.806650e+02
2.220000e-06	3.236060e-06	7.235237e-09	2.240175e+01	4.733008e+02
2.230000e-06	3.119254e-06	7.098957e-09	2.159316e+01	4.657199e+02
2.240000e-06	3.001054e-06	6.959310e-09	2.077492e+01	4.579053e+02
2.250000e-06	2.881703e-06	6.844025e-09	1.994871e+01	4.498423e+02
2.260000e-06	2.761320e-06	6.734834e-09	1.911534e+01	4.415202e+02
2.270000e-06	2.639981e-06	6.617910e-09	1.827537e+01	4.329342e+02
2.280000e-06	2.517740e-06	6.479815e-09	1.742915e+01	4.240846e+02
2.290000e-06	2.394675e-06	6.329601e-09	1.657723e+01	4.149757e+02
2.300000e-06	2.270865e-06	6.179140e-09	1.572015e+01	4.056138e+02
2.310000e-06	2.146340e-06	6.042183e-09	1.485813e+01	3.960042e+02
2.320000e-06	2.020985e-06	5.911049e-09	1.399035e+01	3.861492e+02
2.330000e-06	1.894782e-06	5.755681e-09	1.311670e+01	3.760463e+02
2.340000e-06	1.767883e-06	5.579453e-09	1.223824e+01	3.656873e+02
2.350000e-06	1.640423e-06	5.406254e-09	1.135589e+01	3.550591e+02
2.360000e-06	1.512375e-06	5.248550e-09	1.046947e+01	3.441450e+02
2.370000e-06	1.383772e-06	5.091243e-09	9.579215e+00	3.329260e+02
2.380000e-06	1.254725e-06	4.920868e-09	8.685882e+00	3.213835e+02
2.390000e-06	1.125283e-06	4.733832e-09	7.789815e+00	3.094997e+02
2.400000e-06	9.955113e-07	4.536522e-09	6.891467e+00	2.972595e+02
2.410000e-06	8.654679e-07	4.340922e-09	5.991236e+00	2.846500e+02
2.420000e-06	7.352135e-07	4.151752e-09	5.089545e+00	2.716605e+02
2.430000e-06	6.047971e-07	3.958006e-09	4.186732e+00	2.582814e+02
2.440000e-06	4.742150e-07	3.744287e-09	3.282772e+00	2.445039e+02
2.450000e-06	3.434553e-07	3.514270e-09	2.377583e+00	2.303190e+02
2.460000e-06	2.125494e-07	3.285446e-09	1.471382e+00	2.157168e+02
2.470000e-06	8.155024e-08	3.064411e-09	5.645347e-01	2.006866e+02
2.480000e-06	-4.950113e-08	2.842733e-09	-3.426735e-01	1.852156e+02
2.490000e-06	-1.805357e-07	2.602976e-09	-1.249765e+00	1.692884e+02
2.500000e-06	-3.114724e-07	2.341063e-09	-2.156180e+00	1.528860e+02
2.510000e-06	-4.423295e-07	2.069148e-09	-3.062044e+00	1.359843e+02
2.520000e-06	-5.731128e-07	1.799321e-09	-3.967396e+00	1.185535e+02
2.530000e-06	-7.037566e-07	1.533070e-09	-4.871783e+00	1.005583e+02
2.540000e-06	-8.341902e-07	1.257692e-09	-5.774715e+00	8.195942e+01
2.550000e-06	-9.643854e-07	9.645884e-10	-6.675996e+00	6.271724e+01
2.560000e-06	-1.094278e-06	6.574153e-10	-7.575185e+00	4.279779e+01
2.570000e-06	-1.223763e-06	3.451717e-10	-8.471545e+00	2.218008e+01
2.580000e-06	-1.352804e-06	2.722051e-11	-9.364841e+00	8.645257e-01
2.590000e-06	-1.481414e-06	-3.044677e-10	-1.025514e+01	-2.111908e+01
2.600000e-06	-1.609540e-06	-6.532913e-10	-1.114210e+01	-4.370548e+01
2.610000e-06	-1.737024e-06	-1.013459e-09	-1.202462e+01	-6.679120e+01
2.620000e-06	-1.863820e-06	-1.373387e-09	-1.290237e+01	-9.023597e+01
2.630000e-06	-1.989924e-06	-1.726781e-09	-1.377533e+01	-1.138689e+02
2.640000e-06	-2.115284e-06	-2.078191e-09	-1.464313e+01	-1.374991e+02
2.650000e-06	-2.239736e-06	-2.435843e-09	-1.550466e+01	-1.609286e+02
2.660000e-06	-2.363192e-06	-2.796756e-09	-1.635929e+01	-1.839676e+02
2.670000e-06	-2.485718e-06	-3.146536e-09	-1.720748e+01	-2.064480e+02
2.680000e-06	-2.607373e-06	-3.476083e-09	-1.804965e+01	-2.282346e+02
2.690000e-06	-2.728109e-06	-3.788573e-09	-1.888544e+01	-2.492314e+02
2.700000e-06	-2.847857e-06	-4.090986e-09	-1.971441e+01	-2.693835e+02
2.710000e-06	-2.966558e-06	-4.387704e-09	-2.053611e+01	-2.886735e+02
2.720000e-06	-3.084081e-06	-4.675703e-09	-2.134967e+01	-3.071138e+02
2.730000e-06	-3.200299e-06	-4.947549e-09	-2.215420e+01	-3.247371e+02
2.740000e-06	-3.315154e-06	-5.202609e-09	-2.294928e+01	-3.415859e+02
2.750000e-06	-3.428612e-06	-5.447367e-09	-2.373470e+01	-3.577036e+02
2.760000e-06	-3.540678e-06	-5.685003e-09	-2.451049e+01	-3.731280e+02
2.770000e-06	-3.651418e-06	-5.912956e-09	-2.527708e+01	-3.878888e+02
2.780000e-06	-3.760867e-06	-6.129408e-09	-2.603475e+01	-4.020074e+02
2.790000e-06	-3.869130e-06	-6.334863e-09	-2.678421e+01	-4.155004e+02
2.800000e-06	-3.976203e-06	-6.529769e-09	-2.752543e+01	-4.283829e+02
2.810000e-06	-4.081947e-06	-6.717622e-09	-2.825744e+01	-4.406731e+02
2.820000e-06	-4.186208e-06	-6.901120e-09	-2.897919e+01	-4.523948e+02
2.830000e-06	-4.288868e-06	-7.075012e-09	-2.968986e+01	-4.635779e+02
2.840000e-06	-4.389862e-06	-7.237132e-09	-3.038899e+01	-4.742573e+02
2.850000e-06	-4.489277e-06	-7.390587e-09	-3.107720e+01	-4.844694e+02
2.860000e-06	-4.587252e-06	-7.540314e-09	-3.175544e+01	-4.942485e+02
2.870000e-06	-4.683693e-06	-7.685745e-09	-3.242305e+01	-5.036229e+02
2.880000e-06	-4.778436e-06	-7.822000e-09	-3.307891e+01	-5.126124e+02
2.890000e-06	-4.871362e-06	-7.948970e-09	-3.372220e+01	-5.212271e+02
2.900000e-06	-4.962538e-06	-8.069126e-09	-3.435336e+01	-5.294689e+02
2.910000e-06	-5.052036e-06	-8.185540e-09	-3.497292e+01	-5.373343e+02
2.920000e-06	-5.139686e-06	-8.300438e-09	-3.557968e+01	-5.448181e+02
2.930000e-06	-5.225349e-06	-8.413028e-09	-3.617268e+01	-5.519176e+02
2.940000e-06	-5.309090e-06	-8.518390e-09	-3.675239e+01	-5.586360e+02
