# Temperatura_=_36.99
# Concentracion g/m^3_=_15000.0
# C_Vs_to_Am_M_A/Vsm_=_65563218390.804596
# pendiente_HvsI_1/m_=_3716.3
# ordenada_HvsI_A/m_=_1297.0
# frecuencia_Hz_=_301970.30096751597

Tiempo_(s)	Campo_(V.s)	Magnetizacion_(V.s)	Campo_(kA/m)	Magnetizacion_(A/m)
0.000000e+00	-6.852379e-06	-9.992788e-09	-4.746838e+01	-6.541853e+02
1.000000e-08	-6.848630e-06	-9.990897e-09	-4.744240e+01	-6.539863e+02
2.000000e-08	-6.842687e-06	-9.985416e-09	-4.740123e+01	-6.536759e+02
3.000000e-08	-6.834570e-06	-9.979570e-09	-4.734501e+01	-6.532435e+02
4.000000e-08	-6.824077e-06	-9.970768e-09	-4.727232e+01	-6.526821e+02
5.000000e-08	-6.811126e-06	-9.957814e-09	-4.718260e+01	-6.519918e+02
6.000000e-08	-6.795670e-06	-9.939584e-09	-4.707554e+01	-6.511821e+02
7.000000e-08	-6.777890e-06	-9.921880e-09	-4.695237e+01	-6.502720e+02
8.000000e-08	-6.757995e-06	-9.939821e-09	-4.681455e+01	-6.492875e+02
9.000000e-08	-6.735612e-06	-9.966727e-09	-4.665949e+01	-6.482579e+02
1.000000e-07	-6.710389e-06	-9.926023e-09	-4.648477e+01	-6.472101e+02
1.100000e-07	-6.682538e-06	-9.880853e-09	-4.629184e+01	-6.461633e+02
1.200000e-07	-6.652420e-06	-9.858672e-09	-4.608320e+01	-6.451246e+02
1.300000e-07	-6.620261e-06	-9.791371e-09	-4.586043e+01	-6.440870e+02
1.400000e-07	-6.586153e-06	-9.755892e-09	-4.562415e+01	-6.430292e+02
1.500000e-07	-6.550173e-06	-9.840472e-09	-4.537491e+01	-6.419188e+02
1.600000e-07	-6.512227e-06	-9.792329e-09	-4.511204e+01	-6.407171e+02
1.700000e-07	-6.472139e-06	-9.736566e-09	-4.483434e+01	-6.393848e+02
1.800000e-07	-6.429595e-06	-9.756676e-09	-4.453963e+01	-6.378876e+02
1.900000e-07	-6.384475e-06	-9.662026e-09	-4.422707e+01	-6.362012e+02
2.000000e-07	-6.337030e-06	-9.653277e-09	-4.389841e+01	-6.343132e+02
2.100000e-07	-6.286968e-06	-9.663736e-09	-4.355161e+01	-6.322240e+02
2.200000e-07	-6.234270e-06	-9.638534e-09	-4.318656e+01	-6.299448e+02
2.300000e-07	-6.179231e-06	-9.596364e-09	-4.280528e+01	-6.274944e+02
2.400000e-07	-6.121745e-06	-9.499073e-09	-4.240706e+01	-6.248947e+02
2.500000e-07	-6.061983e-06	-9.470246e-09	-4.199307e+01	-6.221673e+02
2.600000e-07	-6.000066e-06	-9.452343e-09	-4.156416e+01	-6.193296e+02
2.700000e-07	-5.935957e-06	-9.402643e-09	-4.112006e+01	-6.163935e+02
2.800000e-07	-5.869605e-06	-9.363033e-09	-4.066042e+01	-6.133641e+02
2.900000e-07	-5.800992e-06	-9.304372e-09	-4.018511e+01	-6.102406e+02
3.000000e-07	-5.730305e-06	-9.251216e-09	-3.969545e+01	-6.070175e+02
3.100000e-07	-5.657514e-06	-9.201032e-09	-3.919120e+01	-6.036861e+02
3.200000e-07	-5.582405e-06	-9.176730e-09	-3.867090e+01	-6.002368e+02
3.300000e-07	-5.505017e-06	-9.114628e-09	-3.813482e+01	-5.966600e+02
3.400000e-07	-5.425410e-06	-9.023544e-09	-3.758335e+01	-5.929473e+02
3.500000e-07	-5.343676e-06	-8.970238e-09	-3.701716e+01	-5.890923e+02
3.600000e-07	-5.260191e-06	-8.925612e-09	-3.643884e+01	-5.850904e+02
3.700000e-07	-5.175097e-06	-8.888453e-09	-3.584936e+01	-5.809392e+02
3.800000e-07	-5.088303e-06	-8.819056e-09	-3.524812e+01	-5.766377e+02
3.900000e-07	-4.999696e-06	-8.734591e-09	-3.463431e+01	-5.721865e+02
4.000000e-07	-4.909195e-06	-8.644240e-09	-3.400739e+01	-5.675867e+02
4.100000e-07	-4.816956e-06	-8.570051e-09	-3.336842e+01	-5.628400e+02
4.200000e-07	-4.723128e-06	-8.523574e-09	-3.271845e+01	-5.579473e+02
4.300000e-07	-4.627665e-06	-8.454120e-09	-3.205715e+01	-5.529088e+02
4.400000e-07	-4.530470e-06	-8.361992e-09	-3.138385e+01	-5.477231e+02
4.500000e-07	-4.431545e-06	-8.267890e-09	-3.069857e+01	-5.423875e+02
4.600000e-07	-4.331064e-06	-8.183760e-09	-3.000251e+01	-5.368972e+02
4.700000e-07	-4.229146e-06	-8.102998e-09	-2.929650e+01	-5.312469e+02
4.800000e-07	-4.125799e-06	-8.027147e-09	-2.858058e+01	-5.254304e+02
4.900000e-07	-4.020900e-06	-7.937365e-09	-2.785391e+01	-5.194418e+02
5.000000e-07	-3.914394e-06	-7.826247e-09	-2.711612e+01	-5.132761e+02
5.100000e-07	-3.806438e-06	-7.721156e-09	-2.636827e+01	-5.069293e+02
5.200000e-07	-3.697170e-06	-7.633550e-09	-2.561135e+01	-5.003983e+02
5.300000e-07	-3.586704e-06	-7.541984e-09	-2.484611e+01	-4.936805e+02
5.400000e-07	-3.474892e-06	-7.427510e-09	-2.407156e+01	-4.867727e+02
5.500000e-07	-3.361523e-06	-7.310096e-09	-2.328622e+01	-4.796709e+02
5.600000e-07	-3.246707e-06	-7.198856e-09	-2.249086e+01	-4.723690e+02
5.700000e-07	-3.130522e-06	-7.089387e-09	-2.168601e+01	-4.648593e+02
5.800000e-07	-3.013071e-06	-6.982213e-09	-2.087240e+01	-4.571324e+02
5.900000e-07	-2.894608e-06	-6.868058e-09	-2.005177e+01	-4.491781e+02
6.000000e-07	-2.775186e-06	-6.733881e-09	-1.922450e+01	-4.409864e+02
6.100000e-07	-2.654687e-06	-6.590333e-09	-1.838977e+01	-4.325488e+02
6.200000e-07	-2.533114e-06	-6.455901e-09	-1.754760e+01	-4.238589e+02
6.300000e-07	-2.410524e-06	-6.328781e-09	-1.669838e+01	-4.149125e+02
6.400000e-07	-2.287004e-06	-6.191539e-09	-1.584273e+01	-4.057077e+02
6.500000e-07	-2.162723e-06	-6.041521e-09	-1.498179e+01	-3.962436e+02
6.600000e-07	-2.037752e-06	-5.889083e-09	-1.411609e+01	-3.865192e+02
6.700000e-07	-1.912098e-06	-5.735516e-09	-1.324565e+01	-3.765324e+02
6.800000e-07	-1.785927e-06	-5.580725e-09	-1.237162e+01	-3.662783e+02
6.900000e-07	-1.659196e-06	-5.424990e-09	-1.149372e+01	-3.557497e+02
7.000000e-07	-1.531774e-06	-5.261967e-09	-1.061103e+01	-3.449360e+02
7.100000e-07	-1.403770e-06	-5.087247e-09	-9.724316e+00	-3.338242e+02
7.200000e-07	-1.275305e-06	-4.908642e-09	-8.834399e+00	-3.224000e+02
7.300000e-07	-1.146391e-06	-4.731283e-09	-7.941379e+00	-3.106479e+02
7.400000e-07	-1.017087e-06	-4.549598e-09	-7.045649e+00	-2.985526e+02
7.500000e-07	-8.874955e-07	-4.358211e-09	-6.147933e+00	-2.860995e+02
7.600000e-07	-7.576124e-07	-4.157627e-09	-5.248196e+00	-2.732746e+02
7.700000e-07	-6.274367e-07	-3.952817e-09	-4.346432e+00	-2.600649e+02
7.800000e-07	-4.969912e-07	-3.747896e-09	-3.442799e+00	-2.464584e+02
7.900000e-07	-3.663506e-07	-3.539939e-09	-2.537814e+00	-2.324434e+02
8.000000e-07	-2.355755e-07	-3.322460e-09	-1.631898e+00	-2.180092e+02
8.100000e-07	-1.046650e-07	-3.093057e-09	-7.250440e-01	-2.031447e+02
8.200000e-07	2.630869e-08	-2.856754e-09	1.822478e-01	-1.878388e+02
8.300000e-07	1.572631e-07	-2.616599e-09	1.089406e+00	-1.720783e+02
8.400000e-07	2.882018e-07	-2.371472e-09	1.996456e+00	-1.558473e+02
8.500000e-07	4.190645e-07	-2.119840e-09	2.902978e+00	-1.391253e+02
8.600000e-07	5.497750e-07	-1.858665e-09	3.808447e+00	-1.218857e+02
8.700000e-07	6.802934e-07	-1.584541e-09	4.712585e+00	-1.040953e+02
8.800000e-07	8.105983e-07	-1.299705e-09	5.615244e+00	-8.571556e+01
8.900000e-07	9.406282e-07	-1.008854e-09	6.515998e+00	-6.670550e+01
9.000000e-07	1.070289e-06	-7.106876e-10	7.414197e+00	-4.702708e+01
9.100000e-07	1.199590e-06	-4.008988e-10	8.309898e+00	-2.665258e+01
9.200000e-07	1.328522e-06	-7.809171e-11	9.203051e+00	-5.573334e+00
9.300000e-07	1.457008e-06	2.564670e-10	1.009311e+01	1.619178e+01
9.400000e-07	1.584967e-06	5.998948e-10	1.097951e+01	3.858922e+01
9.500000e-07	1.712310e-06	9.522082e-10	1.186166e+01	6.152689e+01
9.600000e-07	1.838981e-06	1.311555e-09	1.273914e+01	8.487447e+01
9.700000e-07	1.964985e-06	1.672613e-09	1.361201e+01	1.084686e+02
9.800000e-07	2.090351e-06	2.033591e-09	1.448045e+01	1.321226e+02
9.900000e-07	2.215043e-06	2.391639e-09	1.534423e+01	1.556396e+02
1.000000e-06	2.338955e-06	2.743288e-09	1.620260e+01	1.788273e+02
1.010000e-06	2.461999e-06	3.087400e-09	1.705497e+01	2.015118e+02
1.020000e-06	2.584100e-06	3.422733e-09	1.790079e+01	2.235498e+02
1.030000e-06	2.705198e-06	3.748289e-09	1.873967e+01	2.448355e+02
1.040000e-06	2.825233e-06	4.061345e-09	1.957119e+01	2.653025e+02
1.050000e-06	2.944155e-06	4.362935e-09	2.039500e+01	2.849216e+02
1.060000e-06	3.062047e-06	4.650494e-09	2.121167e+01	3.036937e+02
1.070000e-06	3.178893e-06	4.924958e-09	2.202109e+01	3.216405e+02
1.080000e-06	3.294500e-06	5.186892e-09	2.282194e+01	3.387953e+02
1.090000e-06	3.408722e-06	5.434660e-09	2.361318e+01	3.551943e+02
1.100000e-06	3.521577e-06	5.670465e-09	2.439496e+01	3.708710e+02
1.110000e-06	3.633118e-06	5.894270e-09	2.516764e+01	3.858538e+02
1.120000e-06	3.743392e-06	6.109342e-09	2.593154e+01	4.001661e+02
1.130000e-06	3.852511e-06	6.317605e-09	2.668744e+01	4.138290e+02
1.140000e-06	3.960420e-06	6.518232e-09	2.743495e+01	4.268638e+02
1.150000e-06	4.066916e-06	6.708662e-09	2.817268e+01	4.392958e+02
1.160000e-06	4.171909e-06	6.888544e-09	2.890000e+01	4.511545e+02
1.170000e-06	4.275339e-06	7.059601e-09	2.961649e+01	4.624742e+02
1.180000e-06	4.377245e-06	7.224111e-09	3.032241e+01	4.732913e+02
1.190000e-06	4.477704e-06	7.381574e-09	3.101833e+01	4.836416e+02
1.200000e-06	4.576578e-06	7.533217e-09	3.170325e+01	4.935563e+02
1.210000e-06	4.673652e-06	7.679602e-09	3.237571e+01	5.030599e+02
1.220000e-06	4.768922e-06	7.819978e-09	3.303568e+01	5.121688e+02
1.230000e-06	4.862556e-06	7.954241e-09	3.368431e+01	5.208914e+02
1.240000e-06	4.954572e-06	8.083682e-09	3.432172e+01	5.292306e+02
1.250000e-06	5.044852e-06	8.206039e-09	3.494712e+01	5.371861e+02
1.260000e-06	5.133218e-06	8.322252e-09	3.555926e+01	5.447583e+02
1.270000e-06	5.219724e-06	8.432329e-09	3.615851e+01	5.519503e+02
1.280000e-06	5.304470e-06	8.535549e-09	3.674557e+01	5.587700e+02
1.290000e-06	5.387339e-06	8.634591e-09	3.731962e+01	5.652308e+02
1.300000e-06	5.468226e-06	8.727300e-09	3.787995e+01	5.713505e+02
1.310000e-06	5.547103e-06	8.813579e-09	3.842635e+01	5.771505e+02
1.320000e-06	5.623967e-06	8.895089e-09	3.895881e+01	5.826534e+02
1.330000e-06	5.698735e-06	8.973953e-09	3.947676e+01	5.878817e+02
1.340000e-06	5.771289e-06	9.049696e-09	3.997936e+01	5.928565e+02
1.350000e-06	5.841681e-06	9.122136e-09	4.046698e+01	5.975971e+02
1.360000e-06	5.910054e-06	9.191596e-09	4.094062e+01	6.021199e+02
1.370000e-06	5.976335e-06	9.258497e-09	4.139977e+01	6.064394e+02
1.380000e-06	6.040389e-06	9.322966e-09	4.184349e+01	6.105670e+02
1.390000e-06	6.102358e-06	9.383456e-09	4.227276e+01	6.145117e+02
1.400000e-06	6.162330e-06	9.440509e-09	4.268821e+01	6.182791e+02
1.410000e-06	6.220125e-06	9.493854e-09	4.308857e+01	6.218714e+02
1.420000e-06	6.275656e-06	9.542973e-09	4.347325e+01	6.252876e+02
1.430000e-06	6.328905e-06	9.591426e-09	4.384212e+01	6.285238e+02
1.440000e-06	6.379614e-06	9.640839e-09	4.419339e+01	6.315741e+02
1.450000e-06	6.427709e-06	9.688182e-09	4.452656e+01	6.344329e+02
1.460000e-06	6.473528e-06	9.729806e-09	4.484396e+01	6.370961e+02
1.470000e-06	6.517187e-06	9.765851e-09	4.514640e+01	6.395628e+02
1.480000e-06	6.558422e-06	9.798633e-09	4.543205e+01	6.418362e+02
1.490000e-06	6.597233e-06	9.829004e-09	4.570090e+01	6.439240e+02
1.500000e-06	6.633866e-06	9.855311e-09	4.595467e+01	6.458368e+02
1.510000e-06	6.668264e-06	9.879036e-09	4.619296e+01	6.475868e+02
1.520000e-06	6.700196e-06	9.902381e-09	4.641416e+01	6.491852e+02
1.530000e-06	6.729811e-06	9.924948e-09	4.661931e+01	6.506408e+02
1.540000e-06	6.757196e-06	9.946500e-09	4.680901e+01	6.519586e+02
1.550000e-06	6.782000e-06	9.965490e-09	4.698084e+01	6.531396e+02
1.560000e-06	6.804271e-06	9.980278e-09	4.713511e+01	6.541821e+02
1.570000e-06	6.824268e-06	9.989799e-09	4.727364e+01	6.550836e+02
1.580000e-06	6.841796e-06	9.997159e-09	4.739506e+01	6.558428e+02
1.590000e-06	6.856763e-06	1.000587e-08	4.749874e+01	6.564617e+02
1.600000e-06	6.869198e-06	1.001461e-08	4.758488e+01	6.569463e+02
1.610000e-06	6.878946e-06	1.002147e-08	4.765241e+01	6.573059e+02
1.620000e-06	6.886081e-06	1.002543e-08	4.770184e+01	6.575521e+02
1.630000e-06	6.890836e-06	1.002866e-08	4.773478e+01	6.576958e+02
1.640000e-06	6.893142e-06	1.003255e-08	4.775075e+01	6.577443e+02
1.650000e-06	6.892970e-06	1.003404e-08	4.774956e+01	6.577000e+02
1.660000e-06	6.890580e-06	1.002746e-08	4.773301e+01	6.575591e+02
1.670000e-06	6.886022e-06	1.002022e-08	4.770143e+01	6.573130e+02
1.680000e-06	6.879051e-06	1.001438e-08	4.765314e+01	6.569508e+02
1.690000e-06	6.869783e-06	1.000614e-08	4.758894e+01	6.564629e+02
1.700000e-06	6.858295e-06	9.996147e-09	4.750935e+01	6.558450e+02
1.710000e-06	6.844328e-06	9.991343e-09	4.741260e+01	6.551011e+02
1.720000e-06	6.828077e-06	9.993235e-09	4.730003e+01	6.542448e+02
1.730000e-06	6.809812e-06	9.948270e-09	4.717350e+01	6.532986e+02
1.740000e-06	6.789060e-06	9.885189e-09	4.702974e+01	6.522905e+02
1.750000e-06	6.765034e-06	9.897351e-09	4.686331e+01	6.512494e+02
1.760000e-06	6.737929e-06	9.898121e-09	4.667554e+01	6.501996e+02
1.770000e-06	6.708437e-06	9.885033e-09	4.647125e+01	6.491555e+02
1.780000e-06	6.676996e-06	9.940240e-09	4.625345e+01	6.481182e+02
1.790000e-06	6.644092e-06	9.883883e-09	4.602551e+01	6.470746e+02
1.800000e-06	6.609499e-06	9.809784e-09	4.578587e+01	6.459980e+02
1.810000e-06	6.572336e-06	9.862277e-09	4.552844e+01	6.448527e+02
1.820000e-06	6.532789e-06	9.789633e-09	4.525448e+01	6.435990e+02
1.830000e-06	6.491196e-06	9.807157e-09	4.496636e+01	6.421990e+02
1.840000e-06	6.447421e-06	9.831082e-09	4.466311e+01	6.406223e+02
1.850000e-06	6.401499e-06	9.713324e-09	4.434500e+01	6.388495e+02
1.860000e-06	6.353107e-06	9.714783e-09	4.400977e+01	6.368738e+02
1.870000e-06	6.302324e-06	9.616139e-09	4.365799e+01	6.347006e+02
1.880000e-06	6.249071e-06	9.598090e-09	4.328908e+01	6.323447e+02
1.890000e-06	6.193069e-06	9.643925e-09	4.290115e+01	6.298269e+02
1.900000e-06	6.134785e-06	9.556898e-09	4.249740e+01	6.271692e+02
1.910000e-06	6.074228e-06	9.555244e-09	4.207790e+01	6.243920e+02
1.920000e-06	6.011341e-06	9.447590e-09	4.164226e+01	6.215104e+02
1.930000e-06	5.946347e-06	9.384827e-09	4.119203e+01	6.185333e+02
1.940000e-06	5.879272e-06	9.401075e-09	4.072738e+01	6.154633e+02
1.950000e-06	5.809961e-06	9.339465e-09	4.024725e+01	6.122973e+02
1.960000e-06	5.738150e-06	9.306364e-09	3.974979e+01	6.090282e+02
1.970000e-06	5.664164e-06	9.197688e-09	3.923727e+01	6.056467e+02
1.980000e-06	5.588014e-06	9.168313e-09	3.870976e+01	6.021432e+02
1.990000e-06	5.509596e-06	9.131550e-09	3.816653e+01	5.985083e+02
2.000000e-06	5.429200e-06	9.069006e-09	3.760961e+01	5.947346e+02
2.010000e-06	5.346904e-06	9.019690e-09	3.703952e+01	5.908164e+02
2.020000e-06	5.262815e-06	8.915186e-09	3.645702e+01	5.867500e+02
2.030000e-06	5.176722e-06	8.861700e-09	3.586062e+01	5.825337e+02
2.040000e-06	5.088610e-06	8.793875e-09	3.525024e+01	5.781672e+02
2.050000e-06	4.998819e-06	8.767747e-09	3.462823e+01	5.736514e+02
2.060000e-06	4.907544e-06	8.697690e-09	3.399595e+01	5.689877e+02
2.070000e-06	4.814631e-06	8.588808e-09	3.335232e+01	5.641776e+02
2.080000e-06	4.719816e-06	8.498518e-09	3.269550e+01	5.592218e+02
2.090000e-06	4.623297e-06	8.412485e-09	3.202689e+01	5.541198e+02
2.100000e-06	4.525273e-06	8.366228e-09	3.134785e+01	5.488696e+02
2.110000e-06	4.425836e-06	8.294456e-09	3.065902e+01	5.434675e+02
2.120000e-06	4.324811e-06	8.210107e-09	2.995919e+01	5.379087e+02
2.130000e-06	4.222035e-06	8.100794e-09	2.924723e+01	5.321872e+02
2.140000e-06	4.117664e-06	8.006185e-09	2.852422e+01	5.262969e+02
2.150000e-06	4.011907e-06	7.921097e-09	2.779161e+01	5.202322e+02
2.160000e-06	3.904865e-06	7.840524e-09	2.705011e+01	5.139886e+02
2.170000e-06	3.796497e-06	7.747807e-09	2.629941e+01	5.075625e+02
2.180000e-06	3.686772e-06	7.632810e-09	2.553931e+01	5.009511e+02
2.190000e-06	3.575549e-06	7.520634e-09	2.476884e+01	4.941515e+02
2.200000e-06	3.462881e-06	7.413358e-09	2.398836e+01	4.871605e+02
2.210000e-06	3.348909e-06	7.323441e-09	2.319885e+01	4.799730e+02
2.220000e-06	3.233602e-06	7.211894e-09	2.240008e+01	4.725825e+02
2.230000e-06	3.116891e-06	7.078779e-09	2.159159e+01	4.649802e+02
2.240000e-06	2.998906e-06	6.943806e-09	2.077427e+01	4.571563e+02
2.250000e-06	2.879736e-06	6.829998e-09	1.994875e+01	4.491007e+02
2.260000e-06	2.759407e-06	6.719471e-09	1.911520e+01	4.408039e+02
2.270000e-06	2.638082e-06	6.598064e-09	1.827474e+01	4.322580e+02
2.280000e-06	2.515872e-06	6.459957e-09	1.742816e+01	4.234579e+02
2.290000e-06	2.392819e-06	6.310378e-09	1.657573e+01	4.144002e+02
2.300000e-06	2.268935e-06	6.161871e-09	1.571756e+01	4.050836e+02
2.310000e-06	2.144330e-06	6.023034e-09	1.485438e+01	3.955074e+02
2.320000e-06	2.019002e-06	5.891117e-09	1.398620e+01	3.856702e+02
2.330000e-06	1.892953e-06	5.737328e-09	1.311303e+01	3.755689e+02
2.340000e-06	1.766206e-06	5.565756e-09	1.223501e+01	3.651975e+02
2.350000e-06	1.638735e-06	5.394374e-09	1.135198e+01	3.545474e+02
2.360000e-06	1.510644e-06	5.235344e-09	1.046466e+01	3.436069e+02
2.370000e-06	1.382063e-06	5.076778e-09	9.573940e+00	3.323624e+02
2.380000e-06	1.253133e-06	4.904490e-09	8.680805e+00	3.207988e+02
2.390000e-06	1.123912e-06	4.717453e-09	7.785656e+00	3.089008e+02
2.400000e-06	9.943074e-07	4.521800e-09	6.887849e+00	2.966532e+02
2.410000e-06	8.643412e-07	4.327370e-09	5.987537e+00	2.840416e+02
2.420000e-06	7.341339e-07	4.136427e-09	5.085554e+00	2.710527e+02
2.430000e-06	6.037710e-07	3.941054e-09	4.182493e+00	2.576736e+02
2.440000e-06	4.732465e-07	3.728529e-09	3.278313e+00	2.438927e+02
2.450000e-06	3.425702e-07	3.502033e-09	2.373081e+00	2.296987e+02
2.460000e-06	2.117836e-07	3.275320e-09	1.467085e+00	2.150807e+02
2.470000e-06	8.091937e-08	3.051755e-09	5.605514e-01	2.000277e+02
2.480000e-06	-4.996249e-08	2.825409e-09	-3.461043e-01	1.845280e+02
2.490000e-06	-1.807975e-07	2.583235e-09	-1.252436e+00	1.685673e+02
2.500000e-06	-3.115952e-07	2.323401e-09	-2.158509e+00	1.521280e+02
2.510000e-06	-4.423608e-07	2.055420e-09	-3.064359e+00	1.351871e+02
2.520000e-06	-5.730195e-07	1.786731e-09	-3.969469e+00	1.177151e+02
2.530000e-06	-7.035448e-07	1.519303e-09	-4.873654e+00	9.967641e+01
2.540000e-06	-8.338653e-07	1.241482e-09	-5.776421e+00	8.103083e+01
2.550000e-06	-9.639223e-07	9.468594e-10	-6.677364e+00	6.173785e+01
2.560000e-06	-1.093683e-06	6.411354e-10	-7.576254e+00	4.176288e+01
2.570000e-06	-1.223045e-06	3.290921e-10	-8.472383e+00	2.108527e+01
2.580000e-06	-1.351988e-06	8.264039e-12	-9.365604e+00	-2.928369e-01
2.590000e-06	-1.480542e-06	-3.257556e-10	-1.025613e+01	-2.233842e+01
2.600000e-06	-1.608625e-06	-6.741300e-10	-1.114340e+01	-4.498167e+01
2.610000e-06	-1.736064e-06	-1.033120e-09	-1.202621e+01	-6.811380e+01
2.620000e-06	-1.862771e-06	-1.392883e-09	-1.290394e+01	-9.158940e+01
2.630000e-06	-1.988726e-06	-1.747147e-09	-1.377647e+01	-1.152337e+02
2.640000e-06	-2.113934e-06	-2.099110e-09	-1.464382e+01	-1.388539e+02
2.650000e-06	-2.238355e-06	-2.455450e-09	-1.550572e+01	-1.622532e+02
2.660000e-06	-2.361814e-06	-2.812755e-09	-1.636096e+01	-1.852457e+02
2.670000e-06	-2.484325e-06	-3.158398e-09	-1.720962e+01	-2.076694e+02
2.680000e-06	-2.605958e-06	-3.488219e-09	-1.805221e+01	-2.293963e+02
2.690000e-06	-2.726632e-06	-3.804502e-09	-1.888815e+01	-2.503377e+02
2.700000e-06	-2.846267e-06	-4.108831e-09	-1.971690e+01	-2.704436e+02
2.710000e-06	-2.964737e-06	-4.403384e-09	-2.053758e+01	-2.896989e+02
2.720000e-06	-3.082044e-06	-4.688211e-09	-2.135020e+01	-3.081145e+02
2.730000e-06	-3.198171e-06	-4.958851e-09	-2.215464e+01	-3.257182e+02
2.740000e-06	-3.312958e-06	-5.213867e-09	-2.294980e+01	-3.425454e+02
2.750000e-06	-3.426415e-06	-5.459384e-09	-2.373575e+01	-3.586317e+02
2.760000e-06	-3.538566e-06	-5.697838e-09	-2.451265e+01	-3.740086e+02
2.770000e-06	-3.649306e-06	-5.925674e-09	-2.527978e+01	-3.887021e+02
2.780000e-06	-3.758708e-06	-6.140433e-09	-2.603763e+01	-4.027343e+02
2.790000e-06	-3.866957e-06	-6.343905e-09	-2.678751e+01	-4.161260e+02
2.800000e-06	-3.973968e-06	-6.537902e-09	-2.752880e+01	-4.288998e+02
2.810000e-06	-4.079610e-06	-6.725135e-09	-2.826061e+01	-4.410829e+02
2.820000e-06	-4.183783e-06	-6.906242e-09	-2.898225e+01	-4.527069e+02
2.830000e-06	-4.286339e-06	-7.077774e-09	-2.969269e+01	-4.638075e+02
2.840000e-06	-4.387274e-06	-7.239219e-09	-3.039189e+01	-4.744211e+02
2.850000e-06	-4.486688e-06	-7.391443e-09	-3.108056e+01	-4.845819e+02
2.860000e-06	-4.584634e-06	-7.538157e-09	-3.175906e+01	-4.943186e+02
2.870000e-06	-4.681042e-06	-7.681927e-09	-3.242690e+01	-5.036522e+02
2.880000e-06	-4.775727e-06	-7.817947e-09	-3.308282e+01	-5.125956e+02
2.890000e-06	-4.868607e-06	-7.944935e-09	-3.372622e+01	-5.211545e+02
2.900000e-06	-4.959758e-06	-8.066261e-09	-3.435765e+01	-5.293301e+02
2.910000e-06	-5.049184e-06	-8.184141e-09	-3.497713e+01	-5.371219e+02
2.920000e-06	-5.136699e-06	-8.299641e-09	-3.558337e+01	-5.445312e+02
2.930000e-06	-5.222233e-06	-8.409637e-09	-3.617589e+01	-5.515631e+02
2.940000e-06	-5.305901e-06	-8.512399e-09	-3.675548e+01	-5.582278e+02
