# Temperatura_=_61.66
# Concentracion g/m^3_=_15000.0
# C_Vs_to_Am_M_A/Vsm_=_65563218390.804596
# pendiente_HvsI_1/m_=_3716.3
# ordenada_HvsI_A/m_=_1297.0
# frecuencia_Hz_=_301973.61817342316

Tiempo_(s)	Campo_(V.s)	Magnetizacion_(V.s)	Campo_(kA/m)	Magnetizacion_(A/m)
0.000000e+00	-6.838467e-06	-1.088534e-08	-4.747130e+01	-7.130789e+02
1.000000e-08	-6.835010e-06	-1.088345e-08	-4.744730e+01	-7.128295e+02
2.000000e-08	-6.829372e-06	-1.087672e-08	-4.740816e+01	-7.124470e+02
3.000000e-08	-6.821651e-06	-1.086970e-08	-4.735456e+01	-7.119170e+02
4.000000e-08	-6.811511e-06	-1.086046e-08	-4.728417e+01	-7.112297e+02
5.000000e-08	-6.798798e-06	-1.084604e-08	-4.719592e+01	-7.103845e+02
6.000000e-08	-6.783565e-06	-1.082674e-08	-4.709018e+01	-7.093924e+02
7.000000e-08	-6.766022e-06	-1.080261e-08	-4.696839e+01	-7.082755e+02
8.000000e-08	-6.746420e-06	-1.080213e-08	-4.683233e+01	-7.070643e+02
9.000000e-08	-6.724399e-06	-1.083341e-08	-4.667946e+01	-7.057928e+02
1.000000e-07	-6.699570e-06	-1.080254e-08	-4.650710e+01	-7.044919e+02
1.100000e-07	-6.672059e-06	-1.074978e-08	-4.631612e+01	-7.031834e+02
1.200000e-07	-6.642207e-06	-1.072547e-08	-4.610889e+01	-7.018752e+02
1.300000e-07	-6.610347e-06	-1.065865e-08	-4.588773e+01	-7.005591e+02
1.400000e-07	-6.576571e-06	-1.058662e-08	-4.565326e+01	-6.992115e+02
1.500000e-07	-6.540846e-06	-1.068792e-08	-4.540527e+01	-6.977969e+02
1.600000e-07	-6.503127e-06	-1.065169e-08	-4.514343e+01	-6.962731e+02
1.700000e-07	-6.463380e-06	-1.055490e-08	-4.486751e+01	-6.945982e+02
1.800000e-07	-6.421270e-06	-1.061554e-08	-4.457520e+01	-6.927363e+02
1.900000e-07	-6.376625e-06	-1.050172e-08	-4.426528e+01	-6.906621e+02
2.000000e-07	-6.329609e-06	-1.045669e-08	-4.393890e+01	-6.883637e+02
2.100000e-07	-6.280026e-06	-1.048101e-08	-4.359471e+01	-6.858427e+02
2.200000e-07	-6.227831e-06	-1.041372e-08	-4.323238e+01	-6.831118e+02
2.300000e-07	-6.173180e-06	-1.036931e-08	-4.285300e+01	-6.801913e+02
2.400000e-07	-6.116132e-06	-1.031122e-08	-4.245699e+01	-6.771051e+02
2.500000e-07	-6.056774e-06	-1.027419e-08	-4.204493e+01	-6.738762e+02
2.600000e-07	-5.995224e-06	-1.023611e-08	-4.161767e+01	-6.705233e+02
2.700000e-07	-5.931528e-06	-1.016657e-08	-4.117550e+01	-6.670589e+02
2.800000e-07	-5.865618e-06	-1.011080e-08	-4.071797e+01	-6.634885e+02
2.900000e-07	-5.797486e-06	-1.004499e-08	-4.024501e+01	-6.598111e+02
3.000000e-07	-5.727201e-06	-1.000789e-08	-3.975711e+01	-6.560203e+02
3.100000e-07	-5.654774e-06	-9.944110e-09	-3.925433e+01	-6.521065e+02
3.200000e-07	-5.580118e-06	-9.884950e-09	-3.873608e+01	-6.480587e+02
3.300000e-07	-5.503175e-06	-9.829980e-09	-3.820196e+01	-6.438661e+02
3.400000e-07	-5.424002e-06	-9.733088e-09	-3.765236e+01	-6.395197e+02
3.500000e-07	-5.342738e-06	-9.671797e-09	-3.708824e+01	-6.350130e+02
3.600000e-07	-5.259668e-06	-9.621063e-09	-3.651158e+01	-6.303423e+02
3.700000e-07	-5.174885e-06	-9.561306e-09	-3.592304e+01	-6.255065e+02
3.800000e-07	-5.088310e-06	-9.474127e-09	-3.532205e+01	-6.205063e+02
3.900000e-07	-4.999985e-06	-9.387797e-09	-3.470891e+01	-6.153433e+02
4.000000e-07	-4.909866e-06	-9.303679e-09	-3.408332e+01	-6.100188e+02
4.100000e-07	-4.817986e-06	-9.216184e-09	-3.344551e+01	-6.045328e+02
4.200000e-07	-4.724496e-06	-9.145245e-09	-3.279652e+01	-5.988833e+02
4.300000e-07	-4.629390e-06	-9.061278e-09	-3.213631e+01	-5.930660e+02
4.400000e-07	-4.532691e-06	-8.967087e-09	-3.146505e+01	-5.870748e+02
4.500000e-07	-4.434261e-06	-8.868318e-09	-3.078177e+01	-5.809026e+02
4.600000e-07	-4.334172e-06	-8.767882e-09	-3.008697e+01	-5.745423e+02
4.700000e-07	-4.232639e-06	-8.671119e-09	-2.938215e+01	-5.679889e+02
4.800000e-07	-4.129552e-06	-8.570543e-09	-2.866654e+01	-5.612398e+02
4.900000e-07	-4.025020e-06	-8.459488e-09	-2.794090e+01	-5.542954e+02
5.000000e-07	-3.919047e-06	-8.345212e-09	-2.720526e+01	-5.471588e+02
5.100000e-07	-3.811519e-06	-8.236925e-09	-2.645882e+01	-5.398344e+02
5.200000e-07	-3.702601e-06	-8.128386e-09	-2.570273e+01	-5.323261e+02
5.300000e-07	-3.592372e-06	-8.010815e-09	-2.493754e+01	-5.246355e+02
5.400000e-07	-3.480815e-06	-7.885008e-09	-2.416313e+01	-5.167597e+02
5.500000e-07	-3.367887e-06	-7.760453e-09	-2.337921e+01	-5.086912e+02
5.600000e-07	-3.253560e-06	-7.637522e-09	-2.258557e+01	-5.004179e+02
5.700000e-07	-3.137872e-06	-7.511143e-09	-2.178249e+01	-4.919249e+02
5.800000e-07	-3.020884e-06	-7.381133e-09	-2.097038e+01	-4.831963e+02
5.900000e-07	-2.902716e-06	-7.244809e-09	-2.015008e+01	-4.742185e+02
6.000000e-07	-2.783481e-06	-7.098443e-09	-1.932238e+01	-4.649821e+02
6.100000e-07	-2.663295e-06	-6.948073e-09	-1.848807e+01	-4.554829e+02
6.200000e-07	-2.542234e-06	-6.799277e-09	-1.764769e+01	-4.457222e+02
6.300000e-07	-2.420178e-06	-6.649580e-09	-1.680040e+01	-4.357052e+02
6.400000e-07	-2.297027e-06	-6.492698e-09	-1.594551e+01	-4.254379e+02
6.500000e-07	-2.172994e-06	-6.329072e-09	-1.508449e+01	-4.149245e+02
6.600000e-07	-2.048328e-06	-6.163136e-09	-1.421909e+01	-4.041646e+02
6.700000e-07	-1.923069e-06	-5.992856e-09	-1.334957e+01	-3.931512e+02
6.800000e-07	-1.797106e-06	-5.819008e-09	-1.247516e+01	-3.818708e+02
6.900000e-07	-1.670394e-06	-5.644573e-09	-1.159554e+01	-3.703046e+02
7.000000e-07	-1.543128e-06	-5.464647e-09	-1.071209e+01	-3.584311e+02
7.100000e-07	-1.415458e-06	-5.276642e-09	-9.825834e+00	-3.462289e+02
7.200000e-07	-1.287361e-06	-5.084542e-09	-8.936607e+00	-3.336800e+02
7.300000e-07	-1.158819e-06	-4.887352e-09	-8.044296e+00	-3.207711e+02
7.400000e-07	-1.029966e-06	-4.683751e-09	-7.149824e+00	-3.074944e+02
7.500000e-07	-9.008319e-07	-4.475744e-09	-6.253398e+00	-2.938461e+02
7.600000e-07	-7.713400e-07	-4.263263e-09	-5.354491e+00	-2.798241e+02
7.700000e-07	-6.415243e-07	-4.044102e-09	-4.453335e+00	-2.654252e+02
7.800000e-07	-5.114417e-07	-3.818693e-09	-3.550328e+00	-2.506422e+02
7.900000e-07	-3.811657e-07	-3.588019e-09	-2.645977e+00	-2.354623e+02
8.000000e-07	-2.507484e-07	-3.350409e-09	-1.740646e+00	-2.198662e+02
8.100000e-07	-1.202015e-07	-3.104608e-09	-8.344154e-01	-2.038285e+02
8.200000e-07	1.042813e-08	-2.851880e-09	7.239000e-02	-1.873191e+02
8.300000e-07	1.410970e-07	-2.593120e-09	9.794675e-01	-1.703049e+02
8.400000e-07	2.717483e-07	-2.327070e-09	1.886423e+00	-1.527509e+02
8.500000e-07	4.023394e-07	-2.052680e-09	2.792961e+00	-1.346213e+02
8.600000e-07	5.328044e-07	-1.767111e-09	3.698623e+00	-1.158795e+02
8.700000e-07	6.630605e-07	-1.467309e-09	4.602836e+00	-9.648892e+01
8.800000e-07	7.931152e-07	-1.155860e-09	5.505650e+00	-7.641370e+01
8.900000e-07	9.229146e-07	-8.369427e-10	6.406692e+00	-5.562134e+01
9.000000e-07	1.052377e-06	-5.112659e-10	7.305392e+00	-3.408716e+01
9.100000e-07	1.181393e-06	-1.748162e-10	8.200999e+00	-1.180063e+01
9.200000e-07	1.309954e-06	1.760645e-10	9.093445e+00	1.122680e+01
9.300000e-07	1.438100e-06	5.407754e-10	9.983008e+00	3.495387e+01
9.400000e-07	1.565820e-06	9.157511e-10	1.086962e+01	5.930317e+01
9.500000e-07	1.693075e-06	1.298013e-09	1.175299e+01	8.415789e+01
9.600000e-07	1.819701e-06	1.684547e-09	1.263201e+01	1.093632e+02
9.700000e-07	1.945541e-06	2.073257e-09	1.350556e+01	1.347323e+02
9.800000e-07	2.070676e-06	2.461135e-09	1.437423e+01	1.600582e+02
9.900000e-07	2.195189e-06	2.842830e-09	1.523857e+01	1.851273e+02
1.000000e-06	2.318974e-06	3.215562e-09	1.609786e+01	2.097363e+02
1.010000e-06	2.441854e-06	3.577607e-09	1.695087e+01	2.337065e+02
1.020000e-06	2.563721e-06	3.929447e-09	1.779685e+01	2.568957e+02
1.030000e-06	2.684594e-06	4.268678e-09	1.863592e+01	2.792051e+02
1.040000e-06	2.804492e-06	4.593720e-09	1.946823e+01	3.005803e+02
1.050000e-06	2.923392e-06	4.906265e-09	2.029362e+01	3.210070e+02
1.060000e-06	3.041222e-06	5.204801e-09	2.111157e+01	3.405026e+02
1.070000e-06	3.157984e-06	5.489073e-09	2.192211e+01	3.591056e+02
1.080000e-06	3.273492e-06	5.759243e-09	2.272394e+01	3.768650e+02
1.090000e-06	3.387472e-06	6.016776e-09	2.351517e+01	3.938313e+02
1.100000e-06	3.500125e-06	6.263001e-09	2.429718e+01	4.100507e+02
1.110000e-06	3.611586e-06	6.496607e-09	2.507092e+01	4.255621e+02
1.120000e-06	3.721802e-06	6.719052e-09	2.583602e+01	4.403981e+02
1.130000e-06	3.830853e-06	6.934003e-09	2.659303e+01	4.545868e+02
1.140000e-06	3.938760e-06	7.140319e-09	2.734210e+01	4.681550e+02
1.150000e-06	4.045270e-06	7.338507e-09	2.808147e+01	4.811307e+02
1.160000e-06	4.150230e-06	7.527061e-09	2.881008e+01	4.935440e+02
1.170000e-06	4.253677e-06	7.705925e-09	2.952819e+01	5.054273e+02
1.180000e-06	4.355633e-06	7.878441e-09	3.023595e+01	5.168129e+02
1.190000e-06	4.456189e-06	8.045095e-09	3.093399e+01	5.277311e+02
1.200000e-06	4.555133e-06	8.205722e-09	3.162084e+01	5.382077e+02
1.210000e-06	4.652250e-06	8.357529e-09	3.229501e+01	5.482633e+02
1.220000e-06	4.747552e-06	8.502698e-09	3.295657e+01	5.579125e+02
1.230000e-06	4.841141e-06	8.644599e-09	3.360625e+01	5.671655e+02
1.240000e-06	4.933221e-06	8.783281e-09	3.424545e+01	5.760297e+02
1.250000e-06	5.023591e-06	8.916195e-09	3.487278e+01	5.845120e+02
1.260000e-06	5.111987e-06	9.041748e-09	3.548641e+01	5.926202e+02
1.270000e-06	5.198490e-06	9.159726e-09	3.608690e+01	6.003636e+02
1.280000e-06	5.283260e-06	9.272661e-09	3.667535e+01	6.077534e+02
1.290000e-06	5.366268e-06	9.381472e-09	3.725158e+01	6.148015e+02
1.300000e-06	5.447290e-06	9.484332e-09	3.781402e+01	6.215197e+02
1.310000e-06	5.526293e-06	9.580482e-09	3.836244e+01	6.279188e+02
1.320000e-06	5.603318e-06	9.671450e-09	3.889713e+01	6.340083e+02
1.330000e-06	5.678155e-06	9.759309e-09	3.941664e+01	6.397977e+02
1.340000e-06	5.750718e-06	9.843710e-09	3.992036e+01	6.452970e+02
1.350000e-06	5.821173e-06	9.923936e-09	4.040944e+01	6.505184e+02
1.360000e-06	5.889600e-06	9.999448e-09	4.088444e+01	6.554770e+02
1.370000e-06	5.955926e-06	1.007117e-08	4.134487e+01	6.601910e+02
1.380000e-06	6.020046e-06	1.013921e-08	4.178998e+01	6.646804e+02
1.390000e-06	6.082097e-06	1.020415e-08	4.222072e+01	6.689648e+02
1.400000e-06	6.142252e-06	1.026721e-08	4.263830e+01	6.730611e+02
1.410000e-06	6.200230e-06	1.032697e-08	4.304078e+01	6.769808e+02
1.420000e-06	6.255905e-06	1.038349e-08	4.342727e+01	6.807284e+02
1.430000e-06	6.309373e-06	1.043785e-08	4.379843e+01	6.843015e+02
1.440000e-06	6.360242e-06	1.049126e-08	4.415155e+01	6.876920e+02
1.450000e-06	6.408476e-06	1.054283e-08	4.448638e+01	6.908889e+02
1.460000e-06	6.454427e-06	1.058904e-08	4.480537e+01	6.938815e+02
1.470000e-06	6.498227e-06	1.063053e-08	4.510942e+01	6.966624e+02
1.480000e-06	6.539657e-06	1.066809e-08	4.539701e+01	6.992300e+02
1.490000e-06	6.578658e-06	1.070361e-08	4.566775e+01	7.015891e+02
1.500000e-06	6.615554e-06	1.073655e-08	4.592388e+01	7.037495e+02
1.510000e-06	6.650235e-06	1.076719e-08	4.616463e+01	7.057242e+02
1.520000e-06	6.682420e-06	1.079549e-08	4.638805e+01	7.075259e+02
1.530000e-06	6.712233e-06	1.081934e-08	4.659500e+01	7.091649e+02
1.540000e-06	6.739836e-06	1.084051e-08	4.678662e+01	7.106465e+02
1.550000e-06	6.764976e-06	1.085953e-08	4.696114e+01	7.119717e+02
1.560000e-06	6.787518e-06	1.087553e-08	4.711762e+01	7.131379e+02
1.570000e-06	6.807744e-06	1.088792e-08	4.725802e+01	7.141418e+02
1.580000e-06	6.825565e-06	1.089755e-08	4.738173e+01	7.149819e+02
1.590000e-06	6.840786e-06	1.090776e-08	4.748740e+01	7.156607e+02
1.600000e-06	6.853508e-06	1.091838e-08	4.757571e+01	7.161861e+02
1.610000e-06	6.863538e-06	1.092570e-08	4.764534e+01	7.165702e+02
1.620000e-06	6.870898e-06	1.093023e-08	4.769642e+01	7.168270e+02
1.630000e-06	6.875911e-06	1.093372e-08	4.773122e+01	7.169694e+02
1.640000e-06	6.878553e-06	1.093608e-08	4.774957e+01	7.170054e+02
1.650000e-06	6.878724e-06	1.093723e-08	4.775075e+01	7.169362e+02
1.660000e-06	6.876552e-06	1.092832e-08	4.773568e+01	7.167552e+02
1.670000e-06	6.872247e-06	1.091786e-08	4.770579e+01	7.164498e+02
1.680000e-06	6.865594e-06	1.091157e-08	4.765960e+01	7.160048e+02
1.690000e-06	6.856606e-06	1.090359e-08	4.759721e+01	7.154071e+02
1.700000e-06	6.845446e-06	1.089382e-08	4.751975e+01	7.146507e+02
1.710000e-06	6.831895e-06	1.088495e-08	4.742567e+01	7.137396e+02
1.720000e-06	6.816036e-06	1.088404e-08	4.731558e+01	7.126897e+02
1.730000e-06	6.798098e-06	1.085187e-08	4.719106e+01	7.115274e+02
1.740000e-06	6.777749e-06	1.077416e-08	4.704981e+01	7.102854e+02
1.750000e-06	6.754204e-06	1.076817e-08	4.688636e+01	7.089970e+02
1.760000e-06	6.727477e-06	1.076904e-08	4.670082e+01	7.076899e+02
1.770000e-06	6.698293e-06	1.074038e-08	4.649824e+01	7.063806e+02
1.780000e-06	6.667134e-06	1.081225e-08	4.628193e+01	7.050700e+02
1.790000e-06	6.634526e-06	1.077052e-08	4.605558e+01	7.037432e+02
1.800000e-06	6.600330e-06	1.064450e-08	4.581820e+01	7.023708e+02
1.810000e-06	6.563619e-06	1.072884e-08	4.556336e+01	7.009138e+02
1.820000e-06	6.524482e-06	1.066479e-08	4.529167e+01	6.993293e+02
1.830000e-06	6.483287e-06	1.063877e-08	4.500570e+01	6.975772e+02
1.840000e-06	6.439848e-06	1.070081e-08	4.470416e+01	6.956257e+02
1.850000e-06	6.394198e-06	1.054234e-08	4.438727e+01	6.934551e+02
1.860000e-06	6.346095e-06	1.054168e-08	4.405335e+01	6.910595e+02
1.870000e-06	6.295620e-06	1.049410e-08	4.370296e+01	6.884455e+02
1.880000e-06	6.242853e-06	1.042482e-08	4.333666e+01	6.856296e+02
1.890000e-06	6.187387e-06	1.044960e-08	4.295163e+01	6.826343e+02
1.900000e-06	6.129498e-06	1.033779e-08	4.254977e+01	6.794834e+02
1.910000e-06	6.069327e-06	1.033820e-08	4.213208e+01	6.761984e+02
1.920000e-06	6.006820e-06	1.027073e-08	4.169817e+01	6.727957e+02
1.930000e-06	5.942134e-06	1.018159e-08	4.124913e+01	6.692847e+02
1.940000e-06	5.875277e-06	1.018867e-08	4.078502e+01	6.656680e+02
1.950000e-06	5.806294e-06	1.008560e-08	4.030615e+01	6.619420e+02
1.960000e-06	5.734953e-06	1.004837e-08	3.981092e+01	6.580989e+02
1.970000e-06	5.661349e-06	9.943568e-09	3.929998e+01	6.541281e+02
1.980000e-06	5.585669e-06	9.901220e-09	3.877462e+01	6.500186e+02
1.990000e-06	5.507746e-06	9.885223e-09	3.823369e+01	6.457601e+02
2.000000e-06	5.427731e-06	9.776479e-09	3.767824e+01	6.413447e+02
2.010000e-06	5.345813e-06	9.721014e-09	3.710958e+01	6.367671e+02
2.020000e-06	5.262113e-06	9.622904e-09	3.652855e+01	6.320247e+02
2.030000e-06	5.176526e-06	9.554783e-09	3.593443e+01	6.271174e+02
2.040000e-06	5.088940e-06	9.475072e-09	3.532642e+01	6.220463e+02
2.050000e-06	4.999633e-06	9.416266e-09	3.470647e+01	6.168130e+02
2.060000e-06	4.908720e-06	9.344137e-09	3.407537e+01	6.114185e+02
2.070000e-06	4.816141e-06	9.222581e-09	3.343270e+01	6.058619e+02
2.080000e-06	4.721824e-06	9.133254e-09	3.277798e+01	6.001402e+02
2.090000e-06	4.625760e-06	9.037753e-09	3.211112e+01	5.942483e+02
2.100000e-06	4.528155e-06	8.971016e-09	3.143357e+01	5.881795e+02
2.110000e-06	4.429020e-06	8.873988e-09	3.074539e+01	5.819265e+02
2.120000e-06	4.328344e-06	8.772128e-09	3.004651e+01	5.754831e+02
2.130000e-06	4.226127e-06	8.670401e-09	2.933694e+01	5.688450e+02
2.140000e-06	4.122224e-06	8.564671e-09	2.861567e+01	5.620110e+02
2.150000e-06	4.016820e-06	8.460244e-09	2.788398e+01	5.549828e+02
2.160000e-06	3.910079e-06	8.348081e-09	2.714300e+01	5.477643e+02
2.170000e-06	3.801979e-06	8.240060e-09	2.639259e+01	5.403598e+02
2.180000e-06	3.692579e-06	8.116809e-09	2.563316e+01	5.327725e+02
2.190000e-06	3.581786e-06	7.999727e-09	2.486406e+01	5.250021e+02
2.200000e-06	3.469629e-06	7.879707e-09	2.408548e+01	5.170440e+02
2.210000e-06	3.356071e-06	7.764528e-09	2.329719e+01	5.088886e+02
2.220000e-06	3.241094e-06	7.632260e-09	2.249904e+01	5.005221e+02
2.230000e-06	3.124856e-06	7.490191e-09	2.169214e+01	4.919291e+02
2.240000e-06	3.007404e-06	7.351419e-09	2.087681e+01	4.830943e+02
2.250000e-06	2.888712e-06	7.221663e-09	2.005287e+01	4.740056e+02
2.260000e-06	2.768799e-06	7.089562e-09	1.922046e+01	4.646557e+02
2.270000e-06	2.647899e-06	6.940390e-09	1.838120e+01	4.550431e+02
2.280000e-06	2.526131e-06	6.785636e-09	1.753590e+01	4.451709e+02
2.290000e-06	2.403388e-06	6.627898e-09	1.668385e+01	4.350450e+02
2.300000e-06	2.279752e-06	6.471710e-09	1.582559e+01	4.246710e+02
2.310000e-06	2.155467e-06	6.316052e-09	1.496283e+01	4.140515e+02
2.320000e-06	2.030538e-06	6.160377e-09	1.409560e+01	4.031833e+02
2.330000e-06	1.904869e-06	5.989753e-09	1.322323e+01	3.920565e+02
2.340000e-06	1.778538e-06	5.809142e-09	1.234626e+01	3.806553e+02
2.350000e-06	1.651588e-06	5.625635e-09	1.146500e+01	3.689591e+02
2.360000e-06	1.523999e-06	5.444581e-09	1.057930e+01	3.569463e+02
2.370000e-06	1.395862e-06	5.261758e-09	9.689797e+00	3.445965e+02
2.380000e-06	1.267236e-06	5.069450e-09	8.796901e+00	3.318937e+02
2.390000e-06	1.138195e-06	4.870664e-09	7.901128e+00	3.188270e+02
2.400000e-06	1.008892e-06	4.663628e-09	7.003528e+00	3.053904e+02
2.410000e-06	8.793530e-07	4.452127e-09	6.104296e+00	2.915813e+02
2.420000e-06	7.495312e-07	4.236850e-09	5.203098e+00	2.773974e+02
2.430000e-06	6.194664e-07	4.014630e-09	4.300214e+00	2.628341e+02
2.440000e-06	4.891873e-07	3.783426e-09	3.395842e+00	2.478820e+02
2.450000e-06	3.586708e-07	3.545781e-09	2.489822e+00	2.325256e+02
2.460000e-06	2.279603e-07	3.304188e-09	1.582456e+00	2.167427e+02
2.470000e-06	9.713767e-08	3.058521e-09	6.743106e-01	2.005058e+02
2.480000e-06	-3.374679e-08	2.808174e-09	-2.342636e-01	1.837834e+02
2.490000e-06	-1.646675e-07	2.547344e-09	-1.143089e+00	1.665413e+02
2.500000e-06	-2.955074e-07	2.273150e-09	-2.051355e+00	1.487441e+02
2.510000e-06	-4.262063e-07	1.989390e-09	-2.958640e+00	1.303557e+02
2.520000e-06	-5.567703e-07	1.699304e-09	-3.864990e+00	1.113394e+02
2.530000e-06	-6.871308e-07	1.402528e-09	-4.769927e+00	9.165874e+01
2.540000e-06	-8.172135e-07	1.093100e-09	-5.672936e+00	7.127890e+01
2.550000e-06	-9.469910e-07	7.702651e-10	-6.573826e+00	5.017006e+01
2.560000e-06	-1.076492e-06	4.365842e-10	-7.472798e+00	2.831271e+01
2.570000e-06	-1.205743e-06	9.303016e-11	-8.370032e+00	5.704760e+00
2.580000e-06	-1.334686e-06	-2.595669e-10	-9.265129e+00	-1.763048e+01
2.590000e-06	-1.463154e-06	-6.218232e-10	-1.015693e+01	-4.163689e+01
2.600000e-06	-1.591041e-06	-9.959509e-10	-1.104470e+01	-6.622033e+01
2.610000e-06	-1.718260e-06	-1.378029e-09	-1.192783e+01	-9.124722e+01
2.620000e-06	-1.844726e-06	-1.763326e-09	-1.280573e+01	-1.165480e+02
2.630000e-06	-1.970419e-06	-2.147620e-09	-1.367826e+01	-1.419256e+02
2.640000e-06	-2.095361e-06	-2.529469e-09	-1.454559e+01	-1.671683e+02
2.650000e-06	-2.219533e-06	-2.910276e-09	-1.540756e+01	-1.920650e+02
2.660000e-06	-2.342860e-06	-3.285564e-09	-1.626367e+01	-2.164211e+02
2.670000e-06	-2.465253e-06	-3.649448e-09	-1.711330e+01	-2.400724e+02
2.680000e-06	-2.586744e-06	-3.998448e-09	-1.795667e+01	-2.628949e+02
2.690000e-06	-2.707373e-06	-4.333877e-09	-1.879405e+01	-2.848091e+02
2.700000e-06	-2.826915e-06	-4.653491e-09	-1.962389e+01	-3.057784e+02
2.710000e-06	-2.945219e-06	-4.956574e-09	-2.044513e+01	-3.258033e+02
2.720000e-06	-3.062354e-06	-5.247418e-09	-2.125826e+01	-3.449117e+02
2.730000e-06	-3.178336e-06	-5.525115e-09	-2.206339e+01	-3.631478e+02
2.740000e-06	-3.293032e-06	-5.791182e-09	-2.285958e+01	-3.805623e+02
2.750000e-06	-3.406387e-06	-6.048964e-09	-2.364647e+01	-3.972041e+02
2.760000e-06	-3.518315e-06	-6.297302e-09	-2.442345e+01	-4.131167e+02
2.770000e-06	-3.628897e-06	-6.534063e-09	-2.519109e+01	-4.283359e+02
2.780000e-06	-3.738256e-06	-6.756785e-09	-2.595024e+01	-4.428921e+02
2.790000e-06	-3.846437e-06	-6.967117e-09	-2.670121e+01	-4.568125e+02
2.800000e-06	-3.953403e-06	-7.167478e-09	-2.744374e+01	-4.701241e+02
2.810000e-06	-4.058982e-06	-7.360756e-09	-2.817666e+01	-4.828559e+02
2.820000e-06	-4.163098e-06	-7.548549e-09	-2.889941e+01	-4.950390e+02
2.830000e-06	-4.265565e-06	-7.729169e-09	-2.961071e+01	-5.067060e+02
2.840000e-06	-4.366405e-06	-7.902776e-09	-3.031073e+01	-5.178887e+02
2.850000e-06	-4.465775e-06	-8.069462e-09	-3.100053e+01	-5.286157e+02
2.860000e-06	-4.563678e-06	-8.229523e-09	-3.168016e+01	-5.389106e+02
2.870000e-06	-4.660120e-06	-8.381755e-09	-3.234964e+01	-5.487915e+02
2.880000e-06	-4.754832e-06	-8.523893e-09	-3.300711e+01	-5.582707e+02
2.890000e-06	-4.847730e-06	-8.657532e-09	-3.365199e+01	-5.673572e+02
2.900000e-06	-4.938956e-06	-8.784252e-09	-3.428526e+01	-5.760579e+02
2.910000e-06	-5.028477e-06	-8.906933e-09	-3.490670e+01	-5.843797e+02
2.920000e-06	-5.116133e-06	-9.028574e-09	-3.551519e+01	-5.923312e+02
2.930000e-06	-5.201763e-06	-9.147035e-09	-3.610962e+01	-5.999225e+02
2.940000e-06	-5.285485e-06	-9.260057e-09	-3.669080e+01	-6.071654e+02
