# Temperatura_=_39.51
# Concentracion g/m^3_=_15000.0
# C_Vs_to_Am_M_A/Vsm_=_65563218390.804596
# pendiente_HvsI_1/m_=_3716.3
# ordenada_HvsI_A/m_=_1297.0
# frecuencia_Hz_=_301971.85570277495

Tiempo_(s)	Campo_(V.s)	Magnetizacion_(V.s)	Campo_(kA/m)	Magnetizacion_(A/m)
0.000000e+00	-6.833569e-06	-1.003999e-08	-4.746795e+01	-6.574754e+02
1.000000e-08	-6.829758e-06	-1.003559e-08	-4.744147e+01	-6.572504e+02
2.000000e-08	-6.823766e-06	-1.002844e-08	-4.739985e+01	-6.569127e+02
3.000000e-08	-6.815595e-06	-1.002315e-08	-4.734310e+01	-6.564600e+02
4.000000e-08	-6.805043e-06	-1.001613e-08	-4.726980e+01	-6.558921e+02
5.000000e-08	-6.791937e-06	-1.000574e-08	-4.717876e+01	-6.552122e+02
6.000000e-08	-6.776397e-06	-9.987640e-09	-4.707081e+01	-6.544278e+02
7.000000e-08	-6.758652e-06	-9.967982e-09	-4.694755e+01	-6.535501e+02
8.000000e-08	-6.738716e-06	-9.991977e-09	-4.680907e+01	-6.525932e+02
9.000000e-08	-6.716308e-06	-1.000240e-08	-4.665342e+01	-6.515725e+02
1.000000e-07	-6.691117e-06	-9.961860e-09	-4.647844e+01	-6.505026e+02
1.100000e-07	-6.663265e-06	-9.927611e-09	-4.628497e+01	-6.493949e+02
1.200000e-07	-6.633166e-06	-9.898304e-09	-4.607589e+01	-6.482560e+02
1.300000e-07	-6.601085e-06	-9.824594e-09	-4.585305e+01	-6.470858e+02
1.400000e-07	-6.567116e-06	-9.828510e-09	-4.561709e+01	-6.458773e+02
1.500000e-07	-6.531225e-06	-9.896748e-09	-4.536778e+01	-6.446164e+02
1.600000e-07	-6.493248e-06	-9.794896e-09	-4.510398e+01	-6.432832e+02
1.700000e-07	-6.453097e-06	-9.784076e-09	-4.482508e+01	-6.418540e+02
1.800000e-07	-6.410550e-06	-9.786188e-09	-4.452954e+01	-6.403035e+02
1.900000e-07	-6.365527e-06	-9.693777e-09	-4.421679e+01	-6.386079e+02
2.000000e-07	-6.318160e-06	-9.714541e-09	-4.388777e+01	-6.367472e+02
2.100000e-07	-6.268203e-06	-9.694020e-09	-4.354075e+01	-6.347079e+02
2.200000e-07	-6.215609e-06	-9.653245e-09	-4.317542e+01	-6.324836e+02
2.300000e-07	-6.160612e-06	-9.610118e-09	-4.279339e+01	-6.300761e+02
2.400000e-07	-6.103248e-06	-9.555273e-09	-4.239493e+01	-6.274945e+02
2.500000e-07	-6.043581e-06	-9.533610e-09	-4.198046e+01	-6.247531e+02
2.600000e-07	-5.981777e-06	-9.473280e-09	-4.155115e+01	-6.218698e+02
2.700000e-07	-5.917779e-06	-9.413541e-09	-4.110660e+01	-6.188623e+02
2.800000e-07	-5.851505e-06	-9.371167e-09	-4.064625e+01	-6.157461e+02
2.900000e-07	-5.783018e-06	-9.337673e-09	-4.017052e+01	-6.125320e+02
3.000000e-07	-5.712467e-06	-9.300013e-09	-3.968045e+01	-6.092246e+02
3.100000e-07	-5.639796e-06	-9.235492e-09	-3.917565e+01	-6.058224e+02
3.200000e-07	-5.564820e-06	-9.191896e-09	-3.865485e+01	-6.023182e+02
3.300000e-07	-5.487542e-06	-9.119181e-09	-3.811805e+01	-5.987013e+02
3.400000e-07	-5.408061e-06	-9.047651e-09	-3.756596e+01	-5.949592e+02
3.500000e-07	-5.326545e-06	-9.004741e-09	-3.699972e+01	-5.910800e+02
3.600000e-07	-5.243219e-06	-8.962010e-09	-3.642092e+01	-5.870539e+02
3.700000e-07	-5.158200e-06	-8.905395e-09	-3.583035e+01	-5.828749e+02
3.800000e-07	-5.071493e-06	-8.825100e-09	-3.522806e+01	-5.785401e+02
3.900000e-07	-4.982983e-06	-8.757781e-09	-3.461324e+01	-5.740494e+02
4.000000e-07	-4.892659e-06	-8.681191e-09	-3.398583e+01	-5.694041e+02
4.100000e-07	-4.800658e-06	-8.604330e-09	-3.334676e+01	-5.646056e+02
4.200000e-07	-4.707020e-06	-8.537649e-09	-3.269632e+01	-5.596540e+02
4.300000e-07	-4.611741e-06	-8.466705e-09	-3.203449e+01	-5.545477e+02
4.400000e-07	-4.514748e-06	-8.385882e-09	-3.136075e+01	-5.492831e+02
4.500000e-07	-4.416062e-06	-8.296384e-09	-3.067524e+01	-5.438556e+02
4.600000e-07	-4.315837e-06	-8.212608e-09	-2.997905e+01	-5.382605e+02
4.700000e-07	-4.214162e-06	-8.122602e-09	-2.927279e+01	-5.324942e+02
4.800000e-07	-4.110990e-06	-8.028514e-09	-2.855612e+01	-5.265550e+02
4.900000e-07	-4.006301e-06	-7.934697e-09	-2.782893e+01	-5.204431e+02
5.000000e-07	-3.900107e-06	-7.843284e-09	-2.709127e+01	-5.141603e+02
5.100000e-07	-3.792389e-06	-7.748085e-09	-2.634303e+01	-5.077087e+02
5.200000e-07	-3.683295e-06	-7.646271e-09	-2.558523e+01	-5.010890e+02
5.300000e-07	-3.573034e-06	-7.539157e-09	-2.481933e+01	-4.942993e+02
5.400000e-07	-3.461435e-06	-7.425617e-09	-2.404413e+01	-4.873341e+02
5.500000e-07	-3.348359e-06	-7.315320e-09	-2.325867e+01	-4.801840e+02
5.600000e-07	-3.233855e-06	-7.208133e-09	-2.246329e+01	-4.728365e+02
5.700000e-07	-3.117937e-06	-7.100134e-09	-2.165809e+01	-4.652776e+02
5.800000e-07	-3.000744e-06	-6.984187e-09	-2.084404e+01	-4.574932e+02
5.900000e-07	-2.882530e-06	-6.861557e-09	-2.002289e+01	-4.494713e+02
6.000000e-07	-2.763310e-06	-6.731629e-09	-1.919475e+01	-4.412032e+02
6.100000e-07	-2.643062e-06	-6.596287e-09	-1.835947e+01	-4.326839e+02
6.200000e-07	-2.521882e-06	-6.460081e-09	-1.751772e+01	-4.239119e+02
6.300000e-07	-2.399719e-06	-6.323809e-09	-1.666914e+01	-4.148877e+02
6.400000e-07	-2.276554e-06	-6.183680e-09	-1.581360e+01	-4.056128e+02
6.500000e-07	-2.152541e-06	-6.037346e-09	-1.495217e+01	-3.960871e+02
6.600000e-07	-2.027854e-06	-5.887688e-09	-1.408606e+01	-3.863081e+02
6.700000e-07	-1.902534e-06	-5.733892e-09	-1.321555e+01	-3.762701e+02
6.800000e-07	-1.776584e-06	-5.576005e-09	-1.234067e+01	-3.659641e+02
6.900000e-07	-1.650027e-06	-5.413837e-09	-1.146157e+01	-3.553785e+02
7.000000e-07	-1.522861e-06	-5.247616e-09	-1.057824e+01	-3.445005e+02
7.100000e-07	-1.395120e-06	-5.075670e-09	-9.690905e+00	-3.333166e+02
7.200000e-07	-1.266945e-06	-4.898595e-09	-8.800567e+00	-3.218139e+02
7.300000e-07	-1.138400e-06	-4.717311e-09	-7.907658e+00	-3.099803e+02
7.400000e-07	-1.009508e-06	-4.531115e-09	-7.012332e+00	-2.978040e+02
7.500000e-07	-8.803245e-07	-4.340577e-09	-6.114989e+00	-2.852733e+02
7.600000e-07	-7.508703e-07	-4.144266e-09	-5.215763e+00	-2.723758e+02
7.700000e-07	-6.211685e-07	-3.942920e-09	-4.314816e+00	-2.590981e+02
7.800000e-07	-4.912510e-07	-3.736829e-09	-3.412372e+00	-2.454259e+02
7.900000e-07	-3.611149e-07	-3.523787e-09	-2.508408e+00	-2.313444e+02
8.000000e-07	-2.307760e-07	-3.301350e-09	-1.603037e+00	-2.168388e+02
8.100000e-07	-1.002800e-07	-3.070041e-09	-6.965739e-01	-2.018950e+02
8.200000e-07	3.031374e-08	-2.833124e-09	2.105680e-01	-1.864991e+02
8.300000e-07	1.609147e-07	-2.591330e-09	1.117760e+00	-1.706371e+02
8.400000e-07	2.914823e-07	-2.344925e-09	2.024721e+00	-1.542927e+02
8.500000e-07	4.219606e-07	-2.091410e-09	2.931061e+00	-1.374454e+02
8.600000e-07	5.522828e-07	-1.828004e-09	3.836316e+00	-1.200683e+02
8.700000e-07	6.823818e-07	-1.553180e-09	4.740022e+00	-1.021277e+02
8.800000e-07	8.122207e-07	-1.267885e-09	5.641920e+00	-8.358334e+01
8.900000e-07	9.417650e-07	-9.746049e-10	6.541772e+00	-6.439244e+01
9.000000e-07	1.070959e-06	-6.712750e-10	7.439189e+00	-4.451551e+01
9.100000e-07	1.199860e-06	-3.560379e-10	8.334574e+00	-2.392472e+01
9.200000e-07	1.328450e-06	-2.897046e-11	9.227798e+00	-2.613286e+00
9.300000e-07	1.456626e-06	3.084337e-10	1.011814e+01	1.939543e+01
9.400000e-07	1.584234e-06	6.525613e-10	1.100455e+01	4.204093e+01
9.500000e-07	1.711162e-06	1.003802e-09	1.188623e+01	6.522216e+01
9.600000e-07	1.837393e-06	1.363859e-09	1.276307e+01	8.879887e+01
9.700000e-07	1.963003e-06	1.728785e-09	1.363559e+01	1.125979e+02
9.800000e-07	2.088018e-06	2.094327e-09	1.450398e+01	1.364242e+02
9.900000e-07	2.212387e-06	2.455155e-09	1.536788e+01	1.600745e+02
1.000000e-06	2.336065e-06	2.807735e-09	1.622698e+01	1.833532e+02
1.010000e-06	2.458751e-06	3.152221e-09	1.707920e+01	2.060860e+02
1.020000e-06	2.580353e-06	3.486387e-09	1.792388e+01	2.281316e+02
1.030000e-06	2.701090e-06	3.810269e-09	1.876256e+01	2.493882e+02
1.040000e-06	2.820838e-06	4.122526e-09	1.959436e+01	2.697957e+02
1.050000e-06	2.939405e-06	4.421481e-09	2.041796e+01	2.893315e+02
1.060000e-06	3.056951e-06	4.706560e-09	2.123446e+01	3.080043e+02
1.070000e-06	3.173467e-06	4.977468e-09	2.204382e+01	3.258434e+02
1.080000e-06	3.288688e-06	5.235425e-09	2.284418e+01	3.428898e+02
1.090000e-06	3.402492e-06	5.480301e-09	2.363470e+01	3.591866e+02
1.100000e-06	3.514925e-06	5.715470e-09	2.441569e+01	3.747729e+02
1.110000e-06	3.626121e-06	5.941794e-09	2.518809e+01	3.896809e+02
1.120000e-06	3.736161e-06	6.158809e-09	2.595246e+01	4.039355e+02
1.130000e-06	3.845018e-06	6.367423e-09	2.670861e+01	4.175566e+02
1.140000e-06	3.952644e-06	6.565593e-09	2.745621e+01	4.305623e+02
1.150000e-06	4.058814e-06	6.753534e-09	2.819370e+01	4.429726e+02
1.160000e-06	4.163452e-06	6.932372e-09	2.892054e+01	4.548114e+02
1.170000e-06	4.266548e-06	7.102154e-09	2.963668e+01	4.661078e+02
1.180000e-06	4.368138e-06	7.266397e-09	3.034235e+01	4.768950e+02
1.190000e-06	4.468343e-06	7.424754e-09	3.103841e+01	4.872078e+02
1.200000e-06	4.566922e-06	7.575951e-09	3.172316e+01	4.970797e+02
1.210000e-06	4.663725e-06	7.721233e-09	3.239558e+01	5.065395e+02
1.220000e-06	4.758760e-06	7.862030e-09	3.305573e+01	5.156089e+02
1.230000e-06	4.852111e-06	7.998467e-09	3.370417e+01	5.243017e+02
1.240000e-06	4.943866e-06	8.128045e-09	3.434152e+01	5.326240e+02
1.250000e-06	5.033845e-06	8.249484e-09	3.496654e+01	5.405761e+02
1.260000e-06	5.121905e-06	8.364561e-09	3.557824e+01	5.481553e+02
1.270000e-06	5.208116e-06	8.473035e-09	3.617708e+01	5.553597e+02
1.280000e-06	5.292559e-06	8.575623e-09	3.676365e+01	5.621904e+02
1.290000e-06	5.375210e-06	8.675082e-09	3.733777e+01	5.686546e+02
1.300000e-06	5.455825e-06	8.767227e-09	3.789774e+01	5.747660e+02
1.310000e-06	5.534400e-06	8.851928e-09	3.844355e+01	5.805449e+02
1.320000e-06	5.611017e-06	8.933351e-09	3.897575e+01	5.860166e+02
1.330000e-06	5.685445e-06	9.012676e-09	3.949275e+01	5.912095e+02
1.340000e-06	5.757631e-06	9.089269e-09	3.999417e+01	5.961520e+02
1.350000e-06	5.827745e-06	9.162328e-09	4.048120e+01	6.008700e+02
1.360000e-06	5.895859e-06	9.231375e-09	4.095434e+01	6.053847e+02
1.370000e-06	5.961833e-06	9.296737e-09	4.141262e+01	6.097112e+02
1.380000e-06	6.025601e-06	9.358873e-09	4.185557e+01	6.138580e+02
1.390000e-06	6.087360e-06	9.418737e-09	4.228456e+01	6.178274e+02
1.400000e-06	6.147136e-06	9.477241e-09	4.269979e+01	6.216168e+02
1.410000e-06	6.204742e-06	9.532929e-09	4.309993e+01	6.252207e+02
1.420000e-06	6.260114e-06	9.583974e-09	4.348456e+01	6.286323e+02
1.430000e-06	6.313164e-06	9.632304e-09	4.385307e+01	6.318459e+02
1.440000e-06	6.363568e-06	9.679766e-09	4.420318e+01	6.348586e+02
1.450000e-06	6.411372e-06	9.724009e-09	4.453524e+01	6.376707e+02
1.460000e-06	6.456967e-06	9.762821e-09	4.485196e+01	6.402865e+02
1.470000e-06	6.500433e-06	9.798205e-09	4.515389e+01	6.427133e+02
1.480000e-06	6.541517e-06	9.831650e-09	4.543927e+01	6.449608e+02
1.490000e-06	6.580197e-06	9.862858e-09	4.570795e+01	6.470395e+02
1.500000e-06	6.616708e-06	9.891363e-09	4.596157e+01	6.489591e+02
1.510000e-06	6.650963e-06	9.917580e-09	4.619951e+01	6.507276e+02
1.520000e-06	6.682797e-06	9.942213e-09	4.642064e+01	6.523504e+02
1.530000e-06	6.712309e-06	9.964020e-09	4.662564e+01	6.538303e+02
1.540000e-06	6.739542e-06	9.983194e-09	4.681481e+01	6.551680e+02
1.550000e-06	6.764217e-06	1.000022e-08	4.698621e+01	6.563629e+02
1.560000e-06	6.786334e-06	1.001438e-08	4.713984e+01	6.574145e+02
1.570000e-06	6.806173e-06	1.002526e-08	4.727765e+01	6.583234e+02
1.580000e-06	6.823585e-06	1.003535e-08	4.739859e+01	6.590921e+02
1.590000e-06	6.838444e-06	1.004696e-08	4.750181e+01	6.597252e+02
1.600000e-06	6.850762e-06	1.005732e-08	4.758737e+01	6.602290e+02
1.610000e-06	6.860346e-06	1.006387e-08	4.765395e+01	6.606107e+02
1.620000e-06	6.867338e-06	1.006794e-08	4.770252e+01	6.608771e+02
1.630000e-06	6.872015e-06	1.007129e-08	4.773501e+01	6.610339e+02
1.640000e-06	6.874282e-06	1.007407e-08	4.775075e+01	6.610842e+02
1.650000e-06	6.874065e-06	1.007271e-08	4.774925e+01	6.610286e+02
1.660000e-06	6.871597e-06	1.006595e-08	4.773210e+01	6.608656e+02
1.670000e-06	6.866936e-06	1.005981e-08	4.769972e+01	6.605918e+02
1.680000e-06	6.859947e-06	1.005381e-08	4.765117e+01	6.602042e+02
1.690000e-06	6.850729e-06	1.004654e-08	4.758715e+01	6.597011e+02
1.700000e-06	6.839321e-06	1.003894e-08	4.750790e+01	6.590838e+02
1.710000e-06	6.825461e-06	1.003643e-08	4.741163e+01	6.583571e+02
1.720000e-06	6.809221e-06	1.003619e-08	4.729882e+01	6.575303e+02
1.730000e-06	6.790944e-06	9.978422e-09	4.717186e+01	6.566160e+02
1.740000e-06	6.770151e-06	9.936693e-09	4.702743e+01	6.556290e+02
1.750000e-06	6.746030e-06	9.941955e-09	4.685988e+01	6.545847e+02
1.760000e-06	6.718896e-06	9.925570e-09	4.667140e+01	6.534966e+02
1.770000e-06	6.689403e-06	9.941500e-09	4.646653e+01	6.523743e+02
1.780000e-06	6.657964e-06	9.985338e-09	4.624814e+01	6.512215e+02
1.790000e-06	6.625079e-06	9.880233e-09	4.601971e+01	6.500354e+02
1.800000e-06	6.590488e-06	9.848054e-09	4.577943e+01	6.488057e+02
1.810000e-06	6.553408e-06	9.873330e-09	4.552187e+01	6.475156e+02
1.820000e-06	6.513980e-06	9.810250e-09	4.524799e+01	6.461435e+02
1.830000e-06	6.472425e-06	9.884317e-09	4.495933e+01	6.446645e+02
1.840000e-06	6.428638e-06	9.830596e-09	4.465518e+01	6.430538e+02
1.850000e-06	6.382670e-06	9.750007e-09	4.433587e+01	6.412887e+02
1.860000e-06	6.334277e-06	9.761499e-09	4.399972e+01	6.393519e+02
1.870000e-06	6.283593e-06	9.667973e-09	4.364766e+01	6.372328e+02
1.880000e-06	6.230475e-06	9.682979e-09	4.327868e+01	6.349285e+02
1.890000e-06	6.174639e-06	9.645705e-09	4.289083e+01	6.324440e+02
1.900000e-06	6.116493e-06	9.586583e-09	4.248693e+01	6.297911e+02
1.910000e-06	6.056064e-06	9.608750e-09	4.206717e+01	6.269858e+02
1.920000e-06	5.993311e-06	9.510363e-09	4.163127e+01	6.240463e+02
1.930000e-06	5.928368e-06	9.481174e-09	4.118016e+01	6.209897e+02
1.940000e-06	5.861285e-06	9.427180e-09	4.071418e+01	6.178298e+02
1.950000e-06	5.792004e-06	9.364574e-09	4.023293e+01	6.145746e+02
1.960000e-06	5.720324e-06	9.317008e-09	3.973502e+01	6.112263e+02
1.970000e-06	5.646486e-06	9.245653e-09	3.922212e+01	6.077807e+02
1.980000e-06	5.570538e-06	9.250134e-09	3.869457e+01	6.042289e+02
1.990000e-06	5.492344e-06	9.176246e-09	3.815141e+01	6.005590e+02
2.000000e-06	5.412059e-06	9.102567e-09	3.759373e+01	5.967586e+02
2.010000e-06	5.329918e-06	9.034246e-09	3.702315e+01	5.928166e+02
2.020000e-06	5.246039e-06	8.965399e-09	3.644051e+01	5.887248e+02
2.030000e-06	5.160208e-06	8.910702e-09	3.584430e+01	5.844783e+02
2.040000e-06	5.072376e-06	8.841910e-09	3.523419e+01	5.800757e+02
2.050000e-06	4.982817e-06	8.802273e-09	3.461209e+01	5.755177e+02
2.060000e-06	4.891775e-06	8.712053e-09	3.397968e+01	5.708058e+02
2.070000e-06	4.799046e-06	8.620645e-09	3.333556e+01	5.659410e+02
2.080000e-06	4.704480e-06	8.537162e-09	3.267868e+01	5.609226e+02
2.090000e-06	4.608250e-06	8.466181e-09	3.201024e+01	5.557481e+02
2.100000e-06	4.510428e-06	8.391125e-09	3.133074e+01	5.504135e+02
2.110000e-06	4.411172e-06	8.305524e-09	3.064128e+01	5.449138e+02
2.120000e-06	4.310432e-06	8.233168e-09	2.994151e+01	5.392448e+02
2.130000e-06	4.208046e-06	8.141478e-09	2.923031e+01	5.334037e+02
2.140000e-06	4.104023e-06	8.043693e-09	2.850773e+01	5.273895e+02
2.150000e-06	3.998507e-06	7.940216e-09	2.777479e+01	5.212033e+02
2.160000e-06	3.891661e-06	7.846054e-09	2.703260e+01	5.148471e+02
2.170000e-06	3.783485e-06	7.748499e-09	2.628118e+01	5.083226e+02
2.180000e-06	3.673922e-06	7.652658e-09	2.552012e+01	5.016297e+02
2.190000e-06	3.562884e-06	7.552947e-09	2.474882e+01	4.947648e+02
2.200000e-06	3.450485e-06	7.445561e-09	2.396806e+01	4.877208e+02
2.210000e-06	3.336813e-06	7.330297e-09	2.317847e+01	4.804870e+02
2.220000e-06	3.221829e-06	7.209406e-09	2.237976e+01	4.730498e+02
2.230000e-06	3.105484e-06	7.089555e-09	2.157159e+01	4.653951e+02
2.240000e-06	2.987865e-06	6.969327e-09	2.075457e+01	4.575094e+02
2.250000e-06	2.869087e-06	6.853743e-09	1.992951e+01	4.493820e+02
2.260000e-06	2.749119e-06	6.730767e-09	1.909617e+01	4.410058e+02
2.270000e-06	2.628114e-06	6.598411e-09	1.825564e+01	4.323773e+02
2.280000e-06	2.506264e-06	6.459455e-09	1.740923e+01	4.234962e+02
2.290000e-06	2.383574e-06	6.320708e-09	1.655699e+01	4.143637e+02
2.300000e-06	2.260013e-06	6.177971e-09	1.569870e+01	4.049806e+02
2.310000e-06	2.135650e-06	6.033806e-09	1.483484e+01	3.953460e+02
2.320000e-06	2.010567e-06	5.888040e-09	1.396598e+01	3.854560e+02
2.330000e-06	1.884842e-06	5.735894e-09	1.309266e+01	3.753036e+02
2.340000e-06	1.758512e-06	5.574680e-09	1.221513e+01	3.648785e+02
2.350000e-06	1.631475e-06	5.406306e-09	1.133270e+01	3.541683e+02
2.360000e-06	1.503751e-06	5.238384e-09	1.044549e+01	3.431600e+02
2.370000e-06	1.375464e-06	5.067900e-09	9.554371e+00	3.318402e+02
2.380000e-06	1.246696e-06	4.892672e-09	8.659911e+00	3.201963e+02
2.390000e-06	1.117596e-06	4.712755e-09	7.763145e+00	3.082164e+02
2.400000e-06	9.882583e-07	4.526124e-09	6.864728e+00	2.958888e+02
2.410000e-06	8.586573e-07	4.331520e-09	5.964482e+00	2.832017e+02
2.420000e-06	7.288213e-07	4.130708e-09	5.062603e+00	2.701421e+02
2.430000e-06	5.988476e-07	3.925673e-09	4.159769e+00	2.566963e+02
2.440000e-06	4.686866e-07	3.714246e-09	3.255633e+00	2.428497e+02
2.450000e-06	3.383689e-07	3.493727e-09	2.350408e+00	2.285874e+02
2.460000e-06	2.078816e-07	3.267297e-09	1.444005e+00	2.138948e+02
2.470000e-06	7.722051e-08	3.037369e-09	5.363960e-01	1.987580e+02
2.480000e-06	-5.348835e-08	2.803572e-09	-3.715456e-01	1.831634e+02
2.490000e-06	-1.841816e-07	2.561034e-09	-1.279379e+00	1.670960e+02
2.500000e-06	-3.147792e-07	2.307499e-09	-2.186547e+00	1.505381e+02
2.510000e-06	-4.452302e-07	2.044655e-09	-3.092698e+00	1.334666e+02
2.520000e-06	-5.755612e-07	1.773031e-09	-3.998015e+00	1.158517e+02
2.530000e-06	-7.058244e-07	1.495663e-09	-4.902860e+00	9.765668e+01
2.540000e-06	-8.358775e-07	1.210357e-09	-5.806247e+00	7.883961e+01
2.550000e-06	-9.656587e-07	9.148410e-10	-6.707745e+00	5.935822e+01
2.560000e-06	-1.095160e-06	6.080049e-10	-7.607301e+00	3.917692e+01
2.570000e-06	-1.224308e-06	2.899294e-10	-8.504394e+00	1.827571e+01
2.580000e-06	-1.353115e-06	-3.804977e-11	-9.399130e+00	-3.340299e+00
2.590000e-06	-1.481480e-06	-3.753869e-10	-1.029079e+01	-2.563250e+01
2.600000e-06	-1.609286e-06	-7.236995e-10	-1.117856e+01	-4.852319e+01
2.610000e-06	-1.736341e-06	-1.082429e-09	-1.206113e+01	-7.189404e+01
2.620000e-06	-1.862530e-06	-1.445515e-09	-1.293767e+01	-9.558964e+01
2.630000e-06	-1.988015e-06	-1.807682e-09	-1.380933e+01	-1.194259e+02
2.640000e-06	-2.112789e-06	-2.167426e-09	-1.467605e+01	-1.432024e+02
2.650000e-06	-2.236805e-06	-2.526446e-09	-1.553750e+01	-1.667173e+02
2.660000e-06	-2.359925e-06	-2.882134e-09	-1.639272e+01	-1.897825e+02
2.670000e-06	-2.482026e-06	-3.227707e-09	-1.724087e+01	-2.122367e+02
2.680000e-06	-2.603243e-06	-3.560489e-09	-1.808288e+01	-2.339550e+02
2.690000e-06	-2.723631e-06	-3.878822e-09	-1.891913e+01	-2.548536e+02
2.700000e-06	-2.843028e-06	-4.181235e-09	-1.974850e+01	-2.748891e+02
2.710000e-06	-2.961187e-06	-4.471689e-09	-2.056926e+01	-2.940534e+02
2.720000e-06	-3.078110e-06	-4.752571e-09	-2.138144e+01	-3.123652e+02
2.730000e-06	-3.193837e-06	-5.021560e-09	-2.218532e+01	-3.298602e+02
2.740000e-06	-3.308277e-06	-5.278137e-09	-2.298025e+01	-3.465810e+02
2.750000e-06	-3.421311e-06	-5.524007e-09	-2.376541e+01	-3.625696e+02
2.760000e-06	-3.532961e-06	-5.759435e-09	-2.454097e+01	-3.778626e+02
2.770000e-06	-3.643272e-06	-5.985089e-09	-2.530722e+01	-3.924887e+02
2.780000e-06	-3.752336e-06	-6.199323e-09	-2.606481e+01	-4.064704e+02
2.790000e-06	-3.860256e-06	-6.402097e-09	-2.681445e+01	-4.198264e+02
2.800000e-06	-3.966942e-06	-6.596220e-09	-2.755553e+01	-4.325751e+02
2.810000e-06	-4.072344e-06	-6.782752e-09	-2.828768e+01	-4.447381e+02
2.820000e-06	-4.176224e-06	-6.961697e-09	-2.900926e+01	-4.563414e+02
2.830000e-06	-4.278410e-06	-7.131722e-09	-2.971908e+01	-4.674162e+02
2.840000e-06	-4.379058e-06	-7.293261e-09	-3.041821e+01	-4.779967e+02
2.850000e-06	-4.478187e-06	-7.446448e-09	-3.110679e+01	-4.881175e+02
2.860000e-06	-4.575796e-06	-7.594106e-09	-3.178480e+01	-4.978104e+02
2.870000e-06	-4.671913e-06	-7.737591e-09	-3.245246e+01	-5.071015e+02
2.880000e-06	-4.766315e-06	-7.873432e-09	-3.310820e+01	-5.160092e+02
2.890000e-06	-4.858896e-06	-8.000349e-09	-3.375130e+01	-5.245437e+02
2.900000e-06	-4.949774e-06	-8.120067e-09	-3.438256e+01	-5.327083e+02
2.910000e-06	-5.038931e-06	-8.235194e-09	-3.500187e+01	-5.405018e+02
2.920000e-06	-5.126146e-06	-8.347818e-09	-3.560769e+01	-5.479214e+02
2.930000e-06	-5.211372e-06	-8.456411e-09	-3.619970e+01	-5.549660e+02
2.940000e-06	-5.294777e-06	-8.561517e-09	-3.677905e+01	-5.616392e+02
