# Temperatura_=_31.52
# Concentracion g/m^3_=_15000.0
# C_Vs_to_Am_M_A/Vsm_=_65563218390.804596
# pendiente_HvsI_1/m_=_3716.3
# ordenada_HvsI_A/m_=_1297.0
# frecuencia_Hz_=_301972.3016854934

Tiempo_(s)	Campo_(V.s)	Magnetizacion_(V.s)	Campo_(kA/m)	Magnetizacion_(A/m)
0.000000e+00	-6.847947e-06	-1.003158e-08	-4.746915e+01	-6.570489e+02
1.000000e-08	-6.844380e-06	-1.002808e-08	-4.744442e+01	-6.568494e+02
2.000000e-08	-6.838635e-06	-1.002198e-08	-4.740460e+01	-6.565289e+02
3.000000e-08	-6.830699e-06	-1.001562e-08	-4.734959e+01	-6.560800e+02
4.000000e-08	-6.820393e-06	-1.000902e-08	-4.727815e+01	-6.555004e+02
5.000000e-08	-6.807553e-06	-9.999322e-09	-4.718914e+01	-6.547946e+02
6.000000e-08	-6.792215e-06	-9.985202e-09	-4.708282e+01	-6.539746e+02
7.000000e-08	-6.774616e-06	-9.970332e-09	-4.696083e+01	-6.530582e+02
8.000000e-08	-6.754890e-06	-9.972714e-09	-4.682409e+01	-6.520670e+02
9.000000e-08	-6.732746e-06	-9.984563e-09	-4.667059e+01	-6.510221e+02
1.000000e-07	-6.707788e-06	-9.958073e-09	-4.649759e+01	-6.499407e+02
1.100000e-07	-6.680078e-06	-9.917060e-09	-4.630550e+01	-6.488332e+02
1.200000e-07	-6.650058e-06	-9.891291e-09	-4.609741e+01	-6.477007e+02
1.300000e-07	-6.617991e-06	-9.839457e-09	-4.587512e+01	-6.465352e+02
1.400000e-07	-6.583998e-06	-9.800904e-09	-4.563948e+01	-6.453206e+02
1.500000e-07	-6.548133e-06	-9.853043e-09	-4.539087e+01	-6.440354e+02
1.600000e-07	-6.510261e-06	-9.827786e-09	-4.512835e+01	-6.426556e+02
1.700000e-07	-6.470258e-06	-9.768117e-09	-4.485106e+01	-6.411581e+02
1.800000e-07	-6.427856e-06	-9.760052e-09	-4.455713e+01	-6.395230e+02
1.900000e-07	-6.382955e-06	-9.686456e-09	-4.424588e+01	-6.377358e+02
2.000000e-07	-6.335718e-06	-9.641547e-09	-4.391844e+01	-6.357876e+02
2.100000e-07	-6.285949e-06	-9.664641e-09	-4.357345e+01	-6.336753e+02
2.200000e-07	-6.233579e-06	-9.686043e-09	-4.321042e+01	-6.314004e+02
2.300000e-07	-6.178746e-06	-9.633274e-09	-4.283033e+01	-6.289686e+02
2.400000e-07	-6.121498e-06	-9.540143e-09	-4.243349e+01	-6.263881e+02
2.500000e-07	-6.061914e-06	-9.489982e-09	-4.202046e+01	-6.236690e+02
2.600000e-07	-6.000135e-06	-9.440748e-09	-4.159222e+01	-6.208222e+02
2.700000e-07	-5.936223e-06	-9.403686e-09	-4.114919e+01	-6.178587e+02
2.800000e-07	-5.870087e-06	-9.395096e-09	-4.069074e+01	-6.147888e+02
2.900000e-07	-5.801744e-06	-9.334501e-09	-4.021700e+01	-6.116204e+02
3.000000e-07	-5.731240e-06	-9.256170e-09	-3.972827e+01	-6.083587e+02
3.100000e-07	-5.658592e-06	-9.216934e-09	-3.922468e+01	-6.050043e+02
3.200000e-07	-5.583750e-06	-9.186728e-09	-3.870589e+01	-6.015533e+02
3.300000e-07	-5.506581e-06	-9.121628e-09	-3.817096e+01	-5.979970e+02
3.400000e-07	-5.427181e-06	-9.045870e-09	-3.762057e+01	-5.943230e+02
3.500000e-07	-5.345745e-06	-8.988877e-09	-3.705606e+01	-5.905168e+02
3.600000e-07	-5.262490e-06	-8.941822e-09	-3.647895e+01	-5.865643e+02
3.700000e-07	-5.177509e-06	-8.901831e-09	-3.588987e+01	-5.824537e+02
3.800000e-07	-5.090761e-06	-8.842243e-09	-3.528855e+01	-5.781778e+02
3.900000e-07	-5.002295e-06	-8.756847e-09	-3.467531e+01	-5.737344e+02
4.000000e-07	-4.912055e-06	-8.654102e-09	-3.404978e+01	-5.691267e+02
4.100000e-07	-4.820033e-06	-8.575039e-09	-3.341189e+01	-5.643612e+02
4.200000e-07	-4.726414e-06	-8.539501e-09	-3.276294e+01	-5.594461e+02
4.300000e-07	-4.631135e-06	-8.488158e-09	-3.210247e+01	-5.543880e+02
4.400000e-07	-4.534128e-06	-8.395509e-09	-3.143003e+01	-5.491905e+02
4.500000e-07	-4.435411e-06	-8.294071e-09	-3.074574e+01	-5.438523e+02
4.600000e-07	-4.335063e-06	-8.196531e-09	-3.005014e+01	-5.383672e+02
4.700000e-07	-4.233281e-06	-8.104897e-09	-2.934460e+01	-5.327255e+02
4.800000e-07	-4.129990e-06	-8.035461e-09	-2.862860e+01	-5.269157e+02
4.900000e-07	-4.025193e-06	-7.961691e-09	-2.790216e+01	-5.209271e+02
5.000000e-07	-3.918942e-06	-7.854909e-09	-2.716564e+01	-5.147517e+02
5.100000e-07	-3.811177e-06	-7.743586e-09	-2.641863e+01	-5.083853e+02
5.200000e-07	-3.702078e-06	-7.653574e-09	-2.566236e+01	-5.018277e+02
5.300000e-07	-3.591774e-06	-7.561510e-09	-2.489774e+01	-4.950807e+02
5.400000e-07	-3.480103e-06	-7.447842e-09	-2.412366e+01	-4.881470e+02
5.500000e-07	-3.367003e-06	-7.328231e-09	-2.333966e+01	-4.810271e+02
5.600000e-07	-3.252437e-06	-7.215432e-09	-2.254551e+01	-4.737175e+02
5.700000e-07	-3.136430e-06	-7.105338e-09	-2.174136e+01	-4.662104e+02
5.800000e-07	-3.019208e-06	-6.998069e-09	-2.092879e+01	-4.584934e+02
5.900000e-07	-2.900908e-06	-6.888618e-09	-2.010875e+01	-4.505513e+02
6.000000e-07	-2.781595e-06	-6.756314e-09	-1.928168e+01	-4.423687e+02
6.100000e-07	-2.661295e-06	-6.608806e-09	-1.844778e+01	-4.339323e+02
6.200000e-07	-2.539970e-06	-6.472423e-09	-1.760677e+01	-4.252325e+02
6.300000e-07	-2.417643e-06	-6.349004e-09	-1.675881e+01	-4.162652e+02
6.400000e-07	-2.294324e-06	-6.216970e-09	-1.590398e+01	-4.070304e+02
6.500000e-07	-2.170065e-06	-6.066277e-09	-1.504263e+01	-3.975314e+02
6.600000e-07	-2.045093e-06	-5.908061e-09	-1.417634e+01	-3.877720e+02
6.700000e-07	-1.919556e-06	-5.749716e-09	-1.330613e+01	-3.777543e+02
6.800000e-07	-1.793435e-06	-5.593980e-09	-1.243187e+01	-3.674762e+02
6.900000e-07	-1.666703e-06	-5.441248e-09	-1.155338e+01	-3.569312e+02
7.000000e-07	-1.539396e-06	-5.280503e-09	-1.067091e+01	-3.461077e+02
7.100000e-07	-1.411567e-06	-5.106026e-09	-9.784811e+00	-3.349904e+02
7.200000e-07	-1.283232e-06	-4.926828e-09	-8.895209e+00	-3.235626e+02
7.300000e-07	-1.154425e-06	-4.747821e-09	-8.002336e+00	-3.118073e+02
7.400000e-07	-1.025234e-06	-4.566516e-09	-7.106799e+00	-2.997092e+02
7.500000e-07	-8.956675e-07	-4.377983e-09	-6.208660e+00	-2.872553e+02
7.600000e-07	-7.657820e-07	-4.180172e-09	-5.308309e+00	-2.744351e+02
7.700000e-07	-6.357096e-07	-3.976094e-09	-4.406662e+00	-2.612391e+02
7.800000e-07	-5.054554e-07	-3.770260e-09	-3.503756e+00	-2.476583e+02
7.900000e-07	-3.750412e-07	-3.561962e-09	-2.599741e+00	-2.336832e+02
8.000000e-07	-2.444840e-07	-3.344880e-09	-1.694734e+00	-2.193026e+02
8.100000e-07	-1.137795e-07	-3.115362e-09	-7.887061e-01	-2.045037e+02
8.200000e-07	1.700986e-08	-2.878100e-09	1.179103e-01	-1.892721e+02
8.300000e-07	1.478478e-07	-2.638220e-09	1.024863e+00	-1.735919e+02
8.400000e-07	2.786655e-07	-2.395515e-09	1.931676e+00	-1.574457e+02
8.500000e-07	4.093470e-07	-2.147658e-09	2.837545e+00	-1.408140e+02
8.600000e-07	5.399000e-07	-1.888561e-09	3.742522e+00	-1.236745e+02
8.700000e-07	6.702976e-07	-1.615693e-09	4.646423e+00	-1.060009e+02
8.800000e-07	8.004629e-07	-1.332050e-09	5.548713e+00	-8.776331e+01
8.900000e-07	9.304157e-07	-1.044792e-09	6.449530e+00	-6.892894e+01
9.000000e-07	1.060155e-06	-7.510473e-10	7.348864e+00	-4.946576e+01
9.100000e-07	1.189565e-06	-4.437835e-10	8.245920e+00	-2.934773e+01
9.200000e-07	1.318526e-06	-1.239158e-10	9.139867e+00	-8.562177e+00
9.300000e-07	1.446979e-06	2.064105e-10	1.003028e+01	1.288205e+01
9.400000e-07	1.574818e-06	5.432872e-10	1.091645e+01	3.494677e+01
9.500000e-07	1.701994e-06	8.870093e-10	1.179802e+01	5.755881e+01
9.600000e-07	1.828581e-06	1.237710e-09	1.267550e+01	8.060791e+01
9.700000e-07	1.954571e-06	1.593574e-09	1.354885e+01	1.039492e+02
9.800000e-07	2.079887e-06	1.951873e-09	1.441753e+01	1.274103e+02
9.900000e-07	2.204575e-06	2.309169e-09	1.528185e+01	1.508030e+02
1.000000e-06	2.328565e-06	2.661196e-09	1.614134e+01	1.739371e+02
1.010000e-06	2.451619e-06	3.004812e-09	1.699433e+01	1.966348e+02
1.020000e-06	2.573693e-06	3.340500e-09	1.784053e+01	2.187440e+02
1.030000e-06	2.694831e-06	3.667366e-09	1.868025e+01	2.401472e+02
1.040000e-06	2.814877e-06	3.982732e-09	1.951239e+01	2.607662e+02
1.050000e-06	2.933818e-06	4.286286e-09	2.033688e+01	2.805609e+02
1.060000e-06	3.051757e-06	4.577445e-09	2.115441e+01	2.995241e+02
1.070000e-06	3.168631e-06	4.856021e-09	2.196457e+01	3.176729e+02
1.080000e-06	3.284211e-06	5.120781e-09	2.276576e+01	3.350384e+02
1.090000e-06	3.398369e-06	5.371661e-09	2.355708e+01	3.516571e+02
1.100000e-06	3.511176e-06	5.611719e-09	2.433905e+01	3.675632e+02
1.110000e-06	3.622666e-06	5.841383e-09	2.511189e+01	3.827854e+02
1.120000e-06	3.732972e-06	6.059697e-09	2.587651e+01	3.973460e+02
1.130000e-06	3.842124e-06	6.269777e-09	2.663314e+01	4.112629e+02
1.140000e-06	3.950053e-06	6.472266e-09	2.738129e+01	4.245533e+02
1.150000e-06	4.056648e-06	6.665047e-09	2.812020e+01	4.372371e+02
1.160000e-06	4.161680e-06	6.847619e-09	2.884827e+01	4.493394e+02
1.170000e-06	4.265104e-06	7.021272e-09	2.956519e+01	4.608914e+02
1.180000e-06	4.367028e-06	7.190048e-09	3.027171e+01	4.719282e+02
1.190000e-06	4.467526e-06	7.352700e-09	3.096835e+01	4.824870e+02
1.200000e-06	4.566455e-06	7.508240e-09	3.165412e+01	4.926021e+02
1.210000e-06	4.663599e-06	7.656478e-09	3.232751e+01	5.023025e+02
1.220000e-06	4.758951e-06	7.798150e-09	3.298848e+01	5.116083e+02
1.230000e-06	4.852642e-06	7.934919e-09	3.363793e+01	5.205309e+02
1.240000e-06	4.944731e-06	8.067157e-09	3.427628e+01	5.290735e+02
1.250000e-06	5.035156e-06	8.193576e-09	3.490310e+01	5.372337e+02
1.260000e-06	5.123710e-06	8.312338e-09	3.551695e+01	5.450073e+02
1.270000e-06	5.210319e-06	8.424172e-09	3.611731e+01	5.523919e+02
1.280000e-06	5.295113e-06	8.531257e-09	3.670509e+01	5.593894e+02
1.290000e-06	5.378104e-06	8.634806e-09	3.728037e+01	5.660087e+02
1.300000e-06	5.459080e-06	8.731633e-09	3.784169e+01	5.722655e+02
1.310000e-06	5.538018e-06	8.819866e-09	3.838888e+01	5.781818e+02
1.320000e-06	5.615010e-06	8.902962e-09	3.892258e+01	5.837838e+02
1.330000e-06	5.689831e-06	8.983537e-09	3.944123e+01	5.890997e+02
1.340000e-06	5.762377e-06	9.060960e-09	3.994411e+01	5.941573e+02
1.350000e-06	5.832800e-06	9.135141e-09	4.043227e+01	5.989815e+02
1.360000e-06	5.901242e-06	9.205317e-09	4.090670e+01	6.035930e+02
1.370000e-06	5.967536e-06	9.272051e-09	4.136624e+01	6.080074e+02
1.380000e-06	6.031591e-06	9.336339e-09	4.181027e+01	6.122349e+02
1.390000e-06	6.093616e-06	9.398769e-09	4.224022e+01	6.162804e+02
1.400000e-06	6.153710e-06	9.459762e-09	4.265678e+01	6.201450e+02
1.410000e-06	6.211672e-06	9.516600e-09	4.305857e+01	6.238262e+02
1.420000e-06	6.267397e-06	9.568689e-09	4.344485e+01	6.273200e+02
1.430000e-06	6.320870e-06	9.618281e-09	4.381552e+01	6.306220e+02
1.440000e-06	6.371751e-06	9.666629e-09	4.416821e+01	6.337285e+02
1.450000e-06	6.420003e-06	9.711876e-09	4.450269e+01	6.366380e+02
1.460000e-06	6.465913e-06	9.752112e-09	4.482093e+01	6.393517e+02
1.470000e-06	6.509715e-06	9.789062e-09	4.512456e+01	6.418735e+02
1.480000e-06	6.551198e-06	9.822800e-09	4.541212e+01	6.442097e+02
1.490000e-06	6.590167e-06	9.854078e-09	4.568225e+01	6.463684e+02
1.500000e-06	6.626952e-06	9.883367e-09	4.593723e+01	6.483575e+02
1.510000e-06	6.661533e-06	9.911328e-09	4.617695e+01	6.501841e+02
1.520000e-06	6.693634e-06	9.937201e-09	4.639947e+01	6.518532e+02
1.530000e-06	6.723348e-06	9.958993e-09	4.660544e+01	6.533675e+02
1.540000e-06	6.750857e-06	9.979352e-09	4.679613e+01	6.547277e+02
1.550000e-06	6.775894e-06	9.998553e-09	4.696968e+01	6.559335e+02
1.560000e-06	6.798343e-06	1.001459e-08	4.712530e+01	6.569850e+02
1.570000e-06	6.818492e-06	1.002634e-08	4.726497e+01	6.578843e+02
1.580000e-06	6.836252e-06	1.003540e-08	4.738808e+01	6.586365e+02
1.590000e-06	6.851427e-06	1.004401e-08	4.749327e+01	6.592498e+02
1.600000e-06	6.864039e-06	1.005177e-08	4.758070e+01	6.597351e+02
1.610000e-06	6.873968e-06	1.005793e-08	4.764952e+01	6.601040e+02
1.620000e-06	6.881240e-06	1.006382e-08	4.769993e+01	6.603673e+02
1.630000e-06	6.886106e-06	1.006967e-08	4.773366e+01	6.605322e+02
1.640000e-06	6.888571e-06	1.007336e-08	4.775075e+01	6.606013e+02
1.650000e-06	6.888562e-06	1.007414e-08	4.775068e+01	6.605717e+02
1.660000e-06	6.886291e-06	1.006842e-08	4.773494e+01	6.604362e+02
1.670000e-06	6.881878e-06	1.006027e-08	4.770436e+01	6.601853e+02
1.680000e-06	6.875142e-06	1.005334e-08	4.765766e+01	6.598098e+02
1.690000e-06	6.866105e-06	1.004483e-08	4.759502e+01	6.593041e+02
1.700000e-06	6.854842e-06	1.003417e-08	4.751694e+01	6.586687e+02
1.710000e-06	6.841204e-06	1.002609e-08	4.742241e+01	6.579114e+02
1.720000e-06	6.825223e-06	1.002048e-08	4.731162e+01	6.570469e+02
1.730000e-06	6.807119e-06	9.988095e-09	4.718614e+01	6.560951e+02
1.740000e-06	6.786599e-06	9.939783e-09	4.704389e+01	6.550777e+02
1.750000e-06	6.762896e-06	9.934831e-09	4.687958e+01	6.540147e+02
1.760000e-06	6.736025e-06	9.934549e-09	4.669332e+01	6.529207e+02
1.770000e-06	6.706681e-06	9.921998e-09	4.648991e+01	6.518022e+02
1.780000e-06	6.675370e-06	9.952466e-09	4.627286e+01	6.506563e+02
1.790000e-06	6.642564e-06	9.914745e-09	4.604546e+01	6.494715e+02
1.800000e-06	6.608157e-06	9.848644e-09	4.580695e+01	6.482288e+02
1.810000e-06	6.571307e-06	9.865268e-09	4.555151e+01	6.469053e+02
1.820000e-06	6.532000e-06	9.830436e-09	4.527904e+01	6.454771e+02
1.830000e-06	6.490588e-06	9.844321e-09	4.499198e+01	6.439221e+02
1.840000e-06	6.446996e-06	9.873952e-09	4.468980e+01	6.422226e+02
1.850000e-06	6.401211e-06	9.798989e-09	4.437243e+01	6.403664e+02
1.860000e-06	6.353003e-06	9.730488e-09	4.403826e+01	6.383473e+02
1.870000e-06	6.302365e-06	9.632583e-09	4.368724e+01	6.361641e+02
1.880000e-06	6.249274e-06	9.608360e-09	4.331922e+01	6.338204e+02
1.890000e-06	6.193503e-06	9.638102e-09	4.293262e+01	6.313231e+02
1.900000e-06	6.135430e-06	9.622587e-09	4.253007e+01	6.286812e+02
1.910000e-06	6.075067e-06	9.618889e-09	4.211163e+01	6.259053e+02
1.920000e-06	6.012371e-06	9.504806e-09	4.167703e+01	6.230065e+02
1.930000e-06	5.947554e-06	9.403979e-09	4.122773e+01	6.199955e+02
1.940000e-06	5.880543e-06	9.405260e-09	4.076322e+01	6.168819e+02
1.950000e-06	5.811324e-06	9.370868e-09	4.028340e+01	6.136724e+02
1.960000e-06	5.739746e-06	9.328198e-09	3.978723e+01	6.103705e+02
1.970000e-06	5.665951e-06	9.254150e-09	3.927570e+01	6.069748e+02
1.980000e-06	5.589988e-06	9.198948e-09	3.874913e+01	6.034793e+02
1.990000e-06	5.511817e-06	9.159522e-09	3.820725e+01	5.998735e+02
2.000000e-06	5.431600e-06	9.104917e-09	3.765120e+01	5.961440e+02
2.010000e-06	5.349503e-06	9.047973e-09	3.708211e+01	5.922761e+02
2.020000e-06	5.265639e-06	8.960534e-09	3.650078e+01	5.882563e+02
2.030000e-06	5.179779e-06	8.890856e-09	3.590561e+01	5.840748e+02
2.040000e-06	5.091852e-06	8.834650e-09	3.529611e+01	5.797263e+02
2.050000e-06	5.002211e-06	8.800431e-09	3.467473e+01	5.752112e+02
2.060000e-06	4.911070e-06	8.736912e-09	3.404295e+01	5.705342e+02
2.070000e-06	4.818271e-06	8.626640e-09	3.339968e+01	5.657029e+02
2.080000e-06	4.723692e-06	8.524756e-09	3.274407e+01	5.607252e+02
2.090000e-06	4.627428e-06	8.436500e-09	3.207678e+01	5.556065e+02
2.100000e-06	4.529629e-06	8.387792e-09	3.139884e+01	5.503485e+02
2.110000e-06	4.430320e-06	8.343688e-09	3.071045e+01	5.449476e+02
2.120000e-06	4.329466e-06	8.263468e-09	3.001134e+01	5.393960e+02
2.130000e-06	4.226991e-06	8.145590e-09	2.930100e+01	5.336830e+02
2.140000e-06	4.122805e-06	8.029684e-09	2.857879e+01	5.277971e+02
2.150000e-06	4.017147e-06	7.936565e-09	2.784638e+01	5.217285e+02
2.160000e-06	3.910176e-06	7.856667e-09	2.710487e+01	5.154709e+02
2.170000e-06	3.801803e-06	7.775428e-09	2.635364e+01	5.090217e+02
2.180000e-06	3.692062e-06	7.672337e-09	2.559293e+01	5.023818e+02
2.190000e-06	3.580944e-06	7.556244e-09	2.482268e+01	4.955539e+02
2.200000e-06	3.468454e-06	7.442096e-09	2.404291e+01	4.885398e+02
2.210000e-06	3.354634e-06	7.347132e-09	2.325392e+01	4.813386e+02
2.220000e-06	3.239481e-06	7.243104e-09	2.245569e+01	4.739450e+02
2.230000e-06	3.122930e-06	7.110676e-09	2.164777e+01	4.663489e+02
2.240000e-06	3.005101e-06	6.975101e-09	2.083100e+01	4.585367e+02
2.250000e-06	2.886105e-06	6.858001e-09	2.000613e+01	4.504927e+02
2.260000e-06	2.765943e-06	6.748035e-09	1.917318e+01	4.422021e+02
2.270000e-06	2.644758e-06	6.625266e-09	1.833314e+01	4.336529e+02
2.280000e-06	2.522750e-06	6.487750e-09	1.748740e+01	4.248380e+02
2.290000e-06	2.399903e-06	6.336875e-09	1.663584e+01	4.157551e+02
2.300000e-06	2.276161e-06	6.184208e-09	1.577808e+01	4.064059e+02
2.310000e-06	2.151629e-06	6.045164e-09	1.491483e+01	3.967943e+02
2.320000e-06	2.026360e-06	5.917874e-09	1.404649e+01	3.869234e+02
2.330000e-06	1.900430e-06	5.772062e-09	1.317355e+01	3.767939e+02
2.340000e-06	1.773860e-06	5.598787e-09	1.229619e+01	3.664019e+02
2.350000e-06	1.646633e-06	5.417952e-09	1.141426e+01	3.557385e+02
2.360000e-06	1.518771e-06	5.248883e-09	1.052794e+01	3.447904e+02
2.370000e-06	1.390359e-06	5.089910e-09	9.637803e+00	3.335414e+02
2.380000e-06	1.261502e-06	4.924763e-09	8.744578e+00	3.219746e+02
2.390000e-06	1.132276e-06	4.744988e-09	7.848801e+00	3.100734e+02
2.400000e-06	1.002713e-06	4.549302e-09	6.950689e+00	2.978236e+02
2.410000e-06	8.728685e-07	4.350186e-09	6.050620e+00	2.852132e+02
2.420000e-06	7.428086e-07	4.156041e-09	5.149061e+00	2.722323e+02
2.430000e-06	6.125810e-07	3.960454e-09	4.246338e+00	2.588719e+02
2.440000e-06	4.821548e-07	3.749543e-09	3.342239e+00	2.451227e+02
2.450000e-06	3.515355e-07	3.521855e-09	2.436802e+00	2.309746e+02
2.460000e-06	2.207732e-07	3.292638e-09	1.530373e+00	2.164157e+02
2.470000e-06	8.989242e-08	3.069712e-09	6.231235e-01	2.014325e+02
2.480000e-06	-4.102106e-08	2.849296e-09	-2.843531e-01	1.860099e+02
2.490000e-06	-1.719434e-07	2.614785e-09	-1.191891e+00	1.701315e+02
2.500000e-06	-3.028105e-07	2.357280e-09	-2.099046e+00	1.537791e+02
2.510000e-06	-4.335878e-07	2.085548e-09	-3.005578e+00	1.369321e+02
2.520000e-06	-5.642746e-07	1.814675e-09	-3.911484e+00	1.195664e+02
2.530000e-06	-6.948106e-07	1.549092e-09	-4.816344e+00	1.016543e+02
2.540000e-06	-8.251661e-07	1.275077e-09	-5.719953e+00	8.316431e+01
2.550000e-06	-9.552192e-07	9.835132e-10	-6.621465e+00	6.406348e+01
2.560000e-06	-1.084874e-06	6.778215e-10	-7.520215e+00	4.432156e+01
2.570000e-06	-1.214221e-06	3.674094e-10	-8.416836e+00	2.391724e+01
2.580000e-06	-1.343259e-06	5.377128e-11	-9.311309e+00	2.846078e+00
2.590000e-06	-1.471798e-06	-2.704274e-10	-1.020233e+01	-1.887138e+01
2.600000e-06	-1.599776e-06	-6.115931e-10	-1.108945e+01	-4.118248e+01
2.610000e-06	-1.727095e-06	-9.678652e-10	-1.197201e+01	-6.399816e+01
2.620000e-06	-1.853699e-06	-1.328138e-09	-1.284962e+01	-8.719272e+01
2.630000e-06	-1.979699e-06	-1.681354e-09	-1.372304e+01	-1.106084e+02
2.640000e-06	-2.104865e-06	-2.029766e-09	-1.459067e+01	-1.340644e+02
2.650000e-06	-2.229062e-06	-2.383939e-09	-1.545159e+01	-1.573698e+02
2.660000e-06	-2.352391e-06	-2.741910e-09	-1.630650e+01	-1.803381e+02
2.670000e-06	-2.474819e-06	-3.090808e-09	-1.715515e+01	-2.028011e+02
2.680000e-06	-2.596364e-06	-3.422629e-09	-1.799768e+01	-2.246206e+02
2.690000e-06	-2.717015e-06	-3.738275e-09	-1.883402e+01	-2.456956e+02
2.700000e-06	-2.836623e-06	-4.041663e-09	-1.966313e+01	-2.659648e+02
2.710000e-06	-2.955156e-06	-4.337229e-09	-2.048479e+01	-2.854031e+02
2.720000e-06	-3.072547e-06	-4.626043e-09	-2.129853e+01	-3.040148e+02
2.730000e-06	-3.188650e-06	-4.901753e-09	-2.210334e+01	-3.218243e+02
2.740000e-06	-3.303452e-06	-5.161002e-09	-2.289913e+01	-3.388660e+02
2.750000e-06	-3.416906e-06	-5.408711e-09	-2.368558e+01	-3.551760e+02
2.760000e-06	-3.528971e-06	-5.649594e-09	-2.446240e+01	-3.707866e+02
2.770000e-06	-3.639617e-06	-5.882899e-09	-2.522939e+01	-3.857236e+02
2.780000e-06	-3.748958e-06	-6.103704e-09	-2.598733e+01	-4.000069e+02
2.790000e-06	-3.857146e-06	-6.310668e-09	-2.673727e+01	-4.136538e+02
2.800000e-06	-3.964126e-06	-6.507210e-09	-2.747885e+01	-4.266822e+02
2.810000e-06	-4.069786e-06	-6.698536e-09	-2.821127e+01	-4.391141e+02
2.820000e-06	-4.173984e-06	-6.885383e-09	-2.893356e+01	-4.509771e+02
2.830000e-06	-4.276634e-06	-7.062362e-09	-2.964512e+01	-4.623045e+02
2.840000e-06	-4.377636e-06	-7.226419e-09	-3.034525e+01	-4.731327e+02
2.850000e-06	-4.477053e-06	-7.379845e-09	-3.103439e+01	-4.834980e+02
2.860000e-06	-4.575036e-06	-7.529511e-09	-3.171360e+01	-4.934331e+02
2.870000e-06	-4.671516e-06	-7.675923e-09	-3.238239e+01	-5.029630e+02
2.880000e-06	-4.766254e-06	-7.814972e-09	-3.303910e+01	-5.121045e+02
2.890000e-06	-4.859145e-06	-7.946269e-09	-3.368301e+01	-5.208649e+02
2.900000e-06	-4.950341e-06	-8.070434e-09	-3.431517e+01	-5.292447e+02
2.910000e-06	-5.039839e-06	-8.189955e-09	-3.493556e+01	-5.372405e+02
2.920000e-06	-5.127455e-06	-8.306263e-09	-3.554290e+01	-5.448482e+02
2.930000e-06	-5.213080e-06	-8.418551e-09	-3.613644e+01	-5.520669e+02
2.940000e-06	-5.296815e-06	-8.523844e-09	-3.671689e+01	-5.589016e+02
