# Temperatura_=_74.6
# Concentracion g/m^3_=_15000.0
# C_Vs_to_Am_M_A/Vsm_=_65563218390.804596
# pendiente_HvsI_1/m_=_3716.3
# ordenada_HvsI_A/m_=_1297.0
# frecuencia_Hz_=_301975.68950494076

Tiempo_(s)	Campo_(V.s)	Magnetizacion_(V.s)	Campo_(kA/m)	Magnetizacion_(A/m)
0.000000e+00	-6.881967e-06	-1.215570e-08	-4.745980e+01	-7.963584e+02
1.000000e-08	-6.878026e-06	-1.215204e-08	-4.743263e+01	-7.960734e+02
2.000000e-08	-6.871926e-06	-1.214289e-08	-4.739055e+01	-7.956425e+02
3.000000e-08	-6.863669e-06	-1.213494e-08	-4.733361e+01	-7.950484e+02
4.000000e-08	-6.853018e-06	-1.212168e-08	-4.726016e+01	-7.942791e+02
5.000000e-08	-6.839820e-06	-1.210456e-08	-4.716914e+01	-7.933332e+02
6.000000e-08	-6.824201e-06	-1.207874e-08	-4.706143e+01	-7.922220e+02
7.000000e-08	-6.806329e-06	-1.205115e-08	-4.693818e+01	-7.909695e+02
8.000000e-08	-6.786239e-06	-1.209821e-08	-4.679964e+01	-7.896090e+02
9.000000e-08	-6.763588e-06	-1.213183e-08	-4.664343e+01	-7.881775e+02
1.000000e-07	-6.738089e-06	-1.204883e-08	-4.646758e+01	-7.867084e+02
1.100000e-07	-6.709949e-06	-1.198824e-08	-4.627352e+01	-7.852246e+02
1.200000e-07	-6.679567e-06	-1.196791e-08	-4.606400e+01	-7.837328e+02
1.300000e-07	-6.647228e-06	-1.185182e-08	-4.584098e+01	-7.822213e+02
1.400000e-07	-6.613013e-06	-1.181458e-08	-4.560502e+01	-7.806605e+02
1.500000e-07	-6.576852e-06	-1.199552e-08	-4.535565e+01	-7.790077e+02
1.600000e-07	-6.538566e-06	-1.184563e-08	-4.509162e+01	-7.772131e+02
1.700000e-07	-6.498132e-06	-1.179091e-08	-4.481278e+01	-7.752281e+02
1.800000e-07	-6.455233e-06	-1.188060e-08	-4.451693e+01	-7.730127e+02
1.900000e-07	-6.409785e-06	-1.168653e-08	-4.420351e+01	-7.705416e+02
2.000000e-07	-6.362050e-06	-1.168130e-08	-4.387432e+01	-7.678064e+02
2.100000e-07	-6.311684e-06	-1.165224e-08	-4.352698e+01	-7.648156e+02
2.200000e-07	-6.258647e-06	-1.159307e-08	-4.316123e+01	-7.615913e+02
2.300000e-07	-6.203255e-06	-1.157072e-08	-4.277923e+01	-7.581635e+02
2.400000e-07	-6.145485e-06	-1.148862e-08	-4.238084e+01	-7.545635e+02
2.500000e-07	-6.085395e-06	-1.148310e-08	-4.196643e+01	-7.508185e+02
2.600000e-07	-6.023168e-06	-1.140516e-08	-4.153730e+01	-7.469464e+02
2.700000e-07	-5.958756e-06	-1.130696e-08	-4.109310e+01	-7.429544e+02
2.800000e-07	-5.892065e-06	-1.126007e-08	-4.063318e+01	-7.388392e+02
2.900000e-07	-5.823130e-06	-1.121541e-08	-4.015779e+01	-7.345898e+02
3.000000e-07	-5.752077e-06	-1.117040e-08	-3.966779e+01	-7.301908e+02
3.100000e-07	-5.678828e-06	-1.105537e-08	-3.916265e+01	-7.256275e+02
3.200000e-07	-5.603228e-06	-1.100363e-08	-3.864129e+01	-7.208885e+02
3.300000e-07	-5.525381e-06	-1.091837e-08	-3.810443e+01	-7.159684e+02
3.400000e-07	-5.445342e-06	-1.081034e-08	-3.755247e+01	-7.108676e+02
3.500000e-07	-5.363274e-06	-1.075647e-08	-3.698651e+01	-7.055914e+02
3.600000e-07	-5.279443e-06	-1.069169e-08	-3.640838e+01	-7.001470e+02
3.700000e-07	-5.193883e-06	-1.062235e-08	-3.581834e+01	-6.945409e+02
3.800000e-07	-5.106558e-06	-1.050871e-08	-3.521613e+01	-6.887764e+02
3.900000e-07	-5.017391e-06	-1.042439e-08	-3.460121e+01	-6.828521e+02
4.000000e-07	-4.926394e-06	-1.032690e-08	-3.397367e+01	-6.767614e+02
4.100000e-07	-4.833707e-06	-1.022000e-08	-3.333447e+01	-6.704943e+02
4.200000e-07	-4.739453e-06	-1.013144e-08	-3.268448e+01	-6.640394e+02
4.300000e-07	-4.643532e-06	-1.004057e-08	-3.202298e+01	-6.573861e+02
4.400000e-07	-4.545815e-06	-9.945894e-09	-3.134910e+01	-6.505269e+02
4.500000e-07	-4.446398e-06	-9.830619e-09	-3.066349e+01	-6.434590e+02
4.600000e-07	-4.345429e-06	-9.718190e-09	-2.996719e+01	-6.361836e+02
4.700000e-07	-4.242965e-06	-9.595353e-09	-2.926057e+01	-6.287049e+02
4.800000e-07	-4.139012e-06	-9.472464e-09	-2.854369e+01	-6.210282e+02
4.900000e-07	-4.033542e-06	-9.351961e-09	-2.781634e+01	-6.131572e+02
5.000000e-07	-3.926518e-06	-9.233384e-09	-2.707827e+01	-6.050923e+02
5.100000e-07	-3.818040e-06	-9.110875e-09	-2.633018e+01	-5.968289e+02
5.200000e-07	-3.708263e-06	-8.983852e-09	-2.557313e+01	-5.883582e+02
5.300000e-07	-3.597243e-06	-8.851249e-09	-2.480751e+01	-5.796679e+02
5.400000e-07	-3.484808e-06	-8.708758e-09	-2.403213e+01	-5.707448e+02
5.500000e-07	-3.370846e-06	-8.569484e-09	-2.324622e+01	-5.615770e+02
5.600000e-07	-3.255397e-06	-8.427384e-09	-2.245005e+01	-5.521560e+02
5.700000e-07	-3.138597e-06	-8.279404e-09	-2.164457e+01	-5.424780e+02
5.800000e-07	-3.020615e-06	-8.123833e-09	-2.083093e+01	-5.325431e+02
5.900000e-07	-2.901581e-06	-7.968634e-09	-2.001005e+01	-5.223546e+02
6.000000e-07	-2.781539e-06	-7.808894e-09	-1.918220e+01	-5.119159e+02
6.100000e-07	-2.660446e-06	-7.642713e-09	-1.834712e+01	-5.012280e+02
6.200000e-07	-2.538298e-06	-7.476042e-09	-1.750475e+01	-4.902879e+02
6.300000e-07	-2.415108e-06	-7.311103e-09	-1.665520e+01	-4.790867e+02
6.400000e-07	-2.291009e-06	-7.139750e-09	-1.579938e+01	-4.676105e+02
6.500000e-07	-2.166146e-06	-6.958137e-09	-1.493829e+01	-4.558418e+02
6.600000e-07	-2.040620e-06	-6.772105e-09	-1.407264e+01	-4.437627e+02
6.700000e-07	-1.914505e-06	-6.579061e-09	-1.320291e+01	-4.313574e+02
6.800000e-07	-1.787780e-06	-6.381318e-09	-1.232899e+01	-4.186147e+02
6.900000e-07	-1.660349e-06	-6.181060e-09	-1.145019e+01	-4.055291e+02
7.000000e-07	-1.532212e-06	-5.978539e-09	-1.056652e+01	-3.921000e+02
7.100000e-07	-1.403578e-06	-5.768213e-09	-9.679432e+00	-3.783296e+02
7.200000e-07	-1.274541e-06	-5.549886e-09	-8.789563e+00	-3.642190e+02
7.300000e-07	-1.145075e-06	-5.327436e-09	-7.896729e+00	-3.497649e+02
7.400000e-07	-1.015256e-06	-5.102346e-09	-7.001461e+00	-3.349561e+02
7.500000e-07	-8.851431e-07	-4.873706e-09	-6.104173e+00	-3.197719e+02
7.600000e-07	-7.547001e-07	-4.637788e-09	-5.204604e+00	-3.041834e+02
7.700000e-07	-6.239250e-07	-4.393457e-09	-4.302746e+00	-2.881548e+02
7.800000e-07	-4.929396e-07	-4.141874e-09	-3.399438e+00	-2.716485e+02
7.900000e-07	-3.617894e-07	-3.885520e-09	-2.494992e+00	-2.546286e+02
8.000000e-07	-2.304205e-07	-3.618787e-09	-1.589038e+00	-2.370645e+02
8.100000e-07	-9.887442e-08	-3.340223e-09	-6.818633e-01	-2.189327e+02
8.200000e-07	3.277482e-08	-3.053900e-09	2.260235e-01	-2.002155e+02
8.300000e-07	1.644874e-07	-2.757794e-09	1.134347e+00	-1.808979e+02
8.400000e-07	2.961712e-07	-2.451175e-09	2.042472e+00	-1.609627e+02
8.500000e-07	4.277191e-07	-2.136238e-09	2.949660e+00	-1.403855e+02
8.600000e-07	5.590760e-07	-1.812582e-09	3.855531e+00	-1.191310e+02
8.700000e-07	6.902866e-07	-1.476446e-09	4.760393e+00	-9.715276e+01
8.800000e-07	8.212367e-07	-1.126339e-09	5.663458e+00	-7.439713e+01
8.900000e-07	9.517980e-07	-7.655246e-10	6.563842e+00	-5.081096e+01
9.000000e-07	1.081996e-06	-3.955957e-10	7.461720e+00	-2.635343e+01
9.100000e-07	1.211804e-06	-1.086639e-11	8.356912e+00	-1.009227e+00
9.200000e-07	1.341241e-06	3.897395e-10	9.249539e+00	2.519862e+01
9.300000e-07	1.470331e-06	8.028340e-10	1.013977e+01	5.219918e+01
9.400000e-07	1.598933e-06	1.225525e-09	1.102665e+01	7.986916e+01
9.500000e-07	1.726835e-06	1.656944e-09	1.190870e+01	1.080351e+02
9.600000e-07	1.853966e-06	2.092383e-09	1.278542e+01	1.364821e+02
9.700000e-07	1.980426e-06	2.526287e-09	1.365753e+01	1.649683e+02
9.800000e-07	2.106274e-06	2.958113e-09	1.452540e+01	1.932433e+02
9.900000e-07	2.231437e-06	3.381497e-09	1.538856e+01	2.210668e+02
1.000000e-06	2.355905e-06	3.791994e-09	1.624692e+01	2.482261e+02
1.010000e-06	2.479496e-06	4.190007e-09	1.709924e+01	2.745491e+02
1.020000e-06	2.602023e-06	4.575922e-09	1.794422e+01	2.999114e+02
1.030000e-06	2.723615e-06	4.948580e-09	1.878274e+01	3.242379e+02
1.040000e-06	2.844239e-06	5.303138e-09	1.961459e+01	3.474980e+02
1.050000e-06	2.963697e-06	5.641100e-09	2.043841e+01	3.696975e+02
1.060000e-06	3.082053e-06	5.965177e-09	2.125463e+01	3.908679e+02
1.070000e-06	3.199366e-06	6.275485e-09	2.206365e+01	4.110560e+02
1.080000e-06	3.315542e-06	6.572003e-09	2.286483e+01	4.303150e+02
1.090000e-06	3.430332e-06	6.853488e-09	2.365644e+01	4.486979e+02
1.100000e-06	3.543679e-06	7.119710e-09	2.443812e+01	4.662540e+02
1.110000e-06	3.655627e-06	7.370343e-09	2.521014e+01	4.830279e+02
1.120000e-06	3.766236e-06	7.610182e-09	2.597292e+01	4.990602e+02
1.130000e-06	3.875643e-06	7.842252e-09	2.672742e+01	5.143887e+02
1.140000e-06	3.983872e-06	8.067597e-09	2.747380e+01	5.290494e+02
1.150000e-06	4.090773e-06	8.284262e-09	2.821101e+01	5.430777e+02
1.160000e-06	4.196196e-06	8.489124e-09	2.893804e+01	5.565079e+02
1.170000e-06	4.300040e-06	8.683533e-09	2.965417e+01	5.693725e+02
1.180000e-06	4.402301e-06	8.869895e-09	3.035939e+01	5.817019e+02
1.190000e-06	4.503149e-06	9.048857e-09	3.105486e+01	5.935234e+02
1.200000e-06	4.602440e-06	9.219557e-09	3.173960e+01	6.048615e+02
1.210000e-06	4.699942e-06	9.382753e-09	3.241200e+01	6.157384e+02
1.220000e-06	4.795604e-06	9.542123e-09	3.307171e+01	6.261745e+02
1.230000e-06	4.889548e-06	9.696486e-09	3.371957e+01	6.361894e+02
1.240000e-06	4.981893e-06	9.844923e-09	3.435641e+01	6.458017e+02
1.250000e-06	5.072511e-06	9.987448e-09	3.498133e+01	6.550290e+02
1.260000e-06	5.161212e-06	1.012490e-08	3.559304e+01	6.638865e+02
1.270000e-06	5.248025e-06	1.025655e-08	3.619172e+01	6.723859e+02
1.280000e-06	5.333044e-06	1.038156e-08	3.677803e+01	6.805346e+02
1.290000e-06	5.416194e-06	1.050327e-08	3.735146e+01	6.883349e+02
1.300000e-06	5.497278e-06	1.061782e-08	3.791063e+01	6.957852e+02
1.310000e-06	5.576325e-06	1.072466e-08	3.845576e+01	7.028819e+02
1.320000e-06	5.653403e-06	1.082638e-08	3.898731e+01	7.096219e+02
1.330000e-06	5.728321e-06	1.092511e-08	3.950397e+01	7.160063e+02
1.340000e-06	5.800945e-06	1.101935e-08	4.000479e+01	7.220426e+02
1.350000e-06	5.871448e-06	1.110597e-08	4.049100e+01	7.277463e+02
1.360000e-06	5.939974e-06	1.118750e-08	4.096358e+01	7.331407e+02
1.370000e-06	6.006406e-06	1.126518e-08	4.142171e+01	7.382548e+02
1.380000e-06	6.070634e-06	1.133906e-08	4.186464e+01	7.431199e+02
1.390000e-06	6.132736e-06	1.141029e-08	4.229291e+01	7.477650e+02
1.400000e-06	6.192844e-06	1.148000e-08	4.270744e+01	7.522132e+02
1.410000e-06	6.250808e-06	1.154675e-08	4.310716e+01	7.564788e+02
1.420000e-06	6.306459e-06	1.160871e-08	4.349095e+01	7.605660e+02
1.430000e-06	6.359869e-06	1.166774e-08	4.385928e+01	7.644701e+02
1.440000e-06	6.410752e-06	1.172542e-08	4.421018e+01	7.681805e+02
1.450000e-06	6.458940e-06	1.177993e-08	4.454250e+01	7.716843e+02
1.460000e-06	6.504801e-06	1.182856e-08	4.485877e+01	7.749707e+02
1.470000e-06	6.548569e-06	1.187394e-08	4.516060e+01	7.780339e+02
1.480000e-06	6.589997e-06	1.191711e-08	4.544630e+01	7.808745e+02
1.490000e-06	6.628932e-06	1.195804e-08	4.571481e+01	7.834996e+02
1.500000e-06	6.665682e-06	1.199621e-08	4.596824e+01	7.859203e+02
1.510000e-06	6.700175e-06	1.203105e-08	4.620612e+01	7.881487e+02
1.520000e-06	6.732134e-06	1.206266e-08	4.642651e+01	7.901947e+02
1.530000e-06	6.761743e-06	1.209049e-08	4.663071e+01	7.920636e+02
1.540000e-06	6.789112e-06	1.211543e-08	4.681945e+01	7.937551e+02
1.550000e-06	6.813901e-06	1.213688e-08	4.699040e+01	7.952646e+02
1.560000e-06	6.836085e-06	1.215422e-08	4.714339e+01	7.965850e+02
1.570000e-06	6.855973e-06	1.216777e-08	4.728054e+01	7.977110e+02
1.580000e-06	6.873461e-06	1.217934e-08	4.740114e+01	7.986414e+02
1.590000e-06	6.888405e-06	1.219130e-08	4.750420e+01	7.993817e+02
1.600000e-06	6.900787e-06	1.220272e-08	4.758959e+01	7.999441e+02
1.610000e-06	6.910424e-06	1.221084e-08	4.765605e+01	8.003462e+02
1.620000e-06	6.917382e-06	1.221675e-08	4.770403e+01	8.006070e+02
1.630000e-06	6.921981e-06	1.222137e-08	4.773575e+01	8.007433e+02
1.640000e-06	6.924156e-06	1.222465e-08	4.775075e+01	8.007656e+02
1.650000e-06	6.923881e-06	1.222520e-08	4.774885e+01	8.006753e+02
1.660000e-06	6.921370e-06	1.221121e-08	4.773153e+01	8.004645e+02
1.670000e-06	6.916590e-06	1.220146e-08	4.769857e+01	8.001182e+02
1.680000e-06	6.909376e-06	1.219370e-08	4.764882e+01	7.996182e+02
1.690000e-06	6.899853e-06	1.218427e-08	4.758315e+01	7.989489e+02
1.700000e-06	6.888206e-06	1.217480e-08	4.750282e+01	7.981023e+02
1.710000e-06	6.874190e-06	1.217145e-08	4.740617e+01	7.970823e+02
1.720000e-06	6.857859e-06	1.218011e-08	4.729354e+01	7.959059e+02
1.730000e-06	6.839467e-06	1.208757e-08	4.716671e+01	7.946015e+02
1.740000e-06	6.818502e-06	1.200719e-08	4.702213e+01	7.932051e+02
1.750000e-06	6.794164e-06	1.204975e-08	4.685429e+01	7.917528e+02
1.760000e-06	6.766761e-06	1.203211e-08	4.666531e+01	7.902744e+02
1.770000e-06	6.736962e-06	1.202062e-08	4.645981e+01	7.887863e+02
1.780000e-06	6.705234e-06	1.214561e-08	4.624100e+01	7.872875e+02
1.790000e-06	6.672141e-06	1.198598e-08	4.601279e+01	7.857583e+02
1.800000e-06	6.637347e-06	1.186955e-08	4.577284e+01	7.841629e+02
1.810000e-06	6.599946e-06	1.200430e-08	4.551491e+01	7.824544e+02
1.820000e-06	6.560178e-06	1.183646e-08	4.524066e+01	7.805827e+02
1.830000e-06	6.518325e-06	1.192458e-08	4.495203e+01	7.785021e+02
1.840000e-06	6.474166e-06	1.193041e-08	4.464750e+01	7.761782e+02
1.850000e-06	6.427752e-06	1.173949e-08	4.432742e+01	7.735927e+02
1.860000e-06	6.378860e-06	1.183033e-08	4.399024e+01	7.707450e+02
1.870000e-06	6.327588e-06	1.165435e-08	4.363666e+01	7.676497e+02
1.880000e-06	6.273870e-06	1.164733e-08	4.326621e+01	7.643332e+02
1.890000e-06	6.217541e-06	1.163703e-08	4.287775e+01	7.608269e+02
1.900000e-06	6.158954e-06	1.148057e-08	4.247372e+01	7.571608e+02
1.910000e-06	6.097984e-06	1.156422e-08	4.205325e+01	7.533586e+02
1.920000e-06	6.034663e-06	1.140864e-08	4.161658e+01	7.494338e+02
1.930000e-06	5.969242e-06	1.136676e-08	4.116541e+01	7.453889e+02
1.940000e-06	5.901682e-06	1.131907e-08	4.069951e+01	7.412168e+02
1.950000e-06	5.831860e-06	1.120527e-08	4.021799e+01	7.369042e+02
1.960000e-06	5.759591e-06	1.118929e-08	3.971961e+01	7.324354e+02
1.970000e-06	5.685169e-06	1.103582e-08	3.920638e+01	7.277968e+02
1.980000e-06	5.608523e-06	1.106127e-08	3.867781e+01	7.229794e+02
1.990000e-06	5.529531e-06	1.097105e-08	3.813306e+01	7.179804e+02
2.000000e-06	5.448578e-06	1.086487e-08	3.757479e+01	7.128025e+02
2.010000e-06	5.365871e-06	1.079523e-08	3.700441e+01	7.074522e+02
2.020000e-06	5.281335e-06	1.067738e-08	3.642144e+01	7.019368e+02
2.030000e-06	5.194694e-06	1.062537e-08	3.582394e+01	6.962616e+02
2.040000e-06	5.106103e-06	1.051264e-08	3.521299e+01	6.904281e+02
2.050000e-06	5.015902e-06	1.047449e-08	3.459094e+01	6.844324e+02
2.060000e-06	4.924156e-06	1.035154e-08	3.395824e+01	6.782664e+02
2.070000e-06	4.830657e-06	1.022659e-08	3.331344e+01	6.719191e+02
2.080000e-06	4.735284e-06	1.011955e-08	3.265573e+01	6.653792e+02
2.090000e-06	4.638329e-06	1.001900e-08	3.198710e+01	6.586373e+02
2.100000e-06	4.539926e-06	9.936147e-09	3.130849e+01	6.516878e+02
2.110000e-06	4.440044e-06	9.810431e-09	3.061968e+01	6.445294e+02
2.120000e-06	4.338517e-06	9.722871e-09	2.991952e+01	6.371652e+02
2.130000e-06	4.235227e-06	9.606286e-09	2.920721e+01	6.295999e+02
2.140000e-06	4.130313e-06	9.491249e-09	2.848369e+01	6.218386e+02
2.150000e-06	4.024057e-06	9.356554e-09	2.775092e+01	6.138837e+02
2.160000e-06	3.916482e-06	9.230535e-09	2.700906e+01	6.057335e+02
2.170000e-06	3.807477e-06	9.098227e-09	2.625733e+01	5.973815e+02
2.180000e-06	3.697049e-06	8.966627e-09	2.549579e+01	5.888172e+02
2.190000e-06	3.585137e-06	8.838581e-09	2.472402e+01	5.800276e+02
2.200000e-06	3.471834e-06	8.703490e-09	2.394266e+01	5.709999e+02
2.210000e-06	3.357215e-06	8.567601e-09	2.315221e+01	5.617233e+02
2.220000e-06	3.241217e-06	8.412620e-09	2.235226e+01	5.521913e+02
2.230000e-06	3.123764e-06	8.264059e-09	2.154227e+01	5.424019e+02
2.240000e-06	3.005024e-06	8.111374e-09	2.072341e+01	5.323568e+02
2.250000e-06	2.885165e-06	7.965964e-09	1.989684e+01	5.220596e+02
2.260000e-06	2.764262e-06	7.805399e-09	1.906306e+01	5.115131e+02
2.270000e-06	2.642434e-06	7.634347e-09	1.822290e+01	5.007167e+02
2.280000e-06	2.519691e-06	7.457942e-09	1.737643e+01	4.896651e+02
2.290000e-06	2.396083e-06	7.283336e-09	1.652400e+01	4.783469e+02
2.300000e-06	2.271631e-06	7.105562e-09	1.566575e+01	4.667465e+02
2.310000e-06	2.146388e-06	6.928392e-09	1.480204e+01	4.548458e+02
2.320000e-06	2.020445e-06	6.751032e-09	1.393351e+01	4.426276e+02
2.330000e-06	1.893763e-06	6.562193e-09	1.305987e+01	4.300776e+02
2.340000e-06	1.766303e-06	6.365573e-09	1.218087e+01	4.171872e+02
2.350000e-06	1.638154e-06	6.161228e-09	1.129713e+01	4.039532e+02
2.360000e-06	1.509479e-06	5.955776e-09	1.040975e+01	3.903765e+02
2.370000e-06	1.380453e-06	5.742707e-09	9.519957e+00	3.764592e+02
2.380000e-06	1.251041e-06	5.525158e-09	8.627496e+00	3.622012e+02
2.390000e-06	1.121203e-06	5.305109e-09	7.732103e+00	3.475959e+02
2.400000e-06	9.910057e-07	5.078041e-09	6.834228e+00	3.326281e+02
2.410000e-06	8.605061e-07	4.842913e-09	5.934270e+00	3.172736e+02
2.420000e-06	7.297681e-07	4.599737e-09	5.032667e+00	3.015000e+02
2.430000e-06	5.988850e-07	4.350658e-09	4.130064e+00	2.852702e+02
2.440000e-06	4.678637e-07	4.094072e-09	3.226507e+00	2.685469e+02
2.450000e-06	3.366918e-07	3.828584e-09	2.321912e+00	2.512960e+02
2.460000e-06	2.053709e-07	3.556196e-09	1.416290e+00	2.334900e+02
2.470000e-06	7.393924e-08	3.277790e-09	5.099039e-01	2.151082e+02
2.480000e-06	-5.751870e-08	2.993846e-09	-3.966636e-01	1.961344e+02
2.490000e-06	-1.889913e-07	2.698063e-09	-1.303332e+00	1.765535e+02
2.500000e-06	-3.204001e-07	2.390315e-09	-2.209561e+00	1.563457e+02
2.510000e-06	-4.516822e-07	2.072660e-09	-3.114916e+00	1.354821e+02
2.520000e-06	-5.828370e-07	1.742850e-09	-4.019393e+00	1.139226e+02
2.530000e-06	-7.138678e-07	1.401867e-09	-4.923014e+00	9.161690e+01
2.540000e-06	-8.447155e-07	1.049580e-09	-5.825374e+00	6.851033e+01
2.550000e-06	-9.752842e-07	6.858372e-10	-6.725809e+00	4.455347e+01
2.560000e-06	-1.105544e-06	3.082173e-10	-7.624110e+00	1.971477e+01
2.570000e-06	-1.235434e-06	-8.346263e-11	-8.519866e+00	-6.006083e+00
2.580000e-06	-1.364858e-06	-4.869466e-10	-9.412412e+00	-3.256644e+01
2.590000e-06	-1.493889e-06	-9.012918e-10	-1.030224e+01	-5.987312e+01
2.600000e-06	-1.622509e-06	-1.326741e-09	-1.118923e+01	-8.778066e+01
2.610000e-06	-1.750528e-06	-1.760955e-09	-1.207209e+01	-1.160964e+02
2.620000e-06	-1.877766e-06	-2.198097e-09	-1.294956e+01	-1.445918e+02
2.630000e-06	-2.004195e-06	-2.632049e-09	-1.382144e+01	-1.730191e+02
2.640000e-06	-2.129922e-06	-3.060978e-09	-1.468849e+01	-2.011299e+02
2.650000e-06	-2.254821e-06	-3.482194e-09	-1.554982e+01	-2.286937e+02
2.660000e-06	-2.378769e-06	-3.891150e-09	-1.640460e+01	-2.555140e+02
2.670000e-06	-2.501775e-06	-4.287637e-09	-1.725288e+01	-2.814387e+02
2.680000e-06	-2.623803e-06	-4.669413e-09	-1.809442e+01	-3.063646e+02
2.690000e-06	-2.744921e-06	-5.035021e-09	-1.892967e+01	-3.302366e+02
2.700000e-06	-2.865014e-06	-5.383930e-09	-1.975787e+01	-3.530407e+02
2.710000e-06	-2.983918e-06	-5.716329e-09	-2.057786e+01	-3.747953e+02
2.720000e-06	-3.101762e-06	-6.031915e-09	-2.139054e+01	-3.955395e+02
2.730000e-06	-3.218388e-06	-6.329355e-09	-2.219482e+01	-4.153239e+02
2.740000e-06	-3.333655e-06	-6.615470e-09	-2.298974e+01	-4.342021e+02
2.750000e-06	-3.447597e-06	-6.893179e-09	-2.377551e+01	-4.522260e+02
2.760000e-06	-3.560172e-06	-7.159886e-09	-2.455185e+01	-4.694427e+02
2.770000e-06	-3.671382e-06	-7.414702e-09	-2.531879e+01	-4.858951e+02
2.780000e-06	-3.781258e-06	-7.657726e-09	-2.607652e+01	-5.016223e+02
2.790000e-06	-3.889912e-06	-7.888397e-09	-2.682583e+01	-5.166613e+02
2.800000e-06	-3.997281e-06	-8.103962e-09	-2.756627e+01	-5.310478e+02
2.810000e-06	-4.103288e-06	-8.308991e-09	-2.829732e+01	-5.448167e+02
2.820000e-06	-4.207837e-06	-8.509784e-09	-2.901832e+01	-5.580017e+02
2.830000e-06	-4.310783e-06	-8.706887e-09	-2.972826e+01	-5.706345e+02
2.840000e-06	-4.412122e-06	-8.895991e-09	-3.042712e+01	-5.827441e+02
2.850000e-06	-4.511893e-06	-9.075488e-09	-3.111516e+01	-5.943567e+02
2.860000e-06	-4.610115e-06	-9.247573e-09	-3.179253e+01	-6.054956e+02
2.870000e-06	-4.706735e-06	-9.413347e-09	-3.245885e+01	-6.161822e+02
2.880000e-06	-4.801694e-06	-9.569949e-09	-3.311371e+01	-6.264365e+02
2.890000e-06	-4.894952e-06	-9.716753e-09	-3.375684e+01	-6.362777e+02
2.900000e-06	-4.986463e-06	-9.856467e-09	-3.438792e+01	-6.457241e+02
2.910000e-06	-5.076214e-06	-9.990462e-09	-3.500687e+01	-6.547922e+02
2.920000e-06	-5.164076e-06	-1.012007e-08	-3.561279e+01	-6.634962e+02
2.930000e-06	-5.249886e-06	-1.024602e-08	-3.620456e+01	-6.718457e+02
2.940000e-06	-5.333776e-06	-1.036860e-08	-3.678308e+01	-6.798462e+02
