# Temperatura_=_52.33
# Concentracion g/m^3_=_15000.0
# C_Vs_to_Am_M_A/Vsm_=_65563218390.804596
# pendiente_HvsI_1/m_=_3716.3
# ordenada_HvsI_A/m_=_1297.0
# frecuencia_Hz_=_301972.83569115703

Tiempo_(s)	Campo_(V.s)	Magnetizacion_(V.s)	Campo_(kA/m)	Magnetizacion_(A/m)
0.000000e+00	-6.853467e-06	-1.037054e-08	-4.747074e+01	-6.793212e+02
1.000000e-08	-6.850021e-06	-1.036876e-08	-4.744687e+01	-6.791010e+02
2.000000e-08	-6.844347e-06	-1.036422e-08	-4.740757e+01	-6.787735e+02
3.000000e-08	-6.836464e-06	-1.035866e-08	-4.735297e+01	-6.783271e+02
4.000000e-08	-6.826202e-06	-1.035084e-08	-4.728189e+01	-6.777504e+02
5.000000e-08	-6.813489e-06	-1.033875e-08	-4.719383e+01	-6.770372e+02
6.000000e-08	-6.798262e-06	-1.032493e-08	-4.708836e+01	-6.761903e+02
7.000000e-08	-6.780734e-06	-1.030892e-08	-4.696695e+01	-6.752231e+02
8.000000e-08	-6.761117e-06	-1.030701e-08	-4.683107e+01	-6.741587e+02
9.000000e-08	-6.739084e-06	-1.033358e-08	-4.667847e+01	-6.730266e+02
1.000000e-07	-6.714216e-06	-1.030924e-08	-4.650622e+01	-6.718569e+02
1.100000e-07	-6.686602e-06	-1.025849e-08	-4.631495e+01	-6.706737e+02
1.200000e-07	-6.656682e-06	-1.023092e-08	-4.610770e+01	-6.694893e+02
1.300000e-07	-6.624768e-06	-1.017968e-08	-4.588665e+01	-6.683001e+02
1.400000e-07	-6.590969e-06	-1.011816e-08	-4.565254e+01	-6.670860e+02
1.500000e-07	-6.555231e-06	-1.018593e-08	-4.540500e+01	-6.658129e+02
1.600000e-07	-6.517426e-06	-1.018067e-08	-4.514314e+01	-6.644386e+02
1.700000e-07	-6.477573e-06	-1.008724e-08	-4.486710e+01	-6.629195e+02
1.800000e-07	-6.435393e-06	-1.012541e-08	-4.457494e+01	-6.612187e+02
1.900000e-07	-6.390676e-06	-1.004536e-08	-4.426520e+01	-6.593116e+02
2.000000e-07	-6.343603e-06	-9.969455e-09	-4.393915e+01	-6.571890e+02
2.100000e-07	-6.293911e-06	-9.987852e-09	-4.359496e+01	-6.548575e+02
2.200000e-07	-6.241497e-06	-9.946507e-09	-4.323191e+01	-6.523363e+02
2.300000e-07	-6.186656e-06	-9.903304e-09	-4.285205e+01	-6.496514e+02
2.400000e-07	-6.129473e-06	-9.855704e-09	-4.245598e+01	-6.468297e+02
2.500000e-07	-6.070040e-06	-9.824798e-09	-4.204431e+01	-6.438933e+02
2.600000e-07	-6.008462e-06	-9.783793e-09	-4.161779e+01	-6.408557e+02
2.700000e-07	-5.944693e-06	-9.720715e-09	-4.117609e+01	-6.377205e+02
2.800000e-07	-5.878634e-06	-9.683993e-09	-4.071853e+01	-6.344827e+02
2.900000e-07	-5.810368e-06	-9.623349e-09	-4.024568e+01	-6.311314e+02
3.000000e-07	-5.739982e-06	-9.575787e-09	-3.975816e+01	-6.276545e+02
3.100000e-07	-5.667375e-06	-9.521395e-09	-3.925524e+01	-6.240415e+02
3.200000e-07	-5.592494e-06	-9.458598e-09	-3.873658e+01	-6.202868e+02
3.300000e-07	-5.515351e-06	-9.405326e-09	-3.820224e+01	-6.163895e+02
3.400000e-07	-5.436030e-06	-9.323338e-09	-3.765282e+01	-6.123530e+02
3.500000e-07	-5.354637e-06	-9.262285e-09	-3.708905e+01	-6.081824e+02
3.600000e-07	-5.271407e-06	-9.211823e-09	-3.651256e+01	-6.038817e+02
3.700000e-07	-5.186457e-06	-9.157535e-09	-3.592415e+01	-5.994516e+02
3.800000e-07	-5.099716e-06	-9.087416e-09	-3.532333e+01	-5.948881e+02
3.900000e-07	-5.011229e-06	-9.013721e-09	-3.471042e+01	-5.901834e+02
4.000000e-07	-4.920950e-06	-8.935547e-09	-3.408510e+01	-5.853268e+02
4.100000e-07	-4.828909e-06	-8.847086e-09	-3.344758e+01	-5.803073e+02
4.200000e-07	-4.735270e-06	-8.776855e-09	-3.279899e+01	-5.751165e+02
4.300000e-07	-4.640010e-06	-8.700366e-09	-3.213916e+01	-5.697497e+02
4.400000e-07	-4.543008e-06	-8.614301e-09	-3.146728e+01	-5.642069e+02
4.500000e-07	-4.444231e-06	-8.527653e-09	-3.078310e+01	-5.584922e+02
4.600000e-07	-4.343945e-06	-8.437142e-09	-3.008846e+01	-5.526118e+02
4.700000e-07	-4.242227e-06	-8.343244e-09	-2.938391e+01	-5.465716e+02
4.800000e-07	-4.138955e-06	-8.247421e-09	-2.866859e+01	-5.403753e+02
4.900000e-07	-4.034222e-06	-8.149026e-09	-2.794316e+01	-5.340224e+02
5.000000e-07	-3.927983e-06	-8.043593e-09	-2.720729e+01	-5.275081e+02
5.100000e-07	-3.820215e-06	-7.941025e-09	-2.646083e+01	-5.208234e+02
5.200000e-07	-3.711125e-06	-7.842264e-09	-2.570522e+01	-5.139570e+02
5.300000e-07	-3.600819e-06	-7.737621e-09	-2.494118e+01	-5.068970e+02
5.400000e-07	-3.489155e-06	-7.623896e-09	-2.416774e+01	-4.996322e+02
5.500000e-07	-3.376029e-06	-7.507478e-09	-2.338416e+01	-4.921542e+02
5.600000e-07	-3.261387e-06	-7.391067e-09	-2.259009e+01	-4.844567e+02
5.700000e-07	-3.145314e-06	-7.268644e-09	-2.178611e+01	-4.765354e+02
5.800000e-07	-3.028035e-06	-7.143943e-09	-2.097377e+01	-4.683871e+02
5.900000e-07	-2.909646e-06	-7.017884e-09	-2.015375e+01	-4.600086e+02
6.000000e-07	-2.790207e-06	-6.884757e-09	-1.932645e+01	-4.513954e+02
6.100000e-07	-2.669800e-06	-6.744481e-09	-1.849245e+01	-4.425417e+02
6.200000e-07	-2.548435e-06	-6.604716e-09	-1.765181e+01	-4.334407e+02
6.300000e-07	-2.426026e-06	-6.466933e-09	-1.680394e+01	-4.240853e+02
6.400000e-07	-2.302560e-06	-6.322282e-09	-1.594875e+01	-4.144690e+02
6.500000e-07	-2.178235e-06	-6.170153e-09	-1.508761e+01	-4.045864e+02
6.600000e-07	-2.053267e-06	-6.014207e-09	-1.422201e+01	-3.944340e+02
6.700000e-07	-1.927689e-06	-5.852630e-09	-1.335219e+01	-3.840091e+02
6.800000e-07	-1.801509e-06	-5.685176e-09	-1.247820e+01	-3.733093e+02
6.900000e-07	-1.674685e-06	-5.516954e-09	-1.159975e+01	-3.623309e+02
7.000000e-07	-1.547187e-06	-5.345700e-09	-1.071664e+01	-3.510676e+02
7.100000e-07	-1.419157e-06	-5.166575e-09	-9.829835e+00	-3.395096e+02
7.200000e-07	-1.290697e-06	-4.984184e-09	-8.940050e+00	-3.276435e+02
7.300000e-07	-1.161868e-06	-4.800152e-09	-8.047713e+00	-3.154524e+02
7.400000e-07	-1.032717e-06	-4.612318e-09	-7.153145e+00	-3.029176e+02
7.500000e-07	-9.032098e-07	-4.417231e-09	-6.256109e+00	-2.900197e+02
7.600000e-07	-7.733640e-07	-4.214544e-09	-5.356729e+00	-2.767402e+02
7.700000e-07	-6.432112e-07	-4.004719e-09	-4.455221e+00	-2.630626e+02
7.800000e-07	-5.127668e-07	-3.789287e-09	-3.551694e+00	-2.489730e+02
7.900000e-07	-3.820871e-07	-3.569758e-09	-2.646538e+00	-2.344593e+02
8.000000e-07	-2.512821e-07	-3.342633e-09	-1.740513e+00	-2.195106e+02
8.100000e-07	-1.203910e-07	-3.107015e-09	-8.338918e-01	-2.041149e+02
8.200000e-07	1.062476e-08	-2.864857e-09	7.359269e-02	-1.882581e+02
8.300000e-07	1.417214e-07	-2.616693e-09	9.816378e-01	-1.719212e+02
8.400000e-07	2.727656e-07	-2.361657e-09	1.889319e+00	-1.550796e+02
8.500000e-07	4.037041e-07	-2.099539e-09	2.796268e+00	-1.377023e+02
8.600000e-07	5.345449e-07	-1.827010e-09	3.702541e+00	-1.197523e+02
8.700000e-07	6.651958e-07	-1.541152e-09	4.607498e+00	-1.011884e+02
8.800000e-07	7.955978e-07	-1.244133e-09	5.510732e+00	-8.196829e+01
8.900000e-07	9.256965e-07	-9.394249e-10	6.411864e+00	-6.205293e+01
9.000000e-07	1.055456e-06	-6.263211e-10	7.310649e+00	-4.141250e+01
9.100000e-07	1.184835e-06	-3.013730e-10	8.206796e+00	-2.003298e+01
9.200000e-07	1.313755e-06	3.656604e-11	9.099766e+00	2.076802e+00
9.300000e-07	1.442240e-06	3.866826e-10	9.989715e+00	2.487875e+01
9.400000e-07	1.570222e-06	7.462225e-10	1.087619e+01	4.830070e+01
9.500000e-07	1.697570e-06	1.113845e-09	1.175827e+01	7.223417e+01
9.600000e-07	1.824299e-06	1.487026e-09	1.263606e+01	9.653574e+01
9.700000e-07	1.950392e-06	1.863135e-09	1.350945e+01	1.210322e+02
9.800000e-07	2.075765e-06	2.239583e-09	1.437785e+01	1.455298e+02
9.900000e-07	2.200483e-06	2.611136e-09	1.524171e+01	1.698263e+02
1.000000e-06	2.324566e-06	2.974094e-09	1.610118e+01	1.937248e+02
1.010000e-06	2.447803e-06	3.326633e-09	1.695478e+01	2.170475e+02
1.020000e-06	2.570033e-06	3.669154e-09	1.780141e+01	2.396476e+02
1.030000e-06	2.691244e-06	3.999846e-09	1.864098e+01	2.614172e+02
1.040000e-06	2.811396e-06	4.317271e-09	1.947322e+01	2.822907e+02
1.050000e-06	2.930493e-06	4.622219e-09	2.029815e+01	3.022430e+02
1.060000e-06	3.048554e-06	4.914098e-09	2.111590e+01	3.212830e+02
1.070000e-06	3.165537e-06	5.192096e-09	2.192618e+01	3.394446e+02
1.080000e-06	3.281303e-06	5.456648e-09	2.272804e+01	3.567754e+02
1.090000e-06	3.395672e-06	5.708419e-09	2.352022e+01	3.733274e+02
1.100000e-06	3.508622e-06	5.947585e-09	2.430257e+01	3.891482e+02
1.110000e-06	3.620242e-06	6.174013e-09	2.507571e+01	4.042775e+02
1.120000e-06	3.730664e-06	6.389636e-09	2.584056e+01	4.187456e+02
1.130000e-06	3.839904e-06	6.598439e-09	2.659721e+01	4.325754e+02
1.140000e-06	3.947931e-06	6.799195e-09	2.734546e+01	4.457867e+02
1.150000e-06	4.054631e-06	6.992146e-09	2.808452e+01	4.583999e+02
1.160000e-06	4.159777e-06	7.176299e-09	2.881282e+01	4.704392e+02
1.170000e-06	4.263390e-06	7.351293e-09	2.953050e+01	4.819344e+02
1.180000e-06	4.365517e-06	7.520537e-09	3.023788e+01	4.929194e+02
1.190000e-06	4.466161e-06	7.682067e-09	3.093499e+01	5.034298e+02
1.200000e-06	4.565165e-06	7.836451e-09	3.162075e+01	5.134992e+02
1.210000e-06	4.662422e-06	7.982985e-09	3.229441e+01	5.231554e+02
1.220000e-06	4.757961e-06	8.123791e-09	3.295616e+01	5.324181e+02
1.230000e-06	4.851796e-06	8.260556e-09	3.360611e+01	5.412981e+02
1.240000e-06	4.944073e-06	8.390392e-09	3.424527e+01	5.497990e+02
1.250000e-06	5.034582e-06	8.514536e-09	3.487218e+01	5.579196e+02
1.260000e-06	5.123112e-06	8.634063e-09	3.548539e+01	5.656582e+02
1.270000e-06	5.209829e-06	8.747259e-09	3.608603e+01	5.730157e+02
1.280000e-06	5.294809e-06	8.854032e-09	3.667465e+01	5.799986e+02
1.290000e-06	5.377907e-06	8.957020e-09	3.725023e+01	5.866201e+02
1.300000e-06	5.458957e-06	9.054361e-09	3.781163e+01	5.928992e+02
1.310000e-06	5.538013e-06	9.143433e-09	3.835921e+01	5.988592e+02
1.320000e-06	5.615158e-06	9.227330e-09	3.889356e+01	6.045248e+02
1.330000e-06	5.690186e-06	9.308388e-09	3.941324e+01	6.099199e+02
1.340000e-06	5.762938e-06	9.386666e-09	3.991716e+01	6.150653e+02
1.350000e-06	5.833537e-06	9.461938e-09	4.040617e+01	6.199781e+02
1.360000e-06	5.902132e-06	9.533664e-09	4.088129e+01	6.246717e+02
1.370000e-06	5.968632e-06	9.602108e-09	4.134190e+01	6.291567e+02
1.380000e-06	6.032942e-06	9.667630e-09	4.178735e+01	6.334418e+02
1.390000e-06	6.095183e-06	9.730110e-09	4.221846e+01	6.375346e+02
1.400000e-06	6.155465e-06	9.789479e-09	4.263601e+01	6.414419e+02
1.410000e-06	6.213541e-06	9.845731e-09	4.303828e+01	6.451693e+02
1.420000e-06	6.269296e-06	9.899257e-09	4.342447e+01	6.487200e+02
1.430000e-06	6.322855e-06	9.951443e-09	4.379544e+01	6.520949e+02
1.440000e-06	6.373914e-06	1.000201e-08	4.414910e+01	6.552914e+02
1.450000e-06	6.422347e-06	1.004886e-08	4.448457e+01	6.583047e+02
1.460000e-06	6.468445e-06	1.009161e-08	4.480387e+01	6.611284e+02
1.470000e-06	6.512425e-06	1.013169e-08	4.510850e+01	6.637571e+02
1.480000e-06	6.554039e-06	1.016814e-08	4.539675e+01	6.661878e+02
1.490000e-06	6.593178e-06	1.020148e-08	4.566784e+01	6.684216e+02
1.500000e-06	6.630118e-06	1.023153e-08	4.592371e+01	6.704643e+02
1.510000e-06	6.664777e-06	1.025920e-08	4.616378e+01	6.723258e+02
1.520000e-06	6.697000e-06	1.028521e-08	4.638697e+01	6.740178e+02
1.530000e-06	6.726886e-06	1.030765e-08	4.659398e+01	6.755524e+02
1.540000e-06	6.754523e-06	1.032685e-08	4.678541e+01	6.769391e+02
1.550000e-06	6.779684e-06	1.034373e-08	4.695968e+01	6.781835e+02
1.560000e-06	6.802267e-06	1.035884e-08	4.711611e+01	6.792870e+02
1.570000e-06	6.822549e-06	1.037149e-08	4.725659e+01	6.802478e+02
1.580000e-06	6.840478e-06	1.038184e-08	4.738077e+01	6.810630e+02
1.590000e-06	6.855862e-06	1.039157e-08	4.748733e+01	6.817309e+02
1.600000e-06	6.868664e-06	1.039986e-08	4.757601e+01	6.822531e+02
1.610000e-06	6.878717e-06	1.040502e-08	4.764564e+01	6.826359e+02
1.620000e-06	6.886106e-06	1.040969e-08	4.769681e+01	6.828894e+02
1.630000e-06	6.891136e-06	1.041531e-08	4.773166e+01	6.830259e+02
1.640000e-06	6.893748e-06	1.041912e-08	4.774975e+01	6.830567e+02
1.650000e-06	6.893893e-06	1.041978e-08	4.775075e+01	6.829895e+02
1.660000e-06	6.891737e-06	1.041228e-08	4.773582e+01	6.828256e+02
1.670000e-06	6.887400e-06	1.040327e-08	4.770578e+01	6.825599e+02
1.680000e-06	6.880711e-06	1.039708e-08	4.765945e+01	6.821822e+02
1.690000e-06	6.871700e-06	1.038944e-08	4.759703e+01	6.816802e+02
1.700000e-06	6.860529e-06	1.038043e-08	4.751966e+01	6.810445e+02
1.710000e-06	6.846947e-06	1.037211e-08	4.742558e+01	6.802722e+02
1.720000e-06	6.830995e-06	1.036905e-08	4.731509e+01	6.793707e+02
1.730000e-06	6.813011e-06	1.034474e-08	4.719052e+01	6.783576e+02
1.740000e-06	6.792662e-06	1.027751e-08	4.704957e+01	6.772596e+02
1.750000e-06	6.769109e-06	1.026648e-08	4.688643e+01	6.761070e+02
1.760000e-06	6.742370e-06	1.027200e-08	4.670122e+01	6.749284e+02
1.770000e-06	6.713170e-06	1.025414e-08	4.649897e+01	6.737432e+02
1.780000e-06	6.681986e-06	1.030190e-08	4.628298e+01	6.725573e+02
1.790000e-06	6.649321e-06	1.028134e-08	4.605672e+01	6.713600e+02
1.800000e-06	6.615043e-06	1.016209e-08	4.581929e+01	6.701245e+02
1.810000e-06	6.578245e-06	1.019506e-08	4.556441e+01	6.688126e+02
1.820000e-06	6.538988e-06	1.016726e-08	4.529249e+01	6.673806e+02
1.830000e-06	6.497602e-06	1.013748e-08	4.500583e+01	6.657867e+02
1.840000e-06	6.454016e-06	1.020402e-08	4.470393e+01	6.639988e+02
1.850000e-06	6.408255e-06	1.009807e-08	4.438697e+01	6.619986e+02
1.860000e-06	6.360074e-06	1.007102e-08	4.405324e+01	6.597840e+02
1.870000e-06	6.309548e-06	1.003360e-08	4.370327e+01	6.573675e+02
1.880000e-06	6.256622e-06	9.954739e-09	4.333668e+01	6.547719e+02
1.890000e-06	6.200957e-06	9.961603e-09	4.295111e+01	6.520244e+02
1.900000e-06	6.142877e-06	9.876161e-09	4.254882e+01	6.491504e+02
1.910000e-06	6.082565e-06	9.869849e-09	4.213106e+01	6.461687e+02
1.920000e-06	6.019913e-06	9.818087e-09	4.169710e+01	6.430886e+02
1.930000e-06	5.955069e-06	9.727706e-09	4.124796e+01	6.399096e+02
1.940000e-06	5.888126e-06	9.735551e-09	4.078428e+01	6.366238e+02
1.950000e-06	5.819017e-06	9.645675e-09	4.030559e+01	6.332194e+02
1.960000e-06	5.747503e-06	9.606323e-09	3.981025e+01	6.296843e+02
1.970000e-06	5.673742e-06	9.528352e-09	3.929934e+01	6.260101e+02
1.980000e-06	5.597894e-06	9.475528e-09	3.877398e+01	6.221933e+02
1.990000e-06	5.519775e-06	9.457886e-09	3.823288e+01	6.182349e+02
2.000000e-06	5.439572e-06	9.362113e-09	3.767735e+01	6.141395e+02
2.010000e-06	5.357517e-06	9.312043e-09	3.710900e+01	6.099120e+02
2.020000e-06	5.273672e-06	9.226017e-09	3.652824e+01	6.055551e+02
2.030000e-06	5.187855e-06	9.157105e-09	3.593383e+01	6.010678e+02
2.040000e-06	5.100044e-06	9.086064e-09	3.532561e+01	5.964441e+02
2.050000e-06	5.010477e-06	9.029427e-09	3.470521e+01	5.916748e+02
2.060000e-06	4.919352e-06	8.968577e-09	3.407403e+01	5.867488e+02
2.070000e-06	4.826646e-06	8.860811e-09	3.343191e+01	5.816559e+02
2.080000e-06	4.732105e-06	8.777201e-09	3.277706e+01	5.763891e+02
2.090000e-06	4.635804e-06	8.680155e-09	3.211004e+01	5.709458e+02
2.100000e-06	4.537977e-06	8.606733e-09	3.143243e+01	5.653278e+02
2.110000e-06	4.438708e-06	8.522466e-09	3.074484e+01	5.595404e+02
2.120000e-06	4.337871e-06	8.440054e-09	3.004639e+01	5.535901e+02
2.130000e-06	4.235332e-06	8.354217e-09	2.933615e+01	5.474819e+02
2.140000e-06	4.131161e-06	8.257259e-09	2.861461e+01	5.412180e+02
2.150000e-06	4.025540e-06	8.159869e-09	2.788302e+01	5.347959e+02
2.160000e-06	3.918584e-06	8.052033e-09	2.714219e+01	5.282090e+02
2.170000e-06	3.810246e-06	7.947373e-09	2.639178e+01	5.214471e+02
2.180000e-06	3.700563e-06	7.833895e-09	2.563206e+01	5.144983e+02
2.190000e-06	3.589429e-06	7.726671e-09	2.486228e+01	5.073509e+02
2.200000e-06	3.476911e-06	7.614923e-09	2.408293e+01	4.999949e+02
2.210000e-06	3.363104e-06	7.508701e-09	2.329464e+01	4.924225e+02
2.220000e-06	3.247952e-06	7.392141e-09	2.249704e+01	4.846287e+02
2.230000e-06	3.131411e-06	7.266192e-09	2.168981e+01	4.766097e+02
2.240000e-06	3.013556e-06	7.136273e-09	2.087348e+01	4.683624e+02
2.250000e-06	2.894467e-06	7.010661e-09	2.004861e+01	4.598830e+02
2.260000e-06	2.774211e-06	6.884224e-09	1.921565e+01	4.511667e+02
2.270000e-06	2.653009e-06	6.745277e-09	1.837614e+01	4.422071e+02
2.280000e-06	2.530910e-06	6.602278e-09	1.753043e+01	4.329971e+02
2.290000e-06	2.407944e-06	6.454365e-09	1.667870e+01	4.235297e+02
2.300000e-06	2.284135e-06	6.303565e-09	1.582113e+01	4.137990e+02
2.310000e-06	2.159599e-06	6.151425e-09	1.495853e+01	4.038003e+02
2.320000e-06	2.034396e-06	6.003862e-09	1.409130e+01	3.935305e+02
2.330000e-06	1.908479e-06	5.846917e-09	1.321914e+01	3.829873e+02
2.340000e-06	1.781889e-06	5.682028e-09	1.234230e+01	3.721679e+02
2.350000e-06	1.654621e-06	5.512876e-09	1.146078e+01	3.610675e+02
2.360000e-06	1.526644e-06	5.340743e-09	1.057434e+01	3.496785e+02
2.370000e-06	1.398113e-06	5.164135e-09	9.684072e+00	3.379895e+02
2.380000e-06	1.269223e-06	4.979242e-09	8.791313e+00	3.259854e+02
2.390000e-06	1.140013e-06	4.789561e-09	7.896337e+00	3.136485e+02
2.400000e-06	1.010461e-06	4.592548e-09	6.998990e+00	3.009596e+02
2.410000e-06	8.805647e-07	4.391268e-09	6.099258e+00	2.878995e+02
2.420000e-06	7.503884e-07	4.188990e-09	5.197588e+00	2.744504e+02
2.430000e-06	6.200229e-07	3.982436e-09	4.294607e+00	2.605970e+02
2.440000e-06	4.894911e-07	3.764496e-09	3.390474e+00	2.463262e+02
2.450000e-06	3.588148e-07	3.534151e-09	2.485341e+00	2.316266e+02
2.460000e-06	2.280222e-07	3.297814e-09	1.579403e+00	2.164870e+02
2.470000e-06	9.710900e-08	3.059136e-09	6.726284e-01	2.008949e+02
2.480000e-06	-3.388802e-08	2.818877e-09	-2.347264e-01	1.848341e+02
2.490000e-06	-1.648946e-07	2.571003e-09	-1.142147e+00	1.682834e+02
2.500000e-06	-2.958795e-07	2.310547e-09	-2.049418e+00	1.512156e+02
2.510000e-06	-4.268069e-07	2.036747e-09	-2.956291e+00	1.335968e+02
2.520000e-06	-5.576424e-07	1.754050e-09	-3.862526e+00	1.153881e+02
2.530000e-06	-6.883105e-07	1.468630e-09	-4.767603e+00	9.654721e+01
2.540000e-06	-8.187351e-07	1.174622e-09	-5.670993e+00	7.703267e+01
2.550000e-06	-9.488185e-07	8.676246e-10	-6.572019e+00	5.680862e+01
2.560000e-06	-1.078512e-06	5.488139e-10	-7.470348e+00	3.585114e+01
2.570000e-06	-1.207895e-06	2.177771e-10	-8.366522e+00	1.415516e+01
2.580000e-06	-1.336997e-06	-1.235470e-10	-9.260751e+00	-8.258674e+00
2.590000e-06	-1.465719e-06	-4.737993e-10	-1.015235e+01	-3.133812e+01
2.600000e-06	-1.593924e-06	-8.326724e-10	-1.104036e+01	-5.499552e+01
2.610000e-06	-1.721480e-06	-1.199535e-09	-1.192388e+01	-7.910705e+01
2.620000e-06	-1.848285e-06	-1.570341e-09	-1.280220e+01	-1.035157e+02
2.630000e-06	-1.974337e-06	-1.939794e-09	-1.367530e+01	-1.280380e+02
2.640000e-06	-2.099656e-06	-2.307657e-09	-1.454333e+01	-1.524750e+02
2.650000e-06	-2.224130e-06	-2.675989e-09	-1.540550e+01	-1.766251e+02
2.660000e-06	-2.347667e-06	-3.043344e-09	-1.626119e+01	-2.002978e+02
2.670000e-06	-2.470265e-06	-3.400947e-09	-1.711036e+01	-2.233275e+02
2.680000e-06	-2.591927e-06	-3.743398e-09	-1.795306e+01	-2.455833e+02
2.690000e-06	-2.712711e-06	-4.068581e-09	-1.878967e+01	-2.669753e+02
2.700000e-06	-2.832490e-06	-4.375182e-09	-1.961933e+01	-2.874557e+02
2.710000e-06	-2.951128e-06	-4.668465e-09	-2.044108e+01	-3.070151e+02
2.720000e-06	-3.068632e-06	-4.954241e-09	-2.125497e+01	-3.256743e+02
2.730000e-06	-3.184903e-06	-5.229676e-09	-2.206032e+01	-3.434744e+02
2.740000e-06	-3.299840e-06	-5.491971e-09	-2.285644e+01	-3.604660e+02
2.750000e-06	-3.413431e-06	-5.743231e-09	-2.364323e+01	-3.767000e+02
2.760000e-06	-3.525620e-06	-5.983775e-09	-2.442031e+01	-3.922210e+02
2.770000e-06	-3.636421e-06	-6.213775e-09	-2.518778e+01	-4.070645e+02
2.780000e-06	-3.745958e-06	-6.432518e-09	-2.594649e+01	-4.212574e+02
2.790000e-06	-3.854337e-06	-6.639066e-09	-2.669718e+01	-4.348206e+02
2.800000e-06	-3.961503e-06	-6.834103e-09	-2.743946e+01	-4.477738e+02
2.810000e-06	-4.067338e-06	-7.020243e-09	-2.817254e+01	-4.601385e+02
2.820000e-06	-4.171757e-06	-7.200059e-09	-2.889580e+01	-4.719416e+02
2.830000e-06	-4.274536e-06	-7.372085e-09	-2.960770e+01	-4.832146e+02
2.840000e-06	-4.375639e-06	-7.536603e-09	-3.030799e+01	-4.939927e+02
2.850000e-06	-4.475279e-06	-7.695238e-09	-3.099815e+01	-5.043112e+02
2.860000e-06	-4.573454e-06	-7.848465e-09	-3.167816e+01	-5.142013e+02
2.870000e-06	-4.670100e-06	-7.995718e-09	-3.234759e+01	-5.236878e+02
2.880000e-06	-4.765040e-06	-8.134635e-09	-3.300519e+01	-5.327865e+02
2.890000e-06	-4.858158e-06	-8.263953e-09	-3.365017e+01	-5.415048e+02
2.900000e-06	-4.949522e-06	-8.385443e-09	-3.428301e+01	-5.498438e+02
2.910000e-06	-5.039186e-06	-8.502974e-09	-3.490407e+01	-5.578017e+02
2.920000e-06	-5.127054e-06	-8.617571e-09	-3.551269e+01	-5.653774e+02
2.930000e-06	-5.212897e-06	-8.728029e-09	-3.610729e+01	-5.725740e+02
2.940000e-06	-5.296798e-06	-8.833187e-09	-3.668843e+01	-5.794009e+02
