# Temperatura_=_60.73
# Concentracion g/m^3_=_15000.0
# C_Vs_to_Am_M_A/Vsm_=_65563218390.804596
# pendiente_HvsI_1/m_=_3716.3
# ordenada_HvsI_A/m_=_1297.0
# frecuencia_Hz_=_301972.5391847071

Tiempo_(s)	Campo_(V.s)	Magnetizacion_(V.s)	Campo_(kA/m)	Magnetizacion_(A/m)
0.000000e+00	-6.867565e-06	-1.081980e-08	-4.746515e+01	-7.087985e+02
1.000000e-08	-6.863636e-06	-1.081745e-08	-4.743799e+01	-7.085068e+02
2.000000e-08	-6.857481e-06	-1.081064e-08	-4.739545e+01	-7.080978e+02
3.000000e-08	-6.849113e-06	-1.080359e-08	-4.733761e+01	-7.075671e+02
4.000000e-08	-6.838313e-06	-1.079347e-08	-4.726297e+01	-7.069091e+02
5.000000e-08	-6.825019e-06	-1.077891e-08	-4.717109e+01	-7.061180e+02
6.000000e-08	-6.809330e-06	-1.075631e-08	-4.706265e+01	-7.051909e+02
7.000000e-08	-6.791374e-06	-1.073445e-08	-4.693855e+01	-7.041293e+02
8.000000e-08	-6.771184e-06	-1.076441e-08	-4.679901e+01	-7.029415e+02
9.000000e-08	-6.748484e-06	-1.077875e-08	-4.664212e+01	-7.016431e+02
1.000000e-07	-6.722961e-06	-1.071965e-08	-4.646571e+01	-7.002562e+02
1.100000e-07	-6.694744e-06	-1.067692e-08	-4.627070e+01	-6.988069e+02
1.200000e-07	-6.664337e-06	-1.065315e-08	-4.606054e+01	-6.973208e+02
1.300000e-07	-6.631962e-06	-1.056516e-08	-4.583678e+01	-6.958184e+02
1.400000e-07	-6.597668e-06	-1.055225e-08	-4.559975e+01	-6.943096e+02
1.500000e-07	-6.561424e-06	-1.063616e-08	-4.534926e+01	-6.927907e+02
1.600000e-07	-6.523116e-06	-1.051854e-08	-4.508449e+01	-6.912423e+02
1.700000e-07	-6.482594e-06	-1.048221e-08	-4.480442e+01	-6.896310e+02
1.800000e-07	-6.439630e-06	-1.051993e-08	-4.450748e+01	-6.879133e+02
1.900000e-07	-6.394186e-06	-1.042900e-08	-4.419339e+01	-6.860418e+02
2.000000e-07	-6.346423e-06	-1.043967e-08	-4.386327e+01	-6.839730e+02
2.100000e-07	-6.296145e-06	-1.042053e-08	-4.351578e+01	-6.816739e+02
2.200000e-07	-6.243167e-06	-1.035685e-08	-4.314962e+01	-6.791272e+02
2.300000e-07	-6.187735e-06	-1.028734e-08	-4.276651e+01	-6.763341e+02
2.400000e-07	-6.129969e-06	-1.022051e-08	-4.236725e+01	-6.733127e+02
2.500000e-07	-6.069911e-06	-1.021832e-08	-4.195216e+01	-6.700939e+02
2.600000e-07	-6.007668e-06	-1.016514e-08	-4.152197e+01	-6.667145e+02
2.700000e-07	-5.943235e-06	-1.009263e-08	-4.107664e+01	-6.632103e+02
2.800000e-07	-5.876523e-06	-1.003943e-08	-4.061557e+01	-6.596085e+02
2.900000e-07	-5.807576e-06	-9.989384e-09	-4.013903e+01	-6.559235e+02
3.000000e-07	-5.736513e-06	-9.946802e-09	-3.964788e+01	-6.521549e+02
3.100000e-07	-5.663291e-06	-9.881942e-09	-3.914181e+01	-6.482893e+02
3.200000e-07	-5.587785e-06	-9.835179e-09	-3.861995e+01	-6.443042e+02
3.300000e-07	-5.510015e-06	-9.753909e-09	-3.808244e+01	-6.401738e+02
3.400000e-07	-5.430071e-06	-9.667383e-09	-3.752991e+01	-6.358750e+02
3.500000e-07	-5.348137e-06	-9.613948e-09	-3.696363e+01	-6.313924e+02
3.600000e-07	-5.264386e-06	-9.560522e-09	-3.638478e+01	-6.267200e+02
3.700000e-07	-5.178842e-06	-9.494198e-09	-3.579355e+01	-6.218617e+02
3.800000e-07	-5.091553e-06	-9.400025e-09	-3.519025e+01	-6.168284e+02
3.900000e-07	-5.002476e-06	-9.324587e-09	-3.457459e+01	-6.116337e+02
4.000000e-07	-4.911570e-06	-9.247604e-09	-3.394629e+01	-6.062891e+02
4.100000e-07	-4.818974e-06	-9.166874e-09	-3.330632e+01	-6.008010e+02
4.200000e-07	-4.724779e-06	-9.087217e-09	-3.265529e+01	-5.951681e+02
4.300000e-07	-4.628837e-06	-8.992517e-09	-3.199218e+01	-5.893819e+02
4.400000e-07	-4.531187e-06	-8.891909e-09	-3.131728e+01	-5.834289e+02
4.500000e-07	-4.431916e-06	-8.794703e-09	-3.063117e+01	-5.772944e+02
4.600000e-07	-4.331087e-06	-8.709318e-09	-2.993429e+01	-5.709659e+02
4.700000e-07	-4.228793e-06	-8.615589e-09	-2.922728e+01	-5.644365e+02
4.800000e-07	-4.124942e-06	-8.510313e-09	-2.850952e+01	-5.577060e+02
4.900000e-07	-4.019584e-06	-8.397644e-09	-2.778134e+01	-5.507801e+02
5.000000e-07	-3.912738e-06	-8.287164e-09	-2.704287e+01	-5.436684e+02
5.100000e-07	-3.804374e-06	-8.180914e-09	-2.629392e+01	-5.363803e+02
5.200000e-07	-3.694695e-06	-8.071702e-09	-2.553587e+01	-5.289219e+02
5.300000e-07	-3.583735e-06	-7.952053e-09	-2.476897e+01	-5.212924e+02
5.400000e-07	-3.471379e-06	-7.823132e-09	-2.399242e+01	-5.134838e+02
5.500000e-07	-3.357606e-06	-7.700183e-09	-2.320608e+01	-5.054809e+02
5.600000e-07	-3.242400e-06	-7.581689e-09	-2.240983e+01	-4.972643e+02
5.700000e-07	-3.125837e-06	-7.460179e-09	-2.160421e+01	-4.888138e+02
5.800000e-07	-3.008069e-06	-7.329041e-09	-2.079026e+01	-4.801118e+02
5.900000e-07	-2.889212e-06	-7.189238e-09	-1.996877e+01	-4.711469e+02
6.000000e-07	-2.769270e-06	-7.042659e-09	-1.913980e+01	-4.619144e+02
6.100000e-07	-2.648334e-06	-6.892547e-09	-1.830395e+01	-4.524166e+02
6.200000e-07	-2.526488e-06	-6.743944e-09	-1.746181e+01	-4.426601e+02
6.300000e-07	-2.403622e-06	-6.595845e-09	-1.661262e+01	-4.326526e+02
6.400000e-07	-2.279774e-06	-6.439515e-09	-1.575665e+01	-4.224000e+02
6.500000e-07	-2.155112e-06	-6.276140e-09	-1.489505e+01	-4.119031e+02
6.600000e-07	-2.029792e-06	-6.113014e-09	-1.402890e+01	-4.011561e+02
6.700000e-07	-1.903878e-06	-5.946219e-09	-1.315865e+01	-3.901474e+02
6.800000e-07	-1.777294e-06	-5.773682e-09	-1.228376e+01	-3.788602e+02
6.900000e-07	-1.650012e-06	-5.594622e-09	-1.140405e+01	-3.672762e+02
7.000000e-07	-1.522087e-06	-5.410856e-09	-1.051990e+01	-3.553772e+02
7.100000e-07	-1.393660e-06	-5.223396e-09	-9.632278e+00	-3.431481e+02
7.200000e-07	-1.264868e-06	-5.033231e-09	-8.742131e+00	-3.305776e+02
7.300000e-07	-1.135707e-06	-4.838249e-09	-7.849431e+00	-3.176581e+02
7.400000e-07	-1.006206e-06	-4.634424e-09	-6.954389e+00	-3.043842e+02
7.500000e-07	-8.763855e-07	-4.425070e-09	-6.057135e+00	-2.907507e+02
7.600000e-07	-7.462263e-07	-4.210036e-09	-5.157540e+00	-2.767504e+02
7.700000e-07	-6.157417e-07	-3.990075e-09	-4.255696e+00	-2.623725e+02
7.800000e-07	-4.849970e-07	-3.766290e-09	-3.352055e+00	-2.476014e+02
7.900000e-07	-3.540653e-07	-3.536803e-09	-2.447121e+00	-2.324175e+02
8.000000e-07	-2.229498e-07	-3.300615e-09	-1.540916e+00	-2.167974e+02
8.100000e-07	-9.175629e-08	-3.056046e-09	-6.341732e-01	-2.007155e+02
8.200000e-07	3.948275e-08	-2.803857e-09	2.728849e-01	-1.841448e+02
8.300000e-07	1.708277e-07	-2.544168e-09	1.180675e+00	-1.670568e+02
8.400000e-07	3.021376e-07	-2.275975e-09	2.088223e+00	-1.494219e+02
8.500000e-07	4.333277e-07	-1.999160e-09	2.994943e+00	-1.312080e+02
8.600000e-07	5.643530e-07	-1.711425e-09	3.900523e+00	-1.123798e+02
8.700000e-07	6.951364e-07	-1.411366e-09	4.804432e+00	-9.289955e+01
8.800000e-07	8.256866e-07	-1.101347e-09	5.706729e+00	-7.272885e+01
8.900000e-07	9.559816e-07	-7.832294e-10	6.607263e+00	-5.183261e+01
9.000000e-07	1.085912e-06	-4.565699e-10	7.505275e+00	-3.018547e+01
9.100000e-07	1.215394e-06	-1.180906e-10	8.400190e+00	-7.779541e+00
9.200000e-07	1.344500e-06	2.340056e-10	9.292508e+00	1.536724e+01
9.300000e-07	1.473218e-06	5.994232e-10	1.018214e+01	3.920379e+01
9.400000e-07	1.601468e-06	9.753013e-10	1.106854e+01	6.364091e+01
9.500000e-07	1.729113e-06	1.357830e-09	1.195076e+01	8.855019e+01
9.600000e-07	1.855990e-06	1.745834e-09	1.282766e+01	1.137673e+02
9.700000e-07	1.982126e-06	2.135514e-09	1.369945e+01	1.391001e+02
9.800000e-07	2.107638e-06	2.521953e-09	1.456693e+01	1.643400e+02
9.900000e-07	2.232529e-06	2.901633e-09	1.543012e+01	1.892768e+02
1.000000e-06	2.356652e-06	3.272596e-09	1.628799e+01	2.137129e+02
1.010000e-06	2.479823e-06	3.633012e-09	1.713929e+01	2.374774e+02
1.020000e-06	2.602002e-06	3.980850e-09	1.798373e+01	2.604357e+02
1.030000e-06	2.723250e-06	4.315357e-09	1.882173e+01	2.824956e+02
1.040000e-06	2.843523e-06	4.637138e-09	1.965300e+01	3.036081e+02
1.050000e-06	2.962679e-06	4.946094e-09	2.047654e+01	3.237633e+02
1.060000e-06	3.080729e-06	5.242433e-09	2.129244e+01	3.429829e+02
1.070000e-06	3.197713e-06	5.523906e-09	2.210098e+01	3.613105e+02
1.080000e-06	3.313460e-06	5.788758e-09	2.290097e+01	3.788007e+02
1.090000e-06	3.427798e-06	6.039505e-09	2.369121e+01	3.955102e+02
1.100000e-06	3.540762e-06	6.279506e-09	2.447196e+01	4.114908e+02
1.110000e-06	3.652437e-06	6.509738e-09	2.524380e+01	4.267853e+02
1.120000e-06	3.762868e-06	6.730900e-09	2.600705e+01	4.414265e+02
1.130000e-06	3.872078e-06	6.943500e-09	2.676185e+01	4.554395e+02
1.140000e-06	3.980034e-06	7.147392e-09	2.750799e+01	4.688442e+02
1.150000e-06	4.086624e-06	7.343465e-09	2.824469e+01	4.816601e+02
1.160000e-06	4.191692e-06	7.529853e-09	2.897086e+01	4.939088e+02
1.170000e-06	4.295191e-06	7.706801e-09	2.968620e+01	5.056166e+02
1.180000e-06	4.397165e-06	7.876419e-09	3.039099e+01	5.168142e+02
1.190000e-06	4.497681e-06	8.038481e-09	3.108570e+01	5.275356e+02
1.200000e-06	4.596611e-06	8.193569e-09	3.176945e+01	5.378149e+02
1.210000e-06	4.693757e-06	8.344480e-09	3.244088e+01	5.476835e+02
1.220000e-06	4.789121e-06	8.491647e-09	3.309999e+01	5.571661e+02
1.230000e-06	4.882819e-06	8.634070e-09	3.374758e+01	5.662798e+02
1.240000e-06	4.974906e-06	8.770833e-09	3.438404e+01	5.750327e+02
1.250000e-06	5.065257e-06	8.900307e-09	3.500850e+01	5.834254e+02
1.260000e-06	5.153698e-06	9.023229e-09	3.561976e+01	5.914535e+02
1.270000e-06	5.240229e-06	9.139759e-09	3.621782e+01	5.991109e+02
1.280000e-06	5.324963e-06	9.250915e-09	3.680346e+01	6.063938e+02
1.290000e-06	5.407848e-06	9.357536e-09	3.737632e+01	6.133034e+02
1.300000e-06	5.488746e-06	9.457359e-09	3.793544e+01	6.198483e+02
1.310000e-06	5.567626e-06	9.550012e-09	3.848062e+01	6.260446e+02
1.320000e-06	5.644430e-06	9.639247e-09	3.901145e+01	6.319153e+02
1.330000e-06	5.719047e-06	9.725687e-09	3.952717e+01	6.374876e+02
1.340000e-06	5.791465e-06	9.806931e-09	4.002769e+01	6.427902e+02
1.350000e-06	5.861837e-06	9.884370e-09	4.051406e+01	6.478503e+02
1.360000e-06	5.930178e-06	9.958406e-09	4.098640e+01	6.526908e+02
1.370000e-06	5.996328e-06	1.002805e-08	4.144360e+01	6.573287e+02
1.380000e-06	6.060282e-06	1.009450e-08	4.188561e+01	6.617743e+02
1.390000e-06	6.122160e-06	1.015895e-08	4.231328e+01	6.660324e+02
1.400000e-06	6.182024e-06	1.022215e-08	4.272703e+01	6.701030e+02
1.410000e-06	6.239748e-06	1.028281e-08	4.312599e+01	6.739837e+02
1.420000e-06	6.295201e-06	1.034009e-08	4.350925e+01	6.776708e+02
1.430000e-06	6.348333e-06	1.039510e-08	4.387647e+01	6.811615e+02
1.440000e-06	6.398911e-06	1.044710e-08	4.422604e+01	6.844542e+02
1.450000e-06	6.446892e-06	1.049439e-08	4.455767e+01	6.875487e+02
1.460000e-06	6.492583e-06	1.053588e-08	4.487346e+01	6.904464e+02
1.470000e-06	6.536132e-06	1.057346e-08	4.517445e+01	6.931493e+02
1.480000e-06	6.577317e-06	1.060982e-08	4.545910e+01	6.956598e+02
1.490000e-06	6.616067e-06	1.064579e-08	4.572692e+01	6.979803e+02
1.500000e-06	6.652579e-06	1.068050e-08	4.597927e+01	7.001133e+02
1.510000e-06	6.686767e-06	1.071225e-08	4.621556e+01	7.020613e+02
1.520000e-06	6.718503e-06	1.073950e-08	4.643490e+01	7.038275e+02
1.530000e-06	6.747902e-06	1.076222e-08	4.663810e+01	7.054157e+02
1.540000e-06	6.775001e-06	1.078236e-08	4.682539e+01	7.068312e+02
1.550000e-06	6.799581e-06	1.079935e-08	4.699528e+01	7.080796e+02
1.560000e-06	6.821658e-06	1.081128e-08	4.714786e+01	7.091675e+02
1.570000e-06	6.841451e-06	1.082090e-08	4.728466e+01	7.101014e+02
1.580000e-06	6.858847e-06	1.083221e-08	4.740489e+01	7.108876e+02
1.590000e-06	6.873631e-06	1.084453e-08	4.750707e+01	7.115319e+02
1.600000e-06	6.885812e-06	1.085451e-08	4.759126e+01	7.120395e+02
1.610000e-06	6.895336e-06	1.086173e-08	4.765708e+01	7.124149e+02
1.620000e-06	6.902222e-06	1.086750e-08	4.770468e+01	7.126628e+02
1.630000e-06	6.906744e-06	1.087215e-08	4.773593e+01	7.127873e+02
1.640000e-06	6.908888e-06	1.087568e-08	4.775075e+01	7.127922e+02
1.650000e-06	6.908507e-06	1.087450e-08	4.774812e+01	7.126806e+02
1.660000e-06	6.905872e-06	1.086362e-08	4.772990e+01	7.124537e+02
1.670000e-06	6.901088e-06	1.085216e-08	4.769684e+01	7.121110e+02
1.680000e-06	6.893877e-06	1.084317e-08	4.764700e+01	7.116493e+02
1.690000e-06	6.884346e-06	1.083563e-08	4.758113e+01	7.110636e+02
1.700000e-06	6.872623e-06	1.082891e-08	4.750011e+01	7.103480e+02
1.710000e-06	6.858480e-06	1.082733e-08	4.740236e+01	7.094976e+02
1.720000e-06	6.842030e-06	1.082578e-08	4.728866e+01	7.085111e+02
1.730000e-06	6.823499e-06	1.075395e-08	4.716058e+01	7.073928e+02
1.740000e-06	6.802381e-06	1.069868e-08	4.701463e+01	7.061541e+02
1.750000e-06	6.777951e-06	1.071770e-08	4.684578e+01	7.048136e+02
1.760000e-06	6.750502e-06	1.069767e-08	4.665606e+01	7.033955e+02
1.770000e-06	6.720711e-06	1.070101e-08	4.645016e+01	7.019263e+02
1.780000e-06	6.689007e-06	1.075993e-08	4.623104e+01	7.004301e+02
1.790000e-06	6.655841e-06	1.063750e-08	4.600181e+01	6.989233e+02
1.800000e-06	6.620922e-06	1.058106e-08	4.576047e+01	6.974104e+02
1.810000e-06	6.583499e-06	1.064185e-08	4.550183e+01	6.958809e+02
1.820000e-06	6.543744e-06	1.056452e-08	4.522706e+01	6.943092e+02
1.830000e-06	6.501865e-06	1.062477e-08	4.493761e+01	6.926569e+02
1.840000e-06	6.457751e-06	1.057453e-08	4.463272e+01	6.908778e+02
1.850000e-06	6.411333e-06	1.045325e-08	4.431190e+01	6.889255e+02
1.860000e-06	6.362435e-06	1.047741e-08	4.397394e+01	6.867600e+02
1.870000e-06	6.311250e-06	1.039217e-08	4.362018e+01	6.843546e+02
1.880000e-06	6.257585e-06	1.041861e-08	4.324927e+01	6.817000e+02
1.890000e-06	6.201286e-06	1.038222e-08	4.286016e+01	6.788048e+02
1.900000e-06	6.142695e-06	1.027929e-08	4.245521e+01	6.756933e+02
1.910000e-06	6.081757e-06	1.029183e-08	4.203404e+01	6.723999e+02
1.920000e-06	6.018463e-06	1.017847e-08	4.159658e+01	6.689618e+02
1.930000e-06	5.952994e-06	1.015689e-08	4.114409e+01	6.654119e+02
1.940000e-06	5.885448e-06	1.011942e-08	4.067725e+01	6.617724e+02
1.950000e-06	5.815691e-06	1.003627e-08	4.019513e+01	6.580513e+02
1.960000e-06	5.743517e-06	9.977785e-09	3.969630e+01	6.542423e+02
1.970000e-06	5.669111e-06	9.874166e-09	3.918203e+01	6.503274e+02
1.980000e-06	5.592495e-06	9.872339e-09	3.865251e+01	6.462820e+02
1.990000e-06	5.513669e-06	9.808100e-09	3.810770e+01	6.420807e+02
2.000000e-06	5.432845e-06	9.733725e-09	3.754908e+01	6.377033e+02
2.010000e-06	5.350203e-06	9.658744e-09	3.697790e+01	6.331383e+02
2.020000e-06	5.265764e-06	9.568441e-09	3.639431e+01	6.283841e+02
2.030000e-06	5.179333e-06	9.503804e-09	3.579694e+01	6.234481e+02
2.040000e-06	5.090946e-06	9.418780e-09	3.518605e+01	6.183428e+02
2.050000e-06	5.000881e-06	9.369518e-09	3.456356e+01	6.130815e+02
2.060000e-06	4.909289e-06	9.265999e-09	3.393053e+01	6.076739e+02
2.070000e-06	4.815982e-06	9.162470e-09	3.328564e+01	6.021232e+02
2.080000e-06	4.720815e-06	9.076141e-09	3.262789e+01	5.964248e+02
2.090000e-06	4.624010e-06	8.999863e-09	3.195882e+01	5.905677e+02
2.100000e-06	4.525677e-06	8.918388e-09	3.127920e+01	5.845376e+02
2.110000e-06	4.425833e-06	8.810410e-09	3.058913e+01	5.783200e+02
2.120000e-06	4.324414e-06	8.714774e-09	2.988817e+01	5.719047e+02
2.130000e-06	4.221299e-06	8.609827e-09	2.917549e+01	5.652876e+02
2.140000e-06	4.116598e-06	8.512144e-09	2.845185e+01	5.584711e+02
2.150000e-06	4.010517e-06	8.407264e-09	2.771867e+01	5.514632e+02
2.160000e-06	3.903081e-06	8.299375e-09	2.697613e+01	5.442737e+02
2.170000e-06	3.794219e-06	8.177338e-09	2.622373e+01	5.369111e+02
2.180000e-06	3.683958e-06	8.057642e-09	2.546166e+01	5.293787e+02
2.190000e-06	3.572241e-06	7.945944e-09	2.468953e+01	5.216727e+02
2.200000e-06	3.459210e-06	7.834428e-09	2.390832e+01	5.137818e+02
2.210000e-06	3.344874e-06	7.715122e-09	2.311808e+01	5.056887e+02
2.220000e-06	3.229086e-06	7.578105e-09	2.231782e+01	4.973731e+02
2.230000e-06	3.111882e-06	7.438145e-09	2.150776e+01	4.888155e+02
2.240000e-06	2.993478e-06	7.301040e-09	2.068941e+01	4.800007e+02
2.250000e-06	2.873957e-06	7.173386e-09	1.986334e+01	4.709200e+02
2.260000e-06	2.753260e-06	7.038229e-09	1.902915e+01	4.615721e+02
2.270000e-06	2.631610e-06	6.890998e-09	1.818836e+01	4.519613e+02
2.280000e-06	2.509133e-06	6.735604e-09	1.734186e+01	4.420951e+02
2.290000e-06	2.385760e-06	6.580682e-09	1.648917e+01	4.319810e+02
2.300000e-06	2.261520e-06	6.424271e-09	1.563048e+01	4.216227e+02
2.310000e-06	2.136538e-06	6.267222e-09	1.476667e+01	4.110186e+02
2.320000e-06	2.010880e-06	6.104352e-09	1.389819e+01	4.001600e+02
2.330000e-06	1.884527e-06	5.930444e-09	1.302490e+01	3.890330e+02
2.340000e-06	1.757463e-06	5.751016e-09	1.214670e+01	3.776197e+02
2.350000e-06	1.629750e-06	5.571063e-09	1.126401e+01	3.659016e+02
2.360000e-06	1.501434e-06	5.393513e-09	1.037715e+01	3.538616e+02
2.370000e-06	1.372574e-06	5.208258e-09	9.486541e+00	3.414862e+02
2.380000e-06	1.243257e-06	5.014113e-09	8.592767e+00	3.287657e+02
2.390000e-06	1.113615e-06	4.814803e-09	7.696746e+00	3.156937e+02
2.400000e-06	9.837138e-07	4.611560e-09	6.798933e+00	3.022653e+02
2.410000e-06	8.535665e-07	4.404753e-09	5.899421e+00	2.884745e+02
2.420000e-06	7.232675e-07	4.189353e-09	4.998861e+00	2.743128e+02
2.430000e-06	5.927849e-07	3.962678e-09	4.097030e+00	2.597673e+02
2.440000e-06	4.620800e-07	3.727920e-09	3.193664e+00	2.448208e+02
2.450000e-06	3.311510e-07	3.488929e-09	2.288749e+00	2.294518e+02
2.460000e-06	1.999921e-07	3.248825e-09	1.382245e+00	2.136359e+02
2.470000e-06	6.869434e-08	3.005483e-09	4.747807e-01	1.973467e+02
2.480000e-06	-6.263787e-08	2.755396e-09	-4.329214e-01	1.805567e+02
2.490000e-06	-1.939608e-07	2.493024e-09	-1.340560e+00	1.632369e+02
2.500000e-06	-3.252149e-07	2.217005e-09	-2.247721e+00	1.453568e+02
2.510000e-06	-4.563343e-07	1.931421e-09	-3.153952e+00	1.268829e+02
2.520000e-06	-5.872897e-07	1.638546e-09	-4.059050e+00	1.077788e+02
2.530000e-06	-7.179936e-07	1.338265e-09	-4.962410e+00	8.800615e+01
2.540000e-06	-8.484384e-07	1.025443e-09	-5.863978e+00	6.752723e+01
2.550000e-06	-9.786496e-07	7.016274e-10	-6.763933e+00	4.631028e+01
2.560000e-06	-1.108612e-06	3.678739e-10	-7.662170e+00	2.433642e+01
2.570000e-06	-1.238276e-06	2.345213e-11	-8.558341e+00	1.607835e+00
2.580000e-06	-1.367518e-06	-3.308543e-10	-9.451596e+00	-2.184413e+01
2.590000e-06	-1.496285e-06	-6.967402e-10	-1.034157e+01	-4.595246e+01
2.600000e-06	-1.624585e-06	-1.073511e-09	-1.122831e+01	-7.061105e+01
2.610000e-06	-1.752260e-06	-1.456268e-09	-1.211074e+01	-9.567542e+01
2.620000e-06	-1.879167e-06	-1.838746e-09	-1.298786e+01	-1.209681e+02
2.630000e-06	-2.005306e-06	-2.220771e-09	-1.385967e+01	-1.462882e+02
2.640000e-06	-2.130688e-06	-2.603608e-09	-1.472624e+01	-1.714247e+02
2.650000e-06	-2.255356e-06	-2.982982e-09	-1.558788e+01	-1.961710e+02
2.660000e-06	-2.379129e-06	-3.353637e-09	-1.644334e+01	-2.203395e+02
2.670000e-06	-2.501851e-06	-3.711393e-09	-1.729153e+01	-2.437737e+02
2.680000e-06	-2.623669e-06	-4.056219e-09	-1.813348e+01	-2.663569e+02
2.690000e-06	-2.744541e-06	-4.386770e-09	-1.896888e+01	-2.880155e+02
2.700000e-06	-2.864310e-06	-4.700962e-09	-1.979666e+01	-3.087180e+02
2.710000e-06	-2.982942e-06	-5.001559e-09	-2.061659e+01	-3.284692e+02
2.720000e-06	-3.100468e-06	-5.289566e-09	-2.142887e+01	-3.473015e+02
2.730000e-06	-3.216794e-06	-5.562978e-09	-2.223286e+01	-3.652643e+02
2.740000e-06	-3.331716e-06	-5.824009e-09	-2.302714e+01	-3.824144e+02
2.750000e-06	-3.445268e-06	-6.077496e-09	-2.381195e+01	-3.988068e+02
2.760000e-06	-3.557504e-06	-6.321385e-09	-2.458768e+01	-4.144899e+02
2.770000e-06	-3.668383e-06	-6.552623e-09	-2.535401e+01	-4.295021e+02
2.780000e-06	-3.777924e-06	-6.771975e-09	-2.611110e+01	-4.438725e+02
2.790000e-06	-3.886216e-06	-6.981152e-09	-2.685956e+01	-4.576236e+02
2.800000e-06	-3.993276e-06	-7.181389e-09	-2.759951e+01	-4.707747e+02
2.810000e-06	-4.099019e-06	-7.374159e-09	-2.833035e+01	-4.833458e+02
2.820000e-06	-4.203343e-06	-7.558939e-09	-2.905138e+01	-4.953604e+02
2.830000e-06	-4.306067e-06	-7.734342e-09	-2.976137e+01	-5.068467e+02
2.840000e-06	-4.407140e-06	-7.902017e-09	-3.045993e+01	-5.178371e+02
2.850000e-06	-4.506638e-06	-8.063660e-09	-3.114761e+01	-5.283661e+02
2.860000e-06	-4.604611e-06	-8.221407e-09	-3.182475e+01	-5.384671e+02
2.870000e-06	-4.701025e-06	-8.371960e-09	-3.249112e+01	-5.481688e+02
2.880000e-06	-4.795800e-06	-8.511595e-09	-3.314615e+01	-5.574929e+02
2.890000e-06	-4.888868e-06	-8.643034e-09	-3.378939e+01	-5.664526e+02
2.900000e-06	-4.980177e-06	-8.768942e-09	-3.442047e+01	-5.750526e+02
2.910000e-06	-5.069672e-06	-8.891658e-09	-3.503902e+01	-5.832910e+02
2.920000e-06	-5.157288e-06	-9.011659e-09	-3.564458e+01	-5.911620e+02
2.930000e-06	-5.242924e-06	-9.126610e-09	-3.623645e+01	-5.986604e+02
2.940000e-06	-5.326604e-06	-9.235779e-09	-3.681480e+01	-6.057839e+02
