# Temperatura_=_45.43
# Concentracion g/m^3_=_15000.0
# C_Vs_to_Am_M_A/Vsm_=_65563218390.804596
# pendiente_HvsI_1/m_=_3716.3
# ordenada_HvsI_A/m_=_1297.0
# frecuencia_Hz_=_301972.4574512471

Tiempo_(s)	Campo_(V.s)	Magnetizacion_(V.s)	Campo_(kA/m)	Magnetizacion_(A/m)
0.000000e+00	-6.846666e-06	-1.015774e-08	-4.746654e+01	-6.655369e+02
1.000000e-08	-6.842765e-06	-1.015667e-08	-4.743949e+01	-6.653585e+02
2.000000e-08	-6.836729e-06	-1.015012e-08	-4.739765e+01	-6.650534e+02
3.000000e-08	-6.828569e-06	-1.014378e-08	-4.734108e+01	-6.646117e+02
4.000000e-08	-6.818027e-06	-1.013472e-08	-4.726799e+01	-6.640282e+02
5.000000e-08	-6.804907e-06	-1.012208e-08	-4.717703e+01	-6.633063e+02
6.000000e-08	-6.789271e-06	-1.010299e-08	-4.706863e+01	-6.624588e+02
7.000000e-08	-6.771404e-06	-1.008115e-08	-4.694476e+01	-6.615078e+02
8.000000e-08	-6.751452e-06	-1.010398e-08	-4.680644e+01	-6.604814e+02
9.000000e-08	-6.729059e-06	-1.014071e-08	-4.665119e+01	-6.594097e+02
1.000000e-07	-6.703833e-06	-1.008634e-08	-4.647631e+01	-6.583189e+02
1.100000e-07	-6.675902e-06	-1.003525e-08	-4.628266e+01	-6.572264e+02
1.200000e-07	-6.645714e-06	-1.002048e-08	-4.607338e+01	-6.561361e+02
1.300000e-07	-6.613567e-06	-9.936709e-09	-4.585051e+01	-6.550374e+02
1.400000e-07	-6.579454e-06	-9.895191e-09	-4.561401e+01	-6.539058e+02
1.500000e-07	-6.543423e-06	-1.003757e-08	-4.536422e+01	-6.527063e+02
1.600000e-07	-6.505392e-06	-9.941308e-09	-4.510056e+01	-6.513992e+02
1.700000e-07	-6.465212e-06	-9.866420e-09	-4.482199e+01	-6.499461e+02
1.800000e-07	-6.422601e-06	-9.945861e-09	-4.452659e+01	-6.483160e+02
1.900000e-07	-6.377513e-06	-9.796605e-09	-4.421400e+01	-6.464893e+02
2.000000e-07	-6.330189e-06	-9.800300e-09	-4.388591e+01	-6.444601e+02
2.100000e-07	-6.280249e-06	-9.835465e-09	-4.353969e+01	-6.422352e+02
2.200000e-07	-6.227612e-06	-9.778433e-09	-4.317476e+01	-6.398314e+02
2.300000e-07	-6.172550e-06	-9.734792e-09	-4.279303e+01	-6.372709e+02
2.400000e-07	-6.115025e-06	-9.656795e-09	-4.239422e+01	-6.345763e+02
2.500000e-07	-6.055196e-06	-9.635569e-09	-4.197944e+01	-6.317666e+02
2.600000e-07	-5.993257e-06	-9.589111e-09	-4.155003e+01	-6.288536e+02
2.700000e-07	-5.929151e-06	-9.533437e-09	-4.110560e+01	-6.258416e+02
2.800000e-07	-5.862781e-06	-9.501905e-09	-4.064546e+01	-6.227274e+02
2.900000e-07	-5.794166e-06	-9.439457e-09	-4.016977e+01	-6.195028e+02
3.000000e-07	-5.723486e-06	-9.407100e-09	-3.967976e+01	-6.161575e+02
3.100000e-07	-5.650710e-06	-9.343336e-09	-3.917522e+01	-6.126816e+02
3.200000e-07	-5.575651e-06	-9.301746e-09	-3.865485e+01	-6.090680e+02
3.300000e-07	-5.498281e-06	-9.238775e-09	-3.811846e+01	-6.053128e+02
3.400000e-07	-5.418605e-06	-9.146810e-09	-3.756609e+01	-6.014160e+02
3.500000e-07	-5.336859e-06	-9.105599e-09	-3.699936e+01	-5.973794e+02
3.600000e-07	-5.253412e-06	-9.061404e-09	-3.642083e+01	-5.932056e+02
3.700000e-07	-5.168276e-06	-9.013734e-09	-3.583060e+01	-5.888961e+02
3.800000e-07	-5.081423e-06	-8.928599e-09	-3.522847e+01	-5.844504e+02
3.900000e-07	-4.992809e-06	-8.849865e-09	-3.461412e+01	-5.798653e+02
4.000000e-07	-4.902316e-06	-8.766803e-09	-3.398676e+01	-5.751358e+02
4.100000e-07	-4.810101e-06	-8.692009e-09	-3.334745e+01	-5.702554e+02
4.200000e-07	-4.716320e-06	-8.641056e-09	-3.269728e+01	-5.652178e+02
4.300000e-07	-4.620883e-06	-8.565100e-09	-3.203564e+01	-5.600176e+02
4.400000e-07	-4.523728e-06	-8.474471e-09	-3.136208e+01	-5.546513e+02
4.500000e-07	-4.424852e-06	-8.376853e-09	-3.067659e+01	-5.491174e+02
4.600000e-07	-4.324422e-06	-8.287012e-09	-2.998033e+01	-5.434161e+02
4.700000e-07	-4.222566e-06	-8.202200e-09	-2.927419e+01	-5.375479e+02
4.800000e-07	-4.119214e-06	-8.120238e-09	-2.855767e+01	-5.315138e+02
4.900000e-07	-4.014372e-06	-8.024280e-09	-2.783082e+01	-5.253132e+02
5.000000e-07	-3.907952e-06	-7.917240e-09	-2.709303e+01	-5.189442e+02
5.100000e-07	-3.799991e-06	-7.817604e-09	-2.634456e+01	-5.124026e+02
5.200000e-07	-3.690730e-06	-7.723209e-09	-2.558708e+01	-5.056826e+02
5.300000e-07	-3.580325e-06	-7.619872e-09	-2.482166e+01	-4.987767e+02
5.400000e-07	-3.468654e-06	-7.502850e-09	-2.404747e+01	-4.916765e+02
5.500000e-07	-3.355451e-06	-7.388410e-09	-2.326266e+01	-4.843731e+02
5.600000e-07	-3.240687e-06	-7.275649e-09	-2.246702e+01	-4.768578e+02
5.700000e-07	-3.124493e-06	-7.163263e-09	-2.166147e+01	-4.691222e+02
5.800000e-07	-3.007101e-06	-7.049331e-09	-2.084762e+01	-4.611584e+02
5.900000e-07	-2.888706e-06	-6.926178e-09	-2.002681e+01	-4.529596e+02
6.000000e-07	-2.769304e-06	-6.786480e-09	-1.919902e+01	-4.445200e+02
6.100000e-07	-2.648870e-06	-6.641327e-09	-1.836407e+01	-4.358344e+02
6.200000e-07	-2.527484e-06	-6.506625e-09	-1.752253e+01	-4.268990e+02
6.300000e-07	-2.405076e-06	-6.375976e-09	-1.667390e+01	-4.177108e+02
6.400000e-07	-2.281612e-06	-6.233610e-09	-1.581795e+01	-4.082671e+02
6.500000e-07	-2.157339e-06	-6.081325e-09	-1.495639e+01	-3.985658e+02
6.600000e-07	-2.032416e-06	-5.925389e-09	-1.409033e+01	-3.886045e+02
6.700000e-07	-1.906842e-06	-5.766386e-09	-1.321975e+01	-3.783799e+02
6.800000e-07	-1.780698e-06	-5.606260e-09	-1.234522e+01	-3.678873e+02
6.900000e-07	-1.653979e-06	-5.443442e-09	-1.146670e+01	-3.571204e+02
7.000000e-07	-1.526624e-06	-5.273806e-09	-1.058377e+01	-3.460707e+02
7.100000e-07	-1.398657e-06	-5.095732e-09	-9.696603e+00	-3.347275e+02
7.200000e-07	-1.270250e-06	-4.917005e-09	-8.806384e+00	-3.230777e+02
7.300000e-07	-1.141486e-06	-4.737747e-09	-7.913688e+00	-3.111066e+02
7.400000e-07	-1.012341e-06	-4.552512e-09	-7.018356e+00	-2.987980e+02
7.500000e-07	-8.828990e-07	-4.359919e-09	-6.120959e+00	-2.861347e+02
7.600000e-07	-7.531477e-07	-4.160079e-09	-5.221420e+00	-2.730991e+02
7.700000e-07	-6.230945e-07	-3.954710e-09	-4.319787e+00	-2.596740e+02
7.800000e-07	-4.927983e-07	-3.745532e-09	-3.416470e+00	-2.458428e+02
7.900000e-07	-3.622892e-07	-3.530378e-09	-2.511677e+00	-2.315902e+02
8.000000e-07	-2.316315e-07	-3.305201e-09	-1.605854e+00	-2.169020e+02
8.100000e-07	-1.008344e-07	-3.071247e-09	-6.990641e-01	-2.017648e+02
8.200000e-07	3.007739e-08	-2.832560e-09	2.085204e-01	-1.861653e+02
8.300000e-07	1.610064e-07	-2.590789e-09	1.116224e+00	-1.700885e+02
8.400000e-07	2.918780e-07	-2.341669e-09	2.023531e+00	-1.535166e+02
8.500000e-07	4.226701e-07	-2.083867e-09	2.930286e+00	-1.364265e+02
8.600000e-07	5.533618e-07	-1.816485e-09	3.836344e+00	-1.187895e+02
8.700000e-07	6.838400e-07	-1.535273e-09	4.740923e+00	-1.005704e+02
8.800000e-07	8.140643e-07	-1.242306e-09	5.643742e+00	-8.172969e+01
8.900000e-07	9.439616e-07	-9.436076e-10	6.544293e+00	-6.222719e+01
9.000000e-07	1.073467e-06	-6.376589e-10	7.442124e+00	-4.202772e+01
9.100000e-07	1.202572e-06	-3.182356e-10	8.337184e+00	-2.110894e+01
9.200000e-07	1.331295e-06	1.382284e-11	9.229597e+00	5.300860e-01
9.300000e-07	1.459636e-06	3.555159e-10	1.011936e+01	2.286070e+01
9.400000e-07	1.587487e-06	7.058132e-10	1.100573e+01	4.581820e+01
9.500000e-07	1.714746e-06	1.065111e-09	1.188798e+01	6.929868e+01
9.600000e-07	1.841343e-06	1.431643e-09	1.276566e+01	9.316013e+01
9.700000e-07	1.967255e-06	1.801131e-09	1.363858e+01	1.172283e+02
9.800000e-07	2.092469e-06	2.170511e-09	1.450666e+01	1.413071e+02
9.900000e-07	2.217027e-06	2.534687e-09	1.537020e+01	1.651920e+02
1.000000e-06	2.340922e-06	2.889930e-09	1.622913e+01	1.886852e+02
1.010000e-06	2.463941e-06	3.237441e-09	1.708200e+01	2.116105e+02
1.020000e-06	2.585875e-06	3.575507e-09	1.792734e+01	2.338246e+02
1.030000e-06	2.706779e-06	3.901613e-09	1.876555e+01	2.552249e+02
1.040000e-06	2.826663e-06	4.213902e-09	1.959668e+01	2.757517e+02
1.050000e-06	2.945482e-06	4.513835e-09	2.042043e+01	2.953850e+02
1.060000e-06	3.063312e-06	4.800926e-09	2.123732e+01	3.141371e+02
1.070000e-06	3.180099e-06	5.075302e-09	2.204698e+01	3.320425e+02
1.080000e-06	3.295604e-06	5.335981e-09	2.284775e+01	3.491469e+02
1.090000e-06	3.409626e-06	5.583134e-09	2.363824e+01	3.654976e+02
1.100000e-06	3.522288e-06	5.818674e-09	2.441930e+01	3.811366e+02
1.110000e-06	3.633679e-06	6.042958e-09	2.519155e+01	3.960969e+02
1.120000e-06	3.743822e-06	6.258797e-09	2.595516e+01	4.104028e+02
1.130000e-06	3.852821e-06	6.466731e-09	2.671082e+01	4.240726e+02
1.140000e-06	3.960647e-06	6.665550e-09	2.745836e+01	4.371228e+02
1.150000e-06	4.067073e-06	6.855724e-09	2.819618e+01	4.495724e+02
1.160000e-06	4.171918e-06	7.036673e-09	2.892306e+01	4.614456e+02
1.170000e-06	4.275205e-06	7.208342e-09	2.963912e+01	4.727729e+02
1.180000e-06	4.376957e-06	7.373163e-09	3.034455e+01	4.835901e+02
1.190000e-06	4.477306e-06	7.530226e-09	3.104025e+01	4.939345e+02
1.200000e-06	4.576071e-06	7.680773e-09	3.172497e+01	5.038415e+02
1.210000e-06	4.673023e-06	7.825609e-09	3.239712e+01	5.133404e+02
1.220000e-06	4.768212e-06	7.966322e-09	3.305704e+01	5.224520e+02
1.230000e-06	4.861688e-06	8.102047e-09	3.370509e+01	5.311877e+02
1.240000e-06	4.953574e-06	8.233094e-09	3.434212e+01	5.395504e+02
1.250000e-06	5.043734e-06	8.357570e-09	3.496718e+01	5.475379e+02
1.260000e-06	5.131978e-06	8.474228e-09	3.557896e+01	5.551461e+02
1.270000e-06	5.218355e-06	8.583543e-09	3.617779e+01	5.623732e+02
1.280000e-06	5.302931e-06	8.687134e-09	3.676414e+01	5.692227e+02
1.290000e-06	5.385680e-06	8.787774e-09	3.733782e+01	5.757054e+02
1.300000e-06	5.466444e-06	8.880701e-09	3.789774e+01	5.818392e+02
1.310000e-06	5.545244e-06	8.967134e-09	3.844405e+01	5.876480e+02
1.320000e-06	5.622074e-06	9.050121e-09	3.897669e+01	5.931593e+02
1.330000e-06	5.696660e-06	9.130081e-09	3.949378e+01	5.984012e+02
1.340000e-06	5.768969e-06	9.207129e-09	3.999508e+01	6.033998e+02
1.350000e-06	5.839214e-06	9.281279e-09	4.048208e+01	6.081770e+02
1.360000e-06	5.907506e-06	9.351415e-09	4.095553e+01	6.127496e+02
1.370000e-06	5.973691e-06	9.417189e-09	4.141438e+01	6.171289e+02
1.380000e-06	6.037657e-06	9.480396e-09	4.185784e+01	6.213209e+02
1.390000e-06	6.099547e-06	9.541324e-09	4.228691e+01	6.253278e+02
1.400000e-06	6.159396e-06	9.599577e-09	4.270184e+01	6.291488e+02
1.410000e-06	6.217016e-06	9.654412e-09	4.310130e+01	6.327812e+02
1.420000e-06	6.272368e-06	9.706076e-09	4.348504e+01	6.362219e+02
1.430000e-06	6.325487e-06	9.756442e-09	4.385331e+01	6.394678e+02
1.440000e-06	6.376089e-06	9.805885e-09	4.420412e+01	6.425168e+02
1.450000e-06	6.424093e-06	9.851184e-09	4.453693e+01	6.453683e+02
1.460000e-06	6.469804e-06	9.890859e-09	4.485383e+01	6.480241e+02
1.470000e-06	6.513367e-06	9.926792e-09	4.515584e+01	6.504878e+02
1.480000e-06	6.554556e-06	9.959197e-09	4.544140e+01	6.527658e+02
1.490000e-06	6.593291e-06	9.988755e-09	4.570994e+01	6.548659e+02
1.500000e-06	6.629808e-06	1.001730e-08	4.596311e+01	6.567972e+02
1.510000e-06	6.664045e-06	1.004538e-08	4.620046e+01	6.585686e+02
1.520000e-06	6.695850e-06	1.007052e-08	4.642096e+01	6.601880e+02
1.530000e-06	6.725330e-06	1.009156e-08	4.662534e+01	6.616612e+02
1.540000e-06	6.752554e-06	1.011178e-08	4.681408e+01	6.629922e+02
1.550000e-06	6.777290e-06	1.013056e-08	4.698557e+01	6.641826e+02
1.560000e-06	6.799465e-06	1.014613e-08	4.713931e+01	6.652333e+02
1.570000e-06	6.819355e-06	1.015809e-08	4.727719e+01	6.661453e+02
1.580000e-06	6.836859e-06	1.016776e-08	4.739855e+01	6.669211e+02
1.590000e-06	6.851767e-06	1.017692e-08	4.750190e+01	6.675655e+02
1.600000e-06	6.864104e-06	1.018540e-08	4.758743e+01	6.680856e+02
1.610000e-06	6.873700e-06	1.019235e-08	4.765396e+01	6.684901e+02
1.620000e-06	6.880661e-06	1.019817e-08	4.770222e+01	6.687876e+02
1.630000e-06	6.885325e-06	1.020356e-08	4.773456e+01	6.689842e+02
1.640000e-06	6.887661e-06	1.020810e-08	4.775075e+01	6.690825e+02
1.650000e-06	6.887511e-06	1.021096e-08	4.774971e+01	6.690795e+02
1.660000e-06	6.885031e-06	1.020235e-08	4.773252e+01	6.689676e+02
1.670000e-06	6.880418e-06	1.019567e-08	4.770054e+01	6.687358e+02
1.680000e-06	6.873438e-06	1.018987e-08	4.765214e+01	6.683726e+02
1.690000e-06	6.864117e-06	1.018112e-08	4.758752e+01	6.678697e+02
1.700000e-06	6.852616e-06	1.017320e-08	4.750779e+01	6.672254e+02
1.710000e-06	6.838683e-06	1.016928e-08	4.741120e+01	6.664470e+02
1.720000e-06	6.822455e-06	1.017483e-08	4.729869e+01	6.655514e+02
1.730000e-06	6.804213e-06	1.012192e-08	4.717222e+01	6.645638e+02
1.740000e-06	6.783412e-06	1.004772e-08	4.702801e+01	6.635138e+02
1.750000e-06	6.759322e-06	1.007256e-08	4.686100e+01	6.624306e+02
1.760000e-06	6.732195e-06	1.007255e-08	4.667293e+01	6.613371e+02
1.770000e-06	6.702628e-06	1.005383e-08	4.646795e+01	6.602453e+02
1.780000e-06	6.671094e-06	1.014606e-08	4.624933e+01	6.591530e+02
1.790000e-06	6.638164e-06	1.005565e-08	4.602103e+01	6.580434e+02
1.800000e-06	6.603554e-06	9.943311e-09	4.578109e+01	6.568868e+02
1.810000e-06	6.566352e-06	1.005997e-08	4.552318e+01	6.556455e+02
1.820000e-06	6.526781e-06	9.956274e-09	4.524884e+01	6.542797e+02
1.830000e-06	6.485154e-06	9.984891e-09	4.496025e+01	6.527534e+02
1.840000e-06	6.441273e-06	1.003087e-08	4.465603e+01	6.510401e+02
1.850000e-06	6.395175e-06	9.843659e-09	4.433645e+01	6.491260e+02
1.860000e-06	6.346661e-06	9.875763e-09	4.400010e+01	6.470108e+02
1.870000e-06	6.295843e-06	9.777163e-09	4.364779e+01	6.447062e+02
1.880000e-06	6.242576e-06	9.757612e-09	4.327851e+01	6.422318e+02
1.890000e-06	6.186570e-06	9.802230e-09	4.289023e+01	6.396106e+02
1.900000e-06	6.128267e-06	9.686042e-09	4.248603e+01	6.368642e+02
1.910000e-06	6.067703e-06	9.725264e-09	4.206615e+01	6.340086e+02
1.920000e-06	6.004781e-06	9.600225e-09	4.162992e+01	6.310526e+02
1.930000e-06	5.939648e-06	9.544957e-09	4.117837e+01	6.279970e+02
1.940000e-06	5.872402e-06	9.564720e-09	4.071216e+01	6.248361e+02
1.950000e-06	5.803022e-06	9.461602e-09	4.023116e+01	6.215605e+02
1.960000e-06	5.731196e-06	9.451071e-09	3.973321e+01	6.181597e+02
1.970000e-06	5.657176e-06	9.328336e-09	3.922005e+01	6.146249e+02
1.980000e-06	5.581112e-06	9.321654e-09	3.869271e+01	6.109503e+02
1.990000e-06	5.502779e-06	9.284945e-09	3.814964e+01	6.071337e+02
2.000000e-06	5.422329e-06	9.192074e-09	3.759190e+01	6.031761e+02
2.010000e-06	5.340003e-06	9.150245e-09	3.702115e+01	5.990799e+02
2.020000e-06	5.255937e-06	9.040847e-09	3.643834e+01	5.948472e+02
2.030000e-06	5.169870e-06	8.995209e-09	3.584165e+01	5.904790e+02
2.040000e-06	5.081788e-06	8.918942e-09	3.523100e+01	5.859735e+02
2.050000e-06	4.992074e-06	8.892586e-09	3.460903e+01	5.813267e+02
2.060000e-06	4.900828e-06	8.808741e-09	3.397644e+01	5.765328e+02
2.070000e-06	4.807880e-06	8.692491e-09	3.333205e+01	5.715852e+02
2.080000e-06	4.713076e-06	8.612343e-09	3.267480e+01	5.664778e+02
2.090000e-06	4.616571e-06	8.529134e-09	3.200574e+01	5.612062e+02
2.100000e-06	4.518575e-06	8.481727e-09	3.132636e+01	5.557676e+02
2.110000e-06	4.419138e-06	8.391339e-09	3.063698e+01	5.501613e+02
2.120000e-06	4.318137e-06	8.308218e-09	2.993676e+01	5.443878e+02
2.130000e-06	4.215471e-06	8.202623e-09	2.922500e+01	5.384479e+02
2.140000e-06	4.111198e-06	8.106764e-09	2.850210e+01	5.323420e+02
2.150000e-06	4.005525e-06	8.012365e-09	2.776949e+01	5.260691e+02
2.160000e-06	3.898537e-06	7.920749e-09	2.702776e+01	5.196261e+02
2.170000e-06	3.790192e-06	7.821651e-09	2.627663e+01	5.130083e+02
2.180000e-06	3.680472e-06	7.704713e-09	2.551596e+01	5.062090e+02
2.190000e-06	3.569247e-06	7.598291e-09	2.474486e+01	4.992204e+02
2.200000e-06	3.456659e-06	7.491277e-09	2.396431e+01	4.920336e+02
2.210000e-06	3.342795e-06	7.392943e-09	2.317491e+01	4.846400e+02
2.220000e-06	3.227535e-06	7.268405e-09	2.237584e+01	4.770306e+02
2.230000e-06	3.110872e-06	7.139325e-09	2.156704e+01	4.691975e+02
2.240000e-06	2.992960e-06	7.012774e-09	2.074958e+01	4.611333e+02
2.250000e-06	2.873824e-06	6.898831e-09	1.992364e+01	4.528314e+02
2.260000e-06	2.753497e-06	6.777402e-09	1.908943e+01	4.442863e+02
2.270000e-06	2.632188e-06	6.641014e-09	1.824843e+01	4.354935e+02
2.280000e-06	2.510087e-06	6.495611e-09	1.740192e+01	4.264496e+02
2.290000e-06	2.387220e-06	6.346168e-09	1.655011e+01	4.171515e+02
2.300000e-06	2.263475e-06	6.201147e-09	1.569221e+01	4.075972e+02
2.310000e-06	2.138930e-06	6.063715e-09	1.482876e+01	3.977842e+02
2.320000e-06	2.013694e-06	5.925276e-09	1.396053e+01	3.877099e+02
2.330000e-06	1.887785e-06	5.763840e-09	1.308763e+01	3.773706e+02
2.340000e-06	1.761177e-06	5.592482e-09	1.220988e+01	3.667608e+02
2.350000e-06	1.633889e-06	5.422212e-09	1.132742e+01	3.558733e+02
2.360000e-06	1.505962e-06	5.257894e-09	1.044052e+01	3.446987e+02
2.370000e-06	1.377502e-06	5.087791e-09	9.549943e+00	3.332252e+02
2.380000e-06	1.248648e-06	4.907496e-09	8.656620e+00	3.214390e+02
2.390000e-06	1.119432e-06	4.720271e-09	7.760792e+00	3.093248e+02
2.400000e-06	9.898809e-07	4.525747e-09	6.862642e+00	2.968658e+02
2.410000e-06	8.600851e-07	4.331117e-09	5.962794e+00	2.840445e+02
2.420000e-06	7.300525e-07	4.135823e-09	5.061305e+00	2.708435e+02
2.430000e-06	5.997820e-07	3.932185e-09	4.158166e+00	2.572457e+02
2.440000e-06	4.693294e-07	3.713956e-09	3.253765e+00	2.432351e+02
2.450000e-06	3.387455e-07	3.485748e-09	2.348453e+00	2.287969e+02
2.460000e-06	2.080189e-07	3.257002e-09	1.442153e+00	2.139174e+02
2.470000e-06	7.715086e-08	3.027115e-09	5.348712e-01	1.985832e+02
2.480000e-06	-5.378221e-08	2.791700e-09	-3.728611e-01	1.827805e+02
2.490000e-06	-1.846765e-07	2.543627e-09	-1.280325e+00	1.664934e+02
2.500000e-06	-3.155039e-07	2.282695e-09	-2.187324e+00	1.497019e+02
2.510000e-06	-4.462533e-07	2.014442e-09	-3.093783e+00	1.323808e+02
2.520000e-06	-5.768809e-07	1.741889e-09	-3.999398e+00	1.144984e+02
2.530000e-06	-7.073530e-07	1.464035e-09	-4.903934e+00	9.601730e+01
2.540000e-06	-8.375700e-07	1.173589e-09	-5.806702e+00	7.689721e+01
2.550000e-06	-9.674907e-07	8.705466e-10	-6.707415e+00	5.709919e+01
2.560000e-06	-1.097139e-06	5.591773e-10	-7.606239e+00	3.659256e+01
2.570000e-06	-1.226471e-06	2.396565e-10	-8.502874e+00	1.536310e+01
2.580000e-06	-1.355423e-06	-9.094682e-11	-9.396873e+00	-6.578382e+00
2.590000e-06	-1.483939e-06	-4.347626e-10	-1.028785e+01	-2.918841e+01
2.600000e-06	-1.611893e-06	-7.907220e-10	-1.117492e+01	-5.238564e+01
2.610000e-06	-1.739158e-06	-1.153547e-09	-1.205723e+01	-7.604941e+01
2.620000e-06	-1.865705e-06	-1.517515e-09	-1.293455e+01	-1.000229e+02
2.630000e-06	-1.991549e-06	-1.880114e-09	-1.380701e+01	-1.241211e+02
2.640000e-06	-2.116672e-06	-2.241958e-09	-1.467446e+01	-1.481423e+02
2.650000e-06	-2.240932e-06	-2.604812e-09	-1.553592e+01	-1.718832e+02
2.660000e-06	-2.364245e-06	-2.964259e-09	-1.639083e+01	-1.951535e+02
2.670000e-06	-2.486585e-06	-3.313371e-09	-1.723899e+01	-2.177898e+02
2.680000e-06	-2.608008e-06	-3.648438e-09	-1.808078e+01	-2.396657e+02
2.690000e-06	-2.728629e-06	-3.967703e-09	-1.891703e+01	-2.606971e+02
2.700000e-06	-2.848236e-06	-4.271141e-09	-1.974624e+01	-2.808419e+02
2.710000e-06	-2.966580e-06	-4.563213e-09	-2.056669e+01	-3.000951e+02
2.720000e-06	-3.083711e-06	-4.845884e-09	-2.137874e+01	-3.184797e+02
2.730000e-06	-3.199678e-06	-5.114996e-09	-2.218271e+01	-3.360365e+02
2.740000e-06	-3.314402e-06	-5.371126e-09	-2.297808e+01	-3.528129e+02
2.750000e-06	-3.427736e-06	-5.618617e-09	-2.376379e+01	-3.688545e+02
2.760000e-06	-3.539655e-06	-5.856548e-09	-2.453971e+01	-3.841997e+02
2.770000e-06	-3.650207e-06	-6.082785e-09	-2.530614e+01	-3.988776e+02
2.780000e-06	-3.759486e-06	-6.298187e-09	-2.606375e+01	-4.129094e+02
2.790000e-06	-3.867604e-06	-6.503240e-09	-2.681331e+01	-4.263122e+02
2.800000e-06	-3.974475e-06	-6.697915e-09	-2.755422e+01	-4.391029e+02
2.810000e-06	-4.080009e-06	-6.883147e-09	-2.828587e+01	-4.513027e+02
2.820000e-06	-4.184072e-06	-7.061142e-09	-2.900731e+01	-4.629384e+02
2.830000e-06	-4.286492e-06	-7.230189e-09	-2.971737e+01	-4.740432e+02
2.840000e-06	-4.387296e-06	-7.391422e-09	-3.041623e+01	-4.846538e+02
2.850000e-06	-4.486598e-06	-7.546314e-09	-3.110467e+01	-4.948072e+02
2.860000e-06	-4.584403e-06	-7.696510e-09	-3.178273e+01	-5.045367e+02
2.870000e-06	-4.680679e-06	-7.841710e-09	-3.245019e+01	-5.138682e+02
2.880000e-06	-4.775236e-06	-7.977263e-09	-3.310574e+01	-5.228184e+02
2.890000e-06	-4.867986e-06	-8.104065e-09	-3.374875e+01	-5.313948e+02
2.900000e-06	-4.959033e-06	-8.224288e-09	-3.437997e+01	-5.395978e+02
2.910000e-06	-5.048321e-06	-8.340413e-09	-3.499898e+01	-5.474238e+02
2.920000e-06	-5.135684e-06	-8.453532e-09	-3.560465e+01	-5.548692e+02
2.930000e-06	-5.221095e-06	-8.562034e-09	-3.619678e+01	-5.619342e+02
2.940000e-06	-5.304652e-06	-8.665156e-09	-3.677607e+01	-5.686253e+02
