# Temperatura_=_37.68
# Concentracion g/m^3_=_15000.0
# C_Vs_to_Am_M_A/Vsm_=_65563218390.804596
# pendiente_HvsI_1/m_=_3716.3
# ordenada_HvsI_A/m_=_1297.0
# frecuencia_Hz_=_301970.27099729097

Tiempo_(s)	Campo_(V.s)	Magnetizacion_(V.s)	Campo_(kA/m)	Magnetizacion_(A/m)
0.000000e+00	-6.840970e-06	-1.006957e-08	-4.746473e+01	-6.590442e+02
1.000000e-08	-6.837119e-06	-1.006536e-08	-4.743801e+01	-6.587885e+02
2.000000e-08	-6.831043e-06	-1.005894e-08	-4.739586e+01	-6.584187e+02
3.000000e-08	-6.822759e-06	-1.005266e-08	-4.733837e+01	-6.579375e+02
4.000000e-08	-6.812099e-06	-1.004297e-08	-4.726442e+01	-6.573475e+02
5.000000e-08	-6.798930e-06	-1.002978e-08	-4.717304e+01	-6.566519e+02
6.000000e-08	-6.783324e-06	-1.001190e-08	-4.706477e+01	-6.558553e+02
7.000000e-08	-6.765501e-06	-9.993514e-09	-4.694110e+01	-6.549645e+02
8.000000e-08	-6.745537e-06	-1.001267e-08	-4.680258e+01	-6.539895e+02
9.000000e-08	-6.723085e-06	-1.003973e-08	-4.664681e+01	-6.529428e+02
1.000000e-07	-6.697831e-06	-9.994499e-09	-4.647159e+01	-6.518390e+02
1.100000e-07	-6.669937e-06	-9.947174e-09	-4.627805e+01	-6.506927e+02
1.200000e-07	-6.639777e-06	-9.925923e-09	-4.606879e+01	-6.495156e+02
1.300000e-07	-6.607616e-06	-9.848680e-09	-4.584565e+01	-6.483139e+02
1.400000e-07	-6.573552e-06	-9.818010e-09	-4.560931e+01	-6.470858e+02
1.500000e-07	-6.537571e-06	-9.920146e-09	-4.535966e+01	-6.458202e+02
1.600000e-07	-6.499563e-06	-9.833297e-09	-4.509594e+01	-6.444965e+02
1.700000e-07	-6.459456e-06	-9.776930e-09	-4.481767e+01	-6.430867e+02
1.800000e-07	-6.416931e-06	-9.828308e-09	-4.452262e+01	-6.415590e+02
1.900000e-07	-6.371903e-06	-9.718702e-09	-4.421020e+01	-6.398817e+02
2.000000e-07	-6.324521e-06	-9.715596e-09	-4.388145e+01	-6.380283e+02
2.100000e-07	-6.274493e-06	-9.730306e-09	-4.353434e+01	-6.359812e+02
2.200000e-07	-6.221829e-06	-9.682461e-09	-4.316894e+01	-6.337344e+02
2.300000e-07	-6.166761e-06	-9.631287e-09	-4.278686e+01	-6.312940e+02
2.400000e-07	-6.109319e-06	-9.563460e-09	-4.238832e+01	-6.286764e+02
2.500000e-07	-6.049576e-06	-9.542225e-09	-4.197380e+01	-6.259054e+02
2.600000e-07	-5.987635e-06	-9.494701e-09	-4.154403e+01	-6.230068e+02
2.700000e-07	-5.923546e-06	-9.440452e-09	-4.109937e+01	-6.200043e+02
2.800000e-07	-5.857232e-06	-9.407787e-09	-4.063926e+01	-6.169153e+02
2.900000e-07	-5.788669e-06	-9.352558e-09	-4.016355e+01	-6.137475e+02
3.000000e-07	-5.718031e-06	-9.310335e-09	-3.967344e+01	-6.104992e+02
3.100000e-07	-5.645303e-06	-9.253281e-09	-3.916883e+01	-6.071597e+02
3.200000e-07	-5.570282e-06	-9.215037e-09	-3.864831e+01	-6.037124e+02
3.300000e-07	-5.492958e-06	-9.155467e-09	-3.811181e+01	-6.001385e+02
3.400000e-07	-5.413447e-06	-9.074411e-09	-3.756014e+01	-5.964209e+02
3.500000e-07	-5.331867e-06	-9.028664e-09	-3.699411e+01	-5.925466e+02
3.600000e-07	-5.248476e-06	-8.982054e-09	-3.641553e+01	-5.885092e+02
3.700000e-07	-5.163415e-06	-8.927625e-09	-3.582534e+01	-5.843084e+02
3.800000e-07	-5.076606e-06	-8.845970e-09	-3.522304e+01	-5.799488e+02
3.900000e-07	-4.988005e-06	-8.774768e-09	-3.460830e+01	-5.754375e+02
4.000000e-07	-4.897570e-06	-8.700379e-09	-3.398083e+01	-5.707816e+02
4.100000e-07	-4.805445e-06	-8.626898e-09	-3.334164e+01	-5.659855e+02
4.200000e-07	-4.711782e-06	-8.570674e-09	-3.269178e+01	-5.610492e+02
4.300000e-07	-4.616425e-06	-8.495651e-09	-3.203016e+01	-5.559685e+02
4.400000e-07	-4.519343e-06	-8.404970e-09	-3.135658e+01	-5.507352e+02
4.500000e-07	-4.420586e-06	-8.311282e-09	-3.067137e+01	-5.453393e+02
4.600000e-07	-4.320263e-06	-8.227939e-09	-2.997530e+01	-5.397713e+02
4.700000e-07	-4.218469e-06	-8.145175e-09	-2.926902e+01	-5.340235e+02
4.800000e-07	-4.115204e-06	-8.060027e-09	-2.855254e+01	-5.280922e+02
4.900000e-07	-4.010477e-06	-7.965420e-09	-2.782591e+01	-5.219773e+02
5.000000e-07	-3.904195e-06	-7.861831e-09	-2.708849e+01	-5.156819e+02
5.100000e-07	-3.796393e-06	-7.761333e-09	-2.634053e+01	-5.092104e+02
5.200000e-07	-3.687259e-06	-7.663462e-09	-2.558333e+01	-5.025665e+02
5.300000e-07	-3.576864e-06	-7.560645e-09	-2.481737e+01	-4.957511e+02
5.400000e-07	-3.465142e-06	-7.447593e-09	-2.404221e+01	-4.887608e+02
5.500000e-07	-3.351996e-06	-7.335726e-09	-2.325717e+01	-4.815872e+02
5.600000e-07	-3.237352e-06	-7.227100e-09	-2.246173e+01	-4.742180e+02
5.700000e-07	-3.121315e-06	-7.116452e-09	-2.165663e+01	-4.666377e+02
5.800000e-07	-3.004104e-06	-6.999722e-09	-2.084338e+01	-4.588303e+02
5.900000e-07	-2.885782e-06	-6.875781e-09	-2.002243e+01	-4.507812e+02
6.000000e-07	-2.766372e-06	-6.742441e-09	-1.919393e+01	-4.424792e+02
6.100000e-07	-2.645985e-06	-6.605618e-09	-1.835865e+01	-4.339174e+02
6.200000e-07	-2.524635e-06	-6.473024e-09	-1.751668e+01	-4.250934e+02
6.300000e-07	-2.402254e-06	-6.340184e-09	-1.666757e+01	-4.160085e+02
6.400000e-07	-2.278931e-06	-6.196575e-09	-1.581192e+01	-4.066658e+02
6.500000e-07	-2.154805e-06	-6.044014e-09	-1.495069e+01	-3.970683e+02
6.600000e-07	-2.029958e-06	-5.891348e-09	-1.408447e+01	-3.872172e+02
6.700000e-07	-1.904507e-06	-5.736344e-09	-1.321405e+01	-3.771102e+02
6.800000e-07	-1.778501e-06	-5.577554e-09	-1.233978e+01	-3.667408e+02
6.900000e-07	-1.651902e-06	-5.416077e-09	-1.146140e+01	-3.560987e+02
7.000000e-07	-1.524665e-06	-5.249019e-09	-1.057859e+01	-3.451699e+02
7.100000e-07	-1.396871e-06	-5.074692e-09	-9.691918e+00	-3.339388e+02
7.200000e-07	-1.268576e-06	-4.898136e-09	-8.801764e+00	-3.223885e+02
7.300000e-07	-1.139838e-06	-4.718033e-09	-7.908540e+00	-3.105032e+02
7.400000e-07	-1.010777e-06	-4.530462e-09	-7.013080e+00	-2.982679e+02
7.500000e-07	-8.814422e-07	-4.336993e-09	-6.115714e+00	-2.856694e+02
7.600000e-07	-7.518442e-07	-4.138362e-09	-5.216524e+00	-2.726963e+02
7.700000e-07	-6.219573e-07	-3.936437e-09	-4.315329e+00	-2.593383e+02
7.800000e-07	-4.917855e-07	-3.729723e-09	-3.412157e+00	-2.455859e+02
7.900000e-07	-3.613648e-07	-3.514719e-09	-2.507259e+00	-2.314296e+02
8.000000e-07	-2.307851e-07	-3.289503e-09	-1.601257e+00	-2.168596e+02
8.100000e-07	-1.001225e-07	-3.057070e-09	-6.946807e-01	-2.018651e+02
8.200000e-07	3.058399e-08	-2.821971e-09	2.122010e-01	-1.864330e+02
8.300000e-07	1.613177e-07	-2.582580e-09	1.119272e+00	-1.705478e+02
8.400000e-07	2.921061e-07	-2.336952e-09	2.026721e+00	-1.541895e+02
8.500000e-07	4.227921e-07	-2.083039e-09	2.933460e+00	-1.373336e+02
8.600000e-07	5.533030e-07	-1.818760e-09	3.838985e+00	-1.199496e+02
8.700000e-07	6.836681e-07	-1.542053e-09	4.743497e+00	-1.020022e+02
8.800000e-07	8.137932e-07	-1.255030e-09	5.646344e+00	-8.345193e+01
8.900000e-07	9.435915e-07	-9.617746e-10	6.546925e+00	-6.425959e+01
9.000000e-07	1.073002e-06	-6.596870e-10	7.444815e+00	-4.439084e+01
9.100000e-07	1.202064e-06	-3.450363e-10	8.340283e+00	-2.382333e+01
9.200000e-07	1.330779e-06	-1.950861e-11	9.233350e+00	-2.554303e+00
9.300000e-07	1.459036e-06	3.156268e-10	1.012324e+01	1.939182e+01
9.400000e-07	1.586745e-06	6.593624e-10	1.100932e+01	4.195739e+01
9.500000e-07	1.713856e-06	1.012616e-09	1.189125e+01	6.504823e+01
9.600000e-07	1.840324e-06	1.373037e-09	1.276873e+01	8.853400e+01
9.700000e-07	1.966125e-06	1.735955e-09	1.364157e+01	1.122529e+02
9.800000e-07	2.091203e-06	2.099286e-09	1.450940e+01	1.360204e+02
9.900000e-07	2.215615e-06	2.459813e-09	1.537261e+01	1.596412e+02
1.000000e-06	2.339348e-06	2.813787e-09	1.623111e+01	1.829231e+02
1.010000e-06	2.462253e-06	3.160380e-09	1.708386e+01	2.056907e+02
1.020000e-06	2.584133e-06	3.497214e-09	1.792950e+01	2.277971e+02
1.030000e-06	2.704926e-06	3.820940e-09	1.876760e+01	2.491319e+02
1.040000e-06	2.824661e-06	4.131909e-09	1.959836e+01	2.696249e+02
1.050000e-06	2.943374e-06	4.432264e-09	2.042202e+01	2.892447e+02
1.060000e-06	3.061117e-06	4.720225e-09	2.123896e+01	3.079929e+02
1.070000e-06	3.177752e-06	4.995254e-09	2.204821e+01	3.258958e+02
1.080000e-06	3.293097e-06	5.256228e-09	2.284851e+01	3.429938e+02
1.090000e-06	3.407042e-06	5.502581e-09	2.363910e+01	3.593325e+02
1.100000e-06	3.519624e-06	5.737685e-09	2.442023e+01	3.749551e+02
1.110000e-06	3.630942e-06	5.961925e-09	2.519258e+01	3.898976e+02
1.120000e-06	3.741053e-06	6.176452e-09	2.595656e+01	4.041880e+02
1.130000e-06	3.849974e-06	6.384043e-09	2.671229e+01	4.178478e+02
1.140000e-06	3.957687e-06	6.583607e-09	2.745963e+01	4.308954e+02
1.150000e-06	4.064022e-06	6.773706e-09	2.819742e+01	4.433502e+02
1.160000e-06	4.168773e-06	6.952828e-09	2.892421e+01	4.552357e+02
1.170000e-06	4.271956e-06	7.123306e-09	2.964013e+01	4.665809e+02
1.180000e-06	4.373666e-06	7.288722e-09	3.034583e+01	4.774200e+02
1.190000e-06	4.473991e-06	7.446683e-09	3.104191e+01	4.877897e+02
1.200000e-06	4.572734e-06	7.597952e-09	3.172702e+01	4.977250e+02
1.210000e-06	4.669604e-06	7.743346e-09	3.239913e+01	5.072560e+02
1.220000e-06	4.764641e-06	7.884759e-09	3.305853e+01	5.164041e+02
1.230000e-06	4.858017e-06	8.021180e-09	3.370640e+01	5.251805e+02
1.240000e-06	4.949853e-06	8.151358e-09	3.434359e+01	5.335875e+02
1.250000e-06	5.040038e-06	8.273873e-09	3.496932e+01	5.416203e+02
1.260000e-06	5.128260e-06	8.389568e-09	3.558143e+01	5.492714e+02
1.270000e-06	5.214535e-06	8.499150e-09	3.618003e+01	5.565354e+02
1.280000e-06	5.299050e-06	8.602395e-09	3.676642e+01	5.634127e+02
1.290000e-06	5.381727e-06	8.699930e-09	3.734006e+01	5.699120e+02
1.300000e-06	5.462414e-06	8.791122e-09	3.789989e+01	5.760517e+02
1.310000e-06	5.541087e-06	8.877209e-09	3.844575e+01	5.818577e+02
1.320000e-06	5.617755e-06	8.959530e-09	3.897769e+01	5.873612e+02
1.330000e-06	5.692223e-06	9.040136e-09	3.949437e+01	5.925949e+02
1.340000e-06	5.764468e-06	9.118127e-09	3.999563e+01	5.975886e+02
1.350000e-06	5.834679e-06	9.192852e-09	4.048278e+01	6.023665e+02
1.360000e-06	5.902911e-06	9.263626e-09	4.095619e+01	6.069456e+02
1.370000e-06	5.968981e-06	9.329479e-09	4.141460e+01	6.113350e+02
1.380000e-06	6.032806e-06	9.392358e-09	4.185744e+01	6.155373e+02
1.390000e-06	6.094629e-06	9.452502e-09	4.228639e+01	6.195507e+02
1.400000e-06	6.154484e-06	9.510451e-09	4.270169e+01	6.233715e+02
1.410000e-06	6.212131e-06	9.566267e-09	4.310166e+01	6.269960e+02
1.420000e-06	6.267506e-06	9.619196e-09	4.348586e+01	6.304220e+02
1.430000e-06	6.320580e-06	9.668919e-09	4.385411e+01	6.336496e+02
1.440000e-06	6.371012e-06	9.716436e-09	4.420402e+01	6.366807e+02
1.450000e-06	6.418836e-06	9.761363e-09	4.453584e+01	6.395186e+02
1.460000e-06	6.464415e-06	9.801824e-09	4.485208e+01	6.421666e+02
1.470000e-06	6.507910e-06	9.838038e-09	4.515386e+01	6.446277e+02
1.480000e-06	6.549048e-06	9.870709e-09	4.543928e+01	6.469046e+02
1.490000e-06	6.587694e-06	9.901558e-09	4.570743e+01	6.489995e+02
1.500000e-06	6.624209e-06	9.930395e-09	4.596078e+01	6.509154e+02
1.510000e-06	6.658516e-06	9.956989e-09	4.619881e+01	6.526566e+02
1.520000e-06	6.690363e-06	9.980595e-09	4.641977e+01	6.542292e+02
1.530000e-06	6.719880e-06	9.999633e-09	4.662457e+01	6.556415e+02
1.540000e-06	6.747094e-06	1.001678e-08	4.681339e+01	6.569032e+02
1.550000e-06	6.771778e-06	1.003336e-08	4.698466e+01	6.580246e+02
1.560000e-06	6.793949e-06	1.004764e-08	4.713848e+01	6.590156e+02
1.570000e-06	6.813860e-06	1.005816e-08	4.727663e+01	6.598840e+02
1.580000e-06	6.831375e-06	1.006691e-08	4.739816e+01	6.606354e+02
1.590000e-06	6.846289e-06	1.007696e-08	4.750164e+01	6.612722e+02
1.600000e-06	6.858650e-06	1.008623e-08	4.758740e+01	6.617945e+02
1.610000e-06	6.868274e-06	1.009380e-08	4.765417e+01	6.622008e+02
1.620000e-06	6.875248e-06	1.010009e-08	4.770256e+01	6.624888e+02
1.630000e-06	6.879912e-06	1.010545e-08	4.773493e+01	6.626569e+02
1.640000e-06	6.882193e-06	1.010887e-08	4.775075e+01	6.627045e+02
1.650000e-06	6.881990e-06	1.010835e-08	4.774934e+01	6.626322e+02
1.660000e-06	6.879506e-06	1.009944e-08	4.773211e+01	6.624418e+02
1.670000e-06	6.874820e-06	1.009154e-08	4.769959e+01	6.621359e+02
1.680000e-06	6.867780e-06	1.008488e-08	4.765075e+01	6.617171e+02
1.690000e-06	6.858455e-06	1.007681e-08	4.758605e+01	6.611879e+02
1.700000e-06	6.846916e-06	1.006956e-08	4.750599e+01	6.605512e+02
1.710000e-06	6.833015e-06	1.006741e-08	4.740954e+01	6.598107e+02
1.720000e-06	6.816852e-06	1.007056e-08	4.729739e+01	6.589718e+02
1.730000e-06	6.798611e-06	1.002009e-08	4.717083e+01	6.580425e+02
1.740000e-06	6.777831e-06	9.955587e-09	4.702666e+01	6.570341e+02
1.750000e-06	6.753726e-06	9.968016e-09	4.685940e+01	6.559601e+02
1.760000e-06	6.726570e-06	9.964759e-09	4.667099e+01	6.548355e+02
1.770000e-06	6.697104e-06	9.959752e-09	4.646655e+01	6.536738e+02
1.780000e-06	6.665689e-06	1.002873e-08	4.624858e+01	6.524848e+02
1.790000e-06	6.632811e-06	9.934067e-09	4.602046e+01	6.512716e+02
1.800000e-06	6.598240e-06	9.848344e-09	4.578060e+01	6.500283e+02
1.810000e-06	6.561108e-06	9.928068e-09	4.552296e+01	6.487398e+02
1.820000e-06	6.521564e-06	9.849276e-09	4.524860e+01	6.473820e+02
1.830000e-06	6.479937e-06	9.879800e-09	4.495977e+01	6.459247e+02
1.840000e-06	6.436092e-06	9.884663e-09	4.465556e+01	6.443356e+02
1.850000e-06	6.390026e-06	9.742303e-09	4.433594e+01	6.425847e+02
1.860000e-06	6.341543e-06	9.761772e-09	4.399955e+01	6.406487e+02
1.870000e-06	6.290713e-06	9.683097e-09	4.364688e+01	6.385151e+02
1.880000e-06	6.237423e-06	9.674338e-09	4.327714e+01	6.361829e+02
1.890000e-06	6.181427e-06	9.687663e-09	4.288862e+01	6.336631e+02
1.900000e-06	6.123120e-06	9.597195e-09	4.248407e+01	6.309756e+02
1.910000e-06	6.062577e-06	9.619939e-09	4.206400e+01	6.281458e+02
1.920000e-06	5.999685e-06	9.509008e-09	4.162764e+01	6.251991e+02
1.930000e-06	5.934598e-06	9.453474e-09	4.117604e+01	6.221570e+02
1.940000e-06	5.867414e-06	9.456246e-09	4.070990e+01	6.190328e+02
1.950000e-06	5.798113e-06	9.376350e-09	4.022907e+01	6.158303e+02
1.960000e-06	5.726412e-06	9.347393e-09	3.973159e+01	6.125436e+02
1.970000e-06	5.652433e-06	9.248711e-09	3.921830e+01	6.091592e+02
1.980000e-06	5.576370e-06	9.232721e-09	3.869055e+01	6.056590e+02
1.990000e-06	5.498076e-06	9.187379e-09	3.814732e+01	6.020244e+02
2.000000e-06	5.417658e-06	9.105173e-09	3.758936e+01	5.982399e+02
2.010000e-06	5.335414e-06	9.063492e-09	3.701873e+01	5.942952e+02
2.020000e-06	5.251420e-06	8.978785e-09	3.643595e+01	5.901865e+02
2.030000e-06	5.165461e-06	8.925332e-09	3.583954e+01	5.859158e+02
2.040000e-06	5.077498e-06	8.847661e-09	3.522922e+01	5.814893e+02
2.050000e-06	4.987828e-06	8.805559e-09	3.460707e+01	5.769143e+02
2.060000e-06	4.896666e-06	8.725451e-09	3.397455e+01	5.721970e+02
2.070000e-06	4.803841e-06	8.621562e-09	3.333051e+01	5.673401e+02
2.080000e-06	4.709124e-06	8.547517e-09	3.267333e+01	5.623417e+02
2.090000e-06	4.612673e-06	8.473190e-09	3.200413e+01	5.571957e+02
2.100000e-06	4.514757e-06	8.414031e-09	3.132476e+01	5.518931e+02
2.110000e-06	4.415413e-06	8.323050e-09	3.063548e+01	5.464235e+02
2.120000e-06	4.314519e-06	8.238733e-09	2.993545e+01	5.407782e+02
2.130000e-06	4.211902e-06	8.142102e-09	2.922346e+01	5.349510e+02
2.140000e-06	4.107600e-06	8.049746e-09	2.849978e+01	5.289398e+02
2.150000e-06	4.001880e-06	7.959195e-09	2.776626e+01	5.227461e+02
2.160000e-06	3.894916e-06	7.868528e-09	2.702411e+01	5.163737e+02
2.170000e-06	3.786659e-06	7.772798e-09	2.627299e+01	5.098270e+02
2.180000e-06	3.677015e-06	7.662662e-09	2.551225e+01	5.031087e+02
2.190000e-06	3.565878e-06	7.555498e-09	2.474115e+01	4.962181e+02
2.200000e-06	3.453358e-06	7.446777e-09	2.396045e+01	4.891495e+02
2.210000e-06	3.339539e-06	7.344923e-09	2.317073e+01	4.818929e+02
2.220000e-06	3.224367e-06	7.229761e-09	2.237164e+01	4.744342e+02
2.230000e-06	3.107861e-06	7.108200e-09	2.156329e+01	4.667575e+02
2.240000e-06	2.990140e-06	6.983125e-09	2.074650e+01	4.588471e+02
2.250000e-06	2.871187e-06	6.863974e-09	1.992117e+01	4.506898e+02
2.260000e-06	2.751016e-06	6.740452e-09	1.908739e+01	4.422761e+02
2.270000e-06	2.629895e-06	6.605992e-09	1.824701e+01	4.336010e+02
2.280000e-06	2.507969e-06	6.466773e-09	1.740105e+01	4.246639e+02
2.290000e-06	2.385176e-06	6.325496e-09	1.654907e+01	4.154671e+02
2.300000e-06	2.261396e-06	6.184516e-09	1.569026e+01	4.060139e+02
2.310000e-06	2.136805e-06	6.044577e-09	1.482580e+01	3.963067e+02
2.320000e-06	2.011602e-06	5.902155e-09	1.395711e+01	3.863455e+02
2.330000e-06	1.885769e-06	5.743450e-09	1.308404e+01	3.761261e+02
2.340000e-06	1.759258e-06	5.576733e-09	1.220627e+01	3.656404e+02
2.350000e-06	1.632074e-06	5.409505e-09	1.132383e+01	3.548762e+02
2.360000e-06	1.504272e-06	5.246147e-09	1.043710e+01	3.438189e+02
2.370000e-06	1.375946e-06	5.077994e-09	9.546733e+00	3.324521e+02
2.380000e-06	1.247167e-06	4.899127e-09	8.653225e+00	3.207591e+02
2.390000e-06	1.118017e-06	4.714077e-09	7.757143e+00	3.087245e+02
2.400000e-06	9.885564e-07	4.522588e-09	6.858905e+00	2.963341e+02
2.410000e-06	8.587835e-07	4.328937e-09	5.958501e+00	2.835755e+02
2.420000e-06	7.287830e-07	4.132861e-09	5.056518e+00	2.704376e+02
2.430000e-06	5.986143e-07	3.929047e-09	4.153368e+00	2.569107e+02
2.440000e-06	4.682179e-07	3.713457e-09	3.248638e+00	2.429854e+02
2.450000e-06	3.376644e-07	3.487806e-09	2.342819e+00	2.286521e+02
2.460000e-06	2.069880e-07	3.259070e-09	1.436146e+00	2.139006e+02
2.470000e-06	7.619338e-08	3.028683e-09	5.286528e-01	1.987193e+02
2.480000e-06	-5.460361e-08	2.795491e-09	-3.788565e-01	1.830942e+02
2.490000e-06	-1.854310e-07	2.553185e-09	-1.286577e+00	1.670079e+02
2.500000e-06	-3.162016e-07	2.298066e-09	-2.193903e+00	1.504387e+02
2.510000e-06	-4.468559e-07	2.033967e-09	-3.100422e+00	1.333595e+02
2.520000e-06	-5.774025e-07	1.763492e-09	-4.006194e+00	1.157377e+02
2.530000e-06	-7.077783e-07	1.487275e-09	-4.910781e+00	9.753586e+01
2.540000e-06	-8.379559e-07	1.201159e-09	-5.813993e+00	7.871413e+01
2.550000e-06	-9.678668e-07	9.049906e-10	-6.715354e+00	5.923459e+01
2.560000e-06	-1.097445e-06	5.993312e-10	-7.614408e+00	3.906717e+01
2.570000e-06	-1.226693e-06	2.819963e-10	-8.511172e+00	1.819694e+01
2.580000e-06	-1.355551e-06	-4.617093e-11	-9.405226e+00	-3.368065e+00
2.590000e-06	-1.483921e-06	-3.842078e-10	-1.029590e+01	-2.558980e+01
2.600000e-06	-1.611728e-06	-7.324133e-10	-1.118266e+01	-4.839516e+01
2.610000e-06	-1.738906e-06	-1.087983e-09	-1.206506e+01	-7.167419e+01
2.620000e-06	-1.865377e-06	-1.446349e-09	-1.294255e+01	-9.528223e+01
2.630000e-06	-1.991013e-06	-1.804501e-09	-1.381426e+01	-1.190464e+02
2.640000e-06	-2.115921e-06	-2.162847e-09	-1.468090e+01	-1.427761e+02
2.650000e-06	-2.240064e-06	-2.523290e-09	-1.554224e+01	-1.662755e+02
2.660000e-06	-2.363250e-06	-2.881206e-09	-1.639695e+01	-1.893581e+02
2.670000e-06	-2.485488e-06	-3.227841e-09	-1.724507e+01	-2.118593e+02
2.680000e-06	-2.606873e-06	-3.560500e-09	-1.808728e+01	-2.336472e+02
2.690000e-06	-2.727414e-06	-3.879408e-09	-1.892363e+01	-2.546284e+02
2.700000e-06	-2.846892e-06	-4.183314e-09	-1.975260e+01	-2.747499e+02
2.710000e-06	-2.965144e-06	-4.473710e-09	-2.057307e+01	-2.939953e+02
2.720000e-06	-3.082192e-06	-4.754384e-09	-2.138519e+01	-3.123779e+02
2.730000e-06	-3.198034e-06	-5.024520e-09	-2.218893e+01	-3.299314e+02
2.740000e-06	-3.312617e-06	-5.281889e-09	-2.298395e+01	-3.466994e+02
2.750000e-06	-3.425772e-06	-5.529137e-09	-2.376905e+01	-3.627273e+02
2.760000e-06	-3.537486e-06	-5.766172e-09	-2.454416e+01	-3.780554e+02
2.770000e-06	-3.647922e-06	-5.992371e-09	-2.531039e+01	-3.927165e+02
2.780000e-06	-3.757143e-06	-6.207996e-09	-2.606820e+01	-4.067352e+02
2.790000e-06	-3.865172e-06	-6.412030e-09	-2.681774e+01	-4.201314e+02
2.800000e-06	-3.971932e-06	-6.606506e-09	-2.755847e+01	-4.329234e+02
2.810000e-06	-4.077338e-06	-6.792861e-09	-2.828981e+01	-4.451320e+02
2.820000e-06	-4.181311e-06	-6.971796e-09	-2.901121e+01	-4.567830e+02
2.830000e-06	-4.283654e-06	-7.143077e-09	-2.972130e+01	-4.679079e+02
2.840000e-06	-4.384406e-06	-7.305872e-09	-3.042034e+01	-4.785423e+02
2.850000e-06	-4.483683e-06	-7.461449e-09	-3.110915e+01	-4.887227e+02
2.860000e-06	-4.581457e-06	-7.611050e-09	-3.178754e+01	-4.984825e+02
2.870000e-06	-4.677653e-06	-7.754271e-09	-3.245498e+01	-5.078483e+02
2.880000e-06	-4.772096e-06	-7.891104e-09	-3.311025e+01	-5.168373e+02
2.890000e-06	-4.864793e-06	-8.020533e-09	-3.375342e+01	-5.254566e+02
2.900000e-06	-4.955785e-06	-8.142301e-09	-3.438475e+01	-5.337050e+02
2.910000e-06	-5.045021e-06	-8.259531e-09	-3.500389e+01	-5.415761e+02
2.920000e-06	-5.132379e-06	-8.374770e-09	-3.561000e+01	-5.490628e+02
2.930000e-06	-5.217726e-06	-8.485974e-09	-3.620217e+01	-5.561615e+02
2.940000e-06	-5.301189e-06	-8.589668e-09	-3.678126e+01	-5.628761e+02
