# Temperatura_=_71.0
# Concentracion g/m^3_=_15000.0
# C_Vs_to_Am_M_A/Vsm_=_65563218390.804596
# pendiente_HvsI_1/m_=_3716.3
# ordenada_HvsI_A/m_=_1297.0
# frecuencia_Hz_=_301972.0641091904

Tiempo_(s)	Campo_(V.s)	Magnetizacion_(V.s)	Campo_(kA/m)	Magnetizacion_(A/m)
0.000000e+00	-6.827453e-06	-1.168639e-08	-4.746836e+01	-7.652419e+02
1.000000e-08	-6.823867e-06	-1.168404e-08	-4.744343e+01	-7.649355e+02
2.000000e-08	-6.818136e-06	-1.167760e-08	-4.740359e+01	-7.644786e+02
3.000000e-08	-6.810294e-06	-1.167119e-08	-4.734907e+01	-7.638644e+02
4.000000e-08	-6.800088e-06	-1.166115e-08	-4.727811e+01	-7.630910e+02
5.000000e-08	-6.787340e-06	-1.164587e-08	-4.718948e+01	-7.621628e+02
6.000000e-08	-6.772101e-06	-1.162333e-08	-4.708353e+01	-7.610915e+02
7.000000e-08	-6.754561e-06	-1.159492e-08	-4.696158e+01	-7.598961e+02
8.000000e-08	-6.734929e-06	-1.159975e-08	-4.682509e+01	-7.586000e+02
9.000000e-08	-6.712908e-06	-1.162860e-08	-4.667198e+01	-7.572281e+02
1.000000e-07	-6.688037e-06	-1.158975e-08	-4.649906e+01	-7.558028e+02
1.100000e-07	-6.660408e-06	-1.153382e-08	-4.630698e+01	-7.543397e+02
1.200000e-07	-6.630467e-06	-1.150550e-08	-4.609881e+01	-7.528451e+02
1.300000e-07	-6.598588e-06	-1.143379e-08	-4.587717e+01	-7.513138e+02
1.400000e-07	-6.564835e-06	-1.138143e-08	-4.564250e+01	-7.497294e+02
1.500000e-07	-6.529130e-06	-1.147826e-08	-4.539426e+01	-7.480663e+02
1.600000e-07	-6.491373e-06	-1.141038e-08	-4.513175e+01	-7.462927e+02
1.700000e-07	-6.451488e-06	-1.132619e-08	-4.485444e+01	-7.443750e+02
1.800000e-07	-6.409238e-06	-1.136554e-08	-4.456070e+01	-7.422817e+02
1.900000e-07	-6.364529e-06	-1.125079e-08	-4.424985e+01	-7.399879e+02
2.000000e-07	-6.317513e-06	-1.122701e-08	-4.392297e+01	-7.374772e+02
2.100000e-07	-6.267880e-06	-1.122964e-08	-4.357789e+01	-7.347435e+02
2.200000e-07	-6.215594e-06	-1.116813e-08	-4.321437e+01	-7.317903e+02
2.300000e-07	-6.160945e-06	-1.112540e-08	-4.283442e+01	-7.286288e+02
2.400000e-07	-6.103894e-06	-1.105626e-08	-4.243777e+01	-7.252758e+02
2.500000e-07	-6.044479e-06	-1.101654e-08	-4.202468e+01	-7.217497e+02
2.600000e-07	-5.982857e-06	-1.095690e-08	-4.159625e+01	-7.180679e+02
2.700000e-07	-5.919100e-06	-1.087778e-08	-4.115297e+01	-7.142445e+02
2.800000e-07	-5.853131e-06	-1.082699e-08	-4.069432e+01	-7.102879e+02
2.900000e-07	-5.784958e-06	-1.076369e-08	-4.022034e+01	-7.062010e+02
3.000000e-07	-5.714700e-06	-1.071692e-08	-3.973187e+01	-7.019814e+02
3.100000e-07	-5.642325e-06	-1.064026e-08	-3.922868e+01	-6.976227e+02
3.200000e-07	-5.567700e-06	-1.057178e-08	-3.870984e+01	-6.931164e+02
3.300000e-07	-5.490750e-06	-1.049872e-08	-3.817484e+01	-6.884538e+02
3.400000e-07	-5.411589e-06	-1.040615e-08	-3.762447e+01	-6.836274e+02
3.500000e-07	-5.330381e-06	-1.034611e-08	-3.705986e+01	-6.786323e+02
3.600000e-07	-5.247256e-06	-1.027964e-08	-3.648193e+01	-6.734660e+02
3.700000e-07	-5.162430e-06	-1.020546e-08	-3.589217e+01	-6.681284e+02
3.800000e-07	-5.075993e-06	-1.010722e-08	-3.529121e+01	-6.626205e+02
3.900000e-07	-4.987805e-06	-1.001638e-08	-3.467808e+01	-6.569433e+02
4.000000e-07	-4.897737e-06	-9.925315e-09	-3.405187e+01	-6.510966e+02
4.100000e-07	-4.805915e-06	-9.831963e-09	-3.341348e+01	-6.450783e+02
4.200000e-07	-4.712573e-06	-9.754119e-09	-3.276451e+01	-6.388838e+02
4.300000e-07	-4.617580e-06	-9.661737e-09	-3.210407e+01	-6.325071e+02
4.400000e-07	-4.520834e-06	-9.557677e-09	-3.143143e+01	-6.259410e+02
4.500000e-07	-4.422354e-06	-9.447042e-09	-3.074674e+01	-6.191794e+02
4.600000e-07	-4.322324e-06	-9.336575e-09	-3.005127e+01	-6.122175e+02
4.700000e-07	-4.220899e-06	-9.223684e-09	-2.934611e+01	-6.050535e+02
4.800000e-07	-4.117912e-06	-9.111526e-09	-2.863008e+01	-5.976882e+02
4.900000e-07	-4.013458e-06	-8.999672e-09	-2.790386e+01	-5.901250e+02
5.000000e-07	-3.907538e-06	-8.884274e-09	-2.716745e+01	-5.823678e+02
5.100000e-07	-3.800034e-06	-8.765565e-09	-2.642001e+01	-5.744198e+02
5.200000e-07	-3.691186e-06	-8.640767e-09	-2.566324e+01	-5.662819e+02
5.300000e-07	-3.581176e-06	-8.508390e-09	-2.489839e+01	-5.579509e+02
5.400000e-07	-3.469841e-06	-8.369842e-09	-2.412432e+01	-5.494189e+02
5.500000e-07	-3.357141e-06	-8.236253e-09	-2.334077e+01	-5.406745e+02
5.600000e-07	-3.243050e-06	-8.105308e-09	-2.254754e+01	-5.317031e+02
5.700000e-07	-3.127476e-06	-7.968615e-09	-2.174400e+01	-5.224898e+02
5.800000e-07	-3.010632e-06	-7.823033e-09	-2.093164e+01	-5.130209e+02
5.900000e-07	-2.892723e-06	-7.671818e-09	-2.011187e+01	-5.032860e+02
6.000000e-07	-2.773686e-06	-7.514861e-09	-1.928425e+01	-4.932791e+02
6.100000e-07	-2.653544e-06	-7.355272e-09	-1.844896e+01	-4.829988e+02
6.200000e-07	-2.532560e-06	-7.196050e-09	-1.760781e+01	-4.724471e+02
6.300000e-07	-2.410650e-06	-7.035948e-09	-1.676022e+01	-4.616276e+02
6.400000e-07	-2.287614e-06	-6.868286e-09	-1.590481e+01	-4.505437e+02
6.500000e-07	-2.163655e-06	-6.691679e-09	-1.504297e+01	-4.391962e+02
6.600000e-07	-2.039056e-06	-6.511693e-09	-1.417668e+01	-4.275818e+02
6.700000e-07	-1.913835e-06	-6.326639e-09	-1.330608e+01	-4.156928e+02
6.800000e-07	-1.788048e-06	-6.137708e-09	-1.243153e+01	-4.035173e+02
6.900000e-07	-1.661668e-06	-5.948994e-09	-1.155287e+01	-3.910405e+02
7.000000e-07	-1.534602e-06	-5.757728e-09	-1.066943e+01	-3.782462e+02
7.100000e-07	-1.406949e-06	-5.558752e-09	-9.781917e+00	-3.651182e+02
7.200000e-07	-1.278881e-06	-5.352415e-09	-8.891512e+00	-3.516417e+02
7.300000e-07	-1.150467e-06	-5.139985e-09	-7.998706e+00	-3.378034e+02
7.400000e-07	-1.021726e-06	-4.922526e-09	-7.103628e+00	-3.235909e+02
7.500000e-07	-8.927337e-07	-4.699066e-09	-6.206796e+00	-3.089925e+02
7.600000e-07	-7.635200e-07	-4.469272e-09	-5.308428e+00	-2.939954e+02
7.700000e-07	-6.340853e-07	-4.233785e-09	-4.408524e+00	-2.785850e+02
7.800000e-07	-5.044438e-07	-3.992949e-09	-3.507183e+00	-2.627441e+02
7.900000e-07	-3.745627e-07	-3.746995e-09	-2.604175e+00	-2.464530e+02
8.000000e-07	-2.444560e-07	-3.492960e-09	-1.699598e+00	-2.296893e+02
8.100000e-07	-1.142158e-07	-3.229615e-09	-7.940938e-01	-2.124290e+02
8.200000e-07	1.616544e-08	-2.958396e-09	1.123914e-01	-1.946459e+02
8.300000e-07	1.466311e-07	-2.678154e-09	1.019464e+00	-1.763120e+02
8.400000e-07	2.771078e-07	-2.387562e-09	1.926612e+00	-1.573962e+02
8.500000e-07	4.074687e-07	-2.086751e-09	2.832956e+00	-1.378644e+02
8.600000e-07	5.376454e-07	-1.775451e-09	3.738019e+00	-1.176782e+02
8.700000e-07	6.675851e-07	-1.452993e-09	4.641434e+00	-9.679624e+01
8.800000e-07	7.972316e-07	-1.123012e-09	5.542811e+00	-7.517670e+01
8.900000e-07	9.266317e-07	-7.856044e-10	6.442474e+00	-5.278177e+01
9.000000e-07	1.055731e-06	-4.361918e-10	7.340048e+00	-2.958466e+01
9.100000e-07	1.184561e-06	-7.085631e-11	8.235749e+00	-5.577885e+00
9.200000e-07	1.313097e-06	3.100307e-10	9.129406e+00	1.921796e+01
9.300000e-07	1.441219e-06	7.019974e-10	1.002018e+01	4.474656e+01
9.400000e-07	1.568779e-06	1.102568e-09	1.090705e+01	7.091091e+01
9.500000e-07	1.695685e-06	1.510412e-09	1.178937e+01	9.757238e+01
9.600000e-07	1.821976e-06	1.921200e-09	1.266742e+01	1.245546e+02
9.700000e-07	1.947629e-06	2.332511e-09	1.354103e+01	1.516521e+02
9.800000e-07	2.072618e-06	2.741743e-09	1.441003e+01	1.786434e+02
9.900000e-07	2.196968e-06	3.145715e-09	1.527458e+01	2.053057e+02
1.000000e-06	2.320600e-06	3.541337e-09	1.613414e+01	2.314309e+02
1.010000e-06	2.443264e-06	3.926168e-09	1.698697e+01	2.568394e+02
1.020000e-06	2.564845e-06	4.300191e-09	1.783228e+01	2.813904e+02
1.030000e-06	2.685456e-06	4.659593e-09	1.867083e+01	3.049875e+02
1.040000e-06	2.805067e-06	5.001887e-09	1.950243e+01	3.275784e+02
1.050000e-06	2.923661e-06	5.330831e-09	2.032697e+01	3.491511e+02
1.060000e-06	3.041265e-06	5.646235e-09	2.114462e+01	3.697254e+02
1.070000e-06	3.157776e-06	5.946554e-09	2.195467e+01	3.893428e+02
1.080000e-06	3.272969e-06	6.230898e-09	2.275556e+01	4.080566e+02
1.090000e-06	3.386735e-06	6.502260e-09	2.354652e+01	4.259235e+02
1.100000e-06	3.499200e-06	6.761350e-09	2.432844e+01	4.429966e+02
1.110000e-06	3.610429e-06	7.008434e-09	2.510177e+01	4.593229e+02
1.120000e-06	3.720466e-06	7.244948e-09	2.586681e+01	4.749419e+02
1.130000e-06	3.829386e-06	7.471862e-09	2.662409e+01	4.898874e+02
1.140000e-06	3.937102e-06	7.691063e-09	2.737299e+01	5.041891e+02
1.150000e-06	4.043314e-06	7.901462e-09	2.811143e+01	5.178756e+02
1.160000e-06	4.147944e-06	8.101379e-09	2.883888e+01	5.309758e+02
1.170000e-06	4.251068e-06	8.291026e-09	2.955586e+01	5.435195e+02
1.180000e-06	4.352718e-06	8.472185e-09	3.026259e+01	5.555373e+02
1.190000e-06	4.452987e-06	8.645222e-09	3.095972e+01	5.670592e+02
1.200000e-06	4.551667e-06	8.812871e-09	3.164580e+01	5.781138e+02
1.210000e-06	4.648496e-06	8.973655e-09	3.231901e+01	5.887264e+02
1.220000e-06	4.743590e-06	9.129238e-09	3.298016e+01	5.989184e+02
1.230000e-06	4.837071e-06	9.279440e-09	3.363009e+01	6.087073e+02
1.240000e-06	4.928959e-06	9.423536e-09	3.426895e+01	6.181065e+02
1.250000e-06	5.019040e-06	9.562465e-09	3.489524e+01	6.271265e+02
1.260000e-06	5.107159e-06	9.696785e-09	3.550790e+01	6.357753e+02
1.270000e-06	5.193470e-06	9.824760e-09	3.610798e+01	6.440592e+02
1.280000e-06	5.278046e-06	9.945407e-09	3.669600e+01	6.519838e+02
1.290000e-06	5.360733e-06	1.006114e-08	3.727089e+01	6.595540e+02
1.300000e-06	5.441374e-06	1.017041e-08	3.783155e+01	6.667747e+02
1.310000e-06	5.520063e-06	1.027353e-08	3.837864e+01	6.736515e+02
1.320000e-06	5.596833e-06	1.037281e-08	3.891239e+01	6.801912e+02
1.330000e-06	5.671463e-06	1.046782e-08	3.943126e+01	6.864025e+02
1.340000e-06	5.743875e-06	1.055756e-08	3.993471e+01	6.922967e+02
1.350000e-06	5.814195e-06	1.064194e-08	4.042362e+01	6.978880e+02
1.360000e-06	5.882519e-06	1.072170e-08	4.089864e+01	7.031938e+02
1.370000e-06	5.948721e-06	1.079752e-08	4.135892e+01	7.082335e+02
1.380000e-06	6.012725e-06	1.086952e-08	4.180391e+01	7.130274e+02
1.390000e-06	6.074661e-06	1.093800e-08	4.223452e+01	7.175951e+02
1.400000e-06	6.134604e-06	1.100412e-08	4.265128e+01	7.219536e+02
1.410000e-06	6.192391e-06	1.106869e-08	4.305305e+01	7.261159e+02
1.420000e-06	6.247948e-06	1.113042e-08	4.343932e+01	7.300899e+02
1.430000e-06	6.301228e-06	1.118869e-08	4.380975e+01	7.338784e+02
1.440000e-06	6.351880e-06	1.124495e-08	4.416191e+01	7.374798e+02
1.450000e-06	6.399957e-06	1.129891e-08	4.449617e+01	7.408897e+02
1.460000e-06	6.445795e-06	1.134833e-08	4.481486e+01	7.441025e+02
1.470000e-06	6.489518e-06	1.139462e-08	4.511885e+01	7.471130e+02
1.480000e-06	6.530930e-06	1.143650e-08	4.540677e+01	7.499180e+02
1.490000e-06	6.569916e-06	1.147439e-08	4.567782e+01	7.525170e+02
1.500000e-06	6.606685e-06	1.150978e-08	4.593346e+01	7.549116e+02
1.510000e-06	6.641149e-06	1.154398e-08	4.617307e+01	7.571056e+02
1.520000e-06	6.673161e-06	1.157593e-08	4.639564e+01	7.591035e+02
1.530000e-06	6.702890e-06	1.160310e-08	4.660233e+01	7.609097e+02
1.540000e-06	6.730367e-06	1.162691e-08	4.679337e+01	7.625283e+02
1.550000e-06	6.755273e-06	1.164712e-08	4.696653e+01	7.639629e+02
1.560000e-06	6.777606e-06	1.166357e-08	4.712180e+01	7.652169e+02
1.570000e-06	6.797733e-06	1.167540e-08	4.726174e+01	7.662945e+02
1.580000e-06	6.815491e-06	1.168582e-08	4.738520e+01	7.672013e+02
1.590000e-06	6.830633e-06	1.169672e-08	4.749048e+01	7.679444e+02
1.600000e-06	6.843202e-06	1.170642e-08	4.757786e+01	7.685327e+02
1.610000e-06	6.853093e-06	1.171474e-08	4.764663e+01	7.689753e+02
1.620000e-06	6.860387e-06	1.172115e-08	4.769734e+01	7.692805e+02
1.630000e-06	6.865383e-06	1.172697e-08	4.773208e+01	7.694542e+02
1.640000e-06	6.867997e-06	1.173147e-08	4.775025e+01	7.694984e+02
1.650000e-06	6.868069e-06	1.173274e-08	4.775075e+01	7.694108e+02
1.660000e-06	6.865786e-06	1.172417e-08	4.773488e+01	7.691856e+02
1.670000e-06	6.861317e-06	1.171451e-08	4.770381e+01	7.688145e+02
1.680000e-06	6.854563e-06	1.170476e-08	4.765685e+01	7.682897e+02
1.690000e-06	6.845576e-06	1.169141e-08	4.759437e+01	7.676060e+02
1.700000e-06	6.834406e-06	1.167824e-08	4.751671e+01	7.667641e+02
1.710000e-06	6.820790e-06	1.166854e-08	4.742204e+01	7.657716e+02
1.720000e-06	6.804842e-06	1.167020e-08	4.731116e+01	7.646433e+02
1.730000e-06	6.786870e-06	1.162746e-08	4.718621e+01	7.634005e+02
1.740000e-06	6.766454e-06	1.155249e-08	4.704426e+01	7.620678e+02
1.750000e-06	6.742786e-06	1.155469e-08	4.687971e+01	7.606694e+02
1.760000e-06	6.716007e-06	1.155517e-08	4.669353e+01	7.592253e+02
1.770000e-06	6.686767e-06	1.153250e-08	4.649023e+01	7.577475e+02
1.780000e-06	6.655542e-06	1.159129e-08	4.627314e+01	7.562373e+02
1.790000e-06	6.622873e-06	1.151373e-08	4.604601e+01	7.546847e+02
1.800000e-06	6.588603e-06	1.140761e-08	4.580774e+01	7.530690e+02
1.810000e-06	6.551804e-06	1.148262e-08	4.555190e+01	7.513615e+02
1.820000e-06	6.512580e-06	1.139536e-08	4.527919e+01	7.495291e+02
1.830000e-06	6.471340e-06	1.140237e-08	4.499246e+01	7.475385e+02
1.840000e-06	6.427888e-06	1.143512e-08	4.469036e+01	7.453607e+02
1.850000e-06	6.382233e-06	1.128150e-08	4.437294e+01	7.429742e+02
1.860000e-06	6.334133e-06	1.129828e-08	4.403852e+01	7.403670e+02
1.870000e-06	6.283697e-06	1.121808e-08	4.368786e+01	7.375371e+02
1.880000e-06	6.230861e-06	1.115987e-08	4.332052e+01	7.344917e+02
1.890000e-06	6.175316e-06	1.116717e-08	4.293433e+01	7.312448e+02
1.900000e-06	6.117414e-06	1.105869e-08	4.253177e+01	7.278141e+02
1.910000e-06	6.057221e-06	1.108100e-08	4.211327e+01	7.242182e+02
1.920000e-06	5.994724e-06	1.098605e-08	4.167876e+01	7.204732e+02
1.930000e-06	5.930115e-06	1.089980e-08	4.122956e+01	7.165908e+02
1.940000e-06	5.863389e-06	1.088270e-08	4.076564e+01	7.125772e+02
1.950000e-06	5.794456e-06	1.077666e-08	4.028638e+01	7.084328e+02
1.960000e-06	5.723132e-06	1.074928e-08	3.979049e+01	7.041534e+02
1.970000e-06	5.649610e-06	1.064517e-08	3.927933e+01	6.997314e+02
1.980000e-06	5.573968e-06	1.060940e-08	3.875342e+01	6.951579e+02
1.990000e-06	5.496046e-06	1.055168e-08	3.821166e+01	6.904248e+02
2.000000e-06	5.416025e-06	1.043374e-08	3.765531e+01	6.855254e+02
2.010000e-06	5.334151e-06	1.037542e-08	3.708608e+01	6.804559e+02
2.020000e-06	5.250546e-06	1.027692e-08	3.650481e+01	6.752150e+02
2.030000e-06	5.164974e-06	1.021683e-08	3.590986e+01	6.698030e+02
2.040000e-06	5.077389e-06	1.012589e-08	3.530092e+01	6.642213e+02
2.050000e-06	4.988060e-06	1.006026e-08	3.467985e+01	6.584705e+02
2.060000e-06	4.897197e-06	9.965313e-09	3.404812e+01	6.525495e+02
2.070000e-06	4.804752e-06	9.838733e-09	3.340539e+01	6.464552e+02
2.080000e-06	4.710447e-06	9.741635e-09	3.274973e+01	6.401823e+02
2.090000e-06	4.614365e-06	9.640466e-09	3.208171e+01	6.337241e+02
2.100000e-06	4.516745e-06	9.563856e-09	3.140300e+01	6.270738e+02
2.110000e-06	4.417690e-06	9.455491e-09	3.071431e+01	6.202256e+02
2.120000e-06	4.317193e-06	9.356143e-09	3.001560e+01	6.131760e+02
2.130000e-06	4.215054e-06	9.244322e-09	2.930547e+01	6.059243e+02
2.140000e-06	4.111190e-06	9.125531e-09	2.858335e+01	5.984726e+02
2.150000e-06	4.005844e-06	9.002888e-09	2.785092e+01	5.908245e+02
2.160000e-06	3.899186e-06	8.883837e-09	2.710937e+01	5.829841e+02
2.170000e-06	3.791195e-06	8.771509e-09	2.635856e+01	5.749538e+02
2.180000e-06	3.681877e-06	8.647165e-09	2.559852e+01	5.667326e+02
2.190000e-06	3.571072e-06	8.520583e-09	2.482814e+01	5.583154e+02
2.200000e-06	3.458890e-06	8.382273e-09	2.404819e+01	5.496929e+02
2.210000e-06	3.345424e-06	8.249771e-09	2.325931e+01	5.408519e+02
2.220000e-06	3.230608e-06	8.107658e-09	2.246104e+01	5.317775e+02
2.230000e-06	3.114519e-06	7.964940e-09	2.165392e+01	5.224550e+02
2.240000e-06	2.997267e-06	7.821353e-09	2.083872e+01	5.128720e+02
2.250000e-06	2.878759e-06	7.681154e-09	2.001478e+01	5.030198e+02
2.260000e-06	2.758911e-06	7.531358e-09	1.918153e+01	4.928945e+02
2.270000e-06	2.638079e-06	7.367561e-09	1.834144e+01	4.824964e+02
2.280000e-06	2.516445e-06	7.199058e-09	1.749577e+01	4.718283e+02
2.290000e-06	2.393946e-06	7.028826e-09	1.664408e+01	4.608940e+02
2.300000e-06	2.270522e-06	6.857796e-09	1.578597e+01	4.496961e+02
2.310000e-06	2.146290e-06	6.686940e-09	1.492224e+01	4.382337e+02
2.320000e-06	2.021502e-06	6.519382e-09	1.405464e+01	4.265017e+02
2.330000e-06	1.896214e-06	6.338908e-09	1.318357e+01	4.144904e+02
2.340000e-06	1.770153e-06	6.146597e-09	1.230712e+01	4.021865e+02
2.350000e-06	1.643222e-06	5.947528e-09	1.142462e+01	3.895745e+02
2.360000e-06	1.515622e-06	5.750985e-09	1.053747e+01	3.766380e+02
2.370000e-06	1.387523e-06	5.553090e-09	9.646857e+00	3.633613e+02
2.380000e-06	1.258999e-06	5.346510e-09	8.753280e+00	3.497301e+02
2.390000e-06	1.130132e-06	5.134154e-09	7.857322e+00	3.357317e+02
2.400000e-06	1.001002e-06	4.912674e-09	6.959539e+00	3.213541e+02
2.410000e-06	8.716237e-07	4.685100e-09	6.060027e+00	3.065854e+02
2.420000e-06	7.419667e-07	4.453086e-09	5.158578e+00	2.914119e+02
2.430000e-06	6.121118e-07	4.215909e-09	4.255752e+00	2.758181e+02
2.440000e-06	4.820853e-07	3.972014e-09	3.351734e+00	2.597857e+02
2.450000e-06	3.518531e-07	3.718723e-09	2.446285e+00	2.432937e+02
2.460000e-06	2.214764e-07	3.457620e-09	1.539831e+00	2.263191e+02
2.470000e-06	9.097363e-08	3.191750e-09	6.325008e-01	2.088369e+02
2.480000e-06	-3.957578e-08	2.922520e-09	-2.751535e-01	1.908202e+02
2.490000e-06	-1.701270e-07	2.642420e-09	-1.182821e+00	1.722397e+02
2.500000e-06	-3.006446e-07	2.347723e-09	-2.090253e+00	1.530632e+02
2.510000e-06	-4.310530e-07	2.043000e-09	-2.996927e+00	1.332547e+02
2.520000e-06	-5.613694e-07	1.731475e-09	-3.902962e+00	1.127743e+02
2.530000e-06	-6.915075e-07	1.410933e-09	-4.807756e+00	9.158012e+01
2.540000e-06	-8.213728e-07	1.078554e-09	-5.710654e+00	6.963128e+01
2.550000e-06	-9.509793e-07	7.332873e-10	-6.611753e+00	4.689376e+01
2.560000e-06	-1.080315e-06	3.740390e-10	-7.510967e+00	2.334797e+01
2.570000e-06	-1.209317e-06	2.723298e-12	-8.407868e+00	-1.002584e+00
2.580000e-06	-1.337967e-06	-3.783828e-10	-9.302310e+00	-2.612281e+01
2.590000e-06	-1.466236e-06	-7.695828e-10	-1.019412e+01	-5.193937e+01
2.600000e-06	-1.594002e-06	-1.174155e-09	-1.108242e+01	-7.833724e+01
2.610000e-06	-1.721042e-06	-1.586845e-09	-1.196567e+01	-1.051609e+02
2.620000e-06	-1.847170e-06	-2.001099e-09	-1.284258e+01	-1.322201e+02
2.630000e-06	-1.972520e-06	-2.413967e-09	-1.371409e+01	-1.593008e+02
2.640000e-06	-2.097227e-06	-2.823040e-09	-1.458113e+01	-1.861790e+02
2.650000e-06	-2.221194e-06	-3.227311e-09	-1.544301e+01	-2.126364e+02
2.660000e-06	-2.344251e-06	-3.623483e-09	-1.629857e+01	-2.384755e+02
2.670000e-06	-2.466323e-06	-4.007670e-09	-1.714729e+01	-2.635324e+02
2.680000e-06	-2.587516e-06	-4.378954e-09	-1.798989e+01	-2.876849e+02
2.690000e-06	-2.707900e-06	-4.735036e-09	-1.882687e+01	-3.108558e+02
2.700000e-06	-2.827283e-06	-5.073176e-09	-1.965689e+01	-3.330109e+02
2.710000e-06	-2.945405e-06	-5.394987e-09	-2.047815e+01	-3.541529e+02
2.720000e-06	-3.062329e-06	-5.702538e-09	-2.129106e+01	-3.743123e+02
2.730000e-06	-3.178077e-06	-5.995197e-09	-2.209581e+01	-3.935367e+02
2.740000e-06	-3.292518e-06	-6.273674e-09	-2.289147e+01	-4.118819e+02
2.750000e-06	-3.405625e-06	-6.542285e-09	-2.367785e+01	-4.294035e+02
2.760000e-06	-3.517339e-06	-6.801164e-09	-2.445456e+01	-4.461524e+02
2.770000e-06	-3.627704e-06	-7.048095e-09	-2.522188e+01	-4.621723e+02
2.780000e-06	-3.736899e-06	-7.281645e-09	-2.598106e+01	-4.774999e+02
2.790000e-06	-3.844975e-06	-7.503489e-09	-2.673247e+01	-4.921671e+02
2.800000e-06	-3.951752e-06	-7.716174e-09	-2.747485e+01	-5.062029e+02
2.810000e-06	-4.057120e-06	-7.920809e-09	-2.820742e+01	-5.196357e+02
2.820000e-06	-4.161024e-06	-8.118517e-09	-2.892982e+01	-5.324948e+02
2.830000e-06	-4.263341e-06	-8.309220e-09	-2.964119e+01	-5.448105e+02
2.840000e-06	-4.364032e-06	-8.491703e-09	-3.034125e+01	-5.566133e+02
2.850000e-06	-4.463233e-06	-8.665025e-09	-3.103095e+01	-5.679328e+02
2.860000e-06	-4.560993e-06	-8.831199e-09	-3.171063e+01	-5.787962e+02
2.870000e-06	-4.657192e-06	-8.992979e-09	-3.237947e+01	-5.892273e+02
2.880000e-06	-4.751656e-06	-9.146757e-09	-3.303624e+01	-5.992458e+02
2.890000e-06	-4.844345e-06	-9.290397e-09	-3.368066e+01	-6.088674e+02
2.900000e-06	-4.935310e-06	-9.426563e-09	-3.431310e+01	-6.181041e+02
2.910000e-06	-5.024512e-06	-9.559084e-09	-3.493329e+01	-6.269653e+02
2.920000e-06	-5.111897e-06	-9.689757e-09	-3.554084e+01	-6.354582e+02
2.930000e-06	-5.197309e-06	-9.815143e-09	-3.613467e+01	-6.435886e+02
2.940000e-06	-5.280800e-06	-9.933489e-09	-3.671515e+01	-6.513619e+02
