# Temperatura_=_55.54
# Concentracion g/m^3_=_15000.0
# C_Vs_to_Am_M_A/Vsm_=_65563218390.804596
# pendiente_HvsI_1/m_=_3716.3
# ordenada_HvsI_A/m_=_1297.0
# frecuencia_Hz_=_301973.0958090695

Tiempo_(s)	Campo_(V.s)	Magnetizacion_(V.s)	Campo_(kA/m)	Magnetizacion_(A/m)
0.000000e+00	-6.883747e-06	-1.058069e-08	-4.747260e+01	-6.932149e+02
1.000000e-08	-6.880143e-06	-1.057753e-08	-4.744774e+01	-6.929515e+02
2.000000e-08	-6.874360e-06	-1.057044e-08	-4.740786e+01	-6.925467e+02
3.000000e-08	-6.866357e-06	-1.056241e-08	-4.735267e+01	-6.920015e+02
4.000000e-08	-6.855920e-06	-1.055304e-08	-4.728070e+01	-6.913227e+02
5.000000e-08	-6.842974e-06	-1.054077e-08	-4.719141e+01	-6.905220e+02
6.000000e-08	-6.827521e-06	-1.052558e-08	-4.708484e+01	-6.896139e+02
7.000000e-08	-6.809825e-06	-1.051002e-08	-4.696281e+01	-6.886139e+02
8.000000e-08	-6.790065e-06	-1.051646e-08	-4.682654e+01	-6.875363e+02
9.000000e-08	-6.767828e-06	-1.053041e-08	-4.667318e+01	-6.863921e+02
1.000000e-07	-6.742775e-06	-1.049580e-08	-4.650041e+01	-6.851884e+02
1.100000e-07	-6.714983e-06	-1.044817e-08	-4.630874e+01	-6.839287e+02
1.200000e-07	-6.684913e-06	-1.042050e-08	-4.610137e+01	-6.826127e+02
1.300000e-07	-6.652862e-06	-1.037254e-08	-4.588034e+01	-6.812378e+02
1.400000e-07	-6.618785e-06	-1.033259e-08	-4.564533e+01	-6.797991e+02
1.500000e-07	-6.582771e-06	-1.037533e-08	-4.539697e+01	-6.782896e+02
1.600000e-07	-6.544735e-06	-1.034541e-08	-4.513466e+01	-6.766995e+02
1.700000e-07	-6.504593e-06	-1.027209e-08	-4.485783e+01	-6.750158e+02
1.800000e-07	-6.462082e-06	-1.027296e-08	-4.456466e+01	-6.732215e+02
1.900000e-07	-6.417040e-06	-1.021435e-08	-4.425403e+01	-6.712964e+02
2.000000e-07	-6.369628e-06	-1.017621e-08	-4.392707e+01	-6.692183e+02
2.100000e-07	-6.319596e-06	-1.018978e-08	-4.358203e+01	-6.669659e+02
2.200000e-07	-6.266955e-06	-1.017695e-08	-4.321900e+01	-6.645216e+02
2.300000e-07	-6.211953e-06	-1.011889e-08	-4.283968e+01	-6.618755e+02
2.400000e-07	-6.154507e-06	-1.002961e-08	-4.244352e+01	-6.590280e+02
2.500000e-07	-6.094700e-06	-9.988497e-09	-4.203107e+01	-6.559900e+02
2.600000e-07	-6.032749e-06	-9.942943e-09	-4.160384e+01	-6.527826e+02
2.700000e-07	-5.968611e-06	-9.883113e-09	-4.116152e+01	-6.494330e+02
2.800000e-07	-5.902165e-06	-9.851614e-09	-4.070328e+01	-6.459696e+02
2.900000e-07	-5.833442e-06	-9.795186e-09	-4.022935e+01	-6.424164e+02
3.000000e-07	-5.762642e-06	-9.735538e-09	-3.974108e+01	-6.387881e+02
3.100000e-07	-5.689670e-06	-9.685603e-09	-3.923785e+01	-6.350866e+02
3.200000e-07	-5.614369e-06	-9.639724e-09	-3.871855e+01	-6.313008e+02
3.300000e-07	-5.536728e-06	-9.574095e-09	-3.818311e+01	-6.274090e+02
3.400000e-07	-5.456822e-06	-9.492406e-09	-3.763205e+01	-6.233835e+02
3.500000e-07	-5.374940e-06	-9.429473e-09	-3.706736e+01	-6.191963e+02
3.600000e-07	-5.291335e-06	-9.374238e-09	-3.649080e+01	-6.148256e+02
3.700000e-07	-5.206043e-06	-9.320469e-09	-3.590260e+01	-6.102594e+02
3.800000e-07	-5.119000e-06	-9.244081e-09	-3.530232e+01	-6.054974e+02
3.900000e-07	-5.030091e-06	-9.159411e-09	-3.468918e+01	-6.005496e+02
4.000000e-07	-4.939341e-06	-9.072673e-09	-3.406333e+01	-5.954329e+02
4.100000e-07	-4.846911e-06	-8.991822e-09	-3.342591e+01	-5.901651e+02
4.200000e-07	-4.752880e-06	-8.931189e-09	-3.277744e+01	-5.847602e+02
4.300000e-07	-4.657163e-06	-8.856479e-09	-3.211734e+01	-5.792238e+02
4.400000e-07	-4.559665e-06	-8.760411e-09	-3.144496e+01	-5.735518e+02
4.500000e-07	-4.460444e-06	-8.658863e-09	-3.076070e+01	-5.677314e+02
4.600000e-07	-4.359681e-06	-8.564434e-09	-3.006580e+01	-5.617441e+02
4.700000e-07	-4.257518e-06	-8.469864e-09	-2.936126e+01	-5.555711e+02
4.800000e-07	-4.153840e-06	-8.377077e-09	-2.864626e+01	-5.491974e+02
4.900000e-07	-4.048603e-06	-8.282475e-09	-2.792051e+01	-5.426158e+02
5.000000e-07	-3.941781e-06	-8.174219e-09	-2.718382e+01	-5.358273e+02
5.100000e-07	-3.833434e-06	-8.065598e-09	-2.643663e+01	-5.288401e+02
5.200000e-07	-3.723824e-06	-7.963608e-09	-2.568073e+01	-5.216658e+02
5.300000e-07	-3.613031e-06	-7.855753e-09	-2.491666e+01	-5.143146e+02
5.400000e-07	-3.500861e-06	-7.733147e-09	-2.414310e+01	-5.067910e+02
5.500000e-07	-3.387124e-06	-7.608028e-09	-2.335873e+01	-4.990907e+02
5.600000e-07	-3.271845e-06	-7.487639e-09	-2.256373e+01	-4.911998e+02
5.700000e-07	-3.155218e-06	-7.368681e-09	-2.175943e+01	-4.830975e+02
5.800000e-07	-3.037432e-06	-7.247399e-09	-2.094713e+01	-4.747594e+02
5.900000e-07	-2.918541e-06	-7.119964e-09	-2.012723e+01	-4.661629e+02
6.000000e-07	-2.798505e-06	-6.981226e-09	-1.929942e+01	-4.572917e+02
6.100000e-07	-2.677377e-06	-6.833417e-09	-1.846408e+01	-4.481386e+02
6.200000e-07	-2.555300e-06	-6.688692e-09	-1.762220e+01	-4.387056e+02
6.300000e-07	-2.432274e-06	-6.547174e-09	-1.677377e+01	-4.290026e+02
6.400000e-07	-2.308325e-06	-6.396540e-09	-1.591898e+01	-4.190423e+02
6.500000e-07	-2.183547e-06	-6.234334e-09	-1.505846e+01	-4.088363e+02
6.600000e-07	-2.058092e-06	-6.069793e-09	-1.419328e+01	-3.983898e+02
6.700000e-07	-1.932071e-06	-5.904859e-09	-1.332420e+01	-3.876995e+02
6.800000e-07	-1.805459e-06	-5.737480e-09	-1.245105e+01	-3.767527e+02
6.900000e-07	-1.678155e-06	-5.568109e-09	-1.157311e+01	-3.655293e+02
7.000000e-07	-1.550138e-06	-5.392540e-09	-1.069027e+01	-3.540055e+02
7.100000e-07	-1.421518e-06	-5.209323e-09	-9.803257e+00	-3.421579e+02
7.200000e-07	-1.292407e-06	-5.023587e-09	-8.912867e+00	-3.299671e+02
7.300000e-07	-1.162945e-06	-4.834355e-09	-8.020054e+00	-3.174200e+02
7.400000e-07	-1.033166e-06	-4.637931e-09	-7.125053e+00	-3.045095e+02
7.500000e-07	-9.030424e-07	-4.433459e-09	-6.227680e+00	-2.912327e+02
7.600000e-07	-7.726122e-07	-4.222739e-09	-5.328190e+00	-2.775875e+02
7.700000e-07	-6.419200e-07	-4.008130e-09	-4.426893e+00	-2.635694e+02
7.800000e-07	-5.109860e-07	-3.789886e-09	-3.523929e+00	-2.491682e+02
7.900000e-07	-3.798725e-07	-3.567540e-09	-2.619727e+00	-2.343667e+02
8.000000e-07	-2.485960e-07	-3.337899e-09	-1.714400e+00	-2.191414e+02
8.100000e-07	-1.171192e-07	-3.098426e-09	-8.076925e-01	-2.034642e+02
8.200000e-07	1.447032e-08	-2.851890e-09	9.979214e-02	-1.873045e+02
8.300000e-07	1.460730e-07	-2.598651e-09	1.007368e+00	-1.706321e+02
8.400000e-07	2.776545e-07	-2.336991e-09	1.914797e+00	-1.534176e+02
8.500000e-07	4.091177e-07	-2.066135e-09	2.821411e+00	-1.356332e+02
8.600000e-07	5.404153e-07	-1.784261e-09	3.726883e+00	-1.172506e+02
8.700000e-07	6.715614e-07	-1.491121e-09	4.631310e+00	-9.824034e+01
8.800000e-07	8.025121e-07	-1.189440e-09	5.534389e+00	-7.857066e+01
8.900000e-07	9.331846e-07	-8.808716e-10	6.435550e+00	-5.820945e+01
9.000000e-07	1.063530e-06	-5.618903e-10	7.334454e+00	-3.712845e+01
9.100000e-07	1.193511e-06	-2.284969e-10	8.230846e+00	-1.531048e+01
9.200000e-07	1.323124e-06	1.180158e-10	9.124701e+00	7.241328e+00
9.300000e-07	1.452329e-06	4.747184e-10	1.001574e+01	3.049394e+01
9.400000e-07	1.581026e-06	8.403838e-10	1.090328e+01	5.437647e+01
9.500000e-07	1.709063e-06	1.213212e-09	1.178627e+01	7.877593e+01
9.600000e-07	1.836375e-06	1.592888e-09	1.266425e+01	1.035382e+02
9.700000e-07	1.962956e-06	1.977561e-09	1.353720e+01	1.284749e+02
9.800000e-07	2.088835e-06	2.360770e-09	1.440530e+01	1.533757e+02
9.900000e-07	2.214112e-06	2.735809e-09	1.526925e+01	1.780239e+02
1.000000e-06	2.338659e-06	3.101203e-09	1.612817e+01	2.022139e+02
1.010000e-06	2.462277e-06	3.457362e-09	1.698068e+01	2.257671e+02
1.020000e-06	2.584922e-06	3.802873e-09	1.782648e+01	2.485434e+02
1.030000e-06	2.706645e-06	4.136078e-09	1.866592e+01	2.704480e+02
1.040000e-06	2.827418e-06	4.455532e-09	1.949881e+01	2.914315e+02
1.050000e-06	2.947081e-06	4.763097e-09	2.032405e+01	3.114842e+02
1.060000e-06	3.065578e-06	5.057505e-09	2.114124e+01	3.306270e+02
1.070000e-06	3.182998e-06	5.337889e-09	2.195101e+01	3.488997e+02
1.080000e-06	3.299193e-06	5.603778e-09	2.275233e+01	3.663503e+02
1.090000e-06	3.414074e-06	5.854244e-09	2.354459e+01	3.830258e+02
1.100000e-06	3.527651e-06	6.092519e-09	2.432785e+01	3.989672e+02
1.110000e-06	3.639837e-06	6.320592e-09	2.510152e+01	4.142076e+02
1.120000e-06	3.750689e-06	6.541272e-09	2.586599e+01	4.287733e+02
1.130000e-06	3.860279e-06	6.754252e-09	2.662176e+01	4.426872e+02
1.140000e-06	3.968620e-06	6.956068e-09	2.736892e+01	4.559724e+02
1.150000e-06	4.075678e-06	7.148078e-09	2.810723e+01	4.686552e+02
1.160000e-06	4.181332e-06	7.332031e-09	2.883585e+01	4.807666e+02
1.170000e-06	4.285368e-06	7.507362e-09	2.955332e+01	4.923413e+02
1.180000e-06	4.387815e-06	7.675668e-09	3.025983e+01	5.034162e+02
1.190000e-06	4.488826e-06	7.837062e-09	3.095643e+01	5.140268e+02
1.200000e-06	4.588307e-06	7.992343e-09	3.164248e+01	5.242045e+02
1.210000e-06	4.686067e-06	8.141006e-09	3.231667e+01	5.339744e+02
1.220000e-06	4.782029e-06	8.283863e-09	3.297846e+01	5.433537e+02
1.230000e-06	4.876217e-06	8.422610e-09	3.362801e+01	5.523528e+02
1.240000e-06	4.968742e-06	8.556564e-09	3.426609e+01	5.609763e+02
1.250000e-06	5.059606e-06	8.684125e-09	3.489272e+01	5.692255e+02
1.260000e-06	5.148599e-06	8.805751e-09	3.550645e+01	5.771013e+02
1.270000e-06	5.235626e-06	8.920946e-09	3.610661e+01	5.846060e+02
1.280000e-06	5.320813e-06	9.029737e-09	3.669409e+01	5.917451e+02
1.290000e-06	5.404183e-06	9.133456e-09	3.726903e+01	5.985280e+02
1.300000e-06	5.485580e-06	9.229899e-09	3.783038e+01	6.049683e+02
1.310000e-06	5.564982e-06	9.320882e-09	3.837796e+01	6.110829e+02
1.320000e-06	5.642390e-06	9.407952e-09	3.891179e+01	6.168910e+02
1.330000e-06	5.717690e-06	9.491525e-09	3.943108e+01	6.224135e+02
1.340000e-06	5.790768e-06	9.572379e-09	3.993505e+01	6.276713e+02
1.350000e-06	5.861643e-06	9.649692e-09	4.042383e+01	6.326843e+02
1.360000e-06	5.930446e-06	9.723391e-09	4.089832e+01	6.374706e+02
1.370000e-06	5.997213e-06	9.793191e-09	4.135877e+01	6.420457e+02
1.380000e-06	6.061801e-06	9.859975e-09	4.180419e+01	6.464214e+02
1.390000e-06	6.124193e-06	9.923550e-09	4.223446e+01	6.506060e+02
1.400000e-06	6.184580e-06	9.983664e-09	4.265091e+01	6.546039e+02
1.410000e-06	6.242845e-06	1.004127e-08	4.305273e+01	6.584165e+02
1.420000e-06	6.298791e-06	1.009602e-08	4.343855e+01	6.620428e+02
1.430000e-06	6.352435e-06	1.014880e-08	4.380850e+01	6.654805e+02
1.440000e-06	6.403625e-06	1.019995e-08	4.416152e+01	6.687274e+02
1.450000e-06	6.452216e-06	1.024858e-08	4.449662e+01	6.717822e+02
1.460000e-06	6.498405e-06	1.029323e-08	4.481515e+01	6.746451e+02
1.470000e-06	6.542420e-06	1.033388e-08	4.511870e+01	6.773178e+02
1.480000e-06	6.584146e-06	1.037044e-08	4.540646e+01	6.798029e+02
1.490000e-06	6.623443e-06	1.040392e-08	4.567745e+01	6.821034e+02
1.500000e-06	6.660504e-06	1.043527e-08	4.593304e+01	6.842222e+02
1.510000e-06	6.695299e-06	1.046429e-08	4.617300e+01	6.861610e+02
1.520000e-06	6.727557e-06	1.049104e-08	4.639546e+01	6.879210e+02
1.530000e-06	6.757403e-06	1.051559e-08	4.660129e+01	6.895033e+02
1.540000e-06	6.785031e-06	1.053742e-08	4.679182e+01	6.909099e+02
1.550000e-06	6.810188e-06	1.055537e-08	4.696531e+01	6.921446e+02
1.560000e-06	6.832763e-06	1.056945e-08	4.712100e+01	6.932144e+02
1.570000e-06	6.853033e-06	1.058031e-08	4.726078e+01	6.941285e+02
1.580000e-06	6.870943e-06	1.058926e-08	4.738430e+01	6.948989e+02
1.590000e-06	6.886248e-06	1.059815e-08	4.748985e+01	6.955379e+02
1.600000e-06	6.898956e-06	1.060701e-08	4.757748e+01	6.960569e+02
1.610000e-06	6.909026e-06	1.061335e-08	4.764693e+01	6.964638e+02
1.620000e-06	6.916410e-06	1.061784e-08	4.769786e+01	6.967623e+02
1.630000e-06	6.921351e-06	1.062345e-08	4.773193e+01	6.969508e+02
1.640000e-06	6.923948e-06	1.062749e-08	4.774984e+01	6.970234e+02
1.650000e-06	6.924080e-06	1.062745e-08	4.775075e+01	6.969715e+02
1.660000e-06	6.921852e-06	1.062014e-08	4.773539e+01	6.967864e+02
1.670000e-06	6.917416e-06	1.061076e-08	4.770479e+01	6.964617e+02
1.680000e-06	6.910609e-06	1.060308e-08	4.765785e+01	6.959953e+02
1.690000e-06	6.901509e-06	1.059481e-08	4.759509e+01	6.953908e+02
1.700000e-06	6.890249e-06	1.058463e-08	4.751744e+01	6.946571e+02
1.710000e-06	6.876611e-06	1.057460e-08	4.742339e+01	6.938075e+02
1.720000e-06	6.860596e-06	1.056694e-08	4.731294e+01	6.928572e+02
1.730000e-06	6.842429e-06	1.052683e-08	4.718766e+01	6.918215e+02
1.740000e-06	6.821844e-06	1.047287e-08	4.704570e+01	6.907132e+02
1.750000e-06	6.798069e-06	1.047184e-08	4.688173e+01	6.895419e+02
1.760000e-06	6.771147e-06	1.047206e-08	4.669607e+01	6.883131e+02
1.770000e-06	6.741721e-06	1.046071e-08	4.649314e+01	6.870284e+02
1.780000e-06	6.710277e-06	1.048913e-08	4.627629e+01	6.856867e+02
1.790000e-06	6.677387e-06	1.044518e-08	4.604948e+01	6.842843e+02
1.800000e-06	6.642835e-06	1.037040e-08	4.581119e+01	6.828153e+02
1.810000e-06	6.605732e-06	1.038330e-08	4.555532e+01	6.812717e+02
1.820000e-06	6.566285e-06	1.034494e-08	4.528328e+01	6.796423e+02
1.830000e-06	6.524789e-06	1.035009e-08	4.499711e+01	6.779125e+02
1.840000e-06	6.481028e-06	1.036318e-08	4.469532e+01	6.760639e+02
1.850000e-06	6.435035e-06	1.027319e-08	4.437813e+01	6.740750e+02
1.860000e-06	6.386562e-06	1.023179e-08	4.404385e+01	6.719237e+02
1.870000e-06	6.335715e-06	1.015590e-08	4.369319e+01	6.695899e+02
1.880000e-06	6.282451e-06	1.013553e-08	4.332586e+01	6.670588e+02
1.890000e-06	6.226451e-06	1.014903e-08	4.293967e+01	6.643248e+02
1.900000e-06	6.168067e-06	1.008608e-08	4.253703e+01	6.613927e+02
1.910000e-06	6.107404e-06	1.007929e-08	4.211868e+01	6.582782e+02
1.920000e-06	6.044439e-06	9.984958e-09	4.168446e+01	6.550054e+02
1.930000e-06	5.979319e-06	9.906936e-09	4.123536e+01	6.516027e+02
1.940000e-06	5.912051e-06	9.894309e-09	4.077146e+01	6.480973e+02
1.950000e-06	5.842558e-06	9.822493e-09	4.029221e+01	6.445099e+02
1.960000e-06	5.770652e-06	9.777038e-09	3.979633e+01	6.408498e+02
1.970000e-06	5.696533e-06	9.698844e-09	3.928518e+01	6.371133e+02
1.980000e-06	5.620204e-06	9.659954e-09	3.875879e+01	6.332843e+02
1.990000e-06	5.541568e-06	9.613365e-09	3.821649e+01	6.293378e+02
2.000000e-06	5.460888e-06	9.538010e-09	3.766009e+01	6.252452e+02
2.010000e-06	5.378368e-06	9.476364e-09	3.709100e+01	6.209806e+02
2.020000e-06	5.294078e-06	9.385675e-09	3.650972e+01	6.165260e+02
2.030000e-06	5.207700e-06	9.321408e-09	3.591403e+01	6.118742e+02
2.040000e-06	5.119280e-06	9.250406e-09	3.530425e+01	6.070300e+02
2.050000e-06	5.029265e-06	9.197044e-09	3.468348e+01	6.020066e+02
2.060000e-06	4.937699e-06	9.112864e-09	3.405201e+01	5.968221e+02
2.070000e-06	4.844436e-06	9.005293e-09	3.340884e+01	5.914933e+02
2.080000e-06	4.749355e-06	8.916547e-09	3.275313e+01	5.860310e+02
2.090000e-06	4.652562e-06	8.829388e-09	3.208561e+01	5.804366e+02
2.100000e-06	4.554312e-06	8.760402e-09	3.140804e+01	5.747020e+02
2.110000e-06	4.454623e-06	8.679581e-09	3.072056e+01	5.688115e+02
2.120000e-06	4.353268e-06	8.592841e-09	3.002158e+01	5.627459e+02
2.130000e-06	4.250171e-06	8.482756e-09	2.931058e+01	5.564874e+02
2.140000e-06	4.145475e-06	8.374563e-09	2.858857e+01	5.500240e+02
2.150000e-06	4.039384e-06	8.273862e-09	2.785693e+01	5.433521e+02
2.160000e-06	3.931992e-06	8.175218e-09	2.711632e+01	5.364762e+02
2.170000e-06	3.823245e-06	8.071935e-09	2.636636e+01	5.294064e+02
2.180000e-06	3.713055e-06	7.960856e-09	2.560646e+01	5.221544e+02
2.190000e-06	3.601335e-06	7.848967e-09	2.483600e+01	5.147283e+02
2.200000e-06	3.488278e-06	7.731577e-09	2.405632e+01	5.071291e+02
2.210000e-06	3.373940e-06	7.618261e-09	2.326780e+01	4.993484e+02
2.220000e-06	3.258205e-06	7.493336e-09	2.246966e+01	4.913688e+02
2.230000e-06	3.141027e-06	7.358300e-09	2.166156e+01	4.831675e+02
2.240000e-06	3.022522e-06	7.220850e-09	2.084431e+01	4.747202e+02
2.250000e-06	2.902824e-06	7.094614e-09	2.001884e+01	4.660065e+02
2.260000e-06	2.782021e-06	6.969555e-09	1.918574e+01	4.570139e+02
2.270000e-06	2.660281e-06	6.832725e-09	1.834618e+01	4.477391e+02
2.280000e-06	2.537676e-06	6.684235e-09	1.750065e+01	4.381879e+02
2.290000e-06	2.414212e-06	6.530547e-09	1.664921e+01	4.283721e+02
2.300000e-06	2.289829e-06	6.375128e-09	1.579142e+01	4.183044e+02
2.310000e-06	2.164644e-06	6.222516e-09	1.492810e+01	4.079942e+02
2.320000e-06	2.038798e-06	6.072348e-09	1.406022e+01	3.974433e+02
2.330000e-06	1.912268e-06	5.908805e-09	1.318763e+01	3.866441e+02
2.340000e-06	1.785004e-06	5.732470e-09	1.230998e+01	3.755806e+02
2.350000e-06	1.657053e-06	5.552849e-09	1.142759e+01	3.642305e+02
2.360000e-06	1.528538e-06	5.377838e-09	1.054130e+01	3.525697e+02
2.370000e-06	1.399531e-06	5.201517e-09	9.651632e+00	3.405761e+02
2.380000e-06	1.270091e-06	5.017761e-09	8.758966e+00	3.282329e+02
2.390000e-06	1.140297e-06	4.825184e-09	7.863866e+00	3.155297e+02
2.400000e-06	1.010176e-06	4.622907e-09	6.966507e+00	3.024614e+02
2.410000e-06	8.797608e-07	4.415340e-09	6.067122e+00	2.890261e+02
2.420000e-06	7.491176e-07	4.205840e-09	5.166163e+00	2.752210e+02
2.430000e-06	6.182794e-07	3.990840e-09	4.263859e+00	2.610394e+02
2.440000e-06	4.872596e-07	3.763970e-09	3.360304e+00	2.464682e+02
2.450000e-06	3.560568e-07	3.527158e-09	2.455486e+00	2.314873e+02
2.460000e-06	2.246904e-07	3.289399e-09	1.549539e+00	2.160711e+02
2.470000e-06	9.328640e-08	3.051665e-09	6.433339e-01	2.001899e+02
2.480000e-06	-3.816597e-08	2.810513e-09	-2.632051e-01	1.838132e+02
2.490000e-06	-1.696730e-07	2.558108e-09	-1.170122e+00	1.669110e+02
2.500000e-06	-3.011154e-07	2.287729e-09	-2.076592e+00	1.494547e+02
2.510000e-06	-4.324496e-07	2.004451e-09	-2.982315e+00	1.314165e+02
2.520000e-06	-5.636634e-07	1.715755e-09	-3.887209e+00	1.127677e+02
2.530000e-06	-6.946998e-07	1.424884e-09	-4.790880e+00	9.347782e+01
2.540000e-06	-8.255108e-07	1.123664e-09	-5.692996e+00	7.351466e+01
2.550000e-06	-9.561021e-07	8.079534e-10	-6.593597e+00	5.284703e+01
2.560000e-06	-1.086401e-06	4.809143e-10	-7.492179e+00	3.145038e+01
2.570000e-06	-1.216374e-06	1.445690e-10	-8.388516e+00	9.315044e+00
2.580000e-06	-1.346013e-06	-2.000280e-10	-9.282550e+00	-1.354416e+01
2.590000e-06	-1.475214e-06	-5.550533e-10	-1.017356e+01	-3.707878e+01
2.600000e-06	-1.603943e-06	-9.227179e-10	-1.106132e+01	-6.120012e+01
2.610000e-06	-1.732021e-06	-1.300139e-09	-1.194459e+01	-8.577711e+01
2.620000e-06	-1.859310e-06	-1.680132e-09	-1.282242e+01	-1.106398e+02
2.630000e-06	-1.985894e-06	-2.056357e-09	-1.369538e+01	-1.355886e+02
2.640000e-06	-2.111813e-06	-2.429888e-09	-1.456376e+01	-1.604083e+02
2.650000e-06	-2.236953e-06	-2.804556e-09	-1.542677e+01	-1.848850e+02
2.660000e-06	-2.361094e-06	-3.175822e-09	-1.628289e+01	-2.088229e+02
2.670000e-06	-2.484232e-06	-3.533488e-09	-1.713209e+01	-2.320586e+02
2.680000e-06	-2.606474e-06	-3.873859e-09	-1.797511e+01	-2.544712e+02
2.690000e-06	-2.727811e-06	-4.199153e-09	-1.881189e+01	-2.759856e+02
2.700000e-06	-2.848125e-06	-4.509706e-09	-1.964161e+01	-2.965703e+02
2.710000e-06	-2.967309e-06	-4.808931e-09	-2.046354e+01	-3.162300e+02
2.720000e-06	-3.085329e-06	-5.098006e-09	-2.127745e+01	-3.349953e+02
2.730000e-06	-3.202194e-06	-5.373194e-09	-2.208339e+01	-3.529106e+02
2.740000e-06	-3.317773e-06	-5.634875e-09	-2.288046e+01	-3.700245e+02
2.750000e-06	-3.431960e-06	-5.885271e-09	-2.366793e+01	-3.863818e+02
2.760000e-06	-3.544760e-06	-6.125801e-09	-2.444584e+01	-4.020201e+02
2.770000e-06	-3.656107e-06	-6.356557e-09	-2.521372e+01	-4.169694e+02
2.780000e-06	-3.766089e-06	-6.574627e-09	-2.597219e+01	-4.312539e+02
2.790000e-06	-3.874853e-06	-6.782393e-09	-2.672227e+01	-4.448964e+02
2.800000e-06	-3.982361e-06	-6.981975e-09	-2.746368e+01	-4.579209e+02
2.810000e-06	-4.088568e-06	-7.174107e-09	-2.819612e+01	-4.703557e+02
2.820000e-06	-4.193311e-06	-7.359067e-09	-2.891846e+01	-4.822336e+02
2.830000e-06	-4.296457e-06	-7.532999e-09	-2.962979e+01	-4.935905e+02
2.840000e-06	-4.398035e-06	-7.697472e-09	-3.033031e+01	-5.044632e+02
2.850000e-06	-4.498010e-06	-7.854504e-09	-3.101977e+01	-5.148857e+02
2.860000e-06	-4.596436e-06	-8.007168e-09	-3.169855e+01	-5.248870e+02
2.870000e-06	-4.693359e-06	-8.155570e-09	-3.236696e+01	-5.344887e+02
2.880000e-06	-4.788656e-06	-8.295710e-09	-3.302416e+01	-5.437052e+02
2.890000e-06	-4.882193e-06	-8.427175e-09	-3.366922e+01	-5.525439e+02
2.900000e-06	-4.973928e-06	-8.552493e-09	-3.430186e+01	-5.610079e+02
2.910000e-06	-5.063904e-06	-8.674450e-09	-3.492236e+01	-5.690979e+02
2.920000e-06	-5.152041e-06	-8.791976e-09	-3.553018e+01	-5.768151e+02
2.930000e-06	-5.238213e-06	-8.903859e-09	-3.612445e+01	-5.841632e+02
2.940000e-06	-5.322446e-06	-9.009761e-09	-3.670535e+01	-5.911491e+02
