# Temperatura_=_66.4
# Concentracion g/m^3_=_15000.0
# C_Vs_to_Am_M_A/Vsm_=_65563218390.804596
# pendiente_HvsI_1/m_=_3716.3
# ordenada_HvsI_A/m_=_1297.0
# frecuencia_Hz_=_301972.5284012621

Tiempo_(s)	Campo_(V.s)	Magnetizacion_(V.s)	Campo_(kA/m)	Magnetizacion_(A/m)
0.000000e+00	-6.867525e-06	-1.127658e-08	-4.746834e+01	-7.379184e+02
1.000000e-08	-6.863768e-06	-1.127264e-08	-4.744238e+01	-7.376627e+02
2.000000e-08	-6.857861e-06	-1.126430e-08	-4.740154e+01	-7.372738e+02
3.000000e-08	-6.849692e-06	-1.125580e-08	-4.734508e+01	-7.367397e+02
4.000000e-08	-6.839060e-06	-1.124475e-08	-4.727159e+01	-7.360506e+02
5.000000e-08	-6.825978e-06	-1.123086e-08	-4.718117e+01	-7.352023e+02
6.000000e-08	-6.810448e-06	-1.120871e-08	-4.707382e+01	-7.341997e+02
7.000000e-08	-6.792634e-06	-1.118441e-08	-4.695069e+01	-7.330583e+02
8.000000e-08	-6.772645e-06	-1.121367e-08	-4.681253e+01	-7.318031e+02
9.000000e-08	-6.750174e-06	-1.123307e-08	-4.665721e+01	-7.304658e+02
1.000000e-07	-6.724858e-06	-1.117453e-08	-4.648223e+01	-7.290789e+02
1.100000e-07	-6.696872e-06	-1.112759e-08	-4.628879e+01	-7.276697e+02
1.200000e-07	-6.666618e-06	-1.110259e-08	-4.607967e+01	-7.262540e+02
1.300000e-07	-6.634334e-06	-1.100906e-08	-4.585653e+01	-7.248319e+02
1.400000e-07	-6.600163e-06	-1.097387e-08	-4.562033e+01	-7.233858e+02
1.500000e-07	-6.564051e-06	-1.108921e-08	-4.537073e+01	-7.218822e+02
1.600000e-07	-6.525863e-06	-1.097676e-08	-4.510678e+01	-7.202759e+02
1.700000e-07	-6.485579e-06	-1.094318e-08	-4.482833e+01	-7.185180e+02
1.800000e-07	-6.442899e-06	-1.099075e-08	-4.453332e+01	-7.165630e+02
1.900000e-07	-6.397689e-06	-1.085812e-08	-4.422083e+01	-7.143765e+02
2.000000e-07	-6.350103e-06	-1.086300e-08	-4.389192e+01	-7.119405e+02
2.100000e-07	-6.299915e-06	-1.081707e-08	-4.354502e+01	-7.092549e+02
2.200000e-07	-6.247139e-06	-1.073896e-08	-4.318023e+01	-7.063362e+02
2.300000e-07	-6.191985e-06	-1.069599e-08	-4.279901e+01	-7.032129e+02
2.400000e-07	-6.134416e-06	-1.062870e-08	-4.240110e+01	-6.999185e+02
2.500000e-07	-6.074486e-06	-1.063201e-08	-4.198685e+01	-6.964846e+02
2.600000e-07	-6.012398e-06	-1.059692e-08	-4.155770e+01	-6.929350e+02
2.700000e-07	-5.948141e-06	-1.051202e-08	-4.111356e+01	-6.892813e+02
2.800000e-07	-5.881602e-06	-1.044020e-08	-4.065364e+01	-6.855231e+02
2.900000e-07	-5.812793e-06	-1.038650e-08	-4.017804e+01	-6.816493e+02
3.000000e-07	-5.741886e-06	-1.033828e-08	-3.968792e+01	-6.776423e+02
3.100000e-07	-5.668857e-06	-1.025316e-08	-3.918315e+01	-6.734840e+02
3.200000e-07	-5.593519e-06	-1.021329e-08	-3.866241e+01	-6.691597e+02
3.300000e-07	-5.515850e-06	-1.013343e-08	-3.812556e+01	-6.646616e+02
3.400000e-07	-5.436000e-06	-1.003387e-08	-3.757364e+01	-6.599900e+02
3.500000e-07	-5.354185e-06	-9.980152e-09	-3.700814e+01	-6.551520e+02
3.600000e-07	-5.270593e-06	-9.923142e-09	-3.643034e+01	-6.501579e+02
3.700000e-07	-5.185263e-06	-9.854075e-09	-3.584055e+01	-6.450177e+02
3.800000e-07	-5.098120e-06	-9.751783e-09	-3.523821e+01	-6.397373e+02
3.900000e-07	-5.009153e-06	-9.673185e-09	-3.462327e+01	-6.343158e+02
4.000000e-07	-4.918388e-06	-9.590896e-09	-3.399590e+01	-6.287456e+02
4.100000e-07	-4.825986e-06	-9.499417e-09	-3.335722e+01	-6.230133e+02
4.200000e-07	-4.732017e-06	-9.410427e-09	-3.270771e+01	-6.171032e+02
4.300000e-07	-4.636332e-06	-9.316902e-09	-3.204634e+01	-6.110005e+02
4.400000e-07	-4.538904e-06	-9.224484e-09	-3.137291e+01	-6.046955e+02
4.500000e-07	-4.439828e-06	-9.125495e-09	-3.068809e+01	-5.981848e+02
4.600000e-07	-4.339187e-06	-9.033680e-09	-2.999247e+01	-5.914726e+02
4.700000e-07	-4.237047e-06	-8.928402e-09	-2.928648e+01	-5.845684e+02
4.800000e-07	-4.133382e-06	-8.807580e-09	-2.856994e+01	-5.774844e+02
4.900000e-07	-4.028186e-06	-8.683795e-09	-2.784282e+01	-5.702315e+02
5.000000e-07	-3.921475e-06	-8.571427e-09	-2.710524e+01	-5.628157e+02
5.100000e-07	-3.813303e-06	-8.465110e-09	-2.635756e+01	-5.552361e+02
5.200000e-07	-3.703827e-06	-8.355148e-09	-2.560086e+01	-5.474834e+02
5.300000e-07	-3.593097e-06	-8.236663e-09	-2.483549e+01	-5.395419e+02
5.400000e-07	-3.481011e-06	-8.107126e-09	-2.406075e+01	-5.313913e+02
5.500000e-07	-3.367440e-06	-7.977529e-09	-2.327575e+01	-5.230110e+02
5.600000e-07	-3.252358e-06	-7.845349e-09	-2.248031e+01	-5.143829e+02
5.700000e-07	-3.135882e-06	-7.709000e-09	-2.167522e+01	-5.054945e+02
5.800000e-07	-3.018213e-06	-7.565437e-09	-2.086189e+01	-4.963402e+02
5.900000e-07	-2.899523e-06	-7.418911e-09	-2.004151e+01	-4.869205e+02
6.000000e-07	-2.779799e-06	-7.268610e-09	-1.921397e+01	-4.772408e+02
6.100000e-07	-2.659033e-06	-7.117663e-09	-1.837924e+01	-4.673080e+02
6.200000e-07	-2.537226e-06	-6.965196e-09	-1.753731e+01	-4.571278e+02
6.300000e-07	-2.414363e-06	-6.808314e-09	-1.668808e+01	-4.467023e+02
6.400000e-07	-2.290597e-06	-6.645346e-09	-1.583261e+01	-4.360285e+02
6.500000e-07	-2.166021e-06	-6.476820e-09	-1.497154e+01	-4.250980e+02
6.600000e-07	-2.040731e-06	-6.307642e-09	-1.410554e+01	-4.138982e+02
6.700000e-07	-1.914884e-06	-6.132150e-09	-1.323568e+01	-4.024144e+02
6.800000e-07	-1.788458e-06	-5.947846e-09	-1.236182e+01	-3.906313e+02
6.900000e-07	-1.661412e-06	-5.757574e-09	-1.148368e+01	-3.785354e+02
7.000000e-07	-1.533754e-06	-5.565307e-09	-1.060131e+01	-3.661157e+02
7.100000e-07	-1.405500e-06	-5.370307e-09	-9.714817e+00	-3.533635e+02
7.200000e-07	-1.276699e-06	-5.173589e-09	-8.824543e+00	-3.402720e+02
7.300000e-07	-1.147508e-06	-4.972013e-09	-7.931574e+00	-3.268347e+02
7.400000e-07	-1.018009e-06	-4.762191e-09	-7.036478e+00	-3.130434e+02
7.500000e-07	-8.881408e-07	-4.545661e-09	-6.138830e+00	-2.988875e+02
7.600000e-07	-7.579492e-07	-4.321796e-09	-5.238946e+00	-2.843528e+02
7.700000e-07	-6.274790e-07	-4.092261e-09	-4.337136e+00	-2.694220e+02
7.800000e-07	-4.967611e-07	-3.857723e-09	-3.433614e+00	-2.540752e+02
7.900000e-07	-3.659151e-07	-3.618009e-09	-2.529206e+00	-2.382912e+02
8.000000e-07	-2.349118e-07	-3.371958e-09	-1.623711e+00	-2.220476e+02
8.100000e-07	-1.037091e-07	-3.118877e-09	-7.168372e-01	-2.053218e+02
8.200000e-07	2.757956e-08	-2.858969e-09	1.906299e-01	-1.880902e+02
8.300000e-07	1.589151e-07	-2.588420e-09	1.098422e+00	-1.703269e+02
8.400000e-07	2.901976e-07	-2.306031e-09	2.005846e+00	-1.520025e+02
8.500000e-07	4.213818e-07	-2.015526e-09	2.912591e+00	-1.330828e+02
8.600000e-07	5.524713e-07	-1.716521e-09	3.818682e+00	-1.135283e+02
8.700000e-07	6.834067e-07	-1.405770e-09	4.723708e+00	-9.329603e+01
8.800000e-07	8.141172e-07	-1.083886e-09	5.627179e+00	-7.234272e+01
8.900000e-07	9.445324e-07	-7.534024e-10	6.528609e+00	-5.063058e+01
9.000000e-07	1.074584e-06	-4.141962e-10	7.427529e+00	-2.813466e+01
9.100000e-07	1.204258e-06	-6.204895e-11	8.323833e+00	-4.851139e+00
9.200000e-07	1.333534e-06	3.049068e-10	9.217389e+00	1.919466e+01
9.300000e-07	1.462341e-06	6.849174e-10	1.010770e+01	4.394190e+01
9.400000e-07	1.590555e-06	1.074653e-09	1.099392e+01	6.929078e+01
9.500000e-07	1.718071e-06	1.470665e-09	1.187531e+01	9.510284e+01
9.600000e-07	1.844943e-06	1.870619e-09	1.275225e+01	1.212056e+02
9.700000e-07	1.971223e-06	2.271999e-09	1.362509e+01	1.474014e+02
9.800000e-07	2.096873e-06	2.671542e-09	1.449359e+01	1.734790e+02
9.900000e-07	2.221783e-06	3.062718e-09	1.535696e+01	1.992277e+02
1.000000e-06	2.345936e-06	3.442566e-09	1.621511e+01	2.244513e+02
1.010000e-06	2.469231e-06	3.812261e-09	1.706733e+01	2.489801e+02
1.020000e-06	2.591555e-06	4.170730e-09	1.791283e+01	2.726806e+02
1.030000e-06	2.712892e-06	4.516291e-09	1.875151e+01	2.954605e+02
1.040000e-06	2.833137e-06	4.847898e-09	1.958265e+01	3.172688e+02
1.050000e-06	2.952280e-06	5.166250e-09	2.040617e+01	3.380930e+02
1.060000e-06	3.070417e-06	5.470161e-09	2.122273e+01	3.579511e+02
1.070000e-06	3.187512e-06	5.759001e-09	2.203209e+01	3.768830e+02
1.080000e-06	3.303418e-06	6.034347e-09	2.283323e+01	3.949407e+02
1.090000e-06	3.417957e-06	6.296803e-09	2.362492e+01	4.121798e+02
1.100000e-06	3.531018e-06	6.546882e-09	2.440640e+01	4.286529e+02
1.110000e-06	3.642661e-06	6.784101e-09	2.517807e+01	4.444056e+02
1.120000e-06	3.753085e-06	7.011078e-09	2.594133e+01	4.594754e+02
1.130000e-06	3.862402e-06	7.229161e-09	2.669693e+01	4.738931e+02
1.140000e-06	3.970507e-06	7.438831e-09	2.744415e+01	4.876847e+02
1.150000e-06	4.077266e-06	7.639654e-09	2.818207e+01	5.008749e+02
1.160000e-06	4.182451e-06	7.829780e-09	2.890911e+01	5.134896e+02
1.170000e-06	4.286000e-06	8.011037e-09	2.962484e+01	5.255573e+02
1.180000e-06	4.388025e-06	8.185965e-09	3.033004e+01	5.371094e+02
1.190000e-06	4.488602e-06	8.354647e-09	3.102522e+01	5.481784e+02
1.200000e-06	4.587651e-06	8.517156e-09	3.170985e+01	5.587967e+02
1.210000e-06	4.684923e-06	8.672231e-09	3.238219e+01	5.689934e+02
1.220000e-06	4.780414e-06	8.821304e-09	3.304223e+01	5.787930e+02
1.230000e-06	4.874229e-06	8.965305e-09	3.369068e+01	5.882134e+02
1.240000e-06	4.966428e-06	9.103981e-09	3.432795e+01	5.972661e+02
1.250000e-06	5.056955e-06	9.237591e-09	3.495368e+01	6.059570e+02
1.260000e-06	5.145580e-06	9.366790e-09	3.556626e+01	6.142881e+02
1.270000e-06	5.232260e-06	9.490031e-09	3.616539e+01	6.222591e+02
1.280000e-06	5.317111e-06	9.605624e-09	3.675188e+01	6.298702e+02
1.290000e-06	5.400154e-06	9.717643e-09	3.732587e+01	6.371232e+02
1.300000e-06	5.481226e-06	9.823299e-09	3.788624e+01	6.440229e+02
1.310000e-06	5.560227e-06	9.921052e-09	3.843230e+01	6.505774e+02
1.320000e-06	5.637256e-06	1.001455e-08	3.896472e+01	6.567984e+02
1.330000e-06	5.712190e-06	1.010481e-08	3.948267e+01	6.627003e+02
1.340000e-06	5.784868e-06	1.019035e-08	3.998502e+01	6.683001e+02
1.350000e-06	5.855369e-06	1.027005e-08	4.047232e+01	6.736162e+02
1.360000e-06	5.923834e-06	1.034583e-08	4.094555e+01	6.786680e+02
1.370000e-06	5.990253e-06	1.041815e-08	4.140464e+01	6.834753e+02
1.380000e-06	6.054469e-06	1.048692e-08	4.184850e+01	6.880570e+02
1.390000e-06	6.116551e-06	1.055357e-08	4.227761e+01	6.924305e+02
1.400000e-06	6.176671e-06	1.061847e-08	4.269316e+01	6.966105e+02
1.410000e-06	6.234610e-06	1.068052e-08	4.309363e+01	7.006079e+02
1.420000e-06	6.290255e-06	1.073850e-08	4.347825e+01	7.044294e+02
1.430000e-06	6.343644e-06	1.079338e-08	4.384728e+01	7.080767e+02
1.440000e-06	6.394396e-06	1.084629e-08	4.419807e+01	7.115472e+02
1.450000e-06	6.442511e-06	1.089743e-08	4.453065e+01	7.148348e+02
1.460000e-06	6.488359e-06	1.094446e-08	4.484754e+01	7.179314e+02
1.470000e-06	6.532088e-06	1.098735e-08	4.514980e+01	7.208290e+02
1.480000e-06	6.573504e-06	1.102737e-08	4.543607e+01	7.235212e+02
1.490000e-06	6.612486e-06	1.106444e-08	4.570551e+01	7.260049e+02
1.500000e-06	6.649264e-06	1.109821e-08	4.595972e+01	7.282808e+02
1.510000e-06	6.683727e-06	1.112981e-08	4.619793e+01	7.303533e+02
1.520000e-06	6.715670e-06	1.115921e-08	4.641872e+01	7.322295e+02
1.530000e-06	6.745250e-06	1.118361e-08	4.662318e+01	7.339181e+02
1.540000e-06	6.772561e-06	1.120481e-08	4.681195e+01	7.354277e+02
1.550000e-06	6.797411e-06	1.122320e-08	4.698372e+01	7.367657e+02
1.560000e-06	6.819748e-06	1.123897e-08	4.713811e+01	7.379381e+02
1.570000e-06	6.839708e-06	1.125245e-08	4.727607e+01	7.389495e+02
1.580000e-06	6.857224e-06	1.126360e-08	4.739714e+01	7.398038e+02
1.590000e-06	6.872211e-06	1.127393e-08	4.750073e+01	7.405057e+02
1.600000e-06	6.884634e-06	1.128326e-08	4.758660e+01	7.410612e+02
1.610000e-06	6.894342e-06	1.129124e-08	4.765370e+01	7.414779e+02
1.620000e-06	6.901416e-06	1.129777e-08	4.770260e+01	7.417642e+02
1.630000e-06	6.906120e-06	1.130294e-08	4.773511e+01	7.419284e+02
1.640000e-06	6.908383e-06	1.130608e-08	4.775075e+01	7.419760e+02
1.650000e-06	6.908107e-06	1.130666e-08	4.774885e+01	7.419087e+02
1.660000e-06	6.905580e-06	1.129769e-08	4.773138e+01	7.417231e+02
1.670000e-06	6.900885e-06	1.129018e-08	4.769893e+01	7.414108e+02
1.680000e-06	6.893888e-06	1.128401e-08	4.765056e+01	7.409602e+02
1.690000e-06	6.884644e-06	1.127491e-08	4.758667e+01	7.403597e+02
1.700000e-06	6.873140e-06	1.126514e-08	4.750715e+01	7.396014e+02
1.710000e-06	6.859202e-06	1.125996e-08	4.741081e+01	7.386848e+02
1.720000e-06	6.842954e-06	1.126149e-08	4.729851e+01	7.376193e+02
1.730000e-06	6.824664e-06	1.119104e-08	4.717209e+01	7.364246e+02
1.740000e-06	6.803841e-06	1.113051e-08	4.702816e+01	7.351293e+02
1.750000e-06	6.779671e-06	1.114955e-08	4.686110e+01	7.337659e+02
1.760000e-06	6.752487e-06	1.113210e-08	4.667320e+01	7.323657e+02
1.770000e-06	6.722936e-06	1.112257e-08	4.646894e+01	7.309516e+02
1.780000e-06	6.691399e-06	1.120249e-08	4.625096e+01	7.295333e+02
1.790000e-06	6.658461e-06	1.109111e-08	4.602329e+01	7.281031e+02
1.800000e-06	6.623782e-06	1.102285e-08	4.578359e+01	7.266363e+02
1.810000e-06	6.586521e-06	1.109181e-08	4.552604e+01	7.250937e+02
1.820000e-06	6.546924e-06	1.096188e-08	4.525235e+01	7.234275e+02
1.830000e-06	6.505212e-06	1.102837e-08	4.496404e+01	7.215892e+02
1.840000e-06	6.461227e-06	1.101056e-08	4.466001e+01	7.195374e+02
1.850000e-06	6.415050e-06	1.088669e-08	4.434084e+01	7.172442e+02
1.860000e-06	6.366448e-06	1.095839e-08	4.400490e+01	7.146992e+02
1.870000e-06	6.315518e-06	1.083985e-08	4.365287e+01	7.119099e+02
1.880000e-06	6.262142e-06	1.083209e-08	4.328393e+01	7.088987e+02
1.890000e-06	6.206011e-06	1.079885e-08	4.289595e+01	7.056969e+02
1.900000e-06	6.147536e-06	1.065731e-08	4.249178e+01	7.023383e+02
1.910000e-06	6.086764e-06	1.068637e-08	4.207172e+01	6.988515e+02
1.920000e-06	6.023695e-06	1.058208e-08	4.163579e+01	6.952557e+02
1.930000e-06	5.958510e-06	1.055519e-08	4.118523e+01	6.915570e+02
1.940000e-06	5.891163e-06	1.051940e-08	4.071973e+01	6.877501e+02
1.950000e-06	5.821571e-06	1.043327e-08	4.023871e+01	6.838206e+02
1.960000e-06	5.749541e-06	1.038267e-08	3.974083e+01	6.797500e+02
1.970000e-06	5.675320e-06	1.025484e-08	3.922782e+01	6.755210e+02
1.980000e-06	5.598954e-06	1.025435e-08	3.869997e+01	6.711217e+02
1.990000e-06	5.520352e-06	1.018262e-08	3.815668e+01	6.665478e+02
2.000000e-06	5.439740e-06	1.009667e-08	3.759949e+01	6.618029e+02
2.010000e-06	5.357267e-06	1.002653e-08	3.702944e+01	6.568957e+02
2.020000e-06	5.273008e-06	9.929946e-09	3.644704e+01	6.518369e+02
2.030000e-06	5.186724e-06	9.867921e-09	3.585064e+01	6.466353e+02
2.040000e-06	5.098473e-06	9.770860e-09	3.524065e+01	6.412940e+02
2.050000e-06	5.008569e-06	9.722986e-09	3.461924e+01	6.358092e+02
2.060000e-06	4.917096e-06	9.623823e-09	3.398698e+01	6.301704e+02
2.070000e-06	4.823887e-06	9.517270e-09	3.334271e+01	6.243629e+02
2.080000e-06	4.728820e-06	9.419503e-09	3.268561e+01	6.183709e+02
2.090000e-06	4.632112e-06	9.327110e-09	3.201716e+01	6.121814e+02
2.100000e-06	4.533910e-06	9.240951e-09	3.133839e+01	6.057872e+02
2.110000e-06	4.434209e-06	9.125141e-09	3.064926e+01	5.991884e+02
2.120000e-06	4.332926e-06	9.031436e-09	2.994919e+01	5.923915e+02
2.130000e-06	4.229960e-06	8.929845e-09	2.923749e+01	5.854078e+02
2.140000e-06	4.125353e-06	8.831321e-09	2.851444e+01	5.782493e+02
2.150000e-06	4.019390e-06	8.717570e-09	2.778203e+01	5.709253e+02
2.160000e-06	3.912169e-06	8.601461e-09	2.704092e+01	5.634390e+02
2.170000e-06	3.803524e-06	8.474399e-09	2.628996e+01	5.557858e+02
2.180000e-06	3.693426e-06	8.347005e-09	2.552897e+01	5.479535e+02
2.190000e-06	3.581893e-06	8.229477e-09	2.475805e+01	5.399240e+02
2.200000e-06	3.468968e-06	8.112378e-09	2.397751e+01	5.316765e+02
2.210000e-06	3.354677e-06	7.990931e-09	2.318753e+01	5.231910e+02
2.220000e-06	3.239032e-06	7.849547e-09	2.238819e+01	5.144515e+02
2.230000e-06	3.122019e-06	7.704849e-09	2.157940e+01	5.054485e+02
2.240000e-06	3.003712e-06	7.562551e-09	2.076166e+01	4.961791e+02
2.250000e-06	2.884218e-06	7.428281e-09	1.993572e+01	4.866462e+02
2.260000e-06	2.763609e-06	7.285608e-09	1.910207e+01	4.768562e+02
2.270000e-06	2.642038e-06	7.133903e-09	1.826177e+01	4.668159e+02
2.280000e-06	2.519572e-06	6.974189e-09	1.741529e+01	4.565297e+02
2.290000e-06	2.396273e-06	6.810950e-09	1.656304e+01	4.459975e+02
2.300000e-06	2.272163e-06	6.642000e-09	1.570519e+01	4.352140e+02
2.310000e-06	2.147274e-06	6.471646e-09	1.484196e+01	4.241689e+02
2.320000e-06	2.021642e-06	6.301959e-09	1.397360e+01	4.128484e+02
2.330000e-06	1.895277e-06	6.126437e-09	1.310016e+01	4.012371e+02
2.340000e-06	1.768187e-06	5.948485e-09	1.222171e+01	3.893206e+02
2.350000e-06	1.640428e-06	5.766592e-09	1.133864e+01	3.770861e+02
2.360000e-06	1.512110e-06	5.579477e-09	1.045171e+01	3.645238e+02
2.370000e-06	1.383342e-06	5.382769e-09	9.561665e+00	3.516261e+02
2.380000e-06	1.254183e-06	5.178396e-09	8.668915e+00	3.383863e+02
2.390000e-06	1.124632e-06	4.969920e-09	7.773461e+00	3.247975e+02
2.400000e-06	9.946989e-07	4.755603e-09	6.875360e+00	3.108505e+02
2.410000e-06	8.644538e-07	4.536364e-09	5.975106e+00	2.965331e+02
2.420000e-06	7.339980e-07	4.312395e-09	5.073395e+00	2.818300e+02
2.430000e-06	6.033523e-07	4.081568e-09	4.170372e+00	2.667226e+02
2.440000e-06	4.725901e-07	3.842622e-09	3.266544e+00	2.511901e+02
2.450000e-06	3.417268e-07	3.595893e-09	2.362016e+00	2.352109e+02
2.460000e-06	2.106614e-07	3.344305e-09	1.456092e+00	2.187626e+02
2.470000e-06	7.947963e-08	3.086954e-09	5.493633e-01	2.018220e+02
2.480000e-06	-5.170687e-08	2.825025e-09	-3.573980e-01	1.843649e+02
2.490000e-06	-1.829007e-07	2.554129e-09	-1.264210e+00	1.663641e+02
2.500000e-06	-3.140289e-07	2.268716e-09	-2.170568e+00	1.477881e+02
2.510000e-06	-4.450427e-07	1.971942e-09	-3.076136e+00	1.286005e+02
2.520000e-06	-5.759772e-07	1.668216e-09	-3.981155e+00	1.087600e+02
2.530000e-06	-7.067968e-07	1.356450e-09	-4.885380e+00	8.822286e+01
2.540000e-06	-8.374093e-07	1.033092e-09	-5.788174e+00	6.694745e+01
2.550000e-06	-9.677501e-07	6.979279e-10	-6.689090e+00	4.490047e+01
2.560000e-06	-1.097762e-06	3.509082e-10	-7.587732e+00	2.206499e+01
2.570000e-06	-1.227393e-06	-8.001842e-12	-8.483739e+00	-1.551220e+00
2.580000e-06	-1.356577e-06	-3.787881e-10	-9.376662e+00	-2.590827e+01
2.590000e-06	-1.485344e-06	-7.590973e-10	-1.026670e+01	-5.092884e+01
2.600000e-06	-1.613674e-06	-1.148853e-09	-1.115372e+01	-7.649626e+01
2.610000e-06	-1.741410e-06	-1.544435e-09	-1.203663e+01	-1.024567e+02
2.620000e-06	-1.868464e-06	-1.942877e-09	-1.291483e+01	-1.286256e+02
2.630000e-06	-1.994749e-06	-2.340784e-09	-1.378771e+01	-1.547978e+02
2.640000e-06	-2.120219e-06	-2.736097e-09	-1.465496e+01	-1.807607e+02
2.650000e-06	-2.244820e-06	-3.127231e-09	-1.551620e+01	-2.063081e+02
2.660000e-06	-2.368477e-06	-3.510321e-09	-1.637092e+01	-2.312537e+02
2.670000e-06	-2.491209e-06	-3.883369e-09	-1.721924e+01	-2.554425e+02
2.680000e-06	-2.613003e-06	-4.242980e-09	-1.806108e+01	-2.787582e+02
2.690000e-06	-2.733886e-06	-4.586167e-09	-1.889663e+01	-3.011265e+02
2.700000e-06	-2.853813e-06	-4.910186e-09	-1.972556e+01	-3.225136e+02
2.710000e-06	-2.972696e-06	-5.219101e-09	-2.054728e+01	-3.429210e+02
2.720000e-06	-3.090398e-06	-5.516306e-09	-2.136084e+01	-3.623773e+02
2.730000e-06	-3.206750e-06	-5.799547e-09	-2.216506e+01	-3.809287e+02
2.740000e-06	-3.321798e-06	-6.070878e-09	-2.296027e+01	-3.986297e+02
2.750000e-06	-3.435508e-06	-6.333930e-09	-2.374624e+01	-4.155354e+02
2.760000e-06	-3.547771e-06	-6.585355e-09	-2.452220e+01	-4.316956e+02
2.770000e-06	-3.658567e-06	-6.822662e-09	-2.528802e+01	-4.471524e+02
2.780000e-06	-3.768077e-06	-7.048293e-09	-2.604495e+01	-4.619403e+02
2.790000e-06	-3.876502e-06	-7.262376e-09	-2.679438e+01	-4.760876e+02
2.800000e-06	-3.983754e-06	-7.466334e-09	-2.753571e+01	-4.896193e+02
2.810000e-06	-4.089642e-06	-7.663742e-09	-2.826761e+01	-5.025605e+02
2.820000e-06	-4.194069e-06	-7.855845e-09	-2.898941e+01	-5.149381e+02
2.830000e-06	-4.296905e-06	-8.041704e-09	-2.970021e+01	-5.267818e+02
2.840000e-06	-4.398032e-06	-8.219118e-09	-3.039920e+01	-5.381238e+02
2.850000e-06	-4.497652e-06	-8.387556e-09	-3.108778e+01	-5.489968e+02
2.860000e-06	-4.595817e-06	-8.547384e-09	-3.176629e+01	-5.594320e+02
2.870000e-06	-4.692380e-06	-8.699098e-09	-3.243374e+01	-5.694569e+02
2.880000e-06	-4.787232e-06	-8.843732e-09	-3.308936e+01	-5.790931e+02
2.890000e-06	-4.880267e-06	-8.981746e-09	-3.373241e+01	-5.883558e+02
2.900000e-06	-4.971628e-06	-9.114958e-09	-3.436390e+01	-5.972539e+02
2.910000e-06	-5.061291e-06	-9.242392e-09	-3.498365e+01	-6.057915e+02
2.920000e-06	-5.149048e-06	-9.364899e-09	-3.559023e+01	-6.139693e+02
2.930000e-06	-5.234798e-06	-9.483898e-09	-3.618293e+01	-6.217869e+02
2.940000e-06	-5.318649e-06	-9.598569e-09	-3.676251e+01	-6.292451e+02
