# Temperatura_=_51.5
# Concentracion g/m^3_=_15000.0
# C_Vs_to_Am_M_A/Vsm_=_65563218390.804596
# pendiente_HvsI_1/m_=_3716.3
# ordenada_HvsI_A/m_=_1297.0
# frecuencia_Hz_=_301973.73044139426

Tiempo_(s)	Campo_(V.s)	Magnetizacion_(V.s)	Campo_(kA/m)	Magnetizacion_(A/m)
0.000000e+00	-6.846750e-06	-1.036368e-08	-4.746568e+01	-6.788881e+02
1.000000e-08	-6.843000e-06	-1.035991e-08	-4.743969e+01	-6.786061e+02
2.000000e-08	-6.837127e-06	-1.035509e-08	-4.739897e+01	-6.781891e+02
3.000000e-08	-6.829085e-06	-1.035083e-08	-4.734322e+01	-6.776451e+02
4.000000e-08	-6.818626e-06	-1.034281e-08	-4.727071e+01	-6.769858e+02
5.000000e-08	-6.805642e-06	-1.033073e-08	-4.718070e+01	-6.762252e+02
6.000000e-08	-6.790210e-06	-1.031345e-08	-4.707372e+01	-6.753788e+02
7.000000e-08	-6.772505e-06	-1.029466e-08	-4.695098e+01	-6.744609e+02
8.000000e-08	-6.752669e-06	-1.031019e-08	-4.681346e+01	-6.734840e+02
9.000000e-08	-6.730369e-06	-1.032729e-08	-4.665886e+01	-6.724569e+02
1.000000e-07	-6.705228e-06	-1.028604e-08	-4.648457e+01	-6.713840e+02
1.100000e-07	-6.677374e-06	-1.024074e-08	-4.629147e+01	-6.702647e+02
1.200000e-07	-6.647231e-06	-1.021370e-08	-4.608250e+01	-6.690939e+02
1.300000e-07	-6.615134e-06	-1.014813e-08	-4.585999e+01	-6.678620e+02
1.400000e-07	-6.581149e-06	-1.012649e-08	-4.562438e+01	-6.665562e+02
1.500000e-07	-6.545219e-06	-1.019666e-08	-4.537529e+01	-6.651615e+02
1.600000e-07	-6.507249e-06	-1.012836e-08	-4.511206e+01	-6.636623e+02
1.700000e-07	-6.467216e-06	-1.008165e-08	-4.483453e+01	-6.620433e+02
1.800000e-07	-6.424806e-06	-1.009948e-08	-4.454052e+01	-6.602909e+02
1.900000e-07	-6.379832e-06	-1.001735e-08	-4.422873e+01	-6.583934e+02
2.000000e-07	-6.332549e-06	-1.000334e-08	-4.390094e+01	-6.563425e+02
2.100000e-07	-6.282729e-06	-9.995219e-09	-4.355556e+01	-6.541325e+02
2.200000e-07	-6.230183e-06	-9.957122e-09	-4.319128e+01	-6.517610e+02
2.300000e-07	-6.175183e-06	-9.904433e-09	-4.280999e+01	-6.492281e+02
2.400000e-07	-6.117803e-06	-9.836204e-09	-4.241220e+01	-6.465363e+02
2.500000e-07	-6.058131e-06	-9.822573e-09	-4.199851e+01	-6.436899e+02
2.600000e-07	-5.996333e-06	-9.776472e-09	-4.157009e+01	-6.406944e+02
2.700000e-07	-5.932364e-06	-9.708228e-09	-4.112663e+01	-6.375559e+02
2.800000e-07	-5.866105e-06	-9.667834e-09	-4.066728e+01	-6.342808e+02
2.900000e-07	-5.797568e-06	-9.613981e-09	-4.019214e+01	-6.308749e+02
3.000000e-07	-5.726888e-06	-9.563040e-09	-3.970214e+01	-6.273435e+02
3.100000e-07	-5.654115e-06	-9.510844e-09	-3.919764e+01	-6.236904e+02
3.200000e-07	-5.579113e-06	-9.468965e-09	-3.867768e+01	-6.199178e+02
3.300000e-07	-5.501814e-06	-9.395691e-09	-3.814180e+01	-6.160260e+02
3.400000e-07	-5.422370e-06	-9.315601e-09	-3.759104e+01	-6.120133e+02
3.500000e-07	-5.340905e-06	-9.266346e-09	-3.702628e+01	-6.078759e+02
3.600000e-07	-5.257602e-06	-9.215809e-09	-3.644878e+01	-6.036078e+02
3.700000e-07	-5.172594e-06	-9.157915e-09	-3.585945e+01	-5.992018e+02
3.800000e-07	-5.085781e-06	-9.075151e-09	-3.525762e+01	-5.946495e+02
3.900000e-07	-4.997148e-06	-8.998828e-09	-3.464316e+01	-5.899421e+02
4.000000e-07	-4.906704e-06	-8.920619e-09	-3.401615e+01	-5.850715e+02
4.100000e-07	-4.814557e-06	-8.842287e-09	-3.337733e+01	-5.800308e+02
4.200000e-07	-4.720816e-06	-8.776750e-09	-3.272746e+01	-5.748150e+02
4.300000e-07	-4.625363e-06	-8.696946e-09	-3.206572e+01	-5.694216e+02
4.400000e-07	-4.528165e-06	-8.603423e-09	-3.139190e+01	-5.638504e+02
4.500000e-07	-4.429252e-06	-8.510161e-09	-3.070617e+01	-5.581039e+02
4.600000e-07	-4.328794e-06	-8.426906e-09	-3.000974e+01	-5.521861e+02
4.700000e-07	-4.226996e-06	-8.337722e-09	-2.930402e+01	-5.461018e+02
4.800000e-07	-4.123729e-06	-8.241752e-09	-2.858811e+01	-5.398556e+02
4.900000e-07	-4.018925e-06	-8.139170e-09	-2.786154e+01	-5.334507e+02
5.000000e-07	-3.912597e-06	-8.033094e-09	-2.712441e+01	-5.268876e+02
5.100000e-07	-3.804783e-06	-7.932297e-09	-2.637699e+01	-5.201637e+02
5.200000e-07	-3.695678e-06	-7.834204e-09	-2.562061e+01	-5.132725e+02
5.300000e-07	-3.585297e-06	-7.727833e-09	-2.485538e+01	-5.062038e+02
5.400000e-07	-3.473565e-06	-7.609128e-09	-2.408079e+01	-4.989445e+02
5.500000e-07	-3.360456e-06	-7.492196e-09	-2.329665e+01	-4.914796e+02
5.600000e-07	-3.245837e-06	-7.377642e-09	-2.250204e+01	-4.837935e+02
5.700000e-07	-3.129754e-06	-7.261466e-09	-2.169729e+01	-4.758718e+02
5.800000e-07	-3.012494e-06	-7.139117e-09	-2.088437e+01	-4.677023e+02
5.900000e-07	-2.894178e-06	-7.009476e-09	-2.006414e+01	-4.592765e+02
6.000000e-07	-2.774784e-06	-6.870963e-09	-1.923643e+01	-4.505902e+02
6.100000e-07	-2.654354e-06	-6.728942e-09	-1.840154e+01	-4.416433e+02
6.200000e-07	-2.532991e-06	-6.590248e-09	-1.756018e+01	-4.324391e+02
6.300000e-07	-2.410621e-06	-6.450956e-09	-1.671184e+01	-4.229834e+02
6.400000e-07	-2.287207e-06	-6.302884e-09	-1.585626e+01	-4.132822e+02
6.500000e-07	-2.162968e-06	-6.147548e-09	-1.499496e+01	-4.033401e+02
6.600000e-07	-2.038081e-06	-5.992451e-09	-1.412917e+01	-3.931587e+02
6.700000e-07	-1.912632e-06	-5.833695e-09	-1.325949e+01	-3.827344e+02
6.800000e-07	-1.786575e-06	-5.668940e-09	-1.238558e+01	-3.720586e+02
6.900000e-07	-1.659831e-06	-5.499753e-09	-1.150692e+01	-3.611167e+02
7.000000e-07	-1.532473e-06	-5.326211e-09	-1.062400e+01	-3.498893e+02
7.100000e-07	-1.404590e-06	-5.148158e-09	-9.737442e+00	-3.383539e+02
7.200000e-07	-1.276185e-06	-4.967993e-09	-8.847262e+00	-3.264866e+02
7.300000e-07	-1.147355e-06	-4.783788e-09	-7.954135e+00	-3.142641e+02
7.400000e-07	-1.018212e-06	-4.590585e-09	-7.058843e+00	-3.016667e+02
7.500000e-07	-8.887186e-07	-4.391031e-09	-6.161118e+00	-2.886791e+02
7.600000e-07	-7.589078e-07	-4.185593e-09	-5.261193e+00	-2.752913e+02
7.700000e-07	-6.288765e-07	-3.974843e-09	-4.359741e+00	-2.614986e+02
7.800000e-07	-4.986445e-07	-3.760873e-09	-3.456896e+00	-2.473002e+02
7.900000e-07	-3.682106e-07	-3.541123e-09	-2.552652e+00	-2.326967e+02
8.000000e-07	-2.376570e-07	-3.312015e-09	-1.647578e+00	-2.176874e+02
8.100000e-07	-1.069701e-07	-3.073763e-09	-7.415795e-01	-2.022667e+02
8.200000e-07	2.380809e-08	-2.831029e-09	1.650516e-01	-1.864214e+02
8.300000e-07	1.545730e-07	-2.583667e-09	1.071591e+00	-1.701285e+02
8.400000e-07	2.853430e-07	-2.329970e-09	1.978165e+00	-1.533538e+02
8.500000e-07	4.159774e-07	-2.068136e-09	2.883799e+00	-1.360534e+02
8.600000e-07	5.463960e-07	-1.795413e-09	3.787937e+00	-1.181757e+02
8.700000e-07	6.766987e-07	-1.510029e-09	4.691272e+00	-9.966559e+01
8.800000e-07	8.068605e-07	-1.213896e-09	5.593630e+00	-8.047085e+01
8.900000e-07	9.367936e-07	-9.087897e-10	6.494402e+00	-6.054837e+01
9.000000e-07	1.066421e-06	-5.942935e-10	7.393058e+00	-3.987147e+01
9.100000e-07	1.195718e-06	-2.696901e-10	8.289418e+00	-1.843644e+01
9.200000e-07	1.324626e-06	6.699368e-11	9.183081e+00	3.732014e+00
9.300000e-07	1.453065e-06	4.160543e-10	1.007350e+01	2.657731e+01
9.400000e-07	1.580917e-06	7.742421e-10	1.095985e+01	5.000995e+01
9.500000e-07	1.708121e-06	1.139672e-09	1.184169e+01	7.390909e+01
9.600000e-07	1.834694e-06	1.512737e-09	1.271918e+01	9.812688e+01
9.700000e-07	1.960616e-06	1.889972e-09	1.359214e+01	1.224951e+02
9.800000e-07	2.085912e-06	2.265454e-09	1.446076e+01	1.468335e+02
9.900000e-07	2.210557e-06	2.632918e-09	1.532488e+01	1.709595e+02
1.000000e-06	2.334389e-06	2.992228e-09	1.618335e+01	1.946977e+02
1.010000e-06	2.457327e-06	3.344717e-09	1.703563e+01	2.178891e+02
1.020000e-06	2.579357e-06	3.686953e-09	1.788161e+01	2.403981e+02
1.030000e-06	2.700455e-06	4.016352e-09	1.872113e+01	2.621186e+02
1.040000e-06	2.820530e-06	4.332576e-09	1.955357e+01	2.829761e+02
1.050000e-06	2.939493e-06	4.635571e-09	2.037829e+01	3.029287e+02
1.060000e-06	3.057364e-06	4.923577e-09	2.119544e+01	3.219642e+02
1.070000e-06	3.174144e-06	5.198103e-09	2.200503e+01	3.400966e+02
1.080000e-06	3.289656e-06	5.459542e-09	2.280583e+01	3.573597e+02
1.090000e-06	3.403812e-06	5.708249e-09	2.359722e+01	3.738014e+02
1.100000e-06	3.516610e-06	5.946929e-09	2.437920e+01	3.894766e+02
1.110000e-06	3.628030e-06	6.175643e-09	2.515163e+01	4.044418e+02
1.120000e-06	3.738227e-06	6.394468e-09	2.591558e+01	4.187503e+02
1.130000e-06	3.847297e-06	6.603145e-09	2.667172e+01	4.324487e+02
1.140000e-06	3.955134e-06	6.801599e-09	2.741931e+01	4.455754e+02
1.150000e-06	4.061581e-06	6.990616e-09	2.815726e+01	4.581605e+02
1.160000e-06	4.166560e-06	7.170908e-09	2.888503e+01	4.702261e+02
1.170000e-06	4.269950e-06	7.344777e-09	2.960179e+01	4.817891e+02
1.180000e-06	4.371810e-06	7.513807e-09	3.030795e+01	4.928622e+02
1.190000e-06	4.472207e-06	7.675206e-09	3.100396e+01	5.034572e+02
1.200000e-06	4.570975e-06	7.828320e-09	3.168868e+01	5.135859e+02
1.210000e-06	4.668027e-06	7.975563e-09	3.236150e+01	5.232619e+02
1.220000e-06	4.763285e-06	8.117451e-09	3.302189e+01	5.325006e+02
1.230000e-06	4.856870e-06	8.253588e-09	3.367067e+01	5.413194e+02
1.240000e-06	4.948881e-06	8.384221e-09	3.430854e+01	5.497367e+02
1.250000e-06	5.039137e-06	8.508122e-09	3.493425e+01	5.577711e+02
1.260000e-06	5.127509e-06	8.626766e-09	3.554689e+01	5.654402e+02
1.270000e-06	5.214029e-06	8.739441e-09	3.614670e+01	5.727599e+02
1.280000e-06	5.298759e-06	8.845969e-09	3.673410e+01	5.797436e+02
1.290000e-06	5.381671e-06	8.948203e-09	3.730890e+01	5.864025e+02
1.300000e-06	5.462580e-06	9.045015e-09	3.786981e+01	5.927463e+02
1.310000e-06	5.541413e-06	9.137146e-09	3.841632e+01	5.987833e+02
1.320000e-06	5.618291e-06	9.224160e-09	3.894929e+01	6.045222e+02
1.330000e-06	5.693071e-06	9.305180e-09	3.946770e+01	6.099726e+02
1.340000e-06	5.765590e-06	9.381564e-09	3.997045e+01	6.151463e+02
1.350000e-06	5.835963e-06	9.454470e-09	4.045831e+01	6.200572e+02
1.360000e-06	5.904257e-06	9.524243e-09	4.093177e+01	6.247214e+02
1.370000e-06	5.970455e-06	9.591388e-09	4.139070e+01	6.291566e+02
1.380000e-06	6.034484e-06	9.657182e-09	4.183458e+01	6.333811e+02
1.390000e-06	6.096390e-06	9.721312e-09	4.226375e+01	6.374121e+02
1.400000e-06	6.156331e-06	9.782634e-09	4.267930e+01	6.412644e+02
1.410000e-06	6.214144e-06	9.839877e-09	4.308009e+01	6.449491e+02
1.420000e-06	6.269695e-06	9.892411e-09	4.346520e+01	6.484728e+02
1.430000e-06	6.322944e-06	9.943308e-09	4.383435e+01	6.518369e+02
1.440000e-06	6.373659e-06	9.993434e-09	4.418594e+01	6.550381e+02
1.450000e-06	6.421775e-06	1.004073e-08	4.451951e+01	6.580695e+02
1.460000e-06	6.467577e-06	1.008425e-08	4.483703e+01	6.609213e+02
1.470000e-06	6.511271e-06	1.012385e-08	4.513994e+01	6.635833e+02
1.480000e-06	6.552603e-06	1.015979e-08	4.542649e+01	6.660466e+02
1.490000e-06	6.591449e-06	1.019253e-08	4.569579e+01	6.683047e+02
1.500000e-06	6.628095e-06	1.022146e-08	4.594984e+01	6.703557e+02
1.510000e-06	6.662468e-06	1.024924e-08	4.618813e+01	6.722024e+02
1.520000e-06	6.694345e-06	1.027599e-08	4.640912e+01	6.738524e+02
1.530000e-06	6.723931e-06	1.029920e-08	4.661423e+01	6.753176e+02
1.540000e-06	6.751308e-06	1.031990e-08	4.680402e+01	6.766130e+02
1.550000e-06	6.776175e-06	1.033741e-08	4.697642e+01	6.777548e+02
1.560000e-06	6.798484e-06	1.035076e-08	4.713107e+01	6.787588e+02
1.570000e-06	6.818473e-06	1.036085e-08	4.726965e+01	6.796388e+02
1.580000e-06	6.836063e-06	1.037002e-08	4.739160e+01	6.804048e+02
1.590000e-06	6.851104e-06	1.037968e-08	4.749587e+01	6.810626e+02
1.600000e-06	6.863634e-06	1.038856e-08	4.758274e+01	6.816136e+02
1.610000e-06	6.873489e-06	1.039578e-08	4.765105e+01	6.820548e+02
1.620000e-06	6.880663e-06	1.040204e-08	4.770079e+01	6.823803e+02
1.630000e-06	6.885457e-06	1.040696e-08	4.773402e+01	6.825826e+02
1.640000e-06	6.887870e-06	1.041011e-08	4.775075e+01	6.826543e+02
1.650000e-06	6.887805e-06	1.040953e-08	4.775030e+01	6.825895e+02
1.660000e-06	6.885430e-06	1.040201e-08	4.773383e+01	6.823856e+02
1.670000e-06	6.880891e-06	1.039462e-08	4.770237e+01	6.820440e+02
1.680000e-06	6.874044e-06	1.038816e-08	4.765490e+01	6.815703e+02
1.690000e-06	6.864878e-06	1.038034e-08	4.759136e+01	6.809742e+02
1.700000e-06	6.853498e-06	1.037162e-08	4.751247e+01	6.802686e+02
1.710000e-06	6.839677e-06	1.036700e-08	4.741665e+01	6.794684e+02
1.720000e-06	6.823529e-06	1.036730e-08	4.730470e+01	6.785886e+02
1.730000e-06	6.805331e-06	1.032056e-08	4.717854e+01	6.776430e+02
1.740000e-06	6.784633e-06	1.026686e-08	4.703505e+01	6.766427e+02
1.750000e-06	6.760682e-06	1.027202e-08	4.686901e+01	6.755946e+02
1.760000e-06	6.733622e-06	1.026345e-08	4.668141e+01	6.745012e+02
1.770000e-06	6.704133e-06	1.025794e-08	4.647698e+01	6.733597e+02
1.780000e-06	6.672757e-06	1.030537e-08	4.625946e+01	6.721631e+02
1.790000e-06	6.639979e-06	1.023439e-08	4.603223e+01	6.709001e+02
1.800000e-06	6.605489e-06	1.017576e-08	4.579312e+01	6.695571e+02
1.810000e-06	6.568439e-06	1.020857e-08	4.553627e+01	6.681185e+02
1.820000e-06	6.529017e-06	1.013579e-08	4.526297e+01	6.665687e+02
1.830000e-06	6.487463e-06	1.016793e-08	4.497490e+01	6.648930e+02
1.840000e-06	6.443687e-06	1.016031e-08	4.467141e+01	6.630786e+02
1.850000e-06	6.397752e-06	1.005447e-08	4.435297e+01	6.611152e+02
1.860000e-06	6.349337e-06	1.005414e-08	4.401733e+01	6.589956e+02
1.870000e-06	6.298574e-06	9.970961e-09	4.366541e+01	6.567155e+02
1.880000e-06	6.245398e-06	9.966325e-09	4.329676e+01	6.542736e+02
1.890000e-06	6.189517e-06	9.964075e-09	4.290936e+01	6.516711e+02
1.900000e-06	6.131333e-06	9.875632e-09	4.250600e+01	6.489114e+02
1.910000e-06	6.070856e-06	9.884006e-09	4.208673e+01	6.459993e+02
1.920000e-06	6.007992e-06	9.790188e-09	4.165092e+01	6.429407e+02
1.930000e-06	5.942935e-06	9.742450e-09	4.119991e+01	6.397418e+02
1.940000e-06	5.875773e-06	9.730743e-09	4.073430e+01	6.364089e+02
1.950000e-06	5.806515e-06	9.652626e-09	4.025416e+01	6.329476e+02
1.960000e-06	5.734851e-06	9.600401e-09	3.975735e+01	6.293626e+02
1.970000e-06	5.660940e-06	9.505075e-09	3.924495e+01	6.256571e+02
1.980000e-06	5.584938e-06	9.485836e-09	3.871807e+01	6.218324e+02
1.990000e-06	5.506616e-06	9.438588e-09	3.817509e+01	6.178881e+02
2.000000e-06	5.426221e-06	9.367096e-09	3.761774e+01	6.138215e+02
2.010000e-06	5.344007e-06	9.310233e-09	3.704779e+01	6.096278e+02
2.020000e-06	5.260011e-06	9.219028e-09	3.646548e+01	6.053006e+02
2.030000e-06	5.174050e-06	9.156125e-09	3.586955e+01	6.008319e+02
2.040000e-06	5.086084e-06	9.080218e-09	3.525972e+01	5.962131e+02
2.050000e-06	4.996398e-06	9.036536e-09	3.463796e+01	5.914357e+02
2.060000e-06	4.905134e-06	8.952874e-09	3.400526e+01	5.864919e+02
2.070000e-06	4.812238e-06	8.849872e-09	3.336125e+01	5.813756e+02
2.080000e-06	4.717487e-06	8.766642e-09	3.270439e+01	5.760828e+02
2.090000e-06	4.621068e-06	8.686899e-09	3.203595e+01	5.706120e+02
2.100000e-06	4.523223e-06	8.618146e-09	3.135763e+01	5.649642e+02
2.110000e-06	4.423881e-06	8.525085e-09	3.066894e+01	5.591427e+02
2.120000e-06	4.322998e-06	8.438446e-09	2.996956e+01	5.531518e+02
2.130000e-06	4.220455e-06	8.340223e-09	2.925867e+01	5.469966e+02
2.140000e-06	4.116238e-06	8.247474e-09	2.853617e+01	5.406811e+02
2.150000e-06	4.010587e-06	8.152762e-09	2.780374e+01	5.342074e+02
2.160000e-06	3.903611e-06	8.053371e-09	2.706212e+01	5.275749e+02
2.170000e-06	3.795296e-06	7.943047e-09	2.631121e+01	5.207793e+02
2.180000e-06	3.685619e-06	7.827282e-09	2.555087e+01	5.138123e+02
2.190000e-06	3.574475e-06	7.720002e-09	2.478036e+01	5.066626e+02
2.200000e-06	3.461941e-06	7.612281e-09	2.400020e+01	4.993161e+02
2.210000e-06	3.348032e-06	7.505702e-09	2.321052e+01	4.917573e+02
2.220000e-06	3.232770e-06	7.382064e-09	2.241146e+01	4.839708e+02
2.230000e-06	3.116221e-06	7.250638e-09	2.160347e+01	4.759431e+02
2.240000e-06	2.998425e-06	7.120135e-09	2.078684e+01	4.676635e+02
2.250000e-06	2.879383e-06	6.999306e-09	1.996157e+01	4.591253e+02
2.260000e-06	2.759140e-06	6.873925e-09	1.912797e+01	4.503261e+02
2.270000e-06	2.637923e-06	6.736605e-09	1.828763e+01	4.412673e+02
2.280000e-06	2.515883e-06	6.591084e-09	1.744158e+01	4.319535e+02
2.290000e-06	2.393048e-06	6.443147e-09	1.659001e+01	4.223908e+02
2.300000e-06	2.269392e-06	6.294032e-09	1.573275e+01	4.125849e+02
2.310000e-06	2.144967e-06	6.145750e-09	1.487017e+01	4.025393e+02
2.320000e-06	2.019821e-06	5.996448e-09	1.400259e+01	3.922534e+02
2.330000e-06	1.893933e-06	5.833394e-09	1.312986e+01	3.817217e+02
2.340000e-06	1.767294e-06	5.662255e-09	1.225192e+01	3.709329e+02
2.350000e-06	1.639959e-06	5.491249e-09	1.136916e+01	3.598702e+02
2.360000e-06	1.512057e-06	5.323273e-09	1.048247e+01	3.485127e+02
2.370000e-06	1.383646e-06	5.149853e-09	9.592248e+00	3.368369e+02
2.380000e-06	1.254745e-06	4.965137e-09	8.698630e+00	3.248190e+02
2.390000e-06	1.125524e-06	4.773221e-09	7.802794e+00	3.124370e+02
2.400000e-06	9.960652e-07	4.576970e-09	6.905308e+00	2.996729e+02
2.410000e-06	8.662760e-07	4.377403e-09	6.005533e+00	2.865135e+02
2.420000e-06	7.362429e-07	4.173861e-09	5.104067e+00	2.729515e+02
2.430000e-06	6.060506e-07	3.962836e-09	4.201498e+00	2.589838e+02
2.440000e-06	4.756367e-07	3.740931e-09	3.297392e+00	2.446107e+02
2.450000e-06	3.450159e-07	3.509160e-09	2.391853e+00	2.298325e+02
2.460000e-06	2.142355e-07	3.273719e-09	1.485206e+00	2.146469e+02
2.470000e-06	8.337007e-08	3.038839e-09	5.779702e-01	1.990454e+02
2.480000e-06	-4.757395e-08	2.800884e-09	-3.298105e-01	1.830106e+02
2.490000e-06	-1.784781e-07	2.550490e-09	-1.237315e+00	1.665150e+02
2.500000e-06	-3.092510e-07	2.285542e-09	-2.143909e+00	1.495199e+02
2.510000e-06	-4.399543e-07	2.011365e-09	-3.050021e+00	1.319776e+02
2.520000e-06	-5.705899e-07	1.733109e-09	-3.955664e+00	1.138345e+02
2.530000e-06	-7.010828e-07	1.449475e-09	-4.860317e+00	9.503601e+01
2.540000e-06	-8.313373e-07	1.153484e-09	-5.763318e+00	7.553282e+01
2.550000e-06	-9.612887e-07	8.450093e-10	-6.664217e+00	5.528803e+01
2.560000e-06	-1.090899e-06	5.261795e-10	-7.562754e+00	3.428407e+01
2.570000e-06	-1.220235e-06	1.976536e-10	-8.459386e+00	1.252883e+01
2.580000e-06	-1.349267e-06	-1.405506e-10	-9.353909e+00	-9.939600e+00
2.590000e-06	-1.477833e-06	-4.890635e-10	-1.024520e+01	-3.305052e+01
2.600000e-06	-1.605754e-06	-8.501064e-10	-1.113202e+01	-5.670064e+01
2.610000e-06	-1.733035e-06	-1.219402e-09	-1.201441e+01	-8.075686e+01
2.620000e-06	-1.859667e-06	-1.588518e-09	-1.289230e+01	-1.050617e+02
2.630000e-06	-1.985536e-06	-1.955418e-09	-1.376490e+01	-1.294406e+02
2.640000e-06	-2.110641e-06	-2.323059e-09	-1.463220e+01	-1.537111e+02
2.650000e-06	-2.234900e-06	-2.693287e-09	-1.549364e+01	-1.776927e+02
2.660000e-06	-2.358206e-06	-3.060347e-09	-1.634847e+01	-2.012159e+02
2.670000e-06	-2.480577e-06	-3.414668e-09	-1.719682e+01	-2.241309e+02
2.680000e-06	-2.602132e-06	-3.753563e-09	-1.803951e+01	-2.463142e+02
2.690000e-06	-2.722785e-06	-4.076408e-09	-1.887594e+01	-2.676731e+02
2.700000e-06	-2.842366e-06	-4.382435e-09	-1.970494e+01	-2.881472e+02
2.710000e-06	-2.960858e-06	-4.676895e-09	-2.052640e+01	-3.077076e+02
2.720000e-06	-3.078168e-06	-4.962183e-09	-2.133967e+01	-3.263541e+02
2.730000e-06	-3.194182e-06	-5.234125e-09	-2.214394e+01	-3.441099e+02
2.740000e-06	-3.308919e-06	-5.492841e-09	-2.293937e+01	-3.610156e+02
2.750000e-06	-3.422314e-06	-5.743401e-09	-2.372549e+01	-3.771229e+02
2.760000e-06	-3.534299e-06	-5.985119e-09	-2.450183e+01	-3.924880e+02
2.770000e-06	-3.644959e-06	-6.214619e-09	-2.526899e+01	-4.071666e+02
2.780000e-06	-3.754347e-06	-6.431198e-09	-2.602734e+01	-4.212094e+02
2.790000e-06	-3.862535e-06	-6.636422e-09	-2.677736e+01	-4.346597e+02
2.800000e-06	-3.969487e-06	-6.832284e-09	-2.751881e+01	-4.475522e+02
2.810000e-06	-4.075097e-06	-7.020909e-09	-2.825096e+01	-4.599133e+02
2.820000e-06	-4.179193e-06	-7.202576e-09	-2.897261e+01	-4.717628e+02
2.830000e-06	-4.281680e-06	-7.375022e-09	-2.968311e+01	-4.831154e+02
2.840000e-06	-4.382558e-06	-7.538792e-09	-3.038246e+01	-4.939833e+02
2.850000e-06	-4.481868e-06	-7.696278e-09	-3.107094e+01	-5.043779e+02
2.860000e-06	-4.579725e-06	-7.849924e-09	-3.174934e+01	-5.143119e+02
2.870000e-06	-4.675975e-06	-7.998634e-09	-3.241660e+01	-5.237995e+02
2.880000e-06	-4.770512e-06	-8.138193e-09	-3.307199e+01	-5.328571e+02
2.890000e-06	-4.863343e-06	-8.267473e-09	-3.371554e+01	-5.415026e+02
2.900000e-06	-4.954480e-06	-8.388704e-09	-3.434736e+01	-5.497546e+02
2.910000e-06	-5.043903e-06	-8.506772e-09	-3.496729e+01	-5.576315e+02
2.920000e-06	-5.131414e-06	-8.622589e-09	-3.557397e+01	-5.651500e+02
2.930000e-06	-5.216932e-06	-8.732634e-09	-3.616683e+01	-5.723252e+02
2.940000e-06	-5.300586e-06	-8.836089e-09	-3.674677e+01	-5.791696e+02
