# Temperatura_=_29.4
# Concentracion g/m^3_=_15000.0
# C_Vs_to_Am_M_A/Vsm_=_65563218390.804596
# pendiente_HvsI_1/m_=_3716.3
# ordenada_HvsI_A/m_=_1297.0
# frecuencia_Hz_=_301976.47686810524

Tiempo_(s)	Campo_(V.s)	Magnetizacion_(V.s)	Campo_(kA/m)	Magnetizacion_(A/m)
0.000000e+00	-6.864383e-06	-1.002517e-08	-4.746944e+01	-6.567736e+02
1.000000e-08	-6.860720e-06	-1.002459e-08	-4.744411e+01	-6.565428e+02
2.000000e-08	-6.854918e-06	-1.002012e-08	-4.740400e+01	-6.561830e+02
3.000000e-08	-6.846977e-06	-1.001382e-08	-4.734907e+01	-6.556994e+02
4.000000e-08	-6.836635e-06	-1.000471e-08	-4.727756e+01	-6.551008e+02
5.000000e-08	-6.823735e-06	-9.993226e-09	-4.718836e+01	-6.543992e+02
6.000000e-08	-6.808354e-06	-9.977868e-09	-4.708199e+01	-6.536086e+02
7.000000e-08	-6.790682e-06	-9.964761e-09	-4.695978e+01	-6.527434e+02
8.000000e-08	-6.770880e-06	-9.974718e-09	-4.682284e+01	-6.518171e+02
9.000000e-08	-6.748632e-06	-9.988492e-09	-4.666899e+01	-6.508406e+02
1.000000e-07	-6.723544e-06	-9.952592e-09	-4.649550e+01	-6.498214e+02
1.100000e-07	-6.695748e-06	-9.911472e-09	-4.630328e+01	-6.487622e+02
1.200000e-07	-6.665665e-06	-9.890511e-09	-4.609525e+01	-6.476608e+02
1.300000e-07	-6.633584e-06	-9.844212e-09	-4.587340e+01	-6.465106e+02
1.400000e-07	-6.599583e-06	-9.816191e-09	-4.563827e+01	-6.453007e+02
1.500000e-07	-6.563659e-06	-9.864983e-09	-4.538984e+01	-6.440171e+02
1.600000e-07	-6.525695e-06	-9.798205e-09	-4.512731e+01	-6.426442e+02
1.700000e-07	-6.485622e-06	-9.739963e-09	-4.485019e+01	-6.411656e+02
1.800000e-07	-6.443105e-06	-9.758965e-09	-4.455617e+01	-6.395661e+02
1.900000e-07	-6.398032e-06	-9.701510e-09	-4.424447e+01	-6.378322e+02
2.000000e-07	-6.350645e-06	-9.714952e-09	-4.391678e+01	-6.359534e+02
2.100000e-07	-6.300674e-06	-9.716604e-09	-4.357122e+01	-6.339225e+02
2.200000e-07	-6.248071e-06	-9.670429e-09	-4.320745e+01	-6.317359e+02
2.300000e-07	-6.193078e-06	-9.619149e-09	-4.282715e+01	-6.293933e+02
2.400000e-07	-6.135661e-06	-9.539344e-09	-4.243010e+01	-6.268975e+02
2.500000e-07	-6.075912e-06	-9.502045e-09	-4.201691e+01	-6.242534e+02
2.600000e-07	-6.014040e-06	-9.466493e-09	-4.158904e+01	-6.214677e+02
2.700000e-07	-5.950014e-06	-9.409982e-09	-4.114629e+01	-6.185478e+02
2.800000e-07	-5.883703e-06	-9.367347e-09	-4.068772e+01	-6.155011e+02
2.900000e-07	-5.815138e-06	-9.324773e-09	-4.021357e+01	-6.123341e+02
3.000000e-07	-5.744447e-06	-9.287068e-09	-3.972473e+01	-6.090520e+02
3.100000e-07	-5.671600e-06	-9.233428e-09	-3.922096e+01	-6.056583e+02
3.200000e-07	-5.596456e-06	-9.195361e-09	-3.870132e+01	-6.021543e+02
3.300000e-07	-5.518994e-06	-9.135271e-09	-3.816564e+01	-5.985391e+02
3.400000e-07	-5.439347e-06	-9.056264e-09	-3.761486e+01	-5.948095e+02
3.500000e-07	-5.357712e-06	-9.008575e-09	-3.705033e+01	-5.909603e+02
3.600000e-07	-5.274288e-06	-8.961697e-09	-3.647342e+01	-5.869848e+02
3.700000e-07	-5.189109e-06	-8.906385e-09	-3.588438e+01	-5.828750e+02
3.800000e-07	-5.102197e-06	-8.826958e-09	-3.528335e+01	-5.786222e+02
3.900000e-07	-5.013479e-06	-8.753311e-09	-3.466984e+01	-5.742182e+02
4.000000e-07	-4.922871e-06	-8.682867e-09	-3.404326e+01	-5.696552e+02
4.100000e-07	-4.830580e-06	-8.612726e-09	-3.340504e+01	-5.649271e+02
4.200000e-07	-4.736756e-06	-8.549945e-09	-3.275621e+01	-5.600296e+02
4.300000e-07	-4.641271e-06	-8.475501e-09	-3.209590e+01	-5.549603e+02
4.400000e-07	-4.543999e-06	-8.388526e-09	-3.142323e+01	-5.497194e+02
4.500000e-07	-4.444994e-06	-8.295381e-09	-3.073858e+01	-5.443089e+02
4.600000e-07	-4.344435e-06	-8.215799e-09	-3.004318e+01	-5.387323e+02
4.700000e-07	-4.242444e-06	-8.138651e-09	-2.933788e+01	-5.329936e+02
4.800000e-07	-4.138959e-06	-8.048001e-09	-2.862225e+01	-5.270969e+02
4.900000e-07	-4.033947e-06	-7.949593e-09	-2.789606e+01	-5.210448e+02
5.000000e-07	-3.927356e-06	-7.851610e-09	-2.715895e+01	-5.148381e+02
5.100000e-07	-3.819259e-06	-7.755079e-09	-2.641142e+01	-5.084747e+02
5.200000e-07	-3.709854e-06	-7.658208e-09	-2.565485e+01	-5.019493e+02
5.300000e-07	-3.599235e-06	-7.555094e-09	-2.488988e+01	-4.952534e+02
5.400000e-07	-3.487248e-06	-7.443101e-09	-2.411546e+01	-4.883758e+02
5.500000e-07	-3.373747e-06	-7.330015e-09	-2.333056e+01	-4.813033e+02
5.600000e-07	-3.258798e-06	-7.221518e-09	-2.253565e+01	-4.740218e+02
5.700000e-07	-3.142494e-06	-7.114715e-09	-2.173137e+01	-4.665176e+02
5.800000e-07	-3.025009e-06	-7.000957e-09	-2.091892e+01	-4.587784e+02
5.900000e-07	-2.906452e-06	-6.878695e-09	-2.009906e+01	-4.507947e+02
6.000000e-07	-2.786877e-06	-6.749515e-09	-1.927217e+01	-4.425601e+02
6.100000e-07	-2.666237e-06	-6.617697e-09	-1.843789e+01	-4.340719e+02
6.200000e-07	-2.544563e-06	-6.484600e-09	-1.759649e+01	-4.253304e+02
6.300000e-07	-2.421939e-06	-6.349176e-09	-1.674850e+01	-4.163383e+02
6.400000e-07	-2.298301e-06	-6.205807e-09	-1.589350e+01	-4.070993e+02
6.500000e-07	-2.173802e-06	-6.054048e-09	-1.503255e+01	-3.976165e+02
6.600000e-07	-2.048618e-06	-5.901731e-09	-1.416686e+01	-3.878910e+02
6.700000e-07	-1.922788e-06	-5.751058e-09	-1.329671e+01	-3.779207e+02
6.800000e-07	-1.796391e-06	-5.598660e-09	-1.242263e+01	-3.676990e+02
6.900000e-07	-1.669384e-06	-5.440333e-09	-1.154433e+01	-3.572145e+02
7.000000e-07	-1.541729e-06	-5.276372e-09	-1.066156e+01	-3.464516e+02
7.100000e-07	-1.413538e-06	-5.106253e-09	-9.775075e+00	-3.353913e+02
7.200000e-07	-1.284873e-06	-4.931566e-09	-8.885314e+00	-3.240126e+02
7.300000e-07	-1.155763e-06	-4.752290e-09	-7.992478e+00	-3.122945e+02
7.400000e-07	-1.026278e-06	-4.565620e-09	-7.097044e+00	-3.002181e+02
7.500000e-07	-8.964616e-07	-4.371506e-09	-6.199324e+00	-2.877676e+02
7.600000e-07	-7.663080e-07	-4.172374e-09	-5.299270e+00	-2.749321e+02
7.700000e-07	-6.358972e-07	-3.972482e-09	-4.397436e+00	-2.617057e+02
7.800000e-07	-5.053299e-07	-3.771436e-09	-3.494521e+00	-2.480865e+02
7.900000e-07	-3.745783e-07	-3.563729e-09	-2.590331e+00	-2.340758e+02
8.000000e-07	-2.436666e-07	-3.346189e-09	-1.685034e+00	-2.196754e+02
8.100000e-07	-1.126233e-07	-3.120904e-09	-7.788271e-01	-2.048849e+02
8.200000e-07	1.853560e-08	-2.889838e-09	1.281797e-01	-1.896994e+02
8.300000e-07	1.497623e-07	-2.651697e-09	1.035655e+00	-1.741063e+02
8.400000e-07	2.809957e-07	-2.406915e-09	1.943177e+00	-1.580845e+02
8.500000e-07	4.121659e-07	-2.155185e-09	2.850262e+00	-1.416035e+02
8.600000e-07	5.432482e-07	-1.894068e-09	3.756739e+00	-1.246245e+02
8.700000e-07	6.741220e-07	-1.623432e-09	4.661773e+00	-1.071030e+02
8.800000e-07	8.046659e-07	-1.345133e-09	5.564527e+00	-8.899324e+01
8.900000e-07	9.349376e-07	-1.060890e-09	6.465398e+00	-7.025269e+01
9.000000e-07	1.064888e-06	-7.680274e-10	7.364049e+00	-5.084859e+01
9.100000e-07	1.194461e-06	-4.628883e-10	8.260089e+00	-3.076371e+01
9.200000e-07	1.323645e-06	-1.460259e-10	9.153438e+00	-1.000192e+01
9.300000e-07	1.452352e-06	1.813080e-10	1.004348e+01	1.140755e+01
9.400000e-07	1.580516e-06	5.166087e-10	1.092978e+01	3.340746e+01
9.500000e-07	1.708058e-06	8.595848e-10	1.181178e+01	5.591211e+01
9.600000e-07	1.834967e-06	1.210858e-09	1.268939e+01	7.880917e+01
9.700000e-07	1.961186e-06	1.567226e-09	1.356224e+01	1.019637e+02
9.800000e-07	2.086734e-06	1.924293e-09	1.443045e+01	1.252241e+02
9.900000e-07	2.211656e-06	2.277189e-09	1.529433e+01	1.484297e+02
1.000000e-06	2.335845e-06	2.625159e-09	1.615313e+01	1.714187e+02
1.010000e-06	2.459206e-06	2.969284e-09	1.700621e+01	1.940366e+02
1.020000e-06	2.581613e-06	3.307648e-09	1.785269e+01	2.161438e+02
1.030000e-06	2.703025e-06	3.635928e-09	1.869230e+01	2.376215e+02
1.040000e-06	2.823362e-06	3.951384e-09	1.952447e+01	2.583766e+02
1.050000e-06	2.942533e-06	4.254323e-09	2.034858e+01	2.783435e+02
1.060000e-06	3.060643e-06	4.544098e-09	2.116535e+01	2.974843e+02
1.070000e-06	3.177724e-06	4.820927e-09	2.197500e+01	3.157868e+02
1.080000e-06	3.293625e-06	5.085705e-09	2.277649e+01	3.332610e+02
1.090000e-06	3.408171e-06	5.339137e-09	2.356862e+01	3.499340e+02
1.100000e-06	3.521337e-06	5.582143e-09	2.435119e+01	3.658447e+02
1.110000e-06	3.633141e-06	5.814618e-09	2.512436e+01	3.810383e+02
1.120000e-06	3.743633e-06	6.037569e-09	2.588844e+01	3.955618e+02
1.130000e-06	3.852953e-06	6.250677e-09	2.664443e+01	4.094591e+02
1.140000e-06	3.961058e-06	6.453979e-09	2.739201e+01	4.227695e+02
1.150000e-06	4.067815e-06	6.648114e-09	2.813027e+01	4.355252e+02
1.160000e-06	4.173133e-06	6.831739e-09	2.885857e+01	4.477517e+02
1.170000e-06	4.276852e-06	7.006878e-09	2.957583e+01	4.594683e+02
1.180000e-06	4.379004e-06	7.175828e-09	3.028224e+01	4.706896e+02
1.190000e-06	4.479697e-06	7.337877e-09	3.097856e+01	4.814275e+02
1.200000e-06	4.578835e-06	7.494138e-09	3.166413e+01	4.916924e+02
1.210000e-06	4.676242e-06	7.644776e-09	3.233774e+01	5.014956e+02
1.220000e-06	4.771808e-06	7.788987e-09	3.299861e+01	5.108492e+02
1.230000e-06	4.865644e-06	7.926426e-09	3.364751e+01	5.197677e+02
1.240000e-06	4.957885e-06	8.059608e-09	3.428539e+01	5.282670e+02
1.250000e-06	5.048432e-06	8.186748e-09	3.491155e+01	5.363643e+02
1.260000e-06	5.137095e-06	8.306666e-09	3.552469e+01	5.440773e+02
1.270000e-06	5.223832e-06	8.418623e-09	3.612450e+01	5.514233e+02
1.280000e-06	5.308786e-06	8.524196e-09	3.671199e+01	5.584183e+02
1.290000e-06	5.391899e-06	8.627131e-09	3.728674e+01	5.650771e+02
1.300000e-06	5.473018e-06	8.722899e-09	3.784770e+01	5.714126e+02
1.310000e-06	5.552113e-06	8.811379e-09	3.839467e+01	5.774368e+02
1.320000e-06	5.629253e-06	8.895741e-09	3.892812e+01	5.831604e+02
1.330000e-06	5.704318e-06	8.977392e-09	3.944722e+01	5.885946e+02
1.340000e-06	5.777069e-06	9.054996e-09	3.995032e+01	5.937509e+02
1.350000e-06	5.847670e-06	9.129007e-09	4.043854e+01	5.986419e+02
1.360000e-06	5.916270e-06	9.199268e-09	4.091294e+01	6.032818e+02
1.370000e-06	5.982784e-06	9.265377e-09	4.137290e+01	6.076858e+02
1.380000e-06	6.047093e-06	9.329267e-09	4.181762e+01	6.118698e+02
1.390000e-06	6.109284e-06	9.390880e-09	4.224769e+01	6.158493e+02
1.400000e-06	6.169484e-06	9.451256e-09	4.266399e+01	6.196387e+02
1.410000e-06	6.227510e-06	9.507975e-09	4.306526e+01	6.232500e+02
1.420000e-06	6.283279e-06	9.559783e-09	4.345092e+01	6.266919e+02
1.430000e-06	6.336820e-06	9.609107e-09	4.382118e+01	6.299694e+02
1.440000e-06	6.387840e-06	9.657046e-09	4.417399e+01	6.330834e+02
1.450000e-06	6.436173e-06	9.701933e-09	4.450823e+01	6.360313e+02
1.460000e-06	6.482121e-06	9.742930e-09	4.482598e+01	6.388077e+02
1.470000e-06	6.525973e-06	9.781570e-09	4.512923e+01	6.414056e+02
1.480000e-06	6.567501e-06	9.816838e-09	4.541641e+01	6.438182e+02
1.490000e-06	6.606552e-06	9.850207e-09	4.568646e+01	6.460397e+02
1.500000e-06	6.643398e-06	9.881481e-09	4.594126e+01	6.480672e+02
1.510000e-06	6.678011e-06	9.909633e-09	4.618062e+01	6.499012e+02
1.520000e-06	6.710133e-06	9.934037e-09	4.640276e+01	6.515463e+02
1.530000e-06	6.739861e-06	9.954474e-09	4.660833e+01	6.530110e+02
1.540000e-06	6.767322e-06	9.973069e-09	4.679824e+01	6.543067e+02
1.550000e-06	6.792323e-06	9.989779e-09	4.697113e+01	6.554472e+02
1.560000e-06	6.814817e-06	1.000453e-08	4.712668e+01	6.564466e+02
1.570000e-06	6.834975e-06	1.001719e-08	4.726608e+01	6.573183e+02
1.580000e-06	6.852720e-06	1.002806e-08	4.738879e+01	6.580735e+02
1.590000e-06	6.867885e-06	1.003804e-08	4.749366e+01	6.587199e+02
1.600000e-06	6.880515e-06	1.004654e-08	4.758101e+01	6.592617e+02
1.610000e-06	6.890447e-06	1.005220e-08	4.764969e+01	6.596991e+02
1.620000e-06	6.897679e-06	1.005734e-08	4.769970e+01	6.600288e+02
1.630000e-06	6.902537e-06	1.006272e-08	4.773329e+01	6.602455e+02
1.640000e-06	6.905041e-06	1.006528e-08	4.775061e+01	6.603428e+02
1.650000e-06	6.905061e-06	1.006462e-08	4.775075e+01	6.603148e+02
1.660000e-06	6.902723e-06	1.005669e-08	4.773458e+01	6.601576e+02
1.670000e-06	6.898220e-06	1.004839e-08	4.770344e+01	6.598704e+02
1.680000e-06	6.891382e-06	1.004227e-08	4.765615e+01	6.594558e+02
1.690000e-06	6.882223e-06	1.003595e-08	4.759282e+01	6.589209e+02
1.700000e-06	6.870872e-06	1.002855e-08	4.751432e+01	6.582757e+02
1.710000e-06	6.857133e-06	1.002127e-08	4.741931e+01	6.575334e+02
1.720000e-06	6.841086e-06	1.001579e-08	4.730834e+01	6.567082e+02
1.730000e-06	6.822980e-06	9.978518e-09	4.718313e+01	6.558145e+02
1.740000e-06	6.802384e-06	9.930463e-09	4.704070e+01	6.548647e+02
1.750000e-06	6.778547e-06	9.936686e-09	4.687586e+01	6.538685e+02
1.760000e-06	6.751600e-06	9.934662e-09	4.668952e+01	6.528313e+02
1.770000e-06	6.722206e-06	9.919183e-09	4.648624e+01	6.517537e+02
1.780000e-06	6.690825e-06	9.949820e-09	4.626924e+01	6.506317e+02
1.790000e-06	6.657945e-06	9.896160e-09	4.604186e+01	6.494566e+02
1.800000e-06	6.623425e-06	9.842367e-09	4.580314e+01	6.482162e+02
1.810000e-06	6.586438e-06	9.894559e-09	4.554736e+01	6.468955e+02
1.820000e-06	6.547037e-06	9.837337e-09	4.527490e+01	6.454784e+02
1.830000e-06	6.505479e-06	9.836957e-09	4.498750e+01	6.439490e+02
1.840000e-06	6.461659e-06	9.830999e-09	4.468448e+01	6.422926e+02
1.850000e-06	6.415637e-06	9.712941e-09	4.436622e+01	6.404969e+02
1.860000e-06	6.367238e-06	9.714791e-09	4.403153e+01	6.385528e+02
1.870000e-06	6.316498e-06	9.662364e-09	4.368064e+01	6.364546e+02
1.880000e-06	6.263325e-06	9.648698e-09	4.331294e+01	6.342002e+02
1.890000e-06	6.207456e-06	9.670812e-09	4.292658e+01	6.317906e+02
1.900000e-06	6.149214e-06	9.593426e-09	4.252382e+01	6.292297e+02
1.910000e-06	6.088678e-06	9.582535e-09	4.210519e+01	6.265232e+02
1.920000e-06	6.025859e-06	9.506836e-09	4.167078e+01	6.236783e+02
1.930000e-06	5.960859e-06	9.449878e-09	4.122128e+01	6.207024e+02
1.940000e-06	5.893651e-06	9.432804e-09	4.075652e+01	6.176025e+02
1.950000e-06	5.824264e-06	9.358565e-09	4.027668e+01	6.143848e+02
1.960000e-06	5.752483e-06	9.323374e-09	3.978030e+01	6.110538e+02
1.970000e-06	5.678473e-06	9.241974e-09	3.926849e+01	6.076120e+02
1.980000e-06	5.602349e-06	9.214000e-09	3.874207e+01	6.040598e+02
1.990000e-06	5.523983e-06	9.174636e-09	3.820014e+01	6.003953e+02
2.000000e-06	5.443524e-06	9.097645e-09	3.764374e+01	5.966144e+02
2.010000e-06	5.361188e-06	9.045723e-09	3.707436e+01	5.927112e+02
2.020000e-06	5.277100e-06	8.964687e-09	3.649287e+01	5.886783e+02
2.030000e-06	5.191007e-06	8.909531e-09	3.589750e+01	5.845074e+02
2.040000e-06	5.102887e-06	8.840322e-09	3.528813e+01	5.801900e+02
2.050000e-06	5.013059e-06	8.785554e-09	3.466694e+01	5.757180e+02
2.060000e-06	4.921674e-06	8.708769e-09	3.403498e+01	5.710841e+02
2.070000e-06	4.828627e-06	8.617319e-09	3.339153e+01	5.662830e+02
2.080000e-06	4.733755e-06	8.544597e-09	3.273546e+01	5.613111e+02
2.090000e-06	4.637200e-06	8.473395e-09	3.206775e+01	5.561674e+02
2.100000e-06	4.539121e-06	8.408337e-09	3.138950e+01	5.508527e+02
2.110000e-06	4.439553e-06	8.313560e-09	3.070096e+01	5.453697e+02
2.120000e-06	4.338424e-06	8.226609e-09	3.000162e+01	5.397222e+02
2.130000e-06	4.235654e-06	8.134947e-09	2.929093e+01	5.339146e+02
2.140000e-06	4.131218e-06	8.044317e-09	2.856872e+01	5.279502e+02
2.150000e-06	4.025305e-06	7.953872e-09	2.783630e+01	5.218312e+02
2.160000e-06	3.918094e-06	7.862116e-09	2.709489e+01	5.155569e+02
2.170000e-06	3.809514e-06	7.766336e-09	2.634403e+01	5.091241e+02
2.180000e-06	3.699550e-06	7.661853e-09	2.558359e+01	5.025260e+02
2.190000e-06	3.588120e-06	7.562393e-09	2.481302e+01	4.957530e+02
2.200000e-06	3.475356e-06	7.458310e-09	2.403322e+01	4.887927e+02
2.210000e-06	3.361312e-06	7.350184e-09	2.324457e+01	4.816316e+02
2.220000e-06	3.245927e-06	7.228906e-09	2.244664e+01	4.742555e+02
2.230000e-06	3.129104e-06	7.106598e-09	2.163877e+01	4.666511e+02
2.240000e-06	3.010987e-06	6.983305e-09	2.082196e+01	4.588073e+02
2.250000e-06	2.891757e-06	6.865665e-09	1.999744e+01	4.507158e+02
2.260000e-06	2.771342e-06	6.746193e-09	1.916473e+01	4.423719e+02
2.270000e-06	2.649886e-06	6.617688e-09	1.832482e+01	4.337741e+02
2.280000e-06	2.527528e-06	6.484012e-09	1.747868e+01	4.249240e+02
2.290000e-06	2.404322e-06	6.346758e-09	1.662667e+01	4.158248e+02
2.300000e-06	2.280281e-06	6.207678e-09	1.576888e+01	4.064802e+02
2.310000e-06	2.155435e-06	6.064228e-09	1.490553e+01	3.968926e+02
2.320000e-06	2.029838e-06	5.914200e-09	1.403699e+01	3.870619e+02
2.330000e-06	1.903587e-06	5.754737e-09	1.316393e+01	3.769841e+02
2.340000e-06	1.776727e-06	5.593167e-09	1.228665e+01	3.666506e+02
2.350000e-06	1.649199e-06	5.431223e-09	1.140475e+01	3.560482e+02
2.360000e-06	1.520971e-06	5.271319e-09	1.051801e+01	3.451595e+02
2.370000e-06	1.392168e-06	5.105603e-09	9.627293e+00	3.339645e+02
2.380000e-06	1.262986e-06	4.929032e-09	8.733958e+00	3.224420e+02
2.390000e-06	1.133520e-06	4.746401e-09	7.838663e+00	3.105717e+02
2.400000e-06	1.003764e-06	4.558955e-09	6.941356e+00	2.983358e+02
2.410000e-06	8.737309e-07	4.368520e-09	6.042134e+00	2.857206e+02
2.420000e-06	7.434052e-07	4.171626e-09	5.140889e+00	2.727173e+02
2.430000e-06	6.128578e-07	3.966825e-09	4.238112e+00	2.593217e+02
2.440000e-06	4.821806e-07	3.753979e-09	3.334436e+00	2.455337e+02
2.450000e-06	3.512863e-07	3.532191e-09	2.429259e+00	2.313550e+02
2.460000e-06	2.201899e-07	3.307067e-09	1.522685e+00	2.167868e+02
2.470000e-06	8.902281e-08	3.080858e-09	6.156217e-01	2.018273e+02
2.480000e-06	-4.221466e-08	2.851150e-09	-2.919281e-01	1.864682e+02
2.490000e-06	-1.734941e-07	2.613333e-09	-1.199769e+00	1.706938e+02
2.500000e-06	-3.046803e-07	2.363754e-09	-2.106963e+00	1.544786e+02
2.510000e-06	-4.357410e-07	2.104880e-09	-3.013291e+00	1.377885e+02
2.520000e-06	-5.666741e-07	1.838774e-09	-3.918736e+00	1.205819e+02
2.530000e-06	-6.974447e-07	1.566141e-09	-4.823057e+00	1.028130e+02
2.540000e-06	-8.279923e-07	1.285855e-09	-5.725837e+00	8.443684e+01
2.550000e-06	-9.582504e-07	9.968685e-10	-6.626614e+00	6.541434e+01
2.560000e-06	-1.088229e-06	6.991390e-10	-7.525459e+00	4.571867e+01
2.570000e-06	-1.217887e-06	3.937245e-10	-8.422084e+00	2.534101e+01
2.580000e-06	-1.347129e-06	7.861147e-11	-9.315833e+00	4.295651e+00
2.590000e-06	-1.475949e-06	-2.493163e-10	-1.020667e+01	-1.737635e+01
2.600000e-06	-1.604297e-06	-5.898107e-10	-1.109424e+01	-3.960550e+01
2.610000e-06	-1.731990e-06	-9.393235e-10	-1.197728e+01	-6.229433e+01
2.620000e-06	-1.858904e-06	-1.292940e-09	-1.285493e+01	-8.532018e+01
2.630000e-06	-1.985057e-06	-1.647617e-09	-1.372731e+01	-1.085402e+02
2.640000e-06	-2.110472e-06	-2.001394e-09	-1.459460e+01	-1.317978e+02
2.650000e-06	-2.235132e-06	-2.356030e-09	-1.545666e+01	-1.549310e+02
2.660000e-06	-2.358914e-06	-2.708305e-09	-1.631266e+01	-1.777799e+02
2.670000e-06	-2.481672e-06	-3.051329e-09	-1.716157e+01	-2.001958e+02
2.680000e-06	-2.603482e-06	-3.384483e-09	-1.800393e+01	-2.220471e+02
2.690000e-06	-2.724431e-06	-3.706429e-09	-1.884033e+01	-2.432258e+02
2.700000e-06	-2.844416e-06	-4.013665e-09	-1.967006e+01	-2.636503e+02
2.710000e-06	-2.963244e-06	-4.308790e-09	-2.049180e+01	-2.832670e+02
2.720000e-06	-3.080894e-06	-4.594651e-09	-2.130539e+01	-3.020494e+02
2.730000e-06	-3.197393e-06	-4.869991e-09	-2.211101e+01	-3.199954e+02
2.740000e-06	-3.312576e-06	-5.134906e-09	-2.290754e+01	-3.371229e+02
2.750000e-06	-3.426333e-06	-5.388547e-09	-2.369421e+01	-3.534648e+02
2.760000e-06	-3.538656e-06	-5.629039e-09	-2.447096e+01	-3.690633e+02
2.770000e-06	-3.649600e-06	-5.856682e-09	-2.523818e+01	-3.839648e+02
2.780000e-06	-3.759269e-06	-6.074204e-09	-2.599657e+01	-3.982156e+02
2.790000e-06	-3.867743e-06	-6.282664e-09	-2.674670e+01	-4.118578e+02
2.800000e-06	-3.975017e-06	-6.481911e-09	-2.748853e+01	-4.249277e+02
2.810000e-06	-4.080968e-06	-6.674347e-09	-2.822122e+01	-4.374547e+02
2.820000e-06	-4.185437e-06	-6.859965e-09	-2.894366e+01	-4.494614e+02
2.830000e-06	-4.288291e-06	-7.036736e-09	-2.965493e+01	-4.609650e+02
2.840000e-06	-4.389498e-06	-7.204489e-09	-3.035481e+01	-4.719786e+02
2.850000e-06	-4.489165e-06	-7.364513e-09	-3.104404e+01	-4.825133e+02
2.860000e-06	-4.587346e-06	-7.517288e-09	-3.172300e+01	-4.925797e+02
2.870000e-06	-4.683976e-06	-7.661788e-09	-3.239122e+01	-5.021894e+02
2.880000e-06	-4.778927e-06	-7.798071e-09	-3.304784e+01	-5.113555e+02
2.890000e-06	-4.872093e-06	-7.928274e-09	-3.369211e+01	-5.200931e+02
2.900000e-06	-4.963531e-06	-8.052682e-09	-3.432444e+01	-5.284188e+02
2.910000e-06	-5.053298e-06	-8.171915e-09	-3.494520e+01	-5.363500e+02
2.920000e-06	-5.141224e-06	-8.288141e-09	-3.555324e+01	-5.439045e+02
2.930000e-06	-5.227110e-06	-8.401080e-09	-3.614717e+01	-5.510989e+02
2.940000e-06	-5.311033e-06	-8.507924e-09	-3.672752e+01	-5.579490e+02
