# Temperatura_=_44.23
# Concentracion g/m^3_=_15000.0
# C_Vs_to_Am_M_A/Vsm_=_65563218390.804596
# pendiente_HvsI_1/m_=_3716.3
# ordenada_HvsI_A/m_=_1297.0
# frecuencia_Hz_=_301970.74777381076

Tiempo_(s)	Campo_(V.s)	Magnetizacion_(V.s)	Campo_(kA/m)	Magnetizacion_(A/m)
0.000000e+00	-6.847694e-06	-1.008400e-08	-4.746796e+01	-6.607541e+02
1.000000e-08	-6.843741e-06	-1.008062e-08	-4.744056e+01	-6.604660e+02
2.000000e-08	-6.837615e-06	-1.007536e-08	-4.739810e+01	-6.600405e+02
3.000000e-08	-6.829306e-06	-1.007126e-08	-4.734050e+01	-6.594860e+02
4.000000e-08	-6.818566e-06	-1.006297e-08	-4.726605e+01	-6.588156e+02
5.000000e-08	-6.805350e-06	-1.005039e-08	-4.717444e+01	-6.580458e+02
6.000000e-08	-6.789701e-06	-1.003008e-08	-4.706596e+01	-6.571946e+02
7.000000e-08	-6.771748e-06	-1.000903e-08	-4.694151e+01	-6.562798e+02
8.000000e-08	-6.751659e-06	-1.004392e-08	-4.680225e+01	-6.553169e+02
9.000000e-08	-6.729078e-06	-1.006175e-08	-4.664572e+01	-6.543176e+02
1.000000e-07	-6.703639e-06	-1.000403e-08	-4.646938e+01	-6.532880e+02
1.100000e-07	-6.675552e-06	-9.961503e-09	-4.627468e+01	-6.522285e+02
1.200000e-07	-6.645253e-06	-9.938570e-09	-4.606465e+01	-6.511334e+02
1.300000e-07	-6.612970e-06	-9.850401e-09	-4.584086e+01	-6.499917e+02
1.400000e-07	-6.578755e-06	-9.852667e-09	-4.560369e+01	-6.487877e+02
1.500000e-07	-6.542645e-06	-9.964123e-09	-4.535337e+01	-6.475032e+02
1.600000e-07	-6.504494e-06	-9.842694e-09	-4.508892e+01	-6.461186e+02
1.700000e-07	-6.464193e-06	-9.815750e-09	-4.480955e+01	-6.446150e+02
1.800000e-07	-6.421517e-06	-9.843465e-09	-4.451372e+01	-6.429754e+02
1.900000e-07	-6.376322e-06	-9.724304e-09	-4.420043e+01	-6.411861e+02
2.000000e-07	-6.328753e-06	-9.740772e-09	-4.387068e+01	-6.392373e+02
2.100000e-07	-6.278521e-06	-9.744087e-09	-4.352248e+01	-6.371236e+02
2.200000e-07	-6.225655e-06	-9.717839e-09	-4.315601e+01	-6.348438e+02
2.300000e-07	-6.170448e-06	-9.654306e-09	-4.277332e+01	-6.324002e+02
2.400000e-07	-6.112822e-06	-9.578485e-09	-4.237385e+01	-6.297984e+02
2.500000e-07	-6.052912e-06	-9.577672e-09	-4.195856e+01	-6.270460e+02
2.600000e-07	-5.990884e-06	-9.509815e-09	-4.152858e+01	-6.241516e+02
2.700000e-07	-5.926707e-06	-9.445799e-09	-4.108371e+01	-6.211241e+02
2.800000e-07	-5.860310e-06	-9.417600e-09	-4.062345e+01	-6.179718e+02
2.900000e-07	-5.791662e-06	-9.367237e-09	-4.014759e+01	-6.147017e+02
3.000000e-07	-5.720892e-06	-9.319805e-09	-3.965701e+01	-6.113193e+02
3.100000e-07	-5.647918e-06	-9.265629e-09	-3.915116e+01	-6.078275e+02
3.200000e-07	-5.572614e-06	-9.236114e-09	-3.862916e+01	-6.042275e+02
3.300000e-07	-5.495052e-06	-9.159593e-09	-3.809150e+01	-6.005177e+02
3.400000e-07	-5.415296e-06	-9.081540e-09	-3.753863e+01	-5.966947e+02
3.500000e-07	-5.333565e-06	-9.035997e-09	-3.697208e+01	-5.927531e+02
3.600000e-07	-5.250091e-06	-8.988842e-09	-3.639344e+01	-5.886859e+02
3.700000e-07	-5.164862e-06	-8.937756e-09	-3.580263e+01	-5.844852e+02
3.800000e-07	-5.077882e-06	-8.854709e-09	-3.519969e+01	-5.801423e+02
3.900000e-07	-4.989140e-06	-8.784040e-09	-3.458454e+01	-5.756491e+02
4.000000e-07	-4.898561e-06	-8.702872e-09	-3.395665e+01	-5.709979e+02
4.100000e-07	-4.806259e-06	-8.628692e-09	-3.331681e+01	-5.661826e+02
4.200000e-07	-4.712374e-06	-8.571733e-09	-3.266601e+01	-5.611989e+02
4.300000e-07	-4.616842e-06	-8.497178e-09	-3.200378e+01	-5.560447e+02
4.400000e-07	-4.519544e-06	-8.407880e-09	-3.132932e+01	-5.507199e+02
4.500000e-07	-4.420569e-06	-8.315323e-09	-3.064322e+01	-5.452266e+02
4.600000e-07	-4.320042e-06	-8.233597e-09	-2.994637e+01	-5.395682e+02
4.700000e-07	-4.218029e-06	-8.143425e-09	-2.923922e+01	-5.337484e+02
4.800000e-07	-4.114609e-06	-8.055458e-09	-2.852232e+01	-5.277711e+02
4.900000e-07	-4.009651e-06	-7.962621e-09	-2.779475e+01	-5.216384e+02
5.000000e-07	-3.903102e-06	-7.861189e-09	-2.705616e+01	-5.153503e+02
5.100000e-07	-3.795124e-06	-7.763440e-09	-2.630766e+01	-5.089036e+02
5.200000e-07	-3.685826e-06	-7.669057e-09	-2.555001e+01	-5.022919e+02
5.300000e-07	-3.575314e-06	-7.564351e-09	-2.478395e+01	-4.955053e+02
5.400000e-07	-3.463444e-06	-7.445535e-09	-2.400846e+01	-4.885313e+02
5.500000e-07	-3.350045e-06	-7.332137e-09	-2.322239e+01	-4.813551e+02
5.600000e-07	-3.235214e-06	-7.224103e-09	-2.242638e+01	-4.739615e+02
5.700000e-07	-3.119026e-06	-7.115845e-09	-2.162097e+01	-4.663357e+02
5.800000e-07	-3.001596e-06	-7.001150e-09	-2.080695e+01	-4.584652e+02
5.900000e-07	-2.883083e-06	-6.880192e-09	-1.998543e+01	-4.503406e+02
6.000000e-07	-2.763578e-06	-6.746822e-09	-1.915702e+01	-4.419561e+02
6.100000e-07	-2.643085e-06	-6.607331e-09	-1.832177e+01	-4.333103e+02
6.200000e-07	-2.521547e-06	-6.472409e-09	-1.747927e+01	-4.244049e+02
6.300000e-07	-2.398965e-06	-6.337601e-09	-1.662954e+01	-4.152446e+02
6.400000e-07	-2.275459e-06	-6.192675e-09	-1.577340e+01	-4.058347e+02
6.500000e-07	-2.151142e-06	-6.040086e-09	-1.491163e+01	-3.961802e+02
6.600000e-07	-2.026113e-06	-5.887710e-09	-1.404494e+01	-3.862834e+02
6.700000e-07	-1.900476e-06	-5.732220e-09	-1.317403e+01	-3.761430e+02
6.800000e-07	-1.774265e-06	-5.573988e-09	-1.229914e+01	-3.657526e+02
6.900000e-07	-1.647442e-06	-5.412892e-09	-1.142001e+01	-3.551005e+02
7.000000e-07	-1.520043e-06	-5.245743e-09	-1.053688e+01	-3.441705e+02
7.100000e-07	-1.392107e-06	-5.071331e-09	-9.650037e+00	-3.329425e+02
7.200000e-07	-1.263681e-06	-4.894918e-09	-8.759790e+00	-3.213941e+02
7.300000e-07	-1.134861e-06	-4.715984e-09	-7.866816e+00	-3.095031e+02
7.400000e-07	-1.005674e-06	-4.528132e-09	-6.971296e+00	-2.972491e+02
7.500000e-07	-8.760764e-07	-4.331590e-09	-6.072930e+00	-2.846151e+02
7.600000e-07	-7.461943e-07	-4.128432e-09	-5.172592e+00	-2.715885e+02
7.700000e-07	-6.160692e-07	-3.922678e-09	-4.270569e+00	-2.581612e+02
7.800000e-07	-4.856583e-07	-3.715675e-09	-3.366565e+00	-2.443289e+02
7.900000e-07	-3.551096e-07	-3.503285e-09	-2.461606e+00	-2.300891e+02
8.000000e-07	-2.244756e-07	-3.282405e-09	-1.556056e+00	-2.154388e+02
8.100000e-07	-9.371635e-08	-3.052332e-09	-6.496383e-01	-2.003716e+02
8.200000e-07	3.713590e-08	-2.815550e-09	2.574247e-01	-1.848750e+02
8.300000e-07	1.679935e-07	-2.572843e-09	1.164525e+00	-1.689283e+02
8.400000e-07	2.988281e-07	-2.322525e-09	2.071465e+00	-1.525015e+02
8.500000e-07	4.295868e-07	-2.064355e-09	2.977880e+00	-1.355557e+02
8.600000e-07	5.601951e-07	-1.796201e-09	3.883252e+00	-1.180449e+02
8.700000e-07	6.906400e-07	-1.515539e-09	4.787491e+00	-9.992009e+01
8.800000e-07	8.208780e-07	-1.225897e-09	5.690296e+00	-8.113366e+01
8.900000e-07	9.508794e-07	-9.290929e-10	6.591461e+00	-6.164609e+01
9.000000e-07	1.080605e-06	-6.234490e-10	7.490714e+00	-4.143226e+01
9.100000e-07	1.209937e-06	-3.061386e-10	8.387236e+00	-2.048776e+01
9.200000e-07	1.338811e-06	2.256930e-11	9.280586e+00	1.165702e+00
9.300000e-07	1.467149e-06	3.613530e-10	1.017022e+01	2.347671e+01
9.400000e-07	1.594902e-06	7.105822e-10	1.105580e+01	4.636262e+01
9.500000e-07	1.722072e-06	1.068493e-09	1.193734e+01	6.971053e+01
9.600000e-07	1.848625e-06	1.432766e-09	1.281460e+01	9.338091e+01
9.700000e-07	1.974489e-06	1.800588e-09	1.368709e+01	1.172135e+02
9.800000e-07	2.099706e-06	2.168246e-09	1.455508e+01	1.410350e+02
9.900000e-07	2.224284e-06	2.528698e-09	1.541865e+01	1.646681e+02
1.000000e-06	2.348092e-06	2.879613e-09	1.627689e+01	1.879411e+02
1.010000e-06	2.470963e-06	3.224431e-09	1.712862e+01	2.106962e+02
1.020000e-06	2.592869e-06	3.561624e-09	1.797367e+01	2.327977e+02
1.030000e-06	2.713822e-06	3.887936e-09	1.881211e+01	2.541373e+02
1.040000e-06	2.833672e-06	4.200721e-09	1.964291e+01	2.746379e+02
1.050000e-06	2.952420e-06	4.499964e-09	2.046607e+01	2.942537e+02
1.060000e-06	3.070140e-06	4.784220e-09	2.128210e+01	3.129693e+02
1.070000e-06	3.186757e-06	5.053868e-09	2.209048e+01	3.307952e+02
1.080000e-06	3.302100e-06	5.310698e-09	2.289003e+01	3.477631e+02
1.090000e-06	3.416072e-06	5.554703e-09	2.368008e+01	3.639190e+02
1.100000e-06	3.528707e-06	5.788718e-09	2.446087e+01	3.793172e+02
1.110000e-06	3.640091e-06	6.012235e-09	2.523298e+01	3.940141e+02
1.120000e-06	3.750245e-06	6.226819e-09	2.599656e+01	4.080632e+02
1.130000e-06	3.859204e-06	6.433180e-09	2.675186e+01	4.215114e+02
1.140000e-06	3.966929e-06	6.630136e-09	2.749861e+01	4.343972e+02
1.150000e-06	4.073217e-06	6.817176e-09	2.823539e+01	4.467500e+02
1.160000e-06	4.177959e-06	6.994257e-09	2.896146e+01	4.585911e+02
1.170000e-06	4.281190e-06	7.163281e-09	2.967705e+01	4.699354e+02
1.180000e-06	4.382962e-06	7.327154e-09	3.038253e+01	4.807938e+02
1.190000e-06	4.483252e-06	7.484493e-09	3.107774e+01	4.911753e+02
1.200000e-06	4.581881e-06	7.634282e-09	3.176143e+01	5.010895e+02
1.210000e-06	4.678701e-06	7.779166e-09	3.243258e+01	5.105479e+02
1.220000e-06	4.773744e-06	7.918671e-09	3.309142e+01	5.195648e+02
1.230000e-06	4.867186e-06	8.052492e-09	3.373915e+01	5.281571e+02
1.240000e-06	4.959055e-06	8.181312e-09	3.437598e+01	5.363440e+02
1.250000e-06	5.049152e-06	8.304647e-09	3.500054e+01	5.441455e+02
1.260000e-06	5.137343e-06	8.420337e-09	3.561187e+01	5.515816e+02
1.270000e-06	5.223614e-06	8.526716e-09	3.620990e+01	5.586709e+02
1.280000e-06	5.308078e-06	8.627635e-09	3.679540e+01	5.654300e+02
1.290000e-06	5.390778e-06	8.726378e-09	3.736868e+01	5.718727e+02
1.300000e-06	5.471518e-06	8.819033e-09	3.792836e+01	5.780107e+02
1.310000e-06	5.550197e-06	8.904594e-09	3.847376e+01	5.838537e+02
1.320000e-06	5.626808e-06	8.986486e-09	3.900482e+01	5.894108e+02
1.330000e-06	5.701218e-06	9.066186e-09	3.952064e+01	5.946910e+02
1.340000e-06	5.773395e-06	9.142817e-09	4.002096e+01	5.997046e+02
1.350000e-06	5.843519e-06	9.216253e-09	4.050706e+01	6.044635e+02
1.360000e-06	5.911677e-06	9.285919e-09	4.097953e+01	6.089815e+02
1.370000e-06	5.977724e-06	9.350790e-09	4.143737e+01	6.132741e+02
1.380000e-06	6.041554e-06	9.413278e-09	4.187983e+01	6.173574e+02
1.390000e-06	6.103289e-06	9.473878e-09	4.230778e+01	6.212472e+02
1.400000e-06	6.162998e-06	9.532082e-09	4.272167e+01	6.249576e+02
1.410000e-06	6.220524e-06	9.587380e-09	4.312045e+01	6.284997e+02
1.420000e-06	6.275815e-06	9.638647e-09	4.350372e+01	6.318806e+02
1.430000e-06	6.328797e-06	9.687409e-09	4.387099e+01	6.351028e+02
1.440000e-06	6.379217e-06	9.734341e-09	4.422049e+01	6.381646e+02
1.450000e-06	6.427085e-06	9.779017e-09	4.455232e+01	6.410602e+02
1.460000e-06	6.472677e-06	9.820573e-09	4.486836e+01	6.437815e+02
1.470000e-06	6.516118e-06	9.857524e-09	4.516949e+01	6.463193e+02
1.480000e-06	6.557189e-06	9.889840e-09	4.545419e+01	6.486653e+02
1.490000e-06	6.595821e-06	9.920581e-09	4.572199e+01	6.508137e+02
1.500000e-06	6.632305e-06	9.950122e-09	4.597489e+01	6.527625e+02
1.510000e-06	6.666498e-06	9.977462e-09	4.621192e+01	6.545146e+02
1.520000e-06	6.698216e-06	1.000200e-08	4.643179e+01	6.560774e+02
1.530000e-06	6.727661e-06	1.002248e-08	4.663590e+01	6.574630e+02
1.540000e-06	6.754791e-06	1.004072e-08	4.682396e+01	6.586863e+02
1.550000e-06	6.779340e-06	1.005731e-08	4.699414e+01	6.597638e+02
1.560000e-06	6.801368e-06	1.007128e-08	4.714683e+01	6.607118e+02
1.570000e-06	6.821101e-06	1.008224e-08	4.728362e+01	6.615441e+02
1.580000e-06	6.838420e-06	1.009179e-08	4.740368e+01	6.622713e+02
1.590000e-06	6.853176e-06	1.010164e-08	4.750596e+01	6.628988e+02
1.600000e-06	6.865340e-06	1.011030e-08	4.759028e+01	6.634276e+02
1.610000e-06	6.874850e-06	1.011706e-08	4.765621e+01	6.638537e+02
1.620000e-06	6.881755e-06	1.012188e-08	4.770407e+01	6.641698e+02
1.630000e-06	6.886299e-06	1.012609e-08	4.773557e+01	6.643665e+02
1.640000e-06	6.888489e-06	1.012956e-08	4.775075e+01	6.644345e+02
1.650000e-06	6.888195e-06	1.012844e-08	4.774871e+01	6.643662e+02
1.660000e-06	6.885602e-06	1.011914e-08	4.773074e+01	6.641575e+02
1.670000e-06	6.880825e-06	1.011366e-08	4.769762e+01	6.638087e+02
1.680000e-06	6.873715e-06	1.010872e-08	4.764834e+01	6.633255e+02
1.690000e-06	6.864312e-06	1.010039e-08	4.758316e+01	6.627185e+02
1.700000e-06	6.852733e-06	1.009255e-08	4.750289e+01	6.620022e+02
1.710000e-06	6.838710e-06	1.009203e-08	4.740569e+01	6.611942e+02
1.720000e-06	6.822341e-06	1.009661e-08	4.729222e+01	6.603126e+02
1.730000e-06	6.803934e-06	1.002414e-08	4.716462e+01	6.593744e+02
1.740000e-06	6.782928e-06	9.969618e-09	4.701900e+01	6.583937e+02
1.750000e-06	6.758600e-06	9.991638e-09	4.685036e+01	6.573798e+02
1.760000e-06	6.731317e-06	9.977481e-09	4.666124e+01	6.563367e+02
1.770000e-06	6.701702e-06	9.987790e-09	4.645595e+01	6.552619e+02
1.780000e-06	6.670199e-06	1.006162e-08	4.623757e+01	6.541474e+02
1.790000e-06	6.637283e-06	9.932654e-09	4.600940e+01	6.529800e+02
1.800000e-06	6.602572e-06	9.882822e-09	4.576879e+01	6.517428e+02
1.810000e-06	6.565285e-06	9.949200e-09	4.551032e+01	6.504167e+02
1.820000e-06	6.525685e-06	9.850965e-09	4.523581e+01	6.489823e+02
1.830000e-06	6.484015e-06	9.938196e-09	4.494696e+01	6.474212e+02
1.840000e-06	6.440099e-06	9.904820e-09	4.464253e+01	6.457179e+02
1.850000e-06	6.393936e-06	9.783682e-09	4.432253e+01	6.438601e+02
1.860000e-06	6.345274e-06	9.797389e-09	4.398521e+01	6.418400e+02
1.870000e-06	6.294281e-06	9.678158e-09	4.363173e+01	6.396539e+02
1.880000e-06	6.240818e-06	9.723892e-09	4.326112e+01	6.373023e+02
1.890000e-06	6.184643e-06	9.705404e-09	4.287172e+01	6.347891e+02
1.900000e-06	6.126202e-06	9.618359e-09	4.246661e+01	6.321207e+02
1.910000e-06	6.065478e-06	9.661216e-09	4.204567e+01	6.293052e+02
1.920000e-06	6.002402e-06	9.520490e-09	4.160843e+01	6.263516e+02
1.930000e-06	5.937181e-06	9.495346e-09	4.115632e+01	6.232686e+02
1.940000e-06	5.869886e-06	9.471764e-09	4.068983e+01	6.200640e+02
1.950000e-06	5.800362e-06	9.400494e-09	4.020790e+01	6.167441e+02
1.960000e-06	5.728391e-06	9.357021e-09	3.970899e+01	6.133135e+02
1.970000e-06	5.654309e-06	9.256413e-09	3.919546e+01	6.097743e+02
1.980000e-06	5.578122e-06	9.269978e-09	3.866734e+01	6.061264e+02
1.990000e-06	5.499600e-06	9.201591e-09	3.812303e+01	6.023676e+02
2.000000e-06	5.419031e-06	9.135062e-09	3.756452e+01	5.984935e+02
2.010000e-06	5.336672e-06	9.070944e-09	3.699361e+01	5.944979e+02
2.020000e-06	5.252546e-06	8.982439e-09	3.641045e+01	5.903734e+02
2.030000e-06	5.166384e-06	8.930840e-09	3.581319e+01	5.861117e+02
2.040000e-06	5.078229e-06	8.856475e-09	3.520210e+01	5.817044e+02
2.050000e-06	4.988422e-06	8.829564e-09	3.457956e+01	5.771432e+02
2.060000e-06	4.897101e-06	8.733961e-09	3.394652e+01	5.724213e+02
2.070000e-06	4.804113e-06	8.635217e-09	3.330193e+01	5.675331e+02
2.080000e-06	4.709240e-06	8.552850e-09	3.264428e+01	5.624754e+02
2.090000e-06	4.612669e-06	8.482057e-09	3.197485e+01	5.572469e+02
2.100000e-06	4.514636e-06	8.415561e-09	3.129529e+01	5.518485e+02
2.110000e-06	4.415133e-06	8.327822e-09	3.060554e+01	5.462829e+02
2.120000e-06	4.314041e-06	8.251114e-09	2.990477e+01	5.405537e+02
2.130000e-06	4.211281e-06	8.150041e-09	2.919245e+01	5.346650e+02
2.140000e-06	4.106872e-06	8.059052e-09	2.846869e+01	5.286198e+02
2.150000e-06	4.001036e-06	7.963917e-09	2.773503e+01	5.224196e+02
2.160000e-06	3.893908e-06	7.873318e-09	2.699243e+01	5.160630e+02
2.170000e-06	3.785426e-06	7.769426e-09	2.624044e+01	5.095455e+02
2.180000e-06	3.675571e-06	7.664125e-09	2.547892e+01	5.028592e+02
2.190000e-06	3.564226e-06	7.560169e-09	2.470708e+01	4.959929e+02
2.200000e-06	3.451560e-06	7.455791e-09	2.392609e+01	4.889330e+02
2.210000e-06	3.337600e-06	7.349924e-09	2.313612e+01	4.816644e+02
2.220000e-06	3.222209e-06	7.227266e-09	2.233624e+01	4.741719e+02
2.230000e-06	3.105433e-06	7.100213e-09	2.152675e+01	4.664416e+02
2.240000e-06	2.987386e-06	6.972961e-09	2.070845e+01	4.584621e+02
2.250000e-06	2.868144e-06	6.858889e-09	1.988187e+01	4.502255e+02
2.260000e-06	2.747832e-06	6.738119e-09	1.904787e+01	4.417279e+02
2.270000e-06	2.626562e-06	6.606618e-09	1.820723e+01	4.329693e+02
2.280000e-06	2.504371e-06	6.465439e-09	1.736021e+01	4.239530e+02
2.290000e-06	2.381353e-06	6.321646e-09	1.650745e+01	4.146839e+02
2.300000e-06	2.257533e-06	6.174722e-09	1.564914e+01	4.051676e+02
2.310000e-06	2.132999e-06	6.030555e-09	1.478587e+01	3.954081e+02
2.320000e-06	2.007711e-06	5.885161e-09	1.391738e+01	3.854063e+02
2.330000e-06	1.881653e-06	5.727846e-09	1.304355e+01	3.751588e+02
2.340000e-06	1.754932e-06	5.562456e-09	1.216512e+01	3.646569e+02
2.350000e-06	1.627566e-06	5.396434e-09	1.128223e+01	3.538869e+02
2.360000e-06	1.499647e-06	5.233721e-09	1.039550e+01	3.428307e+02
2.370000e-06	1.371272e-06	5.063135e-09	9.505607e+00	3.314670e+02
2.380000e-06	1.242403e-06	4.883444e-09	8.612290e+00	3.197734e+02
2.390000e-06	1.113108e-06	4.697878e-09	7.716024e+00	3.077281e+02
2.400000e-06	9.835144e-07	4.507424e-09	6.817685e+00	2.953120e+02
2.410000e-06	8.536530e-07	4.313711e-09	5.917491e+00	2.825099e+02
2.420000e-06	7.235669e-07	4.117082e-09	5.015739e+00	2.693112e+02
2.430000e-06	5.932673e-07	3.913823e-09	4.112507e+00	2.557097e+02
2.440000e-06	4.627751e-07	3.698844e-09	3.207940e+00	2.417020e+02
2.450000e-06	3.321270e-07	3.472877e-09	2.302292e+00	2.272857e+02
2.460000e-06	2.013299e-07	3.243457e-09	1.395612e+00	2.124567e+02
2.470000e-06	7.045847e-08	3.012477e-09	4.884155e-01	1.972064e+02
2.480000e-06	-6.044727e-08	2.777773e-09	-4.190183e-01	1.815188e+02
2.490000e-06	-1.913675e-07	2.532011e-09	-1.326552e+00	1.653695e+02
2.500000e-06	-3.222391e-07	2.273011e-09	-2.233749e+00	1.487245e+02
2.510000e-06	-4.529967e-07	2.004845e-09	-3.140156e+00	1.315414e+02
2.520000e-06	-5.836166e-07	1.731624e-09	-4.045609e+00	1.137724e+02
2.530000e-06	-7.140860e-07	1.455051e-09	-4.950018e+00	9.536845e+01
2.540000e-06	-8.443018e-07	1.168300e-09	-5.852669e+00	7.628461e+01
2.550000e-06	-9.742640e-07	8.683244e-10	-6.753562e+00	5.648672e+01
2.560000e-06	-1.103932e-06	5.572102e-10	-7.652414e+00	3.595779e+01
2.570000e-06	-1.233228e-06	2.368011e-10	-8.548692e+00	1.470405e+01
2.580000e-06	-1.362183e-06	-9.415276e-11	-9.442600e+00	-7.240408e+00
2.590000e-06	-1.490665e-06	-4.368779e-10	-1.033324e+01	-2.981081e+01
2.600000e-06	-1.618588e-06	-7.922401e-10	-1.121999e+01	-5.291128e+01
2.610000e-06	-1.745872e-06	-1.155397e-09	-1.210232e+01	-7.641693e+01
2.620000e-06	-1.872392e-06	-1.518448e-09	-1.297935e+01	-1.001785e+02
2.630000e-06	-1.998183e-06	-1.878701e-09	-1.385133e+01	-1.240290e+02
2.640000e-06	-2.123241e-06	-2.237749e-09	-1.471823e+01	-1.477925e+02
2.650000e-06	-2.247476e-06	-2.598049e-09	-1.557942e+01	-1.712928e+02
2.660000e-06	-2.370783e-06	-2.956211e-09	-1.643418e+01	-1.943630e+02
2.670000e-06	-2.493125e-06	-3.303442e-09	-1.728225e+01	-2.168542e+02
2.680000e-06	-2.614583e-06	-3.635240e-09	-1.812419e+01	-2.386418e+02
2.690000e-06	-2.735065e-06	-3.950648e-09	-1.895937e+01	-2.596305e+02
2.700000e-06	-2.854492e-06	-4.251092e-09	-1.978723e+01	-2.797567e+02
2.710000e-06	-2.972866e-06	-4.542545e-09	-2.060780e+01	-2.989881e+02
2.720000e-06	-3.090088e-06	-4.823955e-09	-2.142038e+01	-3.173208e+02
2.730000e-06	-3.206041e-06	-5.091290e-09	-2.222416e+01	-3.347752e+02
2.740000e-06	-3.320680e-06	-5.345450e-09	-2.301883e+01	-3.513899e+02
2.750000e-06	-3.433930e-06	-5.589411e-09	-2.380388e+01	-3.672152e+02
2.760000e-06	-3.545782e-06	-5.824368e-09	-2.457923e+01	-3.823072e+02
2.770000e-06	-3.656301e-06	-6.048843e-09	-2.534534e+01	-3.967213e+02
2.780000e-06	-3.765553e-06	-6.262640e-09	-2.610268e+01	-4.105086e+02
2.790000e-06	-3.873605e-06	-6.466581e-09	-2.685169e+01	-4.237127e+02
2.800000e-06	-3.980436e-06	-6.660740e-09	-2.759224e+01	-4.363680e+02
2.810000e-06	-4.085940e-06	-6.846145e-09	-2.832359e+01	-4.485004e+02
2.820000e-06	-4.189933e-06	-7.023395e-09	-2.904446e+01	-4.601282e+02
2.830000e-06	-4.292294e-06	-7.192848e-09	-2.975402e+01	-4.712641e+02
2.840000e-06	-4.393041e-06	-7.352815e-09	-3.045240e+01	-4.819181e+02
2.850000e-06	-4.492260e-06	-7.503573e-09	-3.114018e+01	-4.920991e+02
2.860000e-06	-4.589969e-06	-7.650554e-09	-3.181749e+01	-5.018175e+02
2.870000e-06	-4.686091e-06	-7.793785e-09	-3.248381e+01	-5.110859e+02
2.880000e-06	-4.780535e-06	-7.929487e-09	-3.313850e+01	-5.199197e+02
2.890000e-06	-4.873272e-06	-8.056917e-09	-3.378134e+01	-5.283369e+02
2.900000e-06	-4.964282e-06	-8.176837e-09	-3.441222e+01	-5.363572e+02
2.910000e-06	-5.053547e-06	-8.292437e-09	-3.503100e+01	-5.440007e+02
2.920000e-06	-5.140915e-06	-8.404727e-09	-3.563664e+01	-5.512871e+02
2.930000e-06	-5.226343e-06	-8.511514e-09	-3.622882e+01	-5.582341e+02
2.940000e-06	-5.309896e-06	-8.613281e-09	-3.680800e+01	-5.648571e+02
