# Temperatura_=_53.37
# Concentracion g/m^3_=_15000.0
# C_Vs_to_Am_M_A/Vsm_=_65563218390.804596
# pendiente_HvsI_1/m_=_3716.3
# ordenada_HvsI_A/m_=_1297.0
# frecuencia_Hz_=_301975.38952124707

Tiempo_(s)	Campo_(V.s)	Magnetizacion_(V.s)	Campo_(kA/m)	Magnetizacion_(A/m)
0.000000e+00	-6.835773e-06	-1.038722e-08	-4.747091e+01	-6.805990e+02
1.000000e-08	-6.832296e-06	-1.038246e-08	-4.744677e+01	-6.803163e+02
2.000000e-08	-6.826677e-06	-1.037629e-08	-4.740774e+01	-6.798915e+02
3.000000e-08	-6.818939e-06	-1.037003e-08	-4.735401e+01	-6.793337e+02
4.000000e-08	-6.808756e-06	-1.036263e-08	-4.728329e+01	-6.786563e+02
5.000000e-08	-6.796040e-06	-1.035296e-08	-4.719499e+01	-6.778753e+02
6.000000e-08	-6.780910e-06	-1.033980e-08	-4.708992e+01	-6.770083e+02
7.000000e-08	-6.763479e-06	-1.032451e-08	-4.696887e+01	-6.760722e+02
8.000000e-08	-6.743892e-06	-1.032071e-08	-4.683285e+01	-6.750812e+02
9.000000e-08	-6.721905e-06	-1.032096e-08	-4.668016e+01	-6.740455e+02
1.000000e-07	-6.697079e-06	-1.030224e-08	-4.650775e+01	-6.729702e+02
1.100000e-07	-6.669528e-06	-1.026895e-08	-4.631643e+01	-6.718546e+02
1.200000e-07	-6.639706e-06	-1.023437e-08	-4.610933e+01	-6.706923e+02
1.300000e-07	-6.607933e-06	-1.018812e-08	-4.588868e+01	-6.694720e+02
1.400000e-07	-6.574285e-06	-1.016610e-08	-4.565501e+01	-6.681787e+02
1.500000e-07	-6.538639e-06	-1.018389e-08	-4.540747e+01	-6.667949e+02
1.600000e-07	-6.500893e-06	-1.015848e-08	-4.514534e+01	-6.653026e+02
1.700000e-07	-6.461056e-06	-1.013005e-08	-4.486869e+01	-6.636844e+02
1.800000e-07	-6.418909e-06	-1.010842e-08	-4.457600e+01	-6.619255e+02
1.900000e-07	-6.374261e-06	-1.005454e-08	-4.426595e+01	-6.600138e+02
2.000000e-07	-6.327258e-06	-1.001703e-08	-4.393954e+01	-6.579413e+02
2.100000e-07	-6.277732e-06	-9.999680e-09	-4.359560e+01	-6.557038e+02
2.200000e-07	-6.225542e-06	-9.973748e-09	-4.323317e+01	-6.533006e+02
2.300000e-07	-6.170922e-06	-9.922753e-09	-4.285386e+01	-6.507345e+02
2.400000e-07	-6.113930e-06	-9.876539e-09	-4.245808e+01	-6.480104e+02
2.500000e-07	-6.054611e-06	-9.843866e-09	-4.204614e+01	-6.451349e+02
2.600000e-07	-5.993119e-06	-9.792570e-09	-4.161911e+01	-6.421155e+02
2.700000e-07	-5.929471e-06	-9.737574e-09	-4.117711e+01	-6.389595e+02
2.800000e-07	-5.863557e-06	-9.695268e-09	-4.071937e+01	-6.356736e+02
2.900000e-07	-5.795388e-06	-9.641699e-09	-4.024597e+01	-6.322633e+02
3.000000e-07	-5.725109e-06	-9.584417e-09	-3.975792e+01	-6.287328e+02
3.100000e-07	-5.652703e-06	-9.537135e-09	-3.925510e+01	-6.250843e+02
3.200000e-07	-5.578078e-06	-9.485373e-09	-3.873687e+01	-6.213183e+02
3.300000e-07	-5.501139e-06	-9.417497e-09	-3.820257e+01	-6.174332e+02
3.400000e-07	-5.421970e-06	-9.348521e-09	-3.765278e+01	-6.134257e+02
3.500000e-07	-5.340768e-06	-9.292203e-09	-3.708887e+01	-6.092908e+02
3.600000e-07	-5.257742e-06	-9.240052e-09	-3.651230e+01	-6.050221e+02
3.700000e-07	-5.173033e-06	-9.178248e-09	-3.592404e+01	-6.006120e+02
3.800000e-07	-5.086574e-06	-9.105876e-09	-3.532363e+01	-5.960524e+02
3.900000e-07	-4.998362e-06	-9.030845e-09	-3.471104e+01	-5.913353e+02
4.000000e-07	-4.908312e-06	-8.946320e-09	-3.408569e+01	-5.864530e+02
4.100000e-07	-4.816519e-06	-8.863831e-09	-3.344824e+01	-5.813993e+02
4.200000e-07	-4.723143e-06	-8.795646e-09	-3.279979e+01	-5.761697e+02
4.300000e-07	-4.628104e-06	-8.721042e-09	-3.213979e+01	-5.707618e+02
4.400000e-07	-4.531353e-06	-8.632243e-09	-3.146790e+01	-5.651753e+02
4.500000e-07	-4.432863e-06	-8.541243e-09	-3.078394e+01	-5.594122e+02
4.600000e-07	-4.332838e-06	-8.451113e-09	-3.008932e+01	-5.534761e+02
4.700000e-07	-4.231363e-06	-8.356252e-09	-2.938463e+01	-5.473714e+02
4.800000e-07	-4.128399e-06	-8.260950e-09	-2.866960e+01	-5.411027e+02
4.900000e-07	-4.023961e-06	-8.163761e-09	-2.794433e+01	-5.346733e+02
5.000000e-07	-3.917948e-06	-8.060362e-09	-2.720812e+01	-5.280846e+02
5.100000e-07	-3.810427e-06	-7.955029e-09	-2.646145e+01	-5.213349e+02
5.200000e-07	-3.701621e-06	-7.851185e-09	-2.570584e+01	-5.144194e+02
5.300000e-07	-3.591535e-06	-7.743068e-09	-2.494135e+01	-5.073297e+02
5.400000e-07	-3.480181e-06	-7.626967e-09	-2.416806e+01	-5.000542e+02
5.500000e-07	-3.367412e-06	-7.511693e-09	-2.338494e+01	-4.925792e+02
5.600000e-07	-3.253112e-06	-7.397828e-09	-2.259118e+01	-4.848899e+02
5.700000e-07	-3.137379e-06	-7.280007e-09	-2.178747e+01	-4.769717e+02
5.800000e-07	-3.020350e-06	-7.155631e-09	-2.097477e+01	-4.688116e+02
5.900000e-07	-2.902208e-06	-7.026379e-09	-2.015434e+01	-4.603996e+02
6.000000e-07	-2.783097e-06	-6.890705e-09	-1.932717e+01	-4.517289e+02
6.100000e-07	-2.663123e-06	-6.750215e-09	-1.849401e+01	-4.427968e+02
6.200000e-07	-2.542137e-06	-6.610748e-09	-1.765383e+01	-4.336040e+02
6.300000e-07	-2.420013e-06	-6.471893e-09	-1.680574e+01	-4.241538e+02
6.400000e-07	-2.296868e-06	-6.326625e-09	-1.595056e+01	-4.144508e+02
6.500000e-07	-2.172944e-06	-6.172827e-09	-1.508997e+01	-4.044991e+02
6.600000e-07	-2.048393e-06	-6.014299e-09	-1.422503e+01	-3.943006e+02
6.700000e-07	-1.923134e-06	-5.850310e-09	-1.335517e+01	-3.838539e+02
6.800000e-07	-1.797198e-06	-5.683546e-09	-1.248061e+01	-3.731528e+02
6.900000e-07	-1.670694e-06	-5.516623e-09	-1.160211e+01	-3.621865e+02
7.000000e-07	-1.543632e-06	-5.345955e-09	-1.071972e+01	-3.509393e+02
7.100000e-07	-1.416057e-06	-5.168234e-09	-9.833781e+00	-3.393924e+02
7.200000e-07	-1.288059e-06	-4.986732e-09	-8.944901e+00	-3.275246e+02
7.300000e-07	-1.159697e-06	-4.801287e-09	-8.053497e+00	-3.153150e+02
7.400000e-07	-1.030932e-06	-4.608763e-09	-7.159287e+00	-3.027441e+02
7.500000e-07	-9.017543e-07	-4.412102e-09	-6.262218e+00	-2.897957e+02
7.600000e-07	-7.722447e-07	-4.210185e-09	-5.362841e+00	-2.764577e+02
7.700000e-07	-6.424696e-07	-4.001273e-09	-4.461619e+00	-2.627221e+02
7.800000e-07	-5.123946e-07	-3.785807e-09	-3.558316e+00	-2.485840e+02
7.900000e-07	-3.820531e-07	-3.564659e-09	-2.653161e+00	-2.340398e+02
8.000000e-07	-2.515925e-07	-3.336841e-09	-1.747180e+00	-2.190849e+02
8.100000e-07	-1.210443e-07	-3.100247e-09	-8.405900e-01	-2.037106e+02
8.200000e-07	9.644229e-09	-2.858661e-09	6.697419e-02	-1.879017e+02
8.300000e-07	1.404175e-07	-2.612079e-09	9.751269e-01	-1.716346e+02
8.400000e-07	2.711360e-07	-2.357731e-09	1.882899e+00	-1.548761e+02
8.500000e-07	4.017484e-07	-2.094506e-09	2.789935e+00	-1.375840e+02
8.600000e-07	5.322139e-07	-1.821886e-09	3.695951e+00	-1.197095e+02
8.700000e-07	6.624955e-07	-1.537530e-09	4.600689e+00	-1.012009e+02
8.800000e-07	7.925521e-07	-1.241527e-09	5.503865e+00	-8.200879e+01
8.900000e-07	9.223605e-07	-9.364786e-10	6.405317e+00	-6.209238e+01
9.000000e-07	1.051851e-06	-6.227140e-10	7.304562e+00	-4.142619e+01
9.100000e-07	1.180889e-06	-2.986288e-10	8.200665e+00	-2.000641e+01
9.200000e-07	1.309448e-06	3.799630e-11	9.093443e+00	2.143853e+00
9.300000e-07	1.437535e-06	3.857867e-10	9.982941e+00	2.497088e+01
9.400000e-07	1.565080e-06	7.442622e-10	1.086867e+01	4.838902e+01
9.500000e-07	1.692080e-06	1.111360e-09	1.175062e+01	7.228182e+01
9.600000e-07	1.818561e-06	1.483957e-09	1.262897e+01	9.650578e+01
9.700000e-07	1.944371e-06	1.860649e-09	1.350265e+01	1.208964e+02
9.800000e-07	2.069467e-06	2.237190e-09	1.437138e+01	1.452763e+02
9.900000e-07	2.193943e-06	2.609442e-09	1.523580e+01	1.694641e+02
1.000000e-06	2.317741e-06	2.973402e-09	1.609552e+01	1.932840e+02
1.010000e-06	2.440709e-06	3.327002e-09	1.694946e+01	2.165748e+02
1.020000e-06	2.562673e-06	3.670548e-09	1.779644e+01	2.391978e+02
1.030000e-06	2.683520e-06	4.000641e-09	1.863566e+01	2.610419e+02
1.040000e-06	2.803309e-06	4.317355e-09	1.946754e+01	2.820277e+02
1.050000e-06	2.922056e-06	4.622125e-09	2.029217e+01	3.021077e+02
1.060000e-06	3.039766e-06	4.913218e-09	2.110960e+01	3.212651e+02
1.070000e-06	3.156456e-06	5.189825e-09	2.191995e+01	3.395097e+02
1.080000e-06	3.271937e-06	5.452329e-09	2.272191e+01	3.568727e+02
1.090000e-06	3.386027e-06	5.703601e-09	2.351421e+01	3.734005e+02
1.100000e-06	3.498709e-06	5.944704e-09	2.429673e+01	3.891480e+02
1.110000e-06	3.610072e-06	6.174021e-09	2.507008e+01	4.041729e+02
1.120000e-06	3.720212e-06	6.392034e-09	2.583495e+01	4.185306e+02
1.130000e-06	3.829214e-06	6.601522e-09	2.659191e+01	4.322705e+02
1.140000e-06	3.937069e-06	6.801464e-09	2.734091e+01	4.454340e+02
1.150000e-06	4.043579e-06	6.992809e-09	2.808057e+01	4.580539e+02
1.160000e-06	4.148474e-06	7.175919e-09	2.880901e+01	4.701548e+02
1.170000e-06	4.251731e-06	7.349872e-09	2.952607e+01	4.817551e+02
1.180000e-06	4.353523e-06	7.517686e-09	3.023297e+01	4.928688e+02
1.190000e-06	4.453850e-06	7.679378e-09	3.092969e+01	5.035079e+02
1.200000e-06	4.552651e-06	7.833888e-09	3.161581e+01	5.136839e+02
1.210000e-06	4.649740e-06	7.981957e-09	3.229004e+01	5.234097e+02
1.220000e-06	4.745016e-06	8.124019e-09	3.295168e+01	5.327000e+02
1.230000e-06	4.838642e-06	8.260792e-09	3.360186e+01	5.415713e+02
1.240000e-06	4.930668e-06	8.392444e-09	3.424094e+01	5.500412e+02
1.250000e-06	5.020981e-06	8.518730e-09	3.486812e+01	5.581278e+02
1.260000e-06	5.109424e-06	8.639770e-09	3.548231e+01	5.658485e+02
1.270000e-06	5.195998e-06	8.753097e-09	3.608352e+01	5.732190e+02
1.280000e-06	5.280770e-06	8.859820e-09	3.667222e+01	5.802529e+02
1.290000e-06	5.363683e-06	8.962517e-09	3.724800e+01	5.869615e+02
1.300000e-06	5.444561e-06	9.058728e-09	3.780966e+01	5.933544e+02
1.310000e-06	5.523438e-06	9.148304e-09	3.835742e+01	5.994398e+02
1.320000e-06	5.600444e-06	9.233260e-09	3.889219e+01	6.052259e+02
1.330000e-06	5.675344e-06	9.314411e-09	3.941233e+01	6.107221e+02
1.340000e-06	5.747948e-06	9.393287e-09	3.991653e+01	6.159392e+02
1.350000e-06	5.818405e-06	9.469109e-09	4.040581e+01	6.208906e+02
1.360000e-06	5.886879e-06	9.541365e-09	4.088133e+01	6.255918e+02
1.370000e-06	5.953246e-06	9.611159e-09	4.134222e+01	6.300602e+02
1.380000e-06	6.017384e-06	9.678182e-09	4.178762e+01	6.343139e+02
1.390000e-06	6.079458e-06	9.742743e-09	4.221869e+01	6.383703e+02
1.400000e-06	6.139569e-06	9.804212e-09	4.263613e+01	6.422450e+02
1.410000e-06	6.197550e-06	9.860857e-09	4.303878e+01	6.459500e+02
1.420000e-06	6.253272e-06	9.913312e-09	4.342574e+01	6.494928e+02
1.430000e-06	6.306641e-06	9.963235e-09	4.379636e+01	6.528761e+02
1.440000e-06	6.357481e-06	1.001199e-08	4.414942e+01	6.560976e+02
1.450000e-06	6.405763e-06	1.005948e-08	4.448472e+01	6.591510e+02
1.460000e-06	6.451724e-06	1.010363e-08	4.480389e+01	6.620275e+02
1.470000e-06	6.495534e-06	1.014414e-08	4.510812e+01	6.647170e+02
1.480000e-06	6.536986e-06	1.018181e-08	4.539599e+01	6.672105e+02
1.490000e-06	6.575988e-06	1.021601e-08	4.566684e+01	6.695013e+02
1.500000e-06	6.612831e-06	1.024574e-08	4.592269e+01	6.715869e+02
1.510000e-06	6.647465e-06	1.027219e-08	4.616321e+01	6.734697e+02
1.520000e-06	6.679631e-06	1.029614e-08	4.638659e+01	6.751568e+02
1.530000e-06	6.709444e-06	1.031734e-08	4.659362e+01	6.766596e+02
1.540000e-06	6.737022e-06	1.033685e-08	4.678513e+01	6.779928e+02
1.550000e-06	6.762106e-06	1.035530e-08	4.695933e+01	6.791725e+02
1.560000e-06	6.784641e-06	1.037187e-08	4.711583e+01	6.802145e+02
1.570000e-06	6.804896e-06	1.038402e-08	4.725649e+01	6.811321e+02
1.580000e-06	6.822741e-06	1.039301e-08	4.738041e+01	6.819354e+02
1.590000e-06	6.837994e-06	1.040228e-08	4.748633e+01	6.826296e+02
1.600000e-06	6.850702e-06	1.041131e-08	4.757458e+01	6.832154e+02
1.610000e-06	6.860735e-06	1.041715e-08	4.764426e+01	6.836890e+02
1.620000e-06	6.868143e-06	1.042152e-08	4.769570e+01	6.840431e+02
1.630000e-06	6.873223e-06	1.042630e-08	4.773098e+01	6.842693e+02
1.640000e-06	6.875901e-06	1.042989e-08	4.774958e+01	6.843587e+02
1.650000e-06	6.876070e-06	1.042996e-08	4.775075e+01	6.843049e+02
1.660000e-06	6.873910e-06	1.042435e-08	4.773575e+01	6.841045e+02
1.670000e-06	6.869587e-06	1.041662e-08	4.770573e+01	6.837591e+02
1.680000e-06	6.862949e-06	1.040972e-08	4.765963e+01	6.832749e+02
1.690000e-06	6.853974e-06	1.040257e-08	4.759731e+01	6.826629e+02
1.700000e-06	6.842824e-06	1.039353e-08	4.751988e+01	6.819380e+02
1.710000e-06	6.829268e-06	1.038439e-08	4.742574e+01	6.811170e+02
1.720000e-06	6.813383e-06	1.037545e-08	4.731543e+01	6.802174e+02
1.730000e-06	6.795474e-06	1.034721e-08	4.719105e+01	6.792551e+02
1.740000e-06	6.775117e-06	1.030918e-08	4.704968e+01	6.782430e+02
1.750000e-06	6.751534e-06	1.029049e-08	4.688592e+01	6.771890e+02
1.760000e-06	6.724834e-06	1.028195e-08	4.670050e+01	6.760958e+02
1.770000e-06	6.695697e-06	1.028000e-08	4.649816e+01	6.749602e+02
1.780000e-06	6.664539e-06	1.029317e-08	4.628178e+01	6.737737e+02
1.790000e-06	6.631894e-06	1.025497e-08	4.605508e+01	6.725231e+02
1.800000e-06	6.597648e-06	1.021711e-08	4.581726e+01	6.711922e+02
1.810000e-06	6.560920e-06	1.020531e-08	4.556220e+01	6.697630e+02
1.820000e-06	6.521760e-06	1.017498e-08	4.529025e+01	6.682178e+02
1.830000e-06	6.480539e-06	1.017801e-08	4.500399e+01	6.665400e+02
1.840000e-06	6.437128e-06	1.016707e-08	4.470253e+01	6.647158e+02
1.850000e-06	6.391463e-06	1.011494e-08	4.438541e+01	6.627349e+02
1.860000e-06	6.343385e-06	1.006944e-08	4.405153e+01	6.605909e+02
1.870000e-06	6.293035e-06	1.002269e-08	4.370187e+01	6.582812e+02
1.880000e-06	6.240316e-06	9.992155e-09	4.333577e+01	6.558067e+02
1.890000e-06	6.184896e-06	9.960083e-09	4.295091e+01	6.531711e+02
1.900000e-06	6.127045e-06	9.917425e-09	4.254916e+01	6.503803e+02
1.910000e-06	6.066924e-06	9.890280e-09	4.213165e+01	6.474412e+02
1.920000e-06	6.004496e-06	9.821114e-09	4.169812e+01	6.443613e+02
1.930000e-06	5.939795e-06	9.767581e-09	4.124881e+01	6.411478e+02
1.940000e-06	5.872955e-06	9.738223e-09	4.078464e+01	6.378070e+02
1.950000e-06	5.804085e-06	9.674001e-09	4.030637e+01	6.343437e+02
1.960000e-06	5.732833e-06	9.610179e-09	3.981156e+01	6.307615e+02
1.970000e-06	5.659281e-06	9.548406e-09	3.930078e+01	6.270616e+02
1.980000e-06	5.583688e-06	9.504298e-09	3.877583e+01	6.232438e+02
1.990000e-06	5.505803e-06	9.458180e-09	3.823496e+01	6.193057e+02
2.000000e-06	5.425801e-06	9.385725e-09	3.767938e+01	6.152433e+02
2.010000e-06	5.343930e-06	9.317564e-09	3.711083e+01	6.110509e+02
2.020000e-06	5.260287e-06	9.244307e-09	3.652997e+01	6.067215e+02
2.030000e-06	5.174730e-06	9.172693e-09	3.593583e+01	6.022474e+02
2.040000e-06	5.087160e-06	9.108322e-09	3.532769e+01	5.976202e+02
2.050000e-06	4.997903e-06	9.048407e-09	3.470785e+01	5.928321e+02
2.060000e-06	4.907122e-06	8.967550e-09	3.407743e+01	5.878760e+02
2.070000e-06	4.814732e-06	8.868993e-09	3.343582e+01	5.827464e+02
2.080000e-06	4.720439e-06	8.783748e-09	3.278101e+01	5.774395e+02
2.090000e-06	4.624347e-06	8.701985e-09	3.211370e+01	5.719538e+02
2.100000e-06	4.526735e-06	8.625266e-09	3.143583e+01	5.662903e+02
2.110000e-06	4.427682e-06	8.542783e-09	3.074797e+01	5.604515e+02
2.120000e-06	4.327223e-06	8.453747e-09	3.005033e+01	5.544415e+02
2.130000e-06	4.225088e-06	8.358875e-09	2.934105e+01	5.482650e+02
2.140000e-06	4.121238e-06	8.260173e-09	2.861987e+01	5.419261e+02
2.150000e-06	4.015878e-06	8.161662e-09	2.788820e+01	5.354274e+02
2.160000e-06	3.909185e-06	8.059439e-09	2.714727e+01	5.287690e+02
2.170000e-06	3.801295e-06	7.954912e-09	2.639803e+01	5.219481e+02
2.180000e-06	3.692050e-06	7.846345e-09	2.563938e+01	5.149581e+02
2.190000e-06	3.581264e-06	7.738226e-09	2.487002e+01	5.077892e+02
2.200000e-06	3.469072e-06	7.627330e-09	2.409091e+01	5.004290e+02
2.210000e-06	3.355555e-06	7.514686e-09	2.330259e+01	4.928630e+02
2.220000e-06	3.240716e-06	7.394188e-09	2.250510e+01	4.850763e+02
2.230000e-06	3.124599e-06	7.266143e-09	2.169873e+01	4.770548e+02
2.240000e-06	3.007172e-06	7.139364e-09	2.088326e+01	4.687868e+02
2.250000e-06	2.888427e-06	7.015960e-09	2.005863e+01	4.602634e+02
2.260000e-06	2.768515e-06	6.887310e-09	1.922591e+01	4.514798e+02
2.270000e-06	2.647683e-06	6.746432e-09	1.838679e+01	4.424347e+02
2.280000e-06	2.525968e-06	6.601122e-09	1.754154e+01	4.331300e+02
2.290000e-06	2.403314e-06	6.454808e-09	1.668977e+01	4.235699e+02
2.300000e-06	2.279813e-06	6.306442e-09	1.583212e+01	4.137589e+02
2.310000e-06	2.155678e-06	6.157829e-09	1.497007e+01	4.037003e+02
2.320000e-06	2.030874e-06	6.007757e-09	1.410337e+01	3.933948e+02
2.330000e-06	1.905285e-06	5.846494e-09	1.323122e+01	3.828391e+02
2.340000e-06	1.778938e-06	5.676185e-09	1.235381e+01	3.720249e+02
2.350000e-06	1.651886e-06	5.503294e-09	1.147149e+01	3.609393e+02
2.360000e-06	1.524198e-06	5.331524e-09	1.058477e+01	3.495651e+02
2.370000e-06	1.395984e-06	5.157403e-09	9.694389e+00	3.378823e+02
2.380000e-06	1.267360e-06	4.975959e-09	8.801160e+00	3.258695e+02
2.390000e-06	1.138397e-06	4.788468e-09	7.905577e+00	3.135062e+02
2.400000e-06	1.009164e-06	4.593234e-09	7.008121e+00	3.007742e+02
2.410000e-06	8.796146e-07	4.390822e-09	6.108469e+00	2.876591e+02
2.420000e-06	7.497631e-07	4.185552e-09	5.206717e+00	2.741504e+02
2.430000e-06	6.196981e-07	3.977013e-09	4.303483e+00	2.602418e+02
2.440000e-06	4.894140e-07	3.760484e-09	3.398727e+00	2.459291e+02
2.450000e-06	3.589755e-07	3.533962e-09	2.492899e+00	2.312086e+02
2.460000e-06	2.283748e-07	3.300307e-09	1.585945e+00	2.160743e+02
2.470000e-06	9.764396e-08	3.061859e-09	6.780868e-01	2.005150e+02
2.480000e-06	-3.311156e-08	2.819497e-09	-2.299427e-01	1.845121e+02
2.490000e-06	-1.638813e-07	2.570428e-09	-1.138071e+00	1.680380e+02
2.500000e-06	-2.946145e-07	2.309169e-09	-2.045945e+00	1.510554e+02
2.510000e-06	-4.252916e-07	2.036012e-09	-2.953431e+00	1.335189e+02
2.520000e-06	-5.558350e-07	1.756112e-09	-3.859987e+00	1.153780e+02
2.530000e-06	-6.861828e-07	1.471868e-09	-4.765185e+00	9.658110e+01
2.540000e-06	-8.163281e-07	1.177572e-09	-5.668977e+00	7.708179e+01
2.550000e-06	-9.461653e-07	8.699296e-10	-6.570629e+00	5.684501e+01
2.560000e-06	-1.075608e-06	5.502356e-10	-7.469543e+00	3.585382e+01
2.570000e-06	-1.204712e-06	2.200106e-10	-8.366102e+00	1.411538e+01
2.580000e-06	-1.333487e-06	-1.191115e-10	-9.260377e+00	-8.334387e+00
2.590000e-06	-1.461841e-06	-4.668700e-10	-1.015173e+01	-3.142812e+01
2.600000e-06	-1.589719e-06	-8.253201e-10	-1.103978e+01	-5.506667e+01
2.610000e-06	-1.716992e-06	-1.193493e-09	-1.192362e+01	-7.912139e+01
2.620000e-06	-1.843522e-06	-1.565537e-09	-1.280231e+01	-1.034389e+02
2.630000e-06	-1.969258e-06	-1.934806e-09	-1.367548e+01	-1.278482e+02
2.640000e-06	-2.094137e-06	-2.300943e-09	-1.454270e+01	-1.521688e+02
2.650000e-06	-2.218163e-06	-2.668076e-09	-1.540399e+01	-1.762208e+02
2.660000e-06	-2.341368e-06	-3.032109e-09	-1.625959e+01	-1.998336e+02
2.670000e-06	-2.463624e-06	-3.386222e-09	-1.710860e+01	-2.228548e+02
2.680000e-06	-2.584957e-06	-3.729320e-09	-1.795119e+01	-2.451567e+02
2.690000e-06	-2.705478e-06	-4.058564e-09	-1.878814e+01	-2.666419e+02
2.700000e-06	-2.825013e-06	-4.368572e-09	-1.961825e+01	-2.872445e+02
2.710000e-06	-2.943384e-06	-4.663553e-09	-2.044028e+01	-3.069306e+02
2.720000e-06	-3.060490e-06	-4.948992e-09	-2.125352e+01	-3.256952e+02
2.730000e-06	-3.176383e-06	-5.223104e-09	-2.205834e+01	-3.435582e+02
2.740000e-06	-3.291072e-06	-5.484948e-09	-2.285480e+01	-3.605579e+02
2.750000e-06	-3.404386e-06	-5.736347e-09	-2.364170e+01	-3.767453e+02
2.760000e-06	-3.516318e-06	-5.977159e-09	-2.441901e+01	-3.921771e+02
2.770000e-06	-3.626847e-06	-6.207232e-09	-2.518658e+01	-4.069106e+02
2.780000e-06	-3.736066e-06	-6.425289e-09	-2.594505e+01	-4.209989e+02
2.790000e-06	-3.844162e-06	-6.630896e-09	-2.669572e+01	-4.344883e+02
2.800000e-06	-3.951110e-06	-6.826183e-09	-2.743842e+01	-4.474163e+02
2.810000e-06	-4.056729e-06	-7.013369e-09	-2.817188e+01	-4.598122e+02
2.820000e-06	-4.160847e-06	-7.194371e-09	-2.889493e+01	-4.716977e+02
2.830000e-06	-4.263306e-06	-7.368606e-09	-2.960646e+01	-4.830889e+02
2.840000e-06	-4.364099e-06	-7.535165e-09	-3.030641e+01	-4.939988e+02
2.850000e-06	-4.463432e-06	-7.693293e-09	-3.099623e+01	-5.044390e+02
2.860000e-06	-4.561341e-06	-7.845389e-09	-3.167616e+01	-5.144214e+02
2.870000e-06	-4.657731e-06	-7.992162e-09	-3.234554e+01	-5.239598e+02
2.880000e-06	-4.752471e-06	-8.131420e-09	-3.300345e+01	-5.330694e+02
2.890000e-06	-4.845411e-06	-8.262345e-09	-3.364887e+01	-5.417675e+02
2.900000e-06	-4.936593e-06	-8.385729e-09	-3.428209e+01	-5.500720e+02
2.910000e-06	-5.026026e-06	-8.504529e-09	-3.490316e+01	-5.580008e+02
2.920000e-06	-5.113583e-06	-8.621417e-09	-3.551119e+01	-5.655706e+02
2.930000e-06	-5.199178e-06	-8.734434e-09	-3.610561e+01	-5.727963e+02
2.940000e-06	-5.282863e-06	-8.841107e-09	-3.668676e+01	-5.796906e+02
