# Temperatura_=_28.16
# Concentracion g/m^3_=_15000.0
# C_Vs_to_Am_M_A/Vsm_=_65563218390.804596
# pendiente_HvsI_1/m_=_3716.3
# ordenada_HvsI_A/m_=_1297.0
# frecuencia_Hz_=_301973.3555550604

Tiempo_(s)	Campo_(V.s)	Magnetizacion_(V.s)	Campo_(kA/m)	Magnetizacion_(A/m)
0.000000e+00	-6.857506e-06	-1.005893e-08	-4.746379e+01	-6.581067e+02
1.000000e-08	-6.853667e-06	-1.005419e-08	-4.743722e+01	-6.578246e+02
2.000000e-08	-6.847675e-06	-1.004486e-08	-4.739574e+01	-6.574077e+02
3.000000e-08	-6.839520e-06	-1.003624e-08	-4.733930e+01	-6.568631e+02
4.000000e-08	-6.828953e-06	-1.002512e-08	-4.726616e+01	-6.562017e+02
5.000000e-08	-6.815853e-06	-1.001349e-08	-4.717549e+01	-6.554380e+02
6.000000e-08	-6.800262e-06	-9.996250e-09	-4.706758e+01	-6.545883e+02
7.000000e-08	-6.782406e-06	-9.977536e-09	-4.694399e+01	-6.536691e+02
8.000000e-08	-6.762410e-06	-1.000797e-08	-4.680559e+01	-6.526952e+02
9.000000e-08	-6.739909e-06	-1.001369e-08	-4.664985e+01	-6.516783e+02
1.000000e-07	-6.714546e-06	-9.961963e-09	-4.647430e+01	-6.506257e+02
1.100000e-07	-6.686544e-06	-9.926190e-09	-4.628049e+01	-6.495392e+02
1.200000e-07	-6.656338e-06	-9.901127e-09	-4.607142e+01	-6.484153e+02
1.300000e-07	-6.624129e-06	-9.825074e-09	-4.584849e+01	-6.472453e+02
1.400000e-07	-6.590003e-06	-9.840390e-09	-4.561229e+01	-6.460162e+02
1.500000e-07	-6.553932e-06	-9.908375e-09	-4.536262e+01	-6.447124e+02
1.600000e-07	-6.515796e-06	-9.784474e-09	-4.509867e+01	-6.433164e+02
1.700000e-07	-6.475503e-06	-9.790613e-09	-4.481978e+01	-6.418112e+02
1.800000e-07	-6.432753e-06	-9.784079e-09	-4.452389e+01	-6.401814e+02
1.900000e-07	-6.387520e-06	-9.681767e-09	-4.421081e+01	-6.384142e+02
2.000000e-07	-6.339972e-06	-9.711436e-09	-4.388171e+01	-6.365005e+02
2.100000e-07	-6.289807e-06	-9.682316e-09	-4.353450e+01	-6.344350e+02
2.200000e-07	-6.237023e-06	-9.659432e-09	-4.316916e+01	-6.322164e+02
2.300000e-07	-6.181882e-06	-9.628438e-09	-4.278750e+01	-6.298468e+02
2.400000e-07	-6.124338e-06	-9.568327e-09	-4.238921e+01	-6.273309e+02
2.500000e-07	-6.064497e-06	-9.535479e-09	-4.197503e+01	-6.246751e+02
2.600000e-07	-6.002472e-06	-9.463989e-09	-4.154573e+01	-6.218868e+02
2.700000e-07	-5.938225e-06	-9.413200e-09	-4.110104e+01	-6.189732e+02
2.800000e-07	-5.871733e-06	-9.383045e-09	-4.064083e+01	-6.159409e+02
2.900000e-07	-5.803026e-06	-9.357792e-09	-4.016528e+01	-6.127946e+02
3.000000e-07	-5.732177e-06	-9.311572e-09	-3.967490e+01	-6.095374e+02
3.100000e-07	-5.659129e-06	-9.236118e-09	-3.916930e+01	-6.061702e+02
3.200000e-07	-5.583826e-06	-9.197454e-09	-3.864809e+01	-6.026918e+02
3.300000e-07	-5.506282e-06	-9.125260e-09	-3.811138e+01	-5.990993e+02
3.400000e-07	-5.426553e-06	-9.058368e-09	-3.755954e+01	-5.953876e+02
3.500000e-07	-5.344807e-06	-9.017667e-09	-3.699374e+01	-5.915507e+02
3.600000e-07	-5.261284e-06	-8.969982e-09	-3.641564e+01	-5.875816e+02
3.700000e-07	-5.176027e-06	-8.912186e-09	-3.582554e+01	-5.834728e+02
3.800000e-07	-5.089043e-06	-8.833380e-09	-3.522349e+01	-5.792167e+02
3.900000e-07	-5.000229e-06	-8.767439e-09	-3.460877e+01	-5.748065e+02
4.000000e-07	-4.909545e-06	-8.688464e-09	-3.398110e+01	-5.702362e+02
4.100000e-07	-4.817186e-06	-8.612410e-09	-3.334185e+01	-5.655009e+02
4.200000e-07	-4.723264e-06	-8.550620e-09	-3.269177e+01	-5.605976e+02
4.300000e-07	-4.627700e-06	-8.484778e-09	-3.203033e+01	-5.555249e+02
4.400000e-07	-4.530365e-06	-8.404209e-09	-3.135664e+01	-5.502828e+02
4.500000e-07	-4.431329e-06	-8.309807e-09	-3.067116e+01	-5.448729e+02
4.600000e-07	-4.330746e-06	-8.222616e-09	-2.997498e+01	-5.392978e+02
4.700000e-07	-4.228699e-06	-8.130603e-09	-2.926867e+01	-5.335602e+02
4.800000e-07	-4.125159e-06	-8.041999e-09	-2.855202e+01	-5.276623e+02
4.900000e-07	-4.020109e-06	-7.957275e-09	-2.782493e+01	-5.216054e+02
5.000000e-07	-3.913529e-06	-7.870028e-09	-2.708724e+01	-5.153886e+02
5.100000e-07	-3.805462e-06	-7.771900e-09	-2.633927e+01	-5.090085e+02
5.200000e-07	-3.696075e-06	-7.666673e-09	-2.558215e+01	-5.024590e+02
5.300000e-07	-3.585429e-06	-7.559447e-09	-2.481632e+01	-4.957311e+02
5.400000e-07	-3.473353e-06	-7.447495e-09	-2.404059e+01	-4.888133e+02
5.500000e-07	-3.359772e-06	-7.338656e-09	-2.325445e+01	-4.816926e+02
5.600000e-07	-3.244784e-06	-7.230832e-09	-2.245857e+01	-4.743551e+02
5.700000e-07	-3.128485e-06	-7.122466e-09	-2.165361e+01	-4.667872e+02
5.800000e-07	-3.010985e-06	-7.005111e-09	-2.084034e+01	-4.589772e+02
5.900000e-07	-2.892437e-06	-6.882826e-09	-2.001982e+01	-4.509155e+02
6.000000e-07	-2.772831e-06	-6.753797e-09	-1.919197e+01	-4.425960e+02
6.100000e-07	-2.652102e-06	-6.617801e-09	-1.835635e+01	-4.340158e+02
6.200000e-07	-2.530424e-06	-6.480972e-09	-1.751417e+01	-4.251756e+02
6.300000e-07	-2.407757e-06	-6.345352e-09	-1.666514e+01	-4.160781e+02
6.400000e-07	-2.284084e-06	-6.205969e-09	-1.580914e+01	-4.067277e+02
6.500000e-07	-2.159634e-06	-6.057376e-09	-1.494777e+01	-3.971284e+02
6.600000e-07	-2.034511e-06	-5.903331e-09	-1.408174e+01	-3.872830e+02
6.700000e-07	-1.908747e-06	-5.745590e-09	-1.321127e+01	-3.771907e+02
6.800000e-07	-1.782427e-06	-5.587482e-09	-1.233695e+01	-3.668474e+02
6.900000e-07	-1.655512e-06	-5.428814e-09	-1.145852e+01	-3.562438e+02
7.000000e-07	-1.527919e-06	-5.266412e-09	-1.057540e+01	-3.453669e+02
7.100000e-07	-1.399771e-06	-5.095500e-09	-9.688427e+00	-3.341995e+02
7.200000e-07	-1.271159e-06	-4.917638e-09	-8.798245e+00	-3.227226e+02
7.300000e-07	-1.142100e-06	-4.736113e-09	-7.904971e+00	-3.109161e+02
7.400000e-07	-1.012689e-06	-4.548026e-09	-7.009265e+00	-2.987615e+02
7.500000e-07	-8.829866e-07	-4.354608e-09	-6.111536e+00	-2.862429e+02
7.600000e-07	-7.530031e-07	-4.157834e-09	-5.211863e+00	-2.733483e+02
7.700000e-07	-6.227939e-07	-3.958539e-09	-4.310628e+00	-2.600702e+02
7.800000e-07	-4.923743e-07	-3.754122e-09	-3.407938e+00	-2.464055e+02
7.900000e-07	-3.617407e-07	-3.542854e-09	-2.503765e+00	-2.323536e+02
8.000000e-07	-2.308901e-07	-3.323975e-09	-1.598091e+00	-2.179155e+02
8.100000e-07	-9.987283e-08	-3.096511e-09	-6.912634e-01	-2.030903e+02
8.200000e-07	3.120803e-08	-2.861770e-09	2.160044e-01	-1.878735e+02
8.300000e-07	1.622945e-07	-2.622274e-09	1.123311e+00	-1.722542e+02
8.400000e-07	2.933179e-07	-2.378938e-09	2.030181e+00	-1.562137e+02
8.500000e-07	4.242455e-07	-2.127144e-09	2.936388e+00	-1.397246e+02
8.600000e-07	5.549738e-07	-1.866006e-09	3.841215e+00	-1.227521e+02
8.700000e-07	6.854855e-07	-1.596281e-09	4.744544e+00	-1.052557e+02
8.800000e-07	8.158705e-07	-1.319406e-09	5.646996e+00	-8.719302e+01
8.900000e-07	9.460080e-07	-1.035592e-09	6.547734e+00	-6.852470e+01
9.000000e-07	1.075786e-06	-7.440032e-10	7.445986e+00	-4.921966e+01
9.100000e-07	1.205201e-06	-4.420008e-10	8.341720e+00	-2.926096e+01
9.200000e-07	1.334245e-06	-1.264730e-10	9.234890e+00	-8.651104e+00
9.300000e-07	1.462867e-06	2.001652e-10	1.012514e+01	1.258370e+01
9.400000e-07	1.590938e-06	5.343911e-10	1.101158e+01	3.439084e+01
9.500000e-07	1.718374e-06	8.751287e-10	1.189361e+01	5.669048e+01
9.600000e-07	1.845135e-06	1.223099e-09	1.277099e+01	7.937704e+01
9.700000e-07	1.971162e-06	1.575853e-09	1.364328e+01	1.023227e+02
9.800000e-07	2.096515e-06	1.927664e-09	1.451089e+01	1.253829e+02
9.900000e-07	2.221273e-06	2.277246e-09	1.537440e+01	1.484033e+02
1.000000e-06	2.345310e-06	2.625576e-09	1.623291e+01	1.712273e+02
1.010000e-06	2.468473e-06	2.970662e-09	1.708538e+01	1.937043e+02
1.020000e-06	2.590557e-06	3.307329e-09	1.793037e+01	2.156967e+02
1.030000e-06	2.711559e-06	3.632503e-09	1.876788e+01	2.370864e+02
1.040000e-06	2.831651e-06	3.947628e-09	1.959909e+01	2.577792e+02
1.050000e-06	2.950701e-06	4.251375e-09	2.042309e+01	2.777070e+02
1.060000e-06	3.068636e-06	4.541092e-09	2.123937e+01	2.968286e+02
1.070000e-06	3.185537e-06	4.819238e-09	2.204849e+01	3.151280e+02
1.080000e-06	3.301227e-06	5.084697e-09	2.284923e+01	3.326108e+02
1.090000e-06	3.415500e-06	5.336666e-09	2.364017e+01	3.493004e+02
1.100000e-06	3.528371e-06	5.577381e-09	2.442140e+01	3.652323e+02
1.110000e-06	3.639972e-06	5.808416e-09	2.519383e+01	3.804492e+02
1.120000e-06	3.750355e-06	6.031608e-09	2.595785e+01	3.949965e+02
1.130000e-06	3.859525e-06	6.245118e-09	2.671346e+01	4.089176e+02
1.140000e-06	3.967489e-06	6.449944e-09	2.746072e+01	4.222521e+02
1.150000e-06	4.074032e-06	6.645668e-09	2.819815e+01	4.350332e+02
1.160000e-06	4.179035e-06	6.829957e-09	2.892492e+01	4.472880e+02
1.170000e-06	4.282559e-06	7.005031e-09	2.964146e+01	4.590376e+02
1.180000e-06	4.384555e-06	7.172947e-09	3.034742e+01	4.702986e+02
1.190000e-06	4.485045e-06	7.333549e-09	3.104295e+01	4.810842e+02
1.200000e-06	4.583905e-06	7.488650e-09	3.172721e+01	4.914062e+02
1.210000e-06	4.680950e-06	7.638743e-09	3.239890e+01	5.012760e+02
1.220000e-06	4.776223e-06	7.784700e-09	3.305832e+01	5.107061e+02
1.230000e-06	4.869855e-06	7.926545e-09	3.370639e+01	5.197099e+02
1.240000e-06	4.961889e-06	8.062185e-09	3.434340e+01	5.283022e+02
1.250000e-06	5.052133e-06	8.191019e-09	3.496802e+01	5.364984e+02
1.260000e-06	5.140514e-06	8.312721e-09	3.557974e+01	5.443142e+02
1.270000e-06	5.227024e-06	8.426556e-09	3.617851e+01	5.517648e+02
1.280000e-06	5.311748e-06	8.533834e-09	3.676492e+01	5.588643e+02
1.290000e-06	5.394643e-06	8.636042e-09	3.733867e+01	5.656257e+02
1.300000e-06	5.475515e-06	8.732340e-09	3.789843e+01	5.720605e+02
1.310000e-06	5.554394e-06	8.822879e-09	3.844438e+01	5.781796e+02
1.320000e-06	5.631298e-06	8.909612e-09	3.897667e+01	5.839934e+02
1.330000e-06	5.706038e-06	8.993095e-09	3.949398e+01	5.895127e+02
1.340000e-06	5.778489e-06	9.072632e-09	3.999544e+01	5.947493e+02
1.350000e-06	5.848824e-06	9.149253e-09	4.048226e+01	5.997163e+02
1.360000e-06	5.917193e-06	9.221821e-09	4.095547e+01	6.044282e+02
1.370000e-06	5.983442e-06	9.290459e-09	4.141401e+01	6.089008e+02
1.380000e-06	6.047419e-06	9.355433e-09	4.185683e+01	6.131503e+02
1.390000e-06	6.109306e-06	9.417095e-09	4.228517e+01	6.171924e+02
1.400000e-06	6.169232e-06	9.476190e-09	4.269994e+01	6.210412e+02
1.410000e-06	6.227030e-06	9.530919e-09	4.309999e+01	6.247083e+02
1.420000e-06	6.282603e-06	9.583303e-09	4.348464e+01	6.282016e+02
1.430000e-06	6.335860e-06	9.635105e-09	4.385325e+01	6.315252e+02
1.440000e-06	6.386492e-06	9.684910e-09	4.420370e+01	6.346790e+02
1.450000e-06	6.434489e-06	9.732705e-09	4.453590e+01	6.376595e+02
1.460000e-06	6.480187e-06	9.775265e-09	4.485220e+01	6.404607e+02
1.470000e-06	6.523786e-06	9.812974e-09	4.515397e+01	6.430752e+02
1.480000e-06	6.565045e-06	9.846835e-09	4.543954e+01	6.454961e+02
1.490000e-06	6.603871e-06	9.877617e-09	4.570827e+01	6.477183e+02
1.500000e-06	6.640525e-06	9.906102e-09	4.596197e+01	6.497397e+02
1.510000e-06	6.674852e-06	9.931798e-09	4.619956e+01	6.515623e+02
1.520000e-06	6.706720e-06	9.956469e-09	4.642014e+01	6.531921e+02
1.530000e-06	6.736308e-06	9.979872e-09	4.662493e+01	6.546392e+02
1.540000e-06	6.763559e-06	1.000165e-08	4.681354e+01	6.559168e+02
1.550000e-06	6.788279e-06	1.001982e-08	4.698464e+01	6.570396e+02
1.560000e-06	6.810498e-06	1.003346e-08	4.713842e+01	6.580228e+02
1.570000e-06	6.830438e-06	1.004385e-08	4.727644e+01	6.588799e+02
1.580000e-06	6.848018e-06	1.005291e-08	4.739812e+01	6.596219e+02
1.590000e-06	6.863003e-06	1.006210e-08	4.750184e+01	6.602556e+02
1.600000e-06	6.875367e-06	1.007094e-08	4.758741e+01	6.607839e+02
1.610000e-06	6.885032e-06	1.007690e-08	4.765431e+01	6.612051e+02
1.620000e-06	6.892061e-06	1.008088e-08	4.770296e+01	6.615146e+02
1.630000e-06	6.896695e-06	1.008467e-08	4.773504e+01	6.617054e+02
1.640000e-06	6.898966e-06	1.008872e-08	4.775075e+01	6.617699e+02
1.650000e-06	6.898790e-06	1.008848e-08	4.774953e+01	6.617017e+02
1.660000e-06	6.896307e-06	1.008029e-08	4.773235e+01	6.614968e+02
1.670000e-06	6.891614e-06	1.007367e-08	4.769987e+01	6.611554e+02
1.680000e-06	6.884567e-06	1.006770e-08	4.765109e+01	6.606816e+02
1.690000e-06	6.875241e-06	1.006068e-08	4.758654e+01	6.600842e+02
1.700000e-06	6.863730e-06	1.005268e-08	4.750687e+01	6.593760e+02
1.710000e-06	6.849806e-06	1.004974e-08	4.741050e+01	6.585724e+02
1.720000e-06	6.833535e-06	1.004966e-08	4.729788e+01	6.576899e+02
1.730000e-06	6.815240e-06	9.981578e-09	4.717125e+01	6.567445e+02
1.740000e-06	6.794372e-06	9.939181e-09	4.702681e+01	6.557499e+02
1.750000e-06	6.770159e-06	9.952926e-09	4.685923e+01	6.547161e+02
1.760000e-06	6.742933e-06	9.939002e-09	4.667078e+01	6.536480e+02
1.770000e-06	6.713328e-06	9.954049e-09	4.646587e+01	6.525451e+02
1.780000e-06	6.681802e-06	9.999581e-09	4.624767e+01	6.514018e+02
1.790000e-06	6.648834e-06	9.875828e-09	4.601948e+01	6.502072e+02
1.800000e-06	6.614105e-06	9.860935e-09	4.577911e+01	6.489471e+02
1.810000e-06	6.576810e-06	9.884004e-09	4.552097e+01	6.476048e+02
1.820000e-06	6.537208e-06	9.784353e-09	4.524687e+01	6.461630e+02
1.830000e-06	6.495571e-06	9.886638e-09	4.495868e+01	6.446051e+02
1.840000e-06	6.451660e-06	9.840573e-09	4.465475e+01	6.429167e+02
1.850000e-06	6.405473e-06	9.759895e-09	4.433507e+01	6.410866e+02
1.860000e-06	6.356862e-06	9.772963e-09	4.399861e+01	6.391072e+02
1.870000e-06	6.305939e-06	9.649316e-09	4.364615e+01	6.369750e+02
1.880000e-06	6.252550e-06	9.665346e-09	4.327662e+01	6.346902e+02
1.890000e-06	6.196498e-06	9.632589e-09	4.288866e+01	6.322561e+02
1.900000e-06	6.138127e-06	9.584575e-09	4.248466e+01	6.296783e+02
1.910000e-06	6.077380e-06	9.618299e-09	4.206420e+01	6.269638e+02
1.920000e-06	6.014312e-06	9.507248e-09	4.162767e+01	6.241199e+02
1.930000e-06	5.949145e-06	9.472188e-09	4.117663e+01	6.211537e+02
1.940000e-06	5.881889e-06	9.405141e-09	4.071112e+01	6.180709e+02
1.950000e-06	5.812398e-06	9.360400e-09	4.023014e+01	6.148758e+02
1.960000e-06	5.740475e-06	9.325722e-09	3.973233e+01	6.115704e+02
1.970000e-06	5.666358e-06	9.252002e-09	3.921934e+01	6.081548e+02
1.980000e-06	5.590052e-06	9.260011e-09	3.869119e+01	6.046269e+02
1.990000e-06	5.511471e-06	9.175432e-09	3.814729e+01	6.009829e+02
2.000000e-06	5.430882e-06	9.108372e-09	3.758950e+01	5.972174e+02
2.010000e-06	5.348476e-06	9.044184e-09	3.701914e+01	5.933237e+02
2.020000e-06	5.264267e-06	8.974088e-09	3.643629e+01	5.892945e+02
2.030000e-06	5.178046e-06	8.922928e-09	3.583952e+01	5.851224e+02
2.040000e-06	5.089827e-06	8.855103e-09	3.522891e+01	5.808001e+02
2.050000e-06	4.999919e-06	8.819317e-09	3.460662e+01	5.763208e+02
2.060000e-06	4.908499e-06	8.726393e-09	3.397386e+01	5.716792e+02
2.070000e-06	4.815381e-06	8.634691e-09	3.332935e+01	5.668712e+02
2.080000e-06	4.720412e-06	8.547776e-09	3.267203e+01	5.618943e+02
2.090000e-06	4.623752e-06	8.476880e-09	3.200301e+01	5.567478e+02
2.100000e-06	4.525596e-06	8.405949e-09	3.132362e+01	5.514325e+02
2.110000e-06	4.425982e-06	8.325260e-09	3.063415e+01	5.459505e+02
2.120000e-06	4.324786e-06	8.256906e-09	2.993373e+01	5.403043e+02
2.130000e-06	4.221939e-06	8.160709e-09	2.922188e+01	5.344967e+02
2.140000e-06	4.117480e-06	8.059665e-09	2.849888e+01	5.285296e+02
2.150000e-06	4.011593e-06	7.956285e-09	2.776599e+01	5.224034e+02
2.160000e-06	3.904413e-06	7.865261e-09	2.702415e+01	5.161161e+02
2.170000e-06	3.795846e-06	7.772741e-09	2.627271e+01	5.096633e+02
2.180000e-06	3.685831e-06	7.680704e-09	2.551124e+01	5.030375e+02
2.190000e-06	3.574391e-06	7.580449e-09	2.473992e+01	4.962287e+02
2.200000e-06	3.461606e-06	7.470439e-09	2.395929e+01	4.892245e+02
2.210000e-06	3.347497e-06	7.354216e-09	2.316948e+01	4.820115e+02
2.220000e-06	3.232045e-06	7.234168e-09	2.237039e+01	4.745759e+02
2.230000e-06	3.115177e-06	7.114928e-09	2.156150e+01	4.669045e+02
2.240000e-06	2.997033e-06	6.992534e-09	2.074377e+01	4.589865e+02
2.250000e-06	2.877727e-06	6.876840e-09	1.991800e+01	4.508138e+02
2.260000e-06	2.757213e-06	6.755523e-09	1.908387e+01	4.423817e+02
2.270000e-06	2.635706e-06	6.622675e-09	1.824287e+01	4.336888e+02
2.280000e-06	2.513366e-06	6.481426e-09	1.739610e+01	4.247368e+02
2.290000e-06	2.390199e-06	6.340079e-09	1.654361e+01	4.155293e+02
2.300000e-06	2.266236e-06	6.196487e-09	1.568560e+01	4.060707e+02
2.310000e-06	2.141472e-06	6.053606e-09	1.482206e+01	3.963647e+02
2.320000e-06	2.015895e-06	5.907729e-09	1.395289e+01	3.864127e+02
2.330000e-06	1.889642e-06	5.753318e-09	1.307903e+01	3.762126e+02
2.340000e-06	1.762827e-06	5.589709e-09	1.220130e+01	3.657581e+02
2.350000e-06	1.635389e-06	5.419317e-09	1.131924e+01	3.550382e+02
2.360000e-06	1.507281e-06	5.250386e-09	1.043255e+01	3.440379e+02
2.370000e-06	1.378625e-06	5.080245e-09	9.542065e+00	3.327393e+02
2.380000e-06	1.249583e-06	4.906339e-09	8.648911e+00	3.211225e+02
2.390000e-06	1.120175e-06	4.727345e-09	7.753218e+00	3.091679e+02
2.400000e-06	9.904167e-07	4.538129e-09	6.855106e+00	2.968580e+02
2.410000e-06	8.604098e-07	4.340242e-09	5.955271e+00	2.841783e+02
2.420000e-06	7.301841e-07	4.138859e-09	5.053923e+00	2.711190e+02
2.430000e-06	5.997564e-07	3.935250e-09	4.151176e+00	2.576744e+02
2.440000e-06	4.691204e-07	3.727820e-09	3.246987e+00	2.438426e+02
2.450000e-06	3.383060e-07	3.510285e-09	2.341563e+00	2.296241e+02
2.460000e-06	2.073323e-07	3.285705e-09	1.435037e+00	2.150193e+02
2.470000e-06	7.620294e-08	3.056719e-09	5.274338e-01	2.000261e+02
2.480000e-06	-5.497900e-08	2.824571e-09	-3.805336e-01	1.846375e+02
2.490000e-06	-1.861153e-07	2.584984e-09	-1.288185e+00	1.688394e+02
2.500000e-06	-3.171605e-07	2.333191e-09	-2.195206e+00	1.526094e+02
2.510000e-06	-4.481110e-07	2.072021e-09	-3.101572e+00	1.359167e+02
2.520000e-06	-5.789380e-07	1.805594e-09	-4.007082e+00	1.187238e+02
2.530000e-06	-7.095788e-07	1.537679e-09	-4.911304e+00	1.009888e+02
2.540000e-06	-8.400208e-07	1.263264e-09	-5.814150e+00	8.266999e+01
2.550000e-06	-9.702144e-07	9.771363e-10	-6.715277e+00	6.373084e+01
2.560000e-06	-1.100103e-06	6.784608e-10	-7.614295e+00	4.414566e+01
2.570000e-06	-1.229681e-06	3.702543e-10	-8.511161e+00	2.390524e+01
2.580000e-06	-1.358890e-06	5.515729e-11	-9.405469e+00	3.021780e+00
2.590000e-06	-1.487584e-06	-2.692299e-10	-1.029622e+01	-1.846740e+01
2.600000e-06	-1.615665e-06	-6.041800e-10	-1.118272e+01	-4.049799e+01
2.610000e-06	-1.743070e-06	-9.497362e-10	-1.206455e+01	-6.297884e+01
2.620000e-06	-1.869753e-06	-1.300624e-09	-1.294138e+01	-8.579427e+01
2.630000e-06	-1.995746e-06	-1.650336e-09	-1.381343e+01	-1.088085e+02
2.640000e-06	-2.121065e-06	-1.999018e-09	-1.468082e+01	-1.318720e+02
2.650000e-06	-2.245586e-06	-2.349713e-09	-1.554268e+01	-1.548282e+02
2.660000e-06	-2.369120e-06	-2.701055e-09	-1.639771e+01	-1.775224e+02
2.670000e-06	-2.491663e-06	-3.045779e-09	-1.724589e+01	-1.998086e+02
2.680000e-06	-2.613291e-06	-3.378970e-09	-1.808772e+01	-2.215569e+02
2.690000e-06	-2.734008e-06	-3.698609e-09	-1.892326e+01	-2.426590e+02
2.700000e-06	-2.853696e-06	-4.003613e-09	-1.975168e+01	-2.630318e+02
2.710000e-06	-2.972273e-06	-4.297548e-09	-2.057240e+01	-2.826187e+02
2.720000e-06	-3.089665e-06	-4.583257e-09	-2.138492e+01	-3.013895e+02
2.730000e-06	-3.205849e-06	-4.857773e-09	-2.218908e+01	-3.193382e+02
2.740000e-06	-3.320760e-06	-5.120959e-09	-2.298443e+01	-3.364784e+02
2.750000e-06	-3.434231e-06	-5.374007e-09	-2.376981e+01	-3.528394e+02
2.760000e-06	-3.546273e-06	-5.616795e-09	-2.454530e+01	-3.684605e+02
2.770000e-06	-3.656999e-06	-5.848980e-09	-2.531169e+01	-3.833860e+02
2.780000e-06	-3.766502e-06	-6.069477e-09	-2.606960e+01	-3.976608e+02
2.790000e-06	-3.874798e-06	-6.278086e-09	-2.681917e+01	-4.113271e+02
2.800000e-06	-3.981857e-06	-6.476553e-09	-2.756017e+01	-4.244217e+02
2.810000e-06	-4.087549e-06	-6.667885e-09	-2.829171e+01	-4.369753e+02
2.820000e-06	-4.191744e-06	-6.853388e-09	-2.901289e+01	-4.490124e+02
2.830000e-06	-4.294330e-06	-7.030928e-09	-2.972293e+01	-4.605519e+02
2.840000e-06	-4.395311e-06	-7.199450e-09	-3.042186e+01	-4.716087e+02
2.850000e-06	-4.494719e-06	-7.358565e-09	-3.110991e+01	-4.821953e+02
2.860000e-06	-4.592591e-06	-7.511439e-09	-3.178733e+01	-4.923231e+02
2.870000e-06	-4.688942e-06	-7.660828e-09	-3.245421e+01	-5.020039e+02
2.880000e-06	-4.783572e-06	-7.803438e-09	-3.310919e+01	-5.112507e+02
2.890000e-06	-4.876508e-06	-7.935220e-09	-3.375244e+01	-5.200773e+02
2.900000e-06	-4.967776e-06	-8.058200e-09	-3.438414e+01	-5.284989e+02
2.910000e-06	-5.057264e-06	-8.178653e-09	-3.500353e+01	-5.365313e+02
2.920000e-06	-5.144790e-06	-8.296974e-09	-3.560934e+01	-5.441898e+02
2.930000e-06	-5.230328e-06	-8.408774e-09	-3.620138e+01	-5.514893e+02
2.940000e-06	-5.314058e-06	-8.515170e-09	-3.678091e+01	-5.584435e+02
