# Temperatura_=_74.16
# Concentracion g/m^3_=_15000.0
# C_Vs_to_Am_M_A/Vsm_=_65563218390.804596
# pendiente_HvsI_1/m_=_3716.3
# ordenada_HvsI_A/m_=_1297.0
# frecuencia_Hz_=_301973.2732966311

Tiempo_(s)	Campo_(V.s)	Magnetizacion_(V.s)	Campo_(kA/m)	Magnetizacion_(A/m)
0.000000e+00	-6.855744e-06	-1.177281e-08	-4.748258e+01	-7.722560e+02
1.000000e-08	-6.854025e-06	-1.177369e-08	-4.747067e+01	-7.721009e+02
2.000000e-08	-6.849951e-06	-1.176793e-08	-4.744245e+01	-7.717737e+02
3.000000e-08	-6.843696e-06	-1.175868e-08	-4.739914e+01	-7.712746e+02
4.000000e-08	-6.835241e-06	-1.175170e-08	-4.734057e+01	-7.706101e+02
5.000000e-08	-6.824410e-06	-1.174204e-08	-4.726556e+01	-7.697926e+02
6.000000e-08	-6.811067e-06	-1.172814e-08	-4.717315e+01	-7.688392e+02
7.000000e-08	-6.795283e-06	-1.170497e-08	-4.706383e+01	-7.677699e+02
8.000000e-08	-6.777223e-06	-1.168344e-08	-4.693874e+01	-7.666055e+02
9.000000e-08	-6.756927e-06	-1.172018e-08	-4.679818e+01	-7.653649e+02
1.000000e-07	-6.734133e-06	-1.173129e-08	-4.664030e+01	-7.640631e+02
1.100000e-07	-6.708554e-06	-1.166377e-08	-4.646315e+01	-7.627092e+02
1.200000e-07	-6.680364e-06	-1.161582e-08	-4.626790e+01	-7.613051e+02
1.300000e-07	-6.649959e-06	-1.158405e-08	-4.605732e+01	-7.598455e+02
1.400000e-07	-6.617551e-06	-1.148740e-08	-4.583287e+01	-7.583178e+02
1.500000e-07	-6.583215e-06	-1.148838e-08	-4.559506e+01	-7.567040e+02
1.600000e-07	-6.546927e-06	-1.158695e-08	-4.534372e+01	-7.549816e+02
1.700000e-07	-6.508538e-06	-1.145545e-08	-4.507784e+01	-7.531267e+02
1.800000e-07	-6.467990e-06	-1.143817e-08	-4.479701e+01	-7.511153e+02
1.900000e-07	-6.425065e-06	-1.145844e-08	-4.449972e+01	-7.489261e+02
2.000000e-07	-6.379691e-06	-1.132540e-08	-4.418546e+01	-7.465417e+02
2.100000e-07	-6.331973e-06	-1.132830e-08	-4.385496e+01	-7.439504e+02
2.200000e-07	-6.281610e-06	-1.129201e-08	-4.350615e+01	-7.411460e+02
2.300000e-07	-6.228606e-06	-1.123749e-08	-4.313905e+01	-7.381286e+02
2.400000e-07	-6.173193e-06	-1.118945e-08	-4.275526e+01	-7.349032e+02
2.500000e-07	-6.115363e-06	-1.112951e-08	-4.235474e+01	-7.314791e+02
2.600000e-07	-6.055259e-06	-1.111354e-08	-4.193845e+01	-7.278685e+02
2.700000e-07	-5.993053e-06	-1.102963e-08	-4.150762e+01	-7.240847e+02
2.800000e-07	-5.928656e-06	-1.095021e-08	-4.106161e+01	-7.201410e+02
2.900000e-07	-5.861983e-06	-1.090149e-08	-4.059983e+01	-7.160489e+02
3.000000e-07	-5.793104e-06	-1.085065e-08	-4.012278e+01	-7.118177e+02
3.100000e-07	-5.722081e-06	-1.079649e-08	-3.963088e+01	-7.074532e+02
3.200000e-07	-5.648874e-06	-1.070999e-08	-3.912385e+01	-7.029576e+02
3.300000e-07	-5.573406e-06	-1.065374e-08	-3.860117e+01	-6.983299e+02
3.400000e-07	-5.495660e-06	-1.056277e-08	-3.806270e+01	-6.935654e+02
3.500000e-07	-5.415693e-06	-1.047195e-08	-3.750885e+01	-6.886572e+02
3.600000e-07	-5.333750e-06	-1.041348e-08	-3.694131e+01	-6.835963e+02
3.700000e-07	-5.250071e-06	-1.035051e-08	-3.636176e+01	-6.783729e+02
3.800000e-07	-5.164673e-06	-1.027600e-08	-3.577030e+01	-6.729770e+02
3.900000e-07	-5.077526e-06	-1.017342e-08	-3.516672e+01	-6.673995e+02
4.000000e-07	-4.988555e-06	-1.009194e-08	-3.455051e+01	-6.616326e+02
4.100000e-07	-4.897733e-06	-9.995961e-09	-3.392148e+01	-6.556710e+02
4.200000e-07	-4.805209e-06	-9.894412e-09	-3.328066e+01	-6.495112e+02
4.300000e-07	-4.711140e-06	-9.805036e-09	-3.262915e+01	-6.431526e+02
4.400000e-07	-4.615430e-06	-9.711166e-09	-3.196626e+01	-6.365969e+02
4.500000e-07	-4.517949e-06	-9.612304e-09	-3.129111e+01	-6.298475e+02
4.600000e-07	-4.418788e-06	-9.504785e-09	-3.060433e+01	-6.229092e+02
4.700000e-07	-4.318067e-06	-9.398953e-09	-2.990674e+01	-6.157870e+02
4.800000e-07	-4.215915e-06	-9.280371e-09	-2.919924e+01	-6.084856e+02
4.900000e-07	-4.112297e-06	-9.160156e-09	-2.848158e+01	-6.010081e+02
5.000000e-07	-4.007173e-06	-9.042667e-09	-2.775350e+01	-5.933552e+02
5.100000e-07	-3.900537e-06	-8.927969e-09	-2.701495e+01	-5.855249e+02
5.200000e-07	-3.792350e-06	-8.811220e-09	-2.626565e+01	-5.775119e+02
5.300000e-07	-3.682865e-06	-8.687760e-09	-2.550736e+01	-5.693076e+02
5.400000e-07	-3.572135e-06	-8.557326e-09	-2.474045e+01	-5.609010e+02
5.500000e-07	-3.460037e-06	-8.419999e-09	-2.396406e+01	-5.522791e+02
5.600000e-07	-3.346534e-06	-8.284851e-09	-2.317795e+01	-5.434279e+02
5.700000e-07	-3.231555e-06	-8.148109e-09	-2.238161e+01	-5.343337e+02
5.800000e-07	-3.115178e-06	-8.006850e-09	-2.157559e+01	-5.249846e+02
5.900000e-07	-2.997617e-06	-7.859114e-09	-2.076136e+01	-5.153709e+02
6.000000e-07	-2.878972e-06	-7.709999e-09	-1.993963e+01	-5.054860e+02
6.100000e-07	-2.759299e-06	-7.554535e-09	-1.911078e+01	-4.953267e+02
6.200000e-07	-2.638642e-06	-7.392067e-09	-1.827512e+01	-4.848928e+02
6.300000e-07	-2.517007e-06	-7.227310e-09	-1.743268e+01	-4.741863e+02
6.400000e-07	-2.394307e-06	-7.061850e-09	-1.658286e+01	-4.632099e+02
6.500000e-07	-2.270625e-06	-6.891906e-09	-1.572625e+01	-4.519664e+02
6.600000e-07	-2.146188e-06	-6.716546e-09	-1.486440e+01	-4.404562e+02
6.700000e-07	-2.021051e-06	-6.538829e-09	-1.399771e+01	-4.286769e+02
6.800000e-07	-1.895316e-06	-6.352954e-09	-1.312687e+01	-4.166217e+02
6.900000e-07	-1.768999e-06	-6.161033e-09	-1.225201e+01	-4.042796e+02
7.000000e-07	-1.642010e-06	-5.966605e-09	-1.137249e+01	-3.916353e+02
7.100000e-07	-1.514359e-06	-5.767563e-09	-1.048838e+01	-3.786701e+02
7.200000e-07	-1.386149e-06	-5.561433e-09	-9.600407e+00	-3.653638e+02
7.300000e-07	-1.257539e-06	-5.350286e-09	-8.709657e+00	-3.516954e+02
7.400000e-07	-1.128611e-06	-5.135557e-09	-7.816708e+00	-3.376454e+02
7.500000e-07	-9.993742e-07	-4.916360e-09	-6.921621e+00	-3.231971e+02
7.600000e-07	-8.698184e-07	-4.693229e-09	-6.024324e+00	-3.083370e+02
7.700000e-07	-7.399242e-07	-4.463276e-09	-5.124682e+00	-2.930550e+02
7.800000e-07	-6.097779e-07	-4.226077e-09	-4.223295e+00	-2.773436e+02
7.900000e-07	-4.794327e-07	-3.982551e-09	-3.320529e+00	-2.611958e+02
8.000000e-07	-3.488980e-07	-3.731836e-09	-2.416452e+00	-2.446031e+02
8.100000e-07	-2.181604e-07	-3.471186e-09	-1.510969e+00	-2.275525e+02
8.200000e-07	-8.727486e-08	-3.200947e-09	-6.044618e-01	-2.100239e+02
8.300000e-07	4.368577e-08	-2.923224e-09	3.025657e-01	-1.919885e+02
8.400000e-07	1.746417e-07	-2.636629e-09	1.209561e+00	-1.734074e+02
8.500000e-07	3.055239e-07	-2.342451e-09	2.116045e+00	-1.542324e+02
8.600000e-07	4.363315e-07	-2.040803e-09	3.022013e+00	-1.344082e+02
8.700000e-07	5.669903e-07	-1.728013e-09	3.926950e+00	-1.138760e+02
8.800000e-07	6.974645e-07	-1.402151e-09	4.830608e+00	-9.257980e+01
8.900000e-07	8.277262e-07	-1.065594e-09	5.732795e+00	-7.047217e+01
9.000000e-07	9.576795e-07	-7.191762e-10	6.632846e+00	-4.752195e+01
9.100000e-07	1.087301e-06	-3.599722e-10	7.530599e+00	-2.372106e+01
9.200000e-07	1.216612e-06	1.486018e-11	8.426198e+00	9.093995e-01
9.300000e-07	1.345569e-06	4.034982e-10	9.319348e+00	2.631488e+01
9.400000e-07	1.474047e-06	8.019889e-10	1.020918e+01	5.240533e+01
9.500000e-07	1.601953e-06	1.208271e-09	1.109505e+01	7.905591e+01
9.600000e-07	1.729210e-06	1.621087e-09	1.197643e+01	1.061106e+02
9.700000e-07	1.855764e-06	2.037236e-09	1.285294e+01	1.333882e+02
9.800000e-07	1.981673e-06	2.453939e-09	1.372498e+01	1.606912e+02
9.900000e-07	2.106971e-06	2.866741e-09	1.459279e+01	1.878153e+02
1.000000e-06	2.231639e-06	3.272370e-09	1.545623e+01	2.145604e+02
1.010000e-06	2.355527e-06	3.671111e-09	1.631428e+01	2.407408e+02
1.020000e-06	2.478428e-06	4.059810e-09	1.716548e+01	2.661941e+02
1.030000e-06	2.600341e-06	4.434837e-09	1.800985e+01	2.907886e+02
1.040000e-06	2.721331e-06	4.793696e-09	1.884782e+01	3.144276e+02
1.050000e-06	2.841325e-06	5.134707e-09	1.967889e+01	3.370511e+02
1.060000e-06	2.960220e-06	5.460239e-09	2.050235e+01	3.586346e+02
1.070000e-06	3.078029e-06	5.772445e-09	2.131829e+01	3.791853e+02
1.080000e-06	3.194747e-06	6.072813e-09	2.212668e+01	3.987359e+02
1.090000e-06	3.310200e-06	6.360493e-09	2.292629e+01	4.173384e+02
1.100000e-06	3.424213e-06	6.633615e-09	2.371595e+01	4.350555e+02
1.110000e-06	3.536827e-06	6.891441e-09	2.449591e+01	4.519545e+02
1.120000e-06	3.648173e-06	7.135381e-09	2.526709e+01	4.681004e+02
1.130000e-06	3.758329e-06	7.369252e-09	2.603002e+01	4.835517e+02
1.140000e-06	3.867323e-06	7.594280e-09	2.678491e+01	4.983576e+02
1.150000e-06	3.975070e-06	7.811323e-09	2.753116e+01	5.125570e+02
1.160000e-06	4.081329e-06	8.019960e-09	2.826710e+01	5.261795e+02
1.170000e-06	4.186058e-06	8.218538e-09	2.899245e+01	5.392468e+02
1.180000e-06	4.289298e-06	8.407287e-09	2.970749e+01	5.517760e+02
1.190000e-06	4.391077e-06	8.588685e-09	3.041240e+01	5.637819e+02
1.200000e-06	4.491407e-06	8.762631e-09	3.110729e+01	5.752796e+02
1.210000e-06	4.590062e-06	8.928467e-09	3.179056e+01	5.862868e+02
1.220000e-06	4.686984e-06	9.087340e-09	3.246184e+01	5.968237e+02
1.230000e-06	4.782163e-06	9.241183e-09	3.312105e+01	6.069135e+02
1.240000e-06	4.875627e-06	9.390121e-09	3.376838e+01	6.165811e+02
1.250000e-06	4.967453e-06	9.534073e-09	3.440436e+01	6.258514e+02
1.260000e-06	5.057503e-06	9.673453e-09	3.502804e+01	6.347473e+02
1.270000e-06	5.145643e-06	9.807283e-09	3.563849e+01	6.432881e+02
1.280000e-06	5.231940e-06	9.934354e-09	3.623618e+01	6.514880e+02
1.290000e-06	5.316471e-06	1.005642e-08	3.682164e+01	6.593557e+02
1.300000e-06	5.399097e-06	1.017503e-08	3.739390e+01	6.668947e+02
1.310000e-06	5.479717e-06	1.028626e-08	3.795228e+01	6.741043e+02
1.320000e-06	5.558370e-06	1.038988e-08	3.849702e+01	6.809817e+02
1.330000e-06	5.635019e-06	1.048903e-08	3.902789e+01	6.875242e+02
1.340000e-06	5.709486e-06	1.058323e-08	3.954364e+01	6.937313e+02
1.350000e-06	5.781713e-06	1.067111e-08	4.004388e+01	6.996067e+02
1.360000e-06	5.851836e-06	1.075355e-08	4.052956e+01	7.051595e+02
1.370000e-06	5.919947e-06	1.083209e-08	4.100129e+01	7.104049e+02
1.380000e-06	5.985912e-06	1.090732e-08	4.145816e+01	7.153631e+02
1.390000e-06	6.049666e-06	1.097995e-08	4.189972e+01	7.200586e+02
1.400000e-06	6.111368e-06	1.105009e-08	4.232706e+01	7.245175e+02
1.410000e-06	6.171045e-06	1.111774e-08	4.274038e+01	7.287652e+02
1.420000e-06	6.228543e-06	1.118160e-08	4.313861e+01	7.328241e+02
1.430000e-06	6.283786e-06	1.124098e-08	4.352123e+01	7.367109e+02
1.440000e-06	6.336682e-06	1.129766e-08	4.388758e+01	7.404357e+02
1.450000e-06	6.386977e-06	1.135252e-08	4.423592e+01	7.440011e+02
1.460000e-06	6.434731e-06	1.140508e-08	4.456666e+01	7.474026e+02
1.470000e-06	6.480313e-06	1.145297e-08	4.488236e+01	7.506300e+02
1.480000e-06	6.523713e-06	1.149644e-08	4.518294e+01	7.536695e+02
1.490000e-06	6.564712e-06	1.153691e-08	4.546690e+01	7.565063e+02
1.500000e-06	6.603352e-06	1.157552e-08	4.573452e+01	7.591269e+02
1.510000e-06	6.639760e-06	1.161271e-08	4.598668e+01	7.615218e+02
1.520000e-06	6.673802e-06	1.164647e-08	4.622245e+01	7.636872e+02
1.530000e-06	6.705377e-06	1.167704e-08	4.644114e+01	7.656255e+02
1.540000e-06	6.734692e-06	1.170386e-08	4.664417e+01	7.673459e+02
1.550000e-06	6.761726e-06	1.172739e-08	4.683141e+01	7.688627e+02
1.560000e-06	6.786190e-06	1.174796e-08	4.700085e+01	7.701940e+02
1.570000e-06	6.808136e-06	1.176407e-08	4.715285e+01	7.713591e+02
1.580000e-06	6.827771e-06	1.177650e-08	4.728884e+01	7.723764e+02
1.590000e-06	6.844988e-06	1.178747e-08	4.740808e+01	7.732611e+02
1.600000e-06	6.859663e-06	1.179939e-08	4.750972e+01	7.740233e+02
1.610000e-06	6.871746e-06	1.181119e-08	4.759341e+01	7.746670e+02
1.620000e-06	6.881136e-06	1.181932e-08	4.765844e+01	7.751904e+02
1.630000e-06	6.887947e-06	1.182532e-08	4.770562e+01	7.755865e+02
1.640000e-06	6.892430e-06	1.183066e-08	4.773667e+01	7.758447e+02
1.650000e-06	6.894464e-06	1.183486e-08	4.775075e+01	7.759528e+02
1.660000e-06	6.894001e-06	1.183357e-08	4.774754e+01	7.758996e+02
1.670000e-06	6.891281e-06	1.182143e-08	4.772870e+01	7.756770e+02
1.680000e-06	6.886325e-06	1.181285e-08	4.769438e+01	7.752817e+02
1.690000e-06	6.879057e-06	1.180695e-08	4.764405e+01	7.747163e+02
1.700000e-06	6.869515e-06	1.180008e-08	4.757796e+01	7.739897e+02
1.710000e-06	6.857698e-06	1.179210e-08	4.749611e+01	7.731162e+02
1.720000e-06	6.843467e-06	1.178965e-08	4.739755e+01	7.721145e+02
1.730000e-06	6.827000e-06	1.178750e-08	4.728350e+01	7.710052e+02
1.740000e-06	6.808484e-06	1.170631e-08	4.715526e+01	7.698085e+02
1.750000e-06	6.787343e-06	1.165248e-08	4.700883e+01	7.685422e+02
1.760000e-06	6.762859e-06	1.167327e-08	4.683926e+01	7.672190e+02
1.770000e-06	6.735378e-06	1.165012e-08	4.664893e+01	7.658453e+02
1.780000e-06	6.705684e-06	1.166079e-08	4.644327e+01	7.644202e+02
1.790000e-06	6.674176e-06	1.172271e-08	4.622505e+01	7.629354e+02
1.800000e-06	6.641179e-06	1.157820e-08	4.599651e+01	7.613761e+02
1.810000e-06	6.606281e-06	1.154292e-08	4.575481e+01	7.597222e+02
1.820000e-06	6.568788e-06	1.161023e-08	4.549513e+01	7.579504e+02
1.830000e-06	6.529046e-06	1.149287e-08	4.521988e+01	7.560365e+02
1.840000e-06	6.487202e-06	1.156477e-08	4.493007e+01	7.539574e+02
1.850000e-06	6.443080e-06	1.151430e-08	4.462448e+01	7.516930e+02
1.860000e-06	6.396706e-06	1.140779e-08	4.430330e+01	7.492282e+02
1.870000e-06	6.347928e-06	1.144001e-08	4.396547e+01	7.465533e+02
1.880000e-06	6.296822e-06	1.130511e-08	4.361151e+01	7.436647e+02
1.890000e-06	6.243165e-06	1.131035e-08	4.323988e+01	7.405645e+02
1.900000e-06	6.186814e-06	1.125287e-08	4.284960e+01	7.372594e+02
1.910000e-06	6.128170e-06	1.115891e-08	4.244343e+01	7.337603e+02
1.920000e-06	6.067260e-06	1.119586e-08	4.202158e+01	7.300798e+02
1.930000e-06	6.004045e-06	1.106219e-08	4.158375e+01	7.262314e+02
1.940000e-06	5.938657e-06	1.102958e-08	4.113087e+01	7.222279e+02
1.950000e-06	5.871147e-06	1.096401e-08	4.066330e+01	7.180800e+02
1.960000e-06	5.801385e-06	1.087789e-08	4.018014e+01	7.137956e+02
1.970000e-06	5.729222e-06	1.082394e-08	3.968034e+01	7.093793e+02
1.980000e-06	5.654898e-06	1.071494e-08	3.916557e+01	7.048320e+02
1.990000e-06	5.578395e-06	1.071817e-08	3.863571e+01	7.001509e+02
2.000000e-06	5.499629e-06	1.062606e-08	3.809019e+01	6.953307e+02
2.010000e-06	5.418871e-06	1.054040e-08	3.753086e+01	6.903634e+02
2.020000e-06	5.336341e-06	1.045801e-08	3.695926e+01	6.852396e+02
2.030000e-06	5.252013e-06	1.035810e-08	3.637521e+01	6.799493e+02
2.040000e-06	5.165713e-06	1.028571e-08	3.577750e+01	6.744829e+02
2.050000e-06	5.077480e-06	1.019087e-08	3.516640e+01	6.688316e+02
2.060000e-06	4.987523e-06	1.014221e-08	3.454336e+01	6.629885e+02
2.070000e-06	4.896011e-06	1.002834e-08	3.390956e+01	6.569490e+02
2.080000e-06	4.802805e-06	9.915807e-09	3.326402e+01	6.507108e+02
2.090000e-06	4.707784e-06	9.808630e-09	3.260590e+01	6.442742e+02
2.100000e-06	4.611110e-06	9.710933e-09	3.193634e+01	6.376416e+02
2.110000e-06	4.512938e-06	9.612443e-09	3.125641e+01	6.308172e+02
2.120000e-06	4.413263e-06	9.500222e-09	3.056606e+01	6.238058e+02
2.130000e-06	4.311970e-06	9.412918e-09	2.986451e+01	6.166125e+02
2.140000e-06	4.209063e-06	9.304452e-09	2.915178e+01	6.092414e+02
2.150000e-06	4.104583e-06	9.190469e-09	2.842816e+01	6.016948e+02
2.160000e-06	3.998673e-06	9.060217e-09	2.769463e+01	5.939724e+02
2.170000e-06	3.891397e-06	8.935244e-09	2.695164e+01	5.860709e+02
2.180000e-06	3.782783e-06	8.803146e-09	2.619938e+01	5.779836e+02
2.190000e-06	3.672766e-06	8.676314e-09	2.543741e+01	5.697011e+02
2.200000e-06	3.561323e-06	8.551951e-09	2.466556e+01	5.612113e+02
2.210000e-06	3.448510e-06	8.424581e-09	2.388423e+01	5.525007e+02
2.220000e-06	3.334304e-06	8.292273e-09	2.309324e+01	5.435554e+02
2.230000e-06	3.218730e-06	8.147579e-09	2.229278e+01	5.343622e+02
2.240000e-06	3.101773e-06	7.999756e-09	2.148274e+01	5.249098e+02
2.250000e-06	2.983522e-06	7.848422e-09	2.066374e+01	5.151899e+02
2.260000e-06	2.864117e-06	7.704163e-09	1.983675e+01	5.051972e+02
2.270000e-06	2.743643e-06	7.551103e-09	1.900235e+01	4.949297e+02
2.280000e-06	2.622239e-06	7.388814e-09	1.816151e+01	4.843881e+02
2.290000e-06	2.500025e-06	7.219769e-09	1.731506e+01	4.735749e+02
2.300000e-06	2.376896e-06	7.050231e-09	1.646228e+01	4.624932e+02
2.310000e-06	2.252836e-06	6.875884e-09	1.560304e+01	4.511447e+02
2.320000e-06	2.128040e-06	6.701844e-09	1.473871e+01	4.395291e+02
2.330000e-06	2.002580e-06	6.526688e-09	1.386978e+01	4.276422e+02
2.340000e-06	1.876403e-06	6.344039e-09	1.299588e+01	4.154756e+02
2.350000e-06	1.749506e-06	6.153791e-09	1.211700e+01	4.030165e+02
2.360000e-06	1.621956e-06	5.955791e-09	1.123359e+01	3.902483e+02
2.370000e-06	1.493865e-06	5.755489e-09	1.034644e+01	3.771514e+02
2.380000e-06	1.365308e-06	5.550105e-09	9.456062e+00	3.637049e+02
2.390000e-06	1.236343e-06	5.340303e-09	8.562857e+00	3.498886e+02
2.400000e-06	1.107029e-06	5.125931e-09	7.667235e+00	3.356837e+02
2.410000e-06	9.773807e-07	4.904078e-09	6.769295e+00	3.210748e+02
2.420000e-06	8.474606e-07	4.674795e-09	5.869474e+00	3.060497e+02
2.430000e-06	7.173036e-07	4.439053e-09	4.968013e+00	2.905996e+02
2.440000e-06	5.869244e-07	4.196218e-09	4.065013e+00	2.747174e+02
2.450000e-06	4.563673e-07	3.946137e-09	3.160779e+00	2.583958e+02
2.460000e-06	3.256331e-07	3.688548e-09	2.255320e+00	2.416248e+02
2.470000e-06	1.947635e-07	3.423881e-09	1.348924e+00	2.243890e+02
2.480000e-06	6.375580e-08	3.154077e-09	4.415699e-01	2.066651e+02
2.490000e-06	-6.735222e-08	2.879363e-09	-4.664785e-01	1.884203e+02
2.500000e-06	-1.983907e-07	2.594300e-09	-1.374045e+00	1.696118e+02
2.510000e-06	-3.293513e-07	2.296275e-09	-2.281073e+00	1.501884e+02
2.520000e-06	-4.602456e-07	1.987358e-09	-3.187640e+00	1.300928e+02
2.530000e-06	-5.910199e-07	1.668423e-09	-4.093378e+00	1.092666e+02
2.540000e-06	-7.216095e-07	1.338680e-09	-4.997836e+00	8.765626e+01
2.550000e-06	-8.519734e-07	9.969803e-10	-5.900730e+00	6.521995e+01
2.560000e-06	-9.820525e-07	6.428931e-10	-6.801652e+00	4.193477e+01
2.570000e-06	-1.111736e-06	2.765174e-10	-7.699836e+00	1.780344e+01
2.580000e-06	-1.241029e-06	-1.017017e-10	-8.595312e+00	-7.140199e+00
2.590000e-06	-1.369980e-06	-4.893981e-10	-9.488422e+00	-3.282773e+01
2.600000e-06	-1.498548e-06	-8.880258e-10	-1.037888e+01	-5.915521e+01
2.610000e-06	-1.626553e-06	-1.298881e-09	-1.126543e+01	-8.598493e+01
2.620000e-06	-1.753813e-06	-1.717655e-09	-1.214683e+01	-1.131501e+02
2.630000e-06	-1.880361e-06	-2.139656e-09	-1.302329e+01	-1.404621e+02
2.640000e-06	-2.006170e-06	-2.558371e-09	-1.389464e+01	-1.677195e+02
2.650000e-06	-2.131180e-06	-2.972361e-09	-1.476046e+01	-1.947183e+02
2.660000e-06	-2.255402e-06	-3.380043e-09	-1.562082e+01	-2.212628e+02
2.670000e-06	-2.378747e-06	-3.777596e-09	-1.647510e+01	-2.471756e+02
2.680000e-06	-2.501174e-06	-4.161955e-09	-1.732302e+01	-2.723056e+02
2.690000e-06	-2.622754e-06	-4.531646e-09	-1.816508e+01	-2.965344e+02
2.700000e-06	-2.743373e-06	-4.884622e-09	-1.900048e+01	-3.197799e+02
2.710000e-06	-2.862865e-06	-5.219963e-09	-1.982808e+01	-3.419961e+02
2.720000e-06	-2.981200e-06	-5.540565e-09	-2.064766e+01	-3.631717e+02
2.730000e-06	-3.098348e-06	-5.846924e-09	-2.145902e+01	-3.833246e+02
2.740000e-06	-3.214281e-06	-6.138194e-09	-2.226197e+01	-4.024960e+02
2.750000e-06	-3.328920e-06	-6.416688e-09	-2.305595e+01	-4.207430e+02
2.760000e-06	-3.442175e-06	-6.685841e-09	-2.384035e+01	-4.381310e+02
2.770000e-06	-3.554054e-06	-6.944824e-09	-2.461522e+01	-4.547269e+02
2.780000e-06	-3.664594e-06	-7.191687e-09	-2.538082e+01	-4.705936e+02
2.790000e-06	-3.773860e-06	-7.424819e-09	-2.613759e+01	-4.857863e+02
2.800000e-06	-3.881952e-06	-7.644626e-09	-2.688622e+01	-5.003501e+02
2.810000e-06	-3.988769e-06	-7.852890e-09	-2.762604e+01	-5.143201e+02
2.820000e-06	-4.094226e-06	-8.054736e-09	-2.835642e+01	-5.277225e+02
2.830000e-06	-4.198197e-06	-8.252327e-09	-2.907653e+01	-5.405768e+02
2.840000e-06	-4.300520e-06	-8.443063e-09	-2.978521e+01	-5.528989e+02
2.850000e-06	-4.401255e-06	-8.625569e-09	-3.048290e+01	-5.647035e+02
2.860000e-06	-4.500460e-06	-8.798635e-09	-3.116999e+01	-5.760065e+02
2.870000e-06	-4.598190e-06	-8.965783e-09	-3.184686e+01	-5.868265e+02
2.880000e-06	-4.694439e-06	-9.126945e-09	-3.251348e+01	-5.971852e+02
2.890000e-06	-4.788939e-06	-9.278067e-09	-3.316798e+01	-6.071064e+02
2.900000e-06	-4.881638e-06	-9.418968e-09	-3.381000e+01	-6.166152e+02
2.910000e-06	-4.972625e-06	-9.553113e-09	-3.444018e+01	-6.257361e+02
2.920000e-06	-5.061858e-06	-9.683612e-09	-3.505820e+01	-6.344908e+02
2.930000e-06	-5.149186e-06	-9.811052e-09	-3.566303e+01	-6.428965e+02
2.940000e-06	-5.234535e-06	-9.934090e-09	-3.625416e+01	-6.509654e+02
