# Temperatura_=_37.48
# Concentracion g/m^3_=_15000.0
# C_Vs_to_Am_M_A/Vsm_=_65563218390.804596
# pendiente_HvsI_1/m_=_3716.3
# ordenada_HvsI_A/m_=_1297.0
# frecuencia_Hz_=_301971.4738091609

Tiempo_(s)	Campo_(V.s)	Magnetizacion_(V.s)	Campo_(kA/m)	Magnetizacion_(A/m)
0.000000e+00	-6.891298e-06	-1.006276e-08	-4.747852e+01	-6.600555e+02
1.000000e-08	-6.889523e-06	-1.006282e-08	-4.746629e+01	-6.598729e+02
2.000000e-08	-6.885390e-06	-1.005732e-08	-4.743781e+01	-6.595492e+02
3.000000e-08	-6.879101e-06	-1.004877e-08	-4.739448e+01	-6.590902e+02
4.000000e-08	-6.870607e-06	-1.004229e-08	-4.733596e+01	-6.585071e+02
5.000000e-08	-6.859679e-06	-1.003278e-08	-4.726067e+01	-6.578151e+02
6.000000e-08	-6.846278e-06	-1.001951e-08	-4.716834e+01	-6.570320e+02
7.000000e-08	-6.830401e-06	-1.000077e-08	-4.705896e+01	-6.561767e+02
8.000000e-08	-6.812197e-06	-9.988184e-09	-4.693354e+01	-6.552667e+02
9.000000e-08	-6.791852e-06	-1.003005e-08	-4.679337e+01	-6.543165e+02
1.000000e-07	-6.769008e-06	-1.004405e-08	-4.663598e+01	-6.533361e+02
1.100000e-07	-6.743296e-06	-9.979686e-09	-4.645883e+01	-6.523297e+02
1.200000e-07	-6.714955e-06	-9.939383e-09	-4.626358e+01	-6.512954e+02
1.300000e-07	-6.684446e-06	-9.917493e-09	-4.605338e+01	-6.502250e+02
1.400000e-07	-6.651909e-06	-9.824417e-09	-4.582921e+01	-6.491057e+02
1.500000e-07	-6.617396e-06	-9.825807e-09	-4.559143e+01	-6.479205e+02
1.600000e-07	-6.580960e-06	-9.930251e-09	-4.534040e+01	-6.466503e+02
1.700000e-07	-6.542498e-06	-9.819210e-09	-4.507541e+01	-6.452756e+02
1.800000e-07	-6.501872e-06	-9.804204e-09	-4.479551e+01	-6.437780e+02
1.900000e-07	-6.458714e-06	-9.825199e-09	-4.449817e+01	-6.421418e+02
2.000000e-07	-6.413001e-06	-9.708616e-09	-4.418322e+01	-6.403551e+02
2.100000e-07	-6.364925e-06	-9.724898e-09	-4.385200e+01	-6.384102e+02
2.200000e-07	-6.314207e-06	-9.720040e-09	-4.350257e+01	-6.363038e+02
2.300000e-07	-6.260879e-06	-9.698121e-09	-4.313516e+01	-6.340368e+02
2.400000e-07	-6.205153e-06	-9.646098e-09	-4.275123e+01	-6.316138e+02
2.500000e-07	-6.147001e-06	-9.559662e-09	-4.235058e+01	-6.290416e+02
2.600000e-07	-6.086609e-06	-9.551258e-09	-4.193450e+01	-6.263292e+02
2.700000e-07	-6.024107e-06	-9.511051e-09	-4.150389e+01	-6.234858e+02
2.800000e-07	-5.959351e-06	-9.454459e-09	-4.105774e+01	-6.205203e+02
2.900000e-07	-5.892326e-06	-9.408007e-09	-4.059596e+01	-6.174408e+02
3.000000e-07	-5.823139e-06	-9.356875e-09	-4.011929e+01	-6.142530e+02
3.100000e-07	-5.751820e-06	-9.307528e-09	-3.962793e+01	-6.109609e+02
3.200000e-07	-5.678253e-06	-9.255594e-09	-3.912108e+01	-6.075658e+02
3.300000e-07	-5.602354e-06	-9.239208e-09	-3.859816e+01	-6.040663e+02
3.400000e-07	-5.524139e-06	-9.164606e-09	-3.805929e+01	-6.004588e+02
3.500000e-07	-5.443787e-06	-9.075586e-09	-3.750569e+01	-5.967373e+02
3.600000e-07	-5.361518e-06	-9.024129e-09	-3.693889e+01	-5.928941e+02
3.700000e-07	-5.277500e-06	-8.984088e-09	-3.636004e+01	-5.889203e+02
3.800000e-07	-5.191733e-06	-8.945104e-09	-3.576913e+01	-5.848060e+02
3.900000e-07	-5.104178e-06	-8.868225e-09	-3.516591e+01	-5.805415e+02
4.000000e-07	-5.014754e-06	-8.790182e-09	-3.454981e+01	-5.761176e+02
4.100000e-07	-4.923430e-06	-8.703724e-09	-3.392062e+01	-5.715264e+02
4.200000e-07	-4.830445e-06	-8.632726e-09	-3.327999e+01	-5.667621e+02
4.300000e-07	-4.735895e-06	-8.579192e-09	-3.262858e+01	-5.618207e+02
4.400000e-07	-4.639631e-06	-8.504661e-09	-3.196535e+01	-5.567011e+02
4.500000e-07	-4.541587e-06	-8.414696e-09	-3.128987e+01	-5.514044e+02
4.600000e-07	-4.441913e-06	-8.321450e-09	-3.060315e+01	-5.459338e+02
4.700000e-07	-4.340701e-06	-8.237790e-09	-2.990584e+01	-5.402936e+02
4.800000e-07	-4.238095e-06	-8.154371e-09	-2.919892e+01	-5.344889e+02
4.900000e-07	-4.133964e-06	-8.073526e-09	-2.848150e+01	-5.285243e+02
5.000000e-07	-4.028139e-06	-7.976463e-09	-2.775240e+01	-5.224028e+02
5.100000e-07	-3.920794e-06	-7.866168e-09	-2.701283e+01	-5.161249e+02
5.200000e-07	-3.812091e-06	-7.767131e-09	-2.626391e+01	-5.096881e+02
5.300000e-07	-3.702141e-06	-7.680669e-09	-2.550639e+01	-5.030866e+02
5.400000e-07	-3.590878e-06	-7.583630e-09	-2.473983e+01	-4.963110e+02
5.500000e-07	-3.478155e-06	-7.464554e-09	-2.396321e+01	-4.893495e+02
5.600000e-07	-3.363933e-06	-7.346103e-09	-2.317626e+01	-4.821883e+02
5.700000e-07	-3.248246e-06	-7.232389e-09	-2.237923e+01	-4.748127e+02
5.800000e-07	-3.131252e-06	-7.121389e-09	-2.157317e+01	-4.672089e+02
5.900000e-07	-3.013161e-06	-7.011364e-09	-2.075958e+01	-4.593649e+02
6.000000e-07	-2.894004e-06	-6.895530e-09	-1.993863e+01	-4.512714e+02
6.100000e-07	-2.773761e-06	-6.760912e-09	-1.911019e+01	-4.429226e+02
6.200000e-07	-2.652452e-06	-6.619826e-09	-1.827442e+01	-4.343160e+02
6.300000e-07	-2.530038e-06	-6.487148e-09	-1.743104e+01	-4.254521e+02
6.400000e-07	-2.406590e-06	-6.355770e-09	-1.658052e+01	-4.163333e+02
6.500000e-07	-2.282339e-06	-6.214752e-09	-1.572448e+01	-4.069626e+02
6.600000e-07	-2.157372e-06	-6.062920e-09	-1.486350e+01	-3.973418e+02
6.700000e-07	-2.031683e-06	-5.908691e-09	-1.399755e+01	-3.874705e+02
6.800000e-07	-1.905381e-06	-5.751549e-09	-1.312738e+01	-3.773445e+02
6.900000e-07	-1.778527e-06	-5.593028e-09	-1.225340e+01	-3.669554e+02
7.000000e-07	-1.650999e-06	-5.433223e-09	-1.137478e+01	-3.562902e+02
7.100000e-07	-1.522735e-06	-5.265600e-09	-1.049109e+01	-3.453324e+02
7.200000e-07	-1.393922e-06	-5.088703e-09	-9.603610e+00	-3.340626e+02
7.300000e-07	-1.264634e-06	-4.910584e-09	-8.712862e+00	-3.224607e+02
7.400000e-07	-1.134885e-06	-4.732242e-09	-7.818939e+00	-3.105075e+02
7.500000e-07	-1.004794e-06	-4.546499e-09	-6.922659e+00	-2.981862e+02
7.600000e-07	-8.743606e-07	-4.352637e-09	-6.024023e+00	-2.854838e+02
7.700000e-07	-7.435656e-07	-4.149665e-09	-5.122894e+00	-2.723920e+02
7.800000e-07	-6.125076e-07	-3.941166e-09	-4.219953e+00	-2.589063e+02
7.900000e-07	-4.812995e-07	-3.731885e-09	-3.315977e+00	-2.450252e+02
8.000000e-07	-3.499392e-07	-3.519031e-09	-2.410953e+00	-2.307480e+02
8.100000e-07	-2.183978e-07	-3.297375e-09	-1.504680e+00	-2.160724e+02
8.200000e-07	-8.674322e-08	-3.064538e-09	-5.976290e-01	-2.009914e+02
8.300000e-07	4.497014e-08	-2.825588e-09	3.098278e-01	-1.854911e+02
8.400000e-07	1.766991e-07	-2.583048e-09	1.217392e+00	-1.695485e+02
8.500000e-07	3.084037e-07	-2.335425e-09	2.124788e+00	-1.531311e+02
8.600000e-07	4.399984e-07	-2.079113e-09	3.031428e+00	-1.361973e+02
8.700000e-07	5.714377e-07	-1.811692e-09	3.936996e+00	-1.186992e+02
8.800000e-07	7.027283e-07	-1.532266e-09	4.841540e+00	-1.005860e+02
8.900000e-07	8.338117e-07	-1.242744e-09	5.744656e+00	-8.180963e+01
9.000000e-07	9.646094e-07	-9.474966e-10	6.645805e+00	-6.233083e+01
9.100000e-07	1.095093e-06	-6.436256e-10	7.544791e+00	-4.212549e+01
9.200000e-07	1.225175e-06	-3.258972e-10	8.441007e+00	-2.119080e+01
9.300000e-07	1.354748e-06	5.599196e-12	9.333718e+00	4.497859e-01
9.400000e-07	1.483790e-06	3.472593e-10	1.022277e+01	2.274321e+01
9.500000e-07	1.612251e-06	6.967172e-10	1.110782e+01	4.560572e+01
9.600000e-07	1.740115e-06	1.054642e-09	1.198875e+01	6.892414e+01
9.700000e-07	1.867305e-06	1.417823e-09	1.286504e+01	9.255959e+01
9.800000e-07	1.993794e-06	1.782389e-09	1.373651e+01	1.163534e+02
9.900000e-07	2.119654e-06	2.147271e-09	1.460364e+01	1.401349e+02
1.000000e-06	2.244842e-06	2.508436e-09	1.546614e+01	1.637299e+02
1.010000e-06	2.369250e-06	2.863595e-09	1.632326e+01	1.869698e+02
1.020000e-06	2.492870e-06	3.211564e-09	1.717496e+01	2.097001e+02
1.030000e-06	2.615599e-06	3.549510e-09	1.802052e+01	2.317874e+02
1.040000e-06	2.737214e-06	3.875125e-09	1.885840e+01	2.531251e+02
1.050000e-06	2.857738e-06	4.187303e-09	1.968877e+01	2.736361e+02
1.060000e-06	2.977197e-06	4.485144e-09	2.051180e+01	2.932739e+02
1.070000e-06	3.095582e-06	4.768127e-09	2.132742e+01	3.120207e+02
1.080000e-06	3.212947e-06	5.037783e-09	2.213603e+01	3.298840e+02
1.090000e-06	3.329120e-06	5.296550e-09	2.293641e+01	3.468919e+02
1.100000e-06	3.443908e-06	5.544156e-09	2.372726e+01	3.630868e+02
1.110000e-06	3.557263e-06	5.779848e-09	2.450824e+01	3.785196e+02
1.120000e-06	3.669251e-06	6.003935e-09	2.527979e+01	3.932442e+02
1.130000e-06	3.779928e-06	6.219351e-09	2.604232e+01	4.073126e+02
1.140000e-06	3.889366e-06	6.426321e-09	2.679630e+01	4.207718e+02
1.150000e-06	3.997591e-06	6.622710e-09	2.754193e+01	4.336612e+02
1.160000e-06	4.104490e-06	6.809891e-09	2.827843e+01	4.460124e+02
1.170000e-06	4.209870e-06	6.987995e-09	2.900446e+01	4.578493e+02
1.180000e-06	4.313622e-06	7.157449e-09	2.971928e+01	4.691898e+02
1.190000e-06	4.415826e-06	7.320362e-09	3.042342e+01	4.800475e+02
1.200000e-06	4.516573e-06	7.477353e-09	3.111753e+01	4.904335e+02
1.210000e-06	4.615771e-06	7.629447e-09	3.180097e+01	5.003584e+02
1.220000e-06	4.713194e-06	7.775896e-09	3.247218e+01	5.098336e+02
1.230000e-06	4.808745e-06	7.915600e-09	3.313049e+01	5.188719e+02
1.240000e-06	4.902578e-06	8.049748e-09	3.377696e+01	5.274879e+02
1.250000e-06	4.994869e-06	8.178383e-09	3.441282e+01	5.356976e+02
1.260000e-06	5.085406e-06	8.299646e-09	3.503658e+01	5.435178e+02
1.270000e-06	5.173950e-06	8.413695e-09	3.564662e+01	5.509652e+02
1.280000e-06	5.260585e-06	8.520929e-09	3.624350e+01	5.580561e+02
1.290000e-06	5.345442e-06	8.623604e-09	3.682814e+01	5.648055e+02
1.300000e-06	5.428512e-06	8.723397e-09	3.740045e+01	5.712272e+02
1.310000e-06	5.509599e-06	8.817205e-09	3.795912e+01	5.773343e+02
1.320000e-06	5.588625e-06	8.904173e-09	3.850358e+01	5.831389e+02
1.330000e-06	5.665651e-06	8.986567e-09	3.903426e+01	5.886536e+02
1.340000e-06	5.740480e-06	9.065537e-09	3.954980e+01	5.938915e+02
1.350000e-06	5.813036e-06	9.139392e-09	4.004969e+01	5.988669e+02
1.360000e-06	5.883455e-06	9.209706e-09	4.053485e+01	6.035953e+02
1.370000e-06	5.951821e-06	9.277420e-09	4.100586e+01	6.080931e+02
1.380000e-06	6.018142e-06	9.342462e-09	4.146279e+01	6.123771e+02
1.390000e-06	6.082266e-06	9.406857e-09	4.190458e+01	6.164634e+02
1.400000e-06	6.144250e-06	9.469898e-09	4.233163e+01	6.203663e+02
1.410000e-06	6.204155e-06	9.531437e-09	4.274435e+01	6.240973e+02
1.420000e-06	6.261909e-06	9.588394e-09	4.314226e+01	6.276637e+02
1.430000e-06	6.317471e-06	9.639472e-09	4.352506e+01	6.310688e+02
1.440000e-06	6.370666e-06	9.688000e-09	4.389155e+01	6.343111e+02
1.450000e-06	6.421246e-06	9.734588e-09	4.424003e+01	6.373856e+02
1.460000e-06	6.469239e-06	9.778805e-09	4.457068e+01	6.402842e+02
1.470000e-06	6.514928e-06	9.819745e-09	4.488546e+01	6.429976e+02
1.480000e-06	6.558439e-06	9.856913e-09	4.518524e+01	6.455166e+02
1.490000e-06	6.599618e-06	9.889753e-09	4.546895e+01	6.478345e+02
1.500000e-06	6.638369e-06	9.920185e-09	4.573592e+01	6.499477e+02
1.510000e-06	6.674899e-06	9.949316e-09	4.598761e+01	6.518574e+02
1.520000e-06	6.709118e-06	9.977140e-09	4.622336e+01	6.535695e+02
1.530000e-06	6.740863e-06	1.000158e-08	4.644207e+01	6.550947e+02
1.540000e-06	6.770334e-06	1.002212e-08	4.664511e+01	6.564474e+02
1.550000e-06	6.797495e-06	1.004059e-08	4.683225e+01	6.576442e+02
1.560000e-06	6.822097e-06	1.005506e-08	4.700174e+01	6.587021e+02
1.570000e-06	6.844191e-06	1.006670e-08	4.715396e+01	6.596368e+02
1.580000e-06	6.863938e-06	1.007606e-08	4.729002e+01	6.604610e+02
1.590000e-06	6.881234e-06	1.008596e-08	4.740918e+01	6.611829e+02
1.600000e-06	6.895940e-06	1.009784e-08	4.751050e+01	6.618060e+02
1.610000e-06	6.908074e-06	1.010724e-08	4.759409e+01	6.623287e+02
1.620000e-06	6.917535e-06	1.011419e-08	4.765928e+01	6.627451e+02
1.630000e-06	6.924382e-06	1.011878e-08	4.770645e+01	6.630466e+02
1.640000e-06	6.928841e-06	1.012177e-08	4.773717e+01	6.632235e+02
1.650000e-06	6.930812e-06	1.012581e-08	4.775075e+01	6.632667e+02
1.660000e-06	6.930280e-06	1.012500e-08	4.774709e+01	6.631701e+02
1.670000e-06	6.927488e-06	1.011479e-08	4.772785e+01	6.629312e+02
1.680000e-06	6.922486e-06	1.010669e-08	4.769339e+01	6.625528e+02
1.690000e-06	6.915132e-06	1.010073e-08	4.764272e+01	6.620431e+02
1.700000e-06	6.905516e-06	1.009227e-08	4.757647e+01	6.614148e+02
1.710000e-06	6.893680e-06	1.008223e-08	4.749493e+01	6.606843e+02
1.720000e-06	6.879414e-06	1.008119e-08	4.739663e+01	6.598702e+02
1.730000e-06	6.862888e-06	1.008063e-08	4.728278e+01	6.589909e+02
1.740000e-06	6.844268e-06	1.000512e-08	4.715449e+01	6.580631e+02
1.750000e-06	6.822942e-06	9.957681e-09	4.700757e+01	6.570998e+02
1.760000e-06	6.798300e-06	9.990420e-09	4.683780e+01	6.561086e+02
1.770000e-06	6.770684e-06	9.972881e-09	4.664753e+01	6.550913e+02
1.780000e-06	6.740723e-06	9.978210e-09	4.644111e+01	6.540436e+02
1.790000e-06	6.708915e-06	1.004671e-08	4.622196e+01	6.529554e+02
1.800000e-06	6.675667e-06	9.922666e-09	4.599290e+01	6.518119e+02
1.810000e-06	6.640560e-06	9.882570e-09	4.575102e+01	6.505952e+02
1.820000e-06	6.602861e-06	9.944656e-09	4.549129e+01	6.492858e+02
1.830000e-06	6.562862e-06	9.838769e-09	4.521571e+01	6.478644e+02
1.840000e-06	6.520739e-06	9.908932e-09	4.492550e+01	6.463136e+02
1.850000e-06	6.476358e-06	9.875198e-09	4.461973e+01	6.446190e+02
1.860000e-06	6.429675e-06	9.772751e-09	4.429810e+01	6.427704e+02
1.870000e-06	6.380516e-06	9.789019e-09	4.395941e+01	6.407617e+02
1.880000e-06	6.329053e-06	9.659342e-09	4.360485e+01	6.385915e+02
1.890000e-06	6.275050e-06	9.691265e-09	4.323279e+01	6.362620e+02
1.900000e-06	6.218397e-06	9.682154e-09	4.284247e+01	6.337790e+02
1.910000e-06	6.159485e-06	9.600946e-09	4.243659e+01	6.311502e+02
1.920000e-06	6.098268e-06	9.620521e-09	4.201483e+01	6.283847e+02
1.930000e-06	6.034698e-06	9.487732e-09	4.157685e+01	6.254919e+02
1.940000e-06	5.968960e-06	9.469757e-09	4.112394e+01	6.224803e+02
1.950000e-06	5.901093e-06	9.455116e-09	4.065637e+01	6.193572e+02
1.960000e-06	5.830940e-06	9.403331e-09	4.017303e+01	6.161277e+02
1.970000e-06	5.758411e-06	9.349735e-09	3.967334e+01	6.127946e+02
1.980000e-06	5.683686e-06	9.235321e-09	3.915851e+01	6.093583e+02
1.990000e-06	5.606690e-06	9.237539e-09	3.862804e+01	6.058165e+02
2.000000e-06	5.527471e-06	9.183113e-09	3.808225e+01	6.021646e+02
2.010000e-06	5.446338e-06	9.139439e-09	3.752327e+01	5.983958e+02
2.020000e-06	5.363442e-06	9.075474e-09	3.695215e+01	5.945020e+02
2.030000e-06	5.278697e-06	8.980519e-09	3.636828e+01	5.904737e+02
2.040000e-06	5.191798e-06	8.920655e-09	3.576958e+01	5.863011e+02
2.050000e-06	5.102976e-06	8.847990e-09	3.515763e+01	5.819745e+02
2.060000e-06	5.012612e-06	8.828221e-09	3.453506e+01	5.774853e+02
2.070000e-06	4.920691e-06	8.742284e-09	3.390175e+01	5.728263e+02
2.080000e-06	4.827002e-06	8.644474e-09	3.325627e+01	5.679922e+02
2.090000e-06	4.731436e-06	8.551512e-09	3.259786e+01	5.629804e+02
2.100000e-06	4.634221e-06	8.474934e-09	3.192808e+01	5.577906e+02
2.110000e-06	4.535539e-06	8.418645e-09	3.124820e+01	5.524246e+02
2.120000e-06	4.435322e-06	8.339617e-09	3.055774e+01	5.468863e+02
2.130000e-06	4.333437e-06	8.256573e-09	2.985579e+01	5.411804e+02
2.140000e-06	4.229850e-06	8.150160e-09	2.914211e+01	5.353120e+02
2.150000e-06	4.124685e-06	8.059502e-09	2.841756e+01	5.292850e+02
2.160000e-06	4.018159e-06	7.969942e-09	2.768364e+01	5.231017e+02
2.170000e-06	3.910295e-06	7.885981e-09	2.694050e+01	5.167614e+02
2.180000e-06	3.801056e-06	7.781273e-09	2.618788e+01	5.102604e+02
2.190000e-06	3.690428e-06	7.664962e-09	2.542569e+01	5.035913e+02
2.200000e-06	3.578356e-06	7.552954e-09	2.465356e+01	4.967438e+02
2.210000e-06	3.464914e-06	7.454203e-09	2.387198e+01	4.897051e+02
2.220000e-06	3.350128e-06	7.363618e-09	2.308115e+01	4.824609e+02
2.230000e-06	3.233923e-06	7.246798e-09	2.228054e+01	4.749968e+02
2.240000e-06	3.116284e-06	7.111413e-09	2.147005e+01	4.672995e+02
2.250000e-06	2.997379e-06	6.976736e-09	2.065084e+01	4.593579e+02
2.260000e-06	2.877332e-06	6.861154e-09	1.982376e+01	4.511642e+02
2.270000e-06	2.756220e-06	6.746605e-09	1.898934e+01	4.427137e+02
2.280000e-06	2.634202e-06	6.622255e-09	1.814869e+01	4.340054e+02
2.290000e-06	2.511369e-06	6.479973e-09	1.730241e+01	4.250406e+02
2.300000e-06	2.387640e-06	6.329252e-09	1.644997e+01	4.158220e+02
2.310000e-06	2.262996e-06	6.178810e-09	1.559121e+01	4.063525e+02
2.320000e-06	2.137518e-06	6.039780e-09	1.472671e+01	3.966330e+02
2.330000e-06	2.011257e-06	5.902596e-09	1.385682e+01	3.866620e+02
2.340000e-06	1.884288e-06	5.745457e-09	1.298205e+01	3.764334e+02
2.350000e-06	1.756624e-06	5.574756e-09	1.210250e+01	3.659371e+02
2.360000e-06	1.628364e-06	5.405738e-09	1.121883e+01	3.551587e+02
2.370000e-06	1.499602e-06	5.243329e-09	1.033171e+01	3.440802e+02
2.380000e-06	1.370431e-06	5.075506e-09	9.441767e+00	3.326820e+02
2.390000e-06	1.240846e-06	4.895823e-09	8.548972e+00	3.209438e+02
2.400000e-06	1.110797e-06	4.705050e-09	7.652986e+00	3.088473e+02
2.410000e-06	9.803919e-07	4.508644e-09	6.754540e+00	2.963771e+02
2.420000e-06	8.497631e-07	4.314181e-09	5.854556e+00	2.835221e+02
2.430000e-06	7.189780e-07	4.121564e-09	4.953494e+00	2.702754e+02
2.440000e-06	5.879837e-07	3.920481e-09	4.050992e+00	2.566340e+02
2.450000e-06	4.568055e-07	3.701890e-09	3.147222e+00	2.425969e+02
2.460000e-06	3.255056e-07	3.472224e-09	2.242614e+00	2.281632e+02
2.470000e-06	1.940646e-07	3.242606e-09	1.337034e+00	2.133291e+02
2.480000e-06	6.253339e-08	3.014772e-09	4.308321e-01	1.980850e+02
2.490000e-06	-6.903242e-08	2.784166e-09	-4.756081e-01	1.824138e+02
2.500000e-06	-2.005957e-07	2.539226e-09	-1.382031e+00	1.662886e+02
2.510000e-06	-3.321260e-07	2.277744e-09	-2.288226e+00	1.496733e+02
2.520000e-06	-4.635994e-07	2.006980e-09	-3.194029e+00	1.325233e+02
2.530000e-06	-5.949248e-07	1.733756e-09	-4.098813e+00	1.147891e+02
2.540000e-06	-7.260194e-07	1.459305e-09	-5.002007e+00	9.642033e+01
2.550000e-06	-8.568874e-07	1.173786e-09	-5.903640e+00	7.737155e+01
2.560000e-06	-9.875177e-07	8.726748e-10	-6.803634e+00	5.760869e+01
2.570000e-06	-1.117855e-06	5.603264e-10	-7.701611e+00	3.711534e+01
2.580000e-06	-1.247830e-06	2.398877e-10	-8.597089e+00	1.589850e+01
2.590000e-06	-1.377415e-06	-8.929088e-11	-9.489886e+00	-6.007041e+00
2.600000e-06	-1.506475e-06	-4.294333e-10	-1.037906e+01	-2.853616e+01
2.610000e-06	-1.634935e-06	-7.830771e-10	-1.126410e+01	-5.159326e+01
2.620000e-06	-1.762826e-06	-1.145596e-09	-1.214522e+01	-7.505449e+01
2.630000e-06	-1.890104e-06	-1.508040e-09	-1.302212e+01	-9.877240e+01
2.640000e-06	-2.016726e-06	-1.866434e-09	-1.389450e+01	-1.225826e+02
2.650000e-06	-2.142564e-06	-2.222613e-09	-1.476148e+01	-1.463119e+02
2.660000e-06	-2.267519e-06	-2.582899e-09	-1.562237e+01	-1.697874e+02
2.670000e-06	-2.391495e-06	-2.943239e-09	-1.647652e+01	-1.928449e+02
2.680000e-06	-2.514482e-06	-3.291788e-09	-1.732386e+01	-2.153376e+02
2.690000e-06	-2.636536e-06	-3.623482e-09	-1.816477e+01	-2.371420e+02
2.700000e-06	-2.757638e-06	-3.937008e-09	-1.899911e+01	-2.581629e+02
2.710000e-06	-2.877766e-06	-4.236997e-09	-1.982675e+01	-2.783352e+02
2.720000e-06	-2.996833e-06	-4.529366e-09	-2.064708e+01	-2.976240e+02
2.730000e-06	-3.114694e-06	-4.812118e-09	-2.145910e+01	-3.160220e+02
2.740000e-06	-3.231329e-06	-5.079572e-09	-2.226267e+01	-3.335455e+02
2.750000e-06	-3.346667e-06	-5.333466e-09	-2.305730e+01	-3.502287e+02
2.760000e-06	-3.460640e-06	-5.578465e-09	-2.384254e+01	-3.661183e+02
2.770000e-06	-3.573234e-06	-5.814636e-09	-2.461827e+01	-3.812669e+02
2.780000e-06	-3.684414e-06	-6.040563e-09	-2.538426e+01	-3.957283e+02
2.790000e-06	-3.794247e-06	-6.255042e-09	-2.614097e+01	-4.095526e+02
2.800000e-06	-3.902830e-06	-6.457166e-09	-2.688907e+01	-4.227841e+02
2.810000e-06	-4.010151e-06	-6.648848e-09	-2.762847e+01	-4.354592e+02
2.820000e-06	-4.116134e-06	-6.833682e-09	-2.835865e+01	-4.476063e+02
2.830000e-06	-4.220703e-06	-7.012115e-09	-2.907910e+01	-4.592468e+02
2.840000e-06	-4.323669e-06	-7.182028e-09	-2.978849e+01	-4.703967e+02
2.850000e-06	-4.424974e-06	-7.341107e-09	-3.048644e+01	-4.810682e+02
2.860000e-06	-4.524690e-06	-7.494139e-09	-3.117345e+01	-4.912723e+02
2.870000e-06	-4.622876e-06	-7.643306e-09	-3.184992e+01	-5.010195e+02
2.880000e-06	-4.719542e-06	-7.786449e-09	-3.251592e+01	-5.103219e+02
2.890000e-06	-4.814457e-06	-7.921113e-09	-3.316984e+01	-5.191929e+02
2.900000e-06	-4.907554e-06	-8.046396e-09	-3.381124e+01	-5.276478e+02
2.910000e-06	-4.998933e-06	-8.166635e-09	-3.444081e+01	-5.357029e+02
2.920000e-06	-5.088607e-06	-8.282869e-09	-3.505863e+01	-5.433751e+02
2.930000e-06	-5.176398e-06	-8.395970e-09	-3.566348e+01	-5.506811e+02
2.940000e-06	-5.262162e-06	-8.503613e-09	-3.625436e+01	-5.576365e+02
