# Temperatura_=_50.55
# Concentracion g/m^3_=_15000.0
# C_Vs_to_Am_M_A/Vsm_=_65563218390.804596
# pendiente_HvsI_1/m_=_3716.3
# ordenada_HvsI_A/m_=_1297.0
# frecuencia_Hz_=_301977.09037386545

Tiempo_(s)	Campo_(V.s)	Magnetizacion_(V.s)	Campo_(kA/m)	Magnetizacion_(A/m)
0.000000e+00	-6.890941e-06	-1.033787e-08	-4.746409e+01	-6.777681e+02
1.000000e-08	-6.887164e-06	-1.033570e-08	-4.743807e+01	-6.774474e+02
2.000000e-08	-6.881156e-06	-1.033092e-08	-4.739669e+01	-6.769926e+02
3.000000e-08	-6.872879e-06	-1.032571e-08	-4.733968e+01	-6.764150e+02
4.000000e-08	-6.862214e-06	-1.031616e-08	-4.726622e+01	-6.757290e+02
5.000000e-08	-6.849038e-06	-1.030324e-08	-4.717546e+01	-6.749516e+02
6.000000e-08	-6.833368e-06	-1.028349e-08	-4.706753e+01	-6.741000e+02
7.000000e-08	-6.815451e-06	-1.026663e-08	-4.694412e+01	-6.731894e+02
8.000000e-08	-6.795393e-06	-1.029638e-08	-4.680596e+01	-6.722319e+02
9.000000e-08	-6.772784e-06	-1.029630e-08	-4.665023e+01	-6.712346e+02
1.000000e-07	-6.747303e-06	-1.024512e-08	-4.647472e+01	-6.701989e+02
1.100000e-07	-6.719180e-06	-1.021620e-08	-4.628101e+01	-6.691206e+02
1.200000e-07	-6.688844e-06	-1.019497e-08	-4.607206e+01	-6.679898e+02
1.300000e-07	-6.656482e-06	-1.011245e-08	-4.584916e+01	-6.667928e+02
1.400000e-07	-6.622188e-06	-1.010039e-08	-4.561294e+01	-6.655129e+02
1.500000e-07	-6.585952e-06	-1.017531e-08	-4.536335e+01	-6.641322e+02
1.600000e-07	-6.547650e-06	-1.007310e-08	-4.509953e+01	-6.626337e+02
1.700000e-07	-6.507174e-06	-1.006671e-08	-4.482074e+01	-6.610021e+02
1.800000e-07	-6.464223e-06	-1.006800e-08	-4.452489e+01	-6.592254e+02
1.900000e-07	-6.418810e-06	-9.978643e-09	-4.421209e+01	-6.572954e+02
2.000000e-07	-6.371018e-06	-9.998549e-09	-4.388291e+01	-6.552079e+02
2.100000e-07	-6.320621e-06	-9.975406e-09	-4.353578e+01	-6.529622e+02
2.200000e-07	-6.267660e-06	-9.958381e-09	-4.317099e+01	-6.505608e+02
2.300000e-07	-6.212244e-06	-9.888783e-09	-4.278929e+01	-6.480085e+02
2.400000e-07	-6.154371e-06	-9.787557e-09	-4.239066e+01	-6.453113e+02
2.500000e-07	-6.094247e-06	-9.776362e-09	-4.197654e+01	-6.424757e+02
2.600000e-07	-6.031981e-06	-9.753215e-09	-4.154766e+01	-6.395079e+02
2.700000e-07	-5.967467e-06	-9.704214e-09	-4.110329e+01	-6.364130e+02
2.800000e-07	-5.900674e-06	-9.647160e-09	-4.064323e+01	-6.331949e+02
2.900000e-07	-5.831642e-06	-9.590413e-09	-4.016774e+01	-6.298559e+02
3.000000e-07	-5.760465e-06	-9.526720e-09	-3.967749e+01	-6.263971e+02
3.100000e-07	-5.687160e-06	-9.479691e-09	-3.917257e+01	-6.228178e+02
3.200000e-07	-5.611553e-06	-9.478078e-09	-3.865180e+01	-6.191161e+02
3.300000e-07	-5.533619e-06	-9.404196e-09	-3.811499e+01	-6.152890e+02
3.400000e-07	-5.453485e-06	-9.310842e-09	-3.756304e+01	-6.113323e+02
3.500000e-07	-5.371309e-06	-9.245524e-09	-3.699702e+01	-6.072410e+02
3.600000e-07	-5.287320e-06	-9.197827e-09	-3.641851e+01	-6.030094e+02
3.700000e-07	-5.201664e-06	-9.156689e-09	-3.582852e+01	-5.986311e+02
3.800000e-07	-5.114255e-06	-9.080524e-09	-3.522646e+01	-5.940997e+02
3.900000e-07	-5.024967e-06	-8.998449e-09	-3.461145e+01	-5.894085e+02
4.000000e-07	-4.933859e-06	-8.905549e-09	-3.398391e+01	-5.845518e+02
4.100000e-07	-4.841085e-06	-8.832159e-09	-3.334489e+01	-5.795245e+02
4.200000e-07	-4.746698e-06	-8.774770e-09	-3.269476e+01	-5.743232e+02
4.300000e-07	-4.650584e-06	-8.699172e-09	-3.203274e+01	-5.689461e+02
4.400000e-07	-4.552719e-06	-8.599931e-09	-3.135865e+01	-5.633932e+02
4.500000e-07	-4.453175e-06	-8.498318e-09	-3.067301e+01	-5.576661e+02
4.600000e-07	-4.352113e-06	-8.414941e-09	-2.997690e+01	-5.517680e+02
4.700000e-07	-4.249597e-06	-8.334212e-09	-2.927078e+01	-5.457026e+02
4.800000e-07	-4.145562e-06	-8.253740e-09	-2.855420e+01	-5.394734e+02
4.900000e-07	-4.040045e-06	-8.149963e-09	-2.782741e+01	-5.330827e+02
5.000000e-07	-3.933028e-06	-8.027839e-09	-2.709029e+01	-5.265310e+02
5.100000e-07	-3.824550e-06	-7.918384e-09	-2.634310e+01	-5.198159e+02
5.200000e-07	-3.714712e-06	-7.831558e-09	-2.558655e+01	-5.129317e+02
5.300000e-07	-3.603556e-06	-7.738252e-09	-2.482092e+01	-5.058696e+02
5.400000e-07	-3.491004e-06	-7.617631e-09	-2.404567e+01	-4.986182e+02
5.500000e-07	-3.376967e-06	-7.490748e-09	-2.326020e+01	-4.911638e+02
5.600000e-07	-3.261425e-06	-7.368196e-09	-2.246436e+01	-4.834920e+02
5.700000e-07	-3.144529e-06	-7.251366e-09	-2.165919e+01	-4.755891e+02
5.800000e-07	-3.026465e-06	-7.138396e-09	-2.084598e+01	-4.674429e+02
5.900000e-07	-2.907301e-06	-7.021161e-09	-2.002519e+01	-4.590442e+02
6.000000e-07	-2.787129e-06	-6.883153e-09	-1.919745e+01	-4.503873e+02
6.100000e-07	-2.665919e-06	-6.735244e-09	-1.836257e+01	-4.414703e+02
6.200000e-07	-2.543690e-06	-6.595252e-09	-1.752068e+01	-4.322942e+02
6.300000e-07	-2.420430e-06	-6.458876e-09	-1.667167e+01	-4.228625e+02
6.400000e-07	-2.296189e-06	-6.310485e-09	-1.581591e+01	-4.131791e+02
6.500000e-07	-2.171208e-06	-6.148922e-09	-1.495505e+01	-4.032472e+02
6.600000e-07	-2.045609e-06	-5.988237e-09	-1.408994e+01	-3.930675e+02
6.700000e-07	-1.919372e-06	-5.828690e-09	-1.322043e+01	-3.826367e+02
6.800000e-07	-1.792453e-06	-5.666715e-09	-1.234623e+01	-3.719466e+02
6.900000e-07	-1.664865e-06	-5.501218e-09	-1.146742e+01	-3.609845e+02
7.000000e-07	-1.536668e-06	-5.328340e-09	-1.058441e+01	-3.497331e+02
7.100000e-07	-1.407925e-06	-5.146897e-09	-9.697638e+00	-3.381720e+02
7.200000e-07	-1.278690e-06	-4.964966e-09	-8.807481e+00	-3.262796e+02
7.300000e-07	-1.149050e-06	-4.783435e-09	-7.914540e+00	-3.140348e+02
7.400000e-07	-1.019053e-06	-4.595061e-09	-7.019131e+00	-3.014189e+02
7.500000e-07	-8.887212e-07	-4.396694e-09	-6.121419e+00	-2.884174e+02
7.600000e-07	-7.580928e-07	-4.186630e-09	-5.221664e+00	-2.750201e+02
7.700000e-07	-6.271775e-07	-3.971500e-09	-4.319933e+00	-2.612212e+02
7.800000e-07	-4.960375e-07	-3.756277e-09	-3.416655e+00	-2.470178e+02
7.900000e-07	-3.647047e-07	-3.538289e-09	-2.512048e+00	-2.324083e+02
8.000000e-07	-2.331769e-07	-3.311381e-09	-1.606098e+00	-2.173889e+02
8.100000e-07	-1.015621e-07	-3.073884e-09	-6.995490e-01	-2.019513e+02
8.200000e-07	3.009847e-08	-2.831048e-09	2.073151e-01	-1.860795e+02
8.300000e-07	1.617865e-07	-2.584061e-09	1.114368e+00	-1.697480e+02
8.400000e-07	2.934054e-07	-2.329670e-09	2.020946e+00	-1.529212e+02
8.500000e-07	4.249903e-07	-2.066055e-09	2.927289e+00	-1.355541e+02
8.600000e-07	5.565158e-07	-1.791822e-09	3.833223e+00	-1.175948e+02
8.700000e-07	6.878330e-07	-1.504242e-09	4.737722e+00	-9.898936e+01
8.800000e-07	8.189122e-07	-1.205602e-09	5.640582e+00	-7.968696e+01
8.900000e-07	9.497368e-07	-9.002186e-10	6.541688e+00	-5.964693e+01
9.000000e-07	1.080211e-06	-5.863153e-10	7.440383e+00	-3.884556e+01
9.100000e-07	1.210289e-06	-2.596793e-10	8.336346e+00	-1.728262e+01
9.200000e-07	1.340006e-06	7.933099e-11	9.229820e+00	5.013425e+00
9.300000e-07	1.469270e-06	4.284615e-10	1.012018e+01	2.798215e+01
9.400000e-07	1.597925e-06	7.873709e-10	1.100634e+01	5.153028e+01
9.500000e-07	1.725893e-06	1.155544e-09	1.188777e+01	7.553347e+01
9.600000e-07	1.853169e-06	1.531068e-09	1.276443e+01	9.984079e+01
9.700000e-07	1.979831e-06	1.909098e-09	1.363687e+01	1.242815e+02
9.800000e-07	2.105831e-06	2.286906e-09	1.450475e+01	1.486736e+02
9.900000e-07	2.231107e-06	2.659542e-09	1.536763e+01	1.728335e+02
1.000000e-06	2.355620e-06	3.021290e-09	1.622527e+01	1.965857e+02
1.010000e-06	2.479262e-06	3.371005e-09	1.707690e+01	2.197718e+02
1.020000e-06	2.602025e-06	3.710132e-09	1.792248e+01	2.422578e+02
1.030000e-06	2.723876e-06	4.038982e-09	1.876178e+01	2.639396e+02
1.040000e-06	2.844653e-06	4.356225e-09	1.959367e+01	2.847454e+02
1.050000e-06	2.964241e-06	4.659991e-09	2.041738e+01	3.046361e+02
1.060000e-06	3.082736e-06	4.949369e-09	2.123357e+01	3.236028e+02
1.070000e-06	3.200250e-06	5.223781e-09	2.204299e+01	3.416622e+02
1.080000e-06	3.316622e-06	5.484178e-09	2.284454e+01	3.588509e+02
1.090000e-06	3.431628e-06	5.732793e-09	2.363670e+01	3.752187e+02
1.100000e-06	3.545204e-06	5.970525e-09	2.441900e+01	3.908222e+02
1.110000e-06	3.657336e-06	6.195743e-09	2.519135e+01	4.057187e+02
1.120000e-06	3.768173e-06	6.411522e-09	2.595478e+01	4.199618e+02
1.130000e-06	3.877821e-06	6.620498e-09	2.671003e+01	4.335978e+02
1.140000e-06	3.986222e-06	6.820331e-09	2.745668e+01	4.466646e+02
1.150000e-06	4.093290e-06	7.011039e-09	2.819416e+01	4.591912e+02
1.160000e-06	4.198869e-06	7.192272e-09	2.892137e+01	4.711992e+02
1.170000e-06	4.302866e-06	7.365004e-09	2.963769e+01	4.827045e+02
1.180000e-06	4.405309e-06	7.530771e-09	3.034331e+01	4.937196e+02
1.190000e-06	4.506300e-06	7.689884e-09	3.103893e+01	5.042561e+02
1.200000e-06	4.605761e-06	7.842172e-09	3.172400e+01	5.143262e+02
1.210000e-06	4.703409e-06	7.987917e-09	3.239659e+01	5.239438e+02
1.220000e-06	4.799153e-06	8.128263e-09	3.305607e+01	5.331253e+02
1.230000e-06	4.893171e-06	8.265117e-09	3.370365e+01	5.418887e+02
1.240000e-06	4.985680e-06	8.396936e-09	3.434085e+01	5.502533e+02
1.250000e-06	5.076507e-06	8.523042e-09	3.496645e+01	5.582381e+02
1.260000e-06	5.165353e-06	8.643093e-09	3.557841e+01	5.658607e+02
1.270000e-06	5.252252e-06	8.755219e-09	3.617697e+01	5.731370e+02
1.280000e-06	5.337355e-06	8.860541e-09	3.676314e+01	5.800797e+02
1.290000e-06	5.420716e-06	8.961692e-09	3.733733e+01	5.866993e+02
1.300000e-06	5.502067e-06	9.056539e-09	3.789767e+01	5.930044e+02
1.310000e-06	5.581324e-06	9.145582e-09	3.844358e+01	5.990023e+02
1.320000e-06	5.658597e-06	9.230234e-09	3.897582e+01	6.047008e+02
1.330000e-06	5.733755e-06	9.310978e-09	3.949351e+01	6.101090e+02
1.340000e-06	5.806635e-06	9.389137e-09	3.999550e+01	6.152383e+02
1.350000e-06	5.877322e-06	9.463815e-09	4.048239e+01	6.201027e+02
1.360000e-06	5.945975e-06	9.534812e-09	4.095526e+01	6.247188e+02
1.370000e-06	6.012533e-06	9.602341e-09	4.141370e+01	6.291052e+02
1.380000e-06	6.076904e-06	9.666465e-09	4.185709e+01	6.332807e+02
1.390000e-06	6.139144e-06	9.727494e-09	4.228579e+01	6.372636e+02
1.400000e-06	6.199354e-06	9.787193e-09	4.270051e+01	6.410694e+02
1.410000e-06	6.257422e-06	9.844719e-09	4.310047e+01	6.447095e+02
1.420000e-06	6.313248e-06	9.898249e-09	4.348500e+01	6.481905e+02
1.430000e-06	6.366754e-06	9.948689e-09	4.385354e+01	6.515136e+02
1.440000e-06	6.417627e-06	9.996521e-09	4.420395e+01	6.546750e+02
1.450000e-06	6.465844e-06	1.004190e-08	4.453606e+01	6.576666e+02
1.460000e-06	6.511783e-06	1.008334e-08	4.485248e+01	6.604783e+02
1.470000e-06	6.555595e-06	1.012153e-08	4.515426e+01	6.630990e+02
1.480000e-06	6.597078e-06	1.015624e-08	4.543999e+01	6.655192e+02
1.490000e-06	6.636119e-06	1.018797e-08	4.570890e+01	6.677328e+02
1.500000e-06	6.672927e-06	1.021823e-08	4.596243e+01	6.697382e+02
1.510000e-06	6.707431e-06	1.024596e-08	4.620009e+01	6.715389e+02
1.520000e-06	6.739437e-06	1.027045e-08	4.642054e+01	6.731439e+02
1.530000e-06	6.769103e-06	1.029146e-08	4.662488e+01	6.745662e+02
1.540000e-06	6.796513e-06	1.031076e-08	4.681367e+01	6.758219e+02
1.550000e-06	6.821395e-06	1.032795e-08	4.698506e+01	6.769282e+02
1.560000e-06	6.843673e-06	1.034212e-08	4.713851e+01	6.779013e+02
1.570000e-06	6.863632e-06	1.035362e-08	4.727599e+01	6.787547e+02
1.580000e-06	6.881199e-06	1.036378e-08	4.739698e+01	6.794978e+02
1.590000e-06	6.896226e-06	1.037414e-08	4.750049e+01	6.801351e+02
1.600000e-06	6.908705e-06	1.038304e-08	4.758644e+01	6.806662e+02
1.610000e-06	6.918446e-06	1.038928e-08	4.765354e+01	6.810864e+02
1.620000e-06	6.925549e-06	1.039287e-08	4.770246e+01	6.813882e+02
1.630000e-06	6.930266e-06	1.039537e-08	4.773495e+01	6.815630e+02
1.640000e-06	6.932560e-06	1.039755e-08	4.775075e+01	6.816027e+02
1.650000e-06	6.932384e-06	1.039511e-08	4.774954e+01	6.815021e+02
1.660000e-06	6.929910e-06	1.038631e-08	4.773250e+01	6.812598e+02
1.670000e-06	6.925178e-06	1.038038e-08	4.769990e+01	6.808793e+02
1.680000e-06	6.918070e-06	1.037453e-08	4.765095e+01	6.803691e+02
1.690000e-06	6.908684e-06	1.036709e-08	4.758630e+01	6.797418e+02
1.700000e-06	6.897049e-06	1.035822e-08	4.750616e+01	6.790133e+02
1.710000e-06	6.883050e-06	1.035297e-08	4.740973e+01	6.782008e+02
1.720000e-06	6.866780e-06	1.034711e-08	4.729767e+01	6.773209e+02
1.730000e-06	6.848381e-06	1.027880e-08	4.717094e+01	6.763877e+02
1.740000e-06	6.827392e-06	1.024640e-08	4.702636e+01	6.754114e+02
1.750000e-06	6.803117e-06	1.026438e-08	4.685916e+01	6.743965e+02
1.760000e-06	6.775807e-06	1.024141e-08	4.667105e+01	6.733422e+02
1.770000e-06	6.746142e-06	1.024252e-08	4.646672e+01	6.722416e+02
1.780000e-06	6.714518e-06	1.029982e-08	4.624890e+01	6.710831e+02
1.790000e-06	6.681414e-06	1.020118e-08	4.602089e+01	6.698514e+02
1.800000e-06	6.646591e-06	1.018219e-08	4.578103e+01	6.685293e+02
1.810000e-06	6.609215e-06	1.021268e-08	4.552359e+01	6.670988e+02
1.820000e-06	6.569460e-06	1.010491e-08	4.524976e+01	6.655437e+02
1.830000e-06	6.527607e-06	1.016715e-08	4.496148e+01	6.638500e+02
1.840000e-06	6.483512e-06	1.010926e-08	4.465775e+01	6.620071e+02
1.850000e-06	6.437098e-06	1.003170e-08	4.433806e+01	6.600087e+02
1.860000e-06	6.388182e-06	1.002832e-08	4.400113e+01	6.578519e+02
1.870000e-06	6.336897e-06	9.909372e-09	4.364789e+01	6.555378e+02
1.880000e-06	6.283178e-06	9.965633e-09	4.327787e+01	6.530698e+02
1.890000e-06	6.226840e-06	9.949596e-09	4.288983e+01	6.504534e+02
1.900000e-06	6.168196e-06	9.872904e-09	4.248589e+01	6.476948e+02
1.910000e-06	6.107219e-06	9.855632e-09	4.206589e+01	6.448006e+02
1.920000e-06	6.043882e-06	9.725549e-09	4.162963e+01	6.417765e+02
1.930000e-06	5.978400e-06	9.713855e-09	4.117860e+01	6.386272e+02
1.940000e-06	5.910795e-06	9.694964e-09	4.071294e+01	6.353558e+02
1.950000e-06	5.840906e-06	9.667774e-09	4.023155e+01	6.319642e+02
1.960000e-06	5.768627e-06	9.589697e-09	3.973370e+01	6.284527e+02
1.970000e-06	5.694158e-06	9.468919e-09	3.922077e+01	6.248200e+02
1.980000e-06	5.617425e-06	9.450850e-09	3.869224e+01	6.210637e+02
1.990000e-06	5.538450e-06	9.396387e-09	3.814827e+01	6.171804e+02
2.000000e-06	5.457501e-06	9.370092e-09	3.759070e+01	6.131654e+02
2.010000e-06	5.374663e-06	9.292845e-09	3.702012e+01	6.090135e+02
2.020000e-06	5.290012e-06	9.199385e-09	3.643705e+01	6.047186e+02
2.030000e-06	5.203401e-06	9.123218e-09	3.584049e+01	6.002742e+02
2.040000e-06	5.114861e-06	9.045294e-09	3.523063e+01	5.956738e+02
2.050000e-06	5.024688e-06	9.014432e-09	3.460953e+01	5.909111e+02
2.060000e-06	4.932878e-06	8.933629e-09	3.397715e+01	5.859806e+02
2.070000e-06	4.839238e-06	8.842410e-09	3.333217e+01	5.808778e+02
2.080000e-06	4.743778e-06	8.742574e-09	3.267465e+01	5.756000e+02
2.090000e-06	4.646696e-06	8.664126e-09	3.200596e+01	5.701462e+02
2.100000e-06	4.548101e-06	8.598545e-09	3.132684e+01	5.645171e+02
2.110000e-06	4.447963e-06	8.519169e-09	3.063711e+01	5.587151e+02
2.120000e-06	4.346185e-06	8.418052e-09	2.993607e+01	5.527436e+02
2.130000e-06	4.242712e-06	8.302328e-09	2.922336e+01	5.466063e+02
2.140000e-06	4.137661e-06	8.211343e-09	2.849978e+01	5.403064e+02
2.150000e-06	4.031271e-06	8.128959e-09	2.776697e+01	5.338456e+02
2.160000e-06	3.923545e-06	8.047515e-09	2.702497e+01	5.272231e+02
2.170000e-06	3.814397e-06	7.933873e-09	2.627317e+01	5.204351e+02
2.180000e-06	3.703878e-06	7.806578e-09	2.551193e+01	5.134747e+02
2.190000e-06	3.591917e-06	7.683120e-09	2.474075e+01	5.063318e+02
2.200000e-06	3.478552e-06	7.582141e-09	2.395990e+01	4.989939e+02
2.210000e-06	3.363828e-06	7.493951e-09	2.316970e+01	4.914468e+02
2.220000e-06	3.247683e-06	7.380115e-09	2.236970e+01	4.836763e+02
2.230000e-06	3.130193e-06	7.233653e-09	2.156044e+01	4.756692e+02
2.240000e-06	3.011478e-06	7.086545e-09	2.074275e+01	4.674145e+02
2.250000e-06	2.891508e-06	6.963027e-09	1.991640e+01	4.589044e+02
2.260000e-06	2.770424e-06	6.847621e-09	1.908239e+01	4.501348e+02
2.270000e-06	2.648483e-06	6.725049e-09	1.824248e+01	4.411052e+02
2.280000e-06	2.525686e-06	6.583570e-09	1.739666e+01	4.318178e+02
2.290000e-06	2.401917e-06	6.430621e-09	1.654415e+01	4.222765e+02
2.300000e-06	2.277254e-06	6.275165e-09	1.568549e+01	4.124851e+02
2.310000e-06	2.151885e-06	6.129898e-09	1.482196e+01	4.024459e+02
2.320000e-06	2.025765e-06	5.985916e-09	1.395326e+01	3.921580e+02
2.330000e-06	1.898921e-06	5.822325e-09	1.307957e+01	3.816161e+02
2.340000e-06	1.771340e-06	5.642741e-09	1.220081e+01	3.708101e+02
2.350000e-06	1.643063e-06	5.469221e-09	1.131725e+01	3.597250e+02
2.360000e-06	1.514295e-06	5.306944e-09	1.043031e+01	3.483422e+02
2.370000e-06	1.385104e-06	5.140225e-09	9.540452e+00	3.366406e+02
2.380000e-06	1.255524e-06	4.957616e-09	8.647920e+00	3.245983e+02
2.390000e-06	1.125566e-06	4.758714e-09	7.752778e+00	3.121953e+02
2.400000e-06	9.952991e-07	4.554753e-09	6.855516e+00	2.994145e+02
2.410000e-06	8.647699e-07	4.355783e-09	5.956445e+00	2.862431e+02
2.420000e-06	7.339902e-07	4.160365e-09	5.055648e+00	2.726729e+02
2.430000e-06	6.029981e-07	3.955756e-09	4.153388e+00	2.586996e+02
2.440000e-06	4.718159e-07	3.730254e-09	3.249819e+00	2.443212e+02
2.450000e-06	3.404527e-07	3.491315e-09	2.345003e+00	2.295354e+02
2.460000e-06	2.089163e-07	3.255370e-09	1.438994e+00	2.143370e+02
2.470000e-06	7.728408e-08	3.025124e-09	5.323247e-01	1.987145e+02
2.480000e-06	-5.440851e-08	2.791499e-09	-3.747602e-01	1.826482e+02
2.490000e-06	-1.861230e-07	2.541164e-09	-1.281996e+00	1.661081e+02
2.500000e-06	-3.177659e-07	2.270787e-09	-2.188738e+00	1.490544e+02
2.510000e-06	-4.492870e-07	1.989675e-09	-3.094642e+00	1.314389e+02
2.520000e-06	-5.806271e-07	1.709036e-09	-3.999299e+00	1.132080e+02
2.530000e-06	-7.117859e-07	1.427951e-09	-4.902708e+00	9.430839e+01
2.540000e-06	-8.427509e-07	1.133889e-09	-5.804781e+00	7.469276e+01
2.550000e-06	-9.734224e-07	8.227632e-10	-6.704832e+00	5.432686e+01
2.560000e-06	-1.103796e-06	5.005191e-10	-7.602831e+00	3.319631e+01
2.570000e-06	-1.233848e-06	1.715376e-10	-8.498614e+00	1.131264e+01
2.580000e-06	-1.363541e-06	-1.661412e-10	-9.391927e+00	-1.128228e+01
2.590000e-06	-1.492796e-06	-5.170037e-10	-1.028222e+01	-3.451388e+01
2.600000e-06	-1.621519e-06	-8.825392e-10	-1.116885e+01	-5.827519e+01
2.610000e-06	-1.749643e-06	-1.256608e-09	-1.205136e+01	-8.242978e+01
2.620000e-06	-1.877055e-06	-1.629370e-09	-1.292896e+01	-1.068173e+02
2.630000e-06	-2.003725e-06	-1.995578e-09	-1.380145e+01	-1.312610e+02
2.640000e-06	-2.129711e-06	-2.358847e-09	-1.466923e+01	-1.555771e+02
2.650000e-06	-2.254851e-06	-2.725511e-09	-1.553118e+01	-1.795842e+02
2.660000e-06	-2.378987e-06	-3.092079e-09	-1.638621e+01	-2.031132e+02
2.670000e-06	-2.502149e-06	-3.445438e-09	-1.723454e+01	-2.260152e+02
2.680000e-06	-2.624345e-06	-3.780635e-09	-1.807621e+01	-2.481687e+02
2.690000e-06	-2.745579e-06	-4.100080e-09	-1.891126e+01	-2.694831e+02
2.700000e-06	-2.865847e-06	-4.405965e-09	-1.973965e+01	-2.899010e+02
2.710000e-06	-2.985119e-06	-4.702343e-09	-2.056119e+01	-3.093964e+02
2.720000e-06	-3.103262e-06	-4.988989e-09	-2.137494e+01	-3.279722e+02
2.730000e-06	-3.220088e-06	-5.260457e-09	-2.217963e+01	-3.456543e+02
2.740000e-06	-3.335532e-06	-5.515707e-09	-2.297480e+01	-3.624858e+02
2.750000e-06	-3.449672e-06	-5.759933e-09	-2.376098e+01	-3.785202e+02
2.760000e-06	-3.562503e-06	-5.996707e-09	-2.453815e+01	-3.938151e+02
2.770000e-06	-3.673860e-06	-6.225384e-09	-2.530517e+01	-4.084266e+02
2.780000e-06	-3.783837e-06	-6.442562e-09	-2.606267e+01	-4.224055e+02
2.790000e-06	-3.892599e-06	-6.647569e-09	-2.681182e+01	-4.357947e+02
2.800000e-06	-4.000121e-06	-6.842338e-09	-2.755242e+01	-4.486282e+02
2.810000e-06	-4.106343e-06	-7.031516e-09	-2.828406e+01	-4.609315e+02
2.820000e-06	-4.211117e-06	-7.214311e-09	-2.900574e+01	-4.727236e+02
2.830000e-06	-4.314312e-06	-7.385509e-09	-2.971653e+01	-4.840187e+02
2.840000e-06	-4.415826e-06	-7.545363e-09	-3.041575e+01	-4.948285e+02
2.850000e-06	-4.515755e-06	-7.697624e-09	-3.110405e+01	-5.051648e+02
2.860000e-06	-4.614178e-06	-7.848101e-09	-3.178198e+01	-5.150403e+02
2.870000e-06	-4.710999e-06	-7.995604e-09	-3.244887e+01	-5.244702e+02
2.880000e-06	-4.806179e-06	-8.134037e-09	-3.310446e+01	-5.334714e+02
2.890000e-06	-4.899548e-06	-8.262837e-09	-3.374758e+01	-5.420628e+02
2.900000e-06	-4.991122e-06	-8.384718e-09	-3.437833e+01	-5.502636e+02
2.910000e-06	-5.080984e-06	-8.503131e-09	-3.499729e+01	-5.580923e+02
2.920000e-06	-5.168990e-06	-8.619463e-09	-3.560347e+01	-5.655660e+02
2.930000e-06	-5.254969e-06	-8.730638e-09	-3.619568e+01	-5.726991e+02
2.940000e-06	-5.338992e-06	-8.833886e-09	-3.677442e+01	-5.795035e+02
