# Temperatura_=_59.78
# Concentracion g/m^3_=_15000.0
# C_Vs_to_Am_M_A/Vsm_=_65563218390.804596
# pendiente_HvsI_1/m_=_3716.3
# ordenada_HvsI_A/m_=_1297.0
# frecuencia_Hz_=_301972.948817658

Tiempo_(s)	Campo_(V.s)	Magnetizacion_(V.s)	Campo_(kA/m)	Magnetizacion_(A/m)
0.000000e+00	-6.835412e-06	-1.068632e-08	-4.747294e+01	-7.004770e+02
1.000000e-08	-6.831945e-06	-1.068621e-08	-4.744886e+01	-7.002181e+02
2.000000e-08	-6.826253e-06	-1.068309e-08	-4.740933e+01	-6.998135e+02
3.000000e-08	-6.818375e-06	-1.067874e-08	-4.735461e+01	-6.992708e+02
4.000000e-08	-6.808160e-06	-1.067145e-08	-4.728367e+01	-6.986019e+02
5.000000e-08	-6.795467e-06	-1.065836e-08	-4.719551e+01	-6.978219e+02
6.000000e-08	-6.780311e-06	-1.064158e-08	-4.709025e+01	-6.969470e+02
7.000000e-08	-6.762852e-06	-1.062024e-08	-4.696900e+01	-6.959931e+02
8.000000e-08	-6.743237e-06	-1.061443e-08	-4.683277e+01	-6.949739e+02
9.000000e-08	-6.721185e-06	-1.064499e-08	-4.667961e+01	-6.938993e+02
1.000000e-07	-6.696349e-06	-1.062390e-08	-4.650713e+01	-6.927743e+02
1.100000e-07	-6.668810e-06	-1.057134e-08	-4.631587e+01	-6.915985e+02
1.200000e-07	-6.638941e-06	-1.054183e-08	-4.610842e+01	-6.903661e+02
1.300000e-07	-6.607130e-06	-1.048814e-08	-4.588749e+01	-6.890666e+02
1.400000e-07	-6.573435e-06	-1.043058e-08	-4.565347e+01	-6.876856e+02
1.500000e-07	-6.537783e-06	-1.048881e-08	-4.540586e+01	-6.862066e+02
1.600000e-07	-6.500072e-06	-1.048363e-08	-4.514395e+01	-6.846121e+02
1.700000e-07	-6.460270e-06	-1.038698e-08	-4.486752e+01	-6.828851e+02
1.800000e-07	-6.418149e-06	-1.041384e-08	-4.457499e+01	-6.810107e+02
1.900000e-07	-6.373553e-06	-1.033695e-08	-4.426526e+01	-6.789766e+02
2.000000e-07	-6.326631e-06	-1.026425e-08	-4.393938e+01	-6.767740e+02
2.100000e-07	-6.277074e-06	-1.030281e-08	-4.359520e+01	-6.743977e+02
2.200000e-07	-6.224824e-06	-1.026828e-08	-4.323232e+01	-6.718461e+02
2.300000e-07	-6.170128e-06	-1.020859e-08	-4.285245e+01	-6.691205e+02
2.400000e-07	-6.113047e-06	-1.015012e-08	-4.245601e+01	-6.662248e+02
2.500000e-07	-6.053669e-06	-1.010502e-08	-4.204362e+01	-6.631647e+02
2.600000e-07	-5.992095e-06	-1.004944e-08	-4.161598e+01	-6.599470e+02
2.700000e-07	-5.928407e-06	-9.993229e-09	-4.117365e+01	-6.565791e+02
2.800000e-07	-5.862520e-06	-9.969806e-09	-4.071606e+01	-6.530678e+02
2.900000e-07	-5.794369e-06	-9.904236e-09	-4.024275e+01	-6.494197e+02
3.000000e-07	-5.724109e-06	-9.849480e-09	-3.975478e+01	-6.456399e+02
3.100000e-07	-5.651768e-06	-9.795956e-09	-3.925236e+01	-6.417322e+02
3.200000e-07	-5.577161e-06	-9.721613e-09	-3.873420e+01	-6.376988e+02
3.300000e-07	-5.500214e-06	-9.658470e-09	-3.819979e+01	-6.335398e+02
3.400000e-07	-5.421066e-06	-9.575294e-09	-3.765010e+01	-6.292535e+02
3.500000e-07	-5.339872e-06	-9.516822e-09	-3.708620e+01	-6.248365e+02
3.600000e-07	-5.256874e-06	-9.470585e-09	-3.650976e+01	-6.202834e+02
3.700000e-07	-5.172148e-06	-9.415036e-09	-3.592133e+01	-6.155878e+02
3.800000e-07	-5.085655e-06	-9.336520e-09	-3.532062e+01	-6.107422e+02
3.900000e-07	-4.997387e-06	-9.244687e-09	-3.470759e+01	-6.057390e+02
4.000000e-07	-4.907271e-06	-9.150522e-09	-3.408172e+01	-6.005709e+02
4.100000e-07	-4.815418e-06	-9.060460e-09	-3.344378e+01	-5.952318e+02
4.200000e-07	-4.721997e-06	-9.002521e-09	-3.279496e+01	-5.897172e+02
4.300000e-07	-4.626970e-06	-8.932047e-09	-3.213499e+01	-5.840247e+02
4.400000e-07	-4.530249e-06	-8.838973e-09	-3.146325e+01	-5.781541e+02
4.500000e-07	-4.431736e-06	-8.738990e-09	-3.077906e+01	-5.721073e+02
4.600000e-07	-4.331608e-06	-8.634233e-09	-3.008365e+01	-5.658877e+02
4.700000e-07	-4.230081e-06	-8.532301e-09	-2.937853e+01	-5.594995e+02
4.800000e-07	-4.127053e-06	-8.435994e-09	-2.866299e+01	-5.529467e+02
4.900000e-07	-4.022567e-06	-8.338531e-09	-2.793732e+01	-5.462323e+02
5.000000e-07	-3.916597e-06	-8.230066e-09	-2.720134e+01	-5.393567e+02
5.100000e-07	-3.809081e-06	-8.123916e-09	-2.645463e+01	-5.323176e+02
5.200000e-07	-3.700230e-06	-8.018824e-09	-2.569864e+01	-5.251091e+02
5.300000e-07	-3.590148e-06	-7.904692e-09	-2.493410e+01	-5.177220e+02
5.400000e-07	-3.478745e-06	-7.780526e-09	-2.416040e+01	-5.101440e+02
5.500000e-07	-3.365954e-06	-7.657168e-09	-2.337705e+01	-5.023610e+02
5.600000e-07	-3.251632e-06	-7.538871e-09	-2.258306e+01	-4.943580e+02
5.700000e-07	-3.135817e-06	-7.419188e-09	-2.177871e+01	-4.861205e+02
5.800000e-07	-3.018839e-06	-7.297819e-09	-2.096628e+01	-4.776364e+02
5.900000e-07	-2.900815e-06	-7.165970e-09	-2.014659e+01	-4.688962e+02
6.000000e-07	-2.781657e-06	-7.017053e-09	-1.931902e+01	-4.598944e+02
6.100000e-07	-2.661471e-06	-6.862128e-09	-1.848431e+01	-4.506294e+02
6.200000e-07	-2.540454e-06	-6.715040e-09	-1.764383e+01	-4.411028e+02
6.300000e-07	-2.418449e-06	-6.575021e-09	-1.679649e+01	-4.313185e+02
6.400000e-07	-2.295347e-06	-6.427837e-09	-1.594152e+01	-4.212813e+02
6.500000e-07	-2.171370e-06	-6.270959e-09	-1.508049e+01	-4.109949e+02
6.600000e-07	-2.046721e-06	-6.109315e-09	-1.421478e+01	-4.004605e+02
6.700000e-07	-1.921470e-06	-5.938558e-09	-1.334489e+01	-3.896752e+02
6.800000e-07	-1.795645e-06	-5.765217e-09	-1.247102e+01	-3.786313e+02
6.900000e-07	-1.669194e-06	-5.593954e-09	-1.159279e+01	-3.673159e+02
7.000000e-07	-1.542030e-06	-5.418264e-09	-1.070963e+01	-3.557119e+02
7.100000e-07	-1.414254e-06	-5.234546e-09	-9.822200e+00	-3.437988e+02
7.200000e-07	-1.286084e-06	-5.046564e-09	-8.932043e+00	-3.315545e+02
7.300000e-07	-1.157590e-06	-4.856304e-09	-8.039634e+00	-3.189576e+02
7.400000e-07	-1.028803e-06	-4.659089e-09	-7.145189e+00	-3.059890e+02
7.500000e-07	-8.997741e-07	-4.455200e-09	-6.249063e+00	-2.926333e+02
7.600000e-07	-7.704446e-07	-4.246965e-09	-5.350851e+00	-2.788796e+02
7.700000e-07	-6.407125e-07	-4.032249e-09	-4.449842e+00	-2.647213e+02
7.800000e-07	-5.107034e-07	-3.811255e-09	-3.546910e+00	-2.501546e+02
7.900000e-07	-3.805225e-07	-3.584204e-09	-2.642785e+00	-2.351770e+02
8.000000e-07	-2.501613e-07	-3.349108e-09	-1.737407e+00	-2.197838e+02
8.100000e-07	-1.195783e-07	-3.104577e-09	-8.304885e-01	-2.039656e+02
8.200000e-07	1.112193e-08	-2.855602e-09	7.724344e-02	-1.877058e+02
8.300000e-07	1.417658e-07	-2.602712e-09	9.845846e-01	-1.709781e+02
8.400000e-07	2.723838e-07	-2.341131e-09	1.891746e+00	-1.537463e+02
8.500000e-07	4.029183e-07	-2.070717e-09	2.798327e+00	-1.359648e+02
8.600000e-07	5.332602e-07	-1.789498e-09	3.703570e+00	-1.175815e+02
8.700000e-07	6.633800e-07	-1.494412e-09	4.607272e+00	-9.854190e+01
8.800000e-07	7.932510e-07	-1.187689e-09	5.509245e+00	-7.879503e+01
8.900000e-07	9.227982e-07	-8.742925e-10	6.408969e+00	-5.829990e+01
9.000000e-07	1.051992e-06	-5.540065e-10	7.306238e+00	-3.703253e+01
9.100000e-07	1.180892e-06	-2.225662e-10	8.201471e+00	-1.499243e+01
9.200000e-07	1.309529e-06	1.239569e-10	9.094871e+00	7.792165e+00
9.300000e-07	1.437769e-06	4.840716e-10	9.985514e+00	3.126096e+01
9.400000e-07	1.565488e-06	8.537612e-10	1.087254e+01	5.532062e+01
9.500000e-07	1.692594e-06	1.230982e-09	1.175532e+01	7.984642e+01
9.600000e-07	1.819078e-06	1.613130e-09	1.263376e+01	1.046866e+02
9.700000e-07	1.944874e-06	1.998181e-09	1.350744e+01	1.296692e+02
9.800000e-07	2.069934e-06	2.383422e-09	1.437599e+01	1.546103e+02
9.900000e-07	2.194410e-06	2.762692e-09	1.524050e+01	1.793236e+02
1.000000e-06	2.318283e-06	3.132741e-09	1.610081e+01	2.036305e+02
1.010000e-06	2.441259e-06	3.492642e-09	1.695490e+01	2.273688e+02
1.020000e-06	2.563077e-06	3.840597e-09	1.780095e+01	2.504002e+02
1.030000e-06	2.683837e-06	4.176248e-09	1.863964e+01	2.726165e+02
1.040000e-06	2.803669e-06	4.499187e-09	1.947189e+01	2.939415e+02
1.050000e-06	2.922502e-06	4.809093e-09	2.029721e+01	3.143323e+02
1.060000e-06	3.040322e-06	5.104334e-09	2.111548e+01	3.337767e+02
1.070000e-06	3.157055e-06	5.385506e-09	2.192621e+01	3.522890e+02
1.080000e-06	3.272480e-06	5.654626e-09	2.272786e+01	3.699046e+02
1.090000e-06	3.386426e-06	5.912528e-09	2.351922e+01	3.866731e+02
1.100000e-06	3.499051e-06	6.156702e-09	2.430142e+01	4.026521e+02
1.110000e-06	3.610479e-06	6.387220e-09	2.507531e+01	4.179011e+02
1.120000e-06	3.720646e-06	6.607371e-09	2.584043e+01	4.324766e+02
1.130000e-06	3.829657e-06	6.820559e-09	2.659753e+01	4.464289e+02
1.140000e-06	3.937489e-06	7.025317e-09	2.734644e+01	4.597996e+02
1.150000e-06	4.043843e-06	7.220584e-09	2.808508e+01	4.726221e+02
1.160000e-06	4.148656e-06	7.405976e-09	2.881302e+01	4.849217e+02
1.170000e-06	4.251955e-06	7.581789e-09	2.953045e+01	4.967176e+02
1.180000e-06	4.353745e-06	7.751276e-09	3.023740e+01	5.080249e+02
1.190000e-06	4.454149e-06	7.913957e-09	3.093472e+01	5.188570e+02
1.200000e-06	4.552931e-06	8.070662e-09	3.162078e+01	5.292267e+02
1.210000e-06	4.649900e-06	8.221949e-09	3.229424e+01	5.391482e+02
1.220000e-06	4.745127e-06	8.368059e-09	3.295560e+01	5.486368e+02
1.230000e-06	4.838703e-06	8.509098e-09	3.360550e+01	5.577092e+02
1.240000e-06	4.930754e-06	8.645033e-09	3.424481e+01	5.663828e+02
1.250000e-06	5.021039e-06	8.774350e-09	3.487186e+01	5.746744e+02
1.260000e-06	5.109412e-06	8.897031e-09	3.548562e+01	5.825996e+02
1.270000e-06	5.195965e-06	9.011782e-09	3.608674e+01	5.901719e+02
1.280000e-06	5.280766e-06	9.120461e-09	3.667570e+01	5.974022e+02
1.290000e-06	5.363733e-06	9.226627e-09	3.725191e+01	6.042991e+02
1.300000e-06	5.444654e-06	9.327221e-09	3.781392e+01	6.108698e+02
1.310000e-06	5.523550e-06	9.420853e-09	3.836187e+01	6.171206e+02
1.320000e-06	5.600475e-06	9.509546e-09	3.889612e+01	6.230585e+02
1.330000e-06	5.675249e-06	9.595074e-09	3.941544e+01	6.286923e+02
1.340000e-06	5.747802e-06	9.676652e-09	3.991933e+01	6.340334e+02
1.350000e-06	5.818276e-06	9.753486e-09	4.040878e+01	6.390962e+02
1.360000e-06	5.886732e-06	9.825990e-09	4.088422e+01	6.438981e+02
1.370000e-06	5.953037e-06	9.894380e-09	4.134472e+01	6.484587e+02
1.380000e-06	6.017144e-06	9.960008e-09	4.178995e+01	6.527986e+02
1.390000e-06	6.079218e-06	1.002316e-08	4.222106e+01	6.569376e+02
1.400000e-06	6.139298e-06	1.008486e-08	4.263832e+01	6.608932e+02
1.410000e-06	6.197202e-06	1.014494e-08	4.304048e+01	6.646790e+02
1.420000e-06	6.252866e-06	1.020190e-08	4.342707e+01	6.683034e+02
1.430000e-06	6.306293e-06	1.025529e-08	4.379813e+01	6.717694e+02
1.440000e-06	6.357150e-06	1.030546e-08	4.415134e+01	6.750745e+02
1.450000e-06	6.405367e-06	1.035404e-08	4.448621e+01	6.782117e+02
1.460000e-06	6.451297e-06	1.039966e-08	4.480520e+01	6.811706e+02
1.470000e-06	6.495101e-06	1.044027e-08	4.510943e+01	6.839401e+02
1.480000e-06	6.536581e-06	1.047540e-08	4.539752e+01	6.865097e+02
1.490000e-06	6.575651e-06	1.050802e-08	4.566886e+01	6.888716e+02
1.500000e-06	6.612516e-06	1.053943e-08	4.592489e+01	6.910226e+02
1.510000e-06	6.647107e-06	1.056936e-08	4.616513e+01	6.929643e+02
1.520000e-06	6.679231e-06	1.059726e-08	4.638824e+01	6.947037e+02
1.530000e-06	6.709012e-06	1.062117e-08	4.659507e+01	6.962528e+02
1.540000e-06	6.736531e-06	1.064118e-08	4.678620e+01	6.976267e+02
1.550000e-06	6.761543e-06	1.065831e-08	4.695991e+01	6.988423e+02
1.560000e-06	6.784026e-06	1.067350e-08	4.711606e+01	6.999165e+02
1.570000e-06	6.804226e-06	1.068555e-08	4.725635e+01	7.008639e+02
1.580000e-06	6.822028e-06	1.069478e-08	4.737999e+01	7.016953e+02
1.590000e-06	6.837324e-06	1.070498e-08	4.748622e+01	7.024169e+02
1.600000e-06	6.850108e-06	1.071643e-08	4.757501e+01	7.030301e+02
1.610000e-06	6.860192e-06	1.072527e-08	4.764504e+01	7.035314e+02
1.620000e-06	6.867614e-06	1.073035e-08	4.769659e+01	7.039138e+02
1.630000e-06	6.872620e-06	1.073326e-08	4.773135e+01	7.041684e+02
1.640000e-06	6.875246e-06	1.073527e-08	4.774959e+01	7.042862e+02
1.650000e-06	6.875413e-06	1.073641e-08	4.775075e+01	7.042598e+02
1.660000e-06	6.873252e-06	1.073084e-08	4.773574e+01	7.040850e+02
1.670000e-06	6.868945e-06	1.072173e-08	4.770584e+01	7.037621e+02
1.680000e-06	6.862323e-06	1.071499e-08	4.765984e+01	7.032962e+02
1.690000e-06	6.853412e-06	1.070653e-08	4.759795e+01	7.026968e+02
1.700000e-06	6.842333e-06	1.069772e-08	4.752100e+01	7.019775e+02
1.710000e-06	6.828837e-06	1.069111e-08	4.742728e+01	7.011539e+02
1.720000e-06	6.812949e-06	1.069009e-08	4.731693e+01	7.002424e+02
1.730000e-06	6.794975e-06	1.066614e-08	4.719210e+01	6.992581e+02
1.740000e-06	6.774614e-06	1.059391e-08	4.705069e+01	6.982133e+02
1.750000e-06	6.751046e-06	1.058208e-08	4.688700e+01	6.971159e+02
1.760000e-06	6.724352e-06	1.058988e-08	4.670162e+01	6.959686e+02
1.770000e-06	6.695226e-06	1.057021e-08	4.649933e+01	6.947687e+02
1.780000e-06	6.664082e-06	1.060646e-08	4.628303e+01	6.935081e+02
1.790000e-06	6.631445e-06	1.058205e-08	4.605636e+01	6.921747e+02
1.800000e-06	6.597241e-06	1.047234e-08	4.581880e+01	6.907530e+02
1.810000e-06	6.560568e-06	1.050046e-08	4.556411e+01	6.892257e+02
1.820000e-06	6.521408e-06	1.047844e-08	4.529214e+01	6.875755e+02
1.830000e-06	6.480137e-06	1.044636e-08	4.500550e+01	6.857861e+02
1.840000e-06	6.436681e-06	1.050605e-08	4.470369e+01	6.838437e+02
1.850000e-06	6.391036e-06	1.039696e-08	4.438669e+01	6.817373e+02
1.860000e-06	6.342999e-06	1.034506e-08	4.405306e+01	6.794599e+02
1.870000e-06	6.292602e-06	1.029888e-08	4.370304e+01	6.770076e+02
1.880000e-06	6.239805e-06	1.022595e-08	4.333636e+01	6.743801e+02
1.890000e-06	6.184326e-06	1.025157e-08	4.295106e+01	6.715801e+02
1.900000e-06	6.126500e-06	1.019124e-08	4.254944e+01	6.686123e+02
1.910000e-06	6.066463e-06	1.018347e-08	4.213248e+01	6.654829e+02
1.920000e-06	6.004093e-06	1.010207e-08	4.169931e+01	6.621990e+02
1.930000e-06	5.939516e-06	9.988159e-09	4.125081e+01	6.587679e+02
1.940000e-06	5.872785e-06	9.999413e-09	4.078735e+01	6.551964e+02
1.950000e-06	5.803924e-06	9.912110e-09	4.030911e+01	6.514904e+02
1.960000e-06	5.732667e-06	9.878631e-09	3.981422e+01	6.476545e+02
1.970000e-06	5.659100e-06	9.808226e-09	3.930328e+01	6.436919e+02
1.980000e-06	5.583452e-06	9.749183e-09	3.877789e+01	6.396038e+02
1.990000e-06	5.505506e-06	9.721613e-09	3.823655e+01	6.353897e+02
2.000000e-06	5.425412e-06	9.612761e-09	3.768029e+01	6.310470e+02
2.010000e-06	5.343518e-06	9.552878e-09	3.711152e+01	6.265715e+02
2.020000e-06	5.259927e-06	9.456157e-09	3.653097e+01	6.219573e+02
2.030000e-06	5.174378e-06	9.387324e-09	3.593682e+01	6.171975e+02
2.040000e-06	5.086754e-06	9.325235e-09	3.532825e+01	6.122843e+02
2.050000e-06	4.997380e-06	9.273848e-09	3.470754e+01	6.072104e+02
2.060000e-06	4.906480e-06	9.201658e-09	3.407622e+01	6.019688e+02
2.070000e-06	4.813920e-06	9.070502e-09	3.343338e+01	5.965540e+02
2.080000e-06	4.719509e-06	8.974482e-09	3.277768e+01	5.909625e+02
2.090000e-06	4.623384e-06	8.875722e-09	3.211008e+01	5.851926e+02
2.100000e-06	4.525751e-06	8.811898e-09	3.143201e+01	5.792453e+02
2.110000e-06	4.426659e-06	8.737712e-09	3.074380e+01	5.731230e+02
2.120000e-06	4.326065e-06	8.652613e-09	3.004515e+01	5.668297e+02
2.130000e-06	4.223892e-06	8.546963e-09	2.933555e+01	5.603696e+02
2.140000e-06	4.120067e-06	8.429869e-09	2.861447e+01	5.537464e+02
2.150000e-06	4.014690e-06	8.323765e-09	2.788261e+01	5.469621e+02
2.160000e-06	3.908022e-06	8.217674e-09	2.714179e+01	5.400161e+02
2.170000e-06	3.799999e-06	8.118741e-09	2.639155e+01	5.329044e+02
2.180000e-06	3.690619e-06	8.004270e-09	2.563189e+01	5.256198e+02
2.190000e-06	3.579847e-06	7.891434e-09	2.486256e+01	5.181516e+02
2.200000e-06	3.467667e-06	7.770342e-09	2.408346e+01	5.104866e+02
2.210000e-06	3.354175e-06	7.655340e-09	2.329524e+01	5.026103e+02
2.220000e-06	3.239361e-06	7.528502e-09	2.249784e+01	4.945075e+02
2.230000e-06	3.123196e-06	7.393118e-09	2.169106e+01	4.861648e+02
2.240000e-06	3.005776e-06	7.258724e-09	2.087556e+01	4.775709e+02
2.250000e-06	2.887106e-06	7.132997e-09	2.005137e+01	4.687182e+02
2.260000e-06	2.767130e-06	7.007883e-09	1.921812e+01	4.596027e+02
2.270000e-06	2.646124e-06	6.865709e-09	1.837772e+01	4.502243e+02
2.280000e-06	2.524326e-06	6.713355e-09	1.753181e+01	4.405858e+02
2.290000e-06	2.401756e-06	6.552967e-09	1.668055e+01	4.306916e+02
2.300000e-06	2.278305e-06	6.394918e-09	1.582316e+01	4.205464e+02
2.310000e-06	2.154008e-06	6.243782e-09	1.495990e+01	4.101529e+02
2.320000e-06	2.029057e-06	6.098446e-09	1.409210e+01	3.995107e+02
2.330000e-06	1.903546e-06	5.936717e-09	1.322041e+01	3.886149e+02
2.340000e-06	1.777351e-06	5.757964e-09	1.234396e+01	3.774556e+02
2.350000e-06	1.650403e-06	5.572601e-09	1.146229e+01	3.660180e+02
2.360000e-06	1.522776e-06	5.391445e-09	1.057591e+01	3.542832e+02
2.370000e-06	1.394597e-06	5.213318e-09	9.685679e+00	3.422300e+02
2.380000e-06	1.265946e-06	5.028924e-09	8.792183e+00	3.298362e+02
2.390000e-06	1.136936e-06	4.836419e-09	7.896185e+00	3.170813e+02
2.400000e-06	1.007670e-06	4.633797e-09	6.998416e+00	3.039475e+02
2.410000e-06	8.781360e-07	4.426443e-09	6.098783e+00	2.904214e+02
2.420000e-06	7.483840e-07	4.216504e-09	5.197637e+00	2.764940e+02
2.430000e-06	6.184473e-07	4.000443e-09	4.295207e+00	2.621601e+02
2.440000e-06	4.882944e-07	3.773983e-09	3.391276e+00	2.474168e+02
2.450000e-06	3.579017e-07	3.538278e-09	2.485680e+00	2.322609e+02
2.460000e-06	2.272960e-07	3.298296e-09	1.578604e+00	2.166862e+02
2.470000e-06	9.656894e-08	3.056711e-09	6.706855e-01	2.006804e+02
2.480000e-06	-3.422730e-08	2.813116e-09	-2.377136e-01	1.842230e+02
2.490000e-06	-1.650119e-07	2.559496e-09	-1.146032e+00	1.672834e+02
2.500000e-06	-2.957021e-07	2.289741e-09	-2.053694e+00	1.498211e+02
2.510000e-06	-4.262890e-07	2.007736e-09	-2.960640e+00	1.317874e+02
2.520000e-06	-5.567571e-07	1.720430e-09	-3.866760e+00	1.131285e+02
2.530000e-06	-6.870085e-07	1.429115e-09	-4.771375e+00	9.379076e+01
2.540000e-06	-8.170330e-07	1.125908e-09	-5.674414e+00	7.372649e+01
2.550000e-06	-9.468413e-07	8.071364e-10	-6.575952e+00	5.290120e+01
2.560000e-06	-1.076340e-06	4.774049e-10	-7.475340e+00	3.130025e+01
2.570000e-06	-1.205512e-06	1.383094e-10	-8.372459e+00	8.934910e+00
2.580000e-06	-1.334353e-06	-2.084950e-10	-9.267275e+00	-1.415314e+01
2.590000e-06	-1.462774e-06	-5.634191e-10	-1.015918e+01	-3.788939e+01
2.600000e-06	-1.590671e-06	-9.313271e-10	-1.104745e+01	-6.216669e+01
2.610000e-06	-1.717861e-06	-1.309465e-09	-1.193080e+01	-8.684808e+01
2.620000e-06	-1.844218e-06	-1.691150e-09	-1.280837e+01	-1.117722e+02
2.630000e-06	-1.969821e-06	-2.069541e-09	-1.368069e+01	-1.367608e+02
2.640000e-06	-2.094737e-06	-2.445286e-09	-1.454826e+01	-1.616277e+02
2.650000e-06	-2.218893e-06	-2.821391e-09	-1.541054e+01	-1.861889e+02
2.660000e-06	-2.342177e-06	-3.193408e-09	-1.626676e+01	-2.102716e+02
2.670000e-06	-2.464540e-06	-3.556219e-09	-1.711659e+01	-2.337231e+02
2.680000e-06	-2.585998e-06	-3.903410e-09	-1.796013e+01	-2.564175e+02
2.690000e-06	-2.706587e-06	-4.234068e-09	-1.879765e+01	-2.782600e+02
2.700000e-06	-2.826092e-06	-4.548276e-09	-1.962762e+01	-2.991890e+02
2.710000e-06	-2.944313e-06	-4.848252e-09	-2.044868e+01	-3.191749e+02
2.720000e-06	-3.061343e-06	-5.139001e-09	-2.126147e+01	-3.382176e+02
2.730000e-06	-3.177228e-06	-5.417694e-09	-2.206631e+01	-3.563412e+02
2.740000e-06	-3.291809e-06	-5.683018e-09	-2.286209e+01	-3.735880e+02
2.750000e-06	-3.404984e-06	-5.937069e-09	-2.364811e+01	-3.900117e+02
2.760000e-06	-3.516803e-06	-6.180977e-09	-2.442472e+01	-4.056715e+02
2.770000e-06	-3.627293e-06	-6.413720e-09	-2.519208e+01	-4.206262e+02
2.780000e-06	-3.736570e-06	-6.632576e-09	-2.595103e+01	-4.349298e+02
2.790000e-06	-3.844699e-06	-6.838705e-09	-2.670200e+01	-4.486291e+02
2.800000e-06	-3.951576e-06	-7.035851e-09	-2.744428e+01	-4.617622e+02
2.810000e-06	-4.057099e-06	-7.227504e-09	-2.817715e+01	-4.743588e+02
2.820000e-06	-4.161165e-06	-7.416514e-09	-2.889990e+01	-4.864414e+02
2.830000e-06	-4.263579e-06	-7.598972e-09	-2.961118e+01	-4.980271e+02
2.840000e-06	-4.364419e-06	-7.771332e-09	-3.031153e+01	-5.091301e+02
2.850000e-06	-4.463807e-06	-7.932203e-09	-3.100179e+01	-5.197633e+02
2.860000e-06	-4.561695e-06	-8.084794e-09	-3.168165e+01	-5.299400e+02
2.870000e-06	-4.658077e-06	-8.232399e-09	-3.235103e+01	-5.396749e+02
2.880000e-06	-4.752730e-06	-8.372457e-09	-3.300841e+01	-5.489839e+02
2.890000e-06	-4.845633e-06	-8.504830e-09	-3.365364e+01	-5.578842e+02
2.900000e-06	-4.936837e-06	-8.630962e-09	-3.428706e+01	-5.663930e+02
2.910000e-06	-5.026272e-06	-8.753369e-09	-3.490820e+01	-5.745267e+02
2.920000e-06	-5.113812e-06	-8.873568e-09	-3.551618e+01	-5.823000e+02
2.930000e-06	-5.199362e-06	-8.990922e-09	-3.611033e+01	-5.897254e+02
2.940000e-06	-5.283034e-06	-9.102112e-09	-3.669145e+01	-5.968128e+02
