# Temperatura_=_77.65
# Concentracion g/m^3_=_15000.0
# C_Vs_to_Am_M_A/Vsm_=_65563218390.804596
# pendiente_HvsI_1/m_=_3716.3
# ordenada_HvsI_A/m_=_1297.0
# frecuencia_Hz_=_301979.1830403206

Tiempo_(s)	Campo_(V.s)	Magnetizacion_(V.s)	Campo_(kA/m)	Magnetizacion_(A/m)
0.000000e+00	-6.884150e-06	-1.235100e-08	-4.746910e+01	-8.094035e+02
1.000000e-08	-6.880555e-06	-1.234712e-08	-4.744431e+01	-8.090777e+02
2.000000e-08	-6.874789e-06	-1.234012e-08	-4.740455e+01	-8.085677e+02
3.000000e-08	-6.866888e-06	-1.233222e-08	-4.735007e+01	-8.078789e+02
4.000000e-08	-6.856629e-06	-1.232166e-08	-4.727933e+01	-8.070234e+02
5.000000e-08	-6.843865e-06	-1.230736e-08	-4.719131e+01	-8.060192e+02
6.000000e-08	-6.828568e-06	-1.228779e-08	-4.708584e+01	-8.048881e+02
7.000000e-08	-6.810966e-06	-1.226871e-08	-4.696446e+01	-8.036534e+02
8.000000e-08	-6.791280e-06	-1.227507e-08	-4.682872e+01	-8.023373e+02
9.000000e-08	-6.769152e-06	-1.227816e-08	-4.667614e+01	-8.009583e+02
1.000000e-07	-6.744129e-06	-1.223173e-08	-4.650360e+01	-7.995288e+02
1.100000e-07	-6.716355e-06	-1.218701e-08	-4.631208e+01	-7.980540e+02
1.200000e-07	-6.686301e-06	-1.216405e-08	-4.610484e+01	-7.965306e+02
1.300000e-07	-6.654208e-06	-1.210706e-08	-4.588356e+01	-7.949478e+02
1.400000e-07	-6.620178e-06	-1.206250e-08	-4.564890e+01	-7.932875e+02
1.500000e-07	-6.584259e-06	-1.210287e-08	-4.540122e+01	-7.915267e+02
1.600000e-07	-6.546252e-06	-1.203071e-08	-4.513915e+01	-7.896393e+02
1.700000e-07	-6.506110e-06	-1.197995e-08	-4.486236e+01	-7.875990e+02
1.800000e-07	-6.463610e-06	-1.199216e-08	-4.456930e+01	-7.853808e+02
1.900000e-07	-6.418595e-06	-1.191518e-08	-4.425890e+01	-7.829639e+02
2.000000e-07	-6.371293e-06	-1.190831e-08	-4.393274e+01	-7.803324e+02
2.100000e-07	-6.321413e-06	-1.187591e-08	-4.358879e+01	-7.774767e+02
2.200000e-07	-6.268831e-06	-1.180611e-08	-4.322621e+01	-7.743935e+02
2.300000e-07	-6.213737e-06	-1.174857e-08	-4.284632e+01	-7.710853e+02
2.400000e-07	-6.156195e-06	-1.166975e-08	-4.244954e+01	-7.675596e+02
2.500000e-07	-6.096399e-06	-1.162243e-08	-4.203723e+01	-7.638275e+02
2.600000e-07	-6.034452e-06	-1.157705e-08	-4.161007e+01	-7.599023e+02
2.700000e-07	-5.970327e-06	-1.151430e-08	-4.116790e+01	-7.557981e+02
2.800000e-07	-5.903962e-06	-1.144039e-08	-4.071029e+01	-7.515279e+02
2.900000e-07	-5.835319e-06	-1.136985e-08	-4.023697e+01	-7.471032e+02
3.000000e-07	-5.764505e-06	-1.132121e-08	-3.974868e+01	-7.425321e+02
3.100000e-07	-5.691579e-06	-1.124819e-08	-3.924582e+01	-7.378199e+02
3.200000e-07	-5.616412e-06	-1.118314e-08	-3.872752e+01	-7.329677e+02
3.300000e-07	-5.538896e-06	-1.110393e-08	-3.819301e+01	-7.279735e+02
3.400000e-07	-5.459099e-06	-1.100905e-08	-3.764278e+01	-7.228320e+02
3.500000e-07	-5.377259e-06	-1.093448e-08	-3.707845e+01	-7.175354e+02
3.600000e-07	-5.293651e-06	-1.086633e-08	-3.650194e+01	-7.120742e+02
3.700000e-07	-5.208361e-06	-1.079371e-08	-3.591383e+01	-7.064379e+02
3.800000e-07	-5.121314e-06	-1.068947e-08	-3.531361e+01	-7.006162e+02
3.900000e-07	-5.032410e-06	-1.058869e-08	-3.470057e+01	-6.945996e+02
4.000000e-07	-4.941619e-06	-1.049280e-08	-3.407453e+01	-6.883803e+02
4.100000e-07	-4.849163e-06	-1.040186e-08	-3.343701e+01	-6.819529e+02
4.200000e-07	-4.755132e-06	-1.030906e-08	-3.278863e+01	-6.753144e+02
4.300000e-07	-4.659393e-06	-1.020097e-08	-3.212847e+01	-6.684648e+02
4.400000e-07	-4.561876e-06	-1.008941e-08	-3.145605e+01	-6.614066e+02
4.500000e-07	-4.462631e-06	-9.974466e-09	-3.077171e+01	-6.541441e+02
4.600000e-07	-4.361902e-06	-9.865801e-09	-3.007714e+01	-6.466830e+02
4.700000e-07	-4.259755e-06	-9.757631e-09	-2.937279e+01	-6.390288e+02
4.800000e-07	-4.156103e-06	-9.636514e-09	-2.865807e+01	-6.311864e+02
4.900000e-07	-4.050870e-06	-9.501910e-09	-2.793245e+01	-6.231583e+02
5.000000e-07	-3.944055e-06	-9.371548e-09	-2.719591e+01	-6.149444e+02
5.100000e-07	-3.835775e-06	-9.251574e-09	-2.644928e+01	-6.065406e+02
5.200000e-07	-3.726168e-06	-9.130444e-09	-2.569349e+01	-5.979393e+02
5.300000e-07	-3.615307e-06	-8.995641e-09	-2.492906e+01	-5.891295e+02
5.400000e-07	-3.503133e-06	-8.849130e-09	-2.415557e+01	-5.800972e+02
5.500000e-07	-3.389465e-06	-8.700769e-09	-2.337178e+01	-5.708270e+02
5.600000e-07	-3.274232e-06	-8.555138e-09	-2.257720e+01	-5.613035e+02
5.700000e-07	-3.157598e-06	-8.410780e-09	-2.177296e+01	-5.515125e+02
5.800000e-07	-3.039804e-06	-8.261623e-09	-2.096072e+01	-5.414425e+02
5.900000e-07	-2.920983e-06	-8.103257e-09	-2.014140e+01	-5.310857e+02
6.000000e-07	-2.801133e-06	-7.934925e-09	-1.931498e+01	-5.204388e+02
6.100000e-07	-2.680192e-06	-7.767076e-09	-1.848105e+01	-5.095023e+02
6.200000e-07	-2.558162e-06	-7.599519e-09	-1.763960e+01	-4.982804e+02
6.300000e-07	-2.435171e-06	-7.426962e-09	-1.679153e+01	-4.867790e+02
6.400000e-07	-2.311260e-06	-7.245004e-09	-1.593711e+01	-4.750045e+02
6.500000e-07	-2.186499e-06	-7.056649e-09	-1.507683e+01	-4.629615e+02
6.600000e-07	-2.061076e-06	-6.869741e-09	-1.421198e+01	-4.506512e+02
6.700000e-07	-1.935024e-06	-6.680227e-09	-1.334280e+01	-4.380697e+02
6.800000e-07	-1.808306e-06	-6.483994e-09	-1.246903e+01	-4.252075e+02
6.900000e-07	-1.680933e-06	-6.279670e-09	-1.159074e+01	-4.120491e+02
7.000000e-07	-1.552944e-06	-6.069157e-09	-1.070820e+01	-3.985738e+02
7.100000e-07	-1.424411e-06	-5.855306e-09	-9.821909e+00	-3.847574e+02
7.200000e-07	-1.295425e-06	-5.639362e-09	-8.932499e+00	-3.705739e+02
7.300000e-07	-1.166026e-06	-5.419675e-09	-8.040241e+00	-3.559976e+02
7.400000e-07	-1.036221e-06	-5.192100e-09	-7.145178e+00	-3.410054e+02
7.500000e-07	-9.060183e-07	-4.955136e-09	-6.247376e+00	-3.255778e+02
7.600000e-07	-7.755218e-07	-4.709867e-09	-5.347548e+00	-3.097002e+02
7.700000e-07	-6.447918e-07	-4.461258e-09	-4.446110e+00	-2.933617e+02
7.800000e-07	-5.138212e-07	-4.211571e-09	-3.543013e+00	-2.765541e+02
7.900000e-07	-3.826441e-07	-3.956178e-09	-2.638491e+00	-2.592695e+02
8.000000e-07	-2.512924e-07	-3.687602e-09	-1.732766e+00	-2.414972e+02
8.100000e-07	-1.197980e-07	-3.405857e-09	-8.260572e-01	-2.232204e+02
8.200000e-07	1.177304e-08	-3.116305e-09	8.118002e-02	-2.044139e+02
8.300000e-07	1.433466e-07	-2.818624e-09	9.884348e-01	-1.850419e+02
8.400000e-07	2.749011e-07	-2.510687e-09	1.895558e+00	-1.650580e+02
8.500000e-07	4.064481e-07	-2.190929e-09	2.802630e+00	-1.444068e+02
8.600000e-07	5.378790e-07	-1.861248e-09	3.708901e+00	-1.230272e+02
8.700000e-07	6.690814e-07	-1.521752e-09	4.613597e+00	-1.008580e+02
8.800000e-07	8.000830e-07	-1.172218e-09	5.516908e+00	-7.784503e+01
8.900000e-07	9.308133e-07	-8.116670e-10	6.418348e+00	-5.394854e+01
9.000000e-07	1.061137e-06	-4.367176e-10	7.316987e+00	-2.915159e+01
9.100000e-07	1.191103e-06	-4.732914e-11	8.213158e+00	-3.466979e+00
9.200000e-07	1.320705e-06	3.550217e-10	9.106814e+00	2.305716e+01
9.300000e-07	1.449856e-06	7.692206e-10	9.997366e+00	5.033430e+01
9.400000e-07	1.578512e-06	1.194333e-09	1.088450e+01	7.823932e+01
9.500000e-07	1.706558e-06	1.629826e-09	1.176743e+01	1.066116e+02
9.600000e-07	1.833892e-06	2.072919e-09	1.264546e+01	1.352613e+02
9.700000e-07	1.960532e-06	2.516056e-09	1.351869e+01	1.639778e+02
9.800000e-07	2.086484e-06	2.952027e-09	1.438718e+01	1.925411e+02
9.900000e-07	2.211747e-06	3.377917e-09	1.525092e+01	2.207331e+02
1.000000e-06	2.336351e-06	3.794464e-09	1.611012e+01	2.483495e+02
1.010000e-06	2.460109e-06	4.201237e-09	1.696348e+01	2.752103e+02
1.020000e-06	2.582839e-06	4.595948e-09	1.780976e+01	3.011681e+02
1.030000e-06	2.704586e-06	4.976218e-09	1.864926e+01	3.261138e+02
1.040000e-06	2.825348e-06	5.338061e-09	1.948196e+01	3.499790e+02
1.050000e-06	2.945011e-06	5.682354e-09	2.030708e+01	3.727349e+02
1.060000e-06	3.063570e-06	6.011762e-09	2.112460e+01	3.943882e+02
1.070000e-06	3.181080e-06	6.326666e-09	2.193488e+01	4.149752e+02
1.080000e-06	3.297405e-06	6.626348e-09	2.273699e+01	4.345533e+02
1.090000e-06	3.412335e-06	6.912399e-09	2.352948e+01	4.531929e+02
1.100000e-06	3.525883e-06	7.184893e-09	2.431244e+01	4.709690e+02
1.110000e-06	3.638069e-06	7.444450e-09	2.508601e+01	4.879540e+02
1.120000e-06	3.748909e-06	7.691478e-09	2.585030e+01	5.042123e+02
1.130000e-06	3.858532e-06	7.927347e-09	2.660619e+01	5.197973e+02
1.140000e-06	3.967056e-06	8.155362e-09	2.735451e+01	5.347501e+02
1.150000e-06	4.074260e-06	8.374155e-09	2.809373e+01	5.491005e+02
1.160000e-06	4.179913e-06	8.582863e-09	2.882225e+01	5.628692e+02
1.170000e-06	4.283999e-06	8.781540e-09	2.953997e+01	5.760715e+02
1.180000e-06	4.386522e-06	8.972306e-09	3.024691e+01	5.887205e+02
1.190000e-06	4.487560e-06	9.155024e-09	3.094361e+01	6.008302e+02
1.200000e-06	4.587050e-06	9.329450e-09	3.162963e+01	6.124182e+02
1.210000e-06	4.684787e-06	9.496226e-09	3.230357e+01	6.235062e+02
1.220000e-06	4.780700e-06	9.657077e-09	3.296493e+01	6.341205e+02
1.230000e-06	4.874934e-06	9.812436e-09	3.361471e+01	6.442899e+02
1.240000e-06	4.967602e-06	9.962904e-09	3.425370e+01	6.540443e+02
1.250000e-06	5.058576e-06	1.011026e-08	3.488100e+01	6.634117e+02
1.260000e-06	5.147631e-06	1.025262e-08	3.549507e+01	6.724160e+02
1.270000e-06	5.234725e-06	1.038842e-08	3.609562e+01	6.810747e+02
1.280000e-06	5.319979e-06	1.051540e-08	3.668349e+01	6.893985e+02
1.290000e-06	5.403406e-06	1.063654e-08	3.725875e+01	6.973909e+02
1.300000e-06	5.484876e-06	1.075300e-08	3.782052e+01	7.050497e+02
1.310000e-06	5.564338e-06	1.086297e-08	3.836844e+01	7.123686e+02
1.320000e-06	5.641830e-06	1.096805e-08	3.890278e+01	7.193408e+02
1.330000e-06	5.717168e-06	1.106868e-08	3.942227e+01	7.259609e+02
1.340000e-06	5.790157e-06	1.116329e-08	3.992556e+01	7.322283e+02
1.350000e-06	5.860984e-06	1.125124e-08	4.041394e+01	7.381485e+02
1.360000e-06	5.929851e-06	1.133577e-08	4.088881e+01	7.437346e+02
1.370000e-06	5.996638e-06	1.141831e-08	4.134933e+01	7.490065e+02
1.380000e-06	6.061197e-06	1.149700e-08	4.179449e+01	7.539902e+02
1.390000e-06	6.123632e-06	1.156950e-08	4.222501e+01	7.587147e+02
1.400000e-06	6.184086e-06	1.163751e-08	4.264187e+01	7.632099e+02
1.410000e-06	6.242358e-06	1.170279e-08	4.304367e+01	7.675031e+02
1.420000e-06	6.298348e-06	1.176555e-08	4.342975e+01	7.716162e+02
1.430000e-06	6.352114e-06	1.182600e-08	4.380049e+01	7.755636e+02
1.440000e-06	6.403362e-06	1.188451e-08	4.415386e+01	7.793513e+02
1.450000e-06	6.451977e-06	1.194060e-08	4.448909e+01	7.829765e+02
1.460000e-06	6.498212e-06	1.199338e-08	4.480790e+01	7.864293e+02
1.470000e-06	6.542285e-06	1.204394e-08	4.511179e+01	7.896944e+02
1.480000e-06	6.584053e-06	1.209032e-08	4.539980e+01	7.927541e+02
1.490000e-06	6.623385e-06	1.213131e-08	4.567101e+01	7.955912e+02
1.500000e-06	6.660499e-06	1.216695e-08	4.592693e+01	7.981922e+02
1.510000e-06	6.695346e-06	1.220081e-08	4.616721e+01	8.005492e+02
1.520000e-06	6.727704e-06	1.223400e-08	4.639034e+01	8.026617e+02
1.530000e-06	6.757683e-06	1.226283e-08	4.659706e+01	8.045362e+02
1.540000e-06	6.785424e-06	1.228842e-08	4.678834e+01	8.061865e+02
1.550000e-06	6.810671e-06	1.231028e-08	4.696243e+01	8.076307e+02
1.560000e-06	6.833316e-06	1.232819e-08	4.711858e+01	8.088899e+02
1.570000e-06	6.853683e-06	1.234289e-08	4.725902e+01	8.099848e+02
1.580000e-06	6.871642e-06	1.235600e-08	4.738285e+01	8.109332e+02
1.590000e-06	6.886943e-06	1.236873e-08	4.748836e+01	8.117481e+02
1.600000e-06	6.899728e-06	1.237886e-08	4.757652e+01	8.124360e+02
1.610000e-06	6.909816e-06	1.238601e-08	4.764608e+01	8.129969e+02
1.620000e-06	6.917212e-06	1.239186e-08	4.769707e+01	8.134246e+02
1.630000e-06	6.922230e-06	1.239782e-08	4.773168e+01	8.137084e+02
1.640000e-06	6.924843e-06	1.240268e-08	4.774969e+01	8.138353e+02
1.650000e-06	6.924996e-06	1.240350e-08	4.775075e+01	8.137928e+02
1.660000e-06	6.922824e-06	1.239493e-08	4.773577e+01	8.135710e+02
1.670000e-06	6.918435e-06	1.238649e-08	4.770551e+01	8.131649e+02
1.680000e-06	6.911684e-06	1.237852e-08	4.765896e+01	8.125760e+02
1.690000e-06	6.902626e-06	1.236774e-08	4.759650e+01	8.118128e+02
1.700000e-06	6.891398e-06	1.235476e-08	4.751908e+01	8.108900e+02
1.710000e-06	6.877796e-06	1.234207e-08	4.742529e+01	8.098274e+02
1.720000e-06	6.861806e-06	1.233306e-08	4.731503e+01	8.086479e+02
1.730000e-06	6.843685e-06	1.228661e-08	4.719007e+01	8.073746e+02
1.740000e-06	6.823120e-06	1.223638e-08	4.704827e+01	8.060285e+02
1.750000e-06	6.799329e-06	1.223960e-08	4.688422e+01	8.046256e+02
1.760000e-06	6.772433e-06	1.222758e-08	4.669876e+01	8.031754e+02
1.770000e-06	6.743030e-06	1.219915e-08	4.649601e+01	8.016795e+02
1.780000e-06	6.711580e-06	1.222617e-08	4.627916e+01	8.001313e+02
1.790000e-06	6.678672e-06	1.216644e-08	4.605224e+01	7.985166e+02
1.800000e-06	6.644155e-06	1.211473e-08	4.581423e+01	7.968152e+02
1.810000e-06	6.607135e-06	1.215624e-08	4.555896e+01	7.950023e+02
1.820000e-06	6.567701e-06	1.208289e-08	4.528705e+01	7.930514e+02
1.830000e-06	6.526175e-06	1.208981e-08	4.500071e+01	7.909366e+02
1.840000e-06	6.482381e-06	1.206533e-08	4.469873e+01	7.886344e+02
1.850000e-06	6.436373e-06	1.195522e-08	4.438149e+01	7.861260e+02
1.860000e-06	6.387915e-06	1.196571e-08	4.404735e+01	7.833981e+02
1.870000e-06	6.337103e-06	1.188473e-08	4.369698e+01	7.804438e+02
1.880000e-06	6.283887e-06	1.186101e-08	4.333003e+01	7.772624e+02
1.890000e-06	6.227971e-06	1.185044e-08	4.294447e+01	7.738586e+02
1.900000e-06	6.169694e-06	1.174347e-08	4.254263e+01	7.702418e+02
1.910000e-06	6.109124e-06	1.171454e-08	4.212497e+01	7.664241e+02
1.920000e-06	6.046154e-06	1.161725e-08	4.169077e+01	7.624193e+02
1.930000e-06	5.980977e-06	1.156291e-08	4.124134e+01	7.582413e+02
1.940000e-06	5.913666e-06	1.152669e-08	4.077720e+01	7.539026e+02
1.950000e-06	5.844182e-06	1.144161e-08	4.029808e+01	7.494131e+02
1.960000e-06	5.772338e-06	1.138188e-08	3.980269e+01	7.447801e+02
1.970000e-06	5.698231e-06	1.126545e-08	3.929169e+01	7.400067e+02
1.980000e-06	5.621927e-06	1.121574e-08	3.876554e+01	7.350930e+02
1.990000e-06	5.543315e-06	1.115276e-08	3.822348e+01	7.300353e+02
2.000000e-06	5.462682e-06	1.106678e-08	3.766748e+01	7.248273e+02
2.010000e-06	5.380257e-06	1.098563e-08	3.709912e+01	7.194603e+02
2.020000e-06	5.296014e-06	1.088281e-08	3.651823e+01	7.139242e+02
2.030000e-06	5.209745e-06	1.080622e-08	3.592337e+01	7.082085e+02
2.040000e-06	5.121504e-06	1.070891e-08	3.531492e+01	7.023032e+02
2.050000e-06	5.031576e-06	1.063246e-08	3.469483e+01	6.961994e+02
2.060000e-06	4.940025e-06	1.052741e-08	3.406354e+01	6.898903e+02
2.070000e-06	4.846802e-06	1.041367e-08	3.342073e+01	6.833715e+02
2.080000e-06	4.751765e-06	1.030802e-08	3.276541e+01	6.766413e+02
2.090000e-06	4.655056e-06	1.020746e-08	3.209856e+01	6.697007e+02
2.100000e-06	4.556821e-06	1.011902e-08	3.142119e+01	6.625532e+02
2.110000e-06	4.457063e-06	1.000101e-08	3.073332e+01	6.552037e+02
2.120000e-06	4.355786e-06	9.880340e-09	3.003497e+01	6.476580e+02
2.130000e-06	4.252805e-06	9.755640e-09	2.932487e+01	6.399216e+02
2.140000e-06	4.148154e-06	9.640031e-09	2.860326e+01	6.319983e+02
2.150000e-06	4.042085e-06	9.521350e-09	2.787187e+01	6.238896e+02
2.160000e-06	3.934695e-06	9.400547e-09	2.713137e+01	6.155939e+02
2.170000e-06	3.825926e-06	9.267692e-09	2.638137e+01	6.071055e+02
2.180000e-06	3.715681e-06	9.126888e-09	2.562118e+01	5.984152e+02
2.190000e-06	3.603988e-06	8.991213e-09	2.485101e+01	5.895107e+02
2.200000e-06	3.490950e-06	8.856881e-09	2.407156e+01	5.803773e+02
2.210000e-06	3.376528e-06	8.721499e-09	2.328257e+01	5.709993e+02
2.220000e-06	3.260723e-06	8.566952e-09	2.248405e+01	5.613616e+02
2.230000e-06	3.143541e-06	8.405513e-09	2.167604e+01	5.514510e+02
2.240000e-06	3.025043e-06	8.245642e-09	2.085894e+01	5.412577e+02
2.250000e-06	2.905368e-06	8.093987e-09	2.003373e+01	5.307756e+02
2.260000e-06	2.784608e-06	7.939627e-09	1.920104e+01	5.200031e+02
2.270000e-06	2.662918e-06	7.775387e-09	1.836194e+01	5.089426e+02
2.280000e-06	2.540367e-06	7.599797e-09	1.751690e+01	4.975989e+02
2.290000e-06	2.416912e-06	7.418140e-09	1.666562e+01	4.859786e+02
2.300000e-06	2.292597e-06	7.236164e-09	1.580841e+01	4.740875e+02
2.310000e-06	2.167539e-06	7.055048e-09	1.494609e+01	4.619290e+02
2.320000e-06	2.041744e-06	6.870557e-09	1.407868e+01	4.495021e+02
2.330000e-06	1.915161e-06	6.674218e-09	1.320584e+01	4.368007e+02
2.340000e-06	1.787811e-06	6.471598e-09	1.232771e+01	4.238126e+02
2.350000e-06	1.659793e-06	6.267804e-09	1.144497e+01	4.105200e+02
2.360000e-06	1.531206e-06	6.065239e-09	1.055831e+01	3.969005e+02
2.370000e-06	1.402150e-06	5.856061e-09	9.668415e+00	3.829289e+02
2.380000e-06	1.272749e-06	5.634489e-09	8.776139e+00	3.685789e+02
2.390000e-06	1.143019e-06	5.405371e-09	7.881597e+00	3.538259e+02
2.400000e-06	1.012963e-06	5.173149e-09	6.984805e+00	3.386480e+02
2.410000e-06	8.825981e-07	4.938755e-09	6.085884e+00	3.230280e+02
2.420000e-06	7.519432e-07	4.697038e-09	5.184964e+00	3.069529e+02
2.430000e-06	6.210336e-07	4.444051e-09	4.282287e+00	2.904131e+02
2.440000e-06	4.899328e-07	4.178899e-09	3.378292e+00	2.734010e+02
2.450000e-06	3.586745e-07	3.905514e-09	2.473211e+00	2.559078e+02
2.460000e-06	2.272566e-07	3.630518e-09	1.567030e+00	2.379206e+02
2.470000e-06	9.570740e-08	3.353951e-09	6.599426e-01	2.194194e+02
2.480000e-06	-3.593037e-08	3.071128e-09	-2.477550e-01	2.003744e+02
2.490000e-06	-1.675341e-07	2.772770e-09	-1.155218e+00	1.807453e+02
2.500000e-06	-2.990370e-07	2.458310e-09	-2.061986e+00	1.604815e+02
2.510000e-06	-4.304756e-07	2.133537e-09	-2.968310e+00	1.395246e+02
2.520000e-06	-5.617998e-07	1.798700e-09	-3.873845e+00	1.178128e+02
2.530000e-06	-6.929360e-07	1.455002e-09	-4.778084e+00	9.528678e+01
2.540000e-06	-8.238372e-07	1.099392e-09	-5.680703e+00	7.189771e+01
2.550000e-06	-9.544276e-07	7.316444e-10	-6.581178e+00	4.761466e+01
2.560000e-06	-1.084676e-06	3.528855e-10	-7.479292e+00	2.243262e+01
2.570000e-06	-1.214580e-06	-3.751628e-11	-8.375039e+00	-3.621022e+00
2.580000e-06	-1.344129e-06	-4.419836e-10	-9.268332e+00	-3.048189e+01
2.590000e-06	-1.473302e-06	-8.633041e-10	-1.015904e+01	-5.804675e+01
2.600000e-06	-1.601996e-06	-1.297240e-09	-1.104643e+01	-8.617473e+01
2.610000e-06	-1.730051e-06	-1.737302e-09	-1.192943e+01	-1.146917e+02
2.620000e-06	-1.857369e-06	-2.178677e-09	-1.280734e+01	-1.433978e+02
2.630000e-06	-1.983922e-06	-2.617235e-09	-1.367997e+01	-1.720769e+02
2.640000e-06	-2.109755e-06	-3.052610e-09	-1.454764e+01	-2.005084e+02
2.650000e-06	-2.234824e-06	-3.485004e-09	-1.541005e+01	-2.284786e+02
2.660000e-06	-2.358971e-06	-3.905625e-09	-1.626609e+01	-2.557926e+02
2.670000e-06	-2.482164e-06	-4.306387e-09	-1.711556e+01	-2.822834e+02
2.680000e-06	-2.604431e-06	-4.688921e-09	-1.795864e+01	-3.078197e+02
2.690000e-06	-2.725754e-06	-5.057338e-09	-1.879522e+01	-3.323095e+02
2.700000e-06	-2.846081e-06	-5.412489e-09	-1.962492e+01	-3.557017e+02
2.710000e-06	-2.965285e-06	-5.754176e-09	-2.044688e+01	-3.779835e+02
2.720000e-06	-3.083355e-06	-6.080240e-09	-2.126102e+01	-3.991751e+02
2.730000e-06	-3.200221e-06	-6.389529e-09	-2.206687e+01	-4.193228e+02
2.740000e-06	-3.315738e-06	-6.683333e-09	-2.286340e+01	-4.384908e+02
2.750000e-06	-3.429893e-06	-6.964424e-09	-2.365055e+01	-4.567523e+02
2.760000e-06	-3.542672e-06	-7.234402e-09	-2.442821e+01	-4.741820e+02
2.770000e-06	-3.654054e-06	-7.491862e-09	-2.519624e+01	-4.908494e+02
2.780000e-06	-3.764083e-06	-7.735008e-09	-2.595493e+01	-5.068145e+02
2.790000e-06	-3.872857e-06	-7.966639e-09	-2.670497e+01	-5.221253e+02
2.800000e-06	-3.980432e-06	-8.188612e-09	-2.744674e+01	-5.368180e+02
2.810000e-06	-4.086729e-06	-8.402311e-09	-2.817971e+01	-5.509181e+02
2.820000e-06	-4.191651e-06	-8.609532e-09	-2.890319e+01	-5.644435e+02
2.830000e-06	-4.294939e-06	-8.808987e-09	-2.961541e+01	-5.774082e+02
2.840000e-06	-4.396528e-06	-9.001193e-09	-3.031590e+01	-5.898254e+02
2.850000e-06	-4.496542e-06	-9.185708e-09	-3.100554e+01	-6.017103e+02
2.860000e-06	-4.595034e-06	-9.362203e-09	-3.168469e+01	-6.130822e+02
2.870000e-06	-4.692030e-06	-9.530156e-09	-3.235351e+01	-6.239649e+02
2.880000e-06	-4.787346e-06	-9.688360e-09	-3.301076e+01	-6.343860e+02
2.890000e-06	-4.880845e-06	-9.837444e-09	-3.365547e+01	-6.443751e+02
2.900000e-06	-4.972615e-06	-9.979998e-09	-3.428826e+01	-6.539615e+02
2.910000e-06	-5.062721e-06	-1.011904e-08	-3.490958e+01	-6.631719e+02
2.920000e-06	-5.151015e-06	-1.025476e-08	-3.551840e+01	-6.720274e+02
2.930000e-06	-5.237271e-06	-1.038637e-08	-3.611318e+01	-6.805429e+02
2.940000e-06	-5.321492e-06	-1.051209e-08	-3.669392e+01	-6.887257e+02
