# Temperatura_=_43.13
# Concentracion g/m^3_=_15000.0
# C_Vs_to_Am_M_A/Vsm_=_65563218390.804596
# pendiente_HvsI_1/m_=_3716.3
# ordenada_HvsI_A/m_=_1297.0
# frecuencia_Hz_=_301971.78034288285

Tiempo_(s)	Campo_(V.s)	Magnetizacion_(V.s)	Campo_(kA/m)	Magnetizacion_(A/m)
0.000000e+00	-6.868356e-06	-1.010473e-08	-4.746880e+01	-6.622081e+02
1.000000e-08	-6.864681e-06	-1.010430e-08	-4.744340e+01	-6.619599e+02
2.000000e-08	-6.858792e-06	-1.009828e-08	-4.740270e+01	-6.615752e+02
3.000000e-08	-6.850752e-06	-1.009352e-08	-4.734714e+01	-6.610630e+02
4.000000e-08	-6.840324e-06	-1.008644e-08	-4.727507e+01	-6.604367e+02
5.000000e-08	-6.827397e-06	-1.007364e-08	-4.718573e+01	-6.597125e+02
6.000000e-08	-6.811984e-06	-1.005276e-08	-4.707920e+01	-6.589081e+02
7.000000e-08	-6.794232e-06	-1.002912e-08	-4.695651e+01	-6.580404e+02
8.000000e-08	-6.774380e-06	-1.005200e-08	-4.681931e+01	-6.571242e+02
9.000000e-08	-6.752139e-06	-1.009817e-08	-4.666560e+01	-6.561702e+02
1.000000e-07	-6.727039e-06	-1.004983e-08	-4.649212e+01	-6.551841e+02
1.100000e-07	-6.699197e-06	-9.993039e-09	-4.629971e+01	-6.541656e+02
1.200000e-07	-6.669054e-06	-9.979160e-09	-4.609138e+01	-6.531088e+02
1.300000e-07	-6.636949e-06	-9.903193e-09	-4.586949e+01	-6.520024e+02
1.400000e-07	-6.602959e-06	-9.842628e-09	-4.563458e+01	-6.508313e+02
1.500000e-07	-6.567058e-06	-9.987774e-09	-4.538646e+01	-6.495772e+02
1.600000e-07	-6.529104e-06	-9.905927e-09	-4.512415e+01	-6.482211e+02
1.700000e-07	-6.489014e-06	-9.804991e-09	-4.484708e+01	-6.467443e+02
1.800000e-07	-6.446556e-06	-9.896949e-09	-4.455364e+01	-6.451303e+02
1.900000e-07	-6.401534e-06	-9.775410e-09	-4.424248e+01	-6.433655e+02
2.000000e-07	-6.354167e-06	-9.776281e-09	-4.391512e+01	-6.414403e+02
2.100000e-07	-6.304171e-06	-9.792247e-09	-4.356958e+01	-6.393496e+02
2.200000e-07	-6.251506e-06	-9.725953e-09	-4.320561e+01	-6.370921e+02
2.300000e-07	-6.196442e-06	-9.690787e-09	-4.282505e+01	-6.346704e+02
2.400000e-07	-6.138929e-06	-9.609393e-09	-4.242756e+01	-6.320901e+02
2.500000e-07	-6.079150e-06	-9.602921e-09	-4.201441e+01	-6.293588e+02
2.600000e-07	-6.017225e-06	-9.570492e-09	-4.158644e+01	-6.264853e+02
2.700000e-07	-5.953073e-06	-9.487185e-09	-4.114306e+01	-6.234786e+02
2.800000e-07	-5.886656e-06	-9.441470e-09	-4.068404e+01	-6.203468e+02
2.900000e-07	-5.818017e-06	-9.395777e-09	-4.020966e+01	-6.170969e+02
3.000000e-07	-5.747271e-06	-9.377574e-09	-3.972072e+01	-6.137336e+02
3.100000e-07	-5.674362e-06	-9.310052e-09	-3.921683e+01	-6.102597e+02
3.200000e-07	-5.599193e-06	-9.264321e-09	-3.869732e+01	-6.066754e+02
3.300000e-07	-5.521772e-06	-9.205547e-09	-3.816225e+01	-6.029784e+02
3.400000e-07	-5.442115e-06	-9.115489e-09	-3.761172e+01	-5.991647e+02
3.500000e-07	-5.360395e-06	-9.075374e-09	-3.704693e+01	-5.952282e+02
3.600000e-07	-5.276921e-06	-9.030299e-09	-3.647002e+01	-5.911617e+02
3.700000e-07	-5.191727e-06	-8.980873e-09	-3.588123e+01	-5.869572e+02
3.800000e-07	-5.104797e-06	-8.889135e-09	-3.528044e+01	-5.826068e+02
3.900000e-07	-5.015981e-06	-8.811912e-09	-3.466661e+01	-5.781031e+02
4.000000e-07	-4.925283e-06	-8.743588e-09	-3.403977e+01	-5.734401e+02
4.100000e-07	-4.832967e-06	-8.671290e-09	-3.340176e+01	-5.686133e+02
4.200000e-07	-4.739064e-06	-8.607497e-09	-3.275277e+01	-5.636202e+02
4.300000e-07	-4.643454e-06	-8.526691e-09	-3.209199e+01	-5.584606e+02
4.400000e-07	-4.546071e-06	-8.443358e-09	-3.141895e+01	-5.531359e+02
4.500000e-07	-4.447015e-06	-8.355527e-09	-3.073435e+01	-5.476493e+02
4.600000e-07	-4.346400e-06	-8.274571e-09	-3.003898e+01	-5.420045e+02
4.700000e-07	-4.244322e-06	-8.186734e-09	-2.933349e+01	-5.362053e+02
4.800000e-07	-4.140806e-06	-8.090775e-09	-2.861807e+01	-5.302542e+02
4.900000e-07	-4.035761e-06	-7.991602e-09	-2.789208e+01	-5.241522e+02
5.000000e-07	-3.929168e-06	-7.895195e-09	-2.715539e+01	-5.178971e+02
5.100000e-07	-3.821084e-06	-7.803744e-09	-2.640839e+01	-5.114839e+02
5.200000e-07	-3.711634e-06	-7.708274e-09	-2.565196e+01	-5.049041e+02
5.300000e-07	-3.600998e-06	-7.600953e-09	-2.488733e+01	-4.981463e+02
5.400000e-07	-3.489017e-06	-7.482122e-09	-2.411340e+01	-4.911969e+02
5.500000e-07	-3.375461e-06	-7.369392e-09	-2.332860e+01	-4.840410e+02
5.600000e-07	-3.260441e-06	-7.263156e-09	-2.253366e+01	-4.766638e+02
5.700000e-07	-3.144068e-06	-7.153879e-09	-2.172938e+01	-4.690520e+02
5.800000e-07	-3.026435e-06	-7.035922e-09	-2.091640e+01	-4.611947e+02
5.900000e-07	-2.907742e-06	-6.911877e-09	-2.009608e+01	-4.530845e+02
6.000000e-07	-2.788075e-06	-6.779765e-09	-1.926903e+01	-4.447179e+02
6.100000e-07	-2.667364e-06	-6.644073e-09	-1.843477e+01	-4.360950e+02
6.200000e-07	-2.545557e-06	-6.507085e-09	-1.759294e+01	-4.272189e+02
6.300000e-07	-2.422782e-06	-6.370531e-09	-1.674441e+01	-4.180945e+02
6.400000e-07	-2.299117e-06	-6.229393e-09	-1.588973e+01	-4.087267e+02
6.500000e-07	-2.174549e-06	-6.081888e-09	-1.502881e+01	-3.991190e+02
6.600000e-07	-2.049265e-06	-5.933231e-09	-1.416295e+01	-3.892716e+02
6.700000e-07	-1.923404e-06	-5.778837e-09	-1.329309e+01	-3.791805e+02
6.800000e-07	-1.796883e-06	-5.618375e-09	-1.241867e+01	-3.688366e+02
6.900000e-07	-1.669720e-06	-5.452579e-09	-1.153982e+01	-3.582255e+02
7.000000e-07	-1.542046e-06	-5.284304e-09	-1.065743e+01	-3.473288e+02
7.100000e-07	-1.413864e-06	-5.112983e-09	-9.771545e+00	-3.361250e+02
7.200000e-07	-1.285165e-06	-4.938574e-09	-8.882075e+00	-3.245914e+02
7.300000e-07	-1.156039e-06	-4.758679e-09	-7.989655e+00	-3.127064e+02
7.400000e-07	-1.026478e-06	-4.569926e-09	-7.094229e+00	-3.004510e+02
7.500000e-07	-8.965034e-07	-4.375101e-09	-6.195943e+00	-2.878106e+02
7.600000e-07	-7.662174e-07	-4.175897e-09	-5.295506e+00	-2.747756e+02
7.700000e-07	-6.356659e-07	-3.971609e-09	-4.393235e+00	-2.613410e+02
7.800000e-07	-5.048950e-07	-3.763347e-09	-3.489446e+00	-2.475053e+02
7.900000e-07	-3.739815e-07	-3.550190e-09	-2.584673e+00	-2.332685e+02
8.000000e-07	-2.429630e-07	-3.328603e-09	-1.679174e+00	-2.186293e+02
8.100000e-07	-1.118171e-07	-3.098679e-09	-7.727939e-01	-2.035821e+02
8.200000e-07	1.940590e-08	-2.863427e-09	1.341187e-01	-1.881142e+02
8.300000e-07	1.506392e-07	-2.621554e-09	1.041103e+00	-1.722038e+02
8.400000e-07	2.818469e-07	-2.370713e-09	1.947910e+00	-1.558190e+02
8.500000e-07	4.129734e-07	-2.113206e-09	2.854155e+00	-1.389182e+02
8.600000e-07	5.439523e-07	-1.848002e-09	3.759380e+00	-1.214525e+02
8.700000e-07	6.747823e-07	-1.571249e-09	4.663577e+00	-1.033696e+02
8.800000e-07	8.054673e-07	-1.282159e-09	5.566771e+00	-8.461895e+01
8.900000e-07	9.359256e-07	-9.832260e-10	6.468399e+00	-6.515803e+01
9.000000e-07	1.066087e-06	-6.772098e-10	7.367975e+00	-4.495921e+01
9.100000e-07	1.195891e-06	-3.604811e-10	8.265078e+00	-2.401597e+01
9.200000e-07	1.325264e-06	-3.173274e-11	9.159203e+00	-2.348269e+00
9.300000e-07	1.454052e-06	3.077955e-10	1.004929e+01	1.999376e+01
9.400000e-07	1.582220e-06	6.562623e-10	1.093509e+01	4.292839e+01
9.500000e-07	1.709823e-06	1.014681e-09	1.181698e+01	6.634331e+01
9.600000e-07	1.836772e-06	1.381479e-09	1.269436e+01	9.009920e+01
9.700000e-07	1.963024e-06	1.751193e-09	1.356692e+01	1.140356e+02
9.800000e-07	2.088657e-06	2.120036e-09	1.443519e+01	1.379787e+02
9.900000e-07	2.213641e-06	2.483647e-09	1.529899e+01	1.617501e+02
1.000000e-06	2.337844e-06	2.840517e-09	1.615738e+01	1.851762e+02
1.010000e-06	2.461231e-06	3.188498e-09	1.701014e+01	2.080973e+02
1.020000e-06	2.583710e-06	3.525385e-09	1.785662e+01	2.303747e+02
1.030000e-06	2.705177e-06	3.850826e-09	1.869610e+01	2.518969e+02
1.040000e-06	2.825525e-06	4.163931e-09	1.952786e+01	2.725828e+02
1.050000e-06	2.944709e-06	4.467183e-09	2.035157e+01	2.923831e+02
1.060000e-06	3.062894e-06	4.755961e-09	2.116837e+01	3.112783e+02
1.070000e-06	3.180095e-06	5.029680e-09	2.197838e+01	3.292758e+02
1.080000e-06	3.296111e-06	5.288470e-09	2.278019e+01	3.464042e+02
1.090000e-06	3.410779e-06	5.533588e-09	2.357268e+01	3.627078e+02
1.100000e-06	3.524001e-06	5.769657e-09	2.435519e+01	3.782399e+02
1.110000e-06	3.635831e-06	5.995999e-09	2.512807e+01	3.930571e+02
1.120000e-06	3.746456e-06	6.213573e-09	2.589262e+01	4.072141e+02
1.130000e-06	3.855931e-06	6.422618e-09	2.664924e+01	4.207598e+02
1.140000e-06	3.964114e-06	6.621522e-09	2.739691e+01	4.337354e+02
1.150000e-06	4.070917e-06	6.810128e-09	2.813505e+01	4.461732e+02
1.160000e-06	4.176244e-06	6.988823e-09	2.886299e+01	4.580972e+02
1.170000e-06	4.279942e-06	7.158834e-09	2.957967e+01	4.695247e+02
1.180000e-06	4.382084e-06	7.323364e-09	3.028559e+01	4.804680e+02
1.190000e-06	4.482768e-06	7.481166e-09	3.098145e+01	4.909371e+02
1.200000e-06	4.581926e-06	7.632764e-09	3.166675e+01	5.009411e+02
1.210000e-06	4.679363e-06	7.779310e-09	3.234016e+01	5.104905e+02
1.220000e-06	4.774953e-06	7.922205e-09	3.300080e+01	5.195976e+02
1.230000e-06	4.868810e-06	8.058868e-09	3.364948e+01	5.282771e+02
1.240000e-06	4.961105e-06	8.188345e-09	3.428735e+01	5.365458e+02
1.250000e-06	5.051762e-06	8.309898e-09	3.491390e+01	5.444215e+02
1.260000e-06	5.140490e-06	8.425255e-09	3.552712e+01	5.519225e+02
1.270000e-06	5.227257e-06	8.534848e-09	3.612679e+01	5.590667e+02
1.280000e-06	5.312260e-06	8.638628e-09	3.671426e+01	5.658703e+02
1.290000e-06	5.395534e-06	8.738583e-09	3.728979e+01	5.723481e+02
1.300000e-06	5.476802e-06	8.830862e-09	3.785145e+01	5.785131e+02
1.310000e-06	5.555947e-06	8.917417e-09	3.839844e+01	5.843772e+02
1.320000e-06	5.633120e-06	9.001450e-09	3.893180e+01	5.899514e+02
1.330000e-06	5.708141e-06	9.081482e-09	3.945029e+01	5.952469e+02
1.340000e-06	5.780839e-06	9.157321e-09	3.995272e+01	6.002757e+02
1.350000e-06	5.851421e-06	9.229591e-09	4.044053e+01	6.050508e+02
1.360000e-06	5.920034e-06	9.298027e-09	4.091472e+01	6.095864e+02
1.370000e-06	5.986553e-06	9.363795e-09	4.137445e+01	6.138976e+02
1.380000e-06	6.050833e-06	9.427819e-09	4.181871e+01	6.179997e+02
1.390000e-06	6.112983e-06	9.489235e-09	4.224825e+01	6.219072e+02
1.400000e-06	6.173193e-06	9.547749e-09	4.266437e+01	6.256328e+02
1.410000e-06	6.231263e-06	9.602400e-09	4.306570e+01	6.291861e+02
1.420000e-06	6.287067e-06	9.653442e-09	4.345138e+01	6.325735e+02
1.430000e-06	6.340634e-06	9.702100e-09	4.382159e+01	6.357973e+02
1.440000e-06	6.391625e-06	9.748713e-09	4.417400e+01	6.388561e+02
1.450000e-06	6.439931e-06	9.792427e-09	4.450785e+01	6.417456e+02
1.460000e-06	6.485899e-06	9.832779e-09	4.482555e+01	6.444594e+02
1.470000e-06	6.529767e-06	9.870356e-09	4.512874e+01	6.469907e+02
1.480000e-06	6.571282e-06	9.903453e-09	4.541565e+01	6.493338e+02
1.490000e-06	6.610321e-06	9.933320e-09	4.568546e+01	6.514853e+02
1.500000e-06	6.647176e-06	9.961012e-09	4.594017e+01	6.534454e+02
1.510000e-06	6.681831e-06	9.988265e-09	4.617968e+01	6.552181e+02
1.520000e-06	6.714083e-06	1.001479e-08	4.640258e+01	6.568117e+02
1.530000e-06	6.743918e-06	1.003588e-08	4.660878e+01	6.582379e+02
1.540000e-06	6.771472e-06	1.005308e-08	4.679921e+01	6.595105e+02
1.550000e-06	6.796534e-06	1.006915e-08	4.697242e+01	6.606443e+02
1.560000e-06	6.818949e-06	1.008431e-08	4.712734e+01	6.616533e+02
1.570000e-06	6.839066e-06	1.009684e-08	4.726637e+01	6.625491e+02
1.580000e-06	6.856836e-06	1.010682e-08	4.738918e+01	6.633398e+02
1.590000e-06	6.872030e-06	1.011693e-08	4.749419e+01	6.640290e+02
1.600000e-06	6.884669e-06	1.012643e-08	4.758155e+01	6.646160e+02
1.610000e-06	6.894562e-06	1.013343e-08	4.764991e+01	6.650962e+02
1.620000e-06	6.901773e-06	1.013832e-08	4.769975e+01	6.654620e+02
1.630000e-06	6.906669e-06	1.014236e-08	4.773359e+01	6.657045e+02
1.640000e-06	6.909152e-06	1.014510e-08	4.775075e+01	6.658153e+02
1.650000e-06	6.909122e-06	1.014752e-08	4.775054e+01	6.657878e+02
1.660000e-06	6.906801e-06	1.014010e-08	4.773450e+01	6.656190e+02
1.670000e-06	6.902309e-06	1.013455e-08	4.770346e+01	6.653107e+02
1.680000e-06	6.895475e-06	1.013017e-08	4.765623e+01	6.648691e+02
1.690000e-06	6.886318e-06	1.012196e-08	4.759294e+01	6.643053e+02
1.700000e-06	6.874954e-06	1.011290e-08	4.751440e+01	6.636340e+02
1.710000e-06	6.861166e-06	1.010700e-08	4.741911e+01	6.628724e+02
1.720000e-06	6.845050e-06	1.011520e-08	4.730773e+01	6.620380e+02
1.730000e-06	6.826897e-06	1.006605e-08	4.718227e+01	6.611470e+02
1.740000e-06	6.806247e-06	9.980499e-09	4.703955e+01	6.602127e+02
1.750000e-06	6.782276e-06	1.000369e-08	4.687388e+01	6.592438e+02
1.760000e-06	6.755225e-06	1.001216e-08	4.668692e+01	6.582432e+02
1.770000e-06	6.725805e-06	9.986779e-09	4.648360e+01	6.572085e+02
1.780000e-06	6.694396e-06	1.008906e-08	4.626652e+01	6.561313e+02
1.790000e-06	6.661505e-06	1.001867e-08	4.603921e+01	6.549983e+02
1.800000e-06	6.626968e-06	9.876509e-09	4.580051e+01	6.537931e+02
1.810000e-06	6.589815e-06	9.992459e-09	4.554374e+01	6.524968e+02
1.820000e-06	6.550283e-06	9.893354e-09	4.527052e+01	6.510903e+02
1.830000e-06	6.508779e-06	9.909557e-09	4.498368e+01	6.495557e+02
1.840000e-06	6.464953e-06	9.969965e-09	4.468079e+01	6.478776e+02
1.850000e-06	6.418931e-06	9.776192e-09	4.436272e+01	6.460441e+02
1.860000e-06	6.370491e-06	9.838908e-09	4.402794e+01	6.440475e+02
1.870000e-06	6.319714e-06	9.759749e-09	4.367700e+01	6.418844e+02
1.880000e-06	6.266550e-06	9.731188e-09	4.330958e+01	6.395551e+02
1.890000e-06	6.210585e-06	9.773415e-09	4.292279e+01	6.370637e+02
1.900000e-06	6.152280e-06	9.612682e-09	4.251983e+01	6.344168e+02
1.910000e-06	6.091648e-06	9.664617e-09	4.210079e+01	6.316226e+02
1.920000e-06	6.028668e-06	9.581777e-09	4.166552e+01	6.286901e+02
1.930000e-06	5.963591e-06	9.516194e-09	4.121576e+01	6.256280e+02
1.940000e-06	5.896419e-06	9.523912e-09	4.075152e+01	6.224440e+02
1.950000e-06	5.827089e-06	9.404740e-09	4.027236e+01	6.191441e+02
1.960000e-06	5.755328e-06	9.402117e-09	3.977641e+01	6.157324e+02
1.970000e-06	5.681291e-06	9.287740e-09	3.926472e+01	6.122104e+02
1.980000e-06	5.605041e-06	9.291527e-09	3.873774e+01	6.085773e+02
1.990000e-06	5.526495e-06	9.262914e-09	3.819489e+01	6.048301e+02
2.000000e-06	5.445948e-06	9.153219e-09	3.763821e+01	6.009637e+02
2.010000e-06	5.363573e-06	9.106285e-09	3.706889e+01	5.969716e+02
2.020000e-06	5.279426e-06	9.003438e-09	3.648734e+01	5.928460e+02
2.030000e-06	5.193252e-06	8.973498e-09	3.589177e+01	5.885791e+02
2.040000e-06	5.105065e-06	8.893573e-09	3.528228e+01	5.841630e+02
2.050000e-06	5.015221e-06	8.856093e-09	3.466136e+01	5.795908e+02
2.060000e-06	4.923872e-06	8.777436e-09	3.403002e+01	5.748571e+02
2.070000e-06	4.830828e-06	8.668480e-09	3.338697e+01	5.699583e+02
2.080000e-06	4.735889e-06	8.595135e-09	3.273082e+01	5.648929e+02
2.090000e-06	4.639293e-06	8.510818e-09	3.206323e+01	5.596614e+02
2.100000e-06	4.541194e-06	8.453920e-09	3.138525e+01	5.542661e+02
2.110000e-06	4.441628e-06	8.350679e-09	3.069712e+01	5.487103e+02
2.120000e-06	4.340425e-06	8.274022e-09	2.999768e+01	5.429980e+02
2.130000e-06	4.237532e-06	8.188144e-09	2.928656e+01	5.371326e+02
2.140000e-06	4.133096e-06	8.102641e-09	2.856478e+01	5.311160e+02
2.150000e-06	4.027230e-06	8.004621e-09	2.783312e+01	5.249480e+02
2.160000e-06	3.920009e-06	7.903519e-09	2.709209e+01	5.186251e+02
2.170000e-06	3.811341e-06	7.804875e-09	2.634106e+01	5.121408e+02
2.180000e-06	3.701261e-06	7.701756e-09	2.558027e+01	5.054854e+02
2.190000e-06	3.589811e-06	7.607299e-09	2.481002e+01	4.986464e+02
2.200000e-06	3.477012e-06	7.498131e-09	2.403044e+01	4.916095e+02
2.210000e-06	3.362836e-06	7.389622e-09	2.324134e+01	4.843596e+02
2.220000e-06	3.247302e-06	7.261258e-09	2.244285e+01	4.768825e+02
2.230000e-06	3.130332e-06	7.138252e-09	2.163445e+01	4.691658e+02
2.240000e-06	3.012019e-06	7.017388e-09	2.081676e+01	4.611999e+02
2.250000e-06	2.892584e-06	6.906053e-09	1.999132e+01	4.529792e+02
2.260000e-06	2.772017e-06	6.785259e-09	1.915805e+01	4.445016e+02
2.270000e-06	2.650481e-06	6.649977e-09	1.831809e+01	4.357689e+02
2.280000e-06	2.528076e-06	6.508098e-09	1.747212e+01	4.267848e+02
2.290000e-06	2.404842e-06	6.366706e-09	1.662042e+01	4.175547e+02
2.300000e-06	2.280780e-06	6.224047e-09	1.576300e+01	4.080829e+02
2.310000e-06	2.155958e-06	6.076787e-09	1.490032e+01	3.983718e+02
2.320000e-06	2.030344e-06	5.930120e-09	1.403218e+01	3.884199e+02
2.330000e-06	1.903855e-06	5.772173e-09	1.315798e+01	3.782210e+02
2.340000e-06	1.776695e-06	5.612123e-09	1.227915e+01	3.677637e+02
2.350000e-06	1.649046e-06	5.448129e-09	1.139694e+01	3.570319e+02
2.360000e-06	1.520904e-06	5.283193e-09	1.051132e+01	3.460054e+02
2.370000e-06	1.392214e-06	5.111220e-09	9.621912e+00	3.346622e+02
2.380000e-06	1.263025e-06	4.930421e-09	8.729055e+00	3.229796e+02
2.390000e-06	1.133444e-06	4.747229e-09	7.833497e+00	3.109371e+02
2.400000e-06	1.003548e-06	4.559436e-09	6.935754e+00	2.985173e+02
2.410000e-06	8.733769e-07	4.366336e-09	6.036110e+00	2.857079e+02
2.420000e-06	7.429790e-07	4.165737e-09	5.134900e+00	2.725011e+02
2.430000e-06	6.123819e-07	3.958227e-09	4.232313e+00	2.588937e+02
2.440000e-06	4.815660e-07	3.742830e-09	3.328214e+00	2.448852e+02
2.450000e-06	3.505729e-07	3.520599e-09	2.422891e+00	2.304755e+02
2.460000e-06	2.194396e-07	3.294181e-09	1.516598e+00	2.156616e+02
2.470000e-06	8.822829e-08	3.062752e-09	6.097662e-01	2.004353e+02
2.480000e-06	-4.305012e-08	2.826146e-09	-2.975294e-01	1.847801e+02
2.490000e-06	-1.743637e-07	2.580503e-09	-1.205068e+00	1.686701e+02
2.500000e-06	-3.055902e-07	2.324452e-09	-2.112004e+00	1.520688e+02
2.510000e-06	-4.366891e-07	2.057933e-09	-3.018060e+00	1.349314e+02
2.520000e-06	-5.676501e-07	1.782374e-09	-3.923162e+00	1.172067e+02
2.530000e-06	-6.984450e-07	1.502358e-09	-4.827115e+00	9.884264e+01
2.540000e-06	-8.290215e-07	1.215273e-09	-5.729559e+00	7.979119e+01
2.550000e-06	-9.593224e-07	9.181307e-10	-6.630099e+00	6.001546e+01
2.560000e-06	-1.089360e-06	6.104127e-10	-7.528823e+00	3.949608e+01
2.570000e-06	-1.219097e-06	2.899487e-10	-8.425462e+00	1.823735e+01
2.580000e-06	-1.348410e-06	-4.387972e-11	-9.319175e+00	-3.728191e+00
2.590000e-06	-1.477256e-06	-3.894121e-10	-1.020966e+01	-2.633690e+01
2.600000e-06	-1.605600e-06	-7.444029e-10	-1.109667e+01	-4.949368e+01
2.610000e-06	-1.733296e-06	-1.105397e-09	-1.197921e+01	-7.307405e+01
2.620000e-06	-1.860318e-06	-1.469196e-09	-1.285709e+01	-9.692879e+01
2.630000e-06	-1.986707e-06	-1.831643e-09	-1.373059e+01	-1.208907e+02
2.640000e-06	-2.112324e-06	-2.192981e-09	-1.459876e+01	-1.447828e+02
2.650000e-06	-2.237033e-06	-2.555000e-09	-1.546065e+01	-1.684278e+02
2.660000e-06	-2.360836e-06	-2.913824e-09	-1.631628e+01	-1.916568e+02
2.670000e-06	-2.483694e-06	-3.263663e-09	-1.716539e+01	-2.143184e+02
2.680000e-06	-2.605596e-06	-3.601797e-09	-1.800788e+01	-2.362849e+02
2.690000e-06	-2.726592e-06	-3.924319e-09	-1.884411e+01	-2.574577e+02
2.700000e-06	-2.846625e-06	-4.228204e-09	-1.967369e+01	-2.777692e+02
2.710000e-06	-2.965563e-06	-4.518514e-09	-2.049569e+01	-2.971832e+02
2.720000e-06	-3.083292e-06	-4.799752e-09	-2.130935e+01	-3.156922e+02
2.730000e-06	-3.199740e-06	-5.069642e-09	-2.211414e+01	-3.333135e+02
2.740000e-06	-3.314871e-06	-5.327595e-09	-2.290984e+01	-3.500832e+02
2.750000e-06	-3.428732e-06	-5.574275e-09	-2.369676e+01	-3.660502e+02
2.760000e-06	-3.541236e-06	-5.810014e-09	-2.447430e+01	-3.812699e+02
2.770000e-06	-3.652276e-06	-6.035800e-09	-2.524173e+01	-3.957986e+02
2.780000e-06	-3.761976e-06	-6.251114e-09	-2.599989e+01	-4.096889e+02
2.790000e-06	-3.870495e-06	-6.456883e-09	-2.674989e+01	-4.229866e+02
2.800000e-06	-3.977820e-06	-6.652201e-09	-2.749164e+01	-4.357291e+02
2.810000e-06	-4.083778e-06	-6.838255e-09	-2.822394e+01	-4.479451e+02
2.820000e-06	-4.188232e-06	-7.016237e-09	-2.894584e+01	-4.596554e+02
2.830000e-06	-4.291136e-06	-7.185592e-09	-2.965704e+01	-4.708750e+02
2.840000e-06	-4.392389e-06	-7.347336e-09	-3.035682e+01	-4.816148e+02
2.850000e-06	-4.492067e-06	-7.501875e-09	-3.104571e+01	-4.918842e+02
2.860000e-06	-4.590288e-06	-7.650989e-09	-3.172454e+01	-5.016929e+02
2.870000e-06	-4.686946e-06	-7.794943e-09	-3.239257e+01	-5.110519e+02
2.880000e-06	-4.781926e-06	-7.930935e-09	-3.304900e+01	-5.199747e+02
2.890000e-06	-4.875078e-06	-8.057856e-09	-3.369280e+01	-5.284769e+02
2.900000e-06	-4.966522e-06	-8.177742e-09	-3.432479e+01	-5.365758e+02
2.910000e-06	-5.056327e-06	-8.294450e-09	-3.494545e+01	-5.442896e+02
2.920000e-06	-5.144221e-06	-8.407556e-09	-3.555290e+01	-5.516364e+02
2.930000e-06	-5.230095e-06	-8.517161e-09	-3.614640e+01	-5.586336e+02
2.940000e-06	-5.314031e-06	-8.622983e-09	-3.672650e+01	-5.652967e+02
