# Temperatura_=_54.13
# Concentracion g/m^3_=_15000.0
# C_Vs_to_Am_M_A/Vsm_=_65563218390.804596
# pendiente_HvsI_1/m_=_3716.3
# ordenada_HvsI_A/m_=_1297.0
# frecuencia_Hz_=_301974.7774726012

Tiempo_(s)	Campo_(V.s)	Magnetizacion_(V.s)	Campo_(kA/m)	Magnetizacion_(A/m)
0.000000e+00	-6.860566e-06	-1.044204e-08	-4.746914e+01	-6.842021e+02
1.000000e-08	-6.856932e-06	-1.043916e-08	-4.744400e+01	-6.839365e+02
2.000000e-08	-6.851103e-06	-1.043342e-08	-4.740367e+01	-6.835394e+02
3.000000e-08	-6.843168e-06	-1.042818e-08	-4.734876e+01	-6.830164e+02
4.000000e-08	-6.832876e-06	-1.042184e-08	-4.727755e+01	-6.823765e+02
5.000000e-08	-6.820074e-06	-1.041123e-08	-4.718897e+01	-6.816320e+02
6.000000e-08	-6.804798e-06	-1.039505e-08	-4.708328e+01	-6.807965e+02
7.000000e-08	-6.787196e-06	-1.037773e-08	-4.696149e+01	-6.798842e+02
8.000000e-08	-6.767443e-06	-1.038630e-08	-4.682481e+01	-6.789078e+02
9.000000e-08	-6.745249e-06	-1.040345e-08	-4.667125e+01	-6.778773e+02
1.000000e-07	-6.720189e-06	-1.036956e-08	-4.649785e+01	-6.767990e+02
1.100000e-07	-6.692435e-06	-1.032558e-08	-4.630582e+01	-6.756741e+02
1.200000e-07	-6.662423e-06	-1.029927e-08	-4.609817e+01	-6.744994e+02
1.300000e-07	-6.630440e-06	-1.024340e-08	-4.587687e+01	-6.732664e+02
1.400000e-07	-6.596520e-06	-1.020726e-08	-4.564218e+01	-6.719629e+02
1.500000e-07	-6.560628e-06	-1.026104e-08	-4.539383e+01	-6.705736e+02
1.600000e-07	-6.522694e-06	-1.020905e-08	-4.513136e+01	-6.690814e+02
1.700000e-07	-6.482621e-06	-1.015302e-08	-4.485409e+01	-6.674690e+02
1.800000e-07	-6.440202e-06	-1.017236e-08	-4.456059e+01	-6.657200e+02
1.900000e-07	-6.395285e-06	-1.010628e-08	-4.424980e+01	-6.638205e+02
2.000000e-07	-6.348048e-06	-1.009001e-08	-4.392296e+01	-6.617596e+02
2.100000e-07	-6.298199e-06	-1.007446e-08	-4.357805e+01	-6.595300e+02
2.200000e-07	-6.245659e-06	-1.002159e-08	-4.321452e+01	-6.571286e+02
2.300000e-07	-6.190736e-06	-9.973725e-09	-4.283450e+01	-6.545559e+02
2.400000e-07	-6.133413e-06	-9.911271e-09	-4.243788e+01	-6.518158e+02
2.500000e-07	-6.073808e-06	-9.890670e-09	-4.202546e+01	-6.489148e+02
2.600000e-07	-6.012066e-06	-9.849362e-09	-4.159826e+01	-6.458612e+02
2.700000e-07	-5.948137e-06	-9.776506e-09	-4.115593e+01	-6.426641e+02
2.800000e-07	-5.881927e-06	-9.730326e-09	-4.069782e+01	-6.393327e+02
2.900000e-07	-5.813418e-06	-9.682555e-09	-4.022379e+01	-6.358750e+02
3.000000e-07	-5.742755e-06	-9.641158e-09	-3.973487e+01	-6.322974e+02
3.100000e-07	-5.669951e-06	-9.586718e-09	-3.923112e+01	-6.286042e+02
3.200000e-07	-5.594864e-06	-9.534745e-09	-3.871159e+01	-6.247969e+02
3.300000e-07	-5.517483e-06	-9.463066e-09	-3.817618e+01	-6.208743e+02
3.400000e-07	-5.437875e-06	-9.381143e-09	-3.762536e+01	-6.168326e+02
3.500000e-07	-5.356226e-06	-9.334092e-09	-3.706042e+01	-6.126655e+02
3.600000e-07	-5.272844e-06	-9.284874e-09	-3.648349e+01	-6.083650e+02
3.700000e-07	-5.187807e-06	-9.223501e-09	-3.589511e+01	-6.039221e+02
3.800000e-07	-5.101021e-06	-9.139131e-09	-3.529463e+01	-5.993272e+02
3.900000e-07	-5.012435e-06	-9.061753e-09	-3.468168e+01	-5.945713e+02
4.000000e-07	-4.921932e-06	-8.986869e-09	-3.405548e+01	-5.896467e+02
4.100000e-07	-4.829651e-06	-8.908313e-09	-3.341698e+01	-5.845474e+02
4.200000e-07	-4.735841e-06	-8.839600e-09	-3.276790e+01	-5.792698e+02
4.300000e-07	-4.640405e-06	-8.758866e-09	-3.210756e+01	-5.738126e+02
4.400000e-07	-4.543214e-06	-8.667908e-09	-3.143509e+01	-5.681770e+02
4.500000e-07	-4.444248e-06	-8.574558e-09	-3.075032e+01	-5.623659e+02
4.600000e-07	-4.343756e-06	-8.487186e-09	-3.005501e+01	-5.563832e+02
4.700000e-07	-4.241827e-06	-8.393381e-09	-2.934975e+01	-5.502332e+02
4.800000e-07	-4.138401e-06	-8.291140e-09	-2.863413e+01	-5.439192e+02
4.900000e-07	-4.033492e-06	-8.187986e-09	-2.790825e+01	-5.374429e+02
5.000000e-07	-3.926954e-06	-8.088968e-09	-2.717110e+01	-5.308034e+02
5.100000e-07	-3.818910e-06	-7.993328e-09	-2.642353e+01	-5.239969e+02
5.200000e-07	-3.709626e-06	-7.892630e-09	-2.566738e+01	-5.170164e+02
5.300000e-07	-3.599115e-06	-7.779627e-09	-2.490274e+01	-5.098521e+02
5.400000e-07	-3.487282e-06	-7.655275e-09	-2.412895e+01	-5.024923e+02
5.500000e-07	-3.373979e-06	-7.535923e-09	-2.334499e+01	-4.949241e+02
5.600000e-07	-3.259100e-06	-7.423341e-09	-2.255013e+01	-4.871348e+02
5.700000e-07	-3.142790e-06	-7.308927e-09	-2.174537e+01	-4.791130e+02
5.800000e-07	-3.025251e-06	-7.184881e-09	-2.093210e+01	-4.708496e+02
5.900000e-07	-2.906648e-06	-7.052667e-09	-2.011147e+01	-4.623387e+02
6.000000e-07	-2.787027e-06	-6.913172e-09	-1.928380e+01	-4.535773e+02
6.100000e-07	-2.666444e-06	-6.772032e-09	-1.844947e+01	-4.445658e+02
6.200000e-07	-2.544948e-06	-6.632968e-09	-1.760882e+01	-4.353065e+02
6.300000e-07	-2.422367e-06	-6.491268e-09	-1.676067e+01	-4.258026e+02
6.400000e-07	-2.298722e-06	-6.343172e-09	-1.590515e+01	-4.160570e+02
6.500000e-07	-2.174318e-06	-6.189445e-09	-1.504439e+01	-4.060702e+02
6.600000e-07	-2.049271e-06	-6.034959e-09	-1.417917e+01	-3.958396e+02
6.700000e-07	-1.923589e-06	-5.874972e-09	-1.330956e+01	-3.853581e+02
6.800000e-07	-1.797338e-06	-5.706650e-09	-1.243601e+01	-3.746139e+02
6.900000e-07	-1.670480e-06	-5.534263e-09	-1.155827e+01	-3.635909e+02
7.000000e-07	-1.542886e-06	-5.360547e-09	-1.067543e+01	-3.522696e+02
7.100000e-07	-1.414624e-06	-5.184022e-09	-9.787963e+00	-3.406287e+02
7.200000e-07	-1.285935e-06	-5.003373e-09	-8.897550e+00	-3.286467e+02
7.300000e-07	-1.156958e-06	-4.816544e-09	-8.005139e+00	-3.163042e+02
7.400000e-07	-1.027712e-06	-4.620716e-09	-7.110874e+00	-3.035851e+02
7.500000e-07	-8.981514e-07	-4.417711e-09	-6.214426e+00	-2.904781e+02
7.600000e-07	-7.683026e-07	-4.209728e-09	-5.315985e+00	-2.769764e+02
7.700000e-07	-6.380932e-07	-3.999322e-09	-4.415049e+00	-2.630775e+02
7.800000e-07	-5.075712e-07	-3.785968e-09	-3.511951e+00	-2.487812e+02
7.900000e-07	-3.769044e-07	-3.565459e-09	-2.607850e+00	-2.340876e+02
8.000000e-07	-2.460581e-07	-3.335366e-09	-1.702508e+00	-2.189937e+02
8.100000e-07	-1.150152e-07	-3.096369e-09	-7.958053e-01	-2.034908e+02
8.200000e-07	1.613603e-08	-2.853529e-09	1.116473e-01	-1.875616e+02
8.300000e-07	1.473015e-07	-2.604983e-09	1.019198e+00	-1.711787e+02
8.400000e-07	2.783924e-07	-2.347162e-09	1.926233e+00	-1.543041e+02
8.500000e-07	4.093606e-07	-2.082021e-09	2.832419e+00	-1.368906e+02
8.600000e-07	5.402262e-07	-1.807540e-09	3.737895e+00	-1.188841e+02
8.700000e-07	6.709128e-07	-1.520618e-09	4.642133e+00	-1.002289e+02
8.800000e-07	8.013453e-07	-1.221169e-09	5.544612e+00	-8.087283e+01
8.900000e-07	9.314457e-07	-9.131834e-10	6.444793e+00	-6.077419e+01
9.000000e-07	1.061175e-06	-5.980306e-10	7.342404e+00	-3.990865e+01
9.100000e-07	1.190620e-06	-2.722442e-10	8.238053e+00	-1.827536e+01
9.200000e-07	1.319784e-06	6.517017e-11	9.131757e+00	4.097911e+00
9.300000e-07	1.448601e-06	4.154002e-10	1.002306e+01	2.715170e+01
9.400000e-07	1.576859e-06	7.781740e-10	1.091049e+01	5.079402e+01
9.500000e-07	1.704381e-06	1.151365e-09	1.179283e+01	7.490210e+01
9.600000e-07	1.831217e-06	1.530006e-09	1.267043e+01	9.932675e+01
9.700000e-07	1.957381e-06	1.908833e-09	1.354337e+01	1.238989e+02
9.800000e-07	2.082891e-06	2.285510e-09	1.441179e+01	1.484379e+02
9.900000e-07	2.207789e-06	2.656800e-09	1.527598e+01	1.727609e+02
1.000000e-06	2.331979e-06	3.020006e-09	1.613526e+01	1.966921e+02
1.010000e-06	2.455205e-06	3.373677e-09	1.698788e+01	2.200717e+02
1.020000e-06	2.577357e-06	3.717529e-09	1.783306e+01	2.427634e+02
1.030000e-06	2.698635e-06	4.049922e-09	1.867220e+01	2.646596e+02
1.040000e-06	2.818969e-06	4.368759e-09	1.950481e+01	2.856846e+02
1.050000e-06	2.938131e-06	4.675404e-09	2.032931e+01	3.057945e+02
1.060000e-06	3.056180e-06	4.968141e-09	2.114610e+01	3.249761e+02
1.070000e-06	3.173195e-06	5.245210e-09	2.195575e+01	3.432421e+02
1.080000e-06	3.289013e-06	5.507603e-09	2.275711e+01	3.606260e+02
1.090000e-06	3.403481e-06	5.757399e-09	2.354913e+01	3.771759e+02
1.100000e-06	3.516638e-06	5.997563e-09	2.433207e+01	3.929477e+02
1.110000e-06	3.628451e-06	6.227770e-09	2.510572e+01	4.079997e+02
1.120000e-06	3.738953e-06	6.446619e-09	2.587030e+01	4.223872e+02
1.130000e-06	3.848302e-06	6.655181e-09	2.662690e+01	4.361593e+02
1.140000e-06	3.956390e-06	6.855898e-09	2.737477e+01	4.493568e+02
1.150000e-06	4.063029e-06	7.049120e-09	2.811262e+01	4.620115e+02
1.160000e-06	4.168232e-06	7.233549e-09	2.884054e+01	4.741475e+02
1.170000e-06	4.271892e-06	7.409083e-09	2.955777e+01	4.857822e+02
1.180000e-06	4.373999e-06	7.577316e-09	3.026426e+01	4.969287e+02
1.190000e-06	4.474658e-06	7.738376e-09	3.096074e+01	5.075981e+02
1.200000e-06	4.573698e-06	7.892321e-09	3.164601e+01	5.178013e+02
1.210000e-06	4.671056e-06	8.040967e-09	3.231964e+01	5.275508e+02
1.220000e-06	4.766696e-06	8.185406e-09	3.298138e+01	5.368607e+02
1.230000e-06	4.860605e-06	8.324238e-09	3.363116e+01	5.457475e+02
1.240000e-06	4.952907e-06	8.457374e-09	3.426980e+01	5.542291e+02
1.250000e-06	5.043474e-06	8.584372e-09	3.489645e+01	5.623240e+02
1.260000e-06	5.132130e-06	8.705180e-09	3.550987e+01	5.700501e+02
1.270000e-06	5.218852e-06	8.818298e-09	3.610991e+01	5.774241e+02
1.280000e-06	5.303770e-06	8.925042e-09	3.669747e+01	5.844603e+02
1.290000e-06	5.386863e-06	9.028013e-09	3.727240e+01	5.911707e+02
1.300000e-06	5.467991e-06	9.124261e-09	3.783374e+01	5.975651e+02
1.310000e-06	5.547098e-06	9.215304e-09	3.838109e+01	6.036519e+02
1.320000e-06	5.624186e-06	9.303126e-09	3.891447e+01	6.094390e+02
1.330000e-06	5.699176e-06	9.386479e-09	3.943334e+01	6.149346e+02
1.340000e-06	5.771994e-06	9.465361e-09	3.993717e+01	6.201486e+02
1.350000e-06	5.842716e-06	9.540546e-09	4.042651e+01	6.250929e+02
1.360000e-06	5.911375e-06	9.611504e-09	4.090157e+01	6.297818e+02
1.370000e-06	5.977895e-06	9.678072e-09	4.136183e+01	6.342316e+02
1.380000e-06	6.042195e-06	9.741707e-09	4.180673e+01	6.384597e+02
1.390000e-06	6.104384e-06	9.804140e-09	4.223702e+01	6.424838e+02
1.400000e-06	6.164557e-06	9.864808e-09	4.265337e+01	6.463203e+02
1.410000e-06	6.222544e-06	9.922782e-09	4.305459e+01	6.499828e+02
1.420000e-06	6.278300e-06	9.977870e-09	4.344037e+01	6.534814e+02
1.430000e-06	6.331847e-06	1.003043e-08	4.381086e+01	6.568216e+02
1.440000e-06	6.382857e-06	1.008064e-08	4.416381e+01	6.600040e+02
1.450000e-06	6.431239e-06	1.012585e-08	4.449858e+01	6.630253e+02
1.460000e-06	6.477268e-06	1.016600e-08	4.481706e+01	6.658787e+02
1.470000e-06	6.521131e-06	1.020364e-08	4.512055e+01	6.685555e+02
1.480000e-06	6.562685e-06	1.023873e-08	4.540806e+01	6.710467e+02
1.490000e-06	6.601854e-06	1.027182e-08	4.567908e+01	6.733446e+02
1.500000e-06	6.638797e-06	1.030287e-08	4.593470e+01	6.754444e+02
1.510000e-06	6.673434e-06	1.033226e-08	4.617435e+01	6.773452e+02
1.520000e-06	6.705609e-06	1.035970e-08	4.639697e+01	6.790504e+02
1.530000e-06	6.735408e-06	1.038299e-08	4.660316e+01	6.805676e+02
1.540000e-06	6.762946e-06	1.040361e-08	4.679370e+01	6.819078e+02
1.550000e-06	6.787984e-06	1.042147e-08	4.696694e+01	6.830846e+02
1.560000e-06	6.810449e-06	1.043589e-08	4.712238e+01	6.841121e+02
1.570000e-06	6.830593e-06	1.044661e-08	4.726176e+01	6.850039e+02
1.580000e-06	6.848366e-06	1.045488e-08	4.738473e+01	6.857715e+02
1.590000e-06	6.863609e-06	1.046348e-08	4.749020e+01	6.864230e+02
1.600000e-06	6.876312e-06	1.047309e-08	4.757809e+01	6.869628e+02
1.610000e-06	6.886332e-06	1.048172e-08	4.764742e+01	6.873916e+02
1.620000e-06	6.893664e-06	1.048759e-08	4.769815e+01	6.877067e+02
1.630000e-06	6.898628e-06	1.049097e-08	4.773250e+01	6.879032e+02
1.640000e-06	6.901206e-06	1.049195e-08	4.775034e+01	6.879754e+02
1.650000e-06	6.901266e-06	1.049026e-08	4.775075e+01	6.879180e+02
1.660000e-06	6.899004e-06	1.048237e-08	4.773510e+01	6.877277e+02
1.670000e-06	6.894563e-06	1.047438e-08	4.770437e+01	6.874044e+02
1.680000e-06	6.887795e-06	1.046841e-08	4.765755e+01	6.869514e+02
1.690000e-06	6.878700e-06	1.046208e-08	4.759461e+01	6.863760e+02
1.700000e-06	6.867440e-06	1.045491e-08	4.751670e+01	6.856887e+02
1.710000e-06	6.853820e-06	1.044930e-08	4.742247e+01	6.849025e+02
1.720000e-06	6.837815e-06	1.044619e-08	4.731173e+01	6.840314e+02
1.730000e-06	6.819727e-06	1.040537e-08	4.718657e+01	6.830892e+02
1.740000e-06	6.799196e-06	1.034954e-08	4.704452e+01	6.820876e+02
1.750000e-06	6.775366e-06	1.034902e-08	4.687963e+01	6.810352e+02
1.760000e-06	6.748378e-06	1.034465e-08	4.669290e+01	6.799360e+02
1.770000e-06	6.718986e-06	1.033377e-08	4.648953e+01	6.787895e+02
1.780000e-06	6.687634e-06	1.037436e-08	4.627260e+01	6.775901e+02
1.790000e-06	6.654806e-06	1.031811e-08	4.604546e+01	6.763277e+02
1.800000e-06	6.620313e-06	1.025431e-08	4.580680e+01	6.749884e+02
1.810000e-06	6.583306e-06	1.029225e-08	4.555074e+01	6.735562e+02
1.820000e-06	6.543908e-06	1.023445e-08	4.527814e+01	6.720135e+02
1.830000e-06	6.502435e-06	1.023771e-08	4.499119e+01	6.703435e+02
1.840000e-06	6.458773e-06	1.023056e-08	4.468909e+01	6.685306e+02
1.850000e-06	6.412850e-06	1.012762e-08	4.437134e+01	6.665620e+02
1.860000e-06	6.364412e-06	1.013498e-08	4.403619e+01	6.644285e+02
1.870000e-06	6.313678e-06	1.007275e-08	4.368516e+01	6.621245e+02
1.880000e-06	6.260594e-06	1.004424e-08	4.331786e+01	6.596484e+02
1.890000e-06	6.204801e-06	1.004040e-08	4.293182e+01	6.570024e+02
1.900000e-06	6.146647e-06	9.949993e-09	4.252945e+01	6.541914e+02
1.910000e-06	6.086210e-06	9.952142e-09	4.211127e+01	6.512229e+02
1.920000e-06	6.023344e-06	9.874054e-09	4.167630e+01	6.481057e+02
1.930000e-06	5.958297e-06	9.816665e-09	4.122623e+01	6.448490e+02
1.940000e-06	5.891187e-06	9.800472e-09	4.076188e+01	6.414615e+02
1.950000e-06	5.821901e-06	9.710427e-09	4.028248e+01	6.379508e+02
1.960000e-06	5.750208e-06	9.665976e-09	3.978643e+01	6.343224e+02
1.970000e-06	5.676318e-06	9.584607e-09	3.927518e+01	6.305793e+02
1.980000e-06	5.600325e-06	9.563194e-09	3.874938e+01	6.267219e+02
1.990000e-06	5.521998e-06	9.520823e-09	3.820742e+01	6.227479e+02
2.000000e-06	5.441613e-06	9.431894e-09	3.765122e+01	6.186523e+02
2.010000e-06	5.359408e-06	9.370257e-09	3.708243e+01	6.144281e+02
2.020000e-06	5.275386e-06	9.278463e-09	3.650108e+01	6.100668e+02
2.030000e-06	5.189371e-06	9.219427e-09	3.590593e+01	6.055589e+02
2.040000e-06	5.101355e-06	9.148187e-09	3.529693e+01	6.008951e+02
2.050000e-06	5.011672e-06	9.099783e-09	3.467640e+01	5.960668e+02
2.060000e-06	4.920434e-06	9.019439e-09	3.404512e+01	5.910669e+02
2.070000e-06	4.827552e-06	8.912814e-09	3.340246e+01	5.858905e+02
2.080000e-06	4.732801e-06	8.830635e-09	3.274686e+01	5.805350e+02
2.090000e-06	4.636295e-06	8.746034e-09	3.207912e+01	5.750001e+02
2.100000e-06	4.538311e-06	8.675664e-09	3.140116e+01	5.692878e+02
2.110000e-06	4.438850e-06	8.581533e-09	3.071297e+01	5.634017e+02
2.120000e-06	4.337871e-06	8.496235e-09	3.001429e+01	5.573458e+02
2.130000e-06	4.235201e-06	8.402271e-09	2.930390e+01	5.511242e+02
2.140000e-06	4.130861e-06	8.304487e-09	2.858196e+01	5.447396e+02
2.150000e-06	4.025084e-06	8.203379e-09	2.785008e+01	5.381927e+02
2.160000e-06	3.917976e-06	8.098356e-09	2.710898e+01	5.314813e+02
2.170000e-06	3.809516e-06	7.989726e-09	2.635854e+01	5.246002e+02
2.180000e-06	3.699646e-06	7.876896e-09	2.559833e+01	5.175413e+02
2.190000e-06	3.588292e-06	7.773779e-09	2.482785e+01	5.102938e+02
2.200000e-06	3.475622e-06	7.663347e-09	2.404828e+01	5.028453e+02
2.210000e-06	3.361643e-06	7.551276e-09	2.325965e+01	4.951829e+02
2.220000e-06	3.246267e-06	7.421941e-09	2.246134e+01	4.872942e+02
2.230000e-06	3.129585e-06	7.288938e-09	2.165400e+01	4.791689e+02
2.240000e-06	3.011638e-06	7.159058e-09	2.083791e+01	4.707989e+02
2.250000e-06	2.892387e-06	7.036372e-09	2.001280e+01	4.621799e+02
2.260000e-06	2.771930e-06	6.911383e-09	1.917934e+01	4.533101e+02
2.270000e-06	2.650518e-06	6.773817e-09	1.833928e+01	4.441911e+02
2.280000e-06	2.528228e-06	6.626400e-09	1.749314e+01	4.348255e+02
2.290000e-06	2.405134e-06	6.474950e-09	1.664143e+01	4.252168e+02
2.300000e-06	2.281231e-06	6.324620e-09	1.578413e+01	4.153670e+02
2.310000e-06	2.156532e-06	6.174985e-09	1.492132e+01	4.052753e+02
2.320000e-06	2.031136e-06	6.023767e-09	1.405369e+01	3.949373e+02
2.330000e-06	1.905096e-06	5.859823e-09	1.318160e+01	3.843439e+02
2.340000e-06	1.778389e-06	5.690245e-09	1.230490e+01	3.734814e+02
2.350000e-06	1.650902e-06	5.519767e-09	1.142280e+01	3.623322e+02
2.360000e-06	1.522712e-06	5.348872e-09	1.053584e+01	3.508756e+02
2.370000e-06	1.394031e-06	5.171749e-09	9.645483e+00	3.390901e+02
2.380000e-06	1.264944e-06	4.986167e-09	8.752310e+00	3.269548e+02
2.390000e-06	1.135516e-06	4.794690e-09	7.856783e+00	3.144517e+02
2.400000e-06	1.005793e-06	4.597470e-09	6.959212e+00	3.015665e+02
2.410000e-06	8.757877e-07	4.396364e-09	6.059688e+00	2.882899e+02
2.420000e-06	7.455056e-07	4.189679e-09	5.158250e+00	2.746171e+02
2.430000e-06	6.150098e-07	3.974487e-09	4.255333e+00	2.605468e+02
2.440000e-06	4.843553e-07	3.750409e-09	3.351317e+00	2.460794e+02
2.450000e-06	3.535187e-07	3.520674e-09	2.446042e+00	2.312139e+02
2.460000e-06	2.225404e-07	3.289120e-09	1.539786e+00	2.159453e+02
2.470000e-06	9.155533e-08	3.052876e-09	6.334831e-01	2.002613e+02
2.480000e-06	-3.944857e-08	2.809547e-09	-2.729498e-01	1.841407e+02
2.490000e-06	-1.705050e-07	2.556733e-09	-1.179746e+00	1.675513e+02
2.500000e-06	-3.015184e-07	2.292113e-09	-2.086245e+00	1.504510e+02
2.510000e-06	-4.324375e-07	2.016825e-09	-2.992091e+00	1.327893e+02
2.520000e-06	-5.632458e-07	1.734647e-09	-3.897170e+00	1.145106e+02
2.530000e-06	-6.939609e-07	1.447640e-09	-4.801605e+00	9.555993e+01
2.540000e-06	-8.244954e-07	1.150228e-09	-5.704790e+00	7.588887e+01
2.550000e-06	-9.547191e-07	8.408088e-10	-6.605825e+00	5.546233e+01
2.560000e-06	-1.084650e-06	5.206081e-10	-7.504836e+00	3.426530e+01
2.570000e-06	-1.214276e-06	1.890780e-10	-8.401736e+00	1.230870e+01
2.580000e-06	-1.343517e-06	-1.534100e-10	-9.295970e+00	-1.036639e+01
2.590000e-06	-1.472363e-06	-5.064793e-10	-1.018747e+01	-3.368652e+01
2.600000e-06	-1.600705e-06	-8.690928e-10	-1.107549e+01	-5.754612e+01
2.610000e-06	-1.728321e-06	-1.239019e-09	-1.195848e+01	-8.181045e+01
2.620000e-06	-1.855120e-06	-1.612275e-09	-1.283582e+01	-1.063209e+02
2.630000e-06	-1.981212e-06	-1.984535e-09	-1.370826e+01	-1.309023e+02
2.640000e-06	-2.106682e-06	-2.355987e-09	-1.457640e+01	-1.553719e+02
2.650000e-06	-2.231346e-06	-2.726438e-09	-1.543897e+01	-1.795487e+02
2.660000e-06	-2.354998e-06	-3.092832e-09	-1.629454e+01	-2.032628e+02
2.670000e-06	-2.477627e-06	-3.448619e-09	-1.714302e+01	-2.263637e+02
2.680000e-06	-2.599383e-06	-3.791211e-09	-1.798547e+01	-2.487269e+02
2.690000e-06	-2.720319e-06	-4.118897e-09	-1.882224e+01	-2.702581e+02
2.700000e-06	-2.840190e-06	-4.428987e-09	-1.965164e+01	-2.908953e+02
2.710000e-06	-2.958889e-06	-4.725630e-09	-2.047294e+01	-3.106084e+02
2.720000e-06	-3.076525e-06	-5.012467e-09	-2.128687e+01	-3.293956e+02
2.730000e-06	-3.192965e-06	-5.287074e-09	-2.209253e+01	-3.472795e+02
2.740000e-06	-3.308053e-06	-5.549048e-09	-2.288884e+01	-3.643004e+02
2.750000e-06	-3.421755e-06	-5.799790e-09	-2.367557e+01	-3.805108e+02
2.760000e-06	-3.534049e-06	-6.039457e-09	-2.445254e+01	-3.959680e+02
2.770000e-06	-3.644982e-06	-6.267991e-09	-2.522010e+01	-4.107297e+02
2.780000e-06	-3.754632e-06	-6.485385e-09	-2.597878e+01	-4.248489e+02
2.790000e-06	-3.863137e-06	-6.693181e-09	-2.672954e+01	-4.383712e+02
2.800000e-06	-3.970409e-06	-6.892187e-09	-2.747177e+01	-4.513337e+02
2.810000e-06	-4.076315e-06	-7.083097e-09	-2.820455e+01	-4.637646e+02
2.820000e-06	-4.180793e-06	-7.266308e-09	-2.892745e+01	-4.756849e+02
2.830000e-06	-4.283656e-06	-7.440539e-09	-2.963917e+01	-4.871098e+02
2.840000e-06	-4.384927e-06	-7.605544e-09	-3.033987e+01	-4.980515e+02
2.850000e-06	-4.484615e-06	-7.761833e-09	-3.102963e+01	-5.085207e+02
2.860000e-06	-4.582752e-06	-7.912200e-09	-3.170865e+01	-5.185289e+02
2.870000e-06	-4.679372e-06	-8.057960e-09	-3.237718e+01	-5.280890e+02
2.880000e-06	-4.774312e-06	-8.196230e-09	-3.303408e+01	-5.372165e+02
2.890000e-06	-4.867517e-06	-8.326771e-09	-3.367898e+01	-5.459284e+02
2.900000e-06	-4.958919e-06	-8.451123e-09	-3.431140e+01	-5.542429e+02
2.910000e-06	-5.048518e-06	-8.571569e-09	-3.493135e+01	-5.621786e+02
2.920000e-06	-5.136286e-06	-8.688704e-09	-3.553863e+01	-5.697529e+02
2.930000e-06	-5.222108e-06	-8.800388e-09	-3.613244e+01	-5.769815e+02
2.940000e-06	-5.306020e-06	-8.905549e-09	-3.671303e+01	-5.838777e+02
