# Temperatura_=_28.43
# Concentracion g/m^3_=_15000.0
# C_Vs_to_Am_M_A/Vsm_=_65563218390.804596
# pendiente_HvsI_1/m_=_3716.3
# ordenada_HvsI_A/m_=_1297.0
# frecuencia_Hz_=_302360.13611669955

Tiempo_(s)	Campo_(V.s)	Magnetizacion_(V.s)	Campo_(kA/m)	Magnetizacion_(A/m)
0.000000e+00	-8.118206e-06	-8.633857e-09	-5.690026e+01	-5.645440e+02
1.000000e-08	-8.113647e-06	-8.632968e-09	-5.686831e+01	-5.643149e+02
2.000000e-08	-8.106606e-06	-8.625971e-09	-5.681895e+01	-5.639971e+02
3.000000e-08	-8.096764e-06	-8.618175e-09	-5.674997e+01	-5.636020e+02
4.000000e-08	-8.083888e-06	-8.610258e-09	-5.665973e+01	-5.631415e+02
5.000000e-08	-8.068051e-06	-8.601912e-09	-5.654872e+01	-5.626265e+02
6.000000e-08	-8.049631e-06	-8.590910e-09	-5.641962e+01	-5.620657e+02
7.000000e-08	-8.028959e-06	-8.573369e-09	-5.627473e+01	-5.614641e+02
8.000000e-08	-8.005731e-06	-8.574795e-09	-5.611193e+01	-5.608231e+02
9.000000e-08	-7.979382e-06	-8.622919e-09	-5.592725e+01	-5.601398e+02
1.000000e-07	-7.949704e-06	-8.594334e-09	-5.571923e+01	-5.594082e+02
1.100000e-07	-7.916959e-06	-8.537449e-09	-5.548973e+01	-5.586199e+02
1.200000e-07	-7.881429e-06	-8.517380e-09	-5.524070e+01	-5.577655e+02
1.300000e-07	-7.843422e-06	-8.495192e-09	-5.497430e+01	-5.568353e+02
1.400000e-07	-7.803027e-06	-8.459466e-09	-5.469118e+01	-5.558211e+02
1.500000e-07	-7.760235e-06	-8.435379e-09	-5.439125e+01	-5.547167e+02
1.600000e-07	-7.714904e-06	-8.509020e-09	-5.407353e+01	-5.535181e+02
1.700000e-07	-7.666748e-06	-8.413451e-09	-5.373600e+01	-5.522234e+02
1.800000e-07	-7.615686e-06	-8.361807e-09	-5.337811e+01	-5.508326e+02
1.900000e-07	-7.561736e-06	-8.420930e-09	-5.299998e+01	-5.493466e+02
2.000000e-07	-7.504942e-06	-8.316271e-09	-5.260191e+01	-5.477666e+02
2.100000e-07	-7.445388e-06	-8.305345e-09	-5.218450e+01	-5.460929e+02
2.200000e-07	-7.383214e-06	-8.306056e-09	-5.174872e+01	-5.443248e+02
2.300000e-07	-7.318359e-06	-8.277680e-09	-5.129416e+01	-5.424602e+02
2.400000e-07	-7.250694e-06	-8.251638e-09	-5.081990e+01	-5.404958e+02
2.500000e-07	-7.180247e-06	-8.205765e-09	-5.032614e+01	-5.384273e+02
2.600000e-07	-7.106951e-06	-8.190055e-09	-4.981241e+01	-5.362505e+02
2.700000e-07	-7.030811e-06	-8.125153e-09	-4.927874e+01	-5.339616e+02
2.800000e-07	-6.951815e-06	-8.083603e-09	-4.872506e+01	-5.315584e+02
2.900000e-07	-6.870119e-06	-8.040393e-09	-4.815246e+01	-5.290407e+02
3.000000e-07	-6.786162e-06	-8.021522e-09	-4.756400e+01	-5.264101e+02
3.100000e-07	-6.699881e-06	-8.005742e-09	-4.695926e+01	-5.236702e+02
3.200000e-07	-6.611077e-06	-7.931027e-09	-4.633684e+01	-5.208259e+02
3.300000e-07	-6.519858e-06	-7.895731e-09	-4.569749e+01	-5.178825e+02
3.400000e-07	-6.426301e-06	-7.850176e-09	-4.504175e+01	-5.148445e+02
3.500000e-07	-6.330404e-06	-7.797046e-09	-4.436961e+01	-5.117152e+02
3.600000e-07	-6.232173e-06	-7.738128e-09	-4.368111e+01	-5.084949e+02
3.700000e-07	-6.131755e-06	-7.696849e-09	-4.297728e+01	-5.051816e+02
3.800000e-07	-6.029163e-06	-7.654268e-09	-4.225822e+01	-5.017699e+02
3.900000e-07	-5.924325e-06	-7.587390e-09	-4.152342e+01	-4.982520e+02
4.000000e-07	-5.817399e-06	-7.534148e-09	-4.077398e+01	-4.946182e+02
4.100000e-07	-5.708515e-06	-7.472726e-09	-4.001081e+01	-4.908581e+02
4.200000e-07	-5.597598e-06	-7.422245e-09	-3.923340e+01	-4.869615e+02
4.300000e-07	-5.484589e-06	-7.352660e-09	-3.844132e+01	-4.829195e+02
4.400000e-07	-5.369446e-06	-7.288790e-09	-3.763429e+01	-4.787252e+02
4.500000e-07	-5.252190e-06	-7.230148e-09	-3.681244e+01	-4.743742e+02
4.600000e-07	-5.133068e-06	-7.163027e-09	-3.597752e+01	-4.698643e+02
4.700000e-07	-5.012159e-06	-7.082326e-09	-3.513007e+01	-4.651949e+02
4.800000e-07	-4.889343e-06	-7.005100e-09	-3.426926e+01	-4.603666e+02
4.900000e-07	-4.764755e-06	-6.936076e-09	-3.339602e+01	-4.553797e+02
5.000000e-07	-4.638485e-06	-6.852442e-09	-3.251100e+01	-4.502333e+02
5.100000e-07	-4.510533e-06	-6.768329e-09	-3.161419e+01	-4.449248e+02
5.200000e-07	-4.380919e-06	-6.686009e-09	-3.070573e+01	-4.394490e+02
5.300000e-07	-4.249628e-06	-6.606205e-09	-2.978551e+01	-4.337986e+02
5.400000e-07	-4.116727e-06	-6.509675e-09	-2.885401e+01	-4.279643e+02
5.500000e-07	-3.982361e-06	-6.409916e-09	-2.791225e+01	-4.219359e+02
5.600000e-07	-3.846569e-06	-6.313451e-09	-2.696049e+01	-4.157034e+02
5.700000e-07	-3.709207e-06	-6.217050e-09	-2.599772e+01	-4.092577e+02
5.800000e-07	-3.570321e-06	-6.118264e-09	-2.502427e+01	-4.025921e+02
5.900000e-07	-3.429958e-06	-6.017263e-09	-2.404047e+01	-3.957023e+02
6.000000e-07	-3.288155e-06	-5.911785e-09	-2.304658e+01	-3.885864e+02
6.100000e-07	-3.145058e-06	-5.793949e-09	-2.204362e+01	-3.812446e+02
6.200000e-07	-3.000801e-06	-5.675397e-09	-2.103252e+01	-3.736773e+02
6.300000e-07	-2.855411e-06	-5.556831e-09	-2.001349e+01	-3.658846e+02
6.400000e-07	-2.708928e-06	-5.436958e-09	-1.898680e+01	-3.578635e+02
6.500000e-07	-2.561587e-06	-5.309020e-09	-1.795409e+01	-3.496076e+02
6.600000e-07	-2.413426e-06	-5.177389e-09	-1.691563e+01	-3.411053e+02
6.700000e-07	-2.264441e-06	-5.042290e-09	-1.587140e+01	-3.323399e+02
6.800000e-07	-2.114695e-06	-4.901078e-09	-1.482183e+01	-3.232901e+02
6.900000e-07	-1.964274e-06	-4.758368e-09	-1.376753e+01	-3.139314e+02
7.000000e-07	-1.813257e-06	-4.609555e-09	-1.270906e+01	-3.042381e+02
7.100000e-07	-1.661630e-06	-4.455643e-09	-1.164631e+01	-2.941854e+02
7.200000e-07	-1.509361e-06	-4.294394e-09	-1.057907e+01	-2.837523e+02
7.300000e-07	-1.356450e-06	-4.130429e-09	-9.507316e+00	-2.729228e+02
7.400000e-07	-1.203030e-06	-3.960297e-09	-8.432002e+00	-2.616876e+02
7.500000e-07	-1.049248e-06	-3.781758e-09	-7.354147e+00	-2.500437e+02
7.600000e-07	-8.951603e-07	-3.597967e-09	-6.274151e+00	-2.379933e+02
7.700000e-07	-7.407758e-07	-3.407123e-09	-5.192075e+00	-2.255409e+02
7.800000e-07	-5.861216e-07	-3.210175e-09	-4.108108e+00	-2.126904e+02
7.900000e-07	-4.312394e-07	-3.009449e-09	-3.022544e+00	-1.994408e+02
8.000000e-07	-2.762023e-07	-2.805583e-09	-1.935894e+00	-1.857823e+02
8.100000e-07	-1.210660e-07	-2.590983e-09	-8.485479e-01	-1.716936e+02
8.200000e-07	3.414710e-08	-2.365401e-09	2.393360e-01	-1.571397e+02
8.300000e-07	1.894095e-07	-2.134499e-09	1.327565e+00	-1.420725e+02
8.400000e-07	3.446520e-07	-1.898163e-09	2.415655e+00	-1.264331e+02
8.500000e-07	4.997588e-07	-1.650819e-09	3.502794e+00	-1.101563e+02
8.600000e-07	6.546324e-07	-1.390224e-09	4.588299e+00	-9.317731e+01
8.700000e-07	8.092815e-07	-1.121695e-09	5.672229e+00	-7.543995e+01
8.800000e-07	9.637190e-07	-8.440381e-10	6.754677e+00	-5.690499e+01
8.900000e-07	1.117884e-06	-5.517755e-10	7.835217e+00	-3.755867e+01
9.000000e-07	1.271761e-06	-2.464772e-10	8.913731e+00	-1.741968e+01
9.100000e-07	1.425264e-06	6.840050e-11	9.989629e+00	3.456065e+00
9.200000e-07	1.578288e-06	3.954355e-10	1.106217e+01	2.497352e+01
9.300000e-07	1.730763e-06	7.334040e-10	1.213086e+01	4.700002e+01
9.400000e-07	1.882486e-06	1.075412e-09	1.319428e+01	6.937018e+01
9.500000e-07	2.033314e-06	1.419070e-09	1.425144e+01	9.189385e+01
9.600000e-07	2.183381e-06	1.763891e-09	1.530325e+01	1.143666e+02
9.700000e-07	2.332689e-06	2.106953e-09	1.634975e+01	1.365813e+02
9.800000e-07	2.481127e-06	2.441737e-09	1.739015e+01	1.583410e+02
9.900000e-07	2.628594e-06	2.763461e-09	1.842373e+01	1.794692e+02
1.000000e-06	2.775035e-06	3.072101e-09	1.945014e+01	1.998204e+02
1.010000e-06	2.920538e-06	3.365313e-09	2.046996e+01	2.192860e+02
1.020000e-06	3.064938e-06	3.640633e-09	2.148206e+01	2.377977e+02
1.030000e-06	3.208123e-06	3.900313e-09	2.248563e+01	2.553274e+02
1.040000e-06	3.350163e-06	4.149972e-09	2.348119e+01	2.718836e+02
1.050000e-06	3.490901e-06	4.389201e-09	2.446762e+01	2.875049e+02
1.060000e-06	3.630202e-06	4.615387e-09	2.544397e+01	3.022522e+02
1.070000e-06	3.768132e-06	4.828881e-09	2.641072e+01	3.161990e+02
1.080000e-06	3.904616e-06	5.032898e-09	2.736734e+01	3.294228e+02
1.090000e-06	4.039564e-06	5.225808e-09	2.831318e+01	3.419971e+02
1.100000e-06	4.173121e-06	5.406769e-09	2.924928e+01	3.539851e+02
1.110000e-06	4.305251e-06	5.579208e-09	3.017537e+01	3.654362e+02
1.120000e-06	4.435842e-06	5.745273e-09	3.109068e+01	3.763847e+02
1.130000e-06	4.564901e-06	5.904600e-09	3.199525e+01	3.868506e+02
1.140000e-06	4.692302e-06	6.055224e-09	3.288820e+01	3.968425e+02
1.150000e-06	4.818120e-06	6.198766e-09	3.377006e+01	4.063617e+02
1.160000e-06	4.942349e-06	6.335783e-09	3.464078e+01	4.154071e+02
1.170000e-06	5.064800e-06	6.466061e-09	3.549903e+01	4.239793e+02
1.180000e-06	5.185481e-06	6.589186e-09	3.634488e+01	4.320840e+02
1.190000e-06	5.304283e-06	6.706218e-09	3.717756e+01	4.397348e+02
1.200000e-06	5.421074e-06	6.816404e-09	3.799614e+01	4.469533e+02
1.210000e-06	5.535817e-06	6.921113e-09	3.880037e+01	4.537689e+02
1.220000e-06	5.648385e-06	7.020492e-09	3.958936e+01	4.602167e+02
1.230000e-06	5.758757e-06	7.113741e-09	4.036295e+01	4.663345e+02
1.240000e-06	5.867115e-06	7.201505e-09	4.112243e+01	4.721597e+02
1.250000e-06	5.973418e-06	7.284917e-09	4.186751e+01	4.777268e+02
1.260000e-06	6.077472e-06	7.365512e-09	4.259681e+01	4.830643e+02
1.270000e-06	6.179333e-06	7.443054e-09	4.331075e+01	4.881937e+02
1.280000e-06	6.278965e-06	7.518424e-09	4.400907e+01	4.931290e+02
1.290000e-06	6.376202e-06	7.592493e-09	4.469061e+01	4.978773e+02
1.300000e-06	6.471042e-06	7.663639e-09	4.535534e+01	5.024403e+02
1.310000e-06	6.563587e-06	7.731090e-09	4.600398e+01	5.068161e+02
1.320000e-06	6.653867e-06	7.793806e-09	4.663675e+01	5.110020e+02
1.330000e-06	6.741729e-06	7.851530e-09	4.725257e+01	5.149957e+02
1.340000e-06	6.827167e-06	7.906737e-09	4.785140e+01	5.187973e+02
1.350000e-06	6.910258e-06	7.960603e-09	4.843379e+01	5.224099e+02
1.360000e-06	6.990839e-06	8.012365e-09	4.899858e+01	5.258399e+02
1.370000e-06	7.068851e-06	8.061791e-09	4.954536e+01	5.290957e+02
1.380000e-06	7.144328e-06	8.109866e-09	5.007438e+01	5.321872e+02
1.390000e-06	7.217087e-06	8.156936e-09	5.058435e+01	5.351237e+02
1.400000e-06	7.287205e-06	8.199067e-09	5.107580e+01	5.379130e+02
1.410000e-06	7.354797e-06	8.235308e-09	5.154955e+01	5.405600e+02
1.420000e-06	7.419708e-06	8.268670e-09	5.200451e+01	5.430666e+02
1.430000e-06	7.481993e-06	8.301866e-09	5.244106e+01	5.454309e+02
1.440000e-06	7.541830e-06	8.333544e-09	5.286046e+01	5.476490e+02
1.450000e-06	7.599052e-06	8.362038e-09	5.326152e+01	5.497153e+02
1.460000e-06	7.653458e-06	8.388898e-09	5.364286e+01	5.516249e+02
1.470000e-06	7.704920e-06	8.414079e-09	5.400355e+01	5.533743e+02
1.480000e-06	7.753229e-06	8.438138e-09	5.434215e+01	5.549633e+02
1.490000e-06	7.798600e-06	8.460382e-09	5.466015e+01	5.563957e+02
1.500000e-06	7.841291e-06	8.479697e-09	5.495937e+01	5.576795e+02
1.510000e-06	7.881168e-06	8.495912e-09	5.523886e+01	5.588264e+02
1.520000e-06	7.918223e-06	8.509272e-09	5.549858e+01	5.598508e+02
1.530000e-06	7.952576e-06	8.521333e-09	5.573936e+01	5.607682e+02
1.540000e-06	7.984106e-06	8.533623e-09	5.596035e+01	5.615937e+02
1.550000e-06	8.012815e-06	8.545239e-09	5.616158e+01	5.623399e+02
1.560000e-06	8.038632e-06	8.556902e-09	5.634253e+01	5.630158e+02
1.570000e-06	8.061431e-06	8.568852e-09	5.650233e+01	5.636261e+02
1.580000e-06	8.081405e-06	8.580609e-09	5.664232e+01	5.641707e+02
1.590000e-06	8.098515e-06	8.589311e-09	5.676225e+01	5.646452e+02
1.600000e-06	8.112636e-06	8.594020e-09	5.686122e+01	5.650424e+02
1.610000e-06	8.123639e-06	8.597860e-09	5.693834e+01	5.653535e+02
1.620000e-06	8.131423e-06	8.600499e-09	5.699289e+01	5.655698e+02
1.630000e-06	8.136306e-06	8.603056e-09	5.702712e+01	5.656846e+02
1.640000e-06	8.138357e-06	8.605447e-09	5.704150e+01	5.656943e+02
1.650000e-06	8.137507e-06	8.609125e-09	5.703554e+01	5.655992e+02
1.660000e-06	8.133952e-06	8.603491e-09	5.701062e+01	5.654037e+02
1.670000e-06	8.127661e-06	8.600113e-09	5.696653e+01	5.651161e+02
1.680000e-06	8.118664e-06	8.598775e-09	5.690347e+01	5.647470e+02
1.690000e-06	8.106899e-06	8.596226e-09	5.682101e+01	5.643083e+02
1.700000e-06	8.092210e-06	8.593772e-09	5.671806e+01	5.638114e+02
1.710000e-06	8.074888e-06	8.591716e-09	5.659665e+01	5.632659e+02
1.720000e-06	8.055290e-06	8.591688e-09	5.645928e+01	5.626783e+02
1.730000e-06	8.033141e-06	8.547650e-09	5.630404e+01	5.620512e+02
1.740000e-06	8.007766e-06	8.475076e-09	5.612619e+01	5.613833e+02
1.750000e-06	7.978637e-06	8.503280e-09	5.592202e+01	5.606695e+02
1.760000e-06	7.945982e-06	8.518369e-09	5.569315e+01	5.599024e+02
1.770000e-06	7.910793e-06	8.499121e-09	5.544651e+01	5.590724e+02
1.780000e-06	7.873349e-06	8.518107e-09	5.518406e+01	5.581700e+02
1.790000e-06	7.833652e-06	8.564336e-09	5.490583e+01	5.571864e+02
1.800000e-06	7.791968e-06	8.441643e-09	5.461367e+01	5.561146e+02
1.810000e-06	7.747801e-06	8.420429e-09	5.430410e+01	5.549497e+02
1.820000e-06	7.700742e-06	8.489853e-09	5.397427e+01	5.536891e+02
1.830000e-06	7.650986e-06	8.368369e-09	5.362553e+01	5.523323e+02
1.840000e-06	7.598221e-06	8.448437e-09	5.325570e+01	5.508800e+02
1.850000e-06	7.542493e-06	8.385191e-09	5.286510e+01	5.493331e+02
1.860000e-06	7.484081e-06	8.335391e-09	5.245570e+01	5.476926e+02
1.870000e-06	7.422891e-06	8.339257e-09	5.202682e+01	5.459582e+02
1.880000e-06	7.358984e-06	8.243484e-09	5.157889e+01	5.441282e+02
1.890000e-06	7.292252e-06	8.306718e-09	5.111117e+01	5.421996e+02
1.900000e-06	7.222669e-06	8.216647e-09	5.062347e+01	5.401685e+02
1.910000e-06	7.150185e-06	8.201185e-09	5.011543e+01	5.380306e+02
1.920000e-06	7.074951e-06	8.183736e-09	4.958811e+01	5.357818e+02
1.930000e-06	6.996988e-06	8.131037e-09	4.904167e+01	5.334194e+02
1.940000e-06	6.916247e-06	8.132184e-09	4.847576e+01	5.309422e+02
1.950000e-06	6.833055e-06	8.023003e-09	4.789267e+01	5.283513e+02
1.960000e-06	6.747289e-06	8.028555e-09	4.729155e+01	5.256497e+02
1.970000e-06	6.658897e-06	7.964441e-09	4.667201e+01	5.228418e+02
1.980000e-06	6.568129e-06	7.921207e-09	4.603582e+01	5.199330e+02
1.990000e-06	6.475142e-06	7.900451e-09	4.538407e+01	5.169281e+02
2.000000e-06	6.379903e-06	7.850853e-09	4.471655e+01	5.138309e+02
2.010000e-06	6.282375e-06	7.804754e-09	4.403298e+01	5.106430e+02
2.020000e-06	6.182623e-06	7.715622e-09	4.333382e+01	5.073631e+02
2.030000e-06	6.080604e-06	7.683092e-09	4.261877e+01	5.039870e+02
2.040000e-06	5.976362e-06	7.625985e-09	4.188814e+01	5.005078e+02
2.050000e-06	5.870026e-06	7.591329e-09	4.114283e+01	4.969164e+02
2.060000e-06	5.761797e-06	7.522897e-09	4.038426e+01	4.932023e+02
2.070000e-06	5.651595e-06	7.463779e-09	3.961186e+01	4.893554e+02
2.080000e-06	5.539228e-06	7.402757e-09	3.882428e+01	4.853659e+02
2.090000e-06	5.424714e-06	7.332300e-09	3.802166e+01	4.812264e+02
2.100000e-06	5.308118e-06	7.271032e-09	3.720443e+01	4.769315e+02
2.110000e-06	5.189481e-06	7.208110e-09	3.637291e+01	4.724782e+02
2.120000e-06	5.068914e-06	7.146020e-09	3.552787e+01	4.678655e+02
2.130000e-06	4.946552e-06	7.061010e-09	3.467023e+01	4.630936e+02
2.140000e-06	4.822399e-06	6.993090e-09	3.380005e+01	4.581631e+02
2.150000e-06	4.696475e-06	6.918849e-09	3.291745e+01	4.530736e+02
2.160000e-06	4.568834e-06	6.843305e-09	3.202282e+01	4.478232e+02
2.170000e-06	4.439553e-06	6.748818e-09	3.111669e+01	4.424076e+02
2.180000e-06	4.308631e-06	6.665134e-09	3.019906e+01	4.368203e+02
2.190000e-06	4.176171e-06	6.582344e-09	2.927065e+01	4.310526e+02
2.200000e-06	4.042176e-06	6.496411e-09	2.833149e+01	4.250945e+02
2.210000e-06	3.906626e-06	6.403480e-09	2.738142e+01	4.189357e+02
2.220000e-06	3.769544e-06	6.304357e-09	2.642062e+01	4.125668e+02
2.230000e-06	3.630982e-06	6.199866e-09	2.544944e+01	4.059801e+02
2.240000e-06	3.491096e-06	6.090274e-09	2.446899e+01	3.991704e+02
2.250000e-06	3.349778e-06	5.988539e-09	2.347849e+01	3.921351e+02
2.260000e-06	3.207117e-06	5.885886e-09	2.247858e+01	3.848737e+02
2.270000e-06	3.063221e-06	5.776105e-09	2.147003e+01	3.773866e+02
2.280000e-06	2.918125e-06	5.652936e-09	2.045305e+01	3.696743e+02
2.290000e-06	2.771987e-06	5.531322e-09	1.942878e+01	3.617351e+02
2.300000e-06	2.624957e-06	5.408318e-09	1.839825e+01	3.535638e+02
2.310000e-06	2.477108e-06	5.283990e-09	1.736197e+01	3.451509e+02
2.320000e-06	2.328469e-06	5.153585e-09	1.632017e+01	3.364814e+02
2.330000e-06	2.178982e-06	5.014349e-09	1.527242e+01	3.275356e+02
2.340000e-06	2.028651e-06	4.869794e-09	1.421875e+01	3.182899e+02
2.350000e-06	1.877715e-06	4.723693e-09	1.316085e+01	3.087188e+02
2.360000e-06	1.726213e-06	4.573195e-09	1.209897e+01	2.987969e+02
2.370000e-06	1.574173e-06	4.415921e-09	1.103333e+01	2.885015e+02
2.380000e-06	1.421634e-06	4.254276e-09	9.964189e+00	2.778148e+02
2.390000e-06	1.268535e-06	4.090024e-09	8.891124e+00	2.667249e+02
2.400000e-06	1.114889e-06	3.919420e-09	7.814223e+00	2.552267e+02
2.410000e-06	9.608343e-07	3.740781e-09	6.734458e+00	2.433207e+02
2.420000e-06	8.064946e-07	3.556184e-09	5.652696e+00	2.310110e+02
2.430000e-06	6.519015e-07	3.363242e-09	4.569158e+00	2.183023e+02
2.440000e-06	4.970880e-07	3.161455e-09	3.484075e+00	2.051955e+02
2.450000e-06	3.421284e-07	2.952209e-09	2.397967e+00	1.916846e+02
2.460000e-06	1.870973e-07	2.739903e-09	1.311359e+00	1.777526e+02
2.470000e-06	3.198229e-08	2.518243e-09	2.241629e-01	1.633695e+02
2.480000e-06	-1.231886e-07	2.286334e-09	-8.634252e-01	1.484916e+02
2.490000e-06	-2.783425e-07	2.048892e-09	-1.950894e+00	1.330636e+02
2.500000e-06	-4.333879e-07	1.803944e-09	-3.037603e+00	1.170218e+02
2.510000e-06	-5.883132e-07	1.548564e-09	-4.123469e+00	1.003004e+02
2.520000e-06	-7.431224e-07	1.280198e-09	-5.208522e+00	8.283921e+01
2.530000e-06	-8.977192e-07	1.001447e-09	-6.292087e+00	6.459192e+01
2.540000e-06	-1.052037e-06	7.131233e-10	-7.373692e+00	4.553479e+01
2.550000e-06	-1.206039e-06	4.126172e-10	-8.453093e+00	2.567422e+01
2.560000e-06	-1.359581e-06	1.004515e-10	-9.529264e+00	5.052478e+00
2.570000e-06	-1.512555e-06	-2.219652e-10	-1.060145e+01	-1.624939e+01
2.580000e-06	-1.664875e-06	-5.546982e-10	-1.166906e+01	-3.811177e+01
2.590000e-06	-1.816460e-06	-8.972797e-10	-1.273151e+01	-6.038019e+01
2.600000e-06	-1.967419e-06	-1.246260e-09	-1.378958e+01	-8.287227e+01
2.610000e-06	-2.117807e-06	-1.596650e-09	-1.484365e+01	-1.053873e+02
2.620000e-06	-2.267443e-06	-1.941409e-09	-1.589244e+01	-1.277179e+02
2.630000e-06	-2.416113e-06	-2.276312e-09	-1.693446e+01	-1.496618e+02
2.640000e-06	-2.563812e-06	-2.600886e-09	-1.796968e+01	-1.710343e+02
2.650000e-06	-2.710644e-06	-2.911904e-09	-1.899882e+01	-1.916778e+02
2.660000e-06	-2.856539e-06	-3.209953e-09	-2.002140e+01	-2.114699e+02
2.670000e-06	-3.001372e-06	-3.496284e-09	-2.103652e+01	-2.303277e+02
2.680000e-06	-3.144989e-06	-3.770105e-09	-2.204313e+01	-2.482092e+02
2.690000e-06	-3.287380e-06	-4.029414e-09	-2.304114e+01	-2.651103e+02
2.700000e-06	-3.428457e-06	-4.274375e-09	-2.402995e+01	-2.810598e+02
2.710000e-06	-3.568039e-06	-4.508142e-09	-2.500828e+01	-2.961115e+02
2.720000e-06	-3.706338e-06	-4.731075e-09	-2.597761e+01	-3.103356e+02
2.730000e-06	-3.843323e-06	-4.942124e-09	-2.693773e+01	-3.238091e+02
2.740000e-06	-3.978791e-06	-5.142869e-09	-2.788723e+01	-3.366077e+02
2.750000e-06	-4.112880e-06	-5.332202e-09	-2.882705e+01	-3.487988e+02
2.760000e-06	-4.245575e-06	-5.508593e-09	-2.975710e+01	-3.604373e+02
2.770000e-06	-4.376769e-06	-5.674797e-09	-3.067664e+01	-3.715626e+02
2.780000e-06	-4.506530e-06	-5.834158e-09	-3.158613e+01	-3.821996e+02
2.790000e-06	-4.634723e-06	-5.988316e-09	-3.248463e+01	-3.923605e+02
2.800000e-06	-4.761288e-06	-6.136698e-09	-3.337172e+01	-4.020489e+02
2.810000e-06	-4.886193e-06	-6.277505e-09	-3.424718e+01	-4.112639e+02
2.820000e-06	-5.009341e-06	-6.411885e-09	-3.511032e+01	-4.200050e+02
2.830000e-06	-5.130715e-06	-6.539848e-09	-3.596102e+01	-4.282758e+02
2.840000e-06	-5.250217e-06	-6.659112e-09	-3.679861e+01	-4.360869e+02
2.850000e-06	-5.367696e-06	-6.771561e-09	-3.762202e+01	-4.434571e+02
2.860000e-06	-5.482978e-06	-6.880006e-09	-3.843003e+01	-4.504131e+02
2.870000e-06	-5.596037e-06	-6.982158e-09	-3.922246e+01	-4.569882e+02
2.880000e-06	-5.706917e-06	-7.077993e-09	-3.999961e+01	-4.632197e+02
2.890000e-06	-5.815692e-06	-7.170277e-09	-4.076201e+01	-4.691455e+02
2.900000e-06	-5.922472e-06	-7.257576e-09	-4.151043e+01	-4.748014e+02
2.910000e-06	-6.027145e-06	-7.339940e-09	-4.224408e+01	-4.802183e+02
2.920000e-06	-6.129588e-06	-7.417126e-09	-4.296209e+01	-4.854203e+02
2.930000e-06	-6.229761e-06	-7.492882e-09	-4.366421e+01	-4.904240e+02
2.940000e-06	-6.327693e-06	-7.567287e-09	-4.435061e+01	-4.952389e+02
