# Temperatura_=_62.1
# Concentracion g/m^3_=_15000.0
# C_Vs_to_Am_M_A/Vsm_=_65563218390.804596
# pendiente_HvsI_1/m_=_3716.3
# ordenada_HvsI_A/m_=_1297.0
# frecuencia_Hz_=_302364.898202237

Tiempo_(s)	Campo_(V.s)	Magnetizacion_(V.s)	Campo_(kA/m)	Magnetizacion_(A/m)
0.000000e+00	-8.149699e-06	-1.093899e-08	-5.689468e+01	-7.155665e+02
1.000000e-08	-8.145028e-06	-1.093447e-08	-5.686207e+01	-7.151930e+02
2.000000e-08	-8.137831e-06	-1.092525e-08	-5.681183e+01	-7.147118e+02
3.000000e-08	-8.127808e-06	-1.091661e-08	-5.674186e+01	-7.141345e+02
4.000000e-08	-8.114793e-06	-1.090958e-08	-5.665100e+01	-7.134711e+02
5.000000e-08	-8.098840e-06	-1.089963e-08	-5.653963e+01	-7.127288e+02
6.000000e-08	-8.080291e-06	-1.088306e-08	-5.641013e+01	-7.119115e+02
7.000000e-08	-8.059485e-06	-1.086254e-08	-5.626488e+01	-7.110194e+02
8.000000e-08	-8.036051e-06	-1.085228e-08	-5.610129e+01	-7.100502e+02
9.000000e-08	-8.009461e-06	-1.087438e-08	-5.591565e+01	-7.089993e+02
1.000000e-07	-7.979646e-06	-1.085412e-08	-5.570751e+01	-7.078609e+02
1.100000e-07	-7.946803e-06	-1.080829e-08	-5.547823e+01	-7.066293e+02
1.200000e-07	-7.911106e-06	-1.077921e-08	-5.522902e+01	-7.052998e+02
1.300000e-07	-7.872878e-06	-1.075295e-08	-5.496214e+01	-7.038686e+02
1.400000e-07	-7.832303e-06	-1.071509e-08	-5.467888e+01	-7.023336e+02
1.500000e-07	-7.789329e-06	-1.066663e-08	-5.437887e+01	-7.006934e+02
1.600000e-07	-7.743753e-06	-1.068481e-08	-5.406069e+01	-6.989468e+02
1.700000e-07	-7.695347e-06	-1.061755e-08	-5.372277e+01	-6.970922e+02
1.800000e-07	-7.644019e-06	-1.056348e-08	-5.336443e+01	-6.951267e+02
1.900000e-07	-7.589726e-06	-1.059752e-08	-5.298540e+01	-6.930455e+02
2.000000e-07	-7.532594e-06	-1.053009e-08	-5.258655e+01	-6.908416e+02
2.100000e-07	-7.472799e-06	-1.049708e-08	-5.216911e+01	-6.885067e+02
2.200000e-07	-7.410370e-06	-1.046785e-08	-5.173328e+01	-6.860314e+02
2.300000e-07	-7.345196e-06	-1.040868e-08	-5.127829e+01	-6.834064e+02
2.400000e-07	-7.277190e-06	-1.036980e-08	-5.080353e+01	-6.806239e+02
2.500000e-07	-7.206371e-06	-1.031817e-08	-5.030912e+01	-6.776788e+02
2.600000e-07	-7.132715e-06	-1.028441e-08	-4.979492e+01	-6.745694e+02
2.700000e-07	-7.056200e-06	-1.021604e-08	-4.926075e+01	-6.712978e+02
2.800000e-07	-6.976875e-06	-1.015025e-08	-4.870697e+01	-6.678700e+02
2.900000e-07	-6.894930e-06	-1.008700e-08	-4.813489e+01	-6.642948e+02
3.000000e-07	-6.810617e-06	-1.003879e-08	-4.754629e+01	-6.605828e+02
3.100000e-07	-6.723901e-06	-1.000594e-08	-4.694091e+01	-6.567446e+02
3.200000e-07	-6.634730e-06	-9.940092e-09	-4.631838e+01	-6.527889e+02
3.300000e-07	-6.543173e-06	-9.893739e-09	-4.567921e+01	-6.487213e+02
3.400000e-07	-6.449252e-06	-9.832862e-09	-4.502352e+01	-6.445430e+02
3.500000e-07	-6.353025e-06	-9.757317e-09	-4.435174e+01	-6.402504e+02
3.600000e-07	-6.254463e-06	-9.675864e-09	-4.366366e+01	-6.358351e+02
3.700000e-07	-6.153605e-06	-9.601486e-09	-4.295955e+01	-6.312853e+02
3.800000e-07	-6.050497e-06	-9.535053e-09	-4.223973e+01	-6.265870e+02
3.900000e-07	-5.945241e-06	-9.461364e-09	-4.150492e+01	-6.217256e+02
4.000000e-07	-5.837914e-06	-9.394068e-09	-4.075565e+01	-6.166884e+02
4.100000e-07	-5.728528e-06	-9.313919e-09	-3.999200e+01	-6.114658e+02
4.200000e-07	-5.617080e-06	-9.230660e-09	-3.921396e+01	-6.060521e+02
4.300000e-07	-5.503542e-06	-9.131646e-09	-3.842133e+01	-6.004462e+02
4.400000e-07	-5.387795e-06	-9.038370e-09	-3.761328e+01	-5.946508e+02
4.500000e-07	-5.269941e-06	-8.954352e-09	-3.679051e+01	-5.886714e+02
4.600000e-07	-5.150258e-06	-8.868326e-09	-3.595499e+01	-5.825144e+02
4.700000e-07	-5.028835e-06	-8.774809e-09	-3.510731e+01	-5.761848e+02
4.800000e-07	-4.905583e-06	-8.675895e-09	-3.424686e+01	-5.696849e+02
4.900000e-07	-4.780501e-06	-8.573482e-09	-3.337363e+01	-5.630123e+02
5.000000e-07	-4.653681e-06	-8.459837e-09	-3.248828e+01	-5.561597e+02
5.100000e-07	-4.525197e-06	-8.347941e-09	-3.159131e+01	-5.491146e+02
5.200000e-07	-4.395076e-06	-8.239931e-09	-3.068291e+01	-5.418604e+02
5.300000e-07	-4.263225e-06	-8.131044e-09	-2.976243e+01	-5.343784e+02
5.400000e-07	-4.129815e-06	-8.009016e-09	-2.883107e+01	-5.266500e+02
5.500000e-07	-3.994868e-06	-7.883310e-09	-2.788897e+01	-5.186589e+02
5.600000e-07	-3.858420e-06	-7.753209e-09	-2.693641e+01	-5.103932e+02
5.700000e-07	-3.720555e-06	-7.617423e-09	-2.597395e+01	-5.018466e+02
5.800000e-07	-3.581069e-06	-7.481497e-09	-2.500016e+01	-4.930189e+02
5.900000e-07	-3.439986e-06	-7.349085e-09	-2.401524e+01	-4.839152e+02
6.000000e-07	-3.297548e-06	-7.215450e-09	-2.302085e+01	-4.745439e+02
6.100000e-07	-3.153876e-06	-7.070568e-09	-2.201784e+01	-4.649143e+02
6.200000e-07	-3.008970e-06	-6.918781e-09	-2.100622e+01	-4.550333e+02
6.300000e-07	-2.862920e-06	-6.760539e-09	-1.998662e+01	-4.449030e+02
6.400000e-07	-2.715871e-06	-6.596819e-09	-1.896004e+01	-4.345178e+02
6.500000e-07	-2.567948e-06	-6.427360e-09	-1.792736e+01	-4.238632e+02
6.600000e-07	-2.419284e-06	-6.257853e-09	-1.688951e+01	-4.129160e+02
6.700000e-07	-2.269834e-06	-6.086384e-09	-1.584616e+01	-4.016455e+02
6.800000e-07	-2.119540e-06	-5.909826e-09	-1.479693e+01	-3.900163e+02
6.900000e-07	-1.968481e-06	-5.728858e-09	-1.374236e+01	-3.779919e+02
7.000000e-07	-1.816737e-06	-5.538350e-09	-1.268300e+01	-3.655385e+02
7.100000e-07	-1.664361e-06	-5.339320e-09	-1.161924e+01	-3.526287e+02
7.200000e-07	-1.511432e-06	-5.133786e-09	-1.055161e+01	-3.392443e+02
7.300000e-07	-1.358086e-06	-4.926436e-09	-9.481068e+00	-3.253771e+02
7.400000e-07	-1.204358e-06	-4.711814e-09	-8.407867e+00	-3.110282e+02
7.500000e-07	-1.050181e-06	-4.487041e-09	-7.331522e+00	-2.962053e+02
7.600000e-07	-8.954777e-07	-4.254678e-09	-6.251510e+00	-2.809180e+02
7.700000e-07	-7.402913e-07	-4.014616e-09	-5.168122e+00	-2.651720e+02
7.800000e-07	-5.848167e-07	-3.766634e-09	-4.082723e+00	-2.489628e+02
7.900000e-07	-4.291328e-07	-3.512092e-09	-2.995862e+00	-2.322700e+02
8.000000e-07	-2.732642e-07	-3.253698e-09	-1.907712e+00	-2.150534e+02
8.100000e-07	-1.172999e-07	-2.983509e-09	-8.188940e-01	-1.972507e+02
8.200000e-07	3.872331e-08	-2.698284e-09	2.703352e-01	-1.787795e+02
8.300000e-07	1.948117e-07	-2.401015e-09	1.360020e+00	-1.595414e+02
8.400000e-07	3.508580e-07	-2.092012e-09	2.449410e+00	-1.394303e+02
8.500000e-07	5.067028e-07	-1.766889e-09	3.537394e+00	-1.183432e+02
8.600000e-07	6.623926e-07	-1.424839e-09	4.624296e+00	-9.619203e+01
8.700000e-07	8.179043e-07	-1.072277e-09	5.709954e+00	-7.291684e+01
8.800000e-07	9.731462e-07	-7.074812e-10	6.793729e+00	-4.849748e+01
8.900000e-07	1.128035e-06	-3.253564e-10	7.875042e+00	-2.296301e+01
9.000000e-07	1.282453e-06	7.479490e-11	8.953061e+00	3.602453e+00
9.100000e-07	1.436312e-06	4.900124e-10	1.002718e+01	3.105844e+01
9.200000e-07	1.589577e-06	9.195817e-10	1.109716e+01	5.921161e+01
9.300000e-07	1.742320e-06	1.360445e-09	1.216349e+01	8.782413e+01
9.400000e-07	1.894477e-06	1.803421e-09	1.322572e+01	1.166260e+02
9.500000e-07	2.045959e-06	2.243864e-09	1.428325e+01	1.453307e+02
9.600000e-07	2.196712e-06	2.677690e-09	1.533569e+01	1.736518e+02
9.700000e-07	2.346543e-06	3.099283e-09	1.638169e+01	2.013202e+02
9.800000e-07	2.495482e-06	3.504062e-09	1.742146e+01	2.280996e+02
9.900000e-07	2.643571e-06	3.889007e-09	1.845530e+01	2.537981e+02
1.000000e-06	2.790614e-06	4.255934e-09	1.948184e+01	2.782770e+02
1.010000e-06	2.936590e-06	4.603882e-09	2.050092e+01	3.014539e+02
1.020000e-06	3.081481e-06	4.932259e-09	2.151244e+01	3.233012e+02
1.030000e-06	3.225243e-06	5.243237e-09	2.251607e+01	3.438409e+02
1.040000e-06	3.367787e-06	5.537130e-09	2.351120e+01	3.631354e+02
1.050000e-06	3.509014e-06	5.813327e-09	2.449713e+01	3.812757e+02
1.060000e-06	3.648902e-06	6.073301e-09	2.547372e+01	3.983699e+02
1.070000e-06	3.787340e-06	6.320267e-09	2.644018e+01	4.145308e+02
1.080000e-06	3.924302e-06	6.556815e-09	2.739634e+01	4.298661e+02
1.090000e-06	4.059849e-06	6.782033e-09	2.834262e+01	4.444704e+02
1.100000e-06	4.193923e-06	6.993717e-09	2.927862e+01	4.584205e+02
1.110000e-06	4.326510e-06	7.193716e-09	3.020423e+01	4.717736e+02
1.120000e-06	4.457638e-06	7.385409e-09	3.111967e+01	4.845683e+02
1.130000e-06	4.587149e-06	7.568460e-09	3.202381e+01	4.968277e+02
1.140000e-06	4.715027e-06	7.742728e-09	3.291655e+01	5.085642e+02
1.150000e-06	4.841294e-06	7.910880e-09	3.379805e+01	5.197842e+02
1.160000e-06	4.965924e-06	8.073112e-09	3.466811e+01	5.304929e+02
1.170000e-06	5.088901e-06	8.228689e-09	3.552664e+01	5.406979e+02
1.180000e-06	5.210037e-06	8.378231e-09	3.637231e+01	5.504120e+02
1.190000e-06	5.329233e-06	8.521302e-09	3.720445e+01	5.596537e+02
1.200000e-06	5.446489e-06	8.657116e-09	3.802303e+01	5.684465e+02
1.210000e-06	5.561655e-06	8.787223e-09	3.882703e+01	5.768179e+02
1.220000e-06	5.674592e-06	8.911159e-09	3.961546e+01	5.847963e+02
1.230000e-06	5.785349e-06	9.029537e-09	4.038868e+01	5.924093e+02
1.240000e-06	5.894089e-06	9.139080e-09	4.114782e+01	5.996813e+02
1.250000e-06	6.000774e-06	9.239888e-09	4.189261e+01	6.066325e+02
1.260000e-06	6.105250e-06	9.336584e-09	4.262197e+01	6.132783e+02
1.270000e-06	6.207464e-06	9.430074e-09	4.333555e+01	6.196299e+02
1.280000e-06	6.307415e-06	9.521962e-09	4.403333e+01	6.256959e+02
1.290000e-06	6.404955e-06	9.610763e-09	4.471428e+01	6.314838e+02
1.300000e-06	6.500050e-06	9.695482e-09	4.537815e+01	6.370016e+02
1.310000e-06	6.592944e-06	9.775999e-09	4.602667e+01	6.422599e+02
1.320000e-06	6.683508e-06	9.852461e-09	4.665891e+01	6.472723e+02
1.330000e-06	6.771549e-06	9.924116e-09	4.727354e+01	6.520555e+02
1.340000e-06	6.857227e-06	9.991202e-09	4.787168e+01	6.566290e+02
1.350000e-06	6.940621e-06	1.005597e-08	4.845387e+01	6.610129e+02
1.360000e-06	7.021542e-06	1.011973e-08	4.901879e+01	6.652263e+02
1.370000e-06	7.099851e-06	1.018317e-08	4.956548e+01	6.692854e+02
1.380000e-06	7.175481e-06	1.024535e-08	5.009347e+01	6.732011e+02
1.390000e-06	7.248382e-06	1.030555e-08	5.060241e+01	6.769782e+02
1.400000e-06	7.318688e-06	1.036154e-08	5.109323e+01	6.806146e+02
1.410000e-06	7.386483e-06	1.041263e-08	5.156652e+01	6.841020e+02
1.420000e-06	7.451616e-06	1.045993e-08	5.202123e+01	6.874274e+02
1.430000e-06	7.514060e-06	1.050582e-08	5.245716e+01	6.905747e+02
1.440000e-06	7.573949e-06	1.054937e-08	5.287526e+01	6.935280e+02
1.450000e-06	7.631215e-06	1.058840e-08	5.327504e+01	6.962734e+02
1.460000e-06	7.685777e-06	1.062347e-08	5.365595e+01	6.988018e+02
1.470000e-06	7.737381e-06	1.065764e-08	5.401621e+01	7.011101e+02
1.480000e-06	7.785785e-06	1.069166e-08	5.435413e+01	7.032023e+02
1.490000e-06	7.831282e-06	1.072292e-08	5.467175e+01	7.050889e+02
1.500000e-06	7.874027e-06	1.075097e-08	5.497017e+01	7.067856e+02
1.510000e-06	7.913864e-06	1.077341e-08	5.524828e+01	7.083118e+02
1.520000e-06	7.950979e-06	1.079243e-08	5.550738e+01	7.096877e+02
1.530000e-06	7.985391e-06	1.080936e-08	5.574762e+01	7.109324e+02
1.540000e-06	8.016860e-06	1.082515e-08	5.596731e+01	7.120614e+02
1.550000e-06	8.045552e-06	1.084040e-08	5.616761e+01	7.130852e+02
1.560000e-06	8.071413e-06	1.085338e-08	5.634816e+01	7.140086e+02
1.570000e-06	8.094247e-06	1.086670e-08	5.650757e+01	7.148308e+02
1.580000e-06	8.114236e-06	1.088030e-08	5.664711e+01	7.155464e+02
1.590000e-06	8.131354e-06	1.089243e-08	5.676661e+01	7.161471e+02
1.600000e-06	8.145454e-06	1.090117e-08	5.686505e+01	7.166232e+02
1.610000e-06	8.156388e-06	1.090637e-08	5.694139e+01	7.169663e+02
1.620000e-06	8.164077e-06	1.090953e-08	5.699506e+01	7.171703e+02
1.630000e-06	8.168844e-06	1.091029e-08	5.702834e+01	7.172330e+02
1.640000e-06	8.170729e-06	1.090913e-08	5.704150e+01	7.171566e+02
1.650000e-06	8.169773e-06	1.090739e-08	5.703483e+01	7.169473e+02
1.660000e-06	8.166202e-06	1.090013e-08	5.700990e+01	7.166146e+02
1.670000e-06	8.159873e-06	1.089475e-08	5.696571e+01	7.161700e+02
1.680000e-06	8.150780e-06	1.089029e-08	5.690223e+01	7.156254e+02
1.690000e-06	8.138904e-06	1.088431e-08	5.681932e+01	7.149913e+02
1.700000e-06	8.124150e-06	1.087830e-08	5.671632e+01	7.142761e+02
1.710000e-06	8.106750e-06	1.087127e-08	5.659485e+01	7.134848e+02
1.720000e-06	8.086993e-06	1.085741e-08	5.645692e+01	7.126191e+02
1.730000e-06	8.064689e-06	1.082133e-08	5.630121e+01	7.116775e+02
1.740000e-06	8.039100e-06	1.076532e-08	5.612257e+01	7.106558e+02
1.750000e-06	8.009757e-06	1.076672e-08	5.591773e+01	7.095489e+02
1.760000e-06	7.977017e-06	1.076602e-08	5.568916e+01	7.083507e+02
1.770000e-06	7.941654e-06	1.074381e-08	5.544228e+01	7.070562e+02
1.780000e-06	7.903944e-06	1.074150e-08	5.517902e+01	7.056612e+02
1.790000e-06	7.863954e-06	1.076392e-08	5.489984e+01	7.041630e+02
1.800000e-06	7.821967e-06	1.069758e-08	5.460672e+01	7.025600e+02
1.810000e-06	7.777564e-06	1.066539e-08	5.429673e+01	7.008510e+02
1.820000e-06	7.730286e-06	1.070024e-08	5.396668e+01	6.990348e+02
1.830000e-06	7.680211e-06	1.060854e-08	5.361709e+01	6.971089e+02
1.840000e-06	7.627067e-06	1.061953e-08	5.324609e+01	6.950692e+02
1.850000e-06	7.570982e-06	1.055925e-08	5.285454e+01	6.929096e+02
1.860000e-06	7.512208e-06	1.049884e-08	5.244423e+01	6.906221e+02
1.870000e-06	7.450692e-06	1.051406e-08	5.201478e+01	6.881975e+02
1.880000e-06	7.386474e-06	1.045761e-08	5.156646e+01	6.856265e+02
1.890000e-06	7.319352e-06	1.046416e-08	5.109787e+01	6.829005e+02
1.900000e-06	7.249318e-06	1.037544e-08	5.060894e+01	6.800134e+02
1.910000e-06	7.176359e-06	1.031923e-08	5.009960e+01	6.769622e+02
1.920000e-06	7.100649e-06	1.028010e-08	4.957106e+01	6.737475e+02
1.930000e-06	7.022243e-06	1.022407e-08	4.902369e+01	6.703741e+02
1.940000e-06	6.941136e-06	1.022225e-08	4.845747e+01	6.668500e+02
1.950000e-06	6.857590e-06	1.013242e-08	4.787421e+01	6.631851e+02
1.960000e-06	6.771406e-06	1.008406e-08	4.727254e+01	6.593904e+02
1.970000e-06	6.682634e-06	1.000068e-08	4.665281e+01	6.554753e+02
1.980000e-06	6.591459e-06	9.923858e-09	4.601630e+01	6.514469e+02
1.990000e-06	6.498053e-06	9.884649e-09	4.536421e+01	6.473078e+02
2.000000e-06	6.402412e-06	9.826745e-09	4.469652e+01	6.430563e+02
2.010000e-06	6.304456e-06	9.778311e-09	4.401267e+01	6.386855e+02
2.020000e-06	6.204261e-06	9.685635e-09	4.331319e+01	6.341848e+02
2.030000e-06	6.101764e-06	9.610642e-09	4.259764e+01	6.295407e+02
2.040000e-06	5.997024e-06	9.524617e-09	4.186643e+01	6.247387e+02
2.050000e-06	5.890178e-06	9.452656e-09	4.112052e+01	6.197651e+02
2.060000e-06	5.781425e-06	9.373593e-09	4.036129e+01	6.146091e+02
2.070000e-06	5.670680e-06	9.299730e-09	3.958816e+01	6.092635e+02
2.080000e-06	5.557756e-06	9.230501e-09	3.879981e+01	6.037257e+02
2.090000e-06	5.442659e-06	9.144405e-09	3.799629e+01	5.979970e+02
2.100000e-06	5.325538e-06	9.055516e-09	3.717865e+01	5.920821e+02
2.110000e-06	5.206444e-06	8.954778e-09	3.634723e+01	5.859873e+02
2.120000e-06	5.085386e-06	8.850618e-09	3.550210e+01	5.797185e+02
2.130000e-06	4.962470e-06	8.738789e-09	3.464400e+01	5.732789e+02
2.140000e-06	4.837762e-06	8.652132e-09	3.377339e+01	5.666681e+02
2.150000e-06	4.711368e-06	8.566156e-09	3.289101e+01	5.598806e+02
2.160000e-06	4.583204e-06	8.465846e-09	3.199627e+01	5.529054e+02
2.170000e-06	4.453320e-06	8.343283e-09	3.108952e+01	5.457275e+02
2.180000e-06	4.321811e-06	8.221222e-09	3.017143e+01	5.383286e+02
2.190000e-06	4.188737e-06	8.102647e-09	2.924241e+01	5.306897e+02
2.200000e-06	4.054194e-06	7.986263e-09	2.830315e+01	5.227936e+02
2.210000e-06	3.918037e-06	7.871847e-09	2.735260e+01	5.146265e+02
2.220000e-06	3.780237e-06	7.747471e-09	2.639060e+01	5.061801e+02
2.230000e-06	3.641015e-06	7.609415e-09	2.541866e+01	4.974521e+02
2.240000e-06	3.500448e-06	7.462342e-09	2.443733e+01	4.884456e+02
2.250000e-06	3.358567e-06	7.323335e-09	2.344683e+01	4.791683e+02
2.260000e-06	3.215395e-06	7.185566e-09	2.244732e+01	4.696295e+02
2.270000e-06	3.070882e-06	7.042119e-09	2.143844e+01	4.598372e+02
2.280000e-06	2.925223e-06	6.891309e-09	2.042157e+01	4.497957e+02
2.290000e-06	2.778582e-06	6.738450e-09	1.939784e+01	4.395023e+02
2.300000e-06	2.630995e-06	6.579462e-09	1.836750e+01	4.289456e+02
2.310000e-06	2.482499e-06	6.413594e-09	1.733083e+01	4.181056e+02
2.320000e-06	2.333173e-06	6.238992e-09	1.628835e+01	4.069540e+02
2.330000e-06	2.183185e-06	6.055334e-09	1.524125e+01	3.954567e+02
2.340000e-06	2.032472e-06	5.868814e-09	1.418909e+01	3.835770e+02
2.350000e-06	1.880894e-06	5.686268e-09	1.313090e+01	3.712799e+02
2.360000e-06	1.728576e-06	5.500410e-09	1.206754e+01	3.585353e+02
2.370000e-06	1.575697e-06	5.300180e-09	1.100026e+01	3.453214e+02
2.380000e-06	1.422365e-06	5.088033e-09	9.929814e+00	3.316264e+02
2.390000e-06	1.268627e-06	4.869478e-09	8.856538e+00	3.174484e+02
2.400000e-06	1.114445e-06	4.646930e-09	7.780163e+00	3.027932e+02
2.410000e-06	9.598957e-07	4.419720e-09	6.701225e+00	2.876703e+02
2.420000e-06	8.050330e-07	4.188334e-09	5.620097e+00	2.720875e+02
2.430000e-06	6.498777e-07	3.947537e-09	4.536927e+00	2.560447e+02
2.440000e-06	4.944820e-07	3.692108e-09	3.452078e+00	2.395277e+02
2.450000e-06	3.388608e-07	3.426080e-09	2.365655e+00	2.225037e+02
2.460000e-06	1.831029e-07	3.155339e-09	1.278278e+00	2.049183e+02
2.470000e-06	2.722112e-08	2.875076e-09	1.900361e-01	1.866960e+02
2.480000e-06	-1.287413e-07	2.581669e-09	-8.987692e-01	1.677433e+02
2.490000e-06	-2.846665e-07	2.278634e-09	-1.987314e+00	1.479558e+02
2.500000e-06	-4.404707e-07	1.963523e-09	-3.075014e+00	1.272279e+02
2.510000e-06	-5.961136e-07	1.632910e-09	-4.161589e+00	1.054649e+02
2.520000e-06	-7.515841e-07	1.285119e-09	-5.246960e+00	8.259529e+01
2.530000e-06	-9.068014e-07	9.207185e-10	-6.330563e+00	5.858347e+01
2.540000e-06	-1.061660e-06	5.404481e-10	-7.411661e+00	3.344006e+01
2.550000e-06	-1.216089e-06	1.449726e-10	-8.489759e+00	7.229116e+00
2.560000e-06	-1.370129e-06	-2.646523e-10	-9.565143e+00	-1.992888e+01
2.570000e-06	-1.523744e-06	-6.878748e-10	-1.063756e+01	-4.785875e+01
2.580000e-06	-1.676829e-06	-1.124701e-09	-1.170628e+01	-7.633732e+01
2.590000e-06	-1.829292e-06	-1.572296e-09	-1.277066e+01	-1.051045e+02
2.600000e-06	-1.980961e-06	-2.022736e-09	-1.382949e+01	-1.338776e+02
2.610000e-06	-2.131734e-06	-2.469128e-09	-1.488206e+01	-1.623682e+02
2.620000e-06	-2.281652e-06	-2.902618e-09	-1.592867e+01	-1.902994e+02
2.630000e-06	-2.430771e-06	-3.316353e-09	-1.696970e+01	-2.174213e+02
2.640000e-06	-2.579048e-06	-3.712087e-09	-1.800485e+01	-2.435251e+02
2.650000e-06	-2.726370e-06	-4.091181e-09	-1.903334e+01	-2.684525e+02
2.660000e-06	-2.872643e-06	-4.449816e-09	-2.005450e+01	-2.921008e+02
2.670000e-06	-3.017899e-06	-4.785502e-09	-2.106856e+01	-3.144233e+02
2.680000e-06	-3.162073e-06	-5.101618e-09	-2.207507e+01	-3.354252e+02
2.690000e-06	-3.304958e-06	-5.401203e-09	-2.307257e+01	-3.551556e+02
2.700000e-06	-3.446538e-06	-5.686874e-09	-2.406097e+01	-3.736968e+02
2.710000e-06	-3.586787e-06	-5.959637e-09	-2.504008e+01	-3.911521e+02
2.720000e-06	-3.725622e-06	-6.218742e-09	-2.600931e+01	-4.076340e+02
2.730000e-06	-3.863099e-06	-6.464519e-09	-2.696907e+01	-4.232530e+02
2.740000e-06	-3.999154e-06	-6.696458e-09	-2.791890e+01	-4.381091e+02
2.750000e-06	-4.133654e-06	-6.916970e-09	-2.885787e+01	-4.522857e+02
2.760000e-06	-4.266705e-06	-7.126541e-09	-2.978672e+01	-4.658471e+02
2.770000e-06	-4.398337e-06	-7.323520e-09	-3.070567e+01	-4.788383e+02
2.780000e-06	-4.528447e-06	-7.509979e-09	-3.161399e+01	-4.912875e+02
2.790000e-06	-4.657038e-06	-7.689417e-09	-3.251172e+01	-5.032103e+02
2.800000e-06	-4.783991e-06	-7.863380e-09	-3.339801e+01	-5.146147e+02
2.810000e-06	-4.909274e-06	-8.029659e-09	-3.427263e+01	-5.255058e+02
2.820000e-06	-5.032883e-06	-8.188537e-09	-3.513557e+01	-5.358900e+02
2.830000e-06	-5.154736e-06	-8.339773e-09	-3.598625e+01	-5.457780e+02
2.840000e-06	-5.274664e-06	-8.482234e-09	-3.682349e+01	-5.551864e+02
2.850000e-06	-5.392497e-06	-8.617538e-09	-3.764610e+01	-5.641371e+02
2.860000e-06	-5.508184e-06	-8.748066e-09	-3.845374e+01	-5.726562e+02
2.870000e-06	-5.621599e-06	-8.873777e-09	-3.924551e+01	-5.807721e+02
2.880000e-06	-5.732789e-06	-8.993806e-09	-4.002175e+01	-5.885131e+02
2.890000e-06	-5.841971e-06	-9.110100e-09	-4.078397e+01	-5.959049e+02
2.900000e-06	-5.949173e-06	-9.221764e-09	-4.153237e+01	-6.029691e+02
2.910000e-06	-6.054278e-06	-9.327042e-09	-4.226613e+01	-6.097229e+02
2.920000e-06	-6.157105e-06	-9.425668e-09	-4.298398e+01	-6.161790e+02
2.930000e-06	-6.257611e-06	-9.519425e-09	-4.368564e+01	-6.223466e+02
2.940000e-06	-6.355899e-06	-9.608403e-09	-4.437181e+01	-6.282334e+02
