# Temperatura_=_67.85
# Concentracion g/m^3_=_15000.0
# C_Vs_to_Am_M_A/Vsm_=_65563218390.804596
# pendiente_HvsI_1/m_=_3716.3
# ordenada_HvsI_A/m_=_1297.0
# frecuencia_Hz_=_302363.207647273

Tiempo_(s)	Campo_(V.s)	Magnetizacion_(V.s)	Campo_(kA/m)	Magnetizacion_(A/m)
0.000000e+00	-8.145195e-06	-1.186194e-08	-5.689891e+01	-7.760705e+02
1.000000e-08	-8.141139e-06	-1.186455e-08	-5.687057e+01	-7.756806e+02
2.000000e-08	-8.134513e-06	-1.185440e-08	-5.682428e+01	-7.751665e+02
3.000000e-08	-8.125178e-06	-1.184313e-08	-5.675908e+01	-7.745423e+02
4.000000e-08	-8.112887e-06	-1.183118e-08	-5.667322e+01	-7.738206e+02
5.000000e-08	-8.097560e-06	-1.181531e-08	-5.656615e+01	-7.730110e+02
6.000000e-08	-8.079497e-06	-1.179586e-08	-5.643997e+01	-7.721191e+02
7.000000e-08	-8.059155e-06	-1.176703e-08	-5.629787e+01	-7.711463e+02
8.000000e-08	-8.036357e-06	-1.175318e-08	-5.613861e+01	-7.700900e+02
9.000000e-08	-8.010467e-06	-1.184323e-08	-5.595776e+01	-7.689449e+02
1.000000e-07	-7.981299e-06	-1.181429e-08	-5.575400e+01	-7.677038e+02
1.100000e-07	-7.949099e-06	-1.171207e-08	-5.552906e+01	-7.663591e+02
1.200000e-07	-7.913995e-06	-1.167869e-08	-5.528384e+01	-7.649043e+02
1.300000e-07	-7.876243e-06	-1.165037e-08	-5.502012e+01	-7.633344e+02
1.400000e-07	-7.836110e-06	-1.160184e-08	-5.473977e+01	-7.616464e+02
1.500000e-07	-7.793666e-06	-1.152511e-08	-5.444327e+01	-7.598389e+02
1.600000e-07	-7.748758e-06	-1.163497e-08	-5.412956e+01	-7.579116e+02
1.700000e-07	-7.701045e-06	-1.154988e-08	-5.379626e+01	-7.558637e+02
1.800000e-07	-7.650413e-06	-1.141731e-08	-5.344256e+01	-7.536935e+02
1.900000e-07	-7.596853e-06	-1.154770e-08	-5.306842e+01	-7.513970e+02
2.000000e-07	-7.540377e-06	-1.141121e-08	-5.267390e+01	-7.489678e+02
2.100000e-07	-7.481161e-06	-1.133423e-08	-5.226025e+01	-7.463968e+02
2.200000e-07	-7.419356e-06	-1.134318e-08	-5.182850e+01	-7.436732e+02
2.300000e-07	-7.354895e-06	-1.128355e-08	-5.137820e+01	-7.407856e+02
2.400000e-07	-7.287621e-06	-1.126549e-08	-5.090826e+01	-7.377233e+02
2.500000e-07	-7.217546e-06	-1.116751e-08	-5.041874e+01	-7.344782e+02
2.600000e-07	-7.144617e-06	-1.116561e-08	-4.990929e+01	-7.310459e+02
2.700000e-07	-7.068795e-06	-1.108820e-08	-4.937963e+01	-7.274266e+02
2.800000e-07	-6.990126e-06	-1.101363e-08	-4.883008e+01	-7.236254e+02
2.900000e-07	-6.908770e-06	-1.094550e-08	-4.826176e+01	-7.196517e+02
3.000000e-07	-6.825023e-06	-1.090252e-08	-4.767674e+01	-7.155178e+02
3.100000e-07	-6.738970e-06	-1.088292e-08	-4.707561e+01	-7.112373e+02
3.200000e-07	-6.650464e-06	-1.074740e-08	-4.645734e+01	-7.068227e+02
3.300000e-07	-6.559459e-06	-1.070386e-08	-4.582162e+01	-7.022835e+02
3.400000e-07	-6.466125e-06	-1.065175e-08	-4.516963e+01	-6.976245e+02
3.500000e-07	-6.370445e-06	-1.056178e-08	-4.450125e+01	-6.928448e+02
3.600000e-07	-6.272345e-06	-1.046189e-08	-4.381596e+01	-6.879374e+02
3.700000e-07	-6.171980e-06	-1.040309e-08	-4.311485e+01	-6.828903e+02
3.800000e-07	-6.069437e-06	-1.034491e-08	-4.239853e+01	-6.776880e+02
3.900000e-07	-5.964692e-06	-1.023094e-08	-4.166683e+01	-6.723131e+02
4.000000e-07	-5.857857e-06	-1.015427e-08	-4.092052e+01	-6.667493e+02
4.100000e-07	-5.749048e-06	-1.007262e-08	-4.016043e+01	-6.609833e+02
4.200000e-07	-5.638153e-06	-9.986864e-09	-3.938576e+01	-6.550063e+02
4.300000e-07	-5.525067e-06	-9.867718e-09	-3.859579e+01	-6.488150e+02
4.400000e-07	-5.409864e-06	-9.776566e-09	-3.779103e+01	-6.424118e+02
4.500000e-07	-5.292625e-06	-9.692739e-09	-3.697205e+01	-6.358031e+02
4.600000e-07	-5.173418e-06	-9.588663e-09	-3.613932e+01	-6.289981e+02
4.700000e-07	-5.052397e-06	-9.470521e-09	-3.529392e+01	-6.220059e+02
4.800000e-07	-4.929564e-06	-9.361379e-09	-3.443586e+01	-6.148332e+02
4.900000e-07	-4.804926e-06	-9.257726e-09	-3.356519e+01	-6.074822e+02
5.000000e-07	-4.678605e-06	-9.134090e-09	-3.268277e+01	-5.999491e+02
5.100000e-07	-4.550531e-06	-9.016016e-09	-3.178809e+01	-5.922236e+02
5.200000e-07	-4.420764e-06	-8.894011e-09	-3.088159e+01	-5.842895e+02
5.300000e-07	-4.289352e-06	-8.773067e-09	-2.996361e+01	-5.761264e+02
5.400000e-07	-4.156397e-06	-8.636478e-09	-2.903484e+01	-5.677119e+02
5.500000e-07	-4.021935e-06	-8.502349e-09	-2.809554e+01	-5.590250e+02
5.600000e-07	-3.885870e-06	-8.363558e-09	-2.714505e+01	-5.500479e+02
5.700000e-07	-3.748333e-06	-8.219833e-09	-2.618428e+01	-5.407691e+02
5.800000e-07	-3.609300e-06	-8.071178e-09	-2.521305e+01	-5.311839e+02
5.900000e-07	-3.468611e-06	-7.920857e-09	-2.423025e+01	-5.212945e+02
6.000000e-07	-3.326536e-06	-7.770463e-09	-2.323778e+01	-5.111088e+02
6.100000e-07	-3.183233e-06	-7.609873e-09	-2.223673e+01	-5.006378e+02
6.200000e-07	-3.038712e-06	-7.445614e-09	-2.122716e+01	-4.898924e+02
6.300000e-07	-2.893077e-06	-7.275821e-09	-2.020982e+01	-4.788798e+02
6.400000e-07	-2.746345e-06	-7.105637e-09	-1.918481e+01	-4.676003e+02
6.500000e-07	-2.598677e-06	-6.926900e-09	-1.815326e+01	-4.560452e+02
6.600000e-07	-2.450180e-06	-6.744324e-09	-1.711593e+01	-4.441959e+02
6.700000e-07	-2.300855e-06	-6.555440e-09	-1.607280e+01	-4.320241e+02
6.800000e-07	-2.150752e-06	-6.361088e-09	-1.502425e+01	-4.194945e+02
6.900000e-07	-1.999906e-06	-6.163683e-09	-1.397050e+01	-4.065680e+02
7.000000e-07	-1.848328e-06	-5.959304e-09	-1.291164e+01	-3.932058e+02
7.100000e-07	-1.696101e-06	-5.747688e-09	-1.184825e+01	-3.793740e+02
7.200000e-07	-1.543323e-06	-5.526082e-09	-1.078101e+01	-3.650467e+02
7.300000e-07	-1.390097e-06	-5.301476e-09	-9.710629e+00	-3.502084e+02
7.400000e-07	-1.236441e-06	-5.069765e-09	-8.637254e+00	-3.348540e+02
7.500000e-07	-1.082352e-06	-4.831342e-09	-7.560858e+00	-3.189869e+02
7.600000e-07	-9.278538e-07	-4.583814e-09	-6.481596e+00	-3.026146e+02
7.700000e-07	-7.729925e-07	-4.328204e-09	-5.399801e+00	-2.857432e+02
7.800000e-07	-6.178544e-07	-4.064094e-09	-4.316071e+00	-2.683704e+02
7.900000e-07	-4.625030e-07	-3.791943e-09	-3.230851e+00	-2.504791e+02
8.000000e-07	-3.069555e-07	-3.512535e-09	-2.144262e+00	-2.320326e+02
8.100000e-07	-1.513046e-07	-3.218656e-09	-1.056950e+00	-2.129708e+02
8.200000e-07	4.372755e-09	-2.911017e-09	3.054623e-02	-1.932111e+02
8.300000e-07	1.600872e-07	-2.592508e-09	1.118302e+00	-1.726522e+02
8.400000e-07	3.157950e-07	-2.263245e-09	2.206011e+00	-1.511814e+02
8.500000e-07	4.714174e-07	-1.918474e-09	3.293124e+00	-1.286859e+02
8.600000e-07	6.269297e-07	-1.557258e-09	4.379467e+00	-1.050651e+02
8.700000e-07	7.822526e-07	-1.180290e-09	5.464488e+00	-8.024567e+01
8.800000e-07	9.372909e-07	-7.892927e-10	6.547520e+00	-5.419419e+01
8.900000e-07	1.092049e-06	-3.829406e-10	7.628592e+00	-2.692881e+01
9.000000e-07	1.246454e-06	4.049812e-11	8.707204e+00	1.473177e+00
9.100000e-07	1.400411e-06	4.807167e-10	9.782682e+00	3.087253e+01
9.200000e-07	1.553865e-06	9.418234e-10	1.085465e+01	6.107052e+01
9.300000e-07	1.706740e-06	1.419100e-09	1.192257e+01	9.181694e+01
9.400000e-07	1.858983e-06	1.900764e-09	1.298607e+01	1.228228e+02
9.500000e-07	2.010554e-06	2.378820e-09	1.404488e+01	1.537771e+02
9.600000e-07	2.161388e-06	2.849448e-09	1.509855e+01	1.843650e+02
9.700000e-07	2.311383e-06	3.304889e-09	1.614635e+01	2.142876e+02
9.800000e-07	2.460515e-06	3.743823e-09	1.718812e+01	2.432791e+02
9.900000e-07	2.608743e-06	4.162653e-09	1.822358e+01	2.711212e+02
1.000000e-06	2.755907e-06	4.559391e-09	1.925160e+01	2.976536e+02
1.010000e-06	2.902002e-06	4.934810e-09	2.027216e+01	3.227782e+02
1.020000e-06	3.047060e-06	5.287549e-09	2.128548e+01	3.464588e+02
1.030000e-06	3.191023e-06	5.621613e-09	2.229114e+01	3.687156e+02
1.040000e-06	3.333759e-06	5.938711e-09	2.328824e+01	3.896150e+02
1.050000e-06	3.475182e-06	6.240217e-09	2.427616e+01	4.092571e+02
1.060000e-06	3.615242e-06	6.525691e-09	2.525456e+01	4.277619e+02
1.070000e-06	3.753850e-06	6.795662e-09	2.622282e+01	4.452560e+02
1.080000e-06	3.891064e-06	7.051916e-09	2.718134e+01	4.618601e+02
1.090000e-06	4.026906e-06	7.295032e-09	2.813027e+01	4.776803e+02
1.100000e-06	4.161268e-06	7.524998e-09	2.906886e+01	4.928025e+02
1.110000e-06	4.294152e-06	7.743497e-09	2.999714e+01	5.072897e+02
1.120000e-06	4.425474e-06	7.951743e-09	3.091450e+01	5.211838e+02
1.130000e-06	4.555185e-06	8.149211e-09	3.182060e+01	5.345086e+02
1.140000e-06	4.683371e-06	8.339037e-09	3.271606e+01	5.472757e+02
1.150000e-06	4.809924e-06	8.521839e-09	3.360011e+01	5.594903e+02
1.160000e-06	4.934877e-06	8.697035e-09	3.447298e+01	5.711569e+02
1.170000e-06	5.058111e-06	8.866002e-09	3.533383e+01	5.822836e+02
1.180000e-06	5.179462e-06	9.029143e-09	3.618154e+01	5.928850e+02
1.190000e-06	5.299027e-06	9.186046e-09	3.701677e+01	6.029829e+02
1.200000e-06	5.416693e-06	9.334077e-09	3.783874e+01	6.126056e+02
1.210000e-06	5.532223e-06	9.474690e-09	3.864578e+01	6.217853e+02
1.220000e-06	5.645578e-06	9.609407e-09	3.943764e+01	6.305553e+02
1.230000e-06	5.756784e-06	9.739862e-09	4.021447e+01	6.389464e+02
1.240000e-06	5.865955e-06	9.864122e-09	4.097709e+01	6.469847e+02
1.250000e-06	5.973069e-06	9.981644e-09	4.172534e+01	6.546895e+02
1.260000e-06	6.077989e-06	1.009357e-08	4.245827e+01	6.620729e+02
1.270000e-06	6.180689e-06	1.019903e-08	4.317569e+01	6.691410e+02
1.280000e-06	6.281078e-06	1.029954e-08	4.387697e+01	6.758955e+02
1.290000e-06	6.379116e-06	1.039616e-08	4.456182e+01	6.823369e+02
1.300000e-06	6.474802e-06	1.048903e-08	4.523024e+01	6.884668e+02
1.310000e-06	6.568216e-06	1.057667e-08	4.588280e+01	6.942909e+02
1.320000e-06	6.659263e-06	1.065930e-08	4.651881e+01	6.998205e+02
1.330000e-06	6.747855e-06	1.073774e-08	4.713768e+01	7.050731e+02
1.340000e-06	6.834069e-06	1.081306e-08	4.773993e+01	7.100719e+02
1.350000e-06	6.917914e-06	1.088534e-08	4.832564e+01	7.148438e+02
1.360000e-06	6.999324e-06	1.095505e-08	4.889433e+01	7.194169e+02
1.370000e-06	7.078142e-06	1.102401e-08	4.944492e+01	7.238172e+02
1.380000e-06	7.154301e-06	1.109236e-08	4.997694e+01	7.280656e+02
1.390000e-06	7.227813e-06	1.115896e-08	5.049046e+01	7.321759e+02
1.400000e-06	7.298688e-06	1.122111e-08	5.098557e+01	7.361524e+02
1.410000e-06	7.366997e-06	1.127802e-08	5.146274e+01	7.399909e+02
1.420000e-06	7.432697e-06	1.133191e-08	5.192169e+01	7.436788e+02
1.430000e-06	7.495740e-06	1.138394e-08	5.236208e+01	7.471977e+02
1.440000e-06	7.556238e-06	1.143296e-08	5.278470e+01	7.505265e+02
1.450000e-06	7.614106e-06	1.147932e-08	5.318894e+01	7.536445e+02
1.460000e-06	7.669234e-06	1.152105e-08	5.357404e+01	7.565350e+02
1.470000e-06	7.721414e-06	1.155874e-08	5.393855e+01	7.591874e+02
1.480000e-06	7.770420e-06	1.159584e-08	5.428088e+01	7.615993e+02
1.490000e-06	7.816499e-06	1.163097e-08	5.460277e+01	7.637768e+02
1.500000e-06	7.859873e-06	1.166147e-08	5.490577e+01	7.657334e+02
1.510000e-06	7.900421e-06	1.168783e-08	5.518902e+01	7.674886e+02
1.520000e-06	7.938183e-06	1.171045e-08	5.545281e+01	7.690647e+02
1.530000e-06	7.973205e-06	1.172973e-08	5.569745e+01	7.704845e+02
1.540000e-06	8.005310e-06	1.174816e-08	5.592173e+01	7.717679e+02
1.550000e-06	8.034637e-06	1.176577e-08	5.612659e+01	7.729300e+02
1.560000e-06	8.061147e-06	1.178193e-08	5.631178e+01	7.739795e+02
1.570000e-06	8.084591e-06	1.179607e-08	5.647555e+01	7.749183e+02
1.580000e-06	8.105141e-06	1.180861e-08	5.661911e+01	7.757423e+02
1.590000e-06	8.122834e-06	1.182028e-08	5.674270e+01	7.764428e+02
1.600000e-06	8.137511e-06	1.182814e-08	5.684523e+01	7.770091e+02
1.610000e-06	8.149056e-06	1.183261e-08	5.692588e+01	7.774301e+02
1.620000e-06	8.157449e-06	1.183680e-08	5.698451e+01	7.776975e+02
1.630000e-06	8.162961e-06	1.183802e-08	5.702301e+01	7.778066e+02
1.640000e-06	8.165608e-06	1.183663e-08	5.704150e+01	7.777581e+02
1.650000e-06	8.165322e-06	1.183950e-08	5.703950e+01	7.775575e+02
1.660000e-06	8.162310e-06	1.183000e-08	5.701847e+01	7.772148e+02
1.670000e-06	8.156580e-06	1.182625e-08	5.697844e+01	7.767429e+02
1.680000e-06	8.148075e-06	1.182515e-08	5.691902e+01	7.761561e+02
1.690000e-06	8.136799e-06	1.181732e-08	5.684026e+01	7.754674e+02
1.700000e-06	8.122627e-06	1.180876e-08	5.674125e+01	7.746878e+02
1.710000e-06	8.105753e-06	1.180644e-08	5.662338e+01	7.738245e+02
1.720000e-06	8.086566e-06	1.181397e-08	5.648935e+01	7.728802e+02
1.730000e-06	8.064885e-06	1.176429e-08	5.633789e+01	7.718538e+02
1.740000e-06	8.040089e-06	1.162434e-08	5.616468e+01	7.707407e+02
1.750000e-06	8.011579e-06	1.166241e-08	5.596552e+01	7.695342e+02
1.760000e-06	7.979422e-06	1.169697e-08	5.574088e+01	7.682269e+02
1.770000e-06	7.944588e-06	1.165482e-08	5.549755e+01	7.668116e+02
1.780000e-06	7.907501e-06	1.166414e-08	5.523847e+01	7.652827e+02
1.790000e-06	7.868054e-06	1.176332e-08	5.496291e+01	7.636367e+02
1.800000e-06	7.826603e-06	1.158681e-08	5.467336e+01	7.618715e+02
1.810000e-06	7.782873e-06	1.148742e-08	5.436788e+01	7.599865e+02
1.820000e-06	7.736272e-06	1.167173e-08	5.404234e+01	7.579814e+02
1.830000e-06	7.686914e-06	1.144966e-08	5.369754e+01	7.558547e+02
1.840000e-06	7.634495e-06	1.154323e-08	5.333137e+01	7.536034e+02
1.850000e-06	7.579012e-06	1.148841e-08	5.294379e+01	7.512221e+02
1.860000e-06	7.520857e-06	1.137930e-08	5.253755e+01	7.487024e+02
1.870000e-06	7.459890e-06	1.144794e-08	5.211165e+01	7.460341e+02
1.880000e-06	7.396175e-06	1.125942e-08	5.166657e+01	7.432059e+02
1.890000e-06	7.329715e-06	1.137187e-08	5.120230e+01	7.402067e+02
1.900000e-06	7.260366e-06	1.123414e-08	5.071786e+01	7.370271e+02
1.910000e-06	7.188105e-06	1.114067e-08	5.021307e+01	7.336614e+02
1.920000e-06	7.113105e-06	1.115305e-08	4.968916e+01	7.301081e+02
1.930000e-06	7.035404e-06	1.106850e-08	4.914637e+01	7.263705e+02
1.940000e-06	6.954909e-06	1.109000e-08	4.858407e+01	7.224566e+02
1.950000e-06	6.871928e-06	1.090553e-08	4.800440e+01	7.183780e+02
1.960000e-06	6.786422e-06	1.092412e-08	4.740709e+01	7.141478e+02
1.970000e-06	6.698213e-06	1.083543e-08	4.679090e+01	7.097793e+02
1.980000e-06	6.607610e-06	1.072668e-08	4.615798e+01	7.052833e+02
1.990000e-06	6.514795e-06	1.071054e-08	4.550961e+01	7.006665e+02
2.000000e-06	6.419665e-06	1.063323e-08	4.484508e+01	6.959298e+02
2.010000e-06	6.322234e-06	1.057169e-08	4.416447e+01	6.910687e+02
2.020000e-06	6.222534e-06	1.042348e-08	4.346801e+01	6.860727e+02
2.030000e-06	6.120568e-06	1.039457e-08	4.275571e+01	6.809273e+02
2.040000e-06	6.016370e-06	1.030882e-08	4.202783e+01	6.756155e+02
2.050000e-06	5.910070e-06	1.023446e-08	4.128526e+01	6.701205e+02
2.060000e-06	5.801785e-06	1.013092e-08	4.052883e+01	6.644275e+02
2.070000e-06	5.691472e-06	1.004655e-08	3.975823e+01	6.585260e+02
2.080000e-06	5.579078e-06	9.959562e-09	3.897309e+01	6.524108e+02
2.090000e-06	5.464557e-06	9.845254e-09	3.817310e+01	6.460822e+02
2.100000e-06	5.347941e-06	9.761864e-09	3.735847e+01	6.395455e+02
2.110000e-06	5.229305e-06	9.657259e-09	3.652973e+01	6.328090e+02
2.120000e-06	5.108666e-06	9.557368e-09	3.568699e+01	6.258822e+02
2.130000e-06	4.986273e-06	9.432560e-09	3.483200e+01	6.187730e+02
2.140000e-06	4.862153e-06	9.344632e-09	3.396495e+01	6.114853e+02
2.150000e-06	4.736238e-06	9.233169e-09	3.308537e+01	6.040176e+02
2.160000e-06	4.608579e-06	9.116807e-09	3.219359e+01	5.963619e+02
2.170000e-06	4.479201e-06	8.978730e-09	3.128982e+01	5.885040e+02
2.180000e-06	4.348205e-06	8.854682e-09	3.037473e+01	5.804247e+02
2.190000e-06	4.215559e-06	8.731138e-09	2.944812e+01	5.721021e+02
2.200000e-06	4.081353e-06	8.605146e-09	2.851061e+01	5.635143e+02
2.210000e-06	3.945641e-06	8.474426e-09	2.756259e+01	5.546421e+02
2.220000e-06	3.808377e-06	8.332884e-09	2.660372e+01	5.454715e+02
2.230000e-06	3.669526e-06	8.188897e-09	2.563377e+01	5.359953e+02
2.240000e-06	3.529229e-06	8.038013e-09	2.465371e+01	5.262134e+02
2.250000e-06	3.387654e-06	7.892588e-09	2.366473e+01	5.161319e+02
2.260000e-06	3.244878e-06	7.739352e-09	2.266735e+01	5.057610e+02
2.270000e-06	3.100843e-06	7.580583e-09	2.166119e+01	4.951120e+02
2.280000e-06	2.955569e-06	7.407668e-09	2.064636e+01	4.841939e+02
2.290000e-06	2.809251e-06	7.238541e-09	1.962425e+01	4.730097e+02
2.300000e-06	2.661982e-06	7.065924e-09	1.859549e+01	4.615542e+02
2.310000e-06	2.513752e-06	6.890171e-09	1.756001e+01	4.498123e+02
2.320000e-06	2.364652e-06	6.704634e-09	1.651846e+01	4.377589e+02
2.330000e-06	2.214769e-06	6.509566e-09	1.547145e+01	4.253610e+02
2.340000e-06	2.064144e-06	6.311100e-09	1.441924e+01	4.125804e+02
2.350000e-06	1.912863e-06	6.112010e-09	1.336246e+01	3.993775e+02
2.360000e-06	1.760926e-06	5.906236e-09	1.230109e+01	3.857164e+02
2.370000e-06	1.608420e-06	5.689924e-09	1.123575e+01	3.715679e+02
2.380000e-06	1.455416e-06	5.465688e-09	1.016692e+01	3.569128e+02
2.390000e-06	1.301875e-06	5.236574e-09	9.094353e+00	3.417422e+02
2.400000e-06	1.147888e-06	5.001233e-09	8.018665e+00	3.260570e+02
2.410000e-06	9.935399e-07	4.756645e-09	6.940451e+00	3.098638e+02
2.420000e-06	8.388343e-07	4.504712e-09	5.859744e+00	2.931698e+02
2.430000e-06	6.838337e-07	4.243406e-09	4.776974e+00	2.759766e+02
2.440000e-06	5.286038e-07	3.972812e-09	3.692604e+00	2.582732e+02
2.450000e-06	3.731608e-07	3.693737e-09	2.606744e+00	2.400301e+02
2.460000e-06	2.175064e-07	3.407456e-09	1.519408e+00	2.211959e+02
2.470000e-06	6.171454e-08	3.106326e-09	4.311118e-01	2.016958e+02
2.480000e-06	-9.412909e-08	2.788362e-09	-6.575462e-01	1.814344e+02
2.490000e-06	-2.499574e-07	2.461360e-09	-1.746097e+00	1.603021e+02
2.500000e-06	-4.056435e-07	2.124893e-09	-2.833654e+00	1.381845e+02
2.510000e-06	-5.611804e-07	1.771981e-09	-3.920170e+00	1.149752e+02
2.520000e-06	-7.166363e-07	1.399481e-09	-5.006120e+00	9.058962e+01
2.530000e-06	-8.719047e-07	1.011829e-09	-6.090759e+00	6.497846e+01
2.540000e-06	-1.026812e-06	6.072866e-10	-7.172876e+00	3.814046e+01
2.550000e-06	-1.181318e-06	1.849244e-10	-8.252192e+00	1.013116e+01
2.560000e-06	-1.335415e-06	-2.550222e-10	-9.328648e+00	-1.893230e+01
2.570000e-06	-1.489006e-06	-7.106412e-10	-1.040157e+01	-4.887182e+01
2.580000e-06	-1.642022e-06	-1.179503e-09	-1.147048e+01	-7.945433e+01
2.590000e-06	-1.794367e-06	-1.659334e-09	-1.253469e+01	-1.104030e+02
2.600000e-06	-1.946000e-06	-2.141093e-09	-1.359394e+01	-1.414125e+02
2.610000e-06	-2.096917e-06	-2.617932e-09	-1.464818e+01	-1.721672e+02
2.620000e-06	-2.247034e-06	-3.083566e-09	-1.569683e+01	-2.023605e+02
2.630000e-06	-2.396306e-06	-3.533813e-09	-1.673959e+01	-2.317128e+02
2.640000e-06	-2.544726e-06	-3.964068e-09	-1.777638e+01	-2.599875e+02
2.650000e-06	-2.692254e-06	-4.372278e-09	-1.880695e+01	-2.870026e+02
2.660000e-06	-2.838786e-06	-4.759786e-09	-1.983056e+01	-3.126378e+02
2.670000e-06	-2.984256e-06	-5.127154e-09	-2.084676e+01	-3.368350e+02
2.680000e-06	-3.128536e-06	-5.474306e-09	-2.185464e+01	-3.595954e+02
2.690000e-06	-3.271516e-06	-5.801873e-09	-2.285343e+01	-3.809700e+02
2.700000e-06	-3.413227e-06	-6.111707e-09	-2.384336e+01	-4.010485e+02
2.710000e-06	-3.553655e-06	-6.404646e-09	-2.482434e+01	-4.199455e+02
2.720000e-06	-3.692748e-06	-6.682305e-09	-2.579598e+01	-4.377866e+02
2.730000e-06	-3.830462e-06	-6.943685e-09	-2.675800e+01	-4.546959e+02
2.740000e-06	-3.966710e-06	-7.190091e-09	-2.770977e+01	-4.707856e+02
2.750000e-06	-4.101452e-06	-7.425756e-09	-2.865102e+01	-4.861492e+02
2.760000e-06	-4.234844e-06	-7.653164e-09	-2.958284e+01	-5.008578e+02
2.770000e-06	-4.366794e-06	-7.871283e-09	-3.050458e+01	-5.149606e+02
2.780000e-06	-4.497159e-06	-8.080139e-09	-3.141526e+01	-5.284873e+02
2.790000e-06	-4.626012e-06	-8.279555e-09	-3.231538e+01	-5.414533e+02
2.800000e-06	-4.753278e-06	-8.469180e-09	-3.320440e+01	-5.538653e+02
2.810000e-06	-4.878910e-06	-8.648408e-09	-3.408201e+01	-5.657274e+02
2.820000e-06	-5.002871e-06	-8.818182e-09	-3.494795e+01	-5.770461e+02
2.830000e-06	-5.125020e-06	-8.980666e-09	-3.580124e+01	-5.878334e+02
2.840000e-06	-5.245211e-06	-9.135539e-09	-3.664084e+01	-5.981086e+02
2.850000e-06	-5.363385e-06	-9.283424e-09	-3.746635e+01	-6.078980e+02
2.860000e-06	-5.479523e-06	-9.426723e-09	-3.827764e+01	-6.172325e+02
2.870000e-06	-5.593419e-06	-9.565486e-09	-3.907327e+01	-6.261456e+02
2.880000e-06	-5.705030e-06	-9.698977e-09	-3.985294e+01	-6.346692e+02
2.890000e-06	-5.814552e-06	-9.829382e-09	-4.061801e+01	-6.428314e+02
2.900000e-06	-5.922060e-06	-9.953375e-09	-4.136902e+01	-6.506540e+02
2.910000e-06	-6.027528e-06	-1.006775e-08	-4.210577e+01	-6.581517e+02
2.920000e-06	-6.130745e-06	-1.017447e-08	-4.282680e+01	-6.653325e+02
2.930000e-06	-6.231614e-06	-1.027845e-08	-4.353143e+01	-6.721995e+02
2.940000e-06	-6.330247e-06	-1.037888e-08	-4.422044e+01	-6.787531e+02
