# Temperatura_=_53.04
# Concentracion g/m^3_=_15000.0
# C_Vs_to_Am_M_A/Vsm_=_65563218390.804596
# pendiente_HvsI_1/m_=_3716.3
# ordenada_HvsI_A/m_=_1297.0
# frecuencia_Hz_=_302364.76124213496

Tiempo_(s)	Campo_(V.s)	Magnetizacion_(V.s)	Campo_(kA/m)	Magnetizacion_(A/m)
0.000000e+00	-8.165509e-06	-9.886303e-09	-5.689573e+01	-6.463401e+02
1.000000e-08	-8.160871e-06	-9.884647e-09	-5.686341e+01	-6.460128e+02
2.000000e-08	-8.153668e-06	-9.878522e-09	-5.681322e+01	-6.455953e+02
3.000000e-08	-8.143664e-06	-9.870423e-09	-5.674352e+01	-6.450990e+02
4.000000e-08	-8.130631e-06	-9.859031e-09	-5.665270e+01	-6.445332e+02
5.000000e-08	-8.114637e-06	-9.845483e-09	-5.654126e+01	-6.439047e+02
6.000000e-08	-8.096089e-06	-9.832209e-09	-5.641202e+01	-6.432163e+02
7.000000e-08	-8.075327e-06	-9.813915e-09	-5.626736e+01	-6.424675e+02
8.000000e-08	-8.051935e-06	-9.825645e-09	-5.610436e+01	-6.416544e+02
9.000000e-08	-8.025355e-06	-9.857829e-09	-5.591916e+01	-6.407707e+02
1.000000e-07	-7.995542e-06	-9.815279e-09	-5.571143e+01	-6.398091e+02
1.100000e-07	-7.962691e-06	-9.766011e-09	-5.548253e+01	-6.387622e+02
1.200000e-07	-7.926966e-06	-9.743421e-09	-5.523361e+01	-6.376236e+02
1.300000e-07	-7.888694e-06	-9.717657e-09	-5.496693e+01	-6.363883e+02
1.400000e-07	-7.848017e-06	-9.680557e-09	-5.468350e+01	-6.350536e+02
1.500000e-07	-7.804954e-06	-9.651190e-09	-5.438345e+01	-6.336182e+02
1.600000e-07	-7.759366e-06	-9.692002e-09	-5.406580e+01	-6.320820e+02
1.700000e-07	-7.710820e-06	-9.597244e-09	-5.372754e+01	-6.304449e+02
1.800000e-07	-7.659293e-06	-9.569218e-09	-5.336851e+01	-6.287066e+02
1.900000e-07	-7.604920e-06	-9.601196e-09	-5.298965e+01	-6.268653e+02
2.000000e-07	-7.547651e-06	-9.500062e-09	-5.259061e+01	-6.249173e+02
2.100000e-07	-7.487715e-06	-9.496325e-09	-5.217299e+01	-6.228573e+02
2.200000e-07	-7.425191e-06	-9.470410e-09	-5.173733e+01	-6.206784e+02
2.300000e-07	-7.359931e-06	-9.427103e-09	-5.128261e+01	-6.183735e+02
2.400000e-07	-7.291873e-06	-9.382832e-09	-5.080840e+01	-6.159356e+02
2.500000e-07	-7.221049e-06	-9.341577e-09	-5.031491e+01	-6.133594e+02
2.600000e-07	-7.147355e-06	-9.319098e-09	-4.980143e+01	-6.106422e+02
2.700000e-07	-7.070681e-06	-9.253123e-09	-4.926717e+01	-6.077840e+02
2.800000e-07	-6.991114e-06	-9.204749e-09	-4.871277e+01	-6.047884e+02
2.900000e-07	-6.908996e-06	-9.151157e-09	-4.814058e+01	-6.016615e+02
3.000000e-07	-6.824624e-06	-9.123507e-09	-4.755269e+01	-5.984113e+02
3.100000e-07	-6.737927e-06	-9.075035e-09	-4.694861e+01	-5.950462e+02
3.200000e-07	-6.648709e-06	-8.994643e-09	-4.632695e+01	-5.915738e+02
3.300000e-07	-6.557020e-06	-8.960414e-09	-4.568808e+01	-5.879993e+02
3.400000e-07	-6.462987e-06	-8.909205e-09	-4.503287e+01	-5.843243e+02
3.500000e-07	-6.366547e-06	-8.842739e-09	-4.436090e+01	-5.805464e+02
3.600000e-07	-6.267755e-06	-8.775633e-09	-4.367253e+01	-5.766591e+02
3.700000e-07	-6.166723e-06	-8.719792e-09	-4.296856e+01	-5.726525e+02
3.800000e-07	-6.063474e-06	-8.652161e-09	-4.224914e+01	-5.685142e+02
3.900000e-07	-5.958022e-06	-8.579309e-09	-4.151437e+01	-5.642312e+02
4.000000e-07	-5.850484e-06	-8.527493e-09	-4.076507e+01	-5.597915e+02
4.100000e-07	-5.740971e-06	-8.463872e-09	-4.000200e+01	-5.551854e+02
4.200000e-07	-5.629404e-06	-8.389922e-09	-3.922463e+01	-5.504067e+02
4.300000e-07	-5.515645e-06	-8.299355e-09	-3.843197e+01	-5.454532e+02
4.400000e-07	-5.399676e-06	-8.217724e-09	-3.762392e+01	-5.403263e+02
4.500000e-07	-5.281655e-06	-8.136667e-09	-3.680157e+01	-5.350302e+02
4.600000e-07	-5.161779e-06	-8.051386e-09	-3.596631e+01	-5.295706e+02
4.700000e-07	-5.040113e-06	-7.968050e-09	-3.511855e+01	-5.239525e+02
4.800000e-07	-4.916633e-06	-7.887881e-09	-3.425817e+01	-5.181788e+02
4.900000e-07	-4.791367e-06	-7.800724e-09	-3.338534e+01	-5.122488e+02
5.000000e-07	-4.664381e-06	-7.701097e-09	-3.250053e+01	-5.061570e+02
5.100000e-07	-4.535726e-06	-7.604293e-09	-3.160408e+01	-4.998935e+02
5.200000e-07	-4.405347e-06	-7.505652e-09	-3.069563e+01	-4.934442e+02
5.300000e-07	-4.273309e-06	-7.402509e-09	-2.977561e+01	-4.867928e+02
5.400000e-07	-4.139742e-06	-7.291359e-09	-2.884494e+01	-4.799218e+02
5.500000e-07	-4.004643e-06	-7.182462e-09	-2.790360e+01	-4.728156e+02
5.600000e-07	-3.867943e-06	-7.071158e-09	-2.695110e+01	-4.654618e+02
5.700000e-07	-3.729653e-06	-6.949906e-09	-2.598752e+01	-4.578528e+02
5.800000e-07	-3.589839e-06	-6.825746e-09	-2.501332e+01	-4.499861e+02
5.900000e-07	-3.448483e-06	-6.704553e-09	-2.402838e+01	-4.418646e+02
6.000000e-07	-3.305650e-06	-6.582794e-09	-2.303314e+01	-4.334943e+02
6.100000e-07	-3.161593e-06	-6.453070e-09	-2.202939e+01	-4.248828e+02
6.200000e-07	-3.016435e-06	-6.320277e-09	-2.101795e+01	-4.160366e+02
6.300000e-07	-2.870185e-06	-6.183974e-09	-1.999891e+01	-4.069579e+02
6.400000e-07	-2.722988e-06	-6.039983e-09	-1.897327e+01	-3.976430e+02
6.500000e-07	-2.574911e-06	-5.887107e-09	-1.794149e+01	-3.880801e+02
6.600000e-07	-2.425956e-06	-5.732565e-09	-1.690361e+01	-3.782494e+02
6.700000e-07	-2.276176e-06	-5.575720e-09	-1.585996e+01	-3.681238e+02
6.800000e-07	-2.125573e-06	-5.413868e-09	-1.481059e+01	-3.576711e+02
6.900000e-07	-1.974241e-06	-5.251562e-09	-1.375614e+01	-3.468569e+02
7.000000e-07	-1.822294e-06	-5.082277e-09	-1.269740e+01	-3.356486e+02
7.100000e-07	-1.669677e-06	-4.903630e-09	-1.163400e+01	-3.240183e+02
7.200000e-07	-1.516361e-06	-4.717765e-09	-1.056572e+01	-3.119457e+02
7.300000e-07	-1.362509e-06	-4.529479e-09	-9.493704e+00	-2.994199e+02
7.400000e-07	-1.208256e-06	-4.333913e-09	-8.418901e+00	-2.864387e+02
7.500000e-07	-1.053577e-06	-4.129506e-09	-7.341125e+00	-2.730072e+02
7.600000e-07	-8.984981e-07	-3.920141e-09	-6.260565e+00	-2.591335e+02
7.700000e-07	-7.430925e-07	-3.703608e-09	-5.177728e+00	-2.448243e+02
7.800000e-07	-5.874944e-07	-3.480050e-09	-4.093550e+00	-2.300790e+02
7.900000e-07	-4.317390e-07	-3.249398e-09	-3.008276e+00	-2.148844e+02
8.000000e-07	-2.757934e-07	-3.012284e-09	-1.921676e+00	-1.992106e+02
8.100000e-07	-1.196922e-07	-2.765066e-09	-8.339925e-01	-1.830084e+02
8.200000e-07	3.654696e-08	-2.506880e-09	2.546523e-01	-1.662104e+02
8.300000e-07	1.927976e-07	-2.238802e-09	1.343378e+00	-1.487336e+02
8.400000e-07	3.489586e-07	-1.961305e-09	2.431478e+00	-1.304863e+02
8.500000e-07	5.050170e-07	-1.671556e-09	3.518863e+00	-1.113768e+02
8.600000e-07	6.609336e-07	-1.365926e-09	4.605260e+00	-9.132447e+01
8.700000e-07	8.166338e-07	-1.045896e-09	5.690150e+00	-7.027103e+01
8.800000e-07	9.720592e-07	-7.116985e-10	6.773125e+00	-4.819166e+01
8.900000e-07	1.127182e-06	-3.642781e-10	7.853994e+00	-2.510409e+01
9.000000e-07	1.281927e-06	-4.208386e-12	8.932227e+00	-1.074719e+00
9.100000e-07	1.436177e-06	3.693093e-10	1.000701e+01	2.377916e+01
9.200000e-07	1.589874e-06	7.569896e-10	1.107795e+01	4.929148e+01
9.300000e-07	1.742996e-06	1.157140e-09	1.214487e+01	7.525405e+01
9.400000e-07	1.895501e-06	1.561767e-09	1.320749e+01	1.014270e+02
9.500000e-07	2.047305e-06	1.964706e-09	1.426524e+01	1.275522e+02
9.600000e-07	2.198317e-06	2.362578e-09	1.531746e+01	1.533690e+02
9.700000e-07	2.348485e-06	2.751092e-09	1.636380e+01	1.786292e+02
9.800000e-07	2.497690e-06	3.123994e-09	1.740344e+01	2.031118e+02
9.900000e-07	2.645955e-06	3.476726e-09	1.843652e+01	2.266351e+02
1.000000e-06	2.793281e-06	3.809389e-09	1.946305e+01	2.490646e+02
1.010000e-06	2.939641e-06	4.124673e-09	2.048286e+01	2.703171e+02
1.020000e-06	3.084926e-06	4.422785e-09	2.149518e+01	2.903605e+02
1.030000e-06	3.228978e-06	4.705636e-09	2.249891e+01	3.092093e+02
1.040000e-06	3.371833e-06	4.974623e-09	2.349430e+01	3.269163e+02
1.050000e-06	3.513394e-06	5.229553e-09	2.448067e+01	3.435627e+02
1.060000e-06	3.653568e-06	5.470508e-09	2.545737e+01	3.592468e+02
1.070000e-06	3.792357e-06	5.699893e-09	2.642443e+01	3.740723e+02
1.080000e-06	3.929709e-06	5.917544e-09	2.738147e+01	3.881388e+02
1.090000e-06	4.065546e-06	6.122130e-09	2.832796e+01	4.015340e+02
1.100000e-06	4.199845e-06	6.314137e-09	2.926373e+01	4.143285e+02
1.110000e-06	4.332684e-06	6.494908e-09	3.018933e+01	4.265741e+02
1.120000e-06	4.464022e-06	6.669063e-09	3.110446e+01	4.383040e+02
1.130000e-06	4.593768e-06	6.837862e-09	3.200851e+01	4.495363e+02
1.140000e-06	4.721946e-06	7.000363e-09	3.290163e+01	4.602780e+02
1.150000e-06	4.848477e-06	7.156608e-09	3.378328e+01	4.705303e+02
1.160000e-06	4.973343e-06	7.306952e-09	3.465331e+01	4.802932e+02
1.170000e-06	5.096496e-06	7.450316e-09	3.551143e+01	4.895703e+02
1.180000e-06	5.217828e-06	7.585997e-09	3.635684e+01	4.983710e+02
1.190000e-06	5.337283e-06	7.713790e-09	3.718918e+01	5.067121e+02
1.200000e-06	5.454763e-06	7.833511e-09	3.800776e+01	5.146171e+02
1.210000e-06	5.570152e-06	7.945900e-09	3.881177e+01	5.221155e+02
1.220000e-06	5.683381e-06	8.053526e-09	3.960073e+01	5.292396e+02
1.230000e-06	5.794440e-06	8.156877e-09	4.037457e+01	5.360223e+02
1.240000e-06	5.903419e-06	8.255612e-09	4.113391e+01	5.424940e+02
1.250000e-06	6.010330e-06	8.350001e-09	4.187885e+01	5.486816e+02
1.260000e-06	6.115073e-06	8.440147e-09	4.260868e+01	5.546061e+02
1.270000e-06	6.217575e-06	8.525031e-09	4.332289e+01	5.602836e+02
1.280000e-06	6.317738e-06	8.606324e-09	4.402081e+01	5.657250e+02
1.290000e-06	6.415555e-06	8.684838e-09	4.470238e+01	5.709382e+02
1.300000e-06	6.510946e-06	8.759708e-09	4.536704e+01	5.759291e+02
1.310000e-06	6.603978e-06	8.831074e-09	4.601527e+01	5.807036e+02
1.320000e-06	6.694725e-06	8.899505e-09	4.664759e+01	5.852688e+02
1.330000e-06	6.783015e-06	8.965233e-09	4.726277e+01	5.896340e+02
1.340000e-06	6.868864e-06	9.028972e-09	4.786095e+01	5.938102e+02
1.350000e-06	6.952366e-06	9.091410e-09	4.844278e+01	5.978098e+02
1.360000e-06	7.033418e-06	9.151475e-09	4.900753e+01	6.016453e+02
1.370000e-06	7.111908e-06	9.208372e-09	4.955444e+01	6.053276e+02
1.380000e-06	7.187759e-06	9.263013e-09	5.008295e+01	6.088648e+02
1.390000e-06	7.260858e-06	9.316151e-09	5.059229e+01	6.122612e+02
1.400000e-06	7.331304e-06	9.364716e-09	5.108315e+01	6.155160e+02
1.410000e-06	7.399219e-06	9.408669e-09	5.155636e+01	6.186241e+02
1.420000e-06	7.464448e-06	9.449792e-09	5.201086e+01	6.215768e+02
1.430000e-06	7.527065e-06	9.490048e-09	5.244717e+01	6.243631e+02
1.440000e-06	7.587248e-06	9.530700e-09	5.286651e+01	6.269717e+02
1.450000e-06	7.644768e-06	9.566980e-09	5.326730e+01	6.293930e+02
1.460000e-06	7.699481e-06	9.599229e-09	5.364853e+01	6.316210e+02
1.470000e-06	7.751203e-06	9.629746e-09	5.400892e+01	6.336544e+02
1.480000e-06	7.799752e-06	9.657438e-09	5.434720e+01	6.354976e+02
1.490000e-06	7.845405e-06	9.682978e-09	5.466530e+01	6.371602e+02
1.500000e-06	7.888289e-06	9.704624e-09	5.496411e+01	6.386562e+02
1.510000e-06	7.928277e-06	9.723703e-09	5.524274e+01	6.400023e+02
1.520000e-06	7.965493e-06	9.742073e-09	5.550205e+01	6.412162e+02
1.530000e-06	7.999998e-06	9.759387e-09	5.574248e+01	6.423144e+02
1.540000e-06	8.031611e-06	9.777731e-09	5.596275e+01	6.433102e+02
1.550000e-06	8.060443e-06	9.794576e-09	5.616364e+01	6.442129e+02
1.560000e-06	8.086402e-06	9.807654e-09	5.634452e+01	6.450264e+02
1.570000e-06	8.109335e-06	9.817796e-09	5.650432e+01	6.457500e+02
1.580000e-06	8.129473e-06	9.826894e-09	5.664464e+01	6.463788e+02
1.590000e-06	8.146672e-06	9.834870e-09	5.676447e+01	6.469053e+02
1.600000e-06	8.160789e-06	9.839834e-09	5.686284e+01	6.473211e+02
1.610000e-06	8.171747e-06	9.842498e-09	5.693919e+01	6.476187e+02
1.620000e-06	8.179519e-06	9.845621e-09	5.699334e+01	6.477933e+02
1.630000e-06	8.184407e-06	9.850644e-09	5.702740e+01	6.478433e+02
1.640000e-06	8.186430e-06	9.853238e-09	5.704150e+01	6.477716e+02
1.650000e-06	8.185565e-06	9.852024e-09	5.703548e+01	6.475846e+02
1.660000e-06	8.182036e-06	9.843072e-09	5.701088e+01	6.472919e+02
1.670000e-06	8.175759e-06	9.839868e-09	5.696715e+01	6.469049e+02
1.680000e-06	8.166672e-06	9.836087e-09	5.690383e+01	6.464350e+02
1.690000e-06	8.154792e-06	9.827816e-09	5.682106e+01	6.458927e+02
1.700000e-06	8.140031e-06	9.820436e-09	5.671820e+01	6.452857e+02
1.710000e-06	8.122678e-06	9.813994e-09	5.659729e+01	6.446182e+02
1.720000e-06	8.102985e-06	9.810760e-09	5.646008e+01	6.438908e+02
1.730000e-06	8.080701e-06	9.752997e-09	5.630480e+01	6.431008e+02
1.740000e-06	8.055160e-06	9.702762e-09	5.612684e+01	6.422427e+02
1.750000e-06	8.025813e-06	9.731514e-09	5.592235e+01	6.413094e+02
1.760000e-06	7.993000e-06	9.730012e-09	5.569372e+01	6.402934e+02
1.770000e-06	7.957654e-06	9.712418e-09	5.544744e+01	6.391877e+02
1.780000e-06	7.920007e-06	9.726912e-09	5.518512e+01	6.379870e+02
1.790000e-06	7.880018e-06	9.751975e-09	5.490648e+01	6.366877e+02
1.800000e-06	7.838020e-06	9.630117e-09	5.461384e+01	6.352878e+02
1.810000e-06	7.793598e-06	9.638750e-09	5.430432e+01	6.337872e+02
1.820000e-06	7.746339e-06	9.685869e-09	5.397503e+01	6.321857e+02
1.830000e-06	7.696304e-06	9.586242e-09	5.362640e+01	6.304833e+02
1.840000e-06	7.643057e-06	9.652158e-09	5.325538e+01	6.286786e+02
1.850000e-06	7.586860e-06	9.560162e-09	5.286381e+01	6.267688e+02
1.860000e-06	7.528054e-06	9.518738e-09	5.245406e+01	6.247491e+02
1.870000e-06	7.466396e-06	9.513890e-09	5.202444e+01	6.226131e+02
1.880000e-06	7.401993e-06	9.451411e-09	5.157569e+01	6.203536e+02
1.890000e-06	7.334762e-06	9.493305e-09	5.110724e+01	6.179635e+02
1.900000e-06	7.264659e-06	9.387632e-09	5.061878e+01	6.154368e+02
1.910000e-06	7.191667e-06	9.356204e-09	5.011018e+01	6.127697e+02
1.920000e-06	7.115878e-06	9.300715e-09	4.958210e+01	6.099612e+02
1.930000e-06	7.037351e-06	9.264820e-09	4.903493e+01	6.070137e+02
1.940000e-06	6.956079e-06	9.256489e-09	4.846865e+01	6.039324e+02
1.950000e-06	6.872360e-06	9.169284e-09	4.788531e+01	6.007248e+02
1.960000e-06	6.786032e-06	9.165637e-09	4.728379e+01	5.973994e+02
1.970000e-06	6.697075e-06	9.070871e-09	4.666396e+01	5.939641e+02
1.980000e-06	6.605776e-06	9.010426e-09	4.602780e+01	5.904253e+02
1.990000e-06	6.512242e-06	8.966556e-09	4.537607e+01	5.867858e+02
2.000000e-06	6.416428e-06	8.919118e-09	4.470846e+01	5.830448e+02
2.010000e-06	6.318301e-06	8.861271e-09	4.402473e+01	5.791971e+02
2.020000e-06	6.217884e-06	8.782005e-09	4.332504e+01	5.752340e+02
2.030000e-06	6.115117e-06	8.738735e-09	4.260899e+01	5.711438e+02
2.040000e-06	6.010160e-06	8.668339e-09	4.187766e+01	5.669136e+02
2.050000e-06	5.903184e-06	8.604845e-09	4.113227e+01	5.625307e+02
2.060000e-06	5.794306e-06	8.515781e-09	4.037363e+01	5.579845e+02
2.070000e-06	5.683362e-06	8.452802e-09	3.960059e+01	5.532675e+02
2.080000e-06	5.570227e-06	8.382445e-09	3.881229e+01	5.483760e+02
2.090000e-06	5.454975e-06	8.312063e-09	3.800924e+01	5.433102e+02
2.100000e-06	5.337618e-06	8.240204e-09	3.719152e+01	5.380735e+02
2.110000e-06	5.218206e-06	8.162466e-09	3.635948e+01	5.326713e+02
2.120000e-06	5.096884e-06	8.066354e-09	3.551413e+01	5.271089e+02
2.130000e-06	4.973819e-06	7.960027e-09	3.465663e+01	5.213902e+02
2.140000e-06	4.848941e-06	7.881582e-09	3.378651e+01	5.155160e+02
2.150000e-06	4.722257e-06	7.804169e-09	3.290379e+01	5.094824e+02
2.160000e-06	4.593810e-06	7.717779e-09	3.200880e+01	5.032812e+02
2.170000e-06	4.463704e-06	7.611190e-09	3.110225e+01	4.968997e+02
2.180000e-06	4.332054e-06	7.508900e-09	3.018494e+01	4.903220e+02
2.190000e-06	4.198833e-06	7.397345e-09	2.925668e+01	4.835310e+02
2.200000e-06	4.064041e-06	7.287904e-09	2.831747e+01	4.765100e+02
2.210000e-06	3.927663e-06	7.180955e-09	2.736722e+01	4.692454e+02
2.220000e-06	3.789646e-06	7.075183e-09	2.640554e+01	4.617276e+02
2.230000e-06	3.650140e-06	6.958269e-09	2.543349e+01	4.539525e+02
2.240000e-06	3.509299e-06	6.835810e-09	2.445213e+01	4.459210e+02
2.250000e-06	3.367051e-06	6.715290e-09	2.346097e+01	4.376382e+02
2.260000e-06	3.223493e-06	6.587007e-09	2.246069e+01	4.291116e+02
2.270000e-06	3.078767e-06	6.448321e-09	2.145227e+01	4.203483e+02
2.280000e-06	2.932903e-06	6.304396e-09	2.043591e+01	4.113523e+02
2.290000e-06	2.785903e-06	6.166999e-09	1.941165e+01	4.021223e+02
2.300000e-06	2.637965e-06	6.026629e-09	1.838084e+01	3.926494e+02
2.310000e-06	2.489245e-06	5.882232e-09	1.734459e+01	3.829167e+02
2.320000e-06	2.339654e-06	5.729432e-09	1.630227e+01	3.728995e+02
2.330000e-06	2.189239e-06	5.565538e-09	1.525420e+01	3.625670e+02
2.340000e-06	2.038106e-06	5.396502e-09	1.420114e+01	3.518855e+02
2.350000e-06	1.886289e-06	5.230056e-09	1.314331e+01	3.408211e+02
2.360000e-06	1.733813e-06	5.062690e-09	1.208088e+01	3.293438e+02
2.370000e-06	1.580771e-06	4.884127e-09	1.101452e+01	3.174305e+02
2.380000e-06	1.427254e-06	4.694153e-09	9.944836e+00	3.050668e+02
2.390000e-06	1.273259e-06	4.496552e-09	8.871826e+00	2.922476e+02
2.400000e-06	1.118796e-06	4.290202e-09	7.795559e+00	2.789756e+02
2.410000e-06	9.639340e-07	4.078572e-09	6.716511e+00	2.652585e+02
2.420000e-06	8.087207e-07	3.866248e-09	5.635014e+00	2.511040e+02
2.430000e-06	6.532254e-07	3.649316e-09	4.551551e+00	2.365148e+02
2.440000e-06	4.975257e-07	3.421287e-09	3.466666e+00	2.214827e+02
2.450000e-06	3.416504e-07	3.182593e-09	2.380556e+00	2.059842e+02
2.460000e-06	1.856524e-07	2.936865e-09	1.293591e+00	1.899771e+02
2.470000e-06	2.959327e-08	2.678924e-09	2.062003e-01	1.734004e+02
2.480000e-06	-1.265460e-07	2.406745e-09	-8.817487e-01	1.561758e+02
2.490000e-06	-2.826810e-07	2.124713e-09	-1.969668e+00	1.382140e+02
2.500000e-06	-4.387040e-07	1.834415e-09	-3.056807e+00	1.194221e+02
2.510000e-06	-5.946001e-07	1.535107e-09	-4.143061e+00	9.971414e+01
2.520000e-06	-7.503300e-07	1.224656e-09	-5.228158e+00	7.902262e+01
2.530000e-06	-9.058499e-07	9.000986e-10	-6.311791e+00	5.730958e+01
2.540000e-06	-1.061076e-06	5.557773e-10	-7.393377e+00	3.457666e+01
2.550000e-06	-1.215919e-06	1.941842e-10	-8.472294e+00	1.087241e+01
2.560000e-06	-1.370281e-06	-1.808878e-10	-9.547857e+00	-1.370405e+01
2.570000e-06	-1.524104e-06	-5.656268e-10	-1.061967e+01	-3.900354e+01
2.580000e-06	-1.677407e-06	-9.610371e-10	-1.168786e+01	-6.483188e+01
2.590000e-06	-1.830082e-06	-1.366572e-09	-1.275167e+01	-9.095909e+01
2.600000e-06	-1.981995e-06	-1.773249e-09	-1.381016e+01	-1.171319e+02
2.610000e-06	-2.133116e-06	-2.175602e-09	-1.486315e+01	-1.430888e+02
2.620000e-06	-2.283429e-06	-2.566408e-09	-1.591050e+01	-1.685752e+02
2.630000e-06	-2.432863e-06	-2.944111e-09	-1.695173e+01	-1.933591e+02
2.640000e-06	-2.581412e-06	-3.307229e-09	-1.798679e+01	-2.172434e+02
2.650000e-06	-2.729046e-06	-3.653435e-09	-1.901548e+01	-2.400762e+02
2.660000e-06	-2.875653e-06	-3.979867e-09	-2.003701e+01	-2.617557e+02
2.670000e-06	-3.021227e-06	-4.287724e-09	-2.105134e+01	-2.822320e+02
2.680000e-06	-3.165626e-06	-4.582601e-09	-2.205749e+01	-3.015036e+02
2.690000e-06	-3.308735e-06	-4.863694e-09	-2.305464e+01	-3.196107e+02
2.700000e-06	-3.450631e-06	-5.129281e-09	-2.404335e+01	-3.366257e+02
2.710000e-06	-3.591253e-06	-5.378538e-09	-2.502317e+01	-3.526420e+02
2.720000e-06	-3.730479e-06	-5.613341e-09	-2.599328e+01	-3.677627e+02
2.730000e-06	-3.868274e-06	-5.836893e-09	-2.695340e+01	-3.820899e+02
2.740000e-06	-4.004625e-06	-6.049035e-09	-2.790347e+01	-3.957162e+02
2.750000e-06	-4.139535e-06	-6.250654e-09	-2.884350e+01	-4.087188e+02
2.760000e-06	-4.272997e-06	-6.442264e-09	-2.977344e+01	-4.211561e+02
2.770000e-06	-4.404954e-06	-6.622141e-09	-3.069289e+01	-4.330678e+02
2.780000e-06	-4.535370e-06	-6.794249e-09	-3.160160e+01	-4.444770e+02
2.790000e-06	-4.664261e-06	-6.959591e-09	-3.249969e+01	-4.553940e+02
2.800000e-06	-4.791516e-06	-7.117861e-09	-3.338638e+01	-4.658215e+02
2.810000e-06	-4.917087e-06	-7.268743e-09	-3.426133e+01	-4.757595e+02
2.820000e-06	-5.040958e-06	-7.411743e-09	-3.512444e+01	-4.852098e+02
2.830000e-06	-5.162986e-06	-7.547833e-09	-3.597471e+01	-4.941795e+02
2.840000e-06	-5.283123e-06	-7.674899e-09	-3.681181e+01	-5.026827e+02
2.850000e-06	-5.401306e-06	-7.795761e-09	-3.763528e+01	-5.107408e+02
2.860000e-06	-5.517342e-06	-7.915478e-09	-3.844380e+01	-5.183813e+02
2.870000e-06	-5.631055e-06	-8.032633e-09	-3.923613e+01	-5.256357e+02
2.880000e-06	-5.742453e-06	-8.143657e-09	-4.001233e+01	-5.325370e+02
2.890000e-06	-5.851768e-06	-8.247925e-09	-4.077402e+01	-5.391169e+02
2.900000e-06	-5.959151e-06	-8.345835e-09	-4.152224e+01	-5.454036e+02
2.910000e-06	-6.064495e-06	-8.437894e-09	-4.225626e+01	-5.514204e+02
2.920000e-06	-6.167577e-06	-8.523208e-09	-4.297452e+01	-5.571850e+02
2.930000e-06	-6.268257e-06	-8.605028e-09	-4.367603e+01	-5.627102e+02
2.940000e-06	-6.366652e-06	-8.684221e-09	-4.436163e+01	-5.680046e+02
