# Temperatura_=_80.61
# Concentracion g/m^3_=_15000.0
# C_Vs_to_Am_M_A/Vsm_=_65563218390.804596
# pendiente_HvsI_1/m_=_3716.3
# ordenada_HvsI_A/m_=_1297.0
# frecuencia_Hz_=_302360.2146890558

Tiempo_(s)	Campo_(V.s)	Magnetizacion_(V.s)	Campo_(kA/m)	Magnetizacion_(A/m)
0.000000e+00	-8.092828e-06	-1.289308e-08	-5.690025e+01	-8.437530e+02
1.000000e-08	-8.088285e-06	-1.289043e-08	-5.686831e+01	-8.432814e+02
2.000000e-08	-8.081131e-06	-1.288119e-08	-5.681801e+01	-8.426700e+02
3.000000e-08	-8.071212e-06	-1.286916e-08	-5.674827e+01	-8.419350e+02
4.000000e-08	-8.058387e-06	-1.285632e-08	-5.665809e+01	-8.410912e+02
5.000000e-08	-8.042623e-06	-1.284081e-08	-5.654726e+01	-8.401497e+02
6.000000e-08	-8.024218e-06	-1.282168e-08	-5.641786e+01	-8.391174e+02
7.000000e-08	-8.003534e-06	-1.279756e-08	-5.627243e+01	-8.379959e+02
8.000000e-08	-7.980278e-06	-1.278275e-08	-5.610892e+01	-8.367825e+02
9.000000e-08	-7.953939e-06	-1.281105e-08	-5.592373e+01	-8.354712e+02
1.000000e-07	-7.924411e-06	-1.279018e-08	-5.571612e+01	-8.340538e+02
1.100000e-07	-7.891864e-06	-1.272963e-08	-5.548728e+01	-8.325218e+02
1.200000e-07	-7.856442e-06	-1.268973e-08	-5.523823e+01	-8.308676e+02
1.300000e-07	-7.818469e-06	-1.265189e-08	-5.497125e+01	-8.290850e+02
1.400000e-07	-7.778206e-06	-1.260074e-08	-5.468816e+01	-8.271702e+02
1.500000e-07	-7.735618e-06	-1.255236e-08	-5.438872e+01	-8.251208e+02
1.600000e-07	-7.690484e-06	-1.257895e-08	-5.407139e+01	-8.229352e+02
1.700000e-07	-7.642527e-06	-1.250221e-08	-5.373421e+01	-8.206115e+02
1.800000e-07	-7.591686e-06	-1.242351e-08	-5.337674e+01	-8.181461e+02
1.900000e-07	-7.537878e-06	-1.245095e-08	-5.299842e+01	-8.155332e+02
2.000000e-07	-7.481188e-06	-1.237787e-08	-5.259984e+01	-8.127643e+02
2.100000e-07	-7.421817e-06	-1.234640e-08	-5.218241e+01	-8.098282e+02
2.200000e-07	-7.359812e-06	-1.232123e-08	-5.174645e+01	-8.067127e+02
2.300000e-07	-7.295113e-06	-1.224128e-08	-5.129156e+01	-8.034053e+02
2.400000e-07	-7.227629e-06	-1.217876e-08	-5.081708e+01	-7.998954e+02
2.500000e-07	-7.157428e-06	-1.210401e-08	-5.032350e+01	-7.961760e+02
2.600000e-07	-7.084440e-06	-1.206222e-08	-4.981033e+01	-7.922451e+02
2.700000e-07	-7.008598e-06	-1.199365e-08	-4.927709e+01	-7.881066e+02
2.800000e-07	-6.929975e-06	-1.192254e-08	-4.872429e+01	-7.837701e+02
2.900000e-07	-6.848663e-06	-1.184704e-08	-4.815259e+01	-7.792498e+02
3.000000e-07	-6.764912e-06	-1.178451e-08	-4.756374e+01	-7.745626e+02
3.100000e-07	-6.678834e-06	-1.173779e-08	-4.695853e+01	-7.697261e+02
3.200000e-07	-6.590386e-06	-1.164285e-08	-4.633666e+01	-7.647555e+02
3.300000e-07	-6.499507e-06	-1.156961e-08	-4.569770e+01	-7.596611e+02
3.400000e-07	-6.406221e-06	-1.149675e-08	-4.504180e+01	-7.544469e+02
3.500000e-07	-6.310573e-06	-1.141664e-08	-4.436931e+01	-7.491089e+02
3.600000e-07	-6.212629e-06	-1.132980e-08	-4.368067e+01	-7.436358e+02
3.700000e-07	-6.112477e-06	-1.124163e-08	-4.297651e+01	-7.380102e+02
3.800000e-07	-6.010118e-06	-1.115469e-08	-4.225682e+01	-7.322105e+02
3.900000e-07	-5.905672e-06	-1.105103e-08	-4.152247e+01	-7.262140e+02
4.000000e-07	-5.799181e-06	-1.095437e-08	-4.077374e+01	-7.199999e+02
4.100000e-07	-5.690632e-06	-1.085767e-08	-4.001054e+01	-7.135524e+02
4.200000e-07	-5.580037e-06	-1.076893e-08	-3.923295e+01	-7.068621e+02
4.300000e-07	-5.467408e-06	-1.065846e-08	-3.844106e+01	-6.999274e+02
4.400000e-07	-5.352699e-06	-1.053948e-08	-3.763454e+01	-6.927541e+02
4.500000e-07	-5.235851e-06	-1.042923e-08	-3.681300e+01	-6.853534e+02
4.600000e-07	-5.117096e-06	-1.031937e-08	-3.597804e+01	-6.777400e+02
4.700000e-07	-4.996560e-06	-1.020089e-08	-3.513055e+01	-6.699285e+02
4.800000e-07	-4.874114e-06	-1.008073e-08	-3.426964e+01	-6.619298e+02
4.900000e-07	-4.749800e-06	-9.962238e-09	-3.339559e+01	-6.537491e+02
5.000000e-07	-4.623867e-06	-9.829685e-09	-3.251017e+01	-6.453833e+02
5.100000e-07	-4.496295e-06	-9.692960e-09	-3.161322e+01	-6.368208e+02
5.200000e-07	-4.367065e-06	-9.557619e-09	-3.070461e+01	-6.280422e+02
5.300000e-07	-4.236234e-06	-9.420343e-09	-2.978474e+01	-6.190225e+02
5.400000e-07	-4.103762e-06	-9.268970e-09	-2.885334e+01	-6.097341e+02
5.500000e-07	-3.969827e-06	-9.118010e-09	-2.791165e+01	-6.001506e+02
5.600000e-07	-3.834385e-06	-8.970520e-09	-2.695936e+01	-5.902500e+02
5.700000e-07	-3.697404e-06	-8.818186e-09	-2.599626e+01	-5.800179e+02
5.800000e-07	-3.559006e-06	-8.658206e-09	-2.502318e+01	-5.694487e+02
5.900000e-07	-3.419101e-06	-8.494432e-09	-2.403952e+01	-5.585454e+02
6.000000e-07	-3.277705e-06	-8.325261e-09	-2.304537e+01	-5.473187e+02
6.100000e-07	-3.134979e-06	-8.146028e-09	-2.204188e+01	-5.357834e+02
6.200000e-07	-2.991064e-06	-7.965111e-09	-2.103002e+01	-5.239543e+02
6.300000e-07	-2.845981e-06	-7.782178e-09	-2.000994e+01	-5.118425e+02
6.400000e-07	-2.699870e-06	-7.594113e-09	-1.898265e+01	-4.994512e+02
6.500000e-07	-2.552930e-06	-7.396370e-09	-1.794951e+01	-4.867726e+02
6.600000e-07	-2.405143e-06	-7.194355e-09	-1.691043e+01	-4.737872e+02
6.700000e-07	-2.256519e-06	-6.987257e-09	-1.586547e+01	-4.604642e+02
6.800000e-07	-2.107134e-06	-6.774275e-09	-1.481515e+01	-4.467643e+02
6.900000e-07	-1.957072e-06	-6.559336e-09	-1.376007e+01	-4.326434e+02
7.000000e-07	-1.806419e-06	-6.337782e-09	-1.270084e+01	-4.180579e+02
7.100000e-07	-1.655233e-06	-6.107262e-09	-1.163786e+01	-4.029695e+02
7.200000e-07	-1.503462e-06	-5.869927e-09	-1.057076e+01	-3.873494e+02
7.300000e-07	-1.351049e-06	-5.629504e-09	-9.499155e+00	-3.711807e+02
7.400000e-07	-1.198117e-06	-5.379319e-09	-8.423895e+00	-3.544582e+02
7.500000e-07	-1.044805e-06	-5.116588e-09	-7.345971e+00	-3.371864e+02
7.600000e-07	-8.911823e-07	-4.845443e-09	-6.265856e+00	-3.193740e+02
7.700000e-07	-7.372951e-07	-4.566613e-09	-5.183883e+00	-3.010273e+02
7.800000e-07	-5.831654e-07	-4.278760e-09	-4.100205e+00	-2.821424e+02
7.900000e-07	-4.288514e-07	-3.982734e-09	-3.015232e+00	-2.626978e+02
8.000000e-07	-2.744456e-07	-3.678095e-09	-1.929612e+00	-2.426483e+02
8.100000e-07	-1.199544e-07	-3.359013e-09	-8.433928e-01	-2.219222e+02
8.200000e-07	3.466465e-08	-3.024492e-09	2.437253e-01	-2.004217e+02
8.300000e-07	1.893776e-07	-2.678890e-09	1.331504e+00	-1.780285e+02
8.400000e-07	3.440741e-07	-2.323149e-09	2.419167e+00	-1.546126e+02
8.500000e-07	4.986652e-07	-1.949278e-09	3.506089e+00	-1.300456e+02
8.600000e-07	6.531155e-07	-1.553958e-09	4.592021e+00	-1.042159e+02
8.700000e-07	8.073817e-07	-1.142515e-09	5.676658e+00	-7.704514e+01
8.800000e-07	9.613881e-07	-7.151396e-10	6.759469e+00	-4.850352e+01
8.900000e-07	1.115108e-06	-2.685155e-10	7.840267e+00	-1.862217e+01
9.000000e-07	1.268518e-06	1.995055e-10	8.918885e+00	1.249885e+01
9.100000e-07	1.421483e-06	6.865519e-10	9.994375e+00	4.468845e+01
9.200000e-07	1.573846e-06	1.192046e-09	1.106563e+01	7.770865e+01
9.300000e-07	1.725553e-06	1.710982e-09	1.213227e+01	1.112651e+02
9.400000e-07	1.876598e-06	2.231160e-09	1.319426e+01	1.450230e+02
9.500000e-07	2.026976e-06	2.746199e-09	1.425156e+01	1.786271e+02
9.600000e-07	2.176630e-06	3.252606e-09	1.530377e+01	2.117237e+02
9.700000e-07	2.325493e-06	3.745334e-09	1.635042e+01	2.439829e+02
9.800000e-07	2.473506e-06	4.217274e-09	1.739109e+01	2.751179e+02
9.900000e-07	2.620518e-06	4.662411e-09	1.842472e+01	3.049015e+02
1.000000e-06	2.766536e-06	5.083358e-09	1.945137e+01	3.331752e+02
1.010000e-06	2.911567e-06	5.482528e-09	2.047107e+01	3.598538e+02
1.020000e-06	3.055500e-06	5.858135e-09	2.148306e+01	3.849225e+02
1.030000e-06	3.198293e-06	6.212027e-09	2.248703e+01	4.084285e+02
1.040000e-06	3.339883e-06	6.548177e-09	2.348254e+01	4.304679e+02
1.050000e-06	3.480196e-06	6.867042e-09	2.446908e+01	4.511707e+02
1.060000e-06	3.619137e-06	7.167965e-09	2.544596e+01	4.706834e+02
1.070000e-06	3.756625e-06	7.452046e-09	2.641263e+01	4.891535e+02
1.080000e-06	3.892701e-06	7.722847e-09	2.736938e+01	5.067167e+02
1.090000e-06	4.027336e-06	7.979335e-09	2.831599e+01	5.234869e+02
1.100000e-06	4.160525e-06	8.221699e-09	2.925243e+01	5.395511e+02
1.110000e-06	4.292280e-06	8.453126e-09	3.017880e+01	5.549687e+02
1.120000e-06	4.422498e-06	8.675924e-09	3.109435e+01	5.697743e+02
1.130000e-06	4.551118e-06	8.889605e-09	3.199867e+01	5.839833e+02
1.140000e-06	4.678125e-06	9.091618e-09	3.289165e+01	5.975996e+02
1.150000e-06	4.803562e-06	9.284650e-09	3.377359e+01	6.106227e+02
1.160000e-06	4.927433e-06	9.469618e-09	3.464452e+01	6.230551e+02
1.170000e-06	5.049512e-06	9.646703e-09	3.550285e+01	6.349067e+02
1.180000e-06	5.169742e-06	9.817321e-09	3.634818e+01	6.461976e+02
1.190000e-06	5.288161e-06	9.982974e-09	3.718078e+01	6.569580e+02
1.200000e-06	5.404592e-06	1.014227e-08	3.799940e+01	6.672259e+02
1.210000e-06	5.518863e-06	1.029428e-08	3.880284e+01	6.770434e+02
1.220000e-06	5.630996e-06	1.043989e-08	3.959124e+01	6.864522e+02
1.230000e-06	5.741101e-06	1.058058e-08	4.036538e+01	6.954889e+02
1.240000e-06	5.849234e-06	1.071627e-08	4.112566e+01	7.041815e+02
1.250000e-06	5.955271e-06	1.084468e-08	4.187120e+01	7.125476e+02
1.260000e-06	6.059021e-06	1.096608e-08	4.260066e+01	7.205939e+02
1.270000e-06	6.160537e-06	1.107933e-08	4.331441e+01	7.283182e+02
1.280000e-06	6.259824e-06	1.118602e-08	4.401249e+01	7.357122e+02
1.290000e-06	6.356730e-06	1.129122e-08	4.469384e+01	7.427661e+02
1.300000e-06	6.451286e-06	1.139348e-08	4.535866e+01	7.494721e+02
1.310000e-06	6.543631e-06	1.149127e-08	4.600793e+01	7.558287e+02
1.320000e-06	6.633637e-06	1.158313e-08	4.664075e+01	7.618431e+02
1.330000e-06	6.721170e-06	1.167016e-08	4.725619e+01	7.675323e+02
1.340000e-06	6.806348e-06	1.175247e-08	4.785508e+01	7.729220e+02
1.350000e-06	6.889155e-06	1.183034e-08	4.843729e+01	7.780449e+02
1.360000e-06	6.969453e-06	1.190510e-08	4.900186e+01	7.829367e+02
1.370000e-06	7.047221e-06	1.197601e-08	4.954864e+01	7.876317e+02
1.380000e-06	7.122378e-06	1.204667e-08	5.007707e+01	7.921596e+02
1.390000e-06	7.194884e-06	1.211671e-08	5.058685e+01	7.965410e+02
1.400000e-06	7.264850e-06	1.218427e-08	5.107878e+01	8.007858e+02
1.410000e-06	7.332292e-06	1.224810e-08	5.155296e+01	8.048924e+02
1.420000e-06	7.397049e-06	1.230719e-08	5.200826e+01	8.088488e+02
1.430000e-06	7.459154e-06	1.236344e-08	5.244492e+01	8.126350e+02
1.440000e-06	7.518797e-06	1.241572e-08	5.286426e+01	8.162264e+02
1.450000e-06	7.575785e-06	1.246476e-08	5.326495e+01	8.195985e+02
1.460000e-06	7.629981e-06	1.251115e-08	5.364600e+01	8.227301e+02
1.470000e-06	7.681210e-06	1.255340e-08	5.400618e+01	8.256071e+02
1.480000e-06	7.729280e-06	1.259299e-08	5.434416e+01	8.282246e+02
1.490000e-06	7.774543e-06	1.262981e-08	5.466241e+01	8.305876e+02
1.500000e-06	7.817176e-06	1.266387e-08	5.496215e+01	8.327100e+02
1.510000e-06	7.856980e-06	1.269392e-08	5.524201e+01	8.346127e+02
1.520000e-06	7.893999e-06	1.272043e-08	5.550229e+01	8.363205e+02
1.530000e-06	7.928239e-06	1.274532e-08	5.574304e+01	8.378585e+02
1.540000e-06	7.959603e-06	1.276714e-08	5.596355e+01	8.392491e+02
1.550000e-06	7.988226e-06	1.278549e-08	5.616480e+01	8.405090e+02
1.560000e-06	8.013964e-06	1.280147e-08	5.634576e+01	8.416475e+02
1.570000e-06	8.036695e-06	1.281654e-08	5.650558e+01	8.426661e+02
1.580000e-06	8.056598e-06	1.283003e-08	5.664552e+01	8.435594e+02
1.590000e-06	8.073590e-06	1.284057e-08	5.676499e+01	8.443166e+02
1.600000e-06	8.087562e-06	1.284914e-08	5.686323e+01	8.449243e+02
1.610000e-06	8.098409e-06	1.285626e-08	5.693949e+01	8.453693e+02
1.620000e-06	8.106099e-06	1.286097e-08	5.699356e+01	8.456412e+02
1.630000e-06	8.110915e-06	1.286300e-08	5.702742e+01	8.457344e+02
1.640000e-06	8.112918e-06	1.286248e-08	5.704150e+01	8.456490e+02
1.650000e-06	8.112080e-06	1.286109e-08	5.703561e+01	8.453914e+02
1.660000e-06	8.108618e-06	1.285305e-08	5.701127e+01	8.449731e+02
1.670000e-06	8.102391e-06	1.284655e-08	5.696749e+01	8.444092e+02
1.680000e-06	8.093388e-06	1.284195e-08	5.690419e+01	8.437159e+02
1.690000e-06	8.081694e-06	1.283442e-08	5.682197e+01	8.429089e+02
1.700000e-06	8.067117e-06	1.282491e-08	5.671948e+01	8.420007e+02
1.710000e-06	8.049908e-06	1.281547e-08	5.659848e+01	8.409997e+02
1.720000e-06	8.030367e-06	1.280538e-08	5.646109e+01	8.399095e+02
1.730000e-06	8.008300e-06	1.276497e-08	5.630594e+01	8.387290e+02
1.740000e-06	7.983051e-06	1.268758e-08	5.612841e+01	8.374529e+02
1.750000e-06	7.954061e-06	1.268355e-08	5.592459e+01	8.360738e+02
1.760000e-06	7.921586e-06	1.268657e-08	5.569626e+01	8.345831e+02
1.770000e-06	7.886538e-06	1.266055e-08	5.544984e+01	8.329727e+02
1.780000e-06	7.849222e-06	1.266034e-08	5.518747e+01	8.312360e+02
1.790000e-06	7.809611e-06	1.268649e-08	5.490897e+01	8.293681e+02
1.800000e-06	7.768025e-06	1.260448e-08	5.461658e+01	8.273664e+02
1.810000e-06	7.724048e-06	1.257067e-08	5.430738e+01	8.252291e+02
1.820000e-06	7.677224e-06	1.262704e-08	5.397816e+01	8.229544e+02
1.830000e-06	7.627637e-06	1.252167e-08	5.362952e+01	8.205395e+02
1.840000e-06	7.574987e-06	1.252730e-08	5.325934e+01	8.179796e+02
1.850000e-06	7.519367e-06	1.245372e-08	5.286828e+01	8.152669e+02
1.860000e-06	7.461019e-06	1.236125e-08	5.245803e+01	8.123913e+02
1.870000e-06	7.399952e-06	1.236561e-08	5.202868e+01	8.093408e+02
1.880000e-06	7.336274e-06	1.229005e-08	5.158096e+01	8.061027e+02
1.890000e-06	7.269719e-06	1.231030e-08	5.111301e+01	8.026655e+02
1.900000e-06	7.200253e-06	1.222853e-08	5.062460e+01	7.990208e+02
1.910000e-06	7.127973e-06	1.214782e-08	5.011640e+01	7.951648e+02
1.920000e-06	7.052894e-06	1.208623e-08	4.958853e+01	7.910991e+02
1.930000e-06	6.975091e-06	1.199660e-08	4.904150e+01	7.868313e+02
1.940000e-06	6.894615e-06	1.198361e-08	4.847568e+01	7.823741e+02
1.950000e-06	6.811611e-06	1.187895e-08	4.789208e+01	7.777439e+02
1.960000e-06	6.726101e-06	1.182814e-08	4.729086e+01	7.729582e+02
1.970000e-06	6.638068e-06	1.174793e-08	4.667191e+01	7.680334e+02
1.980000e-06	6.547628e-06	1.165454e-08	4.603603e+01	7.629818e+02
1.990000e-06	6.454922e-06	1.159581e-08	4.538422e+01	7.578098e+02
2.000000e-06	6.359944e-06	1.150401e-08	4.471644e+01	7.525164e+02
2.010000e-06	6.262727e-06	1.143292e-08	4.403291e+01	7.470927e+02
2.020000e-06	6.163299e-06	1.131769e-08	4.333384e+01	7.415233e+02
2.030000e-06	6.061587e-06	1.123472e-08	4.261870e+01	7.357878e+02
2.040000e-06	5.957639e-06	1.115089e-08	4.188785e+01	7.298635e+02
2.050000e-06	5.851581e-06	1.107119e-08	4.114216e+01	7.237287e+02
2.060000e-06	5.743582e-06	1.096487e-08	4.038282e+01	7.173655e+02
2.070000e-06	5.633630e-06	1.085056e-08	3.960976e+01	7.107619e+02
2.080000e-06	5.521575e-06	1.075251e-08	3.882190e+01	7.039136e+02
2.090000e-06	5.407431e-06	1.064647e-08	3.801936e+01	6.968238e+02
2.100000e-06	5.291198e-06	1.054901e-08	3.720214e+01	6.895021e+02
2.110000e-06	5.172903e-06	1.044036e-08	3.637041e+01	6.819624e+02
2.120000e-06	5.052666e-06	1.032227e-08	3.552503e+01	6.742195e+02
2.130000e-06	4.930622e-06	1.017917e-08	3.466694e+01	6.662861e+02
2.140000e-06	4.806834e-06	1.005619e-08	3.379659e+01	6.581697e+02
2.150000e-06	4.681307e-06	9.940254e-09	3.291402e+01	6.498703e+02
2.160000e-06	4.554024e-06	9.818984e-09	3.201910e+01	6.413794e+02
2.170000e-06	4.425078e-06	9.679871e-09	3.111249e+01	6.326800e+02
2.180000e-06	4.294564e-06	9.539043e-09	3.019485e+01	6.237490e+02
2.190000e-06	4.162461e-06	9.398538e-09	2.926604e+01	6.145591e+02
2.200000e-06	4.028857e-06	9.253680e-09	2.832668e+01	6.050832e+02
2.210000e-06	3.893757e-06	9.109443e-09	2.737680e+01	5.952974e+02
2.220000e-06	3.757069e-06	8.956995e-09	2.641575e+01	5.851842e+02
2.230000e-06	3.618933e-06	8.792954e-09	2.544453e+01	5.747348e+02
2.240000e-06	3.479461e-06	8.620580e-09	2.446391e+01	5.639494e+02
2.250000e-06	3.338550e-06	8.459555e-09	2.347317e+01	5.528361e+02
2.260000e-06	3.196335e-06	8.297459e-09	2.247327e+01	5.414086e+02
2.270000e-06	3.052937e-06	8.123337e-09	2.146504e+01	5.296822e+02
2.280000e-06	2.908324e-06	7.935498e-09	2.044827e+01	5.176700e+02
2.290000e-06	2.762653e-06	7.746898e-09	1.942407e+01	5.053782e+02
2.300000e-06	2.616125e-06	7.557627e-09	1.839383e+01	4.928032e+02
2.310000e-06	2.468853e-06	7.366136e-09	1.735837e+01	4.799298e+02
2.320000e-06	2.320724e-06	7.166196e-09	1.631689e+01	4.667310e+02
2.330000e-06	2.171610e-06	6.951595e-09	1.526848e+01	4.531700e+02
2.340000e-06	2.021750e-06	6.727611e-09	1.421482e+01	4.392040e+02
2.350000e-06	1.871347e-06	6.502301e-09	1.315734e+01	4.247886e+02
2.360000e-06	1.720395e-06	6.278941e-09	1.209601e+01	4.098831e+02
2.370000e-06	1.568846e-06	6.048950e-09	1.103048e+01	3.944549e+02
2.380000e-06	1.416662e-06	5.808013e-09	9.960477e+00	3.784827e+02
2.390000e-06	1.263915e-06	5.557713e-09	8.886517e+00	3.619573e+02
2.400000e-06	1.110712e-06	5.299251e-09	7.809356e+00	3.448802e+02
2.410000e-06	9.571341e-07	5.033388e-09	6.729560e+00	3.272593e+02
2.420000e-06	8.032655e-07	4.760323e-09	5.647717e+00	3.091025e+02
2.430000e-06	6.491612e-07	4.477037e-09	4.564219e+00	2.904107e+02
2.440000e-06	4.949105e-07	4.179918e-09	3.479690e+00	2.711693e+02
2.450000e-06	3.404876e-07	3.872278e-09	2.393950e+00	2.513420e+02
2.460000e-06	1.858643e-07	3.558890e-09	1.306802e+00	2.308669e+02
2.470000e-06	3.116073e-08	3.233399e-09	2.190894e-01	2.096550e+02
2.480000e-06	-1.235453e-07	2.890569e-09	-8.686403e-01	1.875946e+02
2.490000e-06	-2.782364e-07	2.532480e-09	-1.956265e+00	1.645585e+02
2.500000e-06	-4.328587e-07	2.160649e-09	-3.043407e+00	1.404161e+02
2.510000e-06	-5.873761e-07	1.774255e-09	-4.129810e+00	1.150478e+02
2.520000e-06	-7.417561e-07	1.371126e-09	-5.215248e+00	8.836166e+01
2.530000e-06	-8.959165e-07	9.494799e-10	-6.299142e+00	6.030885e+01
2.540000e-06	-1.049762e-06	5.062238e-10	-7.380822e+00	3.089759e+01
2.550000e-06	-1.203223e-06	4.275926e-11	-8.459797e+00	2.027428e-01
2.560000e-06	-1.356251e-06	-4.376356e-10	-9.535732e+00	-3.162982e+01
2.570000e-06	-1.508799e-06	-9.337467e-10	-1.060829e+01	-6.438512e+01
2.580000e-06	-1.660765e-06	-1.447376e-09	-1.167675e+01	-9.778737e+01
2.590000e-06	-1.812001e-06	-1.974972e-09	-1.274008e+01	-1.315141e+02
2.600000e-06	-1.962538e-06	-2.505240e-09	-1.379850e+01	-1.652149e+02
2.610000e-06	-2.112379e-06	-3.026664e-09	-1.485203e+01	-1.985329e+02
2.620000e-06	-2.261384e-06	-3.529908e-09	-1.589967e+01	-2.311273e+02
2.630000e-06	-2.409490e-06	-4.010687e-09	-1.694100e+01	-2.626938e+02
2.640000e-06	-2.556722e-06	-4.468768e-09	-1.797618e+01	-2.929826e+02
2.650000e-06	-2.703067e-06	-4.903590e-09	-1.900512e+01	-3.218096e+02
2.660000e-06	-2.848458e-06	-5.313824e-09	-2.002736e+01	-3.490638e+02
2.670000e-06	-2.992819e-06	-5.701858e-09	-2.104235e+01	-3.747056e+02
2.680000e-06	-3.135991e-06	-6.069050e-09	-2.204899e+01	-3.987615e+02
2.690000e-06	-3.277813e-06	-6.414963e-09	-2.304613e+01	-4.213118e+02
2.700000e-06	-3.418315e-06	-6.741195e-09	-2.403400e+01	-4.424762e+02
2.710000e-06	-3.557514e-06	-7.052429e-09	-2.501270e+01	-4.623973e+02
2.720000e-06	-3.695425e-06	-7.349480e-09	-2.598234e+01	-4.812239e+02
2.730000e-06	-3.832059e-06	-7.629916e-09	-2.694301e+01	-4.990973e+02
2.740000e-06	-3.967275e-06	-7.892451e-09	-2.789370e+01	-5.161398e+02
2.750000e-06	-4.101001e-06	-8.139531e-09	-2.883392e+01	-5.324485e+02
2.760000e-06	-4.233290e-06	-8.376597e-09	-2.976404e+01	-5.480925e+02
2.770000e-06	-4.364110e-06	-8.604291e-09	-3.068383e+01	-5.631146e+02
2.780000e-06	-4.493431e-06	-8.823300e-09	-3.159308e+01	-5.775364e+02
2.790000e-06	-4.621186e-06	-9.033990e-09	-3.249132e+01	-5.913649e+02
2.800000e-06	-4.747255e-06	-9.238444e-09	-3.337770e+01	-6.046005e+02
2.810000e-06	-4.871679e-06	-9.436129e-09	-3.425252e+01	-6.172438e+02
2.820000e-06	-4.994467e-06	-9.623802e-09	-3.511584e+01	-6.293016e+02
2.830000e-06	-5.115514e-06	-9.800237e-09	-3.596691e+01	-6.407904e+02
2.840000e-06	-5.234633e-06	-9.964147e-09	-3.680443e+01	-6.517369e+02
2.850000e-06	-5.351674e-06	-1.011926e-08	-3.762734e+01	-6.621765e+02
2.860000e-06	-5.466557e-06	-1.026980e-08	-3.843508e+01	-6.721506e+02
2.870000e-06	-5.579155e-06	-1.041763e-08	-3.922674e+01	-6.817014e+02
2.880000e-06	-5.689569e-06	-1.056022e-08	-4.000306e+01	-6.908679e+02
2.890000e-06	-5.797992e-06	-1.069781e-08	-4.076538e+01	-6.996813e+02
2.900000e-06	-5.904488e-06	-1.083114e-08	-4.151414e+01	-7.081633e+02
2.910000e-06	-6.008857e-06	-1.095720e-08	-4.224796e+01	-7.163242e+02
2.920000e-06	-6.110881e-06	-1.107620e-08	-4.296528e+01	-7.241648e+02
2.930000e-06	-6.210637e-06	-1.118992e-08	-4.366667e+01	-7.316786e+02
2.940000e-06	-6.308280e-06	-1.129808e-08	-4.435319e+01	-7.388556e+02
