# Temperatura_=_85.41
# Concentracion g/m^3_=_15000.0
# C_Vs_to_Am_M_A/Vsm_=_65563218390.804596
# pendiente_HvsI_1/m_=_3716.3
# ordenada_HvsI_A/m_=_1297.0
# frecuencia_Hz_=_302361.30924894195

Tiempo_(s)	Campo_(V.s)	Magnetizacion_(V.s)	Campo_(kA/m)	Magnetizacion_(A/m)
0.000000e+00	-8.157751e-06	-1.313327e-08	-5.691045e+01	-8.588125e+02
1.000000e-08	-8.155598e-06	-1.312704e-08	-5.689543e+01	-8.584817e+02
2.000000e-08	-8.150679e-06	-1.311975e-08	-5.686112e+01	-8.580058e+02
3.000000e-08	-8.143167e-06	-1.311085e-08	-5.680871e+01	-8.573948e+02
4.000000e-08	-8.132860e-06	-1.310042e-08	-5.673681e+01	-8.566574e+02
5.000000e-08	-8.119622e-06	-1.308852e-08	-5.664445e+01	-8.557998e+02
6.000000e-08	-8.103436e-06	-1.307349e-08	-5.653154e+01	-8.548256e+02
7.000000e-08	-8.084633e-06	-1.305121e-08	-5.640036e+01	-8.537356e+02
8.000000e-08	-8.063530e-06	-1.301935e-08	-5.625315e+01	-8.525288e+02
9.000000e-08	-8.039717e-06	-1.301546e-08	-5.608702e+01	-8.512034e+02
1.000000e-07	-8.012703e-06	-1.301822e-08	-5.589856e+01	-8.497583e+02
1.100000e-07	-7.982556e-06	-1.298648e-08	-5.568825e+01	-8.481936e+02
1.200000e-07	-7.949449e-06	-1.294642e-08	-5.545728e+01	-8.465117e+02
1.300000e-07	-7.913463e-06	-1.291285e-08	-5.520624e+01	-8.447172e+02
1.400000e-07	-7.874922e-06	-1.288914e-08	-5.493737e+01	-8.428158e+02
1.500000e-07	-7.834006e-06	-1.283991e-08	-5.465193e+01	-8.408137e+02
1.600000e-07	-7.790714e-06	-1.279133e-08	-5.434991e+01	-8.387151e+02
1.700000e-07	-7.744822e-06	-1.278118e-08	-5.402976e+01	-8.365209e+02
1.800000e-07	-7.696046e-06	-1.271147e-08	-5.368949e+01	-8.342271e+02
1.900000e-07	-7.644375e-06	-1.268403e-08	-5.332902e+01	-8.318235e+02
2.000000e-07	-7.589774e-06	-1.265820e-08	-5.294811e+01	-8.292942e+02
2.100000e-07	-7.532277e-06	-1.258878e-08	-5.254700e+01	-8.266181e+02
2.200000e-07	-7.472125e-06	-1.256053e-08	-5.212736e+01	-8.237705e+02
2.300000e-07	-7.409361e-06	-1.250487e-08	-5.168950e+01	-8.207264e+02
2.400000e-07	-7.343848e-06	-1.246321e-08	-5.123247e+01	-8.174626e+02
2.500000e-07	-7.275535e-06	-1.239605e-08	-5.075590e+01	-8.139613e+02
2.600000e-07	-7.204445e-06	-1.232898e-08	-5.025996e+01	-8.102123e+02
2.700000e-07	-7.130500e-06	-1.226968e-08	-4.974410e+01	-8.062141e+02
2.800000e-07	-7.053670e-06	-1.219679e-08	-4.920812e+01	-8.019749e+02
2.900000e-07	-6.974033e-06	-1.212132e-08	-4.865255e+01	-7.975110e+02
3.000000e-07	-6.891759e-06	-1.204250e-08	-4.807858e+01	-7.928452e+02
3.100000e-07	-6.807127e-06	-1.199320e-08	-4.748817e+01	-7.880028e+02
3.200000e-07	-6.720117e-06	-1.192542e-08	-4.688117e+01	-7.830088e+02
3.300000e-07	-6.630629e-06	-1.184174e-08	-4.625688e+01	-7.778837e+02
3.400000e-07	-6.538736e-06	-1.177121e-08	-4.561581e+01	-7.726406e+02
3.500000e-07	-6.444489e-06	-1.169377e-08	-4.495832e+01	-7.672835e+02
3.600000e-07	-6.347921e-06	-1.159745e-08	-4.428464e+01	-7.618062e+02
3.700000e-07	-6.249035e-06	-1.150207e-08	-4.359478e+01	-7.561936e+02
3.800000e-07	-6.147893e-06	-1.142639e-08	-4.288919e+01	-7.504235e+02
3.900000e-07	-6.044540e-06	-1.133494e-08	-4.216818e+01	-7.444701e+02
4.000000e-07	-5.939000e-06	-1.122653e-08	-4.143191e+01	-7.383078e+02
4.100000e-07	-5.831411e-06	-1.112837e-08	-4.068134e+01	-7.319144e+02
4.200000e-07	-5.721792e-06	-1.103512e-08	-3.991661e+01	-7.252748e+02
4.300000e-07	-5.610079e-06	-1.092725e-08	-3.913727e+01	-7.183824e+02
4.400000e-07	-5.496262e-06	-1.080860e-08	-3.834326e+01	-7.112396e+02
4.500000e-07	-5.380288e-06	-1.070024e-08	-3.753419e+01	-7.038566e+02
4.600000e-07	-5.262212e-06	-1.059380e-08	-3.671047e+01	-6.962493e+02
4.700000e-07	-5.142249e-06	-1.047608e-08	-3.587358e+01	-6.884351e+02
4.800000e-07	-5.020504e-06	-1.035332e-08	-3.502425e+01	-6.804299e+02
4.900000e-07	-4.896952e-06	-1.023051e-08	-3.416232e+01	-6.722436e+02
5.000000e-07	-4.771670e-06	-1.010217e-08	-3.328833e+01	-6.638782e+02
5.100000e-07	-4.644645e-06	-9.966402e-09	-3.240217e+01	-6.553255e+02
5.200000e-07	-4.515893e-06	-9.830104e-09	-3.150396e+01	-6.465681e+02
5.300000e-07	-4.385482e-06	-9.695422e-09	-3.059419e+01	-6.375806e+02
5.400000e-07	-4.253415e-06	-9.555445e-09	-2.967286e+01	-6.283329e+02
5.500000e-07	-4.119836e-06	-9.404491e-09	-2.874098e+01	-6.187945e+02
5.600000e-07	-3.984723e-06	-9.244833e-09	-2.779839e+01	-6.089383e+02
5.700000e-07	-3.848027e-06	-9.083707e-09	-2.684477e+01	-5.987447e+02
5.800000e-07	-3.709785e-06	-8.923047e-09	-2.588036e+01	-5.882039e+02
5.900000e-07	-3.569979e-06	-8.761643e-09	-2.490504e+01	-5.773169e+02
6.000000e-07	-3.428646e-06	-8.596366e-09	-2.391907e+01	-5.660944e+02
6.100000e-07	-3.285943e-06	-8.426610e-09	-2.292354e+01	-5.545543e+02
6.200000e-07	-3.142013e-06	-8.248858e-09	-2.191945e+01	-5.427174e+02
6.300000e-07	-2.996842e-06	-8.062227e-09	-2.090670e+01	-5.306023e+02
6.400000e-07	-2.850567e-06	-7.871024e-09	-1.988625e+01	-5.182205e+02
6.500000e-07	-2.703331e-06	-7.675403e-09	-1.885909e+01	-5.055729e+02
6.600000e-07	-2.555221e-06	-7.473803e-09	-1.782584e+01	-4.926463e+02
6.700000e-07	-2.406321e-06	-7.268041e-09	-1.678708e+01	-4.794138e+02
6.800000e-07	-2.256586e-06	-7.059901e-09	-1.574250e+01	-4.658362e+02
6.900000e-07	-2.106036e-06	-6.845588e-09	-1.469222e+01	-4.518660e+02
7.000000e-07	-1.954735e-06	-6.624505e-09	-1.363671e+01	-4.374522e+02
7.100000e-07	-1.802759e-06	-6.395386e-09	-1.257648e+01	-4.225469e+02
7.200000e-07	-1.650216e-06	-6.159251e-09	-1.151231e+01	-4.071103e+02
7.300000e-07	-1.497176e-06	-5.917208e-09	-1.044466e+01	-3.911149e+02
7.400000e-07	-1.343658e-06	-5.668425e-09	-9.373686e+00	-3.745478e+02
7.500000e-07	-1.189628e-06	-5.411576e-09	-8.299131e+00	-3.574093e+02
7.600000e-07	-1.035080e-06	-5.143646e-09	-7.220967e+00	-3.397094e+02
7.700000e-07	-8.800966e-07	-4.867454e-09	-6.139767e+00	-3.214612e+02
7.800000e-07	-7.247757e-07	-4.582981e-09	-5.056212e+00	-3.026730e+02
7.900000e-07	-5.692298e-07	-4.290048e-09	-3.971085e+00	-2.833395e+02
8.000000e-07	-4.135098e-07	-3.987890e-09	-2.884745e+00	-2.634339e+02
8.100000e-07	-2.576711e-07	-3.673679e-09	-1.797576e+00	-2.429021e+02
8.200000e-07	-1.017596e-07	-3.345933e-09	-7.098997e-01	-2.216610e+02
8.300000e-07	5.425179e-08	-3.003839e-09	3.784736e-01	-1.996000e+02
8.400000e-07	2.103203e-07	-2.648819e-09	1.467245e+00	-1.765887e+02
8.500000e-07	3.663646e-07	-2.278221e-09	2.555848e+00	-1.524877e+02
8.600000e-07	5.223222e-07	-1.889886e-09	3.643846e+00	-1.271637e+02
8.700000e-07	6.781065e-07	-1.483709e-09	4.730635e+00	-1.005066e+02
8.800000e-07	8.336895e-07	-1.062370e-09	5.816021e+00	-7.244633e+01
8.900000e-07	9.890563e-07	-6.245632e-10	6.899897e+00	-4.296877e+01
9.000000e-07	1.144105e-06	-1.649960e-10	7.981552e+00	-1.212699e+01
9.100000e-07	1.298700e-06	3.155003e-10	9.060047e+00	1.995215e+01
9.200000e-07	1.452764e-06	8.153492e-10	1.013483e+01	5.306811e+01
9.300000e-07	1.606219e-06	1.334755e-09	1.120538e+01	8.695344e+01
9.400000e-07	1.759051e-06	1.866845e-09	1.227157e+01	1.212870e+02
9.500000e-07	1.911278e-06	2.400876e-09	1.333354e+01	1.557122e+02
9.600000e-07	2.062857e-06	2.928136e-09	1.439099e+01	1.898593e+02
9.700000e-07	2.213649e-06	3.441481e-09	1.544295e+01	2.233683e+02
9.800000e-07	2.363479e-06	3.935659e-09	1.648820e+01	2.559113e+02
9.900000e-07	2.512339e-06	4.405664e-09	1.752669e+01	2.872122e+02
1.000000e-06	2.660339e-06	4.850276e-09	1.855917e+01	3.170605e+02
1.010000e-06	2.807413e-06	5.269532e-09	1.958520e+01	3.453196e+02
1.020000e-06	2.953370e-06	5.666509e-09	2.060342e+01	3.719283e+02
1.030000e-06	3.098237e-06	6.042284e-09	2.161405e+01	3.968956e+02
1.040000e-06	3.241971e-06	6.398086e-09	2.261678e+01	4.202904e+02
1.050000e-06	3.384422e-06	6.735267e-09	2.361055e+01	4.422266e+02
1.060000e-06	3.525561e-06	7.052739e-09	2.459517e+01	4.628467e+02
1.070000e-06	3.665353e-06	7.350608e-09	2.557039e+01	4.823042e+02
1.080000e-06	3.803756e-06	7.632200e-09	2.653593e+01	5.007486e+02
1.090000e-06	3.940726e-06	7.901309e-09	2.749146e+01	5.183131e+02
1.100000e-06	4.076215e-06	8.157896e-09	2.843666e+01	5.351061e+02
1.110000e-06	4.210177e-06	8.402043e-09	2.937122e+01	5.512076e+02
1.120000e-06	4.342668e-06	8.634688e-09	3.029551e+01	5.666699e+02
1.130000e-06	4.473720e-06	8.858416e-09	3.120976e+01	5.815212e+02
1.140000e-06	4.603222e-06	9.073347e-09	3.211320e+01	5.957729e+02
1.150000e-06	4.731116e-06	9.276833e-09	3.300541e+01	6.094269e+02
1.160000e-06	4.857313e-06	9.469244e-09	3.388579e+01	6.224831e+02
1.170000e-06	4.981824e-06	9.653309e-09	3.475441e+01	6.349459e+02
1.180000e-06	5.104615e-06	9.830373e-09	3.561104e+01	6.468286e+02
1.190000e-06	5.225559e-06	1.000213e-08	3.645477e+01	6.581547e+02
1.200000e-06	5.344623e-06	1.016846e-08	3.728539e+01	6.689574e+02
1.210000e-06	5.461716e-06	1.032972e-08	3.810225e+01	6.792768e+02
1.220000e-06	5.576723e-06	1.048417e-08	3.890457e+01	6.891557e+02
1.230000e-06	5.689574e-06	1.063181e-08	3.969185e+01	6.986351e+02
1.240000e-06	5.800298e-06	1.077361e-08	4.046429e+01	7.077498e+02
1.250000e-06	5.908963e-06	1.090898e-08	4.122236e+01	7.165254e+02
1.260000e-06	6.015493e-06	1.103673e-08	4.196554e+01	7.249770e+02
1.270000e-06	6.119768e-06	1.115750e-08	4.269299e+01	7.331092e+02
1.280000e-06	6.221834e-06	1.127106e-08	4.340503e+01	7.409183e+02
1.290000e-06	6.321643e-06	1.138003e-08	4.410132e+01	7.483960e+02
1.300000e-06	6.419021e-06	1.148841e-08	4.478065e+01	7.555327e+02
1.310000e-06	6.513981e-06	1.159427e-08	4.544311e+01	7.623222e+02
1.320000e-06	6.606718e-06	1.169350e-08	4.609007e+01	7.687647e+02
1.330000e-06	6.697124e-06	1.178456e-08	4.672076e+01	7.748687e+02
1.340000e-06	6.785038e-06	1.187170e-08	4.733407e+01	7.806518e+02
1.350000e-06	6.870581e-06	1.195551e-08	4.793084e+01	7.861396e+02
1.360000e-06	6.953773e-06	1.203439e-08	4.851121e+01	7.913629e+02
1.370000e-06	7.034436e-06	1.210961e-08	4.907394e+01	7.963549e+02
1.380000e-06	7.112511e-06	1.218365e-08	4.961860e+01	8.011466e+02
1.390000e-06	7.187924e-06	1.225640e-08	5.014470e+01	8.057637e+02
1.400000e-06	7.260569e-06	1.232650e-08	5.065149e+01	8.102238e+02
1.410000e-06	7.330585e-06	1.239190e-08	5.113994e+01	8.145346e+02
1.420000e-06	7.398079e-06	1.245306e-08	5.161080e+01	8.186939e+02
1.430000e-06	7.462955e-06	1.251137e-08	5.206339e+01	8.226908e+02
1.440000e-06	7.525207e-06	1.256806e-08	5.249767e+01	8.265082e+02
1.450000e-06	7.584946e-06	1.262259e-08	5.291443e+01	8.301259e+02
1.460000e-06	7.642048e-06	1.267319e-08	5.331279e+01	8.335245e+02
1.470000e-06	7.696354e-06	1.271949e-08	5.369163e+01	8.366882e+02
1.480000e-06	7.747554e-06	1.276151e-08	5.404882e+01	8.396074e+02
1.490000e-06	7.795611e-06	1.280084e-08	5.438407e+01	8.422799e+02
1.500000e-06	7.840919e-06	1.283897e-08	5.470015e+01	8.447114e+02
1.510000e-06	7.883506e-06	1.287429e-08	5.499725e+01	8.469141e+02
1.520000e-06	7.923243e-06	1.290589e-08	5.527447e+01	8.489048e+02
1.530000e-06	7.960214e-06	1.293324e-08	5.553239e+01	8.507025e+02
1.540000e-06	7.994399e-06	1.295784e-08	5.577087e+01	8.523256e+02
1.550000e-06	8.025679e-06	1.298030e-08	5.598908e+01	8.537892e+02
1.560000e-06	8.054109e-06	1.299934e-08	5.618742e+01	8.551042e+02
1.570000e-06	8.079599e-06	1.301572e-08	5.636525e+01	8.562757e+02
1.580000e-06	8.102121e-06	1.303085e-08	5.652236e+01	8.573036e+02
1.590000e-06	8.121846e-06	1.304534e-08	5.665997e+01	8.581837e+02
1.600000e-06	8.138658e-06	1.305651e-08	5.677725e+01	8.589093e+02
1.610000e-06	8.152403e-06	1.306437e-08	5.687314e+01	8.594729e+02
1.620000e-06	8.162953e-06	1.307062e-08	5.694674e+01	8.598685e+02
1.630000e-06	8.170354e-06	1.307596e-08	5.699837e+01	8.600929e+02
1.640000e-06	8.174896e-06	1.307870e-08	5.703006e+01	8.601467e+02
1.650000e-06	8.176536e-06	1.307841e-08	5.704150e+01	8.600342e+02
1.660000e-06	8.175307e-06	1.307400e-08	5.703293e+01	8.597630e+02
1.670000e-06	8.171417e-06	1.306640e-08	5.700579e+01	8.593426e+02
1.680000e-06	8.164785e-06	1.306001e-08	5.695952e+01	8.587833e+02
1.690000e-06	8.155380e-06	1.305222e-08	5.689391e+01	8.580944e+02
1.700000e-06	8.143167e-06	1.304266e-08	5.680871e+01	8.572832e+02
1.710000e-06	8.128069e-06	1.303361e-08	5.670338e+01	8.563543e+02
1.720000e-06	8.110407e-06	1.302715e-08	5.658017e+01	8.553095e+02
1.730000e-06	8.090401e-06	1.302193e-08	5.644060e+01	8.541486e+02
1.740000e-06	8.067716e-06	1.297636e-08	5.628235e+01	8.528697e+02
1.750000e-06	8.041674e-06	1.293397e-08	5.610067e+01	8.514714e+02
1.760000e-06	8.011873e-06	1.291791e-08	5.589277e+01	8.499533e+02
1.770000e-06	7.978758e-06	1.289705e-08	5.566175e+01	8.483168e+02
1.780000e-06	7.943190e-06	1.286647e-08	5.541362e+01	8.465656e+02
1.790000e-06	7.905340e-06	1.285620e-08	5.514957e+01	8.447053e+02
1.800000e-06	7.865261e-06	1.284148e-08	5.486997e+01	8.427418e+02
1.810000e-06	7.823155e-06	1.276223e-08	5.457623e+01	8.406806e+02
1.820000e-06	7.778439e-06	1.278061e-08	5.426428e+01	8.385238e+02
1.830000e-06	7.730841e-06	1.275788e-08	5.393223e+01	8.362697e+02
1.840000e-06	7.680450e-06	1.271157e-08	5.358068e+01	8.339106e+02
1.850000e-06	7.626976e-06	1.271902e-08	5.320764e+01	8.314328e+02
1.860000e-06	7.570624e-06	1.264818e-08	5.281451e+01	8.288168e+02
1.870000e-06	7.511555e-06	1.262303e-08	5.240243e+01	8.260394e+02
1.880000e-06	7.449674e-06	1.256221e-08	5.197073e+01	8.230751e+02
1.890000e-06	7.385036e-06	1.251535e-08	5.151980e+01	8.198999e+02
1.900000e-06	7.317536e-06	1.248965e-08	5.104891e+01	8.164934e+02
1.910000e-06	7.247160e-06	1.241016e-08	5.055795e+01	8.128421e+02
1.920000e-06	7.173906e-06	1.236067e-08	5.004691e+01	8.089410e+02
1.930000e-06	7.097874e-06	1.228718e-08	4.951649e+01	8.047947e+02
1.940000e-06	7.019127e-06	1.223638e-08	4.896714e+01	8.004165e+02
1.950000e-06	6.937738e-06	1.216789e-08	4.839935e+01	7.958268e+02
1.960000e-06	6.853866e-06	1.208588e-08	4.781423e+01	7.910504e+02
1.970000e-06	6.767370e-06	1.202773e-08	4.721082e+01	7.861130e+02
1.980000e-06	6.678312e-06	1.193229e-08	4.658953e+01	7.810371e+02
1.990000e-06	6.586868e-06	1.185106e-08	4.595159e+01	7.758391e+02
2.000000e-06	6.493123e-06	1.178095e-08	4.529760e+01	7.705267e+02
2.010000e-06	6.397091e-06	1.172134e-08	4.462766e+01	7.650977e+02
2.020000e-06	6.298755e-06	1.162518e-08	4.394164e+01	7.595404e+02
2.030000e-06	6.198144e-06	1.151788e-08	4.323976e+01	7.538348e+02
2.040000e-06	6.095250e-06	1.142593e-08	4.252195e+01	7.479563e+02
2.050000e-06	5.990230e-06	1.133154e-08	4.178930e+01	7.418787e+02
2.060000e-06	5.883192e-06	1.123426e-08	4.104257e+01	7.355781e+02
2.070000e-06	5.774205e-06	1.113419e-08	4.028226e+01	7.290363e+02
2.080000e-06	5.663156e-06	1.104493e-08	3.950755e+01	7.222432e+02
2.090000e-06	5.549920e-06	1.093644e-08	3.871759e+01	7.151976e+02
2.100000e-06	5.434542e-06	1.082404e-08	3.791269e+01	7.079071e+02
2.110000e-06	5.317069e-06	1.071406e-08	3.709316e+01	7.003856e+02
2.120000e-06	5.197578e-06	1.060335e-08	3.625957e+01	6.926504e+02
2.130000e-06	5.076217e-06	1.047717e-08	3.541292e+01	6.847183e+02
2.140000e-06	4.953047e-06	1.034796e-08	3.455366e+01	6.766022e+02
2.150000e-06	4.828082e-06	1.022757e-08	3.368187e+01	6.683073e+02
2.160000e-06	4.701370e-06	1.010409e-08	3.279790e+01	6.598296e+02
2.170000e-06	4.572923e-06	9.969583e-09	3.190182e+01	6.511550e+02
2.180000e-06	4.442871e-06	9.824974e-09	3.099454e+01	6.422610e+02
2.190000e-06	4.311209e-06	9.681108e-09	3.007604e+01	6.331190e+02
2.200000e-06	4.177936e-06	9.537078e-09	2.914629e+01	6.236981e+02
2.210000e-06	4.043089e-06	9.394900e-09	2.820557e+01	6.139693e+02
2.220000e-06	3.906691e-06	9.248140e-09	2.725402e+01	6.039098e+02
2.230000e-06	3.768732e-06	9.091883e-09	2.629159e+01	5.935056e+02
2.240000e-06	3.629307e-06	8.922992e-09	2.531893e+01	5.827535e+02
2.250000e-06	3.488540e-06	8.749328e-09	2.433690e+01	5.716607e+02
2.260000e-06	3.346417e-06	8.577326e-09	2.334542e+01	5.602428e+02
2.270000e-06	3.203001e-06	8.406859e-09	2.234492e+01	5.485198e+02
2.280000e-06	3.058349e-06	8.230181e-09	2.133578e+01	5.365118e+02
2.290000e-06	2.912528e-06	8.042857e-09	2.031850e+01	5.242338e+02
2.300000e-06	2.765644e-06	7.850978e-09	1.929380e+01	5.116911e+02
2.310000e-06	2.617810e-06	7.657275e-09	1.826248e+01	4.988763e+02
2.320000e-06	2.469108e-06	7.458877e-09	1.722509e+01	4.857678e+02
2.330000e-06	2.319593e-06	7.251287e-09	1.618205e+01	4.723309e+02
2.340000e-06	2.169316e-06	7.034235e-09	1.513368e+01	4.585206e+02
2.350000e-06	2.018282e-06	6.811744e-09	1.408003e+01	4.442869e+02
2.360000e-06	1.866486e-06	6.586018e-09	1.302106e+01	4.295797e+02
2.370000e-06	1.714112e-06	6.354884e-09	1.195806e+01	4.143556e+02
2.380000e-06	1.561321e-06	6.114436e-09	1.089216e+01	3.985819e+02
2.390000e-06	1.408036e-06	5.866175e-09	9.822804e+00	3.822398e+02
2.400000e-06	1.254219e-06	5.611443e-09	8.749738e+00	3.653248e+02
2.410000e-06	1.099856e-06	5.348572e-09	7.672861e+00	3.478436e+02
2.420000e-06	9.450961e-07	5.078243e-09	6.593220e+00	3.298090e+02
2.430000e-06	7.900964e-07	4.798666e-09	5.511904e+00	3.112324e+02
2.440000e-06	6.348026e-07	4.508863e-09	4.428537e+00	2.921147e+02
2.450000e-06	4.792832e-07	4.206577e-09	3.343596e+00	2.724385e+02
2.460000e-06	3.235749e-07	3.892432e-09	2.257337e+00	2.521608e+02
2.470000e-06	1.677037e-07	3.568999e-09	1.169942e+00	2.312098e+02
2.480000e-06	1.178839e-08	3.230544e-09	8.223868e-02	2.094854e+02
2.490000e-06	-1.441552e-07	2.875685e-09	-1.005662e+00	1.868636e+02
2.500000e-06	-3.001081e-07	2.509157e-09	-2.093627e+00	1.632070e+02
2.510000e-06	-4.559936e-07	2.129569e-09	-3.181122e+00	1.383780e+02
2.520000e-06	-6.117495e-07	1.734792e-09	-4.267713e+00	1.122553e+02
2.530000e-06	-7.673105e-07	1.320794e-09	-5.352944e+00	8.475114e+01
2.540000e-06	-9.226059e-07	8.861843e-10	-6.436323e+00	5.582773e+01
2.550000e-06	-1.077573e-06	4.313623e-10	-7.517408e+00	2.551067e+01
2.560000e-06	-1.232112e-06	-4.380354e-11	-8.595515e+00	-6.102530e+00
2.570000e-06	-1.386079e-06	-5.400004e-10	-9.669621e+00	-3.883984e+01
2.580000e-06	-1.539425e-06	-1.058476e-09	-1.073940e+01	-7.245886e+01
2.590000e-06	-1.692273e-06	-1.591982e-09	-1.180571e+01	-1.066576e+02
2.600000e-06	-1.844641e-06	-2.131562e-09	-1.286866e+01	-1.410910e+02
2.610000e-06	-1.996401e-06	-2.667737e-09	-1.392738e+01	-1.753916e+02
2.620000e-06	-2.147329e-06	-3.193149e-09	-1.498029e+01	-2.091928e+02
2.630000e-06	-2.297319e-06	-3.700726e-09	-1.602666e+01	-2.421518e+02
2.640000e-06	-2.446488e-06	-4.184595e-09	-1.706729e+01	-2.739699e+02
2.650000e-06	-2.594771e-06	-4.644313e-09	-1.810175e+01	-3.044096e+02
2.660000e-06	-2.742028e-06	-5.079574e-09	-1.912906e+01	-3.333047e+02
2.670000e-06	-2.888286e-06	-5.489594e-09	-2.014939e+01	-3.605646e+02
2.680000e-06	-3.033541e-06	-5.877994e-09	-2.116272e+01	-3.861718e+02
2.690000e-06	-3.177662e-06	-6.246123e-09	-2.216814e+01	-4.101731e+02
2.700000e-06	-3.320513e-06	-6.591585e-09	-2.316471e+01	-4.326669e+02
2.710000e-06	-3.462041e-06	-6.917338e-09	-2.415204e+01	-4.537862e+02
2.720000e-06	-3.602272e-06	-7.227081e-09	-2.513032e+01	-4.736823e+02
2.730000e-06	-3.741138e-06	-7.521216e-09	-2.609909e+01	-4.925079e+02
2.740000e-06	-3.878593e-06	-7.800282e-09	-2.705801e+01	-5.104040e+02
2.750000e-06	-4.014716e-06	-8.064651e-09	-2.800763e+01	-5.274892e+02
2.760000e-06	-4.149410e-06	-8.315955e-09	-2.894729e+01	-5.438549e+02
2.770000e-06	-4.282580e-06	-8.555113e-09	-2.987632e+01	-5.595639e+02
2.780000e-06	-4.414217e-06	-8.784036e-09	-3.079465e+01	-5.746534e+02
2.790000e-06	-4.544260e-06	-9.005261e-09	-3.170186e+01	-5.891404e+02
2.800000e-06	-4.672779e-06	-9.217132e-09	-3.259844e+01	-6.030295e+02
2.810000e-06	-4.799717e-06	-9.420508e-09	-3.348399e+01	-6.163206e+02
2.820000e-06	-4.924938e-06	-9.616465e-09	-3.435757e+01	-6.290158e+02
2.830000e-06	-5.048455e-06	-9.804588e-09	-3.521925e+01	-6.411244e+02
2.840000e-06	-5.170189e-06	-9.981744e-09	-3.606849e+01	-6.526659e+02
2.850000e-06	-5.289984e-06	-1.014815e-08	-3.690422e+01	-6.636700e+02
2.860000e-06	-5.407722e-06	-1.030738e-08	-3.772558e+01	-6.741744e+02
2.870000e-06	-5.523263e-06	-1.046085e-08	-3.853162e+01	-6.842215e+02
2.880000e-06	-5.636540e-06	-1.060925e-08	-3.932187e+01	-6.938536e+02
2.890000e-06	-5.747614e-06	-1.075286e-08	-4.009675e+01	-7.031082e+02
2.900000e-06	-5.856594e-06	-1.089113e-08	-4.085702e+01	-7.120149e+02
2.910000e-06	-5.963578e-06	-1.102353e-08	-4.160337e+01	-7.205930e+02
2.920000e-06	-6.068495e-06	-1.115028e-08	-4.233529e+01	-7.288509e+02
2.930000e-06	-6.171136e-06	-1.127168e-08	-4.305134e+01	-7.367880e+02
2.940000e-06	-6.271408e-06	-1.138812e-08	-4.375086e+01	-7.443973e+02
