# Temperatura_=_40.25
# Concentracion g/m^3_=_15000.0
# C_Vs_to_Am_M_A/Vsm_=_65563218390.804596
# pendiente_HvsI_1/m_=_3716.3
# ordenada_HvsI_A/m_=_1297.0
# frecuencia_Hz_=_302361.5691092925

Tiempo_(s)	Campo_(V.s)	Magnetizacion_(V.s)	Campo_(kA/m)	Magnetizacion_(A/m)
0.000000e+00	-8.136728e-06	-8.723187e-09	-5.689489e+01	-5.706471e+02
1.000000e-08	-8.132214e-06	-8.723829e-09	-5.686333e+01	-5.703983e+02
2.000000e-08	-8.125044e-06	-8.717524e-09	-5.681319e+01	-5.700688e+02
3.000000e-08	-8.115103e-06	-8.708308e-09	-5.674368e+01	-5.696677e+02
4.000000e-08	-8.102297e-06	-8.701244e-09	-5.665414e+01	-5.692038e+02
5.000000e-08	-8.086521e-06	-8.693998e-09	-5.654383e+01	-5.686843e+02
6.000000e-08	-8.068072e-06	-8.683965e-09	-5.641482e+01	-5.681139e+02
7.000000e-08	-8.047364e-06	-8.671472e-09	-5.627003e+01	-5.674947e+02
8.000000e-08	-8.024081e-06	-8.658824e-09	-5.610722e+01	-5.668262e+02
9.000000e-08	-7.997668e-06	-8.685676e-09	-5.592254e+01	-5.661053e+02
1.000000e-07	-7.968029e-06	-8.678527e-09	-5.571529e+01	-5.653276e+02
1.100000e-07	-7.935345e-06	-8.631805e-09	-5.548675e+01	-5.644877e+02
1.200000e-07	-7.899784e-06	-8.605746e-09	-5.523809e+01	-5.635804e+02
1.300000e-07	-7.861687e-06	-8.587422e-09	-5.497170e+01	-5.626010e+02
1.400000e-07	-7.821232e-06	-8.567408e-09	-5.468883e+01	-5.615461e+02
1.500000e-07	-7.778436e-06	-8.531154e-09	-5.438959e+01	-5.604131e+02
1.600000e-07	-7.733080e-06	-8.542281e-09	-5.407244e+01	-5.592003e+02
1.700000e-07	-7.684843e-06	-8.508552e-09	-5.373515e+01	-5.579060e+02
1.800000e-07	-7.633740e-06	-8.437007e-09	-5.337782e+01	-5.565286e+02
1.900000e-07	-7.579716e-06	-8.474075e-09	-5.300007e+01	-5.550652e+02
2.000000e-07	-7.522782e-06	-8.441899e-09	-5.260196e+01	-5.535117e+02
2.100000e-07	-7.463150e-06	-8.400838e-09	-5.218499e+01	-5.518629e+02
2.200000e-07	-7.400959e-06	-8.403842e-09	-5.175013e+01	-5.501122e+02
2.300000e-07	-7.336054e-06	-8.364664e-09	-5.129630e+01	-5.482526e+02
2.400000e-07	-7.268323e-06	-8.330479e-09	-5.082270e+01	-5.462777e+02
2.500000e-07	-7.197869e-06	-8.271478e-09	-5.033005e+01	-5.441820e+02
2.600000e-07	-7.124550e-06	-8.253973e-09	-4.981738e+01	-5.419627e+02
2.700000e-07	-7.048307e-06	-8.208813e-09	-4.928426e+01	-5.396192e+02
2.800000e-07	-6.969206e-06	-8.162834e-09	-4.873117e+01	-5.371544e+02
2.900000e-07	-6.887433e-06	-8.129735e-09	-4.815938e+01	-5.345738e+02
3.000000e-07	-6.803314e-06	-8.089665e-09	-4.757119e+01	-5.318849e+02
3.100000e-07	-6.716825e-06	-8.062976e-09	-4.696643e+01	-5.290964e+02
3.200000e-07	-6.627885e-06	-8.008007e-09	-4.634452e+01	-5.262162e+02
3.300000e-07	-6.536573e-06	-7.970901e-09	-4.570604e+01	-5.232509e+02
3.400000e-07	-6.442900e-06	-7.928923e-09	-4.505104e+01	-5.202039e+02
3.500000e-07	-6.346820e-06	-7.881497e-09	-4.437922e+01	-5.170745e+02
3.600000e-07	-6.248439e-06	-7.825751e-09	-4.369131e+01	-5.138580e+02
3.700000e-07	-6.147864e-06	-7.769500e-09	-4.298805e+01	-5.105460e+02
3.800000e-07	-6.045051e-06	-7.718503e-09	-4.226914e+01	-5.071268e+02
3.900000e-07	-5.940053e-06	-7.660441e-09	-4.153496e+01	-5.035870e+02
4.000000e-07	-5.832978e-06	-7.609771e-09	-4.078625e+01	-4.999132e+02
4.100000e-07	-5.723881e-06	-7.550115e-09	-4.002341e+01	-4.960934e+02
4.200000e-07	-5.612696e-06	-7.493069e-09	-3.924597e+01	-4.921184e+02
4.300000e-07	-5.499349e-06	-7.426534e-09	-3.845340e+01	-4.879830e+02
4.400000e-07	-5.383911e-06	-7.356288e-09	-3.764622e+01	-4.836857e+02
4.500000e-07	-5.266455e-06	-7.285336e-09	-3.682492e+01	-4.792289e+02
4.600000e-07	-5.147093e-06	-7.219300e-09	-3.599030e+01	-4.746174e+02
4.700000e-07	-5.025939e-06	-7.152280e-09	-3.514315e+01	-4.698571e+02
4.800000e-07	-4.902922e-06	-7.079066e-09	-3.428297e+01	-4.649533e+02
4.900000e-07	-4.778115e-06	-7.005172e-09	-3.341028e+01	-4.599090e+02
5.000000e-07	-4.651569e-06	-6.923717e-09	-3.252542e+01	-4.547234e+02
5.100000e-07	-4.523336e-06	-6.835658e-09	-3.162877e+01	-4.493913e+02
5.200000e-07	-4.393500e-06	-6.746201e-09	-3.072091e+01	-4.439030e+02
5.300000e-07	-4.261945e-06	-6.661998e-09	-2.980104e+01	-4.382451e+02
5.400000e-07	-4.128851e-06	-6.570407e-09	-2.887039e+01	-4.324015e+02
5.500000e-07	-3.994280e-06	-6.475034e-09	-2.792942e+01	-4.263556e+02
5.600000e-07	-3.858154e-06	-6.378353e-09	-2.697759e+01	-4.200920e+02
5.700000e-07	-3.720534e-06	-6.281350e-09	-2.601529e+01	-4.135982e+02
5.800000e-07	-3.581340e-06	-6.179443e-09	-2.504200e+01	-4.068659e+02
5.900000e-07	-3.440604e-06	-6.075309e-09	-2.405792e+01	-3.998916e+02
6.000000e-07	-3.298476e-06	-5.968527e-09	-2.306412e+01	-3.926760e+02
6.100000e-07	-3.155102e-06	-5.853886e-09	-2.206159e+01	-3.852229e+02
6.200000e-07	-3.010506e-06	-5.734439e-09	-2.105052e+01	-3.775374e+02
6.300000e-07	-2.864717e-06	-5.612227e-09	-2.003112e+01	-3.696234e+02
6.400000e-07	-2.717985e-06	-5.488271e-09	-1.900511e+01	-3.614816e+02
6.500000e-07	-2.570362e-06	-5.356306e-09	-1.797288e+01	-3.531072e+02
6.600000e-07	-2.421833e-06	-5.221098e-09	-1.693432e+01	-3.444889e+02
6.700000e-07	-2.272589e-06	-5.084786e-09	-1.589075e+01	-3.356089e+02
6.800000e-07	-2.122597e-06	-4.945144e-09	-1.484195e+01	-3.264432e+02
6.900000e-07	-1.971747e-06	-4.801421e-09	-1.378715e+01	-3.169641e+02
7.000000e-07	-1.820195e-06	-4.651823e-09	-1.272745e+01	-3.071423e+02
7.100000e-07	-1.668049e-06	-4.494822e-09	-1.166359e+01	-2.969504e+02
7.200000e-07	-1.515400e-06	-4.331485e-09	-1.059621e+01	-2.863651e+02
7.300000e-07	-1.362288e-06	-4.165533e-09	-9.525601e+00	-2.753700e+02
7.400000e-07	-1.208699e-06	-3.992681e-09	-8.451651e+00	-2.639559e+02
7.500000e-07	-1.054698e-06	-3.811801e-09	-7.374822e+00	-2.521210e+02
7.600000e-07	-9.003304e-07	-3.625065e-09	-6.295430e+00	-2.398688e+02
7.700000e-07	-7.456438e-07	-3.433502e-09	-5.213806e+00	-2.272046e+02
7.800000e-07	-5.907133e-07	-3.235405e-09	-4.130477e+00	-2.141317e+02
7.900000e-07	-4.354949e-07	-3.030557e-09	-3.045135e+00	-2.006465e+02
8.000000e-07	-2.800280e-07	-2.820820e-09	-1.958055e+00	-1.867345e+02
8.100000e-07	-1.244289e-07	-2.603095e-09	-8.700513e-01	-1.723671e+02
8.200000e-07	3.127932e-08	-2.374095e-09	2.187161e-01	-1.575002e+02
8.300000e-07	1.870016e-07	-2.136157e-09	1.307581e+00	-1.420757e+02
8.400000e-07	3.426613e-07	-1.891499e-09	2.396009e+00	-1.260245e+02
8.500000e-07	4.982331e-07	-1.635713e-09	3.483822e+00	-1.092726e+02
8.600000e-07	6.536325e-07	-1.366748e-09	4.570431e+00	-9.174971e+01
8.700000e-07	8.087390e-07	-1.087823e-09	5.654990e+00	-7.339775e+01
8.800000e-07	9.635614e-07	-7.999453e-10	6.737564e+00	-5.418099e+01
8.900000e-07	1.118054e-06	-4.986912e-10	7.817829e+00	-3.409467e+01
9.000000e-07	1.272137e-06	-1.836265e-10	8.895231e+00	-1.317198e+01
9.100000e-07	1.425746e-06	1.436798e-10	9.969325e+00	8.511830e+00
9.200000e-07	1.578899e-06	4.837066e-10	1.104022e+01	3.083880e+01
9.300000e-07	1.731560e-06	8.343170e-10	1.210768e+01	5.365140e+01
9.400000e-07	1.883573e-06	1.188927e-09	1.317061e+01	7.675931e+01
9.500000e-07	2.034917e-06	1.544042e-09	1.422886e+01	9.994945e+01
9.600000e-07	2.185462e-06	1.898224e-09	1.528153e+01	1.229981e+02
9.700000e-07	2.335105e-06	2.246136e-09	1.632788e+01	1.456843e+02
9.800000e-07	2.483879e-06	2.583629e-09	1.736817e+01	1.678030e+02
9.900000e-07	2.631721e-06	2.906869e-09	1.840193e+01	1.891767e+02
1.000000e-06	2.778548e-06	3.215872e-09	1.942859e+01	2.096648e+02
1.010000e-06	2.924320e-06	3.508549e-09	2.044788e+01	2.291689e+02
1.020000e-06	3.068979e-06	3.783404e-09	2.145939e+01	2.476355e+02
1.030000e-06	3.212516e-06	4.041535e-09	2.246305e+01	2.650538e+02
1.040000e-06	3.354899e-06	4.287600e-09	2.345865e+01	2.814505e+02
1.050000e-06	3.496028e-06	4.524168e-09	2.444547e+01	2.968818e+02
1.060000e-06	3.635785e-06	4.747790e-09	2.542270e+01	3.114243e+02
1.070000e-06	3.774088e-06	4.959546e-09	2.638976e+01	3.251644e+02
1.080000e-06	3.910935e-06	5.160926e-09	2.734665e+01	3.381888e+02
1.090000e-06	4.046385e-06	5.351779e-09	2.829376e+01	3.505769e+02
1.100000e-06	4.180377e-06	5.531805e-09	2.923068e+01	3.623947e+02
1.110000e-06	4.312852e-06	5.701739e-09	3.015699e+01	3.736915e+02
1.120000e-06	4.443801e-06	5.865155e-09	3.107264e+01	3.844996e+02
1.130000e-06	4.573164e-06	6.022016e-09	3.197719e+01	3.948360e+02
1.140000e-06	4.700956e-06	6.171136e-09	3.287076e+01	4.047061e+02
1.150000e-06	4.827119e-06	6.313909e-09	3.375293e+01	4.141084e+02
1.160000e-06	4.951605e-06	6.449560e-09	3.462338e+01	4.230394e+02
1.170000e-06	5.074365e-06	6.577585e-09	3.548176e+01	4.314984e+02
1.180000e-06	5.195353e-06	6.698128e-09	3.632776e+01	4.394908e+02
1.190000e-06	5.314492e-06	6.814206e-09	3.716082e+01	4.470305e+02
1.200000e-06	5.431641e-06	6.924915e-09	3.797996e+01	4.541401e+02
1.210000e-06	5.546659e-06	7.027494e-09	3.878421e+01	4.608499e+02
1.220000e-06	5.659496e-06	7.123212e-09	3.957320e+01	4.671961e+02
1.230000e-06	5.770226e-06	7.214254e-09	4.034747e+01	4.732174e+02
1.240000e-06	5.878915e-06	7.301443e-09	4.110746e+01	4.789519e+02
1.250000e-06	5.985506e-06	7.384193e-09	4.185278e+01	4.844345e+02
1.260000e-06	6.089926e-06	7.464022e-09	4.258293e+01	4.896941e+02
1.270000e-06	6.192131e-06	7.540108e-09	4.329758e+01	4.947526e+02
1.280000e-06	6.292014e-06	7.611948e-09	4.399599e+01	4.996247e+02
1.290000e-06	6.389500e-06	7.682675e-09	4.467765e+01	5.043181e+02
1.300000e-06	6.484596e-06	7.753050e-09	4.534260e+01	5.088354e+02
1.310000e-06	6.577404e-06	7.820935e-09	4.599154e+01	5.131759e+02
1.320000e-06	6.667874e-06	7.883175e-09	4.662414e+01	5.173373e+02
1.330000e-06	6.755931e-06	7.940260e-09	4.723987e+01	5.213178e+02
1.340000e-06	6.841616e-06	7.995204e-09	4.783901e+01	5.251171e+02
1.350000e-06	6.924944e-06	8.047938e-09	4.842166e+01	5.287374e+02
1.360000e-06	7.005803e-06	8.099239e-09	4.898706e+01	5.321830e+02
1.370000e-06	7.084095e-06	8.150599e-09	4.953451e+01	5.354599e+02
1.380000e-06	7.159784e-06	8.202060e-09	5.006375e+01	5.385746e+02
1.390000e-06	7.232759e-06	8.250458e-09	5.057402e+01	5.415334e+02
1.400000e-06	7.303089e-06	8.292753e-09	5.106579e+01	5.443409e+02
1.410000e-06	7.370895e-06	8.330554e-09	5.153991e+01	5.469996e+02
1.420000e-06	7.436050e-06	8.365056e-09	5.199550e+01	5.495096e+02
1.430000e-06	7.498561e-06	8.398351e-09	5.243260e+01	5.518690e+02
1.440000e-06	7.558564e-06	8.429382e-09	5.285216e+01	5.540744e+02
1.450000e-06	7.615920e-06	8.457652e-09	5.325322e+01	5.561225e+02
1.460000e-06	7.670510e-06	8.484965e-09	5.363493e+01	5.580109e+02
1.470000e-06	7.722139e-06	8.509711e-09	5.399594e+01	5.597394e+02
1.480000e-06	7.770593e-06	8.533925e-09	5.433475e+01	5.613109e+02
1.490000e-06	7.816127e-06	8.557432e-09	5.465313e+01	5.627316e+02
1.500000e-06	7.858955e-06	8.577663e-09	5.495260e+01	5.640110e+02
1.510000e-06	7.898984e-06	8.594989e-09	5.523250e+01	5.651611e+02
1.520000e-06	7.936230e-06	8.609237e-09	5.549294e+01	5.661950e+02
1.530000e-06	7.970722e-06	8.623316e-09	5.573412e+01	5.671262e+02
1.540000e-06	8.002333e-06	8.637356e-09	5.595516e+01	5.679663e+02
1.550000e-06	8.031121e-06	8.649298e-09	5.615645e+01	5.687245e+02
1.560000e-06	8.057096e-06	8.659521e-09	5.633808e+01	5.694064e+02
1.570000e-06	8.080083e-06	8.669582e-09	5.649881e+01	5.700140e+02
1.580000e-06	8.100203e-06	8.680207e-09	5.663950e+01	5.705455e+02
1.590000e-06	8.117448e-06	8.688990e-09	5.676008e+01	5.709966e+02
1.600000e-06	8.131633e-06	8.694647e-09	5.685926e+01	5.713611e+02
1.610000e-06	8.142662e-06	8.697805e-09	5.693639e+01	5.716329e+02
1.620000e-06	8.150527e-06	8.699708e-09	5.699138e+01	5.718068e+02
1.630000e-06	8.155512e-06	8.700958e-09	5.702624e+01	5.718797e+02
1.640000e-06	8.157695e-06	8.701735e-09	5.704150e+01	5.718517e+02
1.650000e-06	8.156982e-06	8.703208e-09	5.703652e+01	5.717256e+02
1.660000e-06	8.153530e-06	8.699951e-09	5.701237e+01	5.715076e+02
1.670000e-06	8.147315e-06	8.697293e-09	5.696892e+01	5.712056e+02
1.680000e-06	8.138364e-06	8.694565e-09	5.690633e+01	5.708287e+02
1.690000e-06	8.126691e-06	8.688273e-09	5.682471e+01	5.703860e+02
1.700000e-06	8.112084e-06	8.682025e-09	5.672257e+01	5.698853e+02
1.710000e-06	8.094801e-06	8.676987e-09	5.660172e+01	5.693324e+02
1.720000e-06	8.075219e-06	8.668311e-09	5.646480e+01	5.687303e+02
1.730000e-06	8.053115e-06	8.646080e-09	5.631024e+01	5.680794e+02
1.740000e-06	8.027746e-06	8.590423e-09	5.613285e+01	5.673773e+02
1.750000e-06	7.998554e-06	8.596109e-09	5.592873e+01	5.666202e+02
1.760000e-06	7.965904e-06	8.612129e-09	5.570043e+01	5.658028e+02
1.770000e-06	7.930682e-06	8.601321e-09	5.545415e+01	5.649198e+02
1.780000e-06	7.893158e-06	8.591282e-09	5.519176e+01	5.639664e+02
1.790000e-06	7.853380e-06	8.610524e-09	5.491362e+01	5.629385e+02
1.800000e-06	7.811612e-06	8.565575e-09	5.462157e+01	5.618334e+02
1.810000e-06	7.767420e-06	8.503955e-09	5.431256e+01	5.606489e+02
1.820000e-06	7.720355e-06	8.570944e-09	5.398346e+01	5.593836e+02
1.830000e-06	7.670513e-06	8.506258e-09	5.363495e+01	5.580358e+02
1.840000e-06	7.617625e-06	8.495430e-09	5.326514e+01	5.566032e+02
1.850000e-06	7.561769e-06	8.466398e-09	5.287458e+01	5.550822e+02
1.860000e-06	7.503220e-06	8.391817e-09	5.246518e+01	5.534678e+02
1.870000e-06	7.441905e-06	8.406403e-09	5.203644e+01	5.517539e+02
1.880000e-06	7.377850e-06	8.359660e-09	5.158854e+01	5.499337e+02
1.890000e-06	7.310919e-06	8.391394e-09	5.112054e+01	5.480004e+02
1.900000e-06	7.241135e-06	8.334714e-09	5.063259e+01	5.459481e+02
1.910000e-06	7.168560e-06	8.282968e-09	5.012511e+01	5.437728e+02
1.920000e-06	7.093200e-06	8.268106e-09	4.959817e+01	5.414732e+02
1.930000e-06	7.015013e-06	8.198806e-09	4.905146e+01	5.390510e+02
1.940000e-06	6.934092e-06	8.200717e-09	4.848563e+01	5.365106e+02
1.950000e-06	6.850754e-06	8.136442e-09	4.790290e+01	5.338591e+02
1.960000e-06	6.764897e-06	8.107967e-09	4.730256e+01	5.311049e+02
1.970000e-06	6.676397e-06	8.062382e-09	4.668374e+01	5.282563e+02
1.980000e-06	6.585480e-06	8.003576e-09	4.604802e+01	5.253205e+02
1.990000e-06	6.492304e-06	7.970475e-09	4.539649e+01	5.223022e+02
2.000000e-06	6.396794e-06	7.910500e-09	4.472865e+01	5.192022e+02
2.010000e-06	6.299037e-06	7.876748e-09	4.404510e+01	5.160174e+02
2.020000e-06	6.199141e-06	7.813775e-09	4.334660e+01	5.127404e+02
2.030000e-06	6.096856e-06	7.773146e-09	4.263138e+01	5.093607e+02
2.040000e-06	5.992288e-06	7.716086e-09	4.190021e+01	5.058652e+02
2.050000e-06	5.885765e-06	7.662811e-09	4.115536e+01	5.022404e+02
2.060000e-06	5.777293e-06	7.599017e-09	4.039689e+01	4.984737e+02
2.070000e-06	5.666741e-06	7.532029e-09	3.962386e+01	4.945547e+02
2.080000e-06	5.554066e-06	7.478932e-09	3.883600e+01	4.904766e+02
2.090000e-06	5.439297e-06	7.422304e-09	3.803350e+01	4.862368e+02
2.100000e-06	5.322415e-06	7.361764e-09	3.721621e+01	4.818362e+02
2.110000e-06	5.203483e-06	7.286816e-09	3.638460e+01	4.772789e+02
2.120000e-06	5.082665e-06	7.216541e-09	3.553980e+01	4.725708e+02
2.130000e-06	4.960090e-06	7.130496e-09	3.468271e+01	4.677175e+02
2.140000e-06	4.835708e-06	7.053001e-09	3.381298e+01	4.627229e+02
2.150000e-06	4.709553e-06	6.980086e-09	3.293087e+01	4.575878e+02
2.160000e-06	4.581650e-06	6.909688e-09	3.203652e+01	4.523086e+02
2.170000e-06	4.452044e-06	6.825477e-09	3.113027e+01	4.468772e+02
2.180000e-06	4.320818e-06	6.739835e-09	3.021269e+01	4.412813e+02
2.190000e-06	4.188008e-06	6.653197e-09	2.928404e+01	4.355056e+02
2.200000e-06	4.053708e-06	6.560791e-09	2.834497e+01	4.295336e+02
2.210000e-06	3.917873e-06	6.464562e-09	2.739516e+01	4.233491e+02
2.220000e-06	3.780419e-06	6.365833e-09	2.643403e+01	4.169384e+02
2.230000e-06	3.641449e-06	6.265626e-09	2.546231e+01	4.102916e+02
2.240000e-06	3.501144e-06	6.159289e-09	2.448124e+01	4.034036e+02
2.250000e-06	3.359553e-06	6.054333e-09	2.349118e+01	3.962735e+02
2.260000e-06	3.216703e-06	5.947625e-09	2.249233e+01	3.889043e+02
2.270000e-06	3.072527e-06	5.835074e-09	2.148420e+01	3.813009e+02
2.280000e-06	2.927145e-06	5.713691e-09	2.046764e+01	3.734680e+02
2.290000e-06	2.780750e-06	5.593419e-09	1.944399e+01	3.654075e+02
2.300000e-06	2.633367e-06	5.471790e-09	1.841343e+01	3.571168e+02
2.310000e-06	2.485081e-06	5.344089e-09	1.737657e+01	3.485870e+02
2.320000e-06	2.335965e-06	5.207963e-09	1.633389e+01	3.398027e+02
2.330000e-06	2.186108e-06	5.063908e-09	1.528605e+01	3.307417e+02
2.340000e-06	2.035618e-06	4.915141e-09	1.423377e+01	3.213776e+02
2.350000e-06	1.884486e-06	4.767041e-09	1.317699e+01	3.116812e+02
2.360000e-06	1.732660e-06	4.618400e-09	1.211537e+01	3.016241e+02
2.370000e-06	1.580143e-06	4.463328e-09	1.104892e+01	2.911813e+02
2.380000e-06	1.427069e-06	4.300660e-09	9.978573e+00	2.803337e+02
2.390000e-06	1.273554e-06	4.130975e-09	8.905144e+00	2.690695e+02
2.400000e-06	1.119628e-06	3.954410e-09	7.828839e+00	2.573844e+02
2.410000e-06	9.653423e-07	3.770156e-09	6.750016e+00	2.452804e+02
2.420000e-06	8.107336e-07	3.577821e-09	5.668938e+00	2.327624e+02
2.430000e-06	6.558492e-07	3.380505e-09	4.585930e+00	2.198351e+02
2.440000e-06	5.006855e-07	3.176519e-09	3.500971e+00	2.064979e+02
2.450000e-06	3.452942e-07	2.964425e-09	2.414420e+00	1.927405e+02
2.460000e-06	1.897728e-07	2.747247e-09	1.326958e+00	1.785397e+02
2.470000e-06	3.416177e-08	2.522603e-09	2.388712e-01	1.638569e+02
2.480000e-06	-1.214977e-07	2.287503e-09	-8.495550e-01	1.486387e+02
2.490000e-06	-2.770873e-07	2.043184e-09	-1.937493e+00	1.328194e+02
2.500000e-06	-4.326364e-07	1.790509e-09	-3.025147e+00	1.163259e+02
2.510000e-06	-5.880719e-07	1.525250e-09	-4.112008e+00	9.908560e+01
2.520000e-06	-7.431953e-07	1.245266e-09	-5.196685e+00	8.103488e+01
2.530000e-06	-8.980853e-07	9.549876e-10	-6.279731e+00	6.212901e+01
2.540000e-06	-1.052732e-06	6.572090e-10	-7.361076e+00	4.235123e+01
2.550000e-06	-1.206961e-06	3.500649e-10	-8.439503e+00	2.172054e+01
2.560000e-06	-1.360770e-06	2.956812e-11	-9.514986e+00	2.969057e-01
2.570000e-06	-1.514130e-06	-3.042905e-10	-1.058734e+01	-2.181681e+01
2.580000e-06	-1.666868e-06	-6.499311e-10	-1.165533e+01	-4.447659e+01
2.590000e-06	-1.818920e-06	-1.007396e-09	-1.271854e+01	-6.750286e+01
2.600000e-06	-1.970287e-06	-1.370818e-09	-1.377694e+01	-9.068934e+01
2.610000e-06	-2.120936e-06	-1.733183e-09	-1.483034e+01	-1.138146e+02
2.620000e-06	-2.270804e-06	-2.089510e-09	-1.587827e+01	-1.366552e+02
2.630000e-06	-2.419823e-06	-2.431856e-09	-1.692026e+01	-1.589989e+02
2.640000e-06	-2.567980e-06	-2.758839e-09	-1.795623e+01	-1.806572e+02
2.650000e-06	-2.715181e-06	-3.072580e-09	-1.898551e+01	-2.014754e+02
2.660000e-06	-2.861335e-06	-3.372019e-09	-2.000747e+01	-2.213397e+02
2.670000e-06	-3.006440e-06	-3.657467e-09	-2.102210e+01	-2.401806e+02
2.680000e-06	-3.150369e-06	-3.926570e-09	-2.202850e+01	-2.579723e+02
2.690000e-06	-3.293004e-06	-4.181262e-09	-2.302586e+01	-2.747290e+02
2.700000e-06	-3.434359e-06	-4.422393e-09	-2.401426e+01	-2.904975e+02
2.710000e-06	-3.574418e-06	-4.653910e-09	-2.499360e+01	-3.053481e+02
2.720000e-06	-3.713070e-06	-4.877253e-09	-2.596310e+01	-3.193649e+02
2.730000e-06	-3.850353e-06	-5.088497e-09	-2.692303e+01	-3.326356e+02
2.740000e-06	-3.986228e-06	-5.286355e-09	-2.787312e+01	-3.452429e+02
2.750000e-06	-4.120594e-06	-5.470669e-09	-2.881266e+01	-3.572581e+02
2.760000e-06	-4.253561e-06	-5.643407e-09	-2.974241e+01	-3.687367e+02
2.770000e-06	-4.385094e-06	-5.805748e-09	-3.066213e+01	-3.797169e+02
2.780000e-06	-4.515136e-06	-5.960218e-09	-3.157144e+01	-3.902210e+02
2.790000e-06	-4.643676e-06	-6.110118e-09	-3.247023e+01	-4.002579e+02
2.800000e-06	-4.770565e-06	-6.256799e-09	-3.335749e+01	-4.098279e+02
2.810000e-06	-4.895831e-06	-6.397957e-09	-3.423339e+01	-4.189278e+02
2.820000e-06	-5.019422e-06	-6.531911e-09	-3.509758e+01	-4.275555e+02
2.830000e-06	-5.141118e-06	-6.658609e-09	-3.594852e+01	-4.357137e+02
2.840000e-06	-5.260790e-06	-6.776306e-09	-3.678531e+01	-4.434133e+02
2.850000e-06	-5.378420e-06	-6.886294e-09	-3.760783e+01	-4.506736e+02
2.860000e-06	-5.493930e-06	-6.991235e-09	-3.841551e+01	-4.575226e+02
2.870000e-06	-5.607231e-06	-7.090224e-09	-3.920775e+01	-4.639946e+02
2.880000e-06	-5.718409e-06	-7.184642e-09	-3.998515e+01	-4.701277e+02
2.890000e-06	-5.827480e-06	-7.275291e-09	-4.074781e+01	-4.759607e+02
2.900000e-06	-5.934525e-06	-7.363027e-09	-4.149631e+01	-4.815299e+02
2.910000e-06	-6.039529e-06	-7.446728e-09	-4.223053e+01	-4.868666e+02
2.920000e-06	-6.142279e-06	-7.524621e-09	-4.294899e+01	-4.919952e+02
2.930000e-06	-6.242697e-06	-7.600037e-09	-4.365116e+01	-4.969329e+02
2.940000e-06	-6.340874e-06	-7.673016e-09	-4.433765e+01	-5.016899e+02
