# Temperatura_=_63.39
# Concentracion g/m^3_=_15000.0
# C_Vs_to_Am_M_A/Vsm_=_65563218390.804596
# pendiente_HvsI_1/m_=_3716.3
# ordenada_HvsI_A/m_=_1297.0
# frecuencia_Hz_=_302363.9607441365

Tiempo_(s)	Campo_(V.s)	Magnetizacion_(V.s)	Campo_(kA/m)	Magnetizacion_(A/m)
0.000000e+00	-8.131837e-06	-1.104558e-08	-5.689113e+01	-7.225751e+02
1.000000e-08	-8.127020e-06	-1.104194e-08	-5.685743e+01	-7.221957e+02
2.000000e-08	-8.119616e-06	-1.103454e-08	-5.680563e+01	-7.217036e+02
3.000000e-08	-8.109413e-06	-1.102625e-08	-5.673425e+01	-7.211125e+02
4.000000e-08	-8.096242e-06	-1.101390e-08	-5.664210e+01	-7.204349e+02
5.000000e-08	-8.080101e-06	-1.099807e-08	-5.652918e+01	-7.196806e+02
6.000000e-08	-8.061407e-06	-1.098068e-08	-5.639840e+01	-7.188562e+02
7.000000e-08	-8.040487e-06	-1.095375e-08	-5.625203e+01	-7.179641e+02
8.000000e-08	-8.016886e-06	-1.097976e-08	-5.608692e+01	-7.170035e+02
9.000000e-08	-7.990112e-06	-1.101170e-08	-5.589961e+01	-7.159701e+02
1.000000e-07	-7.960159e-06	-1.095548e-08	-5.569005e+01	-7.148580e+02
1.100000e-07	-7.927211e-06	-1.090583e-08	-5.545955e+01	-7.136602e+02
1.200000e-07	-7.891386e-06	-1.088038e-08	-5.520891e+01	-7.123695e+02
1.300000e-07	-7.853055e-06	-1.084966e-08	-5.494074e+01	-7.109794e+02
1.400000e-07	-7.812353e-06	-1.079632e-08	-5.465599e+01	-7.094843e+02
1.500000e-07	-7.769212e-06	-1.078893e-08	-5.435417e+01	-7.078793e+02
1.600000e-07	-7.723513e-06	-1.082583e-08	-5.403445e+01	-7.061601e+02
1.700000e-07	-7.674949e-06	-1.069089e-08	-5.369470e+01	-7.043220e+02
1.800000e-07	-7.623488e-06	-1.070539e-08	-5.333467e+01	-7.023600e+02
1.900000e-07	-7.569181e-06	-1.072252e-08	-5.295473e+01	-7.002679e+02
2.000000e-07	-7.512021e-06	-1.060364e-08	-5.255484e+01	-6.980385e+02
2.100000e-07	-7.452137e-06	-1.060391e-08	-5.213588e+01	-6.956640e+02
2.200000e-07	-7.389678e-06	-1.055827e-08	-5.169891e+01	-6.931364e+02
2.300000e-07	-7.324511e-06	-1.054384e-08	-5.124300e+01	-6.904486e+02
2.400000e-07	-7.256516e-06	-1.048534e-08	-5.076730e+01	-6.875954e+02
2.500000e-07	-7.185771e-06	-1.043722e-08	-5.027236e+01	-6.845743e+02
2.600000e-07	-7.112169e-06	-1.039599e-08	-4.975743e+01	-6.813864e+02
2.700000e-07	-7.035699e-06	-1.031385e-08	-4.922244e+01	-6.780363e+02
2.800000e-07	-6.956414e-06	-1.025639e-08	-4.866776e+01	-6.745316e+02
2.900000e-07	-6.874463e-06	-1.020094e-08	-4.809442e+01	-6.708824e+02
3.000000e-07	-6.790136e-06	-1.018626e-08	-4.750446e+01	-6.670994e+02
3.100000e-07	-6.703468e-06	-1.011779e-08	-4.689812e+01	-6.631928e+02
3.200000e-07	-6.614387e-06	-1.003353e-08	-4.627490e+01	-6.591699e+02
3.300000e-07	-6.522842e-06	-9.995707e-09	-4.563445e+01	-6.550346e+02
3.400000e-07	-6.428947e-06	-9.929835e-09	-4.497755e+01	-6.507858e+02
3.500000e-07	-6.332729e-06	-9.850838e-09	-4.430439e+01	-6.464175e+02
3.600000e-07	-6.234153e-06	-9.777705e-09	-4.361474e+01	-6.419194e+02
3.700000e-07	-6.133324e-06	-9.718640e-09	-4.290933e+01	-6.372778e+02
3.800000e-07	-6.030231e-06	-9.635912e-09	-4.218809e+01	-6.324776e+02
3.900000e-07	-5.925027e-06	-9.549337e-09	-4.145207e+01	-6.275044e+02
4.000000e-07	-5.817821e-06	-9.482789e-09	-4.070205e+01	-6.223459e+02
4.100000e-07	-5.708588e-06	-9.403204e-09	-3.993784e+01	-6.169940e+02
4.200000e-07	-5.597289e-06	-9.310966e-09	-3.915918e+01	-6.114456e+02
4.300000e-07	-5.483877e-06	-9.214297e-09	-3.836574e+01	-6.057022e+02
4.400000e-07	-5.368307e-06	-9.134256e-09	-3.755720e+01	-5.997698e+02
4.500000e-07	-5.250637e-06	-9.050009e-09	-3.673397e+01	-5.936569e+02
4.600000e-07	-5.131059e-06	-8.949367e-09	-3.589740e+01	-5.873725e+02
4.700000e-07	-5.009698e-06	-8.848042e-09	-3.504834e+01	-5.809236e+02
4.800000e-07	-4.886534e-06	-8.750158e-09	-3.418667e+01	-5.743135e+02
4.900000e-07	-4.761594e-06	-8.646418e-09	-3.331258e+01	-5.675399e+02
5.000000e-07	-4.634958e-06	-8.536828e-09	-3.242662e+01	-5.605942e+02
5.100000e-07	-4.506610e-06	-8.428494e-09	-3.152868e+01	-5.534617e+02
5.200000e-07	-4.376596e-06	-8.315691e-09	-3.061909e+01	-5.461231e+02
5.300000e-07	-4.244909e-06	-8.193980e-09	-2.969780e+01	-5.385565e+02
5.400000e-07	-4.111724e-06	-8.067764e-09	-2.876603e+01	-5.307397e+02
5.500000e-07	-3.977086e-06	-7.942412e-09	-2.782409e+01	-5.226532e+02
5.600000e-07	-3.840813e-06	-7.815400e-09	-2.687071e+01	-5.142828e+02
5.700000e-07	-3.703036e-06	-7.683375e-09	-2.590680e+01	-5.056206e+02
5.800000e-07	-3.563773e-06	-7.550250e-09	-2.493250e+01	-4.966658e+02
5.900000e-07	-3.422917e-06	-7.413279e-09	-2.394706e+01	-4.874242e+02
6.000000e-07	-3.280616e-06	-7.270962e-09	-2.295151e+01	-4.779059e+02
6.100000e-07	-3.137120e-06	-7.120776e-09	-2.194760e+01	-4.681227e+02
6.200000e-07	-2.992495e-06	-6.963540e-09	-2.093579e+01	-4.580847e+02
6.300000e-07	-2.846712e-06	-6.802047e-09	-1.991588e+01	-4.477970e+02
6.400000e-07	-2.699886e-06	-6.636804e-09	-1.888867e+01	-4.372570e+02
6.500000e-07	-2.552153e-06	-6.469011e-09	-1.785511e+01	-4.264526e+02
6.600000e-07	-2.403555e-06	-6.297905e-09	-1.681550e+01	-4.153622e+02
6.700000e-07	-2.254190e-06	-6.123885e-09	-1.577053e+01	-4.039555e+02
6.800000e-07	-2.104130e-06	-5.944327e-09	-1.472070e+01	-3.921966e+02
6.900000e-07	-1.953327e-06	-5.761159e-09	-1.366567e+01	-3.800475e+02
7.000000e-07	-1.801804e-06	-5.569661e-09	-1.260560e+01	-3.674723e+02
7.100000e-07	-1.649657e-06	-5.369721e-09	-1.154116e+01	-3.544410e+02
7.200000e-07	-1.496967e-06	-5.163260e-09	-1.047293e+01	-3.409325e+02
7.300000e-07	-1.343760e-06	-4.951489e-09	-9.401079e+00	-3.269363e+02
7.400000e-07	-1.190123e-06	-4.733134e-09	-8.326215e+00	-3.124516e+02
7.500000e-07	-1.036139e-06	-4.505369e-09	-7.248932e+00	-2.974849e+02
7.600000e-07	-8.818439e-07	-4.271980e-09	-6.169467e+00	-2.820451e+02
7.700000e-07	-7.272651e-07	-4.030235e-09	-5.088018e+00	-2.661382e+02
7.800000e-07	-5.724180e-07	-3.781701e-09	-4.004692e+00	-2.497606e+02
7.900000e-07	-4.173633e-07	-3.526604e-09	-2.919915e+00	-2.328930e+02
8.000000e-07	-2.621124e-07	-3.264155e-09	-1.833764e+00	-2.154962e+02
8.100000e-07	-1.067512e-07	-2.988229e-09	-7.468417e-01	-1.975090e+02
8.200000e-07	4.863980e-08	-2.698211e-09	3.402888e-01	-1.788494e+02
8.300000e-07	2.040625e-07	-2.398665e-09	1.427641e+00	-1.594190e+02
8.400000e-07	3.593952e-07	-2.086569e-09	2.514364e+00	-1.391112e+02
8.500000e-07	5.146121e-07	-1.759916e-09	3.600277e+00	-1.178217e+02
8.600000e-07	6.697172e-07	-1.417068e-09	4.685408e+00	-9.546134e+01
8.700000e-07	8.246213e-07	-1.061929e-09	5.769132e+00	-7.196894e+01
8.800000e-07	9.792929e-07	-6.924954e-10	6.851229e+00	-4.732352e+01
8.900000e-07	1.133709e-06	-3.059355e-10	7.931543e+00	-2.155404e+01
9.000000e-07	1.287792e-06	9.830766e-11	9.009521e+00	5.254527e+00
9.100000e-07	1.441430e-06	5.176416e-10	1.008439e+01	3.295978e+01
9.200000e-07	1.594556e-06	9.504164e-10	1.115567e+01	6.136539e+01
9.300000e-07	1.747119e-06	1.394395e-09	1.222302e+01	9.022961e+01
9.400000e-07	1.898981e-06	1.840340e-09	1.328545e+01	1.192780e+02
9.500000e-07	2.050112e-06	2.284162e-09	1.434279e+01	1.482193e+02
9.600000e-07	2.200504e-06	2.721924e-09	1.539494e+01	1.767628e+02
9.700000e-07	2.350055e-06	3.148263e-09	1.644121e+01	2.046358e+02
9.800000e-07	2.498680e-06	3.557242e-09	1.748101e+01	2.315995e+02
9.900000e-07	2.646268e-06	3.945506e-09	1.851355e+01	2.574612e+02
1.000000e-06	2.792854e-06	4.313846e-09	1.953908e+01	2.820828e+02
1.010000e-06	2.938467e-06	4.664831e-09	2.055780e+01	3.053841e+02
1.020000e-06	3.082993e-06	4.996281e-09	2.156892e+01	3.273411e+02
1.030000e-06	3.226390e-06	5.308614e-09	2.257214e+01	3.479803e+02
1.040000e-06	3.368616e-06	5.603400e-09	2.356717e+01	3.673689e+02
1.050000e-06	3.509486e-06	5.879816e-09	2.455271e+01	3.856027e+02
1.060000e-06	3.648879e-06	6.140305e-09	2.552791e+01	4.027940e+02
1.070000e-06	3.786904e-06	6.388989e-09	2.649355e+01	4.190587e+02
1.080000e-06	3.923612e-06	6.626821e-09	2.744998e+01	4.345059e+02
1.090000e-06	4.058871e-06	6.853633e-09	2.839626e+01	4.492303e+02
1.100000e-06	4.192652e-06	7.066977e-09	2.933220e+01	4.633072e+02
1.110000e-06	4.324936e-06	7.269117e-09	3.025767e+01	4.767912e+02
1.120000e-06	4.455643e-06	7.464575e-09	3.117212e+01	4.897173e+02
1.130000e-06	4.584790e-06	7.650377e-09	3.207564e+01	5.021046e+02
1.140000e-06	4.712374e-06	7.826440e-09	3.296823e+01	5.139616e+02
1.150000e-06	4.838323e-06	7.995744e-09	3.384938e+01	5.252914e+02
1.160000e-06	4.962576e-06	8.158914e-09	3.471867e+01	5.360969e+02
1.170000e-06	5.085073e-06	8.315386e-09	3.557567e+01	5.463847e+02
1.180000e-06	5.205796e-06	8.464491e-09	3.642026e+01	5.561679e+02
1.190000e-06	5.324598e-06	8.607732e-09	3.725141e+01	5.654664e+02
1.200000e-06	5.441367e-06	8.745216e-09	3.806834e+01	5.743064e+02
1.210000e-06	5.556085e-06	8.875766e-09	3.887092e+01	5.827183e+02
1.220000e-06	5.668638e-06	9.001753e-09	3.965835e+01	5.907341e+02
1.230000e-06	5.779109e-06	9.121442e-09	4.043122e+01	5.983844e+02
1.240000e-06	5.887604e-06	9.233139e-09	4.119026e+01	6.056964e+02
1.250000e-06	5.993964e-06	9.337289e-09	4.193436e+01	6.126919e+02
1.260000e-06	6.098056e-06	9.436033e-09	4.266260e+01	6.193871e+02
1.270000e-06	6.199923e-06	9.529664e-09	4.337527e+01	6.257931e+02
1.280000e-06	6.299548e-06	9.620005e-09	4.407225e+01	6.319170e+02
1.290000e-06	6.396786e-06	9.708941e-09	4.475254e+01	6.377647e+02
1.300000e-06	6.491607e-06	9.794843e-09	4.541592e+01	6.433420e+02
1.310000e-06	6.584139e-06	9.876480e-09	4.606329e+01	6.486572e+02
1.320000e-06	6.674371e-06	9.953126e-09	4.669455e+01	6.537220e+02
1.330000e-06	6.762172e-06	1.002540e-08	4.730882e+01	6.585518e+02
1.340000e-06	6.847589e-06	1.009488e-08	4.790640e+01	6.631652e+02
1.350000e-06	6.930565e-06	1.016205e-08	4.848691e+01	6.675823e+02
1.360000e-06	7.011006e-06	1.022657e-08	4.904968e+01	6.718229e+02
1.370000e-06	7.088952e-06	1.028894e-08	4.959501e+01	6.759042e+02
1.380000e-06	7.164300e-06	1.035034e-08	5.012214e+01	6.798385e+02
1.390000e-06	7.236918e-06	1.041036e-08	5.063019e+01	6.836320e+02
1.400000e-06	7.306907e-06	1.046664e-08	5.111984e+01	6.872838e+02
1.410000e-06	7.374331e-06	1.051781e-08	5.159154e+01	6.907865e+02
1.420000e-06	7.439089e-06	1.056577e-08	5.204460e+01	6.941275e+02
1.430000e-06	7.501279e-06	1.061207e-08	5.247968e+01	6.972907e+02
1.440000e-06	7.560958e-06	1.065635e-08	5.289720e+01	7.002596e+02
1.450000e-06	7.617997e-06	1.069796e-08	5.329626e+01	7.030198e+02
1.460000e-06	7.672296e-06	1.073546e-08	5.367613e+01	7.055614e+02
1.470000e-06	7.723580e-06	1.076889e-08	5.403493e+01	7.078808e+02
1.480000e-06	7.771690e-06	1.080068e-08	5.437150e+01	7.099815e+02
1.490000e-06	7.816939e-06	1.083182e-08	5.468807e+01	7.118742e+02
1.500000e-06	7.859500e-06	1.085962e-08	5.498583e+01	7.135753e+02
1.510000e-06	7.899188e-06	1.088208e-08	5.526349e+01	7.151050e+02
1.520000e-06	7.936083e-06	1.090023e-08	5.552162e+01	7.164848e+02
1.530000e-06	7.970250e-06	1.091811e-08	5.576065e+01	7.177352e+02
1.540000e-06	8.001512e-06	1.093725e-08	5.597936e+01	7.188728e+02
1.550000e-06	8.029999e-06	1.095374e-08	5.617866e+01	7.199093e+02
1.560000e-06	8.055615e-06	1.096687e-08	5.635787e+01	7.208499e+02
1.570000e-06	8.078205e-06	1.097921e-08	5.651592e+01	7.216936e+02
1.580000e-06	8.097972e-06	1.099119e-08	5.665421e+01	7.224344e+02
1.590000e-06	8.114802e-06	1.100038e-08	5.677195e+01	7.230623e+02
1.600000e-06	8.128591e-06	1.100694e-08	5.686842e+01	7.235661e+02
1.610000e-06	8.139251e-06	1.101248e-08	5.694300e+01	7.239351e+02
1.620000e-06	8.146766e-06	1.101709e-08	5.699558e+01	7.241614e+02
1.630000e-06	8.151472e-06	1.102006e-08	5.702850e+01	7.242410e+02
1.640000e-06	8.153330e-06	1.102216e-08	5.704150e+01	7.241748e+02
1.650000e-06	8.152286e-06	1.102137e-08	5.703419e+01	7.239686e+02
1.660000e-06	8.148550e-06	1.101210e-08	5.700805e+01	7.236323e+02
1.670000e-06	8.142008e-06	1.100718e-08	5.696229e+01	7.231784e+02
1.680000e-06	8.132691e-06	1.100153e-08	5.689711e+01	7.226207e+02
1.690000e-06	8.120615e-06	1.099470e-08	5.681262e+01	7.219722e+02
1.700000e-06	8.105613e-06	1.099031e-08	5.670767e+01	7.212439e+02
1.710000e-06	8.088045e-06	1.098660e-08	5.658476e+01	7.204435e+02
1.720000e-06	8.068276e-06	1.098560e-08	5.644645e+01	7.195751e+02
1.730000e-06	8.045909e-06	1.089801e-08	5.628997e+01	7.186388e+02
1.740000e-06	8.020206e-06	1.085271e-08	5.611015e+01	7.176315e+02
1.750000e-06	7.990684e-06	1.088611e-08	5.590361e+01	7.165479e+02
1.760000e-06	7.957725e-06	1.087418e-08	5.567303e+01	7.153810e+02
1.770000e-06	7.922324e-06	1.085568e-08	5.542535e+01	7.141238e+02
1.780000e-06	7.884628e-06	1.089213e-08	5.516163e+01	7.127694e+02
1.790000e-06	7.844660e-06	1.089039e-08	5.488201e+01	7.113119e+02
1.800000e-06	7.802760e-06	1.073756e-08	5.458887e+01	7.097462e+02
1.810000e-06	7.758367e-06	1.081935e-08	5.427830e+01	7.080678e+02
1.820000e-06	7.711104e-06	1.080677e-08	5.394764e+01	7.062723e+02
1.830000e-06	7.661011e-06	1.072313e-08	5.359718e+01	7.043547e+02
1.840000e-06	7.607747e-06	1.077863e-08	5.322455e+01	7.023094e+02
1.850000e-06	7.551554e-06	1.063804e-08	5.283141e+01	7.001294e+02
1.860000e-06	7.492685e-06	1.065212e-08	5.241956e+01	6.978072e+02
1.870000e-06	7.431068e-06	1.058181e-08	5.198848e+01	6.953347e+02
1.880000e-06	7.366731e-06	1.053997e-08	5.153837e+01	6.927044e+02
1.890000e-06	7.299556e-06	1.057560e-08	5.106841e+01	6.899102e+02
1.900000e-06	7.229501e-06	1.043869e-08	5.057830e+01	6.869486e+02
1.910000e-06	7.156590e-06	1.044309e-08	5.006821e+01	6.838195e+02
1.920000e-06	7.080947e-06	1.037568e-08	4.953900e+01	6.805261e+02
1.930000e-06	7.002509e-06	1.034768e-08	4.899024e+01	6.770751e+02
1.940000e-06	6.921372e-06	1.028232e-08	4.842260e+01	6.734758e+02
1.950000e-06	6.837799e-06	1.018926e-08	4.783791e+01	6.697389e+02
1.960000e-06	6.751591e-06	1.018882e-08	4.723479e+01	6.658749e+02
1.970000e-06	6.662842e-06	1.007548e-08	4.661390e+01	6.618924e+02
1.980000e-06	6.571759e-06	1.004392e-08	4.597667e+01	6.577967e+02
1.990000e-06	6.478377e-06	9.984616e-09	4.532336e+01	6.535883e+02
2.000000e-06	6.382688e-06	9.926781e-09	4.465391e+01	6.492632e+02
2.010000e-06	6.284717e-06	9.831659e-09	4.396850e+01	6.448124e+02
2.020000e-06	6.184510e-06	9.748411e-09	4.326744e+01	6.402233e+02
2.030000e-06	6.082053e-06	9.700477e-09	4.255064e+01	6.354811e+02
2.040000e-06	5.977409e-06	9.618304e-09	4.181854e+01	6.305707e+02
2.050000e-06	5.870716e-06	9.551994e-09	4.107211e+01	6.254791e+02
2.060000e-06	5.762073e-06	9.457139e-09	4.031203e+01	6.201964e+02
2.070000e-06	5.651312e-06	9.386899e-09	3.953713e+01	6.147178e+02
2.080000e-06	5.538455e-06	9.285725e-09	3.874758e+01	6.090430e+02
2.090000e-06	5.423506e-06	9.203590e-09	3.794338e+01	6.031768e+02
2.100000e-06	5.306467e-06	9.117054e-09	3.712457e+01	5.971269e+02
2.110000e-06	5.187373e-06	9.027346e-09	3.629137e+01	5.909023e+02
2.120000e-06	5.066341e-06	8.922895e-09	3.544462e+01	5.845110e+02
2.130000e-06	4.943617e-06	8.819966e-09	3.458603e+01	5.779580e+02
2.140000e-06	4.819098e-06	8.726933e-09	3.371488e+01	5.712430e+02
2.150000e-06	4.692814e-06	8.620375e-09	3.283139e+01	5.643596e+02
2.160000e-06	4.564753e-06	8.511286e-09	3.193546e+01	5.572953e+02
2.170000e-06	4.435015e-06	8.391395e-09	3.102780e+01	5.500324e+02
2.180000e-06	4.303725e-06	8.284287e-09	3.010928e+01	5.425493e+02
2.190000e-06	4.170824e-06	8.167554e-09	2.917949e+01	5.348238e+02
2.200000e-06	4.036463e-06	8.051951e-09	2.823949e+01	5.268351e+02
2.210000e-06	3.900597e-06	7.924316e-09	2.728896e+01	5.185669e+02
2.220000e-06	3.763056e-06	7.792602e-09	2.632671e+01	5.100088e+02
2.230000e-06	3.624021e-06	7.653041e-09	2.535401e+01	5.011577e+02
2.240000e-06	3.483653e-06	7.514665e-09	2.437198e+01	4.920171e+02
2.250000e-06	3.341949e-06	7.378944e-09	2.338060e+01	4.825958e+02
2.260000e-06	3.199018e-06	7.238525e-09	2.238064e+01	4.729054e+02
2.270000e-06	3.054813e-06	7.087881e-09	2.137177e+01	4.629571e+02
2.280000e-06	2.909377e-06	6.928251e-09	2.035428e+01	4.527579e+02
2.290000e-06	2.762915e-06	6.770639e-09	1.932963e+01	4.423084e+02
2.300000e-06	2.615554e-06	6.609823e-09	1.829867e+01	4.316000e+02
2.310000e-06	2.467307e-06	6.445495e-09	1.726152e+01	4.206143e+02
2.320000e-06	2.318141e-06	6.271843e-09	1.621794e+01	4.093240e+02
2.330000e-06	2.168151e-06	6.090837e-09	1.516860e+01	3.976948e+02
2.340000e-06	2.017557e-06	5.905440e-09	1.411503e+01	3.856889e+02
2.350000e-06	1.866476e-06	5.716481e-09	1.305805e+01	3.732692e+02
2.360000e-06	1.714832e-06	5.520814e-09	1.199713e+01	3.604032e+02
2.370000e-06	1.562573e-06	5.315429e-09	1.093192e+01	3.470665e+02
2.380000e-06	1.409693e-06	5.103681e-09	9.862353e+00	3.332446e+02
2.390000e-06	1.256186e-06	4.889010e-09	8.788400e+00	3.189334e+02
2.400000e-06	1.102176e-06	4.667106e-09	7.710928e+00	3.041373e+02
2.410000e-06	9.478304e-07	4.438287e-09	6.631115e+00	2.888650e+02
2.420000e-06	7.932026e-07	4.201678e-09	5.549323e+00	2.731243e+02
2.430000e-06	6.383044e-07	3.954128e-09	4.465640e+00	2.569156e+02
2.440000e-06	4.832219e-07	3.695519e-09	3.380668e+00	2.402259e+02
2.450000e-06	3.279819e-07	3.428999e-09	2.294594e+00	2.230235e+02
2.460000e-06	1.725775e-07	3.156474e-09	1.207369e+00	2.052551e+02
2.470000e-06	1.707943e-08	2.871673e-09	1.194894e-01	1.868457e+02
2.480000e-06	-1.384366e-07	2.575424e-09	-9.685159e-01	1.677022e+02
2.490000e-06	-2.939235e-07	2.269977e-09	-2.056318e+00	1.477196e+02
2.500000e-06	-4.493359e-07	1.953204e-09	-3.143598e+00	1.267915e+02
2.510000e-06	-6.046219e-07	1.620877e-09	-4.229994e+00	1.048219e+02
2.520000e-06	-7.597330e-07	1.269284e-09	-5.315167e+00	8.173806e+01
2.530000e-06	-9.146013e-07	9.020045e-10	-6.398640e+00	5.750340e+01
2.540000e-06	-1.069158e-06	5.197881e-10	-7.479933e+00	3.212813e+01
2.550000e-06	-1.223360e-06	1.218323e-10	-8.558750e+00	5.676802e+00
2.560000e-06	-1.377110e-06	-2.911052e-10	-9.634394e+00	-2.172855e+01
2.570000e-06	-1.530278e-06	-7.212230e-10	-1.070598e+01	-4.991013e+01
2.580000e-06	-1.682817e-06	-1.165633e-09	-1.177315e+01	-7.864116e+01
2.590000e-06	-1.834664e-06	-1.617383e-09	-1.283549e+01	-1.076572e+02
2.600000e-06	-1.985797e-06	-2.069341e-09	-1.389283e+01	-1.366710e+02
2.610000e-06	-2.136249e-06	-2.514897e-09	-1.494541e+01	-1.653896e+02
2.620000e-06	-2.285919e-06	-2.947503e-09	-1.599251e+01	-1.935320e+02
2.630000e-06	-2.434776e-06	-3.361960e-09	-1.703393e+01	-2.208457e+02
2.640000e-06	-2.582769e-06	-3.759494e-09	-1.806931e+01	-2.471202e+02
2.650000e-06	-2.729749e-06	-4.140484e-09	-1.909759e+01	-2.721974e+02
2.660000e-06	-2.875729e-06	-4.502409e-09	-2.011888e+01	-2.959763e+02
2.670000e-06	-3.020622e-06	-4.842046e-09	-2.113257e+01	-3.184133e+02
2.680000e-06	-3.164268e-06	-5.161415e-09	-2.213753e+01	-3.395178e+02
2.690000e-06	-3.306682e-06	-5.463789e-09	-2.313387e+01	-3.593437e+02
2.700000e-06	-3.447885e-06	-5.751261e-09	-2.412174e+01	-3.779781e+02
2.710000e-06	-3.587784e-06	-6.024883e-09	-2.510049e+01	-3.955289e+02
2.720000e-06	-3.726342e-06	-6.282692e-09	-2.606986e+01	-4.121119e+02
2.730000e-06	-3.863465e-06	-6.527162e-09	-2.702918e+01	-4.278397e+02
2.740000e-06	-3.999026e-06	-6.759799e-09	-2.797758e+01	-4.428131e+02
2.750000e-06	-4.133129e-06	-6.982124e-09	-2.891577e+01	-4.571144e+02
2.760000e-06	-4.265880e-06	-7.194940e-09	-2.984452e+01	-4.708057e+02
2.770000e-06	-4.397196e-06	-7.396316e-09	-3.076322e+01	-4.839285e+02
2.780000e-06	-4.527035e-06	-7.587758e-09	-3.167158e+01	-4.965073e+02
2.790000e-06	-4.655291e-06	-7.769334e-09	-3.256887e+01	-5.085537e+02
2.800000e-06	-4.781878e-06	-7.942040e-09	-3.345449e+01	-5.200720e+02
2.810000e-06	-4.906856e-06	-8.107275e-09	-3.432885e+01	-5.310647e+02
2.820000e-06	-5.030090e-06	-8.265031e-09	-3.519100e+01	-5.415368e+02
2.830000e-06	-5.151499e-06	-8.416732e-09	-3.604039e+01	-5.514987e+02
2.840000e-06	-5.271010e-06	-8.561134e-09	-3.687650e+01	-5.609681e+02
2.850000e-06	-5.388489e-06	-8.698350e-09	-3.769840e+01	-5.699690e+02
2.860000e-06	-5.503751e-06	-8.831677e-09	-3.850479e+01	-5.785306e+02
2.870000e-06	-5.616721e-06	-8.959993e-09	-3.929513e+01	-5.866847e+02
2.880000e-06	-5.727556e-06	-9.082087e-09	-4.007054e+01	-5.944627e+02
2.890000e-06	-5.836396e-06	-9.197663e-09	-4.083200e+01	-6.018932e+02
2.900000e-06	-5.943245e-06	-9.307139e-09	-4.157953e+01	-6.090000e+02
2.910000e-06	-6.047902e-06	-9.410833e-09	-4.231172e+01	-6.158014e+02
2.920000e-06	-6.150291e-06	-9.508823e-09	-4.302804e+01	-6.223101e+02
2.930000e-06	-6.250402e-06	-9.603000e-09	-4.372843e+01	-6.285346e+02
2.940000e-06	-6.348301e-06	-9.693217e-09	-4.441334e+01	-6.344808e+02
