# Temperatura_=_87.1
# Concentracion g/m^3_=_15000.0
# C_Vs_to_Am_M_A/Vsm_=_65563218390.804596
# pendiente_HvsI_1/m_=_3716.3
# ordenada_HvsI_A/m_=_1297.0
# frecuencia_Hz_=_302361.17225447536

Tiempo_(s)	Campo_(V.s)	Magnetizacion_(V.s)	Campo_(kA/m)	Magnetizacion_(A/m)
0.000000e+00	-8.152286e-06	-1.387077e-08	-5.691061e+01	-9.068194e+02
1.000000e-08	-8.149984e-06	-1.386697e-08	-5.689454e+01	-9.064685e+02
2.000000e-08	-8.144946e-06	-1.386067e-08	-5.685937e+01	-9.059677e+02
3.000000e-08	-8.137293e-06	-1.385129e-08	-5.680595e+01	-9.053265e+02
4.000000e-08	-8.126877e-06	-1.383762e-08	-5.673323e+01	-9.045529e+02
5.000000e-08	-8.113536e-06	-1.382225e-08	-5.664010e+01	-9.036521e+02
6.000000e-08	-8.097271e-06	-1.380441e-08	-5.652655e+01	-9.026265e+02
7.000000e-08	-8.078471e-06	-1.377972e-08	-5.639532e+01	-9.014758e+02
8.000000e-08	-8.057332e-06	-1.374867e-08	-5.624775e+01	-9.001978e+02
9.000000e-08	-8.033434e-06	-1.374371e-08	-5.608091e+01	-8.987901e+02
1.000000e-07	-8.006360e-06	-1.373944e-08	-5.589191e+01	-8.972511e+02
1.100000e-07	-7.976099e-06	-1.371674e-08	-5.568066e+01	-8.955813e+02
1.200000e-07	-7.942826e-06	-1.368105e-08	-5.544838e+01	-8.937839e+02
1.300000e-07	-7.906726e-06	-1.364207e-08	-5.519637e+01	-8.918646e+02
1.400000e-07	-7.868132e-06	-1.361219e-08	-5.492695e+01	-8.898309e+02
1.500000e-07	-7.827204e-06	-1.355520e-08	-5.464124e+01	-8.876905e+02
1.600000e-07	-7.783858e-06	-1.350699e-08	-5.433864e+01	-8.854492e+02
1.700000e-07	-7.737903e-06	-1.346856e-08	-5.401783e+01	-8.831091e+02
1.800000e-07	-7.689117e-06	-1.341932e-08	-5.367726e+01	-8.806668e+02
1.900000e-07	-7.637378e-06	-1.340148e-08	-5.331607e+01	-8.781119e+02
2.000000e-07	-7.582713e-06	-1.336425e-08	-5.293445e+01	-8.754278e+02
2.100000e-07	-7.525236e-06	-1.332385e-08	-5.253321e+01	-8.725914e+02
2.200000e-07	-7.465050e-06	-1.327081e-08	-5.211306e+01	-8.695764e+02
2.300000e-07	-7.402199e-06	-1.319060e-08	-5.167430e+01	-8.663550e+02
2.400000e-07	-7.336608e-06	-1.314171e-08	-5.121641e+01	-8.629019e+02
2.500000e-07	-7.268258e-06	-1.307691e-08	-5.073927e+01	-8.591973e+02
2.600000e-07	-7.197164e-06	-1.300753e-08	-5.024296e+01	-8.552292e+02
2.700000e-07	-7.123178e-06	-1.294208e-08	-4.972647e+01	-8.509956e+02
2.800000e-07	-7.046258e-06	-1.288258e-08	-4.918950e+01	-8.465046e+02
2.900000e-07	-6.966505e-06	-1.279873e-08	-4.863274e+01	-8.417734e+02
3.000000e-07	-6.884182e-06	-1.271625e-08	-4.805806e+01	-8.368257e+02
3.100000e-07	-6.799527e-06	-1.266653e-08	-4.746709e+01	-8.316888e+02
3.200000e-07	-6.712502e-06	-1.259062e-08	-4.685957e+01	-8.263889e+02
3.300000e-07	-6.623030e-06	-1.250182e-08	-4.623497e+01	-8.209481e+02
3.400000e-07	-6.531151e-06	-1.242322e-08	-4.559357e+01	-8.153805e+02
3.500000e-07	-6.436936e-06	-1.234593e-08	-4.493585e+01	-8.096902e+02
3.600000e-07	-6.340339e-06	-1.224016e-08	-4.426152e+01	-8.038708e+02
3.700000e-07	-6.241383e-06	-1.213235e-08	-4.357071e+01	-7.979065e+02
3.800000e-07	-6.140160e-06	-1.204632e-08	-4.286408e+01	-7.917739e+02
3.900000e-07	-6.036742e-06	-1.195137e-08	-4.214213e+01	-7.854463e+02
4.000000e-07	-5.931225e-06	-1.184283e-08	-4.140552e+01	-7.788969e+02
4.100000e-07	-5.823655e-06	-1.174277e-08	-4.065458e+01	-7.721035e+02
4.200000e-07	-5.714027e-06	-1.164928e-08	-3.988927e+01	-7.650511e+02
4.300000e-07	-5.602312e-06	-1.152950e-08	-3.910940e+01	-7.577340e+02
4.400000e-07	-5.488477e-06	-1.139863e-08	-3.831472e+01	-7.501563e+02
4.500000e-07	-5.372564e-06	-1.128171e-08	-3.750554e+01	-7.423303e+02
4.600000e-07	-5.254597e-06	-1.117306e-08	-3.668202e+01	-7.342739e+02
4.700000e-07	-5.134643e-06	-1.105008e-08	-3.584463e+01	-7.260067e+02
4.800000e-07	-5.012850e-06	-1.092241e-08	-3.499440e+01	-7.175456e+02
4.900000e-07	-4.889260e-06	-1.079342e-08	-3.413163e+01	-7.089012e+02
5.000000e-07	-4.763943e-06	-1.065454e-08	-3.325680e+01	-7.000747e+02
5.100000e-07	-4.636947e-06	-1.051122e-08	-3.237024e+01	-6.910561e+02
5.200000e-07	-4.508225e-06	-1.036526e-08	-3.147164e+01	-6.818251e+02
5.300000e-07	-4.377836e-06	-1.021951e-08	-3.056141e+01	-6.723527e+02
5.400000e-07	-4.245820e-06	-1.006869e-08	-2.963981e+01	-6.626048e+02
5.500000e-07	-4.112246e-06	-9.914291e-09	-2.870734e+01	-6.525469e+02
5.600000e-07	-3.977134e-06	-9.754084e-09	-2.776413e+01	-6.421488e+02
5.700000e-07	-3.840358e-06	-9.588166e-09	-2.680930e+01	-6.313883e+02
5.800000e-07	-3.702077e-06	-9.418535e-09	-2.584397e+01	-6.202546e+02
5.900000e-07	-3.562371e-06	-9.245372e-09	-2.486869e+01	-6.087487e+02
6.000000e-07	-3.421141e-06	-9.065699e-09	-2.388278e+01	-5.968827e+02
6.100000e-07	-3.278506e-06	-8.881455e-09	-2.288705e+01	-5.846770e+02
6.200000e-07	-3.134607e-06	-8.693060e-09	-2.188250e+01	-5.721549e+02
6.300000e-07	-2.989578e-06	-8.495510e-09	-2.087006e+01	-5.593379e+02
6.400000e-07	-2.843429e-06	-8.291547e-09	-1.984980e+01	-5.462403e+02
6.500000e-07	-2.696221e-06	-8.085176e-09	-1.882215e+01	-5.328640e+02
6.600000e-07	-2.548142e-06	-7.877200e-09	-1.778842e+01	-5.191966e+02
6.700000e-07	-2.399280e-06	-7.662785e-09	-1.674922e+01	-5.052100e+02
6.800000e-07	-2.249672e-06	-7.443335e-09	-1.570482e+01	-4.908630e+02
6.900000e-07	-2.099227e-06	-7.217326e-09	-1.465458e+01	-4.761048e+02
7.000000e-07	-1.947987e-06	-6.982232e-09	-1.359878e+01	-4.608810e+02
7.100000e-07	-1.796096e-06	-6.737632e-09	-1.253844e+01	-4.451400e+02
7.200000e-07	-1.643633e-06	-6.487018e-09	-1.147410e+01	-4.288387e+02
7.300000e-07	-1.490647e-06	-6.232768e-09	-1.040612e+01	-4.119471e+02
7.400000e-07	-1.337060e-06	-5.970833e-09	-9.333935e+00	-3.944508e+02
7.500000e-07	-1.182972e-06	-5.699338e-09	-8.258252e+00	-3.763493e+02
7.600000e-07	-1.028523e-06	-5.417411e-09	-7.180056e+00	-3.576529e+02
7.700000e-07	-8.737506e-07	-5.128398e-09	-6.099600e+00	-3.383751e+02
7.800000e-07	-7.187142e-07	-4.829143e-09	-5.017300e+00	-3.185245e+02
7.900000e-07	-5.633850e-07	-4.518815e-09	-3.932957e+00	-2.980951e+02
8.000000e-07	-4.078474e-07	-4.197788e-09	-2.847158e+00	-2.770583e+02
8.100000e-07	-2.521961e-07	-3.864296e-09	-1.760565e+00	-2.553563e+02
8.200000e-07	-9.646036e-08	-3.517204e-09	-6.733839e-01	-2.329005e+02
8.300000e-07	5.933555e-08	-3.154822e-09	4.142179e-01	-2.095732e+02
8.400000e-07	2.151802e-07	-2.777560e-09	1.502160e+00	-1.852357e+02
8.500000e-07	3.709903e-07	-2.385367e-09	2.589861e+00	-1.597401e+02
8.600000e-07	5.267003e-07	-1.976678e-09	3.676863e+00	-1.329451e+02
8.700000e-07	6.823040e-07	-1.550348e-09	4.763122e+00	-1.047345e+02
8.800000e-07	8.377470e-07	-1.106938e-09	5.848260e+00	-7.503490e+01
8.900000e-07	9.929266e-07	-6.426305e-10	6.931560e+00	-4.383269e+01
9.000000e-07	1.147828e-06	-1.536382e-10	8.012917e+00	-1.118587e+01
9.100000e-07	1.302328e-06	3.577189e-10	9.091472e+00	2.276915e+01
9.200000e-07	1.456253e-06	8.890140e-10	1.016602e+01	5.781775e+01
9.300000e-07	1.609638e-06	1.438483e-09	1.123678e+01	9.367463e+01
9.400000e-07	1.762494e-06	2.000312e-09	1.230386e+01	1.299979e+02
9.500000e-07	1.914696e-06	2.563399e-09	1.336638e+01	1.664088e+02
9.600000e-07	2.066127e-06	3.119918e-09	1.442350e+01	2.025152e+02
9.700000e-07	2.216772e-06	3.664232e-09	1.547515e+01	2.379362e+02
9.800000e-07	2.366631e-06	4.189542e-09	1.652130e+01	2.723259e+02
9.900000e-07	2.515503e-06	4.687703e-09	1.756057e+01	3.053933e+02
1.000000e-06	2.663347e-06	5.157509e-09	1.859267e+01	3.369177e+02
1.010000e-06	2.810251e-06	5.601338e-09	1.961819e+01	3.667568e+02
1.020000e-06	2.956153e-06	6.021146e-09	2.063672e+01	3.948479e+02
1.030000e-06	3.100985e-06	6.415620e-09	2.164779e+01	4.212022e+02
1.040000e-06	3.244628e-06	6.787938e-09	2.265055e+01	4.458934e+02
1.050000e-06	3.387005e-06	7.144028e-09	2.364448e+01	4.690424e+02
1.060000e-06	3.528024e-06	7.481094e-09	2.462892e+01	4.907989e+02
1.070000e-06	3.667657e-06	7.797279e-09	2.560369e+01	5.113239e+02
1.080000e-06	3.805918e-06	8.094187e-09	2.656888e+01	5.307735e+02
1.090000e-06	3.942723e-06	8.377147e-09	2.752391e+01	5.492861e+02
1.100000e-06	4.078034e-06	8.646922e-09	2.846851e+01	5.669739e+02
1.110000e-06	4.211863e-06	8.903147e-09	2.940276e+01	5.839198e+02
1.120000e-06	4.344185e-06	9.148112e-09	3.032649e+01	6.001779e+02
1.130000e-06	4.475024e-06	9.382326e-09	3.123987e+01	6.157782e+02
1.140000e-06	4.604357e-06	9.605497e-09	3.214273e+01	6.307338e+02
1.150000e-06	4.732065e-06	9.817464e-09	3.303426e+01	6.450491e+02
1.160000e-06	4.858169e-06	1.002009e-08	3.391458e+01	6.587276e+02
1.170000e-06	4.982565e-06	1.021575e-08	3.478298e+01	6.717781e+02
1.180000e-06	5.105211e-06	1.040338e-08	3.563917e+01	6.842192e+02
1.190000e-06	5.226062e-06	1.058413e-08	3.648282e+01	6.960803e+02
1.200000e-06	5.345021e-06	1.075800e-08	3.731327e+01	7.074003e+02
1.210000e-06	5.462004e-06	1.092562e-08	3.812992e+01	7.182245e+02
1.220000e-06	5.576834e-06	1.108569e-08	3.893154e+01	7.286000e+02
1.230000e-06	5.689524e-06	1.123927e-08	3.971822e+01	7.385700e+02
1.240000e-06	5.800110e-06	1.138830e-08	4.049021e+01	7.481703e+02
1.250000e-06	5.908609e-06	1.153220e-08	4.124764e+01	7.574252e+02
1.260000e-06	6.014970e-06	1.166933e-08	4.199014e+01	7.663469e+02
1.270000e-06	6.119112e-06	1.179854e-08	4.271715e+01	7.749361e+02
1.280000e-06	6.221044e-06	1.192029e-08	4.342873e+01	7.831846e+02
1.290000e-06	6.320678e-06	1.203654e-08	4.412427e+01	7.910791e+02
1.300000e-06	6.417889e-06	1.215002e-08	4.480289e+01	7.986065e+02
1.310000e-06	6.512745e-06	1.225915e-08	4.546508e+01	8.057575e+02
1.320000e-06	6.605328e-06	1.236241e-08	4.611139e+01	8.125313e+02
1.330000e-06	6.695548e-06	1.245836e-08	4.674121e+01	8.189371e+02
1.340000e-06	6.783331e-06	1.254934e-08	4.735402e+01	8.249948e+02
1.350000e-06	6.868743e-06	1.263648e-08	4.795028e+01	8.307336e+02
1.360000e-06	6.951759e-06	1.271904e-08	4.852981e+01	8.361893e+02
1.370000e-06	7.032248e-06	1.279807e-08	4.909169e+01	8.414000e+02
1.380000e-06	7.110138e-06	1.287605e-08	4.963544e+01	8.464019e+02
1.390000e-06	7.185372e-06	1.295277e-08	5.016064e+01	8.512250e+02
1.400000e-06	7.257954e-06	1.302556e-08	5.066733e+01	8.558900e+02
1.410000e-06	7.327968e-06	1.309317e-08	5.115610e+01	8.604064e+02
1.420000e-06	7.395387e-06	1.315718e-08	5.162675e+01	8.647723e+02
1.430000e-06	7.460108e-06	1.321850e-08	5.207856e+01	8.689758e+02
1.440000e-06	7.522239e-06	1.327747e-08	5.251229e+01	8.729977e+02
1.450000e-06	7.581858e-06	1.333425e-08	5.292849e+01	8.768150e+02
1.460000e-06	7.638809e-06	1.338791e-08	5.332606e+01	8.804051e+02
1.470000e-06	7.693018e-06	1.343763e-08	5.370449e+01	8.837491e+02
1.480000e-06	7.744213e-06	1.348345e-08	5.406188e+01	8.868348e+02
1.490000e-06	7.792248e-06	1.352608e-08	5.439721e+01	8.896581e+02
1.500000e-06	7.837444e-06	1.356537e-08	5.471272e+01	8.922237e+02
1.510000e-06	7.879872e-06	1.360093e-08	5.500891e+01	8.945434e+02
1.520000e-06	7.919409e-06	1.363242e-08	5.528491e+01	8.966346e+02
1.530000e-06	7.956181e-06	1.366093e-08	5.554161e+01	8.985173e+02
1.540000e-06	7.990187e-06	1.368732e-08	5.577901e+01	9.002112e+02
1.550000e-06	8.021338e-06	1.371075e-08	5.599647e+01	9.017332e+02
1.560000e-06	8.049679e-06	1.373069e-08	5.619432e+01	9.030954e+02
1.570000e-06	8.075082e-06	1.374815e-08	5.637166e+01	9.043044e+02
1.580000e-06	8.097485e-06	1.376366e-08	5.652805e+01	9.053613e+02
1.590000e-06	8.117054e-06	1.377684e-08	5.666466e+01	9.062627e+02
1.600000e-06	8.133720e-06	1.378767e-08	5.678100e+01	9.070026e+02
1.610000e-06	8.147327e-06	1.379583e-08	5.687600e+01	9.075741e+02
1.620000e-06	8.157777e-06	1.380031e-08	5.694894e+01	9.079716e+02
1.630000e-06	8.165103e-06	1.380290e-08	5.700008e+01	9.081925e+02
1.640000e-06	8.169530e-06	1.380417e-08	5.703099e+01	9.082376e+02
1.650000e-06	8.171035e-06	1.380626e-08	5.704150e+01	9.081115e+02
1.660000e-06	8.169713e-06	1.380315e-08	5.703227e+01	9.078221e+02
1.670000e-06	8.165749e-06	1.379726e-08	5.700459e+01	9.073787e+02
1.680000e-06	8.159063e-06	1.378949e-08	5.695792e+01	9.067913e+02
1.690000e-06	8.149659e-06	1.377928e-08	5.689227e+01	9.060687e+02
1.700000e-06	8.137459e-06	1.376984e-08	5.680710e+01	9.052172e+02
1.710000e-06	8.122396e-06	1.375995e-08	5.670195e+01	9.042402e+02
1.720000e-06	8.104744e-06	1.375199e-08	5.657872e+01	9.031385e+02
1.730000e-06	8.084704e-06	1.374284e-08	5.643883e+01	9.019106e+02
1.740000e-06	8.061956e-06	1.370184e-08	5.628002e+01	9.005538e+02
1.750000e-06	8.035838e-06	1.366253e-08	5.609770e+01	8.990662e+02
1.760000e-06	8.005977e-06	1.363334e-08	5.588924e+01	8.974473e+02
1.770000e-06	7.972809e-06	1.361000e-08	5.565770e+01	8.956992e+02
1.780000e-06	7.937196e-06	1.357963e-08	5.540908e+01	8.938267e+02
1.790000e-06	7.899240e-06	1.356790e-08	5.514411e+01	8.918368e+02
1.800000e-06	7.859000e-06	1.354270e-08	5.486320e+01	8.897371e+02
1.810000e-06	7.816751e-06	1.349916e-08	5.456826e+01	8.875347e+02
1.820000e-06	7.771985e-06	1.350525e-08	5.425575e+01	8.852332e+02
1.830000e-06	7.724459e-06	1.345801e-08	5.392398e+01	8.828316e+02
1.840000e-06	7.674074e-06	1.343284e-08	5.357225e+01	8.803224e+02
1.850000e-06	7.620509e-06	1.338632e-08	5.319831e+01	8.776912e+02
1.860000e-06	7.564074e-06	1.333459e-08	5.280434e+01	8.749173e+02
1.870000e-06	7.504935e-06	1.332533e-08	5.239149e+01	8.719755e+02
1.880000e-06	7.443008e-06	1.326525e-08	5.195919e+01	8.688382e+02
1.890000e-06	7.378293e-06	1.323314e-08	5.150741e+01	8.654786e+02
1.900000e-06	7.310744e-06	1.318012e-08	5.103586e+01	8.618744e+02
1.910000e-06	7.240364e-06	1.310594e-08	5.054454e+01	8.580103e+02
1.920000e-06	7.167099e-06	1.302973e-08	5.003308e+01	8.538804e+02
1.930000e-06	7.091045e-06	1.296438e-08	4.950216e+01	8.494886e+02
1.940000e-06	7.012236e-06	1.292125e-08	4.895199e+01	8.448490e+02
1.950000e-06	6.930775e-06	1.284005e-08	4.838332e+01	8.399830e+02
1.960000e-06	6.846830e-06	1.276428e-08	4.779730e+01	8.349168e+02
1.970000e-06	6.760280e-06	1.268334e-08	4.719311e+01	8.296777e+02
1.980000e-06	6.671165e-06	1.259573e-08	4.657100e+01	8.242899e+02
1.990000e-06	6.579737e-06	1.250320e-08	4.593274e+01	8.187707e+02
2.000000e-06	6.486041e-06	1.242673e-08	4.527866e+01	8.131285e+02
2.010000e-06	6.389975e-06	1.236323e-08	4.460803e+01	8.073610e+02
2.020000e-06	6.291632e-06	1.226228e-08	4.392150e+01	8.014557e+02
2.030000e-06	6.191020e-06	1.215671e-08	4.321913e+01	7.953921e+02
2.040000e-06	6.088131e-06	1.205660e-08	4.250087e+01	7.891441e+02
2.050000e-06	5.983111e-06	1.196172e-08	4.176773e+01	7.826845e+02
2.060000e-06	5.876069e-06	1.184721e-08	4.102048e+01	7.759890e+02
2.070000e-06	5.767015e-06	1.174158e-08	4.025918e+01	7.690393e+02
2.080000e-06	5.655851e-06	1.164743e-08	3.948315e+01	7.618259e+02
2.090000e-06	5.542581e-06	1.154107e-08	3.869242e+01	7.543493e+02
2.100000e-06	5.427178e-06	1.142541e-08	3.788680e+01	7.466186e+02
2.110000e-06	5.309666e-06	1.130318e-08	3.706645e+01	7.386502e+02
2.120000e-06	5.190189e-06	1.117458e-08	3.623239e+01	7.304632e+02
2.130000e-06	5.068849e-06	1.103413e-08	3.538533e+01	7.220763e+02
2.140000e-06	4.945733e-06	1.090378e-08	3.452586e+01	7.135030e+02
2.150000e-06	4.820793e-06	1.078277e-08	3.365366e+01	7.047483e+02
2.160000e-06	4.694057e-06	1.065902e-08	3.276892e+01	6.958068e+02
2.170000e-06	4.565612e-06	1.051820e-08	3.187226e+01	6.866620e+02
2.180000e-06	4.435543e-06	1.036661e-08	3.096426e+01	6.772880e+02
2.190000e-06	4.303909e-06	1.021028e-08	3.004533e+01	6.676523e+02
2.200000e-06	4.170659e-06	1.005663e-08	2.911512e+01	6.577199e+02
2.210000e-06	4.035858e-06	9.904703e-09	2.817408e+01	6.474583e+02
2.220000e-06	3.899536e-06	9.746650e-09	2.722242e+01	6.368419e+02
2.230000e-06	3.761609e-06	9.578425e-09	2.625956e+01	6.258550e+02
2.240000e-06	3.622186e-06	9.403765e-09	2.528626e+01	6.144942e+02
2.250000e-06	3.481381e-06	9.226526e-09	2.430331e+01	6.027674e+02
2.260000e-06	3.339212e-06	9.045970e-09	2.331083e+01	5.906921e+02
2.270000e-06	3.195818e-06	8.864781e-09	2.230981e+01	5.782912e+02
2.280000e-06	3.051195e-06	8.678075e-09	2.130021e+01	5.655876e+02
2.290000e-06	2.905446e-06	8.481765e-09	2.028274e+01	5.525990e+02
2.300000e-06	2.758747e-06	8.277605e-09	1.925864e+01	5.393325e+02
2.310000e-06	2.611053e-06	8.070945e-09	1.822760e+01	5.257817e+02
2.320000e-06	2.462449e-06	7.858256e-09	1.719021e+01	5.119245e+02
2.330000e-06	2.313005e-06	7.635550e-09	1.614694e+01	4.977244e+02
2.340000e-06	2.162710e-06	7.404655e-09	1.509774e+01	4.831339e+02
2.350000e-06	2.011668e-06	7.172306e-09	1.404333e+01	4.680992e+02
2.360000e-06	1.860011e-06	6.938174e-09	1.298462e+01	4.525669e+02
2.370000e-06	1.707820e-06	6.696915e-09	1.192219e+01	4.364898e+02
2.380000e-06	1.555086e-06	6.443842e-09	1.085596e+01	4.198324e+02
2.390000e-06	1.401782e-06	6.179528e-09	9.785753e+00	4.025742e+02
2.400000e-06	1.247957e-06	5.906559e-09	8.711912e+00	3.847094e+02
2.410000e-06	1.093701e-06	5.627141e-09	7.635059e+00	3.662448e+02
2.420000e-06	9.390864e-07	5.341830e-09	6.555705e+00	3.471937e+02
2.430000e-06	7.841704e-07	5.046396e-09	5.474246e+00	3.275675e+02
2.440000e-06	6.289603e-07	4.739301e-09	4.390733e+00	3.073673e+02
2.450000e-06	4.735051e-07	4.418716e-09	3.305510e+00	2.865740e+02
2.460000e-06	3.178442e-07	4.087195e-09	2.218851e+00	2.651419e+02
2.470000e-06	1.620220e-07	3.746576e-09	1.131065e+00	2.429945e+02
2.480000e-06	6.105673e-09	3.391516e-09	4.262333e-02	2.200249e+02
2.490000e-06	-1.498418e-07	3.019168e-09	-1.046037e+00	1.961015e+02
2.500000e-06	-3.057106e-07	2.630901e-09	-2.134147e+00	1.710781e+02
2.510000e-06	-4.614365e-07	2.227908e-09	-3.221260e+00	1.448090e+02
2.520000e-06	-6.170177e-07	1.808590e-09	-4.307363e+00	1.171658e+02
2.530000e-06	-7.723780e-07	1.368908e-09	-5.391924e+00	8.805613e+01
2.540000e-06	-9.274475e-07	9.081874e-10	-6.474455e+00	5.744124e+01
2.550000e-06	-1.082242e-06	4.276613e-10	-7.555066e+00	2.534981e+01
2.560000e-06	-1.236702e-06	-7.545996e-11	-8.633344e+00	-8.112897e+00
2.570000e-06	-1.390692e-06	-6.020352e-10	-9.708334e+00	-4.276251e+01
2.580000e-06	-1.544096e-06	-1.148114e-09	-1.077924e+01	-7.834015e+01
2.590000e-06	-1.696875e-06	-1.709080e-09	-1.184578e+01	-1.145241e+02
2.600000e-06	-1.849020e-06	-2.279768e-09	-1.290789e+01	-1.509474e+02
2.610000e-06	-2.000544e-06	-2.849805e-09	-1.396568e+01	-1.872203e+02
2.620000e-06	-2.151349e-06	-3.406304e-09	-1.501844e+01	-2.229546e+02
2.630000e-06	-2.301301e-06	-3.939447e-09	-1.606524e+01	-2.577878e+02
2.640000e-06	-2.450388e-06	-4.447232e-09	-1.710601e+01	-2.914054e+02
2.650000e-06	-2.598552e-06	-4.932576e-09	-1.814033e+01	-3.235576e+02
2.660000e-06	-2.745755e-06	-5.393468e-09	-1.916795e+01	-3.540710e+02
2.670000e-06	-2.891935e-06	-5.827426e-09	-2.018842e+01	-3.828516e+02
2.680000e-06	-3.036962e-06	-6.235590e-09	-2.120085e+01	-4.098828e+02
2.690000e-06	-3.180866e-06	-6.621736e-09	-2.220543e+01	-4.352155e+02
2.700000e-06	-3.323596e-06	-6.987136e-09	-2.320182e+01	-4.589540e+02
2.710000e-06	-3.465029e-06	-7.332980e-09	-2.418916e+01	-4.812388e+02
2.720000e-06	-3.605084e-06	-7.661701e-09	-2.516687e+01	-5.022287e+02
2.730000e-06	-3.743762e-06	-7.972981e-09	-2.613497e+01	-5.220834e+02
2.740000e-06	-3.881033e-06	-8.266881e-09	-2.709325e+01	-5.409493e+02
2.750000e-06	-4.016830e-06	-8.543494e-09	-2.804124e+01	-5.589499e+02
2.760000e-06	-4.151205e-06	-8.806114e-09	-2.897931e+01	-5.761796e+02
2.770000e-06	-4.284129e-06	-9.057534e-09	-2.990724e+01	-5.927034e+02
2.780000e-06	-4.415567e-06	-9.298747e-09	-3.082480e+01	-6.085600e+02
2.790000e-06	-4.545518e-06	-9.531285e-09	-3.173198e+01	-6.237684e+02
2.800000e-06	-4.673866e-06	-9.755755e-09	-3.262797e+01	-6.383352e+02
2.810000e-06	-4.800595e-06	-9.971778e-09	-3.351266e+01	-6.522635e+02
2.820000e-06	-4.925722e-06	-1.017670e-08	-3.438617e+01	-6.655594e+02
2.830000e-06	-5.049126e-06	-1.037074e-08	-3.524764e+01	-6.782373e+02
2.840000e-06	-5.170735e-06	-1.055425e-08	-3.609658e+01	-6.903223e+02
2.850000e-06	-5.290434e-06	-1.072685e-08	-3.693220e+01	-7.018500e+02
2.860000e-06	-5.408045e-06	-1.089314e-08	-3.775323e+01	-7.128636e+02
2.870000e-06	-5.523497e-06	-1.105633e-08	-3.855920e+01	-7.234102e+02
2.880000e-06	-5.636727e-06	-1.121461e-08	-3.934965e+01	-7.335350e+02
2.890000e-06	-5.747730e-06	-1.136573e-08	-4.012455e+01	-7.432772e+02
2.900000e-06	-5.856645e-06	-1.151082e-08	-4.088489e+01	-7.526659e+02
2.910000e-06	-5.963505e-06	-1.165223e-08	-4.163087e+01	-7.617182e+02
2.920000e-06	-6.068244e-06	-1.178644e-08	-4.236204e+01	-7.704388e+02
2.930000e-06	-6.170718e-06	-1.191269e-08	-4.307741e+01	-7.788228e+02
2.940000e-06	-6.270862e-06	-1.203349e-08	-4.377651e+01	-7.868583e+02
