# Temperatura_=_36.37
# Concentracion g/m^3_=_15000.0
# C_Vs_to_Am_M_A/Vsm_=_65563218390.804596
# pendiente_HvsI_1/m_=_3716.3
# ordenada_HvsI_A/m_=_1297.0
# frecuencia_Hz_=_302361.6417286087

Tiempo_(s)	Campo_(V.s)	Magnetizacion_(V.s)	Campo_(kA/m)	Magnetizacion_(A/m)
0.000000e+00	-8.131158e-06	-8.654159e-09	-5.689571e+01	-5.660915e+02
1.000000e-08	-8.126576e-06	-8.654186e-09	-5.686365e+01	-5.658174e+02
2.000000e-08	-8.119388e-06	-8.648490e-09	-5.681335e+01	-5.654630e+02
3.000000e-08	-8.109407e-06	-8.642195e-09	-5.674351e+01	-5.650407e+02
4.000000e-08	-8.096483e-06	-8.634962e-09	-5.665308e+01	-5.645625e+02
5.000000e-08	-8.080666e-06	-8.626738e-09	-5.654240e+01	-5.640386e+02
6.000000e-08	-8.062234e-06	-8.614472e-09	-5.641343e+01	-5.634759e+02
7.000000e-08	-8.041468e-06	-8.593972e-09	-5.626813e+01	-5.628779e+02
8.000000e-08	-8.018117e-06	-8.595642e-09	-5.610473e+01	-5.622438e+02
9.000000e-08	-7.991648e-06	-8.638062e-09	-5.591952e+01	-5.615695e+02
1.000000e-07	-7.961964e-06	-8.611671e-09	-5.571181e+01	-5.608477e+02
1.100000e-07	-7.929292e-06	-8.562784e-09	-5.548320e+01	-5.600699e+02
1.200000e-07	-7.893759e-06	-8.543202e-09	-5.523456e+01	-5.592269e+02
1.300000e-07	-7.855620e-06	-8.524469e-09	-5.496770e+01	-5.583100e+02
1.400000e-07	-7.815122e-06	-8.483670e-09	-5.468433e+01	-5.573123e+02
1.500000e-07	-7.772318e-06	-8.450971e-09	-5.438481e+01	-5.562283e+02
1.600000e-07	-7.726923e-06	-8.524429e-09	-5.406717e+01	-5.550550e+02
1.700000e-07	-7.678610e-06	-8.428895e-09	-5.372911e+01	-5.537907e+02
1.800000e-07	-7.627396e-06	-8.397744e-09	-5.337076e+01	-5.524347e+02
1.900000e-07	-7.573281e-06	-8.462307e-09	-5.299210e+01	-5.509866e+02
2.000000e-07	-7.516315e-06	-8.356889e-09	-5.259350e+01	-5.494458e+02
2.100000e-07	-7.456661e-06	-8.341604e-09	-5.217609e+01	-5.478102e+02
2.200000e-07	-7.394394e-06	-8.321636e-09	-5.174039e+01	-5.460770e+02
2.300000e-07	-7.329456e-06	-8.297529e-09	-5.128600e+01	-5.442419e+02
2.400000e-07	-7.261713e-06	-8.272469e-09	-5.081199e+01	-5.423002e+02
2.500000e-07	-7.191163e-06	-8.229008e-09	-5.031833e+01	-5.402469e+02
2.600000e-07	-7.117769e-06	-8.217992e-09	-4.980477e+01	-5.380780e+02
2.700000e-07	-7.041513e-06	-8.158984e-09	-4.927119e+01	-5.357908e+02
2.800000e-07	-6.962458e-06	-8.112083e-09	-4.871803e+01	-5.333847e+02
2.900000e-07	-6.880763e-06	-8.069284e-09	-4.814639e+01	-5.308611e+02
3.000000e-07	-6.796656e-06	-8.053161e-09	-4.755787e+01	-5.282237e+02
3.100000e-07	-6.710179e-06	-8.022629e-09	-4.695277e+01	-5.254771e+02
3.200000e-07	-6.621255e-06	-7.950744e-09	-4.633054e+01	-5.226270e+02
3.300000e-07	-6.529888e-06	-7.930876e-09	-4.569122e+01	-5.196782e+02
3.400000e-07	-6.436182e-06	-7.885741e-09	-4.503554e+01	-5.166344e+02
3.500000e-07	-6.340167e-06	-7.822453e-09	-4.436370e+01	-5.134966e+02
3.600000e-07	-6.241787e-06	-7.764945e-09	-4.367531e+01	-5.102633e+02
3.700000e-07	-6.141154e-06	-7.723795e-09	-4.297116e+01	-5.069301e+02
3.800000e-07	-6.038344e-06	-7.672458e-09	-4.225178e+01	-5.034900e+02
3.900000e-07	-5.933308e-06	-7.605395e-09	-4.151681e+01	-4.999345e+02
4.000000e-07	-5.826173e-06	-7.563621e-09	-4.076716e+01	-4.962544e+02
4.100000e-07	-5.717060e-06	-7.507181e-09	-4.000367e+01	-4.924410e+02
4.200000e-07	-5.605969e-06	-7.444065e-09	-3.922634e+01	-4.884869e+02
4.300000e-07	-5.492823e-06	-7.369771e-09	-3.843463e+01	-4.843871e+02
4.400000e-07	-5.377469e-06	-7.311190e-09	-3.762747e+01	-4.801391e+02
4.500000e-07	-5.259967e-06	-7.248550e-09	-3.680528e+01	-4.757425e+02
4.600000e-07	-5.140591e-06	-7.173736e-09	-3.596998e+01	-4.711985e+02
4.700000e-07	-5.019415e-06	-7.101439e-09	-3.512207e+01	-4.665088e+02
4.800000e-07	-4.896378e-06	-7.032158e-09	-3.426116e+01	-4.616744e+02
4.900000e-07	-4.771609e-06	-6.957563e-09	-3.338812e+01	-4.566942e+02
5.000000e-07	-4.645144e-06	-6.872478e-09	-3.250321e+01	-4.515645e+02
5.100000e-07	-4.516978e-06	-6.793654e-09	-3.160640e+01	-4.462782e+02
5.200000e-07	-4.387093e-06	-6.710443e-09	-3.069757e+01	-4.408251e+02
5.300000e-07	-4.255663e-06	-6.624406e-09	-2.977792e+01	-4.351924e+02
5.400000e-07	-4.122680e-06	-6.531971e-09	-2.884740e+01	-4.293661e+02
5.500000e-07	-3.988070e-06	-6.439615e-09	-2.790550e+01	-4.233325e+02
5.600000e-07	-3.851911e-06	-6.342827e-09	-2.695277e+01	-4.170798e+02
5.700000e-07	-3.714203e-06	-6.240169e-09	-2.598919e+01	-4.105993e+02
5.800000e-07	-3.575014e-06	-6.137297e-09	-2.501525e+01	-4.038862e+02
5.900000e-07	-3.434324e-06	-6.034010e-09	-2.403080e+01	-3.969401e+02
6.000000e-07	-3.292228e-06	-5.927606e-09	-2.303653e+01	-3.897640e+02
6.100000e-07	-3.148855e-06	-5.812329e-09	-2.203331e+01	-3.823631e+02
6.200000e-07	-3.004272e-06	-5.695584e-09	-2.102163e+01	-3.747428e+02
6.300000e-07	-2.858547e-06	-5.576394e-09	-2.000195e+01	-3.669067e+02
6.400000e-07	-2.711812e-06	-5.455383e-09	-1.897521e+01	-3.588539e+02
6.500000e-07	-2.564260e-06	-5.328017e-09	-1.794275e+01	-3.505779e+02
6.600000e-07	-2.415894e-06	-5.194261e-09	-1.690460e+01	-3.420650e+02
6.700000e-07	-2.266657e-06	-5.055672e-09	-1.586036e+01	-3.332947e+02
6.800000e-07	-2.116610e-06	-4.914269e-09	-1.481044e+01	-3.242409e+02
6.900000e-07	-1.965887e-06	-4.773467e-09	-1.375579e+01	-3.148734e+02
7.000000e-07	-1.814575e-06	-4.626920e-09	-1.269703e+01	-3.051610e+02
7.100000e-07	-1.662684e-06	-4.474000e-09	-1.163420e+01	-2.950749e+02
7.200000e-07	-1.510230e-06	-4.312098e-09	-1.056745e+01	-2.845907e+02
7.300000e-07	-1.357263e-06	-4.145594e-09	-9.497104e+00	-2.736914e+02
7.400000e-07	-1.203747e-06	-3.973168e-09	-8.422910e+00	-2.623680e+02
7.500000e-07	-1.049687e-06	-3.793818e-09	-7.344918e+00	-2.506191e+02
7.600000e-07	-8.951827e-07	-3.608838e-09	-6.263813e+00	-2.384492e+02
7.700000e-07	-7.403769e-07	-3.416842e-09	-5.180598e+00	-2.258653e+02
7.800000e-07	-5.854102e-07	-3.219064e-09	-4.096258e+00	-2.128725e+02
7.900000e-07	-4.302477e-07	-3.016953e-09	-3.010548e+00	-1.994697e+02
8.000000e-07	-2.749100e-07	-2.810009e-09	-1.923613e+00	-1.856450e+02
8.100000e-07	-1.195187e-07	-2.590770e-09	-8.363015e-01	-1.713726e+02
8.200000e-07	3.594003e-08	-2.359220e-09	2.514812e-01	-1.566115e+02
8.300000e-07	1.914530e-07	-2.120936e-09	1.339644e+00	-1.413059e+02
8.400000e-07	3.469066e-07	-1.877220e-09	2.427390e+00	-1.253890e+02
8.500000e-07	5.022735e-07	-1.625057e-09	3.514531e+00	-1.087887e+02
8.600000e-07	6.575380e-07	-1.361464e-09	4.600955e+00	-9.143519e+01
8.700000e-07	8.126647e-07	-1.088111e-09	5.686414e+00	-7.327052e+01
8.800000e-07	9.675569e-07	-8.017780e-10	6.770233e+00	-5.425777e+01
8.900000e-07	1.122136e-06	-5.010007e-10	7.851863e+00	-3.439002e+01
9.000000e-07	1.276331e-06	-1.883569e-10	8.930797e+00	-1.369732e+01
9.100000e-07	1.429988e-06	1.365831e-10	1.000598e+01	7.748962e+00
9.200000e-07	1.583014e-06	4.734163e-10	1.107674e+01	2.983535e+01
9.300000e-07	1.735447e-06	8.200527e-10	1.214335e+01	5.240905e+01
9.400000e-07	1.887250e-06	1.171754e-09	1.320555e+01	7.528450e+01
9.500000e-07	2.038331e-06	1.523801e-09	1.426270e+01	9.825297e+01
9.600000e-07	2.188674e-06	1.874617e-09	1.531469e+01	1.210945e+02
9.700000e-07	2.338235e-06	2.219607e-09	1.636120e+01	1.435912e+02
9.800000e-07	2.486941e-06	2.553403e-09	1.740173e+01	1.655399e+02
9.900000e-07	2.634707e-06	2.874688e-09	1.843569e+01	1.867639e+02
1.000000e-06	2.781483e-06	3.181700e-09	1.946272e+01	2.071226e+02
1.010000e-06	2.927185e-06	3.473195e-09	2.048223e+01	2.265165e+02
1.020000e-06	3.071777e-06	3.747385e-09	2.149398e+01	2.448905e+02
1.030000e-06	3.215182e-06	4.005522e-09	2.249742e+01	2.622311e+02
1.040000e-06	3.357389e-06	4.251303e-09	2.349247e+01	2.785624e+02
1.050000e-06	3.498409e-06	4.486698e-09	2.447923e+01	2.939378e+02
1.060000e-06	3.638059e-06	4.710214e-09	2.545639e+01	3.084310e+02
1.070000e-06	3.776270e-06	4.919645e-09	2.642349e+01	3.221259e+02
1.080000e-06	3.913007e-06	5.119571e-09	2.738027e+01	3.351073e+02
1.090000e-06	4.048259e-06	5.309165e-09	2.832666e+01	3.474527e+02
1.100000e-06	4.182041e-06	5.487579e-09	2.926277e+01	3.592271e+02
1.110000e-06	4.314375e-06	5.657168e-09	3.018874e+01	3.704791e+02
1.120000e-06	4.445205e-06	5.819338e-09	3.110419e+01	3.812410e+02
1.130000e-06	4.574393e-06	5.976357e-09	3.200815e+01	3.915301e+02
1.140000e-06	4.701962e-06	6.124558e-09	3.290078e+01	4.013525e+02
1.150000e-06	4.827914e-06	6.264736e-09	3.378209e+01	4.107077e+02
1.160000e-06	4.952279e-06	6.399842e-09	3.465231e+01	4.195935e+02
1.170000e-06	5.074959e-06	6.527831e-09	3.551073e+01	4.280103e+02
1.180000e-06	5.195730e-06	6.648857e-09	3.635580e+01	4.359650e+02
1.190000e-06	5.314609e-06	6.763511e-09	3.718762e+01	4.434725e+02
1.200000e-06	5.431597e-06	6.871775e-09	3.800621e+01	4.505561e+02
1.210000e-06	5.546487e-06	6.973306e-09	3.881013e+01	4.572470e+02
1.220000e-06	5.659147e-06	7.068846e-09	3.959844e+01	4.635813e+02
1.230000e-06	5.769688e-06	7.160720e-09	4.037192e+01	4.695973e+02
1.240000e-06	5.878277e-06	7.248215e-09	4.113175e+01	4.753324e+02
1.250000e-06	5.984798e-06	7.331795e-09	4.187710e+01	4.808199e+02
1.260000e-06	6.089032e-06	7.412107e-09	4.260645e+01	4.860873e+02
1.270000e-06	6.191019e-06	7.487586e-09	4.332008e+01	4.911545e+02
1.280000e-06	6.290766e-06	7.559640e-09	4.401803e+01	4.960340e+02
1.290000e-06	6.388044e-06	7.630583e-09	4.469871e+01	5.007314e+02
1.300000e-06	6.482937e-06	7.700225e-09	4.536270e+01	5.052478e+02
1.310000e-06	6.575654e-06	7.766910e-09	4.601146e+01	5.095807e+02
1.320000e-06	6.665976e-06	7.829136e-09	4.664347e+01	5.137272e+02
1.330000e-06	6.753860e-06	7.887270e-09	4.725841e+01	5.176850e+02
1.340000e-06	6.839393e-06	7.943125e-09	4.785691e+01	5.214543e+02
1.350000e-06	6.922559e-06	7.997436e-09	4.843884e+01	5.250380e+02
1.360000e-06	7.003218e-06	8.047950e-09	4.900324e+01	5.284416e+02
1.370000e-06	7.081353e-06	8.095264e-09	4.954996e+01	5.316726e+02
1.380000e-06	7.156917e-06	8.141207e-09	5.007870e+01	5.347392e+02
1.390000e-06	7.229747e-06	8.186790e-09	5.058831e+01	5.376491e+02
1.400000e-06	7.299931e-06	8.230465e-09	5.107941e+01	5.404082e+02
1.410000e-06	7.367615e-06	8.269141e-09	5.155301e+01	5.430198e+02
1.420000e-06	7.432686e-06	8.303334e-09	5.200833e+01	5.454844e+02
1.430000e-06	7.495068e-06	8.336088e-09	5.244482e+01	5.478002e+02
1.440000e-06	7.554955e-06	8.367539e-09	5.286387e+01	5.499636e+02
1.450000e-06	7.612213e-06	8.395941e-09	5.326452e+01	5.519708e+02
1.460000e-06	7.666732e-06	8.422375e-09	5.364600e+01	5.538190e+02
1.470000e-06	7.718260e-06	8.447308e-09	5.400656e+01	5.555077e+02
1.480000e-06	7.766562e-06	8.469945e-09	5.434454e+01	5.570398e+02
1.490000e-06	7.812023e-06	8.490066e-09	5.466264e+01	5.584219e+02
1.500000e-06	7.854835e-06	8.508602e-09	5.496220e+01	5.596641e+02
1.510000e-06	7.894787e-06	8.525232e-09	5.524176e+01	5.607793e+02
1.520000e-06	7.931918e-06	8.538706e-09	5.550157e+01	5.617819e+02
1.530000e-06	7.966302e-06	8.551964e-09	5.574217e+01	5.626863e+02
1.540000e-06	7.997813e-06	8.565859e-09	5.596266e+01	5.635050e+02
1.550000e-06	8.026516e-06	8.578602e-09	5.616350e+01	5.642476e+02
1.560000e-06	8.052326e-06	8.589238e-09	5.634410e+01	5.649197e+02
1.570000e-06	8.075110e-06	8.598361e-09	5.650352e+01	5.655223e+02
1.580000e-06	8.095106e-06	8.606846e-09	5.664344e+01	5.660525e+02
1.590000e-06	8.112232e-06	8.613042e-09	5.676327e+01	5.665040e+02
1.600000e-06	8.126313e-06	8.617515e-09	5.686181e+01	5.668687e+02
1.610000e-06	8.137253e-06	8.622224e-09	5.693835e+01	5.671382e+02
1.620000e-06	8.145039e-06	8.625815e-09	5.699283e+01	5.673057e+02
1.630000e-06	8.149951e-06	8.628232e-09	5.702721e+01	5.673671e+02
1.640000e-06	8.151994e-06	8.629660e-09	5.704150e+01	5.673221e+02
1.650000e-06	8.151139e-06	8.630565e-09	5.703552e+01	5.671743e+02
1.660000e-06	8.147568e-06	8.623203e-09	5.701053e+01	5.669314e+02
1.670000e-06	8.141248e-06	8.619672e-09	5.696631e+01	5.666039e+02
1.680000e-06	8.132171e-06	8.616175e-09	5.690279e+01	5.662041e+02
1.690000e-06	8.120386e-06	8.609741e-09	5.682033e+01	5.657442e+02
1.700000e-06	8.105707e-06	8.603680e-09	5.671762e+01	5.652353e+02
1.710000e-06	8.088363e-06	8.601507e-09	5.659626e+01	5.646855e+02
1.720000e-06	8.068734e-06	8.602826e-09	5.645891e+01	5.640997e+02
1.730000e-06	8.046592e-06	8.556748e-09	5.630397e+01	5.634785e+02
1.740000e-06	8.021181e-06	8.498727e-09	5.612617e+01	5.628188e+02
1.750000e-06	7.991965e-06	8.527963e-09	5.592174e+01	5.621146e+02
1.760000e-06	7.959292e-06	8.534934e-09	5.569312e+01	5.613575e+02
1.770000e-06	7.924025e-06	8.513442e-09	5.544635e+01	5.605385e+02
1.780000e-06	7.886443e-06	8.533316e-09	5.518338e+01	5.596486e+02
1.790000e-06	7.846613e-06	8.572418e-09	5.490467e+01	5.586801e+02
1.800000e-06	7.804809e-06	8.449479e-09	5.461216e+01	5.576270e+02
1.810000e-06	7.760535e-06	8.464004e-09	5.430236e+01	5.564855e+02
1.820000e-06	7.713415e-06	8.511672e-09	5.397265e+01	5.552535e+02
1.830000e-06	7.663594e-06	8.388840e-09	5.362404e+01	5.539299e+02
1.840000e-06	7.610657e-06	8.462738e-09	5.325363e+01	5.525145e+02
1.850000e-06	7.554753e-06	8.380479e-09	5.286246e+01	5.510065e+02
1.860000e-06	7.496157e-06	8.362924e-09	5.245245e+01	5.494048e+02
1.870000e-06	7.434740e-06	8.367806e-09	5.202270e+01	5.477065e+02
1.880000e-06	7.370638e-06	8.282472e-09	5.157416e+01	5.459080e+02
1.890000e-06	7.303692e-06	8.339393e-09	5.110572e+01	5.440046e+02
1.900000e-06	7.233914e-06	8.234907e-09	5.061747e+01	5.419913e+02
1.910000e-06	7.161278e-06	8.214334e-09	5.010922e+01	5.398638e+02
1.920000e-06	7.085861e-06	8.202959e-09	4.958151e+01	5.376187e+02
1.930000e-06	7.007776e-06	8.167618e-09	4.903512e+01	5.352546e+02
1.940000e-06	6.926936e-06	8.156135e-09	4.846947e+01	5.327724e+02
1.950000e-06	6.843560e-06	8.058159e-09	4.788606e+01	5.301747e+02
1.960000e-06	6.757612e-06	8.066677e-09	4.728467e+01	5.274662e+02
1.970000e-06	6.669072e-06	7.986439e-09	4.666513e+01	5.246521e+02
1.980000e-06	6.578134e-06	7.938151e-09	4.602882e+01	5.217377e+02
1.990000e-06	6.484997e-06	7.921842e-09	4.537712e+01	5.187272e+02
2.000000e-06	6.389598e-06	7.874088e-09	4.470958e+01	5.156226e+02
2.010000e-06	6.291831e-06	7.822314e-09	4.402548e+01	5.124235e+02
2.020000e-06	6.191849e-06	7.747762e-09	4.332588e+01	5.091263e+02
2.030000e-06	6.089673e-06	7.723129e-09	4.261094e+01	5.057249e+02
2.040000e-06	5.985278e-06	7.658865e-09	4.188046e+01	5.022114e+02
2.050000e-06	5.878743e-06	7.605221e-09	4.113500e+01	4.985765e+02
2.060000e-06	5.770271e-06	7.540004e-09	4.037600e+01	4.948113e+02
2.070000e-06	5.659878e-06	7.488403e-09	3.960356e+01	4.909078e+02
2.080000e-06	5.547321e-06	7.423430e-09	3.881596e+01	4.868601e+02
2.090000e-06	5.432548e-06	7.358758e-09	3.801287e+01	4.826649e+02
2.100000e-06	5.315768e-06	7.306693e-09	3.719573e+01	4.783209e+02
2.110000e-06	5.196992e-06	7.237370e-09	3.636463e+01	4.738290e+02
2.120000e-06	5.076237e-06	7.159154e-09	3.551967e+01	4.691909e+02
2.130000e-06	4.953614e-06	7.077372e-09	3.466165e+01	4.644078e+02
2.140000e-06	4.829170e-06	7.015748e-09	3.379088e+01	4.594796e+02
2.150000e-06	4.702990e-06	6.940003e-09	3.290797e+01	4.544036e+02
2.160000e-06	4.575089e-06	6.862749e-09	3.201302e+01	4.491739e+02
2.170000e-06	4.445520e-06	6.775113e-09	3.110639e+01	4.437813e+02
2.180000e-06	4.314314e-06	6.692724e-09	3.018831e+01	4.382140e+02
2.190000e-06	4.181583e-06	6.602522e-09	2.925956e+01	4.324581e+02
2.200000e-06	4.047340e-06	6.512403e-09	2.832023e+01	4.264997e+02
2.210000e-06	3.911541e-06	6.420529e-09	2.737001e+01	4.203262e+02
2.220000e-06	3.774135e-06	6.321212e-09	2.640855e+01	4.139274e+02
2.230000e-06	3.635258e-06	6.217129e-09	2.543679e+01	4.072973e+02
2.240000e-06	3.495124e-06	6.112234e-09	2.445624e+01	4.004339e+02
2.250000e-06	3.353642e-06	6.012758e-09	2.346626e+01	3.933391e+02
2.260000e-06	3.210806e-06	5.906491e-09	2.246680e+01	3.860174e+02
2.270000e-06	3.066714e-06	5.792204e-09	2.145855e+01	3.784746e+02
2.280000e-06	2.921445e-06	5.669499e-09	2.044207e+01	3.707150e+02
2.290000e-06	2.775055e-06	5.549521e-09	1.941774e+01	3.627397e+02
2.300000e-06	2.627716e-06	5.427475e-09	1.838677e+01	3.545443e+02
2.310000e-06	2.479572e-06	5.303738e-09	1.735018e+01	3.461176e+02
2.320000e-06	2.330655e-06	5.170945e-09	1.630817e+01	3.374417e+02
2.330000e-06	2.180940e-06	5.028661e-09	1.526057e+01	3.284921e+02
2.340000e-06	2.030403e-06	4.884227e-09	1.420723e+01	3.192399e+02
2.350000e-06	1.879190e-06	4.739720e-09	1.314916e+01	3.096539e+02
2.360000e-06	1.727407e-06	4.591103e-09	1.208709e+01	2.997039e+02
2.370000e-06	1.575095e-06	4.433390e-09	1.102133e+01	2.893639e+02
2.380000e-06	1.422283e-06	4.269603e-09	9.952062e+00	2.786140e+02
2.390000e-06	1.268924e-06	4.102114e-09	8.878969e+00	2.674423e+02
2.400000e-06	1.115071e-06	3.928617e-09	7.802428e+00	2.558447e+02
2.410000e-06	9.607691e-07	3.747574e-09	6.722737e+00	2.438241e+02
2.420000e-06	8.061027e-07	3.559519e-09	5.640498e+00	2.313869e+02
2.430000e-06	6.512114e-07	3.364070e-09	4.556685e+00	2.185395e+02
2.440000e-06	4.961240e-07	3.160438e-09	3.471501e+00	2.052835e+02
2.450000e-06	3.408674e-07	2.952077e-09	2.385133e+00	1.916114e+02
2.460000e-06	1.854572e-07	2.739532e-09	1.297689e+00	1.775025e+02
2.470000e-06	2.997420e-08	2.515128e-09	2.097368e-01	1.629212e+02
2.480000e-06	-1.254961e-07	2.278457e-09	-8.781269e-01	1.478169e+02
2.490000e-06	-2.809605e-07	2.034260e-09	-1.965950e+00	1.321261e+02
2.500000e-06	-4.364211e-07	1.783495e-09	-3.053746e+00	1.157779e+02
2.510000e-06	-5.917888e-07	1.523762e-09	-4.140892e+00	9.870050e+01
2.520000e-06	-7.469347e-07	1.251889e-09	-5.226485e+00	8.083074e+01
2.530000e-06	-9.018374e-07	9.688365e-10	-6.310378e+00	6.212306e+01
2.540000e-06	-1.056440e-06	6.744218e-10	-7.392169e+00	4.255891e+01
2.550000e-06	-1.210604e-06	3.672058e-10	-8.470891e+00	2.215451e+01
2.560000e-06	-1.364284e-06	4.791204e-11	-9.546231e+00	9.661567e-01
2.570000e-06	-1.517426e-06	-2.827816e-10	-1.061780e+01	-2.090757e+01
2.580000e-06	-1.670018e-06	-6.261025e-10	-1.168552e+01	-4.332735e+01
2.590000e-06	-1.822079e-06	-9.792368e-10	-1.274954e+01	-6.611836e+01
2.600000e-06	-1.973520e-06	-1.336221e-09	-1.380920e+01	-8.907889e+01
2.610000e-06	-2.124172e-06	-1.692645e-09	-1.486335e+01	-1.119915e+02
2.620000e-06	-2.273908e-06	-2.042768e-09	-1.591109e+01	-1.346361e+02
2.630000e-06	-2.422723e-06	-2.383550e-09	-1.695239e+01	-1.568027e+02
2.640000e-06	-2.570656e-06	-2.712145e-09	-1.798751e+01	-1.783040e+02
2.650000e-06	-2.717684e-06	-3.025419e-09	-1.901630e+01	-1.989857e+02
2.660000e-06	-2.863715e-06	-3.322156e-09	-2.003812e+01	-2.187332e+02
2.670000e-06	-3.008754e-06	-3.603630e-09	-2.105299e+01	-2.374754e+02
2.680000e-06	-3.152634e-06	-3.872024e-09	-2.205975e+01	-2.551845e+02
2.690000e-06	-3.295136e-06	-4.127300e-09	-2.305687e+01	-2.718718e+02
2.700000e-06	-3.436278e-06	-4.369650e-09	-2.404448e+01	-2.875813e+02
2.710000e-06	-3.576115e-06	-4.600788e-09	-2.502295e+01	-3.023806e+02
2.720000e-06	-3.714640e-06	-4.821681e-09	-2.599224e+01	-3.163511e+02
2.730000e-06	-3.851835e-06	-5.030762e-09	-2.695224e+01	-3.295782e+02
2.740000e-06	-3.987639e-06	-5.226791e-09	-2.790249e+01	-3.421429e+02
2.750000e-06	-4.121864e-06	-5.410505e-09	-2.884169e+01	-3.541151e+02
2.760000e-06	-4.254623e-06	-5.583430e-09	-2.977064e+01	-3.655495e+02
2.770000e-06	-4.386032e-06	-5.747648e-09	-3.069014e+01	-3.764841e+02
2.780000e-06	-4.515948e-06	-5.904187e-09	-3.159919e+01	-3.869412e+02
2.790000e-06	-4.644345e-06	-6.054365e-09	-3.249762e+01	-3.969304e+02
2.800000e-06	-4.771084e-06	-6.198735e-09	-3.338444e+01	-4.064531e+02
2.810000e-06	-4.896129e-06	-6.336076e-09	-3.425941e+01	-4.155070e+02
2.820000e-06	-5.019461e-06	-6.467188e-09	-3.512240e+01	-4.240913e+02
2.830000e-06	-5.141013e-06	-6.591533e-09	-3.597293e+01	-4.322101e+02
2.840000e-06	-5.260654e-06	-6.709385e-09	-3.681008e+01	-4.398754e+02
2.850000e-06	-5.378149e-06	-6.822617e-09	-3.763223e+01	-4.471075e+02
2.860000e-06	-5.493533e-06	-6.931075e-09	-3.843960e+01	-4.539351e+02
2.870000e-06	-5.606721e-06	-7.032433e-09	-3.923160e+01	-4.603927e+02
2.880000e-06	-5.717671e-06	-7.127493e-09	-4.000794e+01	-4.665183e+02
2.890000e-06	-5.826607e-06	-7.218557e-09	-4.077019e+01	-4.723499e+02
2.900000e-06	-5.933594e-06	-7.304783e-09	-4.151881e+01	-4.779228e+02
2.910000e-06	-6.038543e-06	-7.386649e-09	-4.225316e+01	-4.832665e+02
2.920000e-06	-6.141198e-06	-7.462822e-09	-4.297147e+01	-4.884037e+02
2.930000e-06	-6.241444e-06	-7.536498e-09	-4.367291e+01	-4.933495e+02
2.940000e-06	-6.339497e-06	-7.609762e-09	-4.435902e+01	-4.981120e+02
