# Temperatura_=_75.87
# Concentracion g/m^3_=_15000.0
# C_Vs_to_Am_M_A/Vsm_=_65563218390.804596
# pendiente_HvsI_1/m_=_3716.3
# ordenada_HvsI_A/m_=_1297.0
# frecuencia_Hz_=_302362.70089097216

Tiempo_(s)	Campo_(V.s)	Magnetizacion_(V.s)	Campo_(kA/m)	Magnetizacion_(A/m)
0.000000e+00	-8.139291e-06	-1.263954e-08	-5.689669e+01	-8.268858e+02
1.000000e-08	-8.134736e-06	-1.263392e-08	-5.686485e+01	-8.264259e+02
2.000000e-08	-8.127567e-06	-1.262381e-08	-5.681473e+01	-8.258329e+02
3.000000e-08	-8.117637e-06	-1.261242e-08	-5.674533e+01	-8.251196e+02
4.000000e-08	-8.104762e-06	-1.260092e-08	-5.665532e+01	-8.242969e+02
5.000000e-08	-8.088967e-06	-1.258736e-08	-5.654491e+01	-8.233725e+02
6.000000e-08	-8.070578e-06	-1.256870e-08	-5.641636e+01	-8.223508e+02
7.000000e-08	-8.049866e-06	-1.254741e-08	-5.627158e+01	-8.212324e+02
8.000000e-08	-8.026530e-06	-1.253153e-08	-5.610845e+01	-8.200149e+02
9.000000e-08	-8.000047e-06	-1.255704e-08	-5.592332e+01	-8.186941e+02
1.000000e-07	-7.970334e-06	-1.253506e-08	-5.571562e+01	-8.172652e+02
1.100000e-07	-7.937559e-06	-1.247320e-08	-5.548651e+01	-8.157236e+02
1.200000e-07	-7.901918e-06	-1.243715e-08	-5.523737e+01	-8.140664e+02
1.300000e-07	-7.863782e-06	-1.240650e-08	-5.497078e+01	-8.122920e+02
1.400000e-07	-7.823305e-06	-1.236370e-08	-5.468783e+01	-8.104003e+02
1.500000e-07	-7.780481e-06	-1.230530e-08	-5.438847e+01	-8.083917e+02
1.600000e-07	-7.735099e-06	-1.231808e-08	-5.407124e+01	-8.062661e+02
1.700000e-07	-7.686782e-06	-1.225423e-08	-5.373348e+01	-8.040216e+02
1.800000e-07	-7.635478e-06	-1.216660e-08	-5.337485e+01	-8.016535e+02
1.900000e-07	-7.581422e-06	-1.220903e-08	-5.299698e+01	-7.991535e+02
2.000000e-07	-7.524611e-06	-1.215326e-08	-5.259985e+01	-7.965102e+02
2.100000e-07	-7.465021e-06	-1.210629e-08	-5.218329e+01	-7.937090e+02
2.200000e-07	-7.402752e-06	-1.208349e-08	-5.174801e+01	-7.907343e+02
2.300000e-07	-7.337771e-06	-1.200085e-08	-5.129376e+01	-7.875706e+02
2.400000e-07	-7.269995e-06	-1.194302e-08	-5.081998e+01	-7.842049e+02
2.500000e-07	-7.199449e-06	-1.187556e-08	-5.032685e+01	-7.806287e+02
2.600000e-07	-7.126062e-06	-1.184195e-08	-4.981384e+01	-7.768390e+02
2.700000e-07	-7.049788e-06	-1.176218e-08	-4.928066e+01	-7.728393e+02
2.800000e-07	-6.970696e-06	-1.168552e-08	-4.872778e+01	-7.686390e+02
2.900000e-07	-6.888917e-06	-1.161438e-08	-4.815611e+01	-7.642527e+02
3.000000e-07	-6.804705e-06	-1.154548e-08	-4.756744e+01	-7.596978e+02
3.100000e-07	-6.718158e-06	-1.150619e-08	-4.696244e+01	-7.549919e+02
3.200000e-07	-6.629154e-06	-1.142536e-08	-4.634027e+01	-7.501503e+02
3.300000e-07	-6.537693e-06	-1.135779e-08	-4.570092e+01	-7.451837e+02
3.400000e-07	-6.443911e-06	-1.128408e-08	-4.504535e+01	-7.400958e+02
3.500000e-07	-6.347837e-06	-1.120600e-08	-4.437376e+01	-7.348831e+02
3.600000e-07	-6.249449e-06	-1.111469e-08	-4.368599e+01	-7.295348e+02
3.700000e-07	-6.148766e-06	-1.102155e-08	-4.298218e+01	-7.240341e+02
3.800000e-07	-6.045850e-06	-1.093856e-08	-4.226276e+01	-7.183607e+02
3.900000e-07	-5.940766e-06	-1.084416e-08	-4.152818e+01	-7.124934e+02
4.000000e-07	-5.833615e-06	-1.075452e-08	-4.077915e+01	-7.064131e+02
4.100000e-07	-5.724451e-06	-1.065747e-08	-4.001605e+01	-7.001053e+02
4.200000e-07	-5.613235e-06	-1.056556e-08	-3.923861e+01	-6.935619e+02
4.300000e-07	-5.499883e-06	-1.045173e-08	-3.844624e+01	-6.867821e+02
4.400000e-07	-5.384360e-06	-1.033148e-08	-3.763870e+01	-6.797717e+02
4.500000e-07	-5.266794e-06	-1.022502e-08	-3.681686e+01	-6.725413e+02
4.600000e-07	-5.147352e-06	-1.012760e-08	-3.598192e+01	-6.651041e+02
4.700000e-07	-5.026074e-06	-1.001801e-08	-3.513414e+01	-6.574726e+02
4.800000e-07	-4.902947e-06	-9.898977e-09	-3.427343e+01	-6.496556e+02
4.900000e-07	-4.778074e-06	-9.779143e-09	-3.340052e+01	-6.416558e+02
5.000000e-07	-4.651550e-06	-9.645240e-09	-3.251607e+01	-6.334681e+02
5.100000e-07	-4.523328e-06	-9.508901e-09	-3.161975e+01	-6.250796e+02
5.200000e-07	-4.393355e-06	-9.377965e-09	-3.071120e+01	-6.164704e+02
5.300000e-07	-4.261716e-06	-9.247619e-09	-2.979099e+01	-6.076160e+02
5.400000e-07	-4.128528e-06	-9.100478e-09	-2.885996e+01	-5.984905e+02
5.500000e-07	-3.993842e-06	-8.950600e-09	-2.791845e+01	-5.890697e+02
5.600000e-07	-3.857602e-06	-8.802579e-09	-2.696608e+01	-5.793345e+02
5.700000e-07	-3.719833e-06	-8.651319e-09	-2.600303e+01	-5.692736e+02
5.800000e-07	-3.580535e-06	-8.492900e-09	-2.502928e+01	-5.588842e+02
5.900000e-07	-3.439727e-06	-8.333709e-09	-2.404498e+01	-5.481717e+02
6.000000e-07	-3.297550e-06	-8.171310e-09	-2.305111e+01	-5.371480e+02
6.100000e-07	-3.154071e-06	-7.997451e-09	-2.204813e+01	-5.258284e+02
6.200000e-07	-3.009387e-06	-7.819640e-09	-2.103675e+01	-5.142272e+02
6.300000e-07	-2.863613e-06	-7.637640e-09	-2.001773e+01	-5.023541e+02
6.400000e-07	-2.716818e-06	-7.448297e-09	-1.899157e+01	-4.902104e+02
6.500000e-07	-2.569132e-06	-7.250408e-09	-1.795920e+01	-4.777862e+02
6.600000e-07	-2.420654e-06	-7.054259e-09	-1.692128e+01	-4.650600e+02
6.700000e-07	-2.271384e-06	-6.856416e-09	-1.587783e+01	-4.519998e+02
6.800000e-07	-2.121371e-06	-6.651280e-09	-1.482918e+01	-4.385654e+02
6.900000e-07	-1.970633e-06	-6.440001e-09	-1.377547e+01	-4.247130e+02
7.000000e-07	-1.819171e-06	-6.220220e-09	-1.271668e+01	-4.103999e+02
7.100000e-07	-1.667006e-06	-5.991375e-09	-1.165299e+01	-3.955894e+02
7.200000e-07	-1.514221e-06	-5.755501e-09	-1.058497e+01	-3.802543e+02
7.300000e-07	-1.360963e-06	-5.517846e-09	-9.513640e+00	-3.643795e+02
7.400000e-07	-1.207248e-06	-5.271509e-09	-8.439115e+00	-3.479614e+02
7.500000e-07	-1.053076e-06	-5.012817e-09	-7.361394e+00	-3.310049e+02
7.600000e-07	-8.984840e-07	-4.746249e-09	-6.280740e+00	-3.135190e+02
7.700000e-07	-7.435199e-07	-4.473801e-09	-5.197483e+00	-2.955095e+02
7.800000e-07	-5.882997e-07	-4.192059e-09	-4.112435e+00	-2.769716e+02
7.900000e-07	-4.328791e-07	-3.901978e-09	-3.025987e+00	-2.578830e+02
8.000000e-07	-2.772993e-07	-3.603392e-09	-1.938426e+00	-2.381983e+02
8.100000e-07	-1.216640e-07	-3.290144e-09	-8.504773e-01	-2.178463e+02
8.200000e-07	3.405041e-08	-2.961629e-09	2.380251e-01	-1.967315e+02
8.300000e-07	1.898211e-07	-2.621665e-09	1.326921e+00	-1.747391e+02
8.400000e-07	3.455600e-07	-2.270619e-09	2.415594e+00	-1.517443e+02
8.500000e-07	5.012336e-07	-1.901577e-09	3.503811e+00	-1.276248e+02
8.600000e-07	6.567368e-07	-1.512948e-09	4.590837e+00	-1.022762e+02
8.700000e-07	8.120594e-07	-1.110277e-09	5.676599e+00	-7.562691e+01
8.800000e-07	9.671837e-07	-6.930132e-10	6.760976e+00	-4.765305e+01
8.900000e-07	1.121971e-06	-2.573570e-10	7.843000e+00	-1.838963e+01
9.000000e-07	1.276285e-06	1.992812e-10	8.921713e+00	1.206216e+01
9.100000e-07	1.430094e-06	6.751898e-10	9.996895e+00	4.353347e+01
9.200000e-07	1.583385e-06	1.168816e-09	1.106846e+01	7.579224e+01
9.300000e-07	1.736042e-06	1.675575e-09	1.213558e+01	1.085536e+02
9.400000e-07	1.887963e-06	2.184524e-09	1.319757e+01	1.414952e+02
9.500000e-07	2.039181e-06	2.688593e-09	1.425464e+01	1.742767e+02
9.600000e-07	2.189674e-06	3.184053e-09	1.530664e+01	2.065602e+02
9.700000e-07	2.339357e-06	3.665071e-09	1.635298e+01	2.380315e+02
9.800000e-07	2.488151e-06	4.123860e-09	1.739311e+01	2.684181e+02
9.900000e-07	2.635979e-06	4.555863e-09	1.842648e+01	2.975043e+02
1.000000e-06	2.782811e-06	4.965335e-09	1.945289e+01	3.251398e+02
1.010000e-06	2.928614e-06	5.356899e-09	2.047211e+01	3.512435e+02
1.020000e-06	3.073344e-06	5.728007e-09	2.148383e+01	3.758006e+02
1.030000e-06	3.216914e-06	6.076433e-09	2.248744e+01	3.988545e+02
1.040000e-06	3.359239e-06	6.406541e-09	2.348234e+01	4.204945e+02
1.050000e-06	3.500266e-06	6.720897e-09	2.446817e+01	4.408415e+02
1.060000e-06	3.639942e-06	7.016527e-09	2.544456e+01	4.600322e+02
1.070000e-06	3.778263e-06	7.294057e-09	2.641147e+01	4.782045e+02
1.080000e-06	3.915153e-06	7.557273e-09	2.736839e+01	4.954855e+02
1.090000e-06	4.050534e-06	7.808906e-09	2.831475e+01	5.119825e+02
1.100000e-06	4.184459e-06	8.049193e-09	2.925094e+01	5.277785e+02
1.110000e-06	4.316955e-06	8.278524e-09	3.017713e+01	5.429309e+02
1.120000e-06	4.447961e-06	8.498805e-09	3.109292e+01	5.574748e+02
1.130000e-06	4.577394e-06	8.710493e-09	3.199770e+01	5.714277e+02
1.140000e-06	4.705177e-06	8.910442e-09	3.289095e+01	5.847963e+02
1.150000e-06	4.831329e-06	9.098703e-09	3.377280e+01	5.975835e+02
1.160000e-06	4.955902e-06	9.280760e-09	3.464361e+01	6.097942e+02
1.170000e-06	5.078790e-06	9.456138e-09	3.550265e+01	6.214399e+02
1.180000e-06	5.199836e-06	9.623131e-09	3.634880e+01	6.325409e+02
1.190000e-06	5.318991e-06	9.784501e-09	3.718174e+01	6.431259e+02
1.200000e-06	5.436168e-06	9.940947e-09	3.800085e+01	6.532307e+02
1.210000e-06	5.551203e-06	1.009198e-08	3.880499e+01	6.628940e+02
1.220000e-06	5.664017e-06	1.023649e-08	3.959360e+01	6.721540e+02
1.230000e-06	5.774701e-06	1.037533e-08	4.036732e+01	6.810442e+02
1.240000e-06	5.883406e-06	1.050845e-08	4.112721e+01	6.895905e+02
1.250000e-06	5.990023e-06	1.063501e-08	4.187250e+01	6.978093e+02
1.260000e-06	6.094382e-06	1.075400e-08	4.260201e+01	7.057077e+02
1.270000e-06	6.196497e-06	1.086499e-08	4.331584e+01	7.132851e+02
1.280000e-06	6.296346e-06	1.097056e-08	4.401382e+01	7.205359e+02
1.290000e-06	6.393823e-06	1.107355e-08	4.469522e+01	7.274530e+02
1.300000e-06	6.488918e-06	1.117471e-08	4.535996e+01	7.340320e+02
1.310000e-06	6.581743e-06	1.127219e-08	4.600885e+01	7.402738e+02
1.320000e-06	6.672273e-06	1.136312e-08	4.664168e+01	7.461869e+02
1.330000e-06	6.760344e-06	1.144727e-08	4.725734e+01	7.517886e+02
1.340000e-06	6.845973e-06	1.152740e-08	4.785592e+01	7.571034e+02
1.350000e-06	6.929237e-06	1.160641e-08	4.843796e+01	7.621616e+02
1.360000e-06	7.010019e-06	1.168214e-08	4.900266e+01	7.669956e+02
1.370000e-06	7.088238e-06	1.175303e-08	4.954944e+01	7.716364e+02
1.380000e-06	7.163884e-06	1.182157e-08	5.007823e+01	7.761101e+02
1.390000e-06	7.236813e-06	1.188938e-08	5.058803e+01	7.804348e+02
1.400000e-06	7.307081e-06	1.195368e-08	5.107923e+01	7.846189e+02
1.410000e-06	7.374822e-06	1.201390e-08	5.155277e+01	7.886606e+02
1.420000e-06	7.439942e-06	1.207270e-08	5.200798e+01	7.925493e+02
1.430000e-06	7.502472e-06	1.213113e-08	5.244509e+01	7.962673e+02
1.440000e-06	7.562464e-06	1.218550e-08	5.286445e+01	7.997933e+02
1.450000e-06	7.619761e-06	1.223285e-08	5.326499e+01	8.031061e+02
1.460000e-06	7.674314e-06	1.227527e-08	5.364633e+01	8.061877e+02
1.470000e-06	7.725853e-06	1.231607e-08	5.400660e+01	8.090263e+02
1.480000e-06	7.774221e-06	1.235588e-08	5.434472e+01	8.116180e+02
1.490000e-06	7.819728e-06	1.239310e-08	5.466283e+01	8.139672e+02
1.500000e-06	7.862495e-06	1.242760e-08	5.496178e+01	8.160859e+02
1.510000e-06	7.902405e-06	1.245884e-08	5.524077e+01	8.179918e+02
1.520000e-06	7.939558e-06	1.248605e-08	5.550049e+01	8.197058e+02
1.530000e-06	7.973971e-06	1.250918e-08	5.574104e+01	8.212489e+02
1.540000e-06	8.005524e-06	1.253005e-08	5.596161e+01	8.226394e+02
1.550000e-06	8.034287e-06	1.254896e-08	5.616268e+01	8.238912e+02
1.560000e-06	8.060172e-06	1.256506e-08	5.634362e+01	8.250118e+02
1.570000e-06	8.083054e-06	1.257882e-08	5.650357e+01	8.260029e+02
1.580000e-06	8.103095e-06	1.259082e-08	5.664367e+01	8.268603e+02
1.590000e-06	8.120235e-06	1.260192e-08	5.676348e+01	8.275762e+02
1.600000e-06	8.134279e-06	1.261085e-08	5.686166e+01	8.281409e+02
1.610000e-06	8.145231e-06	1.261642e-08	5.693822e+01	8.285454e+02
1.620000e-06	8.153100e-06	1.262008e-08	5.699322e+01	8.287831e+02
1.630000e-06	8.158006e-06	1.262283e-08	5.702752e+01	8.288513e+02
1.640000e-06	8.160006e-06	1.262390e-08	5.704150e+01	8.287523e+02
1.650000e-06	8.159175e-06	1.262318e-08	5.703569e+01	8.284927e+02
1.660000e-06	8.155665e-06	1.261419e-08	5.701116e+01	8.280828e+02
1.670000e-06	8.149382e-06	1.260435e-08	5.696724e+01	8.275353e+02
1.680000e-06	8.140335e-06	1.259515e-08	5.690399e+01	8.268630e+02
1.690000e-06	8.128552e-06	1.258400e-08	5.682162e+01	8.260777e+02
1.700000e-06	8.113876e-06	1.257371e-08	5.671903e+01	8.251883e+02
1.710000e-06	8.096590e-06	1.256502e-08	5.659820e+01	8.242006e+02
1.720000e-06	8.076990e-06	1.255251e-08	5.646118e+01	8.231163e+02
1.730000e-06	8.054813e-06	1.252148e-08	5.630616e+01	8.219340e+02
1.740000e-06	8.029394e-06	1.244940e-08	5.612847e+01	8.206500e+02
1.750000e-06	8.000197e-06	1.244681e-08	5.592437e+01	8.192597e+02
1.760000e-06	7.967527e-06	1.244751e-08	5.569600e+01	8.177582e+02
1.770000e-06	7.932309e-06	1.241242e-08	5.544981e+01	8.161419e+02
1.780000e-06	7.894792e-06	1.239347e-08	5.518755e+01	8.144089e+02
1.790000e-06	7.854976e-06	1.242193e-08	5.490923e+01	8.125585e+02
1.800000e-06	7.813178e-06	1.236543e-08	5.461704e+01	8.105910e+02
1.810000e-06	7.768916e-06	1.230502e-08	5.430763e+01	8.085067e+02
1.820000e-06	7.721714e-06	1.236577e-08	5.397767e+01	8.063044e+02
1.830000e-06	7.671773e-06	1.225238e-08	5.362857e+01	8.039806e+02
1.840000e-06	7.618813e-06	1.224025e-08	5.325836e+01	8.015284e+02
1.850000e-06	7.562883e-06	1.218792e-08	5.286738e+01	7.989372e+02
1.860000e-06	7.504318e-06	1.208978e-08	5.245799e+01	7.961936e+02
1.870000e-06	7.442987e-06	1.210810e-08	5.202927e+01	7.932821e+02
1.880000e-06	7.378891e-06	1.203261e-08	5.158121e+01	7.901869e+02
1.890000e-06	7.311942e-06	1.204760e-08	5.111321e+01	7.868941e+02
1.900000e-06	7.242082e-06	1.196480e-08	5.062487e+01	7.833931e+02
1.910000e-06	7.169323e-06	1.188003e-08	5.011625e+01	7.796790e+02
1.920000e-06	7.093796e-06	1.183632e-08	4.958829e+01	7.757529e+02
1.930000e-06	7.015529e-06	1.175756e-08	4.904118e+01	7.716222e+02
1.940000e-06	6.934536e-06	1.176147e-08	4.847501e+01	7.672999e+02
1.950000e-06	6.851098e-06	1.165259e-08	4.789174e+01	7.628026e+02
1.960000e-06	6.765113e-06	1.158237e-08	4.729067e+01	7.581481e+02
1.970000e-06	6.676510e-06	1.149740e-08	4.667131e+01	7.533529e+02
1.980000e-06	6.585509e-06	1.139915e-08	4.603517e+01	7.484295e+02
1.990000e-06	6.492267e-06	1.134495e-08	4.538338e+01	7.433843e+02
2.000000e-06	6.396794e-06	1.126980e-08	4.471599e+01	7.382165e+02
2.010000e-06	6.299032e-06	1.121579e-08	4.403260e+01	7.329177e+02
2.020000e-06	6.198977e-06	1.110072e-08	4.333317e+01	7.274731e+02
2.030000e-06	6.096627e-06	1.101247e-08	4.261771e+01	7.218632e+02
2.040000e-06	5.992078e-06	1.092054e-08	4.188687e+01	7.160670e+02
2.050000e-06	5.885477e-06	1.083658e-08	4.114169e+01	7.100641e+02
2.060000e-06	5.776872e-06	1.073236e-08	4.038250e+01	7.038382e+02
2.070000e-06	5.666204e-06	1.062999e-08	3.960889e+01	6.973788e+02
2.080000e-06	5.553477e-06	1.054682e-08	3.882089e+01	6.906826e+02
2.090000e-06	5.438664e-06	1.044461e-08	3.801830e+01	6.837529e+02
2.100000e-06	5.321766e-06	1.034051e-08	3.720114e+01	6.765991e+02
2.110000e-06	5.202823e-06	1.022312e-08	3.636968e+01	6.692336e+02
2.120000e-06	5.081941e-06	1.010550e-08	3.552467e+01	6.616697e+02
2.130000e-06	4.959251e-06	9.967726e-09	3.466702e+01	6.539177e+02
2.140000e-06	4.834763e-06	9.855269e-09	3.379680e+01	6.459827e+02
2.150000e-06	4.708555e-06	9.751432e-09	3.291456e+01	6.378626e+02
2.160000e-06	4.580657e-06	9.635422e-09	3.202051e+01	6.295472e+02
2.170000e-06	4.451072e-06	9.493147e-09	3.111466e+01	6.210189e+02
2.180000e-06	4.319824e-06	9.347261e-09	3.019719e+01	6.122545e+02
2.190000e-06	4.186993e-06	9.208354e-09	2.926865e+01	6.032281e+02
2.200000e-06	4.052618e-06	9.069721e-09	2.832932e+01	5.939147e+02
2.210000e-06	3.916686e-06	8.931780e-09	2.737910e+01	5.842930e+02
2.220000e-06	3.779221e-06	8.784554e-09	2.641817e+01	5.743486e+02
2.230000e-06	3.640282e-06	8.622516e-09	2.544693e+01	5.640757e+02
2.240000e-06	3.499909e-06	8.451019e-09	2.446568e+01	5.534769e+02
2.250000e-06	3.358156e-06	8.289308e-09	2.347477e+01	5.425621e+02
2.260000e-06	3.215112e-06	8.129004e-09	2.247484e+01	5.313458e+02
2.270000e-06	3.070805e-06	7.960356e-09	2.146607e+01	5.198432e+02
2.280000e-06	2.925370e-06	7.779578e-09	2.044943e+01	5.080660e+02
2.290000e-06	2.778943e-06	7.597341e-09	1.942585e+01	4.960188e+02
2.300000e-06	2.631572e-06	7.413191e-09	1.839567e+01	4.836960e+02
2.310000e-06	2.483325e-06	7.223560e-09	1.735937e+01	4.710803e+02
2.320000e-06	2.334247e-06	7.024525e-09	1.631726e+01	4.581431e+02
2.330000e-06	2.184392e-06	6.812029e-09	1.526972e+01	4.448467e+02
2.340000e-06	2.033779e-06	6.593613e-09	1.421688e+01	4.311481e+02
2.350000e-06	1.882433e-06	6.379458e-09	1.315891e+01	4.170036e+02
2.360000e-06	1.730441e-06	6.163544e-09	1.209643e+01	4.023738e+02
2.370000e-06	1.577862e-06	5.934119e-09	1.102984e+01	3.872278e+02
2.380000e-06	1.424781e-06	5.692758e-09	9.959752e+00	3.715462e+02
2.390000e-06	1.271243e-06	5.445216e-09	8.886461e+00	3.553213e+02
2.400000e-06	1.117258e-06	5.191638e-09	7.810054e+00	3.385556e+02
2.410000e-06	9.628573e-07	4.933002e-09	6.730733e+00	3.212572e+02
2.420000e-06	8.081255e-07	4.668811e-09	5.649100e+00	3.034339e+02
2.430000e-06	6.531519e-07	4.392902e-09	4.565776e+00	2.850857e+02
2.440000e-06	4.979977e-07	4.100998e-09	3.481190e+00	2.661971e+02
2.450000e-06	3.427101e-07	3.797978e-09	2.395672e+00	2.467315e+02
2.460000e-06	1.872400e-07	3.489282e-09	1.308878e+00	2.266270e+02
2.470000e-06	3.163475e-08	3.168245e-09	2.211388e-01	2.057965e+02
2.480000e-06	-1.239795e-07	2.830616e-09	-8.666628e-01	1.841310e+02
2.490000e-06	-2.795318e-07	2.478825e-09	-1.954032e+00	1.615080e+02
2.500000e-06	-4.350349e-07	2.113594e-09	-3.041057e+00	1.378028e+02
2.510000e-06	-5.904717e-07	1.733439e-09	-4.127618e+00	1.129029e+02
2.520000e-06	-7.457101e-07	1.337870e-09	-5.212793e+00	8.672302e+01
2.530000e-06	-9.006819e-07	9.256127e-10	-6.296104e+00	5.922089e+01
2.540000e-06	-1.055340e-06	4.931868e-10	-7.377220e+00	3.040935e+01
2.550000e-06	-1.209639e-06	4.047323e-11	-8.455832e+00	3.654984e-01
2.560000e-06	-1.363516e-06	-4.304694e-10	-9.531486e+00	-3.076580e+01
2.570000e-06	-1.516863e-06	-9.172901e-10	-1.060344e+01	-6.277417e+01
2.580000e-06	-1.669632e-06	-1.421616e-09	-1.167136e+01	-9.539203e+01
2.590000e-06	-1.821816e-06	-1.939236e-09	-1.273518e+01	-1.283085e+02
2.600000e-06	-1.973324e-06	-2.456342e-09	-1.379427e+01	-1.611871e+02
2.610000e-06	-2.124109e-06	-2.961684e-09	-1.484831e+01	-1.936868e+02
2.620000e-06	-2.274054e-06	-3.448140e-09	-1.589649e+01	-2.254825e+02
2.630000e-06	-2.423016e-06	-3.913976e-09	-1.693779e+01	-2.562850e+02
2.640000e-06	-2.571082e-06	-4.360194e-09	-1.797283e+01	-2.858570e+02
2.650000e-06	-2.718224e-06	-4.786387e-09	-1.900141e+01	-3.140241e+02
2.660000e-06	-2.864405e-06	-5.190777e-09	-2.002327e+01	-3.406805e+02
2.670000e-06	-3.009600e-06	-5.573528e-09	-2.103823e+01	-3.657884e+02
2.680000e-06	-3.153628e-06	-5.935410e-09	-2.204504e+01	-3.893715e+02
2.690000e-06	-3.296347e-06	-6.275102e-09	-2.304270e+01	-4.115045e+02
2.700000e-06	-3.437662e-06	-6.594895e-09	-2.403055e+01	-4.322987e+02
2.710000e-06	-3.577618e-06	-6.898972e-09	-2.500889e+01	-4.518868e+02
2.720000e-06	-3.716271e-06	-7.188326e-09	-2.597812e+01	-4.704081e+02
2.730000e-06	-3.853574e-06	-7.461531e-09	-2.693793e+01	-4.879945e+02
2.740000e-06	-3.989465e-06	-7.718662e-09	-2.788786e+01	-5.047613e+02
2.750000e-06	-4.123936e-06	-7.962897e-09	-2.882786e+01	-5.208003e+02
2.760000e-06	-4.256928e-06	-8.198520e-09	-2.975752e+01	-5.361780e+02
2.770000e-06	-4.388386e-06	-8.426378e-09	-3.067646e+01	-5.509370e+02
2.780000e-06	-4.518403e-06	-8.644450e-09	-3.158533e+01	-5.651004e+02
2.790000e-06	-4.646908e-06	-8.851271e-09	-3.248363e+01	-5.786779e+02
2.800000e-06	-4.773800e-06	-9.048929e-09	-3.337065e+01	-5.916729e+02
2.810000e-06	-4.898996e-06	-9.239914e-09	-3.424581e+01	-6.040892e+02
2.820000e-06	-5.022458e-06	-9.423472e-09	-3.510887e+01	-6.159355e+02
2.830000e-06	-5.144190e-06	-9.595937e-09	-3.595981e+01	-6.272287e+02
2.840000e-06	-5.264026e-06	-9.755922e-09	-3.679751e+01	-6.379948e+02
2.850000e-06	-5.381750e-06	-9.908899e-09	-3.762045e+01	-6.482673e+02
2.860000e-06	-5.497292e-06	-1.005970e-08	-3.842813e+01	-6.580843e+02
2.870000e-06	-5.610645e-06	-1.020761e-08	-3.922051e+01	-6.674848e+02
2.880000e-06	-5.721793e-06	-1.034951e-08	-3.999747e+01	-6.765042e+02
2.890000e-06	-5.830851e-06	-1.048422e-08	-4.075983e+01	-6.851715e+02
2.900000e-06	-5.937919e-06	-1.061295e-08	-4.150828e+01	-6.935066e+02
2.910000e-06	-6.042931e-06	-1.073535e-08	-4.224235e+01	-7.015197e+02
2.920000e-06	-6.145638e-06	-1.085090e-08	-4.296031e+01	-7.092128e+02
2.930000e-06	-6.246031e-06	-1.096215e-08	-4.366209e+01	-7.165816e+02
2.940000e-06	-6.344264e-06	-1.106693e-08	-4.434878e+01	-7.236193e+02
