# Temperatura_=_50.68
# Concentracion g/m^3_=_15000.0
# C_Vs_to_Am_M_A/Vsm_=_65563218390.804596
# pendiente_HvsI_1/m_=_3716.3
# ordenada_HvsI_A/m_=_1297.0
# frecuencia_Hz_=_302318.2777998358

Tiempo_(s)	Campo_(V.s)	Magnetizacion_(V.s)	Campo_(kA/m)	Magnetizacion_(A/m)
0.000000e+00	-8.204397e-06	-6.220871e-09	-5.693269e+01	-4.061271e+02
1.000000e-08	-8.201634e-06	-6.220992e-09	-5.691352e+01	-4.059465e+02
2.000000e-08	-8.196205e-06	-6.217030e-09	-5.687584e+01	-4.057027e+02
3.000000e-08	-8.188162e-06	-6.209695e-09	-5.682003e+01	-4.054040e+02
4.000000e-08	-8.177240e-06	-6.201823e-09	-5.674424e+01	-4.050587e+02
5.000000e-08	-8.163278e-06	-6.195004e-09	-5.664735e+01	-4.046738e+02
6.000000e-08	-8.146439e-06	-6.187913e-09	-5.653050e+01	-4.042541e+02
7.000000e-08	-8.127153e-06	-6.177443e-09	-5.639667e+01	-4.038019e+02
8.000000e-08	-8.105507e-06	-6.164577e-09	-5.624647e+01	-4.033165e+02
9.000000e-08	-8.080947e-06	-6.183210e-09	-5.607603e+01	-4.027951e+02
1.000000e-07	-8.053085e-06	-6.197726e-09	-5.588269e+01	-4.022329e+02
1.100000e-07	-8.022033e-06	-6.166920e-09	-5.566721e+01	-4.016239e+02
1.200000e-07	-7.987958e-06	-6.132590e-09	-5.543076e+01	-4.009621e+02
1.300000e-07	-7.951096e-06	-6.113369e-09	-5.517496e+01	-4.002421e+02
1.400000e-07	-7.911799e-06	-6.092621e-09	-5.490227e+01	-3.994597e+02
1.500000e-07	-7.870189e-06	-6.059470e-09	-5.461352e+01	-3.986123e+02
1.600000e-07	-7.826129e-06	-6.086016e-09	-5.430778e+01	-3.976988e+02
1.700000e-07	-7.779312e-06	-6.072065e-09	-5.398290e+01	-3.967191e+02
1.800000e-07	-7.729589e-06	-6.008697e-09	-5.363786e+01	-3.956742e+02
1.900000e-07	-7.676928e-06	-6.037867e-09	-5.327243e+01	-3.945649e+02
2.000000e-07	-7.621317e-06	-6.020306e-09	-5.288653e+01	-3.933917e+02
2.100000e-07	-7.562905e-06	-5.982437e-09	-5.248119e+01	-3.921544e+02
2.200000e-07	-7.501870e-06	-5.965937e-09	-5.205765e+01	-3.908517e+02
2.300000e-07	-7.438202e-06	-5.943876e-09	-5.161584e+01	-3.894813e+02
2.400000e-07	-7.371650e-06	-5.932452e-09	-5.115402e+01	-3.880404e+02
2.500000e-07	-7.302288e-06	-5.879705e-09	-5.067269e+01	-3.865261e+02
2.600000e-07	-7.230150e-06	-5.864485e-09	-5.017211e+01	-3.849360e+02
2.700000e-07	-7.155038e-06	-5.851595e-09	-4.965088e+01	-3.832685e+02
2.800000e-07	-7.077062e-06	-5.803154e-09	-4.910979e+01	-3.815233e+02
2.900000e-07	-6.996340e-06	-5.771329e-09	-4.854963e+01	-3.797015e+02
3.000000e-07	-6.913084e-06	-5.762717e-09	-4.797189e+01	-3.778054e+02
3.100000e-07	-6.827517e-06	-5.744009e-09	-4.737812e+01	-3.758376e+02
3.200000e-07	-6.739528e-06	-5.690247e-09	-4.676754e+01	-3.738013e+02
3.300000e-07	-6.649037e-06	-5.663008e-09	-4.613959e+01	-3.716985e+02
3.400000e-07	-6.556163e-06	-5.638773e-09	-4.549511e+01	-3.695301e+02
3.500000e-07	-6.460939e-06	-5.595735e-09	-4.483433e+01	-3.672950e+02
3.600000e-07	-6.363330e-06	-5.559586e-09	-4.415699e+01	-3.649901e+02
3.700000e-07	-6.263421e-06	-5.529612e-09	-4.346369e+01	-3.626104e+02
3.800000e-07	-6.161247e-06	-5.492759e-09	-4.275468e+01	-3.601496e+02
3.900000e-07	-6.056820e-06	-5.435310e-09	-4.203003e+01	-3.576007e+02
4.000000e-07	-5.950225e-06	-5.392769e-09	-4.129034e+01	-3.549572e+02
4.100000e-07	-5.841643e-06	-5.358780e-09	-4.053685e+01	-3.522136e+02
4.200000e-07	-5.731007e-06	-5.317124e-09	-3.976912e+01	-3.493667e+02
4.300000e-07	-5.618118e-06	-5.267459e-09	-3.898575e+01	-3.464157e+02
4.400000e-07	-5.503043e-06	-5.225999e-09	-3.818721e+01	-3.433623e+02
4.500000e-07	-5.385901e-06	-5.185939e-09	-3.737433e+01	-3.402101e+02
4.600000e-07	-5.266802e-06	-5.132742e-09	-3.654786e+01	-3.369642e+02
4.700000e-07	-5.145864e-06	-5.078737e-09	-3.570864e+01	-3.336293e+02
4.800000e-07	-5.023058e-06	-5.026618e-09	-3.485646e+01	-3.302093e+02
4.900000e-07	-4.898436e-06	-4.971261e-09	-3.399167e+01	-3.267054e+02
5.000000e-07	-4.772060e-06	-4.913492e-09	-3.311470e+01	-3.231158e+02
5.100000e-07	-4.643901e-06	-4.861080e-09	-3.222537e+01	-3.194346e+02
5.200000e-07	-4.514034e-06	-4.802620e-09	-3.132419e+01	-3.156525e+02
5.300000e-07	-4.382465e-06	-4.736063e-09	-3.041119e+01	-3.117572e+02
5.400000e-07	-4.249333e-06	-4.669125e-09	-2.948736e+01	-3.077345e+02
5.500000e-07	-4.114651e-06	-4.606745e-09	-2.855276e+01	-3.035701e+02
5.600000e-07	-3.978350e-06	-4.544266e-09	-2.760692e+01	-2.992507e+02
5.700000e-07	-3.840544e-06	-4.479249e-09	-2.665065e+01	-2.947659e+02
5.800000e-07	-3.701155e-06	-4.411431e-09	-2.568338e+01	-2.901089e+02
5.900000e-07	-3.560118e-06	-4.338553e-09	-2.470469e+01	-2.852770e+02
6.000000e-07	-3.417598e-06	-4.261652e-09	-2.371570e+01	-2.802712e+02
6.100000e-07	-3.273864e-06	-4.182843e-09	-2.271829e+01	-2.750955e+02
6.200000e-07	-3.128987e-06	-4.101599e-09	-2.171295e+01	-2.697553e+02
6.300000e-07	-2.982906e-06	-4.014161e-09	-2.069925e+01	-2.642552e+02
6.400000e-07	-2.835724e-06	-3.925172e-09	-1.967791e+01	-2.585976e+02
6.500000e-07	-2.687630e-06	-3.836466e-09	-1.865024e+01	-2.527808e+02
6.600000e-07	-2.538712e-06	-3.744946e-09	-1.761686e+01	-2.467980e+02
6.700000e-07	-2.388958e-06	-3.648342e-09	-1.657767e+01	-2.406369e+02
6.800000e-07	-2.238356e-06	-3.550551e-09	-1.553260e+01	-2.342800e+02
6.900000e-07	-2.086912e-06	-3.453077e-09	-1.448169e+01	-2.277063e+02
7.000000e-07	-1.934705e-06	-3.350469e-09	-1.342548e+01	-2.208929e+02
7.100000e-07	-1.781794e-06	-3.244532e-09	-1.236438e+01	-2.138175e+02
7.200000e-07	-1.628277e-06	-3.134615e-09	-1.129909e+01	-2.064601e+02
7.300000e-07	-1.474260e-06	-3.016784e-09	-1.023032e+01	-1.988056e+02
7.400000e-07	-1.319774e-06	-2.890030e-09	-9.158291e+00	-1.908438e+02
7.500000e-07	-1.164870e-06	-2.758975e-09	-8.083371e+00	-1.825701e+02
7.600000e-07	-1.009461e-06	-2.628540e-09	-7.004946e+00	-1.739841e+02
7.700000e-07	-8.536440e-07	-2.497377e-09	-5.923683e+00	-1.650876e+02
7.800000e-07	-6.975713e-07	-2.360130e-09	-4.840649e+00	-1.558814e+02
7.900000e-07	-5.412640e-07	-2.215071e-09	-3.755988e+00	-1.463623e+02
8.000000e-07	-3.847908e-07	-2.064397e-09	-2.670175e+00	-1.365201e+02
8.100000e-07	-2.281823e-07	-1.907974e-09	-1.583423e+00	-1.263350e+02
8.200000e-07	-7.144039e-08	-1.745291e-09	-4.957456e-01	-1.157771e+02
8.300000e-07	8.544282e-08	-1.574956e-09	5.929125e-01	-1.048065e+02
8.400000e-07	2.423213e-07	-1.398102e-09	1.681538e+00	-9.337562e+01
8.500000e-07	3.990416e-07	-1.213898e-09	2.769065e+00	-8.143391e+01
8.600000e-07	5.556522e-07	-1.022358e-09	3.855832e+00	-6.893284e+01
8.700000e-07	7.121956e-07	-8.244682e-10	4.942131e+00	-5.583266e+01
8.800000e-07	8.685548e-07	-6.198987e-10	6.027153e+00	-4.210916e+01
8.900000e-07	1.024605e-06	-4.051539e-10	7.110031e+00	-2.775978e+01
9.000000e-07	1.180229e-06	-1.789167e-10	8.189950e+00	-1.280858e+01
9.100000e-07	1.335373e-06	5.408475e-11	9.266539e+00	2.690873e+00
9.200000e-07	1.490056e-06	2.935364e-10	1.033993e+01	1.865508e+01
9.300000e-07	1.644223e-06	5.429877e-10	1.140974e+01	3.497277e+01
9.400000e-07	1.797804e-06	8.009110e-10	1.247549e+01	5.150974e+01
9.500000e-07	1.950742e-06	1.058795e-09	1.353677e+01	6.811575e+01
9.600000e-07	2.102965e-06	1.311259e-09	1.459308e+01	8.463312e+01
9.700000e-07	2.254362e-06	1.557837e-09	1.564367e+01	1.009060e+02
9.800000e-07	2.404821e-06	1.797810e-09	1.668775e+01	1.167892e+02
9.900000e-07	2.554341e-06	2.028597e-09	1.772531e+01	1.321568e+02
1.000000e-06	2.702917e-06	2.249051e-09	1.875632e+01	1.469077e+02
1.010000e-06	2.850475e-06	2.460615e-09	1.978027e+01	1.609699e+02
1.020000e-06	2.996942e-06	2.660784e-09	2.079665e+01	1.743016e+02
1.030000e-06	3.142284e-06	2.849079e-09	2.180522e+01	1.868897e+02
1.040000e-06	3.286503e-06	3.028650e-09	2.280600e+01	1.987464e+02
1.050000e-06	3.429505e-06	3.200372e-09	2.379833e+01	2.099039e+02
1.060000e-06	3.571198e-06	3.361404e-09	2.478158e+01	2.204077e+02
1.070000e-06	3.711545e-06	3.512741e-09	2.575549e+01	2.303103e+02
1.080000e-06	3.850476e-06	3.657766e-09	2.671957e+01	2.396652e+02
1.090000e-06	3.987938e-06	3.795718e-09	2.767346e+01	2.485218e+02
1.100000e-06	4.123890e-06	3.922965e-09	2.861687e+01	2.569223e+02
1.110000e-06	4.258275e-06	4.042069e-09	2.954941e+01	2.648999e+02
1.120000e-06	4.391183e-06	4.157458e-09	3.047169e+01	2.724793e+02
1.130000e-06	4.522561e-06	4.270143e-09	3.138336e+01	2.796779e+02
1.140000e-06	4.652314e-06	4.376347e-09	3.228376e+01	2.865083e+02
1.150000e-06	4.780479e-06	4.472295e-09	3.317313e+01	2.929816e+02
1.160000e-06	4.906981e-06	4.562446e-09	3.405097e+01	2.991098e+02
1.170000e-06	5.031820e-06	4.648275e-09	3.491726e+01	3.049080e+02
1.180000e-06	5.154916e-06	4.730796e-09	3.577146e+01	3.103961e+02
1.190000e-06	5.276191e-06	4.809737e-09	3.661302e+01	3.155986e+02
1.200000e-06	5.395559e-06	4.884854e-09	3.744135e+01	3.205436e+02
1.210000e-06	5.512879e-06	4.956568e-09	3.825547e+01	3.252614e+02
1.220000e-06	5.628073e-06	5.026385e-09	3.905483e+01	3.297816e+02
1.230000e-06	5.741059e-06	5.096035e-09	3.983887e+01	3.341312e+02
1.240000e-06	5.851874e-06	5.162379e-09	4.060785e+01	3.383320e+02
1.250000e-06	5.960659e-06	5.223620e-09	4.136274e+01	3.423989e+02
1.260000e-06	6.067346e-06	5.280053e-09	4.210307e+01	3.463398e+02
1.270000e-06	6.171791e-06	5.335888e-09	4.282785e+01	3.501549e+02
1.280000e-06	6.273958e-06	5.391858e-09	4.353681e+01	3.538389e+02
1.290000e-06	6.373765e-06	5.444097e-09	4.422941e+01	3.573820e+02
1.300000e-06	6.471160e-06	5.493228e-09	4.490526e+01	3.607731e+02
1.310000e-06	6.566198e-06	5.538336e-09	4.556475e+01	3.640018e+02
1.320000e-06	6.658943e-06	5.579892e-09	4.620833e+01	3.670604e+02
1.330000e-06	6.749277e-06	5.620464e-09	4.683519e+01	3.699460e+02
1.340000e-06	6.837131e-06	5.661198e-09	4.744483e+01	3.726608e+02
1.350000e-06	6.922654e-06	5.699993e-09	4.803830e+01	3.752126e+02
1.360000e-06	7.005756e-06	5.736390e-09	4.861497e+01	3.776132e+02
1.370000e-06	7.086302e-06	5.771915e-09	4.917390e+01	3.798776e+02
1.380000e-06	7.164328e-06	5.804218e-09	4.971535e+01	3.820216e+02
1.390000e-06	7.239727e-06	5.832899e-09	5.023856e+01	3.840602e+02
1.400000e-06	7.312389e-06	5.859673e-09	5.074279e+01	3.860055e+02
1.410000e-06	7.382381e-06	5.887168e-09	5.122848e+01	3.878660e+02
1.420000e-06	7.449805e-06	5.914322e-09	5.169636e+01	3.896454e+02
1.430000e-06	7.514526e-06	5.939083e-09	5.214547e+01	3.913434e+02
1.440000e-06	7.576608e-06	5.961772e-09	5.257628e+01	3.929561e+02
1.450000e-06	7.636161e-06	5.983103e-09	5.298953e+01	3.944774e+02
1.460000e-06	7.693024e-06	6.003228e-09	5.338412e+01	3.959005e+02
1.470000e-06	7.747126e-06	6.021054e-09	5.375955e+01	3.972196e+02
1.480000e-06	7.798183e-06	6.037524e-09	5.411385e+01	3.984312e+02
1.490000e-06	7.846070e-06	6.054538e-09	5.444616e+01	3.995349e+02
1.500000e-06	7.891104e-06	6.071914e-09	5.475866e+01	4.005337e+02
1.510000e-06	7.933324e-06	6.087701e-09	5.505163e+01	4.014338e+02
1.520000e-06	7.972641e-06	6.101069e-09	5.532447e+01	4.022436e+02
1.530000e-06	8.009231e-06	6.111911e-09	5.557837e+01	4.029728e+02
1.540000e-06	8.043037e-06	6.122023e-09	5.581296e+01	4.036308e+02
1.550000e-06	8.073921e-06	6.130617e-09	5.602728e+01	4.042256e+02
1.560000e-06	8.101981e-06	6.137939e-09	5.622200e+01	4.047626e+02
1.570000e-06	8.127103e-06	6.144536e-09	5.639632e+01	4.052441e+02
1.580000e-06	8.149201e-06	6.150647e-09	5.654967e+01	4.056695e+02
1.590000e-06	8.168409e-06	6.158431e-09	5.668296e+01	4.060356e+02
1.600000e-06	8.184678e-06	6.165173e-09	5.679585e+01	4.063371e+02
1.610000e-06	8.197927e-06	6.169845e-09	5.688779e+01	4.065683e+02
1.620000e-06	8.208000e-06	6.173244e-09	5.695769e+01	4.067242e+02
1.630000e-06	8.214934e-06	6.174291e-09	5.700581e+01	4.068013e+02
1.640000e-06	8.218982e-06	6.175150e-09	5.703390e+01	4.067986e+02
1.650000e-06	8.220077e-06	6.177807e-09	5.704150e+01	4.067180e+02
1.660000e-06	8.218331e-06	6.176370e-09	5.702938e+01	4.065643e+02
1.670000e-06	8.214034e-06	6.170566e-09	5.699956e+01	4.063442e+02
1.680000e-06	8.207036e-06	6.167957e-09	5.695100e+01	4.060659e+02
1.690000e-06	8.197184e-06	6.165152e-09	5.688264e+01	4.057378e+02
1.700000e-06	8.184453e-06	6.161484e-09	5.679429e+01	4.053676e+02
1.710000e-06	8.168873e-06	6.159195e-09	5.668618e+01	4.049610e+02
1.720000e-06	8.150758e-06	6.160160e-09	5.656047e+01	4.045213e+02
1.730000e-06	8.130282e-06	6.152052e-09	5.641838e+01	4.040490e+02
1.740000e-06	8.106990e-06	6.098490e-09	5.625676e+01	4.035421e+02
1.750000e-06	8.080125e-06	6.076647e-09	5.607033e+01	4.029965e+02
1.760000e-06	8.049456e-06	6.096729e-09	5.585751e+01	4.024064e+02
1.770000e-06	8.015679e-06	6.097541e-09	5.562312e+01	4.017659e+02
1.780000e-06	7.979548e-06	6.097828e-09	5.537240e+01	4.010692e+02
1.790000e-06	7.941059e-06	6.130225e-09	5.510531e+01	4.003116e+02
1.800000e-06	7.900436e-06	6.102769e-09	5.482342e+01	3.994898e+02
1.810000e-06	7.857688e-06	6.041002e-09	5.452677e+01	3.986021e+02
1.820000e-06	7.812080e-06	6.081085e-09	5.421029e+01	3.976482e+02
1.830000e-06	7.763669e-06	6.043958e-09	5.387435e+01	3.966287e+02
1.840000e-06	7.712419e-06	6.036333e-09	5.351871e+01	3.955444e+02
1.850000e-06	7.658005e-06	6.021111e-09	5.314112e+01	3.943962e+02
1.860000e-06	7.600777e-06	5.970663e-09	5.274399e+01	3.931840e+02
1.870000e-06	7.540816e-06	6.008403e-09	5.232791e+01	3.919070e+02
1.880000e-06	7.478084e-06	5.947106e-09	5.189260e+01	3.905633e+02
1.890000e-06	7.412543e-06	5.956865e-09	5.143779e+01	3.891504e+02
1.900000e-06	7.344112e-06	5.946885e-09	5.096292e+01	3.876651e+02
1.910000e-06	7.272778e-06	5.866328e-09	5.046791e+01	3.861049e+02
1.920000e-06	7.198576e-06	5.879472e-09	4.995300e+01	3.844677e+02
1.930000e-06	7.121654e-06	5.862826e-09	4.941922e+01	3.827528e+02
1.940000e-06	7.041963e-06	5.850449e-09	4.886622e+01	3.809608e+02
1.950000e-06	6.959672e-06	5.785349e-09	4.829518e+01	3.790934e+02
1.960000e-06	6.874849e-06	5.752238e-09	4.770657e+01	3.771532e+02
1.970000e-06	6.787344e-06	5.737350e-09	4.709934e+01	3.751434e+02
1.980000e-06	6.697324e-06	5.680585e-09	4.647467e+01	3.730663e+02
1.990000e-06	6.604937e-06	5.682038e-09	4.583357e+01	3.709236e+02
2.000000e-06	6.510278e-06	5.648779e-09	4.517670e+01	3.687148e+02
2.010000e-06	6.413307e-06	5.605737e-09	4.450379e+01	3.664376e+02
2.020000e-06	6.314086e-06	5.547364e-09	4.381527e+01	3.640879e+02
2.030000e-06	6.212602e-06	5.524174e-09	4.311104e+01	3.616596e+02
2.040000e-06	6.108804e-06	5.504428e-09	4.239076e+01	3.591460e+02
2.050000e-06	6.002896e-06	5.456220e-09	4.165584e+01	3.565402e+02
2.060000e-06	5.894959e-06	5.410486e-09	4.090683e+01	3.538363e+02
2.070000e-06	5.784996e-06	5.364143e-09	4.014377e+01	3.510301e+02
2.080000e-06	5.672891e-06	5.325098e-09	3.936584e+01	3.481198e+02
2.090000e-06	5.558546e-06	5.270096e-09	3.857236e+01	3.451061e+02
2.100000e-06	5.442023e-06	5.234589e-09	3.776377e+01	3.419920e+02
2.110000e-06	5.323445e-06	5.185893e-09	3.694093e+01	3.387821e+02
2.120000e-06	5.202921e-06	5.126872e-09	3.610458e+01	3.354815e+02
2.130000e-06	5.080640e-06	5.071876e-09	3.525604e+01	3.320945e+02
2.140000e-06	4.956583e-06	5.031417e-09	3.439516e+01	3.286234e+02
2.150000e-06	4.830672e-06	4.980879e-09	3.352143e+01	3.250678e+02
2.160000e-06	4.702959e-06	4.918966e-09	3.263519e+01	3.214234e+02
2.170000e-06	4.573530e-06	4.862364e-09	3.173705e+01	3.176821e+02
2.180000e-06	4.442485e-06	4.806226e-09	3.082769e+01	3.138327e+02
2.190000e-06	4.309790e-06	4.750625e-09	2.990688e+01	3.098616e+02
2.200000e-06	4.175480e-06	4.688515e-09	2.897486e+01	3.057544e+02
2.210000e-06	4.039632e-06	4.624803e-09	2.803218e+01	3.014972e+02
2.220000e-06	3.902188e-06	4.548130e-09	2.707842e+01	2.970783e+02
2.230000e-06	3.763054e-06	4.471680e-09	2.611292e+01	2.924893e+02
2.240000e-06	3.622495e-06	4.400989e-09	2.513754e+01	2.877260e+02
2.250000e-06	3.480642e-06	4.333951e-09	2.415318e+01	2.827881e+02
2.260000e-06	3.337456e-06	4.259986e-09	2.315957e+01	2.776784e+02
2.270000e-06	3.192945e-06	4.180489e-09	2.215677e+01	2.724020e+02
2.280000e-06	3.047227e-06	4.095773e-09	2.114559e+01	2.669641e+02
2.290000e-06	2.900435e-06	4.007671e-09	2.012696e+01	2.613681e+02
2.300000e-06	2.752578e-06	3.921087e-09	1.910093e+01	2.556143e+02
2.310000e-06	2.603792e-06	3.834264e-09	1.806847e+01	2.496977e+02
2.320000e-06	2.454186e-06	3.742307e-09	1.703031e+01	2.436083e+02
2.330000e-06	2.303750e-06	3.642595e-09	1.598639e+01	2.373305e+02
2.340000e-06	2.152562e-06	3.541820e-09	1.493725e+01	2.308445e+02
2.350000e-06	2.000631e-06	3.443445e-09	1.388296e+01	2.241279e+02
2.360000e-06	1.847940e-06	3.341706e-09	1.282339e+01	2.171578e+02
2.370000e-06	1.694653e-06	3.229778e-09	1.175969e+01	2.099132e+02
2.380000e-06	1.540833e-06	3.112382e-09	1.069229e+01	2.023767e+02
2.390000e-06	1.386540e-06	2.992079e-09	9.621606e+00	1.945363e+02
2.400000e-06	1.231817e-06	2.868798e-09	8.547934e+00	1.863852e+02
2.410000e-06	1.076651e-06	2.743467e-09	7.471194e+00	1.779216e+02
2.420000e-06	9.211049e-07	2.611813e-09	6.391814e+00	1.691468e+02
2.430000e-06	7.652539e-07	2.471425e-09	5.310318e+00	1.600622e+02
2.440000e-06	6.091645e-07	2.325238e-09	4.227169e+00	1.506666e+02
2.450000e-06	4.528536e-07	2.177594e-09	3.142482e+00	1.409529e+02
2.460000e-06	2.963122e-07	2.030172e-09	2.056196e+00	1.309054e+02
2.470000e-06	1.395743e-07	1.874967e-09	9.685468e-01	1.204981e+02
2.480000e-06	-1.727462e-08	1.708564e-09	-1.198736e-01	1.096947e+02
2.490000e-06	-1.741376e-07	1.532930e-09	-1.208392e+00	9.845048e+01
2.500000e-06	-3.309458e-07	1.350364e-09	-2.296529e+00	8.671536e+01
2.510000e-06	-4.876850e-07	1.163191e-09	-3.384187e+00	7.443926e+01
2.520000e-06	-6.442963e-07	9.666293e-10	-4.470959e+00	6.157819e+01
2.530000e-06	-8.006054e-07	7.577685e-10	-5.555633e+00	4.810104e+01
2.540000e-06	-9.565559e-07	5.411739e-10	-6.637818e+00	3.399608e+01
2.550000e-06	-1.112146e-06	3.207168e-10	-7.717503e+00	1.927644e+01
2.560000e-06	-1.267335e-06	9.234385e-11	-8.794403e+00	3.983897e+00
2.570000e-06	-1.422090e-06	-1.475924e-10	-9.868294e+00	-1.180969e+01
2.580000e-06	-1.576393e-06	-3.964575e-10	-1.093905e+01	-2.800354e+01
2.590000e-06	-1.730137e-06	-6.514408e-10	-1.200592e+01	-4.447172e+01
2.600000e-06	-1.883186e-06	-9.090880e-10	-1.306797e+01	-6.106936e+01
2.610000e-06	-2.035443e-06	-1.166332e-09	-1.412453e+01	-7.764061e+01
2.620000e-06	-2.186894e-06	-1.421262e-09	-1.517549e+01	-9.402775e+01
2.630000e-06	-2.337522e-06	-1.669641e-09	-1.622074e+01	-1.100805e+02
2.640000e-06	-2.487245e-06	-1.909083e-09	-1.725972e+01	-1.256644e+02
2.650000e-06	-2.636113e-06	-2.138439e-09	-1.829275e+01	-1.406680e+02
2.660000e-06	-2.784013e-06	-2.357762e-09	-1.931907e+01	-1.550075e+02
2.670000e-06	-2.930874e-06	-2.565752e-09	-2.033819e+01	-1.686294e+02
2.680000e-06	-3.076694e-06	-2.760675e-09	-2.135007e+01	-1.815096e+02
2.690000e-06	-3.221283e-06	-2.944525e-09	-2.235341e+01	-1.936510e+02
2.700000e-06	-3.364650e-06	-3.117953e-09	-2.334828e+01	-2.050785e+02
2.710000e-06	-3.506773e-06	-3.282226e-09	-2.433452e+01	-2.158332e+02
2.720000e-06	-3.647566e-06	-3.438202e-09	-2.531152e+01	-2.259657e+02
2.730000e-06	-3.786988e-06	-3.587703e-09	-2.627901e+01	-2.355297e+02
2.740000e-06	-3.924956e-06	-3.727962e-09	-2.723641e+01	-2.445767e+02
2.750000e-06	-4.061395e-06	-3.860236e-09	-2.818319e+01	-2.531521e+02
2.760000e-06	-4.196319e-06	-3.987267e-09	-2.911947e+01	-2.612926e+02
2.770000e-06	-4.329774e-06	-4.104657e-09	-3.004556e+01	-2.690262e+02
2.780000e-06	-4.461764e-06	-4.214698e-09	-3.096148e+01	-2.763728e+02
2.790000e-06	-4.592265e-06	-4.319220e-09	-3.186706e+01	-2.833467e+02
2.800000e-06	-4.721203e-06	-4.418107e-09	-3.276180e+01	-2.899591e+02
2.810000e-06	-4.848462e-06	-4.513465e-09	-3.364488e+01	-2.962214e+02
2.820000e-06	-4.974028e-06	-4.606237e-09	-3.451622e+01	-3.021473e+02
2.830000e-06	-5.097902e-06	-4.694996e-09	-3.537582e+01	-3.077548e+02
2.840000e-06	-5.219967e-06	-4.777891e-09	-3.622287e+01	-3.130664e+02
2.850000e-06	-5.340135e-06	-4.854531e-09	-3.705674e+01	-3.181092e+02
2.860000e-06	-5.458227e-06	-4.927034e-09	-3.787622e+01	-3.229127e+02
2.870000e-06	-5.574095e-06	-4.998342e-09	-3.868026e+01	-3.275073e+02
2.880000e-06	-5.687673e-06	-5.066586e-09	-3.946841e+01	-3.319212e+02
2.890000e-06	-5.799024e-06	-5.130202e-09	-4.024110e+01	-3.361784e+02
2.900000e-06	-5.908308e-06	-5.191983e-09	-4.099946e+01	-3.402967e+02
2.910000e-06	-6.015578e-06	-5.254596e-09	-4.174384e+01	-3.442869e+02
2.920000e-06	-6.120697e-06	-5.317619e-09	-4.247329e+01	-3.481519e+02
2.930000e-06	-6.223463e-06	-5.377963e-09	-4.318642e+01	-3.518885e+02
2.940000e-06	-6.323878e-06	-5.433422e-09	-4.388322e+01	-3.554884e+02
