# Temperatura_=_53.26
# Concentracion g/m^3_=_15000.0
# C_Vs_to_Am_M_A/Vsm_=_65563218390.804596
# pendiente_HvsI_1/m_=_3716.3
# ordenada_HvsI_A/m_=_1297.0
# frecuencia_Hz_=_302317.8486197468

Tiempo_(s)	Campo_(V.s)	Magnetizacion_(V.s)	Campo_(kA/m)	Magnetizacion_(A/m)
0.000000e+00	-8.174817e-06	-7.359182e-09	-5.693235e+01	-4.806849e+02
1.000000e-08	-8.172073e-06	-7.358346e-09	-5.691324e+01	-4.804556e+02
2.000000e-08	-8.166638e-06	-7.353422e-09	-5.687539e+01	-4.801425e+02
3.000000e-08	-8.158549e-06	-7.344556e-09	-5.681906e+01	-4.797588e+02
4.000000e-08	-8.147574e-06	-7.336998e-09	-5.674262e+01	-4.793189e+02
5.000000e-08	-8.133592e-06	-7.329671e-09	-5.664525e+01	-4.788363e+02
6.000000e-08	-8.116747e-06	-7.318374e-09	-5.652793e+01	-4.783219e+02
7.000000e-08	-8.097491e-06	-7.302911e-09	-5.639383e+01	-4.777830e+02
8.000000e-08	-8.075889e-06	-7.286047e-09	-5.624338e+01	-4.772225e+02
9.000000e-08	-8.051379e-06	-7.310926e-09	-5.607269e+01	-4.766385e+02
1.000000e-07	-8.023552e-06	-7.331969e-09	-5.587889e+01	-4.760252e+02
1.100000e-07	-7.992557e-06	-7.294767e-09	-5.566303e+01	-4.753734e+02
1.200000e-07	-7.958655e-06	-7.257298e-09	-5.542692e+01	-4.746720e+02
1.300000e-07	-7.921991e-06	-7.229858e-09	-5.517158e+01	-4.739095e+02
1.400000e-07	-7.882937e-06	-7.189779e-09	-5.489959e+01	-4.730750e+02
1.500000e-07	-7.841596e-06	-7.152620e-09	-5.461168e+01	-4.721596e+02
1.600000e-07	-7.797769e-06	-7.207584e-09	-5.430645e+01	-4.711565e+02
1.700000e-07	-7.751184e-06	-7.218524e-09	-5.398202e+01	-4.700617e+02
1.800000e-07	-7.701648e-06	-7.127466e-09	-5.363704e+01	-4.688734e+02
1.900000e-07	-7.649138e-06	-7.143673e-09	-5.327134e+01	-4.675917e+02
2.000000e-07	-7.593679e-06	-7.107748e-09	-5.288510e+01	-4.662180e+02
2.100000e-07	-7.535458e-06	-7.050891e-09	-5.247963e+01	-4.647538e+02
2.200000e-07	-7.474626e-06	-7.061430e-09	-5.205597e+01	-4.632007e+02
2.300000e-07	-7.411113e-06	-7.050258e-09	-5.161365e+01	-4.615596e+02
2.400000e-07	-7.344779e-06	-7.027254e-09	-5.115167e+01	-4.598307e+02
2.500000e-07	-7.275644e-06	-6.955409e-09	-5.067019e+01	-4.580138e+02
2.600000e-07	-7.203670e-06	-6.950051e-09	-5.016894e+01	-4.561083e+02
2.700000e-07	-7.128797e-06	-6.942774e-09	-4.964750e+01	-4.541135e+02
2.800000e-07	-7.051089e-06	-6.883205e-09	-4.910631e+01	-4.520295e+02
2.900000e-07	-6.970566e-06	-6.844130e-09	-4.854552e+01	-4.498569e+02
3.000000e-07	-6.887580e-06	-6.829066e-09	-4.796757e+01	-4.475970e+02
3.100000e-07	-6.802320e-06	-6.812847e-09	-4.737379e+01	-4.452513e+02
3.200000e-07	-6.714575e-06	-6.753941e-09	-4.676270e+01	-4.428216e+02
3.300000e-07	-6.624365e-06	-6.717856e-09	-4.613445e+01	-4.403088e+02
3.400000e-07	-6.531814e-06	-6.674994e-09	-4.548989e+01	-4.377131e+02
3.500000e-07	-6.436936e-06	-6.607670e-09	-4.482913e+01	-4.350327e+02
3.600000e-07	-6.339668e-06	-6.566717e-09	-4.415172e+01	-4.322646e+02
3.700000e-07	-6.240054e-06	-6.546233e-09	-4.345797e+01	-4.294037e+02
3.800000e-07	-6.138198e-06	-6.517813e-09	-4.274861e+01	-4.264442e+02
3.900000e-07	-6.034132e-06	-6.454029e-09	-4.202386e+01	-4.233796e+02
4.000000e-07	-5.927905e-06	-6.391778e-09	-4.128406e+01	-4.202039e+02
4.100000e-07	-5.819628e-06	-6.334335e-09	-4.052998e+01	-4.169123e+02
4.200000e-07	-5.709354e-06	-6.282722e-09	-3.976198e+01	-4.135022e+02
4.300000e-07	-5.596972e-06	-6.239842e-09	-3.897932e+01	-4.099734e+02
4.400000e-07	-5.482329e-06	-6.195304e-09	-3.818090e+01	-4.063280e+02
4.500000e-07	-5.365518e-06	-6.139688e-09	-3.736739e+01	-4.025701e+02
4.600000e-07	-5.246779e-06	-6.074427e-09	-3.654045e+01	-3.987049e+02
4.700000e-07	-5.126268e-06	-6.010605e-09	-3.570116e+01	-3.947374e+02
4.800000e-07	-5.003923e-06	-5.948648e-09	-3.484911e+01	-3.906709e+02
4.900000e-07	-4.879728e-06	-5.890146e-09	-3.398417e+01	-3.865060e+02
5.000000e-07	-4.753779e-06	-5.822197e-09	-3.310702e+01	-3.822395e+02
5.100000e-07	-4.626125e-06	-5.747204e-09	-3.221799e+01	-3.778639e+02
5.200000e-07	-4.496798e-06	-5.676234e-09	-3.131731e+01	-3.733678e+02
5.300000e-07	-4.365722e-06	-5.609998e-09	-3.040445e+01	-3.687364e+02
5.400000e-07	-4.233032e-06	-5.534980e-09	-2.948035e+01	-3.639529e+02
5.500000e-07	-4.098786e-06	-5.449803e-09	-2.854541e+01	-3.590003e+02
5.600000e-07	-3.962939e-06	-5.369846e-09	-2.759933e+01	-3.538633e+02
5.700000e-07	-3.825586e-06	-5.296300e-09	-2.664275e+01	-3.485296e+02
5.800000e-07	-3.686697e-06	-5.214546e-09	-2.567548e+01	-3.429915e+02
5.900000e-07	-3.546228e-06	-5.127960e-09	-2.469720e+01	-3.372460e+02
6.000000e-07	-3.404288e-06	-5.041553e-09	-2.370868e+01	-3.312946e+02
6.100000e-07	-3.261000e-06	-4.944949e-09	-2.271077e+01	-3.251424e+02
6.200000e-07	-3.116407e-06	-4.838805e-09	-2.170377e+01	-3.187961e+02
6.300000e-07	-2.970595e-06	-4.738084e-09	-2.068829e+01	-3.122616e+02
6.400000e-07	-2.823828e-06	-4.644350e-09	-1.966615e+01	-3.055423e+02
6.500000e-07	-2.676222e-06	-4.541072e-09	-1.863817e+01	-2.986364e+02
6.600000e-07	-2.527739e-06	-4.425129e-09	-1.760408e+01	-2.915364e+02
6.700000e-07	-2.378471e-06	-4.306249e-09	-1.656453e+01	-2.842278e+02
6.800000e-07	-2.228405e-06	-4.190455e-09	-1.551941e+01	-2.766904e+02
6.900000e-07	-2.077518e-06	-4.072667e-09	-1.446858e+01	-2.688995e+02
7.000000e-07	-1.925921e-06	-3.950663e-09	-1.341280e+01	-2.608281e+02
7.100000e-07	-1.773695e-06	-3.825244e-09	-1.235264e+01	-2.524502e+02
7.200000e-07	-1.620845e-06	-3.691522e-09	-1.128814e+01	-2.437426e+02
7.300000e-07	-1.467375e-06	-3.549260e-09	-1.021933e+01	-2.346879e+02
7.400000e-07	-1.313377e-06	-3.402578e-09	-9.146828e+00	-2.252750e+02
7.500000e-07	-1.158929e-06	-3.252709e-09	-8.071200e+00	-2.154996e+02
7.600000e-07	-1.004056e-06	-3.099040e-09	-6.992602e+00	-2.053624e+02
7.700000e-07	-8.488370e-07	-2.941452e-09	-5.911605e+00	-1.948664e+02
7.800000e-07	-6.933047e-07	-2.778007e-09	-4.828422e+00	-1.840132e+02
7.900000e-07	-5.375113e-07	-2.608365e-09	-3.743421e+00	-1.727990e+02
8.000000e-07	-3.815591e-07	-2.432022e-09	-2.657314e+00	-1.612107e+02
8.100000e-07	-2.254301e-07	-2.248173e-09	-1.569976e+00	-1.492227e+02
8.200000e-07	-6.912574e-08	-2.056478e-09	-4.814164e-01	-1.367957e+02
8.300000e-07	8.723277e-08	-1.857628e-09	6.075203e-01	-1.238772e+02
8.400000e-07	2.435592e-07	-1.653270e-09	1.696233e+00	-1.104047e+02
8.500000e-07	3.998254e-07	-1.438140e-09	2.784527e+00	-9.631070e+01
8.600000e-07	5.559923e-07	-1.211592e-09	3.872129e+00	-8.153029e+01
8.700000e-07	7.119877e-07	-9.761560e-10	4.958537e+00	-6.600916e+01
8.800000e-07	8.677428e-07	-7.305346e-10	6.043272e+00	-4.971264e+01
8.900000e-07	1.023167e-06	-4.747459e-10	7.125705e+00	-3.263380e+01
9.000000e-07	1.178198e-06	-2.087401e-10	8.205391e+00	-1.479997e+01
9.100000e-07	1.332835e-06	6.548690e-11	9.282340e+00	3.723314e+00
9.200000e-07	1.487031e-06	3.513103e-10	1.035622e+01	2.283155e+01
9.300000e-07	1.640623e-06	6.531199e-10	1.142588e+01	4.238405e+01
9.400000e-07	1.793538e-06	9.647427e-10	1.249084e+01	6.221005e+01
9.500000e-07	1.945771e-06	1.276801e-09	1.355105e+01	8.211790e+01
9.600000e-07	2.097263e-06	1.582741e-09	1.460609e+01	1.019062e+02
9.700000e-07	2.248001e-06	1.878611e-09	1.565589e+01	1.213761e+02
9.800000e-07	2.397910e-06	2.162284e-09	1.669990e+01	1.403436e+02
9.900000e-07	2.546868e-06	2.433432e-09	1.773730e+01	1.586497e+02
1.000000e-06	2.694893e-06	2.693154e-09	1.876820e+01	1.761696e+02
1.010000e-06	2.841918e-06	2.941594e-09	1.979214e+01	1.928169e+02
1.020000e-06	2.987877e-06	3.176385e-09	2.080864e+01	2.085459e+02
1.030000e-06	3.132774e-06	3.399563e-09	2.181776e+01	2.233495e+02
1.040000e-06	3.276520e-06	3.611560e-09	2.281886e+01	2.372537e+02
1.050000e-06	3.419028e-06	3.811377e-09	2.381133e+01	2.503104e+02
1.060000e-06	3.560204e-06	3.998694e-09	2.479453e+01	2.625883e+02
1.070000e-06	3.699991e-06	4.174014e-09	2.576806e+01	2.741637e+02
1.080000e-06	3.838347e-06	4.341498e-09	2.673162e+01	2.851119e+02
1.090000e-06	3.975204e-06	4.502426e-09	2.768474e+01	2.955000e+02
1.100000e-06	4.110569e-06	4.655016e-09	2.862747e+01	3.053824e+02
1.110000e-06	4.244496e-06	4.798703e-09	2.956019e+01	3.147984e+02
1.120000e-06	4.376972e-06	4.934681e-09	3.048280e+01	3.237729e+02
1.130000e-06	4.507906e-06	5.066541e-09	3.139467e+01	3.323186e+02
1.140000e-06	4.637168e-06	5.192552e-09	3.229490e+01	3.404399e+02
1.150000e-06	4.764807e-06	5.309011e-09	3.318382e+01	3.481381e+02
1.160000e-06	4.890884e-06	5.416114e-09	3.406186e+01	3.554158e+02
1.170000e-06	5.015293e-06	5.515448e-09	3.492830e+01	3.622811e+02
1.180000e-06	5.137931e-06	5.609722e-09	3.578239e+01	3.687498e+02
1.190000e-06	5.258733e-06	5.699613e-09	3.662370e+01	3.748469e+02
1.200000e-06	5.377644e-06	5.786573e-09	3.745184e+01	3.806057e+02
1.210000e-06	5.494530e-06	5.870899e-09	3.826587e+01	3.860652e+02
1.220000e-06	5.609277e-06	5.953336e-09	3.906502e+01	3.912672e+02
1.230000e-06	5.721832e-06	6.032370e-09	3.984888e+01	3.962523e+02
1.240000e-06	5.832244e-06	6.107168e-09	4.061784e+01	4.010562e+02
1.250000e-06	5.940650e-06	6.179816e-09	4.137281e+01	4.057068e+02
1.260000e-06	6.046955e-06	6.248492e-09	4.211316e+01	4.102222e+02
1.270000e-06	6.150973e-06	6.314903e-09	4.283758e+01	4.146099e+02
1.280000e-06	6.252731e-06	6.378531e-09	4.354626e+01	4.188683e+02
1.290000e-06	6.352206e-06	6.437976e-09	4.423904e+01	4.229880e+02
1.300000e-06	6.449198e-06	6.496193e-09	4.491453e+01	4.269553e+02
1.310000e-06	6.543728e-06	6.552720e-09	4.557286e+01	4.307551e+02
1.320000e-06	6.635993e-06	6.605836e-09	4.621543e+01	4.343743e+02
1.330000e-06	6.725991e-06	6.654359e-09	4.684221e+01	4.378043e+02
1.340000e-06	6.813568e-06	6.700981e-09	4.745213e+01	4.410426e+02
1.350000e-06	6.898751e-06	6.745582e-09	4.804537e+01	4.440935e+02
1.360000e-06	6.981565e-06	6.787313e-09	4.862212e+01	4.469673e+02
1.370000e-06	7.061842e-06	6.828904e-09	4.918119e+01	4.496791e+02
1.380000e-06	7.139486e-06	6.870155e-09	4.972194e+01	4.522459e+02
1.390000e-06	7.214465e-06	6.907851e-09	5.024412e+01	4.546848e+02
1.400000e-06	7.286799e-06	6.943152e-09	5.074788e+01	4.570102e+02
1.410000e-06	7.356572e-06	6.976678e-09	5.123380e+01	4.592323e+02
1.420000e-06	7.423703e-06	7.007767e-09	5.170133e+01	4.613558e+02
1.430000e-06	7.488110e-06	7.035290e-09	5.214988e+01	4.633800e+02
1.440000e-06	7.549949e-06	7.060040e-09	5.258055e+01	4.652997e+02
1.450000e-06	7.609259e-06	7.085149e-09	5.299360e+01	4.671065e+02
1.460000e-06	7.665848e-06	7.109650e-09	5.338771e+01	4.687912e+02
1.470000e-06	7.719617e-06	7.131474e-09	5.376218e+01	4.703455e+02
1.480000e-06	7.770377e-06	7.152466e-09	5.411569e+01	4.717644e+02
1.490000e-06	7.818023e-06	7.172855e-09	5.444751e+01	4.730471e+02
1.500000e-06	7.862856e-06	7.191101e-09	5.475975e+01	4.741978e+02
1.510000e-06	7.904916e-06	7.207409e-09	5.505267e+01	4.752255e+02
1.520000e-06	7.944080e-06	7.220664e-09	5.532542e+01	4.761429e+02
1.530000e-06	7.980502e-06	7.232250e-09	5.557907e+01	4.769645e+02
1.540000e-06	8.014157e-06	7.243610e-09	5.581346e+01	4.777051e+02
1.550000e-06	8.044961e-06	7.255525e-09	5.602799e+01	4.783774e+02
1.560000e-06	8.072928e-06	7.266572e-09	5.622276e+01	4.789905e+02
1.570000e-06	8.097914e-06	7.274368e-09	5.639677e+01	4.795490e+02
1.580000e-06	8.119892e-06	7.280179e-09	5.654983e+01	4.800523e+02
1.590000e-06	8.139017e-06	7.288055e-09	5.668303e+01	4.804954e+02
1.600000e-06	8.155231e-06	7.296697e-09	5.679595e+01	4.808695e+02
1.610000e-06	8.168372e-06	7.302853e-09	5.688747e+01	4.811646e+02
1.620000e-06	8.178353e-06	7.305833e-09	5.695698e+01	4.813702e+02
1.630000e-06	8.185275e-06	7.306107e-09	5.700518e+01	4.814784e+02
1.640000e-06	8.189356e-06	7.306340e-09	5.703361e+01	4.814844e+02
1.650000e-06	8.190489e-06	7.308185e-09	5.704150e+01	4.813883e+02
1.660000e-06	8.188744e-06	7.306742e-09	5.702934e+01	4.811947e+02
1.670000e-06	8.184413e-06	7.301895e-09	5.699919e+01	4.809129e+02
1.680000e-06	8.177346e-06	7.301411e-09	5.694997e+01	4.805551e+02
1.690000e-06	8.167480e-06	7.299446e-09	5.688126e+01	4.801354e+02
1.700000e-06	8.154751e-06	7.296293e-09	5.679260e+01	4.796679e+02
1.710000e-06	8.139180e-06	7.294590e-09	5.668416e+01	4.791646e+02
1.720000e-06	8.121125e-06	7.296315e-09	5.655842e+01	4.786346e+02
1.730000e-06	8.100737e-06	7.289001e-09	5.641643e+01	4.780824e+02
1.740000e-06	8.077521e-06	7.225638e-09	5.625475e+01	4.775079e+02
1.750000e-06	8.050662e-06	7.198669e-09	5.606769e+01	4.769069e+02
1.760000e-06	8.019997e-06	7.221009e-09	5.585413e+01	4.762712e+02
1.770000e-06	7.986246e-06	7.215064e-09	5.561908e+01	4.755905e+02
1.780000e-06	7.950185e-06	7.218945e-09	5.536794e+01	4.748532e+02
1.790000e-06	7.911812e-06	7.269916e-09	5.510069e+01	4.740480e+02
1.800000e-06	7.871301e-06	7.244986e-09	5.481856e+01	4.731651e+02
1.810000e-06	7.828655e-06	7.157272e-09	5.452155e+01	4.721969e+02
1.820000e-06	7.783199e-06	7.202095e-09	5.420498e+01	4.711383e+02
1.830000e-06	7.734991e-06	7.167646e-09	5.386925e+01	4.699866e+02
1.840000e-06	7.683850e-06	7.167210e-09	5.351308e+01	4.687413e+02
1.850000e-06	7.629498e-06	7.188414e-09	5.313456e+01	4.674034e+02
1.860000e-06	7.572425e-06	7.124535e-09	5.273708e+01	4.659743e+02
1.870000e-06	7.512684e-06	7.121297e-09	5.232102e+01	4.644558e+02
1.880000e-06	7.450191e-06	7.019225e-09	5.188580e+01	4.628490e+02
1.890000e-06	7.384884e-06	7.039961e-09	5.143098e+01	4.611545e+02
1.900000e-06	7.316710e-06	7.052587e-09	5.095619e+01	4.593720e+02
1.910000e-06	7.245644e-06	6.968870e-09	5.046126e+01	4.575012e+02
1.920000e-06	7.171679e-06	6.985253e-09	4.994614e+01	4.555413e+02
1.930000e-06	7.094993e-06	6.932874e-09	4.941207e+01	4.534921e+02
1.940000e-06	7.015517e-06	6.906201e-09	4.885857e+01	4.513541e+02
1.950000e-06	6.933399e-06	6.850236e-09	4.828667e+01	4.491281e+02
1.960000e-06	6.848772e-06	6.817993e-09	4.769730e+01	4.468157e+02
1.970000e-06	6.761491e-06	6.796118e-09	4.708945e+01	4.444186e+02
1.980000e-06	6.671731e-06	6.727994e-09	4.646432e+01	4.419382e+02
1.990000e-06	6.579703e-06	6.729454e-09	4.582341e+01	4.393749e+02
2.000000e-06	6.485424e-06	6.691686e-09	4.516682e+01	4.367279e+02
2.010000e-06	6.388797e-06	6.653999e-09	4.449387e+01	4.339946e+02
2.020000e-06	6.289963e-06	6.576026e-09	4.380555e+01	4.311706e+02
2.030000e-06	6.188827e-06	6.531298e-09	4.310121e+01	4.282505e+02
2.040000e-06	6.085263e-06	6.501719e-09	4.237995e+01	4.252277e+02
2.050000e-06	5.979563e-06	6.460198e-09	4.164382e+01	4.220961e+02
2.060000e-06	5.871942e-06	6.428472e-09	4.089431e+01	4.188502e+02
2.070000e-06	5.762415e-06	6.362177e-09	4.013152e+01	4.154867e+02
2.080000e-06	5.650728e-06	6.295335e-09	3.935369e+01	4.120042e+02
2.090000e-06	5.536896e-06	6.220885e-09	3.856093e+01	4.084040e+02
2.100000e-06	5.420988e-06	6.177028e-09	3.775370e+01	4.046896e+02
2.110000e-06	5.303014e-06	6.131652e-09	3.693209e+01	4.008657e+02
2.120000e-06	5.182982e-06	6.084867e-09	3.609614e+01	3.969377e+02
2.130000e-06	5.061057e-06	6.016194e-09	3.524701e+01	3.929096e+02
2.140000e-06	4.937375e-06	5.948742e-09	3.438565e+01	3.887833e+02
2.150000e-06	4.811913e-06	5.883730e-09	3.351189e+01	3.845572e+02
2.160000e-06	4.684598e-06	5.819468e-09	3.262522e+01	3.802255e+02
2.170000e-06	4.555520e-06	5.755225e-09	3.172627e+01	3.757781e+02
2.180000e-06	4.424886e-06	5.680434e-09	3.081649e+01	3.712016e+02
2.190000e-06	4.292658e-06	5.611198e-09	2.989561e+01	3.664797e+02
2.200000e-06	4.158831e-06	5.534696e-09	2.896359e+01	3.615953e+02
2.210000e-06	4.023380e-06	5.457697e-09	2.802026e+01	3.565323e+02
2.220000e-06	3.886348e-06	5.377129e-09	2.706592e+01	3.512768e+02
2.230000e-06	3.747758e-06	5.297144e-09	2.610073e+01	3.458195e+02
2.240000e-06	3.607804e-06	5.205318e-09	2.512604e+01	3.401553e+02
2.250000e-06	3.466493e-06	5.116321e-09	2.414190e+01	3.342841e+02
2.260000e-06	3.323810e-06	5.032385e-09	2.314820e+01	3.282099e+02
2.270000e-06	3.179783e-06	4.945583e-09	2.214515e+01	3.219389e+02
2.280000e-06	3.034555e-06	4.842403e-09	2.113373e+01	3.154775e+02
2.290000e-06	2.888261e-06	4.728935e-09	2.011488e+01	3.088305e+02
2.300000e-06	2.740915e-06	4.623377e-09	1.908872e+01	3.019983e+02
2.310000e-06	2.592697e-06	4.523200e-09	1.805647e+01	2.949757e+02
2.320000e-06	2.443680e-06	4.421595e-09	1.701866e+01	2.877509e+02
2.330000e-06	2.293907e-06	4.312766e-09	1.597559e+01	2.803060e+02
2.340000e-06	2.143310e-06	4.194066e-09	1.492678e+01	2.726176e+02
2.350000e-06	1.991888e-06	4.065441e-09	1.387222e+01	2.646595e+02
2.360000e-06	1.839754e-06	3.934564e-09	1.281271e+01	2.564048e+02
2.370000e-06	1.686966e-06	3.806575e-09	1.174863e+01	2.478289e+02
2.380000e-06	1.533632e-06	3.677822e-09	1.068076e+01	2.389121e+02
2.390000e-06	1.379889e-06	3.540295e-09	9.610042e+00	2.296406e+02
2.400000e-06	1.225732e-06	3.393361e-09	8.536435e+00	2.200076e+02
2.410000e-06	1.071089e-06	3.242260e-09	7.459445e+00	2.100120e+02
2.420000e-06	9.160270e-07	3.087617e-09	6.379540e+00	1.996564e+02
2.430000e-06	7.607127e-07	2.924342e-09	5.297876e+00	1.889434e+02
2.440000e-06	6.051972e-07	2.753214e-09	4.214810e+00	1.778718e+02
2.450000e-06	4.494244e-07	2.576231e-09	3.129952e+00	1.664326e+02
2.460000e-06	2.934415e-07	2.396781e-09	2.043631e+00	1.546054e+02
2.470000e-06	1.373841e-07	2.212031e-09	9.567920e-01	1.423562e+02
2.480000e-06	-1.874342e-08	2.015865e-09	-1.305359e-01	1.296376e+02
2.490000e-06	-1.748897e-07	1.809671e-09	-1.217994e+00	1.163904e+02
2.500000e-06	-3.309710e-07	1.593271e-09	-2.305001e+00	1.025485e+02
2.510000e-06	-4.869812e-07	1.368312e-09	-3.391512e+00	8.804482e+01
2.520000e-06	-6.429157e-07	1.136540e-09	-4.477496e+00	7.281991e+01
2.530000e-06	-7.986584e-07	8.960323e-10	-5.562143e+00	5.683035e+01
2.540000e-06	-9.541543e-07	6.435630e-10	-6.645073e+00	4.005741e+01
2.550000e-06	-1.109336e-06	3.762827e-10	-7.725812e+00	2.251434e+01
2.560000e-06	-1.264026e-06	9.456409e-11	-8.803129e+00	4.251402e+00
2.570000e-06	-1.418210e-06	-1.964572e-10	-9.876921e+00	-1.464210e+01
2.580000e-06	-1.571943e-06	-4.911578e-10	-1.094758e+01	-3.403913e+01
2.590000e-06	-1.725140e-06	-7.888329e-10	-1.201449e+01	-5.377980e+01
2.600000e-06	-1.877692e-06	-1.092422e-09	-1.307692e+01	-7.367943e+01
2.610000e-06	-2.029523e-06	-1.401417e-09	-1.413432e+01	-9.353902e+01
2.620000e-06	-2.180538e-06	-1.709245e-09	-1.518605e+01	-1.131573e+02
2.630000e-06	-2.330699e-06	-2.008528e-09	-1.623182e+01	-1.323428e+02
2.640000e-06	-2.479921e-06	-2.294725e-09	-1.727106e+01	-1.509259e+02
2.650000e-06	-2.628203e-06	-2.566156e-09	-1.830375e+01	-1.687673e+02
2.660000e-06	-2.775550e-06	-2.823444e-09	-1.932993e+01	-1.857653e+02
2.670000e-06	-2.921854e-06	-3.066391e-09	-2.034884e+01	-2.018582e+02
2.680000e-06	-3.067110e-06	-3.296455e-09	-2.136046e+01	-2.170242e+02
2.690000e-06	-3.211215e-06	-3.514972e-09	-2.236405e+01	-2.312769e+02
2.700000e-06	-3.354052e-06	-3.721829e-09	-2.335882e+01	-2.446592e+02
2.710000e-06	-3.495598e-06	-3.918203e-09	-2.434459e+01	-2.572344e+02
2.720000e-06	-3.635774e-06	-4.103467e-09	-2.532083e+01	-2.690768e+02
2.730000e-06	-3.774548e-06	-4.277035e-09	-2.628730e+01	-2.802630e+02
2.740000e-06	-3.911907e-06	-4.437698e-09	-2.724392e+01	-2.908641e+02
2.750000e-06	-4.047861e-06	-4.590307e-09	-2.819076e+01	-3.009398e+02
2.760000e-06	-4.182376e-06	-4.738490e-09	-2.912756e+01	-3.105355e+02
2.770000e-06	-4.315410e-06	-4.878921e-09	-3.005406e+01	-3.196815e+02
2.780000e-06	-4.446914e-06	-5.010756e-09	-3.096990e+01	-3.283950e+02
2.790000e-06	-4.576921e-06	-5.134907e-09	-3.187531e+01	-3.366830e+02
2.800000e-06	-4.705474e-06	-5.253582e-09	-3.277061e+01	-3.445475e+02
2.810000e-06	-4.832377e-06	-5.368083e-09	-3.365441e+01	-3.519900e+02
2.820000e-06	-4.957512e-06	-5.478622e-09	-3.452589e+01	-3.590160e+02
2.830000e-06	-5.080936e-06	-5.583432e-09	-3.538546e+01	-3.656382e+02
2.840000e-06	-5.202587e-06	-5.680873e-09	-3.623268e+01	-3.718780e+02
2.850000e-06	-5.322298e-06	-5.770367e-09	-3.706639e+01	-3.777655e+02
2.860000e-06	-5.439923e-06	-5.854102e-09	-3.788557e+01	-3.833378e+02
2.870000e-06	-5.555346e-06	-5.935657e-09	-3.868942e+01	-3.886362e+02
2.880000e-06	-5.668510e-06	-6.014350e-09	-3.947754e+01	-3.937020e+02
2.890000e-06	-5.779443e-06	-6.087587e-09	-4.025011e+01	-3.985735e+02
2.900000e-06	-5.888256e-06	-6.158203e-09	-4.100793e+01	-4.032818e+02
2.910000e-06	-5.995074e-06	-6.229930e-09	-4.175184e+01	-4.078490e+02
2.920000e-06	-6.099724e-06	-6.300736e-09	-4.248066e+01	-4.122868e+02
2.930000e-06	-6.202040e-06	-6.368293e-09	-4.319323e+01	-4.165970e+02
2.940000e-06	-6.302071e-06	-6.431727e-09	-4.388988e+01	-4.207728e+02
