# Temperatura_=_52.91
# Concentracion g/m^3_=_15000.0
# C_Vs_to_Am_M_A/Vsm_=_65563218390.804596
# pendiente_HvsI_1/m_=_3716.3
# ordenada_HvsI_A/m_=_1297.0
# frecuencia_Hz_=_302319.7061398445

Tiempo_(s)	Campo_(V.s)	Magnetizacion_(V.s)	Campo_(kA/m)	Magnetizacion_(A/m)
0.000000e+00	-8.236468e-06	-7.174256e-09	-5.692475e+01	-4.688439e+02
1.000000e-08	-8.233596e-06	-7.175176e-09	-5.690490e+01	-4.686237e+02
2.000000e-08	-8.228074e-06	-7.171009e-09	-5.686673e+01	-4.683211e+02
3.000000e-08	-8.219910e-06	-7.163446e-09	-5.681031e+01	-4.679486e+02
4.000000e-08	-8.208782e-06	-7.156633e-09	-5.673340e+01	-4.675198e+02
5.000000e-08	-8.194614e-06	-7.148115e-09	-5.663549e+01	-4.670477e+02
6.000000e-08	-8.177573e-06	-7.137508e-09	-5.651770e+01	-4.665428e+02
7.000000e-08	-8.158092e-06	-7.124678e-09	-5.638307e+01	-4.660126e+02
8.000000e-08	-8.136287e-06	-7.118037e-09	-5.623237e+01	-4.654600e+02
9.000000e-08	-8.111550e-06	-7.140730e-09	-5.606140e+01	-4.648838e+02
1.000000e-07	-8.083501e-06	-7.149410e-09	-5.586755e+01	-4.642789e+02
1.100000e-07	-8.052277e-06	-7.117610e-09	-5.565175e+01	-4.636371e+02
1.200000e-07	-8.018045e-06	-7.087182e-09	-5.541516e+01	-4.629483e+02
1.300000e-07	-7.981071e-06	-7.060277e-09	-5.515962e+01	-4.622019e+02
1.400000e-07	-7.941688e-06	-7.020696e-09	-5.488743e+01	-4.613881e+02
1.500000e-07	-7.899901e-06	-6.980162e-09	-5.459863e+01	-4.604982e+02
1.600000e-07	-7.855581e-06	-7.024519e-09	-5.429232e+01	-4.595261e+02
1.700000e-07	-7.808434e-06	-7.033679e-09	-5.396647e+01	-4.584676e+02
1.800000e-07	-7.758351e-06	-6.969081e-09	-5.362033e+01	-4.573208e+02
1.900000e-07	-7.705384e-06	-6.987919e-09	-5.325426e+01	-4.560850e+02
2.000000e-07	-7.649480e-06	-6.952242e-09	-5.286790e+01	-4.547607e+02
2.100000e-07	-7.590795e-06	-6.893892e-09	-5.246230e+01	-4.533484e+02
2.200000e-07	-7.529456e-06	-6.878459e-09	-5.203837e+01	-4.518484e+02
2.300000e-07	-7.465449e-06	-6.860446e-09	-5.159600e+01	-4.502601e+02
2.400000e-07	-7.398581e-06	-6.836235e-09	-5.113385e+01	-4.485827e+02
2.500000e-07	-7.328844e-06	-6.784010e-09	-5.065188e+01	-4.468144e+02
2.600000e-07	-7.256239e-06	-6.792442e-09	-5.015009e+01	-4.449540e+02
2.700000e-07	-7.180702e-06	-6.787086e-09	-4.962803e+01	-4.430002e+02
2.800000e-07	-7.102345e-06	-6.726219e-09	-4.908648e+01	-4.409530e+02
2.900000e-07	-7.021240e-06	-6.680908e-09	-4.852594e+01	-4.388135e+02
3.000000e-07	-6.937661e-06	-6.666168e-09	-4.794829e+01	-4.365840e+02
3.100000e-07	-6.851746e-06	-6.638544e-09	-4.735451e+01	-4.342678e+02
3.200000e-07	-6.763293e-06	-6.580703e-09	-4.674319e+01	-4.318689e+02
3.300000e-07	-6.672326e-06	-6.554499e-09	-4.611449e+01	-4.293910e+02
3.400000e-07	-6.579010e-06	-6.516524e-09	-4.546955e+01	-4.268370e+02
3.500000e-07	-6.483345e-06	-6.451325e-09	-4.480838e+01	-4.242083e+02
3.600000e-07	-6.385305e-06	-6.405546e-09	-4.413080e+01	-4.215045e+02
3.700000e-07	-6.284914e-06	-6.381520e-09	-4.343696e+01	-4.187228e+02
3.800000e-07	-6.182193e-06	-6.350836e-09	-4.272702e+01	-4.158589e+02
3.900000e-07	-6.077216e-06	-6.293751e-09	-4.200150e+01	-4.129065e+02
4.000000e-07	-5.970110e-06	-6.241858e-09	-4.126126e+01	-4.098592e+02
4.100000e-07	-5.860986e-06	-6.195122e-09	-4.050706e+01	-4.067104e+02
4.200000e-07	-5.749784e-06	-6.143928e-09	-3.973851e+01	-4.034545e+02
4.300000e-07	-5.636334e-06	-6.089474e-09	-3.895443e+01	-4.000875e+02
4.400000e-07	-5.520657e-06	-6.039477e-09	-3.815495e+01	-3.966074e+02
4.500000e-07	-5.402954e-06	-5.988846e-09	-3.734147e+01	-3.930140e+02
4.600000e-07	-5.283272e-06	-5.932745e-09	-3.651431e+01	-3.893083e+02
4.700000e-07	-5.161719e-06	-5.874461e-09	-3.567422e+01	-3.854920e+02
4.800000e-07	-5.038381e-06	-5.814732e-09	-3.482179e+01	-3.815663e+02
4.900000e-07	-4.913221e-06	-5.755036e-09	-3.395677e+01	-3.775310e+02
5.000000e-07	-4.786257e-06	-5.685394e-09	-3.307928e+01	-3.733837e+02
5.100000e-07	-4.657565e-06	-5.610961e-09	-3.218986e+01	-3.691192e+02
5.200000e-07	-4.527162e-06	-5.544874e-09	-3.128860e+01	-3.647295e+02
5.300000e-07	-4.395045e-06	-5.484393e-09	-3.037550e+01	-3.602044e+02
5.400000e-07	-4.261390e-06	-5.412393e-09	-2.945177e+01	-3.555319e+02
5.500000e-07	-4.126137e-06	-5.330473e-09	-2.851700e+01	-3.507000e+02
5.600000e-07	-3.989198e-06	-5.254446e-09	-2.757057e+01	-3.456976e+02
5.700000e-07	-3.850662e-06	-5.180937e-09	-2.661310e+01	-3.405154e+02
5.800000e-07	-3.710544e-06	-5.095595e-09	-2.564470e+01	-3.351475e+02
5.900000e-07	-3.568838e-06	-5.008226e-09	-2.466533e+01	-3.295909e+02
6.000000e-07	-3.425697e-06	-4.924995e-09	-2.367604e+01	-3.238456e+02
6.100000e-07	-3.281314e-06	-4.833271e-09	-2.267817e+01	-3.179137e+02
6.200000e-07	-3.135758e-06	-4.734039e-09	-2.167218e+01	-3.117978e+02
6.300000e-07	-2.989068e-06	-4.640155e-09	-2.065837e+01	-3.054991e+02
6.400000e-07	-2.841296e-06	-4.552646e-09	-1.963706e+01	-2.990160e+02
6.500000e-07	-2.692598e-06	-4.453235e-09	-1.860937e+01	-2.923428e+02
6.600000e-07	-2.543039e-06	-4.340933e-09	-1.757572e+01	-2.854681e+02
6.700000e-07	-2.392633e-06	-4.227719e-09	-1.653622e+01	-2.783756e+02
6.800000e-07	-2.241396e-06	-4.115474e-09	-1.549097e+01	-2.710440e+02
6.900000e-07	-2.089362e-06	-3.998231e-09	-1.444022e+01	-2.634491e+02
7.000000e-07	-1.936599e-06	-3.875900e-09	-1.338443e+01	-2.555657e+02
7.100000e-07	-1.783167e-06	-3.751576e-09	-1.232401e+01	-2.473701e+02
7.200000e-07	-1.629119e-06	-3.621193e-09	-1.125934e+01	-2.388420e+02
7.300000e-07	-1.474480e-06	-3.486408e-09	-1.019058e+01	-2.299666e+02
7.400000e-07	-1.319275e-06	-3.348758e-09	-9.117916e+00	-2.207349e+02
7.500000e-07	-1.163602e-06	-3.205080e-09	-8.042009e+00	-2.111439e+02
7.600000e-07	-1.007612e-06	-3.053192e-09	-6.963916e+00	-2.011944e+02
7.700000e-07	-8.512913e-07	-2.895415e-09	-5.883535e+00	-1.908888e+02
7.800000e-07	-6.946903e-07	-2.732727e-09	-4.801217e+00	-1.802271e+02
7.900000e-07	-5.378714e-07	-2.564107e-09	-3.717393e+00	-1.692034e+02
8.000000e-07	-3.808182e-07	-2.389369e-09	-2.631951e+00	-1.578025e+02
8.100000e-07	-2.235687e-07	-2.206857e-09	-1.545152e+00	-1.459971e+02
8.200000e-07	-6.620753e-08	-2.017736e-09	-4.575805e-01	-1.337473e+02
8.300000e-07	9.125991e-08	-1.823184e-09	6.307251e-01	-1.210010e+02
8.400000e-07	2.487621e-07	-1.622368e-09	1.719271e+00	-1.076977e+02
8.500000e-07	4.061488e-07	-1.411193e-09	2.807018e+00	-9.377361e+01
8.600000e-07	5.634160e-07	-1.188052e-09	3.893940e+00	-7.916841e+01
8.700000e-07	7.205412e-07	-9.544106e-10	4.979881e+00	-6.383352e+01
8.800000e-07	8.774230e-07	-7.108346e-10	6.064138e+00	-4.774033e+01
8.900000e-07	1.034024e-06	-4.588975e-10	7.146457e+00	-3.088774e+01
9.000000e-07	1.190291e-06	-1.967780e-10	8.226466e+00	-1.330805e+01
9.100000e-07	1.346157e-06	7.414572e-11	9.303703e+00	4.929664e+00
9.200000e-07	1.501534e-06	3.556990e-10	1.037756e+01	2.371922e+01
9.300000e-07	1.656379e-06	6.525298e-10	1.144774e+01	4.292031e+01
9.400000e-07	1.810575e-06	9.585372e-10	1.251344e+01	6.236471e+01
9.500000e-07	1.964004e-06	1.263812e-09	1.357383e+01	8.186519e+01
9.600000e-07	2.116730e-06	1.562759e-09	1.462937e+01	1.012264e+02
9.700000e-07	2.268705e-06	1.852306e-09	1.567972e+01	1.202564e+02
9.800000e-07	2.419750e-06	2.131201e-09	1.672363e+01	1.387785e+02
9.900000e-07	2.569833e-06	2.397024e-09	1.776090e+01	1.566410e+02
1.000000e-06	2.719009e-06	2.648933e-09	1.879190e+01	1.737252e+02
1.010000e-06	2.867176e-06	2.889391e-09	1.981593e+01	1.899499e+02
1.020000e-06	3.014218e-06	3.118336e-09	2.083218e+01	2.052727e+02
1.030000e-06	3.160120e-06	3.337152e-09	2.184056e+01	2.196882e+02
1.040000e-06	3.304904e-06	3.545271e-09	2.284120e+01	2.332226e+02
1.050000e-06	3.448476e-06	3.740037e-09	2.383347e+01	2.459265e+02
1.060000e-06	3.590690e-06	3.922079e-09	2.481635e+01	2.578666e+02
1.070000e-06	3.731503e-06	4.094025e-09	2.578956e+01	2.691163e+02
1.080000e-06	3.870932e-06	4.259276e-09	2.675319e+01	2.797482e+02
1.090000e-06	4.008941e-06	4.416704e-09	2.770702e+01	2.898269e+02
1.100000e-06	4.145412e-06	4.562910e-09	2.865021e+01	2.994050e+02
1.110000e-06	4.280347e-06	4.699888e-09	2.958279e+01	3.085210e+02
1.120000e-06	4.413773e-06	4.831917e-09	3.050494e+01	3.171996e+02
1.130000e-06	4.545627e-06	4.960519e-09	3.141622e+01	3.254544e+02
1.140000e-06	4.675843e-06	5.080893e-09	3.231618e+01	3.332914e+02
1.150000e-06	4.804454e-06	5.191332e-09	3.320505e+01	3.407138e+02
1.160000e-06	4.931359e-06	5.294842e-09	3.408213e+01	3.477263e+02
1.170000e-06	5.056531e-06	5.393036e-09	3.494723e+01	3.543389e+02
1.180000e-06	5.180045e-06	5.486668e-09	3.580088e+01	3.605692e+02
1.190000e-06	5.301774e-06	5.574636e-09	3.664218e+01	3.664432e+02
1.200000e-06	5.421592e-06	5.658339e-09	3.747028e+01	3.719944e+02
1.210000e-06	5.539368e-06	5.740048e-09	3.828427e+01	3.772616e+02
1.220000e-06	5.655037e-06	5.819420e-09	3.908369e+01	3.822858e+02
1.230000e-06	5.768497e-06	5.895236e-09	3.986784e+01	3.871060e+02
1.240000e-06	5.879680e-06	5.967809e-09	4.063627e+01	3.917563e+02
1.250000e-06	5.988778e-06	6.037798e-09	4.139028e+01	3.962627e+02
1.260000e-06	6.095817e-06	6.104944e-09	4.213005e+01	4.006411e+02
1.270000e-06	6.200598e-06	6.169613e-09	4.285423e+01	4.048975e+02
1.280000e-06	6.303122e-06	6.232621e-09	4.356281e+01	4.090285e+02
1.290000e-06	6.403359e-06	6.291635e-09	4.425557e+01	4.130233e+02
1.300000e-06	6.501105e-06	6.346493e-09	4.493112e+01	4.168671e+02
1.310000e-06	6.596357e-06	6.399064e-09	4.558944e+01	4.205440e+02
1.320000e-06	6.689300e-06	6.448733e-09	4.623180e+01	4.240404e+02
1.330000e-06	6.779928e-06	6.496598e-09	4.685816e+01	4.273475e+02
1.340000e-06	6.868105e-06	6.543078e-09	4.746757e+01	4.304626e+02
1.350000e-06	6.953854e-06	6.587609e-09	4.806021e+01	4.333905e+02
1.360000e-06	7.037187e-06	6.630302e-09	4.863615e+01	4.361420e+02
1.370000e-06	7.117988e-06	6.671827e-09	4.919459e+01	4.387328e+02
1.380000e-06	7.196196e-06	6.710482e-09	4.973511e+01	4.411811e+02
1.390000e-06	7.271725e-06	6.743640e-09	5.025712e+01	4.435052e+02
1.400000e-06	7.344505e-06	6.773075e-09	5.076012e+01	4.457210e+02
1.410000e-06	7.414673e-06	6.801998e-09	5.124507e+01	4.478402e+02
1.420000e-06	7.482327e-06	6.830592e-09	5.171265e+01	4.498690e+02
1.430000e-06	7.547265e-06	6.857098e-09	5.216146e+01	4.518081e+02
1.440000e-06	7.609476e-06	6.882293e-09	5.259142e+01	4.536535e+02
1.450000e-06	7.669183e-06	6.908665e-09	5.300407e+01	4.553974e+02
1.460000e-06	7.726221e-06	6.933396e-09	5.339827e+01	4.570310e+02
1.470000e-06	7.780421e-06	6.954717e-09	5.377287e+01	4.585458e+02
1.480000e-06	7.831576e-06	6.974572e-09	5.412641e+01	4.599358e+02
1.490000e-06	7.879531e-06	6.993246e-09	5.445785e+01	4.611992e+02
1.500000e-06	7.924570e-06	7.010466e-09	5.476913e+01	4.623385e+02
1.510000e-06	7.966793e-06	7.026293e-09	5.506094e+01	4.633609e+02
1.520000e-06	8.006139e-06	7.040590e-09	5.533287e+01	4.642771e+02
1.530000e-06	8.042761e-06	7.053382e-09	5.558598e+01	4.650998e+02
1.540000e-06	8.076573e-06	7.065334e-09	5.581966e+01	4.658422e+02
1.550000e-06	8.107456e-06	7.076780e-09	5.603311e+01	4.665160e+02
1.560000e-06	8.135536e-06	7.086551e-09	5.622717e+01	4.671295e+02
1.570000e-06	8.160638e-06	7.094242e-09	5.640066e+01	4.676869e+02
1.580000e-06	8.182746e-06	7.101581e-09	5.655346e+01	4.681880e+02
1.590000e-06	8.202001e-06	7.110022e-09	5.668654e+01	4.686282e+02
1.600000e-06	8.218260e-06	7.118283e-09	5.679891e+01	4.689995e+02
1.610000e-06	8.231449e-06	7.123741e-09	5.689006e+01	4.692925e+02
1.620000e-06	8.241441e-06	7.126963e-09	5.695912e+01	4.694977e+02
1.630000e-06	8.248291e-06	7.128629e-09	5.700646e+01	4.696075e+02
1.640000e-06	8.252275e-06	7.129555e-09	5.703399e+01	4.696176e+02
1.650000e-06	8.253361e-06	7.130750e-09	5.704150e+01	4.695279e+02
1.660000e-06	8.251574e-06	7.128509e-09	5.702915e+01	4.693429e+02
1.670000e-06	8.247073e-06	7.123452e-09	5.699805e+01	4.690712e+02
1.680000e-06	8.239823e-06	7.121003e-09	5.694793e+01	4.687244e+02
1.690000e-06	8.229829e-06	7.117304e-09	5.687887e+01	4.683159e+02
1.700000e-06	8.216990e-06	7.113237e-09	5.679013e+01	4.678591e+02
1.710000e-06	8.201264e-06	7.111739e-09	5.668144e+01	4.673659e+02
1.720000e-06	8.182968e-06	7.113351e-09	5.655499e+01	4.668448e+02
1.730000e-06	8.162299e-06	7.097556e-09	5.641214e+01	4.663007e+02
1.740000e-06	8.138800e-06	7.043502e-09	5.624973e+01	4.657341e+02
1.750000e-06	8.111669e-06	7.026000e-09	5.606222e+01	4.651411e+02
1.760000e-06	8.080729e-06	7.038514e-09	5.584839e+01	4.645147e+02
1.770000e-06	8.046696e-06	7.029380e-09	5.561317e+01	4.638454e+02
1.780000e-06	8.010341e-06	7.035275e-09	5.536192e+01	4.631228e+02
1.790000e-06	7.971697e-06	7.084372e-09	5.509483e+01	4.623364e+02
1.800000e-06	7.930919e-06	7.062049e-09	5.481301e+01	4.614771e+02
1.810000e-06	7.887944e-06	6.992778e-09	5.451599e+01	4.605377e+02
1.820000e-06	7.842090e-06	7.025160e-09	5.419908e+01	4.595133e+02
1.830000e-06	7.793417e-06	6.986708e-09	5.386269e+01	4.584011e+02
1.840000e-06	7.741800e-06	6.977734e-09	5.350595e+01	4.572001e+02
1.850000e-06	7.686992e-06	6.988695e-09	5.312715e+01	4.559104e+02
1.860000e-06	7.629404e-06	6.962504e-09	5.272914e+01	4.545324e+02
1.870000e-06	7.569043e-06	6.971397e-09	5.231197e+01	4.530667e+02
1.880000e-06	7.505903e-06	6.894272e-09	5.187559e+01	4.515130e+02
1.890000e-06	7.439982e-06	6.899974e-09	5.141999e+01	4.498705e+02
1.900000e-06	7.371111e-06	6.874446e-09	5.094400e+01	4.481380e+02
1.910000e-06	7.299323e-06	6.791346e-09	5.044785e+01	4.463137e+02
1.920000e-06	7.224702e-06	6.795201e-09	4.993212e+01	4.443965e+02
1.930000e-06	7.147295e-06	6.771819e-09	4.939714e+01	4.423858e+02
1.940000e-06	7.067081e-06	6.755017e-09	4.884275e+01	4.402821e+02
1.950000e-06	6.984290e-06	6.703884e-09	4.827056e+01	4.380874e+02
1.960000e-06	6.898976e-06	6.669826e-09	4.768093e+01	4.358047e+02
1.970000e-06	6.810995e-06	6.632882e-09	4.707287e+01	4.334376e+02
1.980000e-06	6.720501e-06	6.571743e-09	4.644744e+01	4.309901e+02
1.990000e-06	6.627655e-06	6.564567e-09	4.580575e+01	4.284656e+02
2.000000e-06	6.532550e-06	6.542258e-09	4.514845e+01	4.258660e+02
2.010000e-06	6.435133e-06	6.505846e-09	4.447517e+01	4.231917e+02
2.020000e-06	6.335437e-06	6.430720e-09	4.378614e+01	4.204409e+02
2.030000e-06	6.233415e-06	6.381235e-09	4.308104e+01	4.176098e+02
2.040000e-06	6.129048e-06	6.343803e-09	4.235972e+01	4.146928e+02
2.050000e-06	6.022577e-06	6.300541e-09	4.162387e+01	4.116834e+02
2.060000e-06	5.914116e-06	6.265943e-09	4.087426e+01	4.085750e+02
2.070000e-06	5.803613e-06	6.215095e-09	4.011055e+01	4.053615e+02
2.080000e-06	5.690942e-06	6.160747e-09	3.933184e+01	4.020384e+02
2.090000e-06	5.576092e-06	6.095685e-09	3.853808e+01	3.986027e+02
2.100000e-06	5.459088e-06	6.043860e-09	3.772942e+01	3.950535e+02
2.110000e-06	5.339983e-06	5.993542e-09	3.690625e+01	3.913916e+02
2.120000e-06	5.218889e-06	5.940415e-09	3.606934e+01	3.876183e+02
2.130000e-06	5.096015e-06	5.873907e-09	3.522012e+01	3.837353e+02
2.140000e-06	4.971314e-06	5.815279e-09	3.435827e+01	3.797430e+02
2.150000e-06	4.844698e-06	5.760900e-09	3.348319e+01	3.756400e+02
2.160000e-06	4.716340e-06	5.699068e-09	3.259607e+01	3.714222e+02
2.170000e-06	4.586339e-06	5.627946e-09	3.169759e+01	3.670826e+02
2.180000e-06	4.454673e-06	5.550239e-09	3.078761e+01	3.626119e+02
2.190000e-06	4.321354e-06	5.483495e-09	2.986620e+01	3.579986e+02
2.200000e-06	4.186472e-06	5.414691e-09	2.893399e+01	3.532306e+02
2.210000e-06	4.050020e-06	5.342228e-09	2.799093e+01	3.482962e+02
2.220000e-06	3.911968e-06	5.267007e-09	2.703681e+01	3.431853e+02
2.230000e-06	3.772332e-06	5.187142e-09	2.607174e+01	3.378907e+02
2.240000e-06	3.631205e-06	5.095321e-09	2.509637e+01	3.324082e+02
2.250000e-06	3.488626e-06	5.007427e-09	2.411096e+01	3.267367e+02
2.260000e-06	3.344744e-06	4.926866e-09	2.311655e+01	3.208777e+02
2.270000e-06	3.199641e-06	4.843324e-09	2.211369e+01	3.148336e+02
2.280000e-06	3.053372e-06	4.745526e-09	2.110279e+01	3.086065e+02
2.290000e-06	2.906018e-06	4.639000e-09	2.008438e+01	3.021961e+02
2.300000e-06	2.757573e-06	4.535479e-09	1.905843e+01	2.955984e+02
2.310000e-06	2.608179e-06	4.432284e-09	1.802592e+01	2.888044e+02
2.320000e-06	2.457977e-06	4.327943e-09	1.698783e+01	2.817996e+02
2.330000e-06	2.307014e-06	4.221301e-09	1.594448e+01	2.745644e+02
2.340000e-06	2.155179e-06	4.108252e-09	1.489510e+01	2.670758e+02
2.350000e-06	2.002533e-06	3.987437e-09	1.384012e+01	2.593086e+02
2.360000e-06	1.849235e-06	3.863564e-09	1.278063e+01	2.512381e+02
2.370000e-06	1.695327e-06	3.738510e-09	1.171693e+01	2.428426e+02
2.380000e-06	1.540872e-06	3.608397e-09	1.064944e+01	2.341048e+02
2.390000e-06	1.385901e-06	3.469282e-09	9.578383e+00	2.250135e+02
2.400000e-06	1.230489e-06	3.322875e-09	8.504284e+00	2.155636e+02
2.410000e-06	1.074623e-06	3.174686e-09	7.427051e+00	2.057545e+02
2.420000e-06	9.183482e-07	3.023124e-09	6.346985e+00	1.955884e+02
2.430000e-06	7.617938e-07	2.862972e-09	5.264990e+00	1.850667e+02
2.440000e-06	6.049963e-07	2.695014e-09	4.181314e+00	1.741863e+02
2.450000e-06	4.479894e-07	2.521332e-09	3.096191e+00	1.629359e+02
2.460000e-06	2.908087e-07	2.346794e-09	2.009867e+00	1.512933e+02
2.470000e-06	1.335111e-07	2.166556e-09	9.227360e-01	1.392235e+02
2.480000e-06	-2.388009e-08	1.974439e-09	-1.650426e-01	1.266788e+02
2.490000e-06	-1.812962e-07	1.770519e-09	-1.252993e+00	1.136018e+02
2.500000e-06	-3.386456e-07	1.555618e-09	-2.340483e+00	9.992898e+01
2.510000e-06	-4.959178e-07	1.331924e-09	-3.427440e+00	8.559781e+01
2.520000e-06	-6.530750e-07	1.100706e-09	-4.513601e+00	7.055410e+01
2.530000e-06	-8.100337e-07	8.614635e-10	-5.598391e+00	5.476044e+01
2.540000e-06	-9.667199e-07	6.118510e-10	-6.681297e+00	3.820411e+01
2.550000e-06	-1.123055e-06	3.497735e-10	-7.761778e+00	2.090373e+01
2.560000e-06	-1.278968e-06	7.439429e-11	-8.839341e+00	2.913701e+00
2.570000e-06	-1.434369e-06	-2.112928e-10	-9.913362e+00	-1.567419e+01
2.580000e-06	-1.589222e-06	-5.024140e-10	-1.098360e+01	-3.473248e+01
2.590000e-06	-1.743517e-06	-7.953763e-10	-1.204998e+01	-5.410297e+01
2.600000e-06	-1.897166e-06	-1.092300e-09	-1.311189e+01	-7.360471e+01
2.610000e-06	-2.050024e-06	-1.394813e-09	-1.416835e+01	-9.304412e+01
2.620000e-06	-2.202065e-06	-1.695445e-09	-1.521914e+01	-1.122266e+02
2.630000e-06	-2.353301e-06	-1.987815e-09	-1.626438e+01	-1.309681e+02
2.640000e-06	-2.503578e-06	-2.267424e-09	-1.730300e+01	-1.491060e+02
2.650000e-06	-2.652918e-06	-2.532611e-09	-1.833513e+01	-1.665080e+02
2.660000e-06	-2.801394e-06	-2.785160e-09	-1.936129e+01	-1.830777e+02
2.670000e-06	-2.948829e-06	-3.023141e-09	-2.038026e+01	-1.987576e+02
2.680000e-06	-3.095134e-06	-3.246432e-09	-2.139142e+01	-2.135282e+02
2.690000e-06	-3.240274e-06	-3.457999e-09	-2.239452e+01	-2.274041e+02
2.700000e-06	-3.384140e-06	-3.658493e-09	-2.338882e+01	-2.404272e+02
2.710000e-06	-3.526684e-06	-3.849871e-09	-2.437399e+01	-2.526589e+02
2.720000e-06	-3.667907e-06	-4.029717e-09	-2.535002e+01	-2.641712e+02
2.730000e-06	-3.807808e-06	-4.198066e-09	-2.631693e+01	-2.750378e+02
2.740000e-06	-3.946284e-06	-4.354661e-09	-2.727398e+01	-2.853269e+02
2.750000e-06	-4.083281e-06	-4.502609e-09	-2.822080e+01	-2.950965e+02
2.760000e-06	-4.218761e-06	-4.645946e-09	-2.915714e+01	-3.043905e+02
2.770000e-06	-4.352698e-06	-4.780642e-09	-3.008283e+01	-3.132390e+02
2.780000e-06	-4.485144e-06	-4.908389e-09	-3.099820e+01	-3.216594e+02
2.790000e-06	-4.616063e-06	-5.030993e-09	-3.190302e+01	-3.296603e+02
2.800000e-06	-4.745403e-06	-5.147650e-09	-3.279693e+01	-3.372454e+02
2.810000e-06	-4.873076e-06	-5.256858e-09	-3.367932e+01	-3.444182e+02
2.820000e-06	-4.999040e-06	-5.360893e-09	-3.454989e+01	-3.511865e+02
2.830000e-06	-5.123260e-06	-5.461061e-09	-3.540841e+01	-3.575645e+02
2.840000e-06	-5.245668e-06	-5.554022e-09	-3.625441e+01	-3.635751e+02
2.850000e-06	-5.366180e-06	-5.638716e-09	-3.708731e+01	-3.692489e+02
2.860000e-06	-5.484677e-06	-5.718778e-09	-3.790628e+01	-3.746230e+02
2.870000e-06	-5.600966e-06	-5.798123e-09	-3.870999e+01	-3.797379e+02
2.880000e-06	-5.714908e-06	-5.874677e-09	-3.949748e+01	-3.846340e+02
2.890000e-06	-5.826582e-06	-5.945342e-09	-4.026929e+01	-3.893477e+02
2.900000e-06	-5.936127e-06	-6.015050e-09	-4.102639e+01	-3.939083e+02
2.910000e-06	-6.043631e-06	-6.085136e-09	-4.176938e+01	-3.983359e+02
2.920000e-06	-6.149014e-06	-6.153143e-09	-4.249772e+01	-4.026404e+02
2.930000e-06	-6.252050e-06	-6.217959e-09	-4.320983e+01	-4.068217e+02
2.940000e-06	-6.352710e-06	-6.278348e-09	-4.390552e+01	-4.108718e+02
