# Temperatura_=_26.5
# Concentracion g/m^3_=_15000.0
# C_Vs_to_Am_M_A/Vsm_=_65563218390.804596
# pendiente_HvsI_1/m_=_3716.3
# ordenada_HvsI_A/m_=_1297.0
# frecuencia_Hz_=_302324.0734073877

Tiempo_(s)	Campo_(V.s)	Magnetizacion_(V.s)	Campo_(kA/m)	Magnetizacion_(A/m)
0.000000e+00	-8.233478e-06	-5.710756e-09	-5.692240e+01	-3.729442e+02
1.000000e-08	-8.230934e-06	-5.710276e-09	-5.690482e+01	-3.728061e+02
2.000000e-08	-8.225660e-06	-5.708729e-09	-5.686835e+01	-3.725973e+02
3.000000e-08	-8.217767e-06	-5.702029e-09	-5.681378e+01	-3.723248e+02
4.000000e-08	-8.206947e-06	-5.694180e-09	-5.673898e+01	-3.719975e+02
5.000000e-08	-8.193103e-06	-5.685651e-09	-5.664327e+01	-3.716249e+02
6.000000e-08	-8.176368e-06	-5.678413e-09	-5.652757e+01	-3.712157e+02
7.000000e-08	-8.157133e-06	-5.671090e-09	-5.639459e+01	-3.707777e+02
8.000000e-08	-8.135535e-06	-5.664642e-09	-5.624527e+01	-3.703161e+02
9.000000e-08	-8.111060e-06	-5.670861e-09	-5.607606e+01	-3.698336e+02
1.000000e-07	-8.083301e-06	-5.690968e-09	-5.588415e+01	-3.693299e+02
1.100000e-07	-8.052374e-06	-5.672935e-09	-5.567033e+01	-3.688021e+02
1.200000e-07	-8.018472e-06	-5.638065e-09	-5.543595e+01	-3.682449e+02
1.300000e-07	-7.981743e-06	-5.614946e-09	-5.518203e+01	-3.676514e+02
1.400000e-07	-7.942536e-06	-5.597019e-09	-5.491096e+01	-3.670136e+02
1.500000e-07	-7.901017e-06	-5.566695e-09	-5.462392e+01	-3.663233e+02
1.600000e-07	-7.857043e-06	-5.560811e-09	-5.431991e+01	-3.655729e+02
1.700000e-07	-7.810254e-06	-5.595128e-09	-5.399643e+01	-3.647553e+02
1.800000e-07	-7.760520e-06	-5.546457e-09	-5.365259e+01	-3.638649e+02
1.900000e-07	-7.707838e-06	-5.558250e-09	-5.328838e+01	-3.628972e+02
2.000000e-07	-7.652174e-06	-5.554092e-09	-5.290354e+01	-3.618495e+02
2.100000e-07	-7.593740e-06	-5.484404e-09	-5.249955e+01	-3.607197e+02
2.200000e-07	-7.532647e-06	-5.470099e-09	-5.207719e+01	-3.595073e+02
2.300000e-07	-7.468858e-06	-5.442614e-09	-5.163618e+01	-3.582123e+02
2.400000e-07	-7.402228e-06	-5.438540e-09	-5.117553e+01	-3.568356e+02
2.500000e-07	-7.332763e-06	-5.412600e-09	-5.069528e+01	-3.553787e+02
2.600000e-07	-7.260504e-06	-5.390277e-09	-5.019572e+01	-3.538433e+02
2.700000e-07	-7.185336e-06	-5.380194e-09	-4.967604e+01	-3.522317e+02
2.800000e-07	-7.107272e-06	-5.342836e-09	-4.913634e+01	-3.505463e+02
2.900000e-07	-7.026403e-06	-5.321164e-09	-4.857725e+01	-3.487898e+02
3.000000e-07	-6.943048e-06	-5.304243e-09	-4.800097e+01	-3.469645e+02
3.100000e-07	-6.857371e-06	-5.282808e-09	-4.740865e+01	-3.450729e+02
3.200000e-07	-6.769241e-06	-5.236729e-09	-4.679935e+01	-3.431165e+02
3.300000e-07	-6.678610e-06	-5.193793e-09	-4.617277e+01	-3.410963e+02
3.400000e-07	-6.585562e-06	-5.173360e-09	-4.552949e+01	-3.390122e+02
3.500000e-07	-6.490141e-06	-5.128992e-09	-4.486979e+01	-3.368631e+02
3.600000e-07	-6.392314e-06	-5.089795e-09	-4.419346e+01	-3.346469e+02
3.700000e-07	-6.292193e-06	-5.062099e-09	-4.350127e+01	-3.323604e+02
3.800000e-07	-6.189807e-06	-5.036544e-09	-4.279342e+01	-3.299998e+02
3.900000e-07	-6.085114e-06	-4.995700e-09	-4.206962e+01	-3.275615e+02
4.000000e-07	-5.978223e-06	-4.955831e-09	-4.133063e+01	-3.250416e+02
4.100000e-07	-5.869363e-06	-4.922896e-09	-4.057802e+01	-3.224372e+02
4.200000e-07	-5.758487e-06	-4.872253e-09	-3.981148e+01	-3.197463e+02
4.300000e-07	-5.645398e-06	-4.820492e-09	-3.902963e+01	-3.169680e+02
4.400000e-07	-5.530096e-06	-4.780773e-09	-3.823249e+01	-3.141026e+02
4.500000e-07	-5.412639e-06	-4.751874e-09	-3.742045e+01	-3.111511e+02
4.600000e-07	-5.293211e-06	-4.705228e-09	-3.659478e+01	-3.081147e+02
4.700000e-07	-5.172013e-06	-4.650858e-09	-3.575687e+01	-3.049943e+02
4.800000e-07	-5.048995e-06	-4.599635e-09	-3.490638e+01	-3.017902e+02
4.900000e-07	-4.924079e-06	-4.546820e-09	-3.404277e+01	-2.985005e+02
5.000000e-07	-4.797354e-06	-4.493484e-09	-3.316666e+01	-2.951219e+02
5.100000e-07	-4.668907e-06	-4.444503e-09	-3.227863e+01	-2.916487e+02
5.200000e-07	-4.538725e-06	-4.393770e-09	-3.137861e+01	-2.880732e+02
5.300000e-07	-4.406836e-06	-4.329464e-09	-3.046680e+01	-2.843864e+02
5.400000e-07	-4.273350e-06	-4.266316e-09	-2.954393e+01	-2.805785e+02
5.500000e-07	-4.138225e-06	-4.208121e-09	-2.860974e+01	-2.766399e+02
5.600000e-07	-4.001531e-06	-4.148180e-09	-2.766471e+01	-2.725621e+02
5.700000e-07	-3.863307e-06	-4.082933e-09	-2.670909e+01	-2.683387e+02
5.800000e-07	-3.723373e-06	-4.015803e-09	-2.574165e+01	-2.639658e+02
5.900000e-07	-3.581821e-06	-3.949023e-09	-2.476303e+01	-2.594420e+02
6.000000e-07	-3.438901e-06	-3.878128e-09	-2.377494e+01	-2.547687e+02
6.100000e-07	-3.294690e-06	-3.804536e-09	-2.277794e+01	-2.499489e+02
6.200000e-07	-3.149216e-06	-3.726535e-09	-2.177220e+01	-2.449862e+02
6.300000e-07	-3.002612e-06	-3.645650e-09	-2.075865e+01	-2.398837e+02
6.400000e-07	-2.854991e-06	-3.565862e-09	-1.973807e+01	-2.346427e+02
6.500000e-07	-2.706400e-06	-3.486867e-09	-1.871078e+01	-2.292611e+02
6.600000e-07	-2.556896e-06	-3.403218e-09	-1.767718e+01	-2.237332e+02
6.700000e-07	-2.406565e-06	-3.312564e-09	-1.663786e+01	-2.180492e+02
6.800000e-07	-2.255470e-06	-3.221381e-09	-1.559326e+01	-2.121953e+02
6.900000e-07	-2.103571e-06	-3.129556e-09	-1.454310e+01	-2.061548e+02
7.000000e-07	-1.950909e-06	-3.034208e-09	-1.348767e+01	-1.999095e+02
7.100000e-07	-1.797567e-06	-2.935760e-09	-1.242753e+01	-1.934410e+02
7.200000e-07	-1.643605e-06	-2.832725e-09	-1.136311e+01	-1.867328e+02
7.300000e-07	-1.489067e-06	-2.723176e-09	-1.029471e+01	-1.797714e+02
7.400000e-07	-1.333984e-06	-2.608651e-09	-9.222538e+00	-1.725475e+02
7.500000e-07	-1.178402e-06	-2.494221e-09	-8.146919e+00	-1.650559e+02
7.600000e-07	-1.022412e-06	-2.379772e-09	-7.068476e+00	-1.572953e+02
7.700000e-07	-8.661250e-07	-2.262145e-09	-5.987982e+00	-1.492669e+02
7.800000e-07	-7.095546e-07	-2.137120e-09	-4.905528e+00	-1.409724e+02
7.900000e-07	-5.527057e-07	-2.003502e-09	-3.821148e+00	-1.324117e+02
8.000000e-07	-3.956372e-07	-1.866401e-09	-2.735250e+00	-1.235806e+02
8.100000e-07	-2.384635e-07	-1.727222e-09	-1.648625e+00	-1.144687e+02
8.200000e-07	-8.120850e-08	-1.583389e-09	-5.614375e-01	-1.050583e+02
8.300000e-07	7.615913e-08	-1.432960e-09	5.265285e-01	-9.532406e+01
8.400000e-07	2.335577e-07	-1.275582e-09	1.614708e+00	-8.523427e+01
8.500000e-07	3.909052e-07	-1.112180e-09	2.702535e+00	-7.475295e+01
8.600000e-07	5.481488e-07	-9.426037e-10	3.789643e+00	-6.384355e+01
8.700000e-07	7.052313e-07	-7.671600e-10	4.875638e+00	-5.247338e+01
8.800000e-07	8.620830e-07	-5.881521e-10	5.960038e+00	-4.061845e+01
8.900000e-07	1.018662e-06	-4.042813e-10	7.042553e+00	-2.826834e+01
9.000000e-07	1.174939e-06	-2.123711e-10	8.122980e+00	-1.543038e+01
9.100000e-07	1.330852e-06	-1.468472e-11	9.200887e+00	-2.132698e+00
9.200000e-07	1.486261e-06	1.881813e-10	1.027531e+01	1.157433e+01
9.300000e-07	1.641081e-06	4.018721e-10	1.134566e+01	2.561840e+01
9.400000e-07	1.795239e-06	6.250444e-10	1.241144e+01	3.990762e+01
9.500000e-07	1.948711e-06	8.503047e-10	1.347247e+01	5.433451e+01
9.600000e-07	2.101452e-06	1.071584e-09	1.452845e+01	6.878150e+01
9.700000e-07	2.253380e-06	1.287752e-09	1.557881e+01	8.312729e+01
9.800000e-07	2.404500e-06	1.500468e-09	1.662358e+01	9.725363e+01
9.900000e-07	2.554689e-06	1.707264e-09	1.766192e+01	1.110517e+02
1.000000e-06	2.703863e-06	1.906248e-09	1.869324e+01	1.244274e+02
1.010000e-06	2.852035e-06	2.097616e-09	1.971763e+01	1.373059e+02
1.020000e-06	2.999143e-06	2.283287e-09	2.073467e+01	1.496335e+02
1.030000e-06	3.145130e-06	2.461247e-09	2.174395e+01	1.613784e+02
1.040000e-06	3.289985e-06	2.631866e-09	2.274541e+01	1.725292e+02
1.050000e-06	3.433624e-06	2.794361e-09	2.373847e+01	1.830925e+02
1.060000e-06	3.575902e-06	2.947080e-09	2.472211e+01	1.930887e+02
1.070000e-06	3.716827e-06	3.091613e-09	2.569640e+01	2.025478e+02
1.080000e-06	3.856393e-06	3.229765e-09	2.666129e+01	2.115047e+02
1.090000e-06	3.994422e-06	3.362663e-09	2.761556e+01	2.199957e+02
1.100000e-06	4.130950e-06	3.486535e-09	2.855945e+01	2.280546e+02
1.110000e-06	4.265971e-06	3.602711e-09	2.949292e+01	2.357115e+02
1.120000e-06	4.399422e-06	3.714095e-09	3.041554e+01	2.429911e+02
1.130000e-06	4.531378e-06	3.821911e-09	3.132782e+01	2.499135e+02
1.140000e-06	4.661731e-06	3.924185e-09	3.222902e+01	2.564948e+02
1.150000e-06	4.790394e-06	4.018589e-09	3.311854e+01	2.627490e+02
1.160000e-06	4.917400e-06	4.106638e-09	3.399659e+01	2.686897e+02
1.170000e-06	5.042750e-06	4.190556e-09	3.486321e+01	2.743315e+02
1.180000e-06	5.166417e-06	4.271620e-09	3.571818e+01	2.796911e+02
1.190000e-06	5.288247e-06	4.349203e-09	3.656046e+01	2.847881e+02
1.200000e-06	5.408168e-06	4.423849e-09	3.738953e+01	2.896443e+02
1.210000e-06	5.526086e-06	4.495220e-09	3.820476e+01	2.942831e+02
1.220000e-06	5.641867e-06	4.563280e-09	3.900522e+01	2.987278e+02
1.230000e-06	5.755449e-06	4.630301e-09	3.979048e+01	3.030001e+02
1.240000e-06	5.866781e-06	4.694831e-09	4.056017e+01	3.071183e+02
1.250000e-06	5.976026e-06	4.755868e-09	4.131544e+01	3.110963e+02
1.260000e-06	6.083252e-06	4.813606e-09	4.205675e+01	3.149425e+02
1.270000e-06	6.188226e-06	4.869077e-09	4.278249e+01	3.186597e+02
1.280000e-06	6.290870e-06	4.920421e-09	4.349212e+01	3.222459e+02
1.290000e-06	6.391271e-06	4.968651e-09	4.418625e+01	3.256952e+02
1.300000e-06	6.489324e-06	5.017113e-09	4.486414e+01	3.289995e+02
1.310000e-06	6.584864e-06	5.063614e-09	4.552466e+01	3.321506e+02
1.320000e-06	6.678050e-06	5.105103e-09	4.616890e+01	3.351415e+02
1.330000e-06	6.768952e-06	5.143719e-09	4.679736e+01	3.379681e+02
1.340000e-06	6.857369e-06	5.182387e-09	4.740863e+01	3.406303e+02
1.350000e-06	6.943294e-06	5.220215e-09	4.800268e+01	3.431321e+02
1.360000e-06	7.026838e-06	5.255513e-09	4.858026e+01	3.454814e+02
1.370000e-06	7.107890e-06	5.287840e-09	4.914061e+01	3.476894e+02
1.380000e-06	7.186353e-06	5.319340e-09	4.968307e+01	3.497688e+02
1.390000e-06	7.262206e-06	5.347931e-09	5.020749e+01	3.517328e+02
1.400000e-06	7.335290e-06	5.373732e-09	5.071275e+01	3.535934e+02
1.410000e-06	7.405654e-06	5.399832e-09	5.119922e+01	3.553603e+02
1.420000e-06	7.473468e-06	5.424590e-09	5.166805e+01	3.570400e+02
1.430000e-06	7.538603e-06	5.446828e-09	5.211836e+01	3.586357e+02
1.440000e-06	7.601047e-06	5.467983e-09	5.255007e+01	3.601473e+02
1.450000e-06	7.660968e-06	5.488320e-09	5.296434e+01	3.615724e+02
1.460000e-06	7.718255e-06	5.507581e-09	5.336039e+01	3.629071e+02
1.470000e-06	7.772733e-06	5.525137e-09	5.373703e+01	3.641475e+02
1.480000e-06	7.824159e-06	5.541919e-09	5.409256e+01	3.652908e+02
1.490000e-06	7.872404e-06	5.558143e-09	5.442611e+01	3.663361e+02
1.500000e-06	7.917764e-06	5.573366e-09	5.473970e+01	3.672851e+02
1.510000e-06	7.960375e-06	5.587770e-09	5.503430e+01	3.681421e+02
1.520000e-06	8.000071e-06	5.599739e-09	5.530874e+01	3.689140e+02
1.530000e-06	8.036904e-06	5.609544e-09	5.556338e+01	3.696090e+02
1.540000e-06	8.070949e-06	5.618259e-09	5.579875e+01	3.702360e+02
1.550000e-06	8.102100e-06	5.628692e-09	5.601412e+01	3.708033e+02
1.560000e-06	8.130393e-06	5.639369e-09	5.620972e+01	3.713175e+02
1.570000e-06	8.155714e-06	5.648016e-09	5.638478e+01	3.717830e+02
1.580000e-06	8.178045e-06	5.654561e-09	5.653916e+01	3.722010e+02
1.590000e-06	8.197576e-06	5.660716e-09	5.667420e+01	3.725699e+02
1.600000e-06	8.214142e-06	5.667558e-09	5.678872e+01	3.728858e+02
1.610000e-06	8.227581e-06	5.672512e-09	5.688163e+01	3.731429e+02
1.620000e-06	8.237867e-06	5.675999e-09	5.695274e+01	3.733348e+02
1.630000e-06	8.245051e-06	5.678003e-09	5.700241e+01	3.734556e+02
1.640000e-06	8.249348e-06	5.678569e-09	5.703212e+01	3.735010e+02
1.650000e-06	8.250705e-06	5.679046e-09	5.704150e+01	3.734688e+02
1.660000e-06	8.249173e-06	5.679191e-09	5.703091e+01	3.733599e+02
1.670000e-06	8.245004e-06	5.675936e-09	5.700209e+01	3.731780e+02
1.680000e-06	8.238064e-06	5.673790e-09	5.695411e+01	3.729295e+02
1.690000e-06	8.228300e-06	5.670358e-09	5.688660e+01	3.726225e+02
1.700000e-06	8.215655e-06	5.666702e-09	5.679919e+01	3.722665e+02
1.710000e-06	8.200110e-06	5.663513e-09	5.669171e+01	3.718706e+02
1.720000e-06	8.182053e-06	5.659795e-09	5.656688e+01	3.714431e+02
1.730000e-06	8.161627e-06	5.649761e-09	5.642566e+01	3.709901e+02
1.740000e-06	8.138365e-06	5.617809e-09	5.626483e+01	3.705156e+02
1.750000e-06	8.111576e-06	5.587280e-09	5.607963e+01	3.700204e+02
1.760000e-06	8.080923e-06	5.599279e-09	5.586771e+01	3.695025e+02
1.770000e-06	8.047061e-06	5.607634e-09	5.563360e+01	3.689575e+02
1.780000e-06	8.010813e-06	5.611670e-09	5.538300e+01	3.683790e+02
1.790000e-06	7.972257e-06	5.633507e-09	5.511645e+01	3.677595e+02
1.800000e-06	7.931605e-06	5.636822e-09	5.483539e+01	3.670908e+02
1.810000e-06	7.888825e-06	5.566191e-09	5.453964e+01	3.663647e+02
1.820000e-06	7.843288e-06	5.573929e-09	5.422481e+01	3.655742e+02
1.830000e-06	7.794941e-06	5.568572e-09	5.389057e+01	3.647129e+02
1.840000e-06	7.743685e-06	5.526419e-09	5.353620e+01	3.637759e+02
1.850000e-06	7.689204e-06	5.553151e-09	5.315954e+01	3.627598e+02
1.860000e-06	7.631872e-06	5.516401e-09	5.276318e+01	3.616623e+02
1.870000e-06	7.571810e-06	5.543829e-09	5.234794e+01	3.604823e+02
1.880000e-06	7.508996e-06	5.514019e-09	5.191368e+01	3.592196e+02
1.890000e-06	7.443403e-06	5.473682e-09	5.146020e+01	3.578748e+02
1.900000e-06	7.374912e-06	5.471484e-09	5.098668e+01	3.564491e+02
1.910000e-06	7.303509e-06	5.382495e-09	5.049303e+01	3.549442e+02
1.920000e-06	7.229134e-06	5.387371e-09	4.997884e+01	3.533621e+02
1.930000e-06	7.151959e-06	5.381491e-09	4.944529e+01	3.517054e+02
1.940000e-06	7.072056e-06	5.355264e-09	4.889288e+01	3.499764e+02
1.950000e-06	6.989561e-06	5.312334e-09	4.832255e+01	3.481777e+02
1.960000e-06	6.904516e-06	5.264145e-09	4.773458e+01	3.463118e+02
1.970000e-06	6.816796e-06	5.272131e-09	4.712813e+01	3.443806e+02
1.980000e-06	6.726596e-06	5.219208e-09	4.650453e+01	3.423853e+02
1.990000e-06	6.634108e-06	5.214173e-09	4.586511e+01	3.403263e+02
2.000000e-06	6.539314e-06	5.189253e-09	4.520975e+01	3.382029e+02
2.010000e-06	6.442130e-06	5.133349e-09	4.453787e+01	3.360133e+02
2.020000e-06	6.342644e-06	5.078039e-09	4.385006e+01	3.337547e+02
2.030000e-06	6.240814e-06	5.043682e-09	4.314606e+01	3.314236e+02
2.040000e-06	6.136645e-06	5.034593e-09	4.242588e+01	3.290162e+02
2.050000e-06	6.030411e-06	4.986649e-09	4.169143e+01	3.265286e+02
2.060000e-06	5.922174e-06	4.951938e-09	4.094313e+01	3.239576e+02
2.070000e-06	5.811828e-06	4.912989e-09	4.018025e+01	3.213008e+02
2.080000e-06	5.699350e-06	4.876162e-09	3.940263e+01	3.185568e+02
2.090000e-06	5.584725e-06	4.816583e-09	3.861017e+01	3.157255e+02
2.100000e-06	5.467980e-06	4.770820e-09	3.780305e+01	3.128075e+02
2.110000e-06	5.349194e-06	4.725240e-09	3.698182e+01	3.098042e+02
2.120000e-06	5.228400e-06	4.668735e-09	3.614670e+01	3.067167e+02
2.130000e-06	5.105713e-06	4.628875e-09	3.529850e+01	3.035455e+02
2.140000e-06	4.981208e-06	4.598659e-09	3.443774e+01	3.002896e+02
2.150000e-06	4.854913e-06	4.555895e-09	3.356459e+01	2.969464e+02
2.160000e-06	4.726849e-06	4.487293e-09	3.267922e+01	2.935111e+02
2.170000e-06	4.597077e-06	4.426333e-09	3.178203e+01	2.899767e+02
2.180000e-06	4.465629e-06	4.367673e-09	3.087326e+01	2.863347e+02
2.190000e-06	4.332529e-06	4.316001e-09	2.995307e+01	2.825755e+02
2.200000e-06	4.197867e-06	4.259482e-09	2.902208e+01	2.786892e+02
2.210000e-06	4.061548e-06	4.201065e-09	2.807963e+01	2.746669e+02
2.220000e-06	3.923556e-06	4.130229e-09	2.712563e+01	2.705012e+02
2.230000e-06	3.784047e-06	4.058704e-09	2.616112e+01	2.661872e+02
2.240000e-06	3.643163e-06	3.996097e-09	2.518712e+01	2.617226e+02
2.250000e-06	3.500883e-06	3.937334e-09	2.420346e+01	2.571077e+02
2.260000e-06	3.357246e-06	3.869479e-09	2.321042e+01	2.523449e+02
2.270000e-06	3.212358e-06	3.791043e-09	2.220874e+01	2.474378e+02
2.280000e-06	3.066219e-06	3.708785e-09	2.119840e+01	2.423899e+02
2.290000e-06	2.918863e-06	3.623729e-09	2.017965e+01	2.372032e+02
2.300000e-06	2.770528e-06	3.544109e-09	1.915413e+01	2.318772e+02
2.310000e-06	2.621388e-06	3.462211e-09	1.812304e+01	2.264076e+02
2.320000e-06	2.471395e-06	3.375791e-09	1.708607e+01	2.207863e+02
2.330000e-06	2.320566e-06	3.286362e-09	1.604330e+01	2.150009e+02
2.340000e-06	2.168924e-06	3.202606e-09	1.499492e+01	2.090357e+02
2.350000e-06	2.016495e-06	3.119407e-09	1.394110e+01	2.028730e+02
2.360000e-06	1.863306e-06	3.024484e-09	1.288202e+01	1.964942e+02
2.370000e-06	1.709495e-06	2.917375e-09	1.181865e+01	1.898819e+02
2.380000e-06	1.555098e-06	2.804557e-09	1.075122e+01	1.830213e+02
2.390000e-06	1.400128e-06	2.692787e-09	9.679826e+00	1.759013e+02
2.400000e-06	1.244679e-06	2.584256e-09	8.605124e+00	1.685150e+02
2.410000e-06	1.088861e-06	2.474678e-09	7.527877e+00	1.608600e+02
2.420000e-06	9.327577e-07	2.356437e-09	6.448649e+00	1.529365e+02
2.430000e-06	7.763600e-07	2.226206e-09	5.367388e+00	1.447463e+02
2.440000e-06	6.197169e-07	2.094072e-09	4.284432e+00	1.362903e+02
2.450000e-06	4.628576e-07	1.965092e-09	3.199980e+00	1.275662e+02
2.460000e-06	3.058143e-07	1.836425e-09	2.114257e+00	1.185662e+02
2.470000e-06	1.486873e-07	1.698304e-09	1.027954e+00	1.092756e+02
2.480000e-06	-8.524420e-09	1.547032e-09	-5.893384e-02	9.967196e+01
2.490000e-06	-1.658343e-07	1.390468e-09	-1.146500e+00	8.972590e+01
2.500000e-06	-3.231058e-07	1.232004e-09	-2.233802e+00	7.940271e+01
2.510000e-06	-4.802616e-07	1.070815e-09	-3.320303e+00	6.866561e+01
2.520000e-06	-6.372777e-07	9.027540e-10	-4.405839e+00	5.747982e+01
2.530000e-06	-7.940803e-07	7.240821e-10	-5.489898e+00	4.581734e+01
2.540000e-06	-9.506356e-07	5.365699e-10	-6.572248e+00	3.366186e+01
2.550000e-06	-1.106886e-06	3.450228e-10	-7.652487e+00	2.101332e+01
2.560000e-06	-1.262763e-06	1.496715e-10	-8.730148e+00	7.891382e+00
2.570000e-06	-1.418246e-06	-5.614801e-11	-9.805089e+00	-5.662362e+00
2.580000e-06	-1.573201e-06	-2.729874e-10	-1.087637e+01	-1.958406e+01
2.590000e-06	-1.727466e-06	-4.926501e-10	-1.194289e+01	-3.378913e+01
2.600000e-06	-1.881032e-06	-7.130929e-10	-1.300458e+01	-4.817563e+01
2.610000e-06	-2.033946e-06	-9.352719e-10	-1.406175e+01	-6.262922e+01
2.620000e-06	-2.186084e-06	-1.158905e-09	-1.511356e+01	-7.702928e+01
2.630000e-06	-2.337314e-06	-1.382197e-09	-1.615909e+01	-9.125557e+01
2.640000e-06	-2.487656e-06	-1.601206e-09	-1.719848e+01	-1.051948e+02
2.650000e-06	-2.637085e-06	-1.810938e-09	-1.823157e+01	-1.187466e+02
2.660000e-06	-2.785584e-06	-2.009075e-09	-1.925822e+01	-1.318282e+02
2.670000e-06	-2.933068e-06	-2.195039e-09	-2.027786e+01	-1.443773e+02
2.680000e-06	-3.079424e-06	-2.374044e-09	-2.128969e+01	-1.563536e+02
2.690000e-06	-3.224666e-06	-2.549479e-09	-2.229383e+01	-1.677380e+02
2.700000e-06	-3.368716e-06	-2.716111e-09	-2.328972e+01	-1.785305e+02
2.710000e-06	-3.511360e-06	-2.872912e-09	-2.427589e+01	-1.887464e+02
2.720000e-06	-3.652613e-06	-3.020171e-09	-2.525245e+01	-1.984126e+02
2.730000e-06	-3.792474e-06	-3.161270e-09	-2.621939e+01	-2.075626e+02
2.740000e-06	-3.930891e-06	-3.294660e-09	-2.717634e+01	-2.162325e+02
2.750000e-06	-4.067941e-06	-3.420846e-09	-2.812384e+01	-2.244574e+02
2.760000e-06	-4.203536e-06	-3.542072e-09	-2.906128e+01	-2.322691e+02
2.770000e-06	-4.337602e-06	-3.653111e-09	-2.998815e+01	-2.396943e+02
2.780000e-06	-4.470213e-06	-3.757973e-09	-3.090496e+01	-2.467550e+02
2.790000e-06	-4.601284e-06	-3.861400e-09	-3.181112e+01	-2.534686e+02
2.800000e-06	-4.730759e-06	-3.961540e-09	-3.270625e+01	-2.598499e+02
2.810000e-06	-4.858626e-06	-4.054844e-09	-3.359026e+01	-2.659122e+02
2.820000e-06	-4.984762e-06	-4.141538e-09	-3.446231e+01	-2.716696e+02
2.830000e-06	-5.109164e-06	-4.224547e-09	-3.532236e+01	-2.771380e+02
2.840000e-06	-5.231811e-06	-4.303390e-09	-3.617028e+01	-2.823357e+02
2.850000e-06	-5.352565e-06	-4.377344e-09	-3.700512e+01	-2.872839e+02
2.860000e-06	-5.471240e-06	-4.448393e-09	-3.782558e+01	-2.920054e+02
2.870000e-06	-5.587730e-06	-4.518332e-09	-3.863094e+01	-2.965237e+02
2.880000e-06	-5.701942e-06	-4.586587e-09	-3.942055e+01	-3.008614e+02
2.890000e-06	-5.813823e-06	-4.651483e-09	-4.019404e+01	-3.050384e+02
2.900000e-06	-5.923506e-06	-4.714171e-09	-4.095234e+01	-3.090702e+02
2.910000e-06	-6.031184e-06	-4.776383e-09	-4.169677e+01	-3.129676e+02
2.920000e-06	-6.136812e-06	-4.837114e-09	-4.242704e+01	-3.167356e+02
2.930000e-06	-6.240116e-06	-4.893669e-09	-4.314123e+01	-3.203739e+02
2.940000e-06	-6.341022e-06	-4.945061e-09	-4.383885e+01	-3.238779e+02
