# Temperatura_=_85.27
# Concentracion g/m^3_=_15000.0
# C_Vs_to_Am_M_A/Vsm_=_65563218390.804596
# pendiente_HvsI_1/m_=_3716.3
# ordenada_HvsI_A/m_=_1297.0
# frecuencia_Hz_=_302330.561679756

Tiempo_(s)	Campo_(V.s)	Magnetizacion_(V.s)	Campo_(kA/m)	Magnetizacion_(A/m)
0.000000e+00	-8.265585e-06	-1.050808e-08	-5.692657e+01	-6.872945e+02
1.000000e-08	-8.263229e-06	-1.050774e-08	-5.691034e+01	-6.869834e+02
2.000000e-08	-8.258061e-06	-1.050448e-08	-5.687475e+01	-6.865511e+02
3.000000e-08	-8.250271e-06	-1.049423e-08	-5.682109e+01	-6.860096e+02
4.000000e-08	-8.239579e-06	-1.048354e-08	-5.674746e+01	-6.853705e+02
5.000000e-08	-8.225873e-06	-1.046959e-08	-5.665306e+01	-6.846439e+02
6.000000e-08	-8.209250e-06	-1.045373e-08	-5.653858e+01	-6.838374e+02
7.000000e-08	-8.190095e-06	-1.043799e-08	-5.640665e+01	-6.829554e+02
8.000000e-08	-8.168581e-06	-1.041430e-08	-5.625848e+01	-6.819997e+02
9.000000e-08	-8.144219e-06	-1.042350e-08	-5.609069e+01	-6.809693e+02
1.000000e-07	-8.116587e-06	-1.045169e-08	-5.590039e+01	-6.798613e+02
1.100000e-07	-8.085745e-06	-1.040637e-08	-5.568798e+01	-6.786720e+02
1.200000e-07	-8.051849e-06	-1.035581e-08	-5.545453e+01	-6.773972e+02
1.300000e-07	-8.015063e-06	-1.032617e-08	-5.520117e+01	-6.760329e+02
1.400000e-07	-7.975847e-06	-1.029434e-08	-5.493109e+01	-6.745756e+02
1.500000e-07	-7.934320e-06	-1.023851e-08	-5.464508e+01	-6.730221e+02
1.600000e-07	-7.890311e-06	-1.021801e-08	-5.434199e+01	-6.713690e+02
1.700000e-07	-7.843508e-06	-1.028694e-08	-5.401965e+01	-6.696124e+02
1.800000e-07	-7.793703e-06	-1.016263e-08	-5.367663e+01	-6.677470e+02
1.900000e-07	-7.740975e-06	-1.015591e-08	-5.331348e+01	-6.657662e+02
2.000000e-07	-7.685316e-06	-1.016105e-08	-5.293015e+01	-6.636616e+02
2.100000e-07	-7.626848e-06	-1.003274e-08	-5.252747e+01	-6.614236e+02
2.200000e-07	-7.565738e-06	-1.003084e-08	-5.210660e+01	-6.590422e+02
2.300000e-07	-7.501965e-06	-9.986639e-09	-5.166738e+01	-6.565076e+02
2.400000e-07	-7.435335e-06	-9.970042e-09	-5.120848e+01	-6.538120e+02
2.500000e-07	-7.365796e-06	-9.894835e-09	-5.072956e+01	-6.509500e+02
2.600000e-07	-7.293413e-06	-9.854185e-09	-5.023104e+01	-6.479201e+02
2.700000e-07	-7.218121e-06	-9.833118e-09	-4.971249e+01	-6.447247e+02
2.800000e-07	-7.139959e-06	-9.757572e-09	-4.917418e+01	-6.413700e+02
2.900000e-07	-7.058968e-06	-9.709886e-09	-4.861638e+01	-6.378655e+02
3.000000e-07	-6.975448e-06	-9.657057e-09	-4.804116e+01	-6.342225e+02
3.100000e-07	-6.889621e-06	-9.628066e-09	-4.745005e+01	-6.304526e+02
3.200000e-07	-6.801307e-06	-9.552640e-09	-4.684182e+01	-6.265659e+02
3.300000e-07	-6.710503e-06	-9.471608e-09	-4.621643e+01	-6.225695e+02
3.400000e-07	-6.617298e-06	-9.423900e-09	-4.557452e+01	-6.184663e+02
3.500000e-07	-6.521656e-06	-9.348152e-09	-4.491581e+01	-6.142544e+02
3.600000e-07	-6.423604e-06	-9.276089e-09	-4.424051e+01	-6.099275e+02
3.700000e-07	-6.323235e-06	-9.212428e-09	-4.354925e+01	-6.054752e+02
3.800000e-07	-6.220590e-06	-9.160917e-09	-4.284232e+01	-6.008854e+02
3.900000e-07	-6.115694e-06	-9.081898e-09	-4.211988e+01	-5.961451e+02
4.000000e-07	-6.008593e-06	-8.991783e-09	-4.138226e+01	-5.912432e+02
4.100000e-07	-5.899406e-06	-8.912788e-09	-4.063026e+01	-5.861715e+02
4.200000e-07	-5.788057e-06	-8.831566e-09	-3.986339e+01	-5.809261e+02
4.300000e-07	-5.674524e-06	-8.755023e-09	-3.908146e+01	-5.755075e+02
4.400000e-07	-5.558891e-06	-8.671518e-09	-3.828508e+01	-5.699205e+02
4.500000e-07	-5.441139e-06	-8.595500e-09	-3.747410e+01	-5.641724e+02
4.600000e-07	-5.321302e-06	-8.511846e-09	-3.664876e+01	-5.582713e+02
4.700000e-07	-5.199588e-06	-8.415829e-09	-3.581050e+01	-5.522242e+02
4.800000e-07	-5.076093e-06	-8.315212e-09	-3.495996e+01	-5.460343e+02
4.900000e-07	-4.950786e-06	-8.218724e-09	-3.409695e+01	-5.397000e+02
5.000000e-07	-4.823708e-06	-8.120828e-09	-3.322174e+01	-5.332133e+02
5.100000e-07	-4.694828e-06	-8.015089e-09	-3.233412e+01	-5.265604e+02
5.200000e-07	-4.564212e-06	-7.910966e-09	-3.143455e+01	-5.197227e+02
5.300000e-07	-4.431895e-06	-7.804908e-09	-3.052326e+01	-5.126782e+02
5.400000e-07	-4.298031e-06	-7.691400e-09	-2.960131e+01	-5.054047e+02
5.500000e-07	-4.162546e-06	-7.569342e-09	-2.866820e+01	-4.978822e+02
5.600000e-07	-4.025311e-06	-7.449224e-09	-2.772304e+01	-4.900954e+02
5.700000e-07	-3.886530e-06	-7.330574e-09	-2.676723e+01	-4.820356e+02
5.800000e-07	-3.746142e-06	-7.203996e-09	-2.580035e+01	-4.737011e+02
5.900000e-07	-3.604089e-06	-7.075889e-09	-2.482201e+01	-4.650972e+02
6.000000e-07	-3.460626e-06	-6.944813e-09	-2.383395e+01	-4.562343e+02
6.100000e-07	-3.315972e-06	-6.806642e-09	-2.283769e+01	-4.471249e+02
6.200000e-07	-3.170189e-06	-6.658243e-09	-2.183366e+01	-4.377806e+02
6.300000e-07	-3.023275e-06	-6.509003e-09	-2.082184e+01	-4.282082e+02
6.400000e-07	-2.875261e-06	-6.361592e-09	-1.980244e+01	-4.184072e+02
6.500000e-07	-2.726236e-06	-6.209096e-09	-1.877607e+01	-4.083675e+02
6.600000e-07	-2.576238e-06	-6.048821e-09	-1.774301e+01	-3.980687e+02
6.700000e-07	-2.425307e-06	-5.882262e-09	-1.670353e+01	-3.874813e+02
6.800000e-07	-2.273513e-06	-5.714316e-09	-1.565809e+01	-3.765689e+02
6.900000e-07	-2.120914e-06	-5.540296e-09	-1.460712e+01	-3.652925e+02
7.000000e-07	-1.967545e-06	-5.361159e-09	-1.355084e+01	-3.536143e+02
7.100000e-07	-1.813538e-06	-5.176774e-09	-1.249016e+01	-3.415024e+02
7.200000e-07	-1.658975e-06	-4.986710e-09	-1.142566e+01	-3.289342e+02
7.300000e-07	-1.503871e-06	-4.789614e-09	-1.035743e+01	-3.158986e+02
7.400000e-07	-1.348251e-06	-4.586092e-09	-9.285648e+00	-3.023960e+02
7.500000e-07	-1.192206e-06	-4.373663e-09	-8.210938e+00	-2.884359e+02
7.600000e-07	-1.035805e-06	-4.154083e-09	-7.133774e+00	-2.740329e+02
7.700000e-07	-8.790555e-07	-3.931883e-09	-6.054213e+00	-2.592003e+02
7.800000e-07	-7.220248e-07	-3.702886e-09	-4.972714e+00	-2.439436e+02
7.900000e-07	-5.647578e-07	-3.464009e-09	-3.889588e+00	-2.282529e+02
8.000000e-07	-4.072569e-07	-3.215202e-09	-2.804851e+00	-2.120981e+02
8.100000e-07	-2.495386e-07	-2.958058e-09	-1.718617e+00	-1.954250e+02
8.200000e-07	-9.172780e-08	-2.690414e-09	-6.317458e-01	-1.781551e+02
8.300000e-07	6.615983e-08	-2.413555e-09	4.556546e-01	-1.601892e+02
8.400000e-07	2.241107e-07	-2.126723e-09	1.543491e+00	-1.414142e+02
8.500000e-07	3.819735e-07	-1.824682e-09	2.630720e+00	-1.217138e+02
8.600000e-07	5.396772e-07	-1.505985e-09	3.716854e+00	-1.009810e+02
8.700000e-07	6.971748e-07	-1.173412e-09	4.801567e+00	-7.913206e+01
8.800000e-07	8.544433e-07	-8.288379e-10	5.884704e+00	-5.612035e+01
8.900000e-07	1.011415e-06	-4.666060e-10	6.965793e+00	-3.194762e+01
9.000000e-07	1.168069e-06	-8.497027e-11	8.044702e+00	-6.672445e+00
9.100000e-07	1.324370e-06	3.123409e-10	9.121171e+00	1.958621e+01
9.200000e-07	1.480218e-06	7.228039e-10	1.019453e+01	4.665047e+01
9.300000e-07	1.635555e-06	1.148412e-09	1.126436e+01	7.429044e+01
9.400000e-07	1.790347e-06	1.583666e-09	1.233044e+01	1.022359e+02
9.500000e-07	1.944496e-06	2.016792e-09	1.339209e+01	1.301922e+02
9.600000e-07	2.097877e-06	2.441071e-09	1.444846e+01	1.578575e+02
9.700000e-07	2.250540e-06	2.852187e-09	1.549987e+01	1.849424e+02
9.800000e-07	2.402505e-06	3.248279e-09	1.654649e+01	2.111869e+02
9.900000e-07	2.553553e-06	3.625944e-09	1.758678e+01	2.363750e+02
1.000000e-06	2.703423e-06	3.983727e-09	1.861896e+01	2.603455e+02
1.010000e-06	2.852143e-06	4.321317e-09	1.964322e+01	2.829979e+02
1.020000e-06	2.999797e-06	4.640057e-09	2.066014e+01	3.042919e+02
1.030000e-06	3.146364e-06	4.942818e-09	2.166957e+01	3.242432e+02
1.040000e-06	3.291817e-06	5.227661e-09	2.267134e+01	3.429142e+02
1.050000e-06	3.436144e-06	5.494909e-09	2.366534e+01	3.604023e+02
1.060000e-06	3.579187e-06	5.745867e-09	2.465050e+01	3.768259e+02
1.070000e-06	3.720737e-06	5.982711e-09	2.562538e+01	3.923109e+02
1.080000e-06	3.860780e-06	6.207459e-09	2.658988e+01	4.069788e+02
1.090000e-06	3.999410e-06	6.422647e-09	2.754466e+01	4.209369e+02
1.100000e-06	4.136648e-06	6.626492e-09	2.848984e+01	4.342717e+02
1.110000e-06	4.272341e-06	6.819440e-09	2.942438e+01	4.470465e+02
1.120000e-06	4.406420e-06	7.004124e-09	3.034780e+01	4.593015e+02
1.130000e-06	4.538921e-06	7.180496e-09	3.126037e+01	4.710577e+02
1.140000e-06	4.669868e-06	7.350480e-09	3.216222e+01	4.823218e+02
1.150000e-06	4.799287e-06	7.512737e-09	3.305355e+01	4.930926e+02
1.160000e-06	4.927040e-06	7.667552e-09	3.393341e+01	5.033673e+02
1.170000e-06	5.053025e-06	7.814717e-09	3.480109e+01	5.131466e+02
1.180000e-06	5.177182e-06	7.954543e-09	3.565618e+01	5.224385e+02
1.190000e-06	5.299569e-06	8.089246e-09	3.649908e+01	5.312598e+02
1.200000e-06	5.420218e-06	8.218412e-09	3.733001e+01	5.396362e+02
1.210000e-06	5.538835e-06	8.341253e-09	3.814695e+01	5.476002e+02
1.220000e-06	5.655257e-06	8.458370e-09	3.894877e+01	5.551884e+02
1.230000e-06	5.769520e-06	8.570908e-09	3.973572e+01	5.624378e+02
1.240000e-06	5.881567e-06	8.679423e-09	4.050741e+01	5.693824e+02
1.250000e-06	5.991435e-06	8.780350e-09	4.126409e+01	5.760508e+02
1.260000e-06	6.099205e-06	8.874034e-09	4.200632e+01	5.824644e+02
1.270000e-06	6.204809e-06	8.964079e-09	4.273363e+01	5.886372e+02
1.280000e-06	6.308106e-06	9.051802e-09	4.344506e+01	5.945766e+02
1.290000e-06	6.409003e-06	9.137487e-09	4.413995e+01	6.002853e+02
1.300000e-06	6.507496e-06	9.220600e-09	4.481829e+01	6.057636e+02
1.310000e-06	6.603532e-06	9.301164e-09	4.547971e+01	6.110120e+02
1.320000e-06	6.697194e-06	9.376360e-09	4.612477e+01	6.160333e+02
1.330000e-06	6.788502e-06	9.447496e-09	4.675363e+01	6.208340e+02
1.340000e-06	6.877348e-06	9.517277e-09	4.736553e+01	6.254246e+02
1.350000e-06	6.963770e-06	9.584243e-09	4.796073e+01	6.298192e+02
1.360000e-06	7.047766e-06	9.648832e-09	4.853923e+01	6.340340e+02
1.370000e-06	7.129323e-06	9.710754e-09	4.910092e+01	6.380853e+02
1.380000e-06	7.208317e-06	9.771580e-09	4.964497e+01	6.419875e+02
1.390000e-06	7.284577e-06	9.829880e-09	5.017019e+01	6.457508e+02
1.400000e-06	7.358120e-06	9.884411e-09	5.067669e+01	6.493800e+02
1.410000e-06	7.429037e-06	9.936725e-09	5.116511e+01	6.528736e+02
1.420000e-06	7.497370e-06	9.986139e-09	5.163573e+01	6.562247e+02
1.430000e-06	7.562982e-06	1.003196e-08	5.208762e+01	6.594215e+02
1.440000e-06	7.625887e-06	1.007383e-08	5.252085e+01	6.624500e+02
1.450000e-06	7.686201e-06	1.011610e-08	5.293624e+01	6.652956e+02
1.460000e-06	7.743866e-06	1.015721e-08	5.333340e+01	6.679461e+02
1.470000e-06	7.798739e-06	1.019223e-08	5.371132e+01	6.703937e+02
1.480000e-06	7.850590e-06	1.022397e-08	5.406842e+01	6.726359e+02
1.490000e-06	7.899273e-06	1.025461e-08	5.440371e+01	6.746767e+02
1.500000e-06	7.945013e-06	1.028423e-08	5.471873e+01	6.765258e+02
1.510000e-06	7.987958e-06	1.031162e-08	5.501450e+01	6.781978e+02
1.520000e-06	8.027984e-06	1.033535e-08	5.529017e+01	6.797096e+02
1.530000e-06	8.065203e-06	1.035570e-08	5.554650e+01	6.810792e+02
1.540000e-06	8.099617e-06	1.037404e-08	5.578351e+01	6.823224e+02
1.550000e-06	8.131077e-06	1.039072e-08	5.600019e+01	6.834517e+02
1.560000e-06	8.159696e-06	1.040531e-08	5.619729e+01	6.844748e+02
1.570000e-06	8.185384e-06	1.041779e-08	5.637420e+01	6.853941e+02
1.580000e-06	8.208074e-06	1.042850e-08	5.653048e+01	6.862069e+02
1.590000e-06	8.227899e-06	1.043984e-08	5.666702e+01	6.869066e+02
1.600000e-06	8.244708e-06	1.045118e-08	5.678279e+01	6.874843e+02
1.610000e-06	8.258427e-06	1.045975e-08	5.687727e+01	6.879307e+02
1.620000e-06	8.268959e-06	1.046473e-08	5.694980e+01	6.882378e+02
1.630000e-06	8.276337e-06	1.046691e-08	5.700062e+01	6.884006e+02
1.640000e-06	8.280789e-06	1.046826e-08	5.703128e+01	6.884179e+02
1.650000e-06	8.282273e-06	1.046837e-08	5.704150e+01	6.882927e+02
1.660000e-06	8.280895e-06	1.046743e-08	5.703201e+01	6.880320e+02
1.670000e-06	8.276888e-06	1.045754e-08	5.700441e+01	6.876457e+02
1.680000e-06	8.270085e-06	1.045213e-08	5.695756e+01	6.871454e+02
1.690000e-06	8.260444e-06	1.044587e-08	5.689116e+01	6.865431e+02
1.700000e-06	8.247931e-06	1.043711e-08	5.680498e+01	6.858495e+02
1.710000e-06	8.232539e-06	1.042988e-08	5.669897e+01	6.850734e+02
1.720000e-06	8.214641e-06	1.042371e-08	5.657571e+01	6.842205e+02
1.730000e-06	8.194408e-06	1.041930e-08	5.643636e+01	6.832935e+02
1.740000e-06	8.171396e-06	1.035057e-08	5.627787e+01	6.822924e+02
1.750000e-06	8.144862e-06	1.030380e-08	5.609512e+01	6.812151e+02
1.760000e-06	8.114417e-06	1.032736e-08	5.588544e+01	6.800580e+02
1.770000e-06	8.080627e-06	1.031640e-08	5.565273e+01	6.788170e+02
1.780000e-06	8.044517e-06	1.029717e-08	5.540403e+01	6.774880e+02
1.790000e-06	8.006152e-06	1.032336e-08	5.513981e+01	6.760674e+02
1.800000e-06	7.965551e-06	1.034290e-08	5.486018e+01	6.745518e+02
1.810000e-06	7.922852e-06	1.019180e-08	5.456611e+01	6.729380e+02
1.820000e-06	7.877391e-06	1.022051e-08	5.425301e+01	6.712224e+02
1.830000e-06	7.829038e-06	1.022038e-08	5.391999e+01	6.694002e+02
1.840000e-06	7.777768e-06	1.014568e-08	5.356688e+01	6.674654e+02
1.850000e-06	7.723265e-06	1.021255e-08	5.319151e+01	6.654102e+02
1.860000e-06	7.665953e-06	1.011240e-08	5.279679e+01	6.632256e+02
1.870000e-06	7.605877e-06	1.013479e-08	5.238304e+01	6.609015e+02
1.880000e-06	7.542984e-06	1.004611e-08	5.194988e+01	6.584279e+02
1.890000e-06	7.477329e-06	9.992133e-09	5.149771e+01	6.557961e+02
1.900000e-06	7.408721e-06	1.002994e-08	5.102519e+01	6.529996e+02
1.910000e-06	7.337195e-06	9.882213e-09	5.053258e+01	6.500354e+02
1.920000e-06	7.262716e-06	9.883878e-09	5.001963e+01	6.469042e+02
1.930000e-06	7.185412e-06	9.828602e-09	4.948722e+01	6.436108e+02
1.940000e-06	7.105376e-06	9.795297e-09	4.893600e+01	6.401636e+02
1.950000e-06	7.022799e-06	9.723909e-09	4.836728e+01	6.365734e+02
1.960000e-06	6.937711e-06	9.637350e-09	4.778126e+01	6.328518e+02
1.970000e-06	6.849876e-06	9.634479e-09	4.717633e+01	6.290097e+02
1.980000e-06	6.759514e-06	9.522046e-09	4.655399e+01	6.250555e+02
1.990000e-06	6.666780e-06	9.496167e-09	4.591531e+01	6.209940e+02
2.000000e-06	6.571751e-06	9.439254e-09	4.526083e+01	6.168251e+02
2.010000e-06	6.474431e-06	9.384323e-09	4.459057e+01	6.125441e+02
2.020000e-06	6.374773e-06	9.282672e-09	4.390420e+01	6.081422e+02
2.030000e-06	6.272751e-06	9.201095e-09	4.320156e+01	6.036077e+02
2.040000e-06	6.168403e-06	9.156328e-09	4.248290e+01	5.989278e+02
2.050000e-06	6.061958e-06	9.078753e-09	4.174979e+01	5.940903e+02
2.060000e-06	5.953465e-06	9.014852e-09	4.100258e+01	5.890858e+02
2.070000e-06	5.842888e-06	8.922149e-09	4.024101e+01	5.839085e+02
2.080000e-06	5.730149e-06	8.850413e-09	3.946457e+01	5.785573e+02
2.090000e-06	5.615201e-06	8.744960e-09	3.867289e+01	5.730355e+02
2.100000e-06	5.498044e-06	8.663563e-09	3.786602e+01	5.673494e+02
2.110000e-06	5.378820e-06	8.576062e-09	3.704490e+01	5.615072e+02
2.120000e-06	5.257688e-06	8.492120e-09	3.621064e+01	5.555166e+02
2.130000e-06	5.134692e-06	8.392931e-09	3.536355e+01	5.493824e+02
2.140000e-06	5.009788e-06	8.299378e-09	3.450331e+01	5.431052e+02
2.150000e-06	4.883096e-06	8.209713e-09	3.363076e+01	5.366794e+02
2.160000e-06	4.754701e-06	8.105608e-09	3.274648e+01	5.300936e+02
2.170000e-06	4.624606e-06	8.000473e-09	3.185049e+01	5.233307e+02
2.180000e-06	4.492837e-06	7.882396e-09	3.094297e+01	5.163699e+02
2.190000e-06	4.359320e-06	7.779474e-09	3.002342e+01	5.091887e+02
2.200000e-06	4.224224e-06	7.667135e-09	2.909299e+01	5.017659e+02
2.210000e-06	4.087559e-06	7.555614e-09	2.815175e+01	4.940841e+02
2.220000e-06	3.949219e-06	7.429248e-09	2.719898e+01	4.861319e+02
2.230000e-06	3.809181e-06	7.303387e-09	2.623452e+01	4.779048e+02
2.240000e-06	3.667694e-06	7.171794e-09	2.526007e+01	4.694055e+02
2.250000e-06	3.524917e-06	7.041109e-09	2.427674e+01	4.606426e+02
2.260000e-06	3.380870e-06	6.911466e-09	2.328465e+01	4.516283e+02
2.270000e-06	3.235622e-06	6.778387e-09	2.228431e+01	4.423748e+02
2.280000e-06	3.089147e-06	6.633373e-09	2.127551e+01	4.328914e+02
2.290000e-06	2.941485e-06	6.476839e-09	2.025854e+01	4.231806e+02
2.300000e-06	2.792709e-06	6.323556e-09	1.923389e+01	4.132363e+02
2.310000e-06	2.642991e-06	6.170983e-09	1.820276e+01	4.030421e+02
2.320000e-06	2.492400e-06	6.015254e-09	1.716560e+01	3.925719e+02
2.330000e-06	2.340976e-06	5.848812e-09	1.612272e+01	3.817915e+02
2.340000e-06	2.188831e-06	5.676909e-09	1.507487e+01	3.706626e+02
2.350000e-06	2.035989e-06	5.501136e-09	1.402222e+01	3.591462e+02
2.360000e-06	1.882425e-06	5.320363e-09	1.296460e+01	3.472076e+02
2.370000e-06	1.728179e-06	5.132597e-09	1.190228e+01	3.348204e+02
2.380000e-06	1.573333e-06	4.935847e-09	1.083583e+01	3.219688e+02
2.390000e-06	1.417901e-06	4.731092e-09	9.765339e+00	3.086486e+02
2.400000e-06	1.261926e-06	4.521243e-09	8.691109e+00	2.948664e+02
2.410000e-06	1.105490e-06	4.306789e-09	7.613708e+00	2.806354e+02
2.420000e-06	9.486368e-07	4.088023e-09	6.533431e+00	2.659701e+02
2.430000e-06	7.914915e-07	3.859909e-09	5.451144e+00	2.508799e+02
2.440000e-06	6.340687e-07	3.622102e-09	4.366945e+00	2.353618e+02
2.450000e-06	4.764012e-07	3.376430e-09	3.281061e+00	2.193942e+02
2.460000e-06	3.185837e-07	3.123010e-09	2.194143e+00	2.029325e+02
2.470000e-06	1.606141e-07	2.861262e-09	1.106178e+00	1.859076e+02
2.480000e-06	2.550190e-09	2.587097e-09	1.756362e-02	1.682278e+02
2.490000e-06	-1.555410e-07	2.300783e-09	-1.071239e+00	1.497844e+02
2.500000e-06	-3.135616e-07	2.003050e-09	-2.159555e+00	1.304609e+02
2.510000e-06	-4.714745e-07	1.693667e-09	-3.247129e+00	1.101450e+02
2.520000e-06	-6.292900e-07	1.371508e-09	-4.334033e+00	8.874215e+01
2.530000e-06	-7.869028e-07	1.032592e-09	-5.419541e+00	6.618969e+01
2.540000e-06	-9.442011e-07	6.759623e-10	-6.502882e+00	4.246912e+01
2.550000e-06	-1.101188e-06	3.015075e-10	-7.584080e+00	1.761598e+01
2.560000e-06	-1.257842e-06	-8.884480e-11	-8.662982e+00	-8.274615e+00
2.570000e-06	-1.414071e-06	-4.932199e-10	-9.738959e+00	-3.504739e+01
2.580000e-06	-1.569809e-06	-9.134959e-10	-1.081156e+01	-6.249174e+01
2.590000e-06	-1.724902e-06	-1.345799e-09	-1.187971e+01	-9.035165e+01
2.600000e-06	-1.879135e-06	-1.782528e-09	-1.294194e+01	-1.183399e+02
2.610000e-06	-2.032515e-06	-2.216156e-09	-1.399829e+01	-1.461554e+02
2.620000e-06	-2.185131e-06	-2.640608e-09	-1.504939e+01	-1.735016e+02
2.630000e-06	-2.336978e-06	-3.049430e-09	-1.609519e+01	-2.001050e+02
2.640000e-06	-2.487933e-06	-3.438654e-09	-1.713484e+01	-2.257307e+02
2.650000e-06	-2.637961e-06	-3.809923e-09	-1.816811e+01	-2.501953e+02
2.660000e-06	-2.787139e-06	-4.161992e-09	-1.919553e+01	-2.733739e+02
2.670000e-06	-2.935391e-06	-4.489270e-09	-2.021657e+01	-2.952028e+02
2.680000e-06	-3.082469e-06	-4.796400e-09	-2.122952e+01	-3.156767e+02
2.690000e-06	-3.228243e-06	-5.090466e-09	-2.223349e+01	-3.348410e+02
2.700000e-06	-3.372750e-06	-5.369237e-09	-2.322874e+01	-3.527809e+02
2.710000e-06	-3.516023e-06	-5.630822e-09	-2.421548e+01	-3.696080e+02
2.720000e-06	-3.658031e-06	-5.874417e-09	-2.519352e+01	-3.854470e+02
2.730000e-06	-3.798703e-06	-6.106581e-09	-2.616235e+01	-4.004224e+02
2.740000e-06	-3.937952e-06	-6.329003e-09	-2.712138e+01	-4.146480e+02
2.750000e-06	-4.075667e-06	-6.541795e-09	-2.806985e+01	-4.282191e+02
2.760000e-06	-4.211858e-06	-6.746122e-09	-2.900782e+01	-4.412081e+02
2.770000e-06	-4.346559e-06	-6.936899e-09	-2.993553e+01	-4.536641e+02
2.780000e-06	-4.479775e-06	-7.115756e-09	-3.085302e+01	-4.656151e+02
2.790000e-06	-4.611412e-06	-7.286228e-09	-3.175962e+01	-4.770726e+02
2.800000e-06	-4.741438e-06	-7.449357e-09	-3.265513e+01	-4.880378e+02
2.810000e-06	-4.869805e-06	-7.605060e-09	-3.353922e+01	-4.985079e+02
2.820000e-06	-4.996505e-06	-7.755215e-09	-3.441183e+01	-5.084815e+02
2.830000e-06	-5.121544e-06	-7.899983e-09	-3.527299e+01	-5.179637e+02
2.840000e-06	-5.244680e-06	-8.039430e-09	-3.612105e+01	-5.269675e+02
2.850000e-06	-5.365799e-06	-8.173380e-09	-3.695522e+01	-5.355154e+02
2.860000e-06	-5.485008e-06	-8.300953e-09	-3.777624e+01	-5.436374e+02
2.870000e-06	-5.602237e-06	-8.422025e-09	-3.858361e+01	-5.513691e+02
2.880000e-06	-5.717117e-06	-8.536916e-09	-3.937481e+01	-5.587475e+02
2.890000e-06	-5.829626e-06	-8.646304e-09	-4.014968e+01	-5.658084e+02
2.900000e-06	-5.939954e-06	-8.749837e-09	-4.090953e+01	-5.725826e+02
2.910000e-06	-6.048156e-06	-8.849802e-09	-4.165473e+01	-5.790945e+02
2.920000e-06	-6.154270e-06	-8.946294e-09	-4.238556e+01	-5.853609e+02
2.930000e-06	-6.258176e-06	-9.039795e-09	-4.310118e+01	-5.913917e+02
2.940000e-06	-6.359775e-06	-9.127999e-09	-4.380091e+01	-5.971912e+02
