# Temperatura_=_26.26
# Concentracion g/m^3_=_15000.0
# C_Vs_to_Am_M_A/Vsm_=_65563218390.804596
# pendiente_HvsI_1/m_=_3716.3
# ordenada_HvsI_A/m_=_1297.0
# frecuencia_Hz_=_302328.8979036406

Tiempo_(s)	Campo_(V.s)	Magnetizacion_(V.s)	Campo_(kA/m)	Magnetizacion_(A/m)
0.000000e+00	-8.282039e-06	-5.667744e-09	-5.692834e+01	-3.703954e+02
1.000000e-08	-8.279409e-06	-5.668516e-09	-5.691026e+01	-3.702647e+02
2.000000e-08	-8.274072e-06	-5.665587e-09	-5.687358e+01	-3.700646e+02
3.000000e-08	-8.266031e-06	-5.658505e-09	-5.681831e+01	-3.697992e+02
4.000000e-08	-8.255076e-06	-5.652081e-09	-5.674301e+01	-3.694742e+02
5.000000e-08	-8.241114e-06	-5.646066e-09	-5.664703e+01	-3.690963e+02
6.000000e-08	-8.224306e-06	-5.640319e-09	-5.653151e+01	-3.686725e+02
7.000000e-08	-8.205047e-06	-5.634360e-09	-5.639912e+01	-3.682091e+02
8.000000e-08	-8.183371e-06	-5.628626e-09	-5.625013e+01	-3.677114e+02
9.000000e-08	-8.158708e-06	-5.649681e-09	-5.608060e+01	-3.671830e+02
1.000000e-07	-8.130720e-06	-5.651741e-09	-5.588822e+01	-3.666256e+02
1.100000e-07	-8.099595e-06	-5.611440e-09	-5.567428e+01	-3.660390e+02
1.200000e-07	-8.065438e-06	-5.582332e-09	-5.543949e+01	-3.654212e+02
1.300000e-07	-8.028462e-06	-5.571078e-09	-5.518532e+01	-3.647689e+02
1.400000e-07	-7.989079e-06	-5.556715e-09	-5.491462e+01	-3.640775e+02
1.500000e-07	-7.947349e-06	-5.514891e-09	-5.462778e+01	-3.633421e+02
1.600000e-07	-7.903115e-06	-5.532337e-09	-5.432373e+01	-3.625572e+02
1.700000e-07	-7.856042e-06	-5.545107e-09	-5.400017e+01	-3.617177e+02
1.800000e-07	-7.805945e-06	-5.474576e-09	-5.365581e+01	-3.608187e+02
1.900000e-07	-7.752926e-06	-5.514560e-09	-5.329137e+01	-3.598558e+02
2.000000e-07	-7.696942e-06	-5.498643e-09	-5.290656e+01	-3.588253e+02
2.100000e-07	-7.638106e-06	-5.437507e-09	-5.250213e+01	-3.577238e+02
2.200000e-07	-7.576627e-06	-5.426799e-09	-5.207954e+01	-3.565490e+02
2.300000e-07	-7.512423e-06	-5.408499e-09	-5.163822e+01	-3.552988e+02
2.400000e-07	-7.445429e-06	-5.412861e-09	-5.117772e+01	-3.539720e+02
2.500000e-07	-7.375647e-06	-5.356951e-09	-5.069806e+01	-3.525682e+02
2.600000e-07	-7.302963e-06	-5.346569e-09	-5.019846e+01	-3.510876e+02
2.700000e-07	-7.227303e-06	-5.332386e-09	-4.967839e+01	-3.495312e+02
2.800000e-07	-7.148716e-06	-5.290740e-09	-4.913821e+01	-3.479006e+02
2.900000e-07	-7.067397e-06	-5.259903e-09	-4.857925e+01	-3.461977e+02
3.000000e-07	-6.983631e-06	-5.253336e-09	-4.800346e+01	-3.444249e+02
3.100000e-07	-6.897510e-06	-5.243393e-09	-4.741149e+01	-3.425843e+02
3.200000e-07	-6.808830e-06	-5.182513e-09	-4.680193e+01	-3.406776e+02
3.300000e-07	-6.717633e-06	-5.157080e-09	-4.617506e+01	-3.387058e+02
3.400000e-07	-6.624019e-06	-5.139814e-09	-4.553159e+01	-3.366687e+02
3.500000e-07	-6.527905e-06	-5.096871e-09	-4.487093e+01	-3.345651e+02
3.600000e-07	-6.429461e-06	-5.053301e-09	-4.419425e+01	-3.323925e+02
3.700000e-07	-6.328818e-06	-5.031989e-09	-4.350246e+01	-3.301476e+02
3.800000e-07	-6.225847e-06	-5.003451e-09	-4.279467e+01	-3.278264e+02
3.900000e-07	-6.120520e-06	-4.946907e-09	-4.207069e+01	-3.254249e+02
4.000000e-07	-6.013033e-06	-4.907614e-09	-4.133185e+01	-3.229392e+02
4.100000e-07	-5.903568e-06	-4.880016e-09	-4.057942e+01	-3.203665e+02
4.200000e-07	-5.791993e-06	-4.836885e-09	-3.981249e+01	-3.177053e+02
4.300000e-07	-5.678105e-06	-4.781687e-09	-3.902965e+01	-3.149553e+02
4.400000e-07	-5.562008e-06	-4.748763e-09	-3.823164e+01	-3.121176e+02
4.500000e-07	-5.443802e-06	-4.719029e-09	-3.741912e+01	-3.091943e+02
4.600000e-07	-5.323603e-06	-4.669194e-09	-3.659291e+01	-3.061878e+02
4.700000e-07	-5.201624e-06	-4.613112e-09	-3.575446e+01	-3.031004e+02
4.800000e-07	-5.077826e-06	-4.566204e-09	-3.490351e+01	-2.999329e+02
4.900000e-07	-4.952196e-06	-4.515099e-09	-3.403996e+01	-2.966849e+02
5.000000e-07	-4.824793e-06	-4.460901e-09	-3.316423e+01	-2.933532e+02
5.100000e-07	-4.695604e-06	-4.414399e-09	-3.227623e+01	-2.899323e+02
5.200000e-07	-4.564626e-06	-4.362053e-09	-3.137592e+01	-2.864143e+02
5.300000e-07	-4.431944e-06	-4.298542e-09	-3.046390e+01	-2.827895e+02
5.400000e-07	-4.297671e-06	-4.234546e-09	-2.954095e+01	-2.790469e+02
5.500000e-07	-4.161747e-06	-4.179739e-09	-2.860665e+01	-2.751754e+02
5.600000e-07	-4.024138e-06	-4.120888e-09	-2.766076e+01	-2.711650e+02
5.700000e-07	-3.884952e-06	-4.060307e-09	-2.670403e+01	-2.670074e+02
5.800000e-07	-3.744137e-06	-3.997815e-09	-2.573612e+01	-2.626972e+02
5.900000e-07	-3.601742e-06	-3.932306e-09	-2.475734e+01	-2.582318e+02
6.000000e-07	-3.457953e-06	-3.860637e-09	-2.376897e+01	-2.536114e+02
6.100000e-07	-3.312882e-06	-3.786794e-09	-2.277180e+01	-2.488384e+02
6.200000e-07	-3.166626e-06	-3.710309e-09	-2.176647e+01	-2.439166e+02
6.300000e-07	-3.019232e-06	-3.626831e-09	-2.075333e+01	-2.388496e+02
6.400000e-07	-2.870826e-06	-3.545439e-09	-1.973323e+01	-2.336395e+02
6.500000e-07	-2.721535e-06	-3.465808e-09	-1.870704e+01	-2.282858e+02
6.600000e-07	-2.571344e-06	-3.382134e-09	-1.767468e+01	-2.227845e+02
6.700000e-07	-2.420159e-06	-3.291729e-09	-1.663547e+01	-2.171271e+02
6.800000e-07	-2.268042e-06	-3.202692e-09	-1.558986e+01	-2.113017e+02
6.900000e-07	-2.115095e-06	-3.112895e-09	-1.453855e+01	-2.052927e+02
7.000000e-07	-1.961407e-06	-3.017788e-09	-1.348215e+01	-1.990829e+02
7.100000e-07	-1.807089e-06	-2.921959e-09	-1.242141e+01	-1.926543e+02
7.200000e-07	-1.652190e-06	-2.823561e-09	-1.135667e+01	-1.859902e+02
7.300000e-07	-1.496726e-06	-2.715877e-09	-1.028806e+01	-1.790768e+02
7.400000e-07	-1.340735e-06	-2.600749e-09	-9.215824e+00	-1.719038e+02
7.500000e-07	-1.184290e-06	-2.482180e-09	-8.140464e+00	-1.644654e+02
7.600000e-07	-1.027464e-06	-2.361435e-09	-7.062488e+00	-1.567594e+02
7.700000e-07	-8.703278e-07	-2.241822e-09	-5.982381e+00	-1.487866e+02
7.800000e-07	-7.129248e-07	-2.120470e-09	-4.900439e+00	-1.405489e+02
7.900000e-07	-5.552613e-07	-1.995037e-09	-3.816705e+00	-1.320471e+02
8.000000e-07	-3.974553e-07	-1.861761e-09	-2.731993e+00	-1.232787e+02
8.100000e-07	-2.395596e-07	-1.722333e-09	-1.646663e+00	-1.142360e+02
8.200000e-07	-8.150788e-08	-1.578685e-09	-5.602616e-01	-1.049043e+02
8.300000e-07	7.668450e-08	-1.428482e-09	5.271071e-01	-9.526222e+01
8.400000e-07	2.348945e-07	-1.272159e-09	1.614597e+00	-8.528170e+01
8.500000e-07	3.930102e-07	-1.109304e-09	2.701438e+00	-7.493044e+01
8.600000e-07	5.509841e-07	-9.428716e-10	3.787305e+00	-6.417491e+01
8.700000e-07	7.088128e-07	-7.727028e-10	4.872175e+00	-5.298440e+01
8.800000e-07	8.664992e-07	-5.980225e-10	5.956065e+00	-4.133554e+01
8.900000e-07	1.023959e-06	-4.158916e-10	7.038396e+00	-2.921695e+01
9.000000e-07	1.181116e-06	-2.235502e-10	8.118651e+00	-1.663332e+01
9.100000e-07	1.337926e-06	-2.742148e-11	9.196517e+00	-3.608422e+00
9.200000e-07	1.494233e-06	1.704073e-10	1.027093e+01	9.813143e+00
9.300000e-07	1.649907e-06	3.763833e-10	1.134099e+01	2.356606e+01
9.400000e-07	1.804953e-06	5.925880e-10	1.240672e+01	3.756611e+01
9.500000e-07	1.959384e-06	8.115796e-10	1.346824e+01	5.171374e+01
9.600000e-07	2.113133e-06	1.027665e-09	1.452506e+01	6.589900e+01
9.700000e-07	2.266119e-06	1.240315e-09	1.557665e+01	8.000739e+01
9.800000e-07	2.418248e-06	1.450004e-09	1.662234e+01	9.392621e+01
9.900000e-07	2.569358e-06	1.654399e-09	1.766102e+01	1.075506e+02
1.000000e-06	2.719387e-06	1.851293e-09	1.869228e+01	1.207888e+02
1.010000e-06	2.868351e-06	2.041788e-09	1.971622e+01	1.335662e+02
1.020000e-06	3.016250e-06	2.225852e-09	2.073283e+01	1.458279e+02
1.030000e-06	3.163068e-06	2.403272e-09	2.174202e+01	1.575392e+02
1.040000e-06	3.308753e-06	2.573344e-09	2.274341e+01	1.686850e+02
1.050000e-06	3.453215e-06	2.736539e-09	2.373640e+01	1.792670e+02
1.060000e-06	3.596371e-06	2.889070e-09	2.472041e+01	1.893006e+02
1.070000e-06	3.738159e-06	3.032339e-09	2.569502e+01	1.988108e+02
1.080000e-06	3.878517e-06	3.170014e-09	2.665981e+01	2.078278e+02
1.090000e-06	4.017399e-06	3.303287e-09	2.761444e+01	2.163837e+02
1.100000e-06	4.154787e-06	3.427505e-09	2.855881e+01	2.245093e+02
1.110000e-06	4.290561e-06	3.543849e-09	2.949207e+01	2.322318e+02
1.120000e-06	4.424726e-06	3.657919e-09	3.041428e+01	2.395743e+02
1.130000e-06	4.557426e-06	3.767959e-09	3.132643e+01	2.465558e+02
1.140000e-06	4.688528e-06	3.870927e-09	3.222758e+01	2.531920e+02
1.150000e-06	4.817944e-06	3.964369e-09	3.311715e+01	2.594968e+02
1.160000e-06	4.945704e-06	4.053662e-09	3.399534e+01	2.654838e+02
1.170000e-06	5.071771e-06	4.139643e-09	3.486189e+01	2.711680e+02
1.180000e-06	5.196100e-06	4.220942e-09	3.571649e+01	2.765665e+02
1.190000e-06	5.318644e-06	4.297895e-09	3.655882e+01	2.816992e+02
1.200000e-06	5.439305e-06	4.370280e-09	3.738821e+01	2.865882e+02
1.210000e-06	5.557962e-06	4.439993e-09	3.820383e+01	2.912573e+02
1.220000e-06	5.674507e-06	4.509239e-09	3.900492e+01	2.957302e+02
1.230000e-06	5.788818e-06	4.577470e-09	3.979066e+01	3.000290e+02
1.240000e-06	5.900875e-06	4.642000e-09	4.056091e+01	3.041725e+02
1.250000e-06	6.010789e-06	4.702443e-09	4.131643e+01	3.081751e+02
1.260000e-06	6.118604e-06	4.759541e-09	4.205751e+01	3.120457e+02
1.270000e-06	6.224192e-06	4.815484e-09	4.278329e+01	3.157875e+02
1.280000e-06	6.327423e-06	4.869602e-09	4.349288e+01	3.193989e+02
1.290000e-06	6.428326e-06	4.919956e-09	4.418645e+01	3.228741e+02
1.300000e-06	6.526859e-06	4.968256e-09	4.486374e+01	3.262052e+02
1.310000e-06	6.622880e-06	5.014126e-09	4.552377e+01	3.293834e+02
1.320000e-06	6.716550e-06	5.056394e-09	4.616762e+01	3.324013e+02
1.330000e-06	6.807915e-06	5.097034e-09	4.679564e+01	3.352545e+02
1.340000e-06	6.896794e-06	5.136853e-09	4.740657e+01	3.379420e+02
1.350000e-06	6.983239e-06	5.174220e-09	4.800077e+01	3.404674e+02
1.360000e-06	7.067301e-06	5.209686e-09	4.857858e+01	3.428383e+02
1.370000e-06	7.148837e-06	5.244333e-09	4.913904e+01	3.450656e+02
1.380000e-06	7.227727e-06	5.277255e-09	4.968131e+01	3.471623e+02
1.390000e-06	7.303954e-06	5.306051e-09	5.020527e+01	3.491422e+02
1.400000e-06	7.377445e-06	5.331481e-09	5.071043e+01	3.510181e+02
1.410000e-06	7.448280e-06	5.357286e-09	5.119732e+01	3.528005e+02
1.420000e-06	7.516550e-06	5.382959e-09	5.166660e+01	3.544972e+02
1.430000e-06	7.582085e-06	5.406910e-09	5.211706e+01	3.561121e+02
1.440000e-06	7.644897e-06	5.428877e-09	5.254881e+01	3.576456e+02
1.450000e-06	7.705142e-06	5.449913e-09	5.296292e+01	3.590956e+02
1.460000e-06	7.762734e-06	5.470434e-09	5.335879e+01	3.604578e+02
1.470000e-06	7.817558e-06	5.488697e-09	5.373563e+01	3.617274e+02
1.480000e-06	7.869373e-06	5.505085e-09	5.409180e+01	3.629000e+02
1.490000e-06	7.917961e-06	5.520469e-09	5.442577e+01	3.639728e+02
1.500000e-06	7.963583e-06	5.535494e-09	5.473937e+01	3.649456e+02
1.510000e-06	8.006412e-06	5.550672e-09	5.503376e+01	3.658207e+02
1.520000e-06	8.046294e-06	5.563957e-09	5.530790e+01	3.666031e+02
1.530000e-06	8.083320e-06	5.574214e-09	5.556241e+01	3.672999e+02
1.540000e-06	8.117576e-06	5.583354e-09	5.579787e+01	3.679194e+02
1.550000e-06	8.148942e-06	5.592535e-09	5.601347e+01	3.684704e+02
1.560000e-06	8.177452e-06	5.600422e-09	5.620944e+01	3.689604e+02
1.570000e-06	8.202965e-06	5.606065e-09	5.638481e+01	3.693957e+02
1.580000e-06	8.225460e-06	5.610783e-09	5.653943e+01	3.697801e+02
1.590000e-06	8.245136e-06	5.617067e-09	5.667468e+01	3.701147e+02
1.600000e-06	8.261828e-06	5.624242e-09	5.678942e+01	3.703983e+02
1.610000e-06	8.275425e-06	5.629691e-09	5.688288e+01	3.706278e+02
1.620000e-06	8.285782e-06	5.632974e-09	5.695407e+01	3.707986e+02
1.630000e-06	8.292935e-06	5.634493e-09	5.700324e+01	3.709059e+02
1.640000e-06	8.297196e-06	5.635370e-09	5.703253e+01	3.709455e+02
1.650000e-06	8.298501e-06	5.636443e-09	5.704150e+01	3.709143e+02
1.660000e-06	8.296907e-06	5.634976e-09	5.703054e+01	3.708115e+02
1.670000e-06	8.292657e-06	5.627747e-09	5.700133e+01	3.706382e+02
1.680000e-06	8.285647e-06	5.624850e-09	5.695314e+01	3.703978e+02
1.690000e-06	8.275842e-06	5.624419e-09	5.688575e+01	3.700953e+02
1.700000e-06	8.263193e-06	5.622639e-09	5.679880e+01	3.697373e+02
1.710000e-06	8.247669e-06	5.621002e-09	5.669210e+01	3.693307e+02
1.720000e-06	8.229616e-06	5.618530e-09	5.656800e+01	3.688820e+02
1.730000e-06	8.209153e-06	5.607270e-09	5.642734e+01	3.683972e+02
1.740000e-06	8.185853e-06	5.551684e-09	5.626719e+01	3.678804e+02
1.750000e-06	8.158960e-06	5.541497e-09	5.608234e+01	3.673342e+02
1.760000e-06	8.128120e-06	5.566786e-09	5.587035e+01	3.667592e+02
1.770000e-06	8.094088e-06	5.561197e-09	5.563642e+01	3.661539e+02
1.780000e-06	8.057747e-06	5.550367e-09	5.538662e+01	3.655155e+02
1.790000e-06	8.019035e-06	5.585066e-09	5.512053e+01	3.648400e+02
1.800000e-06	7.978137e-06	5.577860e-09	5.483940e+01	3.641224e+02
1.810000e-06	7.935138e-06	5.491400e-09	5.454384e+01	3.633575e+02
1.820000e-06	7.889313e-06	5.551746e-09	5.422886e+01	3.625400e+02
1.830000e-06	7.840665e-06	5.508679e-09	5.389446e+01	3.616648e+02
1.840000e-06	7.789083e-06	5.481567e-09	5.353991e+01	3.607274e+02
1.850000e-06	7.734289e-06	5.503860e-09	5.316327e+01	3.597238e+02
1.860000e-06	7.676712e-06	5.450564e-09	5.276750e+01	3.586505e+02
1.870000e-06	7.616284e-06	5.488182e-09	5.235214e+01	3.575046e+02
1.880000e-06	7.553073e-06	5.409830e-09	5.191764e+01	3.562841e+02
1.890000e-06	7.487089e-06	5.419914e-09	5.146408e+01	3.549874e+02
1.900000e-06	7.418113e-06	5.428154e-09	5.098997e+01	3.536138e+02
1.910000e-06	7.346266e-06	5.343690e-09	5.049611e+01	3.521633e+02
1.920000e-06	7.271502e-06	5.356159e-09	4.998220e+01	3.506364e+02
1.930000e-06	7.193879e-06	5.342534e-09	4.944865e+01	3.490346e+02
1.940000e-06	7.113488e-06	5.326663e-09	4.889606e+01	3.473598e+02
1.950000e-06	7.030538e-06	5.252762e-09	4.832589e+01	3.456141e+02
1.960000e-06	6.945026e-06	5.232707e-09	4.773810e+01	3.437998e+02
1.970000e-06	6.856838e-06	5.231471e-09	4.713192e+01	3.419188e+02
1.980000e-06	6.766197e-06	5.170231e-09	4.650889e+01	3.399724e+02
1.990000e-06	6.673106e-06	5.167613e-09	4.586900e+01	3.379610e+02
2.000000e-06	6.577659e-06	5.147132e-09	4.521293e+01	3.358836e+02
2.010000e-06	6.479969e-06	5.108072e-09	4.454143e+01	3.337384e+02
2.020000e-06	6.379994e-06	5.040233e-09	4.385424e+01	3.315223e+02
2.030000e-06	6.277613e-06	5.022402e-09	4.315050e+01	3.292315e+02
2.040000e-06	6.172913e-06	5.006514e-09	4.243082e+01	3.268619e+02
2.050000e-06	6.066143e-06	4.956822e-09	4.169692e+01	3.244096e+02
2.060000e-06	5.957316e-06	4.914348e-09	4.094887e+01	3.218713e+02
2.070000e-06	5.846379e-06	4.880408e-09	4.018632e+01	3.192449e+02
2.080000e-06	5.733307e-06	4.841726e-09	3.940909e+01	3.165296e+02
2.090000e-06	5.618043e-06	4.781788e-09	3.861680e+01	3.137261e+02
2.100000e-06	5.500556e-06	4.749061e-09	3.780923e+01	3.108360e+02
2.110000e-06	5.380991e-06	4.711335e-09	3.698737e+01	3.078619e+02
2.120000e-06	5.259483e-06	4.655581e-09	3.615217e+01	3.048059e+02
2.130000e-06	5.136189e-06	4.600076e-09	3.530468e+01	3.016698e+02
2.140000e-06	5.011025e-06	4.564459e-09	3.444433e+01	2.984535e+02
2.150000e-06	4.883949e-06	4.516968e-09	3.357085e+01	2.951551e+02
2.160000e-06	4.755108e-06	4.458033e-09	3.268524e+01	2.917700e+02
2.170000e-06	4.624614e-06	4.405272e-09	3.178826e+01	2.882912e+02
2.180000e-06	4.492450e-06	4.354382e-09	3.087980e+01	2.847095e+02
2.190000e-06	4.358547e-06	4.300953e-09	2.995940e+01	2.810144e+02
2.200000e-06	4.223067e-06	4.244732e-09	2.902815e+01	2.771947e+02
2.210000e-06	4.086006e-06	4.186698e-09	2.808602e+01	2.732399e+02
2.220000e-06	3.947316e-06	4.113460e-09	2.713271e+01	2.691409e+02
2.230000e-06	3.806964e-06	4.039208e-09	2.616797e+01	2.648910e+02
2.240000e-06	3.665152e-06	3.973320e-09	2.519320e+01	2.604866e+02
2.250000e-06	3.522016e-06	3.912088e-09	2.420932e+01	2.559268e+02
2.260000e-06	3.377549e-06	3.845935e-09	2.321629e+01	2.512133e+02
2.270000e-06	3.231879e-06	3.776428e-09	2.221500e+01	2.463494e+02
2.280000e-06	3.085013e-06	3.699490e-09	2.120548e+01	2.413390e+02
2.290000e-06	2.936880e-06	3.614790e-09	2.018726e+01	2.361849e+02
2.300000e-06	2.787652e-06	3.532435e-09	1.916151e+01	2.308879e+02
2.310000e-06	2.637525e-06	3.453015e-09	1.812959e+01	2.254452e+02
2.320000e-06	2.486498e-06	3.369828e-09	1.709147e+01	2.198502e+02
2.330000e-06	2.334698e-06	3.279544e-09	1.604804e+01	2.140924e+02
2.340000e-06	2.182132e-06	3.190108e-09	1.499935e+01	2.081575e+02
2.350000e-06	2.028769e-06	3.101309e-09	1.394517e+01	2.020286e+02
2.360000e-06	1.874804e-06	3.005177e-09	1.288686e+01	1.956879e+02
2.370000e-06	1.720347e-06	2.902642e-09	1.182517e+01	1.891181e+02
2.380000e-06	1.565325e-06	2.795910e-09	1.075959e+01	1.823040e+02
2.390000e-06	1.409666e-06	2.687434e-09	9.689637e+00	1.752339e+02
2.400000e-06	1.253433e-06	2.578176e-09	8.615736e+00	1.679001e+02
2.410000e-06	1.096751e-06	2.467523e-09	7.538747e+00	1.602992e+02
2.420000e-06	9.396549e-07	2.352422e-09	6.458916e+00	1.524309e+02
2.430000e-06	7.822120e-07	2.225338e-09	5.376699e+00	1.442970e+02
2.440000e-06	6.245153e-07	2.092554e-09	4.292737e+00	1.358989e+02
2.450000e-06	4.665589e-07	1.959895e-09	3.206991e+00	1.272358e+02
2.460000e-06	3.083698e-07	1.827861e-09	2.119645e+00	1.183021e+02
2.470000e-06	1.500929e-07	1.692120e-09	1.031695e+00	1.090860e+02
2.480000e-06	-8.251769e-09	1.547821e-09	-5.672027e-02	9.956880e+01
2.490000e-06	-1.666051e-07	1.396776e-09	-1.145195e+00	8.972481e+01
2.500000e-06	-3.249219e-07	1.239046e-09	-2.233419e+00	7.952312e+01
2.510000e-06	-4.831562e-07	1.076880e-09	-3.321076e+00	6.893025e+01
2.520000e-06	-6.412216e-07	9.101270e-10	-4.407572e+00	5.791383e+01
2.530000e-06	-7.990637e-07	7.348691e-10	-5.492533e+00	4.644707e+01
2.540000e-06	-9.566618e-07	5.516441e-10	-6.575816e+00	3.451334e+01
2.550000e-06	-1.113959e-06	3.634954e-10	-7.657032e+00	2.211059e+01
2.560000e-06	-1.270797e-06	1.710377e-10	-8.735090e+00	9.254815e+00
2.570000e-06	-1.427120e-06	-2.932952e-11	-9.809609e+00	-4.017665e+00
2.580000e-06	-1.582906e-06	-2.383471e-10	-1.088044e+01	-1.764955e+01
2.590000e-06	-1.738023e-06	-4.527657e-10	-1.194667e+01	-3.156372e+01
2.600000e-06	-1.892408e-06	-6.712360e-10	-1.300787e+01	-4.566613e+01
2.610000e-06	-2.046164e-06	-8.916658e-10	-1.406474e+01	-5.985023e+01
2.620000e-06	-2.199224e-06	-1.111951e-09	-1.511683e+01	-7.400258e+01
2.630000e-06	-2.351345e-06	-1.330918e-09	-1.616246e+01	-8.800903e+01
2.640000e-06	-2.502529e-06	-1.546483e-09	-1.720166e+01	-1.017609e+02
2.650000e-06	-2.652879e-06	-1.756822e-09	-1.823513e+01	-1.151608e+02
2.660000e-06	-2.802282e-06	-1.957711e-09	-1.926208e+01	-1.281270e+02
2.670000e-06	-2.950589e-06	-2.144512e-09	-2.028150e+01	-1.405967e+02
2.680000e-06	-3.097732e-06	-2.321311e-09	-2.129291e+01	-1.525271e+02
2.690000e-06	-3.243718e-06	-2.491939e-09	-2.229638e+01	-1.638958e+02
2.700000e-06	-3.388474e-06	-2.656132e-09	-2.329139e+01	-1.746982e+02
2.710000e-06	-3.531974e-06	-2.814310e-09	-2.427777e+01	-1.849449e+02
2.720000e-06	-3.674234e-06	-2.964286e-09	-2.525562e+01	-1.946573e+02
2.730000e-06	-3.815087e-06	-3.106907e-09	-2.622380e+01	-2.038644e+02
2.740000e-06	-3.954433e-06	-3.241242e-09	-2.718163e+01	-2.125978e+02
2.750000e-06	-4.092317e-06	-3.370610e-09	-2.812941e+01	-2.208890e+02
2.760000e-06	-4.228690e-06	-3.493767e-09	-2.906679e+01	-2.287669e+02
2.770000e-06	-4.363571e-06	-3.605946e-09	-2.999392e+01	-2.362563e+02
2.780000e-06	-4.496994e-06	-3.710337e-09	-3.091104e+01	-2.433777e+02
2.790000e-06	-4.628768e-06	-3.811213e-09	-3.181681e+01	-2.501480e+02
2.800000e-06	-4.758904e-06	-3.909578e-09	-3.271133e+01	-2.565815e+02
2.810000e-06	-4.887439e-06	-4.002815e-09	-3.359484e+01	-2.626917e+02
2.820000e-06	-5.014274e-06	-4.091951e-09	-3.446667e+01	-2.684931e+02
2.830000e-06	-5.139334e-06	-4.175892e-09	-3.532630e+01	-2.740016e+02
2.840000e-06	-5.262571e-06	-4.255774e-09	-3.617339e+01	-2.792363e+02
2.850000e-06	-5.383973e-06	-4.331444e-09	-3.700788e+01	-2.842184e+02
2.860000e-06	-5.503387e-06	-4.402658e-09	-3.782869e+01	-2.889711e+02
2.870000e-06	-5.620629e-06	-4.472393e-09	-3.863458e+01	-2.935184e+02
2.880000e-06	-5.735555e-06	-4.541691e-09	-3.942455e+01	-2.978832e+02
2.890000e-06	-5.848113e-06	-4.609642e-09	-4.019824e+01	-3.020858e+02
2.900000e-06	-5.958432e-06	-4.673971e-09	-4.095654e+01	-3.061425e+02
2.910000e-06	-6.066669e-06	-4.735685e-09	-4.170053e+01	-3.100643e+02
2.920000e-06	-6.172816e-06	-4.796460e-09	-4.243016e+01	-3.138568e+02
2.930000e-06	-6.276721e-06	-4.852789e-09	-4.314437e+01	-3.175200e+02
2.940000e-06	-6.378207e-06	-4.904089e-09	-4.384195e+01	-3.210497e+02
