# Temperatura_=_50.47
# Concentracion g/m^3_=_15000.0
# C_Vs_to_Am_M_A/Vsm_=_65563218390.804596
# pendiente_HvsI_1/m_=_3716.3
# ordenada_HvsI_A/m_=_1297.0
# frecuencia_Hz_=_302319.9140436428

Tiempo_(s)	Campo_(V.s)	Magnetizacion_(V.s)	Campo_(kA/m)	Magnetizacion_(A/m)
0.000000e+00	-8.222952e-06	-6.297115e-09	-5.692786e+01	-4.111249e+02
1.000000e-08	-8.220222e-06	-6.295841e-09	-5.690896e+01	-4.109311e+02
2.000000e-08	-8.214790e-06	-6.292157e-09	-5.687135e+01	-4.106712e+02
3.000000e-08	-8.206714e-06	-6.284929e-09	-5.681544e+01	-4.103547e+02
4.000000e-08	-8.195757e-06	-6.277074e-09	-5.673958e+01	-4.099917e+02
5.000000e-08	-8.181775e-06	-6.269751e-09	-5.664279e+01	-4.095908e+02
6.000000e-08	-8.164943e-06	-6.262035e-09	-5.652626e+01	-4.091588e+02
7.000000e-08	-8.145654e-06	-6.252604e-09	-5.639272e+01	-4.086995e+02
8.000000e-08	-8.123966e-06	-6.246493e-09	-5.624257e+01	-4.082137e+02
9.000000e-08	-8.099370e-06	-6.252513e-09	-5.607229e+01	-4.076991e+02
1.000000e-07	-8.071490e-06	-6.260212e-09	-5.587927e+01	-4.071513e+02
1.100000e-07	-8.040397e-06	-6.242057e-09	-5.566402e+01	-4.065638e+02
1.200000e-07	-8.006280e-06	-6.212110e-09	-5.542783e+01	-4.059298e+02
1.300000e-07	-7.969427e-06	-6.189188e-09	-5.517269e+01	-4.052422e+02
1.400000e-07	-7.930191e-06	-6.168320e-09	-5.490106e+01	-4.044952e+02
1.500000e-07	-7.888636e-06	-6.143108e-09	-5.461337e+01	-4.036839e+02
1.600000e-07	-7.844520e-06	-6.147033e-09	-5.430795e+01	-4.028052e+02
1.700000e-07	-7.797623e-06	-6.138571e-09	-5.398328e+01	-4.018572e+02
1.800000e-07	-7.747850e-06	-6.107286e-09	-5.363871e+01	-4.008390e+02
1.900000e-07	-7.695084e-06	-6.114465e-09	-5.327340e+01	-3.997504e+02
2.000000e-07	-7.639319e-06	-6.097324e-09	-5.288734e+01	-3.985912e+02
2.100000e-07	-7.580741e-06	-6.055087e-09	-5.248180e+01	-3.973611e+02
2.200000e-07	-7.519567e-06	-6.027079e-09	-5.205829e+01	-3.960591e+02
2.300000e-07	-7.455758e-06	-6.008621e-09	-5.161653e+01	-3.946839e+02
2.400000e-07	-7.389096e-06	-5.993269e-09	-5.115503e+01	-3.932341e+02
2.500000e-07	-7.319650e-06	-5.969187e-09	-5.067426e+01	-3.917082e+02
2.600000e-07	-7.247417e-06	-5.947527e-09	-5.017418e+01	-3.901055e+02
2.700000e-07	-7.172179e-06	-5.923791e-09	-4.965331e+01	-3.884258e+02
2.800000e-07	-7.094006e-06	-5.878848e-09	-4.911211e+01	-3.866703e+02
2.900000e-07	-7.013096e-06	-5.851408e-09	-4.855197e+01	-3.848412e+02
3.000000e-07	-6.929716e-06	-5.844762e-09	-4.797473e+01	-3.829415e+02
3.100000e-07	-6.843969e-06	-5.821099e-09	-4.738110e+01	-3.809743e+02
3.200000e-07	-6.755723e-06	-5.776675e-09	-4.677017e+01	-3.789426e+02
3.300000e-07	-6.665025e-06	-5.739617e-09	-4.614226e+01	-3.768483e+02
3.400000e-07	-6.571999e-06	-5.709150e-09	-4.549824e+01	-3.746918e+02
3.500000e-07	-6.476585e-06	-5.663070e-09	-4.483768e+01	-3.724712e+02
3.600000e-07	-6.378726e-06	-5.628093e-09	-4.416020e+01	-3.701828e+02
3.700000e-07	-6.278549e-06	-5.604300e-09	-4.346667e+01	-3.678210e+02
3.800000e-07	-6.176135e-06	-5.570837e-09	-4.275765e+01	-3.653788e+02
3.900000e-07	-6.071479e-06	-5.521158e-09	-4.203311e+01	-3.628486e+02
4.000000e-07	-5.964664e-06	-5.479846e-09	-4.129363e+01	-3.602237e+02
4.100000e-07	-5.855845e-06	-5.444595e-09	-4.054027e+01	-3.574984e+02
4.200000e-07	-5.744966e-06	-5.394693e-09	-3.977265e+01	-3.546691e+02
4.300000e-07	-5.631881e-06	-5.342059e-09	-3.898976e+01	-3.517349e+02
4.400000e-07	-5.516565e-06	-5.302910e-09	-3.819142e+01	-3.486970e+02
4.500000e-07	-5.399141e-06	-5.269608e-09	-3.737849e+01	-3.455587e+02
4.600000e-07	-5.279763e-06	-5.219849e-09	-3.655203e+01	-3.423244e+02
4.700000e-07	-5.158562e-06	-5.163982e-09	-3.571295e+01	-3.389980e+02
4.800000e-07	-5.035492e-06	-5.109908e-09	-3.486093e+01	-3.355824e+02
4.900000e-07	-4.910577e-06	-5.051735e-09	-3.399614e+01	-3.320778e+02
5.000000e-07	-4.783978e-06	-4.992222e-09	-3.311969e+01	-3.284813e+02
5.100000e-07	-4.655660e-06	-4.942522e-09	-3.223134e+01	-3.247860e+02
5.200000e-07	-4.525591e-06	-4.890688e-09	-3.133087e+01	-3.209820e+02
5.300000e-07	-4.393796e-06	-4.824001e-09	-3.041844e+01	-3.170566e+02
5.400000e-07	-4.260426e-06	-4.753255e-09	-2.949512e+01	-3.129956e+02
5.500000e-07	-4.125450e-06	-4.687121e-09	-2.856067e+01	-3.087851e+02
5.600000e-07	-3.988826e-06	-4.623154e-09	-2.761481e+01	-3.044129e+02
5.700000e-07	-3.850656e-06	-4.555446e-09	-2.665826e+01	-2.998699e+02
5.800000e-07	-3.710853e-06	-4.486688e-09	-2.569040e+01	-2.951508e+02
5.900000e-07	-3.569434e-06	-4.415605e-09	-2.471135e+01	-2.902546e+02
6.000000e-07	-3.426621e-06	-4.339118e-09	-2.372265e+01	-2.851842e+02
6.100000e-07	-3.282523e-06	-4.258389e-09	-2.272505e+01	-2.799450e+02
6.200000e-07	-3.137177e-06	-4.175150e-09	-2.171882e+01	-2.745433e+02
6.300000e-07	-2.990673e-06	-4.086941e-09	-2.070456e+01	-2.689846e+02
6.400000e-07	-2.843156e-06	-3.996722e-09	-1.968330e+01	-2.632711e+02
6.500000e-07	-2.694752e-06	-3.908212e-09	-1.865588e+01	-2.574006e+02
6.600000e-07	-2.545483e-06	-3.817719e-09	-1.762249e+01	-2.513649e+02
6.700000e-07	-2.395346e-06	-3.721827e-09	-1.658309e+01	-2.451501e+02
6.800000e-07	-2.244322e-06	-3.621247e-09	-1.553754e+01	-2.387366e+02
6.900000e-07	-2.092476e-06	-3.519267e-09	-1.448630e+01	-2.321014e+02
7.000000e-07	-1.939928e-06	-3.412055e-09	-1.343021e+01	-2.252193e+02
7.100000e-07	-1.786719e-06	-3.303137e-09	-1.236953e+01	-2.180663e+02
7.200000e-07	-1.632870e-06	-3.192876e-09	-1.130443e+01	-2.106209e+02
7.300000e-07	-1.478442e-06	-3.075515e-09	-1.023532e+01	-2.028669e+02
7.400000e-07	-1.323547e-06	-2.949338e-09	-9.162971e+00	-1.947939e+02
7.500000e-07	-1.168206e-06	-2.817216e-09	-8.087540e+00	-1.863972e+02
7.600000e-07	-1.012451e-06	-2.684817e-09	-7.009241e+00	-1.776770e+02
7.700000e-07	-8.563211e-07	-2.551158e-09	-5.928349e+00	-1.686356e+02
7.800000e-07	-6.998529e-07	-2.410959e-09	-4.845112e+00	-1.592747e+02
7.900000e-07	-5.431616e-07	-2.261957e-09	-3.760332e+00	-1.495916e+02
8.000000e-07	-3.862701e-07	-2.106070e-09	-2.674164e+00	-1.395766e+02
8.100000e-07	-2.292279e-07	-1.945655e-09	-1.586955e+00	-1.292100e+02
8.200000e-07	-7.211070e-08	-1.782066e-09	-4.992255e-01	-1.184613e+02
8.300000e-07	8.505230e-08	-1.612523e-09	5.888208e-01	-1.072899e+02
8.400000e-07	2.422154e-07	-1.433755e-09	1.676868e+00	-9.564722e+01
8.500000e-07	3.993689e-07	-1.244972e-09	2.764848e+00	-8.348149e+01
8.600000e-07	5.564426e-07	-1.049558e-09	3.852276e+00	-7.074308e+01
8.700000e-07	7.133478e-07	-8.483940e-10	4.938538e+00	-5.739149e+01
8.800000e-07	8.700795e-07	-6.390590e-10	6.023598e+00	-4.340222e+01
8.900000e-07	1.026510e-06	-4.188104e-10	7.106570e+00	-2.877321e+01
9.000000e-07	1.182536e-06	-1.872674e-10	8.186747e+00	-1.352976e+01
9.100000e-07	1.338088e-06	4.997377e-11	9.263638e+00	2.272472e+00
9.200000e-07	1.493148e-06	2.927580e-10	1.033713e+01	1.854709e+01
9.300000e-07	1.647739e-06	5.448442e-10	1.140737e+01	3.517936e+01
9.400000e-07	1.801722e-06	8.065230e-10	1.247340e+01	5.203115e+01
9.500000e-07	1.954959e-06	1.070978e-09	1.353427e+01	6.894822e+01
9.600000e-07	2.107428e-06	1.329820e-09	1.458981e+01	8.576902e+01
9.700000e-07	2.259104e-06	1.580968e-09	1.563988e+01	1.023342e+02
9.800000e-07	2.409872e-06	1.824103e-09	1.668365e+01	1.184961e+02
9.900000e-07	2.559707e-06	2.058776e-09	1.772096e+01	1.341266e+02
1.000000e-06	2.708598e-06	2.283931e-09	1.875174e+01	1.491238e+02
1.010000e-06	2.856478e-06	2.498451e-09	1.977552e+01	1.634155e+02
1.020000e-06	3.003332e-06	2.701636e-09	2.079220e+01	1.769606e+02
1.030000e-06	3.149090e-06	2.892663e-09	2.180129e+01	1.897476e+02
1.040000e-06	3.293674e-06	3.075114e-09	2.280225e+01	2.017903e+02
1.050000e-06	3.437047e-06	3.249334e-09	2.379483e+01	2.131229e+02
1.060000e-06	3.579112e-06	3.413766e-09	2.477835e+01	2.237925e+02
1.070000e-06	3.719754e-06	3.568198e-09	2.575202e+01	2.338532e+02
1.080000e-06	3.858918e-06	3.714628e-09	2.671546e+01	2.433595e+02
1.090000e-06	3.996608e-06	3.854278e-09	2.766869e+01	2.523612e+02
1.100000e-06	4.132806e-06	3.983674e-09	2.861160e+01	2.609005e+02
1.110000e-06	4.267474e-06	4.105326e-09	2.954391e+01	2.690101e+02
1.120000e-06	4.400658e-06	4.222458e-09	3.046594e+01	2.767138e+02
1.130000e-06	4.532341e-06	4.336058e-09	3.137760e+01	2.840279e+02
1.140000e-06	4.662474e-06	4.443194e-09	3.227851e+01	2.909642e+02
1.150000e-06	4.790942e-06	4.541611e-09	3.316790e+01	2.975331e+02
1.160000e-06	4.917692e-06	4.634506e-09	3.404540e+01	3.037461e+02
1.170000e-06	5.042831e-06	4.722797e-09	3.491174e+01	3.096188e+02
1.180000e-06	5.166225e-06	4.805787e-09	3.576600e+01	3.151716e+02
1.190000e-06	5.287761e-06	4.884224e-09	3.660740e+01	3.204300e+02
1.200000e-06	5.407383e-06	4.958708e-09	3.743555e+01	3.254239e+02
1.210000e-06	5.524987e-06	5.030999e-09	3.824972e+01	3.301850e+02
1.220000e-06	5.640523e-06	5.102221e-09	3.904959e+01	3.347449e+02
1.230000e-06	5.753833e-06	5.171103e-09	3.983404e+01	3.391323e+02
1.240000e-06	5.864879e-06	5.237596e-09	4.060281e+01	3.433702e+02
1.250000e-06	5.973882e-06	5.301828e-09	4.135745e+01	3.474746e+02
1.260000e-06	6.080831e-06	5.362043e-09	4.209786e+01	3.514537e+02
1.270000e-06	6.185498e-06	5.419287e-09	4.282247e+01	3.553080e+02
1.280000e-06	6.287869e-06	5.473788e-09	4.353119e+01	3.590315e+02
1.290000e-06	6.387921e-06	5.525149e-09	4.422385e+01	3.626140e+02
1.300000e-06	6.485613e-06	5.573735e-09	4.490018e+01	3.660432e+02
1.310000e-06	6.580888e-06	5.619761e-09	4.555978e+01	3.693074e+02
1.320000e-06	6.673798e-06	5.662609e-09	4.620300e+01	3.723981e+02
1.330000e-06	6.764381e-06	5.703299e-09	4.683011e+01	3.753112e+02
1.340000e-06	6.852508e-06	5.743959e-09	4.744021e+01	3.780484e+02
1.350000e-06	6.938223e-06	5.782724e-09	4.803362e+01	3.806167e+02
1.360000e-06	7.021578e-06	5.821230e-09	4.861069e+01	3.830278e+02
1.370000e-06	7.102444e-06	5.859023e-09	4.917053e+01	3.852967e+02
1.380000e-06	7.180710e-06	5.893281e-09	4.971237e+01	3.874393e+02
1.390000e-06	7.256310e-06	5.922893e-09	5.023575e+01	3.894710e+02
1.400000e-06	7.329151e-06	5.948933e-09	5.074003e+01	3.914043e+02
1.410000e-06	7.399307e-06	5.974223e-09	5.122572e+01	3.932482e+02
1.420000e-06	7.466892e-06	5.998942e-09	5.169362e+01	3.950069e+02
1.430000e-06	7.531829e-06	6.022673e-09	5.214318e+01	3.966805e+02
1.440000e-06	7.594128e-06	6.044252e-09	5.257448e+01	3.982657e+02
1.450000e-06	7.653889e-06	6.065666e-09	5.298821e+01	3.997568e+02
1.460000e-06	7.710954e-06	6.087236e-09	5.338327e+01	4.011477e+02
1.470000e-06	7.765170e-06	6.106483e-09	5.375861e+01	4.024333e+02
1.480000e-06	7.816309e-06	6.124421e-09	5.411265e+01	4.036110e+02
1.490000e-06	7.864249e-06	6.140673e-09	5.444454e+01	4.046812e+02
1.500000e-06	7.909344e-06	6.155741e-09	5.475674e+01	4.056480e+02
1.510000e-06	7.951689e-06	6.169719e-09	5.504989e+01	4.065185e+02
1.520000e-06	7.991104e-06	6.182076e-09	5.532276e+01	4.073023e+02
1.530000e-06	8.027719e-06	6.192641e-09	5.557625e+01	4.080099e+02
1.540000e-06	8.061572e-06	6.201373e-09	5.581062e+01	4.086511e+02
1.550000e-06	8.092524e-06	6.210500e-09	5.602490e+01	4.092343e+02
1.560000e-06	8.120623e-06	6.220720e-09	5.621943e+01	4.097648e+02
1.570000e-06	8.145799e-06	6.229367e-09	5.639372e+01	4.102445e+02
1.580000e-06	8.168010e-06	6.236561e-09	5.654749e+01	4.106718e+02
1.590000e-06	8.187372e-06	6.243949e-09	5.668153e+01	4.110421e+02
1.600000e-06	8.203735e-06	6.250547e-09	5.679482e+01	4.113491e+02
1.610000e-06	8.217002e-06	6.253821e-09	5.688666e+01	4.115854e+02
1.620000e-06	8.227106e-06	6.254765e-09	5.695662e+01	4.117446e+02
1.630000e-06	8.234061e-06	6.256110e-09	5.700477e+01	4.118220e+02
1.640000e-06	8.238169e-06	6.257854e-09	5.703321e+01	4.118158e+02
1.650000e-06	8.239367e-06	6.260166e-09	5.704150e+01	4.117276e+02
1.660000e-06	8.237699e-06	6.258317e-09	5.702995e+01	4.115620e+02
1.670000e-06	8.233348e-06	6.255121e-09	5.699983e+01	4.113268e+02
1.680000e-06	8.226237e-06	6.252704e-09	5.695060e+01	4.110312e+02
1.690000e-06	8.216403e-06	6.248542e-09	5.688251e+01	4.106851e+02
1.700000e-06	8.203667e-06	6.244533e-09	5.679435e+01	4.102980e+02
1.710000e-06	8.188002e-06	6.241224e-09	5.668590e+01	4.098774e+02
1.720000e-06	8.169857e-06	6.239483e-09	5.656028e+01	4.094284e+02
1.730000e-06	8.149365e-06	6.223985e-09	5.641841e+01	4.089530e+02
1.740000e-06	8.125996e-06	6.192430e-09	5.625663e+01	4.084500e+02
1.750000e-06	8.099049e-06	6.170263e-09	5.607007e+01	4.079157e+02
1.760000e-06	8.068295e-06	6.174065e-09	5.585716e+01	4.073444e+02
1.770000e-06	8.034413e-06	6.176062e-09	5.562259e+01	4.067294e+02
1.780000e-06	7.998203e-06	6.181046e-09	5.537191e+01	4.060635e+02
1.790000e-06	7.959685e-06	6.201068e-09	5.510524e+01	4.053403e+02
1.800000e-06	7.918992e-06	6.185740e-09	5.482352e+01	4.045546e+02
1.810000e-06	7.876065e-06	6.152061e-09	5.452634e+01	4.037025e+02
1.820000e-06	7.830363e-06	6.150451e-09	5.420995e+01	4.027817e+02
1.830000e-06	7.781911e-06	6.135389e-09	5.387451e+01	4.017909e+02
1.840000e-06	7.730500e-06	6.116234e-09	5.351859e+01	4.007298e+02
1.850000e-06	7.675936e-06	6.099687e-09	5.314084e+01	3.995982e+02
1.860000e-06	7.618582e-06	6.082662e-09	5.274377e+01	3.983959e+02
1.870000e-06	7.558471e-06	6.086013e-09	5.232763e+01	3.971221e+02
1.880000e-06	7.495614e-06	6.050768e-09	5.189246e+01	3.957757e+02
1.890000e-06	7.429925e-06	6.031660e-09	5.143770e+01	3.943552e+02
1.900000e-06	7.361302e-06	6.012485e-09	5.096262e+01	3.928592e+02
1.910000e-06	7.289775e-06	5.958917e-09	5.046743e+01	3.912865e+02
1.920000e-06	7.215392e-06	5.955230e-09	4.995247e+01	3.896368e+02
1.930000e-06	7.138286e-06	5.949771e-09	4.941866e+01	3.879108e+02
1.940000e-06	7.058425e-06	5.915774e-09	4.886578e+01	3.861101e+02
1.950000e-06	6.975962e-06	5.862088e-09	4.829489e+01	3.842376e+02
1.960000e-06	6.890936e-06	5.821990e-09	4.770625e+01	3.822963e+02
1.970000e-06	6.803200e-06	5.804536e-09	4.709885e+01	3.802895e+02
1.980000e-06	6.712967e-06	5.768972e-09	4.647416e+01	3.782195e+02
1.990000e-06	6.620417e-06	5.761462e-09	4.583344e+01	3.760874e+02
2.000000e-06	6.525562e-06	5.742617e-09	4.517675e+01	3.738921e+02
2.010000e-06	6.428390e-06	5.688358e-09	4.450402e+01	3.716308e+02
2.020000e-06	6.328969e-06	5.632677e-09	4.381573e+01	3.692984e+02
2.030000e-06	6.227232e-06	5.598255e-09	4.311140e+01	3.668885e+02
2.040000e-06	6.123162e-06	5.574029e-09	4.239092e+01	3.643936e+02
2.050000e-06	6.016965e-06	5.530019e-09	4.165571e+01	3.618065e+02
2.060000e-06	5.908715e-06	5.490346e-09	4.090629e+01	3.591210e+02
2.070000e-06	5.798468e-06	5.454936e-09	4.014305e+01	3.563327e+02
2.080000e-06	5.686112e-06	5.410177e-09	3.936520e+01	3.534395e+02
2.090000e-06	5.571556e-06	5.353475e-09	3.857212e+01	3.504418e+02
2.100000e-06	5.454854e-06	5.309248e-09	3.776419e+01	3.473424e+02
2.110000e-06	5.336103e-06	5.263335e-09	3.694207e+01	3.441450e+02
2.120000e-06	5.215375e-06	5.203150e-09	3.610627e+01	3.408542e+02
2.130000e-06	5.092779e-06	5.152854e-09	3.525753e+01	3.374733e+02
2.140000e-06	4.968374e-06	5.113931e-09	3.439627e+01	3.340037e+02
2.150000e-06	4.842201e-06	5.064457e-09	3.352277e+01	3.304437e+02
2.160000e-06	4.714221e-06	4.998310e-09	3.263676e+01	3.267881e+02
2.170000e-06	4.584485e-06	4.936754e-09	3.173859e+01	3.230281e+02
2.180000e-06	4.453141e-06	4.879560e-09	3.082929e+01	3.191518e+02
2.190000e-06	4.320144e-06	4.824111e-09	2.990854e+01	3.151456e+02
2.200000e-06	4.185621e-06	4.766214e-09	2.897724e+01	3.109953e+02
2.210000e-06	4.049529e-06	4.704040e-09	2.803507e+01	3.066877e+02
2.220000e-06	3.911777e-06	4.629005e-09	2.708140e+01	3.022125e+02
2.230000e-06	3.772414e-06	4.548025e-09	2.611658e+01	2.975627e+02
2.240000e-06	3.631597e-06	4.473234e-09	2.514170e+01	2.927358e+02
2.250000e-06	3.489431e-06	4.404965e-09	2.415748e+01	2.877332e+02
2.260000e-06	3.345957e-06	4.333849e-09	2.316421e+01	2.825594e+02
2.270000e-06	3.201172e-06	4.254254e-09	2.216185e+01	2.772206e+02
2.280000e-06	3.055172e-06	4.167245e-09	2.115109e+01	2.717229e+02
2.290000e-06	2.908063e-06	4.075959e-09	2.013265e+01	2.660701e+02
2.300000e-06	2.759861e-06	3.986831e-09	1.910664e+01	2.602617e+02
2.310000e-06	2.610752e-06	3.899499e-09	1.807435e+01	2.542921e+02
2.320000e-06	2.460870e-06	3.809535e-09	1.703671e+01	2.481495e+02
2.330000e-06	2.310175e-06	3.711897e-09	1.599344e+01	2.418165e+02
2.340000e-06	2.158613e-06	3.612294e-09	1.494417e+01	2.352711e+02
2.350000e-06	2.006246e-06	3.512009e-09	1.388933e+01	2.284889e+02
2.360000e-06	1.853202e-06	3.405341e-09	1.282980e+01	2.214449e+02
2.370000e-06	1.699588e-06	3.290166e-09	1.176632e+01	2.141164e+02
2.380000e-06	1.545447e-06	3.168709e-09	1.069920e+01	2.064851e+02
2.390000e-06	1.390851e-06	3.046604e-09	9.628922e+00	1.985381e+02
2.400000e-06	1.235816e-06	2.925796e-09	8.555609e+00	1.902686e+02
2.410000e-06	1.080290e-06	2.802386e-09	7.478894e+00	1.816751e+02
2.420000e-06	9.243203e-07	2.669958e-09	6.399110e+00	1.727594e+02
2.430000e-06	7.679918e-07	2.524615e-09	5.316841e+00	1.635239e+02
2.440000e-06	6.113697e-07	2.372772e-09	4.232539e+00	1.539679e+02
2.450000e-06	4.545525e-07	2.221056e-09	3.146887e+00	1.440849e+02
2.460000e-06	2.975978e-07	2.070106e-09	2.060283e+00	1.338592e+02
2.470000e-06	1.405573e-07	1.912788e-09	9.730844e-01	1.232648e+02
2.480000e-06	-1.658071e-08	1.744924e-09	-1.147890e-01	1.122647e+02
2.490000e-06	-1.737744e-07	1.568018e-09	-1.203048e+00	1.008131e+02
2.500000e-06	-3.308836e-07	1.382553e-09	-2.290721e+00	8.885894e+01
2.510000e-06	-4.879091e-07	1.191453e-09	-3.377816e+00	7.635083e+01
2.520000e-06	-6.448180e-07	9.910732e-10	-4.464103e+00	6.324392e+01
2.530000e-06	-8.015245e-07	7.774278e-10	-5.548989e+00	4.950662e+01
2.540000e-06	-9.579752e-07	5.547728e-10	-6.632104e+00	3.512736e+01
2.550000e-06	-1.114087e-06	3.270828e-10	-7.712874e+00	2.012021e+01
2.560000e-06	-1.269764e-06	9.407717e-11	-8.790631e+00	4.528708e+00
2.570000e-06	-1.424929e-06	-1.483106e-10	-9.864843e+00	-1.157270e+01
2.580000e-06	-1.579548e-06	-4.008493e-10	-1.093528e+01	-2.807994e+01
2.590000e-06	-1.733629e-06	-6.586928e-10	-1.200199e+01	-4.486334e+01
2.600000e-06	-1.887087e-06	-9.198967e-10	-1.306439e+01	-6.177400e+01
2.610000e-06	-2.039743e-06	-1.182586e-09	-1.412123e+01	-7.865213e+01
2.620000e-06	-2.191577e-06	-1.443407e-09	-1.517239e+01	-9.533639e+01
2.630000e-06	-2.342618e-06	-1.698122e-09	-1.621804e+01	-1.116734e+02
2.640000e-06	-2.492790e-06	-1.943322e-09	-1.725769e+01	-1.275266e+02
2.650000e-06	-2.642036e-06	-2.176883e-09	-1.829093e+01	-1.427830e+02
2.660000e-06	-2.790293e-06	-2.399114e-09	-1.931732e+01	-1.573586e+02
2.670000e-06	-2.937453e-06	-2.608575e-09	-2.033612e+01	-1.712002e+02
2.680000e-06	-3.083524e-06	-2.805276e-09	-2.134737e+01	-1.842848e+02
2.690000e-06	-3.228419e-06	-2.993296e-09	-2.235048e+01	-1.966170e+02
2.700000e-06	-3.372089e-06	-3.171572e-09	-2.334512e+01	-2.082237e+02
2.710000e-06	-3.514495e-06	-3.339991e-09	-2.433100e+01	-2.191476e+02
2.720000e-06	-3.655560e-06	-3.498297e-09	-2.530760e+01	-2.294412e+02
2.730000e-06	-3.795260e-06	-3.648784e-09	-2.627475e+01	-2.391591e+02
2.740000e-06	-3.933544e-06	-3.790889e-09	-2.723210e+01	-2.483537e+02
2.750000e-06	-4.070357e-06	-3.925798e-09	-2.817926e+01	-2.570705e+02
2.760000e-06	-4.205690e-06	-4.055155e-09	-2.911617e+01	-2.653457e+02
2.770000e-06	-4.339585e-06	-4.174262e-09	-3.004314e+01	-2.732067e+02
2.780000e-06	-4.471874e-06	-4.284698e-09	-3.095898e+01	-2.806724e+02
2.790000e-06	-4.602602e-06	-4.391431e-09	-3.186402e+01	-2.877561e+02
2.800000e-06	-4.731844e-06	-4.495225e-09	-3.275876e+01	-2.944682e+02
2.810000e-06	-4.859403e-06	-4.592542e-09	-3.364186e+01	-3.008196e+02
2.820000e-06	-4.985248e-06	-4.684190e-09	-3.451309e+01	-3.068241e+02
2.830000e-06	-5.109349e-06	-4.771884e-09	-3.537225e+01	-3.124999e+02
2.840000e-06	-5.231610e-06	-4.854625e-09	-3.621866e+01	-3.178708e+02
2.850000e-06	-5.351988e-06	-4.932018e-09	-3.705205e+01	-3.229650e+02
2.860000e-06	-5.470397e-06	-5.004800e-09	-3.787180e+01	-3.278139e+02
2.870000e-06	-5.586635e-06	-5.075345e-09	-3.867652e+01	-3.324494e+02
2.880000e-06	-5.700565e-06	-5.144011e-09	-3.946526e+01	-3.369016e+02
2.890000e-06	-5.812220e-06	-5.209798e-09	-4.023825e+01	-3.411960e+02
2.900000e-06	-5.921668e-06	-5.274699e-09	-4.099597e+01	-3.453516e+02
2.910000e-06	-6.029050e-06	-5.339433e-09	-4.173938e+01	-3.493797e+02
2.920000e-06	-6.134356e-06	-5.402036e-09	-4.246841e+01	-3.532836e+02
2.930000e-06	-6.237420e-06	-5.460943e-09	-4.318193e+01	-3.570597e+02
2.940000e-06	-6.338120e-06	-5.515445e-09	-4.387908e+01	-3.606991e+02
