# Temperatura_=_78.47
# Concentracion g/m^3_=_15000.0
# C_Vs_to_Am_M_A/Vsm_=_65563218390.804596
# pendiente_HvsI_1/m_=_3716.3
# ordenada_HvsI_A/m_=_1297.0
# frecuencia_Hz_=_302331.2669071533

Tiempo_(s)	Campo_(V.s)	Magnetizacion_(V.s)	Campo_(kA/m)	Magnetizacion_(A/m)
0.000000e+00	-8.295595e-06	-1.004226e-08	-5.691972e+01	-6.570315e+02
1.000000e-08	-8.292784e-06	-1.004067e-08	-5.690043e+01	-6.567631e+02
2.000000e-08	-8.287252e-06	-1.003588e-08	-5.686247e+01	-6.563923e+02
3.000000e-08	-8.278993e-06	-1.002762e-08	-5.680580e+01	-6.559297e+02
4.000000e-08	-8.267786e-06	-1.001740e-08	-5.672891e+01	-6.553844e+02
5.000000e-08	-8.253582e-06	-1.000641e-08	-5.663145e+01	-6.547626e+02
6.000000e-08	-8.236526e-06	-9.996181e-09	-5.651442e+01	-6.540676e+02
7.000000e-08	-8.217000e-06	-9.983287e-09	-5.638044e+01	-6.532992e+02
8.000000e-08	-8.195073e-06	-9.982591e-09	-5.622999e+01	-6.524545e+02
9.000000e-08	-8.170174e-06	-9.985241e-09	-5.605915e+01	-6.515291e+02
1.000000e-07	-8.141961e-06	-9.967223e-09	-5.586557e+01	-6.505176e+02
1.100000e-07	-8.110554e-06	-9.942086e-09	-5.565007e+01	-6.494152e+02
1.200000e-07	-8.076100e-06	-9.909837e-09	-5.541366e+01	-6.482181e+02
1.300000e-07	-8.038841e-06	-9.873602e-09	-5.515801e+01	-6.469245e+02
1.400000e-07	-7.999139e-06	-9.842423e-09	-5.488560e+01	-6.455338e+02
1.500000e-07	-7.957068e-06	-9.814616e-09	-5.459693e+01	-6.440468e+02
1.600000e-07	-7.912442e-06	-9.803885e-09	-5.429074e+01	-6.424646e+02
1.700000e-07	-7.864956e-06	-9.780322e-09	-5.396492e+01	-6.407872e+02
1.800000e-07	-7.814480e-06	-9.758535e-09	-5.361857e+01	-6.390134e+02
1.900000e-07	-7.761128e-06	-9.724826e-09	-5.325250e+01	-6.371392e+02
2.000000e-07	-7.704840e-06	-9.682560e-09	-5.286628e+01	-6.351581e+02
2.100000e-07	-7.645732e-06	-9.633703e-09	-5.246072e+01	-6.330611e+02
2.200000e-07	-7.583984e-06	-9.591434e-09	-5.203704e+01	-6.308374e+02
2.300000e-07	-7.519507e-06	-9.578500e-09	-5.159463e+01	-6.284761e+02
2.400000e-07	-7.452210e-06	-9.528442e-09	-5.113288e+01	-6.259669e+02
2.500000e-07	-7.382070e-06	-9.483387e-09	-5.065162e+01	-6.233023e+02
2.600000e-07	-7.308967e-06	-9.452981e-09	-5.015003e+01	-6.204782e+02
2.700000e-07	-7.232911e-06	-9.413299e-09	-4.962817e+01	-6.174950e+02
2.800000e-07	-7.153986e-06	-9.350307e-09	-4.908663e+01	-6.143576e+02
2.900000e-07	-7.072348e-06	-9.305018e-09	-4.852648e+01	-6.110746e+02
3.000000e-07	-6.988283e-06	-9.275743e-09	-4.794968e+01	-6.076573e+02
3.100000e-07	-6.901841e-06	-9.207624e-09	-4.735656e+01	-6.041178e+02
3.200000e-07	-6.812839e-06	-9.144979e-09	-4.674587e+01	-6.004673e+02
3.300000e-07	-6.721303e-06	-9.092359e-09	-4.611781e+01	-5.967141e+02
3.400000e-07	-6.627404e-06	-9.029742e-09	-4.547352e+01	-5.928622e+02
3.500000e-07	-6.531027e-06	-8.957255e-09	-4.481224e+01	-5.889107e+02
3.600000e-07	-6.432241e-06	-8.897538e-09	-4.413442e+01	-5.848534e+02
3.700000e-07	-6.331214e-06	-8.848632e-09	-4.344123e+01	-5.806802e+02
3.800000e-07	-6.227856e-06	-8.785563e-09	-4.273205e+01	-5.763777e+02
3.900000e-07	-6.122223e-06	-8.714682e-09	-4.200726e+01	-5.719321e+02
4.000000e-07	-6.014458e-06	-8.642956e-09	-4.126783e+01	-5.673304e+02
4.100000e-07	-5.904616e-06	-8.567146e-09	-4.051416e+01	-5.625627e+02
4.200000e-07	-5.792641e-06	-8.482000e-09	-3.974585e+01	-5.576237e+02
4.300000e-07	-5.678373e-06	-8.402320e-09	-3.896181e+01	-5.525126e+02
4.400000e-07	-5.561887e-06	-8.328844e-09	-3.816255e+01	-5.472335e+02
4.500000e-07	-5.443361e-06	-8.252590e-09	-3.734929e+01	-5.417939e+02
4.600000e-07	-5.322887e-06	-8.169190e-09	-3.652266e+01	-5.362027e+02
4.700000e-07	-5.200543e-06	-8.083308e-09	-3.568320e+01	-5.304683e+02
4.800000e-07	-5.076412e-06	-7.994774e-09	-3.483149e+01	-5.245964e+02
4.900000e-07	-4.950471e-06	-7.902225e-09	-3.396735e+01	-5.185877e+02
5.000000e-07	-4.822654e-06	-7.805715e-09	-3.309035e+01	-5.124372e+02
5.100000e-07	-4.693034e-06	-7.706423e-09	-3.220097e+01	-5.061337e+02
5.200000e-07	-4.561613e-06	-7.606134e-09	-3.129923e+01	-4.996608e+02
5.300000e-07	-4.428512e-06	-7.502370e-09	-3.038597e+01	-4.929985e+02
5.400000e-07	-4.293864e-06	-7.393977e-09	-2.946208e+01	-4.861253e+02
5.500000e-07	-4.157615e-06	-7.281789e-09	-2.852722e+01	-4.790215e+02
5.600000e-07	-4.019679e-06	-7.173040e-09	-2.758078e+01	-4.716709e+02
5.700000e-07	-3.880040e-06	-7.060763e-09	-2.662266e+01	-4.640633e+02
5.800000e-07	-3.738806e-06	-6.940680e-09	-2.565359e+01	-4.561950e+02
5.900000e-07	-3.596066e-06	-6.817856e-09	-2.467419e+01	-4.480688e+02
6.000000e-07	-3.451864e-06	-6.694133e-09	-2.368475e+01	-4.396923e+02
6.100000e-07	-3.306398e-06	-6.562473e-09	-2.268665e+01	-4.310756e+02
6.200000e-07	-3.159858e-06	-6.422916e-09	-2.168117e+01	-4.222280e+02
6.300000e-07	-3.012237e-06	-6.282574e-09	-2.066828e+01	-4.131551e+02
6.400000e-07	-2.863619e-06	-6.140385e-09	-1.964855e+01	-4.038552e+02
6.500000e-07	-2.714062e-06	-5.992838e-09	-1.862237e+01	-3.943181e+02
6.600000e-07	-2.563517e-06	-5.840715e-09	-1.758942e+01	-3.845238e+02
6.700000e-07	-2.412017e-06	-5.686077e-09	-1.654991e+01	-3.744438e+02
6.800000e-07	-2.259604e-06	-5.527584e-09	-1.550413e+01	-3.640432e+02
6.900000e-07	-2.106372e-06	-5.364140e-09	-1.445275e+01	-3.532844e+02
7.000000e-07	-1.952403e-06	-5.192810e-09	-1.339630e+01	-3.421307e+02
7.100000e-07	-1.797703e-06	-5.016174e-09	-1.233483e+01	-3.305512e+02
7.200000e-07	-1.642370e-06	-4.830556e-09	-1.126902e+01	-3.185234e+02
7.300000e-07	-1.486484e-06	-4.638565e-09	-1.019942e+01	-3.060355e+02
7.400000e-07	-1.330143e-06	-4.442598e-09	-9.126691e+00	-2.930864e+02
7.500000e-07	-1.173435e-06	-4.238255e-09	-8.051450e+00	-2.796835e+02
7.600000e-07	-1.016357e-06	-4.030098e-09	-6.973670e+00	-2.658384e+02
7.700000e-07	-8.589213e-07	-3.818784e-09	-5.893436e+00	-2.515615e+02
7.800000e-07	-7.011818e-07	-3.601075e-09	-4.811116e+00	-2.368551e+02
7.900000e-07	-5.432084e-07	-3.369926e-09	-3.727191e+00	-2.217069e+02
8.000000e-07	-3.850572e-07	-3.127210e-09	-2.642047e+00	-2.060852e+02
8.100000e-07	-2.267794e-07	-2.875817e-09	-1.556033e+00	-1.899355e+02
8.200000e-07	-6.840296e-08	-2.616459e-09	-4.693427e-01	-1.731807e+02
8.300000e-07	9.004079e-08	-2.347575e-09	6.178093e-01	-1.557245e+02
8.400000e-07	2.484446e-07	-2.066512e-09	1.704688e+00	-1.374588e+02
8.500000e-07	4.067713e-07	-1.772288e-09	2.791036e+00	-1.182735e+02
8.600000e-07	5.649710e-07	-1.464459e-09	3.876514e+00	-9.806923e+01
8.700000e-07	7.230052e-07	-1.143519e-09	4.960855e+00	-7.677052e+01
8.800000e-07	8.808742e-07	-8.070038e-10	6.044064e+00	-5.433892e+01
8.900000e-07	1.038502e-06	-4.534121e-10	7.125620e+00	-3.078382e+01
9.000000e-07	1.195773e-06	-8.241868e-11	8.204720e+00	-6.170000e+00
9.100000e-07	1.352656e-06	3.019871e-10	9.281165e+00	1.937933e+01
9.200000e-07	1.509140e-06	7.001840e-10	1.035487e+01	4.568458e+01
9.300000e-07	1.665144e-06	1.114050e-09	1.142528e+01	7.251697e+01
9.400000e-07	1.820609e-06	1.538118e-09	1.249199e+01	9.961035e+01
9.500000e-07	1.975346e-06	1.960669e-09	1.355372e+01	1.266767e+02
9.600000e-07	2.129256e-06	2.373000e-09	1.460976e+01	1.534237e+02
9.700000e-07	2.282396e-06	2.770006e-09	1.566052e+01	1.795729e+02
9.800000e-07	2.434693e-06	3.149346e-09	1.670550e+01	2.048765e+02
9.900000e-07	2.585957e-06	3.511478e-09	1.774338e+01	2.291310e+02
1.000000e-06	2.736123e-06	3.853230e-09	1.877374e+01	2.521874e+02
1.010000e-06	2.885260e-06	4.176380e-09	1.979704e+01	2.739556e+02
1.020000e-06	3.033381e-06	4.482290e-09	2.081335e+01	2.944042e+02
1.030000e-06	3.180394e-06	4.772519e-09	2.182208e+01	3.135552e+02
1.040000e-06	3.326225e-06	5.049057e-09	2.282269e+01	3.314747e+02
1.050000e-06	3.470845e-06	5.307907e-09	2.381499e+01	3.482609e+02
1.060000e-06	3.614120e-06	5.550699e-09	2.479806e+01	3.640305e+02
1.070000e-06	3.756038e-06	5.777971e-09	2.577182e+01	3.789058e+02
1.080000e-06	3.896570e-06	5.993804e-09	2.673608e+01	3.930026e+02
1.090000e-06	4.035582e-06	6.199905e-09	2.768990e+01	4.064215e+02
1.100000e-06	4.173082e-06	6.394103e-09	2.863334e+01	4.192419e+02
1.110000e-06	4.309000e-06	6.577527e-09	2.956594e+01	4.315199e+02
1.120000e-06	4.443353e-06	6.754815e-09	3.048780e+01	4.432893e+02
1.130000e-06	4.576246e-06	6.928130e-09	3.139963e+01	4.545652e+02
1.140000e-06	4.707549e-06	7.093902e-09	3.230056e+01	4.653501e+02
1.150000e-06	4.837163e-06	7.249107e-09	3.318990e+01	4.756397e+02
1.160000e-06	4.965001e-06	7.394939e-09	3.406705e+01	4.854296e+02
1.170000e-06	5.091073e-06	7.534368e-09	3.493208e+01	4.947199e+02
1.180000e-06	5.215453e-06	7.667308e-09	3.578551e+01	5.035194e+02
1.190000e-06	5.338042e-06	7.794586e-09	3.662665e+01	5.118465e+02
1.200000e-06	5.458713e-06	7.915457e-09	3.745463e+01	5.197293e+02
1.210000e-06	5.577366e-06	8.029815e-09	3.826876e+01	5.272029e+02
1.220000e-06	5.693948e-06	8.140057e-09	3.906867e+01	5.343072e+02
1.230000e-06	5.808337e-06	8.246919e-09	3.985355e+01	5.410820e+02
1.240000e-06	5.920377e-06	8.347316e-09	4.062230e+01	5.475648e+02
1.250000e-06	6.030207e-06	8.440449e-09	4.137590e+01	5.537867e+02
1.260000e-06	6.137992e-06	8.527908e-09	4.211546e+01	5.597716e+02
1.270000e-06	6.243613e-06	8.614014e-09	4.284017e+01	5.655355e+02
1.280000e-06	6.346876e-06	8.698743e-09	4.354870e+01	5.710870e+02
1.290000e-06	6.447815e-06	8.779022e-09	4.424129e+01	5.764292e+02
1.300000e-06	6.546397e-06	8.854492e-09	4.491770e+01	5.815622e+02
1.310000e-06	6.642416e-06	8.927704e-09	4.557653e+01	5.864851e+02
1.320000e-06	6.736023e-06	8.999847e-09	4.621881e+01	5.911986e+02
1.330000e-06	6.827344e-06	9.070092e-09	4.684540e+01	5.957062e+02
1.340000e-06	6.916200e-06	9.136773e-09	4.745508e+01	6.000149e+02
1.350000e-06	7.002540e-06	9.198512e-09	4.804750e+01	6.041350e+02
1.360000e-06	7.086456e-06	9.257685e-09	4.862328e+01	6.080786e+02
1.370000e-06	7.167875e-06	9.316204e-09	4.918194e+01	6.118585e+02
1.380000e-06	7.246710e-06	9.372625e-09	4.972285e+01	6.154862e+02
1.390000e-06	7.322907e-06	9.424709e-09	5.024567e+01	6.189699e+02
1.400000e-06	7.396373e-06	9.473364e-09	5.074976e+01	6.223138e+02
1.410000e-06	7.467128e-06	9.521409e-09	5.123524e+01	6.255173e+02
1.420000e-06	7.535260e-06	9.568612e-09	5.170273e+01	6.285755e+02
1.430000e-06	7.600717e-06	9.612418e-09	5.215185e+01	6.314800e+02
1.440000e-06	7.663477e-06	9.652019e-09	5.258248e+01	6.342212e+02
1.450000e-06	7.723591e-06	9.688794e-09	5.299495e+01	6.367896e+02
1.460000e-06	7.781026e-06	9.723220e-09	5.338903e+01	6.391781e+02
1.470000e-06	7.835710e-06	9.753608e-09	5.376424e+01	6.413834e+02
1.480000e-06	7.887320e-06	9.782012e-09	5.411836e+01	6.434070e+02
1.490000e-06	7.935699e-06	9.810462e-09	5.445031e+01	6.452555e+02
1.500000e-06	7.981141e-06	9.837922e-09	5.476211e+01	6.469398e+02
1.510000e-06	8.023793e-06	9.863609e-09	5.505476e+01	6.484737e+02
1.520000e-06	8.063590e-06	9.886071e-09	5.532783e+01	6.498726e+02
1.530000e-06	8.100550e-06	9.905579e-09	5.558142e+01	6.511510e+02
1.540000e-06	8.134638e-06	9.923002e-09	5.581532e+01	6.523209e+02
1.550000e-06	8.165750e-06	9.938978e-09	5.602879e+01	6.533905e+02
1.560000e-06	8.194048e-06	9.953944e-09	5.622296e+01	6.543633e+02
1.570000e-06	8.219441e-06	9.966178e-09	5.639719e+01	6.552384e+02
1.580000e-06	8.241790e-06	9.976152e-09	5.655054e+01	6.560107e+02
1.590000e-06	8.261259e-06	9.985839e-09	5.668412e+01	6.566726e+02
1.600000e-06	8.277746e-06	9.995874e-09	5.679724e+01	6.572155e+02
1.610000e-06	8.291124e-06	1.000323e-08	5.688904e+01	6.576317e+02
1.620000e-06	8.301270e-06	1.000754e-08	5.695865e+01	6.579159e+02
1.630000e-06	8.308211e-06	1.001049e-08	5.700628e+01	6.580660e+02
1.640000e-06	8.312229e-06	1.001385e-08	5.703385e+01	6.580841e+02
1.650000e-06	8.313344e-06	1.001620e-08	5.704150e+01	6.579761e+02
1.660000e-06	8.311585e-06	1.000935e-08	5.702943e+01	6.577507e+02
1.670000e-06	8.307062e-06	1.000278e-08	5.699840e+01	6.574185e+02
1.680000e-06	8.299728e-06	9.997502e-09	5.694808e+01	6.569906e+02
1.690000e-06	8.289637e-06	9.991305e-09	5.687883e+01	6.564767e+02
1.700000e-06	8.276667e-06	9.986419e-09	5.678984e+01	6.558842e+02
1.710000e-06	8.260839e-06	9.982212e-09	5.668124e+01	6.552176e+02
1.720000e-06	8.242510e-06	9.975787e-09	5.655547e+01	6.544779e+02
1.730000e-06	8.221721e-06	9.934159e-09	5.641283e+01	6.536635e+02
1.740000e-06	8.198037e-06	9.902788e-09	5.625033e+01	6.527702e+02
1.750000e-06	8.170772e-06	9.897707e-09	5.606325e+01	6.517929e+02
1.760000e-06	8.139662e-06	9.884233e-09	5.584979e+01	6.507265e+02
1.770000e-06	8.105431e-06	9.871612e-09	5.561492e+01	6.495667e+02
1.780000e-06	8.068815e-06	9.875801e-09	5.536368e+01	6.483110e+02
1.790000e-06	8.029832e-06	9.874538e-09	5.509620e+01	6.469581e+02
1.800000e-06	7.988682e-06	9.828394e-09	5.481385e+01	6.455087e+02
1.810000e-06	7.945323e-06	9.820926e-09	5.451635e+01	6.439635e+02
1.820000e-06	7.899139e-06	9.785099e-09	5.419946e+01	6.423234e+02
1.830000e-06	7.850146e-06	9.758313e-09	5.386330e+01	6.405876e+02
1.840000e-06	7.798135e-06	9.760018e-09	5.350643e+01	6.387532e+02
1.850000e-06	7.742940e-06	9.718861e-09	5.312771e+01	6.368148e+02
1.860000e-06	7.685025e-06	9.722958e-09	5.273033e+01	6.347643e+02
1.870000e-06	7.624269e-06	9.664150e-09	5.231346e+01	6.325915e+02
1.880000e-06	7.560667e-06	9.615658e-09	5.187705e+01	6.302854e+02
1.890000e-06	7.494318e-06	9.600497e-09	5.142180e+01	6.278351e+02
1.900000e-06	7.424994e-06	9.534735e-09	5.094614e+01	6.252320e+02
1.910000e-06	7.352687e-06	9.491810e-09	5.045001e+01	6.224706e+02
1.920000e-06	7.277485e-06	9.451763e-09	4.993402e+01	6.195493e+02
1.930000e-06	7.199479e-06	9.433286e-09	4.939878e+01	6.164715e+02
1.940000e-06	7.118742e-06	9.367982e-09	4.884481e+01	6.132442e+02
1.950000e-06	7.035449e-06	9.307216e-09	4.827330e+01	6.098780e+02
1.960000e-06	6.949552e-06	9.263645e-09	4.768392e+01	6.063849e+02
1.970000e-06	6.860968e-06	9.189248e-09	4.707611e+01	6.027766e+02
1.980000e-06	6.769940e-06	9.144313e-09	4.645153e+01	5.990628e+02
1.990000e-06	6.676508e-06	9.096909e-09	4.581045e+01	5.952493e+02
2.000000e-06	6.580701e-06	9.059818e-09	4.515308e+01	5.913371e+02
2.010000e-06	6.482643e-06	8.977408e-09	4.448026e+01	5.873222e+02
2.020000e-06	6.382338e-06	8.900890e-09	4.379202e+01	5.831957e+02
2.030000e-06	6.279588e-06	8.835864e-09	4.308701e+01	5.789455e+02
2.040000e-06	6.174505e-06	8.769653e-09	4.236599e+01	5.745575e+02
2.050000e-06	6.067357e-06	8.706688e-09	4.163080e+01	5.700183e+02
2.060000e-06	5.958139e-06	8.632671e-09	4.088140e+01	5.653165e+02
2.070000e-06	5.846841e-06	8.569041e-09	4.011774e+01	5.604450e+02
2.080000e-06	5.733442e-06	8.482739e-09	3.933966e+01	5.554010e+02
2.090000e-06	5.617790e-06	8.399647e-09	3.854612e+01	5.501870e+02
2.100000e-06	5.499802e-06	8.316244e-09	3.773655e+01	5.448091e+02
2.110000e-06	5.379694e-06	8.240452e-09	3.691244e+01	5.392761e+02
2.120000e-06	5.257795e-06	8.154400e-09	3.607604e+01	5.335969e+02
2.130000e-06	5.134152e-06	8.065845e-09	3.522767e+01	5.277784e+02
2.140000e-06	5.008592e-06	7.976025e-09	3.436615e+01	5.218235e+02
2.150000e-06	4.881104e-06	7.884433e-09	3.349139e+01	5.157295e+02
2.160000e-06	4.751850e-06	7.786806e-09	3.260453e+01	5.094876e+02
2.170000e-06	4.620971e-06	7.681816e-09	3.170651e+01	5.030833e+02
2.180000e-06	4.488442e-06	7.581266e-09	3.079717e+01	4.964977e+02
2.190000e-06	4.354160e-06	7.481708e-09	2.987580e+01	4.897097e+02
2.200000e-06	4.218224e-06	7.381120e-09	2.894308e+01	4.826984e+02
2.210000e-06	4.080771e-06	7.269282e-09	2.799996e+01	4.754461e+02
2.220000e-06	3.941723e-06	7.154979e-09	2.704589e+01	4.679400e+02
2.230000e-06	3.800999e-06	7.031670e-09	2.608032e+01	4.601739e+02
2.240000e-06	3.658755e-06	6.904589e-09	2.510432e+01	4.521481e+02
2.250000e-06	3.515126e-06	6.778885e-09	2.411882e+01	4.438686e+02
2.260000e-06	3.370198e-06	6.658879e-09	2.312441e+01	4.353448e+02
2.270000e-06	3.224150e-06	6.533763e-09	2.212231e+01	4.265868e+02
2.280000e-06	3.076979e-06	6.396828e-09	2.111250e+01	4.176020e+02
2.290000e-06	2.928583e-06	6.252340e-09	2.009429e+01	4.083918e+02
2.300000e-06	2.779135e-06	6.106496e-09	1.906887e+01	3.989494e+02
2.310000e-06	2.628791e-06	5.959907e-09	1.803729e+01	3.892589e+02
2.320000e-06	2.477490e-06	5.808982e-09	1.699914e+01	3.792948e+02
2.330000e-06	2.325258e-06	5.651827e-09	1.595461e+01	3.690244e+02
2.340000e-06	2.172268e-06	5.486948e-09	1.490488e+01	3.584106e+02
2.350000e-06	2.018621e-06	5.317314e-09	1.385064e+01	3.474159e+02
2.360000e-06	1.864330e-06	5.143857e-09	1.279199e+01	3.360067e+02
2.370000e-06	1.709444e-06	4.965159e-09	1.172925e+01	3.241568e+02
2.380000e-06	1.554047e-06	4.778359e-09	1.066300e+01	3.118501e+02
2.390000e-06	1.398111e-06	4.584044e-09	9.593051e+00	2.990815e+02
2.400000e-06	1.241555e-06	4.382750e-09	8.518855e+00	2.858554e+02
2.410000e-06	1.084494e-06	4.176686e-09	7.441190e+00	2.721824e+02
2.420000e-06	9.270787e-07	3.964946e-09	6.361093e+00	2.580740e+02
2.430000e-06	7.693967e-07	3.743611e-09	5.279168e+00	2.435367e+02
2.440000e-06	6.114859e-07	3.514407e-09	4.195673e+00	2.285644e+02
2.450000e-06	4.533844e-07	3.277258e-09	3.110869e+00	2.131338e+02
2.460000e-06	2.951116e-07	3.031744e-09	2.024890e+00	1.971992e+02
2.470000e-06	1.366936e-07	2.777608e-09	9.379149e-01	1.806925e+02
2.480000e-06	-2.179745e-08	2.512136e-09	-1.495618e-01	1.635240e+02
2.490000e-06	-1.803293e-07	2.235131e-09	-1.237318e+00	1.455894e+02
2.500000e-06	-3.388598e-07	1.945262e-09	-2.325066e+00	1.267779e+02
2.510000e-06	-4.972996e-07	1.642521e-09	-3.412191e+00	1.069843e+02
2.520000e-06	-6.555566e-07	1.326977e-09	-4.498062e+00	8.612225e+01
2.530000e-06	-8.136018e-07	9.964012e-10	-5.582479e+00	6.413723e+01
2.540000e-06	-9.714152e-07	6.492987e-10	-6.665306e+00	4.101875e+01
2.550000e-06	-1.128911e-06	2.860004e-10	-7.745956e+00	1.680919e+01
2.560000e-06	-1.285998e-06	-9.500060e-11	-8.823795e+00	-8.391240e+00
2.570000e-06	-1.442590e-06	-4.929342e-10	-9.898246e+00	-3.442452e+01
2.580000e-06	-1.598579e-06	-9.031438e-10	-1.096855e+01	-6.108002e+01
2.590000e-06	-1.753902e-06	-1.320500e-09	-1.203429e+01	-8.810460e+01
2.600000e-06	-1.908538e-06	-1.740565e-09	-1.309532e+01	-1.152168e+02
2.610000e-06	-2.062443e-06	-2.157974e-09	-1.415133e+01	-1.421239e+02
2.620000e-06	-2.215620e-06	-2.565663e-09	-1.520234e+01	-1.685398e+02
2.630000e-06	-2.368028e-06	-2.959984e-09	-1.624808e+01	-1.942028e+02
2.640000e-06	-2.519451e-06	-3.337944e-09	-1.728706e+01	-2.188906e+02
2.650000e-06	-2.669873e-06	-3.696631e-09	-1.831917e+01	-2.424319e+02
2.660000e-06	-2.819358e-06	-4.033694e-09	-1.934485e+01	-2.647133e+02
2.670000e-06	-2.967794e-06	-4.349275e-09	-2.036333e+01	-2.856807e+02
2.680000e-06	-3.115075e-06	-4.646270e-09	-2.137389e+01	-3.053360e+02
2.690000e-06	-3.261195e-06	-4.926943e-09	-2.237649e+01	-3.237293e+02
2.700000e-06	-3.406203e-06	-5.190775e-09	-2.337146e+01	-3.409478e+02
2.710000e-06	-3.549966e-06	-5.440006e-09	-2.435788e+01	-3.571024e+02
2.720000e-06	-3.692364e-06	-5.677106e-09	-2.533493e+01	-3.723149e+02
2.730000e-06	-3.833313e-06	-5.903841e-09	-2.630204e+01	-3.867047e+02
2.740000e-06	-3.972789e-06	-6.118151e-09	-2.725905e+01	-4.003795e+02
2.750000e-06	-4.110807e-06	-6.320844e-09	-2.820605e+01	-4.134272e+02
2.760000e-06	-4.247287e-06	-6.514279e-09	-2.914250e+01	-4.259133e+02
2.770000e-06	-4.382188e-06	-6.694754e-09	-3.006811e+01	-4.378800e+02
2.780000e-06	-4.515570e-06	-6.865171e-09	-3.098331e+01	-4.493491e+02
2.790000e-06	-4.647398e-06	-7.027788e-09	-3.188783e+01	-4.603274e+02
2.800000e-06	-4.777643e-06	-7.184425e-09	-3.278150e+01	-4.708125e+02
2.810000e-06	-4.906332e-06	-7.334572e-09	-3.366450e+01	-4.807992e+02
2.820000e-06	-5.033303e-06	-7.477451e-09	-3.453570e+01	-4.902855e+02
2.830000e-06	-5.158428e-06	-7.616344e-09	-3.539424e+01	-4.992764e+02
2.840000e-06	-5.281734e-06	-7.749597e-09	-3.624029e+01	-5.077865e+02
2.850000e-06	-5.403192e-06	-7.874487e-09	-3.707367e+01	-5.158401e+02
2.860000e-06	-5.522644e-06	-7.992945e-09	-3.789328e+01	-5.234702e+02
2.870000e-06	-5.639886e-06	-8.105878e-09	-3.869773e+01	-5.307149e+02
2.880000e-06	-5.754825e-06	-8.213505e-09	-3.948638e+01	-5.376147e+02
2.890000e-06	-5.867435e-06	-8.315690e-09	-4.025905e+01	-5.442083e+02
2.900000e-06	-5.977797e-06	-8.412757e-09	-4.101629e+01	-5.505296e+02
2.910000e-06	-6.086046e-06	-8.505913e-09	-4.175903e+01	-5.566056e+02
2.920000e-06	-6.192203e-06	-8.595778e-09	-4.248742e+01	-5.624551e+02
2.930000e-06	-6.296096e-06	-8.681376e-09	-4.320028e+01	-5.680896e+02
2.940000e-06	-6.397561e-06	-8.761333e-09	-4.389647e+01	-5.735142e+02
