# Temperatura_=_79.18
# Concentracion g/m^3_=_15000.0
# C_Vs_to_Am_M_A/Vsm_=_65563218390.804596
# pendiente_HvsI_1/m_=_3716.3
# ordenada_HvsI_A/m_=_1297.0
# frecuencia_Hz_=_302329.5002605467

Tiempo_(s)	Campo_(V.s)	Magnetizacion_(V.s)	Campo_(kA/m)	Magnetizacion_(A/m)
0.000000e+00	-8.252532e-06	-1.001300e-08	-5.692299e+01	-6.543574e+02
1.000000e-08	-8.249690e-06	-1.000797e-08	-5.690339e+01	-6.540939e+02
2.000000e-08	-8.244156e-06	-1.000289e-08	-5.686522e+01	-6.537182e+02
3.000000e-08	-8.235948e-06	-9.995787e-09	-5.680860e+01	-6.532380e+02
4.000000e-08	-8.224792e-06	-9.987022e-09	-5.673166e+01	-6.526605e+02
5.000000e-08	-8.210635e-06	-9.978744e-09	-5.663401e+01	-6.519916e+02
6.000000e-08	-8.193608e-06	-9.969032e-09	-5.651656e+01	-6.512354e+02
7.000000e-08	-8.174122e-06	-9.953342e-09	-5.638215e+01	-6.503945e+02
8.000000e-08	-8.152237e-06	-9.948819e-09	-5.623120e+01	-6.494702e+02
9.000000e-08	-8.127364e-06	-9.925947e-09	-5.605963e+01	-6.484629e+02
1.000000e-07	-8.099203e-06	-9.911858e-09	-5.586539e+01	-6.473730e+02
1.100000e-07	-8.067893e-06	-9.906145e-09	-5.564942e+01	-6.462014e+02
1.200000e-07	-8.033581e-06	-9.873775e-09	-5.541275e+01	-6.449493e+02
1.300000e-07	-7.996474e-06	-9.840575e-09	-5.515680e+01	-6.436189e+02
1.400000e-07	-7.956944e-06	-9.812693e-09	-5.488414e+01	-6.422122e+02
1.500000e-07	-7.915096e-06	-9.794130e-09	-5.459549e+01	-6.407307e+02
1.600000e-07	-7.870722e-06	-9.751008e-09	-5.428941e+01	-6.391747e+02
1.700000e-07	-7.823471e-06	-9.720605e-09	-5.396349e+01	-6.375417e+02
1.800000e-07	-7.773194e-06	-9.711527e-09	-5.361670e+01	-6.358264e+02
1.900000e-07	-7.720002e-06	-9.649962e-09	-5.324980e+01	-6.340204e+02
2.000000e-07	-7.663965e-06	-9.644412e-09	-5.286328e+01	-6.321121e+02
2.100000e-07	-7.605100e-06	-9.633748e-09	-5.245725e+01	-6.300876e+02
2.200000e-07	-7.543555e-06	-9.597674e-09	-5.203273e+01	-6.279322e+02
2.300000e-07	-7.479408e-06	-9.565666e-09	-5.159027e+01	-6.256319e+02
2.400000e-07	-7.412421e-06	-9.479604e-09	-5.112821e+01	-6.231747e+02
2.500000e-07	-7.342549e-06	-9.444754e-09	-5.064626e+01	-6.205526e+02
2.600000e-07	-7.269769e-06	-9.405989e-09	-5.014425e+01	-6.177626e+02
2.700000e-07	-7.194031e-06	-9.369519e-09	-4.962184e+01	-6.148068e+02
2.800000e-07	-7.115461e-06	-9.304136e-09	-4.907989e+01	-6.116925e+02
2.900000e-07	-7.034176e-06	-9.254100e-09	-4.851922e+01	-6.084313e+02
3.000000e-07	-6.950426e-06	-9.215298e-09	-4.794154e+01	-6.050368e+02
3.100000e-07	-6.864307e-06	-9.146043e-09	-4.734752e+01	-6.015234e+02
3.200000e-07	-6.775686e-06	-9.116375e-09	-4.673624e+01	-5.979033e+02
3.300000e-07	-6.684569e-06	-9.068129e-09	-4.610775e+01	-5.941855e+02
3.400000e-07	-6.591050e-06	-9.005620e-09	-4.546269e+01	-5.903735e+02
3.500000e-07	-6.495163e-06	-8.933847e-09	-4.480130e+01	-5.864651e+02
3.600000e-07	-6.396881e-06	-8.881441e-09	-4.412339e+01	-5.824527e+02
3.700000e-07	-6.296266e-06	-8.824004e-09	-4.342938e+01	-5.783240e+02
3.800000e-07	-6.193402e-06	-8.746842e-09	-4.271986e+01	-5.740639e+02
3.900000e-07	-6.088268e-06	-8.674061e-09	-4.199468e+01	-5.696570e+02
4.000000e-07	-5.980937e-06	-8.598905e-09	-4.125435e+01	-5.650895e+02
4.100000e-07	-5.871546e-06	-8.527737e-09	-4.049981e+01	-5.603511e+02
4.200000e-07	-5.760140e-06	-8.449320e-09	-3.973138e+01	-5.554368e+02
4.300000e-07	-5.646553e-06	-8.379750e-09	-3.894789e+01	-5.503471e+02
4.400000e-07	-5.530697e-06	-8.299370e-09	-3.814876e+01	-5.450874e+02
4.500000e-07	-5.412714e-06	-8.212827e-09	-3.733495e+01	-5.396670e+02
4.600000e-07	-5.292792e-06	-8.126334e-09	-3.650778e+01	-5.340967e+02
4.700000e-07	-5.171020e-06	-8.050964e-09	-3.566784e+01	-5.283868e+02
4.800000e-07	-5.047398e-06	-7.971937e-09	-3.481514e+01	-5.225440e+02
4.900000e-07	-4.922022e-06	-7.878905e-09	-3.395034e+01	-5.165700e+02
5.000000e-07	-4.794898e-06	-7.775499e-09	-3.307348e+01	-5.104600e+02
5.100000e-07	-4.665995e-06	-7.669098e-09	-3.218435e+01	-5.042025e+02
5.200000e-07	-4.535318e-06	-7.571788e-09	-3.128299e+01	-4.977803e+02
5.300000e-07	-4.402979e-06	-7.470281e-09	-3.037017e+01	-4.911720e+02
5.400000e-07	-4.269009e-06	-7.361768e-09	-2.944609e+01	-4.843549e+02
5.500000e-07	-4.133444e-06	-7.246796e-09	-2.851101e+01	-4.773073e+02
5.600000e-07	-3.996290e-06	-7.139058e-09	-2.756497e+01	-4.700116e+02
5.700000e-07	-3.857466e-06	-7.029276e-09	-2.660742e+01	-4.624560e+02
5.800000e-07	-3.717029e-06	-6.914264e-09	-2.563873e+01	-4.546358e+02
5.900000e-07	-3.575078e-06	-6.795780e-09	-2.465961e+01	-4.465528e+02
6.000000e-07	-3.431752e-06	-6.672251e-09	-2.367099e+01	-4.382141e+02
6.100000e-07	-3.287140e-06	-6.537693e-09	-2.267351e+01	-4.296295e+02
6.200000e-07	-3.141328e-06	-6.397212e-09	-2.166775e+01	-4.208086e+02
6.300000e-07	-2.994425e-06	-6.258418e-09	-2.065446e+01	-4.117572e+02
6.400000e-07	-2.846491e-06	-6.113935e-09	-1.963407e+01	-4.024746e+02
6.500000e-07	-2.697604e-06	-5.962026e-09	-1.860710e+01	-3.929514e+02
6.600000e-07	-2.547773e-06	-5.804620e-09	-1.757363e+01	-3.831688e+02
6.700000e-07	-2.397064e-06	-5.650970e-09	-1.653409e+01	-3.730997e+02
6.800000e-07	-2.245561e-06	-5.496318e-09	-1.548907e+01	-3.627105e+02
6.900000e-07	-2.093221e-06	-5.336266e-09	-1.443828e+01	-3.519648e+02
7.000000e-07	-1.940081e-06	-5.166665e-09	-1.338198e+01	-3.408274e+02
7.100000e-07	-1.786249e-06	-4.989165e-09	-1.232090e+01	-3.292685e+02
7.200000e-07	-1.631803e-06	-4.805616e-09	-1.125559e+01	-3.172665e+02
7.300000e-07	-1.476728e-06	-4.615559e-09	-1.018594e+01	-3.048106e+02
7.400000e-07	-1.321128e-06	-4.420903e-09	-9.112665e+00	-2.919000e+02
7.500000e-07	-1.165098e-06	-4.215593e-09	-8.036424e+00	-2.785424e+02
7.600000e-07	-1.008670e-06	-4.004974e-09	-6.957443e+00	-2.647493e+02
7.700000e-07	-8.519696e-07	-3.791024e-09	-5.876580e+00	-2.505310e+02
7.800000e-07	-6.950405e-07	-3.572696e-09	-4.794139e+00	-2.358894e+02
7.900000e-07	-5.378805e-07	-3.344580e-09	-3.710106e+00	-2.208121e+02
8.000000e-07	-3.805139e-07	-3.105901e-09	-2.624648e+00	-2.052671e+02
8.100000e-07	-2.230158e-07	-2.858338e-09	-1.538282e+00	-1.892002e+02
8.200000e-07	-6.539035e-08	-2.601256e-09	-4.510391e-01	-1.725344e+02
8.300000e-07	9.238738e-08	-2.334060e-09	6.372549e-01	-1.551740e+02
8.400000e-07	2.501787e-07	-2.054995e-09	1.725643e+00	-1.370117e+02
8.500000e-07	4.078258e-07	-1.763524e-09	2.813036e+00	-1.179382e+02
8.600000e-07	5.653476e-07	-1.456088e-09	3.899564e+00	-9.785475e+01
8.700000e-07	7.227300e-07	-1.135519e-09	4.985132e+00	-7.668636e+01
8.800000e-07	8.799044e-07	-7.999204e-10	6.069264e+00	-5.439456e+01
8.900000e-07	1.036786e-06	-4.478220e-10	7.151378e+00	-3.098813e+01
9.000000e-07	1.193295e-06	-7.869598e-11	8.230922e+00	-6.530521e+00
9.100000e-07	1.349416e-06	3.048170e-10	9.307788e+00	1.885714e+01
9.200000e-07	1.505123e-06	7.010927e-10	1.038180e+01	4.499801e+01
9.300000e-07	1.660324e-06	1.111093e-09	1.145232e+01	7.166658e+01
9.400000e-07	1.814850e-06	1.527895e-09	1.251818e+01	9.860031e+01
9.500000e-07	1.968694e-06	1.944330e-09	1.357934e+01	1.255148e+02
9.600000e-07	2.121892e-06	2.353040e-09	1.463605e+01	1.521210e+02
9.700000e-07	2.274263e-06	2.749163e-09	1.568705e+01	1.781432e+02
9.800000e-07	2.425635e-06	3.128778e-09	1.673116e+01	2.033353e+02
9.900000e-07	2.575985e-06	3.490161e-09	1.776822e+01	2.274948e+02
1.000000e-06	2.725331e-06	3.833282e-09	1.879835e+01	2.504721e+02
1.010000e-06	2.873681e-06	4.157117e-09	1.982162e+01	2.721759e+02
1.020000e-06	3.020948e-06	4.462419e-09	2.083741e+01	2.925723e+02
1.030000e-06	3.167116e-06	4.750396e-09	2.184563e+01	3.116805e+02
1.040000e-06	3.312244e-06	5.023843e-09	2.284667e+01	3.295632e+02
1.050000e-06	3.456148e-06	5.280076e-09	2.383926e+01	3.463153e+02
1.060000e-06	3.598678e-06	5.521145e-09	2.482239e+01	3.620507e+02
1.070000e-06	3.739806e-06	5.748030e-09	2.579584e+01	3.768894e+02
1.080000e-06	3.879522e-06	5.963285e-09	2.675955e+01	3.909459e+02
1.090000e-06	4.017822e-06	6.168291e-09	2.771349e+01	4.043204e+02
1.100000e-06	4.154599e-06	6.362130e-09	2.865693e+01	4.170928e+02
1.110000e-06	4.289757e-06	6.547666e-09	2.958920e+01	4.293204e+02
1.120000e-06	4.423419e-06	6.724822e-09	3.051116e+01	4.410389e+02
1.130000e-06	4.555605e-06	6.895347e-09	3.142292e+01	4.522654e+02
1.140000e-06	4.686193e-06	7.059010e-09	3.232368e+01	4.630044e+02
1.150000e-06	4.815104e-06	7.215028e-09	3.321285e+01	4.732531e+02
1.160000e-06	4.942227e-06	7.362874e-09	3.408970e+01	4.830081e+02
1.170000e-06	5.067640e-06	7.502439e-09	3.495476e+01	4.922700e+02
1.180000e-06	5.191337e-06	7.635006e-09	3.580798e+01	5.010473e+02
1.190000e-06	5.313251e-06	7.761276e-09	3.664889e+01	5.093573e+02
1.200000e-06	5.433279e-06	7.881300e-09	3.747680e+01	5.172267e+02
1.210000e-06	5.551274e-06	7.995361e-09	3.829069e+01	5.246893e+02
1.220000e-06	5.667172e-06	8.102863e-09	3.909011e+01	5.317829e+02
1.230000e-06	5.780844e-06	8.206111e-09	3.987418e+01	5.385464e+02
1.240000e-06	5.892232e-06	8.305871e-09	4.064250e+01	5.450160e+02
1.250000e-06	6.001521e-06	8.401200e-09	4.139633e+01	5.512227e+02
1.260000e-06	6.108759e-06	8.491440e-09	4.213603e+01	5.571904e+02
1.270000e-06	6.213745e-06	8.578003e-09	4.286018e+01	5.629356e+02
1.280000e-06	6.316409e-06	8.662720e-09	4.356831e+01	5.684680e+02
1.290000e-06	6.416759e-06	8.743214e-09	4.426050e+01	5.737919e+02
1.300000e-06	6.514666e-06	8.818552e-09	4.493582e+01	5.789085e+02
1.310000e-06	6.610084e-06	8.890422e-09	4.559398e+01	5.838179e+02
1.320000e-06	6.703195e-06	8.959101e-09	4.623622e+01	5.885214e+02
1.330000e-06	6.793975e-06	9.026062e-09	4.686240e+01	5.930228e+02
1.340000e-06	6.882282e-06	9.091162e-09	4.747151e+01	5.973288e+02
1.350000e-06	6.968140e-06	9.154374e-09	4.806373e+01	6.014494e+02
1.360000e-06	7.051572e-06	9.216534e-09	4.863920e+01	6.053959e+02
1.370000e-06	7.132454e-06	9.276336e-09	4.919710e+01	6.091803e+02
1.380000e-06	7.210769e-06	9.332288e-09	4.973729e+01	6.128133e+02
1.390000e-06	7.286452e-06	9.382559e-09	5.025933e+01	6.163026e+02
1.400000e-06	7.359361e-06	9.430251e-09	5.076223e+01	6.196520e+02
1.410000e-06	7.429638e-06	9.477554e-09	5.124697e+01	6.228607e+02
1.420000e-06	7.497358e-06	9.522979e-09	5.171408e+01	6.259240e+02
1.430000e-06	7.562393e-06	9.565647e-09	5.216267e+01	6.288338e+02
1.440000e-06	7.624799e-06	9.606724e-09	5.259312e+01	6.315805e+02
1.450000e-06	7.684650e-06	9.646232e-09	5.300595e+01	6.341549e+02
1.460000e-06	7.741774e-06	9.681557e-09	5.339997e+01	6.365496e+02
1.470000e-06	7.796051e-06	9.711956e-09	5.377436e+01	6.387610e+02
1.480000e-06	7.847284e-06	9.739267e-09	5.412774e+01	6.407899e+02
1.490000e-06	7.895321e-06	9.765505e-09	5.445909e+01	6.426420e+02
1.500000e-06	7.940452e-06	9.790996e-09	5.477038e+01	6.443272e+02
1.510000e-06	7.982822e-06	9.816374e-09	5.506264e+01	6.458585e+02
1.520000e-06	8.022263e-06	9.839092e-09	5.533468e+01	6.472507e+02
1.530000e-06	8.058896e-06	9.858355e-09	5.558737e+01	6.485182e+02
1.540000e-06	8.092753e-06	9.875632e-09	5.582090e+01	6.496736e+02
1.550000e-06	8.123672e-06	9.891299e-09	5.603417e+01	6.507259e+02
1.560000e-06	8.151720e-06	9.905098e-09	5.622763e+01	6.516804e+02
1.570000e-06	8.176809e-06	9.916370e-09	5.640069e+01	6.525379e+02
1.580000e-06	8.198953e-06	9.926564e-09	5.655343e+01	6.532952e+02
1.590000e-06	8.218289e-06	9.936323e-09	5.668680e+01	6.539467e+02
1.600000e-06	8.234619e-06	9.945664e-09	5.679944e+01	6.544850e+02
1.610000e-06	8.247842e-06	9.952228e-09	5.689065e+01	6.549029e+02
1.620000e-06	8.257867e-06	9.955919e-09	5.695979e+01	6.551946e+02
1.630000e-06	8.264733e-06	9.958220e-09	5.700716e+01	6.553567e+02
1.640000e-06	8.268665e-06	9.959799e-09	5.703428e+01	6.553888e+02
1.650000e-06	8.269712e-06	9.961052e-09	5.704150e+01	6.552935e+02
1.660000e-06	8.267960e-06	9.957856e-09	5.702941e+01	6.550759e+02
1.670000e-06	8.263432e-06	9.955060e-09	5.699818e+01	6.547432e+02
1.680000e-06	8.256091e-06	9.949437e-09	5.694755e+01	6.543029e+02
1.690000e-06	8.246038e-06	9.941747e-09	5.687821e+01	6.537626e+02
1.700000e-06	8.233159e-06	9.935087e-09	5.678937e+01	6.531288e+02
1.710000e-06	8.217418e-06	9.925976e-09	5.668079e+01	6.524063e+02
1.720000e-06	8.199141e-06	9.913593e-09	5.655473e+01	6.515983e+02
1.730000e-06	8.178441e-06	9.873315e-09	5.641195e+01	6.507064e+02
1.740000e-06	8.154841e-06	9.870506e-09	5.624916e+01	6.497315e+02
1.750000e-06	8.127591e-06	9.849770e-09	5.606120e+01	6.486738e+02
1.760000e-06	8.096569e-06	9.822472e-09	5.584722e+01	6.475339e+02
1.770000e-06	8.062500e-06	9.817256e-09	5.561223e+01	6.463131e+02
1.780000e-06	8.025980e-06	9.816183e-09	5.536032e+01	6.450129e+02
1.790000e-06	7.987089e-06	9.786994e-09	5.509207e+01	6.436357e+02
1.800000e-06	7.946131e-06	9.764691e-09	5.480956e+01	6.421834e+02
1.810000e-06	7.902956e-06	9.795627e-09	5.451175e+01	6.406565e+02
1.820000e-06	7.856979e-06	9.716818e-09	5.419462e+01	6.390540e+02
1.830000e-06	7.808219e-06	9.736648e-09	5.385828e+01	6.373717e+02
1.840000e-06	7.756454e-06	9.710562e-09	5.350123e+01	6.356024e+02
1.850000e-06	7.701559e-06	9.639355e-09	5.312258e+01	6.337356e+02
1.860000e-06	7.643871e-06	9.639577e-09	5.272467e+01	6.317583e+02
1.870000e-06	7.583345e-06	9.555782e-09	5.230718e+01	6.296559e+02
1.880000e-06	7.520004e-06	9.577983e-09	5.187028e+01	6.274139e+02
1.890000e-06	7.453900e-06	9.558943e-09	5.141432e+01	6.250193e+02
1.900000e-06	7.384898e-06	9.513956e-09	5.093837e+01	6.224624e+02
1.910000e-06	7.312949e-06	9.465903e-09	5.044209e+01	6.197382e+02
1.920000e-06	7.238160e-06	9.397406e-09	4.992622e+01	6.168467e+02
1.930000e-06	7.160633e-06	9.384966e-09	4.939147e+01	6.137933e+02
1.940000e-06	7.080317e-06	9.312760e-09	4.883748e+01	6.105881e+02
1.950000e-06	6.997386e-06	9.301839e-09	4.826545e+01	6.072440e+02
1.960000e-06	6.911945e-06	9.236452e-09	4.767611e+01	6.037755e+02
1.970000e-06	6.823867e-06	9.145912e-09	4.706858e+01	6.001958e+02
1.980000e-06	6.733223e-06	9.096421e-09	4.644335e+01	5.965155e+02
1.990000e-06	6.640206e-06	9.042724e-09	4.580175e+01	5.927402e+02
2.000000e-06	6.544888e-06	9.012523e-09	4.514429e+01	5.888701e+02
2.010000e-06	6.447237e-06	8.929257e-09	4.447072e+01	5.848996e+02
2.020000e-06	6.347345e-06	8.875344e-09	4.378171e+01	5.808180e+02
2.030000e-06	6.245146e-06	8.799766e-09	4.307677e+01	5.766112e+02
2.040000e-06	6.140607e-06	8.734718e-09	4.235570e+01	5.722636e+02
2.050000e-06	6.033911e-06	8.665872e-09	4.161975e+01	5.677604e+02
2.060000e-06	5.925189e-06	8.598604e-09	4.086982e+01	5.630899e+02
2.070000e-06	5.814426e-06	8.530069e-09	4.010582e+01	5.582448e+02
2.080000e-06	5.701496e-06	8.441437e-09	3.932687e+01	5.532234e+02
2.090000e-06	5.586402e-06	8.371358e-09	3.853299e+01	5.480293e+02
2.100000e-06	5.469215e-06	8.298145e-09	3.772468e+01	5.426705e+02
2.110000e-06	5.349922e-06	8.223435e-09	3.690184e+01	5.371577e+02
2.120000e-06	5.228607e-06	8.120987e-09	3.606505e+01	5.315013e+02
2.130000e-06	5.105489e-06	8.024331e-09	3.521583e+01	5.257100e+02
2.140000e-06	4.980600e-06	7.930891e-09	3.435439e+01	5.197875e+02
2.150000e-06	4.853814e-06	7.850315e-09	3.347986e+01	5.137318e+02
2.160000e-06	4.725216e-06	7.763001e-09	3.259284e+01	5.075338e+02
2.170000e-06	4.594959e-06	7.669343e-09	3.169438e+01	5.011785e+02
2.180000e-06	4.463028e-06	7.566308e-09	3.078436e+01	4.946458e+02
2.190000e-06	4.329478e-06	7.459746e-09	2.986318e+01	4.879132e+02
2.200000e-06	4.194274e-06	7.356183e-09	2.893059e+01	4.809583e+02
2.210000e-06	4.057430e-06	7.250971e-09	2.798669e+01	4.737616e+02
2.220000e-06	3.919034e-06	7.139693e-09	2.703208e+01	4.663089e+02
2.230000e-06	3.779066e-06	7.010826e-09	2.606664e+01	4.585926e+02
2.240000e-06	3.637636e-06	6.877861e-09	2.509110e+01	4.506121e+02
2.250000e-06	3.494772e-06	6.750331e-09	2.410568e+01	4.423725e+02
2.260000e-06	3.350604e-06	6.634166e-09	2.311126e+01	4.338830e+02
2.270000e-06	3.205279e-06	6.515356e-09	2.210886e+01	4.251538e+02
2.280000e-06	3.058718e-06	6.386588e-09	2.109794e+01	4.161924e+02
2.290000e-06	2.910935e-06	6.245927e-09	2.007858e+01	4.070011e+02
2.300000e-06	2.762163e-06	6.100893e-09	1.905241e+01	3.975739e+02
2.310000e-06	2.612552e-06	5.953115e-09	1.802044e+01	3.878958e+02
2.320000e-06	2.462018e-06	5.800795e-09	1.698212e+01	3.779428e+02
2.330000e-06	2.310606e-06	5.639415e-09	1.593773e+01	3.676834e+02
2.340000e-06	2.158426e-06	5.469474e-09	1.488805e+01	3.570819e+02
2.350000e-06	2.005511e-06	5.296274e-09	1.383330e+01	3.461021e+02
2.360000e-06	1.851951e-06	5.126619e-09	1.277409e+01	3.347117e+02
2.370000e-06	1.697798e-06	4.956215e-09	1.171080e+01	3.228855e+02
2.380000e-06	1.543117e-06	4.774450e-09	1.064387e+01	3.106083e+02
2.390000e-06	1.387950e-06	4.578625e-09	9.573582e+00	2.978756e+02
2.400000e-06	1.232271e-06	4.374202e-09	8.499763e+00	2.846921e+02
2.410000e-06	1.076192e-06	4.168088e-09	7.423188e+00	2.710685e+02
2.420000e-06	9.197150e-07	3.958105e-09	6.343863e+00	2.570162e+02
2.430000e-06	7.628676e-07	3.737784e-09	5.261986e+00	2.425412e+02
2.440000e-06	6.057427e-07	3.507043e-09	4.178196e+00	2.276375e+02
2.450000e-06	4.483623e-07	3.267431e-09	3.092642e+00	2.122813e+02
2.460000e-06	2.907590e-07	3.021878e-09	2.005551e+00	1.964272e+02
2.470000e-06	1.329652e-07	2.773479e-09	9.171462e-01	1.800069e+02
2.480000e-06	-2.489637e-08	2.516486e-09	-1.717262e-01	1.629316e+02
2.490000e-06	-1.827326e-07	2.243026e-09	-1.260424e+00	1.450973e+02
2.500000e-06	-3.404986e-07	1.950900e-09	-2.348637e+00	1.263942e+02
2.510000e-06	-4.981830e-07	1.646026e-09	-3.436287e+00	1.067178e+02
2.520000e-06	-6.556931e-07	1.330417e-09	-4.522735e+00	8.598234e+01
2.530000e-06	-8.129645e-07	1.000348e-09	-5.607537e+00	6.413345e+01
2.540000e-06	-9.699133e-07	6.541427e-10	-6.690113e+00	4.116029e+01
2.550000e-06	-1.126421e-06	2.928048e-10	-7.769649e+00	1.710420e+01
2.560000e-06	-1.282494e-06	-8.332183e-11	-8.846183e+00	-7.936400e+00
2.570000e-06	-1.438078e-06	-4.746967e-10	-9.919344e+00	-3.380598e+01
2.580000e-06	-1.593118e-06	-8.776091e-10	-1.098876e+01	-6.029701e+01
2.590000e-06	-1.747574e-06	-1.290308e-09	-1.205413e+01	-8.715986e+01
2.600000e-06	-1.901415e-06	-1.712645e-09	-1.311528e+01	-1.141167e+02
2.610000e-06	-2.054562e-06	-2.134594e-09	-1.417163e+01	-1.408783e+02
2.620000e-06	-2.206881e-06	-2.543676e-09	-1.522227e+01	-1.671614e+02
2.630000e-06	-2.358363e-06	-2.935844e-09	-1.626714e+01	-1.927067e+02
2.640000e-06	-2.509024e-06	-3.311157e-09	-1.730635e+01	-2.172929e+02
2.650000e-06	-2.658832e-06	-3.668325e-09	-1.833967e+01	-2.407491e+02
2.660000e-06	-2.807620e-06	-4.003391e-09	-1.936595e+01	-2.629605e+02
2.670000e-06	-2.955215e-06	-4.315603e-09	-2.038401e+01	-2.838712e+02
2.680000e-06	-3.101736e-06	-4.610322e-09	-2.139466e+01	-3.034804e+02
2.690000e-06	-3.247159e-06	-4.889975e-09	-2.239773e+01	-3.218349e+02
2.700000e-06	-3.391357e-06	-5.155140e-09	-2.339236e+01	-3.390186e+02
2.710000e-06	-3.534341e-06	-5.407553e-09	-2.437862e+01	-3.551394e+02
2.720000e-06	-3.676080e-06	-5.646430e-09	-2.535628e+01	-3.703163e+02
2.730000e-06	-3.816284e-06	-5.873505e-09	-2.632335e+01	-3.846674e+02
2.740000e-06	-3.954975e-06	-6.086539e-09	-2.727999e+01	-3.982993e+02
2.750000e-06	-4.092270e-06	-6.287121e-09	-2.822701e+01	-4.113004e+02
2.760000e-06	-4.227956e-06	-6.478047e-09	-2.916292e+01	-4.237368e+02
2.770000e-06	-4.362194e-06	-6.656061e-09	-3.008885e+01	-4.356526e+02
2.780000e-06	-4.494959e-06	-6.823928e-09	-3.100461e+01	-4.470715e+02
2.790000e-06	-4.626119e-06	-6.985580e-09	-3.190931e+01	-4.580022e+02
2.800000e-06	-4.755731e-06	-7.143350e-09	-3.280332e+01	-4.684442e+02
2.810000e-06	-4.883661e-06	-7.295388e-09	-3.368574e+01	-4.783936e+02
2.820000e-06	-5.009934e-06	-7.440931e-09	-3.455672e+01	-4.878490e+02
2.830000e-06	-5.134404e-06	-7.579061e-09	-3.541527e+01	-4.968153e+02
2.840000e-06	-5.256983e-06	-7.709121e-09	-3.626078e+01	-5.053064e+02
2.850000e-06	-5.377752e-06	-7.832003e-09	-3.709380e+01	-5.133454e+02
2.860000e-06	-5.496551e-06	-7.948846e-09	-3.791323e+01	-5.209637e+02
2.870000e-06	-5.613103e-06	-8.062600e-09	-3.871716e+01	-5.281978e+02
2.880000e-06	-5.727336e-06	-8.171676e-09	-3.950510e+01	-5.350866e+02
2.890000e-06	-5.839339e-06	-8.273568e-09	-4.027766e+01	-5.416679e+02
2.900000e-06	-5.949126e-06	-8.370696e-09	-4.103493e+01	-5.479748e+02
2.910000e-06	-6.056832e-06	-8.464363e-09	-4.177785e+01	-5.540341e+02
2.920000e-06	-6.162411e-06	-8.555189e-09	-4.250610e+01	-5.598655e+02
2.930000e-06	-6.265729e-06	-8.640937e-09	-4.321875e+01	-5.654809e+02
2.940000e-06	-6.366643e-06	-8.720091e-09	-4.391481e+01	-5.708867e+02
