# Temperatura_=_34.57
# Concentracion g/m^3_=_15000.0
# C_Vs_to_Am_M_A/Vsm_=_65563218390.804596
# pendiente_HvsI_1/m_=_3716.3
# ordenada_HvsI_A/m_=_1297.0
# frecuencia_Hz_=_302315.08134445775

Tiempo_(s)	Campo_(V.s)	Magnetizacion_(V.s)	Campo_(kA/m)	Magnetizacion_(A/m)
0.000000e+00	-8.194588e-06	-5.658911e-09	-5.692723e+01	-3.691740e+02
1.000000e-08	-8.191452e-06	-5.659644e-09	-5.690546e+01	-3.690193e+02
2.000000e-08	-8.185646e-06	-5.655989e-09	-5.686512e+01	-3.688032e+02
3.000000e-08	-8.177131e-06	-5.650269e-09	-5.680597e+01	-3.685326e+02
4.000000e-08	-8.165700e-06	-5.643175e-09	-5.672655e+01	-3.682148e+02
5.000000e-08	-8.151315e-06	-5.636468e-09	-5.662662e+01	-3.678564e+02
6.000000e-08	-8.134111e-06	-5.628901e-09	-5.650711e+01	-3.674627e+02
7.000000e-08	-8.114469e-06	-5.615850e-09	-5.637065e+01	-3.670375e+02
8.000000e-08	-8.092478e-06	-5.614230e-09	-5.621789e+01	-3.665820e+02
9.000000e-08	-8.067515e-06	-5.646022e-09	-5.604447e+01	-3.660956e+02
1.000000e-07	-8.039199e-06	-5.642037e-09	-5.584776e+01	-3.655756e+02
1.100000e-07	-8.007761e-06	-5.604093e-09	-5.562936e+01	-3.650182e+02
1.200000e-07	-7.973443e-06	-5.575515e-09	-5.539096e+01	-3.644187e+02
1.300000e-07	-7.936428e-06	-5.555091e-09	-5.513382e+01	-3.637722e+02
1.400000e-07	-7.896971e-06	-5.526978e-09	-5.485971e+01	-3.630742e+02
1.500000e-07	-7.855159e-06	-5.508197e-09	-5.456925e+01	-3.623207e+02
1.600000e-07	-7.810839e-06	-5.559038e-09	-5.426136e+01	-3.615089e+02
1.700000e-07	-7.763691e-06	-5.503891e-09	-5.393383e+01	-3.606365e+02
1.800000e-07	-7.713640e-06	-5.467129e-09	-5.358612e+01	-3.597020e+02
1.900000e-07	-7.660665e-06	-5.502461e-09	-5.321811e+01	-3.587041e+02
2.000000e-07	-7.604735e-06	-5.449641e-09	-5.282957e+01	-3.576420e+02
2.100000e-07	-7.546054e-06	-5.436801e-09	-5.242192e+01	-3.565143e+02
2.200000e-07	-7.484716e-06	-5.426858e-09	-5.199581e+01	-3.553199e+02
2.300000e-07	-7.420674e-06	-5.414976e-09	-5.155091e+01	-3.540572e+02
2.400000e-07	-7.353801e-06	-5.386840e-09	-5.108635e+01	-3.527246e+02
2.500000e-07	-7.284149e-06	-5.343605e-09	-5.060248e+01	-3.513210e+02
2.600000e-07	-7.211701e-06	-5.338107e-09	-5.009919e+01	-3.498453e+02
2.700000e-07	-7.136362e-06	-5.317696e-09	-4.957582e+01	-3.482976e+02
2.800000e-07	-7.058143e-06	-5.282323e-09	-4.903244e+01	-3.466787e+02
2.900000e-07	-6.977150e-06	-5.246068e-09	-4.846978e+01	-3.449899e+02
3.000000e-07	-6.893695e-06	-5.237992e-09	-4.789002e+01	-3.432334e+02
3.100000e-07	-6.807897e-06	-5.215135e-09	-4.729399e+01	-3.414116e+02
3.200000e-07	-6.719591e-06	-5.164584e-09	-4.668053e+01	-3.395264e+02
3.300000e-07	-6.628831e-06	-5.144169e-09	-4.605003e+01	-3.375791e+02
3.400000e-07	-6.535747e-06	-5.116793e-09	-4.540338e+01	-3.355700e+02
3.500000e-07	-6.440248e-06	-5.079047e-09	-4.473996e+01	-3.334976e+02
3.600000e-07	-6.342365e-06	-5.046733e-09	-4.405997e+01	-3.313590e+02
3.700000e-07	-6.242221e-06	-5.024518e-09	-4.336428e+01	-3.291501e+02
3.800000e-07	-6.139856e-06	-4.988363e-09	-4.265316e+01	-3.268656e+02
3.900000e-07	-6.035216e-06	-4.933018e-09	-4.192623e+01	-3.245003e+02
4.000000e-07	-5.928389e-06	-4.892061e-09	-4.118411e+01	-3.220489e+02
4.100000e-07	-5.819544e-06	-4.856549e-09	-4.042797e+01	-3.195074e+02
4.200000e-07	-5.708683e-06	-4.820362e-09	-3.965782e+01	-3.168733e+02
4.300000e-07	-5.595714e-06	-4.774863e-09	-3.887304e+01	-3.141458e+02
4.400000e-07	-5.480550e-06	-4.736336e-09	-3.807300e+01	-3.113261e+02
4.500000e-07	-5.363253e-06	-4.696912e-09	-3.725815e+01	-3.084167e+02
4.600000e-07	-5.243988e-06	-4.648386e-09	-3.642963e+01	-3.054208e+02
4.700000e-07	-5.122905e-06	-4.598964e-09	-3.558847e+01	-3.023417e+02
4.800000e-07	-4.999995e-06	-4.552236e-09	-3.473462e+01	-2.991816e+02
4.900000e-07	-4.875266e-06	-4.502753e-09	-3.386814e+01	-2.959406e+02
5.000000e-07	-4.748787e-06	-4.446966e-09	-3.298949e+01	-2.926167e+02
5.100000e-07	-4.620578e-06	-4.394531e-09	-3.209884e+01	-2.892046e+02
5.200000e-07	-4.490654e-06	-4.340045e-09	-3.119627e+01	-2.856966e+02
5.300000e-07	-4.359023e-06	-4.282188e-09	-3.028183e+01	-2.820827e+02
5.400000e-07	-4.225763e-06	-4.221244e-09	-2.935609e+01	-2.783516e+02
5.500000e-07	-4.090959e-06	-4.162862e-09	-2.841961e+01	-2.744915e+02
5.600000e-07	-3.954627e-06	-4.106137e-09	-2.747252e+01	-2.704920e+02
5.700000e-07	-3.816768e-06	-4.047426e-09	-2.651483e+01	-2.663441e+02
5.800000e-07	-3.677299e-06	-3.984309e-09	-2.554594e+01	-2.620419e+02
5.900000e-07	-3.536276e-06	-3.915035e-09	-2.456626e+01	-2.575823e+02
6.000000e-07	-3.393848e-06	-3.843278e-09	-2.357683e+01	-2.529652e+02
6.100000e-07	-3.250089e-06	-3.770335e-09	-2.257814e+01	-2.481923e+02
6.200000e-07	-3.105073e-06	-3.696374e-09	-2.157073e+01	-2.432668e+02
6.300000e-07	-2.958892e-06	-3.619450e-09	-2.055522e+01	-2.381913e+02
6.400000e-07	-2.811718e-06	-3.540790e-09	-1.953281e+01	-2.329669e+02
6.500000e-07	-2.663642e-06	-3.457478e-09	-1.850414e+01	-2.275921e+02
6.600000e-07	-2.514639e-06	-3.369511e-09	-1.746902e+01	-2.220615e+02
6.700000e-07	-2.364802e-06	-3.279941e-09	-1.642812e+01	-2.163662e+02
6.800000e-07	-2.214257e-06	-3.191519e-09	-1.538229e+01	-2.104936e+02
6.900000e-07	-2.062942e-06	-3.103777e-09	-1.433111e+01	-2.044285e+02
7.000000e-07	-1.910875e-06	-3.008923e-09	-1.327472e+01	-1.981547e+02
7.100000e-07	-1.758141e-06	-2.909842e-09	-1.221369e+01	-1.916560e+02
7.200000e-07	-1.604738e-06	-2.806026e-09	-1.114801e+01	-1.849182e+02
7.300000e-07	-1.450733e-06	-2.697382e-09	-1.007814e+01	-1.779299e+02
7.400000e-07	-1.296244e-06	-2.582973e-09	-9.004917e+00	-1.706833e+02
7.500000e-07	-1.141391e-06	-2.464577e-09	-7.929165e+00	-1.631740e+02
7.600000e-07	-9.861671e-07	-2.348408e-09	-6.850835e+00	-1.554000e+02
7.700000e-07	-8.306209e-07	-2.231888e-09	-5.770266e+00	-1.473602e+02
7.800000e-07	-6.748375e-07	-2.108701e-09	-4.688049e+00	-1.390519e+02
7.900000e-07	-5.187629e-07	-1.975053e-09	-3.603810e+00	-1.304690e+02
8.000000e-07	-3.624447e-07	-1.835568e-09	-2.517878e+00	-1.215997e+02
8.100000e-07	-2.059588e-07	-1.692446e-09	-1.430782e+00	-1.124246e+02
8.200000e-07	-4.933654e-08	-1.546945e-09	-3.427375e-01	-1.029167e+02
8.300000e-07	1.073472e-07	-1.396806e-09	7.457337e-01	-9.304196e+01
8.400000e-07	2.639684e-07	-1.239241e-09	1.833770e+00	-8.276113e+01
8.500000e-07	4.205027e-07	-1.073104e-09	2.921203e+00	-7.203344e+01
8.600000e-07	5.769055e-07	-8.983980e-10	4.007723e+00	-6.082089e+01
8.700000e-07	7.331186e-07	-7.175962e-10	5.092924e+00	-4.909341e+01
8.800000e-07	8.891329e-07	-5.325072e-10	6.176745e+00	-3.683410e+01
8.900000e-07	1.044866e-06	-3.417489e-10	7.258613e+00	-2.404398e+01
9.000000e-07	1.200249e-06	-1.425406e-10	8.338047e+00	-1.074572e+01
9.100000e-07	1.355234e-06	6.223225e-11	9.414714e+00	3.014204e+00
9.200000e-07	1.509759e-06	2.729292e-10	1.048819e+01	1.716523e+01
9.300000e-07	1.663765e-06	4.929770e-10	1.155806e+01	3.161458e+01
9.400000e-07	1.817171e-06	7.209105e-10	1.262376e+01	4.625102e+01
9.500000e-07	1.969831e-06	9.494130e-10	1.368428e+01	6.095044e+01
9.600000e-07	2.121723e-06	1.173182e-09	1.473946e+01	7.558249e+01
9.700000e-07	2.272793e-06	1.391621e-09	1.578893e+01	9.001800e+01
9.800000e-07	2.422983e-06	1.603903e-09	1.683229e+01	1.041361e+02
9.900000e-07	2.572282e-06	1.808831e-09	1.786946e+01	1.178306e+02
1.000000e-06	2.720566e-06	2.004782e-09	1.889958e+01	1.310151e+02
1.010000e-06	2.867824e-06	2.193911e-09	1.992258e+01	1.436261e+02
1.020000e-06	3.014025e-06	2.375359e-09	2.093822e+01	1.556243e+02
1.030000e-06	3.159061e-06	2.547414e-09	2.194578e+01	1.669937e+02
1.040000e-06	3.302913e-06	2.712277e-09	2.294511e+01	1.777390e+02
1.050000e-06	3.445534e-06	2.868842e-09	2.393589e+01	1.878816e+02
1.060000e-06	3.586807e-06	3.015183e-09	2.491730e+01	1.974548e+02
1.070000e-06	3.726730e-06	3.152036e-09	2.588934e+01	2.064987e+02
1.080000e-06	3.865299e-06	3.283202e-09	2.685196e+01	2.150554e+02
1.090000e-06	4.002369e-06	3.408322e-09	2.780418e+01	2.231653e+02
1.100000e-06	4.137908e-06	3.525304e-09	2.874576e+01	2.308641e+02
1.110000e-06	4.271959e-06	3.635547e-09	2.967701e+01	2.381815e+02
1.120000e-06	4.404525e-06	3.743650e-09	3.059793e+01	2.451406e+02
1.130000e-06	4.535576e-06	3.848718e-09	3.150833e+01	2.517595e+02
1.140000e-06	4.664979e-06	3.946019e-09	3.240729e+01	2.580522e+02
1.150000e-06	4.792703e-06	4.034364e-09	3.329458e+01	2.640312e+02
1.160000e-06	4.918825e-06	4.116952e-09	3.417074e+01	2.697090e+02
1.170000e-06	5.043290e-06	4.197516e-09	3.503539e+01	2.751002e+02
1.180000e-06	5.165980e-06	4.272031e-09	3.588771e+01	2.802219e+02
1.190000e-06	5.286814e-06	4.341947e-09	3.672713e+01	2.850945e+02
1.200000e-06	5.405736e-06	4.411834e-09	3.755327e+01	2.897403e+02
1.210000e-06	5.522608e-06	4.482133e-09	3.836517e+01	2.941829e+02
1.220000e-06	5.637321e-06	4.552074e-09	3.916208e+01	2.984450e+02
1.230000e-06	5.749861e-06	4.619414e-09	3.994389e+01	3.025471e+02
1.240000e-06	5.860261e-06	4.681744e-09	4.071083e+01	3.065053e+02
1.250000e-06	5.968603e-06	4.738157e-09	4.146347e+01	3.103309e+02
1.260000e-06	6.074816e-06	4.789544e-09	4.220133e+01	3.140292e+02
1.270000e-06	6.178767e-06	4.838315e-09	4.292347e+01	3.176003e+02
1.280000e-06	6.280480e-06	4.886581e-09	4.363006e+01	3.210396e+02
1.290000e-06	6.379915e-06	4.932553e-09	4.432083e+01	3.243398e+02
1.300000e-06	6.476943e-06	4.977982e-09	4.499488e+01	3.274924e+02
1.310000e-06	6.571567e-06	5.023873e-09	4.565222e+01	3.304894e+02
1.320000e-06	6.663896e-06	5.068327e-09	4.629363e+01	3.333255e+02
1.330000e-06	6.753858e-06	5.109220e-09	4.691859e+01	3.359990e+02
1.340000e-06	6.841347e-06	5.145348e-09	4.752637e+01	3.385124e+02
1.350000e-06	6.926453e-06	5.178955e-09	4.811759e+01	3.408726e+02
1.360000e-06	7.009149e-06	5.210197e-09	4.869208e+01	3.430899e+02
1.370000e-06	7.089286e-06	5.240481e-09	4.924878e+01	3.451771e+02
1.380000e-06	7.166844e-06	5.269020e-09	4.978757e+01	3.471480e+02
1.390000e-06	7.241774e-06	5.294571e-09	5.030810e+01	3.490157e+02
1.400000e-06	7.313995e-06	5.319754e-09	5.080982e+01	3.507912e+02
1.410000e-06	7.383587e-06	5.345359e-09	5.129327e+01	3.524828e+02
1.420000e-06	7.450562e-06	5.370377e-09	5.175854e+01	3.540949e+02
1.430000e-06	7.514851e-06	5.393533e-09	5.220515e+01	3.556288e+02
1.440000e-06	7.576583e-06	5.414140e-09	5.263400e+01	3.570826e+02
1.450000e-06	7.635803e-06	5.432421e-09	5.304539e+01	3.584528e+02
1.460000e-06	7.692344e-06	5.449059e-09	5.343819e+01	3.597348e+02
1.470000e-06	7.746035e-06	5.464792e-09	5.381117e+01	3.609249e+02
1.480000e-06	7.796537e-06	5.480613e-09	5.416201e+01	3.620207e+02
1.490000e-06	7.843873e-06	5.496455e-09	5.449084e+01	3.630222e+02
1.500000e-06	7.888440e-06	5.512584e-09	5.480045e+01	3.639320e+02
1.510000e-06	7.930254e-06	5.528026e-09	5.509093e+01	3.647551e+02
1.520000e-06	7.969181e-06	5.540973e-09	5.536135e+01	3.654984e+02
1.530000e-06	8.005344e-06	5.551814e-09	5.561257e+01	3.661698e+02
1.540000e-06	8.038706e-06	5.560959e-09	5.584433e+01	3.667769e+02
1.550000e-06	8.069152e-06	5.568234e-09	5.605584e+01	3.673266e+02
1.560000e-06	8.096749e-06	5.573462e-09	5.624756e+01	3.678234e+02
1.570000e-06	8.121381e-06	5.577853e-09	5.641867e+01	3.682698e+02
1.580000e-06	8.143081e-06	5.583862e-09	5.656942e+01	3.686653e+02
1.590000e-06	8.161960e-06	5.593106e-09	5.670057e+01	3.690075e+02
1.600000e-06	8.177800e-06	5.602504e-09	5.681061e+01	3.692922e+02
1.610000e-06	8.190516e-06	5.609102e-09	5.689895e+01	3.695144e+02
1.620000e-06	8.200068e-06	5.612867e-09	5.696530e+01	3.696694e+02
1.630000e-06	8.206589e-06	5.613664e-09	5.701061e+01	3.697536e+02
1.640000e-06	8.210262e-06	5.613109e-09	5.703612e+01	3.697654e+02
1.650000e-06	8.211036e-06	5.614032e-09	5.704150e+01	3.697053e+02
1.660000e-06	8.209005e-06	5.609410e-09	5.702739e+01	3.695762e+02
1.670000e-06	8.204273e-06	5.605205e-09	5.699452e+01	3.693834e+02
1.680000e-06	8.196816e-06	5.603420e-09	5.694272e+01	3.691332e+02
1.690000e-06	8.186610e-06	5.601480e-09	5.687182e+01	3.688330e+02
1.700000e-06	8.173464e-06	5.601517e-09	5.678049e+01	3.684896e+02
1.710000e-06	8.157464e-06	5.603608e-09	5.666934e+01	3.681092e+02
1.720000e-06	8.139048e-06	5.609819e-09	5.654140e+01	3.676960e+02
1.730000e-06	8.118249e-06	5.584343e-09	5.639691e+01	3.672522e+02
1.740000e-06	8.094511e-06	5.530324e-09	5.623201e+01	3.667780e+02
1.750000e-06	8.067051e-06	5.528236e-09	5.604125e+01	3.662715e+02
1.760000e-06	8.035826e-06	5.540242e-09	5.582433e+01	3.657292e+02
1.770000e-06	8.001690e-06	5.535799e-09	5.558719e+01	3.651467e+02
1.780000e-06	7.965238e-06	5.551755e-09	5.533396e+01	3.645191e+02
1.790000e-06	7.926454e-06	5.586971e-09	5.506453e+01	3.638417e+02
1.800000e-06	7.885548e-06	5.523008e-09	5.478036e+01	3.631103e+02
1.810000e-06	7.842417e-06	5.514915e-09	5.448073e+01	3.623216e+02
1.820000e-06	7.796471e-06	5.553257e-09	5.416154e+01	3.614731e+02
1.830000e-06	7.747788e-06	5.497463e-09	5.382335e+01	3.605630e+02
1.840000e-06	7.696158e-06	5.524907e-09	5.346468e+01	3.595900e+02
1.850000e-06	7.641377e-06	5.467992e-09	5.308412e+01	3.585531e+02
1.860000e-06	7.583837e-06	5.447761e-09	5.268439e+01	3.574513e+02
1.870000e-06	7.523542e-06	5.450284e-09	5.226553e+01	3.562831e+02
1.880000e-06	7.460509e-06	5.393488e-09	5.182764e+01	3.550473e+02
1.890000e-06	7.394606e-06	5.440731e-09	5.136982e+01	3.537422e+02
1.900000e-06	7.325813e-06	5.392547e-09	5.089192e+01	3.523665e+02
1.910000e-06	7.254163e-06	5.351020e-09	5.039417e+01	3.509190e+02
1.920000e-06	7.179663e-06	5.350986e-09	4.987662e+01	3.493995e+02
1.930000e-06	7.102446e-06	5.336174e-09	4.934021e+01	3.478083e+02
1.940000e-06	7.022434e-06	5.311009e-09	4.878437e+01	3.461466e+02
1.950000e-06	6.939883e-06	5.246192e-09	4.821089e+01	3.444163e+02
1.960000e-06	6.854778e-06	5.241906e-09	4.761967e+01	3.426197e+02
1.970000e-06	6.766940e-06	5.200593e-09	4.700947e+01	3.407591e+02
1.980000e-06	6.676662e-06	5.168825e-09	4.638231e+01	3.388360e+02
1.990000e-06	6.584094e-06	5.163681e-09	4.573925e+01	3.368511e+02
2.000000e-06	6.489240e-06	5.137328e-09	4.508030e+01	3.348037e+02
2.010000e-06	6.392082e-06	5.091497e-09	4.440535e+01	3.326914e+02
2.020000e-06	6.292674e-06	5.042005e-09	4.371477e+01	3.305106e+02
2.030000e-06	6.190983e-06	5.027626e-09	4.300833e+01	3.282564e+02
2.040000e-06	6.086979e-06	4.997097e-09	4.228583e+01	3.259233e+02
2.050000e-06	5.980859e-06	4.957224e-09	4.154861e+01	3.235062e+02
2.060000e-06	5.872722e-06	4.909625e-09	4.079740e+01	3.210003e+02
2.070000e-06	5.762542e-06	4.872138e-09	4.003198e+01	3.184027e+02
2.080000e-06	5.650278e-06	4.827883e-09	3.925209e+01	3.157117e+02
2.090000e-06	5.535865e-06	4.786637e-09	3.845727e+01	3.129279e+02
2.100000e-06	5.419288e-06	4.754221e-09	3.764742e+01	3.100532e+02
2.110000e-06	5.300615e-06	4.709272e-09	3.682301e+01	3.070908e+02
2.120000e-06	5.179968e-06	4.651912e-09	3.598488e+01	3.040440e+02
2.130000e-06	5.057524e-06	4.601967e-09	3.513427e+01	3.009154e+02
2.140000e-06	4.933278e-06	4.562886e-09	3.427114e+01	2.977061e+02
2.150000e-06	4.807242e-06	4.513246e-09	3.339558e+01	2.944151e+02
2.160000e-06	4.679419e-06	4.461232e-09	3.250760e+01	2.910383e+02
2.170000e-06	4.549865e-06	4.408975e-09	3.160760e+01	2.875690e+02
2.180000e-06	4.418702e-06	4.358384e-09	3.069642e+01	2.839979e+02
2.190000e-06	4.285950e-06	4.302534e-09	2.977420e+01	2.803140e+02
2.200000e-06	4.151603e-06	4.246644e-09	2.884090e+01	2.765059e+02
2.210000e-06	4.015635e-06	4.184044e-09	2.789634e+01	2.725622e+02
2.220000e-06	3.878069e-06	4.114264e-09	2.694068e+01	2.684733e+02
2.230000e-06	3.738923e-06	4.044748e-09	2.597404e+01	2.642322e+02
2.240000e-06	3.598378e-06	3.979916e-09	2.499769e+01	2.598345e+02
2.250000e-06	3.456474e-06	3.916945e-09	2.401189e+01	2.552790e+02
2.260000e-06	3.313248e-06	3.848493e-09	2.301691e+01	2.505668e+02
2.270000e-06	3.168783e-06	3.774770e-09	2.201331e+01	2.457008e+02
2.280000e-06	3.023084e-06	3.694351e-09	2.100116e+01	2.406838e+02
2.290000e-06	2.876249e-06	3.613713e-09	1.998110e+01	2.355178e+02
2.300000e-06	2.728456e-06	3.536946e-09	1.895440e+01	2.302024e+02
2.310000e-06	2.579732e-06	3.459068e-09	1.792122e+01	2.247338e+02
2.320000e-06	2.430122e-06	3.372115e-09	1.688189e+01	2.191044e+02
2.330000e-06	2.279778e-06	3.277335e-09	1.583746e+01	2.133029e+02
2.340000e-06	2.128654e-06	3.183453e-09	1.478761e+01	2.073153e+02
2.350000e-06	1.976799e-06	3.091327e-09	1.373269e+01	2.011253e+02
2.360000e-06	1.824307e-06	2.995580e-09	1.267334e+01	1.947166e+02
2.370000e-06	1.671150e-06	2.895688e-09	1.160936e+01	1.880742e+02
2.380000e-06	1.517334e-06	2.790489e-09	1.054082e+01	1.811853e+02
2.390000e-06	1.363035e-06	2.681981e-09	9.468913e+00	1.740408e+02
2.400000e-06	1.208335e-06	2.570853e-09	8.394219e+00	1.666350e+02
2.410000e-06	1.053229e-06	2.456795e-09	7.316706e+00	1.589650e+02
2.420000e-06	8.977908e-07	2.337486e-09	6.236891e+00	1.510296e+02
2.430000e-06	7.420949e-07	2.209091e-09	5.155282e+00	1.428271e+02
2.440000e-06	5.861926e-07	2.077029e-09	4.072239e+00	1.343530e+02
2.450000e-06	4.300558e-07	1.944784e-09	2.987568e+00	1.255980e+02
2.460000e-06	2.737065e-07	1.811739e-09	1.901420e+00	1.165457e+02
2.470000e-06	1.172519e-07	1.670544e-09	8.145409e-01	1.071721e+02
2.480000e-06	-3.929052e-08	1.519759e-09	-2.729486e-01	9.744585e+01
2.490000e-06	-1.958786e-07	1.364888e-09	-1.360755e+00	8.732929e+01
2.500000e-06	-3.524040e-07	1.206061e-09	-2.448127e+00	7.678182e+01
2.510000e-06	-5.088309e-07	1.041423e-09	-3.534813e+00	6.576377e+01
2.520000e-06	-6.650814e-07	8.657402e-10	-4.620275e+00	5.424132e+01
2.530000e-06	-8.210716e-07	6.782856e-10	-5.703928e+00	4.219179e+01
2.540000e-06	-9.767793e-07	4.831991e-10	-6.785619e+00	2.960864e+01
2.550000e-06	-1.132163e-06	2.838980e-10	-7.865057e+00	1.650568e+01
2.560000e-06	-1.287200e-06	7.883256e-11	-8.942090e+00	2.919903e+00
2.570000e-06	-1.441877e-06	-1.352636e-10	-1.001662e+01	-1.108750e+01
2.580000e-06	-1.596076e-06	-3.550108e-10	-1.108783e+01	-2.543212e+01
2.590000e-06	-1.749561e-06	-5.778583e-10	-1.215408e+01	-4.000942e+01
2.600000e-06	-1.902246e-06	-8.046830e-10	-1.321477e+01	-5.469957e+01
2.610000e-06	-2.054178e-06	-1.033471e-09	-1.427023e+01	-6.937385e+01
2.620000e-06	-2.205376e-06	-1.260776e-09	-1.532059e+01	-8.390173e+01
2.630000e-06	-2.355764e-06	-1.483975e-09	-1.636533e+01	-9.815824e+01
2.640000e-06	-2.505192e-06	-1.700508e-09	-1.740340e+01	-1.120308e+02
2.650000e-06	-2.653660e-06	-1.907164e-09	-1.843479e+01	-1.254246e+02
2.660000e-06	-2.801228e-06	-2.102467e-09	-1.945994e+01	-1.382671e+02
2.670000e-06	-2.947829e-06	-2.286108e-09	-2.047836e+01	-1.505093e+02
2.680000e-06	-3.093319e-06	-2.459898e-09	-2.148907e+01	-1.621264e+02
2.690000e-06	-3.237650e-06	-2.626803e-09	-2.249173e+01	-1.731153e+02
2.700000e-06	-3.380759e-06	-2.785857e-09	-2.348590e+01	-1.834914e+02
2.710000e-06	-3.522500e-06	-2.937050e-09	-2.447057e+01	-1.932839e+02
2.720000e-06	-3.662853e-06	-3.080767e-09	-2.544558e+01	-2.025308e+02
2.730000e-06	-3.801857e-06	-3.216418e-09	-2.641124e+01	-2.112740e+02
2.740000e-06	-3.939430e-06	-3.345346e-09	-2.736695e+01	-2.195550e+02
2.750000e-06	-4.075529e-06	-3.468423e-09	-2.831242e+01	-2.274116e+02
2.760000e-06	-4.210196e-06	-3.584165e-09	-2.924794e+01	-2.348758e+02
2.770000e-06	-4.343347e-06	-3.689455e-09	-3.017293e+01	-2.419734e+02
2.780000e-06	-4.475035e-06	-3.789140e-09	-3.108776e+01	-2.487242e+02
2.790000e-06	-4.605235e-06	-3.888205e-09	-3.199225e+01	-2.551437e+02
2.800000e-06	-4.733824e-06	-3.983129e-09	-3.288555e+01	-2.612446e+02
2.810000e-06	-4.860788e-06	-4.072257e-09	-3.376756e+01	-2.670392e+02
2.820000e-06	-4.986022e-06	-4.157563e-09	-3.463755e+01	-2.725412e+02
2.830000e-06	-5.109487e-06	-4.239731e-09	-3.549526e+01	-2.777667e+02
2.840000e-06	-5.231166e-06	-4.316594e-09	-3.634055e+01	-2.827347e+02
2.850000e-06	-5.350876e-06	-4.387189e-09	-3.717217e+01	-2.874670e+02
2.860000e-06	-5.468414e-06	-4.454578e-09	-3.798870e+01	-2.919867e+02
2.870000e-06	-5.583793e-06	-4.522138e-09	-3.879023e+01	-2.963173e+02
2.880000e-06	-5.696973e-06	-4.587419e-09	-3.957648e+01	-3.004801e+02
2.890000e-06	-5.807898e-06	-4.649074e-09	-4.034707e+01	-3.044934e+02
2.900000e-06	-5.916762e-06	-4.709285e-09	-4.110334e+01	-3.083702e+02
2.910000e-06	-6.023617e-06	-4.769289e-09	-4.184565e+01	-3.121183e+02
2.920000e-06	-6.128286e-06	-4.827744e-09	-4.257278e+01	-3.157398e+02
2.930000e-06	-6.230634e-06	-4.883130e-09	-4.328378e+01	-3.192318e+02
2.940000e-06	-6.330641e-06	-4.933452e-09	-4.397853e+01	-3.225878e+02
