# Temperatura_=_84.42
# Concentracion g/m^3_=_15000.0
# C_Vs_to_Am_M_A/Vsm_=_65563218390.804596
# pendiente_HvsI_1/m_=_3716.3
# ordenada_HvsI_A/m_=_1297.0
# frecuencia_Hz_=_302329.77030523977

Tiempo_(s)	Campo_(V.s)	Magnetizacion_(V.s)	Campo_(kA/m)	Magnetizacion_(A/m)
0.000000e+00	-8.224554e-06	-1.116320e-08	-5.692054e+01	-7.288343e+02
1.000000e-08	-8.222043e-06	-1.115759e-08	-5.690316e+01	-7.285370e+02
2.000000e-08	-8.216758e-06	-1.115060e-08	-5.686659e+01	-7.281152e+02
3.000000e-08	-8.208846e-06	-1.113897e-08	-5.681183e+01	-7.275751e+02
4.000000e-08	-8.198044e-06	-1.112413e-08	-5.673707e+01	-7.269219e+02
5.000000e-08	-8.184201e-06	-1.110949e-08	-5.664127e+01	-7.261597e+02
6.000000e-08	-8.167448e-06	-1.109558e-08	-5.652532e+01	-7.252912e+02
7.000000e-08	-8.148177e-06	-1.107631e-08	-5.639195e+01	-7.243183e+02
8.000000e-08	-8.126593e-06	-1.104451e-08	-5.624257e+01	-7.232427e+02
9.000000e-08	-8.102150e-06	-1.101977e-08	-5.607341e+01	-7.220669e+02
1.000000e-07	-8.074421e-06	-1.103145e-08	-5.588150e+01	-7.207942e+02
1.100000e-07	-8.043493e-06	-1.102643e-08	-5.566745e+01	-7.194298e+02
1.200000e-07	-8.009537e-06	-1.098710e-08	-5.543245e+01	-7.179801e+02
1.300000e-07	-7.972808e-06	-1.095616e-08	-5.517826e+01	-7.164520e+02
1.400000e-07	-7.933673e-06	-1.094182e-08	-5.490741e+01	-7.148521e+02
1.500000e-07	-7.892173e-06	-1.088825e-08	-5.462020e+01	-7.131851e+02
1.600000e-07	-7.848181e-06	-1.083278e-08	-5.431574e+01	-7.114522e+02
1.700000e-07	-7.801365e-06	-1.086499e-08	-5.399173e+01	-7.096498e+02
1.800000e-07	-7.751582e-06	-1.081593e-08	-5.364719e+01	-7.077691e+02
1.900000e-07	-7.698962e-06	-1.077342e-08	-5.328302e+01	-7.057953e+02
2.000000e-07	-7.643386e-06	-1.076749e-08	-5.289839e+01	-7.037090e+02
2.100000e-07	-7.584985e-06	-1.069428e-08	-5.249421e+01	-7.014874e+02
2.200000e-07	-7.523954e-06	-1.064185e-08	-5.207182e+01	-6.991064e+02
2.300000e-07	-7.460179e-06	-1.060332e-08	-5.163045e+01	-6.965435e+02
2.400000e-07	-7.393591e-06	-1.059277e-08	-5.116961e+01	-6.937802e+02
2.500000e-07	-7.324251e-06	-1.053590e-08	-5.068972e+01	-6.908044e+02
2.600000e-07	-7.252066e-06	-1.046539e-08	-5.019014e+01	-6.876118e+02
2.700000e-07	-7.176959e-06	-1.042906e-08	-4.967034e+01	-6.842068e+02
2.800000e-07	-7.098946e-06	-1.036772e-08	-4.913043e+01	-6.806014e+02
2.900000e-07	-7.018169e-06	-1.030628e-08	-4.857139e+01	-6.768141e+02
3.000000e-07	-6.934941e-06	-1.025233e-08	-4.799538e+01	-6.728670e+02
3.100000e-07	-6.849354e-06	-1.020992e-08	-4.740305e+01	-6.687831e+02
3.200000e-07	-6.761243e-06	-1.014542e-08	-4.679325e+01	-6.645824e+02
3.300000e-07	-6.670616e-06	-1.006039e-08	-4.616604e+01	-6.602796e+02
3.400000e-07	-6.577640e-06	-1.000050e-08	-4.552257e+01	-6.558818e+02
3.500000e-07	-6.482266e-06	-9.924953e-09	-4.486250e+01	-6.513877e+02
3.600000e-07	-6.384522e-06	-9.836538e-09	-4.418604e+01	-6.467873e+02
3.700000e-07	-6.284505e-06	-9.764773e-09	-4.349384e+01	-6.420640e+02
3.800000e-07	-6.182214e-06	-9.713349e-09	-4.278590e+01	-6.371971e+02
3.900000e-07	-6.077622e-06	-9.634825e-09	-4.206204e+01	-6.321642e+02
4.000000e-07	-5.970855e-06	-9.535615e-09	-4.132313e+01	-6.269454e+02
4.100000e-07	-5.862094e-06	-9.456781e-09	-4.057042e+01	-6.215253e+02
4.200000e-07	-5.751213e-06	-9.371799e-09	-3.980303e+01	-6.158959e+02
4.300000e-07	-5.638074e-06	-9.274035e-09	-3.902002e+01	-6.100566e+02
4.400000e-07	-5.522794e-06	-9.182001e-09	-3.822219e+01	-6.040144e+02
4.500000e-07	-5.405484e-06	-9.105111e-09	-3.741031e+01	-5.977820e+02
4.600000e-07	-5.286153e-06	-9.012912e-09	-3.658444e+01	-5.913748e+02
4.700000e-07	-5.164924e-06	-8.905403e-09	-3.574543e+01	-5.848083e+02
4.800000e-07	-5.041930e-06	-8.799357e-09	-3.489422e+01	-5.780940e+02
4.900000e-07	-4.917132e-06	-8.693771e-09	-3.403052e+01	-5.712373e+02
5.000000e-07	-4.790597e-06	-8.585031e-09	-3.315479e+01	-5.642351e+02
5.100000e-07	-4.662359e-06	-8.473669e-09	-3.226728e+01	-5.570759e+02
5.200000e-07	-4.532347e-06	-8.362583e-09	-3.136749e+01	-5.497402e+02
5.300000e-07	-4.400608e-06	-8.244148e-09	-3.045575e+01	-5.422029e+02
5.400000e-07	-4.267277e-06	-8.121968e-09	-2.953300e+01	-5.344364e+02
5.500000e-07	-4.132406e-06	-7.995873e-09	-2.859958e+01	-5.264142e+02
5.600000e-07	-3.995874e-06	-7.864169e-09	-2.765467e+01	-5.181144e+02
5.700000e-07	-3.857703e-06	-7.732183e-09	-2.669841e+01	-5.095225e+02
5.800000e-07	-3.717967e-06	-7.601688e-09	-2.573133e+01	-5.006326e+02
5.900000e-07	-3.576687e-06	-7.468042e-09	-2.475356e+01	-4.914477e+02
6.000000e-07	-3.433993e-06	-7.325002e-09	-2.376600e+01	-4.819781e+02
6.100000e-07	-3.289974e-06	-7.177930e-09	-2.276927e+01	-4.722381e+02
6.200000e-07	-3.144742e-06	-7.025686e-09	-2.176415e+01	-4.622428e+02
6.300000e-07	-2.998388e-06	-6.865035e-09	-2.075126e+01	-4.520033e+02
6.400000e-07	-2.850937e-06	-6.700809e-09	-1.973078e+01	-4.415232e+02
6.500000e-07	-2.702540e-06	-6.535238e-09	-1.870375e+01	-4.307961e+02
6.600000e-07	-2.553233e-06	-6.364955e-09	-1.767043e+01	-4.198039e+02
6.700000e-07	-2.403027e-06	-6.190166e-09	-1.663088e+01	-4.085179e+02
6.800000e-07	-2.252056e-06	-6.012850e-09	-1.558604e+01	-3.969012e+02
6.900000e-07	-2.100319e-06	-5.829948e-09	-1.453590e+01	-3.849125e+02
7.000000e-07	-1.947786e-06	-5.637728e-09	-1.348025e+01	-3.725111e+02
7.100000e-07	-1.794493e-06	-5.440161e-09	-1.241934e+01	-3.596617e+02
7.200000e-07	-1.640574e-06	-5.239421e-09	-1.135410e+01	-3.463386e+02
7.300000e-07	-1.486132e-06	-5.030609e-09	-1.028523e+01	-3.325280e+02
7.400000e-07	-1.331160e-06	-4.813559e-09	-9.212700e+00	-3.182286e+02
7.500000e-07	-1.175713e-06	-4.589142e-09	-8.136883e+00	-3.034491e+02
7.600000e-07	-1.019924e-06	-4.358889e-09	-7.058699e+00	-2.882037e+02
7.700000e-07	-8.638279e-07	-4.124547e-09	-5.978385e+00	-2.725059e+02
7.800000e-07	-7.074609e-07	-3.884327e-09	-4.896200e+00	-2.563605e+02
7.900000e-07	-5.508522e-07	-3.631584e-09	-3.812341e+00	-2.397564e+02
8.000000e-07	-3.940082e-07	-3.366315e-09	-2.726854e+00	-2.226605e+02
8.100000e-07	-2.369851e-07	-3.094173e-09	-1.640128e+00	-2.050140e+02
8.200000e-07	-7.984478e-08	-2.813403e-09	-5.525902e-01	-1.867322e+02
8.300000e-07	7.733666e-08	-2.517830e-09	5.352320e-01	-1.677079e+02
8.400000e-07	2.345347e-07	-2.206793e-09	1.623169e+00	-1.478199e+02
8.500000e-07	3.916470e-07	-1.884113e-09	2.710513e+00	-1.269437e+02
8.600000e-07	5.485997e-07	-1.549838e-09	3.796752e+00	-1.049655e+02
8.700000e-07	7.054498e-07	-1.201358e-09	4.882281e+00	-8.179772e+01
8.800000e-07	8.621106e-07	-8.372235e-10	5.966500e+00	-5.739282e+01
8.900000e-07	1.018466e-06	-4.540792e-10	7.048606e+00	-3.175615e+01
9.000000e-07	1.174529e-06	-4.959512e-11	8.128690e+00	-4.954246e+00
9.100000e-07	1.330239e-06	3.708443e-10	9.206324e+00	2.288160e+01
9.200000e-07	1.485489e-06	8.048555e-10	1.028078e+01	5.155750e+01
9.300000e-07	1.640217e-06	1.254961e-09	1.135162e+01	8.082487e+01
9.400000e-07	1.794335e-06	1.716114e-09	1.241825e+01	1.103935e+02
9.500000e-07	1.947737e-06	2.177728e-09	1.347991e+01	1.399486e+02
9.600000e-07	2.100317e-06	2.628250e-09	1.453589e+01	1.691703e+02
9.700000e-07	2.252054e-06	3.061538e-09	1.558603e+01	1.977536e+02
9.800000e-07	2.402990e-06	3.476705e-09	1.663063e+01	2.254266e+02
9.900000e-07	2.553021e-06	3.873424e-09	1.766896e+01	2.519661e+02
1.000000e-06	2.702041e-06	4.249885e-09	1.870030e+01	2.772081e+02
1.010000e-06	2.850071e-06	4.605191e-09	1.972479e+01	3.010530e+02
1.020000e-06	2.997066e-06	4.940881e-09	2.074211e+01	3.234654e+02
1.030000e-06	3.142863e-06	5.258122e-09	2.175115e+01	3.444679e+02
1.040000e-06	3.287436e-06	5.558107e-09	2.275171e+01	3.641313e+02
1.050000e-06	3.430836e-06	5.841194e-09	2.374415e+01	3.825615e+02
1.060000e-06	3.572931e-06	6.108285e-09	2.472756e+01	3.998849e+02
1.070000e-06	3.713688e-06	6.357325e-09	2.570172e+01	4.162343e+02
1.080000e-06	3.853069e-06	6.593581e-09	2.666635e+01	4.317360e+02
1.090000e-06	3.991008e-06	6.821140e-09	2.762099e+01	4.465005e+02
1.100000e-06	4.127465e-06	7.034856e-09	2.856539e+01	4.606162e+02
1.110000e-06	4.262375e-06	7.235795e-09	2.949907e+01	4.741468e+02
1.120000e-06	4.395772e-06	7.429080e-09	3.042229e+01	4.871327e+02
1.130000e-06	4.527626e-06	7.617657e-09	3.133482e+01	4.995943e+02
1.140000e-06	4.657819e-06	7.800357e-09	3.223586e+01	5.115386e+02
1.150000e-06	4.786332e-06	7.972629e-09	3.312527e+01	5.229648e+02
1.160000e-06	4.913207e-06	8.135584e-09	3.400335e+01	5.338713e+02
1.170000e-06	5.038484e-06	8.291614e-09	3.487037e+01	5.442604e+02
1.180000e-06	5.162068e-06	8.440078e-09	3.572567e+01	5.541418e+02
1.190000e-06	5.283737e-06	8.582148e-09	3.656772e+01	5.635341e+02
1.200000e-06	5.403479e-06	8.719000e-09	3.739643e+01	5.724642e+02
1.210000e-06	5.521272e-06	8.849651e-09	3.821165e+01	5.809651e+02
1.220000e-06	5.636937e-06	8.974654e-09	3.901215e+01	5.890731e+02
1.230000e-06	5.750358e-06	9.094902e-09	3.979711e+01	5.968238e+02
1.240000e-06	5.861574e-06	9.208708e-09	4.056682e+01	6.042494e+02
1.250000e-06	5.970719e-06	9.316154e-09	4.132219e+01	6.113760e+02
1.260000e-06	6.077743e-06	9.417673e-09	4.206288e+01	6.182227e+02
1.270000e-06	6.182511e-06	9.516328e-09	4.278796e+01	6.248012e+02
1.280000e-06	6.285029e-06	9.611121e-09	4.349747e+01	6.311178e+02
1.290000e-06	6.385315e-06	9.701803e-09	4.419153e+01	6.371749e+02
1.300000e-06	6.483190e-06	9.788662e-09	4.486890e+01	6.429736e+02
1.310000e-06	6.578544e-06	9.870663e-09	4.552883e+01	6.485164e+02
1.320000e-06	6.671624e-06	9.948455e-09	4.617302e+01	6.538090e+02
1.330000e-06	6.762367e-06	1.002264e-08	4.680103e+01	6.588613e+02
1.340000e-06	6.850623e-06	1.009471e-08	4.741183e+01	6.636874e+02
1.350000e-06	6.936516e-06	1.016533e-08	4.800628e+01	6.683050e+02
1.360000e-06	7.020024e-06	1.023505e-08	4.858423e+01	6.727331e+02
1.370000e-06	7.100978e-06	1.030306e-08	4.914449e+01	6.769902e+02
1.380000e-06	7.179335e-06	1.036600e-08	4.968679e+01	6.810920e+02
1.390000e-06	7.255053e-06	1.042369e-08	5.021081e+01	6.850492e+02
1.400000e-06	7.327987e-06	1.047893e-08	5.071557e+01	6.888663e+02
1.410000e-06	7.398247e-06	1.053312e-08	5.120183e+01	6.925415e+02
1.420000e-06	7.465991e-06	1.058533e-08	5.167068e+01	6.960670e+02
1.430000e-06	7.531080e-06	1.063394e-08	5.212114e+01	6.994306e+02
1.440000e-06	7.593516e-06	1.067973e-08	5.255325e+01	7.026179e+02
1.450000e-06	7.653429e-06	1.072440e-08	5.296790e+01	7.056146e+02
1.460000e-06	7.710608e-06	1.076627e-08	5.336362e+01	7.084089e+02
1.470000e-06	7.764988e-06	1.080361e-08	5.373997e+01	7.109934e+02
1.480000e-06	7.816313e-06	1.083749e-08	5.409518e+01	7.133663e+02
1.490000e-06	7.864420e-06	1.086814e-08	5.442812e+01	7.155318e+02
1.500000e-06	7.909699e-06	1.089683e-08	5.474149e+01	7.174994e+02
1.510000e-06	7.952231e-06	1.092541e-08	5.503585e+01	7.192827e+02
1.520000e-06	7.991902e-06	1.095102e-08	5.531040e+01	7.208975e+02
1.530000e-06	8.028776e-06	1.097205e-08	5.556560e+01	7.223597e+02
1.540000e-06	8.062754e-06	1.098998e-08	5.580076e+01	7.236836e+02
1.550000e-06	8.093779e-06	1.100652e-08	5.601547e+01	7.248801e+02
1.560000e-06	8.122059e-06	1.102265e-08	5.621119e+01	7.259558e+02
1.570000e-06	8.147399e-06	1.103640e-08	5.638657e+01	7.269132e+02
1.580000e-06	8.169693e-06	1.104699e-08	5.654086e+01	7.277506e+02
1.590000e-06	8.189151e-06	1.105701e-08	5.667553e+01	7.284639e+02
1.600000e-06	8.205650e-06	1.106634e-08	5.678971e+01	7.290472e+02
1.610000e-06	8.219100e-06	1.107226e-08	5.688280e+01	7.294950e+02
1.620000e-06	8.229401e-06	1.107546e-08	5.695409e+01	7.298028e+02
1.630000e-06	8.236541e-06	1.107824e-08	5.700350e+01	7.299687e+02
1.640000e-06	8.240757e-06	1.108118e-08	5.703268e+01	7.299933e+02
1.650000e-06	8.242031e-06	1.108243e-08	5.704150e+01	7.298795e+02
1.660000e-06	8.240453e-06	1.108280e-08	5.703058e+01	7.296326e+02
1.670000e-06	8.236227e-06	1.107895e-08	5.700133e+01	7.292588e+02
1.680000e-06	8.229246e-06	1.107159e-08	5.695302e+01	7.287642e+02
1.690000e-06	8.219455e-06	1.106337e-08	5.688525e+01	7.281547e+02
1.700000e-06	8.206780e-06	1.105574e-08	5.679753e+01	7.274347e+02
1.710000e-06	8.191213e-06	1.104896e-08	5.668980e+01	7.266074e+02
1.720000e-06	8.173140e-06	1.104449e-08	5.656471e+01	7.256751e+02
1.730000e-06	8.152728e-06	1.104681e-08	5.642345e+01	7.246394e+02
1.740000e-06	8.129520e-06	1.103118e-08	5.626283e+01	7.235024e+02
1.750000e-06	8.102778e-06	1.098035e-08	5.607775e+01	7.222670e+02
1.760000e-06	8.072166e-06	1.095210e-08	5.586589e+01	7.209377e+02
1.770000e-06	8.038359e-06	1.094133e-08	5.563192e+01	7.195205e+02
1.780000e-06	8.002164e-06	1.090811e-08	5.538143e+01	7.180221e+02
1.790000e-06	7.963624e-06	1.089305e-08	5.511469e+01	7.164495e+02
1.800000e-06	7.922948e-06	1.089230e-08	5.483319e+01	7.148082e+02
1.810000e-06	7.880134e-06	1.082718e-08	5.453688e+01	7.131011e+02
1.820000e-06	7.834536e-06	1.081557e-08	5.422131e+01	7.113265e+02
1.830000e-06	7.786165e-06	1.080335e-08	5.388654e+01	7.094778e+02
1.840000e-06	7.734861e-06	1.076547e-08	5.353147e+01	7.075424e+02
1.850000e-06	7.680367e-06	1.077872e-08	5.315433e+01	7.055027e+02
1.860000e-06	7.623165e-06	1.075286e-08	5.275845e+01	7.033368e+02
1.870000e-06	7.563201e-06	1.073780e-08	5.234345e+01	7.010210e+02
1.880000e-06	7.500384e-06	1.065990e-08	5.190870e+01	6.985318e+02
1.890000e-06	7.434777e-06	1.058759e-08	5.145465e+01	6.958489e+02
1.900000e-06	7.366212e-06	1.057401e-08	5.098013e+01	6.929573e+02
1.910000e-06	7.294755e-06	1.049812e-08	5.048559e+01	6.898496e+02
1.920000e-06	7.220460e-06	1.046867e-08	4.997140e+01	6.865267e+02
1.930000e-06	7.143389e-06	1.044371e-08	4.943801e+01	6.829979e+02
1.940000e-06	7.063548e-06	1.037643e-08	4.888545e+01	6.792793e+02
1.950000e-06	6.981140e-06	1.030093e-08	4.831511e+01	6.753921e+02
1.960000e-06	6.896183e-06	1.022324e-08	4.772715e+01	6.713590e+02
1.970000e-06	6.808562e-06	1.018885e-08	4.712073e+01	6.672019e+02
1.980000e-06	6.718519e-06	1.011500e-08	4.649757e+01	6.629376e+02
1.990000e-06	6.626065e-06	1.005612e-08	4.585771e+01	6.585766e+02
2.000000e-06	6.531224e-06	1.001138e-08	4.520134e+01	6.541208e+02
2.010000e-06	6.434104e-06	9.944106e-09	4.452919e+01	6.495636e+02
2.020000e-06	6.334758e-06	9.850906e-09	4.384163e+01	6.448907e+02
2.030000e-06	6.233071e-06	9.762010e-09	4.313788e+01	6.400826e+02
2.040000e-06	6.129045e-06	9.701144e-09	4.241793e+01	6.351173e+02
2.050000e-06	6.022920e-06	9.616146e-09	4.168346e+01	6.299734e+02
2.060000e-06	5.914744e-06	9.539779e-09	4.093480e+01	6.246336e+02
2.070000e-06	5.804515e-06	9.467987e-09	4.017192e+01	6.190866e+02
2.080000e-06	5.692219e-06	9.386915e-09	3.939474e+01	6.133291e+02
2.090000e-06	5.577826e-06	9.276221e-09	3.860305e+01	6.073651e+02
2.100000e-06	5.461231e-06	9.174946e-09	3.779612e+01	6.012054e+02
2.110000e-06	5.342515e-06	9.085541e-09	3.697451e+01	5.948648e+02
2.120000e-06	5.221829e-06	8.988381e-09	3.613927e+01	5.883590e+02
2.130000e-06	5.099329e-06	8.896512e-09	3.529147e+01	5.817015e+02
2.140000e-06	4.975007e-06	8.805208e-09	3.443106e+01	5.749003e+02
2.150000e-06	4.848774e-06	8.702697e-09	3.355742e+01	5.679560e+02
2.160000e-06	4.720810e-06	8.580569e-09	3.267181e+01	5.608602e+02
2.170000e-06	4.591204e-06	8.464128e-09	3.177483e+01	5.535963e+02
2.180000e-06	4.459900e-06	8.347163e-09	3.086610e+01	5.461412e+02
2.190000e-06	4.326882e-06	8.232582e-09	2.994551e+01	5.384678e+02
2.200000e-06	4.192266e-06	8.116441e-09	2.901386e+01	5.305487e+02
2.210000e-06	4.056132e-06	7.996917e-09	2.807171e+01	5.223600e+02
2.220000e-06	3.918448e-06	7.864365e-09	2.711882e+01	5.138838e+02
2.230000e-06	3.779150e-06	7.725711e-09	2.615476e+01	5.051108e+02
2.240000e-06	3.638354e-06	7.589555e-09	2.518035e+01	4.960407e+02
2.250000e-06	3.496145e-06	7.450826e-09	2.419614e+01	4.866811e+02
2.260000e-06	3.352639e-06	7.308807e-09	2.320296e+01	4.770453e+02
2.270000e-06	3.207952e-06	7.164874e-09	2.220161e+01	4.671485e+02
2.280000e-06	3.062037e-06	7.015832e-09	2.119176e+01	4.570037e+02
2.290000e-06	2.914942e-06	6.853676e-09	2.017375e+01	4.466181e+02
2.300000e-06	2.766843e-06	6.686369e-09	1.914879e+01	4.359893e+02
2.310000e-06	2.617812e-06	6.518195e-09	1.811737e+01	4.251038e+02
2.320000e-06	2.467825e-06	6.346547e-09	1.707934e+01	4.139370e+02
2.330000e-06	2.316937e-06	6.169862e-09	1.603507e+01	4.024548e+02
2.340000e-06	2.165262e-06	5.993027e-09	1.498536e+01	3.906170e+02
2.350000e-06	2.012926e-06	5.812110e-09	1.393107e+01	3.783821e+02
2.360000e-06	1.860002e-06	5.619072e-09	1.287272e+01	3.657122e+02
2.370000e-06	1.706455e-06	5.415080e-09	1.181005e+01	3.525773e+02
2.380000e-06	1.552288e-06	5.203512e-09	1.074308e+01	3.389588e+02
2.390000e-06	1.397593e-06	4.986451e-09	9.672471e+00	3.248506e+02
2.400000e-06	1.242417e-06	4.765955e-09	8.598529e+00	3.102580e+02
2.410000e-06	1.086859e-06	4.541454e-09	7.521938e+00	2.951936e+02
2.420000e-06	9.309906e-07	4.309403e-09	6.443205e+00	2.796720e+02
2.430000e-06	7.748298e-07	4.065517e-09	5.362447e+00	2.637025e+02
2.440000e-06	6.183543e-07	3.813353e-09	4.279510e+00	2.472810e+02
2.450000e-06	4.615999e-07	3.554761e-09	3.194644e+00	2.303836e+02
2.460000e-06	3.046644e-07	3.287771e-09	2.108523e+00	2.129619e+02
2.470000e-06	1.475599e-07	3.009756e-09	1.021233e+00	1.949411e+02
2.480000e-06	-9.674657e-09	2.719997e-09	-6.695643e-02	1.762222e+02
2.490000e-06	-1.669350e-07	2.419493e-09	-1.155325e+00	1.566882e+02
2.500000e-06	-3.240841e-07	2.105388e-09	-2.242923e+00	1.362145e+02
2.510000e-06	-4.810664e-07	1.777057e-09	-3.329367e+00	1.146812e+02
2.520000e-06	-6.378841e-07	1.431594e-09	-4.414672e+00	9.198874e+01
2.530000e-06	-7.945354e-07	1.066953e-09	-5.498825e+00	6.807213e+01
2.540000e-06	-9.509405e-07	6.877279e-10	-6.581275e+00	4.291472e+01
2.550000e-06	-1.106996e-06	2.958947e-10	-7.661305e+00	1.655829e+01
2.560000e-06	-1.262710e-06	-1.127177e-10	-8.738968e+00	-1.089137e+01
2.570000e-06	-1.418031e-06	-5.437315e-10	-9.813917e+00	-3.926434e+01
2.580000e-06	-1.572867e-06	-9.930019e-10	-1.088551e+01	-6.833223e+01
2.590000e-06	-1.727098e-06	-1.450470e-09	-1.195291e+01	-9.781934e+01
2.600000e-06	-1.880594e-06	-1.910704e-09	-1.301523e+01	-1.274183e+02
2.610000e-06	-2.033287e-06	-2.368509e-09	-1.407198e+01	-1.568089e+02
2.620000e-06	-2.185169e-06	-2.817006e-09	-1.512313e+01	-1.856778e+02
2.630000e-06	-2.336299e-06	-3.249583e-09	-1.616907e+01	-2.137383e+02
2.640000e-06	-2.486583e-06	-3.661402e-09	-1.720916e+01	-2.407463e+02
2.650000e-06	-2.635846e-06	-4.051969e-09	-1.824218e+01	-2.665138e+02
2.660000e-06	-2.784108e-06	-4.420214e-09	-1.926827e+01	-2.909155e+02
2.670000e-06	-2.931428e-06	-4.764013e-09	-2.028784e+01	-3.138913e+02
2.680000e-06	-3.077693e-06	-5.087453e-09	-2.130012e+01	-3.354418e+02
2.690000e-06	-3.222749e-06	-5.396038e-09	-2.230402e+01	-3.556206e+02
2.700000e-06	-3.366576e-06	-5.690614e-09	-2.329942e+01	-3.745212e+02
2.710000e-06	-3.509123e-06	-5.969578e-09	-2.428596e+01	-3.922639e+02
2.720000e-06	-3.650277e-06	-6.230868e-09	-2.526286e+01	-4.089804e+02
2.730000e-06	-3.790017e-06	-6.476279e-09	-2.622997e+01	-4.248011e+02
2.740000e-06	-3.928329e-06	-6.707983e-09	-2.718720e+01	-4.398436e+02
2.750000e-06	-4.065204e-06	-6.928969e-09	-2.813449e+01	-4.542055e+02
2.760000e-06	-4.200662e-06	-7.143541e-09	-2.907197e+01	-4.679602e+02
2.770000e-06	-4.334617e-06	-7.347160e-09	-2.999905e+01	-4.811568e+02
2.780000e-06	-4.467030e-06	-7.539048e-09	-3.091545e+01	-4.938232e+02
2.790000e-06	-4.597895e-06	-7.723654e-09	-3.182114e+01	-5.059708e+02
2.800000e-06	-4.727209e-06	-7.900677e-09	-3.271610e+01	-5.176011e+02
2.810000e-06	-4.854943e-06	-8.068995e-09	-3.360012e+01	-5.287120e+02
2.820000e-06	-4.980947e-06	-8.229971e-09	-3.447216e+01	-5.393039e+02
2.830000e-06	-5.105181e-06	-8.383584e-09	-3.533196e+01	-5.493833e+02
2.840000e-06	-5.227652e-06	-8.529671e-09	-3.617957e+01	-5.589652e+02
2.850000e-06	-5.348218e-06	-8.668009e-09	-3.701398e+01	-5.680734e+02
2.860000e-06	-5.466702e-06	-8.801506e-09	-3.783398e+01	-5.767389e+02
2.870000e-06	-5.583026e-06	-8.931105e-09	-3.863904e+01	-5.849972e+02
2.880000e-06	-5.697073e-06	-9.053616e-09	-3.942833e+01	-5.928844e+02
2.890000e-06	-5.808798e-06	-9.170153e-09	-4.020157e+01	-6.004344e+02
2.900000e-06	-5.918361e-06	-9.283989e-09	-4.095983e+01	-6.076761e+02
2.910000e-06	-6.025884e-06	-9.395801e-09	-4.170398e+01	-6.146312e+02
2.920000e-06	-6.131309e-06	-9.502682e-09	-4.243360e+01	-6.213143e+02
2.930000e-06	-6.234447e-06	-9.601543e-09	-4.314740e+01	-6.277336e+02
2.940000e-06	-6.335214e-06	-9.690439e-09	-4.384479e+01	-6.338927e+02
