# Temperatura_=_28.53
# Concentracion g/m^3_=_15000.0
# C_Vs_to_Am_M_A/Vsm_=_65563218390.804596
# pendiente_HvsI_1/m_=_3716.3
# ordenada_HvsI_A/m_=_1297.0
# frecuencia_Hz_=_302315.49169572146

Tiempo_(s)	Campo_(V.s)	Magnetizacion_(V.s)	Campo_(kA/m)	Magnetizacion_(A/m)
0.000000e+00	-8.223763e-06	-5.676618e-09	-5.692489e+01	-3.709803e+02
1.000000e-08	-8.221348e-06	-5.676519e-09	-5.690818e+01	-3.708251e+02
2.000000e-08	-8.216173e-06	-5.676038e-09	-5.687236e+01	-3.706116e+02
3.000000e-08	-8.208333e-06	-5.669964e-09	-5.681809e+01	-3.703481e+02
4.000000e-08	-8.197574e-06	-5.664937e-09	-5.674361e+01	-3.700425e+02
5.000000e-08	-8.183841e-06	-5.658970e-09	-5.664856e+01	-3.697017e+02
6.000000e-08	-8.167252e-06	-5.652027e-09	-5.653373e+01	-3.693302e+02
7.000000e-08	-8.148135e-06	-5.643364e-09	-5.640140e+01	-3.689299e+02
8.000000e-08	-8.126681e-06	-5.628529e-09	-5.625289e+01	-3.684996e+02
9.000000e-08	-8.102435e-06	-5.639242e-09	-5.608506e+01	-3.680355e+02
1.000000e-07	-8.074895e-06	-5.677239e-09	-5.589443e+01	-3.675316e+02
1.100000e-07	-8.044117e-06	-5.646736e-09	-5.568139e+01	-3.669806e+02
1.200000e-07	-8.010322e-06	-5.601852e-09	-5.544746e+01	-3.663748e+02
1.300000e-07	-7.973726e-06	-5.585461e-09	-5.519414e+01	-3.657073e+02
1.400000e-07	-7.934698e-06	-5.569429e-09	-5.492398e+01	-3.649727e+02
1.500000e-07	-7.893343e-06	-5.527147e-09	-5.463772e+01	-3.641674e+02
1.600000e-07	-7.849479e-06	-5.530800e-09	-5.433410e+01	-3.632902e+02
1.700000e-07	-7.802832e-06	-5.588451e-09	-5.401121e+01	-3.623418e+02
1.800000e-07	-7.753253e-06	-5.485221e-09	-5.366802e+01	-3.613244e+02
1.900000e-07	-7.700767e-06	-5.500934e-09	-5.330472e+01	-3.602412e+02
2.000000e-07	-7.645321e-06	-5.518874e-09	-5.292092e+01	-3.590956e+02
2.100000e-07	-7.587025e-06	-5.433583e-09	-5.251739e+01	-3.578904e+02
2.200000e-07	-7.526044e-06	-5.446152e-09	-5.209528e+01	-3.566276e+02
2.300000e-07	-7.462387e-06	-5.420716e-09	-5.165465e+01	-3.553076e+02
2.400000e-07	-7.395970e-06	-5.417305e-09	-5.119491e+01	-3.539298e+02
2.500000e-07	-7.326757e-06	-5.374527e-09	-5.071582e+01	-3.524920e+02
2.600000e-07	-7.254752e-06	-5.345714e-09	-5.021740e+01	-3.509917e+02
2.700000e-07	-7.179785e-06	-5.344644e-09	-4.969848e+01	-3.494259e+02
2.800000e-07	-7.101903e-06	-5.303120e-09	-4.915938e+01	-3.477922e+02
2.900000e-07	-7.021272e-06	-5.273860e-09	-4.860125e+01	-3.460885e+02
3.000000e-07	-6.938101e-06	-5.246082e-09	-4.802554e+01	-3.443139e+02
3.100000e-07	-6.852612e-06	-5.244759e-09	-4.743379e+01	-3.424683e+02
3.200000e-07	-6.764712e-06	-5.203504e-09	-4.682534e+01	-3.405523e+02
3.300000e-07	-6.674295e-06	-5.151681e-09	-4.619948e+01	-3.385670e+02
3.400000e-07	-6.581475e-06	-5.139726e-09	-4.555698e+01	-3.365133e+02
3.500000e-07	-6.486279e-06	-5.097008e-09	-4.489803e+01	-3.343917e+02
3.600000e-07	-6.388674e-06	-5.055936e-09	-4.422240e+01	-3.322019e+02
3.700000e-07	-6.288749e-06	-5.027262e-09	-4.353072e+01	-3.299428e+02
3.800000e-07	-6.186552e-06	-5.011810e-09	-4.282332e+01	-3.276121e+02
3.900000e-07	-6.082097e-06	-4.967955e-09	-4.210028e+01	-3.252070e+02
4.000000e-07	-5.975476e-06	-4.912469e-09	-4.136225e+01	-3.227245e+02
4.100000e-07	-5.866837e-06	-4.875752e-09	-4.061025e+01	-3.201617e+02
4.200000e-07	-5.756104e-06	-4.835583e-09	-3.984376e+01	-3.175163e+02
4.300000e-07	-5.643202e-06	-4.795597e-09	-3.906225e+01	-3.147872e+02
4.400000e-07	-5.528129e-06	-4.751126e-09	-3.826572e+01	-3.119739e+02
4.500000e-07	-5.410947e-06	-4.719282e-09	-3.745458e+01	-3.090772e+02
4.600000e-07	-5.291801e-06	-4.674572e-09	-3.662985e+01	-3.060982e+02
4.700000e-07	-5.170775e-06	-4.619355e-09	-3.579211e+01	-3.030379e+02
4.800000e-07	-5.047911e-06	-4.567365e-09	-3.494164e+01	-2.998964e+02
4.900000e-07	-4.923215e-06	-4.519662e-09	-3.407850e+01	-2.966726e+02
5.000000e-07	-4.796718e-06	-4.466547e-09	-3.320289e+01	-2.933631e+02
5.100000e-07	-4.668481e-06	-4.410507e-09	-3.231523e+01	-2.899623e+02
5.200000e-07	-4.538532e-06	-4.360995e-09	-3.141572e+01	-2.864625e+02
5.300000e-07	-4.406861e-06	-4.304881e-09	-3.050430e+01	-2.828542e+02
5.400000e-07	-4.273574e-06	-4.244755e-09	-2.958168e+01	-2.791270e+02
5.500000e-07	-4.138687e-06	-4.183209e-09	-2.864799e+01	-2.752703e+02
5.600000e-07	-4.002143e-06	-4.123908e-09	-2.770284e+01	-2.712747e+02
5.700000e-07	-3.864074e-06	-4.063526e-09	-2.674713e+01	-2.671326e+02
5.800000e-07	-3.724506e-06	-3.999413e-09	-2.578103e+01	-2.628392e+02
5.900000e-07	-3.583334e-06	-3.933025e-09	-2.480384e+01	-2.583925e+02
6.000000e-07	-3.440628e-06	-3.863303e-09	-2.381603e+01	-2.537931e+02
6.100000e-07	-3.296656e-06	-3.790372e-09	-2.281945e+01	-2.490435e+02
6.200000e-07	-3.151480e-06	-3.712920e-09	-2.181455e+01	-2.441474e+02
6.300000e-07	-3.005067e-06	-3.634447e-09	-2.080107e+01	-2.391076e+02
6.400000e-07	-2.857629e-06	-3.556158e-09	-1.978051e+01	-2.339252e+02
6.500000e-07	-2.709290e-06	-3.476757e-09	-1.875371e+01	-2.285981e+02
6.600000e-07	-2.560048e-06	-3.391229e-09	-1.772066e+01	-2.231205e+02
6.700000e-07	-2.409940e-06	-3.301554e-09	-1.668161e+01	-2.174820e+02
6.800000e-07	-2.258988e-06	-3.212218e-09	-1.563672e+01	-2.116687e+02
6.900000e-07	-2.107181e-06	-3.121682e-09	-1.458591e+01	-2.056635e+02
7.000000e-07	-1.954664e-06	-3.027403e-09	-1.353019e+01	-1.994482e+02
7.100000e-07	-1.801525e-06	-2.928308e-09	-1.247016e+01	-1.930044e+02
7.200000e-07	-1.647747e-06	-2.826650e-09	-1.140570e+01	-1.863161e+02
7.300000e-07	-1.493450e-06	-2.719316e-09	-1.033766e+01	-1.793704e+02
7.400000e-07	-1.338720e-06	-2.607369e-09	-9.266622e+00	-1.721585e+02
7.500000e-07	-1.183515e-06	-2.491102e-09	-8.192292e+00	-1.646762e+02
7.600000e-07	-1.027850e-06	-2.373241e-09	-7.114781e+00	-1.569223e+02
7.700000e-07	-8.717944e-07	-2.254683e-09	-6.034562e+00	-1.488977e+02
7.800000e-07	-7.153996e-07	-2.129374e-09	-4.951996e+00	-1.406030e+02
7.900000e-07	-5.587418e-07	-1.997100e-09	-3.867611e+00	-1.320354e+02
8.000000e-07	-4.019040e-07	-1.860183e-09	-2.781980e+00	-1.231873e+02
8.100000e-07	-2.449270e-07	-1.720584e-09	-1.695385e+00	-1.140433e+02
8.200000e-07	-8.784127e-08	-1.575516e-09	-6.080373e-01	-1.045801e+02
8.300000e-07	6.931969e-08	-1.425108e-09	4.798309e-01	-9.476603e+01
8.400000e-07	2.264840e-07	-1.268797e-09	1.567723e+00	-8.456330e+01
8.500000e-07	3.835378e-07	-1.104076e-09	2.654849e+00	-7.393073e+01
8.600000e-07	5.404865e-07	-9.305581e-10	3.741248e+00	-6.282817e+01
8.700000e-07	6.973912e-07	-7.513545e-10	4.827343e+00	-5.122166e+01
8.800000e-07	8.541753e-07	-5.682398e-10	5.912602e+00	-3.908880e+01
8.900000e-07	1.010686e-06	-3.780407e-10	6.995969e+00	-2.642395e+01
9.000000e-07	1.166855e-06	-1.799666e-10	8.076974e+00	-1.324242e+01
9.100000e-07	1.322635e-06	2.352164e-11	9.155278e+00	4.167786e-01
9.200000e-07	1.477891e-06	2.322461e-10	1.022996e+01	1.449010e+01
9.300000e-07	1.632457e-06	4.502162e-10	1.129987e+01	2.889069e+01
9.400000e-07	1.786361e-06	6.756780e-10	1.236519e+01	4.351177e+01
9.500000e-07	1.939654e-06	9.045176e-10	1.342629e+01	5.823183e+01
9.600000e-07	2.092290e-06	1.131350e-09	1.448284e+01	7.292119e+01
9.700000e-07	2.244194e-06	1.352843e-09	1.553432e+01	8.744935e+01
9.800000e-07	2.395224e-06	1.567615e-09	1.657974e+01	1.016924e+02
9.900000e-07	2.545243e-06	1.774087e-09	1.761817e+01	1.155397e+02
1.000000e-06	2.694251e-06	1.972685e-09	1.864961e+01	1.288996e+02
1.010000e-06	2.842251e-06	2.163235e-09	1.967406e+01	1.417025e+02
1.020000e-06	2.989163e-06	2.347190e-09	2.069099e+01	1.539032e+02
1.030000e-06	3.134946e-06	2.522226e-09	2.170010e+01	1.654802e+02
1.040000e-06	3.279599e-06	2.689477e-09	2.270139e+01	1.764331e+02
1.050000e-06	3.423070e-06	2.849772e-09	2.369450e+01	1.867793e+02
1.060000e-06	3.565285e-06	3.000349e-09	2.467890e+01	1.965489e+02
1.070000e-06	3.706148e-06	3.142043e-09	2.565396e+01	2.057798e+02
1.080000e-06	3.845543e-06	3.276000e-09	2.661885e+01	2.145127e+02
1.090000e-06	3.983409e-06	3.403888e-09	2.757316e+01	2.227871e+02
1.100000e-06	4.119816e-06	3.523264e-09	2.851737e+01	2.306383e+02
1.110000e-06	4.254746e-06	3.636659e-09	2.945135e+01	2.380960e+02
1.120000e-06	4.388107e-06	3.745735e-09	3.037448e+01	2.451834e+02
1.130000e-06	4.519920e-06	3.850622e-09	3.128689e+01	2.519188e+02
1.140000e-06	4.650148e-06	3.948848e-09	3.218833e+01	2.583165e+02
1.150000e-06	4.778754e-06	4.038037e-09	3.307854e+01	2.643892e+02
1.160000e-06	4.905655e-06	4.122417e-09	3.395695e+01	2.701502e+02
1.170000e-06	5.030896e-06	4.204259e-09	3.482387e+01	2.756147e+02
1.180000e-06	5.154537e-06	4.282611e-09	3.567971e+01	2.808007e+02
1.190000e-06	5.276361e-06	4.357588e-09	3.652297e+01	2.857296e+02
1.200000e-06	5.396219e-06	4.429772e-09	3.735263e+01	2.904251e+02
1.210000e-06	5.514079e-06	4.499209e-09	3.816846e+01	2.949122e+02
1.220000e-06	5.629814e-06	4.566170e-09	3.896958e+01	2.992150e+02
1.230000e-06	5.743305e-06	4.629743e-09	3.975516e+01	3.033551e+02
1.240000e-06	5.854578e-06	4.690475e-09	4.052540e+01	3.073497e+02
1.250000e-06	5.963819e-06	4.748370e-09	4.128156e+01	3.112107e+02
1.260000e-06	6.071062e-06	4.804032e-09	4.202389e+01	3.149436e+02
1.270000e-06	6.176054e-06	4.858129e-09	4.275065e+01	3.185484e+02
1.280000e-06	6.278687e-06	4.909587e-09	4.346108e+01	3.220201e+02
1.290000e-06	6.379029e-06	4.957868e-09	4.415565e+01	3.253506e+02
1.300000e-06	6.476978e-06	5.003806e-09	4.483364e+01	3.285308e+02
1.310000e-06	6.572489e-06	5.048057e-09	4.549478e+01	3.315521e+02
1.320000e-06	6.665675e-06	5.089224e-09	4.613980e+01	3.344089e+02
1.330000e-06	6.756460e-06	5.126736e-09	4.676822e+01	3.370995e+02
1.340000e-06	6.844758e-06	5.161565e-09	4.737942e+01	3.396269e+02
1.350000e-06	6.930659e-06	5.195431e-09	4.797403e+01	3.419988e+02
1.360000e-06	7.014254e-06	5.229364e-09	4.855267e+01	3.442267e+02
1.370000e-06	7.095373e-06	5.262155e-09	4.911418e+01	3.463250e+02
1.380000e-06	7.173837e-06	5.293005e-09	4.965730e+01	3.483087e+02
1.390000e-06	7.249648e-06	5.321201e-09	5.018207e+01	3.501923e+02
1.400000e-06	7.322719e-06	5.347048e-09	5.068786e+01	3.519880e+02
1.410000e-06	7.393107e-06	5.370915e-09	5.117509e+01	3.537043e+02
1.420000e-06	7.460958e-06	5.393036e-09	5.164476e+01	3.553461e+02
1.430000e-06	7.526173e-06	5.414570e-09	5.209618e+01	3.569141e+02
1.440000e-06	7.588734e-06	5.434175e-09	5.252922e+01	3.584058e+02
1.450000e-06	7.648743e-06	5.452725e-09	5.294461e+01	3.598164e+02
1.460000e-06	7.706072e-06	5.471831e-09	5.334143e+01	3.611402e+02
1.470000e-06	7.760592e-06	5.490472e-09	5.371882e+01	3.623722e+02
1.480000e-06	7.812096e-06	5.507758e-09	5.407533e+01	3.635090e+02
1.490000e-06	7.860398e-06	5.523822e-09	5.440968e+01	3.645496e+02
1.500000e-06	7.905794e-06	5.539512e-09	5.472392e+01	3.654963e+02
1.510000e-06	7.948471e-06	5.554740e-09	5.501933e+01	3.663537e+02
1.520000e-06	7.988255e-06	5.567942e-09	5.529471e+01	3.671288e+02
1.530000e-06	8.025186e-06	5.577792e-09	5.555034e+01	3.678295e+02
1.540000e-06	8.059344e-06	5.585304e-09	5.578678e+01	3.684639e+02
1.550000e-06	8.090616e-06	5.593656e-09	5.600325e+01	3.690387e+02
1.560000e-06	8.119051e-06	5.603186e-09	5.620008e+01	3.695586e+02
1.570000e-06	8.144533e-06	5.611707e-09	5.637646e+01	3.700256e+02
1.580000e-06	8.166984e-06	5.618677e-09	5.653187e+01	3.704392e+02
1.590000e-06	8.186606e-06	5.626097e-09	5.666769e+01	3.707964e+02
1.600000e-06	8.203329e-06	5.633718e-09	5.678345e+01	3.710924e+02
1.610000e-06	8.216979e-06	5.638770e-09	5.687793e+01	3.713223e+02
1.620000e-06	8.227399e-06	5.641106e-09	5.695006e+01	3.714813e+02
1.630000e-06	8.234675e-06	5.641112e-09	5.700043e+01	3.715665e+02
1.640000e-06	8.239088e-06	5.641224e-09	5.703097e+01	3.715770e+02
1.650000e-06	8.240609e-06	5.643121e-09	5.704150e+01	3.715148e+02
1.660000e-06	8.239243e-06	5.645924e-09	5.703205e+01	3.713845e+02
1.670000e-06	8.235135e-06	5.640700e-09	5.700361e+01	3.711929e+02
1.680000e-06	8.228233e-06	5.637497e-09	5.695583e+01	3.709479e+02
1.690000e-06	8.218581e-06	5.634828e-09	5.688902e+01	3.706578e+02
1.700000e-06	8.206140e-06	5.632160e-09	5.680291e+01	3.703300e+02
1.710000e-06	8.190801e-06	5.631626e-09	5.669673e+01	3.699700e+02
1.720000e-06	8.172859e-06	5.633703e-09	5.657254e+01	3.695809e+02
1.730000e-06	8.152529e-06	5.633794e-09	5.643181e+01	3.691626e+02
1.740000e-06	8.129464e-06	5.581929e-09	5.627216e+01	3.687123e+02
1.750000e-06	8.102888e-06	5.532822e-09	5.608820e+01	3.682247e+02
1.760000e-06	8.072452e-06	5.564138e-09	5.587752e+01	3.676930e+02
1.770000e-06	8.038796e-06	5.575053e-09	5.564455e+01	3.671094e+02
1.780000e-06	8.002727e-06	5.567368e-09	5.539488e+01	3.664668e+02
1.790000e-06	7.964358e-06	5.604718e-09	5.512929e+01	3.657590e+02
1.800000e-06	7.923867e-06	5.619210e-09	5.484901e+01	3.649816e+02
1.810000e-06	7.881260e-06	5.499384e-09	5.455409e+01	3.641326e+02
1.820000e-06	7.835837e-06	5.539530e-09	5.423967e+01	3.632118e+02
1.830000e-06	7.787569e-06	5.550393e-09	5.390556e+01	3.622210e+02
1.840000e-06	7.736405e-06	5.483471e-09	5.355140e+01	3.611631e+02
1.850000e-06	7.682071e-06	5.535164e-09	5.317530e+01	3.600415e+02
1.860000e-06	7.624922e-06	5.447010e-09	5.277972e+01	3.588594e+02
1.870000e-06	7.565025e-06	5.482997e-09	5.236511e+01	3.576189e+02
1.880000e-06	7.502350e-06	5.444050e-09	5.193127e+01	3.563213e+02
1.890000e-06	7.436929e-06	5.400777e-09	5.147843e+01	3.549662e+02
1.900000e-06	7.368615e-06	5.448255e-09	5.100556e+01	3.535522e+02
1.910000e-06	7.297353e-06	5.340254e-09	5.051228e+01	3.520766e+02
1.920000e-06	7.223178e-06	5.356117e-09	4.999884e+01	3.505368e+02
1.930000e-06	7.146242e-06	5.339260e-09	4.946629e+01	3.489299e+02
1.940000e-06	7.066560e-06	5.322448e-09	4.891473e+01	3.472538e+02
1.950000e-06	6.984255e-06	5.278040e-09	4.834502e+01	3.455070e+02
1.960000e-06	6.899484e-06	5.210596e-09	4.775824e+01	3.436891e+02
1.970000e-06	6.812092e-06	5.239355e-09	4.715330e+01	3.418005e+02
1.980000e-06	6.722158e-06	5.172738e-09	4.653079e+01	3.398422e+02
1.990000e-06	6.629897e-06	5.175179e-09	4.589216e+01	3.378151e+02
2.000000e-06	6.535324e-06	5.152378e-09	4.523752e+01	3.357200e+02
2.010000e-06	6.438428e-06	5.110873e-09	4.456681e+01	3.335570e+02
2.020000e-06	6.339231e-06	5.053114e-09	4.388016e+01	3.313252e+02
2.030000e-06	6.237692e-06	5.006621e-09	4.317731e+01	3.290228e+02
2.040000e-06	6.133867e-06	4.999998e-09	4.245863e+01	3.266472e+02
2.050000e-06	6.027861e-06	4.950973e-09	4.172486e+01	3.241953e+02
2.060000e-06	5.919832e-06	4.919037e-09	4.097708e+01	3.216643e+02
2.070000e-06	5.809841e-06	4.869977e-09	4.021572e+01	3.190514e+02
2.080000e-06	5.697722e-06	4.839721e-09	3.943963e+01	3.163551e+02
2.090000e-06	5.583379e-06	4.785007e-09	3.864815e+01	3.135747e+02
2.100000e-06	5.466852e-06	4.745058e-09	3.784156e+01	3.107106e+02
2.110000e-06	5.348286e-06	4.705106e-09	3.702084e+01	3.077636e+02
2.120000e-06	5.227725e-06	4.656090e-09	3.618632e+01	3.047350e+02
2.130000e-06	5.105307e-06	4.606800e-09	3.533894e+01	3.016254e+02
2.140000e-06	4.981120e-06	4.563896e-09	3.447932e+01	2.984341e+02
2.150000e-06	4.855082e-06	4.522479e-09	3.360688e+01	2.951586e+02
2.160000e-06	4.727249e-06	4.461063e-09	3.272202e+01	2.917944e+02
2.170000e-06	4.597704e-06	4.406351e-09	3.182531e+01	2.883344e+02
2.180000e-06	4.466478e-06	4.348735e-09	3.091697e+01	2.847698e+02
2.190000e-06	4.333578e-06	4.300926e-09	2.999703e+01	2.810905e+02
2.200000e-06	4.199078e-06	4.244340e-09	2.906602e+01	2.772857e+02
2.210000e-06	4.063030e-06	4.187404e-09	2.812430e+01	2.733456e+02
2.220000e-06	3.925406e-06	4.118742e-09	2.717166e+01	2.692617e+02
2.230000e-06	3.786176e-06	4.050728e-09	2.620791e+01	2.650280e+02
2.240000e-06	3.645491e-06	3.984347e-09	2.523409e+01	2.606414e+02
2.250000e-06	3.503412e-06	3.920778e-09	2.425062e+01	2.561016e+02
2.260000e-06	3.359972e-06	3.854613e-09	2.325773e+01	2.514106e+02
2.270000e-06	3.215301e-06	3.780783e-09	2.225631e+01	2.465715e+02
2.280000e-06	3.069443e-06	3.700839e-09	2.124669e+01	2.415877e+02
2.290000e-06	2.922429e-06	3.615732e-09	2.022905e+01	2.364613e+02
2.300000e-06	2.774316e-06	3.537208e-09	1.920382e+01	2.311914e+02
2.310000e-06	2.625272e-06	3.459290e-09	1.817213e+01	2.257738e+02
2.320000e-06	2.475405e-06	3.379131e-09	1.713475e+01	2.201998e+02
2.330000e-06	2.324736e-06	3.291093e-09	1.609182e+01	2.144569e+02
2.340000e-06	2.173291e-06	3.201354e-09	1.504352e+01	2.085292e+02
2.350000e-06	2.021073e-06	3.111114e-09	1.398987e+01	2.023985e+02
2.360000e-06	1.868137e-06	3.015963e-09	1.293124e+01	1.960464e+02
2.370000e-06	1.714604e-06	2.914623e-09	1.186849e+01	1.894558e+02
2.380000e-06	1.560550e-06	2.808097e-09	1.080213e+01	1.826123e+02
2.390000e-06	1.405949e-06	2.699812e-09	9.731983e+00	1.755057e+02
2.400000e-06	1.250852e-06	2.589600e-09	8.658396e+00	1.681297e+02
2.410000e-06	1.095339e-06	2.475791e-09	7.581935e+00	1.604824e+02
2.420000e-06	9.394000e-07	2.357563e-09	6.502528e+00	1.525639e+02
2.430000e-06	7.830772e-07	2.230947e-09	5.420461e+00	1.443752e+02
2.440000e-06	6.264711e-07	2.099945e-09	4.336433e+00	1.359153e+02
2.450000e-06	4.696834e-07	1.966147e-09	3.251149e+00	1.271787e+02
2.460000e-06	3.127182e-07	1.832243e-09	2.164635e+00	1.181531e+02
2.470000e-06	1.556085e-07	1.693297e-09	1.077122e+00	1.088185e+02
2.480000e-06	-1.590576e-09	1.543535e-09	-1.100997e-02	9.914638e+01
2.490000e-06	-1.588342e-07	1.388537e-09	-1.099450e+00	8.910103e+01
2.500000e-06	-3.160282e-07	1.229696e-09	-2.187548e+00	7.864215e+01
2.510000e-06	-4.731370e-07	1.066213e-09	-3.275055e+00	6.772861e+01
2.520000e-06	-6.300964e-07	8.935250e-10	-4.361528e+00	5.632339e+01
2.530000e-06	-7.868384e-07	7.106054e-10	-5.446496e+00	4.439889e+01
2.540000e-06	-9.433197e-07	5.192671e-10	-6.529660e+00	3.194232e+01
2.550000e-06	-1.099438e-06	3.206294e-10	-7.610312e+00	1.896035e+01
2.560000e-06	-1.255172e-06	1.153541e-10	-8.688304e+00	5.482454e+00
2.570000e-06	-1.410431e-06	-9.851248e-11	-9.763006e+00	-8.437422e+00
2.580000e-06	-1.565110e-06	-3.176669e-10	-1.083369e+01	-2.272130e+01
2.590000e-06	-1.719226e-06	-5.388439e-10	-1.190049e+01	-3.726970e+01
2.600000e-06	-1.872718e-06	-7.633100e-10	-1.296296e+01	-5.196617e+01
2.610000e-06	-2.025470e-06	-9.913378e-10	-1.402030e+01	-6.668340e+01
2.620000e-06	-2.177381e-06	-1.219680e-09	-1.507183e+01	-8.129032e+01
2.630000e-06	-2.328414e-06	-1.444650e-09	-1.611729e+01	-9.565956e+01
2.640000e-06	-2.478532e-06	-1.664173e-09	-1.715640e+01	-1.096746e+02
2.650000e-06	-2.627811e-06	-1.875074e-09	-1.818971e+01	-1.232356e+02
2.660000e-06	-2.776207e-06	-2.074675e-09	-1.921691e+01	-1.362642e+02
2.670000e-06	-2.923531e-06	-2.260470e-09	-2.023668e+01	-1.487055e+02
2.680000e-06	-3.069732e-06	-2.435636e-09	-2.124869e+01	-1.605288e+02
2.690000e-06	-3.214748e-06	-2.604985e-09	-2.225249e+01	-1.717258e+02
2.700000e-06	-3.358581e-06	-2.766680e-09	-2.324810e+01	-1.823075e+02
2.710000e-06	-3.501176e-06	-2.920227e-09	-2.423514e+01	-1.922995e+02
2.720000e-06	-3.642394e-06	-3.066621e-09	-2.521266e+01	-2.017374e+02
2.730000e-06	-3.782158e-06	-3.206382e-09	-2.618010e+01	-2.106612e+02
2.740000e-06	-3.920490e-06	-3.336301e-09	-2.713764e+01	-2.191113e+02
2.750000e-06	-4.057406e-06	-3.458656e-09	-2.808537e+01	-2.271251e+02
2.760000e-06	-4.192812e-06	-3.577327e-09	-2.902265e+01	-2.347343e+02
2.770000e-06	-4.326739e-06	-3.687617e-09	-2.994969e+01	-2.419649e+02
2.780000e-06	-4.459177e-06	-3.789215e-09	-3.086643e+01	-2.488369e+02
2.790000e-06	-4.590085e-06	-3.886543e-09	-3.177257e+01	-2.553658e+02
2.800000e-06	-4.719516e-06	-3.981219e-09	-3.266849e+01	-2.615648e+02
2.810000e-06	-4.847310e-06	-4.071405e-09	-3.355308e+01	-2.674468e+02
2.820000e-06	-4.973364e-06	-4.157308e-09	-3.442563e+01	-2.730258e+02
2.830000e-06	-5.097670e-06	-4.239715e-09	-3.528608e+01	-2.783190e+02
2.840000e-06	-5.220138e-06	-4.317874e-09	-3.613380e+01	-2.833463e+02
2.850000e-06	-5.340743e-06	-4.391088e-09	-3.696863e+01	-2.881307e+02
2.860000e-06	-5.459386e-06	-4.460718e-09	-3.778988e+01	-2.926968e+02
2.870000e-06	-5.575867e-06	-4.528066e-09	-3.859616e+01	-2.970694e+02
2.880000e-06	-5.690015e-06	-4.591774e-09	-3.938629e+01	-3.012712e+02
2.890000e-06	-5.801860e-06	-4.651675e-09	-4.016048e+01	-3.053214e+02
2.900000e-06	-5.911562e-06	-4.711320e-09	-4.091984e+01	-3.092340e+02
2.910000e-06	-6.019237e-06	-4.772478e-09	-4.166516e+01	-3.130170e+02
2.920000e-06	-6.124807e-06	-4.832154e-09	-4.239592e+01	-3.166726e+02
2.930000e-06	-6.228061e-06	-4.888123e-09	-4.311064e+01	-3.201976e+02
2.940000e-06	-6.328953e-06	-4.939599e-09	-4.380902e+01	-3.235848e+02
