# Temperatura_=_46.65
# Concentracion g/m^3_=_15000.0
# C_Vs_to_Am_M_A/Vsm_=_65563218390.804596
# pendiente_HvsI_1/m_=_3716.3
# ordenada_HvsI_A/m_=_1297.0
# frecuencia_Hz_=_302364.95788850595

Tiempo_(s)	Campo_(V.s)	Magnetizacion_(V.s)	Campo_(kA/m)	Magnetizacion_(A/m)
0.000000e+00	-8.193506e-06	-9.108948e-09	-5.689603e+01	-5.957870e+02
1.000000e-08	-8.188859e-06	-9.108265e-09	-5.686377e+01	-5.955021e+02
2.000000e-08	-8.181589e-06	-9.103005e-09	-5.681328e+01	-5.951307e+02
3.000000e-08	-8.171485e-06	-9.096448e-09	-5.674312e+01	-5.946816e+02
4.000000e-08	-8.158448e-06	-9.086784e-09	-5.665259e+01	-5.941634e+02
5.000000e-08	-8.142486e-06	-9.075584e-09	-5.654175e+01	-5.935832e+02
6.000000e-08	-8.123891e-06	-9.063591e-09	-5.641263e+01	-5.929460e+02
7.000000e-08	-8.102983e-06	-9.048779e-09	-5.626744e+01	-5.922546e+02
8.000000e-08	-8.079442e-06	-9.064609e-09	-5.610397e+01	-5.915091e+02
9.000000e-08	-8.052730e-06	-9.091113e-09	-5.591848e+01	-5.907075e+02
1.000000e-07	-8.022756e-06	-9.048366e-09	-5.571034e+01	-5.898465e+02
1.100000e-07	-7.989772e-06	-9.003540e-09	-5.548130e+01	-5.889217e+02
1.200000e-07	-7.953956e-06	-8.983174e-09	-5.523259e+01	-5.879284e+02
1.300000e-07	-7.915540e-06	-8.963957e-09	-5.496583e+01	-5.868622e+02
1.400000e-07	-7.874668e-06	-8.927683e-09	-5.468201e+01	-5.857189e+02
1.500000e-07	-7.831386e-06	-8.898163e-09	-5.438146e+01	-5.844950e+02
1.600000e-07	-7.785532e-06	-8.941425e-09	-5.406305e+01	-5.831869e+02
1.700000e-07	-7.736791e-06	-8.844768e-09	-5.372459e+01	-5.817913e+02
1.800000e-07	-7.685129e-06	-8.833383e-09	-5.336584e+01	-5.803039e+02
1.900000e-07	-7.630594e-06	-8.871483e-09	-5.298715e+01	-5.787201e+02
2.000000e-07	-7.573185e-06	-8.775475e-09	-5.258850e+01	-5.770342e+02
2.100000e-07	-7.513055e-06	-8.771968e-09	-5.217096e+01	-5.752402e+02
2.200000e-07	-7.450287e-06	-8.739752e-09	-5.173509e+01	-5.733314e+02
2.300000e-07	-7.384732e-06	-8.709145e-09	-5.127987e+01	-5.713020e+02
2.400000e-07	-7.316362e-06	-8.666620e-09	-5.080511e+01	-5.691470e+02
2.500000e-07	-7.245219e-06	-8.628415e-09	-5.031110e+01	-5.668634e+02
2.600000e-07	-7.171147e-06	-8.602234e-09	-4.979673e+01	-5.644507e+02
2.700000e-07	-7.094182e-06	-8.543404e-09	-4.926229e+01	-5.619110e+02
2.800000e-07	-7.014442e-06	-8.502495e-09	-4.870857e+01	-5.592486e+02
2.900000e-07	-6.932050e-06	-8.455691e-09	-4.813643e+01	-5.564703e+02
3.000000e-07	-6.847310e-06	-8.439662e-09	-4.754799e+01	-5.535835e+02
3.100000e-07	-6.760195e-06	-8.397068e-09	-4.694307e+01	-5.505958e+02
3.200000e-07	-6.670527e-06	-8.326774e-09	-4.632041e+01	-5.475135e+02
3.300000e-07	-6.578453e-06	-8.298065e-09	-4.568104e+01	-5.443405e+02
3.400000e-07	-6.484074e-06	-8.253266e-09	-4.502567e+01	-5.410776e+02
3.500000e-07	-6.387334e-06	-8.189736e-09	-4.435391e+01	-5.377218e+02
3.600000e-07	-6.288238e-06	-8.125297e-09	-4.366578e+01	-5.342670e+02
3.700000e-07	-6.186848e-06	-8.078941e-09	-4.296172e+01	-5.307040e+02
3.800000e-07	-6.083195e-06	-8.025058e-09	-4.224195e+01	-5.270219e+02
3.900000e-07	-5.977339e-06	-7.962034e-09	-4.150688e+01	-5.232094e+02
4.000000e-07	-5.869450e-06	-7.912093e-09	-4.075770e+01	-5.192561e+02
4.100000e-07	-5.759548e-06	-7.850256e-09	-3.999453e+01	-5.151534e+02
4.200000e-07	-5.647539e-06	-7.781359e-09	-3.921674e+01	-5.108959e+02
4.300000e-07	-5.533412e-06	-7.699149e-09	-3.842424e+01	-5.064810e+02
4.400000e-07	-5.417106e-06	-7.630115e-09	-3.761660e+01	-5.019093e+02
4.500000e-07	-5.298708e-06	-7.565790e-09	-3.679444e+01	-4.971832e+02
4.600000e-07	-5.178386e-06	-7.491024e-09	-3.595892e+01	-4.923059e+02
4.700000e-07	-5.056260e-06	-7.413022e-09	-3.511088e+01	-4.872800e+02
4.800000e-07	-4.932348e-06	-7.337996e-09	-3.425043e+01	-4.821060e+02
4.900000e-07	-4.806629e-06	-7.259987e-09	-3.337743e+01	-4.767811e+02
5.000000e-07	-4.679198e-06	-7.169810e-09	-3.249254e+01	-4.712988e+02
5.100000e-07	-4.550120e-06	-7.081270e-09	-3.159622e+01	-4.656487e+02
5.200000e-07	-4.419296e-06	-6.993040e-09	-3.068777e+01	-4.598177e+02
5.300000e-07	-4.286766e-06	-6.902364e-09	-2.976748e+01	-4.537905e+02
5.400000e-07	-4.152701e-06	-6.803601e-09	-2.883652e+01	-4.475523e+02
5.500000e-07	-4.017022e-06	-6.702855e-09	-2.789436e+01	-4.410896e+02
5.600000e-07	-3.879779e-06	-6.600268e-09	-2.694134e+01	-4.343926e+02
5.700000e-07	-3.741018e-06	-6.490953e-09	-2.597778e+01	-4.274557e+02
5.800000e-07	-3.600623e-06	-6.379764e-09	-2.500287e+01	-4.202781e+02
5.900000e-07	-3.458667e-06	-6.269795e-09	-2.401712e+01	-4.128634e+02
6.000000e-07	-3.315404e-06	-6.158576e-09	-2.302230e+01	-4.052178e+02
6.100000e-07	-3.170957e-06	-6.038065e-09	-2.201925e+01	-3.973483e+02
6.200000e-07	-3.025283e-06	-5.912909e-09	-2.100769e+01	-3.892606e+02
6.300000e-07	-2.878506e-06	-5.784820e-09	-1.998846e+01	-3.809557e+02
6.400000e-07	-2.730791e-06	-5.653920e-09	-1.896272e+01	-3.724289e+02
6.500000e-07	-2.582171e-06	-5.518635e-09	-1.793070e+01	-3.636677e+02
6.600000e-07	-2.432796e-06	-5.380379e-09	-1.689343e+01	-3.546521e+02
6.700000e-07	-2.282604e-06	-5.237877e-09	-1.585050e+01	-3.453553e+02
6.800000e-07	-2.131456e-06	-5.087925e-09	-1.480092e+01	-3.357459e+02
6.900000e-07	-1.979521e-06	-4.936023e-09	-1.374587e+01	-3.257906e+02
7.000000e-07	-1.826948e-06	-4.777492e-09	-1.268640e+01	-3.154580e+02
7.100000e-07	-1.673774e-06	-4.612112e-09	-1.162275e+01	-3.047212e+02
7.200000e-07	-1.520043e-06	-4.440552e-09	-1.055524e+01	-2.935612e+02
7.300000e-07	-1.365856e-06	-4.266094e-09	-9.484560e+00	-2.819677e+02
7.400000e-07	-1.211236e-06	-4.086032e-09	-8.410873e+00	-2.699395e+02
7.500000e-07	-1.056122e-06	-3.897717e-09	-7.333751e+00	-2.574824e+02
7.600000e-07	-9.005445e-07	-3.703973e-09	-6.253417e+00	-2.446060e+02
7.700000e-07	-7.445619e-07	-3.501090e-09	-5.170268e+00	-2.313192e+02
7.800000e-07	-5.882595e-07	-3.290505e-09	-4.084897e+00	-2.176248e+02
7.900000e-07	-4.317414e-07	-3.075204e-09	-2.998030e+00	-2.035143e+02
8.000000e-07	-2.750840e-07	-2.856418e-09	-1.910194e+00	-1.889640e+02
8.100000e-07	-1.183590e-07	-2.627809e-09	-8.218897e-01	-1.739327e+02
8.200000e-07	3.842318e-08	-2.386696e-09	2.668121e-01	-1.583610e+02
8.300000e-07	1.952388e-07	-2.137182e-09	1.355746e+00	-1.421750e+02
8.400000e-07	3.520381e-07	-1.878997e-09	2.444567e+00	-1.252911e+02
8.500000e-07	5.087905e-07	-1.609674e-09	3.533062e+00	-1.076242e+02
8.600000e-07	6.654526e-07	-1.328475e-09	4.620929e+00	-8.909786e+01
8.700000e-07	8.218831e-07	-1.035873e-09	5.707189e+00	-6.965432e+01
8.800000e-07	9.779912e-07	-7.292616e-10	6.791210e+00	-4.926535e+01
8.900000e-07	1.133745e-06	-4.078827e-10	7.872772e+00	-2.794079e+01
9.000000e-07	1.288979e-06	-7.301970e-11	8.950721e+00	-5.734811e+00
9.100000e-07	1.443698e-06	2.731047e-10	1.002510e+01	1.725145e+01
9.200000e-07	1.597940e-06	6.327558e-10	1.109616e+01	4.087116e+01
9.300000e-07	1.751566e-06	1.004790e-09	1.216294e+01	6.493723e+01
9.400000e-07	1.904504e-06	1.380364e-09	1.322495e+01	8.923150e+01
9.500000e-07	2.056790e-06	1.754698e-09	1.428243e+01	1.135168e+02
9.600000e-07	2.208361e-06	2.124960e-09	1.533495e+01	1.375511e+02
9.700000e-07	2.358961e-06	2.486435e-09	1.638072e+01	1.611017e+02
9.800000e-07	2.508576e-06	2.833601e-09	1.741965e+01	1.839594e+02
9.900000e-07	2.657356e-06	3.164604e-09	1.845279e+01	2.059493e+02
1.000000e-06	2.805194e-06	3.479323e-09	1.947938e+01	2.269398e+02
1.010000e-06	2.951942e-06	3.776357e-09	2.049840e+01	2.468469e+02
1.020000e-06	3.097559e-06	4.055981e-09	2.150957e+01	2.656339e+02
1.030000e-06	3.242075e-06	4.320775e-09	2.251310e+01	2.833089e+02
1.040000e-06	3.385410e-06	4.573950e-09	2.350842e+01	2.999167e+02
1.050000e-06	3.527470e-06	4.815517e-09	2.449489e+01	3.155304e+02
1.060000e-06	3.668204e-06	5.042707e-09	2.547216e+01	3.302402e+02
1.070000e-06	3.807458e-06	5.255990e-09	2.643914e+01	3.441427e+02
1.080000e-06	3.945230e-06	5.457723e-09	2.739584e+01	3.573316e+02
1.090000e-06	4.081575e-06	5.647943e-09	2.834262e+01	3.698897e+02
1.100000e-06	4.216313e-06	5.829288e-09	2.927825e+01	3.818837e+02
1.110000e-06	4.349508e-06	6.002640e-09	3.020316e+01	3.933620e+02
1.120000e-06	4.481274e-06	6.167133e-09	3.111815e+01	4.043549e+02
1.130000e-06	4.611485e-06	6.324680e-09	3.202234e+01	4.148773e+02
1.140000e-06	4.740101e-06	6.476793e-09	3.291545e+01	4.249326e+02
1.150000e-06	4.867006e-06	6.623655e-09	3.379668e+01	4.345185e+02
1.160000e-06	4.992212e-06	6.762324e-09	3.466612e+01	4.436313e+02
1.170000e-06	5.115763e-06	6.893517e-09	3.552407e+01	4.522712e+02
1.180000e-06	5.237532e-06	7.019526e-09	3.636963e+01	4.604446e+02
1.190000e-06	5.357377e-06	7.139364e-09	3.720184e+01	4.681667e+02
1.200000e-06	5.475255e-06	7.250623e-09	3.802039e+01	4.754609e+02
1.210000e-06	5.591027e-06	7.354233e-09	3.882432e+01	4.823578e+02
1.220000e-06	5.704567e-06	7.453222e-09	3.961275e+01	4.888928e+02
1.230000e-06	5.815922e-06	7.549608e-09	4.038600e+01	4.951031e+02
1.240000e-06	5.925217e-06	7.641240e-09	4.114495e+01	5.010245e+02
1.250000e-06	6.032473e-06	7.728226e-09	4.188973e+01	5.066889e+02
1.260000e-06	6.137490e-06	7.812659e-09	4.261898e+01	5.121225e+02
1.270000e-06	6.240218e-06	7.890675e-09	4.333233e+01	5.173446e+02
1.280000e-06	6.340679e-06	7.963488e-09	4.402993e+01	5.223681e+02
1.290000e-06	6.438730e-06	8.035525e-09	4.471080e+01	5.272000e+02
1.300000e-06	6.534362e-06	8.107392e-09	4.537487e+01	5.318431e+02
1.310000e-06	6.627714e-06	8.176559e-09	4.602311e+01	5.362980e+02
1.320000e-06	6.718756e-06	8.241060e-09	4.665531e+01	5.405648e+02
1.330000e-06	6.807343e-06	8.301676e-09	4.727046e+01	5.446446e+02
1.340000e-06	6.893486e-06	8.359163e-09	4.786864e+01	5.485404e+02
1.350000e-06	6.977290e-06	8.414250e-09	4.845058e+01	5.522570e+02
1.360000e-06	7.058565e-06	8.466705e-09	4.901496e+01	5.558013e+02
1.370000e-06	7.137225e-06	8.518356e-09	4.956117e+01	5.591809e+02
1.380000e-06	7.213293e-06	8.571018e-09	5.008939e+01	5.624029e+02
1.390000e-06	7.286595e-06	8.621077e-09	5.059841e+01	5.654733e+02
1.400000e-06	7.357226e-06	8.665197e-09	5.108887e+01	5.683956e+02
1.410000e-06	7.425321e-06	8.704584e-09	5.156173e+01	5.711705e+02
1.420000e-06	7.490749e-06	8.740590e-09	5.201606e+01	5.737960e+02
1.430000e-06	7.553551e-06	8.775126e-09	5.245217e+01	5.762681e+02
1.440000e-06	7.613898e-06	8.808575e-09	5.287121e+01	5.785814e+02
1.450000e-06	7.671598e-06	8.838586e-09	5.327188e+01	5.807311e+02
1.460000e-06	7.726521e-06	8.866025e-09	5.365328e+01	5.827137e+02
1.470000e-06	7.778428e-06	8.892299e-09	5.401372e+01	5.845285e+02
1.480000e-06	7.827083e-06	8.918750e-09	5.435158e+01	5.861784e+02
1.490000e-06	7.872831e-06	8.943950e-09	5.466925e+01	5.876698e+02
1.500000e-06	7.915865e-06	8.965781e-09	5.496809e+01	5.890126e+02
1.510000e-06	7.956035e-06	8.984112e-09	5.524703e+01	5.902194e+02
1.520000e-06	7.993414e-06	8.998840e-09	5.550659e+01	5.913037e+02
1.530000e-06	8.028034e-06	9.011680e-09	5.574699e+01	5.922791e+02
1.540000e-06	8.059706e-06	9.023584e-09	5.596693e+01	5.931575e+02
1.550000e-06	8.088546e-06	9.034933e-09	5.616719e+01	5.939478e+02
1.560000e-06	8.114550e-06	9.045689e-09	5.634776e+01	5.946557e+02
1.570000e-06	8.137514e-06	9.056543e-09	5.650723e+01	5.952827e+02
1.580000e-06	8.157580e-06	9.067510e-09	5.664656e+01	5.958271e+02
1.590000e-06	8.174772e-06	9.076616e-09	5.676595e+01	5.962844e+02
1.600000e-06	8.188931e-06	9.083145e-09	5.686427e+01	5.966488e+02
1.610000e-06	8.199894e-06	9.086817e-09	5.694039e+01	5.969143e+02
1.620000e-06	8.207627e-06	9.088945e-09	5.699409e+01	5.970760e+02
1.630000e-06	8.212485e-06	9.090430e-09	5.702783e+01	5.971310e+02
1.640000e-06	8.214454e-06	9.090658e-09	5.704150e+01	5.970797e+02
1.650000e-06	8.213487e-06	9.089923e-09	5.703478e+01	5.969250e+02
1.660000e-06	8.209874e-06	9.083721e-09	5.700969e+01	5.966728e+02
1.670000e-06	8.203526e-06	9.082063e-09	5.696561e+01	5.963309e+02
1.680000e-06	8.194380e-06	9.078918e-09	5.690211e+01	5.959082e+02
1.690000e-06	8.182428e-06	9.072398e-09	5.681911e+01	5.954134e+02
1.700000e-06	8.167602e-06	9.066305e-09	5.671616e+01	5.948543e+02
1.710000e-06	8.150159e-06	9.058836e-09	5.659503e+01	5.942367e+02
1.720000e-06	8.130362e-06	9.052383e-09	5.645756e+01	5.935642e+02
1.730000e-06	8.107985e-06	8.995665e-09	5.630217e+01	5.928377e+02
1.740000e-06	8.082314e-06	8.955525e-09	5.612391e+01	5.920561e+02
1.750000e-06	8.052786e-06	8.985852e-09	5.591887e+01	5.912165e+02
1.760000e-06	8.019783e-06	8.985254e-09	5.568970e+01	5.903147e+02
1.770000e-06	7.984275e-06	8.965809e-09	5.544313e+01	5.893460e+02
1.780000e-06	7.946467e-06	8.978936e-09	5.518059e+01	5.883060e+02
1.790000e-06	7.906342e-06	9.002913e-09	5.490196e+01	5.871903e+02
1.800000e-06	7.864207e-06	8.881037e-09	5.460937e+01	5.859952e+02
1.810000e-06	7.819570e-06	8.897604e-09	5.429941e+01	5.847172e+02
1.820000e-06	7.772054e-06	8.929436e-09	5.396945e+01	5.833529e+02
1.830000e-06	7.721746e-06	8.829044e-09	5.362012e+01	5.818985e+02
1.840000e-06	7.668260e-06	8.880866e-09	5.324871e+01	5.803493e+02
1.850000e-06	7.611828e-06	8.794352e-09	5.285684e+01	5.787003e+02
1.860000e-06	7.552727e-06	8.778791e-09	5.244644e+01	5.769452e+02
1.870000e-06	7.490793e-06	8.771849e-09	5.201637e+01	5.750778e+02
1.880000e-06	7.426122e-06	8.718947e-09	5.156729e+01	5.730917e+02
1.890000e-06	7.358608e-06	8.753286e-09	5.109847e+01	5.709817e+02
1.900000e-06	7.288147e-06	8.649810e-09	5.060919e+01	5.687439e+02
1.910000e-06	7.214767e-06	8.627490e-09	5.009963e+01	5.663769e+02
1.920000e-06	7.138638e-06	8.585192e-09	4.957099e+01	5.638817e+02
1.930000e-06	7.059769e-06	8.559183e-09	4.902332e+01	5.612622e+02
1.940000e-06	6.978234e-06	8.541042e-09	4.845714e+01	5.585241e+02
1.950000e-06	6.894304e-06	8.455467e-09	4.787432e+01	5.556748e+02
1.960000e-06	6.807744e-06	8.454342e-09	4.727325e+01	5.527219e+02
1.970000e-06	6.718539e-06	8.375395e-09	4.665380e+01	5.496725e+02
1.980000e-06	6.626937e-06	8.324748e-09	4.601772e+01	5.465313e+02
1.990000e-06	6.533090e-06	8.286305e-09	4.536604e+01	5.433002e+02
2.000000e-06	6.436957e-06	8.244842e-09	4.469849e+01	5.399778e+02
2.010000e-06	6.338458e-06	8.188385e-09	4.401451e+01	5.365589e+02
2.020000e-06	6.237753e-06	8.113739e-09	4.331521e+01	5.330354e+02
2.030000e-06	6.134706e-06	8.071616e-09	4.259965e+01	5.293968e+02
2.040000e-06	6.029455e-06	8.009884e-09	4.186878e+01	5.256318e+02
2.050000e-06	5.922176e-06	7.955716e-09	4.112383e+01	5.217295e+02
2.060000e-06	5.812865e-06	7.884952e-09	4.036477e+01	5.176806e+02
2.070000e-06	5.701526e-06	7.836084e-09	3.959163e+01	5.134785e+02
2.080000e-06	5.588007e-06	7.774010e-09	3.880335e+01	5.091196e+02
2.090000e-06	5.472293e-06	7.703580e-09	3.799983e+01	5.046033e+02
2.100000e-06	5.354517e-06	7.630242e-09	3.718198e+01	4.999316e+02
2.110000e-06	5.234708e-06	7.556986e-09	3.635002e+01	4.951076e+02
2.120000e-06	5.112979e-06	7.473376e-09	3.550473e+01	4.901342e+02
2.130000e-06	4.989477e-06	7.387122e-09	3.464713e+01	4.850129e+02
2.140000e-06	4.864132e-06	7.320957e-09	3.377673e+01	4.797421e+02
2.150000e-06	4.736998e-06	7.249837e-09	3.289390e+01	4.743166e+02
2.160000e-06	4.608122e-06	7.166549e-09	3.199898e+01	4.687275e+02
2.170000e-06	4.477596e-06	7.065943e-09	3.109261e+01	4.629624e+02
2.180000e-06	4.345444e-06	6.974390e-09	3.017494e+01	4.570067e+02
2.190000e-06	4.211731e-06	6.879690e-09	2.924643e+01	4.508452e+02
2.200000e-06	4.076462e-06	6.784497e-09	2.830712e+01	4.444636e+02
2.210000e-06	3.939559e-06	6.685475e-09	2.735646e+01	4.378508e+02
2.220000e-06	3.801036e-06	6.584630e-09	2.639455e+01	4.309996e+02
2.230000e-06	3.660997e-06	6.475368e-09	2.542211e+01	4.239074e+02
2.240000e-06	3.519595e-06	6.361917e-09	2.444021e+01	4.165764e+02
2.250000e-06	3.376904e-06	6.251671e-09	2.344936e+01	4.090120e+02
2.260000e-06	3.232919e-06	6.137352e-09	2.244952e+01	4.012214e+02
2.270000e-06	3.087656e-06	6.015695e-09	2.144081e+01	3.932109e+02
2.280000e-06	2.941281e-06	5.887326e-09	2.042437e+01	3.849834e+02
2.290000e-06	2.793839e-06	5.762671e-09	1.940053e+01	3.765365e+02
2.300000e-06	2.645395e-06	5.633670e-09	1.836973e+01	3.678606e+02
2.310000e-06	2.496056e-06	5.497124e-09	1.733271e+01	3.589383e+02
2.320000e-06	2.345937e-06	5.353499e-09	1.629028e+01	3.497450e+02
2.330000e-06	2.195173e-06	5.205486e-09	1.524337e+01	3.402507e+02
2.340000e-06	2.043665e-06	5.054356e-09	1.419130e+01	3.304223e+02
2.350000e-06	1.891289e-06	4.902225e-09	1.313319e+01	3.202275e+02
2.360000e-06	1.738186e-06	4.743744e-09	1.207003e+01	3.096373e+02
2.370000e-06	1.584598e-06	4.573588e-09	1.100351e+01	2.986297e+02
2.380000e-06	1.430604e-06	4.396620e-09	9.934169e+00	2.871913e+02
2.390000e-06	1.276139e-06	4.215370e-09	8.861561e+00	2.753176e+02
2.400000e-06	1.121203e-06	4.030311e-09	7.785679e+00	2.630124e+02
2.410000e-06	9.658111e-07	3.839361e-09	6.706631e+00	2.502842e+02
2.420000e-06	8.100821e-07	3.642214e-09	5.625243e+00	2.371429e+02
2.430000e-06	6.541167e-07	3.438583e-09	4.542213e+00	2.235940e+02
2.440000e-06	4.978410e-07	3.225612e-09	3.457028e+00	2.096336e+02
2.450000e-06	3.413150e-07	3.003996e-09	2.370105e+00	1.952438e+02
2.460000e-06	1.846233e-07	2.775696e-09	1.282031e+00	1.803898e+02
2.470000e-06	2.779664e-08	2.536940e-09	1.930210e-01	1.650186e+02
2.480000e-06	-1.290156e-07	2.287331e-09	-8.958893e-01	1.490609e+02
2.490000e-06	-2.857868e-07	2.029584e-09	-1.984515e+00	1.324358e+02
2.500000e-06	-4.424685e-07	1.762074e-09	-3.072519e+00	1.150576e+02
2.510000e-06	-5.989988e-07	1.483094e-09	-4.159472e+00	9.684570e+01
2.520000e-06	-7.553429e-07	1.192508e-09	-5.245132e+00	7.773434e+01
2.530000e-06	-9.113928e-07	8.899174e-10	-6.328748e+00	5.768368e+01
2.540000e-06	-1.067113e-06	5.739233e-10	-7.410075e+00	3.668909e+01
2.550000e-06	-1.222359e-06	2.449617e-10	-8.488108e+00	1.478839e+01
2.560000e-06	-1.377006e-06	-9.708831e-11	-9.561985e+00	-7.934114e+00
2.570000e-06	-1.531118e-06	-4.538644e-10	-1.063215e+01	-3.134749e+01
2.580000e-06	-1.684807e-06	-8.226964e-10	-1.169937e+01	-5.527817e+01
2.590000e-06	-1.838069e-06	-1.198505e-09	-1.276363e+01	-7.951781e+01
2.600000e-06	-1.990630e-06	-1.574968e-09	-1.382301e+01	-1.038345e+02
2.610000e-06	-2.142307e-06	-1.949111e-09	-1.487627e+01	-1.279863e+02
2.620000e-06	-2.293052e-06	-2.316543e-09	-1.592305e+01	-1.517356e+02
2.630000e-06	-2.442935e-06	-2.669645e-09	-1.696384e+01	-1.748631e+02
2.640000e-06	-2.592051e-06	-3.007035e-09	-1.799931e+01	-1.971808e+02
2.650000e-06	-2.740156e-06	-3.329009e-09	-1.902776e+01	-2.185408e+02
2.660000e-06	-2.887147e-06	-3.635225e-09	-2.004847e+01	-2.388417e+02
2.670000e-06	-3.033164e-06	-3.926211e-09	-2.106241e+01	-2.580304e+02
2.680000e-06	-3.178136e-06	-4.202319e-09	-2.206911e+01	-2.760995e+02
2.690000e-06	-3.321804e-06	-4.463022e-09	-2.306674e+01	-2.930817e+02
2.700000e-06	-3.464131e-06	-4.708200e-09	-2.405506e+01	-3.090411e+02
2.710000e-06	-3.605224e-06	-4.940693e-09	-2.503482e+01	-3.240630e+02
2.720000e-06	-3.744910e-06	-5.163168e-09	-2.600481e+01	-3.382431e+02
2.730000e-06	-3.883154e-06	-5.373753e-09	-2.696478e+01	-3.516770e+02
2.740000e-06	-4.019990e-06	-5.572198e-09	-2.791498e+01	-3.644522e+02
2.750000e-06	-4.155269e-06	-5.761246e-09	-2.885436e+01	-3.766415e+02
2.760000e-06	-4.289085e-06	-5.939868e-09	-2.978358e+01	-3.883000e+02
2.770000e-06	-4.421417e-06	-6.108662e-09	-3.070250e+01	-3.994642e+02
2.780000e-06	-4.552180e-06	-6.269937e-09	-3.161052e+01	-4.101540e+02
2.790000e-06	-4.681487e-06	-6.423968e-09	-3.250843e+01	-4.203766e+02
2.800000e-06	-4.809181e-06	-6.571339e-09	-3.339515e+01	-4.301309e+02
2.810000e-06	-4.935168e-06	-6.711067e-09	-3.427000e+01	-4.394133e+02
2.820000e-06	-5.059440e-06	-6.844329e-09	-3.513295e+01	-4.482221e+02
2.830000e-06	-5.181887e-06	-6.970044e-09	-3.598323e+01	-4.565612e+02
2.840000e-06	-5.302495e-06	-7.088782e-09	-3.682074e+01	-4.644426e+02
2.850000e-06	-5.421108e-06	-7.203794e-09	-3.764439e+01	-4.718868e+02
2.860000e-06	-5.537510e-06	-7.315081e-09	-3.845270e+01	-4.789220e+02
2.870000e-06	-5.651591e-06	-7.421075e-09	-3.924487e+01	-4.855824e+02
2.880000e-06	-5.763407e-06	-7.519860e-09	-4.002133e+01	-4.919048e+02
2.890000e-06	-5.873112e-06	-7.612384e-09	-4.078313e+01	-4.979258e+02
2.900000e-06	-5.980799e-06	-7.700263e-09	-4.153091e+01	-5.036790e+02
2.910000e-06	-6.086435e-06	-7.784052e-09	-4.226445e+01	-5.091928e+02
2.920000e-06	-6.189835e-06	-7.861783e-09	-4.298246e+01	-5.144890e+02
2.930000e-06	-6.290839e-06	-7.937063e-09	-4.368384e+01	-5.195827e+02
2.940000e-06	-6.389557e-06	-8.012503e-09	-4.436934e+01	-5.244829e+02
