# Temperatura_=_32.56
# Concentracion g/m^3_=_15000.0
# C_Vs_to_Am_M_A/Vsm_=_65563218390.804596
# pendiente_HvsI_1/m_=_3716.3
# ordenada_HvsI_A/m_=_1297.0
# frecuencia_Hz_=_302361.79379311664

Tiempo_(s)	Campo_(V.s)	Magnetizacion_(V.s)	Campo_(kA/m)	Magnetizacion_(A/m)
0.000000e+00	-8.136838e-06	-8.717735e-09	-5.690013e+01	-5.702696e+02
1.000000e-08	-8.132635e-06	-8.721504e-09	-5.687074e+01	-5.699938e+02
2.000000e-08	-8.125855e-06	-8.714801e-09	-5.682332e+01	-5.696340e+02
3.000000e-08	-8.116339e-06	-8.705663e-09	-5.675678e+01	-5.692018e+02
4.000000e-08	-8.103872e-06	-8.697434e-09	-5.666960e+01	-5.687085e+02
5.000000e-08	-8.088403e-06	-8.687197e-09	-5.656143e+01	-5.681634e+02
6.000000e-08	-8.070227e-06	-8.673251e-09	-5.643432e+01	-5.675730e+02
7.000000e-08	-8.049743e-06	-8.659680e-09	-5.629108e+01	-5.669401e+02
8.000000e-08	-8.026694e-06	-8.640068e-09	-5.612990e+01	-5.662641e+02
9.000000e-08	-8.000558e-06	-8.694101e-09	-5.594714e+01	-5.655406e+02
1.000000e-07	-7.971255e-06	-8.690144e-09	-5.574222e+01	-5.647629e+02
1.100000e-07	-7.938921e-06	-8.624899e-09	-5.551612e+01	-5.639226e+02
1.200000e-07	-7.903693e-06	-8.602787e-09	-5.526977e+01	-5.630113e+02
1.300000e-07	-7.865848e-06	-8.579780e-09	-5.500513e+01	-5.620209e+02
1.400000e-07	-7.825593e-06	-8.539632e-09	-5.472363e+01	-5.609451e+02
1.500000e-07	-7.783009e-06	-8.477342e-09	-5.442584e+01	-5.597796e+02
1.600000e-07	-7.737949e-06	-8.556209e-09	-5.411074e+01	-5.585220e+02
1.700000e-07	-7.690038e-06	-8.531517e-09	-5.377570e+01	-5.571718e+02
1.800000e-07	-7.639147e-06	-8.411890e-09	-5.341983e+01	-5.557295e+02
1.900000e-07	-7.585363e-06	-8.505756e-09	-5.304372e+01	-5.541959e+02
2.000000e-07	-7.528746e-06	-8.435392e-09	-5.264780e+01	-5.525716e+02
2.100000e-07	-7.469425e-06	-8.365093e-09	-5.223297e+01	-5.508564e+02
2.200000e-07	-7.407482e-06	-8.383273e-09	-5.179981e+01	-5.490488e+02
2.300000e-07	-7.342843e-06	-8.328521e-09	-5.134780e+01	-5.471463e+02
2.400000e-07	-7.275392e-06	-8.322753e-09	-5.087612e+01	-5.451459e+02
2.500000e-07	-7.205168e-06	-8.260356e-09	-5.038505e+01	-5.430441e+02
2.600000e-07	-7.132133e-06	-8.263975e-09	-4.987432e+01	-5.408382e+02
2.700000e-07	-7.056158e-06	-8.214267e-09	-4.934304e+01	-5.385265e+02
2.800000e-07	-6.977303e-06	-8.161289e-09	-4.879161e+01	-5.361089e+02
2.900000e-07	-6.895801e-06	-8.121142e-09	-4.822168e+01	-5.335867e+02
3.000000e-07	-6.811960e-06	-8.085301e-09	-4.763539e+01	-5.309628e+02
3.100000e-07	-6.725803e-06	-8.086860e-09	-4.703289e+01	-5.282407e+02
3.200000e-07	-6.637211e-06	-8.004565e-09	-4.641338e+01	-5.254241e+02
3.300000e-07	-6.546176e-06	-7.965581e-09	-4.577678e+01	-5.225155e+02
3.400000e-07	-6.452737e-06	-7.925109e-09	-4.512338e+01	-5.195157e+02
3.500000e-07	-6.356995e-06	-7.868372e-09	-4.445386e+01	-5.164231e+02
3.600000e-07	-6.258918e-06	-7.802885e-09	-4.376801e+01	-5.132332e+02
3.700000e-07	-6.158578e-06	-7.757375e-09	-4.306635e+01	-5.099388e+02
3.800000e-07	-6.056013e-06	-7.728332e-09	-4.234912e+01	-5.065310e+02
3.900000e-07	-5.951224e-06	-7.665160e-09	-4.161634e+01	-5.029994e+02
4.000000e-07	-5.844349e-06	-7.612103e-09	-4.086897e+01	-4.993339e+02
4.100000e-07	-5.735432e-06	-7.549785e-09	-4.010733e+01	-4.955254e+02
4.200000e-07	-5.624470e-06	-7.494874e-09	-3.933138e+01	-4.915672e+02
4.300000e-07	-5.511447e-06	-7.416941e-09	-3.854102e+01	-4.874554e+02
4.400000e-07	-5.396271e-06	-7.346647e-09	-3.773561e+01	-4.831889e+02
4.500000e-07	-5.278961e-06	-7.288970e-09	-3.691527e+01	-4.787693e+02
4.600000e-07	-5.159731e-06	-7.229150e-09	-3.608150e+01	-4.741998e+02
4.700000e-07	-5.038741e-06	-7.151459e-09	-3.523543e+01	-4.694843e+02
4.800000e-07	-4.915921e-06	-7.071353e-09	-3.437657e+01	-4.646253e+02
4.900000e-07	-4.791272e-06	-7.000876e-09	-3.350490e+01	-4.596231e+02
5.000000e-07	-4.664909e-06	-6.917729e-09	-3.262126e+01	-4.544749e+02
5.100000e-07	-4.536897e-06	-6.833609e-09	-3.172608e+01	-4.491735e+02
5.200000e-07	-4.407178e-06	-6.751987e-09	-3.081898e+01	-4.437085e+02
5.300000e-07	-4.275763e-06	-6.674890e-09	-2.990000e+01	-4.380662e+02
5.400000e-07	-4.142762e-06	-6.579374e-09	-2.896994e+01	-4.322313e+02
5.500000e-07	-4.008187e-06	-6.482059e-09	-2.802887e+01	-4.261887e+02
5.600000e-07	-3.872115e-06	-6.385623e-09	-2.707733e+01	-4.199249e+02
5.700000e-07	-3.734571e-06	-6.286244e-09	-2.611550e+01	-4.134296e+02
5.800000e-07	-3.595439e-06	-6.178726e-09	-2.514256e+01	-4.066969e+02
5.900000e-07	-3.454787e-06	-6.074022e-09	-2.415899e+01	-3.997254e+02
6.000000e-07	-3.312797e-06	-5.970397e-09	-2.316607e+01	-3.925177e+02
6.100000e-07	-3.169574e-06	-5.853871e-09	-2.216453e+01	-3.850789e+02
6.200000e-07	-3.025178e-06	-5.733512e-09	-2.115478e+01	-3.774149e+02
6.300000e-07	-2.879589e-06	-5.613404e-09	-2.013669e+01	-3.695298e+02
6.400000e-07	-2.732945e-06	-5.495985e-09	-1.911122e+01	-3.614240e+02
6.500000e-07	-2.585402e-06	-5.368980e-09	-1.807947e+01	-3.530918e+02
6.600000e-07	-2.437041e-06	-5.239519e-09	-1.704199e+01	-3.445209e+02
6.700000e-07	-2.287861e-06	-5.103095e-09	-1.599880e+01	-3.356916e+02
6.800000e-07	-2.137822e-06	-4.958356e-09	-1.494958e+01	-3.265787e+02
6.900000e-07	-1.987068e-06	-4.811048e-09	-1.389537e+01	-3.171526e+02
7.000000e-07	-1.835720e-06	-4.660620e-09	-1.283702e+01	-3.073827e+02
7.100000e-07	-1.683772e-06	-4.505965e-09	-1.177446e+01	-2.972402e+02
7.200000e-07	-1.531207e-06	-4.342265e-09	-1.070758e+01	-2.867011e+02
7.300000e-07	-1.378051e-06	-4.177528e-09	-9.636580e+00	-2.757486e+02
7.400000e-07	-1.224398e-06	-4.006922e-09	-8.562098e+00	-2.643740e+02
7.500000e-07	-1.070341e-06	-3.827644e-09	-7.484791e+00	-2.525766e+02
7.600000e-07	-9.159381e-07	-3.640552e-09	-6.405068e+00	-2.403618e+02
7.700000e-07	-7.612269e-07	-3.448822e-09	-5.323187e+00	-2.277380e+02
7.800000e-07	-6.062299e-07	-3.250812e-09	-4.239308e+00	-2.147119e+02
7.900000e-07	-4.509973e-07	-3.048190e-09	-3.153781e+00	-2.012843e+02
8.000000e-07	-2.955693e-07	-2.842163e-09	-2.066888e+00	-1.874453e+02
8.100000e-07	-1.399989e-07	-2.625439e-09	-9.789990e-01	-1.731711e+02
8.200000e-07	1.557858e-08	-2.396710e-09	1.089395e-01	-1.584221e+02
8.300000e-07	1.711391e-07	-2.159414e-09	1.196759e+00	-1.431438e+02
8.400000e-07	3.266906e-07	-1.915624e-09	2.284516e+00	-1.272696e+02
8.500000e-07	4.821872e-07	-1.661653e-09	3.371889e+00	-1.107268e+02
8.600000e-07	6.375746e-07	-1.397855e-09	4.458498e+00	-9.344402e+01
8.700000e-07	7.927618e-07	-1.124566e-09	5.543707e+00	-7.536046e+01
8.800000e-07	9.477160e-07	-8.401021e-10	6.627287e+00	-5.643544e+01
8.900000e-07	1.102367e-06	-5.418663e-10	7.708747e+00	-3.665739e+01
9.000000e-07	1.256567e-06	-2.317928e-10	8.787053e+00	-1.605108e+01
9.100000e-07	1.410293e-06	9.015065e-11	9.862048e+00	5.317775e+00
9.200000e-07	1.563490e-06	4.251628e-10	1.093334e+01	2.734130e+01
9.300000e-07	1.716100e-06	7.712558e-10	1.200052e+01	4.987192e+01
9.400000e-07	1.868115e-06	1.123745e-09	1.306355e+01	7.272853e+01
9.500000e-07	2.019456e-06	1.475404e-09	1.412186e+01	9.570581e+01
9.600000e-07	2.170062e-06	1.827665e-09	1.517504e+01	1.185859e+02
9.700000e-07	2.319848e-06	2.176577e-09	1.622247e+01	1.411515e+02
9.800000e-07	2.468688e-06	2.515306e-09	1.726330e+01	1.631987e+02
9.900000e-07	2.616592e-06	2.839306e-09	1.829758e+01	1.845486e+02
1.000000e-06	2.763583e-06	3.147918e-09	1.932547e+01	2.050569e+02
1.010000e-06	2.909505e-06	3.441228e-09	2.034589e+01	2.246201e+02
1.020000e-06	3.054271e-06	3.718181e-09	2.135823e+01	2.431778e+02
1.030000e-06	3.197906e-06	3.979647e-09	2.236265e+01	2.607115e+02
1.040000e-06	3.340421e-06	4.228182e-09	2.335924e+01	2.772401e+02
1.050000e-06	3.481720e-06	4.465548e-09	2.434733e+01	2.928124e+02
1.060000e-06	3.621609e-06	4.689967e-09	2.532556e+01	3.074980e+02
1.070000e-06	3.759986e-06	4.901922e-09	2.629322e+01	3.213780e+02
1.080000e-06	3.896922e-06	5.104709e-09	2.725080e+01	3.345349e+02
1.090000e-06	4.032437e-06	5.297307e-09	2.819845e+01	3.470453e+02
1.100000e-06	4.166492e-06	5.478315e-09	2.913588e+01	3.589739e+02
1.110000e-06	4.299105e-06	5.650276e-09	3.006323e+01	3.703700e+02
1.120000e-06	4.430191e-06	5.815329e-09	3.097990e+01	3.812669e+02
1.130000e-06	4.559713e-06	5.973346e-09	3.188564e+01	3.916833e+02
1.140000e-06	4.687617e-06	6.123342e-09	3.278006e+01	4.016268e+02
1.150000e-06	4.813906e-06	6.265489e-09	3.366318e+01	4.110983e+02
1.160000e-06	4.938635e-06	6.402180e-09	3.453540e+01	4.200967e+02
1.170000e-06	5.061617e-06	6.532997e-09	3.539540e+01	4.286232e+02
1.180000e-06	5.182766e-06	6.655618e-09	3.624259e+01	4.366852e+02
1.190000e-06	5.302080e-06	6.771874e-09	3.707694e+01	4.442976e+02
1.200000e-06	5.419431e-06	6.880746e-09	3.789757e+01	4.514838e+02
1.210000e-06	5.534669e-06	6.982700e-09	3.870341e+01	4.582744e+02
1.220000e-06	5.647767e-06	7.079532e-09	3.949429e+01	4.647055e+02
1.230000e-06	5.758744e-06	7.173507e-09	4.027035e+01	4.708151e+02
1.240000e-06	5.867674e-06	7.263612e-09	4.103208e+01	4.766408e+02
1.250000e-06	5.974533e-06	7.348988e-09	4.177934e+01	4.822162e+02
1.260000e-06	6.079202e-06	7.431022e-09	4.251128e+01	4.875693e+02
1.270000e-06	6.181647e-06	7.509701e-09	4.322767e+01	4.927210e+02
1.280000e-06	6.281837e-06	7.583849e-09	4.392828e+01	4.976846e+02
1.290000e-06	6.379680e-06	7.655158e-09	4.461249e+01	5.024673e+02
1.300000e-06	6.475047e-06	7.724545e-09	4.527938e+01	5.070709e+02
1.310000e-06	6.568076e-06	7.791711e-09	4.592993e+01	5.114943e+02
1.320000e-06	6.658806e-06	7.855508e-09	4.656439e+01	5.157353e+02
1.330000e-06	6.747082e-06	7.915302e-09	4.718170e+01	5.197922e+02
1.340000e-06	6.832992e-06	7.973527e-09	4.778246e+01	5.236654e+02
1.350000e-06	6.916558e-06	8.030500e-09	4.836683e+01	5.273575e+02
1.360000e-06	6.997619e-06	8.083688e-09	4.893368e+01	5.308738e+02
1.370000e-06	7.076145e-06	8.133411e-09	4.948281e+01	5.342207e+02
1.380000e-06	7.152102e-06	8.181933e-09	5.001397e+01	5.374056e+02
1.390000e-06	7.225355e-06	8.229158e-09	5.052622e+01	5.404348e+02
1.400000e-06	7.295963e-06	8.272771e-09	5.101997e+01	5.433130e+02
1.410000e-06	7.364004e-06	8.313256e-09	5.149577e+01	5.460423e+02
1.420000e-06	7.429396e-06	8.351392e-09	5.195306e+01	5.486220e+02
1.430000e-06	7.492170e-06	8.386140e-09	5.239203e+01	5.510490e+02
1.440000e-06	7.552420e-06	8.418461e-09	5.281335e+01	5.533188e+02
1.450000e-06	7.610075e-06	8.448835e-09	5.321653e+01	5.554268e+02
1.460000e-06	7.665001e-06	8.476549e-09	5.360062e+01	5.573695e+02
1.470000e-06	7.716983e-06	8.500587e-09	5.396412e+01	5.591459e+02
1.480000e-06	7.765811e-06	8.522252e-09	5.430557e+01	5.607584e+02
1.490000e-06	7.811674e-06	8.543512e-09	5.462629e+01	5.622133e+02
1.500000e-06	7.854814e-06	8.564114e-09	5.492797e+01	5.635206e+02
1.510000e-06	7.895138e-06	8.581926e-09	5.520994e+01	5.646933e+02
1.520000e-06	7.932638e-06	8.598176e-09	5.547218e+01	5.657459e+02
1.530000e-06	7.967342e-06	8.613885e-09	5.571486e+01	5.666931e+02
1.540000e-06	7.999154e-06	8.629257e-09	5.593732e+01	5.675480e+02
1.550000e-06	8.028170e-06	8.642231e-09	5.614022e+01	5.683206e+02
1.560000e-06	8.054388e-06	8.652497e-09	5.632356e+01	5.690173e+02
1.570000e-06	8.077636e-06	8.661638e-09	5.648614e+01	5.696399e+02
1.580000e-06	8.097996e-06	8.668937e-09	5.662851e+01	5.701861e+02
1.590000e-06	8.115490e-06	8.675369e-09	5.675084e+01	5.706506e+02
1.600000e-06	8.129947e-06	8.680545e-09	5.685194e+01	5.710259e+02
1.610000e-06	8.141283e-06	8.684567e-09	5.693122e+01	5.713042e+02
1.620000e-06	8.149448e-06	8.688566e-09	5.698831e+01	5.714789e+02
1.630000e-06	8.154660e-06	8.693526e-09	5.702476e+01	5.715460e+02
1.640000e-06	8.157054e-06	8.697624e-09	5.704150e+01	5.715051e+02
1.650000e-06	8.156576e-06	8.702871e-09	5.703816e+01	5.713593e+02
1.660000e-06	8.153407e-06	8.695158e-09	5.701600e+01	5.711158e+02
1.670000e-06	8.147528e-06	8.685570e-09	5.697488e+01	5.707844e+02
1.680000e-06	8.138836e-06	8.679334e-09	5.691410e+01	5.703764e+02
1.690000e-06	8.127394e-06	8.672159e-09	5.683409e+01	5.699034e+02
1.700000e-06	8.113128e-06	8.666522e-09	5.673433e+01	5.693755e+02
1.710000e-06	8.096203e-06	8.664099e-09	5.661597e+01	5.688004e+02
1.720000e-06	8.076901e-06	8.664016e-09	5.648100e+01	5.681822e+02
1.730000e-06	8.055035e-06	8.654019e-09	5.632809e+01	5.675216e+02
1.740000e-06	8.030065e-06	8.559928e-09	5.615348e+01	5.668154e+02
1.750000e-06	8.001406e-06	8.574773e-09	5.595307e+01	5.660576e+02
1.760000e-06	7.969140e-06	8.603988e-09	5.572743e+01	5.652404e+02
1.770000e-06	7.934193e-06	8.574274e-09	5.548305e+01	5.643550e+02
1.780000e-06	7.896953e-06	8.570350e-09	5.522264e+01	5.633933e+02
1.790000e-06	7.857373e-06	8.648392e-09	5.494586e+01	5.623483e+02
1.800000e-06	7.815794e-06	8.569939e-09	5.465510e+01	5.612148e+02
1.810000e-06	7.771890e-06	8.456358e-09	5.434808e+01	5.599900e+02
1.820000e-06	7.725100e-06	8.600373e-09	5.402088e+01	5.586725e+02
1.830000e-06	7.675558e-06	8.451407e-09	5.367445e+01	5.572627e+02
1.840000e-06	7.622979e-06	8.485657e-09	5.330676e+01	5.557612e+02
1.850000e-06	7.567318e-06	8.492446e-09	5.291753e+01	5.541690e+02
1.860000e-06	7.508979e-06	8.387843e-09	5.250957e+01	5.524860e+02
1.870000e-06	7.447959e-06	8.453077e-09	5.208286e+01	5.507112e+02
1.880000e-06	7.384284e-06	8.319098e-09	5.163759e+01	5.488426e+02
1.890000e-06	7.317729e-06	8.380871e-09	5.117218e+01	5.468772e+02
1.900000e-06	7.248242e-06	8.315762e-09	5.068626e+01	5.448117e+02
1.910000e-06	7.175916e-06	8.232567e-09	5.018049e+01	5.426429e+02
1.920000e-06	7.100744e-06	8.252251e-09	4.965483e+01	5.403688e+02
1.930000e-06	7.022870e-06	8.179728e-09	4.911026e+01	5.379886e+02
1.940000e-06	6.942284e-06	8.223515e-09	4.854673e+01	5.355031e+02
1.950000e-06	6.859130e-06	8.109276e-09	4.796524e+01	5.329148e+02
1.960000e-06	6.773472e-06	8.091563e-09	4.736624e+01	5.302270e+02
1.970000e-06	6.685261e-06	8.051994e-09	4.674939e+01	5.274434e+02
1.980000e-06	6.594597e-06	7.968987e-09	4.611539e+01	5.245671e+02
1.990000e-06	6.501641e-06	7.967753e-09	4.546535e+01	5.215997e+02
2.000000e-06	6.406458e-06	7.917714e-09	4.479975e+01	5.185402e+02
2.010000e-06	6.308953e-06	7.894836e-09	4.411791e+01	5.153854e+02
2.020000e-06	6.209201e-06	7.787717e-09	4.342035e+01	5.121290e+02
2.030000e-06	6.107270e-06	7.750556e-09	4.270756e+01	5.087625e+02
2.040000e-06	6.003113e-06	7.702567e-09	4.197919e+01	5.052759e+02
2.050000e-06	5.896797e-06	7.665608e-09	4.123574e+01	5.016590e+02
2.060000e-06	5.788489e-06	7.608776e-09	4.047835e+01	4.979022e+02
2.070000e-06	5.678222e-06	7.539383e-09	3.970726e+01	4.939977e+02
2.080000e-06	5.565828e-06	7.483598e-09	3.892130e+01	4.899407e+02
2.090000e-06	5.451282e-06	7.400332e-09	3.812029e+01	4.857290e+02
2.100000e-06	5.334692e-06	7.341032e-09	3.730499e+01	4.813634e+02
2.110000e-06	5.216029e-06	7.274178e-09	3.647519e+01	4.768467e+02
2.120000e-06	5.095407e-06	7.216296e-09	3.563169e+01	4.721826e+02
2.130000e-06	4.972958e-06	7.128352e-09	3.477542e+01	4.673744e+02
2.140000e-06	4.848705e-06	7.065716e-09	3.390653e+01	4.624231e+02
2.150000e-06	4.722727e-06	6.997850e-09	3.302558e+01	4.573273e+02
2.160000e-06	4.595000e-06	6.919495e-09	3.213239e+01	4.520813e+02
2.170000e-06	4.465588e-06	6.818149e-09	3.122743e+01	4.466759e+02
2.180000e-06	4.334592e-06	6.723684e-09	3.031139e+01	4.410982e+02
2.190000e-06	4.202028e-06	6.640770e-09	2.938438e+01	4.353336e+02
2.200000e-06	4.067927e-06	6.554310e-09	2.844662e+01	4.293665e+02
2.210000e-06	3.932258e-06	6.470891e-09	2.749790e+01	4.231827e+02
2.220000e-06	3.794962e-06	6.378693e-09	2.653781e+01	4.167706e+02
2.230000e-06	3.656106e-06	6.276472e-09	2.556680e+01	4.101228e+02
2.240000e-06	3.515925e-06	6.161069e-09	2.458652e+01	4.032361e+02
2.250000e-06	3.374493e-06	6.057657e-09	2.359751e+01	3.961119e+02
2.260000e-06	3.231820e-06	5.955284e-09	2.259981e+01	3.887546e+02
2.270000e-06	3.087849e-06	5.844263e-09	2.159303e+01	3.811701e+02
2.280000e-06	2.942638e-06	5.715849e-09	2.057759e+01	3.733634e+02
2.290000e-06	2.796350e-06	5.587847e-09	1.955461e+01	3.653364e+02
2.300000e-06	2.649095e-06	5.462019e-09	1.852487e+01	3.570858e+02
2.310000e-06	2.500963e-06	5.336233e-09	1.748899e+01	3.486016e+02
2.320000e-06	2.351960e-06	5.208042e-09	1.644703e+01	3.398669e+02
2.330000e-06	2.202174e-06	5.071969e-09	1.539959e+01	3.308582e+02
2.340000e-06	2.051677e-06	4.929341e-09	1.434718e+01	3.215471e+02
2.350000e-06	1.900522e-06	4.783394e-09	1.329017e+01	3.119032e+02
2.360000e-06	1.748710e-06	4.632635e-09	1.222856e+01	3.018964e+02
2.370000e-06	1.596326e-06	4.473073e-09	1.116296e+01	2.915010e+02
2.380000e-06	1.443475e-06	4.304614e-09	1.009408e+01	2.806972e+02
2.390000e-06	1.290088e-06	4.131826e-09	9.021461e+00	2.694735e+02
2.400000e-06	1.136148e-06	3.956347e-09	7.944971e+00	2.578264e+02
2.410000e-06	9.817937e-07	3.775885e-09	6.865590e+00	2.457594e+02
2.420000e-06	8.271074e-07	3.591930e-09	5.783883e+00	2.332804e+02
2.430000e-06	6.721255e-07	3.399468e-09	4.700110e+00	2.203971e+02
2.440000e-06	5.169230e-07	3.194675e-09	3.614793e+00	2.071131e+02
2.450000e-06	3.615772e-07	2.980698e-09	2.528475e+00	1.934226e+02
2.460000e-06	2.061026e-07	2.763917e-09	1.441256e+00	1.793072e+02
2.470000e-06	5.053213e-08	2.540526e-09	3.533664e-01	1.647330e+02
2.480000e-06	-1.050831e-07	2.306289e-09	-7.348359e-01	1.496505e+02
2.490000e-06	-2.606570e-07	2.063391e-09	-1.822750e+00	1.339969e+02
2.500000e-06	-4.161620e-07	1.813182e-09	-2.910181e+00	1.177011e+02
2.510000e-06	-5.716004e-07	1.553991e-09	-3.997147e+00	1.006900e+02
2.520000e-06	-7.268303e-07	1.282246e-09	-5.082655e+00	8.289796e+01
2.530000e-06	-8.817671e-07	1.000067e-09	-6.166113e+00	6.427614e+01
2.540000e-06	-1.036419e-06	7.055499e-10	-7.247576e+00	4.480157e+01
2.550000e-06	-1.190755e-06	3.970622e-10	-8.326839e+00	2.448538e+01
2.560000e-06	-1.344648e-06	7.751831e-11	-9.402996e+00	3.378308e+00
2.570000e-06	-1.498002e-06	-2.508271e-10	-1.047539e+01	-1.842672e+01
2.580000e-06	-1.650807e-06	-5.904005e-10	-1.154394e+01	-4.079580e+01
2.590000e-06	-1.803015e-06	-9.433790e-10	-1.260831e+01	-6.355886e+01
2.600000e-06	-1.954529e-06	-1.299932e-09	-1.366783e+01	-8.651801e+01
2.610000e-06	-2.105290e-06	-1.654826e-09	-1.472209e+01	-1.094584e+02
2.620000e-06	-2.255294e-06	-2.004743e-09	-1.577105e+01	-1.321611e+02
2.630000e-06	-2.404446e-06	-2.343934e-09	-1.681406e+01	-1.544158e+02
2.640000e-06	-2.552687e-06	-2.671162e-09	-1.785069e+01	-1.760335e+02
2.650000e-06	-2.699967e-06	-2.986849e-09	-1.888061e+01	-1.968569e+02
2.660000e-06	-2.846276e-06	-3.291011e-09	-1.990374e+01	-2.167672e+02
2.670000e-06	-2.991579e-06	-3.579844e-09	-2.091983e+01	-2.356886e+02
2.680000e-06	-3.135680e-06	-3.851521e-09	-2.192751e+01	-2.535879e+02
2.690000e-06	-3.278523e-06	-4.107885e-09	-2.292640e+01	-2.704716e+02
2.700000e-06	-3.420034e-06	-4.351500e-09	-2.391597e+01	-2.863786e+02
2.710000e-06	-3.560147e-06	-4.584330e-09	-2.489577e+01	-3.013724e+02
2.720000e-06	-3.698944e-06	-4.805982e-09	-2.586636e+01	-3.155308e+02
2.730000e-06	-3.836419e-06	-5.015100e-09	-2.682771e+01	-3.289370e+02
2.740000e-06	-3.972436e-06	-5.213365e-09	-2.777886e+01	-3.416706e+02
2.750000e-06	-4.106979e-06	-5.402439e-09	-2.871971e+01	-3.538008e+02
2.760000e-06	-4.240109e-06	-5.581751e-09	-2.965068e+01	-3.653828e+02
2.770000e-06	-4.371748e-06	-5.750130e-09	-3.057121e+01	-3.764555e+02
2.780000e-06	-4.501877e-06	-5.907984e-09	-3.148120e+01	-3.870424e+02
2.790000e-06	-4.630534e-06	-6.058086e-09	-3.238089e+01	-3.971548e+02
2.800000e-06	-4.757606e-06	-6.203550e-09	-3.326949e+01	-4.067954e+02
2.810000e-06	-4.883018e-06	-6.344466e-09	-3.414648e+01	-4.159631e+02
2.820000e-06	-5.006759e-06	-6.478880e-09	-3.501179e+01	-4.246580e+02
2.830000e-06	-5.128715e-06	-6.606233e-09	-3.586462e+01	-4.328850e+02
2.840000e-06	-5.248709e-06	-6.724087e-09	-3.670372e+01	-4.406560e+02
2.850000e-06	-5.366638e-06	-6.835107e-09	-3.752839e+01	-4.479916e+02
2.860000e-06	-5.482428e-06	-6.943334e-09	-3.833810e+01	-4.549199e+02
2.870000e-06	-5.595966e-06	-7.046538e-09	-3.913206e+01	-4.614754e+02
2.880000e-06	-5.707286e-06	-7.143371e-09	-3.991051e+01	-4.676958e+02
2.890000e-06	-5.816531e-06	-7.235020e-09	-4.067445e+01	-4.736191e+02
2.900000e-06	-5.923800e-06	-7.322910e-09	-4.142456e+01	-4.792807e+02
2.910000e-06	-6.028994e-06	-7.407858e-09	-4.216018e+01	-4.847108e+02
2.920000e-06	-6.131892e-06	-7.486499e-09	-4.287973e+01	-4.899328e+02
2.930000e-06	-6.232437e-06	-7.561351e-09	-4.358284e+01	-4.949628e+02
2.940000e-06	-6.330807e-06	-7.634892e-09	-4.427073e+01	-4.998099e+02
