# Temperatura_=_34.94
# Concentracion g/m^3_=_15000.0
# C_Vs_to_Am_M_A/Vsm_=_65563218390.804596
# pendiente_HvsI_1/m_=_3716.3
# ordenada_HvsI_A/m_=_1297.0
# frecuencia_Hz_=_302362.1213024019

Tiempo_(s)	Campo_(V.s)	Magnetizacion_(V.s)	Campo_(kA/m)	Magnetizacion_(A/m)
0.000000e+00	-8.169437e-06	-8.693227e-09	-5.691120e+01	-5.692087e+02
1.000000e-08	-8.167350e-06	-8.697563e-09	-5.689666e+01	-5.690413e+02
2.000000e-08	-8.162450e-06	-8.698823e-09	-5.686252e+01	-5.687866e+02
3.000000e-08	-8.154949e-06	-8.694516e-09	-5.681027e+01	-5.684547e+02
4.000000e-08	-8.144666e-06	-8.688825e-09	-5.673863e+01	-5.680562e+02
5.000000e-08	-8.131389e-06	-8.679504e-09	-5.664614e+01	-5.676015e+02
6.000000e-08	-8.115176e-06	-8.666629e-09	-5.653320e+01	-5.670990e+02
7.000000e-08	-8.096401e-06	-8.652163e-09	-5.640240e+01	-5.665542e+02
8.000000e-08	-8.075328e-06	-8.631147e-09	-5.625560e+01	-5.659692e+02
9.000000e-08	-8.051542e-06	-8.670539e-09	-5.608990e+01	-5.653424e+02
1.000000e-07	-8.024542e-06	-8.706639e-09	-5.590181e+01	-5.646690e+02
1.100000e-07	-7.994296e-06	-8.644378e-09	-5.569110e+01	-5.639418e+02
1.200000e-07	-7.961056e-06	-8.598323e-09	-5.545954e+01	-5.631523e+02
1.300000e-07	-7.925029e-06	-8.583127e-09	-5.520857e+01	-5.622917e+02
1.400000e-07	-7.886446e-06	-8.563052e-09	-5.493979e+01	-5.613523e+02
1.500000e-07	-7.845430e-06	-8.514402e-09	-5.465405e+01	-5.603277e+02
1.600000e-07	-7.802113e-06	-8.517047e-09	-5.435229e+01	-5.592136e+02
1.700000e-07	-7.756216e-06	-8.569014e-09	-5.403256e+01	-5.580076e+02
1.800000e-07	-7.707365e-06	-8.429904e-09	-5.369224e+01	-5.567091e+02
1.900000e-07	-7.655587e-06	-8.461466e-09	-5.333154e+01	-5.553182e+02
2.000000e-07	-7.600871e-06	-8.493105e-09	-5.295037e+01	-5.538352e+02
2.100000e-07	-7.543311e-06	-8.384634e-09	-5.254938e+01	-5.522600e+02
2.200000e-07	-7.483088e-06	-8.410792e-09	-5.212985e+01	-5.505913e+02
2.300000e-07	-7.420298e-06	-8.371280e-09	-5.169243e+01	-5.488266e+02
2.400000e-07	-7.354783e-06	-8.356918e-09	-5.123603e+01	-5.469624e+02
2.500000e-07	-7.286445e-06	-8.294883e-09	-5.075996e+01	-5.449943e+02
2.600000e-07	-7.215276e-06	-8.270480e-09	-5.026418e+01	-5.429180e+02
2.700000e-07	-7.141177e-06	-8.260158e-09	-4.974797e+01	-5.407297e+02
2.800000e-07	-7.064231e-06	-8.193468e-09	-4.921194e+01	-5.384272e+02
2.900000e-07	-6.984453e-06	-8.146688e-09	-4.865618e+01	-5.360100e+02
3.000000e-07	-6.902061e-06	-8.106602e-09	-4.808221e+01	-5.334797e+02
3.100000e-07	-6.817418e-06	-8.111064e-09	-4.749256e+01	-5.308396e+02
3.200000e-07	-6.730417e-06	-8.054266e-09	-4.688648e+01	-5.280943e+02
3.300000e-07	-6.640878e-06	-7.991584e-09	-4.626271e+01	-5.252487e+02
3.400000e-07	-6.548888e-06	-7.973379e-09	-4.562188e+01	-5.223068e+02
3.500000e-07	-6.454531e-06	-7.919201e-09	-4.496455e+01	-5.192711e+02
3.600000e-07	-6.357763e-06	-7.856350e-09	-4.429043e+01	-5.161417e+02
3.700000e-07	-6.258647e-06	-7.807656e-09	-4.359996e+01	-5.129156e+02
3.800000e-07	-6.157331e-06	-7.775230e-09	-4.289415e+01	-5.095870e+02
3.900000e-07	-6.053775e-06	-7.712098e-09	-4.217274e+01	-5.061478e+02
4.000000e-07	-5.948013e-06	-7.645001e-09	-4.143597e+01	-5.025881e+02
4.100000e-07	-5.840234e-06	-7.600931e-09	-4.068514e+01	-4.988975e+02
4.200000e-07	-5.730463e-06	-7.546400e-09	-3.992044e+01	-4.950667e+02
4.300000e-07	-5.618589e-06	-7.477622e-09	-3.914108e+01	-4.910876e+02
4.400000e-07	-5.504500e-06	-7.402001e-09	-3.834630e+01	-4.869550e+02
4.500000e-07	-5.388263e-06	-7.344956e-09	-3.753655e+01	-4.826663e+02
4.600000e-07	-5.270042e-06	-7.283887e-09	-3.671299e+01	-4.782215e+02
4.700000e-07	-5.150005e-06	-7.210632e-09	-3.587677e+01	-4.736225e+02
4.800000e-07	-5.028166e-06	-7.139372e-09	-3.502799e+01	-4.688721e+02
4.900000e-07	-4.904433e-06	-7.070351e-09	-3.416602e+01	-4.639724e+02
5.000000e-07	-4.778928e-06	-6.990041e-09	-3.329171e+01	-4.589239e+02
5.100000e-07	-4.651747e-06	-6.902182e-09	-3.240573e+01	-4.537245e+02
5.200000e-07	-4.522852e-06	-6.820884e-09	-3.150780e+01	-4.483687e+02
5.300000e-07	-4.392183e-06	-6.740835e-09	-3.059751e+01	-4.428477e+02
5.400000e-07	-4.259863e-06	-6.654288e-09	-2.967572e+01	-4.371502e+02
5.500000e-07	-4.126035e-06	-6.558642e-09	-2.874342e+01	-4.312632e+02
5.600000e-07	-3.990618e-06	-6.463535e-09	-2.780007e+01	-4.251733e+02
5.700000e-07	-3.853657e-06	-6.368198e-09	-2.684594e+01	-4.188687e+02
5.800000e-07	-3.715192e-06	-6.266070e-09	-2.588135e+01	-4.123399e+02
5.900000e-07	-3.575110e-06	-6.163416e-09	-2.490548e+01	-4.055809e+02
6.000000e-07	-3.433547e-06	-6.060656e-09	-2.391931e+01	-3.985892e+02
6.100000e-07	-3.290667e-06	-5.955101e-09	-2.292396e+01	-3.913656e+02
6.200000e-07	-3.146452e-06	-5.839803e-09	-2.191930e+01	-3.839124e+02
6.300000e-07	-3.001064e-06	-5.720459e-09	-2.090648e+01	-3.762325e+02
6.400000e-07	-2.854652e-06	-5.599382e-09	-1.988652e+01	-3.683267e+02
6.500000e-07	-2.707247e-06	-5.472937e-09	-1.885964e+01	-3.601922e+02
6.600000e-07	-2.558985e-06	-5.343409e-09	-1.782680e+01	-3.518208e+02
6.700000e-07	-2.409936e-06	-5.210886e-09	-1.678847e+01	-3.431986e+02
6.800000e-07	-2.260116e-06	-5.076108e-09	-1.574477e+01	-3.343053e+02
6.900000e-07	-2.109487e-06	-4.933436e-09	-1.469543e+01	-3.251164e+02
7.000000e-07	-1.958035e-06	-4.787830e-09	-1.364037e+01	-3.156040e+02
7.100000e-07	-1.805876e-06	-4.636027e-09	-1.258037e+01	-3.057401e+02
7.200000e-07	-1.653133e-06	-4.476784e-09	-1.151631e+01	-2.954993e+02
7.300000e-07	-1.499860e-06	-4.312774e-09	-1.044855e+01	-2.848608e+02
7.400000e-07	-1.346081e-06	-4.144940e-09	-9.377280e+00	-2.738109e+02
7.500000e-07	-1.191823e-06	-3.971167e-09	-8.302660e+00	-2.623428e+02
7.600000e-07	-1.037059e-06	-3.789035e-09	-7.224523e+00	-2.504568e+02
7.700000e-07	-8.818301e-07	-3.603088e-09	-6.143142e+00	-2.381572e+02
7.800000e-07	-7.262780e-07	-3.410514e-09	-5.059511e+00	-2.254497e+02
7.900000e-07	-5.705265e-07	-3.211821e-09	-3.974490e+00	-2.123368e+02
8.000000e-07	-4.145963e-07	-3.008200e-09	-2.888225e+00	-1.988135e+02
8.100000e-07	-2.585192e-07	-2.798190e-09	-1.800936e+00	-1.848633e+02
8.200000e-07	-1.023096e-07	-2.575584e-09	-7.127253e-01	-1.704553e+02
8.300000e-07	5.399857e-08	-2.343104e-09	3.761732e-01	-1.555438e+02
8.400000e-07	2.103183e-07	-2.104988e-09	1.465152e+00	-1.400692e+02
8.500000e-07	3.666189e-07	-1.858209e-09	2.553998e+00	-1.239620e+02
8.600000e-07	5.228936e-07	-1.602191e-09	3.642662e+00	-1.071491e+02
8.700000e-07	6.789961e-07	-1.335068e-09	4.730128e+00	-8.956205e+01
8.800000e-07	8.348512e-07	-1.059869e-09	5.815870e+00	-7.114591e+01
8.900000e-07	9.904578e-07	-7.710147e-10	6.899881e+00	-5.186900e+01
9.000000e-07	1.145694e-06	-4.673177e-10	7.981308e+00	-3.173125e+01
9.100000e-07	1.300464e-06	-1.506923e-10	9.059496e+00	-1.077076e+01
9.200000e-07	1.454699e-06	1.789085e-10	1.013395e+01	1.093249e+01
9.300000e-07	1.608359e-06	5.191723e-10	1.120440e+01	3.325651e+01
9.400000e-07	1.761419e-06	8.678829e-10	1.227067e+01	5.604079e+01
9.500000e-07	1.913865e-06	1.220491e-09	1.333266e+01	7.909343e+01
9.600000e-07	2.065647e-06	1.576062e-09	1.439003e+01	1.022013e+02
9.700000e-07	2.216597e-06	1.929508e-09	1.544160e+01	1.251424e+02
9.800000e-07	2.366561e-06	2.275514e-09	1.648630e+01	1.476989e+02
9.900000e-07	2.515603e-06	2.609487e-09	1.752459e+01	1.696701e+02
1.000000e-06	2.663824e-06	2.930062e-09	1.855715e+01	1.908841e+02
1.010000e-06	2.811127e-06	3.235869e-09	1.958331e+01	2.112061e+02
1.020000e-06	2.957315e-06	3.526862e-09	2.060171e+01	2.305441e+02
1.030000e-06	3.102361e-06	3.800856e-09	2.161215e+01	2.488502e+02
1.040000e-06	3.246275e-06	4.058597e-09	2.261470e+01	2.661184e+02
1.050000e-06	3.388941e-06	4.303217e-09	2.360856e+01	2.823791e+02
1.060000e-06	3.530354e-06	4.536739e-09	2.459370e+01	2.976910e+02
1.070000e-06	3.670461e-06	4.757752e-09	2.556973e+01	3.121314e+02
1.080000e-06	3.809125e-06	4.967485e-09	2.653572e+01	3.257861e+02
1.090000e-06	3.946333e-06	5.167192e-09	2.749156e+01	3.387398e+02
1.100000e-06	4.082088e-06	5.355457e-09	2.843727e+01	3.510690e+02
1.110000e-06	4.216291e-06	5.534123e-09	2.937218e+01	3.628359e+02
1.120000e-06	4.348980e-06	5.703531e-09	3.029654e+01	3.740857e+02
1.130000e-06	4.480192e-06	5.866161e-09	3.121061e+01	3.848470e+02
1.140000e-06	4.609839e-06	6.022479e-09	3.211378e+01	3.951333e+02
1.150000e-06	4.737842e-06	6.171157e-09	3.300549e+01	4.049474e+02
1.160000e-06	4.864163e-06	6.313041e-09	3.388549e+01	4.142863e+02
1.170000e-06	4.988863e-06	6.447410e-09	3.475419e+01	4.231463e+02
1.180000e-06	5.111837e-06	6.573610e-09	3.561087e+01	4.315274e+02
1.190000e-06	5.233008e-06	6.691876e-09	3.645499e+01	4.394367e+02
1.200000e-06	5.352313e-06	6.803861e-09	3.728612e+01	4.468906e+02
1.210000e-06	5.469580e-06	6.910784e-09	3.810304e+01	4.539147e+02
1.220000e-06	5.584736e-06	7.011270e-09	3.890525e+01	4.605423e+02
1.230000e-06	5.697695e-06	7.107149e-09	3.969216e+01	4.668123e+02
1.240000e-06	5.808452e-06	7.198693e-09	4.046374e+01	4.727656e+02
1.250000e-06	5.917210e-06	7.286749e-09	4.122138e+01	4.784416e+02
1.260000e-06	6.023949e-06	7.370394e-09	4.196497e+01	4.838755e+02
1.270000e-06	6.128417e-06	7.449342e-09	4.269273e+01	4.890957e+02
1.280000e-06	6.230591e-06	7.523137e-09	4.340451e+01	4.941225e+02
1.290000e-06	6.330539e-06	7.594356e-09	4.410078e+01	4.989683e+02
1.300000e-06	6.428126e-06	7.665018e-09	4.478061e+01	5.036384e+02
1.310000e-06	6.523252e-06	7.734030e-09	4.544329e+01	5.081325e+02
1.320000e-06	6.616065e-06	7.799257e-09	4.608986e+01	5.124475e+02
1.330000e-06	6.706568e-06	7.860008e-09	4.672034e+01	5.165790e+02
1.340000e-06	6.794624e-06	7.918646e-09	4.733376e+01	5.205239e+02
1.350000e-06	6.880252e-06	7.975406e-09	4.793028e+01	5.242816e+02
1.360000e-06	6.963481e-06	8.029779e-09	4.851008e+01	5.278544e+02
1.370000e-06	7.044177e-06	8.081764e-09	4.907224e+01	5.312478e+02
1.380000e-06	7.122313e-06	8.131755e-09	4.961656e+01	5.344695e+02
1.390000e-06	7.197852e-06	8.178870e-09	5.014279e+01	5.375279e+02
1.400000e-06	7.270619e-06	8.223653e-09	5.064971e+01	5.404312e+02
1.410000e-06	7.340776e-06	8.265757e-09	5.113845e+01	5.431858e+02
1.420000e-06	7.408448e-06	8.304343e-09	5.160988e+01	5.457954e+02
1.430000e-06	7.473467e-06	8.338988e-09	5.206283e+01	5.482609e+02
1.440000e-06	7.535834e-06	8.371991e-09	5.249729e+01	5.505802e+02
1.450000e-06	7.595706e-06	8.404989e-09	5.291438e+01	5.527496e+02
1.460000e-06	7.652917e-06	8.435725e-09	5.331294e+01	5.547645e+02
1.470000e-06	7.707338e-06	8.462884e-09	5.369205e+01	5.566213e+02
1.480000e-06	7.758732e-06	8.486070e-09	5.405008e+01	5.583184e+02
1.490000e-06	7.806905e-06	8.507661e-09	5.438567e+01	5.598576e+02
1.500000e-06	7.852203e-06	8.529089e-09	5.470123e+01	5.612441e+02
1.510000e-06	7.894759e-06	8.549648e-09	5.499770e+01	5.624873e+02
1.520000e-06	7.934459e-06	8.568268e-09	5.527426e+01	5.635992e+02
1.530000e-06	7.971390e-06	8.583002e-09	5.553153e+01	5.645940e+02
1.540000e-06	8.005557e-06	8.596219e-09	5.576956e+01	5.654859e+02
1.550000e-06	8.036815e-06	8.609755e-09	5.598731e+01	5.662881e+02
1.560000e-06	8.065261e-06	8.622548e-09	5.618547e+01	5.670111e+02
1.570000e-06	8.090822e-06	8.632413e-09	5.636354e+01	5.676616e+02
1.580000e-06	8.113405e-06	8.640483e-09	5.652086e+01	5.682422e+02
1.590000e-06	8.133208e-06	8.649208e-09	5.665881e+01	5.687517e+02
1.600000e-06	8.150056e-06	8.656038e-09	5.677618e+01	5.691852e+02
1.610000e-06	8.163811e-06	8.661092e-09	5.687200e+01	5.695363e+02
1.620000e-06	8.174398e-06	8.664916e-09	5.694576e+01	5.697977e+02
1.630000e-06	8.181806e-06	8.668627e-09	5.699737e+01	5.699634e+02
1.640000e-06	8.186396e-06	8.672243e-09	5.702935e+01	5.700295e+02
1.650000e-06	8.188141e-06	8.675475e-09	5.704150e+01	5.699954e+02
1.660000e-06	8.186986e-06	8.675090e-09	5.703345e+01	5.698644e+02
1.670000e-06	8.183155e-06	8.666496e-09	5.700676e+01	5.696428e+02
1.680000e-06	8.176543e-06	8.662471e-09	5.696070e+01	5.693398e+02
1.690000e-06	8.167139e-06	8.657951e-09	5.689519e+01	5.689661e+02
1.700000e-06	8.154966e-06	8.653527e-09	5.681039e+01	5.685322e+02
1.710000e-06	8.139880e-06	8.653797e-09	5.670529e+01	5.680475e+02
1.720000e-06	8.122185e-06	8.656178e-09	5.658203e+01	5.675188e+02
1.730000e-06	8.102202e-06	8.655143e-09	5.644281e+01	5.669495e+02
1.740000e-06	8.079600e-06	8.563319e-09	5.628537e+01	5.663394e+02
1.750000e-06	8.053686e-06	8.533973e-09	5.610484e+01	5.656849e+02
1.760000e-06	8.023971e-06	8.586413e-09	5.589783e+01	5.649797e+02
1.770000e-06	7.990825e-06	8.578159e-09	5.566692e+01	5.642156e+02
1.780000e-06	7.955202e-06	8.561723e-09	5.541876e+01	5.633839e+02
1.790000e-06	7.917269e-06	8.611126e-09	5.515451e+01	5.624762e+02
1.800000e-06	7.877054e-06	8.614928e-09	5.487436e+01	5.614856e+02
1.810000e-06	7.834822e-06	8.455507e-09	5.458015e+01	5.604069e+02
1.820000e-06	7.790014e-06	8.556160e-09	5.426801e+01	5.592371e+02
1.830000e-06	7.742380e-06	8.538724e-09	5.393617e+01	5.579749e+02
1.840000e-06	7.692023e-06	8.464398e-09	5.358537e+01	5.566201e+02
1.850000e-06	7.638473e-06	8.538729e-09	5.321231e+01	5.551731e+02
1.860000e-06	7.581976e-06	8.396890e-09	5.281874e+01	5.536341e+02
1.870000e-06	7.522802e-06	8.430232e-09	5.240651e+01	5.520022e+02
1.880000e-06	7.460831e-06	8.364922e-09	5.197480e+01	5.502756e+02
1.890000e-06	7.396125e-06	8.353021e-09	5.152404e+01	5.484509e+02
1.900000e-06	7.328556e-06	8.405661e-09	5.105333e+01	5.465240e+02
1.910000e-06	7.258107e-06	8.264462e-09	5.056255e+01	5.444906e+02
1.920000e-06	7.184761e-06	8.283563e-09	5.005159e+01	5.423465e+02
1.930000e-06	7.108683e-06	8.231800e-09	4.952161e+01	5.400889e+02
1.940000e-06	7.029819e-06	8.227924e-09	4.897222e+01	5.377166e+02
1.950000e-06	6.948241e-06	8.177431e-09	4.840391e+01	5.352303e+02
1.960000e-06	6.864227e-06	8.111293e-09	4.781864e+01	5.326327e+02
1.970000e-06	6.777545e-06	8.123490e-09	4.721479e+01	5.299281e+02
1.980000e-06	6.688289e-06	8.013646e-09	4.659300e+01	5.271212e+02
1.990000e-06	6.596715e-06	8.000306e-09	4.595506e+01	5.242166e+02
2.000000e-06	6.502884e-06	7.964894e-09	4.530140e+01	5.212175e+02
2.010000e-06	6.406778e-06	7.936572e-09	4.463189e+01	5.181250e+02
2.020000e-06	6.308388e-06	7.855558e-09	4.394647e+01	5.149373e+02
2.030000e-06	6.207742e-06	7.794045e-09	4.324533e+01	5.116498e+02
2.040000e-06	6.104773e-06	7.765987e-09	4.252802e+01	5.082550e+02
2.050000e-06	5.999619e-06	7.704340e-09	4.179548e+01	5.047437e+02
2.060000e-06	5.892421e-06	7.656709e-09	4.104870e+01	5.011057e+02
2.070000e-06	5.783275e-06	7.585810e-09	4.028834e+01	4.973309e+02
2.080000e-06	5.672083e-06	7.546181e-09	3.951375e+01	4.934107e+02
2.090000e-06	5.558749e-06	7.470135e-09	3.872422e+01	4.893388e+02
2.100000e-06	5.443296e-06	7.413338e-09	3.791993e+01	4.851114e+02
2.110000e-06	5.325759e-06	7.348422e-09	3.710113e+01	4.807277e+02
2.120000e-06	5.206169e-06	7.282401e-09	3.626802e+01	4.761889e+02
2.130000e-06	5.084624e-06	7.198698e-09	3.542130e+01	4.714975e+02
2.140000e-06	4.961275e-06	7.122032e-09	3.456200e+01	4.666562e+02
2.150000e-06	4.836126e-06	7.059684e-09	3.369017e+01	4.616661e+02
2.160000e-06	4.709218e-06	6.985243e-09	3.280609e+01	4.565264e+02
2.170000e-06	4.580542e-06	6.903175e-09	3.190968e+01	4.512328e+02
2.180000e-06	4.450221e-06	6.808265e-09	3.100182e+01	4.457778e+02
2.190000e-06	4.318269e-06	6.729003e-09	3.008259e+01	4.401511e+02
2.200000e-06	4.184758e-06	6.641349e-09	2.915251e+01	4.343399e+02
2.210000e-06	4.049724e-06	6.555736e-09	2.821181e+01	4.283312e+02
2.220000e-06	3.913092e-06	6.458985e-09	2.725999e+01	4.221121e+02
2.230000e-06	3.774905e-06	6.359537e-09	2.629733e+01	4.156722e+02
2.240000e-06	3.635266e-06	6.249122e-09	2.532455e+01	4.090040e+02
2.250000e-06	3.494234e-06	6.140813e-09	2.434208e+01	4.021037e+02
2.260000e-06	3.351845e-06	6.038241e-09	2.335014e+01	3.949709e+02
2.270000e-06	3.208170e-06	5.934299e-09	2.234925e+01	3.876074e+02
2.280000e-06	3.063261e-06	5.821462e-09	2.133977e+01	3.800162e+02
2.290000e-06	2.917262e-06	5.699965e-09	2.032268e+01	3.721992e+02
2.300000e-06	2.770207e-06	5.579906e-09	1.929825e+01	3.641550e+02
2.310000e-06	2.622174e-06	5.455446e-09	1.826700e+01	3.558779e+02
2.320000e-06	2.473258e-06	5.326844e-09	1.722959e+01	3.473562e+02
2.330000e-06	2.323579e-06	5.189193e-09	1.618688e+01	3.385721e+02
2.340000e-06	2.173137e-06	5.045488e-09	1.513884e+01	3.295024e+02
2.350000e-06	2.021892e-06	4.901344e-09	1.408522e+01	3.201203e+02
2.360000e-06	1.869926e-06	4.757528e-09	1.302657e+01	3.103977e+02
2.370000e-06	1.717278e-06	4.606978e-09	1.196317e+01	3.003076e+02
2.380000e-06	1.564096e-06	4.445373e-09	1.089604e+01	2.898273e+02
2.390000e-06	1.410497e-06	4.277381e-09	9.826026e+00	2.789401e+02
2.400000e-06	1.256477e-06	4.107250e-09	8.753062e+00	2.676365e+02
2.410000e-06	1.102006e-06	3.931902e-09	7.676968e+00	2.559142e+02
2.420000e-06	9.471245e-07	3.751493e-09	6.598006e+00	2.437763e+02
2.430000e-06	7.919104e-07	3.564118e-09	5.516729e+00	2.312284e+02
2.440000e-06	6.363836e-07	3.366164e-09	4.433274e+00	2.182747e+02
2.450000e-06	4.806265e-07	3.158636e-09	3.348215e+00	2.049138e+02
2.460000e-06	3.246881e-07	2.945156e-09	2.261893e+00	1.911340e+02
2.470000e-06	1.685196e-07	2.726932e-09	1.173967e+00	1.769104e+02
2.480000e-06	1.225203e-08	2.500083e-09	8.535199e-02	1.622030e+02
2.490000e-06	-1.439587e-07	2.264965e-09	-1.002868e+00	1.469573e+02
2.500000e-06	-3.001290e-07	2.022834e-09	-2.090805e+00	1.311072e+02
2.510000e-06	-4.562519e-07	1.769604e-09	-3.178413e+00	1.145801e+02
2.520000e-06	-6.122632e-07	1.503410e-09	-4.265243e+00	9.730459e+01
2.530000e-06	-7.680526e-07	1.224574e-09	-5.350527e+00	7.921932e+01
2.540000e-06	-9.235282e-07	9.354310e-10	-6.433626e+00	6.028239e+01
2.550000e-06	-1.078607e-06	6.366397e-10	-7.513962e+00	4.048040e+01
2.560000e-06	-1.233254e-06	3.263188e-10	-8.591282e+00	1.983584e+01
2.570000e-06	-1.387475e-06	4.239043e-12	-9.665641e+00	-1.587978e+00
2.580000e-06	-1.541252e-06	-3.298631e-10	-1.073691e+01	-2.368537e+01
2.590000e-06	-1.694555e-06	-6.766539e-10	-1.180487e+01	-4.631028e+01
2.600000e-06	-1.847288e-06	-1.033298e-09	-1.286886e+01	-6.928210e+01
2.610000e-06	-1.999286e-06	-1.394363e-09	-1.392774e+01	-9.239468e+01
2.620000e-06	-2.150412e-06	-1.754233e-09	-1.498053e+01	-1.154279e+02
2.630000e-06	-2.300685e-06	-2.106146e-09	-1.602739e+01	-1.381607e+02
2.640000e-06	-2.450143e-06	-2.445628e-09	-1.706857e+01	-1.603843e+02
2.650000e-06	-2.598713e-06	-2.771589e-09	-1.810356e+01	-1.819142e+02
2.660000e-06	-2.746248e-06	-3.083671e-09	-1.913134e+01	-2.026002e+02
2.670000e-06	-2.892717e-06	-3.381299e-09	-2.015170e+01	-2.223330e+02
2.680000e-06	-3.038183e-06	-3.665583e-09	-2.116506e+01	-2.410475e+02
2.690000e-06	-3.182539e-06	-3.936129e-09	-2.217069e+01	-2.587218e+02
2.700000e-06	-3.325615e-06	-4.189974e-09	-2.316742e+01	-2.753728e+02
2.710000e-06	-3.467440e-06	-4.428694e-09	-2.415542e+01	-2.910491e+02
2.720000e-06	-3.607942e-06	-4.656809e-09	-2.513421e+01	-3.058220e+02
2.730000e-06	-3.746955e-06	-4.876004e-09	-2.610262e+01	-3.197751e+02
2.740000e-06	-3.884565e-06	-5.085010e-09	-2.706126e+01	-3.329946e+02
2.750000e-06	-4.020784e-06	-5.281590e-09	-2.801021e+01	-3.455610e+02
2.760000e-06	-4.155488e-06	-5.465991e-09	-2.894860e+01	-3.575425e+02
2.770000e-06	-4.288730e-06	-5.640755e-09	-2.987682e+01	-3.689913e+02
2.780000e-06	-4.420448e-06	-5.807326e-09	-3.079441e+01	-3.799422e+02
2.790000e-06	-4.550667e-06	-5.965252e-09	-3.170156e+01	-3.904143e+02
2.800000e-06	-4.679461e-06	-6.114571e-09	-3.259879e+01	-4.004142e+02
2.810000e-06	-4.806604e-06	-6.255885e-09	-3.348451e+01	-4.099405e+02
2.820000e-06	-4.932012e-06	-6.391633e-09	-3.435815e+01	-4.189891e+02
2.830000e-06	-5.055676e-06	-6.523336e-09	-3.521964e+01	-4.275579e+02
2.840000e-06	-5.177582e-06	-6.649991e-09	-3.606887e+01	-4.356513e+02
2.850000e-06	-5.297638e-06	-6.767632e-09	-3.690523e+01	-4.432817e+02
2.860000e-06	-5.415632e-06	-6.877839e-09	-3.772722e+01	-4.504711e+02
2.870000e-06	-5.531414e-06	-6.984229e-09	-3.853379e+01	-4.572502e+02
2.880000e-06	-5.644933e-06	-7.085050e-09	-3.932461e+01	-4.636560e+02
2.890000e-06	-5.756159e-06	-7.180427e-09	-4.009945e+01	-4.697289e+02
2.900000e-06	-5.865266e-06	-7.270096e-09	-4.085953e+01	-4.755095e+02
2.910000e-06	-5.972465e-06	-7.354907e-09	-4.160631e+01	-4.810348e+02
2.920000e-06	-6.077581e-06	-7.436362e-09	-4.233859e+01	-4.863362e+02
2.930000e-06	-6.180350e-06	-7.513002e-09	-4.305451e+01	-4.914371e+02
2.940000e-06	-6.280747e-06	-7.587505e-09	-4.375391e+01	-4.963532e+02
