# Temperatura_=_79.91
# Concentracion g/m^3_=_15000.0
# C_Vs_to_Am_M_A/Vsm_=_65563218390.804596
# pendiente_HvsI_1/m_=_3716.3
# ordenada_HvsI_A/m_=_1297.0
# frecuencia_Hz_=_302362.7627039924

Tiempo_(s)	Campo_(V.s)	Magnetizacion_(V.s)	Campo_(kA/m)	Magnetizacion_(A/m)
0.000000e+00	-8.164067e-06	-1.294312e-08	-5.689873e+01	-8.470665e+02
1.000000e-08	-8.159371e-06	-1.293793e-08	-5.686601e+01	-8.465844e+02
2.000000e-08	-8.152089e-06	-1.292569e-08	-5.681525e+01	-8.459637e+02
3.000000e-08	-8.141992e-06	-1.291461e-08	-5.674488e+01	-8.452222e+02
4.000000e-08	-8.128972e-06	-1.290273e-08	-5.665414e+01	-8.443753e+02
5.000000e-08	-8.113055e-06	-1.288642e-08	-5.654321e+01	-8.434350e+02
6.000000e-08	-8.094486e-06	-1.286615e-08	-5.641380e+01	-8.424076e+02
7.000000e-08	-8.073599e-06	-1.283763e-08	-5.626822e+01	-8.412945e+02
8.000000e-08	-8.050109e-06	-1.284695e-08	-5.610452e+01	-8.400920e+02
9.000000e-08	-8.023449e-06	-1.288369e-08	-5.591871e+01	-8.387928e+02
1.000000e-07	-7.993553e-06	-1.283539e-08	-5.571035e+01	-8.373880e+02
1.100000e-07	-7.960625e-06	-1.277190e-08	-5.548086e+01	-8.358679e+02
1.200000e-07	-7.924786e-06	-1.273531e-08	-5.523109e+01	-8.342245e+02
1.300000e-07	-7.886418e-06	-1.270024e-08	-5.496368e+01	-8.324514e+02
1.400000e-07	-7.845688e-06	-1.265136e-08	-5.467982e+01	-8.305447e+02
1.500000e-07	-7.802579e-06	-1.261233e-08	-5.437937e+01	-8.285026e+02
1.600000e-07	-7.756888e-06	-1.265848e-08	-5.406094e+01	-8.263240e+02
1.700000e-07	-7.708299e-06	-1.254936e-08	-5.372230e+01	-8.240075e+02
1.800000e-07	-7.656808e-06	-1.250347e-08	-5.336344e+01	-8.215503e+02
1.900000e-07	-7.602435e-06	-1.252563e-08	-5.298449e+01	-8.189471e+02
2.000000e-07	-7.545181e-06	-1.240486e-08	-5.258546e+01	-8.161895e+02
2.100000e-07	-7.485217e-06	-1.237964e-08	-5.216755e+01	-8.132665e+02
2.200000e-07	-7.422620e-06	-1.233664e-08	-5.173129e+01	-8.101655e+02
2.300000e-07	-7.357327e-06	-1.229400e-08	-5.127623e+01	-8.068736e+02
2.400000e-07	-7.289248e-06	-1.223612e-08	-5.080176e+01	-8.033796e+02
2.500000e-07	-7.218344e-06	-1.217414e-08	-5.030760e+01	-7.996758e+02
2.600000e-07	-7.144574e-06	-1.213701e-08	-4.979347e+01	-7.957594e+02
2.700000e-07	-7.067928e-06	-1.204817e-08	-4.925929e+01	-7.916334e+02
2.800000e-07	-6.988446e-06	-1.197600e-08	-4.870535e+01	-7.873065e+02
2.900000e-07	-6.906344e-06	-1.190227e-08	-4.813314e+01	-7.827922e+02
3.000000e-07	-6.821943e-06	-1.185920e-08	-4.754492e+01	-7.781070e+02
3.100000e-07	-6.735140e-06	-1.179355e-08	-4.693995e+01	-7.732679e+02
3.200000e-07	-6.645799e-06	-1.169250e-08	-4.631730e+01	-7.682900e+02
3.300000e-07	-6.554053e-06	-1.163455e-08	-4.567789e+01	-7.631838e+02
3.400000e-07	-6.459999e-06	-1.155575e-08	-4.502239e+01	-7.579536e+02
3.500000e-07	-6.363538e-06	-1.146330e-08	-4.435011e+01	-7.525965e+02
3.600000e-07	-6.264694e-06	-1.136633e-08	-4.366122e+01	-7.471024e+02
3.700000e-07	-6.163645e-06	-1.128589e-08	-4.295697e+01	-7.414552e+02
3.800000e-07	-6.060339e-06	-1.120169e-08	-4.223699e+01	-7.356355e+02
3.900000e-07	-5.954826e-06	-1.110533e-08	-4.150162e+01	-7.296224e+02
4.000000e-07	-5.847305e-06	-1.101839e-08	-4.075227e+01	-7.233971e+02
4.100000e-07	-5.737815e-06	-1.091859e-08	-3.998919e+01	-7.169453e+02
4.200000e-07	-5.626205e-06	-1.081792e-08	-3.921133e+01	-7.102586e+02
4.300000e-07	-5.512424e-06	-1.070094e-08	-3.841835e+01	-7.033357e+02
4.400000e-07	-5.396508e-06	-1.059429e-08	-3.761048e+01	-6.961817e+02
4.500000e-07	-5.278543e-06	-1.049222e-08	-3.678833e+01	-6.888062e+02
4.600000e-07	-5.158685e-06	-1.037885e-08	-3.595299e+01	-6.812211e+02
4.700000e-07	-5.036998e-06	-1.025442e-08	-3.510490e+01	-6.734375e+02
4.800000e-07	-4.913461e-06	-1.013404e-08	-3.424393e+01	-6.654626e+02
4.900000e-07	-4.788150e-06	-1.001675e-08	-3.337059e+01	-6.572971e+02
5.000000e-07	-4.661188e-06	-9.882921e-09	-3.248573e+01	-6.489342e+02
5.100000e-07	-4.532529e-06	-9.744035e-09	-3.158906e+01	-6.403592e+02
5.200000e-07	-4.402159e-06	-9.608744e-09	-3.068045e+01	-6.315507e+02
5.300000e-07	-4.270117e-06	-9.473805e-09	-2.976020e+01	-6.224832e+02
5.400000e-07	-4.136590e-06	-9.324335e-09	-2.882960e+01	-6.131300e+02
5.500000e-07	-4.001538e-06	-9.171548e-09	-2.788836e+01	-6.034674e+02
5.600000e-07	-3.864804e-06	-9.017974e-09	-2.693540e+01	-5.934772e+02
5.700000e-07	-3.726492e-06	-8.858060e-09	-2.597145e+01	-5.831496e+02
5.800000e-07	-3.586669e-06	-8.695487e-09	-2.499697e+01	-5.724841e+02
5.900000e-07	-3.445283e-06	-8.533259e-09	-2.401159e+01	-5.614887e+02
6.000000e-07	-3.302504e-06	-8.367862e-09	-2.301651e+01	-5.501778e+02
6.100000e-07	-3.158531e-06	-8.188410e-09	-2.201310e+01	-5.385688e+02
6.200000e-07	-3.013390e-06	-8.003243e-09	-2.100155e+01	-5.266779e+02
6.300000e-07	-2.867136e-06	-7.819757e-09	-1.998225e+01	-5.145150e+02
6.400000e-07	-2.719846e-06	-7.632249e-09	-1.895572e+01	-5.020811e+02
6.500000e-07	-2.571685e-06	-7.434729e-09	-1.792313e+01	-4.893645e+02
6.600000e-07	-2.422774e-06	-7.231459e-09	-1.688531e+01	-4.763413e+02
6.700000e-07	-2.273027e-06	-7.024183e-09	-1.584166e+01	-4.629758e+02
6.800000e-07	-2.122435e-06	-6.809845e-09	-1.479212e+01	-4.492243e+02
6.900000e-07	-1.971084e-06	-6.592757e-09	-1.373729e+01	-4.350393e+02
7.000000e-07	-1.819024e-06	-6.368433e-09	-1.267753e+01	-4.203752e+02
7.100000e-07	-1.666387e-06	-6.135874e-09	-1.161373e+01	-4.051932e+02
7.200000e-07	-1.513181e-06	-5.894799e-09	-1.054598e+01	-3.894656e+02
7.300000e-07	-1.359364e-06	-5.650351e-09	-9.473965e+00	-3.731777e+02
7.400000e-07	-1.205032e-06	-5.400421e-09	-8.398361e+00	-3.563270e+02
7.500000e-07	-1.050308e-06	-5.138866e-09	-7.320031e+00	-3.389206e+02
7.600000e-07	-8.952312e-07	-4.867920e-09	-6.239234e+00	-3.209694e+02
7.700000e-07	-7.398964e-07	-4.585554e-09	-5.156641e+00	-3.024803e+02
7.800000e-07	-5.843790e-07	-4.294682e-09	-4.072777e+00	-2.834481e+02
7.900000e-07	-4.286664e-07	-3.995379e-09	-2.987552e+00	-2.638482e+02
8.000000e-07	-2.727982e-07	-3.686096e-09	-1.901242e+00	-2.436305e+02
8.100000e-07	-1.168501e-07	-3.362097e-09	-8.143765e-01	-2.227169e+02
8.200000e-07	3.917558e-08	-3.023605e-09	2.730307e-01	-2.010030e+02
8.300000e-07	1.952512e-07	-2.674182e-09	1.360786e+00	-1.783639e+02
8.400000e-07	3.513181e-07	-2.312195e-09	2.448480e+00	-1.546646e+02
8.500000e-07	5.072961e-07	-1.931984e-09	3.535555e+00	-1.297741e+02
8.600000e-07	6.631558e-07	-1.530860e-09	4.621805e+00	-1.035814e+02
8.700000e-07	8.188813e-07	-1.114697e-09	5.707120e+00	-7.601239e+01
8.800000e-07	9.743962e-07	-6.823321e-10	6.790967e+00	-4.704535e+01
8.900000e-07	1.129626e-06	-2.311074e-10	7.872828e+00	-1.672283e+01
9.000000e-07	1.284460e-06	2.405149e-10	8.951931e+00	1.484111e+01
9.100000e-07	1.438786e-06	7.334574e-10	1.002749e+01	4.745981e+01
9.200000e-07	1.592528e-06	1.246369e-09	1.109898e+01	8.087955e+01
9.300000e-07	1.745686e-06	1.771767e-09	1.216641e+01	1.147915e+02
9.400000e-07	1.898213e-06	2.297603e-09	1.322942e+01	1.488488e+02
9.500000e-07	2.050003e-06	2.819239e-09	1.428731e+01	1.826879e+02
9.600000e-07	2.201050e-06	3.330078e-09	1.534002e+01	2.159511e+02
9.700000e-07	2.351264e-06	3.822420e-09	1.638693e+01	2.483091e+02
9.800000e-07	2.500448e-06	4.290223e-09	1.742665e+01	2.794802e+02
9.900000e-07	2.648654e-06	4.730922e-09	1.845956e+01	3.092458e+02
1.000000e-06	2.795973e-06	5.148498e-09	1.948629e+01	3.374590e+02
1.010000e-06	2.942253e-06	5.546685e-09	2.050577e+01	3.640474e+02
1.020000e-06	3.087426e-06	5.922388e-09	2.151754e+01	3.890094e+02
1.030000e-06	3.231465e-06	6.275259e-09	2.252141e+01	4.124039e+02
1.040000e-06	3.374253e-06	6.608180e-09	2.351655e+01	4.343371e+02
1.050000e-06	3.515724e-06	6.923977e-09	2.450253e+01	4.549455e+02
1.060000e-06	3.655847e-06	7.223299e-09	2.547910e+01	4.743793e+02
1.070000e-06	3.794581e-06	7.507728e-09	2.644599e+01	4.927867e+02
1.080000e-06	3.931832e-06	7.778641e-09	2.740255e+01	5.103010e+02
1.090000e-06	4.067624e-06	8.034306e-09	2.834894e+01	5.270323e+02
1.100000e-06	4.201968e-06	8.276367e-09	2.928524e+01	5.430625e+02
1.110000e-06	4.334754e-06	8.508287e-09	3.021068e+01	5.584460e+02
1.120000e-06	4.466024e-06	8.731564e-09	3.112555e+01	5.732130e+02
1.130000e-06	4.595774e-06	8.943523e-09	3.202984e+01	5.873763e+02
1.140000e-06	4.723892e-06	9.143561e-09	3.292274e+01	6.009386e+02
1.150000e-06	4.850382e-06	9.335392e-09	3.380430e+01	6.139006e+02
1.160000e-06	4.975214e-06	9.521420e-09	3.467431e+01	6.262671e+02
1.170000e-06	5.098311e-06	9.699254e-09	3.553222e+01	6.380519e+02
1.180000e-06	5.219637e-06	9.868463e-09	3.637779e+01	6.492790e+02
1.190000e-06	5.339063e-06	1.003185e-08	3.721012e+01	6.599827e+02
1.200000e-06	5.456446e-06	1.019076e-08	3.802821e+01	6.702041e+02
1.210000e-06	5.571736e-06	1.034330e-08	3.883172e+01	6.799873e+02
1.220000e-06	5.684895e-06	1.048943e-08	3.962037e+01	6.893743e+02
1.230000e-06	5.795916e-06	1.063095e-08	4.039412e+01	6.984002e+02
1.240000e-06	5.904841e-06	1.076575e-08	4.115326e+01	7.070908e+02
1.250000e-06	6.011650e-06	1.089195e-08	4.189765e+01	7.154600e+02
1.260000e-06	6.116284e-06	1.101361e-08	4.262689e+01	7.235109e+02
1.270000e-06	6.218677e-06	1.112956e-08	4.334051e+01	7.312376e+02
1.280000e-06	6.318769e-06	1.123964e-08	4.403810e+01	7.386292e+02
1.290000e-06	6.416536e-06	1.134599e-08	4.471947e+01	7.456742e+02
1.300000e-06	6.511929e-06	1.144809e-08	4.538430e+01	7.523648e+02
1.310000e-06	6.604937e-06	1.154452e-08	4.603252e+01	7.587007e+02
1.320000e-06	6.695572e-06	1.163273e-08	4.666419e+01	7.646916e+02
1.330000e-06	6.783771e-06	1.171556e-08	4.727888e+01	7.703577e+02
1.340000e-06	6.869592e-06	1.179601e-08	4.787701e+01	7.757284e+02
1.350000e-06	6.953030e-06	1.187544e-08	4.845852e+01	7.808395e+02
1.360000e-06	7.033940e-06	1.195284e-08	4.902241e+01	7.857293e+02
1.370000e-06	7.112317e-06	1.202736e-08	4.956865e+01	7.904339e+02
1.380000e-06	7.188080e-06	1.210046e-08	5.009668e+01	7.949828e+02
1.390000e-06	7.261115e-06	1.217016e-08	5.060569e+01	7.993956e+02
1.400000e-06	7.331513e-06	1.223628e-08	5.109633e+01	8.036799e+02
1.410000e-06	7.399348e-06	1.229828e-08	5.156909e+01	8.078311e+02
1.420000e-06	7.464509e-06	1.235675e-08	5.202323e+01	8.118335e+02
1.430000e-06	7.527049e-06	1.241362e-08	5.245909e+01	8.156639e+02
1.440000e-06	7.587091e-06	1.246758e-08	5.287755e+01	8.192948e+02
1.450000e-06	7.644495e-06	1.251823e-08	5.327762e+01	8.226997e+02
1.460000e-06	7.699136e-06	1.256482e-08	5.365844e+01	8.258564e+02
1.470000e-06	7.750811e-06	1.260749e-08	5.401858e+01	8.287512e+02
1.480000e-06	7.799277e-06	1.264833e-08	5.435636e+01	8.313803e+02
1.490000e-06	7.844842e-06	1.268619e-08	5.467393e+01	8.337505e+02
1.500000e-06	7.887682e-06	1.271953e-08	5.497250e+01	8.358783e+02
1.510000e-06	7.927635e-06	1.274805e-08	5.525094e+01	8.377867e+02
1.520000e-06	7.964811e-06	1.277375e-08	5.551003e+01	8.395025e+02
1.530000e-06	7.999241e-06	1.279925e-08	5.574999e+01	8.410522e+02
1.540000e-06	8.030816e-06	1.282258e-08	5.597005e+01	8.424586e+02
1.550000e-06	8.059582e-06	1.284176e-08	5.617053e+01	8.437380e+02
1.560000e-06	8.085424e-06	1.285781e-08	5.635064e+01	8.448987e+02
1.570000e-06	8.108229e-06	1.287241e-08	5.650958e+01	8.459405e+02
1.580000e-06	8.128215e-06	1.288702e-08	5.664887e+01	8.468558e+02
1.590000e-06	8.145288e-06	1.289992e-08	5.676786e+01	8.476322e+02
1.600000e-06	8.159297e-06	1.290967e-08	5.686549e+01	8.482546e+02
1.610000e-06	8.170157e-06	1.291613e-08	5.694118e+01	8.487088e+02
1.620000e-06	8.177847e-06	1.292008e-08	5.699478e+01	8.489840e+02
1.630000e-06	8.182635e-06	1.292197e-08	5.702814e+01	8.490749e+02
1.640000e-06	8.184552e-06	1.292126e-08	5.704150e+01	8.489829e+02
1.650000e-06	8.183591e-06	1.291944e-08	5.703481e+01	8.487159e+02
1.660000e-06	8.179987e-06	1.290962e-08	5.700969e+01	8.482870e+02
1.670000e-06	8.173657e-06	1.290435e-08	5.696557e+01	8.477132e+02
1.680000e-06	8.164552e-06	1.289952e-08	5.690211e+01	8.470122e+02
1.690000e-06	8.152663e-06	1.289208e-08	5.681925e+01	8.462008e+02
1.700000e-06	8.137874e-06	1.288466e-08	5.671618e+01	8.452922e+02
1.710000e-06	8.120462e-06	1.287534e-08	5.659483e+01	8.442949e+02
1.720000e-06	8.100722e-06	1.286733e-08	5.645726e+01	8.432120e+02
1.730000e-06	8.078412e-06	1.279190e-08	5.630177e+01	8.420415e+02
1.740000e-06	8.052825e-06	1.272760e-08	5.612344e+01	8.407772e+02
1.750000e-06	8.023412e-06	1.275114e-08	5.591845e+01	8.394106e+02
1.760000e-06	7.990510e-06	1.274367e-08	5.568914e+01	8.379321e+02
1.770000e-06	7.955120e-06	1.271758e-08	5.544249e+01	8.363329e+02
1.780000e-06	7.917430e-06	1.273064e-08	5.517982e+01	8.346061e+02
1.790000e-06	7.877405e-06	1.274924e-08	5.490087e+01	8.327469e+02
1.800000e-06	7.835389e-06	1.259635e-08	5.460804e+01	8.307527e+02
1.810000e-06	7.790894e-06	1.260208e-08	5.429794e+01	8.286223e+02
1.820000e-06	7.743569e-06	1.264529e-08	5.396811e+01	8.263547e+02
1.830000e-06	7.693484e-06	1.254463e-08	5.361905e+01	8.239476e+02
1.840000e-06	7.640210e-06	1.260033e-08	5.324776e+01	8.213967e+02
1.850000e-06	7.583988e-06	1.249010e-08	5.285593e+01	8.186947e+02
1.860000e-06	7.525120e-06	1.245931e-08	5.244565e+01	8.158316e+02
1.870000e-06	7.463428e-06	1.242203e-08	5.201569e+01	8.127951e+02
1.880000e-06	7.398983e-06	1.233078e-08	5.156655e+01	8.095722e+02
1.890000e-06	7.331745e-06	1.235483e-08	5.109794e+01	8.061509e+02
1.900000e-06	7.261632e-06	1.221664e-08	5.060930e+01	8.025220e+02
1.910000e-06	7.188565e-06	1.218599e-08	5.010006e+01	7.986809e+02
1.920000e-06	7.112729e-06	1.212505e-08	4.957153e+01	7.946284e+02
1.930000e-06	7.034210e-06	1.207189e-08	4.902429e+01	7.903713e+02
1.940000e-06	6.952971e-06	1.202993e-08	4.845811e+01	7.859215e+02
1.950000e-06	6.869252e-06	1.190788e-08	4.787464e+01	7.812948e+02
1.960000e-06	6.782892e-06	1.188336e-08	4.727276e+01	7.765081e+02
1.970000e-06	6.693894e-06	1.176742e-08	4.665249e+01	7.715777e+02
1.980000e-06	6.602563e-06	1.170111e-08	4.601597e+01	7.665159e+02
1.990000e-06	6.508974e-06	1.163390e-08	4.536371e+01	7.613293e+02
2.000000e-06	6.413082e-06	1.156168e-08	4.469540e+01	7.560178e+02
2.010000e-06	6.314954e-06	1.147259e-08	4.401151e+01	7.505735e+02
2.020000e-06	6.214557e-06	1.136163e-08	4.331180e+01	7.449825e+02
2.030000e-06	6.111780e-06	1.129128e-08	4.259551e+01	7.392262e+02
2.040000e-06	6.006831e-06	1.119415e-08	4.186407e+01	7.332839e+02
2.050000e-06	5.899890e-06	1.111267e-08	4.111876e+01	7.271357e+02
2.060000e-06	5.790970e-06	1.099691e-08	4.035965e+01	7.207655e+02
2.070000e-06	5.679976e-06	1.090790e-08	3.958609e+01	7.141625e+02
2.080000e-06	5.566871e-06	1.080117e-08	3.879781e+01	7.073232e+02
2.090000e-06	5.451593e-06	1.069086e-08	3.799439e+01	7.002501e+02
2.100000e-06	5.334213e-06	1.057695e-08	3.717632e+01	6.929518e+02
2.110000e-06	5.214774e-06	1.047028e-08	3.634390e+01	6.854396e+02
2.120000e-06	5.093378e-06	1.035786e-08	3.549784e+01	6.777253e+02
2.130000e-06	4.970285e-06	1.022995e-08	3.463995e+01	6.698176e+02
2.140000e-06	4.845407e-06	1.011716e-08	3.376963e+01	6.617199e+02
2.150000e-06	4.718712e-06	9.995753e-09	3.288664e+01	6.534282e+02
2.160000e-06	4.590266e-06	9.865724e-09	3.199145e+01	6.449305e+02
2.170000e-06	4.460177e-06	9.715463e-09	3.108480e+01	6.362076e+02
2.180000e-06	4.328507e-06	9.579248e-09	3.016714e+01	6.272350e+02
2.190000e-06	4.195252e-06	9.438741e-09	2.923843e+01	6.179862e+02
2.200000e-06	4.060448e-06	9.298626e-09	2.829893e+01	6.084359e+02
2.210000e-06	3.924077e-06	9.150161e-09	2.734851e+01	5.985637e+02
2.220000e-06	3.786115e-06	9.001012e-09	2.638699e+01	5.883565e+02
2.230000e-06	3.646642e-06	8.840739e-09	2.541494e+01	5.778106e+02
2.240000e-06	3.505756e-06	8.671082e-09	2.443306e+01	5.669310e+02
2.250000e-06	3.363514e-06	8.503723e-09	2.344171e+01	5.557303e+02
2.260000e-06	3.220058e-06	8.334559e-09	2.244191e+01	5.442252e+02
2.270000e-06	3.075385e-06	8.159091e-09	2.143362e+01	5.324327e+02
2.280000e-06	2.929563e-06	7.972795e-09	2.041733e+01	5.203657e+02
2.290000e-06	2.782745e-06	7.785899e-09	1.939409e+01	5.080287e+02
2.300000e-06	2.634929e-06	7.592328e-09	1.836390e+01	4.954145e+02
2.310000e-06	2.486195e-06	7.395220e-09	1.732732e+01	4.825038e+02
2.320000e-06	2.336645e-06	7.191785e-09	1.628504e+01	4.692646e+02
2.330000e-06	2.186258e-06	6.981129e-09	1.523693e+01	4.556557e+02
2.340000e-06	2.035103e-06	6.763188e-09	1.418347e+01	4.416303e+02
2.350000e-06	1.883306e-06	6.541167e-09	1.312553e+01	4.271416e+02
2.360000e-06	1.730909e-06	6.315576e-09	1.206341e+01	4.121478e+02
2.370000e-06	1.578008e-06	6.080602e-09	1.099778e+01	3.966169e+02
2.380000e-06	1.424618e-06	5.836716e-09	9.928747e+00	3.805293e+02
2.390000e-06	1.270708e-06	5.586603e-09	8.856086e+00	3.638786e+02
2.400000e-06	1.116324e-06	5.326792e-09	7.780121e+00	3.466689e+02
2.410000e-06	9.615276e-07	5.058585e-09	6.701280e+00	3.289105e+02
2.420000e-06	8.064261e-07	4.782463e-09	5.620314e+00	3.106127e+02
2.430000e-06	6.510020e-07	4.497418e-09	4.537100e+00	2.917755e+02
2.440000e-06	4.952861e-07	4.199895e-09	3.451852e+00	2.723821e+02
2.450000e-06	3.393643e-07	3.890137e-09	2.365169e+00	2.523919e+02
2.460000e-06	1.832727e-07	3.573135e-09	1.277303e+00	2.317370e+02
2.470000e-06	2.712222e-08	3.242749e-09	1.890259e-01	2.103217e+02
2.480000e-06	-1.290393e-07	2.896794e-09	-8.993282e-01	1.880277e+02
2.490000e-06	-2.851688e-07	2.536881e-09	-1.987458e+00	1.647220e+02
2.500000e-06	-4.412109e-07	2.162118e-09	-3.074980e+00	1.402704e+02
2.510000e-06	-5.971918e-07	1.770694e-09	-4.162074e+00	1.145529e+02
2.520000e-06	-7.530027e-07	1.361863e-09	-5.247985e+00	8.748039e+01
2.530000e-06	-9.085360e-07	9.341206e-10	-6.331960e+00	5.901073e+01
2.540000e-06	-1.063756e-06	4.862148e-10	-7.413755e+00	2.916240e+01
2.550000e-06	-1.218564e-06	1.652090e-11	-8.492670e+00	-1.976495e+00
2.560000e-06	-1.372838e-06	-4.737638e-10	-9.567869e+00	-3.424494e+01
2.570000e-06	-1.526545e-06	-9.817300e-10	-1.063912e+01	-6.741211e+01
2.580000e-06	-1.679674e-06	-1.504279e-09	-1.170634e+01	-1.011871e+02
2.590000e-06	-1.832205e-06	-2.034351e-09	-1.276939e+01	-1.352344e+02
2.600000e-06	-1.984137e-06	-2.565412e-09	-1.382826e+01	-1.691940e+02
2.610000e-06	-2.135341e-06	-3.090404e-09	-1.488207e+01	-2.027032e+02
2.620000e-06	-2.285663e-06	-3.597109e-09	-1.592972e+01	-2.354203e+02
2.630000e-06	-2.435102e-06	-4.077863e-09	-1.697122e+01	-2.670445e+02
2.640000e-06	-2.583656e-06	-4.534464e-09	-1.800656e+01	-2.973334e+02
2.650000e-06	-2.731269e-06	-4.968606e-09	-1.903533e+01	-3.261137e+02
2.660000e-06	-2.877847e-06	-5.379440e-09	-2.005690e+01	-3.532868e+02
2.670000e-06	-3.023313e-06	-5.768982e-09	-2.107071e+01	-3.788264e+02
2.680000e-06	-3.167636e-06	-6.138640e-09	-2.207656e+01	-4.027712e+02
2.690000e-06	-3.310751e-06	-6.484110e-09	-2.307399e+01	-4.252125e+02
2.700000e-06	-3.452624e-06	-6.806588e-09	-2.406275e+01	-4.462777e+02
2.710000e-06	-3.593192e-06	-7.112890e-09	-2.504243e+01	-4.661142e+02
2.720000e-06	-3.732396e-06	-7.406886e-09	-2.601260e+01	-4.848724e+02
2.730000e-06	-3.870166e-06	-7.686053e-09	-2.697277e+01	-5.026924e+02
2.740000e-06	-4.006482e-06	-7.947896e-09	-2.792282e+01	-5.196930e+02
2.750000e-06	-4.141334e-06	-8.196844e-09	-2.886266e+01	-5.359666e+02
2.760000e-06	-4.274694e-06	-8.436810e-09	-2.979210e+01	-5.515770e+02
2.770000e-06	-4.406574e-06	-8.666085e-09	-3.071122e+01	-5.665626e+02
2.780000e-06	-4.536950e-06	-8.885077e-09	-3.161987e+01	-5.809415e+02
2.790000e-06	-4.665761e-06	-9.094363e-09	-3.251761e+01	-5.947190e+02
2.800000e-06	-4.792946e-06	-9.295571e-09	-3.340401e+01	-6.078958e+02
2.810000e-06	-4.918478e-06	-9.487886e-09	-3.427889e+01	-6.204745e+02
2.820000e-06	-5.042251e-06	-9.672359e-09	-3.514152e+01	-6.324655e+02
2.830000e-06	-5.164194e-06	-9.849041e-09	-3.599139e+01	-6.438889e+02
2.840000e-06	-5.284282e-06	-1.001423e-08	-3.682833e+01	-6.547757e+02
2.850000e-06	-5.402425e-06	-1.017076e-08	-3.765171e+01	-6.651649e+02
2.860000e-06	-5.518419e-06	-1.032241e-08	-3.846013e+01	-6.751003e+02
2.870000e-06	-5.632124e-06	-1.046997e-08	-3.925258e+01	-6.846248e+02
2.880000e-06	-5.743623e-06	-1.061228e-08	-4.002966e+01	-6.937768e+02
2.890000e-06	-5.852968e-06	-1.074837e-08	-4.079173e+01	-7.025856e+02
2.900000e-06	-5.960274e-06	-1.087995e-08	-4.153959e+01	-7.110693e+02
2.910000e-06	-6.065495e-06	-1.100563e-08	-4.227292e+01	-7.192347e+02
2.920000e-06	-6.168414e-06	-1.112364e-08	-4.299021e+01	-7.270789e+02
2.930000e-06	-6.269002e-06	-1.123684e-08	-4.369125e+01	-7.345922e+02
2.940000e-06	-6.367361e-06	-1.134463e-08	-4.437675e+01	-7.417627e+02
