# Temperatura_=_28.4
# Concentracion g/m^3_=_15000.0
# C_Vs_to_Am_M_A/Vsm_=_65563218390.804596
# pendiente_HvsI_1/m_=_3716.3
# ordenada_HvsI_A/m_=_1297.0
# frecuencia_Hz_=_301969.8884428027

Tiempo_(s)	Campo_(V.s)	Magnetizacion_(V.s)	Campo_(kA/m)	Magnetizacion_(A/m)
0.000000e+00	-6.857577e-06	-1.004829e-08	-4.747393e+01	-6.576902e+02
1.000000e-08	-6.853792e-06	-1.004199e-08	-4.744772e+01	-6.574521e+02
2.000000e-08	-6.847847e-06	-1.003356e-08	-4.740657e+01	-6.570732e+02
3.000000e-08	-6.839717e-06	-1.002659e-08	-4.735029e+01	-6.565572e+02
4.000000e-08	-6.829206e-06	-1.001857e-08	-4.727753e+01	-6.559134e+02
5.000000e-08	-6.816139e-06	-1.000743e-08	-4.718706e+01	-6.551553e+02
6.000000e-08	-6.800538e-06	-9.993598e-09	-4.707906e+01	-6.543000e+02
7.000000e-08	-6.782685e-06	-9.978669e-09	-4.695546e+01	-6.533663e+02
8.000000e-08	-6.762759e-06	-9.989668e-09	-4.681752e+01	-6.523726e+02
9.000000e-08	-6.740412e-06	-1.001330e-08	-4.666282e+01	-6.513348e+02
1.000000e-07	-6.715195e-06	-9.974375e-09	-4.648824e+01	-6.502650e+02
1.100000e-07	-6.687250e-06	-9.924979e-09	-4.629478e+01	-6.491694e+02
1.200000e-07	-6.657092e-06	-9.899084e-09	-4.608600e+01	-6.480481e+02
1.300000e-07	-6.624998e-06	-9.841563e-09	-4.586382e+01	-6.468949e+02
1.400000e-07	-6.590946e-06	-9.809130e-09	-4.562808e+01	-6.456976e+02
1.500000e-07	-6.554967e-06	-9.876319e-09	-4.537901e+01	-6.444395e+02
1.600000e-07	-6.516948e-06	-9.819158e-09	-4.511581e+01	-6.431008e+02
1.700000e-07	-6.476792e-06	-9.762465e-09	-4.483782e+01	-6.416605e+02
1.800000e-07	-6.434281e-06	-9.796589e-09	-4.454352e+01	-6.400981e+02
1.900000e-07	-6.389209e-06	-9.707372e-09	-4.423149e+01	-6.383956e+02
2.000000e-07	-6.341793e-06	-9.691626e-09	-4.390324e+01	-6.365385e+02
2.100000e-07	-6.291764e-06	-9.696453e-09	-4.355690e+01	-6.345170e+02
2.200000e-07	-6.239012e-06	-9.645862e-09	-4.319170e+01	-6.323262e+02
2.300000e-07	-6.183845e-06	-9.609819e-09	-4.280979e+01	-6.299661e+02
2.400000e-07	-6.126323e-06	-9.549123e-09	-4.241157e+01	-6.274408e+02
2.500000e-07	-6.066503e-06	-9.512368e-09	-4.199745e+01	-6.247578e+02
2.600000e-07	-6.004514e-06	-9.469394e-09	-4.156831e+01	-6.219268e+02
2.700000e-07	-5.940348e-06	-9.417822e-09	-4.112410e+01	-6.189586e+02
2.800000e-07	-5.873893e-06	-9.384449e-09	-4.066404e+01	-6.158634e+02
2.900000e-07	-5.805235e-06	-9.336850e-09	-4.018873e+01	-6.126507e+02
3.000000e-07	-5.734507e-06	-9.295347e-09	-3.969909e+01	-6.093274e+02
3.100000e-07	-5.661603e-06	-9.228380e-09	-3.919439e+01	-6.058982e+02
3.200000e-07	-5.586399e-06	-9.177909e-09	-3.867377e+01	-6.023646e+02
3.300000e-07	-5.508899e-06	-9.127753e-09	-3.813725e+01	-5.987255e+02
3.400000e-07	-5.429199e-06	-9.053856e-09	-3.758549e+01	-5.949768e+02
3.500000e-07	-5.347459e-06	-9.006373e-09	-3.701962e+01	-5.911125e+02
3.600000e-07	-5.263937e-06	-8.958056e-09	-3.644141e+01	-5.871247e+02
3.700000e-07	-5.178755e-06	-8.902976e-09	-3.585171e+01	-5.830045e+02
3.800000e-07	-5.091850e-06	-8.827479e-09	-3.525008e+01	-5.787426e+02
3.900000e-07	-5.003143e-06	-8.756383e-09	-3.463597e+01	-5.743303e+02
4.000000e-07	-4.912563e-06	-8.682890e-09	-3.400890e+01	-5.697596e+02
4.100000e-07	-4.820251e-06	-8.602610e-09	-3.336984e+01	-5.650240e+02
4.200000e-07	-4.726327e-06	-8.537464e-09	-3.271962e+01	-5.601187e+02
4.300000e-07	-4.630781e-06	-8.467141e-09	-3.205817e+01	-5.550412e+02
4.400000e-07	-4.533521e-06	-8.387301e-09	-3.138486e+01	-5.497906e+02
4.500000e-07	-4.434517e-06	-8.296751e-09	-3.069947e+01	-5.443679e+02
4.600000e-07	-4.334002e-06	-8.209568e-09	-3.000362e+01	-5.387754e+02
4.700000e-07	-4.232069e-06	-8.122668e-09	-2.929795e+01	-5.330157e+02
4.800000e-07	-4.128630e-06	-8.031003e-09	-2.858186e+01	-5.270918e+02
4.900000e-07	-4.023677e-06	-7.937766e-09	-2.785529e+01	-5.210053e+02
5.000000e-07	-3.917130e-06	-7.842016e-09	-2.711768e+01	-5.147565e+02
5.100000e-07	-3.809065e-06	-7.744717e-09	-2.636956e+01	-5.083433e+02
5.200000e-07	-3.699774e-06	-7.644504e-09	-2.561296e+01	-5.017611e+02
5.300000e-07	-3.589231e-06	-7.541972e-09	-2.484768e+01	-4.950027e+02
5.400000e-07	-3.477289e-06	-7.433487e-09	-2.407272e+01	-4.880585e+02
5.500000e-07	-3.363907e-06	-7.322385e-09	-2.328780e+01	-4.809173e+02
5.600000e-07	-3.249034e-06	-7.211061e-09	-2.249255e+01	-4.735670e+02
5.700000e-07	-3.132728e-06	-7.097654e-09	-2.168738e+01	-4.659956e+02
5.800000e-07	-3.015224e-06	-6.978959e-09	-2.087393e+01	-4.581922e+02
5.900000e-07	-2.896697e-06	-6.855549e-09	-2.005338e+01	-4.501481e+02
6.000000e-07	-2.777155e-06	-6.726240e-09	-1.922581e+01	-4.418572e+02
6.100000e-07	-2.656600e-06	-6.590224e-09	-1.839123e+01	-4.333163e+02
6.200000e-07	-2.535018e-06	-6.455077e-09	-1.754953e+01	-4.245250e+02
6.300000e-07	-2.412406e-06	-6.322732e-09	-1.670071e+01	-4.154850e+02
6.400000e-07	-2.288832e-06	-6.184823e-09	-1.584522e+01	-4.061988e+02
6.500000e-07	-2.164447e-06	-6.039670e-09	-1.498413e+01	-3.966690e+02
6.600000e-07	-2.039392e-06	-5.890036e-09	-1.411839e+01	-3.868962e+02
6.700000e-07	-1.913723e-06	-5.735543e-09	-1.324841e+01	-3.768782e+02
6.800000e-07	-1.787459e-06	-5.575888e-09	-1.237430e+01	-3.666091e+02
6.900000e-07	-1.660518e-06	-5.412883e-09	-1.149550e+01	-3.560786e+02
7.000000e-07	-1.532889e-06	-5.246634e-09	-1.061195e+01	-3.452722e+02
7.100000e-07	-1.404739e-06	-5.074628e-09	-9.724788e+00	-3.341722e+02
7.200000e-07	-1.276171e-06	-4.899803e-09	-8.834729e+00	-3.227587e+02
7.300000e-07	-1.147230e-06	-4.722351e-09	-7.942091e+00	-3.110113e+02
7.400000e-07	-1.017968e-06	-4.539944e-09	-7.047230e+00	-2.989110e+02
7.500000e-07	-8.883988e-07	-4.350237e-09	-6.150246e+00	-2.864414e+02
7.600000e-07	-7.585166e-07	-4.153330e-09	-5.251091e+00	-2.735903e+02
7.700000e-07	-6.283025e-07	-3.952083e-09	-4.349639e+00	-2.603502e+02
7.800000e-07	-4.978216e-07	-3.745195e-09	-3.446341e+00	-2.467174e+02
7.900000e-07	-3.671288e-07	-3.533417e-09	-2.541575e+00	-2.326917e+02
8.000000e-07	-2.362694e-07	-3.315881e-09	-1.635656e+00	-2.182738e+02
8.100000e-07	-1.052891e-07	-3.090021e-09	-7.288996e-01	-2.034633e+02
8.200000e-07	2.577826e-08	-2.856942e-09	1.784589e-01	-1.882559e+02
8.300000e-07	1.568700e-07	-2.616625e-09	1.085986e+00	-1.726412e+02
8.400000e-07	2.879375e-07	-2.371393e-09	1.993346e+00	-1.566011e+02
8.500000e-07	4.189034e-07	-2.121032e-09	2.900003e+00	-1.401087e+02
8.600000e-07	5.497064e-07	-1.863868e-09	3.805531e+00	-1.231296e+02
8.700000e-07	6.803389e-07	-1.597345e-09	4.709879e+00	-1.056235e+02
8.800000e-07	8.108222e-07	-1.320978e-09	5.613195e+00	-8.754806e+01
8.900000e-07	9.410749e-07	-1.037471e-09	6.514914e+00	-6.886366e+01
9.000000e-07	1.070942e-06	-7.449608e-10	7.413965e+00	-4.953880e+01
9.100000e-07	1.200427e-06	-4.417333e-10	8.310368e+00	-2.955603e+01
9.200000e-07	1.329527e-06	-1.262542e-10	9.204105e+00	-8.917347e+00
9.300000e-07	1.458150e-06	2.007722e-10	1.009454e+01	1.235137e+01
9.400000e-07	1.586209e-06	5.351843e-10	1.098107e+01	3.419749e+01
9.500000e-07	1.713624e-06	8.764617e-10	1.186315e+01	5.654077e+01
9.600000e-07	1.840358e-06	1.224139e-09	1.274051e+01	7.927466e+01
9.700000e-07	1.966437e-06	1.576069e-09	1.361334e+01	1.022699e+02
9.800000e-07	2.091901e-06	1.929948e-09	1.448190e+01	1.253801e+02
9.900000e-07	2.216724e-06	2.281226e-09	1.534603e+01	1.484486e+02
1.000000e-06	2.340759e-06	2.628223e-09	1.620471e+01	1.713168e+02
1.010000e-06	2.463837e-06	2.970141e-09	1.705676e+01	1.938320e+02
1.020000e-06	2.585908e-06	3.304613e-09	1.790183e+01	2.158553e+02
1.030000e-06	2.707054e-06	3.630688e-09	1.874051e+01	2.372678e+02
1.040000e-06	2.827200e-06	3.946347e-09	1.957226e+01	2.579752e+02
1.050000e-06	2.946211e-06	4.250923e-09	2.039616e+01	2.779106e+02
1.060000e-06	3.064169e-06	4.541677e-09	2.121276e+01	2.970346e+02
1.070000e-06	3.181089e-06	4.819570e-09	2.202218e+01	3.153334e+02
1.080000e-06	3.296799e-06	5.084353e-09	2.282323e+01	3.328156e+02
1.090000e-06	3.411156e-06	5.335664e-09	2.361490e+01	3.495073e+02
1.100000e-06	3.524088e-06	5.575517e-09	2.439671e+01	3.654461e+02
1.110000e-06	3.635636e-06	5.806161e-09	2.516894e+01	3.806763e+02
1.120000e-06	3.745957e-06	6.029171e-09	2.593267e+01	3.952434e+02
1.130000e-06	3.855114e-06	6.244408e-09	2.668835e+01	4.091903e+02
1.140000e-06	3.963094e-06	6.450305e-09	2.743588e+01	4.225542e+02
1.150000e-06	4.069742e-06	6.646146e-09	2.817419e+01	4.353655e+02
1.160000e-06	4.174901e-06	6.832214e-09	2.890219e+01	4.476472e+02
1.170000e-06	4.278439e-06	7.008842e-09	2.961896e+01	4.594165e+02
1.180000e-06	4.380395e-06	7.178538e-09	3.032479e+01	4.706860e+02
1.190000e-06	4.480910e-06	7.339670e-09	3.102064e+01	4.814658e+02
1.200000e-06	4.579865e-06	7.492988e-09	3.170569e+01	4.917658e+02
1.210000e-06	4.677000e-06	7.641770e-09	3.237814e+01	5.015971e+02
1.220000e-06	4.772322e-06	7.787782e-09	3.303803e+01	5.109731e+02
1.230000e-06	4.866031e-06	7.929063e-09	3.368677e+01	5.199101e+02
1.240000e-06	4.958119e-06	8.063101e-09	3.432428e+01	5.284268e+02
1.250000e-06	5.048471e-06	8.189090e-09	3.494977e+01	5.365434e+02
1.260000e-06	5.136929e-06	8.308486e-09	3.556215e+01	5.442808e+02
1.270000e-06	5.223480e-06	8.421224e-09	3.616133e+01	5.516588e+02
1.280000e-06	5.308221e-06	8.526767e-09	3.674798e+01	5.586957e+02
1.290000e-06	5.391149e-06	8.627997e-09	3.732208e+01	5.654069e+02
1.300000e-06	5.472115e-06	8.725012e-09	3.788260e+01	5.718051e+02
1.310000e-06	5.551031e-06	8.816206e-09	3.842892e+01	5.779004e+02
1.320000e-06	5.627946e-06	8.903437e-09	3.896139e+01	5.837012e+02
1.330000e-06	5.702709e-06	8.987547e-09	3.947896e+01	5.892147e+02
1.340000e-06	5.775225e-06	9.067808e-09	3.998097e+01	5.944485e+02
1.350000e-06	5.845608e-06	9.143517e-09	4.046823e+01	5.994114e+02
1.360000e-06	5.913976e-06	9.213589e-09	4.094153e+01	6.041139e+02
1.370000e-06	5.980229e-06	9.279036e-09	4.140019e+01	6.085689e+02
1.380000e-06	6.044288e-06	9.342313e-09	4.184366e+01	6.127906e+02
1.390000e-06	6.106264e-06	9.404122e-09	4.227271e+01	6.167947e+02
1.400000e-06	6.166260e-06	9.463442e-09	4.268805e+01	6.205964e+02
1.410000e-06	6.224120e-06	9.519380e-09	4.308861e+01	6.242101e+02
1.420000e-06	6.279700e-06	9.572776e-09	4.347338e+01	6.276470e+02
1.430000e-06	6.332997e-06	9.623443e-09	4.384234e+01	6.309152e+02
1.440000e-06	6.383739e-06	9.671063e-09	4.419362e+01	6.340186e+02
1.450000e-06	6.431877e-06	9.715845e-09	4.452688e+01	6.369568e+02
1.460000e-06	6.477706e-06	9.756824e-09	4.484414e+01	6.397260e+02
1.470000e-06	6.521409e-06	9.793642e-09	4.514669e+01	6.423201e+02
1.480000e-06	6.562782e-06	9.826530e-09	4.543311e+01	6.447317e+02
1.490000e-06	6.601688e-06	9.857392e-09	4.570245e+01	6.469544e+02
1.500000e-06	6.638388e-06	9.886117e-09	4.595652e+01	6.489837e+02
1.510000e-06	6.672797e-06	9.913545e-09	4.619473e+01	6.508188e+02
1.520000e-06	6.704695e-06	9.940214e-09	4.641555e+01	6.524629e+02
1.530000e-06	6.734273e-06	9.963666e-09	4.662032e+01	6.539238e+02
1.540000e-06	6.761638e-06	9.984003e-09	4.680976e+01	6.552130e+02
1.550000e-06	6.786446e-06	1.000056e-08	4.698150e+01	6.563447e+02
1.560000e-06	6.808674e-06	1.001427e-08	4.713539e+01	6.573345e+02
1.570000e-06	6.828666e-06	1.002597e-08	4.727378e+01	6.581974e+02
1.580000e-06	6.846271e-06	1.003556e-08	4.739566e+01	6.589463e+02
1.590000e-06	6.861285e-06	1.004473e-08	4.749960e+01	6.595905e+02
1.600000e-06	6.873728e-06	1.005356e-08	4.758574e+01	6.601348e+02
1.610000e-06	6.883430e-06	1.006141e-08	4.765291e+01	6.605794e+02
1.620000e-06	6.890479e-06	1.006748e-08	4.770171e+01	6.609200e+02
1.630000e-06	6.895213e-06	1.007205e-08	4.773448e+01	6.611491e+02
1.640000e-06	6.897563e-06	1.007544e-08	4.775075e+01	6.612576e+02
1.650000e-06	6.897444e-06	1.007533e-08	4.774992e+01	6.612361e+02
1.660000e-06	6.895031e-06	1.006657e-08	4.773322e+01	6.610776e+02
1.670000e-06	6.890476e-06	1.005809e-08	4.770169e+01	6.607782e+02
1.680000e-06	6.883595e-06	1.005243e-08	4.765405e+01	6.603390e+02
1.690000e-06	6.874352e-06	1.004530e-08	4.759006e+01	6.597660e+02
1.700000e-06	6.862887e-06	1.003705e-08	4.751069e+01	6.590704e+02
1.710000e-06	6.849028e-06	1.003075e-08	4.741475e+01	6.582676e+02
1.720000e-06	6.832831e-06	1.002934e-08	4.730262e+01	6.573756e+02
1.730000e-06	6.814562e-06	9.992709e-09	4.717614e+01	6.564132e+02
1.740000e-06	6.793798e-06	9.932114e-09	4.703240e+01	6.553981e+02
1.750000e-06	6.769768e-06	9.937880e-09	4.686604e+01	6.543446e+02
1.760000e-06	6.742671e-06	9.939943e-09	4.667845e+01	6.532624e+02
1.770000e-06	6.713233e-06	9.924597e-09	4.647466e+01	6.521554e+02
1.780000e-06	6.681838e-06	9.964976e-09	4.625731e+01	6.510207e+02
1.790000e-06	6.648938e-06	9.905841e-09	4.602955e+01	6.498496e+02
1.800000e-06	6.614326e-06	9.827402e-09	4.578994e+01	6.486277e+02
1.810000e-06	6.577143e-06	9.886798e-09	4.553253e+01	6.473368e+02
1.820000e-06	6.537587e-06	9.832302e-09	4.525869e+01	6.459563e+02
1.830000e-06	6.495951e-06	9.836898e-09	4.497045e+01	6.444653e+02
1.840000e-06	6.452110e-06	9.863061e-09	4.466694e+01	6.428440e+02
1.850000e-06	6.406064e-06	9.743913e-09	4.434817e+01	6.410760e+02
1.860000e-06	6.357588e-06	9.752308e-09	4.401259e+01	6.391485e+02
1.870000e-06	6.306828e-06	9.697926e-09	4.366118e+01	6.370540e+02
1.880000e-06	6.253615e-06	9.659645e-09	4.329279e+01	6.347896e+02
1.890000e-06	6.197662e-06	9.673955e-09	4.290544e+01	6.323571e+02
1.900000e-06	6.139355e-06	9.589124e-09	4.250180e+01	6.297624e+02
1.910000e-06	6.078750e-06	9.592400e-09	4.208223e+01	6.270139e+02
1.920000e-06	6.015775e-06	9.518830e-09	4.164627e+01	6.241219e+02
1.930000e-06	5.950625e-06	9.449601e-09	4.119524e+01	6.210972e+02
1.940000e-06	5.883370e-06	9.436365e-09	4.072965e+01	6.179498e+02
1.950000e-06	5.813974e-06	9.357730e-09	4.024923e+01	6.146882e+02
1.960000e-06	5.742168e-06	9.338172e-09	3.975213e+01	6.113183e+02
1.970000e-06	5.668102e-06	9.257894e-09	3.923938e+01	6.078435e+02
1.980000e-06	5.591943e-06	9.228918e-09	3.871215e+01	6.042642e+02
1.990000e-06	5.513504e-06	9.187412e-09	3.816912e+01	6.005780e+02
2.000000e-06	5.433007e-06	9.097256e-09	3.761186e+01	5.967798e+02
2.010000e-06	5.350673e-06	9.053300e-09	3.704187e+01	5.928627e+02
2.020000e-06	5.266606e-06	8.968673e-09	3.645989e+01	5.888185e+02
2.030000e-06	5.180563e-06	8.916432e-09	3.586423e+01	5.846379e+02
2.040000e-06	5.092472e-06	8.848077e-09	3.525439e+01	5.803118e+02
2.050000e-06	5.002614e-06	8.800719e-09	3.463231e+01	5.758317e+02
2.060000e-06	4.911235e-06	8.729536e-09	3.399971e+01	5.711902e+02
2.070000e-06	4.818344e-06	8.628610e-09	3.335664e+01	5.663815e+02
2.080000e-06	4.723575e-06	8.553830e-09	3.270057e+01	5.614018e+02
2.090000e-06	4.627034e-06	8.470901e-09	3.203223e+01	5.562493e+02
2.100000e-06	4.529007e-06	8.404801e-09	3.135361e+01	5.509239e+02
2.110000e-06	4.429508e-06	8.316492e-09	3.066479e+01	5.454273e+02
2.120000e-06	4.328437e-06	8.241619e-09	2.996509e+01	5.397620e+02
2.130000e-06	4.225630e-06	8.155280e-09	2.925337e+01	5.339308e+02
2.140000e-06	4.121181e-06	8.059817e-09	2.853029e+01	5.279363e+02
2.150000e-06	4.015363e-06	7.962870e-09	2.779773e+01	5.217795e+02
2.160000e-06	3.908231e-06	7.863703e-09	2.705607e+01	5.154598e+02
2.170000e-06	3.799695e-06	7.767037e-09	2.630469e+01	5.089741e+02
2.180000e-06	3.689758e-06	7.661278e-09	2.554362e+01	5.023165e+02
2.190000e-06	3.578385e-06	7.560339e-09	2.477260e+01	4.954790e+02
2.200000e-06	3.465655e-06	7.450895e-09	2.399219e+01	4.884510e+02
2.210000e-06	3.351633e-06	7.343329e-09	2.320283e+01	4.812209e+02
2.220000e-06	3.236256e-06	7.227044e-09	2.240409e+01	4.737765e+02
2.230000e-06	3.119497e-06	7.110394e-09	2.159579e+01	4.661060e+02
2.240000e-06	3.001490e-06	6.988712e-09	2.077884e+01	4.581996e+02
2.250000e-06	2.882278e-06	6.870467e-09	1.995356e+01	4.500495e+02
2.260000e-06	2.761933e-06	6.748992e-09	1.912043e+01	4.416508e+02
2.270000e-06	2.640580e-06	6.614852e-09	1.828032e+01	4.330017e+02
2.280000e-06	2.518281e-06	6.475566e-09	1.743367e+01	4.241027e+02
2.290000e-06	2.395170e-06	6.332011e-09	1.658139e+01	4.149561e+02
2.300000e-06	2.271200e-06	6.187694e-09	1.572316e+01	4.055644e+02
2.310000e-06	2.146465e-06	6.042381e-09	1.485964e+01	3.959297e+02
2.320000e-06	2.021036e-06	5.898105e-09	1.399131e+01	3.860515e+02
2.330000e-06	1.894896e-06	5.746144e-09	1.311807e+01	3.759261e+02
2.340000e-06	1.768094e-06	5.588764e-09	1.224024e+01	3.655456e+02
2.350000e-06	1.640629e-06	5.424790e-09	1.135781e+01	3.548980e+02
2.360000e-06	1.512534e-06	5.256936e-09	1.047104e+01	3.439673e+02
2.370000e-06	1.383971e-06	5.083408e-09	9.581016e+00	3.327347e+02
2.380000e-06	1.254998e-06	4.904261e-09	8.688155e+00	3.211797e+02
2.390000e-06	1.125623e-06	4.723155e-09	7.792511e+00	3.092825e+02
2.400000e-06	9.959105e-07	4.536068e-09	6.894532e+00	2.970248e+02
2.410000e-06	8.659032e-07	4.343406e-09	5.994512e+00	2.843922e+02
2.420000e-06	7.356961e-07	4.146584e-09	5.093108e+00	2.713742e+02
2.430000e-06	6.053298e-07	3.946387e-09	4.190604e+00	2.579652e+02
2.440000e-06	4.747449e-07	3.737667e-09	3.286584e+00	2.441632e+02
2.450000e-06	3.439407e-07	3.518303e-09	2.381047e+00	2.299685e+02
2.460000e-06	2.130131e-07	3.292379e-09	1.474656e+00	2.153817e+02
2.470000e-06	8.202759e-08	3.063165e-09	5.678642e-01	2.004011e+02
2.480000e-06	-4.901767e-08	2.831016e-09	-3.393417e-01	1.850200e+02
2.490000e-06	-1.801221e-07	2.590575e-09	-1.246957e+00	1.692249e+02
2.500000e-06	-3.111554e-07	2.339677e-09	-2.154080e+00	1.529939e+02
2.510000e-06	-4.420453e-07	2.078679e-09	-3.060211e+00	1.362968e+02
2.520000e-06	-5.728200e-07	1.810664e-09	-3.965543e+00	1.190961e+02
2.530000e-06	-7.034400e-07	1.540950e-09	-4.869805e+00	1.013504e+02
2.540000e-06	-8.338387e-07	1.266500e-09	-5.772534e+00	8.301767e+01
2.550000e-06	-9.639368e-07	9.818689e-10	-6.673184e+00	6.406114e+01
2.560000e-06	-1.093766e-06	6.848649e-10	-7.571973e+00	4.445462e+01
2.570000e-06	-1.223302e-06	3.756653e-10	-8.468725e+00	2.418838e+01
2.580000e-06	-1.352454e-06	5.638398e-11	-9.362825e+00	3.274186e+00
2.590000e-06	-1.481203e-06	-2.714183e-10	-1.025414e+01	-1.825086e+01
2.600000e-06	-1.609378e-06	-6.073392e-10	-1.114147e+01	-4.032228e+01
2.610000e-06	-1.736816e-06	-9.508615e-10	-1.202371e+01	-6.284825e+01
2.620000e-06	-1.863582e-06	-1.300410e-09	-1.290129e+01	-8.571194e+01
2.630000e-06	-1.989684e-06	-1.651164e-09	-1.377427e+01	-1.087760e+02
2.640000e-06	-2.114969e-06	-2.001386e-09	-1.464160e+01	-1.318886e+02
2.650000e-06	-2.239394e-06	-2.353900e-09	-1.550297e+01	-1.548913e+02
2.660000e-06	-2.362909e-06	-2.706587e-09	-1.635805e+01	-1.776271e+02
2.670000e-06	-2.485484e-06	-3.052874e-09	-1.720661e+01	-1.999483e+02
2.680000e-06	-2.607238e-06	-3.387713e-09	-1.804950e+01	-2.217238e+02
2.690000e-06	-2.728073e-06	-3.707897e-09	-1.888602e+01	-2.428449e+02
2.700000e-06	-2.847831e-06	-4.011479e-09	-1.971508e+01	-2.632289e+02
2.710000e-06	-2.966507e-06	-4.304644e-09	-2.053666e+01	-2.828206e+02
2.720000e-06	-3.084010e-06	-4.590632e-09	-2.135012e+01	-3.015920e+02
2.730000e-06	-3.200253e-06	-4.867069e-09	-2.215485e+01	-3.195395e+02
2.740000e-06	-3.315166e-06	-5.130987e-09	-2.295038e+01	-3.366797e+02
2.750000e-06	-3.428708e-06	-5.381317e-09	-2.373641e+01	-3.530444e+02
2.760000e-06	-3.540905e-06	-5.621898e-09	-2.451313e+01	-3.686747e+02
2.770000e-06	-3.651701e-06	-5.853332e-09	-2.528015e+01	-3.836161e+02
2.780000e-06	-3.761185e-06	-6.076062e-09	-2.603809e+01	-3.979133e+02
2.790000e-06	-3.869492e-06	-6.287902e-09	-2.678789e+01	-4.116070e+02
2.800000e-06	-3.976600e-06	-6.487808e-09	-2.752938e+01	-4.247316e+02
2.810000e-06	-4.082422e-06	-6.678840e-09	-2.826197e+01	-4.373142e+02
2.820000e-06	-4.186711e-06	-6.863518e-09	-2.898394e+01	-4.493754e+02
2.830000e-06	-4.289381e-06	-7.040510e-09	-2.969471e+01	-4.609299e+02
2.840000e-06	-4.390487e-06	-7.208273e-09	-3.039465e+01	-4.719891e+02
2.850000e-06	-4.489998e-06	-7.367678e-09	-3.108355e+01	-4.825629e+02
2.860000e-06	-4.588016e-06	-7.520188e-09	-3.176211e+01	-4.926614e+02
2.870000e-06	-4.684494e-06	-7.666799e-09	-3.243002e+01	-5.022965e+02
2.880000e-06	-4.779214e-06	-7.806894e-09	-3.308575e+01	-5.114831e+02
2.890000e-06	-4.872188e-06	-7.939015e-09	-3.372940e+01	-5.202384e+02
2.900000e-06	-4.963463e-06	-8.063320e-09	-3.436128e+01	-5.285819e+02
2.910000e-06	-5.052999e-06	-8.183254e-09	-3.498112e+01	-5.365342e+02
2.920000e-06	-5.140683e-06	-8.300937e-09	-3.558814e+01	-5.441161e+02
2.930000e-06	-5.226389e-06	-8.414025e-09	-3.618147e+01	-5.513466e+02
2.940000e-06	-5.310176e-06	-8.519866e-09	-3.676152e+01	-5.582430e+02
