# Temperatura_=_82.63
# Concentracion g/m^3_=_15000.0
# C_Vs_to_Am_M_A/Vsm_=_65563218390.804596
# pendiente_HvsI_1/m_=_3716.3
# ordenada_HvsI_A/m_=_1297.0
# frecuencia_Hz_=_301975.67888816533

Tiempo_(s)	Campo_(V.s)	Magnetizacion_(V.s)	Campo_(kA/m)	Magnetizacion_(A/m)
0.000000e+00	-6.854292e-06	-1.278963e-08	-4.746182e+01	-8.380973e+02
1.000000e-08	-6.850285e-06	-1.278515e-08	-4.743407e+01	-8.376747e+02
2.000000e-08	-6.844106e-06	-1.277787e-08	-4.739128e+01	-8.370634e+02
3.000000e-08	-6.835721e-06	-1.276777e-08	-4.733323e+01	-8.362750e+02
4.000000e-08	-6.824959e-06	-1.275306e-08	-4.725870e+01	-8.353272e+02
5.000000e-08	-6.811720e-06	-1.273511e-08	-4.716703e+01	-8.342420e+02
6.000000e-08	-6.795970e-06	-1.271094e-08	-4.705797e+01	-8.330430e+02
7.000000e-08	-6.777955e-06	-1.269451e-08	-4.693323e+01	-8.317530e+02
8.000000e-08	-6.757801e-06	-1.271653e-08	-4.679368e+01	-8.303908e+02
9.000000e-08	-6.735139e-06	-1.270951e-08	-4.663675e+01	-8.289695e+02
1.000000e-07	-6.709659e-06	-1.265895e-08	-4.646032e+01	-8.274940e+02
1.100000e-07	-6.681518e-06	-1.262155e-08	-4.626546e+01	-8.259612e+02
1.200000e-07	-6.651098e-06	-1.258147e-08	-4.605482e+01	-8.243593e+02
1.300000e-07	-6.618678e-06	-1.249121e-08	-4.583033e+01	-8.226700e+02
1.400000e-07	-6.584431e-06	-1.248534e-08	-4.559320e+01	-8.208694e+02
1.500000e-07	-6.548241e-06	-1.253755e-08	-4.534260e+01	-8.189312e+02
1.600000e-07	-6.509963e-06	-1.244435e-08	-4.507755e+01	-8.168289e+02
1.700000e-07	-6.469539e-06	-1.244166e-08	-4.479763e+01	-8.145382e+02
1.800000e-07	-6.426678e-06	-1.240301e-08	-4.450085e+01	-8.120391e+02
1.900000e-07	-6.381393e-06	-1.229114e-08	-4.418728e+01	-8.093176e+02
2.000000e-07	-6.333724e-06	-1.227554e-08	-4.385720e+01	-8.063656e+02
2.100000e-07	-6.283406e-06	-1.223505e-08	-4.350878e+01	-8.031818e+02
2.200000e-07	-6.230475e-06	-1.222345e-08	-4.314226e+01	-7.997702e+02
2.300000e-07	-6.175139e-06	-1.215838e-08	-4.275909e+01	-7.961394e+02
2.400000e-07	-6.117487e-06	-1.205443e-08	-4.235989e+01	-7.923010e+02
2.500000e-07	-6.057574e-06	-1.201178e-08	-4.194503e+01	-7.882680e+02
2.600000e-07	-5.995459e-06	-1.195260e-08	-4.151492e+01	-7.840532e+02
2.700000e-07	-5.931114e-06	-1.188387e-08	-4.106937e+01	-7.796685e+02
2.800000e-07	-5.864471e-06	-1.182785e-08	-4.060791e+01	-7.751234e+02
2.900000e-07	-5.795598e-06	-1.176122e-08	-4.013100e+01	-7.704247e+02
3.000000e-07	-5.724601e-06	-1.166455e-08	-3.963939e+01	-7.655765e+02
3.100000e-07	-5.651460e-06	-1.158772e-08	-3.913293e+01	-7.605801e+02
3.200000e-07	-5.576066e-06	-1.154419e-08	-3.861088e+01	-7.554341e+02
3.300000e-07	-5.498390e-06	-1.144102e-08	-3.807301e+01	-7.501352e+02
3.400000e-07	-5.418547e-06	-1.133985e-08	-3.752015e+01	-7.446783e+02
3.500000e-07	-5.336700e-06	-1.126464e-08	-3.695341e+01	-7.390570e+02
3.600000e-07	-5.253025e-06	-1.119185e-08	-3.637402e+01	-7.332642e+02
3.700000e-07	-5.167649e-06	-1.111788e-08	-3.578283e+01	-7.272923e+02
3.800000e-07	-5.080523e-06	-1.101956e-08	-3.517954e+01	-7.211335e+02
3.900000e-07	-4.991572e-06	-1.091003e-08	-3.456361e+01	-7.147806e+02
4.000000e-07	-4.900824e-06	-1.078770e-08	-3.393523e+01	-7.082271e+02
4.100000e-07	-4.808401e-06	-1.068621e-08	-3.329526e+01	-7.014678e+02
4.200000e-07	-4.714341e-06	-1.060593e-08	-3.264395e+01	-6.944989e+02
4.300000e-07	-4.618600e-06	-1.051059e-08	-3.198100e+01	-6.873187e+02
4.400000e-07	-4.521196e-06	-1.038654e-08	-3.130654e+01	-6.799273e+02
4.500000e-07	-4.422095e-06	-1.025553e-08	-3.062033e+01	-6.723264e+02
4.600000e-07	-4.321412e-06	-1.013283e-08	-2.992316e+01	-6.645193e+02
4.700000e-07	-4.219247e-06	-1.001098e-08	-2.921573e+01	-6.565097e+02
4.800000e-07	-4.115565e-06	-9.898505e-09	-2.849779e+01	-6.483014e+02
4.900000e-07	-4.010388e-06	-9.775818e-09	-2.776951e+01	-6.398968e+02
5.000000e-07	-3.903732e-06	-9.632921e-09	-2.703098e+01	-6.312963e+02
5.100000e-07	-3.795637e-06	-9.489654e-09	-2.628248e+01	-6.224973e+02
5.200000e-07	-3.686214e-06	-9.361199e-09	-2.552480e+01	-6.134940e+02
5.300000e-07	-3.575517e-06	-9.227577e-09	-2.475829e+01	-6.042772e+02
5.400000e-07	-3.463424e-06	-9.074132e-09	-2.398211e+01	-5.948349e+02
5.500000e-07	-3.349877e-06	-8.918798e-09	-2.319587e+01	-5.851529e+02
5.600000e-07	-3.234880e-06	-8.765647e-09	-2.239958e+01	-5.752163e+02
5.700000e-07	-3.118505e-06	-8.610468e-09	-2.159376e+01	-5.650108e+02
5.800000e-07	-3.000926e-06	-8.454895e-09	-2.077959e+01	-5.545244e+02
5.900000e-07	-2.882249e-06	-8.295664e-09	-1.995782e+01	-5.437480e+02
6.000000e-07	-2.762541e-06	-8.119463e-09	-1.912892e+01	-5.326766e+02
6.100000e-07	-2.641822e-06	-7.934896e-09	-1.829301e+01	-5.213095e+02
6.200000e-07	-2.520091e-06	-7.758525e-09	-1.745010e+01	-5.096492e+02
6.300000e-07	-2.397364e-06	-7.588090e-09	-1.660029e+01	-4.977007e+02
6.400000e-07	-2.273719e-06	-7.406836e-09	-1.574413e+01	-4.854698e+02
6.500000e-07	-2.149250e-06	-7.211178e-09	-1.488225e+01	-4.729607e+02
6.600000e-07	-2.024122e-06	-7.010308e-09	-1.401582e+01	-4.601748e+02
6.700000e-07	-1.898432e-06	-6.806577e-09	-1.314549e+01	-4.471083e+02
6.800000e-07	-1.772072e-06	-6.602972e-09	-1.227053e+01	-4.337516e+02
6.900000e-07	-1.645056e-06	-6.398649e-09	-1.139102e+01	-4.200889e+02
7.000000e-07	-1.517500e-06	-6.186850e-09	-1.050777e+01	-4.060988e+02
7.100000e-07	-1.389402e-06	-5.963244e-09	-9.620769e+00	-3.917557e+02
7.200000e-07	-1.260815e-06	-5.734883e-09	-8.730380e+00	-3.770318e+02
7.300000e-07	-1.131872e-06	-5.506619e-09	-7.837531e+00	-3.618991e+02
7.400000e-07	-1.002630e-06	-5.272788e-09	-6.942603e+00	-3.463319e+02
7.500000e-07	-8.730309e-07	-5.030333e-09	-6.045210e+00	-3.303083e+02
7.600000e-07	-7.430942e-07	-4.776422e-09	-5.145477e+00	-3.138108e+02
7.700000e-07	-6.128834e-07	-4.515718e-09	-4.243846e+00	-2.968266e+02
7.800000e-07	-4.824361e-07	-4.252786e-09	-3.340577e+00	-2.793457e+02
7.900000e-07	-3.518184e-07	-3.984150e-09	-2.436129e+00	-2.613588e+02
8.000000e-07	-2.210071e-07	-3.704579e-09	-1.530340e+00	-2.428540e+02
8.100000e-07	-9.004812e-08	-3.410953e-09	-6.235286e-01	-2.238143e+02
8.200000e-07	4.099504e-08	-3.106833e-09	2.838658e-01	-2.042137e+02
8.300000e-07	1.721144e-07	-2.795891e-09	1.191788e+00	-1.840162e+02
8.400000e-07	3.031790e-07	-2.477902e-09	2.099331e+00	-1.631752e+02
8.500000e-07	4.340871e-07	-2.149390e-09	3.005790e+00	-1.416350e+02
8.600000e-07	5.648381e-07	-1.806952e-09	3.911161e+00	-1.193350e+02
8.700000e-07	6.953920e-07	-1.449170e-09	4.815168e+00	-9.621458e+01
8.800000e-07	8.257163e-07	-1.080033e-09	5.717585e+00	-7.222133e+01
8.900000e-07	9.556973e-07	-7.028760e-10	6.617625e+00	-4.731860e+01
9.000000e-07	1.085285e-06	-3.163778e-10	7.514939e+00	-2.149409e+01
9.100000e-07	1.214571e-06	8.437905e-11	8.410164e+00	5.232860e+00
9.200000e-07	1.343510e-06	5.025197e-10	9.302995e+00	3.280564e+01
9.300000e-07	1.472006e-06	9.356160e-10	1.019275e+01	6.112744e+01
9.400000e-07	1.599925e-06	1.380327e-09	1.107851e+01	9.006145e+01
9.500000e-07	1.727198e-06	1.832917e-09	1.195980e+01	1.194346e+02
9.600000e-07	1.853824e-06	2.289728e-09	1.283660e+01	1.490442e+02
9.700000e-07	1.979777e-06	2.747059e-09	1.370876e+01	1.786683e+02
9.800000e-07	2.105084e-06	3.199433e-09	1.457643e+01	2.080768e+02
9.900000e-07	2.229699e-06	3.640071e-09	1.543931e+01	2.370441e+02
1.000000e-06	2.353591e-06	4.068307e-09	1.629719e+01	2.653618e+02
1.010000e-06	2.476615e-06	4.483197e-09	1.714905e+01	2.928492e+02
1.020000e-06	2.598616e-06	4.883005e-09	1.799384e+01	3.193620e+02
1.030000e-06	2.719643e-06	5.268317e-09	1.883188e+01	3.447974e+02
1.040000e-06	2.839663e-06	5.637074e-09	1.966294e+01	3.690960e+02
1.050000e-06	2.958584e-06	5.989068e-09	2.048640e+01	3.922396e+02
1.060000e-06	3.076435e-06	6.325381e-09	2.130245e+01	4.142466e+02
1.070000e-06	3.193214e-06	6.646098e-09	2.211107e+01	4.351645e+02
1.080000e-06	3.308754e-06	6.953803e-09	2.291111e+01	4.550609e+02
1.090000e-06	3.422887e-06	7.246717e-09	2.370142e+01	4.740141e+02
1.100000e-06	3.535588e-06	7.522722e-09	2.448180e+01	4.921044e+02
1.110000e-06	3.646897e-06	7.784974e-09	2.525255e+01	5.094068e+02
1.120000e-06	3.756956e-06	8.036364e-09	2.601464e+01	5.259857e+02
1.130000e-06	3.865916e-06	8.279072e-09	2.676913e+01	5.418922e+02
1.140000e-06	3.973708e-06	8.513380e-09	2.751552e+01	5.571635e+02
1.150000e-06	4.080115e-06	8.737566e-09	2.825232e+01	5.718248e+02
1.160000e-06	4.184951e-06	8.951039e-09	2.897825e+01	5.858926e+02
1.170000e-06	4.288225e-06	9.153862e-09	2.969336e+01	5.993782e+02
1.180000e-06	4.389994e-06	9.347835e-09	3.039805e+01	6.122924e+02
1.190000e-06	4.490268e-06	9.533561e-09	3.109238e+01	6.246486e+02
1.200000e-06	4.588934e-06	9.711127e-09	3.177559e+01	6.364653e+02
1.210000e-06	4.685805e-06	9.881503e-09	3.244636e+01	6.477668e+02
1.220000e-06	4.780912e-06	1.004548e-08	3.310492e+01	6.585828e+02
1.230000e-06	4.874376e-06	1.020618e-08	3.375210e+01	6.689464e+02
1.240000e-06	4.966305e-06	1.036157e-08	3.438865e+01	6.788916e+02
1.250000e-06	5.056542e-06	1.050968e-08	3.501348e+01	6.884498e+02
1.260000e-06	5.144772e-06	1.065188e-08	3.562443e+01	6.976474e+02
1.270000e-06	5.231050e-06	1.078846e-08	3.622185e+01	7.065033e+02
1.280000e-06	5.315552e-06	1.091970e-08	3.680698e+01	7.150281e+02
1.290000e-06	5.398197e-06	1.104588e-08	3.737924e+01	7.232242e+02
1.300000e-06	5.478822e-06	1.116445e-08	3.793752e+01	7.310871e+02
1.310000e-06	5.557444e-06	1.127517e-08	3.848193e+01	7.386083e+02
1.320000e-06	5.634104e-06	1.138073e-08	3.901275e+01	7.457782e+02
1.330000e-06	5.708605e-06	1.148365e-08	3.952863e+01	7.525894e+02
1.340000e-06	5.780879e-06	1.158349e-08	4.002909e+01	7.590395e+02
1.350000e-06	5.851078e-06	1.167855e-08	4.051517e+01	7.651332e+02
1.360000e-06	5.919296e-06	1.176711e-08	4.098753e+01	7.708835e+02
1.370000e-06	5.985394e-06	1.184910e-08	4.144522e+01	7.763107e+02
1.380000e-06	6.049219e-06	1.192645e-08	4.188718e+01	7.814416e+02
1.390000e-06	6.110927e-06	1.200038e-08	4.231447e+01	7.863063e+02
1.400000e-06	6.170677e-06	1.207143e-08	4.272820e+01	7.909352e+02
1.410000e-06	6.228302e-06	1.214005e-08	4.312722e+01	7.953561e+02
1.420000e-06	6.283685e-06	1.220442e-08	4.351071e+01	7.995906e+02
1.430000e-06	6.336761e-06	1.226510e-08	4.387823e+01	8.036527e+02
1.440000e-06	6.387172e-06	1.232510e-08	4.422729e+01	8.075476e+02
1.450000e-06	6.435000e-06	1.238480e-08	4.455847e+01	8.112715e+02
1.460000e-06	6.480585e-06	1.244028e-08	4.487412e+01	8.148139e+02
1.470000e-06	6.524040e-06	1.249066e-08	4.517502e+01	8.181592e+02
1.480000e-06	6.565147e-06	1.253656e-08	4.545966e+01	8.212900e+02
1.490000e-06	6.603803e-06	1.257770e-08	4.572733e+01	8.241905e+02
1.500000e-06	6.640316e-06	1.261596e-08	4.598017e+01	8.268488e+02
1.510000e-06	6.674547e-06	1.265141e-08	4.621719e+01	8.292591e+02
1.520000e-06	6.706253e-06	1.268338e-08	4.643674e+01	8.314229e+02
1.530000e-06	6.735620e-06	1.271197e-08	4.664008e+01	8.333489e+02
1.540000e-06	6.762726e-06	1.273890e-08	4.682778e+01	8.350517e+02
1.550000e-06	6.787281e-06	1.276389e-08	4.699781e+01	8.365496e+02
1.560000e-06	6.809299e-06	1.278533e-08	4.715027e+01	8.378625e+02
1.570000e-06	6.829040e-06	1.280118e-08	4.728696e+01	8.390085e+02
1.580000e-06	6.846356e-06	1.281284e-08	4.740687e+01	8.400023e+02
1.590000e-06	6.861095e-06	1.282380e-08	4.750892e+01	8.408524e+02
1.600000e-06	6.873249e-06	1.283331e-08	4.759308e+01	8.415614e+02
1.610000e-06	6.882708e-06	1.283994e-08	4.765858e+01	8.421254e+02
1.620000e-06	6.889542e-06	1.284512e-08	4.770590e+01	8.425355e+02
1.630000e-06	6.893968e-06	1.284973e-08	4.773655e+01	8.427801e+02
1.640000e-06	6.896019e-06	1.285356e-08	4.775075e+01	8.428470e+02
1.650000e-06	6.895622e-06	1.285216e-08	4.774800e+01	8.427262e+02
1.660000e-06	6.892947e-06	1.284364e-08	4.772948e+01	8.424123e+02
1.670000e-06	6.888082e-06	1.283526e-08	4.769579e+01	8.419063e+02
1.680000e-06	6.880858e-06	1.282487e-08	4.764577e+01	8.412156e+02
1.690000e-06	6.871382e-06	1.281256e-08	4.758016e+01	8.403549e+02
1.700000e-06	6.859711e-06	1.279989e-08	4.749934e+01	8.393437e+02
1.710000e-06	6.845621e-06	1.279302e-08	4.740178e+01	8.382052e+02
1.720000e-06	6.829183e-06	1.278064e-08	4.728795e+01	8.369630e+02
1.730000e-06	6.810567e-06	1.271269e-08	4.715905e+01	8.356384e+02
1.740000e-06	6.789324e-06	1.267561e-08	4.701195e+01	8.342481e+02
1.750000e-06	6.764929e-06	1.267679e-08	4.684303e+01	8.328018e+02
1.760000e-06	6.737594e-06	1.264599e-08	4.665375e+01	8.313010e+02
1.770000e-06	6.707870e-06	1.265300e-08	4.644793e+01	8.297389e+02
1.780000e-06	6.676296e-06	1.268743e-08	4.622930e+01	8.281005e+02
1.790000e-06	6.643290e-06	1.257701e-08	4.600075e+01	8.263650e+02
1.800000e-06	6.608446e-06	1.256066e-08	4.575949e+01	8.245071e+02
1.810000e-06	6.571067e-06	1.256359e-08	4.550066e+01	8.225001e+02
1.820000e-06	6.531322e-06	1.246594e-08	4.522545e+01	8.203182e+02
1.830000e-06	6.489460e-06	1.253370e-08	4.493558e+01	8.179387e+02
1.840000e-06	6.445393e-06	1.247428e-08	4.463044e+01	8.153441e+02
1.850000e-06	6.399038e-06	1.240508e-08	4.430946e+01	8.125227e+02
1.860000e-06	6.350256e-06	1.236848e-08	4.397167e+01	8.094696e+02
1.870000e-06	6.299178e-06	1.221584e-08	4.361799e+01	8.061858e+02
1.880000e-06	6.245603e-06	1.222455e-08	4.324702e+01	8.026774e+02
1.890000e-06	6.189368e-06	1.218693e-08	4.285762e+01	7.989544e+02
1.900000e-06	6.130797e-06	1.212215e-08	4.245205e+01	7.950294e+02
1.910000e-06	6.069880e-06	1.209558e-08	4.203024e+01	7.909153e+02
1.920000e-06	6.006649e-06	1.195663e-08	4.159241e+01	7.866248e+02
1.930000e-06	5.941310e-06	1.189381e-08	4.113997e+01	7.821687e+02
1.940000e-06	5.873828e-06	1.184063e-08	4.067269e+01	7.775555e+02
1.950000e-06	5.804073e-06	1.180072e-08	4.018969e+01	7.727908e+02
1.960000e-06	5.731968e-06	1.171070e-08	3.969040e+01	7.678774e+02
1.970000e-06	5.657706e-06	1.159781e-08	3.917619e+01	7.628156e+02
1.980000e-06	5.581352e-06	1.155220e-08	3.864748e+01	7.576030e+02
1.990000e-06	5.502777e-06	1.146175e-08	3.810339e+01	7.522354e+02
2.000000e-06	5.422152e-06	1.139430e-08	3.754511e+01	7.467073e+02
2.010000e-06	5.339699e-06	1.129313e-08	3.697418e+01	7.410118e+02
2.020000e-06	5.255385e-06	1.118425e-08	3.639035e+01	7.351416e+02
2.030000e-06	5.169054e-06	1.108785e-08	3.579256e+01	7.290889e+02
2.040000e-06	5.080791e-06	1.099717e-08	3.518139e+01	7.228461e+02
2.050000e-06	4.990846e-06	1.093721e-08	3.455858e+01	7.164064e+02
2.060000e-06	4.899327e-06	1.083009e-08	3.392487e+01	7.097636e+02
2.070000e-06	4.806137e-06	1.070042e-08	3.327959e+01	7.029132e+02
2.080000e-06	4.711152e-06	1.056818e-08	3.262187e+01	6.958523e+02
2.090000e-06	4.614434e-06	1.046105e-08	3.195216e+01	6.885798e+02
2.100000e-06	4.516178e-06	1.036796e-08	3.127179e+01	6.810967e+02
2.110000e-06	4.416411e-06	1.027022e-08	3.058097e+01	6.734054e+02
2.120000e-06	4.315094e-06	1.014889e-08	2.987941e+01	6.655094e+02
2.130000e-06	4.212145e-06	1.000601e-08	2.916655e+01	6.574127e+02
2.140000e-06	4.107609e-06	9.871977e-09	2.844270e+01	6.491184e+02
2.150000e-06	4.001677e-06	9.748978e-09	2.770918e+01	6.406283e+02
2.160000e-06	3.894387e-06	9.633199e-09	2.696627e+01	6.319416e+02
2.170000e-06	3.785752e-06	9.499257e-09	2.621404e+01	6.230543e+02
2.180000e-06	3.675784e-06	9.351928e-09	2.545257e+01	6.139593e+02
2.190000e-06	3.564416e-06	9.200001e-09	2.468142e+01	6.046458e+02
2.200000e-06	3.451636e-06	9.056725e-09	2.390049e+01	5.951010e+02
2.210000e-06	3.337426e-06	8.920489e-09	2.310965e+01	5.853100e+02
2.220000e-06	3.221835e-06	8.770944e-09	2.230925e+01	5.752583e+02
2.230000e-06	3.104968e-06	8.600702e-09	2.150002e+01	5.649321e+02
2.240000e-06	2.986853e-06	8.431892e-09	2.068214e+01	5.543206e+02
2.250000e-06	2.867534e-06	8.274624e-09	1.985593e+01	5.434166e+02
2.260000e-06	2.747069e-06	8.116783e-09	1.902179e+01	5.322167e+02
2.270000e-06	2.625609e-06	7.947273e-09	1.818075e+01	5.207218e+02
2.280000e-06	2.503283e-06	7.762638e-09	1.733372e+01	5.089357e+02
2.290000e-06	2.380075e-06	7.570423e-09	1.648057e+01	4.968639e+02
2.300000e-06	2.256027e-06	7.376112e-09	1.562162e+01	4.845117e+02
2.310000e-06	2.131264e-06	7.190745e-09	1.475771e+01	4.718826e+02
2.320000e-06	2.005813e-06	7.007888e-09	1.388904e+01	4.589756e+02
2.330000e-06	1.879599e-06	6.807724e-09	1.301508e+01	4.457846e+02
2.340000e-06	1.752678e-06	6.588939e-09	1.213623e+01	4.322974e+02
2.350000e-06	1.625195e-06	6.368550e-09	1.125349e+01	4.184957e+02
2.360000e-06	1.497147e-06	6.156691e-09	1.036683e+01	4.043560e+02
2.370000e-06	1.368541e-06	5.945557e-09	9.476316e+00	3.898515e+02
2.380000e-06	1.239473e-06	5.723585e-09	8.582597e+00	3.749541e+02
2.390000e-06	1.110068e-06	5.485620e-09	7.686551e+00	3.596366e+02
2.400000e-06	9.803775e-07	5.235938e-09	6.788520e+00	3.438746e+02
2.410000e-06	8.504198e-07	4.986291e-09	5.888641e+00	3.276481e+02
2.420000e-06	7.202524e-07	4.738301e-09	4.987311e+00	3.109418e+02
2.430000e-06	5.898550e-07	4.483950e-09	4.084388e+00	2.937443e+02
2.440000e-06	4.593000e-07	4.213802e-09	3.180374e+00	2.760461e+02
2.450000e-06	3.285669e-07	3.928523e-09	2.275126e+00	2.578373e+02
2.460000e-06	1.976430e-07	3.639581e-09	1.368558e+00	2.391042e+02
2.470000e-06	6.660928e-08	3.350964e-09	4.612289e-01	2.198262e+02
2.480000e-06	-6.444777e-08	3.056697e-09	-4.462618e-01	1.999732e+02
2.490000e-06	-1.954371e-07	2.744424e-09	-1.353284e+00	1.795046e+02
2.500000e-06	-3.263722e-07	2.411934e-09	-2.259929e+00	1.583696e+02
2.510000e-06	-4.572417e-07	2.070225e-09	-3.166122e+00	1.365097e+02
2.520000e-06	-5.879944e-07	1.726137e-09	-4.071505e+00	1.138636e+02
2.530000e-06	-7.185597e-07	1.376165e-09	-4.975590e+00	9.037316e+01
2.540000e-06	-8.488746e-07	1.011332e-09	-5.877942e+00	6.599177e+01
2.550000e-06	-9.789286e-07	6.270824e-10	-6.778487e+00	4.069219e+01
2.560000e-06	-1.108706e-06	2.260878e-10	-7.677114e+00	1.447486e+01
2.570000e-06	-1.238125e-06	-1.857771e-10	-8.573266e+00	-1.262545e+01
2.580000e-06	-1.367162e-06	-6.058351e-10	-9.466768e+00	-4.053508e+01
2.590000e-06	-1.495779e-06	-1.037115e-09	-1.035736e+01	-6.913987e+01
2.600000e-06	-1.623941e-06	-1.484525e-09	-1.124480e+01	-9.828678e+01
2.610000e-06	-1.751408e-06	-1.943155e-09	-1.212744e+01	-1.277891e+02
2.620000e-06	-1.877973e-06	-2.400889e-09	-1.300382e+01	-1.574345e+02
2.630000e-06	-2.003855e-06	-2.850113e-09	-1.387548e+01	-1.869960e+02
2.640000e-06	-2.129086e-06	-3.292364e-09	-1.474263e+01	-2.162439e+02
2.650000e-06	-2.253434e-06	-3.731792e-09	-1.560366e+01	-2.449585e+02
2.660000e-06	-2.376837e-06	-4.163038e-09	-1.645815e+01	-2.729422e+02
2.670000e-06	-2.499324e-06	-4.576067e-09	-1.730630e+01	-3.000289e+02
2.680000e-06	-2.620888e-06	-4.968778e-09	-1.814806e+01	-3.260916e+02
2.690000e-06	-2.741549e-06	-5.343644e-09	-1.898357e+01	-3.510462e+02
2.700000e-06	-2.861162e-06	-5.703428e-09	-1.981181e+01	-3.748513e+02
2.710000e-06	-2.979586e-06	-6.052778e-09	-2.063183e+01	-3.975053e+02
2.720000e-06	-3.096808e-06	-6.387472e-09	-2.144352e+01	-4.190400e+02
2.730000e-06	-3.212748e-06	-6.699785e-09	-2.224633e+01	-4.395126e+02
2.740000e-06	-3.327425e-06	-6.993073e-09	-2.304040e+01	-4.589965e+02
2.750000e-06	-3.440749e-06	-7.276118e-09	-2.382510e+01	-4.775718e+02
2.760000e-06	-3.552680e-06	-7.552670e-09	-2.460015e+01	-4.953174e+02
2.770000e-06	-3.663281e-06	-7.819270e-09	-2.536600e+01	-5.123042e+02
2.780000e-06	-3.772603e-06	-8.070470e-09	-2.612299e+01	-5.285911e+02
2.790000e-06	-3.880753e-06	-8.305330e-09	-2.687186e+01	-5.442232e+02
2.800000e-06	-3.987636e-06	-8.527431e-09	-2.761196e+01	-5.592322e+02
2.810000e-06	-4.093151e-06	-8.742495e-09	-2.834259e+01	-5.736391e+02
2.820000e-06	-4.197242e-06	-8.954247e-09	-2.906335e+01	-5.874578e+02
2.830000e-06	-4.299725e-06	-9.159536e-09	-2.977299e+01	-6.006987e+02
2.840000e-06	-4.400502e-06	-9.355191e-09	-3.047081e+01	-6.133735e+02
2.850000e-06	-4.499714e-06	-9.541436e-09	-3.115779e+01	-6.254975e+02
2.860000e-06	-4.597478e-06	-9.721668e-09	-3.183475e+01	-6.370917e+02
2.870000e-06	-4.693718e-06	-9.895899e-09	-3.250115e+01	-6.481828e+02
2.880000e-06	-4.788222e-06	-1.005972e-08	-3.315554e+01	-6.588024e+02
2.890000e-06	-4.880951e-06	-1.021313e-08	-3.379763e+01	-6.689842e+02
2.900000e-06	-4.971997e-06	-1.035830e-08	-3.442806e+01	-6.787616e+02
2.910000e-06	-5.061331e-06	-1.049878e-08	-3.504665e+01	-6.881640e+02
2.920000e-06	-5.148745e-06	-1.063656e-08	-3.565194e+01	-6.972150e+02
2.930000e-06	-5.234102e-06	-1.077011e-08	-3.624298e+01	-7.059298e+02
2.940000e-06	-5.317598e-06	-1.089757e-08	-3.682115e+01	-7.143155e+02
