# Temperatura_=_58.51
# Concentracion g/m^3_=_15000.0
# C_Vs_to_Am_M_A/Vsm_=_65563218390.804596
# pendiente_HvsI_1/m_=_3716.3
# ordenada_HvsI_A/m_=_1297.0
# frecuencia_Hz_=_301977.5134706649

Tiempo_(s)	Campo_(V.s)	Magnetizacion_(V.s)	Campo_(kA/m)	Magnetizacion_(A/m)
0.000000e+00	-6.898632e-06	-1.071024e-08	-4.746897e+01	-7.018383e+02
1.000000e-08	-6.894871e-06	-1.070867e-08	-4.744310e+01	-7.015491e+02
2.000000e-08	-6.888927e-06	-1.070393e-08	-4.740219e+01	-7.011091e+02
3.000000e-08	-6.880767e-06	-1.069932e-08	-4.734605e+01	-7.005271e+02
4.000000e-08	-6.870171e-06	-1.068987e-08	-4.727314e+01	-6.998166e+02
5.000000e-08	-6.857070e-06	-1.067559e-08	-4.718299e+01	-6.989951e+02
6.000000e-08	-6.841478e-06	-1.065455e-08	-4.707570e+01	-6.980822e+02
7.000000e-08	-6.823601e-06	-1.063265e-08	-4.695269e+01	-6.970967e+02
8.000000e-08	-6.803621e-06	-1.066153e-08	-4.681521e+01	-6.960556e+02
9.000000e-08	-6.781105e-06	-1.069396e-08	-4.666028e+01	-6.949712e+02
1.000000e-07	-6.755685e-06	-1.062687e-08	-4.648536e+01	-6.938502e+02
1.100000e-07	-6.727590e-06	-1.057026e-08	-4.629205e+01	-6.926928e+02
1.200000e-07	-6.697239e-06	-1.055619e-08	-4.608321e+01	-6.914923e+02
1.300000e-07	-6.664850e-06	-1.046981e-08	-4.586034e+01	-6.902364e+02
1.400000e-07	-6.630532e-06	-1.042551e-08	-4.562420e+01	-6.889074e+02
1.500000e-07	-6.594294e-06	-1.057000e-08	-4.537485e+01	-6.874851e+02
1.600000e-07	-6.555985e-06	-1.046778e-08	-4.511125e+01	-6.859477e+02
1.700000e-07	-6.515567e-06	-1.038643e-08	-4.483314e+01	-6.842741e+02
1.800000e-07	-6.472703e-06	-1.047355e-08	-4.453819e+01	-6.824458e+02
1.900000e-07	-6.427269e-06	-1.033081e-08	-4.422556e+01	-6.804480e+02
2.000000e-07	-6.379502e-06	-1.032350e-08	-4.389688e+01	-6.782706e+02
2.100000e-07	-6.329130e-06	-1.033977e-08	-4.355027e+01	-6.759084e+02
2.200000e-07	-6.276135e-06	-1.027640e-08	-4.318562e+01	-6.733611e+02
2.300000e-07	-6.220738e-06	-1.023578e-08	-4.280444e+01	-6.706326e+02
2.400000e-07	-6.162908e-06	-1.016376e-08	-4.240652e+01	-6.677299e+02
2.500000e-07	-6.102782e-06	-1.014310e-08	-4.199279e+01	-6.646624e+02
2.600000e-07	-6.040485e-06	-1.008414e-08	-4.156413e+01	-6.614401e+02
2.700000e-07	-5.975908e-06	-1.001500e-08	-4.111978e+01	-6.580730e+02
2.800000e-07	-5.909025e-06	-9.974347e-09	-4.065957e+01	-6.545698e+02
2.900000e-07	-5.839915e-06	-9.922270e-09	-4.018402e+01	-6.509373e+02
3.000000e-07	-5.768635e-06	-9.893117e-09	-3.969355e+01	-6.471801e+02
3.100000e-07	-5.695167e-06	-9.808025e-09	-3.918803e+01	-6.432998e+02
3.200000e-07	-5.619434e-06	-9.752512e-09	-3.866691e+01	-6.392958e+02
3.300000e-07	-5.541398e-06	-9.690784e-09	-3.812995e+01	-6.351651e+02
3.400000e-07	-5.461150e-06	-9.599050e-09	-3.757777e+01	-6.309026e+02
3.500000e-07	-5.378933e-06	-9.547551e-09	-3.701204e+01	-6.265019e+02
3.600000e-07	-5.294942e-06	-9.497659e-09	-3.643410e+01	-6.219560e+02
3.700000e-07	-5.209246e-06	-9.443826e-09	-3.584444e+01	-6.172572e+02
3.800000e-07	-5.121730e-06	-9.348533e-09	-3.524224e+01	-6.123985e+02
3.900000e-07	-5.032278e-06	-9.266195e-09	-3.462673e+01	-6.073736e+02
4.000000e-07	-4.941024e-06	-9.181275e-09	-3.399882e+01	-6.021776e+02
4.100000e-07	-4.848167e-06	-9.096295e-09	-3.335988e+01	-5.968071e+02
4.200000e-07	-4.753760e-06	-9.026393e-09	-3.271027e+01	-5.912605e+02
4.300000e-07	-4.657586e-06	-8.942496e-09	-3.204851e+01	-5.855378e+02
4.400000e-07	-4.559600e-06	-8.854478e-09	-3.137427e+01	-5.796405e+02
4.500000e-07	-4.460015e-06	-8.756935e-09	-3.068904e+01	-5.735710e+02
4.600000e-07	-4.358957e-06	-8.659409e-09	-2.999366e+01	-5.673321e+02
4.700000e-07	-4.256412e-06	-8.559081e-09	-2.928806e+01	-5.609262e+02
4.800000e-07	-4.152317e-06	-8.460284e-09	-2.857178e+01	-5.543545e+02
4.900000e-07	-4.046633e-06	-8.355927e-09	-2.784458e+01	-5.476165e+02
5.000000e-07	-3.939455e-06	-8.248315e-09	-2.710710e+01	-5.407092e+02
5.100000e-07	-3.830803e-06	-8.143261e-09	-2.635947e+01	-5.336273e+02
5.200000e-07	-3.720805e-06	-8.035936e-09	-2.560259e+01	-5.263627e+02
5.300000e-07	-3.609565e-06	-7.919534e-09	-2.483715e+01	-5.189049e+02
5.400000e-07	-3.496868e-06	-7.793910e-09	-2.406169e+01	-5.112423e+02
5.500000e-07	-3.382604e-06	-7.672278e-09	-2.327545e+01	-5.033624e+02
5.600000e-07	-3.266900e-06	-7.552270e-09	-2.247930e+01	-4.952534e+02
5.700000e-07	-3.149900e-06	-7.428097e-09	-2.167423e+01	-4.869050e+02
5.800000e-07	-3.031762e-06	-7.298233e-09	-2.086133e+01	-4.783093e+02
5.900000e-07	-2.912590e-06	-7.165236e-09	-2.004131e+01	-4.694614e+02
6.000000e-07	-2.792324e-06	-7.022257e-09	-1.921377e+01	-4.603597e+02
6.100000e-07	-2.670928e-06	-6.872418e-09	-1.837846e+01	-4.510052e+02
6.200000e-07	-2.548459e-06	-6.725273e-09	-1.753575e+01	-4.414010e+02
6.300000e-07	-2.425068e-06	-6.580697e-09	-1.668671e+01	-4.315509e+02
6.400000e-07	-2.300812e-06	-6.427946e-09	-1.583172e+01	-4.214578e+02
6.500000e-07	-2.175714e-06	-6.266419e-09	-1.497093e+01	-4.111228e+02
6.600000e-07	-2.049965e-06	-6.103488e-09	-1.410566e+01	-4.005431e+02
6.700000e-07	-1.923686e-06	-5.936926e-09	-1.323674e+01	-3.897116e+02
6.800000e-07	-1.796772e-06	-5.766226e-09	-1.236346e+01	-3.786165e+02
6.900000e-07	-1.669063e-06	-5.591383e-09	-1.148470e+01	-3.672415e+02
7.000000e-07	-1.540667e-06	-5.411700e-09	-1.060122e+01	-3.555669e+02
7.100000e-07	-1.411736e-06	-5.226143e-09	-9.714053e+00	-3.435708e+02
7.200000e-07	-1.282295e-06	-5.038004e-09	-8.823379e+00	-3.312314e+02
7.300000e-07	-1.152445e-06	-4.845396e-09	-7.929888e+00	-3.185282e+02
7.400000e-07	-1.022234e-06	-4.645499e-09	-7.033919e+00	-3.054443e+02
7.500000e-07	-8.916768e-07	-4.440223e-09	-6.135562e+00	-2.919667e+02
7.600000e-07	-7.608215e-07	-4.229172e-09	-5.235156e+00	-2.780871e+02
7.700000e-07	-6.297502e-07	-4.012444e-09	-4.333264e+00	-2.638007e+02
7.800000e-07	-4.984684e-07	-3.791377e-09	-3.429924e+00	-2.491052e+02
7.900000e-07	-3.670126e-07	-3.564054e-09	-2.525387e+00	-2.339974e+02
8.000000e-07	-2.354447e-07	-3.326529e-09	-1.620077e+00	-2.184716e+02
8.100000e-07	-1.037827e-07	-3.081066e-09	-7.141214e-01	-2.025157e+02
8.200000e-07	2.794378e-08	-2.831244e-09	1.922791e-01	-1.861091e+02
8.300000e-07	1.596811e-07	-2.575540e-09	1.098754e+00	-1.692215e+02
8.400000e-07	2.913722e-07	-2.310022e-09	2.004911e+00	-1.518121e+02
8.500000e-07	4.230060e-07	-2.035498e-09	2.910673e+00	-1.338316e+02
8.600000e-07	5.545526e-07	-1.751511e-09	3.815836e+00	-1.152252e+02
8.700000e-07	6.859627e-07	-1.454708e-09	4.720059e+00	-9.593726e+01
8.800000e-07	8.172072e-07	-1.147185e-09	5.623142e+00	-7.591750e+01
8.900000e-07	9.482182e-07	-8.323578e-10	6.524619e+00	-5.512792e+01
9.000000e-07	1.078901e-06	-5.081214e-10	7.423841e+00	-3.354958e+01
9.100000e-07	1.209197e-06	-1.686091e-10	8.320395e+00	-1.118896e+01
9.200000e-07	1.339088e-06	1.848860e-10	9.214164e+00	1.191730e+01
9.300000e-07	1.468513e-06	5.495141e-10	1.010473e+01	3.569949e+01
9.400000e-07	1.597421e-06	9.220172e-10	1.099174e+01	6.005456e+01
9.500000e-07	1.725726e-06	1.302152e-09	1.187459e+01	8.484849e+01
9.600000e-07	1.853289e-06	1.687818e-09	1.275234e+01	1.099212e+02
9.700000e-07	1.980075e-06	2.074718e-09	1.362475e+01	1.350941e+02
9.800000e-07	2.106160e-06	2.462006e-09	1.449233e+01	1.601784e+02
9.900000e-07	2.231605e-06	2.842756e-09	1.535551e+01	1.849856e+02
1.000000e-06	2.356327e-06	3.213333e-09	1.621371e+01	2.093371e+02
1.010000e-06	2.480163e-06	3.573869e-09	1.706582e+01	2.330730e+02
1.020000e-06	2.603032e-06	3.922382e-09	1.791127e+01	2.560596e+02
1.030000e-06	2.724958e-06	4.258116e-09	1.875023e+01	2.781945e+02
1.040000e-06	2.845841e-06	4.578698e-09	1.958202e+01	2.994091e+02
1.050000e-06	2.965598e-06	4.886407e-09	2.040606e+01	3.196681e+02
1.060000e-06	3.084286e-06	5.180497e-09	2.122274e+01	3.389673e+02
1.070000e-06	3.201922e-06	5.460183e-09	2.203219e+01	3.573284e+02
1.080000e-06	3.318352e-06	5.726046e-09	2.283333e+01	3.747932e+02
1.090000e-06	3.433394e-06	5.978174e-09	2.362493e+01	3.914166e+02
1.100000e-06	3.547053e-06	6.217693e-09	2.440701e+01	4.072596e+02
1.110000e-06	3.659349e-06	6.445527e-09	2.517971e+01	4.223839e+02
1.120000e-06	3.770296e-06	6.665053e-09	2.594313e+01	4.368464e+02
1.130000e-06	3.880026e-06	6.877334e-09	2.669817e+01	4.506963e+02
1.140000e-06	3.988568e-06	7.080806e-09	2.744504e+01	4.639734e+02
1.150000e-06	4.095744e-06	7.275699e-09	2.818251e+01	4.767082e+02
1.160000e-06	4.201483e-06	7.460239e-09	2.891009e+01	4.889228e+02
1.170000e-06	4.305662e-06	7.635608e-09	2.962694e+01	5.006334e+02
1.180000e-06	4.408221e-06	7.805652e-09	3.033264e+01	5.118525e+02
1.190000e-06	4.509282e-06	7.968859e-09	3.102804e+01	5.225914e+02
1.200000e-06	4.608774e-06	8.125241e-09	3.171263e+01	5.328619e+02
1.210000e-06	4.706528e-06	8.274053e-09	3.238527e+01	5.426781e+02
1.220000e-06	4.802425e-06	8.417532e-09	3.304513e+01	5.520563e+02
1.230000e-06	4.896546e-06	8.557526e-09	3.369277e+01	5.610149e+02
1.240000e-06	4.989092e-06	8.691877e-09	3.432957e+01	5.695736e+02
1.250000e-06	5.079949e-06	8.819023e-09	3.495475e+01	5.777520e+02
1.260000e-06	5.168876e-06	8.940458e-09	3.556666e+01	5.855685e+02
1.270000e-06	5.255878e-06	9.056460e-09	3.616530e+01	5.930391e+02
1.280000e-06	5.341120e-06	9.165837e-09	3.675185e+01	6.001768e+02
1.290000e-06	5.424585e-06	9.270307e-09	3.732617e+01	6.069914e+02
1.300000e-06	5.506056e-06	9.368983e-09	3.788677e+01	6.134906e+02
1.310000e-06	5.585459e-06	9.460734e-09	3.843313e+01	6.196804e+02
1.320000e-06	5.662818e-06	9.547260e-09	3.896543e+01	6.255665e+02
1.330000e-06	5.738061e-06	9.631044e-09	3.948317e+01	6.311561e+02
1.340000e-06	5.811068e-06	9.712536e-09	3.998553e+01	6.364583e+02
1.350000e-06	5.881896e-06	9.789321e-09	4.047289e+01	6.414855e+02
1.360000e-06	5.950667e-06	9.861060e-09	4.094610e+01	6.462530e+02
1.370000e-06	6.017291e-06	9.930652e-09	4.140453e+01	6.507784e+02
1.380000e-06	6.081675e-06	9.998403e-09	4.184755e+01	6.550812e+02
1.390000e-06	6.143943e-06	1.006206e-08	4.227602e+01	6.591802e+02
1.400000e-06	6.204209e-06	1.012253e-08	4.269070e+01	6.630930e+02
1.410000e-06	6.262328e-06	1.018102e-08	4.309061e+01	6.668334e+02
1.420000e-06	6.318225e-06	1.023698e-08	4.347524e+01	6.704107e+02
1.430000e-06	6.371897e-06	1.028954e-08	4.384455e+01	6.738286e+02
1.440000e-06	6.422996e-06	1.033961e-08	4.419616e+01	6.770856e+02
1.450000e-06	6.471380e-06	1.038746e-08	4.452909e+01	6.801756e+02
1.460000e-06	6.517416e-06	1.043116e-08	4.484585e+01	6.830891e+02
1.470000e-06	6.561315e-06	1.046970e-08	4.514792e+01	6.858152e+02
1.480000e-06	6.602844e-06	1.050465e-08	4.543368e+01	6.883435e+02
1.490000e-06	6.641937e-06	1.053860e-08	4.570268e+01	6.906663e+02
1.500000e-06	6.678790e-06	1.056991e-08	4.595626e+01	6.927799e+02
1.510000e-06	6.713298e-06	1.059780e-08	4.619370e+01	6.946858e+02
1.520000e-06	6.745351e-06	1.062357e-08	4.641426e+01	6.963910e+02
1.530000e-06	6.775102e-06	1.064699e-08	4.661897e+01	6.979071e+02
1.540000e-06	6.802634e-06	1.066800e-08	4.680842e+01	6.992495e+02
1.550000e-06	6.827650e-06	1.068703e-08	4.698055e+01	7.004356e+02
1.560000e-06	6.850057e-06	1.070380e-08	4.713474e+01	7.014824e+02
1.570000e-06	6.870184e-06	1.071714e-08	4.727323e+01	7.024050e+02
1.580000e-06	6.887937e-06	1.072770e-08	4.739538e+01	7.032144e+02
1.590000e-06	6.903063e-06	1.073719e-08	4.749947e+01	7.039169e+02
1.600000e-06	6.915589e-06	1.074601e-08	4.758566e+01	7.045132e+02
1.610000e-06	6.925360e-06	1.075225e-08	4.765289e+01	7.049991e+02
1.620000e-06	6.932464e-06	1.075619e-08	4.770177e+01	7.053664e+02
1.630000e-06	6.937242e-06	1.075953e-08	4.773465e+01	7.056049e+02
1.640000e-06	6.939582e-06	1.076330e-08	4.775075e+01	7.057040e+02
1.650000e-06	6.939374e-06	1.076582e-08	4.774932e+01	7.056549e+02
1.660000e-06	6.936850e-06	1.075582e-08	4.773195e+01	7.054527e+02
1.670000e-06	6.932191e-06	1.074856e-08	4.769989e+01	7.050972e+02
1.680000e-06	6.925181e-06	1.074320e-08	4.765166e+01	7.045939e+02
1.690000e-06	6.915883e-06	1.073455e-08	4.758768e+01	7.039538e+02
1.700000e-06	6.904386e-06	1.072632e-08	4.750857e+01	7.031924e+02
1.710000e-06	6.890387e-06	1.072262e-08	4.741225e+01	7.023283e+02
1.720000e-06	6.874014e-06	1.072629e-08	4.729958e+01	7.013810e+02
1.730000e-06	6.855583e-06	1.065912e-08	4.717276e+01	7.003688e+02
1.740000e-06	6.834646e-06	1.058297e-08	4.702869e+01	6.993068e+02
1.750000e-06	6.810408e-06	1.061742e-08	4.686192e+01	6.982053e+02
1.760000e-06	6.783076e-06	1.061498e-08	4.667384e+01	6.970680e+02
1.770000e-06	6.753369e-06	1.059662e-08	4.646943e+01	6.958923e+02
1.780000e-06	6.721773e-06	1.069783e-08	4.625202e+01	6.946689e+02
1.790000e-06	6.688691e-06	1.059326e-08	4.602439e+01	6.933829e+02
1.800000e-06	6.653857e-06	1.046908e-08	4.578470e+01	6.920155e+02
1.810000e-06	6.616453e-06	1.058879e-08	4.552733e+01	6.905455e+02
1.820000e-06	6.576717e-06	1.047689e-08	4.525390e+01	6.889511e+02
1.830000e-06	6.534919e-06	1.050513e-08	4.496629e+01	6.872123e+02
1.840000e-06	6.490816e-06	1.053329e-08	4.466282e+01	6.853119e+02
1.850000e-06	6.444467e-06	1.034991e-08	4.434390e+01	6.832370e+02
1.860000e-06	6.395656e-06	1.040252e-08	4.400804e+01	6.809797e+02
1.870000e-06	6.344441e-06	1.030039e-08	4.365563e+01	6.785369e+02
1.880000e-06	6.290768e-06	1.028321e-08	4.328631e+01	6.759102e+02
1.890000e-06	6.234442e-06	1.030037e-08	4.289874e+01	6.731050e+02
1.900000e-06	6.175762e-06	1.017114e-08	4.249496e+01	6.701294e+02
1.910000e-06	6.114732e-06	1.022123e-08	4.207502e+01	6.669933e+02
1.920000e-06	6.051371e-06	1.009707e-08	4.163904e+01	6.637067e+02
1.930000e-06	5.985848e-06	1.004216e-08	4.118818e+01	6.602793e+02
1.940000e-06	5.918216e-06	1.003175e-08	4.072280e+01	6.567189e+02
1.950000e-06	5.848329e-06	9.927864e-09	4.024192e+01	6.530316e+02
1.960000e-06	5.775970e-06	9.919816e-09	3.974402e+01	6.492205e+02
1.970000e-06	5.701418e-06	9.793843e-09	3.923104e+01	6.452864e+02
1.980000e-06	5.624716e-06	9.791089e-09	3.870326e+01	6.412275e+02
1.990000e-06	5.545736e-06	9.738495e-09	3.815980e+01	6.370400e+02
2.000000e-06	5.464725e-06	9.640971e-09	3.760237e+01	6.327181e+02
2.010000e-06	5.381923e-06	9.584852e-09	3.703262e+01	6.282550e+02
2.020000e-06	5.297298e-06	9.479039e-09	3.645031e+01	6.236434e+02
2.030000e-06	5.210597e-06	9.431420e-09	3.585373e+01	6.188759e+02
2.040000e-06	5.121945e-06	9.341122e-09	3.524372e+01	6.139456e+02
2.050000e-06	5.031648e-06	9.303275e-09	3.462240e+01	6.088468e+02
2.060000e-06	4.939787e-06	9.208486e-09	3.399031e+01	6.035753e+02
2.070000e-06	4.846169e-06	9.094356e-09	3.334613e+01	5.981284e+02
2.080000e-06	4.750756e-06	9.004868e-09	3.268960e+01	5.925052e+02
2.090000e-06	4.653726e-06	8.915322e-09	3.202194e+01	5.867064e+02
2.100000e-06	4.555114e-06	8.852922e-09	3.134340e+01	5.807339e+02
2.110000e-06	4.454970e-06	8.752786e-09	3.065432e+01	5.745905e+02
2.120000e-06	4.353143e-06	8.667950e-09	2.995365e+01	5.682787e+02
2.130000e-06	4.249620e-06	8.562671e-09	2.924132e+01	5.618006e+02
2.140000e-06	4.144589e-06	8.461757e-09	2.851861e+01	5.551568e+02
2.150000e-06	4.038206e-06	8.351067e-09	2.778660e+01	5.483457e+02
2.160000e-06	3.930439e-06	8.244696e-09	2.704506e+01	5.413634e+02
2.170000e-06	3.821165e-06	8.136225e-09	2.629315e+01	5.342033e+02
2.180000e-06	3.710473e-06	8.021203e-09	2.553149e+01	5.268562e+02
2.190000e-06	3.598416e-06	7.909152e-09	2.476043e+01	5.193111e+02
2.200000e-06	3.485007e-06	7.791096e-09	2.398008e+01	5.115558e+02
2.210000e-06	3.370211e-06	7.677672e-09	2.319017e+01	5.035781e+02
2.220000e-06	3.253929e-06	7.545862e-09	2.239004e+01	4.953666e+02
2.230000e-06	3.136178e-06	7.410840e-09	2.157981e+01	4.869120e+02
2.240000e-06	3.017244e-06	7.274291e-09	2.076143e+01	4.782076e+02
2.250000e-06	2.897289e-06	7.149792e-09	1.993603e+01	4.692499e+02
2.260000e-06	2.776235e-06	7.016403e-09	1.910307e+01	4.600385e+02
2.270000e-06	2.654186e-06	6.870048e-09	1.826325e+01	4.505755e+02
2.280000e-06	2.531244e-06	6.715884e-09	1.741730e+01	4.408644e+02
2.290000e-06	2.407406e-06	6.560690e-09	1.656518e+01	4.309089e+02
2.300000e-06	2.282693e-06	6.405201e-09	1.570704e+01	4.207111e+02
2.310000e-06	2.157168e-06	6.251985e-09	1.484332e+01	4.102707e+02
2.320000e-06	2.030859e-06	6.099525e-09	1.397419e+01	3.995832e+02
2.330000e-06	1.903812e-06	5.932693e-09	1.309999e+01	3.886394e+02
2.340000e-06	1.776170e-06	5.757392e-09	1.222169e+01	3.774256e+02
2.350000e-06	1.647957e-06	5.577295e-09	1.133947e+01	3.659237e+02
2.360000e-06	1.519167e-06	5.398649e-09	1.045327e+01	3.541130e+02
2.370000e-06	1.389853e-06	5.216046e-09	9.563476e+00	3.419714e+02
2.380000e-06	1.260092e-06	5.026067e-09	8.670599e+00	3.294774e+02
2.390000e-06	1.129984e-06	4.830527e-09	7.775334e+00	3.166118e+02
2.400000e-06	9.995986e-07	4.626442e-09	6.878164e+00	3.033595e+02
2.410000e-06	8.689677e-07	4.417600e-09	5.979302e+00	2.897093e+02
2.420000e-06	7.380930e-07	4.205858e-09	5.078763e+00	2.756547e+02
2.430000e-06	6.069777e-07	3.987009e-09	4.176569e+00	2.611922e+02
2.440000e-06	4.756237e-07	3.757517e-09	3.272731e+00	2.463194e+02
2.450000e-06	3.440303e-07	3.519645e-09	2.367247e+00	2.310325e+02
2.460000e-06	2.122907e-07	3.277985e-09	1.460756e+00	2.153232e+02
2.470000e-06	8.048396e-08	3.032655e-09	5.538042e-01	1.991762e+02
2.480000e-06	-5.138432e-08	2.783908e-09	-3.535717e-01	1.825668e+02
2.490000e-06	-1.833154e-07	2.525548e-09	-1.261380e+00	1.654600e+02
2.500000e-06	-3.151554e-07	2.253292e-09	-2.168561e+00	1.478113e+02
2.510000e-06	-4.468018e-07	1.969524e-09	-3.074410e+00	1.295684e+02
2.520000e-06	-5.782823e-07	1.678169e-09	-3.979117e+00	1.106755e+02
2.530000e-06	-7.095600e-07	1.381012e-09	-4.882430e+00	9.107850e+01
2.540000e-06	-8.406113e-07	1.072860e-09	-5.784184e+00	7.073147e+01
2.550000e-06	-9.713847e-07	7.514059e-10	-6.684026e+00	4.960378e+01
2.560000e-06	-1.101892e-06	4.183790e-10	-7.582035e+00	2.768667e+01
2.570000e-06	-1.232159e-06	7.449195e-11	-8.478394e+00	4.999070e+00
2.580000e-06	-1.362044e-06	-2.787105e-10	-9.372126e+00	-1.840841e+01
2.590000e-06	-1.491395e-06	-6.409493e-10	-1.026218e+01	-4.245167e+01
2.600000e-06	-1.620231e-06	-1.014003e-09	-1.114869e+01	-6.701394e+01
2.610000e-06	-1.748460e-06	-1.394485e-09	-1.203103e+01	-9.194928e+01
2.620000e-06	-1.875975e-06	-1.777207e-09	-1.290844e+01	-1.170886e+02
2.630000e-06	-2.002827e-06	-2.158529e-09	-1.378130e+01	-1.422479e+02
2.640000e-06	-2.128979e-06	-2.538561e-09	-1.464935e+01	-1.672372e+02
2.650000e-06	-2.254305e-06	-2.916764e-09	-1.551171e+01	-1.918712e+02
2.660000e-06	-2.378698e-06	-3.288387e-09	-1.636764e+01	-2.159781e+02
2.670000e-06	-2.502066e-06	-3.647828e-09	-1.721653e+01	-2.394085e+02
2.680000e-06	-2.624478e-06	-3.992974e-09	-1.805884e+01	-2.620418e+02
2.690000e-06	-2.745952e-06	-4.322916e-09	-1.889470e+01	-2.837897e+02
2.700000e-06	-2.866372e-06	-4.635914e-09	-1.972329e+01	-3.045982e+02
2.710000e-06	-2.985711e-06	-4.935171e-09	-2.054446e+01	-3.244458e+02
2.720000e-06	-3.103957e-06	-5.223322e-09	-2.135810e+01	-3.433400e+02
2.730000e-06	-3.221032e-06	-5.499772e-09	-2.216369e+01	-3.613120e+02
2.740000e-06	-3.336765e-06	-5.763191e-09	-2.296003e+01	-3.784100e+02
2.750000e-06	-3.451070e-06	-6.015817e-09	-2.374656e+01	-3.946923e+02
2.760000e-06	-3.564039e-06	-6.257156e-09	-2.452389e+01	-4.102210e+02
2.770000e-06	-3.675601e-06	-6.486380e-09	-2.529154e+01	-4.250561e+02
2.780000e-06	-3.785737e-06	-6.705318e-09	-2.604938e+01	-4.392516e+02
2.790000e-06	-3.894603e-06	-6.913426e-09	-2.679848e+01	-4.528528e+02
2.800000e-06	-4.002201e-06	-7.112196e-09	-2.753885e+01	-4.658953e+02
2.810000e-06	-4.108516e-06	-7.302681e-09	-2.827039e+01	-4.784058e+02
2.820000e-06	-4.213419e-06	-7.485150e-09	-2.899222e+01	-4.904038e+02
2.830000e-06	-4.316725e-06	-7.660320e-09	-2.970307e+01	-5.019034e+02
2.840000e-06	-4.418382e-06	-7.828363e-09	-3.040256e+01	-5.129164e+02
2.850000e-06	-4.518414e-06	-7.989289e-09	-3.109087e+01	-5.234540e+02
2.860000e-06	-4.616950e-06	-8.142346e-09	-3.176889e+01	-5.335290e+02
2.870000e-06	-4.713980e-06	-8.289118e-09	-3.243655e+01	-5.431564e+02
2.880000e-06	-4.809325e-06	-8.428523e-09	-3.309261e+01	-5.523534e+02
2.890000e-06	-4.902850e-06	-8.559457e-09	-3.373615e+01	-5.611392e+02
2.900000e-06	-4.994562e-06	-8.684043e-09	-3.436721e+01	-5.695336e+02
2.910000e-06	-5.084532e-06	-8.804792e-09	-3.498629e+01	-5.775559e+02
2.920000e-06	-5.172681e-06	-8.923698e-09	-3.559284e+01	-5.852234e+02
2.930000e-06	-5.258836e-06	-9.037792e-09	-3.618566e+01	-5.925510e+02
2.940000e-06	-5.343029e-06	-9.144831e-09	-3.676498e+01	-5.995502e+02
