# Temperatura_=_60.44
# Concentracion g/m^3_=_15000.0
# C_Vs_to_Am_M_A/Vsm_=_65563218390.804596
# pendiente_HvsI_1/m_=_3716.3
# ordenada_HvsI_A/m_=_1297.0
# frecuencia_Hz_=_301975.3412015548

Tiempo_(s)	Campo_(V.s)	Magnetizacion_(V.s)	Campo_(kA/m)	Magnetizacion_(A/m)
0.000000e+00	-6.907458e-06	-1.080657e-08	-4.747138e+01	-7.082430e+02
1.000000e-08	-6.903695e-06	-1.080269e-08	-4.744552e+01	-7.079652e+02
2.000000e-08	-6.897810e-06	-1.079734e-08	-4.740507e+01	-7.075386e+02
3.000000e-08	-6.889709e-06	-1.079222e-08	-4.734940e+01	-7.069695e+02
4.000000e-08	-6.879171e-06	-1.078396e-08	-4.727698e+01	-7.062682e+02
5.000000e-08	-6.866113e-06	-1.077292e-08	-4.718724e+01	-7.054484e+02
6.000000e-08	-6.850571e-06	-1.075643e-08	-4.708043e+01	-7.045261e+02
7.000000e-08	-6.832723e-06	-1.074166e-08	-4.695776e+01	-7.035174e+02
8.000000e-08	-6.812703e-06	-1.076452e-08	-4.682018e+01	-7.024371e+02
9.000000e-08	-6.790199e-06	-1.075769e-08	-4.666551e+01	-7.012973e+02
1.000000e-07	-6.764788e-06	-1.070891e-08	-4.649088e+01	-7.001057e+02
1.100000e-07	-6.736663e-06	-1.067684e-08	-4.629759e+01	-6.988651e+02
1.200000e-07	-6.706347e-06	-1.065105e-08	-4.608925e+01	-6.975729e+02
1.300000e-07	-6.673987e-06	-1.058669e-08	-4.586685e+01	-6.962215e+02
1.400000e-07	-6.639603e-06	-1.058066e-08	-4.563055e+01	-6.947985e+02
1.500000e-07	-6.603304e-06	-1.061531e-08	-4.538108e+01	-6.932884e+02
1.600000e-07	-6.564964e-06	-1.052101e-08	-4.511760e+01	-6.916735e+02
1.700000e-07	-6.524499e-06	-1.050829e-08	-4.483950e+01	-6.899357e+02
1.800000e-07	-6.481623e-06	-1.049223e-08	-4.454484e+01	-6.880574e+02
1.900000e-07	-6.436216e-06	-1.042758e-08	-4.423277e+01	-6.860233e+02
2.000000e-07	-6.388432e-06	-1.043674e-08	-4.390438e+01	-6.838209e+02
2.100000e-07	-6.338016e-06	-1.041830e-08	-4.355790e+01	-6.814416e+02
2.200000e-07	-6.284958e-06	-1.039851e-08	-4.319326e+01	-6.788807e+02
2.300000e-07	-6.229500e-06	-1.031348e-08	-4.281213e+01	-6.761376e+02
2.400000e-07	-6.171632e-06	-1.022465e-08	-4.241443e+01	-6.732151e+02
2.500000e-07	-6.111480e-06	-1.020197e-08	-4.200103e+01	-6.701193e+02
2.600000e-07	-6.049150e-06	-1.015209e-08	-4.157267e+01	-6.668585e+02
2.700000e-07	-5.984544e-06	-1.010845e-08	-4.112867e+01	-6.634424e+02
2.800000e-07	-5.917736e-06	-1.005768e-08	-4.066953e+01	-6.598810e+02
2.900000e-07	-5.848736e-06	-9.994370e-09	-4.019533e+01	-6.561838e+02
3.000000e-07	-5.777507e-06	-9.930261e-09	-3.970581e+01	-6.523590e+02
3.100000e-07	-5.704020e-06	-9.874035e-09	-3.920078e+01	-6.484123e+02
3.200000e-07	-5.628225e-06	-9.839389e-09	-3.867988e+01	-6.443470e+02
3.300000e-07	-5.550116e-06	-9.763533e-09	-3.814307e+01	-6.401631e+02
3.400000e-07	-5.469810e-06	-9.690683e-09	-3.759117e+01	-6.358575e+02
3.500000e-07	-5.387556e-06	-9.623660e-09	-3.702588e+01	-6.314243e+02
3.600000e-07	-5.303509e-06	-9.564380e-09	-3.644827e+01	-6.268550e+02
3.700000e-07	-5.217743e-06	-9.504844e-09	-3.585884e+01	-6.221395e+02
3.800000e-07	-5.130219e-06	-9.417477e-09	-3.525734e+01	-6.172667e+02
3.900000e-07	-5.040803e-06	-9.335227e-09	-3.464283e+01	-6.122259e+02
4.000000e-07	-4.949535e-06	-9.246862e-09	-3.401559e+01	-6.070076e+02
4.100000e-07	-4.856584e-06	-9.173020e-09	-3.337678e+01	-6.016043e+02
4.200000e-07	-4.762051e-06	-9.104672e-09	-3.272711e+01	-5.960110e+02
4.300000e-07	-4.665832e-06	-9.017045e-09	-3.206584e+01	-5.902262e+02
4.400000e-07	-4.567831e-06	-8.913075e-09	-3.139234e+01	-5.842510e+02
4.500000e-07	-4.468162e-06	-8.810084e-09	-3.070736e+01	-5.780893e+02
4.600000e-07	-4.366893e-06	-8.719763e-09	-3.001139e+01	-5.717467e+02
4.700000e-07	-4.264167e-06	-8.626144e-09	-2.930541e+01	-5.652292e+02
4.800000e-07	-4.159985e-06	-8.532583e-09	-2.858942e+01	-5.585427e+02
4.900000e-07	-4.054186e-06	-8.423963e-09	-2.786232e+01	-5.516909e+02
5.000000e-07	-3.946815e-06	-8.303493e-09	-2.712441e+01	-5.446750e+02
5.100000e-07	-3.837988e-06	-8.190556e-09	-2.637650e+01	-5.374926e+02
5.200000e-07	-3.727883e-06	-8.090416e-09	-2.561981e+01	-5.301375e+02
5.300000e-07	-3.616563e-06	-7.982751e-09	-2.485476e+01	-5.226000e+02
5.400000e-07	-3.503832e-06	-7.857320e-09	-2.408002e+01	-5.148675e+02
5.500000e-07	-3.389512e-06	-7.730058e-09	-2.329436e+01	-5.069260e+02
5.600000e-07	-3.273663e-06	-7.605198e-09	-2.249819e+01	-4.987608e+02
5.700000e-07	-3.156489e-06	-7.481564e-09	-2.169291e+01	-4.903586e+02
5.800000e-07	-3.038189e-06	-7.354160e-09	-2.087990e+01	-4.817083e+02
5.900000e-07	-2.918886e-06	-7.221305e-09	-2.005999e+01	-4.728022e+02
6.000000e-07	-2.798452e-06	-7.076171e-09	-1.923231e+01	-4.636362e+02
6.100000e-07	-2.676880e-06	-6.926777e-09	-1.839681e+01	-4.542098e+02
6.200000e-07	-2.554323e-06	-6.781564e-09	-1.755454e+01	-4.445251e+02
6.300000e-07	-2.430781e-06	-6.634946e-09	-1.670550e+01	-4.345860e+02
6.400000e-07	-2.306333e-06	-6.477742e-09	-1.585023e+01	-4.243960e+02
6.500000e-07	-2.181072e-06	-6.310871e-09	-1.498938e+01	-4.139570e+02
6.600000e-07	-2.055134e-06	-6.145539e-09	-1.412387e+01	-4.032678e+02
6.700000e-07	-1.928657e-06	-5.980893e-09	-1.325466e+01	-3.923224e+02
6.800000e-07	-1.801516e-06	-5.812784e-09	-1.238088e+01	-3.811104e+02
6.900000e-07	-1.673636e-06	-5.637807e-09	-1.150203e+01	-3.696164e+02
7.000000e-07	-1.545094e-06	-5.454734e-09	-1.061863e+01	-3.578216e+02
7.100000e-07	-1.415962e-06	-5.266292e-09	-9.731174e+00	-3.457045e+02
7.200000e-07	-1.286334e-06	-5.077700e-09	-8.840310e+00	-3.332435e+02
7.300000e-07	-1.156337e-06	-4.886232e-09	-7.946902e+00	-3.204183e+02
7.400000e-07	-1.026047e-06	-4.685591e-09	-7.051486e+00	-3.072117e+02
7.500000e-07	-8.953905e-07	-4.477466e-09	-6.153555e+00	-2.936107e+02
7.600000e-07	-7.643908e-07	-4.260586e-09	-5.253262e+00	-2.796064e+02
7.700000e-07	-6.331533e-07	-4.038407e-09	-4.351335e+00	-2.651939e+02
7.800000e-07	-5.017029e-07	-3.814173e-09	-3.447944e+00	-2.503698e+02
7.900000e-07	-3.700803e-07	-3.586094e-09	-2.543370e+00	-2.351306e+02
8.000000e-07	-2.383373e-07	-3.349955e-09	-1.637969e+00	-2.194693e+02
8.100000e-07	-1.065483e-07	-3.104755e-09	-7.322514e-01	-2.033727e+02
8.200000e-07	2.528884e-08	-2.853859e-09	1.737971e-01	-1.868189e+02
8.300000e-07	1.572218e-07	-2.595029e-09	1.080504e+00	-1.697763e+02
8.400000e-07	2.891580e-07	-2.326233e-09	1.987233e+00	-1.522030e+02
8.500000e-07	4.210155e-07	-2.047531e-09	2.893421e+00	-1.340490e+02
8.600000e-07	5.527645e-07	-1.757635e-09	3.798864e+00	-1.152588e+02
8.700000e-07	6.843663e-07	-1.455617e-09	4.703295e+00	-9.577738e+01
8.800000e-07	8.157868e-07	-1.144117e-09	5.606480e+00	-7.555545e+01
8.900000e-07	9.469273e-07	-8.260889e-10	6.507740e+00	-5.455683e+01
9.000000e-07	1.077786e-06	-4.993394e-10	7.407067e+00	-3.276518e+01
9.100000e-07	1.208314e-06	-1.581674e-10	8.304118e+00	-1.019007e+01
9.200000e-07	1.338391e-06	1.984884e-10	9.198069e+00	1.312838e+01
9.300000e-07	1.467967e-06	5.663374e-10	1.008858e+01	3.711697e+01
9.400000e-07	1.596971e-06	9.420403e-10	1.097515e+01	6.166940e+01
9.500000e-07	1.725331e-06	1.325045e-09	1.185730e+01	8.664894e+01
9.600000e-07	1.852996e-06	1.714389e-09	1.273468e+01	1.118937e+02
9.700000e-07	1.979908e-06	2.104872e-09	1.360688e+01	1.372239e+02
9.800000e-07	2.106074e-06	2.492137e-09	1.447396e+01	1.624511e+02
9.900000e-07	2.231610e-06	2.872440e-09	1.533670e+01	1.873876e+02
1.000000e-06	2.356445e-06	3.244326e-09	1.619463e+01	2.118568e+02
1.010000e-06	2.480441e-06	3.606834e-09	1.704678e+01	2.357009e+02
1.020000e-06	2.603523e-06	3.957551e-09	1.789266e+01	2.587889e+02
1.030000e-06	2.725594e-06	4.295457e-09	1.873159e+01	2.810209e+02
1.040000e-06	2.846580e-06	4.618373e-09	1.956307e+01	3.023304e+02
1.050000e-06	2.966459e-06	4.927947e-09	2.038694e+01	3.226838e+02
1.060000e-06	3.085252e-06	5.224363e-09	2.120334e+01	3.420778e+02
1.070000e-06	3.202969e-06	5.504433e-09	2.201235e+01	3.605344e+02
1.080000e-06	3.319540e-06	5.769263e-09	2.281348e+01	3.780949e+02
1.090000e-06	3.434790e-06	6.020202e-09	2.360553e+01	3.948135e+02
1.100000e-06	3.548649e-06	6.261012e-09	2.438802e+01	4.107501e+02
1.110000e-06	3.661149e-06	6.492533e-09	2.516118e+01	4.259653e+02
1.120000e-06	3.772306e-06	6.715443e-09	2.592510e+01	4.405151e+02
1.130000e-06	3.882213e-06	6.930053e-09	2.668043e+01	4.544482e+02
1.140000e-06	3.990918e-06	7.135248e-09	2.742751e+01	4.678044e+02
1.150000e-06	4.098313e-06	7.331059e-09	2.816558e+01	4.806146e+02
1.160000e-06	4.204250e-06	7.516852e-09	2.889363e+01	4.929017e+02
1.170000e-06	4.308619e-06	7.693913e-09	2.961090e+01	5.046830e+02
1.180000e-06	4.411369e-06	7.862907e-09	3.031705e+01	5.159722e+02
1.190000e-06	4.512560e-06	8.023572e-09	3.101249e+01	5.267817e+02
1.200000e-06	4.612209e-06	8.178148e-09	3.169732e+01	5.371242e+02
1.210000e-06	4.710181e-06	8.328951e-09	3.237063e+01	5.470142e+02
1.220000e-06	4.806355e-06	8.475892e-09	3.303159e+01	5.564681e+02
1.230000e-06	4.900696e-06	8.618044e-09	3.367995e+01	5.655041e+02
1.240000e-06	4.993345e-06	8.753614e-09	3.431667e+01	5.741412e+02
1.250000e-06	5.084349e-06	8.882187e-09	3.494210e+01	5.823982e+02
1.260000e-06	5.173495e-06	9.004835e-09	3.555475e+01	5.902926e+02
1.270000e-06	5.260688e-06	9.121503e-09	3.615398e+01	5.978397e+02
1.280000e-06	5.345997e-06	9.231944e-09	3.674027e+01	6.050519e+02
1.290000e-06	5.429497e-06	9.336571e-09	3.731412e+01	6.119390e+02
1.300000e-06	5.511093e-06	9.435087e-09	3.787489e+01	6.185086e+02
1.310000e-06	5.590643e-06	9.530124e-09	3.842159e+01	6.247670e+02
1.320000e-06	5.668142e-06	9.621869e-09	3.895420e+01	6.307205e+02
1.330000e-06	5.743509e-06	9.708111e-09	3.947216e+01	6.363767e+02
1.340000e-06	5.816609e-06	9.788902e-09	3.997454e+01	6.417451e+02
1.350000e-06	5.887552e-06	9.866241e-09	4.046209e+01	6.468382e+02
1.360000e-06	5.956442e-06	9.941055e-09	4.093554e+01	6.516710e+02
1.370000e-06	6.023164e-06	1.001158e-08	4.139409e+01	6.562608e+02
1.380000e-06	6.087673e-06	1.007787e-08	4.183742e+01	6.606264e+02
1.390000e-06	6.150071e-06	1.014086e-08	4.226625e+01	6.647858e+02
1.400000e-06	6.210482e-06	1.020093e-08	4.268142e+01	6.687559e+02
1.410000e-06	6.268762e-06	1.025919e-08	4.308195e+01	6.725498e+02
1.420000e-06	6.324795e-06	1.031541e-08	4.346704e+01	6.761766e+02
1.430000e-06	6.378518e-06	1.037089e-08	4.383625e+01	6.796403e+02
1.440000e-06	6.429701e-06	1.042411e-08	4.418800e+01	6.829401e+02
1.450000e-06	6.478267e-06	1.047342e-08	4.452177e+01	6.860706e+02
1.460000e-06	6.524431e-06	1.051745e-08	4.483904e+01	6.890236e+02
1.470000e-06	6.568465e-06	1.055585e-08	4.514166e+01	6.917895e+02
1.480000e-06	6.610193e-06	1.059070e-08	4.542843e+01	6.943590e+02
1.490000e-06	6.649463e-06	1.062348e-08	4.569831e+01	6.967250e+02
1.500000e-06	6.686488e-06	1.065524e-08	4.595276e+01	6.988840e+02
1.510000e-06	6.721194e-06	1.068702e-08	4.619128e+01	7.008371e+02
1.520000e-06	6.753408e-06	1.071601e-08	4.641267e+01	7.025901e+02
1.530000e-06	6.783251e-06	1.074092e-08	4.661777e+01	7.041532e+02
1.540000e-06	6.810803e-06	1.076392e-08	4.680712e+01	7.055398e+02
1.550000e-06	6.835837e-06	1.078290e-08	4.697916e+01	7.067654e+02
1.560000e-06	6.858300e-06	1.079731e-08	4.713354e+01	7.078455e+02
1.570000e-06	6.878414e-06	1.080709e-08	4.727177e+01	7.087940e+02
1.580000e-06	6.896153e-06	1.081505e-08	4.739368e+01	7.096216e+02
1.590000e-06	6.911361e-06	1.082491e-08	4.749820e+01	7.103349e+02
1.600000e-06	6.923956e-06	1.083484e-08	4.758476e+01	7.109360e+02
1.610000e-06	6.933829e-06	1.084370e-08	4.765261e+01	7.114225e+02
1.620000e-06	6.941007e-06	1.085047e-08	4.770194e+01	7.117887e+02
1.630000e-06	6.945757e-06	1.085662e-08	4.773459e+01	7.120266e+02
1.640000e-06	6.948109e-06	1.086174e-08	4.775075e+01	7.121274e+02
1.650000e-06	6.948000e-06	1.086162e-08	4.775001e+01	7.120838e+02
1.660000e-06	6.945605e-06	1.085415e-08	4.773354e+01	7.118910e+02
1.670000e-06	6.940978e-06	1.084468e-08	4.770174e+01	7.115480e+02
1.680000e-06	6.933981e-06	1.083390e-08	4.765366e+01	7.110583e+02
1.690000e-06	6.924680e-06	1.082249e-08	4.758974e+01	7.104300e+02
1.700000e-06	6.913151e-06	1.081338e-08	4.751051e+01	7.096751e+02
1.710000e-06	6.899205e-06	1.080929e-08	4.741466e+01	7.088085e+02
1.720000e-06	6.882947e-06	1.080152e-08	4.730293e+01	7.078462e+02
1.730000e-06	6.864612e-06	1.073733e-08	4.717692e+01	7.068041e+02
1.740000e-06	6.843702e-06	1.070903e-08	4.703322e+01	7.056960e+02
1.750000e-06	6.819509e-06	1.071897e-08	4.686695e+01	7.045324e+02
1.760000e-06	6.792311e-06	1.069617e-08	4.668003e+01	7.033188e+02
1.770000e-06	6.762650e-06	1.069634e-08	4.647619e+01	7.020557e+02
1.780000e-06	6.730988e-06	1.072173e-08	4.625859e+01	7.007384e+02
1.790000e-06	6.697880e-06	1.063095e-08	4.603106e+01	6.993570e+02
1.800000e-06	6.663024e-06	1.062434e-08	4.579151e+01	6.978977e+02
1.810000e-06	6.625623e-06	1.063296e-08	4.553447e+01	6.963439e+02
1.820000e-06	6.585899e-06	1.056142e-08	4.526147e+01	6.946776e+02
1.830000e-06	6.544072e-06	1.061914e-08	4.497401e+01	6.928806e+02
1.840000e-06	6.499948e-06	1.054000e-08	4.467077e+01	6.909363e+02
1.850000e-06	6.453542e-06	1.047547e-08	4.435185e+01	6.888304e+02
1.860000e-06	6.404709e-06	1.045703e-08	4.401625e+01	6.865520e+02
1.870000e-06	6.353535e-06	1.035972e-08	4.366455e+01	6.840943e+02
1.880000e-06	6.299840e-06	1.041966e-08	4.329554e+01	6.814541e+02
1.890000e-06	6.243465e-06	1.038189e-08	4.290810e+01	6.786326e+02
1.900000e-06	6.184750e-06	1.031496e-08	4.250458e+01	6.756339e+02
1.910000e-06	6.123714e-06	1.028855e-08	4.208511e+01	6.724653e+02
1.920000e-06	6.060330e-06	1.015903e-08	4.164951e+01	6.691357e+02
1.930000e-06	5.994751e-06	1.015171e-08	4.119882e+01	6.656551e+02
1.940000e-06	5.927031e-06	1.010536e-08	4.073341e+01	6.620335e+02
1.950000e-06	5.857020e-06	1.006131e-08	4.025226e+01	6.582797e+02
1.960000e-06	5.784614e-06	9.990762e-09	3.975466e+01	6.544011e+02
1.970000e-06	5.710084e-06	9.892766e-09	3.924245e+01	6.504024e+02
1.980000e-06	5.633315e-06	9.868565e-09	3.871485e+01	6.462854e+02
1.990000e-06	5.554226e-06	9.787214e-09	3.817131e+01	6.420490e+02
2.000000e-06	5.473130e-06	9.742927e-09	3.761399e+01	6.376886e+02
2.010000e-06	5.390245e-06	9.657579e-09	3.704436e+01	6.331972e+02
2.020000e-06	5.305503e-06	9.579503e-09	3.646197e+01	6.285655e+02
2.030000e-06	5.218667e-06	9.513605e-09	3.586520e+01	6.237829e+02
2.040000e-06	5.129937e-06	9.436144e-09	3.525540e+01	6.188385e+02
2.050000e-06	5.039615e-06	9.382663e-09	3.463466e+01	6.137217e+02
2.060000e-06	4.947712e-06	9.272003e-09	3.400306e+01	6.084239e+02
2.070000e-06	4.853975e-06	9.180840e-09	3.335885e+01	6.029385e+02
2.080000e-06	4.758361e-06	9.087389e-09	3.270175e+01	5.972622e+02
2.090000e-06	4.661183e-06	9.013730e-09	3.203389e+01	5.913945e+02
2.100000e-06	4.562546e-06	8.929565e-09	3.135601e+01	5.853378e+02
2.110000e-06	4.462380e-06	8.833964e-09	3.066762e+01	5.790968e+02
2.120000e-06	4.360516e-06	8.736136e-09	2.996756e+01	5.726775e+02
2.130000e-06	4.256963e-06	8.624031e-09	2.925590e+01	5.660860e+02
2.140000e-06	4.151873e-06	8.529375e-09	2.853367e+01	5.593273e+02
2.150000e-06	4.045391e-06	8.430093e-09	2.780188e+01	5.524043e+02
2.160000e-06	3.937539e-06	8.330623e-09	2.706066e+01	5.453166e+02
2.170000e-06	3.828233e-06	8.208451e-09	2.630946e+01	5.380601e+02
2.180000e-06	3.717495e-06	8.086313e-09	2.554841e+01	5.306272e+02
2.190000e-06	3.605302e-06	7.964315e-09	2.477737e+01	5.230068e+02
2.200000e-06	3.491745e-06	7.851467e-09	2.399695e+01	5.151855e+02
2.210000e-06	3.376897e-06	7.735744e-09	2.320766e+01	5.071489e+02
2.220000e-06	3.260570e-06	7.608345e-09	2.240821e+01	4.988827e+02
2.230000e-06	3.142729e-06	7.471112e-09	2.159835e+01	4.903743e+02
2.240000e-06	3.023670e-06	7.332528e-09	2.078012e+01	4.816142e+02
2.250000e-06	2.903480e-06	7.203341e-09	1.995412e+01	4.725960e+02
2.260000e-06	2.782196e-06	7.068905e-09	1.912059e+01	4.633172e+02
2.270000e-06	2.659957e-06	6.925792e-09	1.828050e+01	4.537787e+02
2.280000e-06	2.536888e-06	6.772064e-09	1.743472e+01	4.439835e+02
2.290000e-06	2.413001e-06	6.618203e-09	1.658331e+01	4.339355e+02
2.300000e-06	2.288115e-06	6.461121e-09	1.572503e+01	4.236378e+02
2.310000e-06	2.162319e-06	6.305590e-09	1.486049e+01	4.130909e+02
2.320000e-06	2.035849e-06	6.145445e-09	1.399133e+01	4.022919e+02
2.330000e-06	1.908725e-06	5.974657e-09	1.311768e+01	3.912329e+02
2.340000e-06	1.780913e-06	5.796344e-09	1.223929e+01	3.799011e+02
2.350000e-06	1.652536e-06	5.618520e-09	1.135702e+01	3.682797e+02
2.360000e-06	1.523647e-06	5.441710e-09	1.047124e+01	3.563484e+02
2.370000e-06	1.394213e-06	5.256458e-09	9.581702e+00	3.440856e+02
2.380000e-06	1.264268e-06	5.060260e-09	8.688658e+00	3.314699e+02
2.390000e-06	1.133945e-06	4.857784e-09	7.793018e+00	3.184821e+02
2.400000e-06	1.003349e-06	4.653217e-09	6.895495e+00	3.051068e+02
2.410000e-06	8.724941e-07	4.446203e-09	5.996199e+00	2.913328e+02
2.420000e-06	7.414504e-07	4.234890e-09	5.095604e+00	2.771531e+02
2.430000e-06	6.102609e-07	4.013984e-09	4.194007e+00	2.625635e+02
2.440000e-06	4.788701e-07	3.780555e-09	3.291026e+00	2.475611e+02
2.450000e-06	3.472696e-07	3.538085e-09	2.386604e+00	2.321412e+02
2.460000e-06	2.154872e-07	3.293861e-09	1.480932e+00	2.162944e+02
2.470000e-06	8.357432e-08	3.048798e-09	5.743630e-01	2.000041e+02
2.480000e-06	-4.837067e-08	2.800295e-09	-3.324266e-01	1.832443e+02
2.490000e-06	-1.803221e-07	2.540620e-09	-1.239260e+00	1.659789e+02
2.500000e-06	-3.122607e-07	2.264180e-09	-2.146006e+00	1.481623e+02
2.510000e-06	-4.441163e-07	1.976198e-09	-3.052181e+00	1.297415e+02
2.520000e-06	-5.758333e-07	1.682354e-09	-3.957404e+00	1.106607e+02
2.530000e-06	-7.073611e-07	1.382349e-09	-4.861326e+00	9.086631e+01
2.540000e-06	-8.386548e-07	1.070577e-09	-5.763640e+00	7.031395e+01
2.550000e-06	-9.696610e-07	7.460206e-10	-6.663977e+00	4.897509e+01
2.560000e-06	-1.100322e-06	4.110571e-10	-7.561944e+00	2.684380e+01
2.570000e-06	-1.230628e-06	6.657319e-11	-8.457467e+00	3.942313e+00
2.580000e-06	-1.360539e-06	-2.889745e-10	-9.350281e+00	-1.967525e+01
2.590000e-06	-1.490004e-06	-6.571695e-10	-1.024002e+01	-4.392136e+01
2.600000e-06	-1.618975e-06	-1.036043e-09	-1.112638e+01	-6.867618e+01
2.610000e-06	-1.747393e-06	-1.419928e-09	-1.200893e+01	-9.379143e+01
2.620000e-06	-1.875127e-06	-1.802924e-09	-1.288677e+01	-1.190965e+02
2.630000e-06	-2.002097e-06	-2.184820e-09	-1.375938e+01	-1.444068e+02
2.640000e-06	-2.128360e-06	-2.567619e-09	-1.462711e+01	-1.695330e+02
2.650000e-06	-2.253852e-06	-2.949220e-09	-1.548956e+01	-1.942910e+02
2.660000e-06	-2.378454e-06	-3.323430e-09	-1.634588e+01	-2.185111e+02
2.670000e-06	-2.502033e-06	-3.684425e-09	-1.719518e+01	-2.420465e+02
2.680000e-06	-2.624596e-06	-4.031087e-09	-1.803749e+01	-2.647789e+02
2.690000e-06	-2.746269e-06	-4.362741e-09	-1.887368e+01	-2.866228e+02
2.700000e-06	-2.866943e-06	-4.677340e-09	-1.970301e+01	-3.075258e+02
2.710000e-06	-2.986539e-06	-4.977977e-09	-2.052494e+01	-3.274678e+02
2.720000e-06	-3.105002e-06	-5.267540e-09	-2.133907e+01	-3.464571e+02
2.730000e-06	-3.222175e-06	-5.544113e-09	-2.214434e+01	-3.645247e+02
2.740000e-06	-3.337986e-06	-5.808845e-09	-2.294025e+01	-3.817182e+02
2.750000e-06	-3.452444e-06	-6.064187e-09	-2.372686e+01	-3.980951e+02
2.760000e-06	-3.565539e-06	-6.307645e-09	-2.450410e+01	-4.137163e+02
2.770000e-06	-3.677266e-06	-6.537757e-09	-2.527194e+01	-4.286409e+02
2.780000e-06	-3.787629e-06	-6.756781e-09	-2.603041e+01	-4.429219e+02
2.790000e-06	-3.896629e-06	-6.967011e-09	-2.677951e+01	-4.566045e+02
2.800000e-06	-4.004390e-06	-7.168536e-09	-2.752010e+01	-4.697243e+02
2.810000e-06	-4.110926e-06	-7.360373e-09	-2.825226e+01	-4.823089e+02
2.820000e-06	-4.216018e-06	-7.544431e-09	-2.897451e+01	-4.943784e+02
2.830000e-06	-4.319528e-06	-7.721504e-09	-2.968588e+01	-5.059482e+02
2.840000e-06	-4.421394e-06	-7.889511e-09	-3.038595e+01	-5.170313e+02
2.850000e-06	-4.521625e-06	-8.049409e-09	-3.107479e+01	-5.276400e+02
2.860000e-06	-4.620328e-06	-8.203722e-09	-3.175312e+01	-5.377877e+02
2.870000e-06	-4.717504e-06	-8.352953e-09	-3.242096e+01	-5.474897e+02
2.880000e-06	-4.812967e-06	-8.495038e-09	-3.307703e+01	-5.567632e+02
2.890000e-06	-4.906600e-06	-8.628016e-09	-3.372052e+01	-5.656268e+02
2.900000e-06	-4.998497e-06	-8.753887e-09	-3.435208e+01	-5.740998e+02
2.910000e-06	-5.088655e-06	-8.875995e-09	-3.497169e+01	-5.822004e+02
2.920000e-06	-5.176942e-06	-8.994988e-09	-3.557844e+01	-5.899452e+02
2.930000e-06	-5.263214e-06	-9.108436e-09	-3.617134e+01	-5.973484e+02
2.940000e-06	-5.347522e-06	-9.215372e-09	-3.675075e+01	-6.044212e+02
