# Temperatura_=_66.83
# Concentracion g/m^3_=_15000.0
# C_Vs_to_Am_M_A/Vsm_=_65563218390.804596
# pendiente_HvsI_1/m_=_3716.3
# ordenada_HvsI_A/m_=_1297.0
# frecuencia_Hz_=_301974.120935191

Tiempo_(s)	Campo_(V.s)	Magnetizacion_(V.s)	Campo_(kA/m)	Magnetizacion_(A/m)
0.000000e+00	-6.852733e-06	-1.125734e-08	-4.746564e+01	-7.371750e+02
1.000000e-08	-6.848961e-06	-1.125467e-08	-4.743951e+01	-7.368453e+02
2.000000e-08	-6.843016e-06	-1.124572e-08	-4.739833e+01	-7.363555e+02
3.000000e-08	-6.834871e-06	-1.123778e-08	-4.734191e+01	-7.357103e+02
4.000000e-08	-6.824312e-06	-1.122730e-08	-4.726878e+01	-7.349193e+02
5.000000e-08	-6.811221e-06	-1.121307e-08	-4.717810e+01	-7.339963e+02
6.000000e-08	-6.795623e-06	-1.118924e-08	-4.707006e+01	-7.329580e+02
7.000000e-08	-6.777756e-06	-1.116057e-08	-4.694631e+01	-7.318224e+02
8.000000e-08	-6.757797e-06	-1.119360e-08	-4.680806e+01	-7.306068e+02
9.000000e-08	-6.735368e-06	-1.123134e-08	-4.665271e+01	-7.293261e+02
1.000000e-07	-6.710063e-06	-1.116372e-08	-4.647743e+01	-7.279911e+02
1.100000e-07	-6.682073e-06	-1.110547e-08	-4.628356e+01	-7.266074e+02
1.200000e-07	-6.651855e-06	-1.108750e-08	-4.607425e+01	-7.251746e+02
1.300000e-07	-6.619625e-06	-1.098916e-08	-4.585101e+01	-7.236863e+02
1.400000e-07	-6.585453e-06	-1.094764e-08	-4.561431e+01	-7.221307e+02
1.500000e-07	-6.549419e-06	-1.109213e-08	-4.536472e+01	-7.204914e+02
1.600000e-07	-6.511380e-06	-1.095923e-08	-4.510125e+01	-7.187492e+02
1.700000e-07	-6.471203e-06	-1.088928e-08	-4.482296e+01	-7.168832e+02
1.800000e-07	-6.428596e-06	-1.097462e-08	-4.452784e+01	-7.148729e+02
1.900000e-07	-6.383478e-06	-1.082965e-08	-4.421533e+01	-7.126993e+02
2.000000e-07	-6.336055e-06	-1.085445e-08	-4.388685e+01	-7.103468e+02
2.100000e-07	-6.285977e-06	-1.085296e-08	-4.353999e+01	-7.078037e+02
2.200000e-07	-6.233270e-06	-1.076666e-08	-4.317491e+01	-7.050629e+02
2.300000e-07	-6.178174e-06	-1.071532e-08	-4.279329e+01	-7.021223e+02
2.400000e-07	-6.120679e-06	-1.061980e-08	-4.239505e+01	-6.989842e+02
2.500000e-07	-6.060933e-06	-1.060001e-08	-4.198121e+01	-6.956546e+02
2.600000e-07	-5.999019e-06	-1.055705e-08	-4.155236e+01	-6.921429e+02
2.700000e-07	-5.934908e-06	-1.048648e-08	-4.110830e+01	-6.884604e+02
2.800000e-07	-5.868554e-06	-1.043113e-08	-4.064870e+01	-6.846190e+02
2.900000e-07	-5.799933e-06	-1.037370e-08	-4.017339e+01	-6.806303e+02
3.000000e-07	-5.729197e-06	-1.034205e-08	-3.968344e+01	-6.765047e+02
3.100000e-07	-5.656387e-06	-1.024728e-08	-3.917911e+01	-6.722500e+02
3.200000e-07	-5.581252e-06	-1.019184e-08	-3.865869e+01	-6.678710e+02
3.300000e-07	-5.503751e-06	-1.012213e-08	-3.812188e+01	-6.633692e+02
3.400000e-07	-5.424022e-06	-1.002536e-08	-3.756963e+01	-6.587426e+02
3.500000e-07	-5.342280e-06	-9.977863e-09	-3.700344e+01	-6.539861e+02
3.600000e-07	-5.258809e-06	-9.920878e-09	-3.642528e+01	-6.490918e+02
3.700000e-07	-5.173637e-06	-9.853135e-09	-3.583533e+01	-6.440500e+02
3.800000e-07	-5.086760e-06	-9.741567e-09	-3.523358e+01	-6.388500e+02
3.900000e-07	-4.998076e-06	-9.654012e-09	-3.461931e+01	-6.334815e+02
4.000000e-07	-4.907498e-06	-9.573494e-09	-3.399191e+01	-6.279351e+02
4.100000e-07	-4.815201e-06	-9.490266e-09	-3.335262e+01	-6.222034e+02
4.200000e-07	-4.721340e-06	-9.414396e-09	-3.270249e+01	-6.162819e+02
4.300000e-07	-4.625831e-06	-9.318540e-09	-3.204094e+01	-6.101687e+02
4.400000e-07	-4.528605e-06	-9.217309e-09	-3.136750e+01	-6.038648e+02
4.500000e-07	-4.429682e-06	-9.107156e-09	-3.068231e+01	-5.973733e+02
4.600000e-07	-4.329179e-06	-9.009500e-09	-2.998617e+01	-5.906991e+02
4.700000e-07	-4.227199e-06	-8.910757e-09	-2.927980e+01	-5.838471e+02
4.800000e-07	-4.123700e-06	-8.804124e-09	-2.856292e+01	-5.768218e+02
4.900000e-07	-4.018739e-06	-8.690292e-09	-2.783590e+01	-5.696254e+02
5.000000e-07	-3.912272e-06	-8.577376e-09	-2.709845e+01	-5.622576e+02
5.100000e-07	-3.804294e-06	-8.466455e-09	-2.635054e+01	-5.547145e+02
5.200000e-07	-3.695024e-06	-8.348114e-09	-2.559368e+01	-5.469885e+02
5.300000e-07	-3.584584e-06	-8.221816e-09	-2.482872e+01	-5.390689e+02
5.400000e-07	-3.472744e-06	-8.087310e-09	-2.405405e+01	-5.309426e+02
5.500000e-07	-3.359358e-06	-7.958933e-09	-2.326868e+01	-5.225948e+02
5.600000e-07	-3.244519e-06	-7.836018e-09	-2.247324e+01	-5.140110e+02
5.700000e-07	-3.128293e-06	-7.709636e-09	-2.166821e+01	-5.051781e+02
5.800000e-07	-3.010865e-06	-7.571836e-09	-2.085484e+01	-4.960854e+02
5.900000e-07	-2.892414e-06	-7.425275e-09	-2.003438e+01	-4.867259e+02
6.000000e-07	-2.772961e-06	-7.274227e-09	-1.920699e+01	-4.770959e+02
6.100000e-07	-2.652434e-06	-7.122144e-09	-1.837215e+01	-4.671958e+02
6.200000e-07	-2.530872e-06	-6.968719e-09	-1.753015e+01	-4.570283e+02
6.300000e-07	-2.408308e-06	-6.813265e-09	-1.668121e+01	-4.465976e+02
6.400000e-07	-2.284766e-06	-6.648961e-09	-1.582549e+01	-4.359079e+02
6.500000e-07	-2.160348e-06	-6.476644e-09	-1.496371e+01	-4.249613e+02
6.600000e-07	-2.035257e-06	-6.303420e-09	-1.409726e+01	-4.137569e+02
6.700000e-07	-1.909644e-06	-6.128349e-09	-1.322720e+01	-4.022894e+02
6.800000e-07	-1.783464e-06	-5.950329e-09	-1.235321e+01	-3.905485e+02
6.900000e-07	-1.656660e-06	-5.766323e-09	-1.147490e+01	-3.785196e+02
7.000000e-07	-1.529234e-06	-5.577757e-09	-1.059228e+01	-3.661843e+02
7.100000e-07	-1.401202e-06	-5.384837e-09	-9.705465e+00	-3.535218e+02
7.200000e-07	-1.272683e-06	-5.187196e-09	-8.815276e+00	-3.405111e+02
7.300000e-07	-1.143750e-06	-4.982107e-09	-7.922215e+00	-3.271322e+02
7.400000e-07	-1.014444e-06	-4.768426e-09	-7.026573e+00	-3.133682e+02
7.500000e-07	-8.848060e-07	-4.549779e-09	-6.128632e+00	-2.992060e+02
7.600000e-07	-7.548587e-07	-4.325558e-09	-5.228549e+00	-2.846364e+02
7.700000e-07	-6.246985e-07	-4.097761e-09	-4.326990e+00	-2.696534e+02
7.800000e-07	-4.943488e-07	-3.867438e-09	-3.424120e+00	-2.542526e+02
7.900000e-07	-3.638244e-07	-3.631043e-09	-2.520039e+00	-2.384287e+02
8.000000e-07	-2.331285e-07	-3.383938e-09	-1.614771e+00	-2.221729e+02
8.100000e-07	-1.023182e-07	-3.126919e-09	-7.087097e-01	-2.054697e+02
8.200000e-07	2.856534e-08	-2.864726e-09	1.978586e-01	-1.882953e+02
8.300000e-07	1.594761e-07	-2.594999e-09	1.104615e+00	-1.706160e+02
8.400000e-07	2.903216e-07	-2.313988e-09	2.010920e+00	-1.523882e+02
8.500000e-07	4.211029e-07	-2.023081e-09	2.916780e+00	-1.335604e+02
8.600000e-07	5.517904e-07	-1.722457e-09	3.821991e+00	-1.140769e+02
8.700000e-07	6.823122e-07	-1.411718e-09	4.726053e+00	-9.388233e+01
8.800000e-07	8.126160e-07	-1.091840e-09	5.628606e+00	-7.292842e+01
8.900000e-07	9.426954e-07	-7.624221e-10	6.529605e+00	-5.118055e+01
9.000000e-07	1.072470e-06	-4.232259e-10	7.428495e+00	-2.862476e+01
9.100000e-07	1.201885e-06	-7.011446e-11	8.324892e+00	-5.273710e+00
9.200000e-07	1.330931e-06	2.976468e-10	9.218728e+00	1.882877e+01
9.300000e-07	1.459443e-06	6.775282e-10	1.010887e+01	4.360531e+01
9.400000e-07	1.587329e-06	1.065799e-09	1.099467e+01	6.894511e+01
9.500000e-07	1.714643e-06	1.460757e-09	1.187652e+01	9.470681e+01
9.600000e-07	1.841354e-06	1.861603e-09	1.275419e+01	1.207239e+02
9.700000e-07	1.967380e-06	2.262262e-09	1.362711e+01	1.468122e+02
9.800000e-07	2.092737e-06	2.658787e-09	1.449540e+01	1.727792e+02
9.900000e-07	2.217418e-06	3.047964e-09	1.535900e+01	1.984340e+02
1.000000e-06	2.341320e-06	3.428682e-09	1.621722e+01	2.235967e+02
1.010000e-06	2.464303e-06	3.800626e-09	1.706906e+01	2.481078e+02
1.020000e-06	2.586337e-06	4.162078e-09	1.791433e+01	2.718347e+02
1.030000e-06	2.707438e-06	4.511146e-09	1.875314e+01	2.946770e+02
1.040000e-06	2.827476e-06	4.843568e-09	1.958459e+01	3.165684e+02
1.050000e-06	2.946380e-06	5.160482e-09	2.040818e+01	3.374760e+02
1.060000e-06	3.064246e-06	5.462544e-09	2.122458e+01	3.573977e+02
1.070000e-06	3.181053e-06	5.751239e-09	2.203365e+01	3.763573e+02
1.080000e-06	3.296590e-06	6.025110e-09	2.283392e+01	3.943980e+02
1.090000e-06	3.410761e-06	6.285199e-09	2.362472e+01	4.115758e+02
1.100000e-06	3.523606e-06	6.534862e-09	2.440635e+01	4.279528e+02
1.110000e-06	3.635080e-06	6.773489e-09	2.517848e+01	4.435914e+02
1.120000e-06	3.745269e-06	7.002515e-09	2.594171e+01	4.585491e+02
1.130000e-06	3.854374e-06	7.220634e-09	2.669743e+01	4.728764e+02
1.140000e-06	3.962286e-06	7.430304e-09	2.744488e+01	4.866141e+02
1.150000e-06	4.068767e-06	7.632394e-09	2.818243e+01	4.997946e+02
1.160000e-06	4.173756e-06	7.823457e-09	2.890963e+01	5.124420e+02
1.170000e-06	4.277123e-06	8.004561e-09	2.962560e+01	5.245750e+02
1.180000e-06	4.378944e-06	8.178970e-09	3.033087e+01	5.362088e+02
1.190000e-06	4.479387e-06	8.346085e-09	3.102659e+01	5.473572e+02
1.200000e-06	4.578251e-06	8.505981e-09	3.171138e+01	5.580350e+02
1.210000e-06	4.675358e-06	8.659760e-09	3.238399e+01	5.682583e+02
1.220000e-06	4.770652e-06	8.809468e-09	3.304404e+01	5.780454e+02
1.230000e-06	4.864269e-06	8.954263e-09	3.369249e+01	5.874161e+02
1.240000e-06	4.956338e-06	9.094122e-09	3.433021e+01	5.963907e+02
1.250000e-06	5.046668e-06	9.229368e-09	3.495588e+01	6.049887e+02
1.260000e-06	5.135042e-06	9.359928e-09	3.556801e+01	6.132277e+02
1.270000e-06	5.221506e-06	9.482819e-09	3.616690e+01	6.211221e+02
1.280000e-06	5.306170e-06	9.597481e-09	3.675333e+01	6.286830e+02
1.290000e-06	5.389002e-06	9.707609e-09	3.732707e+01	6.359178e+02
1.300000e-06	5.469863e-06	9.811114e-09	3.788715e+01	6.428314e+02
1.310000e-06	5.548710e-06	9.908988e-09	3.843328e+01	6.494269e+02
1.320000e-06	5.625604e-06	1.000337e-08	3.896590e+01	6.557076e+02
1.330000e-06	5.700351e-06	1.009513e-08	3.948363e+01	6.616777e+02
1.340000e-06	5.772809e-06	1.018274e-08	3.998552e+01	6.673447e+02
1.350000e-06	5.843157e-06	1.026500e-08	4.047278e+01	6.727190e+02
1.360000e-06	5.911478e-06	1.034217e-08	4.094601e+01	6.778151e+02
1.370000e-06	5.977654e-06	1.041509e-08	4.140438e+01	6.826506e+02
1.380000e-06	6.041612e-06	1.048460e-08	4.184738e+01	6.872452e+02
1.390000e-06	6.103515e-06	1.055016e-08	4.227616e+01	6.916192e+02
1.400000e-06	6.163462e-06	1.061355e-08	4.269138e+01	6.957918e+02
1.410000e-06	6.221266e-06	1.067540e-08	4.309176e+01	6.997790e+02
1.420000e-06	6.276817e-06	1.073410e-08	4.347654e+01	7.035926e+02
1.430000e-06	6.330116e-06	1.079022e-08	4.384571e+01	7.072386e+02
1.440000e-06	6.380881e-06	1.084429e-08	4.419734e+01	7.107178e+02
1.450000e-06	6.428984e-06	1.089579e-08	4.453053e+01	7.140253e+02
1.460000e-06	6.474760e-06	1.094339e-08	4.484760e+01	7.171523e+02
1.470000e-06	6.518393e-06	1.098667e-08	4.514982e+01	7.200879e+02
1.480000e-06	6.559648e-06	1.102659e-08	4.543558e+01	7.228205e+02
1.490000e-06	6.598439e-06	1.106363e-08	4.570426e+01	7.253403e+02
1.500000e-06	6.635021e-06	1.109672e-08	4.595765e+01	7.276409e+02
1.510000e-06	6.669368e-06	1.112695e-08	4.619555e+01	7.297206e+02
1.520000e-06	6.701277e-06	1.115470e-08	4.641657e+01	7.315830e+02
1.530000e-06	6.730827e-06	1.117920e-08	4.662125e+01	7.332368e+02
1.540000e-06	6.758127e-06	1.120206e-08	4.681035e+01	7.346951e+02
1.550000e-06	6.782960e-06	1.122247e-08	4.698236e+01	7.359737e+02
1.560000e-06	6.805227e-06	1.123936e-08	4.713659e+01	7.370895e+02
1.570000e-06	6.825156e-06	1.125236e-08	4.727462e+01	7.380584e+02
1.580000e-06	6.842706e-06	1.126290e-08	4.739619e+01	7.388938e+02
1.590000e-06	6.857679e-06	1.127249e-08	4.749990e+01	7.396047e+02
1.600000e-06	6.870097e-06	1.128083e-08	4.758591e+01	7.401956e+02
1.610000e-06	6.879790e-06	1.128741e-08	4.765305e+01	7.406659e+02
1.620000e-06	6.886816e-06	1.129295e-08	4.770172e+01	7.410110e+02
1.630000e-06	6.891540e-06	1.129825e-08	4.773443e+01	7.412229e+02
1.640000e-06	6.893896e-06	1.130289e-08	4.775075e+01	7.412924e+02
1.650000e-06	6.893729e-06	1.130446e-08	4.774959e+01	7.412108e+02
1.660000e-06	6.891259e-06	1.129253e-08	4.773249e+01	7.409715e+02
1.670000e-06	6.886652e-06	1.128276e-08	4.770058e+01	7.405717e+02
1.680000e-06	6.879687e-06	1.127405e-08	4.765233e+01	7.400132e+02
1.690000e-06	6.870393e-06	1.126306e-08	4.758796e+01	7.393029e+02
1.700000e-06	6.858897e-06	1.125318e-08	4.750833e+01	7.384522e+02
1.710000e-06	6.844967e-06	1.124871e-08	4.741184e+01	7.374764e+02
1.720000e-06	6.828706e-06	1.125674e-08	4.729921e+01	7.363929e+02
1.730000e-06	6.810430e-06	1.118377e-08	4.717263e+01	7.352197e+02
1.740000e-06	6.789657e-06	1.110369e-08	4.702874e+01	7.339734e+02
1.750000e-06	6.765567e-06	1.113546e-08	4.686188e+01	7.326672e+02
1.760000e-06	6.738451e-06	1.112466e-08	4.667406e+01	7.313097e+02
1.770000e-06	6.708967e-06	1.110435e-08	4.646984e+01	7.299041e+02
1.780000e-06	6.677490e-06	1.120099e-08	4.625181e+01	7.284474e+02
1.790000e-06	6.644586e-06	1.107070e-08	4.602390e+01	7.269308e+02
1.800000e-06	6.609973e-06	1.096819e-08	4.578415e+01	7.253403e+02
1.810000e-06	6.572759e-06	1.109050e-08	4.552639e+01	7.236583e+02
1.820000e-06	6.533164e-06	1.095787e-08	4.525214e+01	7.218643e+02
1.830000e-06	6.491487e-06	1.101954e-08	4.496346e+01	7.199377e+02
1.840000e-06	6.447653e-06	1.101584e-08	4.465984e+01	7.178583e+02
1.850000e-06	6.401641e-06	1.081128e-08	4.434113e+01	7.156085e+02
1.860000e-06	6.353118e-06	1.088898e-08	4.400504e+01	7.131742e+02
1.870000e-06	6.302236e-06	1.077637e-08	4.365261e+01	7.105458e+02
1.880000e-06	6.248955e-06	1.078795e-08	4.328355e+01	7.077182e+02
1.890000e-06	6.192979e-06	1.081824e-08	4.289584e+01	7.046911e+02
1.900000e-06	6.134677e-06	1.066079e-08	4.249201e+01	7.014688e+02
1.910000e-06	6.074058e-06	1.069511e-08	4.207213e+01	6.980587e+02
1.920000e-06	6.011081e-06	1.055125e-08	4.163591e+01	6.944711e+02
1.930000e-06	5.945926e-06	1.050823e-08	4.118462e+01	6.907177e+02
1.940000e-06	5.878667e-06	1.049519e-08	4.071875e+01	6.868106e+02
1.950000e-06	5.809242e-06	1.038946e-08	4.023787e+01	6.827609e+02
1.960000e-06	5.737367e-06	1.037815e-08	3.974003e+01	6.785779e+02
1.970000e-06	5.663328e-06	1.023424e-08	3.922719e+01	6.742683e+02
1.980000e-06	5.587153e-06	1.023823e-08	3.869957e+01	6.698355e+02
1.990000e-06	5.508667e-06	1.016589e-08	3.815593e+01	6.652794e+02
2.000000e-06	5.428161e-06	1.005512e-08	3.759830e+01	6.605967e+02
2.010000e-06	5.345832e-06	9.999922e-09	3.702805e+01	6.557810e+02
2.020000e-06	5.261742e-06	9.892798e-09	3.644560e+01	6.508235e+02
2.030000e-06	5.175671e-06	9.852348e-09	3.584942e+01	6.457140e+02
2.040000e-06	5.087577e-06	9.753764e-09	3.523924e+01	6.404418e+02
2.050000e-06	4.997776e-06	9.707875e-09	3.461723e+01	6.349969e+02
2.060000e-06	4.906509e-06	9.596232e-09	3.398507e+01	6.293706e+02
2.070000e-06	4.813584e-06	9.473098e-09	3.334142e+01	6.235568e+02
2.080000e-06	4.718763e-06	9.386243e-09	3.268464e+01	6.175519e+02
2.090000e-06	4.622231e-06	9.304486e-09	3.201600e+01	6.113554e+02
2.100000e-06	4.524170e-06	9.240329e-09	3.133678e+01	6.049694e+02
2.110000e-06	4.424713e-06	9.118106e-09	3.064789e+01	5.983977e+02
2.120000e-06	4.323692e-06	9.019853e-09	2.994817e+01	5.916455e+02
2.130000e-06	4.220951e-06	8.905917e-09	2.923653e+01	5.847176e+02
2.140000e-06	4.116566e-06	8.802394e-09	2.851350e+01	5.776176e+02
2.150000e-06	4.010701e-06	8.691518e-09	2.778022e+01	5.703468e+02
2.160000e-06	3.903543e-06	8.585548e-09	2.703800e+01	5.629033e+02
2.170000e-06	3.795094e-06	8.469998e-09	2.628682e+01	5.552817e+02
2.180000e-06	3.685219e-06	8.343578e-09	2.552577e+01	5.474730e+02
2.190000e-06	3.573846e-06	8.224672e-09	2.475434e+01	5.394653e+02
2.200000e-06	3.461134e-06	8.099055e-09	2.397364e+01	5.312446e+02
2.210000e-06	3.347149e-06	7.972936e-09	2.318412e+01	5.227962e+02
2.220000e-06	3.231810e-06	7.827275e-09	2.238522e+01	5.141059e+02
2.230000e-06	3.115043e-06	7.689901e-09	2.157643e+01	5.051616e+02
2.240000e-06	2.997008e-06	7.553234e-09	2.075886e+01	4.959539e+02
2.250000e-06	2.877822e-06	7.423290e-09	1.993331e+01	4.864775e+02
2.260000e-06	2.757482e-06	7.279284e-09	1.909977e+01	4.767303e+02
2.270000e-06	2.636138e-06	7.121803e-09	1.825928e+01	4.667139e+02
2.280000e-06	2.513919e-06	6.957128e-09	1.741273e+01	4.564318e+02
2.290000e-06	2.390898e-06	6.795166e-09	1.656062e+01	4.458885e+02
2.300000e-06	2.267089e-06	6.635456e-09	1.570305e+01	4.350873e+02
2.310000e-06	2.142484e-06	6.473616e-09	1.483997e+01	4.240294e+02
2.320000e-06	2.017073e-06	6.306310e-09	1.397131e+01	4.127119e+02
2.330000e-06	1.890970e-06	6.122825e-09	1.309786e+01	4.011275e+02
2.340000e-06	1.764236e-06	5.935216e-09	1.222003e+01	3.892640e+02
2.350000e-06	1.636872e-06	5.747494e-09	1.133784e+01	3.771050e+02
2.360000e-06	1.508913e-06	5.563415e-09	1.045153e+01	3.646308e+02
2.370000e-06	1.380389e-06	5.373379e-09	9.561300e+00	3.518204e+02
2.380000e-06	1.251370e-06	5.174245e-09	8.667645e+00	3.386530e+02
2.390000e-06	1.121987e-06	4.968685e-09	7.771470e+00	3.251097e+02
2.400000e-06	9.923189e-07	4.754518e-09	6.873323e+00	3.111752e+02
2.410000e-06	8.623881e-07	4.534468e-09	5.973354e+00	2.968380e+02
2.420000e-06	7.322432e-07	4.308196e-09	5.071902e+00	2.820906e+02
2.430000e-06	6.018807e-07	4.074326e-09	4.168943e+00	2.669279e+02
2.440000e-06	4.713308e-07	3.834424e-09	3.264685e+00	2.513453e+02
2.450000e-06	3.405988e-07	3.590109e-09	2.359167e+00	2.353365e+02
2.460000e-06	2.096885e-07	3.343106e-09	1.452413e+00	2.188900e+02
2.470000e-06	7.866034e-08	3.088575e-09	5.448429e-01	2.019872e+02
2.480000e-06	-5.240610e-08	2.825584e-09	-3.629923e-01	1.845999e+02
2.490000e-06	-1.834912e-07	2.553277e-09	-1.270957e+00	1.666901e+02
2.500000e-06	-3.145006e-07	2.270045e-09	-2.178397e+00	1.482106e+02
2.510000e-06	-4.453772e-07	1.976569e-09	-3.084917e+00	1.291075e+02
2.520000e-06	-5.761210e-07	1.673308e-09	-3.990517e+00	1.093245e+02
2.530000e-06	-7.066950e-07	1.359866e-09	-4.894942e+00	8.880856e+01
2.540000e-06	-8.370559e-07	1.033965e-09	-5.797890e+00	6.751634e+01
2.550000e-06	-9.671053e-07	6.973454e-10	-6.698680e+00	4.542128e+01
2.560000e-06	-1.096842e-06	3.508307e-10	-7.597306e+00	2.252014e+01
2.570000e-06	-1.226290e-06	-5.930023e-12	-8.493932e+00	-1.161476e+00
2.580000e-06	-1.355376e-06	-3.740655e-10	-9.388049e+00	-2.556553e+01
2.590000e-06	-1.484011e-06	-7.543034e-10	-1.027904e+01	-5.060014e+01
2.600000e-06	-1.612105e-06	-1.145773e-09	-1.116629e+01	-7.614091e+01
2.610000e-06	-1.739466e-06	-1.543315e-09	-1.204846e+01	-1.020349e+02
2.620000e-06	-1.866015e-06	-1.941888e-09	-1.292500e+01	-1.281070e+02
2.630000e-06	-1.991903e-06	-2.338929e-09	-1.379697e+01	-1.541683e+02
2.640000e-06	-2.117056e-06	-2.733255e-09	-1.466384e+01	-1.800257e+02
2.650000e-06	-2.241339e-06	-3.123197e-09	-1.552469e+01	-2.054918e+02
2.660000e-06	-2.364777e-06	-3.504945e-09	-1.637969e+01	-2.303946e+02
2.670000e-06	-2.487233e-06	-3.876195e-09	-1.722789e+01	-2.545852e+02
2.680000e-06	-2.608786e-06	-4.234062e-09	-1.806982e+01	-2.779446e+02
2.690000e-06	-2.729507e-06	-4.577563e-09	-1.890600e+01	-3.003867e+02
2.700000e-06	-2.849147e-06	-4.904099e-09	-1.973469e+01	-3.218598e+02
2.710000e-06	-2.967620e-06	-5.212813e-09	-2.055530e+01	-3.423448e+02
2.720000e-06	-3.084906e-06	-5.508652e-09	-2.136768e+01	-3.618512e+02
2.730000e-06	-3.200998e-06	-5.790569e-09	-2.217179e+01	-3.804120e+02
2.740000e-06	-3.315780e-06	-6.061507e-09	-2.296684e+01	-3.980767e+02
2.750000e-06	-3.429169e-06	-6.322787e-09	-2.375223e+01	-4.149049e+02
2.760000e-06	-3.541243e-06	-6.571707e-09	-2.452851e+01	-4.309592e+02
2.770000e-06	-3.651920e-06	-6.808837e-09	-2.529512e+01	-4.463005e+02
2.780000e-06	-3.761309e-06	-7.033323e-09	-2.605281e+01	-4.609836e+02
2.790000e-06	-3.869567e-06	-7.247723e-09	-2.680266e+01	-4.750550e+02
2.800000e-06	-3.976591e-06	-7.452669e-09	-2.754396e+01	-4.885517e+02
2.810000e-06	-4.082247e-06	-7.651839e-09	-2.827580e+01	-5.015023e+02
2.820000e-06	-4.186416e-06	-7.844279e-09	-2.899732e+01	-5.139285e+02
2.830000e-06	-4.289000e-06	-8.026102e-09	-2.970787e+01	-5.258470e+02
2.840000e-06	-4.390007e-06	-8.200033e-09	-3.040750e+01	-5.372723e+02
2.850000e-06	-4.489458e-06	-8.365788e-09	-3.109635e+01	-5.482184e+02
2.860000e-06	-4.587358e-06	-8.524405e-09	-3.177445e+01	-5.587005e+02
2.870000e-06	-4.683673e-06	-8.677699e-09	-3.244158e+01	-5.687358e+02
2.880000e-06	-4.778335e-06	-8.823989e-09	-3.309727e+01	-5.783432e+02
2.890000e-06	-4.871271e-06	-8.962244e-09	-3.374099e+01	-5.875429e+02
2.900000e-06	-4.962425e-06	-9.093394e-09	-3.437237e+01	-5.963550e+02
2.910000e-06	-5.051807e-06	-9.221658e-09	-3.499147e+01	-6.047984e+02
2.920000e-06	-5.139305e-06	-9.347347e-09	-3.559753e+01	-6.128894e+02
2.930000e-06	-5.224875e-06	-9.466999e-09	-3.619023e+01	-6.206409e+02
2.940000e-06	-5.308588e-06	-9.578885e-09	-3.677007e+01	-6.280626e+02
