# Temperatura_=_67.62
# Concentracion g/m^3_=_15000.0
# C_Vs_to_Am_M_A/Vsm_=_65563218390.804596
# pendiente_HvsI_1/m_=_3716.3
# ordenada_HvsI_A/m_=_1297.0
# frecuencia_Hz_=_301971.61985429935

Tiempo_(s)	Campo_(V.s)	Magnetizacion_(V.s)	Campo_(kA/m)	Magnetizacion_(A/m)
0.000000e+00	-6.872060e-06	-1.130058e-08	-4.747183e+01	-7.401757e+02
1.000000e-08	-6.868541e-06	-1.129698e-08	-4.744752e+01	-7.398437e+02
2.000000e-08	-6.862838e-06	-1.128808e-08	-4.740812e+01	-7.393505e+02
3.000000e-08	-6.855020e-06	-1.127904e-08	-4.735412e+01	-7.387032e+02
4.000000e-08	-6.844803e-06	-1.126885e-08	-4.728354e+01	-7.379138e+02
5.000000e-08	-6.831976e-06	-1.125481e-08	-4.719494e+01	-7.369984e+02
6.000000e-08	-6.816586e-06	-1.123787e-08	-4.708862e+01	-7.359755e+02
7.000000e-08	-6.798946e-06	-1.121714e-08	-4.696676e+01	-7.348639e+02
8.000000e-08	-6.779303e-06	-1.121448e-08	-4.683107e+01	-7.336806e+02
9.000000e-08	-6.757192e-06	-1.125778e-08	-4.667833e+01	-7.324389e+02
1.000000e-07	-6.732185e-06	-1.122328e-08	-4.650558e+01	-7.311470e+02
1.100000e-07	-6.704473e-06	-1.115574e-08	-4.631415e+01	-7.298068e+02
1.200000e-07	-6.674498e-06	-1.112891e-08	-4.610708e+01	-7.284135e+02
1.300000e-07	-6.642536e-06	-1.107362e-08	-4.588630e+01	-7.269564e+02
1.400000e-07	-6.608601e-06	-1.099096e-08	-4.565187e+01	-7.254197e+02
1.500000e-07	-6.572769e-06	-1.107209e-08	-4.540434e+01	-7.237841e+02
1.600000e-07	-6.534901e-06	-1.107301e-08	-4.514276e+01	-7.220285e+02
1.700000e-07	-6.494893e-06	-1.094289e-08	-4.486638e+01	-7.201319e+02
1.800000e-07	-6.452473e-06	-1.100529e-08	-4.457335e+01	-7.180756e+02
1.900000e-07	-6.407432e-06	-1.092245e-08	-4.426220e+01	-7.158440e+02
2.000000e-07	-6.360128e-06	-1.084681e-08	-4.393543e+01	-7.134260e+02
2.100000e-07	-6.310296e-06	-1.086990e-08	-4.359120e+01	-7.108153e+02
2.200000e-07	-6.257821e-06	-1.079741e-08	-4.322870e+01	-7.080106e+02
2.300000e-07	-6.202988e-06	-1.075242e-08	-4.284992e+01	-7.050149e+02
2.400000e-07	-6.145748e-06	-1.068188e-08	-4.245451e+01	-7.018347e+02
2.500000e-07	-6.086161e-06	-1.064090e-08	-4.204288e+01	-6.984791e+02
2.600000e-07	-6.024370e-06	-1.060856e-08	-4.161603e+01	-6.949585e+02
2.700000e-07	-5.960366e-06	-1.053823e-08	-4.117389e+01	-6.912833e+02
2.800000e-07	-5.894080e-06	-1.049577e-08	-4.071600e+01	-6.874631e+02
2.900000e-07	-5.825564e-06	-1.042168e-08	-4.024269e+01	-6.835058e+02
3.000000e-07	-5.754974e-06	-1.037245e-08	-3.975506e+01	-6.794172e+02
3.100000e-07	-5.682227e-06	-1.029992e-08	-3.925253e+01	-6.752001e+02
3.200000e-07	-5.607149e-06	-1.022199e-08	-3.873389e+01	-6.708550e+02
3.300000e-07	-5.529682e-06	-1.016970e-08	-3.819876e+01	-6.663796e+02
3.400000e-07	-5.449980e-06	-1.007957e-08	-3.764818e+01	-6.617696e+02
3.500000e-07	-5.368314e-06	-1.001650e-08	-3.708403e+01	-6.570186e+02
3.600000e-07	-5.284860e-06	-9.954007e-09	-3.650754e+01	-6.521192e+02
3.700000e-07	-5.199696e-06	-9.889796e-09	-3.591923e+01	-6.470632e+02
3.800000e-07	-5.112833e-06	-9.801580e-09	-3.531918e+01	-6.418426e+02
3.900000e-07	-5.024114e-06	-9.708117e-09	-3.470631e+01	-6.364497e+02
4.000000e-07	-4.933491e-06	-9.623771e-09	-3.408030e+01	-6.308781e+02
4.100000e-07	-4.841157e-06	-9.529762e-09	-3.344246e+01	-6.251229e+02
4.200000e-07	-4.747262e-06	-9.451088e-09	-3.279384e+01	-6.191811e+02
4.300000e-07	-4.651708e-06	-9.357035e-09	-3.213375e+01	-6.130514e+02
4.400000e-07	-4.554391e-06	-9.255609e-09	-3.146149e+01	-6.067347e+02
4.500000e-07	-4.455366e-06	-9.154172e-09	-3.077744e+01	-6.002329e+02
4.600000e-07	-4.354755e-06	-9.053030e-09	-3.008242e+01	-5.935492e+02
4.700000e-07	-4.252717e-06	-8.952089e-09	-2.937754e+01	-5.866868e+02
4.800000e-07	-4.149174e-06	-8.846547e-09	-2.866227e+01	-5.796484e+02
4.900000e-07	-4.044069e-06	-8.736183e-09	-2.793622e+01	-5.724355e+02
5.000000e-07	-3.937496e-06	-8.616210e-09	-2.720002e+01	-5.650474e+02
5.100000e-07	-3.829450e-06	-8.500078e-09	-2.645364e+01	-5.574808e+02
5.200000e-07	-3.720061e-06	-8.383450e-09	-2.569799e+01	-5.497299e+02
5.300000e-07	-3.609461e-06	-8.260623e-09	-2.493397e+01	-5.417862e+02
5.400000e-07	-3.497420e-06	-8.130634e-09	-2.415999e+01	-5.336388e+02
5.500000e-07	-3.383805e-06	-8.002297e-09	-2.337515e+01	-5.252758e+02
5.600000e-07	-3.268737e-06	-7.877423e-09	-2.258027e+01	-5.166846e+02
5.700000e-07	-3.152279e-06	-7.743110e-09	-2.177578e+01	-5.078532e+02
5.800000e-07	-3.034639e-06	-7.603192e-09	-2.096313e+01	-4.987711e+02
5.900000e-07	-2.916038e-06	-7.460091e-09	-2.014384e+01	-4.894303e+02
6.000000e-07	-2.796370e-06	-7.313528e-09	-1.931718e+01	-4.798253e+02
6.100000e-07	-2.675525e-06	-7.160762e-09	-1.848239e+01	-4.699531e+02
6.200000e-07	-2.553709e-06	-7.005102e-09	-1.764089e+01	-4.598132e+02
6.300000e-07	-2.431018e-06	-6.849584e-09	-1.679335e+01	-4.494062e+02
6.400000e-07	-2.307309e-06	-6.686719e-09	-1.593877e+01	-4.387329e+02
6.500000e-07	-2.182637e-06	-6.517960e-09	-1.507754e+01	-4.277932e+02
6.600000e-07	-2.057285e-06	-6.347255e-09	-1.421162e+01	-4.165846e+02
6.700000e-07	-1.931449e-06	-6.172735e-09	-1.334235e+01	-4.051016e+02
6.800000e-07	-1.805029e-06	-5.990899e-09	-1.246904e+01	-3.933352e+02
6.900000e-07	-1.677853e-06	-5.805097e-09	-1.159052e+01	-3.812726e+02
7.000000e-07	-1.549964e-06	-5.615128e-09	-1.070707e+01	-3.688982e+02
7.100000e-07	-1.421491e-06	-5.419256e-09	-9.819584e+00	-3.561948e+02
7.200000e-07	-1.292567e-06	-5.217759e-09	-8.928985e+00	-3.431444e+02
7.300000e-07	-1.163294e-06	-5.011618e-09	-8.035972e+00	-3.297298e+02
7.400000e-07	-1.033726e-06	-4.801898e-09	-7.140927e+00	-3.159363e+02
7.500000e-07	-9.038690e-07	-4.586467e-09	-6.243880e+00	-3.017516e+02
7.600000e-07	-7.736902e-07	-4.365876e-09	-5.344611e+00	-2.871667e+02
7.700000e-07	-6.432699e-07	-4.138858e-09	-4.443675e+00	-2.721743e+02
7.800000e-07	-5.126540e-07	-3.905242e-09	-3.541387e+00	-2.567684e+02
7.900000e-07	-3.818202e-07	-3.665754e-09	-2.637594e+00	-2.409409e+02
8.000000e-07	-2.508075e-07	-3.418808e-09	-1.732565e+00	-2.246803e+02
8.100000e-07	-1.196442e-07	-3.163194e-09	-8.264957e-01	-2.079685e+02
8.200000e-07	1.160029e-08	-2.900124e-09	8.013422e-02	-1.907792e+02
8.300000e-07	1.428096e-07	-2.629439e-09	9.865212e-01	-1.730764e+02
8.400000e-07	2.739775e-07	-2.348756e-09	1.892622e+00	-1.548154e+02
8.500000e-07	4.051008e-07	-2.058629e-09	2.798415e+00	-1.359437e+02
8.600000e-07	5.361258e-07	-1.757838e-09	3.703529e+00	-1.164050e+02
8.700000e-07	6.669972e-07	-1.445049e-09	4.607582e+00	-9.614396e+01
8.800000e-07	7.976884e-07	-1.123148e-09	5.510390e+00	-7.511205e+01
8.900000e-07	9.281366e-07	-7.925708e-10	6.411519e+00	-5.327463e+01
9.000000e-07	1.058232e-06	-4.517129e-10	7.310212e+00	-3.061749e+01
9.100000e-07	1.187940e-06	-9.631392e-11	8.206226e+00	-7.152920e+00
9.200000e-07	1.317297e-06	2.749775e-10	9.099820e+00	1.707577e+01
9.300000e-07	1.446264e-06	6.576782e-10	9.990719e+00	4.199171e+01
9.400000e-07	1.574778e-06	1.047845e-09	1.087848e+01	6.748442e+01
9.500000e-07	1.702709e-06	1.444648e-09	1.176223e+01	9.341247e+01
9.600000e-07	1.829860e-06	1.846357e-09	1.264058e+01	1.196087e+02
9.700000e-07	1.956229e-06	2.249565e-09	1.351353e+01	1.458877e+02
9.800000e-07	2.081953e-06	2.649739e-09	1.438202e+01	1.720550e+02
9.900000e-07	2.207068e-06	3.043116e-09	1.524631e+01	1.979166e+02
1.000000e-06	2.331442e-06	3.427777e-09	1.610548e+01	2.232895e+02
1.010000e-06	2.454866e-06	3.803212e-09	1.695809e+01	2.480105e+02
1.020000e-06	2.577257e-06	4.167834e-09	1.780356e+01	2.719433e+02
1.030000e-06	2.698712e-06	4.519303e-09	1.864256e+01	2.949838e+02
1.040000e-06	2.819258e-06	4.853501e-09	1.947529e+01	3.170627e+02
1.050000e-06	2.938697e-06	5.171769e-09	2.030037e+01	3.381450e+02
1.060000e-06	3.056982e-06	5.476980e-09	2.111747e+01	3.582270e+02
1.070000e-06	3.174184e-06	5.769626e-09	2.192710e+01	3.773319e+02
1.080000e-06	3.290238e-06	6.047689e-09	2.272879e+01	3.955035e+02
1.090000e-06	3.405007e-06	6.311579e-09	2.352161e+01	4.127988e+02
1.100000e-06	3.518424e-06	6.562798e-09	2.430509e+01	4.292815e+02
1.110000e-06	3.630467e-06	6.801396e-09	2.507908e+01	4.450157e+02
1.120000e-06	3.741176e-06	7.030434e-09	2.584385e+01	4.600612e+02
1.130000e-06	3.850695e-06	7.252134e-09	2.660040e+01	4.744697e+02
1.140000e-06	3.959070e-06	7.464646e-09	2.734905e+01	4.882837e+02
1.150000e-06	4.066101e-06	7.666897e-09	2.808841e+01	5.015362e+02
1.160000e-06	4.171628e-06	7.858472e-09	2.881739e+01	5.142519e+02
1.170000e-06	4.275564e-06	8.039598e-09	2.953538e+01	5.264497e+02
1.180000e-06	4.377903e-06	8.214501e-09	3.024232e+01	5.381443e+02
1.190000e-06	4.478823e-06	8.382386e-09	3.093947e+01	5.493496e+02
1.200000e-06	4.578115e-06	8.543604e-09	3.162538e+01	5.600798e+02
1.210000e-06	4.675624e-06	8.699719e-09	3.229897e+01	5.703511e+02
1.220000e-06	4.771436e-06	8.851874e-09	3.296083e+01	5.801816e+02
1.230000e-06	4.865550e-06	8.998583e-09	3.361097e+01	5.895914e+02
1.240000e-06	4.958038e-06	9.138858e-09	3.424987e+01	5.986011e+02
1.250000e-06	5.048799e-06	9.271852e-09	3.487684e+01	6.072304e+02
1.260000e-06	5.137659e-06	9.399346e-09	3.549068e+01	6.154973e+02
1.270000e-06	5.224599e-06	9.520597e-09	3.609126e+01	6.234163e+02
1.280000e-06	5.309710e-06	9.635869e-09	3.667920e+01	6.309983e+02
1.290000e-06	5.393036e-06	9.747336e-09	3.725481e+01	6.382505e+02
1.300000e-06	5.474443e-06	9.851632e-09	3.781716e+01	6.451771e+02
1.310000e-06	5.553817e-06	9.948787e-09	3.836548e+01	6.517808e+02
1.320000e-06	5.631128e-06	1.004179e-08	3.889954e+01	6.580642e+02
1.330000e-06	5.706314e-06	1.013252e-08	3.941892e+01	6.640315e+02
1.340000e-06	5.779272e-06	1.021940e-08	3.992291e+01	6.696899e+02
1.350000e-06	5.850050e-06	1.030161e-08	4.041184e+01	6.750507e+02
1.360000e-06	5.918824e-06	1.037885e-08	4.088693e+01	6.801293e+02
1.370000e-06	5.985482e-06	1.045156e-08	4.134740e+01	6.849449e+02
1.380000e-06	6.049848e-06	1.052083e-08	4.179203e+01	6.895195e+02
1.390000e-06	6.112128e-06	1.058614e-08	4.222226e+01	6.938754e+02
1.400000e-06	6.172488e-06	1.064922e-08	4.263923e+01	6.980343e+02
1.410000e-06	6.230682e-06	1.071059e-08	4.304123e+01	7.020144e+02
1.420000e-06	6.286567e-06	1.077038e-08	4.342727e+01	7.058289e+02
1.430000e-06	6.340213e-06	1.082899e-08	4.379786e+01	7.094853e+02
1.440000e-06	6.391436e-06	1.088473e-08	4.415171e+01	7.129843e+02
1.450000e-06	6.440050e-06	1.093600e-08	4.448753e+01	7.163210e+02
1.460000e-06	6.486273e-06	1.098246e-08	4.480683e+01	7.194855e+02
1.470000e-06	6.530331e-06	1.102584e-08	4.511118e+01	7.224653e+02
1.480000e-06	6.572013e-06	1.106546e-08	4.539912e+01	7.252470e+02
1.490000e-06	6.611239e-06	1.110190e-08	4.567009e+01	7.278188e+02
1.500000e-06	6.648256e-06	1.113633e-08	4.592581e+01	7.301725e+02
1.510000e-06	6.683031e-06	1.116862e-08	4.616603e+01	7.323048e+02
1.520000e-06	6.715321e-06	1.119887e-08	4.638908e+01	7.342182e+02
1.530000e-06	6.745260e-06	1.122555e-08	4.659591e+01	7.359207e+02
1.540000e-06	6.773009e-06	1.124940e-08	4.678759e+01	7.374250e+02
1.550000e-06	6.798256e-06	1.127037e-08	4.696200e+01	7.387468e+02
1.560000e-06	6.820876e-06	1.128694e-08	4.711826e+01	7.399032e+02
1.570000e-06	6.841153e-06	1.129922e-08	4.725833e+01	7.409100e+02
1.580000e-06	6.859101e-06	1.130905e-08	4.738231e+01	7.417806e+02
1.590000e-06	6.874470e-06	1.131878e-08	4.748848e+01	7.425236e+02
1.600000e-06	6.887224e-06	1.132834e-08	4.757658e+01	7.431430e+02
1.610000e-06	6.897301e-06	1.133558e-08	4.764619e+01	7.436376e+02
1.620000e-06	6.904721e-06	1.134051e-08	4.769745e+01	7.440020e+02
1.630000e-06	6.909733e-06	1.134448e-08	4.773207e+01	7.442278e+02
1.640000e-06	6.912318e-06	1.134778e-08	4.774993e+01	7.443057e+02
1.650000e-06	6.912436e-06	1.135053e-08	4.775075e+01	7.442274e+02
1.660000e-06	6.910268e-06	1.134244e-08	4.773577e+01	7.439875e+02
1.670000e-06	6.905900e-06	1.132986e-08	4.770559e+01	7.435846e+02
1.680000e-06	6.899150e-06	1.132017e-08	4.765897e+01	7.430229e+02
1.690000e-06	6.890078e-06	1.131043e-08	4.759630e+01	7.423117e+02
1.700000e-06	6.878856e-06	1.130087e-08	4.751878e+01	7.414650e+02
1.710000e-06	6.865219e-06	1.129130e-08	4.742457e+01	7.405000e+02
1.720000e-06	6.849196e-06	1.129117e-08	4.731389e+01	7.394355e+02
1.730000e-06	6.831097e-06	1.126618e-08	4.718886e+01	7.382900e+02
1.740000e-06	6.810646e-06	1.117562e-08	4.704759e+01	7.370791e+02
1.750000e-06	6.786996e-06	1.117436e-08	4.688421e+01	7.358141e+02
1.760000e-06	6.760137e-06	1.118728e-08	4.669868e+01	7.345004e+02
1.770000e-06	6.730753e-06	1.114919e-08	4.649569e+01	7.331371e+02
1.780000e-06	6.699358e-06	1.120085e-08	4.627882e+01	7.317169e+02
1.790000e-06	6.666523e-06	1.118306e-08	4.605200e+01	7.302267e+02
1.800000e-06	6.632128e-06	1.102551e-08	4.581440e+01	7.286488e+02
1.810000e-06	6.595187e-06	1.109216e-08	4.555920e+01	7.269632e+02
1.820000e-06	6.555776e-06	1.106600e-08	4.528696e+01	7.251484e+02
1.830000e-06	6.514327e-06	1.100623e-08	4.500063e+01	7.231843e+02
1.840000e-06	6.470614e-06	1.108633e-08	4.469866e+01	7.210533e+02
1.850000e-06	6.424711e-06	1.092238e-08	4.438157e+01	7.187416e+02
1.860000e-06	6.376422e-06	1.091834e-08	4.404799e+01	7.162402e+02
1.870000e-06	6.325778e-06	1.088592e-08	4.369814e+01	7.135451e+02
1.880000e-06	6.272725e-06	1.078767e-08	4.333166e+01	7.106567e+02
1.890000e-06	6.216927e-06	1.083038e-08	4.294621e+01	7.075797e+02
1.900000e-06	6.158757e-06	1.070324e-08	4.254437e+01	7.043219e+02
1.910000e-06	6.098290e-06	1.069584e-08	4.212667e+01	7.008931e+02
1.920000e-06	6.035439e-06	1.062928e-08	4.169250e+01	6.973037e+02
1.930000e-06	5.970434e-06	1.052573e-08	4.124344e+01	6.935640e+02
1.940000e-06	5.903292e-06	1.055343e-08	4.077963e+01	6.896830e+02
1.950000e-06	5.833921e-06	1.042597e-08	4.030042e+01	6.856676e+02
1.960000e-06	5.762128e-06	1.040760e-08	3.980448e+01	6.815225e+02
1.970000e-06	5.688187e-06	1.030304e-08	3.929370e+01	6.772494e+02
1.980000e-06	5.612097e-06	1.023899e-08	3.876807e+01	6.728477e+02
1.990000e-06	5.533702e-06	1.021797e-08	3.822652e+01	6.683140e+02
2.000000e-06	5.453258e-06	1.009967e-08	3.767082e+01	6.636432e+02
2.010000e-06	5.370940e-06	1.005972e-08	3.710218e+01	6.588283e+02
2.020000e-06	5.286900e-06	9.948042e-09	3.652163e+01	6.538616e+02
2.030000e-06	5.200894e-06	9.886772e-09	3.592751e+01	6.487348e+02
2.040000e-06	5.112840e-06	9.798914e-09	3.531923e+01	6.434400e+02
2.050000e-06	5.023044e-06	9.728402e-09	3.469893e+01	6.379700e+02
2.060000e-06	4.931743e-06	9.652224e-09	3.406823e+01	6.323190e+02
2.070000e-06	4.838729e-06	9.529078e-09	3.342569e+01	6.264828e+02
2.080000e-06	4.743812e-06	9.447274e-09	3.277001e+01	6.204593e+02
2.090000e-06	4.647231e-06	9.338751e-09	3.210283e+01	6.142480e+02
2.100000e-06	4.549119e-06	9.265452e-09	3.142508e+01	6.078504e+02
2.110000e-06	4.449554e-06	9.159921e-09	3.073729e+01	6.012690e+02
2.120000e-06	4.348377e-06	9.061789e-09	3.003836e+01	5.945071e+02
2.130000e-06	4.245522e-06	8.954460e-09	2.932785e+01	5.875678e+02
2.140000e-06	4.141084e-06	8.845146e-09	2.860639e+01	5.804533e+02
2.150000e-06	4.035190e-06	8.738807e-09	2.787488e+01	5.731643e+02
2.160000e-06	3.927979e-06	8.624549e-09	2.713428e+01	5.656990e+02
2.170000e-06	3.819342e-06	8.513339e-09	2.638382e+01	5.580531e+02
2.180000e-06	3.709301e-06	8.382745e-09	2.562366e+01	5.502195e+02
2.190000e-06	3.597881e-06	8.259327e-09	2.485397e+01	5.421887e+02
2.200000e-06	3.485112e-06	8.127953e-09	2.407497e+01	5.339492e+02
2.210000e-06	3.370987e-06	8.010374e-09	2.328660e+01	5.254886e+02
2.220000e-06	3.255427e-06	7.878497e-09	2.248832e+01	5.167946e+02
2.230000e-06	3.138469e-06	7.740406e-09	2.168038e+01	5.078558e+02
2.240000e-06	3.020308e-06	7.596450e-09	2.086413e+01	4.986624e+02
2.250000e-06	2.900999e-06	7.457855e-09	2.003995e+01	4.892077e+02
2.260000e-06	2.780516e-06	7.316058e-09	1.920766e+01	4.794871e+02
2.270000e-06	2.659014e-06	7.160844e-09	1.836833e+01	4.694989e+02
2.280000e-06	2.536682e-06	7.001931e-09	1.752327e+01	4.592432e+02
2.290000e-06	2.413532e-06	6.838125e-09	1.667255e+01	4.487207e+02
2.300000e-06	2.289408e-06	6.673240e-09	1.581511e+01	4.379322e+02
2.310000e-06	2.164411e-06	6.507063e-09	1.495164e+01	4.268764e+02
2.320000e-06	2.038669e-06	6.343577e-09	1.408302e+01	4.155499e+02
2.330000e-06	1.912283e-06	6.165276e-09	1.320995e+01	4.039456e+02
2.340000e-06	1.785239e-06	5.979841e-09	1.233234e+01	3.920527e+02
2.350000e-06	1.657530e-06	5.791923e-09	1.145013e+01	3.798573e+02
2.360000e-06	1.529257e-06	5.605561e-09	1.056403e+01	3.673429e+02
2.370000e-06	1.400448e-06	5.415353e-09	9.674219e+00	3.544917e+02
2.380000e-06	1.271184e-06	5.214547e-09	8.781270e+00	3.412859e+02
2.390000e-06	1.141534e-06	5.005636e-09	7.885658e+00	3.277094e+02
2.400000e-06	1.011565e-06	4.787520e-09	6.987841e+00	3.137483e+02
2.410000e-06	8.813912e-07	4.566103e-09	6.088604e+00	2.993918e+02
2.420000e-06	7.510246e-07	4.343635e-09	5.188039e+00	2.846318e+02
2.430000e-06	6.204501e-07	4.116147e-09	4.286037e+00	2.694618e+02
2.440000e-06	4.897028e-07	3.878815e-09	3.382842e+00	2.538751e+02
2.450000e-06	3.587452e-07	3.631810e-09	2.478193e+00	2.378625e+02
2.460000e-06	2.276182e-07	3.378371e-09	1.572375e+00	2.214100e+02
2.470000e-06	9.637722e-08	3.120353e-09	6.657688e-01	2.044960e+02
2.480000e-06	-3.494696e-08	2.858104e-09	-2.414118e-01	1.870904e+02
2.490000e-06	-1.662311e-07	2.586685e-09	-1.148316e+00	1.691531e+02
2.500000e-06	-2.974292e-07	2.302042e-09	-2.054625e+00	1.506359e+02
2.510000e-06	-4.285408e-07	2.006014e-09	-2.960338e+00	1.314841e+02
2.520000e-06	-5.595310e-07	1.701873e-09	-3.865211e+00	1.116411e+02
2.530000e-06	-6.903599e-07	1.389724e-09	-4.768970e+00	9.105369e+01
2.540000e-06	-8.209364e-07	1.066278e-09	-5.670986e+00	6.967853e+01
2.550000e-06	-9.512432e-07	7.294515e-10	-6.571138e+00	4.748888e+01
2.560000e-06	-1.081327e-06	3.798271e-10	-7.469751e+00	2.448124e+01
2.570000e-06	-1.211189e-06	1.979368e-11	-8.366830e+00	6.807236e-01
2.580000e-06	-1.340684e-06	-3.507742e-10	-9.261378e+00	-2.385514e+01
2.590000e-06	-1.469669e-06	-7.331942e-10	-1.015240e+01	-4.903492e+01
2.600000e-06	-1.598156e-06	-1.127301e-09	-1.103998e+01	-7.473441e+01
2.610000e-06	-1.725952e-06	-1.528600e-09	-1.192278e+01	-1.008004e+02
2.620000e-06	-1.852949e-06	-1.931105e-09	-1.280008e+01	-1.270568e+02
2.630000e-06	-1.979243e-06	-2.330978e-09	-1.367251e+01	-1.533131e+02
2.640000e-06	-2.104853e-06	-2.726906e-09	-1.454022e+01	-1.793739e+02
2.650000e-06	-2.229726e-06	-3.118808e-09	-1.540283e+01	-2.050488e+02
2.660000e-06	-2.353761e-06	-3.503857e-09	-1.625966e+01	-2.301622e+02
2.670000e-06	-2.476834e-06	-3.877804e-09	-1.710984e+01	-2.545615e+02
2.680000e-06	-2.598966e-06	-4.239400e-09	-1.795352e+01	-2.781238e+02
2.690000e-06	-2.720209e-06	-4.586867e-09	-1.879106e+01	-3.007599e+02
2.700000e-06	-2.840369e-06	-4.915819e-09	-1.962112e+01	-3.224153e+02
2.710000e-06	-2.959319e-06	-5.227834e-09	-2.044282e+01	-3.430688e+02
2.720000e-06	-3.077174e-06	-5.525743e-09	-2.125696e+01	-3.627291e+02
2.730000e-06	-3.193933e-06	-5.809559e-09	-2.206352e+01	-3.814290e+02
2.740000e-06	-3.309355e-06	-6.079740e-09	-2.286085e+01	-3.992187e+02
2.750000e-06	-3.423303e-06	-6.339706e-09	-2.364800e+01	-4.161591e+02
2.760000e-06	-3.535895e-06	-6.590471e-09	-2.442578e+01	-4.323146e+02
2.770000e-06	-3.647106e-06	-6.829671e-09	-2.519402e+01	-4.477479e+02
2.780000e-06	-3.756919e-06	-7.057406e-09	-2.595260e+01	-4.625158e+02
2.790000e-06	-3.865543e-06	-7.274866e-09	-2.670297e+01	-4.766661e+02
2.800000e-06	-3.972919e-06	-7.481344e-09	-2.744472e+01	-4.902372e+02
2.810000e-06	-4.078972e-06	-7.678615e-09	-2.817732e+01	-5.032583e+02
2.820000e-06	-4.183631e-06	-7.869930e-09	-2.890031e+01	-5.157513e+02
2.830000e-06	-4.286704e-06	-8.053297e-09	-2.961233e+01	-5.277329e+02
2.840000e-06	-4.388166e-06	-8.228215e-09	-3.031322e+01	-5.392174e+02
2.850000e-06	-4.488041e-06	-8.396038e-09	-3.100315e+01	-5.502184e+02
2.860000e-06	-4.586355e-06	-8.557865e-09	-3.168230e+01	-5.607511e+02
2.870000e-06	-4.683150e-06	-8.713745e-09	-3.235096e+01	-5.708324e+02
2.880000e-06	-4.778264e-06	-8.861792e-09	-3.300800e+01	-5.804813e+02
2.890000e-06	-4.871650e-06	-9.000882e-09	-3.365310e+01	-5.897184e+02
2.900000e-06	-4.963252e-06	-9.133445e-09	-3.428588e+01	-5.985639e+02
2.910000e-06	-5.053084e-06	-9.260591e-09	-3.490644e+01	-6.070372e+02
2.920000e-06	-5.141105e-06	-9.382960e-09	-3.551449e+01	-6.151546e+02
2.930000e-06	-5.227150e-06	-9.501869e-09	-3.610888e+01	-6.229293e+02
2.940000e-06	-5.311261e-06	-9.616495e-09	-3.668991e+01	-6.303705e+02
