# Temperatura_=_33.21
# Concentracion g/m^3_=_15000.0
# C_Vs_to_Am_M_A/Vsm_=_65563218390.804596
# pendiente_HvsI_1/m_=_3716.3
# ordenada_HvsI_A/m_=_1297.0
# frecuencia_Hz_=_301972.00365789153

Tiempo_(s)	Campo_(V.s)	Magnetizacion_(V.s)	Campo_(kA/m)	Magnetizacion_(A/m)
0.000000e+00	-6.854022e-06	-1.000399e-08	-4.746944e+01	-6.552537e+02
1.000000e-08	-6.850418e-06	-1.000173e-08	-4.744448e+01	-6.549933e+02
2.000000e-08	-6.844617e-06	-9.996086e-09	-4.740430e+01	-6.545924e+02
3.000000e-08	-6.836616e-06	-9.991113e-09	-4.734889e+01	-6.540624e+02
4.000000e-08	-6.826213e-06	-9.984644e-09	-4.727684e+01	-6.534197e+02
5.000000e-08	-6.813357e-06	-9.974919e-09	-4.718780e+01	-6.526837e+02
6.000000e-08	-6.797999e-06	-9.959352e-09	-4.708144e+01	-6.518748e+02
7.000000e-08	-6.780318e-06	-9.941348e-09	-4.695898e+01	-6.510122e+02
8.000000e-08	-6.760568e-06	-9.955951e-09	-4.682220e+01	-6.501118e+02
9.000000e-08	-6.738363e-06	-9.976829e-09	-4.666841e+01	-6.491838e+02
1.000000e-07	-6.713328e-06	-9.934000e-09	-4.649502e+01	-6.482323e+02
1.100000e-07	-6.685603e-06	-9.889515e-09	-4.630300e+01	-6.472541e+02
1.200000e-07	-6.655591e-06	-9.872557e-09	-4.609515e+01	-6.462396e+02
1.300000e-07	-6.623554e-06	-9.804955e-09	-4.587326e+01	-6.451737e+02
1.400000e-07	-6.589550e-06	-9.761917e-09	-4.563776e+01	-6.440373e+02
1.500000e-07	-6.553688e-06	-9.856808e-09	-4.538939e+01	-6.428098e+02
1.600000e-07	-6.515851e-06	-9.805095e-09	-4.512734e+01	-6.414704e+02
1.700000e-07	-6.475876e-06	-9.749094e-09	-4.485048e+01	-6.400006e+02
1.800000e-07	-6.433470e-06	-9.778459e-09	-4.455679e+01	-6.383857e+02
1.900000e-07	-6.388530e-06	-9.671107e-09	-4.424554e+01	-6.366154e+02
2.000000e-07	-6.341248e-06	-9.645708e-09	-4.391808e+01	-6.346845e+02
2.100000e-07	-6.291419e-06	-9.658701e-09	-4.357297e+01	-6.325926e+02
2.200000e-07	-6.238956e-06	-9.647170e-09	-4.320963e+01	-6.303434e+02
2.300000e-07	-6.184042e-06	-9.602549e-09	-4.282930e+01	-6.279435e+02
2.400000e-07	-6.126746e-06	-9.506868e-09	-4.243249e+01	-6.254016e+02
2.500000e-07	-6.067152e-06	-9.479587e-09	-4.201975e+01	-6.227267e+02
2.600000e-07	-6.005320e-06	-9.454016e-09	-4.159151e+01	-6.199272e+02
2.700000e-07	-5.941359e-06	-9.409999e-09	-4.114853e+01	-6.170103e+02
2.800000e-07	-5.875155e-06	-9.378689e-09	-4.069002e+01	-6.139813e+02
2.900000e-07	-5.806632e-06	-9.313637e-09	-4.021545e+01	-6.108430e+02
3.000000e-07	-5.736036e-06	-9.249698e-09	-3.972651e+01	-6.075964e+02
3.100000e-07	-5.663308e-06	-9.197740e-09	-3.922282e+01	-6.042405e+02
3.200000e-07	-5.588260e-06	-9.178687e-09	-3.870305e+01	-6.007729e+02
3.300000e-07	-5.510888e-06	-9.120572e-09	-3.816719e+01	-5.971899e+02
3.400000e-07	-5.431350e-06	-9.032543e-09	-3.761633e+01	-5.934871e+02
3.500000e-07	-5.349806e-06	-8.976897e-09	-3.705157e+01	-5.896595e+02
3.600000e-07	-5.266456e-06	-8.929751e-09	-3.647431e+01	-5.857019e+02
3.700000e-07	-5.181410e-06	-8.894818e-09	-3.588530e+01	-5.816086e+02
3.800000e-07	-5.094592e-06	-8.828043e-09	-3.528401e+01	-5.773741e+02
3.900000e-07	-5.006013e-06	-8.745128e-09	-3.467054e+01	-5.729928e+02
4.000000e-07	-4.915602e-06	-8.653331e-09	-3.404437e+01	-5.684593e+02
4.100000e-07	-4.823437e-06	-8.578776e-09	-3.340606e+01	-5.637686e+02
4.200000e-07	-4.729691e-06	-8.537672e-09	-3.275679e+01	-5.589166e+02
4.300000e-07	-4.634290e-06	-8.475264e-09	-3.209607e+01	-5.539000e+02
4.400000e-07	-4.537210e-06	-8.383682e-09	-3.142371e+01	-5.487169e+02
4.500000e-07	-4.438391e-06	-8.285075e-09	-3.073931e+01	-5.433666e+02
4.600000e-07	-4.337969e-06	-8.193020e-09	-3.004382e+01	-5.378496e+02
4.700000e-07	-4.236094e-06	-8.106186e-09	-2.933825e+01	-5.321675e+02
4.800000e-07	-4.132722e-06	-8.033760e-09	-2.862232e+01	-5.263221e+02
4.900000e-07	-4.027863e-06	-7.948524e-09	-2.789609e+01	-5.203149e+02
5.000000e-07	-3.921445e-06	-7.837946e-09	-2.715906e+01	-5.141465e+02
5.100000e-07	-3.813527e-06	-7.733827e-09	-2.641164e+01	-5.078155e+02
5.200000e-07	-3.704316e-06	-7.648191e-09	-2.565527e+01	-5.013183e+02
5.300000e-07	-3.593894e-06	-7.558636e-09	-2.489051e+01	-4.946483e+02
5.400000e-07	-3.482058e-06	-7.446141e-09	-2.411596e+01	-4.877965e+02
5.500000e-07	-3.368738e-06	-7.328980e-09	-2.333113e+01	-4.807515e+02
5.600000e-07	-3.253965e-06	-7.215809e-09	-2.253624e+01	-4.735001e+02
5.700000e-07	-3.137795e-06	-7.101109e-09	-2.173167e+01	-4.660289e+02
5.800000e-07	-3.020455e-06	-6.990045e-09	-2.091900e+01	-4.583251e+02
5.900000e-07	-2.902067e-06	-6.878433e-09	-2.009907e+01	-4.503773e+02
6.000000e-07	-2.782614e-06	-6.745717e-09	-1.927177e+01	-4.421771e+02
6.100000e-07	-2.662069e-06	-6.602283e-09	-1.843690e+01	-4.337190e+02
6.200000e-07	-2.540578e-06	-6.470305e-09	-1.759548e+01	-4.250009e+02
6.300000e-07	-2.418146e-06	-6.347173e-09	-1.674754e+01	-4.160232e+02
6.400000e-07	-2.294671e-06	-6.213148e-09	-1.589238e+01	-4.067883e+02
6.500000e-07	-2.170312e-06	-6.062137e-09	-1.503110e+01	-3.972988e+02
6.600000e-07	-2.045304e-06	-5.905922e-09	-1.416532e+01	-3.875564e+02
6.700000e-07	-1.919730e-06	-5.747252e-09	-1.329562e+01	-3.775603e+02
6.800000e-07	-1.793516e-06	-5.588670e-09	-1.242149e+01	-3.673061e+02
6.900000e-07	-1.666670e-06	-5.431885e-09	-1.154298e+01	-3.567852e+02
7.000000e-07	-1.539237e-06	-5.269513e-09	-1.066041e+01	-3.459849e+02
7.100000e-07	-1.411224e-06	-5.096117e-09	-9.773828e+00	-3.348888e+02
7.200000e-07	-1.282746e-06	-4.918755e-09	-8.884016e+00	-3.234781e+02
7.300000e-07	-1.153831e-06	-4.742836e-09	-7.991176e+00	-3.117334e+02
7.400000e-07	-1.024552e-06	-4.563365e-09	-7.095817e+00	-2.996363e+02
7.500000e-07	-8.949841e-07	-4.374899e-09	-6.198462e+00	-2.871711e+02
7.600000e-07	-7.650681e-07	-4.176248e-09	-5.298692e+00	-2.743258e+02
7.700000e-07	-6.348777e-07	-3.971093e-09	-4.397023e+00	-2.610928e+02
7.800000e-07	-5.045225e-07	-3.764667e-09	-3.494211e+00	-2.474681e+02
7.900000e-07	-3.740154e-07	-3.556178e-09	-2.590348e+00	-2.334505e+02
8.000000e-07	-2.433583e-07	-3.339563e-09	-1.685445e+00	-2.190389e+02
8.100000e-07	-1.125710e-07	-3.111470e-09	-7.796421e-01	-2.042303e+02
8.200000e-07	1.830248e-08	-2.875687e-09	1.267589e-01	-1.890167e+02
8.300000e-07	1.492402e-07	-2.636805e-09	1.033604e+00	-1.733831e+02
8.400000e-07	2.801281e-07	-2.393529e-09	1.940105e+00	-1.573056e+02
8.500000e-07	4.109055e-07	-2.144303e-09	2.845841e+00	-1.407513e+02
8.600000e-07	5.415883e-07	-1.885485e-09	3.750920e+00	-1.236794e+02
8.700000e-07	6.721082e-07	-1.612910e-09	4.654872e+00	-1.060440e+02
8.800000e-07	8.024150e-07	-1.329591e-09	5.557349e+00	-8.779833e+01
8.900000e-07	9.324946e-07	-1.041224e-09	6.458251e+00	-6.890011e+01
9.000000e-07	1.062290e-06	-7.463342e-10	7.357183e+00	-4.931789e+01
9.100000e-07	1.191726e-06	-4.383453e-10	8.253633e+00	-2.903712e+01
9.200000e-07	1.320749e-06	-1.164247e-10	9.147212e+00	-8.065829e+00
9.300000e-07	1.449306e-06	2.161524e-10	1.003758e+01	1.356110e+01
9.400000e-07	1.577354e-06	5.559400e-10	1.092440e+01	3.577948e+01
9.500000e-07	1.704804e-06	9.027244e-10	1.180709e+01	5.849568e+01
9.600000e-07	1.831579e-06	1.256943e-09	1.268511e+01	8.158892e+01
9.700000e-07	1.957644e-06	1.615997e-09	1.355821e+01	1.049158e+02
9.800000e-07	2.083036e-06	1.977331e-09	1.442664e+01	1.283171e+02
9.900000e-07	2.207800e-06	2.334716e-09	1.529073e+01	1.516257e+02
1.000000e-06	2.331802e-06	2.683580e-09	1.614955e+01	1.746752e+02
1.010000e-06	2.454917e-06	3.024336e-09	1.700221e+01	1.973089e+02
1.020000e-06	2.577082e-06	3.358509e-09	1.784830e+01	2.193872e+02
1.030000e-06	2.698289e-06	3.685254e-09	1.868775e+01	2.407939e+02
1.040000e-06	2.818505e-06	4.001229e-09	1.952034e+01	2.614405e+02
1.050000e-06	2.937570e-06	4.305536e-09	2.034496e+01	2.812677e+02
1.060000e-06	3.055540e-06	4.596208e-09	2.116199e+01	3.002448e+02
1.070000e-06	3.172477e-06	4.872485e-09	2.197187e+01	3.183672e+02
1.080000e-06	3.288198e-06	5.134406e-09	2.277333e+01	3.356522e+02
1.090000e-06	3.402577e-06	5.384123e-09	2.356550e+01	3.521328e+02
1.100000e-06	3.515574e-06	5.623168e-09	2.434809e+01	3.678528e+02
1.110000e-06	3.627181e-06	5.849743e-09	2.512105e+01	3.828606e+02
1.120000e-06	3.737514e-06	6.066086e-09	2.588519e+01	3.972042e+02
1.130000e-06	3.846735e-06	6.275471e-09	2.664163e+01	4.109279e+02
1.140000e-06	3.954745e-06	6.477109e-09	2.738969e+01	4.240696e+02
1.150000e-06	4.061360e-06	6.670228e-09	2.812808e+01	4.366599e+02
1.160000e-06	4.166458e-06	6.853609e-09	2.885596e+01	4.487228e+02
1.170000e-06	4.269991e-06	7.027579e-09	2.957301e+01	4.602761e+02
1.180000e-06	4.372019e-06	7.194365e-09	3.027963e+01	4.713341e+02
1.190000e-06	4.472524e-06	7.353648e-09	3.097571e+01	4.819091e+02
1.200000e-06	4.571462e-06	7.506971e-09	3.166093e+01	4.920130e+02
1.210000e-06	4.668670e-06	7.654356e-09	3.233418e+01	5.016590e+02
1.220000e-06	4.764068e-06	7.795762e-09	3.299488e+01	5.108621e+02
1.230000e-06	4.857813e-06	7.931788e-09	3.364414e+01	5.196392e+02
1.240000e-06	4.949967e-06	8.061541e-09	3.428237e+01	5.280084e+02
1.250000e-06	5.040403e-06	8.184853e-09	3.490872e+01	5.359884e+02
1.260000e-06	5.128962e-06	8.303400e-09	3.552206e+01	5.435972e+02
1.270000e-06	5.215622e-06	8.415209e-09	3.612224e+01	5.508515e+02
1.280000e-06	5.300436e-06	8.519586e-09	3.670965e+01	5.577659e+02
1.290000e-06	5.383428e-06	8.619669e-09	3.728443e+01	5.643529e+02
1.300000e-06	5.464515e-06	8.714022e-09	3.784602e+01	5.706231e+02
1.310000e-06	5.543582e-06	8.802092e-09	3.839362e+01	5.765860e+02
1.320000e-06	5.620672e-06	8.885478e-09	3.892753e+01	5.822507e+02
1.330000e-06	5.695580e-06	8.965698e-09	3.944633e+01	5.876273e+02
1.340000e-06	5.768192e-06	9.043692e-09	3.994922e+01	5.927273e+02
1.350000e-06	5.838724e-06	9.117583e-09	4.043771e+01	5.975645e+02
1.360000e-06	5.907244e-06	9.187236e-09	4.091226e+01	6.021545e+02
1.370000e-06	5.973610e-06	9.253691e-09	4.137190e+01	6.065146e+02
1.380000e-06	6.037730e-06	9.316488e-09	4.181598e+01	6.106625e+02
1.390000e-06	6.099778e-06	9.377342e-09	4.224571e+01	6.146152e+02
1.400000e-06	6.159865e-06	9.436397e-09	4.266186e+01	6.183874e+02
1.410000e-06	6.217819e-06	9.492352e-09	4.306323e+01	6.219902e+02
1.420000e-06	6.273525e-06	9.545188e-09	4.344904e+01	6.254303e+02
1.430000e-06	6.326967e-06	9.595363e-09	4.381917e+01	6.287093e+02
1.440000e-06	6.377891e-06	9.643453e-09	4.417186e+01	6.318241e+02
1.450000e-06	6.426200e-06	9.688911e-09	4.450644e+01	6.347680e+02
1.460000e-06	6.472139e-06	9.730019e-09	4.482460e+01	6.375317e+02
1.470000e-06	6.515903e-06	9.767087e-09	4.512770e+01	6.401055e+02
1.480000e-06	6.557324e-06	9.800512e-09	4.541458e+01	6.424810e+02
1.490000e-06	6.596323e-06	9.831244e-09	4.568467e+01	6.446531e+02
1.500000e-06	6.633134e-06	9.859789e-09	4.593962e+01	6.466212e+02
1.510000e-06	6.667689e-06	9.886392e-09	4.617894e+01	6.483899e+02
1.520000e-06	6.699779e-06	9.910606e-09	4.640118e+01	6.499691e+02
1.530000e-06	6.729546e-06	9.930992e-09	4.660735e+01	6.513731e+02
1.540000e-06	6.757073e-06	9.950475e-09	4.679799e+01	6.526192e+02
1.550000e-06	6.782072e-06	9.969426e-09	4.697113e+01	6.537254e+02
1.560000e-06	6.804493e-06	9.985247e-09	4.712641e+01	6.547091e+02
1.570000e-06	6.824631e-06	9.997278e-09	4.726589e+01	6.555844e+02
1.580000e-06	6.842389e-06	1.000628e-08	4.738887e+01	6.563609e+02
1.590000e-06	6.857577e-06	1.001524e-08	4.749406e+01	6.570427e+02
1.600000e-06	6.870180e-06	1.002328e-08	4.758134e+01	6.576281e+02
1.610000e-06	6.880055e-06	1.002974e-08	4.764973e+01	6.581109e+02
1.620000e-06	6.887283e-06	1.003528e-08	4.769980e+01	6.584810e+02
1.630000e-06	6.892159e-06	1.003955e-08	4.773357e+01	6.587270e+02
1.640000e-06	6.894640e-06	1.004333e-08	4.775075e+01	6.588382e+02
1.650000e-06	6.894619e-06	1.004618e-08	4.775060e+01	6.588064e+02
1.660000e-06	6.892308e-06	1.004061e-08	4.773460e+01	6.586281e+02
1.670000e-06	6.887788e-06	1.003353e-08	4.770329e+01	6.583055e+02
1.680000e-06	6.880891e-06	1.002699e-08	4.765552e+01	6.578467e+02
1.690000e-06	6.871714e-06	1.001761e-08	4.759197e+01	6.572653e+02
1.700000e-06	6.860435e-06	1.000686e-08	4.751385e+01	6.565791e+02
1.710000e-06	6.846789e-06	9.999788e-09	4.741935e+01	6.558085e+02
1.720000e-06	6.830733e-06	1.000152e-08	4.730814e+01	6.549734e+02
1.730000e-06	6.812608e-06	9.956112e-09	4.718262e+01	6.540921e+02
1.740000e-06	6.792079e-06	9.896271e-09	4.704043e+01	6.531780e+02
1.750000e-06	6.768251e-06	9.909658e-09	4.687541e+01	6.522390e+02
1.760000e-06	6.741266e-06	9.911260e-09	4.668851e+01	6.512758e+02
1.770000e-06	6.711907e-06	9.894915e-09	4.648518e+01	6.502827e+02
1.780000e-06	6.680553e-06	9.957080e-09	4.626803e+01	6.492474e+02
1.790000e-06	6.647739e-06	9.900479e-09	4.604077e+01	6.481528e+02
1.800000e-06	6.613326e-06	9.821085e-09	4.580243e+01	6.469791e+02
1.810000e-06	6.576409e-06	9.871169e-09	4.554676e+01	6.457051e+02
1.820000e-06	6.537090e-06	9.788463e-09	4.527444e+01	6.443110e+02
1.830000e-06	6.495644e-06	9.813510e-09	4.498739e+01	6.427797e+02
1.840000e-06	6.451973e-06	9.850354e-09	4.468494e+01	6.410982e+02
1.850000e-06	6.406135e-06	9.736384e-09	4.436747e+01	6.392585e+02
1.860000e-06	6.357850e-06	9.720637e-09	4.403306e+01	6.372575e+02
1.870000e-06	6.307214e-06	9.616948e-09	4.368237e+01	6.350966e+02
1.880000e-06	6.254158e-06	9.608692e-09	4.331491e+01	6.327809e+02
1.890000e-06	6.198339e-06	9.645420e-09	4.292832e+01	6.303182e+02
1.900000e-06	6.140170e-06	9.569029e-09	4.252546e+01	6.277172e+02
1.910000e-06	6.079767e-06	9.577519e-09	4.210712e+01	6.249870e+02
1.920000e-06	6.017034e-06	9.453420e-09	4.167265e+01	6.221355e+02
1.930000e-06	5.952101e-06	9.384316e-09	4.122294e+01	6.191691e+02
1.940000e-06	5.885008e-06	9.409478e-09	4.075826e+01	6.160921e+02
1.950000e-06	5.815741e-06	9.358722e-09	4.027854e+01	6.129065e+02
1.960000e-06	5.744043e-06	9.320482e-09	3.978197e+01	6.096124e+02
1.970000e-06	5.670144e-06	9.211603e-09	3.927016e+01	6.062081e+02
1.980000e-06	5.594168e-06	9.177063e-09	3.874397e+01	6.026906e+02
1.990000e-06	5.515930e-06	9.138092e-09	3.820211e+01	5.990559e+02
2.000000e-06	5.435670e-06	9.084417e-09	3.764625e+01	5.952993e+02
2.010000e-06	5.353556e-06	9.035687e-09	3.707755e+01	5.914158e+02
2.020000e-06	5.269627e-06	8.932757e-09	3.649627e+01	5.873997e+02
2.030000e-06	5.183653e-06	8.871880e-09	3.590083e+01	5.832457e+02
2.040000e-06	5.095619e-06	8.799957e-09	3.529113e+01	5.789481e+02
2.050000e-06	5.005881e-06	8.778226e-09	3.466963e+01	5.745012e+02
2.060000e-06	4.914650e-06	8.712665e-09	3.403777e+01	5.699000e+02
2.070000e-06	4.821800e-06	8.602896e-09	3.339472e+01	5.651397e+02
2.080000e-06	4.727028e-06	8.510818e-09	3.273835e+01	5.602166e+02
2.090000e-06	4.630502e-06	8.424168e-09	3.206983e+01	5.551279e+02
2.100000e-06	4.532512e-06	8.379270e-09	3.139117e+01	5.498722e+02
2.110000e-06	4.433085e-06	8.318398e-09	3.070256e+01	5.444494e+02
2.120000e-06	4.332099e-06	8.234642e-09	3.000316e+01	5.388606e+02
2.130000e-06	4.229473e-06	8.117326e-09	2.929239e+01	5.331073e+02
2.140000e-06	4.125183e-06	8.016828e-09	2.857010e+01	5.271915e+02
2.150000e-06	4.019439e-06	7.932865e-09	2.783775e+01	5.211144e+02
2.160000e-06	3.912428e-06	7.857741e-09	2.709661e+01	5.148756e+02
2.170000e-06	3.804052e-06	7.769009e-09	2.634602e+01	5.084731e+02
2.180000e-06	3.694321e-06	7.651695e-09	2.558605e+01	5.019018e+02
2.190000e-06	3.583120e-06	7.533366e-09	2.481589e+01	4.951543e+02
2.200000e-06	3.470520e-06	7.422454e-09	2.403605e+01	4.882203e+02
2.210000e-06	3.356551e-06	7.336291e-09	2.324673e+01	4.810875e+02
2.220000e-06	3.241222e-06	7.232889e-09	2.244799e+01	4.737427e+02
2.230000e-06	3.124526e-06	7.101876e-09	2.163978e+01	4.661724e+02
2.240000e-06	3.006551e-06	6.967983e-09	2.082270e+01	4.583643e+02
2.250000e-06	2.887443e-06	6.854116e-09	1.999779e+01	4.503083e+02
2.260000e-06	2.767131e-06	6.742285e-09	1.916454e+01	4.419971e+02
2.270000e-06	2.645815e-06	6.618370e-09	1.832433e+01	4.334267e+02
2.280000e-06	2.523623e-06	6.478643e-09	1.747805e+01	4.245963e+02
2.290000e-06	2.400553e-06	6.326553e-09	1.662570e+01	4.155071e+02
2.300000e-06	2.276675e-06	6.174476e-09	1.576775e+01	4.061619e+02
2.310000e-06	2.152070e-06	6.037722e-09	1.490476e+01	3.965630e+02
2.320000e-06	2.026697e-06	5.912811e-09	1.403645e+01	3.867112e+02
2.330000e-06	1.900617e-06	5.763633e-09	1.316325e+01	3.766043e+02
2.340000e-06	1.773919e-06	5.589172e-09	1.228577e+01	3.662362e+02
2.350000e-06	1.646618e-06	5.414062e-09	1.140411e+01	3.555965e+02
2.360000e-06	1.518725e-06	5.253170e-09	1.051835e+01	3.446706e+02
2.370000e-06	1.390227e-06	5.093849e-09	9.628406e+00	3.334411e+02
2.380000e-06	1.261244e-06	4.922789e-09	8.735099e+00	3.218888e+02
2.390000e-06	1.131874e-06	4.735994e-09	7.839109e+00	3.099943e+02
2.400000e-06	1.002214e-06	4.537996e-09	6.941110e+00	2.977402e+02
2.410000e-06	8.723229e-07	4.340405e-09	6.041515e+00	2.851124e+02
2.420000e-06	7.421754e-07	4.148845e-09	5.140143e+00	2.721007e+02
2.430000e-06	6.118552e-07	3.956325e-09	4.237574e+00	2.586992e+02
2.440000e-06	4.813584e-07	3.745972e-09	3.333782e+00	2.449053e+02
2.450000e-06	3.506316e-07	3.518253e-09	2.428397e+00	2.307181e+02
2.460000e-06	2.197087e-07	3.289932e-09	1.521654e+00	2.161360e+02
2.470000e-06	8.868516e-08	3.066229e-09	6.142138e-01	2.011543e+02
2.480000e-06	-4.235279e-08	2.841368e-09	-2.933260e-01	1.857621e+02
2.490000e-06	-1.733902e-07	2.601604e-09	-1.200862e+00	1.699408e+02
2.500000e-06	-3.043281e-07	2.344961e-09	-2.107709e+00	1.536626e+02
2.510000e-06	-4.351624e-07	2.080536e-09	-3.013838e+00	1.368909e+02
2.520000e-06	-5.659164e-07	1.813911e-09	-3.919412e+00	1.195824e+02
2.530000e-06	-6.964722e-07	1.546160e-09	-4.823612e+00	1.016901e+02
2.540000e-06	-8.267870e-07	1.268590e-09	-5.726144e+00	8.316853e+01
2.550000e-06	-9.568687e-07	9.751833e-10	-6.627061e+00	6.397925e+01
2.560000e-06	-1.086689e-06	6.704037e-10	-7.526170e+00	4.409732e+01
2.570000e-06	-1.216217e-06	3.593233e-10	-8.423250e+00	2.351722e+01
2.580000e-06	-1.345326e-06	4.280560e-11	-9.317433e+00	2.258075e+00
2.590000e-06	-1.473938e-06	-2.840110e-10	-1.020816e+01	-1.963285e+01
2.600000e-06	-1.601980e-06	-6.267988e-10	-1.109496e+01	-4.207863e+01
2.610000e-06	-1.729347e-06	-9.816916e-10	-1.197707e+01	-6.497358e+01
2.620000e-06	-1.856006e-06	-1.339129e-09	-1.285429e+01	-8.818653e+01
2.630000e-06	-1.981987e-06	-1.691457e-09	-1.372680e+01	-1.115664e+02
2.640000e-06	-2.107258e-06	-2.042074e-09	-1.459440e+01	-1.349495e+02
2.650000e-06	-2.231740e-06	-2.397342e-09	-1.545654e+01	-1.581680e+02
2.660000e-06	-2.355343e-06	-2.755406e-09	-1.631259e+01	-1.810586e+02
2.670000e-06	-2.478007e-06	-3.104554e-09	-1.716213e+01	-2.034710e+02
2.680000e-06	-2.599751e-06	-3.437830e-09	-1.800530e+01	-2.252750e+02
2.690000e-06	-2.720557e-06	-3.754162e-09	-1.884198e+01	-2.463661e+02
2.700000e-06	-2.840305e-06	-4.054893e-09	-1.967132e+01	-2.666680e+02
2.710000e-06	-2.958910e-06	-4.347182e-09	-2.049275e+01	-2.861339e+02
2.720000e-06	-3.076355e-06	-4.632842e-09	-2.130615e+01	-3.047448e+02
2.730000e-06	-3.192579e-06	-4.905816e-09	-2.211109e+01	-3.225061e+02
2.740000e-06	-3.307439e-06	-5.163104e-09	-2.290659e+01	-3.394424e+02
2.750000e-06	-3.420925e-06	-5.410713e-09	-2.369257e+01	-3.555923e+02
2.760000e-06	-3.533056e-06	-5.651891e-09	-2.446916e+01	-3.710020e+02
2.770000e-06	-3.643810e-06	-5.883750e-09	-2.523622e+01	-3.857203e+02
2.780000e-06	-3.753274e-06	-6.102638e-09	-2.599434e+01	-3.997940e+02
2.790000e-06	-3.861506e-06	-6.308341e-09	-2.674394e+01	-4.132650e+02
2.800000e-06	-3.968551e-06	-6.502644e-09	-2.748531e+01	-4.261679e+02
2.810000e-06	-4.074324e-06	-6.689246e-09	-2.821787e+01	-4.385306e+02
2.820000e-06	-4.178580e-06	-6.871191e-09	-2.893992e+01	-4.503740e+02
2.830000e-06	-4.281224e-06	-7.045119e-09	-2.965081e+01	-4.617145e+02
2.840000e-06	-4.382329e-06	-7.208607e-09	-3.035104e+01	-4.725649e+02
2.850000e-06	-4.481870e-06	-7.361570e-09	-3.104044e+01	-4.829374e+02
2.860000e-06	-4.579877e-06	-7.510557e-09	-3.171922e+01	-4.928443e+02
2.870000e-06	-4.676369e-06	-7.659070e-09	-3.238750e+01	-5.022995e+02
2.880000e-06	-4.771210e-06	-7.799768e-09	-3.304434e+01	-5.113188e+02
2.890000e-06	-4.864274e-06	-7.929716e-09	-3.368889e+01	-5.199197e+02
2.900000e-06	-4.955576e-06	-8.050437e-09	-3.432122e+01	-5.281207e+02
2.910000e-06	-5.045132e-06	-8.166574e-09	-3.494147e+01	-5.359404e+02
2.920000e-06	-5.132827e-06	-8.281103e-09	-3.554882e+01	-5.433962e+02
2.930000e-06	-5.218561e-06	-8.391836e-09	-3.614260e+01	-5.505041e+02
2.940000e-06	-5.302422e-06	-8.497293e-09	-3.672340e+01	-5.572777e+02
