# Temperatura_=_82.05
# Concentracion g/m^3_=_15000.0
# C_Vs_to_Am_M_A/Vsm_=_65563218390.804596
# pendiente_HvsI_1/m_=_3716.3
# ordenada_HvsI_A/m_=_1297.0
# frecuencia_Hz_=_301976.9157271743

Tiempo_(s)	Campo_(V.s)	Magnetizacion_(V.s)	Campo_(kA/m)	Magnetizacion_(A/m)
0.000000e+00	-6.927905e-06	-1.283254e-08	-4.746758e+01	-8.407958e+02
1.000000e-08	-6.924400e-06	-1.282813e-08	-4.744356e+01	-8.404172e+02
2.000000e-08	-6.918715e-06	-1.282030e-08	-4.740461e+01	-8.398425e+02
3.000000e-08	-6.910874e-06	-1.281172e-08	-4.735089e+01	-8.390795e+02
4.000000e-08	-6.900624e-06	-1.280143e-08	-4.728066e+01	-8.381438e+02
5.000000e-08	-6.887756e-06	-1.278769e-08	-4.719249e+01	-8.370567e+02
6.000000e-08	-6.872324e-06	-1.276945e-08	-4.708675e+01	-8.358433e+02
7.000000e-08	-6.854615e-06	-1.275103e-08	-4.696542e+01	-8.345297e+02
8.000000e-08	-6.834849e-06	-1.275637e-08	-4.682999e+01	-8.331401e+02
9.000000e-08	-6.812632e-06	-1.276992e-08	-4.667777e+01	-8.316943e+02
1.000000e-07	-6.787511e-06	-1.272018e-08	-4.650565e+01	-8.302047e+02
1.100000e-07	-6.759635e-06	-1.266211e-08	-4.631465e+01	-8.286755e+02
1.200000e-07	-6.729427e-06	-1.263432e-08	-4.610768e+01	-8.271018e+02
1.300000e-07	-6.697162e-06	-1.257585e-08	-4.588661e+01	-8.254699e+02
1.400000e-07	-6.662943e-06	-1.250656e-08	-4.565215e+01	-8.237591e+02
1.500000e-07	-6.626837e-06	-1.254960e-08	-4.540476e+01	-8.219432e+02
1.600000e-07	-6.588716e-06	-1.253150e-08	-4.514358e+01	-8.199933e+02
1.700000e-07	-6.548446e-06	-1.244717e-08	-4.486766e+01	-8.178803e+02
1.800000e-07	-6.505728e-06	-1.246648e-08	-4.457497e+01	-8.155776e+02
1.900000e-07	-6.460440e-06	-1.238737e-08	-4.426467e+01	-8.130628e+02
2.000000e-07	-6.412817e-06	-1.232786e-08	-4.393837e+01	-8.103197e+02
2.100000e-07	-6.362603e-06	-1.233731e-08	-4.359433e+01	-8.073386e+02
2.200000e-07	-6.309710e-06	-1.228926e-08	-4.323192e+01	-8.041165e+02
2.300000e-07	-6.254390e-06	-1.220798e-08	-4.285289e+01	-8.006569e+02
2.400000e-07	-6.196593e-06	-1.209856e-08	-4.245688e+01	-7.969682e+02
2.500000e-07	-6.136463e-06	-1.204997e-08	-4.204490e+01	-7.930623e+02
2.600000e-07	-6.074209e-06	-1.203009e-08	-4.161835e+01	-7.889535e+02
2.700000e-07	-6.009711e-06	-1.198276e-08	-4.117644e+01	-7.846563e+02
2.800000e-07	-5.942924e-06	-1.191146e-08	-4.071883e+01	-7.801844e+02
2.900000e-07	-5.873891e-06	-1.180658e-08	-4.024584e+01	-7.755492e+02
3.000000e-07	-5.802691e-06	-1.172184e-08	-3.975800e+01	-7.707594e+02
3.100000e-07	-5.729303e-06	-1.165297e-08	-3.925518e+01	-7.658200e+02
3.200000e-07	-5.653582e-06	-1.161220e-08	-3.873636e+01	-7.607328e+02
3.300000e-07	-5.575495e-06	-1.155033e-08	-3.820134e+01	-7.554958e+02
3.400000e-07	-5.495189e-06	-1.143542e-08	-3.765111e+01	-7.501044e+02
3.500000e-07	-5.412906e-06	-1.133650e-08	-3.708733e+01	-7.445511e+02
3.600000e-07	-5.328826e-06	-1.126082e-08	-3.651125e+01	-7.388272e+02
3.700000e-07	-5.243044e-06	-1.119755e-08	-3.592350e+01	-7.329226e+02
3.800000e-07	-5.155518e-06	-1.110595e-08	-3.532380e+01	-7.268275e+02
3.900000e-07	-5.066055e-06	-1.099610e-08	-3.471084e+01	-7.205324e+02
4.000000e-07	-4.974713e-06	-1.088232e-08	-3.408499e+01	-7.140294e+02
4.100000e-07	-4.881698e-06	-1.078000e-08	-3.344768e+01	-7.073126e+02
4.200000e-07	-4.787138e-06	-1.069745e-08	-3.279980e+01	-7.003783e+02
4.300000e-07	-4.690879e-06	-1.059129e-08	-3.214026e+01	-6.932253e+02
4.400000e-07	-4.592743e-06	-1.046108e-08	-3.146786e+01	-6.858549e+02
4.500000e-07	-4.492924e-06	-1.033388e-08	-3.078394e+01	-6.782701e+02
4.600000e-07	-4.391608e-06	-1.021849e-08	-3.008976e+01	-6.704753e+02
4.700000e-07	-4.288873e-06	-1.011089e-08	-2.938585e+01	-6.624752e+02
4.800000e-07	-4.184640e-06	-1.000474e-08	-2.867169e+01	-6.542739e+02
4.900000e-07	-4.078735e-06	-9.872381e-09	-2.794606e+01	-6.458737e+02
5.000000e-07	-3.971255e-06	-9.711577e-09	-2.720965e+01	-6.372743e+02
5.100000e-07	-3.862366e-06	-9.563779e-09	-2.646358e+01	-6.284722e+02
5.200000e-07	-3.752135e-06	-9.444000e-09	-2.570832e+01	-6.194605e+02
5.300000e-07	-3.640620e-06	-9.323728e-09	-2.494425e+01	-6.102289e+02
5.400000e-07	-3.527695e-06	-9.177983e-09	-2.417053e+01	-6.007646e+02
5.500000e-07	-3.413166e-06	-9.017845e-09	-2.338582e+01	-5.910532e+02
5.600000e-07	-3.297067e-06	-8.857456e-09	-2.259035e+01	-5.810800e+02
5.700000e-07	-3.179651e-06	-8.694937e-09	-2.178586e+01	-5.708316e+02
5.800000e-07	-3.061192e-06	-8.537481e-09	-2.097421e+01	-5.602969e+02
5.900000e-07	-2.941761e-06	-8.380530e-09	-2.015592e+01	-5.494686e+02
6.000000e-07	-2.821203e-06	-8.204737e-09	-1.932990e+01	-5.383433e+02
6.100000e-07	-2.699420e-06	-8.017979e-09	-1.849548e+01	-5.269216e+02
6.200000e-07	-2.576503e-06	-7.841593e-09	-1.765330e+01	-5.152073e+02
6.300000e-07	-2.452633e-06	-7.669794e-09	-1.680458e+01	-5.032062e+02
6.400000e-07	-2.327934e-06	-7.483952e-09	-1.595019e+01	-4.909244e+02
6.500000e-07	-2.202429e-06	-7.286191e-09	-1.509027e+01	-4.783662e+02
6.600000e-07	-2.076262e-06	-7.088318e-09	-1.422582e+01	-4.655323e+02
6.700000e-07	-1.949544e-06	-6.890755e-09	-1.335759e+01	-4.524189e+02
6.800000e-07	-1.822198e-06	-6.688419e-09	-1.248506e+01	-4.390158e+02
6.900000e-07	-1.694156e-06	-6.481502e-09	-1.160777e+01	-4.253075e+02
7.000000e-07	-1.565351e-06	-6.263379e-09	-1.072523e+01	-4.112730e+02
7.100000e-07	-1.435875e-06	-6.031930e-09	-9.838109e+00	-3.968877e+02
7.200000e-07	-1.305922e-06	-5.800008e-09	-8.947722e+00	-3.821253e+02
7.300000e-07	-1.175516e-06	-5.572175e-09	-8.054225e+00	-3.669599e+02
7.400000e-07	-1.044735e-06	-5.341862e-09	-7.158161e+00	-3.513676e+02
7.500000e-07	-9.136393e-07	-5.101921e-09	-6.259936e+00	-3.353284e+02
7.600000e-07	-7.821935e-07	-4.850667e-09	-5.359316e+00	-3.188266e+02
7.700000e-07	-6.504645e-07	-4.591668e-09	-4.456755e+00	-3.018501e+02
7.800000e-07	-5.185715e-07	-4.328080e-09	-3.553070e+00	-2.843888e+02
7.900000e-07	-3.865326e-07	-4.060236e-09	-2.648386e+00	-2.664324e+02
8.000000e-07	-2.543307e-07	-3.782363e-09	-1.742585e+00	-2.479669e+02
8.100000e-07	-1.220177e-07	-3.488098e-09	-8.360224e-01	-2.289718e+02
8.200000e-07	1.036946e-08	-3.182616e-09	7.104791e-02	-2.094172e+02
8.300000e-07	1.427850e-07	-2.870589e-09	9.783127e-01	-1.892624e+02
8.400000e-07	2.751634e-07	-2.551289e-09	1.885324e+00	-1.684556e+02
8.500000e-07	4.074578e-07	-2.223846e-09	2.791758e+00	-1.469361e+02
8.600000e-07	5.396433e-07	-1.883864e-09	3.697447e+00	-1.246382e+02
8.700000e-07	6.716856e-07	-1.529268e-09	4.602154e+00	-1.014972e+02
8.800000e-07	8.035176e-07	-1.161124e-09	5.505421e+00	-7.745711e+01
8.900000e-07	9.350970e-07	-7.825373e-10	6.406957e+00	-5.247863e+01
9.000000e-07	1.066395e-06	-3.934017e-10	7.306567e+00	-2.654780e+01
9.100000e-07	1.197382e-06	1.121915e-11	8.204039e+00	3.166185e-01
9.200000e-07	1.328008e-06	4.315429e-10	9.099049e+00	2.805762e+01
9.300000e-07	1.458152e-06	8.656403e-10	9.990747e+00	5.657699e+01
9.400000e-07	1.587679e-06	1.312624e-09	1.087822e+01	8.573565e+01
9.500000e-07	1.716457e-06	1.769331e-09	1.176056e+01	1.153574e+02
9.600000e-07	1.844436e-06	2.231700e-09	1.263743e+01	1.452358e+02
9.700000e-07	1.971701e-06	2.693864e-09	1.350940e+01	1.751443e+02
9.800000e-07	2.098316e-06	3.151413e-09	1.437692e+01	2.048479e+02
9.900000e-07	2.224305e-06	3.598747e-09	1.524016e+01	2.341157e+02
1.000000e-06	2.349572e-06	4.031247e-09	1.609845e+01	2.627341e+02
1.010000e-06	2.473981e-06	4.450101e-09	1.695085e+01	2.905168e+02
1.020000e-06	2.597531e-06	4.854821e-09	1.779737e+01	3.173148e+02
1.030000e-06	2.720182e-06	5.243987e-09	1.863773e+01	3.430207e+02
1.040000e-06	2.841819e-06	5.615372e-09	1.947115e+01	3.675716e+02
1.050000e-06	2.962269e-06	5.969923e-09	2.029643e+01	3.909471e+02
1.060000e-06	3.081559e-06	6.309828e-09	2.111376e+01	4.131644e+02
1.070000e-06	3.199774e-06	6.633815e-09	2.192373e+01	4.342710e+02
1.080000e-06	3.316873e-06	6.941835e-09	2.272605e+01	4.543359e+02
1.090000e-06	3.432782e-06	7.235187e-09	2.352022e+01	4.734397e+02
1.100000e-06	3.547276e-06	7.513541e-09	2.430470e+01	4.916662e+02
1.110000e-06	3.660212e-06	7.778199e-09	2.507849e+01	5.090938e+02
1.120000e-06	3.771700e-06	8.030706e-09	2.584236e+01	5.257909e+02
1.130000e-06	3.881938e-06	8.273995e-09	2.659768e+01	5.418120e+02
1.140000e-06	3.991000e-06	8.509641e-09	2.734493e+01	5.571970e+02
1.150000e-06	4.098852e-06	8.735498e-09	2.808390e+01	5.719732e+02
1.160000e-06	4.205357e-06	8.951789e-09	2.881363e+01	5.861577e+02
1.170000e-06	4.310206e-06	9.157214e-09	2.953202e+01	5.997618e+02
1.180000e-06	4.413331e-06	9.352376e-09	3.023860e+01	6.127951e+02
1.190000e-06	4.514914e-06	9.537893e-09	3.093461e+01	6.252692e+02
1.200000e-06	4.615025e-06	9.716446e-09	3.162053e+01	6.372007e+02
1.210000e-06	4.713539e-06	9.888989e-09	3.229552e+01	6.486118e+02
1.220000e-06	4.810177e-06	1.005440e-08	3.295765e+01	6.595307e+02
1.230000e-06	4.904958e-06	1.021502e-08	3.360706e+01	6.699898e+02
1.240000e-06	4.998066e-06	1.037079e-08	3.424500e+01	6.800228e+02
1.250000e-06	5.089533e-06	1.052141e-08	3.487170e+01	6.896624e+02
1.260000e-06	5.179139e-06	1.066557e-08	3.548565e+01	6.989364e+02
1.270000e-06	5.266745e-06	1.080286e-08	3.608589e+01	7.078661e+02
1.280000e-06	5.352512e-06	1.093484e-08	3.667353e+01	7.164645e+02
1.290000e-06	5.436519e-06	1.106221e-08	3.724912e+01	7.247362e+02
1.300000e-06	5.518576e-06	1.118387e-08	3.781135e+01	7.326785e+02
1.310000e-06	5.598513e-06	1.129933e-08	3.835905e+01	7.402839e+02
1.320000e-06	5.676439e-06	1.141014e-08	3.889297e+01	7.475425e+02
1.330000e-06	5.752325e-06	1.151618e-08	3.941292e+01	7.544458e+02
1.340000e-06	5.825956e-06	1.161546e-08	3.991741e+01	7.609893e+02
1.350000e-06	5.897329e-06	1.170825e-08	4.040643e+01	7.671751e+02
1.360000e-06	5.966591e-06	1.179576e-08	4.088099e+01	7.730126e+02
1.370000e-06	6.033835e-06	1.187831e-08	4.134173e+01	7.785195e+02
1.380000e-06	6.098916e-06	1.195667e-08	4.178764e+01	7.837197e+02
1.390000e-06	6.161744e-06	1.203120e-08	4.221811e+01	7.886416e+02
1.400000e-06	6.222531e-06	1.210313e-08	4.263460e+01	7.933147e+02
1.410000e-06	6.281297e-06	1.217322e-08	4.303725e+01	7.977670e+02
1.420000e-06	6.337833e-06	1.224098e-08	4.342461e+01	8.020216e+02
1.430000e-06	6.392031e-06	1.230488e-08	4.379596e+01	8.060944e+02
1.440000e-06	6.443714e-06	1.236610e-08	4.415007e+01	8.099931e+02
1.450000e-06	6.492734e-06	1.242468e-08	4.448594e+01	8.137169e+02
1.460000e-06	6.539305e-06	1.247805e-08	4.480503e+01	8.172575e+02
1.470000e-06	6.583689e-06	1.252730e-08	4.510913e+01	8.206013e+02
1.480000e-06	6.625798e-06	1.257210e-08	4.539765e+01	8.237323e+02
1.490000e-06	6.665422e-06	1.261275e-08	4.566914e+01	8.266348e+02
1.500000e-06	6.702718e-06	1.265053e-08	4.592468e+01	8.292967e+02
1.510000e-06	6.737784e-06	1.268776e-08	4.616493e+01	8.317115e+02
1.520000e-06	6.770404e-06	1.272443e-08	4.638844e+01	8.338794e+02
1.530000e-06	6.800556e-06	1.275687e-08	4.659502e+01	8.358084e+02
1.540000e-06	6.828427e-06	1.278478e-08	4.678599e+01	8.375122e+02
1.550000e-06	6.853836e-06	1.280738e-08	4.696009e+01	8.390096e+02
1.560000e-06	6.876643e-06	1.282483e-08	4.711635e+01	8.403211e+02
1.570000e-06	6.897123e-06	1.283868e-08	4.725667e+01	8.414664e+02
1.580000e-06	6.915243e-06	1.284978e-08	4.738082e+01	8.424621e+02
1.590000e-06	6.930736e-06	1.286046e-08	4.748697e+01	8.433191e+02
1.600000e-06	6.943654e-06	1.287092e-08	4.757549e+01	8.440419e+02
1.610000e-06	6.953861e-06	1.288059e-08	4.764542e+01	8.446279e+02
1.620000e-06	6.961315e-06	1.288944e-08	4.769649e+01	8.450689e+02
1.630000e-06	6.966380e-06	1.289690e-08	4.773120e+01	8.453524e+02
1.640000e-06	6.969082e-06	1.290062e-08	4.774971e+01	8.454642e+02
1.650000e-06	6.969234e-06	1.289947e-08	4.775075e+01	8.453912e+02
1.660000e-06	6.966991e-06	1.288861e-08	4.773538e+01	8.451241e+02
1.670000e-06	6.962585e-06	1.287471e-08	4.770519e+01	8.446596e+02
1.680000e-06	6.955838e-06	1.286345e-08	4.765897e+01	8.440014e+02
1.690000e-06	6.946732e-06	1.285054e-08	4.759657e+01	8.431608e+02
1.700000e-06	6.935399e-06	1.283664e-08	4.751892e+01	8.421559e+02
1.710000e-06	6.921667e-06	1.282607e-08	4.742484e+01	8.410101e+02
1.720000e-06	6.905553e-06	1.281823e-08	4.731443e+01	8.397492e+02
1.730000e-06	6.887352e-06	1.277466e-08	4.718972e+01	8.383989e+02
1.740000e-06	6.866737e-06	1.270809e-08	4.704848e+01	8.369818e+02
1.750000e-06	6.842882e-06	1.270725e-08	4.688503e+01	8.355148e+02
1.760000e-06	6.815829e-06	1.270038e-08	4.669968e+01	8.340069e+02
1.770000e-06	6.786179e-06	1.266214e-08	4.649652e+01	8.324583e+02
1.780000e-06	6.754526e-06	1.269156e-08	4.627964e+01	8.308605e+02
1.790000e-06	6.721452e-06	1.267196e-08	4.605304e+01	8.291963e+02
1.800000e-06	6.686752e-06	1.257382e-08	4.581528e+01	8.274425e+02
1.810000e-06	6.649520e-06	1.259353e-08	4.556018e+01	8.255714e+02
1.820000e-06	6.609876e-06	1.254714e-08	4.528856e+01	8.235537e+02
1.830000e-06	6.568191e-06	1.251173e-08	4.500295e+01	8.213611e+02
1.840000e-06	6.524189e-06	1.254409e-08	4.470146e+01	8.189685e+02
1.850000e-06	6.477884e-06	1.243507e-08	4.438419e+01	8.163561e+02
1.860000e-06	6.429100e-06	1.239418e-08	4.404994e+01	8.135104e+02
1.870000e-06	6.377899e-06	1.231799e-08	4.369913e+01	8.104246e+02
1.880000e-06	6.324247e-06	1.227234e-08	4.333153e+01	8.070987e+02
1.890000e-06	6.267935e-06	1.229908e-08	4.294569e+01	8.035382e+02
1.900000e-06	6.209314e-06	1.220116e-08	4.254404e+01	7.997534e+02
1.910000e-06	6.148339e-06	1.213719e-08	4.212626e+01	7.957574e+02
1.920000e-06	6.084971e-06	1.202135e-08	4.169209e+01	7.915648e+02
1.930000e-06	6.019424e-06	1.195300e-08	4.124299e+01	7.871897e+02
1.940000e-06	5.951773e-06	1.196531e-08	4.077947e+01	7.826452e+02
1.950000e-06	5.881852e-06	1.188908e-08	4.030039e+01	7.779415e+02
1.960000e-06	5.809459e-06	1.181947e-08	3.980438e+01	7.730858e+02
1.970000e-06	5.734869e-06	1.167546e-08	3.929331e+01	7.680817e+02
1.980000e-06	5.658043e-06	1.158541e-08	3.876693e+01	7.629293e+02
1.990000e-06	5.578881e-06	1.153837e-08	3.822454e+01	7.576255e+02
2.000000e-06	5.497778e-06	1.147910e-08	3.766885e+01	7.521644e+02
2.010000e-06	5.414911e-06	1.141407e-08	3.710107e+01	7.465378e+02
2.020000e-06	5.330215e-06	1.128319e-08	3.652077e+01	7.407363e+02
2.030000e-06	5.243441e-06	1.118244e-08	3.592622e+01	7.347499e+02
2.040000e-06	5.154662e-06	1.107556e-08	3.531794e+01	7.285688e+02
2.050000e-06	5.064270e-06	1.100535e-08	3.469861e+01	7.221841e+02
2.060000e-06	4.972301e-06	1.091500e-08	3.406846e+01	7.155887e+02
2.070000e-06	4.878521e-06	1.079232e-08	3.342592e+01	7.087776e+02
2.080000e-06	4.782838e-06	1.067767e-08	3.277033e+01	7.017482e+02
2.090000e-06	4.685470e-06	1.055613e-08	3.210320e+01	6.945004e+02
2.100000e-06	4.586603e-06	1.046601e-08	3.142580e+01	6.870362e+02
2.110000e-06	4.486267e-06	1.036538e-08	3.073833e+01	6.793595e+02
2.120000e-06	4.384247e-06	1.023824e-08	3.003932e+01	6.714748e+02
2.130000e-06	4.280525e-06	1.008922e-08	2.932866e+01	6.633867e+02
2.140000e-06	4.175242e-06	9.965860e-09	2.860729e+01	6.550986e+02
2.150000e-06	4.068516e-06	9.856207e-09	2.787605e+01	6.466118e+02
2.160000e-06	3.960509e-06	9.742134e-09	2.713602e+01	6.379248e+02
2.170000e-06	3.851151e-06	9.602194e-09	2.638674e+01	6.290326e+02
2.180000e-06	3.740307e-06	9.435283e-09	2.562727e+01	6.199267e+02
2.190000e-06	3.628000e-06	9.274707e-09	2.485779e+01	6.105957e+02
2.200000e-06	3.514279e-06	9.131478e-09	2.407861e+01	6.010259e+02
2.210000e-06	3.399113e-06	9.013109e-09	2.328953e+01	5.912027e+02
2.220000e-06	3.282544e-06	8.876267e-09	2.249084e+01	5.811117e+02
2.230000e-06	3.164515e-06	8.704068e-09	2.168215e+01	5.707404e+02
2.240000e-06	3.045120e-06	8.521029e-09	2.086410e+01	5.600792e+02
2.250000e-06	2.924617e-06	8.356293e-09	2.003845e+01	5.491224e+02
2.260000e-06	2.803126e-06	8.198342e-09	1.920604e+01	5.378684e+02
2.270000e-06	2.680712e-06	8.034882e-09	1.836730e+01	5.263193e+02
2.280000e-06	2.557394e-06	7.856304e-09	1.752237e+01	5.144800e+02
2.290000e-06	2.433226e-06	7.660997e-09	1.667161e+01	5.023565e+02
2.300000e-06	2.308145e-06	7.461131e-09	1.581460e+01	4.899545e+02
2.310000e-06	2.182165e-06	7.270678e-09	1.495143e+01	4.772769e+02
2.320000e-06	2.055425e-06	7.088837e-09	1.408305e+01	4.643227e+02
2.330000e-06	1.927923e-06	6.889475e-09	1.320945e+01	4.510853e+02
2.340000e-06	1.799684e-06	6.671744e-09	1.233081e+01	4.375523e+02
2.350000e-06	1.670882e-06	6.454244e-09	1.144830e+01	4.237056e+02
2.360000e-06	1.541647e-06	6.245103e-09	1.056282e+01	4.095226e+02
2.370000e-06	1.411996e-06	6.032762e-09	9.674505e+00	3.949776e+02
2.380000e-06	1.281901e-06	5.804938e-09	8.783138e+00	3.800442e+02
2.390000e-06	1.151362e-06	5.559706e-09	7.888731e+00	3.646971e+02
2.400000e-06	1.020454e-06	5.307039e-09	6.991792e+00	3.489142e+02
2.410000e-06	8.892703e-07	5.060537e-09	6.092969e+00	3.326771e+02
2.420000e-06	7.578725e-07	4.820968e-09	5.192677e+00	3.159718e+02
2.430000e-06	6.262462e-07	4.573084e-09	4.290820e+00	2.987873e+02
2.440000e-06	4.943938e-07	4.300919e-09	3.387413e+00	2.811138e+02
2.450000e-06	3.624213e-07	4.008318e-09	2.483184e+00	2.629398e+02
2.460000e-06	2.303073e-07	3.714108e-09	1.577985e+00	2.442490e+02
2.470000e-06	9.801393e-08	3.426022e-09	6.715571e-01	2.250170e+02
2.480000e-06	-3.429757e-08	3.136480e-09	-2.349949e-01	2.052095e+02
2.490000e-06	-1.665432e-07	2.829745e-09	-1.141096e+00	1.847808e+02
2.500000e-06	-2.987060e-07	2.499667e-09	-2.046629e+00	1.636750e+02
2.510000e-06	-4.307474e-07	2.155096e-09	-2.951330e+00	1.418287e+02
2.520000e-06	-5.627470e-07	1.806633e-09	-3.855745e+00	1.191757e+02
2.530000e-06	-6.946283e-07	1.455001e-09	-4.759350e+00	9.565411e+01
2.540000e-06	-8.262286e-07	1.089670e-09	-5.661029e+00	7.121398e+01
2.550000e-06	-9.575798e-07	7.045568e-10	-6.561001e+00	4.582594e+01
2.560000e-06	-1.088675e-06	3.022806e-10	-7.459222e+00	1.948920e+01
2.570000e-06	-1.219393e-06	-1.100442e-10	-8.354851e+00	-7.761617e+00
2.580000e-06	-1.349674e-06	-5.321577e-10	-9.247491e+00	-3.585203e+01
2.590000e-06	-1.479555e-06	-9.679389e-10	-1.013739e+01	-6.466607e+01
2.600000e-06	-1.608943e-06	-1.419848e-09	-1.102391e+01	-9.404809e+01
2.610000e-06	-1.737734e-06	-1.883373e-09	-1.190635e+01	-1.238079e+02
2.620000e-06	-1.865933e-06	-2.344030e-09	-1.278472e+01	-1.537291e+02
2.630000e-06	-1.993480e-06	-2.794789e-09	-1.365863e+01	-1.835800e+02
2.640000e-06	-2.120359e-06	-3.239513e-09	-1.452796e+01	-2.131257e+02
2.650000e-06	-2.246444e-06	-3.683463e-09	-1.539184e+01	-2.421414e+02
2.660000e-06	-2.371478e-06	-4.121020e-09	-1.624854e+01	-2.704238e+02
2.670000e-06	-2.495471e-06	-4.540358e-09	-1.709809e+01	-2.978018e+02
2.680000e-06	-2.618481e-06	-4.937723e-09	-1.794092e+01	-3.241437e+02
2.690000e-06	-2.740510e-06	-5.314999e-09	-1.877701e+01	-3.493611e+02
2.700000e-06	-2.861540e-06	-5.676491e-09	-1.960627e+01	-3.734098e+02
2.710000e-06	-2.981546e-06	-6.027728e-09	-2.042851e+01	-3.962862e+02
2.720000e-06	-3.100522e-06	-6.365823e-09	-2.124369e+01	-4.180216e+02
2.730000e-06	-3.218219e-06	-6.681959e-09	-2.205011e+01	-4.386738e+02
2.740000e-06	-3.334504e-06	-6.977574e-09	-2.284685e+01	-4.583179e+02
2.750000e-06	-3.449453e-06	-7.262384e-09	-2.363444e+01	-4.770370e+02
2.760000e-06	-3.563078e-06	-7.540616e-09	-2.441297e+01	-4.949134e+02
2.770000e-06	-3.675281e-06	-7.809053e-09	-2.518174e+01	-5.120217e+02
2.780000e-06	-3.786009e-06	-8.063873e-09	-2.594041e+01	-5.284246e+02
2.790000e-06	-3.895433e-06	-8.304717e-09	-2.669014e+01	-5.441704e+02
2.800000e-06	-4.003703e-06	-8.531979e-09	-2.743197e+01	-5.592932e+02
2.810000e-06	-4.110779e-06	-8.748721e-09	-2.816562e+01	-5.738155e+02
2.820000e-06	-4.216377e-06	-8.960126e-09	-2.888914e+01	-5.877514e+02
2.830000e-06	-4.320382e-06	-9.164719e-09	-2.960174e+01	-6.011110e+02
2.840000e-06	-4.422718e-06	-9.359990e-09	-3.030291e+01	-6.139044e+02
2.850000e-06	-4.523331e-06	-9.547474e-09	-3.099228e+01	-6.261450e+02
2.860000e-06	-4.622439e-06	-9.730974e-09	-3.167133e+01	-6.378517e+02
2.870000e-06	-4.720004e-06	-9.909236e-09	-3.233981e+01	-6.490495e+02
2.880000e-06	-4.815942e-06	-1.007640e-08	-3.299715e+01	-6.597686e+02
2.890000e-06	-4.910112e-06	-1.023133e-08	-3.364237e+01	-6.700423e+02
2.900000e-06	-5.002453e-06	-1.037858e-08	-3.427505e+01	-6.799043e+02
2.910000e-06	-5.093077e-06	-1.052209e-08	-3.489598e+01	-6.893855e+02
2.920000e-06	-5.181895e-06	-1.066127e-08	-3.550453e+01	-6.985112e+02
2.930000e-06	-5.268724e-06	-1.079484e-08	-3.609945e+01	-7.072992e+02
2.940000e-06	-5.353539e-06	-1.092121e-08	-3.668058e+01	-7.157589e+02
