# Temperatura_=_30.8
# Concentracion g/m^3_=_15000.0
# C_Vs_to_Am_M_A/Vsm_=_65563218390.804596
# pendiente_HvsI_1/m_=_3716.3
# ordenada_HvsI_A/m_=_1297.0
# frecuencia_Hz_=_301599.1643421669

Tiempo_(s)	Campo_(V.s)	Magnetizacion_(V.s)	Campo_(kA/m)	Magnetizacion_(A/m)
0.000000e+00	-5.415780e-06	-8.121458e-09	-3.833657e+01	-5.299716e+02
1.000000e-08	-5.413188e-06	-8.119559e-09	-3.831822e+01	-5.297742e+02
2.000000e-08	-5.408753e-06	-8.115290e-09	-3.828682e+01	-5.294696e+02
3.000000e-08	-5.402666e-06	-8.111359e-09	-3.824374e+01	-5.290549e+02
4.000000e-08	-5.394978e-06	-8.103987e-09	-3.818931e+01	-5.285287e+02
5.000000e-08	-5.385497e-06	-8.090948e-09	-3.812221e+01	-5.278911e+02
6.000000e-08	-5.374001e-06	-8.073382e-09	-3.804083e+01	-5.271454e+02
7.000000e-08	-5.360529e-06	-8.055091e-09	-3.794546e+01	-5.262974e+02
8.000000e-08	-5.344944e-06	-8.054369e-09	-3.783514e+01	-5.253559e+02
9.000000e-08	-5.327143e-06	-8.075540e-09	-3.770914e+01	-5.243316e+02
1.000000e-07	-5.307309e-06	-8.056521e-09	-3.756874e+01	-5.232367e+02
1.100000e-07	-5.285544e-06	-8.010874e-09	-3.741467e+01	-5.220830e+02
1.200000e-07	-5.262018e-06	-7.964699e-09	-3.724813e+01	-5.208808e+02
1.300000e-07	-5.236865e-06	-7.905880e-09	-3.707008e+01	-5.196377e+02
1.400000e-07	-5.210083e-06	-7.930011e-09	-3.688050e+01	-5.183570e+02
1.500000e-07	-5.181788e-06	-7.953493e-09	-3.668021e+01	-5.170375e+02
1.600000e-07	-5.152033e-06	-7.869992e-09	-3.646958e+01	-5.156729e+02
1.700000e-07	-5.120660e-06	-7.877774e-09	-3.624751e+01	-5.142526e+02
1.800000e-07	-5.087228e-06	-7.860456e-09	-3.601085e+01	-5.127622e+02
1.900000e-07	-5.051863e-06	-7.772871e-09	-3.576052e+01	-5.111853e+02
2.000000e-07	-5.015053e-06	-7.802381e-09	-3.549995e+01	-5.095047e+02
2.100000e-07	-4.976556e-06	-7.766637e-09	-3.522744e+01	-5.077045e+02
2.200000e-07	-4.936214e-06	-7.688878e-09	-3.494188e+01	-5.057716e+02
2.300000e-07	-4.893872e-06	-7.698206e-09	-3.464215e+01	-5.036965e+02
2.400000e-07	-4.849550e-06	-7.665498e-09	-3.432840e+01	-5.014747e+02
2.500000e-07	-4.803506e-06	-7.621058e-09	-3.400247e+01	-4.991067e+02
2.600000e-07	-4.755554e-06	-7.584816e-09	-3.366304e+01	-4.965975e+02
2.700000e-07	-4.705469e-06	-7.510865e-09	-3.330850e+01	-4.939556e+02
2.800000e-07	-4.653298e-06	-7.481175e-09	-3.293920e+01	-4.911920e+02
2.900000e-07	-4.599286e-06	-7.444583e-09	-3.255687e+01	-4.883185e+02
3.000000e-07	-4.543684e-06	-7.391619e-09	-3.216328e+01	-4.853462e+02
3.100000e-07	-4.486391e-06	-7.360777e-09	-3.175772e+01	-4.822841e+02
3.200000e-07	-4.427278e-06	-7.317139e-09	-3.133928e+01	-4.791382e+02
3.300000e-07	-4.366580e-06	-7.250825e-09	-3.090962e+01	-4.759108e+02
3.400000e-07	-4.304401e-06	-7.197104e-09	-3.046947e+01	-4.726004e+02
3.500000e-07	-4.240851e-06	-7.169681e-09	-3.001962e+01	-4.692023e+02
3.600000e-07	-4.175767e-06	-7.104375e-09	-2.955891e+01	-4.657092e+02
3.700000e-07	-4.108891e-06	-7.027778e-09	-2.908552e+01	-4.621122e+02
3.800000e-07	-4.040500e-06	-6.982562e-09	-2.860140e+01	-4.584022e+02
3.900000e-07	-3.970805e-06	-6.926417e-09	-2.810806e+01	-4.545707e+02
4.000000e-07	-3.899855e-06	-6.859384e-09	-2.760582e+01	-4.506109e+02
4.100000e-07	-3.827657e-06	-6.797330e-09	-2.709475e+01	-4.465182e+02
4.200000e-07	-3.753962e-06	-6.741642e-09	-2.657309e+01	-4.422900e+02
4.300000e-07	-3.678641e-06	-6.676531e-09	-2.603992e+01	-4.379264e+02
4.400000e-07	-3.601755e-06	-6.595398e-09	-2.549567e+01	-4.334287e+02
4.500000e-07	-3.523365e-06	-6.528370e-09	-2.494077e+01	-4.287997e+02
4.600000e-07	-3.443588e-06	-6.466781e-09	-2.437605e+01	-4.240421e+02
4.700000e-07	-3.362593e-06	-6.388933e-09	-2.380272e+01	-4.191583e+02
4.800000e-07	-3.280436e-06	-6.305393e-09	-2.322115e+01	-4.141496e+02
4.900000e-07	-3.197156e-06	-6.233185e-09	-2.263164e+01	-4.090158e+02
5.000000e-07	-3.112893e-06	-6.158280e-09	-2.203517e+01	-4.037553e+02
5.100000e-07	-3.027674e-06	-6.065141e-09	-2.143193e+01	-3.983651e+02
5.200000e-07	-2.941512e-06	-5.975128e-09	-2.082202e+01	-3.928411e+02
5.300000e-07	-2.854460e-06	-5.888649e-09	-2.020581e+01	-3.871790e+02
5.400000e-07	-2.766503e-06	-5.797741e-09	-1.958319e+01	-3.813743e+02
5.500000e-07	-2.677436e-06	-5.707623e-09	-1.895271e+01	-3.754231e+02
5.600000e-07	-2.587072e-06	-5.618323e-09	-1.831305e+01	-3.693225e+02
5.700000e-07	-2.495636e-06	-5.524979e-09	-1.766581e+01	-3.630706e+02
5.800000e-07	-2.403402e-06	-5.424501e-09	-1.701291e+01	-3.566664e+02
5.900000e-07	-2.310355e-06	-5.322856e-09	-1.635426e+01	-3.501097e+02
6.000000e-07	-2.216485e-06	-5.220682e-09	-1.568978e+01	-3.434008e+02
6.100000e-07	-2.121899e-06	-5.116096e-09	-1.502024e+01	-3.365397e+02
6.200000e-07	-2.026631e-06	-5.008456e-09	-1.434587e+01	-3.295260e+02
6.300000e-07	-1.930596e-06	-4.899371e-09	-1.366607e+01	-3.223581e+02
6.400000e-07	-1.833774e-06	-4.787372e-09	-1.298069e+01	-3.150334e+02
6.500000e-07	-1.736110e-06	-4.671008e-09	-1.228937e+01	-3.075482e+02
6.600000e-07	-1.637649e-06	-4.551686e-09	-1.159239e+01	-2.998975e+02
6.700000e-07	-1.538580e-06	-4.428048e-09	-1.089111e+01	-2.920753e+02
6.800000e-07	-1.438972e-06	-4.303459e-09	-1.018602e+01	-2.840752e+02
6.900000e-07	-1.338928e-06	-4.180557e-09	-9.477841e+00	-2.758907e+02
7.000000e-07	-1.238562e-06	-4.057428e-09	-8.767381e+00	-2.675154e+02
7.100000e-07	-1.137886e-06	-3.926987e-09	-8.054729e+00	-2.589437e+02
7.200000e-07	-1.036897e-06	-3.789479e-09	-7.339861e+00	-2.501702e+02
7.300000e-07	-9.355734e-07	-3.648465e-09	-6.622623e+00	-2.411907e+02
7.400000e-07	-8.339004e-07	-3.504896e-09	-5.902913e+00	-2.320013e+02
7.500000e-07	-7.318511e-07	-3.358410e-09	-5.180539e+00	-2.225987e+02
7.600000e-07	-6.294790e-07	-3.210478e-09	-4.455880e+00	-2.129795e+02
7.700000e-07	-5.269291e-07	-3.061098e-09	-3.729962e+00	-2.031407e+02
7.800000e-07	-4.242614e-07	-2.907999e-09	-3.003210e+00	-1.930785e+02
7.900000e-07	-3.214860e-07	-2.752037e-09	-2.275696e+00	-1.827891e+02
8.000000e-07	-2.186224e-07	-2.591001e-09	-1.547557e+00	-1.722679e+02
8.100000e-07	-1.157037e-07	-2.424333e-09	-8.190290e-01	-1.615101e+02
8.200000e-07	-1.270961e-08	-2.253344e-09	-8.996724e-02	-1.505100e+02
8.300000e-07	9.035967e-08	-2.080651e-09	6.396271e-01	-1.392621e+02
8.400000e-07	1.934078e-07	-1.905700e-09	1.369072e+00	-1.277601e+02
8.500000e-07	2.963816e-07	-1.724864e-09	2.097990e+00	-1.159977e+02
8.600000e-07	3.992923e-07	-1.539520e-09	2.826462e+00	-1.039682e+02
8.700000e-07	5.021401e-07	-1.351780e-09	3.554489e+00	-9.166462e+01
8.800000e-07	6.048520e-07	-1.159740e-09	4.281553e+00	-7.907964e+01
8.900000e-07	7.073983e-07	-9.643310e-10	5.007446e+00	-6.620578e+01
9.000000e-07	8.097096e-07	-7.668299e-10	5.731674e+00	-5.303563e+01
9.100000e-07	9.117071e-07	-5.653945e-10	6.453681e+00	-3.956234e+01
9.200000e-07	1.013333e-06	-3.589139e-10	7.173060e+00	-2.578038e+01
9.300000e-07	1.114567e-06	-1.454170e-10	7.889663e+00	-1.168658e+01
9.400000e-07	1.215439e-06	7.478804e-11	8.603702e+00	2.718618e+00
9.500000e-07	1.315904e-06	2.989515e-10	9.314859e+00	1.742976e+01
9.600000e-07	1.415992e-06	5.263386e-10	1.002335e+01	3.243493e+01
9.700000e-07	1.515691e-06	7.575366e-10	1.072909e+01	4.771442e+01
9.800000e-07	1.614832e-06	9.934882e-10	1.143088e+01	6.323981e+01
9.900000e-07	1.713263e-06	1.232479e-09	1.212764e+01	7.897338e+01
1.000000e-06	1.810872e-06	1.473400e-09	1.281858e+01	9.486819e+01
1.010000e-06	1.907639e-06	1.716776e-09	1.350356e+01	1.108689e+02
1.020000e-06	2.003628e-06	1.961617e-09	1.418304e+01	1.269132e+02
1.030000e-06	2.098835e-06	2.207355e-09	1.485698e+01	1.429339e+02
1.040000e-06	2.193276e-06	2.452042e-09	1.552550e+01	1.588615e+02
1.050000e-06	2.286992e-06	2.691887e-09	1.618888e+01	1.746272e+02
1.060000e-06	2.379929e-06	2.925971e-09	1.684675e+01	1.901653e+02
1.070000e-06	2.472155e-06	3.153781e-09	1.749959e+01	2.054165e+02
1.080000e-06	2.563676e-06	3.377651e-09	1.814744e+01	2.203296e+02
1.090000e-06	2.654274e-06	3.598331e-09	1.878875e+01	2.348635e+02
1.100000e-06	2.743666e-06	3.814594e-09	1.942153e+01	2.489870e+02
1.110000e-06	2.831883e-06	4.022592e-09	2.004599e+01	2.626798e+02
1.120000e-06	2.919160e-06	4.221798e-09	2.066380e+01	2.759307e+02
1.130000e-06	3.005560e-06	4.415836e-09	2.127540e+01	2.887362e+02
1.140000e-06	3.091019e-06	4.605525e-09	2.188033e+01	3.010990e+02
1.150000e-06	3.175477e-06	4.787687e-09	2.247818e+01	3.130252e+02
1.160000e-06	3.258968e-06	4.961891e-09	2.306918e+01	3.245226e+02
1.170000e-06	3.341381e-06	5.131050e-09	2.365257e+01	3.355988e+02
1.180000e-06	3.422540e-06	5.293896e-09	2.422706e+01	3.462601e+02
1.190000e-06	3.502413e-06	5.450172e-09	2.479245e+01	3.565108e+02
1.200000e-06	3.580996e-06	5.600597e-09	2.534872e+01	3.663532e+02
1.210000e-06	3.658292e-06	5.743984e-09	2.589587e+01	3.757885e+02
1.220000e-06	3.734327e-06	5.880138e-09	2.643410e+01	3.848175e+02
1.230000e-06	3.808881e-06	6.010864e-09	2.696185e+01	3.934420e+02
1.240000e-06	3.881819e-06	6.136558e-09	2.747815e+01	4.016663e+02
1.250000e-06	3.953232e-06	6.255941e-09	2.798366e+01	4.094978e+02
1.260000e-06	4.023244e-06	6.366567e-09	2.847926e+01	4.169480e+02
1.270000e-06	4.091943e-06	6.471656e-09	2.896555e+01	4.240326e+02
1.280000e-06	4.159242e-06	6.572372e-09	2.944194e+01	4.307708e+02
1.290000e-06	4.224934e-06	6.668949e-09	2.990695e+01	4.371848e+02
1.300000e-06	4.288953e-06	6.762344e-09	3.036012e+01	4.432983e+02
1.310000e-06	4.351427e-06	6.850792e-09	3.080235e+01	4.491348e+02
1.320000e-06	4.412478e-06	6.935020e-09	3.123451e+01	4.547163e+02
1.330000e-06	4.472166e-06	7.016529e-09	3.165703e+01	4.600619e+02
1.340000e-06	4.530267e-06	7.095928e-09	3.206830e+01	4.651867e+02
1.350000e-06	4.586565e-06	7.171813e-09	3.246682e+01	4.701014e+02
1.360000e-06	4.641177e-06	7.240843e-09	3.285340e+01	4.748120e+02
1.370000e-06	4.694106e-06	7.304852e-09	3.322807e+01	4.793208e+02
1.380000e-06	4.745109e-06	7.367189e-09	3.358910e+01	4.836267e+02
1.390000e-06	4.794109e-06	7.429227e-09	3.393596e+01	4.877270e+02
1.400000e-06	4.841276e-06	7.489309e-09	3.426984e+01	4.916182e+02
1.410000e-06	4.886763e-06	7.544843e-09	3.459183e+01	4.952973e+02
1.420000e-06	4.930697e-06	7.597239e-09	3.490282e+01	4.987628e+02
1.430000e-06	4.972902e-06	7.646913e-09	3.520158e+01	5.020156e+02
1.440000e-06	5.013153e-06	7.693150e-09	3.548650e+01	5.050588e+02
1.450000e-06	5.051646e-06	7.736142e-09	3.575898e+01	5.078975e+02
1.460000e-06	5.088563e-06	7.774955e-09	3.602031e+01	5.105390e+02
1.470000e-06	5.123849e-06	7.809225e-09	3.627008e+01	5.129913e+02
1.480000e-06	5.157217e-06	7.840013e-09	3.650628e+01	5.152627e+02
1.490000e-06	5.188629e-06	7.868231e-09	3.672864e+01	5.173614e+02
1.500000e-06	5.218318e-06	7.894189e-09	3.693880e+01	5.192945e+02
1.510000e-06	5.246314e-06	7.919811e-09	3.713697e+01	5.210678e+02
1.520000e-06	5.272382e-06	7.943775e-09	3.732150e+01	5.226859e+02
1.530000e-06	5.296373e-06	7.965166e-09	3.749132e+01	5.241527e+02
1.540000e-06	5.318452e-06	7.984965e-09	3.764761e+01	5.254713e+02
1.550000e-06	5.338749e-06	8.001822e-09	3.779129e+01	5.266448e+02
1.560000e-06	5.357248e-06	8.016403e-09	3.792224e+01	5.276766e+02
1.570000e-06	5.373811e-06	8.029223e-09	3.803948e+01	5.285712e+02
1.580000e-06	5.388371e-06	8.039841e-09	3.814255e+01	5.293336e+02
1.590000e-06	5.400910e-06	8.049312e-09	3.823131e+01	5.299699e+02
1.600000e-06	5.411287e-06	8.057015e-09	3.830476e+01	5.304862e+02
1.610000e-06	5.419482e-06	8.064088e-09	3.836277e+01	5.308887e+02
1.620000e-06	5.425710e-06	8.070308e-09	3.840686e+01	5.311830e+02
1.630000e-06	5.430152e-06	8.074361e-09	3.843830e+01	5.313730e+02
1.640000e-06	5.432709e-06	8.077097e-09	3.845641e+01	5.314613e+02
1.650000e-06	5.433217e-06	8.077560e-09	3.846000e+01	5.314483e+02
1.660000e-06	5.431893e-06	8.074527e-09	3.845063e+01	5.313328e+02
1.670000e-06	5.428941e-06	8.069089e-09	3.842973e+01	5.311124e+02
1.680000e-06	5.424300e-06	8.065378e-09	3.839688e+01	5.307841e+02
1.690000e-06	5.417770e-06	8.060518e-09	3.835066e+01	5.303453e+02
1.700000e-06	5.409383e-06	8.052790e-09	3.829128e+01	5.297948e+02
1.710000e-06	5.399435e-06	8.046010e-09	3.822087e+01	5.291334e+02
1.720000e-06	5.387809e-06	8.045111e-09	3.813857e+01	5.283649e+02
1.730000e-06	5.374170e-06	8.028685e-09	3.804202e+01	5.274957e+02
1.740000e-06	5.358456e-06	7.969180e-09	3.793079e+01	5.265352e+02
1.750000e-06	5.340433e-06	7.940889e-09	3.780321e+01	5.254945e+02
1.760000e-06	5.319722e-06	7.945899e-09	3.765660e+01	5.243857e+02
1.770000e-06	5.296583e-06	7.964941e-09	3.749281e+01	5.232205e+02
1.780000e-06	5.272017e-06	7.999204e-09	3.731892e+01	5.220088e+02
1.790000e-06	5.246707e-06	7.914897e-09	3.713976e+01	5.207572e+02
1.800000e-06	5.220120e-06	7.852534e-09	3.695156e+01	5.194682e+02
1.810000e-06	5.191340e-06	7.901979e-09	3.674783e+01	5.181394e+02
1.820000e-06	5.160558e-06	7.836963e-09	3.652993e+01	5.167636e+02
1.830000e-06	5.128203e-06	7.835793e-09	3.630090e+01	5.153292e+02
1.840000e-06	5.094015e-06	7.885423e-09	3.605890e+01	5.138215e+02
1.850000e-06	5.058120e-06	7.778394e-09	3.580480e+01	5.122235e+02
1.860000e-06	5.020483e-06	7.776167e-09	3.553839e+01	5.105182e+02
1.870000e-06	4.980933e-06	7.787220e-09	3.525842e+01	5.086903e+02
1.880000e-06	4.939671e-06	7.685699e-09	3.496634e+01	5.067272e+02
1.890000e-06	4.896635e-06	7.689520e-09	3.466170e+01	5.046206e+02
1.900000e-06	4.851917e-06	7.644491e-09	3.434517e+01	5.023670e+02
1.910000e-06	4.805433e-06	7.606536e-09	3.401612e+01	4.999679e+02
1.920000e-06	4.756889e-06	7.616697e-09	3.367249e+01	4.974291e+02
1.930000e-06	4.706611e-06	7.512918e-09	3.331659e+01	4.947599e+02
1.940000e-06	4.654577e-06	7.516313e-09	3.294825e+01	4.919714e+02
1.950000e-06	4.600434e-06	7.490713e-09	3.256500e+01	4.890756e+02
1.960000e-06	4.544416e-06	7.376374e-09	3.216846e+01	4.860831e+02
1.970000e-06	4.486721e-06	7.351641e-09	3.176006e+01	4.830023e+02
1.980000e-06	4.427549e-06	7.319469e-09	3.134119e+01	4.798386e+02
1.990000e-06	4.366899e-06	7.279851e-09	3.091187e+01	4.765934e+02
2.000000e-06	4.304516e-06	7.201804e-09	3.047029e+01	4.732644e+02
2.010000e-06	4.240518e-06	7.159435e-09	3.001726e+01	4.698463e+02
2.020000e-06	4.175057e-06	7.142353e-09	2.955389e+01	4.663314e+02
2.030000e-06	4.108180e-06	7.036569e-09	2.908048e+01	4.627107e+02
2.040000e-06	4.039860e-06	6.994823e-09	2.859687e+01	4.589750e+02
2.050000e-06	3.969935e-06	6.960801e-09	2.810189e+01	4.551163e+02
2.060000e-06	3.898442e-06	6.887272e-09	2.759582e+01	4.511280e+02
2.070000e-06	3.825685e-06	6.803676e-09	2.708079e+01	4.470060e+02
2.080000e-06	3.751677e-06	6.729175e-09	2.655692e+01	4.427485e+02
2.090000e-06	3.676233e-06	6.705407e-09	2.602288e+01	4.383557e+02
2.100000e-06	3.599269e-06	6.624649e-09	2.547807e+01	4.338294e+02
2.110000e-06	3.520669e-06	6.537402e-09	2.492168e+01	4.291723e+02
2.120000e-06	3.440728e-06	6.474547e-09	2.435581e+01	4.243872e+02
2.130000e-06	3.359740e-06	6.403554e-09	2.378252e+01	4.194762e+02
2.140000e-06	3.277597e-06	6.321918e-09	2.320106e+01	4.144405e+02
2.150000e-06	3.194376e-06	6.236420e-09	2.261196e+01	4.092794e+02
2.160000e-06	3.110199e-06	6.174952e-09	2.201610e+01	4.039911e+02
2.170000e-06	3.024798e-06	6.084196e-09	2.141157e+01	3.985723e+02
2.180000e-06	2.937945e-06	5.993197e-09	2.079677e+01	3.930188e+02
2.190000e-06	2.849968e-06	5.913517e-09	2.017401e+01	3.873262e+02
2.200000e-06	2.761083e-06	5.829146e-09	1.954482e+01	3.814901e+02
2.210000e-06	2.671278e-06	5.738116e-09	1.890912e+01	3.755068e+02
2.220000e-06	2.580563e-06	5.637578e-09	1.826698e+01	3.693736e+02
2.230000e-06	2.489032e-06	5.546345e-09	1.761906e+01	3.630888e+02
2.240000e-06	2.396751e-06	5.447492e-09	1.696583e+01	3.566516e+02
2.250000e-06	2.303518e-06	5.347019e-09	1.630586e+01	3.500621e+02
2.260000e-06	2.209289e-06	5.244672e-09	1.563885e+01	3.433202e+02
2.270000e-06	2.114129e-06	5.138819e-09	1.496524e+01	3.364262e+02
2.280000e-06	2.018073e-06	5.029256e-09	1.428529e+01	3.293793e+02
2.290000e-06	1.921315e-06	4.920376e-09	1.360037e+01	3.221778e+02
2.300000e-06	1.824005e-06	4.813524e-09	1.291155e+01	3.148188e+02
2.310000e-06	1.726165e-06	4.701626e-09	1.221897e+01	3.072983e+02
2.320000e-06	1.627747e-06	4.585552e-09	1.152230e+01	2.996110e+02
2.330000e-06	1.528804e-06	4.463595e-09	1.082191e+01	2.917509e+02
2.340000e-06	1.429426e-06	4.338602e-09	1.011845e+01	2.837116e+02
2.350000e-06	1.329673e-06	4.211245e-09	9.412329e+00	2.754864e+02
2.360000e-06	1.229593e-06	4.086418e-09	8.703890e+00	2.670692e+02
2.370000e-06	1.129173e-06	3.958619e-09	7.993056e+00	2.584544e+02
2.380000e-06	1.028404e-06	3.823870e-09	7.279743e+00	2.496368e+02
2.390000e-06	9.272483e-07	3.687476e-09	6.563693e+00	2.406123e+02
2.400000e-06	8.256168e-07	3.550766e-09	5.844276e+00	2.313772e+02
2.410000e-06	7.235653e-07	3.409498e-09	5.121887e+00	2.219281e+02
2.420000e-06	6.211973e-07	3.260540e-09	4.397256e+00	2.122619e+02
2.430000e-06	5.184750e-07	3.109515e-09	3.670118e+00	2.023752e+02
2.440000e-06	4.155693e-07	2.957206e-09	2.941681e+00	1.922644e+02
2.450000e-06	3.125533e-07	2.802289e-09	2.212464e+00	1.819255e+02
2.460000e-06	2.093401e-07	2.643106e-09	1.481851e+00	1.713537e+02
2.470000e-06	1.060249e-07	2.480499e-09	7.505163e-01	1.605441e+02
2.480000e-06	2.686721e-09	2.311080e-09	1.901843e-02	1.494911e+02
2.490000e-06	-1.006612e-07	2.135777e-09	-7.125485e-01	1.381890e+02
2.500000e-06	-2.040024e-07	1.960934e-09	-1.444067e+00	1.266314e+02
2.510000e-06	-3.072803e-07	1.785589e-09	-2.175139e+00	1.148121e+02
2.520000e-06	-4.104700e-07	1.605382e-09	-2.905585e+00	1.027242e+02
2.530000e-06	-5.135400e-07	1.415994e-09	-3.635185e+00	9.036060e+01
2.540000e-06	-6.163932e-07	1.221983e-09	-4.363249e+00	7.771406e+01
2.550000e-06	-7.189385e-07	1.024074e-09	-5.089135e+00	6.477703e+01
2.560000e-06	-8.211709e-07	8.190817e-10	-5.812805e+00	5.154217e+01
2.570000e-06	-9.229923e-07	6.075053e-10	-6.533566e+00	3.800284e+01
2.580000e-06	-1.024275e-06	3.924819e-10	-7.250517e+00	2.415393e+01
2.590000e-06	-1.125109e-06	1.756663e-10	-7.964282e+00	9.992917e+00
2.600000e-06	-1.225560e-06	-4.369138e-11	-8.675346e+00	-4.478798e+00
2.610000e-06	-1.325523e-06	-2.674830e-10	-9.382952e+00	-1.925449e+01
2.620000e-06	-1.425008e-06	-4.993780e-10	-1.008717e+01	-3.432068e+01
2.630000e-06	-1.524040e-06	-7.359315e-10	-1.078819e+01	-4.965588e+01
2.640000e-06	-1.622549e-06	-9.735353e-10	-1.148550e+01	-6.522966e+01
2.650000e-06	-1.720488e-06	-1.214505e-09	-1.217878e+01	-8.100233e+01
2.660000e-06	-1.817835e-06	-1.459419e-09	-1.286787e+01	-9.692506e+01
2.670000e-06	-1.914589e-06	-1.704983e-09	-1.355276e+01	-1.129409e+02
2.680000e-06	-2.010758e-06	-1.949342e-09	-1.423351e+01	-1.289862e+02
2.690000e-06	-2.106338e-06	-2.193065e-09	-1.491009e+01	-1.449931e+02
2.700000e-06	-2.201132e-06	-2.434986e-09	-1.558111e+01	-1.608920e+02
2.710000e-06	-2.294943e-06	-2.674465e-09	-1.624517e+01	-1.766145e+02
2.720000e-06	-2.387722e-06	-2.911114e-09	-1.690192e+01	-1.920962e+02
2.730000e-06	-2.479553e-06	-3.144624e-09	-1.755196e+01	-2.072793e+02
2.740000e-06	-2.570548e-06	-3.374165e-09	-1.819608e+01	-2.221146e+02
2.750000e-06	-2.660684e-06	-3.597413e-09	-1.883413e+01	-2.365630e+02
2.760000e-06	-2.749887e-06	-3.814881e-09	-1.946556e+01	-2.505960e+02
2.770000e-06	-2.838232e-06	-4.025557e-09	-2.009093e+01	-2.641950e+02
2.780000e-06	-2.925719e-06	-4.227870e-09	-2.071023e+01	-2.773508e+02
2.790000e-06	-3.012143e-06	-4.422498e-09	-2.132199e+01	-2.900614e+02
2.800000e-06	-3.097327e-06	-4.610848e-09	-2.192498e+01	-3.023303e+02
2.810000e-06	-3.181332e-06	-4.791908e-09	-2.251963e+01	-3.141642e+02
2.820000e-06	-3.264303e-06	-4.964068e-09	-2.310695e+01	-3.255711e+02
2.830000e-06	-3.346206e-06	-5.129592e-09	-2.368672e+01	-3.365582e+02
2.840000e-06	-3.427004e-06	-5.289374e-09	-2.425866e+01	-3.471315e+02
2.850000e-06	-3.506678e-06	-5.442709e-09	-2.482265e+01	-3.572948e+02
2.860000e-06	-3.585033e-06	-5.590629e-09	-2.537730e+01	-3.670503e+02
2.870000e-06	-3.661815e-06	-5.734767e-09	-2.592081e+01	-3.763987e+02
2.880000e-06	-3.737063e-06	-5.873769e-09	-2.645347e+01	-3.853411e+02
2.890000e-06	-3.810908e-06	-6.005914e-09	-2.697619e+01	-3.938797e+02
2.900000e-06	-3.883417e-06	-6.132638e-09	-2.748946e+01	-4.020194e+02
2.910000e-06	-3.954587e-06	-6.255261e-09	-2.799325e+01	-4.097684e+02
2.920000e-06	-4.024216e-06	-6.369559e-09	-2.848613e+01	-4.171390e+02
2.930000e-06	-4.092268e-06	-6.475975e-09	-2.896785e+01	-4.241479e+02
2.940000e-06	-4.158912e-06	-6.578829e-09	-2.943960e+01	-4.308150e+02
