# Temperatura_=_65.97
# Concentracion g/m^3_=_15000.0
# C_Vs_to_Am_M_A/Vsm_=_65563218390.804596
# pendiente_HvsI_1/m_=_3716.3
# ordenada_HvsI_A/m_=_1297.0
# frecuencia_Hz_=_301593.5217512881

Tiempo_(s)	Campo_(V.s)	Magnetizacion_(V.s)	Campo_(kA/m)	Magnetizacion_(A/m)
0.000000e+00	-5.388921e-06	-9.036315e-09	-3.834052e+01	-5.896378e+02
1.000000e-08	-5.386539e-06	-9.035492e-09	-3.832357e+01	-5.893888e+02
2.000000e-08	-5.382305e-06	-9.028637e-09	-3.829345e+01	-5.890156e+02
3.000000e-08	-5.376431e-06	-9.021254e-09	-3.825166e+01	-5.885179e+02
4.000000e-08	-5.368979e-06	-9.011799e-09	-3.819864e+01	-5.878968e+02
5.000000e-08	-5.359682e-06	-8.996635e-09	-3.813249e+01	-5.871550e+02
6.000000e-08	-5.348312e-06	-8.978258e-09	-3.805160e+01	-5.862975e+02
7.000000e-08	-5.335080e-06	-8.955314e-09	-3.795746e+01	-5.853314e+02
8.000000e-08	-5.319804e-06	-8.947974e-09	-3.784877e+01	-5.842655e+02
9.000000e-08	-5.302289e-06	-8.981820e-09	-3.772416e+01	-5.831098e+02
1.000000e-07	-5.282731e-06	-8.963257e-09	-3.758501e+01	-5.818745e+02
1.100000e-07	-5.261260e-06	-8.908832e-09	-3.743225e+01	-5.805687e+02
1.200000e-07	-5.238001e-06	-8.865544e-09	-3.726677e+01	-5.791996e+02
1.300000e-07	-5.213164e-06	-8.766493e-09	-3.709006e+01	-5.777710e+02
1.400000e-07	-5.186733e-06	-8.798980e-09	-3.690201e+01	-5.762828e+02
1.500000e-07	-5.158715e-06	-8.873897e-09	-3.670268e+01	-5.747307e+02
1.600000e-07	-5.129261e-06	-8.729080e-09	-3.649312e+01	-5.731059e+02
1.700000e-07	-5.098284e-06	-8.753297e-09	-3.627272e+01	-5.713961e+02
1.800000e-07	-5.065256e-06	-8.761177e-09	-3.603774e+01	-5.695861e+02
1.900000e-07	-5.030252e-06	-8.589016e-09	-3.578870e+01	-5.676596e+02
2.000000e-07	-4.993757e-06	-8.660566e-09	-3.552905e+01	-5.656004e+02
2.100000e-07	-4.955575e-06	-8.643091e-09	-3.525739e+01	-5.633942e+02
2.200000e-07	-4.915532e-06	-8.490035e-09	-3.497250e+01	-5.610295e+02
2.300000e-07	-4.873502e-06	-8.517878e-09	-3.467347e+01	-5.584994e+02
2.400000e-07	-4.829565e-06	-8.501421e-09	-3.436087e+01	-5.558015e+02
2.500000e-07	-4.783920e-06	-8.439493e-09	-3.403613e+01	-5.529381e+02
2.600000e-07	-4.736439e-06	-8.411353e-09	-3.369831e+01	-5.499158e+02
2.700000e-07	-4.686854e-06	-8.323588e-09	-3.334553e+01	-5.467443e+02
2.800000e-07	-4.635124e-06	-8.274861e-09	-3.297749e+01	-5.434353e+02
2.900000e-07	-4.581519e-06	-8.218380e-09	-3.259610e+01	-5.400008e+02
3.000000e-07	-4.526362e-06	-8.165373e-09	-3.220368e+01	-5.364516e+02
3.100000e-07	-4.469561e-06	-8.136439e-09	-3.179955e+01	-5.327963e+02
3.200000e-07	-4.410883e-06	-8.080436e-09	-3.138208e+01	-5.290399e+02
3.300000e-07	-4.350591e-06	-8.001648e-09	-3.095312e+01	-5.251839e+02
3.400000e-07	-4.288871e-06	-7.921167e-09	-3.051400e+01	-5.212259e+02
3.500000e-07	-4.225778e-06	-7.896231e-09	-3.006511e+01	-5.171602e+02
3.600000e-07	-4.161175e-06	-7.833723e-09	-2.960548e+01	-5.129788e+02
3.700000e-07	-4.094817e-06	-7.734879e-09	-2.913337e+01	-5.086725e+02
3.800000e-07	-4.026908e-06	-7.679857e-09	-2.865022e+01	-5.042320e+02
3.900000e-07	-3.957661e-06	-7.612018e-09	-2.815754e+01	-4.996493e+02
4.000000e-07	-3.887170e-06	-7.531711e-09	-2.765602e+01	-4.949181e+02
4.100000e-07	-3.815496e-06	-7.457090e-09	-2.714609e+01	-4.900351e+02
4.200000e-07	-3.742417e-06	-7.391770e-09	-2.662615e+01	-4.849995e+02
4.300000e-07	-3.667710e-06	-7.313953e-09	-2.609463e+01	-4.798131e+02
4.400000e-07	-3.591433e-06	-7.219327e-09	-2.555194e+01	-4.744799e+02
4.500000e-07	-3.513655e-06	-7.140865e-09	-2.499858e+01	-4.690048e+02
4.600000e-07	-3.434401e-06	-7.067867e-09	-2.443471e+01	-4.633930e+02
4.700000e-07	-3.353895e-06	-6.979004e-09	-2.386194e+01	-4.576491e+02
4.800000e-07	-3.272235e-06	-6.875066e-09	-2.328095e+01	-4.517763e+02
4.900000e-07	-3.189444e-06	-6.782049e-09	-2.269191e+01	-4.457755e+02
5.000000e-07	-3.105639e-06	-6.696426e-09	-2.209567e+01	-4.396457e+02
5.100000e-07	-3.020899e-06	-6.594857e-09	-2.149277e+01	-4.333836e+02
5.200000e-07	-2.935233e-06	-6.492426e-09	-2.088328e+01	-4.269844e+02
5.300000e-07	-2.848601e-06	-6.392946e-09	-2.026692e+01	-4.204417e+02
5.400000e-07	-2.761041e-06	-6.288653e-09	-1.964396e+01	-4.137489e+02
5.500000e-07	-2.672557e-06	-6.183830e-09	-1.901442e+01	-4.068997e+02
5.600000e-07	-2.582879e-06	-6.078066e-09	-1.837639e+01	-3.998883e+02
5.700000e-07	-2.491976e-06	-5.971838e-09	-1.772965e+01	-3.927104e+02
5.800000e-07	-2.400177e-06	-5.855177e-09	-1.707652e+01	-3.853630e+02
5.900000e-07	-2.307652e-06	-5.735046e-09	-1.641824e+01	-3.778443e+02
6.000000e-07	-2.214383e-06	-5.617872e-09	-1.575465e+01	-3.701535e+02
6.100000e-07	-2.120336e-06	-5.500101e-09	-1.508554e+01	-3.622907e+02
6.200000e-07	-2.025498e-06	-5.379020e-09	-1.441080e+01	-3.542558e+02
6.300000e-07	-1.929941e-06	-5.252879e-09	-1.373094e+01	-3.460483e+02
6.400000e-07	-1.833749e-06	-5.124912e-09	-1.304656e+01	-3.376667e+02
6.500000e-07	-1.736857e-06	-4.992967e-09	-1.235720e+01	-3.291087e+02
6.600000e-07	-1.639195e-06	-4.856200e-09	-1.166237e+01	-3.203705e+02
6.700000e-07	-1.540773e-06	-4.715410e-09	-1.096213e+01	-3.114471e+02
6.800000e-07	-1.441690e-06	-4.576275e-09	-1.025718e+01	-3.023329e+02
6.900000e-07	-1.342132e-06	-4.435434e-09	-9.548860e+00	-2.930215e+02
7.000000e-07	-1.242245e-06	-4.291783e-09	-8.838191e+00	-2.835067e+02
7.100000e-07	-1.142050e-06	-4.143056e-09	-8.125339e+00	-2.737828e+02
7.200000e-07	-1.041501e-06	-3.986418e-09	-7.409959e+00	-2.638447e+02
7.300000e-07	-9.405647e-07	-3.827659e-09	-6.691829e+00	-2.536881e+02
7.400000e-07	-8.392769e-07	-3.667557e-09	-5.971197e+00	-2.433102e+02
7.500000e-07	-7.376887e-07	-3.504649e-09	-5.248429e+00	-2.327086e+02
7.600000e-07	-6.358411e-07	-3.337625e-09	-4.523814e+00	-2.218817e+02
7.700000e-07	-5.338005e-07	-3.167860e-09	-3.797827e+00	-2.108279e+02
7.800000e-07	-4.316436e-07	-2.996182e-09	-3.071012e+00	-1.995456e+02
7.900000e-07	-3.293399e-07	-2.821464e-09	-2.343153e+00	-1.880319e+02
8.000000e-07	-2.269235e-07	-2.640236e-09	-1.614491e+00	-1.762828e+02
8.100000e-07	-1.244087e-07	-2.454735e-09	-8.851300e-01	-1.642925e+02
8.200000e-07	-2.177488e-08	-2.268484e-09	-1.549216e-01	-1.520533e+02
8.300000e-07	8.084899e-08	-2.080660e-09	5.752157e-01	-1.395551e+02
8.400000e-07	1.834593e-07	-1.888472e-09	1.305257e+00	-1.267862e+02
8.500000e-07	2.860600e-07	-1.688935e-09	2.035229e+00	-1.137326e+02
8.600000e-07	3.885227e-07	-1.484923e-09	2.764220e+00	-1.003792e+02
8.700000e-07	4.908276e-07	-1.274968e-09	3.492087e+00	-8.671034e+01
8.800000e-07	5.930232e-07	-1.058944e-09	4.219178e+00	-7.271004e+01
8.900000e-07	6.950759e-07	-8.389240e-10	4.945252e+00	-5.836355e+01
9.000000e-07	7.969130e-07	-6.159464e-10	5.669791e+00	-4.365820e+01
9.100000e-07	8.984822e-07	-3.903863e-10	6.392425e+00	-2.858470e+01
9.200000e-07	9.996757e-07	-1.591509e-10	7.112386e+00	-1.313847e+01
9.300000e-07	1.100473e-06	8.037805e-11	7.829525e+00	2.679027e+00
9.400000e-07	1.200934e-06	3.287174e-10	8.544275e+00	1.885900e+01
9.500000e-07	1.301047e-06	5.814542e-10	9.256549e+00	3.538419e+01
9.600000e-07	1.400801e-06	8.376226e-10	9.966272e+00	5.222796e+01
9.700000e-07	1.500103e-06	1.097655e-09	1.067277e+01	6.935386e+01
9.800000e-07	1.598741e-06	1.360578e-09	1.137455e+01	8.671551e+01
9.900000e-07	1.696521e-06	1.624135e-09	1.207023e+01	1.042572e+02
1.000000e-06	1.793461e-06	1.888502e-09	1.275992e+01	1.219148e+02
1.010000e-06	1.889734e-06	2.156033e-09	1.344488e+01	1.396178e+02
1.020000e-06	1.985319e-06	2.424925e-09	1.412493e+01	1.572910e+02
1.030000e-06	2.080131e-06	2.693561e-09	1.479950e+01	1.748575e+02
1.040000e-06	2.174161e-06	2.960093e-09	1.546849e+01	1.922413e+02
1.050000e-06	2.267505e-06	3.219874e-09	1.613260e+01	2.093702e+02
1.060000e-06	2.360160e-06	3.471295e-09	1.679181e+01	2.261784e+02
1.070000e-06	2.452121e-06	3.717017e-09	1.744609e+01	2.426090e+02
1.080000e-06	2.543361e-06	3.960210e-09	1.809523e+01	2.586150e+02
1.090000e-06	2.633501e-06	4.197698e-09	1.873655e+01	2.741611e+02
1.100000e-06	2.722411e-06	4.427468e-09	1.936912e+01	2.892232e+02
1.110000e-06	2.810288e-06	4.647905e-09	1.999433e+01	3.037879e+02
1.120000e-06	2.897223e-06	4.860020e-09	2.061285e+01	3.178515e+02
1.130000e-06	2.983273e-06	5.065319e-09	2.122507e+01	3.314177e+02
1.140000e-06	3.068430e-06	5.263978e-09	2.183094e+01	3.444956e+02
1.150000e-06	3.152650e-06	5.455453e-09	2.243014e+01	3.570977e+02
1.160000e-06	3.235888e-06	5.640106e-09	2.302235e+01	3.692374e+02
1.170000e-06	3.317989e-06	5.817833e-09	2.360647e+01	3.809273e+02
1.180000e-06	3.398827e-06	5.987507e-09	2.418161e+01	3.921784e+02
1.190000e-06	3.478373e-06	6.151884e-09	2.474756e+01	4.029988e+02
1.200000e-06	3.556684e-06	6.310080e-09	2.530471e+01	4.133944e+02
1.210000e-06	3.633782e-06	6.460890e-09	2.585325e+01	4.233690e+02
1.220000e-06	3.709574e-06	6.605454e-09	2.639248e+01	4.329254e+02
1.230000e-06	3.783853e-06	6.746171e-09	2.692095e+01	4.420667e+02
1.240000e-06	3.856500e-06	6.880502e-09	2.743782e+01	4.507975e+02
1.250000e-06	3.927693e-06	7.007448e-09	2.794433e+01	4.591250e+02
1.260000e-06	3.997516e-06	7.125841e-09	2.844110e+01	4.670596e+02
1.270000e-06	4.065988e-06	7.237428e-09	2.892825e+01	4.746158e+02
1.280000e-06	4.133089e-06	7.344073e-09	2.940566e+01	4.818111e+02
1.290000e-06	4.198530e-06	7.446392e-09	2.987125e+01	4.886663e+02
1.300000e-06	4.262268e-06	7.545078e-09	3.032473e+01	4.952037e+02
1.310000e-06	4.324562e-06	7.639136e-09	3.076793e+01	5.014463e+02
1.320000e-06	4.385470e-06	7.729941e-09	3.120127e+01	5.074162e+02
1.330000e-06	4.444998e-06	7.817725e-09	3.162479e+01	5.131336e+02
1.340000e-06	4.502878e-06	7.902466e-09	3.203659e+01	5.186151e+02
1.350000e-06	4.558956e-06	7.982732e-09	3.243558e+01	5.238739e+02
1.360000e-06	4.613392e-06	8.057165e-09	3.282287e+01	5.289190e+02
1.370000e-06	4.666163e-06	8.128285e-09	3.319832e+01	5.337553e+02
1.380000e-06	4.716987e-06	8.197782e-09	3.355992e+01	5.383846e+02
1.390000e-06	4.765734e-06	8.266013e-09	3.390674e+01	5.428063e+02
1.400000e-06	4.812748e-06	8.330460e-09	3.424122e+01	5.470181e+02
1.410000e-06	4.858225e-06	8.389381e-09	3.456478e+01	5.510175e+02
1.420000e-06	4.902129e-06	8.444706e-09	3.487714e+01	5.548024e+02
1.430000e-06	4.944206e-06	8.497888e-09	3.517651e+01	5.583720e+02
1.440000e-06	4.984367e-06	8.550199e-09	3.546224e+01	5.617270e+02
1.450000e-06	5.022852e-06	8.599608e-09	3.573605e+01	5.648699e+02
1.460000e-06	5.059707e-06	8.644329e-09	3.599826e+01	5.678049e+02
1.470000e-06	5.094906e-06	8.684686e-09	3.624869e+01	5.705373e+02
1.480000e-06	5.128191e-06	8.720638e-09	3.648550e+01	5.730734e+02
1.490000e-06	5.159531e-06	8.751406e-09	3.670848e+01	5.754196e+02
1.500000e-06	5.189204e-06	8.777828e-09	3.691959e+01	5.775821e+02
1.510000e-06	5.217268e-06	8.802339e-09	3.711926e+01	5.795670e+02
1.520000e-06	5.243453e-06	8.825900e-09	3.730556e+01	5.813796e+02
1.530000e-06	5.267493e-06	8.850211e-09	3.747660e+01	5.830246e+02
1.540000e-06	5.289589e-06	8.873299e-09	3.763381e+01	5.845065e+02
1.550000e-06	5.309976e-06	8.894157e-09	3.777885e+01	5.858296e+02
1.560000e-06	5.328627e-06	8.913145e-09	3.791154e+01	5.869981e+02
1.570000e-06	5.345303e-06	8.928399e-09	3.803019e+01	5.880166e+02
1.580000e-06	5.359929e-06	8.940477e-09	3.813425e+01	5.888898e+02
1.590000e-06	5.372568e-06	8.950148e-09	3.822417e+01	5.896228e+02
1.600000e-06	5.383051e-06	8.958827e-09	3.829876e+01	5.902203e+02
1.610000e-06	5.391361e-06	8.965972e-09	3.835788e+01	5.906868e+02
1.620000e-06	5.397702e-06	8.969278e-09	3.840300e+01	5.910263e+02
1.630000e-06	5.402247e-06	8.971664e-09	3.843533e+01	5.912414e+02
1.640000e-06	5.404980e-06	8.974815e-09	3.845477e+01	5.913338e+02
1.650000e-06	5.405715e-06	8.978624e-09	3.846000e+01	5.913041e+02
1.660000e-06	5.404573e-06	8.978223e-09	3.845188e+01	5.911517e+02
1.670000e-06	5.401760e-06	8.972757e-09	3.843186e+01	5.908757e+02
1.680000e-06	5.397278e-06	8.967635e-09	3.839997e+01	5.904754e+02
1.690000e-06	5.390888e-06	8.959111e-09	3.835452e+01	5.899508e+02
1.700000e-06	5.382624e-06	8.948756e-09	3.829572e+01	5.893031e+02
1.710000e-06	5.372832e-06	8.940566e-09	3.822605e+01	5.885356e+02
1.720000e-06	5.361452e-06	8.937445e-09	3.814508e+01	5.876538e+02
1.730000e-06	5.348183e-06	8.933377e-09	3.805068e+01	5.866651e+02
1.740000e-06	5.332805e-06	8.859089e-09	3.794127e+01	5.855787e+02
1.750000e-06	5.315074e-06	8.826324e-09	3.781512e+01	5.844047e+02
1.760000e-06	5.294649e-06	8.838800e-09	3.766980e+01	5.831532e+02
1.770000e-06	5.271765e-06	8.840089e-09	3.750699e+01	5.818330e+02
1.780000e-06	5.247453e-06	8.914543e-09	3.733402e+01	5.804505e+02
1.790000e-06	5.222467e-06	8.804143e-09	3.715625e+01	5.790089e+02
1.800000e-06	5.196212e-06	8.697987e-09	3.696945e+01	5.775072e+02
1.810000e-06	5.167756e-06	8.809960e-09	3.676700e+01	5.759400e+02
1.820000e-06	5.137491e-06	8.700736e-09	3.655167e+01	5.742977e+02
1.830000e-06	5.105628e-06	8.679667e-09	3.632498e+01	5.725674e+02
1.840000e-06	5.071747e-06	8.792018e-09	3.608393e+01	5.707334e+02
1.850000e-06	5.036179e-06	8.623391e-09	3.583087e+01	5.687795e+02
1.860000e-06	4.998852e-06	8.636027e-09	3.556530e+01	5.666895e+02
1.870000e-06	4.959526e-06	8.691754e-09	3.528550e+01	5.644497e+02
1.880000e-06	4.918581e-06	8.508878e-09	3.499420e+01	5.620496e+02
1.890000e-06	4.875857e-06	8.525438e-09	3.469023e+01	5.594832e+02
1.900000e-06	4.831439e-06	8.478711e-09	3.437420e+01	5.567491e+02
1.910000e-06	4.785321e-06	8.407850e-09	3.404609e+01	5.538505e+02
1.920000e-06	4.737148e-06	8.438486e-09	3.370336e+01	5.507950e+02
1.930000e-06	4.687321e-06	8.298232e-09	3.334885e+01	5.475926e+02
1.940000e-06	4.635853e-06	8.328524e-09	3.298267e+01	5.442554e+02
1.950000e-06	4.582296e-06	8.290492e-09	3.260163e+01	5.407950e+02
1.960000e-06	4.526708e-06	8.136299e-09	3.220614e+01	5.372221e+02
1.970000e-06	4.469410e-06	8.128428e-09	3.179848e+01	5.335444e+02
1.980000e-06	4.410655e-06	8.068868e-09	3.138045e+01	5.297663e+02
1.990000e-06	4.350412e-06	8.047910e-09	3.095185e+01	5.258884e+02
2.000000e-06	4.288474e-06	7.946840e-09	3.051118e+01	5.219074e+02
2.010000e-06	4.224911e-06	7.877140e-09	3.005895e+01	5.178173e+02
2.020000e-06	4.159854e-06	7.879965e-09	2.959609e+01	5.136095e+02
2.030000e-06	4.093344e-06	7.729135e-09	2.912289e+01	5.092749e+02
2.040000e-06	4.025442e-06	7.688413e-09	2.863979e+01	5.048042e+02
2.050000e-06	3.956083e-06	7.651787e-09	2.814632e+01	5.001896e+02
2.060000e-06	3.885105e-06	7.564215e-09	2.764133e+01	4.954257e+02
2.070000e-06	3.812680e-06	7.477234e-09	2.712605e+01	4.905096e+02
2.080000e-06	3.739069e-06	7.371171e-09	2.660233e+01	4.854411e+02
2.090000e-06	3.664124e-06	7.345189e-09	2.606911e+01	4.802225e+02
2.100000e-06	3.587690e-06	7.249305e-09	2.552531e+01	4.748580e+02
2.110000e-06	3.509697e-06	7.146031e-09	2.497042e+01	4.693527e+02
2.120000e-06	3.430265e-06	7.068984e-09	2.440528e+01	4.637119e+02
2.130000e-06	3.349710e-06	6.986865e-09	2.383216e+01	4.579398e+02
2.140000e-06	3.268067e-06	6.901069e-09	2.325130e+01	4.520391e+02
2.150000e-06	3.185272e-06	6.795371e-09	2.266223e+01	4.460105e+02
2.160000e-06	3.101422e-06	6.723239e-09	2.206567e+01	4.398523e+02
2.170000e-06	3.016547e-06	6.620888e-09	2.146181e+01	4.335609e+02
2.180000e-06	2.930358e-06	6.514244e-09	2.084860e+01	4.271311e+02
2.190000e-06	2.842882e-06	6.415651e-09	2.022623e+01	4.205564e+02
2.200000e-06	2.754429e-06	6.322515e-09	1.959692e+01	4.138302e+02
2.210000e-06	2.665091e-06	6.226583e-09	1.896130e+01	4.069463e+02
2.220000e-06	2.574833e-06	6.106122e-09	1.831915e+01	3.998992e+02
2.230000e-06	2.483640e-06	5.997163e-09	1.767033e+01	3.926848e+02
2.240000e-06	2.391702e-06	5.886502e-09	1.701622e+01	3.853004e+02
2.250000e-06	2.299063e-06	5.776700e-09	1.635713e+01	3.777444e+02
2.260000e-06	2.205606e-06	5.658251e-09	1.569221e+01	3.700164e+02
2.270000e-06	2.111142e-06	5.534858e-09	1.502012e+01	3.621163e+02
2.280000e-06	2.015636e-06	5.411775e-09	1.434063e+01	3.540441e+02
2.290000e-06	1.919386e-06	5.286293e-09	1.365584e+01	3.457990e+02
2.300000e-06	1.822637e-06	5.161374e-09	1.296751e+01	3.373796e+02
2.310000e-06	1.725422e-06	5.035057e-09	1.227585e+01	3.287829e+02
2.320000e-06	1.627623e-06	4.904243e-09	1.158004e+01	3.200050e+02
2.330000e-06	1.529227e-06	4.761657e-09	1.087998e+01	3.110409e+02
2.340000e-06	1.430264e-06	4.619217e-09	1.017589e+01	3.018845e+02
2.350000e-06	1.330807e-06	4.475609e-09	9.468286e+00	2.925297e+02
2.360000e-06	1.231033e-06	4.333940e-09	8.758424e+00	2.829702e+02
2.370000e-06	1.131025e-06	4.190774e-09	8.046897e+00	2.732004e+02
2.380000e-06	1.030738e-06	4.038694e-09	7.333381e+00	2.632153e+02
2.390000e-06	9.301456e-07	3.884337e-09	6.617701e+00	2.530112e+02
2.400000e-06	8.292210e-07	3.729392e-09	5.899653e+00	2.425851e+02
2.410000e-06	7.279739e-07	3.570502e-09	5.179311e+00	2.319349e+02
2.420000e-06	6.264081e-07	3.403776e-09	4.456701e+00	2.210592e+02
2.430000e-06	5.245297e-07	3.231859e-09	3.731868e+00	2.099562e+02
2.440000e-06	4.224166e-07	3.059725e-09	3.005365e+00	1.986242e+02
2.450000e-06	3.200940e-07	2.886934e-09	2.277371e+00	1.870601e+02
2.460000e-06	2.175943e-07	2.708036e-09	1.548117e+00	1.752594e+02
2.470000e-06	1.149512e-07	2.526465e-09	8.178428e-01	1.632162e+02
2.480000e-06	1.218330e-08	2.338367e-09	8.668041e-02	1.509219e+02
2.490000e-06	-9.063763e-08	2.143503e-09	-6.448590e-01	1.383664e+02
2.500000e-06	-1.934127e-07	1.947164e-09	-1.376072e+00	1.255373e+02
2.510000e-06	-2.960928e-07	1.749609e-09	-2.106609e+00	1.124204e+02
2.520000e-06	-3.986182e-07	1.548957e-09	-2.836046e+00	9.900038e+01
2.530000e-06	-5.009108e-07	1.339521e-09	-3.563827e+00	8.526138e+01
2.540000e-06	-6.030213e-07	1.124719e-09	-4.290312e+00	7.118770e+01
2.550000e-06	-7.049009e-07	9.047533e-10	-5.015153e+00	5.676488e+01
2.560000e-06	-8.063925e-07	6.756130e-10	-5.737235e+00	4.198089e+01
2.570000e-06	-9.074791e-07	4.404276e-10	-6.456435e+00	2.682733e+01
2.580000e-06	-1.008178e-06	2.029618e-10	-7.172875e+00	1.130080e+01
2.590000e-06	-1.108561e-06	-3.775519e-11	-7.887071e+00	-4.595778e+00
2.600000e-06	-1.208643e-06	-2.846353e-10	-8.599125e+00	-2.085188e+01
2.610000e-06	-1.308259e-06	-5.360762e-10	-9.307863e+00	-3.744830e+01
2.620000e-06	-1.407347e-06	-7.932182e-10	-1.001284e+01	-5.435633e+01
2.630000e-06	-1.505983e-06	-1.056900e-09	-1.071461e+01	-7.153737e+01
2.640000e-06	-1.604151e-06	-1.325321e-09	-1.141304e+01	-8.894299e+01
2.650000e-06	-1.701732e-06	-1.597556e-09	-1.210730e+01	-1.065155e+02
2.660000e-06	-1.798680e-06	-1.871646e-09	-1.279705e+01	-1.241894e+02
2.670000e-06	-1.895111e-06	-2.145483e-09	-1.348314e+01	-1.418928e+02
2.680000e-06	-1.991036e-06	-2.415377e-09	-1.416561e+01	-1.595500e+02
2.690000e-06	-2.086282e-06	-2.683308e-09	-1.484325e+01	-1.770841e+02
2.700000e-06	-2.180581e-06	-2.949490e-09	-1.551416e+01	-1.944196e+02
2.710000e-06	-2.273826e-06	-3.210094e-09	-1.617758e+01	-2.114854e+02
2.720000e-06	-2.366223e-06	-3.464080e-09	-1.683495e+01	-2.282176e+02
2.730000e-06	-2.457814e-06	-3.712585e-09	-1.748659e+01	-2.445611e+02
2.740000e-06	-2.548521e-06	-3.955374e-09	-1.813194e+01	-2.604716e+02
2.750000e-06	-2.638315e-06	-4.191771e-09	-1.877080e+01	-2.759160e+02
2.760000e-06	-2.727157e-06	-4.423626e-09	-1.940288e+01	-2.908727e+02
2.770000e-06	-2.815187e-06	-4.650129e-09	-2.002919e+01	-3.053304e+02
2.780000e-06	-2.902401e-06	-4.867464e-09	-2.064969e+01	-3.192873e+02
2.790000e-06	-2.988487e-06	-5.073705e-09	-2.126217e+01	-3.327483e+02
2.800000e-06	-3.073335e-06	-5.274102e-09	-2.186584e+01	-3.457236e+02
2.810000e-06	-3.157088e-06	-5.467053e-09	-2.246172e+01	-3.582259e+02
2.820000e-06	-3.239847e-06	-5.648644e-09	-2.305051e+01	-3.702685e+02
2.830000e-06	-3.321555e-06	-5.824224e-09	-2.363185e+01	-3.818640e+02
2.840000e-06	-3.402234e-06	-5.995185e-09	-2.420585e+01	-3.930226e+02
2.850000e-06	-3.481703e-06	-6.159089e-09	-2.477125e+01	-4.037519e+02
2.860000e-06	-3.559605e-06	-6.314482e-09	-2.532550e+01	-4.140575e+02
2.870000e-06	-3.636013e-06	-6.463770e-09	-2.586912e+01	-4.239426e+02
2.880000e-06	-3.711062e-06	-6.608773e-09	-2.640307e+01	-4.334101e+02
2.890000e-06	-3.784720e-06	-6.747558e-09	-2.692712e+01	-4.424634e+02
2.900000e-06	-3.857096e-06	-6.881438e-09	-2.744205e+01	-4.511074e+02
2.910000e-06	-3.928063e-06	-7.012459e-09	-2.794696e+01	-4.593501e+02
2.920000e-06	-3.997379e-06	-7.136522e-09	-2.844013e+01	-4.672028e+02
2.930000e-06	-4.065223e-06	-7.251258e-09	-2.892281e+01	-4.746804e+02
2.940000e-06	-4.131711e-06	-7.360715e-09	-2.939586e+01	-4.818014e+02
