# Temperatura_=_79.4
# Concentracion g/m^3_=_15000.0
# C_Vs_to_Am_M_A/Vsm_=_65563218390.804596
# pendiente_HvsI_1/m_=_3716.3
# ordenada_HvsI_A/m_=_1297.0
# frecuencia_Hz_=_301594.1776500025

Tiempo_(s)	Campo_(V.s)	Magnetizacion_(V.s)	Campo_(kA/m)	Magnetizacion_(A/m)
0.000000e+00	-5.401702e-06	-9.612365e-09	-3.833559e+01	-6.277661e+02
1.000000e-08	-5.399039e-06	-9.609047e-09	-3.831669e+01	-6.275219e+02
2.000000e-08	-5.394603e-06	-9.602051e-09	-3.828520e+01	-6.271267e+02
3.000000e-08	-5.388518e-06	-9.595686e-09	-3.824202e+01	-6.265753e+02
4.000000e-08	-5.380852e-06	-9.586865e-09	-3.818761e+01	-6.258664e+02
5.000000e-08	-5.371402e-06	-9.572986e-09	-3.812055e+01	-6.250033e+02
6.000000e-08	-5.359899e-06	-9.554158e-09	-3.803891e+01	-6.239944e+02
7.000000e-08	-5.346452e-06	-9.531389e-09	-3.794348e+01	-6.228532e+02
8.000000e-08	-5.330943e-06	-9.538058e-09	-3.783341e+01	-6.215967e+02
9.000000e-08	-5.313187e-06	-9.548089e-09	-3.770740e+01	-6.202441e+02
1.000000e-07	-5.293349e-06	-9.507180e-09	-3.756661e+01	-6.188146e+02
1.100000e-07	-5.271585e-06	-9.464528e-09	-3.741215e+01	-6.173253e+02
1.200000e-07	-5.248104e-06	-9.402215e-09	-3.724551e+01	-6.157888e+02
1.300000e-07	-5.223035e-06	-9.330784e-09	-3.706759e+01	-6.142118e+02
1.400000e-07	-5.196318e-06	-9.395535e-09	-3.687799e+01	-6.125938e+02
1.500000e-07	-5.168051e-06	-9.366488e-09	-3.667738e+01	-6.109268e+02
1.600000e-07	-5.138335e-06	-9.280393e-09	-3.646648e+01	-6.091958e+02
1.700000e-07	-5.106986e-06	-9.340934e-09	-3.624400e+01	-6.073803e+02
1.800000e-07	-5.073541e-06	-9.245438e-09	-3.600665e+01	-6.054559e+02
1.900000e-07	-5.038197e-06	-9.140214e-09	-3.575581e+01	-6.033970e+02
2.000000e-07	-5.001397e-06	-9.182338e-09	-3.549464e+01	-6.011794e+02
2.100000e-07	-4.962903e-06	-9.116321e-09	-3.522145e+01	-5.987823e+02
2.200000e-07	-4.922571e-06	-9.071551e-09	-3.493522e+01	-5.961903e+02
2.300000e-07	-4.880241e-06	-9.081057e-09	-3.463481e+01	-5.933946e+02
2.400000e-07	-4.835961e-06	-8.984292e-09	-3.432055e+01	-5.903939e+02
2.500000e-07	-4.789937e-06	-8.912872e-09	-3.399392e+01	-5.871932e+02
2.600000e-07	-4.742000e-06	-8.873610e-09	-3.365372e+01	-5.838035e+02
2.700000e-07	-4.691965e-06	-8.839905e-09	-3.329862e+01	-5.802395e+02
2.800000e-07	-4.639931e-06	-8.800030e-09	-3.292934e+01	-5.765181e+02
2.900000e-07	-4.586094e-06	-8.702139e-09	-3.254726e+01	-5.726560e+02
3.000000e-07	-4.530599e-06	-8.616074e-09	-3.215341e+01	-5.686679e+02
3.100000e-07	-4.473412e-06	-8.591192e-09	-3.174756e+01	-5.645651e+02
3.200000e-07	-4.414415e-06	-8.563538e-09	-3.132886e+01	-5.603545e+02
3.300000e-07	-4.353816e-06	-8.475196e-09	-3.089879e+01	-5.560383e+02
3.400000e-07	-4.291807e-06	-8.394732e-09	-3.045872e+01	-5.516144e+02
3.500000e-07	-4.228387e-06	-8.331220e-09	-3.000863e+01	-5.470773e+02
3.600000e-07	-4.163401e-06	-8.242116e-09	-2.954743e+01	-5.424191e+02
3.700000e-07	-4.096719e-06	-8.183542e-09	-2.907419e+01	-5.376311e+02
3.800000e-07	-4.028523e-06	-8.131431e-09	-2.859021e+01	-5.327047e+02
3.900000e-07	-3.958952e-06	-8.030703e-09	-2.809647e+01	-5.276332e+02
4.000000e-07	-3.888079e-06	-7.924200e-09	-2.759349e+01	-5.224118e+02
4.100000e-07	-3.815992e-06	-7.847929e-09	-2.708189e+01	-5.170381e+02
4.200000e-07	-3.742509e-06	-7.794092e-09	-2.656039e+01	-5.115122e+02
4.300000e-07	-3.667428e-06	-7.716467e-09	-2.602754e+01	-5.058360e+02
4.400000e-07	-3.590838e-06	-7.615732e-09	-2.548398e+01	-5.000125e+02
4.500000e-07	-3.512794e-06	-7.512008e-09	-2.493011e+01	-4.940447e+02
4.600000e-07	-3.433283e-06	-7.413220e-09	-2.436582e+01	-4.879351e+02
4.700000e-07	-3.352485e-06	-7.327896e-09	-2.379241e+01	-4.816851e+02
4.800000e-07	-3.270538e-06	-7.245389e-09	-2.321083e+01	-4.752942e+02
4.900000e-07	-3.187477e-06	-7.153960e-09	-2.262135e+01	-4.687603e+02
5.000000e-07	-3.103374e-06	-7.036016e-09	-2.202448e+01	-4.620796e+02
5.100000e-07	-3.018341e-06	-6.910049e-09	-2.142100e+01	-4.552476e+02
5.200000e-07	-2.932396e-06	-6.802430e-09	-2.081105e+01	-4.482591e+02
5.300000e-07	-2.845497e-06	-6.708712e-09	-2.019434e+01	-4.411093e+02
5.400000e-07	-2.757651e-06	-6.607359e-09	-1.957090e+01	-4.337939e+02
5.500000e-07	-2.668819e-06	-6.486135e-09	-1.894046e+01	-4.263100e+02
5.600000e-07	-2.578840e-06	-6.358081e-09	-1.830189e+01	-4.186559e+02
5.700000e-07	-2.487691e-06	-6.241414e-09	-1.765501e+01	-4.108310e+02
5.800000e-07	-2.395642e-06	-6.134825e-09	-1.700174e+01	-4.028358e+02
5.900000e-07	-2.302837e-06	-6.014124e-09	-1.634311e+01	-3.946708e+02
6.000000e-07	-2.209201e-06	-5.873960e-09	-1.567858e+01	-3.863365e+02
6.100000e-07	-2.114814e-06	-5.733043e-09	-1.500872e+01	-3.778325e+02
6.200000e-07	-2.019716e-06	-5.599658e-09	-1.433381e+01	-3.691572e+02
6.300000e-07	-1.923869e-06	-5.469275e-09	-1.365359e+01	-3.603075e+02
6.400000e-07	-1.827326e-06	-5.340352e-09	-1.296843e+01	-3.512786e+02
6.500000e-07	-1.729994e-06	-5.202701e-09	-1.227767e+01	-3.420646e+02
6.600000e-07	-1.631874e-06	-5.049717e-09	-1.158132e+01	-3.326585e+02
6.700000e-07	-1.533066e-06	-4.895811e-09	-1.088008e+01	-3.230527e+02
6.800000e-07	-1.433671e-06	-4.750335e-09	-1.017468e+01	-3.132399e+02
6.900000e-07	-1.333872e-06	-4.606196e-09	-9.466417e+00	-3.032132e+02
7.000000e-07	-1.233742e-06	-4.450727e-09	-8.755800e+00	-2.929669e+02
7.100000e-07	-1.133274e-06	-4.283168e-09	-8.042787e+00	-2.824963e+02
7.200000e-07	-1.032502e-06	-4.111487e-09	-7.327612e+00	-2.717981e+02
7.300000e-07	-9.313767e-07	-3.941386e-09	-6.609930e+00	-2.608700e+02
7.400000e-07	-8.298779e-07	-3.774516e-09	-5.889599e+00	-2.497107e+02
7.500000e-07	-7.280677e-07	-3.604137e-09	-5.167057e+00	-2.383192e+02
7.600000e-07	-6.259783e-07	-3.424919e-09	-4.442534e+00	-2.266943e+02
7.700000e-07	-5.236977e-07	-3.238080e-09	-3.716654e+00	-2.148344e+02
7.800000e-07	-4.212918e-07	-3.050829e-09	-2.989885e+00	-2.027368e+02
7.900000e-07	-3.187402e-07	-2.866887e-09	-2.262082e+00	-1.903976e+02
8.000000e-07	-2.160894e-07	-2.678654e-09	-1.533575e+00	-1.778114e+02
8.100000e-07	-1.133984e-07	-2.481473e-09	-8.047821e-01	-1.649709e+02
8.200000e-07	-1.059756e-08	-2.278916e-09	-7.521032e-02	-1.518674e+02
8.300000e-07	9.229786e-08	-2.075210e-09	6.550329e-01	-1.384902e+02
8.400000e-07	1.951562e-07	-1.870877e-09	1.385013e+00	-1.248271e+02
8.500000e-07	2.979121e-07	-1.662784e-09	2.114266e+00	-1.108642e+02
8.600000e-07	4.005885e-07	-1.448271e-09	2.842955e+00	-9.658660e+01
8.700000e-07	5.032133e-07	-1.223924e-09	3.571277e+00	-8.197846e+01
8.800000e-07	6.056899e-07	-9.912529e-10	4.298548e+00	-6.702367e+01
8.900000e-07	7.079364e-07	-7.538312e-10	5.024186e+00	-5.170673e+01
9.000000e-07	8.099742e-07	-5.105680e-10	5.748343e+00	-3.601384e+01
9.100000e-07	9.117366e-07	-2.645727e-10	6.470545e+00	-1.993430e+01
9.200000e-07	1.013090e-06	-1.374544e-11	7.189845e+00	-3.462173e+00
9.300000e-07	1.114045e-06	2.429331e-10	7.906315e+00	1.340194e+01
9.400000e-07	1.214655e-06	5.029909e-10	8.620338e+00	3.064907e+01
9.500000e-07	1.314911e-06	7.651974e-10	9.331852e+00	4.826023e+01
9.600000e-07	1.414790e-06	1.030508e-09	1.004069e+01	6.620508e+01
9.700000e-07	1.514276e-06	1.305403e-09	1.074673e+01	8.444115e+01
9.800000e-07	1.613127e-06	1.588171e-09	1.144828e+01	1.029138e+02
9.900000e-07	1.711095e-06	1.872334e-09	1.214355e+01	1.215570e+02
1.000000e-06	1.808253e-06	2.156682e-09	1.283307e+01	1.402948e+02
1.010000e-06	1.904634e-06	2.440760e-09	1.351708e+01	1.590441e+02
1.020000e-06	2.000310e-06	2.725104e-09	1.419609e+01	1.777174e+02
1.030000e-06	2.095326e-06	3.007711e-09	1.487042e+01	1.962267e+02
1.040000e-06	2.189633e-06	3.285351e-09	1.553971e+01	2.144872e+02
1.050000e-06	2.283171e-06	3.554339e-09	1.620354e+01	2.324209e+02
1.060000e-06	2.375884e-06	3.813849e-09	1.686152e+01	2.499595e+02
1.070000e-06	2.467868e-06	4.067861e-09	1.751432e+01	2.670474e+02
1.080000e-06	2.559167e-06	4.319872e-09	1.816227e+01	2.836428e+02
1.090000e-06	2.649489e-06	4.566463e-09	1.880328e+01	2.997178e+02
1.100000e-06	2.738559e-06	4.805384e-09	1.943540e+01	3.152583e+02
1.110000e-06	2.826568e-06	5.034474e-09	2.006000e+01	3.302620e+02
1.120000e-06	2.913676e-06	5.254349e-09	2.067820e+01	3.447360e+02
1.130000e-06	2.999875e-06	5.465899e-09	2.128995e+01	3.586938e+02
1.140000e-06	3.085073e-06	5.669576e-09	2.189460e+01	3.721527e+02
1.150000e-06	3.169305e-06	5.866853e-09	2.249238e+01	3.851308e+02
1.160000e-06	3.252651e-06	6.056480e-09	2.308389e+01	3.976447e+02
1.170000e-06	3.334834e-06	6.239517e-09	2.366714e+01	4.097078e+02
1.180000e-06	3.415680e-06	6.415499e-09	2.424089e+01	4.213298e+02
1.190000e-06	3.495281e-06	6.587019e-09	2.480582e+01	4.325165e+02
1.200000e-06	3.573647e-06	6.752772e-09	2.536198e+01	4.432708e+02
1.210000e-06	3.650729e-06	6.912383e-09	2.590902e+01	4.535936e+02
1.220000e-06	3.726510e-06	7.064940e-09	2.644684e+01	4.634862e+02
1.230000e-06	3.800724e-06	7.208974e-09	2.697353e+01	4.729509e+02
1.240000e-06	3.873304e-06	7.344601e-09	2.748863e+01	4.819931e+02
1.250000e-06	3.944534e-06	7.473407e-09	2.799414e+01	4.906221e+02
1.260000e-06	4.014397e-06	7.597176e-09	2.848996e+01	4.988514e+02
1.270000e-06	4.082881e-06	7.716398e-09	2.897598e+01	5.066983e+02
1.280000e-06	4.150009e-06	7.829629e-09	2.945239e+01	5.141835e+02
1.290000e-06	4.215497e-06	7.937553e-09	2.991715e+01	5.213297e+02
1.300000e-06	4.279306e-06	8.042714e-09	3.037000e+01	5.281599e+02
1.310000e-06	4.341638e-06	8.143747e-09	3.081237e+01	5.346964e+02
1.320000e-06	4.402563e-06	8.240114e-09	3.124475e+01	5.409590e+02
1.330000e-06	4.462107e-06	8.331002e-09	3.166733e+01	5.469644e+02
1.340000e-06	4.520034e-06	8.416585e-09	3.207844e+01	5.527255e+02
1.350000e-06	4.576139e-06	8.497907e-09	3.247661e+01	5.582514e+02
1.360000e-06	4.630571e-06	8.574967e-09	3.286291e+01	5.635478e+02
1.370000e-06	4.683337e-06	8.650617e-09	3.323739e+01	5.686176e+02
1.380000e-06	4.734148e-06	8.725964e-09	3.359799e+01	5.734623e+02
1.390000e-06	4.782903e-06	8.799424e-09	3.394400e+01	5.780826e+02
1.400000e-06	4.829844e-06	8.868650e-09	3.427714e+01	5.824793e+02
1.410000e-06	4.875167e-06	8.932696e-09	3.459880e+01	5.866541e+02
1.420000e-06	4.918934e-06	8.993047e-09	3.490941e+01	5.906098e+02
1.430000e-06	4.960976e-06	9.049362e-09	3.520778e+01	5.943500e+02
1.440000e-06	5.001115e-06	9.102029e-09	3.549264e+01	5.978793e+02
1.450000e-06	5.039509e-06	9.151441e-09	3.576512e+01	6.012024e+02
1.460000e-06	5.076297e-06	9.196559e-09	3.602621e+01	6.043237e+02
1.470000e-06	5.111384e-06	9.237846e-09	3.627522e+01	6.072468e+02
1.480000e-06	5.144518e-06	9.277116e-09	3.651037e+01	6.099741e+02
1.490000e-06	5.175748e-06	9.314092e-09	3.673200e+01	6.125071e+02
1.500000e-06	5.205303e-06	9.346534e-09	3.694175e+01	6.148462e+02
1.510000e-06	5.233197e-06	9.376348e-09	3.713972e+01	6.169918e+02
1.520000e-06	5.259160e-06	9.404763e-09	3.732397e+01	6.189446e+02
1.530000e-06	5.283057e-06	9.431081e-09	3.749357e+01	6.207064e+02
1.540000e-06	5.305098e-06	9.453952e-09	3.765000e+01	6.222807e+02
1.550000e-06	5.325414e-06	9.472279e-09	3.779417e+01	6.236734e+02
1.560000e-06	5.343896e-06	9.488700e-09	3.792534e+01	6.248923e+02
1.570000e-06	5.360354e-06	9.505005e-09	3.804214e+01	6.259469e+02
1.580000e-06	5.374768e-06	9.520318e-09	3.814443e+01	6.268480e+02
1.590000e-06	5.387194e-06	9.532714e-09	3.823263e+01	6.276064e+02
1.600000e-06	5.397442e-06	9.542740e-09	3.830535e+01	6.282317e+02
1.610000e-06	5.405496e-06	9.551688e-09	3.836251e+01	6.287314e+02
1.620000e-06	5.411692e-06	9.558465e-09	3.840649e+01	6.291098e+02
1.630000e-06	5.416159e-06	9.562635e-09	3.843819e+01	6.293677e+02
1.640000e-06	5.418721e-06	9.563591e-09	3.845637e+01	6.295024e+02
1.650000e-06	5.419233e-06	9.562148e-09	3.846000e+01	6.295080e+02
1.660000e-06	5.417857e-06	9.556698e-09	3.845024e+01	6.293768e+02
1.670000e-06	5.414802e-06	9.551186e-09	3.842856e+01	6.291004e+02
1.680000e-06	5.410075e-06	9.546356e-09	3.839501e+01	6.286718e+02
1.690000e-06	5.403538e-06	9.539500e-09	3.834862e+01	6.280863e+02
1.700000e-06	5.395188e-06	9.531187e-09	3.828936e+01	6.273435e+02
1.710000e-06	5.385161e-06	9.522725e-09	3.821820e+01	6.264479e+02
1.720000e-06	5.373415e-06	9.520954e-09	3.813483e+01	6.254091e+02
1.730000e-06	5.359754e-06	9.488647e-09	3.803788e+01	6.242413e+02
1.740000e-06	5.344022e-06	9.427303e-09	3.792624e+01	6.229623e+02
1.750000e-06	5.325979e-06	9.412244e-09	3.779818e+01	6.215913e+02
1.760000e-06	5.305281e-06	9.401336e-09	3.765129e+01	6.201473e+02
1.770000e-06	5.282180e-06	9.424888e-09	3.748734e+01	6.186466e+02
1.780000e-06	5.257734e-06	9.433719e-09	3.731385e+01	6.171008e+02
1.790000e-06	5.232597e-06	9.303556e-09	3.713545e+01	6.155150e+02
1.800000e-06	5.206081e-06	9.315224e-09	3.694728e+01	6.138871e+02
1.810000e-06	5.177352e-06	9.340879e-09	3.674339e+01	6.122075e+02
1.820000e-06	5.146758e-06	9.234606e-09	3.652626e+01	6.104599e+02
1.830000e-06	5.114504e-06	9.304477e-09	3.629736e+01	6.086228e+02
1.840000e-06	5.080318e-06	9.312131e-09	3.605474e+01	6.066714e+02
1.850000e-06	5.044503e-06	9.207829e-09	3.580057e+01	6.045802e+02
1.860000e-06	5.006940e-06	9.243823e-09	3.553398e+01	6.023254e+02
1.870000e-06	4.967433e-06	9.150015e-09	3.525360e+01	5.998873e+02
1.880000e-06	4.926265e-06	9.051340e-09	3.496143e+01	5.972517e+02
1.890000e-06	4.883312e-06	9.102329e-09	3.465660e+01	5.944117e+02
1.900000e-06	4.838674e-06	9.049583e-09	3.433981e+01	5.913671e+02
1.910000e-06	4.792238e-06	9.013691e-09	3.401025e+01	5.881245e+02
1.920000e-06	4.743733e-06	8.928388e-09	3.366601e+01	5.846958e+02
1.930000e-06	4.693558e-06	8.827459e-09	3.330992e+01	5.810963e+02
1.940000e-06	4.641635e-06	8.854624e-09	3.294143e+01	5.773430e+02
1.950000e-06	4.587643e-06	8.794731e-09	3.255825e+01	5.734525e+02
1.960000e-06	4.531738e-06	8.698604e-09	3.216150e+01	5.694386e+02
1.970000e-06	4.474117e-06	8.621558e-09	3.175257e+01	5.653120e+02
1.980000e-06	4.415088e-06	8.551350e-09	3.133364e+01	5.610784e+02
1.990000e-06	4.354580e-06	8.502586e-09	3.090422e+01	5.567391e+02
2.000000e-06	4.292312e-06	8.430951e-09	3.046231e+01	5.522912e+02
2.010000e-06	4.228419e-06	8.401485e-09	3.000886e+01	5.477285e+02
2.020000e-06	4.163022e-06	8.310653e-09	2.954474e+01	5.430429e+02
2.030000e-06	4.096191e-06	8.189996e-09	2.907044e+01	5.382256e+02
2.040000e-06	4.027933e-06	8.139348e-09	2.858602e+01	5.332683e+02
2.050000e-06	3.958195e-06	8.081675e-09	2.809109e+01	5.281646e+02
2.060000e-06	3.886953e-06	8.011822e-09	2.758550e+01	5.229103e+02
2.070000e-06	3.814311e-06	7.902214e-09	2.706996e+01	5.175036e+02
2.080000e-06	3.740372e-06	7.801490e-09	2.654522e+01	5.119450e+02
2.090000e-06	3.665024e-06	7.726541e-09	2.601048e+01	5.062366e+02
2.100000e-06	3.588219e-06	7.644276e-09	2.546540e+01	5.003816e+02
2.110000e-06	3.509922e-06	7.573725e-09	2.490972e+01	4.943829e+02
2.120000e-06	3.430223e-06	7.480995e-09	2.434410e+01	4.882429e+02
2.130000e-06	3.349386e-06	7.367960e-09	2.377041e+01	4.819624e+02
2.140000e-06	3.267448e-06	7.246697e-09	2.318890e+01	4.755408e+02
2.150000e-06	3.184419e-06	7.147669e-09	2.259965e+01	4.689754e+02
2.160000e-06	3.100314e-06	7.076577e-09	2.200276e+01	4.622624e+02
2.170000e-06	3.015028e-06	6.985310e-09	2.139749e+01	4.553970e+02
2.180000e-06	2.928453e-06	6.859537e-09	2.078307e+01	4.483740e+02
2.190000e-06	2.840685e-06	6.726417e-09	2.016019e+01	4.411886e+02
2.200000e-06	2.751956e-06	6.620388e-09	1.953048e+01	4.338370e+02
2.210000e-06	2.662322e-06	6.527720e-09	1.889436e+01	4.263164e+02
2.220000e-06	2.571752e-06	6.417432e-09	1.825159e+01	4.186254e+02
2.230000e-06	2.480298e-06	6.287419e-09	1.760254e+01	4.107636e+02
2.240000e-06	2.388076e-06	6.157772e-09	1.694805e+01	4.027316e+02
2.250000e-06	2.295071e-06	6.029474e-09	1.628800e+01	3.945300e+02
2.260000e-06	2.201182e-06	5.899976e-09	1.562167e+01	3.861591e+02
2.270000e-06	2.106302e-06	5.780273e-09	1.494831e+01	3.776182e+02
2.280000e-06	2.010448e-06	5.655572e-09	1.426804e+01	3.689055e+02
2.290000e-06	1.913908e-06	5.508704e-09	1.358290e+01	3.600175e+02
2.300000e-06	1.816851e-06	5.359461e-09	1.289409e+01	3.509492e+02
2.310000e-06	1.719217e-06	5.228420e-09	1.220119e+01	3.416943e+02
2.320000e-06	1.621031e-06	5.102418e-09	1.150437e+01	3.322457e+02
2.330000e-06	1.522382e-06	4.956857e-09	1.080426e+01	3.225958e+02
2.340000e-06	1.423244e-06	4.790683e-09	1.010069e+01	3.127374e+02
2.350000e-06	1.323641e-06	4.624745e-09	9.393811e+00	3.026638e+02
2.360000e-06	1.223670e-06	4.469340e-09	8.684317e+00	2.923694e+02
2.370000e-06	1.123379e-06	4.318990e-09	7.972558e+00	2.818499e+02
2.380000e-06	1.022762e-06	4.165745e-09	7.258486e+00	2.711023e+02
2.390000e-06	9.218203e-07	4.000386e-09	6.542109e+00	2.601244e+02
2.400000e-06	8.205526e-07	3.822490e-09	5.823417e+00	2.489151e+02
2.410000e-06	7.189040e-07	3.645215e-09	5.102022e+00	2.374733e+02
2.420000e-06	6.168970e-07	3.473551e-09	4.378085e+00	2.257979e+02
2.430000e-06	5.145659e-07	3.300839e-09	3.651846e+00	2.138870e+02
2.440000e-06	4.119587e-07	3.116962e-09	2.923649e+00	2.017377e+02
2.450000e-06	3.091794e-07	2.918751e-09	2.194229e+00	1.893457e+02
2.460000e-06	2.062628e-07	2.718182e-09	1.463836e+00	1.767054e+02
2.470000e-06	1.031908e-07	2.524028e-09	7.323394e-01	1.638090e+02
2.480000e-06	3.561568e-11	2.330022e-09	2.527625e-04	1.506475e+02
2.490000e-06	-1.031038e-07	2.127388e-09	-7.317218e-01	1.372097e+02
2.500000e-06	-2.062123e-07	1.914303e-09	-1.463478e+00	1.234832e+02
2.510000e-06	-3.092066e-07	1.696265e-09	-2.194422e+00	1.094539e+02
2.520000e-06	-4.120543e-07	1.478038e-09	-2.924327e+00	9.510648e+01
2.530000e-06	-5.147389e-07	1.258745e-09	-3.653074e+00	8.042508e+01
2.540000e-06	-6.172352e-07	1.034083e-09	-4.380484e+00	6.539362e+01
2.550000e-06	-7.194691e-07	7.975769e-10	-5.106033e+00	4.999686e+01
2.560000e-06	-8.213129e-07	5.493474e-10	-5.828813e+00	3.422154e+01
2.570000e-06	-9.226593e-07	2.982850e-10	-6.548063e+00	1.805785e+01
2.580000e-06	-1.023497e-06	4.942995e-11	-7.263701e+00	1.501079e+00
2.590000e-06	-1.123978e-06	-2.039794e-10	-7.976812e+00	-1.544652e+01
2.600000e-06	-1.224107e-06	-4.660955e-10	-8.687422e+00	-3.277396e+01
2.610000e-06	-1.323804e-06	-7.369008e-10	-9.394964e+00	-5.045991e+01
2.620000e-06	-1.423015e-06	-1.014742e-09	-1.009906e+01	-6.847150e+01
2.630000e-06	-1.521774e-06	-1.295052e-09	-1.079995e+01	-8.676361e+01
2.640000e-06	-1.620088e-06	-1.578784e-09	-1.149767e+01	-1.052791e+02
2.650000e-06	-1.717780e-06	-1.868053e-09	-1.219099e+01	-1.239495e+02
2.660000e-06	-1.814789e-06	-2.162749e-09	-1.287946e+01	-1.426974e+02
2.670000e-06	-1.911242e-06	-2.457277e-09	-1.356398e+01	-1.614381e+02
2.680000e-06	-2.007219e-06	-2.744199e-09	-1.424512e+01	-1.800840e+02
2.690000e-06	-2.102605e-06	-3.024665e-09	-1.492207e+01	-1.985473e+02
2.700000e-06	-2.197135e-06	-3.300544e-09	-1.559295e+01	-2.167444e+02
2.710000e-06	-2.290587e-06	-3.573637e-09	-1.625617e+01	-2.345990e+02
2.720000e-06	-2.383053e-06	-3.841503e-09	-1.691239e+01	-2.520457e+02
2.730000e-06	-2.474686e-06	-4.099238e-09	-1.756271e+01	-2.690314e+02
2.740000e-06	-2.565462e-06	-4.349178e-09	-1.820694e+01	-2.855174e+02
2.750000e-06	-2.655313e-06	-4.592067e-09	-1.884462e+01	-3.014790e+02
2.760000e-06	-2.744242e-06	-4.831269e-09	-1.947573e+01	-3.169047e+02
2.770000e-06	-2.832352e-06	-5.064957e-09	-2.010105e+01	-3.317943e+02
2.780000e-06	-2.919595e-06	-5.288361e-09	-2.072021e+01	-3.461567e+02
2.790000e-06	-3.005724e-06	-5.500319e-09	-2.133146e+01	-3.600064e+02
2.800000e-06	-3.090611e-06	-5.703227e-09	-2.193390e+01	-3.733611e+02
2.810000e-06	-3.174396e-06	-5.899461e-09	-2.252851e+01	-3.862388e+02
2.820000e-06	-3.257144e-06	-6.088834e-09	-2.311577e+01	-3.986554e+02
2.830000e-06	-3.338816e-06	-6.272087e-09	-2.369540e+01	-4.106237e+02
2.840000e-06	-3.419440e-06	-6.447244e-09	-2.426758e+01	-4.221523e+02
2.850000e-06	-3.498928e-06	-6.614303e-09	-2.483170e+01	-4.332466e+02
2.860000e-06	-3.577029e-06	-6.774634e-09	-2.538598e+01	-4.439087e+02
2.870000e-06	-3.653571e-06	-6.929969e-09	-2.592919e+01	-4.541396e+02
2.880000e-06	-3.728608e-06	-7.080069e-09	-2.646173e+01	-4.639405e+02
2.890000e-06	-3.802244e-06	-7.223169e-09	-2.698432e+01	-4.733144e+02
2.900000e-06	-3.874617e-06	-7.360186e-09	-2.749794e+01	-4.822675e+02
2.910000e-06	-3.945676e-06	-7.491912e-09	-2.800225e+01	-4.908099e+02
2.920000e-06	-4.015164e-06	-7.616746e-09	-2.849540e+01	-4.989560e+02
2.930000e-06	-4.083090e-06	-7.736585e-09	-2.897747e+01	-5.067239e+02
2.940000e-06	-4.149568e-06	-7.853647e-09	-2.944926e+01	-5.141349e+02
