# Temperatura_=_78.61
# Concentracion g/m^3_=_15000.0
# C_Vs_to_Am_M_A/Vsm_=_65563218390.804596
# pendiente_HvsI_1/m_=_3716.3
# ordenada_HvsI_A/m_=_1297.0
# frecuencia_Hz_=_301599.3204723798

Tiempo_(s)	Campo_(V.s)	Magnetizacion_(V.s)	Campo_(kA/m)	Magnetizacion_(A/m)
0.000000e+00	-5.420823e-06	-9.628185e-09	-3.833953e+01	-6.292999e+02
1.000000e-08	-5.418389e-06	-9.625453e-09	-3.832231e+01	-6.290679e+02
2.000000e-08	-5.414100e-06	-9.618748e-09	-3.829198e+01	-6.286917e+02
3.000000e-08	-5.408182e-06	-9.611750e-09	-3.825012e+01	-6.281694e+02
4.000000e-08	-5.400659e-06	-9.603002e-09	-3.819692e+01	-6.275018e+02
5.000000e-08	-5.391330e-06	-9.589031e-09	-3.813094e+01	-6.266934e+02
6.000000e-08	-5.379905e-06	-9.569574e-09	-3.805013e+01	-6.257525e+02
7.000000e-08	-5.366591e-06	-9.546533e-09	-3.795596e+01	-6.246907e+02
8.000000e-08	-5.351213e-06	-9.550263e-09	-3.784720e+01	-6.235222e+02
9.000000e-08	-5.333569e-06	-9.573451e-09	-3.772241e+01	-6.222622e+02
1.000000e-07	-5.313866e-06	-9.541542e-09	-3.758306e+01	-6.209253e+02
1.100000e-07	-5.292202e-06	-9.495650e-09	-3.742984e+01	-6.195237e+02
1.200000e-07	-5.268807e-06	-9.446900e-09	-3.726437e+01	-6.180659e+02
1.300000e-07	-5.243785e-06	-9.358743e-09	-3.708740e+01	-6.165550e+02
1.400000e-07	-5.217102e-06	-9.405745e-09	-3.689868e+01	-6.149880e+02
1.500000e-07	-5.188839e-06	-9.419612e-09	-3.669879e+01	-6.133560e+02
1.600000e-07	-5.159107e-06	-9.308726e-09	-3.648850e+01	-6.116444e+02
1.700000e-07	-5.127868e-06	-9.366144e-09	-3.626756e+01	-6.098346e+02
1.800000e-07	-5.094576e-06	-9.317230e-09	-3.603210e+01	-6.079052e+02
1.900000e-07	-5.059322e-06	-9.169143e-09	-3.578276e+01	-6.058340e+02
2.000000e-07	-5.022603e-06	-9.217983e-09	-3.552306e+01	-6.036008e+02
2.100000e-07	-4.984202e-06	-9.184191e-09	-3.525146e+01	-6.011883e+02
2.200000e-07	-4.943934e-06	-9.114082e-09	-3.496666e+01	-5.985844e+02
2.300000e-07	-4.901660e-06	-9.133381e-09	-3.466768e+01	-5.957827e+02
2.400000e-07	-4.857437e-06	-9.046606e-09	-3.435490e+01	-5.927829e+02
2.500000e-07	-4.811491e-06	-8.954091e-09	-3.402994e+01	-5.895904e+02
2.600000e-07	-4.763628e-06	-8.918279e-09	-3.369142e+01	-5.862150e+02
2.700000e-07	-4.713584e-06	-8.893056e-09	-3.333748e+01	-5.826698e+02
2.800000e-07	-4.661438e-06	-8.853674e-09	-3.296867e+01	-5.789695e+02
2.900000e-07	-4.607482e-06	-8.751670e-09	-3.258706e+01	-5.751280e+02
3.000000e-07	-4.551983e-06	-8.672248e-09	-3.219454e+01	-5.711577e+02
3.100000e-07	-4.494769e-06	-8.641092e-09	-3.178988e+01	-5.670676e+02
3.200000e-07	-4.435711e-06	-8.609696e-09	-3.137218e+01	-5.628628e+02
3.300000e-07	-4.375064e-06	-8.537357e-09	-3.094325e+01	-5.585445e+02
3.400000e-07	-4.312920e-06	-8.445176e-09	-3.050373e+01	-5.541101e+02
3.500000e-07	-4.249401e-06	-8.376259e-09	-3.005448e+01	-5.495541e+02
3.600000e-07	-4.184378e-06	-8.294215e-09	-2.959460e+01	-5.448691e+02
3.700000e-07	-4.117610e-06	-8.232594e-09	-2.912237e+01	-5.400471e+02
3.800000e-07	-4.049321e-06	-8.184035e-09	-2.863939e+01	-5.350806e+02
3.900000e-07	-3.979699e-06	-8.087385e-09	-2.814698e+01	-5.299637e+02
4.000000e-07	-3.908814e-06	-7.979556e-09	-2.764563e+01	-5.246923e+02
4.100000e-07	-3.836593e-06	-7.896602e-09	-2.713484e+01	-5.192650e+02
4.200000e-07	-3.762815e-06	-7.839740e-09	-2.661303e+01	-5.136822e+02
4.300000e-07	-3.687490e-06	-7.763258e-09	-2.608029e+01	-5.079463e+02
4.400000e-07	-3.610754e-06	-7.663460e-09	-2.553756e+01	-5.020609e+02
4.500000e-07	-3.532561e-06	-7.558192e-09	-2.498453e+01	-4.960295e+02
4.600000e-07	-3.452843e-06	-7.452612e-09	-2.442071e+01	-4.898556e+02
4.700000e-07	-3.371864e-06	-7.367575e-09	-2.384798e+01	-4.835413e+02
4.800000e-07	-3.289766e-06	-7.288871e-09	-2.326733e+01	-4.770874e+02
4.900000e-07	-3.206587e-06	-7.195434e-09	-2.267903e+01	-4.704930e+02
5.000000e-07	-3.122380e-06	-7.078389e-09	-2.208347e+01	-4.637557e+02
5.100000e-07	-3.037136e-06	-6.953825e-09	-2.148057e+01	-4.568722e+02
5.200000e-07	-2.950958e-06	-6.842678e-09	-2.087106e+01	-4.498382e+02
5.300000e-07	-2.863863e-06	-6.745997e-09	-2.025507e+01	-4.426495e+02
5.400000e-07	-2.775826e-06	-6.645637e-09	-1.963242e+01	-4.353022e+02
5.500000e-07	-2.686685e-06	-6.524669e-09	-1.900195e+01	-4.277930e+02
5.600000e-07	-2.596333e-06	-6.390966e-09	-1.836293e+01	-4.201195e+02
5.700000e-07	-2.504919e-06	-6.268542e-09	-1.771639e+01	-4.122799e+02
5.800000e-07	-2.412652e-06	-6.161153e-09	-1.706382e+01	-4.042733e+02
5.900000e-07	-2.319588e-06	-6.044143e-09	-1.640561e+01	-3.960988e+02
6.000000e-07	-2.225724e-06	-5.906764e-09	-1.574175e+01	-3.877554e+02
6.100000e-07	-2.131120e-06	-5.767593e-09	-1.507264e+01	-3.792413e+02
6.200000e-07	-2.035846e-06	-5.635416e-09	-1.439880e+01	-3.705542e+02
6.300000e-07	-1.939785e-06	-5.503730e-09	-1.371940e+01	-3.616903e+02
6.400000e-07	-1.842839e-06	-5.370951e-09	-1.303374e+01	-3.526450e+02
6.500000e-07	-1.745140e-06	-5.230612e-09	-1.234275e+01	-3.434128e+02
6.600000e-07	-1.646772e-06	-5.074468e-09	-1.164703e+01	-3.339875e+02
6.700000e-07	-1.547779e-06	-4.914868e-09	-1.094688e+01	-3.243627e+02
6.800000e-07	-1.448207e-06	-4.767427e-09	-1.024265e+01	-3.145324e+02
6.900000e-07	-1.348145e-06	-4.625378e-09	-9.534942e+00	-3.044910e+02
7.000000e-07	-1.247648e-06	-4.473056e-09	-8.824162e+00	-2.942338e+02
7.100000e-07	-1.146798e-06	-4.308108e-09	-8.110889e+00	-2.837573e+02
7.200000e-07	-1.045674e-06	-4.137336e-09	-7.395679e+00	-2.730588e+02
7.300000e-07	-9.441906e-07	-3.966260e-09	-6.677920e+00	-2.621363e+02
7.400000e-07	-8.423232e-07	-3.797378e-09	-5.957449e+00	-2.509887e+02
7.500000e-07	-7.401863e-07	-3.626504e-09	-5.235071e+00	-2.396144e+02
7.600000e-07	-6.378276e-07	-3.446497e-09	-4.511125e+00	-2.280121e+02
7.700000e-07	-5.352456e-07	-3.257206e-09	-3.785599e+00	-2.161792e+02
7.800000e-07	-4.325086e-07	-3.068503e-09	-3.058977e+00	-2.041123e+02
7.900000e-07	-3.296849e-07	-2.884851e-09	-2.331742e+00	-1.918067e+02
8.000000e-07	-2.267958e-07	-2.699486e-09	-1.604045e+00	-1.792558e+02
8.100000e-07	-1.238237e-07	-2.505145e-09	-8.757604e-01	-1.664516e+02
8.200000e-07	-2.077544e-08	-2.303828e-09	-1.469372e-01	-1.533842e+02
8.300000e-07	8.228528e-08	-2.100427e-09	5.819742e-01	-1.400419e+02
8.400000e-07	1.853439e-07	-1.895329e-09	1.310871e+00	-1.264116e+02
8.500000e-07	2.883761e-07	-1.685539e-09	2.039580e+00	-1.124785e+02
8.600000e-07	3.913860e-07	-1.469912e-09	2.768132e+00	-9.822657e+01
8.700000e-07	4.943096e-07	-1.244461e-09	3.496073e+00	-8.363912e+01
8.800000e-07	5.970426e-07	-1.011084e-09	4.222667e+00	-6.869918e+01
8.900000e-07	6.996192e-07	-7.760962e-10	4.948155e+00	-5.339047e+01
9.000000e-07	8.019783e-07	-5.380527e-10	5.672104e+00	-3.769853e+01
9.100000e-07	9.040471e-07	-2.954461e-10	6.393999e+00	-2.161213e+01
9.200000e-07	1.005813e-06	-4.508824e-11	7.113756e+00	-5.124892e+00
9.300000e-07	1.107211e-06	2.132769e-10	7.830901e+00	1.176291e+01
9.400000e-07	1.208225e-06	4.767043e-10	8.545341e+00	2.904254e+01
9.500000e-07	1.308840e-06	7.425093e-10	9.256952e+00	4.669521e+01
9.600000e-07	1.409064e-06	1.011210e-09	9.965803e+00	6.469071e+01
9.700000e-07	1.508833e-06	1.285973e-09	1.067143e+01	8.298671e+01
9.800000e-07	1.608038e-06	1.565872e-09	1.137308e+01	1.015286e+02
9.900000e-07	1.706629e-06	1.848758e-09	1.207037e+01	1.202505e+02
1.000000e-06	1.804474e-06	2.132783e-09	1.276239e+01	1.390762e+02
1.010000e-06	1.901445e-06	2.417315e-09	1.344823e+01	1.579224e+02
1.020000e-06	1.997604e-06	2.701874e-09	1.412834e+01	1.767010e+02
1.030000e-06	2.093020e-06	2.985000e-09	1.480318e+01	1.953232e+02
1.040000e-06	2.187667e-06	3.265228e-09	1.547258e+01	2.137030e+02
1.050000e-06	2.281577e-06	3.537896e-09	1.613677e+01	2.317605e+02
1.060000e-06	2.374749e-06	3.801947e-09	1.679575e+01	2.494259e+02
1.070000e-06	2.467152e-06	4.059189e-09	1.744928e+01	2.666411e+02
1.080000e-06	2.558814e-06	4.311730e-09	1.809757e+01	2.833619e+02
1.090000e-06	2.649590e-06	4.559064e-09	1.873960e+01	2.995586e+02
1.100000e-06	2.739288e-06	4.797201e-09	1.937399e+01	3.152148e+02
1.110000e-06	2.827851e-06	5.023957e-09	2.000037e+01	3.303268e+02
1.120000e-06	2.915327e-06	5.242202e-09	2.061906e+01	3.449008e+02
1.130000e-06	3.001825e-06	5.455270e-09	2.123083e+01	3.589503e+02
1.140000e-06	3.087334e-06	5.664506e-09	2.183560e+01	3.724932e+02
1.150000e-06	3.171896e-06	5.866515e-09	2.243368e+01	3.855490e+02
1.160000e-06	3.255537e-06	6.060424e-09	2.302524e+01	3.981361e+02
1.170000e-06	3.338102e-06	6.246584e-09	2.360920e+01	4.102702e+02
1.180000e-06	3.419438e-06	6.423569e-09	2.418445e+01	4.219634e+02
1.190000e-06	3.499464e-06	6.594281e-09	2.475045e+01	4.332235e+02
1.200000e-06	3.578206e-06	6.758961e-09	2.530736e+01	4.440549e+02
1.210000e-06	3.655725e-06	6.917419e-09	2.585563e+01	4.544596e+02
1.220000e-06	3.731988e-06	7.067970e-09	2.639501e+01	4.644384e+02
1.230000e-06	3.806817e-06	7.211918e-09	2.692424e+01	4.739927e+02
1.240000e-06	3.879996e-06	7.351734e-09	2.744181e+01	4.831259e+02
1.250000e-06	3.951565e-06	7.487187e-09	2.794799e+01	4.918445e+02
1.260000e-06	4.021736e-06	7.616640e-09	2.844429e+01	5.001587e+02
1.270000e-06	4.090549e-06	7.739510e-09	2.893098e+01	5.080826e+02
1.280000e-06	4.157954e-06	7.854934e-09	2.940771e+01	5.156338e+02
1.290000e-06	4.223808e-06	7.963228e-09	2.987347e+01	5.228322e+02
1.300000e-06	4.288003e-06	8.066481e-09	3.032750e+01	5.296994e+02
1.310000e-06	4.350684e-06	8.164461e-09	3.077082e+01	5.362568e+02
1.320000e-06	4.411891e-06	8.257950e-09	3.120372e+01	5.425246e+02
1.330000e-06	4.471718e-06	8.348174e-09	3.162685e+01	5.485209e+02
1.340000e-06	4.530015e-06	8.436673e-09	3.203916e+01	5.542608e+02
1.350000e-06	4.586495e-06	8.522697e-09	3.243863e+01	5.597562e+02
1.360000e-06	4.641227e-06	8.603709e-09	3.282573e+01	5.650157e+02
1.370000e-06	4.694257e-06	8.680424e-09	3.320079e+01	5.700453e+02
1.380000e-06	4.745445e-06	8.753826e-09	3.356282e+01	5.748493e+02
1.390000e-06	4.794570e-06	8.823183e-09	3.391026e+01	5.794302e+02
1.400000e-06	4.841792e-06	8.888038e-09	3.424425e+01	5.837904e+02
1.410000e-06	4.887373e-06	8.949640e-09	3.456663e+01	5.879324e+02
1.420000e-06	4.931492e-06	9.008415e-09	3.487867e+01	5.918590e+02
1.430000e-06	4.973990e-06	9.064913e-09	3.517924e+01	5.955738e+02
1.440000e-06	5.014529e-06	9.119867e-09	3.546595e+01	5.990808e+02
1.450000e-06	5.053228e-06	9.171948e-09	3.573966e+01	6.023843e+02
1.460000e-06	5.090283e-06	9.219531e-09	3.600174e+01	6.054886e+02
1.470000e-06	5.125654e-06	9.261794e-09	3.625190e+01	6.083974e+02
1.480000e-06	5.159078e-06	9.300103e-09	3.648830e+01	6.111137e+02
1.490000e-06	5.190599e-06	9.334313e-09	3.671124e+01	6.136399e+02
1.500000e-06	5.220404e-06	9.364454e-09	3.692204e+01	6.159777e+02
1.510000e-06	5.248519e-06	9.393347e-09	3.712089e+01	6.181285e+02
1.520000e-06	5.274741e-06	9.420684e-09	3.730634e+01	6.200939e+02
1.530000e-06	5.298895e-06	9.446701e-09	3.747717e+01	6.218762e+02
1.540000e-06	5.321150e-06	9.471097e-09	3.763458e+01	6.234788e+02
1.550000e-06	5.341679e-06	9.491480e-09	3.777977e+01	6.249065e+02
1.560000e-06	5.360414e-06	9.508753e-09	3.791228e+01	6.261655e+02
1.570000e-06	5.377119e-06	9.524953e-09	3.803043e+01	6.272632e+02
1.580000e-06	5.391802e-06	9.540123e-09	3.813428e+01	6.282078e+02
1.590000e-06	5.404553e-06	9.552901e-09	3.822446e+01	6.290074e+02
1.600000e-06	5.415136e-06	9.562053e-09	3.829931e+01	6.296693e+02
1.610000e-06	5.423517e-06	9.568129e-09	3.835858e+01	6.301994e+02
1.620000e-06	5.429914e-06	9.571774e-09	3.840383e+01	6.306012e+02
1.630000e-06	5.434488e-06	9.575416e-09	3.843617e+01	6.308759e+02
1.640000e-06	5.437193e-06	9.580393e-09	3.845531e+01	6.310222e+02
1.650000e-06	5.437857e-06	9.584153e-09	3.846000e+01	6.310367e+02
1.660000e-06	5.436617e-06	9.581908e-09	3.845123e+01	6.309149e+02
1.670000e-06	5.433727e-06	9.577169e-09	3.843079e+01	6.306519e+02
1.680000e-06	5.429256e-06	9.572528e-09	3.839917e+01	6.302442e+02
1.690000e-06	5.422881e-06	9.564611e-09	3.835408e+01	6.296902e+02
1.700000e-06	5.414589e-06	9.554548e-09	3.829544e+01	6.289916e+02
1.710000e-06	5.404734e-06	9.543642e-09	3.822574e+01	6.281537e+02
1.720000e-06	5.393194e-06	9.538264e-09	3.814412e+01	6.271855e+02
1.730000e-06	5.379699e-06	9.515153e-09	3.804867e+01	6.260993e+02
1.740000e-06	5.364179e-06	9.447485e-09	3.793890e+01	6.249096e+02
1.750000e-06	5.346338e-06	9.430714e-09	3.781272e+01	6.236316e+02
1.760000e-06	5.325790e-06	9.432986e-09	3.766739e+01	6.222796e+02
1.770000e-06	5.302815e-06	9.443293e-09	3.750490e+01	6.208651e+02
1.780000e-06	5.278406e-06	9.480143e-09	3.733226e+01	6.193956e+02
1.790000e-06	5.253262e-06	9.357422e-09	3.715443e+01	6.178727e+02
1.800000e-06	5.226844e-06	9.323813e-09	3.696758e+01	6.162925e+02
1.810000e-06	5.198251e-06	9.379643e-09	3.676536e+01	6.146445e+02
1.820000e-06	5.167717e-06	9.262256e-09	3.654940e+01	6.129133e+02
1.830000e-06	5.135535e-06	9.306499e-09	3.632179e+01	6.110794e+02
1.840000e-06	5.101394e-06	9.362549e-09	3.608032e+01	6.091211e+02
1.850000e-06	5.065618e-06	9.235273e-09	3.582729e+01	6.070165e+02
1.860000e-06	5.028144e-06	9.269682e-09	3.556225e+01	6.047458e+02
1.870000e-06	4.988714e-06	9.216452e-09	3.528338e+01	6.022929e+02
1.880000e-06	4.947582e-06	9.080506e-09	3.499247e+01	5.996466e+02
1.890000e-06	4.904642e-06	9.137116e-09	3.468877e+01	5.968020e+02
1.900000e-06	4.860011e-06	9.096624e-09	3.437311e+01	5.937600e+02
1.910000e-06	4.813600e-06	9.050998e-09	3.404486e+01	5.905269e+02
1.920000e-06	4.765146e-06	8.976969e-09	3.370216e+01	5.871137e+02
1.930000e-06	4.715017e-06	8.845486e-09	3.334762e+01	5.835337e+02
1.940000e-06	4.663172e-06	8.886276e-09	3.298094e+01	5.798017e+02
1.950000e-06	4.609209e-06	8.827410e-09	3.259928e+01	5.759314e+02
1.960000e-06	4.553243e-06	8.732705e-09	3.220345e+01	5.719344e+02
1.970000e-06	4.495571e-06	8.682610e-09	3.179555e+01	5.678191e+02
1.980000e-06	4.436492e-06	8.585881e-09	3.137771e+01	5.635898e+02
1.990000e-06	4.375911e-06	8.551735e-09	3.094924e+01	5.592466e+02
2.000000e-06	4.313555e-06	8.477976e-09	3.050822e+01	5.547864e+02
2.010000e-06	4.249563e-06	8.434298e-09	3.005563e+01	5.502030e+02
2.020000e-06	4.184113e-06	8.356685e-09	2.959272e+01	5.454890e+02
2.030000e-06	4.117249e-06	8.219776e-09	2.911982e+01	5.406364e+02
2.040000e-06	4.048953e-06	8.175433e-09	2.863679e+01	5.356378e+02
2.050000e-06	3.979164e-06	8.112027e-09	2.814319e+01	5.304877e+02
2.060000e-06	3.907799e-06	8.045011e-09	2.763845e+01	5.251827e+02
2.070000e-06	3.834996e-06	7.946327e-09	2.712354e+01	5.197216e+02
2.080000e-06	3.760938e-06	7.838442e-09	2.659976e+01	5.141054e+02
2.090000e-06	3.685495e-06	7.764494e-09	2.606618e+01	5.083369e+02
2.100000e-06	3.608534e-06	7.672808e-09	2.552186e+01	5.024196e+02
2.110000e-06	3.529967e-06	7.606839e-09	2.496619e+01	4.963571e+02
2.120000e-06	3.450061e-06	7.507390e-09	2.440104e+01	4.901527e+02
2.130000e-06	3.369131e-06	7.391067e-09	2.382865e+01	4.838082e+02
2.140000e-06	3.287021e-06	7.276376e-09	2.324791e+01	4.773239e+02
2.150000e-06	3.203802e-06	7.170979e-09	2.265934e+01	4.706988e+02
2.160000e-06	3.119602e-06	7.096676e-09	2.206382e+01	4.639302e+02
2.170000e-06	3.034186e-06	7.006948e-09	2.145971e+01	4.570145e+02
2.180000e-06	2.947447e-06	6.890214e-09	2.084623e+01	4.499474e+02
2.190000e-06	2.859534e-06	6.751045e-09	2.022445e+01	4.427247e+02
2.200000e-06	2.770640e-06	6.637617e-09	1.959574e+01	4.353427e+02
2.210000e-06	2.680822e-06	6.545810e-09	1.896048e+01	4.277981e+02
2.220000e-06	2.590093e-06	6.437432e-09	1.831880e+01	4.200888e+02
2.230000e-06	2.498507e-06	6.307818e-09	1.767104e+01	4.122132e+02
2.240000e-06	2.406086e-06	6.175733e-09	1.701738e+01	4.041704e+02
2.250000e-06	2.312766e-06	6.050836e-09	1.635736e+01	3.959595e+02
2.260000e-06	2.218561e-06	5.921982e-09	1.569108e+01	3.875794e+02
2.270000e-06	2.123409e-06	5.800591e-09	1.501810e+01	3.790281e+02
2.280000e-06	2.027280e-06	5.678086e-09	1.433822e+01	3.703031e+02
2.290000e-06	1.930463e-06	5.534727e-09	1.365347e+01	3.614005e+02
2.300000e-06	1.833139e-06	5.382671e-09	1.296513e+01	3.523153e+02
2.310000e-06	1.735297e-06	5.247674e-09	1.227313e+01	3.430420e+02
2.320000e-06	1.636853e-06	5.121579e-09	1.157687e+01	3.335741e+02
2.330000e-06	1.537888e-06	4.977017e-09	1.087693e+01	3.239055e+02
2.340000e-06	1.438525e-06	4.813599e-09	1.017417e+01	3.140301e+02
2.350000e-06	1.338766e-06	4.649536e-09	9.468606e+00	3.039425e+02
2.360000e-06	1.238605e-06	4.495363e-09	8.760205e+00	2.936383e+02
2.370000e-06	1.138071e-06	4.346602e-09	8.049166e+00	2.831140e+02
2.380000e-06	1.037130e-06	4.194301e-09	7.335248e+00	2.723674e+02
2.390000e-06	9.357318e-07	4.029896e-09	6.618094e+00	2.613965e+02
2.400000e-06	8.339633e-07	3.851647e-09	5.898322e+00	2.502000e+02
2.410000e-06	7.318699e-07	3.671492e-09	5.176252e+00	2.387768e+02
2.420000e-06	6.294269e-07	3.498870e-09	4.451710e+00	2.271249e+02
2.430000e-06	5.267204e-07	3.328144e-09	3.725303e+00	2.152419e+02
2.440000e-06	4.238723e-07	3.147181e-09	2.997896e+00	2.031241e+02
2.450000e-06	3.208323e-07	2.952054e-09	2.269131e+00	1.907662e+02
2.460000e-06	2.175637e-07	2.752824e-09	1.538750e+00	1.781614e+02
2.470000e-06	1.141450e-07	2.559600e-09	8.073067e-01	1.653014e+02
2.480000e-06	1.069205e-08	2.366412e-09	7.562101e-02	1.521758e+02
2.490000e-06	-9.275347e-08	2.165526e-09	-6.560119e-01	1.387727e+02
2.500000e-06	-1.962378e-07	1.953497e-09	-1.387920e+00	1.250784e+02
2.510000e-06	-2.996471e-07	1.734276e-09	-2.119296e+00	1.110781e+02
2.520000e-06	-4.029173e-07	1.515368e-09	-2.849689e+00	9.675537e+01
2.530000e-06	-5.060518e-07	1.296568e-09	-3.579122e+00	8.209349e+01
2.540000e-06	-6.089776e-07	1.073851e-09	-4.307079e+00	6.707555e+01
2.550000e-06	-7.116261e-07	8.392652e-10	-5.033075e+00	5.168554e+01
2.560000e-06	-8.138912e-07	5.907529e-10	-5.756359e+00	3.590957e+01
2.570000e-06	-9.157698e-07	3.384346e-10	-6.476910e+00	1.973729e+01
2.580000e-06	-1.017254e-06	8.856411e-11	-7.194669e+00	3.163624e+00
2.590000e-06	-1.118331e-06	-1.642833e-10	-7.909550e+00	-1.380951e+01
2.600000e-06	-1.218917e-06	-4.271758e-10	-8.620959e+00	-3.117134e+01
2.610000e-06	-1.318975e-06	-7.015061e-10	-9.328632e+00	-4.890073e+01
2.620000e-06	-1.418578e-06	-9.830146e-10	-1.003309e+01	-6.696492e+01
2.630000e-06	-1.517728e-06	-1.266209e-09	-1.073435e+01	-8.531894e+01
2.640000e-06	-1.616398e-06	-1.549494e-09	-1.143220e+01	-1.039057e+02
2.650000e-06	-1.714483e-06	-1.836432e-09	-1.212592e+01	-1.226568e+02
2.660000e-06	-1.811910e-06	-2.129657e-09	-1.281499e+01	-1.414944e+02
2.670000e-06	-1.908766e-06	-2.425377e-09	-1.350002e+01	-1.603339e+02
2.680000e-06	-2.005112e-06	-2.714766e-09	-1.418144e+01	-1.790868e+02
2.690000e-06	-2.100803e-06	-2.997015e-09	-1.485822e+01	-1.976645e+02
2.700000e-06	-2.195686e-06	-3.276229e-09	-1.552929e+01	-2.159819e+02
2.710000e-06	-2.289652e-06	-3.554262e-09	-1.619389e+01	-2.339612e+02
2.720000e-06	-2.382686e-06	-3.828065e-09	-1.685188e+01	-2.515348e+02
2.730000e-06	-2.474766e-06	-4.090586e-09	-1.750313e+01	-2.686477e+02
2.740000e-06	-2.565921e-06	-4.341502e-09	-1.814783e+01	-2.852585e+02
2.750000e-06	-2.656180e-06	-4.584558e-09	-1.878621e+01	-3.013406e+02
2.760000e-06	-2.745511e-06	-4.822917e-09	-1.941801e+01	-3.168805e+02
2.770000e-06	-2.833978e-06	-5.056422e-09	-2.004370e+01	-3.318767e+02
2.780000e-06	-2.921552e-06	-5.282246e-09	-2.066309e+01	-3.463373e+02
2.790000e-06	-3.008072e-06	-5.497587e-09	-2.127501e+01	-3.602769e+02
2.800000e-06	-3.093398e-06	-5.703637e-09	-2.187849e+01	-3.737141e+02
2.810000e-06	-3.177537e-06	-5.902313e-09	-2.247358e+01	-3.866683e+02
2.820000e-06	-3.260652e-06	-6.094054e-09	-2.306142e+01	-3.991574e+02
2.830000e-06	-3.342719e-06	-6.279121e-09	-2.364185e+01	-4.111965e+02
2.840000e-06	-3.423693e-06	-6.455493e-09	-2.421454e+01	-4.227966e+02
2.850000e-06	-3.503583e-06	-6.623252e-09	-2.477958e+01	-4.339649e+02
2.860000e-06	-3.582090e-06	-6.784131e-09	-2.533483e+01	-4.447051e+02
2.870000e-06	-3.658988e-06	-6.939933e-09	-2.587870e+01	-4.550188e+02
2.880000e-06	-3.734360e-06	-7.090667e-09	-2.641179e+01	-4.649068e+02
2.890000e-06	-3.808364e-06	-7.235878e-09	-2.693518e+01	-4.743708e+02
2.900000e-06	-3.881098e-06	-7.375167e-09	-2.744961e+01	-4.834148e+02
2.910000e-06	-3.952490e-06	-7.508791e-09	-2.795454e+01	-4.920461e+02
2.920000e-06	-4.022319e-06	-7.636567e-09	-2.844842e+01	-5.002756e+02
2.930000e-06	-4.090575e-06	-7.758296e-09	-2.893116e+01	-5.081184e+02
2.940000e-06	-4.157365e-06	-7.874086e-09	-2.940355e+01	-5.155925e+02
