# Temperatura_=_56.96
# Concentracion g/m^3_=_15000.0
# C_Vs_to_Am_M_A/Vsm_=_65563218390.804596
# pendiente_HvsI_1/m_=_3716.3
# ordenada_HvsI_A/m_=_1297.0
# frecuencia_Hz_=_301600.6892456712

Tiempo_(s)	Campo_(V.s)	Magnetizacion_(V.s)	Campo_(kA/m)	Magnetizacion_(A/m)
0.000000e+00	-5.419587e-06	-8.734051e-09	-3.833321e+01	-5.709885e+02
1.000000e-08	-5.416789e-06	-8.731259e-09	-3.831342e+01	-5.707305e+02
2.000000e-08	-5.412215e-06	-8.725290e-09	-3.828107e+01	-5.703499e+02
3.000000e-08	-5.405996e-06	-8.720631e-09	-3.823708e+01	-5.698437e+02
4.000000e-08	-5.398203e-06	-8.711240e-09	-3.818196e+01	-5.692108e+02
5.000000e-08	-5.388547e-06	-8.695168e-09	-3.811366e+01	-5.684532e+02
6.000000e-08	-5.376790e-06	-8.674158e-09	-3.803050e+01	-5.675761e+02
7.000000e-08	-5.363123e-06	-8.644416e-09	-3.793384e+01	-5.665879e+02
8.000000e-08	-5.347441e-06	-8.670566e-09	-3.782292e+01	-5.655004e+02
9.000000e-08	-5.329499e-06	-8.706793e-09	-3.769601e+01	-5.643271e+02
1.000000e-07	-5.309459e-06	-8.655075e-09	-3.755426e+01	-5.630821e+02
1.100000e-07	-5.287542e-06	-8.614891e-09	-3.739924e+01	-5.617785e+02
1.200000e-07	-5.263919e-06	-8.550176e-09	-3.723216e+01	-5.604269e+02
1.300000e-07	-5.238699e-06	-8.433654e-09	-3.705377e+01	-5.590334e+02
1.400000e-07	-5.211812e-06	-8.573980e-09	-3.686360e+01	-5.575992e+02
1.500000e-07	-5.183289e-06	-8.568855e-09	-3.666185e+01	-5.561195e+02
1.600000e-07	-5.153303e-06	-8.396325e-09	-3.644976e+01	-5.545841e+02
1.700000e-07	-5.121741e-06	-8.512458e-09	-3.622652e+01	-5.529777e+02
1.800000e-07	-5.088109e-06	-8.411041e-09	-3.598864e+01	-5.512819e+02
1.900000e-07	-5.052614e-06	-8.308665e-09	-3.573758e+01	-5.494765e+02
2.000000e-07	-5.015606e-06	-8.458981e-09	-3.547582e+01	-5.475418e+02
2.100000e-07	-4.976865e-06	-8.334409e-09	-3.520180e+01	-5.454606e+02
2.200000e-07	-4.936262e-06	-8.222980e-09	-3.491461e+01	-5.432197e+02
2.300000e-07	-4.893670e-06	-8.262149e-09	-3.461335e+01	-5.408114e+02
2.400000e-07	-4.849186e-06	-8.193767e-09	-3.429871e+01	-5.382339e+02
2.500000e-07	-4.802954e-06	-8.198793e-09	-3.397171e+01	-5.354911e+02
2.600000e-07	-4.754735e-06	-8.139362e-09	-3.363066e+01	-5.325918e+02
2.700000e-07	-4.704397e-06	-8.043268e-09	-3.327461e+01	-5.295484e+02
2.800000e-07	-4.652002e-06	-8.006794e-09	-3.290402e+01	-5.263753e+02
2.900000e-07	-4.597776e-06	-7.944825e-09	-3.252047e+01	-5.230867e+02
3.000000e-07	-4.541970e-06	-7.916763e-09	-3.212575e+01	-5.196949e+02
3.100000e-07	-4.484436e-06	-7.902285e-09	-3.171881e+01	-5.162094e+02
3.200000e-07	-4.425097e-06	-7.853426e-09	-3.129910e+01	-5.126351e+02
3.300000e-07	-4.364152e-06	-7.741268e-09	-3.086803e+01	-5.089726e+02
3.400000e-07	-4.301770e-06	-7.677588e-09	-3.042680e+01	-5.052186e+02
3.500000e-07	-4.238031e-06	-7.675147e-09	-2.997596e+01	-5.013659e+02
3.600000e-07	-4.172728e-06	-7.591578e-09	-2.951407e+01	-4.974055e+02
3.700000e-07	-4.105755e-06	-7.507906e-09	-2.904037e+01	-4.933273e+02
3.800000e-07	-4.037275e-06	-7.456853e-09	-2.855600e+01	-4.891221e+02
3.900000e-07	-3.967441e-06	-7.383292e-09	-2.806205e+01	-4.847819e+02
4.000000e-07	-3.896372e-06	-7.316257e-09	-2.755938e+01	-4.803018e+02
4.100000e-07	-3.823981e-06	-7.248691e-09	-2.704735e+01	-4.756792e+02
4.200000e-07	-3.750013e-06	-7.194506e-09	-2.652417e+01	-4.709147e+02
4.300000e-07	-3.674414e-06	-7.103572e-09	-2.598945e+01	-4.660106e+02
4.400000e-07	-3.597315e-06	-7.006636e-09	-2.544412e+01	-4.609709e+02
4.500000e-07	-3.518786e-06	-6.941282e-09	-2.488868e+01	-4.557997e+02
4.600000e-07	-3.438866e-06	-6.883554e-09	-2.432340e+01	-4.505003e+02
4.700000e-07	-3.357660e-06	-6.801759e-09	-2.374902e+01	-4.450744e+02
4.800000e-07	-3.275257e-06	-6.690286e-09	-2.316618e+01	-4.395218e+02
4.900000e-07	-3.191806e-06	-6.607101e-09	-2.257592e+01	-4.338398e+02
5.000000e-07	-3.107403e-06	-6.524860e-09	-2.197894e+01	-4.280239e+02
5.100000e-07	-3.022043e-06	-6.433424e-09	-2.137517e+01	-4.220677e+02
5.200000e-07	-2.935717e-06	-6.342711e-09	-2.076458e+01	-4.159645e+02
5.300000e-07	-2.848416e-06	-6.243985e-09	-2.014709e+01	-4.097074e+02
5.400000e-07	-2.760184e-06	-6.135566e-09	-1.952302e+01	-4.032908e+02
5.500000e-07	-2.670864e-06	-6.029154e-09	-1.889126e+01	-3.967104e+02
5.600000e-07	-2.580306e-06	-5.934664e-09	-1.825073e+01	-3.899640e+02
5.700000e-07	-2.488731e-06	-5.837266e-09	-1.760301e+01	-3.830512e+02
5.800000e-07	-2.396319e-06	-5.726824e-09	-1.694937e+01	-3.759733e+02
5.900000e-07	-2.303098e-06	-5.608984e-09	-1.629002e+01	-3.687324e+02
6.000000e-07	-2.209088e-06	-5.497127e-09	-1.562507e+01	-3.613309e+02
6.100000e-07	-2.114300e-06	-5.386246e-09	-1.495463e+01	-3.537702e+02
6.200000e-07	-2.018856e-06	-5.270269e-09	-1.427954e+01	-3.460506e+02
6.300000e-07	-1.922725e-06	-5.146698e-09	-1.359960e+01	-3.381702e+02
6.400000e-07	-1.825752e-06	-5.018490e-09	-1.291370e+01	-3.301246e+02
6.500000e-07	-1.727900e-06	-4.890518e-09	-1.222159e+01	-3.219078e+02
6.600000e-07	-1.629255e-06	-4.763310e-09	-1.152386e+01	-3.135113e+02
6.700000e-07	-1.530015e-06	-4.634812e-09	-1.082193e+01	-3.049262e+02
6.800000e-07	-1.430325e-06	-4.498935e-09	-1.011682e+01	-2.961427e+02
6.900000e-07	-1.330243e-06	-4.357950e-09	-9.408925e+00	-2.871519e+02
7.000000e-07	-1.229845e-06	-4.217104e-09	-8.698799e+00	-2.779462e+02
7.100000e-07	-1.129104e-06	-4.076886e-09	-7.986253e+00	-2.685196e+02
7.200000e-07	-1.027930e-06	-3.930957e-09	-7.270638e+00	-2.588685e+02
7.300000e-07	-9.263908e-07	-3.779763e-09	-6.552443e+00	-2.489913e+02
7.400000e-07	-8.245380e-07	-3.621204e-09	-5.832029e+00	-2.388879e+02
7.500000e-07	-7.223934e-07	-3.457305e-09	-5.109552e+00	-2.285594e+02
7.600000e-07	-6.200034e-07	-3.292902e-09	-4.385338e+00	-2.180074e+02
7.700000e-07	-5.173753e-07	-3.127644e-09	-3.659440e+00	-2.072326e+02
7.800000e-07	-4.145607e-07	-2.962139e-09	-2.932224e+00	-1.962345e+02
7.900000e-07	-3.116264e-07	-2.791639e-09	-2.204161e+00	-1.850108e+02
8.000000e-07	-2.085965e-07	-2.615966e-09	-1.475421e+00	-1.735566e+02
8.100000e-07	-1.054848e-07	-2.435560e-09	-7.461029e-01	-1.618645e+02
8.200000e-07	-2.257947e-09	-2.251718e-09	-1.597066e-02	-1.499248e+02
8.300000e-07	1.009865e-07	-2.065007e-09	7.142865e-01	-1.377255e+02
8.400000e-07	2.041764e-07	-1.873398e-09	1.444158e+00	-1.252531e+02
8.500000e-07	3.073086e-07	-1.677310e-09	2.173620e+00	-1.124930e+02
8.600000e-07	4.103464e-07	-1.478891e-09	2.902416e+00	-9.943042e+01
8.700000e-07	5.132905e-07	-1.276463e-09	3.630548e+00	-8.605086e+01
8.800000e-07	6.161149e-07	-1.068175e-09	4.357834e+00	-7.234097e+01
8.900000e-07	7.187681e-07	-8.548554e-10	5.083909e+00	-5.828922e+01
9.000000e-07	8.211627e-07	-6.356696e-10	5.808155e+00	-4.388668e+01
9.100000e-07	9.232313e-07	-4.132496e-10	6.530096e+00	-2.912778e+01
9.200000e-07	1.024925e-06	-1.858618e-10	7.249387e+00	-1.401121e+01
9.300000e-07	1.126219e-06	4.992214e-11	7.965846e+00	1.459097e+00
9.400000e-07	1.227119e-06	2.928855e-10	8.679516e+00	1.727301e+01
9.500000e-07	1.327612e-06	5.393470e-10	9.390315e+00	3.341318e+01
9.600000e-07	1.427663e-06	7.890108e-10	1.009798e+01	4.985411e+01
9.700000e-07	1.527307e-06	1.042840e-09	1.080278e+01	6.656157e+01
9.800000e-07	1.626486e-06	1.298594e-09	1.150428e+01	8.349218e+01
9.900000e-07	1.724970e-06	1.556452e-09	1.220086e+01	1.005936e+02
1.000000e-06	1.822508e-06	1.815982e-09	1.289076e+01	1.178054e+02
1.010000e-06	1.919093e-06	2.077698e-09	1.357391e+01	1.350601e+02
1.020000e-06	2.014962e-06	2.339806e-09	1.425200e+01	1.522852e+02
1.030000e-06	2.110218e-06	2.601411e-09	1.492576e+01	1.694060e+02
1.040000e-06	2.204733e-06	2.860524e-09	1.559427e+01	1.863479e+02
1.050000e-06	2.298457e-06	3.112663e-09	1.625719e+01	2.030393e+02
1.060000e-06	2.391395e-06	3.358107e-09	1.691454e+01	2.194150e+02
1.070000e-06	2.483606e-06	3.599052e-09	1.756676e+01	2.354181e+02
1.080000e-06	2.575144e-06	3.835633e-09	1.821422e+01	2.510021e+02
1.090000e-06	2.665695e-06	4.065109e-09	1.885470e+01	2.661319e+02
1.100000e-06	2.754950e-06	4.287349e-09	1.948600e+01	2.807844e+02
1.110000e-06	2.843108e-06	4.501670e-09	2.010955e+01	2.949473e+02
1.120000e-06	2.930443e-06	4.707852e-09	2.072728e+01	3.086181e+02
1.130000e-06	3.016889e-06	4.908013e-09	2.133872e+01	3.218020e+02
1.140000e-06	3.102295e-06	5.102276e-09	2.194280e+01	3.345094e+02
1.150000e-06	3.186713e-06	5.289617e-09	2.253990e+01	3.467536e+02
1.160000e-06	3.270239e-06	5.468227e-09	2.313069e+01	3.585483e+02
1.170000e-06	3.352634e-06	5.641790e-09	2.371347e+01	3.699061e+02
1.180000e-06	3.433633e-06	5.809703e-09	2.428638e+01	3.808367e+02
1.190000e-06	3.513405e-06	5.969926e-09	2.485062e+01	3.913470e+02
1.200000e-06	3.591978e-06	6.122631e-09	2.540637e+01	4.014410e+02
1.210000e-06	3.669257e-06	6.268497e-09	2.595297e+01	4.111205e+02
1.220000e-06	3.745257e-06	6.407920e-09	2.649053e+01	4.203867e+02
1.230000e-06	3.819749e-06	6.541994e-09	2.701742e+01	4.292415e+02
1.240000e-06	3.892552e-06	6.671833e-09	2.753236e+01	4.376889e+02
1.250000e-06	3.963921e-06	6.794522e-09	2.803716e+01	4.457364e+02
1.260000e-06	4.033944e-06	6.909311e-09	2.853244e+01	4.533955e+02
1.270000e-06	4.102547e-06	7.018232e-09	2.901767e+01	4.606822e+02
1.280000e-06	4.169799e-06	7.122890e-09	2.949335e+01	4.676163e+02
1.290000e-06	4.235391e-06	7.221921e-09	2.995729e+01	4.742206e+02
1.300000e-06	4.299265e-06	7.316400e-09	3.040908e+01	4.805196e+02
1.310000e-06	4.361639e-06	7.406944e-09	3.085025e+01	4.865378e+02
1.320000e-06	4.422599e-06	7.494325e-09	3.128143e+01	4.922980e+02
1.330000e-06	4.482224e-06	7.578527e-09	3.170316e+01	4.978200e+02
1.340000e-06	4.540198e-06	7.660022e-09	3.211322e+01	5.031198e+02
1.350000e-06	4.596298e-06	7.737938e-09	3.251002e+01	5.082086e+02
1.360000e-06	4.650749e-06	7.810383e-09	3.289515e+01	5.130930e+02
1.370000e-06	4.703526e-06	7.879930e-09	3.326845e+01	5.177757e+02
1.380000e-06	4.754376e-06	7.948644e-09	3.362811e+01	5.222560e+02
1.390000e-06	4.803190e-06	8.015915e-09	3.397338e+01	5.265313e+02
1.400000e-06	4.850142e-06	8.078762e-09	3.430547e+01	5.305982e+02
1.410000e-06	4.895472e-06	8.135266e-09	3.462610e+01	5.344536e+02
1.420000e-06	4.939273e-06	8.187552e-09	3.493591e+01	5.380958e+02
1.430000e-06	4.981259e-06	8.238269e-09	3.523288e+01	5.415250e+02
1.440000e-06	5.021368e-06	8.287605e-09	3.551657e+01	5.447433e+02
1.450000e-06	5.059812e-06	8.335215e-09	3.578849e+01	5.477547e+02
1.460000e-06	5.096608e-06	8.378484e-09	3.604875e+01	5.505648e+02
1.470000e-06	5.131636e-06	8.416352e-09	3.629651e+01	5.531799e+02
1.480000e-06	5.164708e-06	8.450984e-09	3.653043e+01	5.556065e+02
1.490000e-06	5.195948e-06	8.482021e-09	3.675139e+01	5.578507e+02
1.500000e-06	5.225503e-06	8.510240e-09	3.696044e+01	5.599178e+02
1.510000e-06	5.253330e-06	8.536875e-09	3.715726e+01	5.618122e+02
1.520000e-06	5.279172e-06	8.561853e-09	3.734004e+01	5.635376e+02
1.530000e-06	5.302953e-06	8.585322e-09	3.750825e+01	5.650971e+02
1.540000e-06	5.324891e-06	8.606460e-09	3.766342e+01	5.664941e+02
1.550000e-06	5.345137e-06	8.624824e-09	3.780662e+01	5.677322e+02
1.560000e-06	5.363511e-06	8.640558e-09	3.793658e+01	5.688158e+02
1.570000e-06	5.379852e-06	8.654217e-09	3.805216e+01	5.697507e+02
1.580000e-06	5.394249e-06	8.665878e-09	3.815399e+01	5.705431e+02
1.590000e-06	5.406625e-06	8.675135e-09	3.824153e+01	5.712002e+02
1.600000e-06	5.416734e-06	8.682810e-09	3.831303e+01	5.717290e+02
1.610000e-06	5.424687e-06	8.689137e-09	3.836928e+01	5.721359e+02
1.620000e-06	5.430776e-06	8.694765e-09	3.841235e+01	5.724262e+02
1.630000e-06	5.435067e-06	8.699883e-09	3.844270e+01	5.726031e+02
1.640000e-06	5.437322e-06	8.703688e-09	3.845865e+01	5.726678e+02
1.650000e-06	5.437513e-06	8.705395e-09	3.846000e+01	5.726191e+02
1.660000e-06	5.436019e-06	8.699437e-09	3.844944e+01	5.724545e+02
1.670000e-06	5.432955e-06	8.694140e-09	3.842776e+01	5.721701e+02
1.680000e-06	5.428104e-06	8.688816e-09	3.839346e+01	5.717624e+02
1.690000e-06	5.421291e-06	8.680710e-09	3.834526e+01	5.712286e+02
1.700000e-06	5.412711e-06	8.671573e-09	3.828458e+01	5.705683e+02
1.710000e-06	5.402558e-06	8.662398e-09	3.821276e+01	5.697841e+02
1.720000e-06	5.390631e-06	8.668907e-09	3.812840e+01	5.688819e+02
1.730000e-06	5.376731e-06	8.631658e-09	3.803009e+01	5.678710e+02
1.740000e-06	5.360808e-06	8.543214e-09	3.791746e+01	5.667635e+02
1.750000e-06	5.342525e-06	8.551555e-09	3.778814e+01	5.655732e+02
1.760000e-06	5.321509e-06	8.547279e-09	3.763950e+01	5.643142e+02
1.770000e-06	5.298189e-06	8.589911e-09	3.747455e+01	5.629991e+02
1.780000e-06	5.273614e-06	8.649316e-09	3.730073e+01	5.616377e+02
1.790000e-06	5.248292e-06	8.424373e-09	3.712163e+01	5.602352e+02
1.800000e-06	5.221509e-06	8.464579e-09	3.693219e+01	5.587914e+02
1.810000e-06	5.192477e-06	8.536332e-09	3.672684e+01	5.573005e+02
1.820000e-06	5.161643e-06	8.333258e-09	3.650875e+01	5.557508e+02
1.830000e-06	5.129156e-06	8.492978e-09	3.627897e+01	5.541265e+02
1.840000e-06	5.094752e-06	8.484245e-09	3.603563e+01	5.524085e+02
1.850000e-06	5.058702e-06	8.261735e-09	3.578064e+01	5.505765e+02
1.860000e-06	5.020835e-06	8.430042e-09	3.551280e+01	5.486114e+02
1.870000e-06	4.981122e-06	8.362203e-09	3.523191e+01	5.464964e+02
1.880000e-06	4.939716e-06	8.257226e-09	3.493904e+01	5.442197e+02
1.890000e-06	4.896489e-06	8.322270e-09	3.463329e+01	5.417747e+02
1.900000e-06	4.851601e-06	8.150980e-09	3.431579e+01	5.391609e+02
1.910000e-06	4.804873e-06	8.205641e-09	3.398529e+01	5.363832e+02
1.920000e-06	4.756145e-06	8.151341e-09	3.364063e+01	5.334514e+02
1.930000e-06	4.705777e-06	8.030042e-09	3.328437e+01	5.303786e+02
1.940000e-06	4.653559e-06	8.138543e-09	3.291503e+01	5.271792e+02
1.950000e-06	4.599221e-06	7.992769e-09	3.253069e+01	5.238671e+02
1.960000e-06	4.542964e-06	7.887977e-09	3.213278e+01	5.204541e+02
1.970000e-06	4.485044e-06	7.854947e-09	3.172311e+01	5.169489e+02
1.980000e-06	4.425717e-06	7.835991e-09	3.130348e+01	5.133553e+02
1.990000e-06	4.364733e-06	7.826289e-09	3.087214e+01	5.096733e+02
2.000000e-06	4.302000e-06	7.665855e-09	3.042842e+01	5.058983e+02
2.010000e-06	4.237796e-06	7.687636e-09	2.997430e+01	5.020230e+02
2.020000e-06	4.172136e-06	7.616507e-09	2.950988e+01	4.980377e+02
2.030000e-06	4.105049e-06	7.479725e-09	2.903537e+01	4.939327e+02
2.040000e-06	4.036457e-06	7.478000e-09	2.855022e+01	4.896987e+02
2.050000e-06	3.966263e-06	7.415945e-09	2.805372e+01	4.853285e+02
2.060000e-06	3.894594e-06	7.356894e-09	2.754680e+01	4.808175e+02
2.070000e-06	3.821601e-06	7.220670e-09	2.703051e+01	4.761640e+02
2.080000e-06	3.747268e-06	7.171157e-09	2.650475e+01	4.713688e+02
2.090000e-06	3.671523e-06	7.154499e-09	2.596900e+01	4.664349e+02
2.100000e-06	3.594273e-06	7.044997e-09	2.542260e+01	4.613663e+02
2.110000e-06	3.515492e-06	6.950824e-09	2.486538e+01	4.561669e+02
2.120000e-06	3.435482e-06	6.862438e-09	2.429947e+01	4.508399e+02
2.130000e-06	3.354362e-06	6.804502e-09	2.372569e+01	4.453866e+02
2.140000e-06	3.272094e-06	6.696700e-09	2.314380e+01	4.398061e+02
2.150000e-06	3.188754e-06	6.618946e-09	2.255434e+01	4.340955e+02
2.160000e-06	3.104317e-06	6.551221e-09	2.195711e+01	4.282496e+02
2.170000e-06	3.018617e-06	6.441681e-09	2.135094e+01	4.222621e+02
2.180000e-06	2.931628e-06	6.342324e-09	2.073566e+01	4.161260e+02
2.190000e-06	2.843571e-06	6.249665e-09	2.011283e+01	4.098348e+02
2.200000e-06	2.754558e-06	6.178386e-09	1.948323e+01	4.033829e+02
2.210000e-06	2.664632e-06	6.073217e-09	1.884717e+01	3.967666e+02
2.220000e-06	2.573829e-06	5.954279e-09	1.820492e+01	3.899841e+02
2.230000e-06	2.482164e-06	5.841273e-09	1.755656e+01	3.830354e+02
2.240000e-06	2.389649e-06	5.735047e-09	1.690220e+01	3.759219e+02
2.250000e-06	2.296233e-06	5.631402e-09	1.624145e+01	3.686460e+02
2.260000e-06	2.201870e-06	5.521930e-09	1.557402e+01	3.612099e+02
2.270000e-06	2.106564e-06	5.409001e-09	1.489991e+01	3.536148e+02
2.280000e-06	2.010417e-06	5.288699e-09	1.421985e+01	3.458605e+02
2.290000e-06	1.913562e-06	5.168719e-09	1.353479e+01	3.379447e+02
2.300000e-06	1.816144e-06	5.046577e-09	1.284575e+01	3.298626e+02
2.310000e-06	1.718210e-06	4.926597e-09	1.215305e+01	3.216076e+02
2.320000e-06	1.619715e-06	4.795360e-09	1.145639e+01	3.131711e+02
2.330000e-06	1.520717e-06	4.656063e-09	1.075616e+01	3.045438e+02
2.340000e-06	1.421299e-06	4.517955e-09	1.005297e+01	2.957162e+02
2.350000e-06	1.321484e-06	4.384319e-09	9.346970e+00	2.866795e+02
2.360000e-06	1.221312e-06	4.252465e-09	8.638446e+00	2.774265e+02
2.370000e-06	1.120803e-06	4.109511e-09	7.927539e+00	2.679516e+02
2.380000e-06	1.019887e-06	3.955811e-09	7.213748e+00	2.582517e+02
2.390000e-06	9.184692e-07	3.803616e-09	6.496413e+00	2.483255e+02
2.400000e-06	8.165476e-07	3.656488e-09	5.775512e+00	2.381734e+02
2.410000e-06	7.142279e-07	3.505760e-09	5.051796e+00	2.277965e+02
2.420000e-06	6.115631e-07	3.345115e-09	4.325639e+00	2.171962e+02
2.430000e-06	5.086281e-07	3.173958e-09	3.597571e+00	2.063733e+02
2.440000e-06	4.055568e-07	3.002722e-09	2.868538e+00	1.953267e+02
2.450000e-06	3.023237e-07	2.831947e-09	2.138362e+00	1.840537e+02
2.460000e-06	1.989555e-07	2.661603e-09	1.407230e+00	1.725488e+02
2.470000e-06	9.553531e-08	2.491382e-09	6.757296e-01	1.608041e+02
2.480000e-06	-7.961524e-09	2.309530e-09	-5.631255e-02	1.488094e+02
2.490000e-06	-1.114711e-07	2.117412e-09	-7.884446e-01	1.365524e+02
2.500000e-06	-2.149307e-07	1.924440e-09	-1.520223e+00	1.240191e+02
2.510000e-06	-3.183449e-07	1.732602e-09	-2.251681e+00	1.111950e+02
2.520000e-06	-4.216841e-07	1.534773e-09	-2.982608e+00	9.806530e+01
2.530000e-06	-5.248690e-07	1.327013e-09	-3.712444e+00	8.461560e+01
2.540000e-06	-6.278890e-07	1.114740e-09	-4.441114e+00	7.083293e+01
2.550000e-06	-7.306868e-07	8.988253e-10	-5.168211e+00	5.670624e+01
2.560000e-06	-8.331330e-07	6.752150e-10	-5.892823e+00	4.222725e+01
2.570000e-06	-9.350687e-07	4.462603e-10	-6.613822e+00	2.739123e+01
2.580000e-06	-1.036459e-06	2.142203e-10	-7.330967e+00	1.219791e+01
2.590000e-06	-1.137354e-06	-2.309654e-11	-8.044601e+00	-3.347536e+00
2.600000e-06	-1.237737e-06	-2.655525e-10	-8.754620e+00	-1.923351e+01
2.610000e-06	-1.337662e-06	-5.107210e-10	-9.461400e+00	-3.544098e+01
2.620000e-06	-1.437185e-06	-7.599811e-10	-1.016533e+01	-5.194265e+01
2.630000e-06	-1.536288e-06	-1.016697e-09	-1.086630e+01	-6.870231e+01
2.640000e-06	-1.634819e-06	-1.281027e-09	-1.156322e+01	-8.567465e+01
2.650000e-06	-1.732715e-06	-1.547982e-09	-1.225564e+01	-1.028055e+02
2.660000e-06	-1.829985e-06	-1.812121e-09	-1.294364e+01	-1.200328e+02
2.670000e-06	-1.926619e-06	-2.074817e-09	-1.362714e+01	-1.372878e+02
2.680000e-06	-2.022703e-06	-2.335320e-09	-1.430676e+01	-1.544973e+02
2.690000e-06	-2.118345e-06	-2.595626e-09	-1.498324e+01	-1.715864e+02
2.700000e-06	-2.213327e-06	-2.855393e-09	-1.565506e+01	-1.884809e+02
2.710000e-06	-2.307155e-06	-3.109855e-09	-1.631871e+01	-2.051103e+02
2.720000e-06	-2.399786e-06	-3.358583e-09	-1.697389e+01	-2.214110e+02
2.730000e-06	-2.491524e-06	-3.601855e-09	-1.762277e+01	-2.373283e+02
2.740000e-06	-2.582493e-06	-3.840711e-09	-1.826620e+01	-2.528179e+02
2.750000e-06	-2.672536e-06	-4.073273e-09	-1.890308e+01	-2.678475e+02
2.760000e-06	-2.761596e-06	-4.298094e-09	-1.953301e+01	-2.823961e+02
2.770000e-06	-2.849804e-06	-4.514518e-09	-2.015691e+01	-2.964539e+02
2.780000e-06	-2.937228e-06	-4.720775e-09	-2.077527e+01	-3.100202e+02
2.790000e-06	-3.023646e-06	-4.919707e-09	-2.138651e+01	-3.231014e+02
2.800000e-06	-3.108736e-06	-5.114442e-09	-2.198836e+01	-3.357088e+02
2.810000e-06	-3.192640e-06	-5.301824e-09	-2.258182e+01	-3.478559e+02
2.820000e-06	-3.275561e-06	-5.478889e-09	-2.316833e+01	-3.595565e+02
2.830000e-06	-3.357435e-06	-5.648838e-09	-2.374743e+01	-3.708224e+02
2.840000e-06	-3.438240e-06	-5.813336e-09	-2.431897e+01	-3.816629e+02
2.850000e-06	-3.517969e-06	-5.970807e-09	-2.488290e+01	-3.920841e+02
2.860000e-06	-3.596219e-06	-6.121660e-09	-2.543637e+01	-4.020896e+02
2.870000e-06	-3.672817e-06	-6.267092e-09	-2.597815e+01	-4.116809e+02
2.880000e-06	-3.747972e-06	-6.407213e-09	-2.650973e+01	-4.208592e+02
2.890000e-06	-3.821703e-06	-6.541722e-09	-2.703124e+01	-4.296267e+02
2.900000e-06	-3.894122e-06	-6.672398e-09	-2.754347e+01	-4.379880e+02
2.910000e-06	-3.965273e-06	-6.799127e-09	-2.804672e+01	-4.459516e+02
2.920000e-06	-4.034816e-06	-6.917469e-09	-2.853861e+01	-4.535298e+02
2.930000e-06	-4.102745e-06	-7.027435e-09	-2.901907e+01	-4.607396e+02
2.940000e-06	-4.169290e-06	-7.133268e-09	-2.948975e+01	-4.676014e+02
