# Temperatura_=_83.53
# Concentracion g/m^3_=_15000.0
# C_Vs_to_Am_M_A/Vsm_=_65563218390.804596
# pendiente_HvsI_1/m_=_3716.3
# ordenada_HvsI_A/m_=_1297.0
# frecuencia_Hz_=_301602.05006070243

Tiempo_(s)	Campo_(V.s)	Magnetizacion_(V.s)	Campo_(kA/m)	Magnetizacion_(A/m)
0.000000e+00	-5.435168e-06	-9.950482e-09	-3.833686e+01	-6.503645e+02
1.000000e-08	-5.433092e-06	-9.945915e-09	-3.832222e+01	-6.501110e+02
2.000000e-08	-5.429152e-06	-9.939615e-09	-3.829443e+01	-6.497061e+02
3.000000e-08	-5.423503e-06	-9.930029e-09	-3.825458e+01	-6.491493e+02
4.000000e-08	-5.416216e-06	-9.919073e-09	-3.820319e+01	-6.484426e+02
5.000000e-08	-5.407154e-06	-9.905936e-09	-3.813927e+01	-6.475911e+02
6.000000e-08	-5.396031e-06	-9.891775e-09	-3.806081e+01	-6.466025e+02
7.000000e-08	-5.382954e-06	-9.883934e-09	-3.796857e+01	-6.454872e+02
8.000000e-08	-5.367911e-06	-9.876175e-09	-3.786246e+01	-6.442566e+02
9.000000e-08	-5.350705e-06	-9.853127e-09	-3.774110e+01	-6.429229e+02
1.000000e-07	-5.331370e-06	-9.838673e-09	-3.760473e+01	-6.414972e+02
1.100000e-07	-5.310076e-06	-9.807937e-09	-3.745453e+01	-6.399886e+02
1.200000e-07	-5.286961e-06	-9.751181e-09	-3.729149e+01	-6.384030e+02
1.300000e-07	-5.262134e-06	-9.732008e-09	-3.711637e+01	-6.367425e+02
1.400000e-07	-5.235745e-06	-9.695435e-09	-3.693023e+01	-6.350048e+02
1.500000e-07	-5.207819e-06	-9.643530e-09	-3.673326e+01	-6.331835e+02
1.600000e-07	-5.178372e-06	-9.680648e-09	-3.652556e+01	-6.312684e+02
1.700000e-07	-5.147383e-06	-9.645795e-09	-3.630697e+01	-6.292466e+02
1.800000e-07	-5.114424e-06	-9.587123e-09	-3.607450e+01	-6.271037e+02
1.900000e-07	-5.079438e-06	-9.553739e-09	-3.582773e+01	-6.248249e+02
2.000000e-07	-5.042868e-06	-9.433391e-09	-3.556978e+01	-6.223967e+02
2.100000e-07	-5.004618e-06	-9.402832e-09	-3.529999e+01	-6.198075e+02
2.200000e-07	-4.964523e-06	-9.424686e-09	-3.501718e+01	-6.170490e+02
2.300000e-07	-4.922514e-06	-9.393661e-09	-3.472087e+01	-6.141164e+02
2.400000e-07	-4.878535e-06	-9.347717e-09	-3.441066e+01	-6.110086e+02
2.500000e-07	-4.832741e-06	-9.236288e-09	-3.408766e+01	-6.077280e+02
2.600000e-07	-4.785084e-06	-9.162706e-09	-3.375150e+01	-6.042798e+02
2.700000e-07	-4.735281e-06	-9.174511e-09	-3.340022e+01	-6.006711e+02
2.800000e-07	-4.683378e-06	-9.135202e-09	-3.303413e+01	-5.969101e+02
2.900000e-07	-4.629632e-06	-9.059245e-09	-3.265503e+01	-5.930051e+02
3.000000e-07	-4.574225e-06	-8.967738e-09	-3.226422e+01	-5.889634e+02
3.100000e-07	-4.517179e-06	-8.890566e-09	-3.186184e+01	-5.847908e+02
3.200000e-07	-4.458350e-06	-8.839894e-09	-3.144689e+01	-5.804912e+02
3.300000e-07	-4.397828e-06	-8.793744e-09	-3.102000e+01	-5.760663e+02
3.400000e-07	-4.335868e-06	-8.739627e-09	-3.058297e+01	-5.715158e+02
3.500000e-07	-4.272521e-06	-8.637916e-09	-3.013615e+01	-5.668377e+02
3.600000e-07	-4.207631e-06	-8.551651e-09	-2.967845e+01	-5.620288e+02
3.700000e-07	-4.141062e-06	-8.499752e-09	-2.920891e+01	-5.570848e+02
3.800000e-07	-4.072915e-06	-8.438129e-09	-2.872823e+01	-5.520016e+02
3.900000e-07	-4.003342e-06	-8.349868e-09	-2.823750e+01	-5.467751e+02
4.000000e-07	-3.932446e-06	-8.235228e-09	-2.773744e+01	-5.414015e+02
4.100000e-07	-3.860248e-06	-8.144939e-09	-2.722819e+01	-5.358782e+02
4.200000e-07	-3.786560e-06	-8.071146e-09	-2.670844e+01	-5.302030e+02
4.300000e-07	-3.711326e-06	-8.001828e-09	-2.617778e+01	-5.243747e+02
4.400000e-07	-3.634632e-06	-7.928812e-09	-2.563681e+01	-5.183924e+02
4.500000e-07	-3.556488e-06	-7.826633e-09	-2.508563e+01	-5.122558e+02
4.600000e-07	-3.476894e-06	-7.700815e-09	-2.452421e+01	-5.059649e+02
4.700000e-07	-3.395972e-06	-7.589561e-09	-2.395343e+01	-4.995193e+02
4.800000e-07	-3.313879e-06	-7.515330e-09	-2.337439e+01	-4.929189e+02
4.900000e-07	-3.230735e-06	-7.432125e-09	-2.278793e+01	-4.861631e+02
5.000000e-07	-3.146519e-06	-7.314484e-09	-2.219392e+01	-4.792510e+02
5.100000e-07	-3.061263e-06	-7.186555e-09	-2.159257e+01	-4.721813e+02
5.200000e-07	-2.975104e-06	-7.064614e-09	-2.098485e+01	-4.649526e+02
5.300000e-07	-2.887974e-06	-6.959686e-09	-2.037027e+01	-4.575629e+02
5.400000e-07	-2.799835e-06	-6.863024e-09	-1.974859e+01	-4.500100e+02
5.500000e-07	-2.710628e-06	-6.750232e-09	-1.911937e+01	-4.422915e+02
5.600000e-07	-2.620210e-06	-6.615860e-09	-1.848161e+01	-4.344045e+02
5.700000e-07	-2.528719e-06	-6.480122e-09	-1.783628e+01	-4.263461e+02
5.800000e-07	-2.436406e-06	-6.361906e-09	-1.718515e+01	-4.181128e+02
5.900000e-07	-2.343256e-06	-6.243819e-09	-1.652812e+01	-4.097013e+02
6.000000e-07	-2.249239e-06	-6.107484e-09	-1.586497e+01	-4.011079e+02
6.100000e-07	-2.154488e-06	-5.960930e-09	-1.519665e+01	-3.923290e+02
6.200000e-07	-2.059021e-06	-5.819654e-09	-1.452327e+01	-3.833607e+02
6.300000e-07	-1.962728e-06	-5.683901e-09	-1.384407e+01	-3.741998e+02
6.400000e-07	-1.865605e-06	-5.550045e-09	-1.315901e+01	-3.648428e+02
6.500000e-07	-1.767737e-06	-5.411131e-09	-1.246870e+01	-3.552866e+02
6.600000e-07	-1.669149e-06	-5.253289e-09	-1.177331e+01	-3.455284e+02
6.700000e-07	-1.569922e-06	-5.085965e-09	-1.107342e+01	-3.355653e+02
6.800000e-07	-1.470185e-06	-4.926590e-09	-1.036992e+01	-3.253946e+02
6.900000e-07	-1.370044e-06	-4.776303e-09	-9.663582e+00	-3.150134e+02
7.000000e-07	-1.269536e-06	-4.620158e-09	-8.954648e+00	-3.044186e+02
7.100000e-07	-1.168649e-06	-4.450685e-09	-8.243047e+00	-2.936065e+02
7.200000e-07	-1.067369e-06	-4.273462e-09	-7.528669e+00	-2.825732e+02
7.300000e-07	-9.657052e-07	-4.093903e-09	-6.811585e+00	-2.713143e+02
7.400000e-07	-8.636967e-07	-3.917799e-09	-6.092070e+00	-2.598248e+02
7.500000e-07	-7.613988e-07	-3.743599e-09	-5.370513e+00	-2.480996e+02
7.600000e-07	-6.588991e-07	-3.562319e-09	-4.647533e+00	-2.361336e+02
7.700000e-07	-5.562188e-07	-3.370219e-09	-3.923279e+00	-2.239215e+02
7.800000e-07	-4.533587e-07	-3.174269e-09	-3.197758e+00	-2.114583e+02
7.900000e-07	-3.503662e-07	-2.981346e-09	-2.471302e+00	-1.987390e+02
8.000000e-07	-2.472589e-07	-2.788585e-09	-1.744037e+00	-1.857585e+02
8.100000e-07	-1.440728e-07	-2.588457e-09	-1.016215e+00	-1.725113e+02
8.200000e-07	-4.076308e-08	-2.382151e-09	-2.875217e-01	-1.589911e+02
8.300000e-07	6.260856e-08	-2.173749e-09	4.416084e-01	-1.451901e+02
8.400000e-07	1.659602e-07	-1.961186e-09	1.170597e+00	-1.310987e+02
8.500000e-07	2.692954e-07	-1.742448e-09	1.899471e+00	-1.167046e+02
8.600000e-07	3.725181e-07	-1.517379e-09	2.627550e+00	-1.019934e+02
8.700000e-07	4.756400e-07	-1.284228e-09	3.354918e+00	-8.694791e+01
8.800000e-07	5.786828e-07	-1.043339e-09	4.081729e+00	-7.154928e+01
8.900000e-07	6.815436e-07	-7.984970e-10	4.807256e+00	-5.577785e+01
9.000000e-07	7.842006e-07	-5.510613e-10	5.531345e+00	-3.961481e+01
9.100000e-07	8.866527e-07	-2.988515e-10	6.253989e+00	-2.304421e+01
9.200000e-07	9.888015e-07	-4.100232e-11	6.974494e+00	-6.055282e+00
9.300000e-07	1.090585e-06	2.218687e-10	7.692420e+00	1.135511e+01
9.400000e-07	1.191936e-06	4.903265e-10	8.407298e+00	2.918010e+01
9.500000e-07	1.292827e-06	7.643463e-10	9.118930e+00	4.740081e+01
9.600000e-07	1.393301e-06	1.042566e-09	9.827625e+00	6.598492e+01
9.700000e-07	1.493364e-06	1.327379e-09	1.053341e+01	8.488605e+01
9.800000e-07	1.592915e-06	1.619361e-09	1.123560e+01	1.040441e+02
9.900000e-07	1.691883e-06	1.915192e-09	1.193367e+01	1.233863e+02
1.000000e-06	1.790147e-06	2.212190e-09	1.262677e+01	1.428300e+02
1.010000e-06	1.887588e-06	2.508291e-09	1.331407e+01	1.622849e+02
1.020000e-06	1.984144e-06	2.802356e-09	1.399513e+01	1.816577e+02
1.030000e-06	2.079883e-06	3.093470e-09	1.467042e+01	2.008551e+02
1.040000e-06	2.174934e-06	3.381192e-09	1.534086e+01	2.197887e+02
1.050000e-06	2.269233e-06	3.661770e-09	1.600600e+01	2.383779e+02
1.060000e-06	2.362740e-06	3.933207e-09	1.666555e+01	2.565532e+02
1.070000e-06	2.455461e-06	4.198158e-09	1.731955e+01	2.742586e+02
1.080000e-06	2.547462e-06	4.457628e-09	1.796848e+01	2.914521e+02
1.090000e-06	2.638722e-06	4.709700e-09	1.861218e+01	3.081065e+02
1.100000e-06	2.728940e-06	4.953997e-09	1.924853e+01	3.242075e+02
1.110000e-06	2.817909e-06	5.190994e-09	1.987607e+01	3.397530e+02
1.120000e-06	2.905773e-06	5.419971e-09	2.049582e+01	3.547498e+02
1.130000e-06	2.992711e-06	5.640177e-09	2.110903e+01	3.692111e+02
1.140000e-06	3.078691e-06	5.852424e-09	2.171549e+01	3.831542e+02
1.150000e-06	3.163664e-06	6.057064e-09	2.231485e+01	3.965970e+02
1.160000e-06	3.247679e-06	6.254001e-09	2.290745e+01	4.095570e+02
1.170000e-06	3.330696e-06	6.443265e-09	2.349301e+01	4.220490e+02
1.180000e-06	3.412494e-06	6.625052e-09	2.406997e+01	4.340849e+02
1.190000e-06	3.492936e-06	6.800952e-09	2.463736e+01	4.456733e+02
1.200000e-06	3.572102e-06	6.970592e-09	2.519576e+01	4.568202e+02
1.210000e-06	3.650050e-06	7.132532e-09	2.574557e+01	4.675300e+02
1.220000e-06	3.726756e-06	7.288525e-09	2.628661e+01	4.778062e+02
1.230000e-06	3.802111e-06	7.439548e-09	2.681812e+01	4.876534e+02
1.240000e-06	3.875869e-06	7.584012e-09	2.733837e+01	4.970775e+02
1.250000e-06	3.948010e-06	7.721589e-09	2.784722e+01	5.060872e+02
1.260000e-06	4.018687e-06	7.852732e-09	2.834574e+01	5.146940e+02
1.270000e-06	4.087956e-06	7.977572e-09	2.883433e+01	5.229119e+02
1.280000e-06	4.155898e-06	8.095910e-09	2.931355e+01	5.307578e+02
1.290000e-06	4.222347e-06	8.207833e-09	2.978225e+01	5.382499e+02
1.300000e-06	4.287041e-06	8.315516e-09	3.023857e+01	5.454075e+02
1.310000e-06	4.350145e-06	8.418491e-09	3.068367e+01	5.522498e+02
1.320000e-06	4.411828e-06	8.517027e-09	3.111875e+01	5.587950e+02
1.330000e-06	4.472132e-06	8.613347e-09	3.154411e+01	5.650597e+02
1.340000e-06	4.530968e-06	8.706099e-09	3.195910e+01	5.710585e+02
1.350000e-06	4.588031e-06	8.793581e-09	3.236159e+01	5.768037e+02
1.360000e-06	4.643321e-06	8.874221e-09	3.275158e+01	5.823052e+02
1.370000e-06	4.696874e-06	8.951980e-09	3.312932e+01	5.875711e+02
1.380000e-06	4.748555e-06	9.029713e-09	3.349385e+01	5.926077e+02
1.390000e-06	4.798220e-06	9.104281e-09	3.384416e+01	5.974199e+02
1.400000e-06	4.845925e-06	9.174380e-09	3.418064e+01	6.020117e+02
1.410000e-06	4.891957e-06	9.240097e-09	3.450533e+01	6.063863e+02
1.420000e-06	4.936488e-06	9.303101e-09	3.481943e+01	6.105464e+02
1.430000e-06	4.979377e-06	9.363173e-09	3.512195e+01	6.144942e+02
1.440000e-06	5.020365e-06	9.420899e-09	3.541105e+01	6.182313e+02
1.450000e-06	5.059541e-06	9.476848e-09	3.568738e+01	6.217589e+02
1.460000e-06	5.097040e-06	9.528271e-09	3.595188e+01	6.250778e+02
1.470000e-06	5.132824e-06	9.574214e-09	3.620429e+01	6.281883e+02
1.480000e-06	5.166744e-06	9.615263e-09	3.644354e+01	6.310905e+02
1.490000e-06	5.198720e-06	9.652085e-09	3.666908e+01	6.337847e+02
1.500000e-06	5.228906e-06	9.684865e-09	3.688200e+01	6.362717e+02
1.510000e-06	5.257461e-06	9.715988e-09	3.708341e+01	6.385529e+02
1.520000e-06	5.284193e-06	9.746143e-09	3.727197e+01	6.406312e+02
1.530000e-06	5.308812e-06	9.773873e-09	3.744561e+01	6.425109e+02
1.540000e-06	5.331423e-06	9.798331e-09	3.760510e+01	6.441978e+02
1.550000e-06	5.352268e-06	9.820615e-09	3.775213e+01	6.456994e+02
1.560000e-06	5.371378e-06	9.840317e-09	3.788692e+01	6.470240e+02
1.570000e-06	5.388499e-06	9.857249e-09	3.800768e+01	6.481806e+02
1.580000e-06	5.403568e-06	9.872182e-09	3.811397e+01	6.491784e+02
1.590000e-06	5.416716e-06	9.884913e-09	3.820671e+01	6.500254e+02
1.600000e-06	5.427769e-06	9.895977e-09	3.828468e+01	6.507285e+02
1.610000e-06	5.436579e-06	9.904982e-09	3.834682e+01	6.512922e+02
1.620000e-06	5.443380e-06	9.911784e-09	3.839478e+01	6.517191e+02
1.630000e-06	5.448407e-06	9.917774e-09	3.843024e+01	6.520092e+02
1.640000e-06	5.451557e-06	9.920965e-09	3.845246e+01	6.521606e+02
1.650000e-06	5.452626e-06	9.919872e-09	3.846000e+01	6.521699e+02
1.660000e-06	5.451722e-06	9.918565e-09	3.845363e+01	6.520332e+02
1.670000e-06	5.449088e-06	9.915225e-09	3.843504e+01	6.517470e+02
1.680000e-06	5.444803e-06	9.908205e-09	3.840482e+01	6.513092e+02
1.690000e-06	5.438726e-06	9.898198e-09	3.836196e+01	6.507196e+02
1.700000e-06	5.430820e-06	9.886098e-09	3.830619e+01	6.499811e+02
1.710000e-06	5.421278e-06	9.874015e-09	3.823889e+01	6.490991e+02
1.720000e-06	5.410056e-06	9.858416e-09	3.815974e+01	6.480821e+02
1.730000e-06	5.396970e-06	9.830939e-09	3.806744e+01	6.469407e+02
1.740000e-06	5.381796e-06	9.819691e-09	3.796040e+01	6.456866e+02
1.750000e-06	5.364313e-06	9.784884e-09	3.783709e+01	6.443320e+02
1.760000e-06	5.344223e-06	9.763225e-09	3.769539e+01	6.428875e+02
1.770000e-06	5.321610e-06	9.769414e-09	3.753588e+01	6.413617e+02
1.780000e-06	5.297361e-06	9.721521e-09	3.736484e+01	6.397597e+02
1.790000e-06	5.272251e-06	9.719216e-09	3.718773e+01	6.380826e+02
1.800000e-06	5.246023e-06	9.692787e-09	3.700273e+01	6.363273e+02
1.810000e-06	5.217786e-06	9.604497e-09	3.680356e+01	6.344865e+02
1.820000e-06	5.187490e-06	9.635552e-09	3.658987e+01	6.325493e+02
1.830000e-06	5.155535e-06	9.594114e-09	3.636447e+01	6.305025e+02
1.840000e-06	5.121714e-06	9.530751e-09	3.612592e+01	6.283314e+02
1.850000e-06	5.086127e-06	9.605219e-09	3.587491e+01	6.260213e+02
1.860000e-06	5.048856e-06	9.539160e-09	3.561202e+01	6.235591e+02
1.870000e-06	5.009637e-06	9.438530e-09	3.533539e+01	6.209339e+02
1.880000e-06	4.968672e-06	9.383365e-09	3.504644e+01	6.181380e+02
1.890000e-06	4.925944e-06	9.313640e-09	3.474506e+01	6.151674e+02
1.900000e-06	4.881497e-06	9.373529e-09	3.443156e+01	6.120220e+02
1.910000e-06	4.835377e-06	9.314075e-09	3.410625e+01	6.087046e+02
1.920000e-06	4.787233e-06	9.184325e-09	3.376666e+01	6.052209e+02
1.930000e-06	4.737272e-06	9.164209e-09	3.341427e+01	6.015786e+02
1.940000e-06	4.685615e-06	9.065140e-09	3.304990e+01	5.977857e+02
1.950000e-06	4.631921e-06	9.036479e-09	3.267117e+01	5.938505e+02
1.960000e-06	4.576208e-06	9.018354e-09	3.227820e+01	5.897800e+02
1.970000e-06	4.518711e-06	8.935676e-09	3.187265e+01	5.855796e+02
1.980000e-06	4.459687e-06	8.850974e-09	3.145632e+01	5.812527e+02
1.990000e-06	4.399205e-06	8.736305e-09	3.102972e+01	5.768006e+02
2.000000e-06	4.337070e-06	8.723624e-09	3.059145e+01	5.722226e+02
2.010000e-06	4.273297e-06	8.659533e-09	3.014163e+01	5.675165e+02
2.020000e-06	4.207973e-06	8.550073e-09	2.968086e+01	5.626786e+02
2.030000e-06	4.141139e-06	8.496574e-09	2.920945e+01	5.577048e+02
2.040000e-06	4.072835e-06	8.408842e-09	2.872767e+01	5.525909e+02
2.050000e-06	4.003007e-06	8.345401e-09	2.823514e+01	5.473328e+02
2.060000e-06	3.931685e-06	8.255143e-09	2.773207e+01	5.419270e+02
2.070000e-06	3.859005e-06	8.183672e-09	2.721942e+01	5.363709e+02
2.080000e-06	3.785041e-06	8.093758e-09	2.669772e+01	5.306627e+02
2.090000e-06	3.709663e-06	7.957793e-09	2.616605e+01	5.248010e+02
2.100000e-06	3.632781e-06	7.883090e-09	2.562376e+01	5.187853e+02
2.110000e-06	3.554413e-06	7.820698e-09	2.507099e+01	5.126153e+02
2.120000e-06	3.474616e-06	7.745278e-09	2.450814e+01	5.062909e+02
2.130000e-06	3.393611e-06	7.616987e-09	2.393678e+01	4.998119e+02
2.140000e-06	3.311512e-06	7.497127e-09	2.335769e+01	4.931779e+02
2.150000e-06	3.228307e-06	7.395397e-09	2.277081e+01	4.863883e+02
2.160000e-06	3.143979e-06	7.290470e-09	2.217600e+01	4.794422e+02
2.170000e-06	3.058518e-06	7.214601e-09	2.157321e+01	4.723382e+02
2.180000e-06	2.971786e-06	7.107509e-09	2.096144e+01	4.650748e+02
2.190000e-06	2.883816e-06	6.976583e-09	2.034095e+01	4.576500e+02
2.200000e-06	2.794888e-06	6.843704e-09	1.971369e+01	4.500615e+02
2.210000e-06	2.705008e-06	6.735122e-09	1.907973e+01	4.423068e+02
2.220000e-06	2.614234e-06	6.634823e-09	1.843946e+01	4.343830e+02
2.230000e-06	2.522564e-06	6.510543e-09	1.779286e+01	4.262870e+02
2.240000e-06	2.429971e-06	6.379396e-09	1.713976e+01	4.180155e+02
2.250000e-06	2.336504e-06	6.246152e-09	1.648049e+01	4.095650e+02
2.260000e-06	2.242153e-06	6.112613e-09	1.581499e+01	4.009318e+02
2.270000e-06	2.146932e-06	5.981674e-09	1.514335e+01	3.921122e+02
2.280000e-06	2.050821e-06	5.856164e-09	1.446543e+01	3.831026e+02
2.290000e-06	1.953972e-06	5.711184e-09	1.378231e+01	3.738996e+02
2.300000e-06	1.856476e-06	5.554278e-09	1.309462e+01	3.644998e+02
2.310000e-06	1.758435e-06	5.409297e-09	1.240309e+01	3.549002e+02
2.320000e-06	1.659942e-06	5.275902e-09	1.170837e+01	3.450980e+02
2.330000e-06	1.560955e-06	5.134990e-09	1.101017e+01	3.350903e+02
2.340000e-06	1.461486e-06	4.975094e-09	1.030857e+01	3.248744e+02
2.350000e-06	1.361495e-06	4.807701e-09	9.603281e+00	3.144474e+02
2.360000e-06	1.261022e-06	4.640771e-09	8.894595e+00	3.038059e+02
2.370000e-06	1.160160e-06	4.481623e-09	8.183172e+00	2.929465e+02
2.380000e-06	1.058922e-06	4.326386e-09	7.469090e+00	2.818649e+02
2.390000e-06	9.573008e-07	4.160999e-09	6.752304e+00	2.705566e+02
2.400000e-06	8.553095e-07	3.977146e-09	6.032911e+00	2.590167e+02
2.410000e-06	7.529882e-07	3.787467e-09	5.311189e+00	2.472400e+02
2.420000e-06	6.503612e-07	3.605064e-09	4.587311e+00	2.352213e+02
2.430000e-06	5.474195e-07	3.428566e-09	3.861214e+00	2.229555e+02
2.440000e-06	4.442058e-07	3.247074e-09	3.133198e+00	2.104375e+02
2.450000e-06	3.408491e-07	3.051325e-09	2.404173e+00	1.976623e+02
2.460000e-06	2.373175e-07	2.844654e-09	1.673915e+00	1.846248e+02
2.470000e-06	1.336167e-07	2.637098e-09	9.424632e-01	1.713193e+02
2.480000e-06	2.986251e-08	2.432877e-09	2.106347e-01	1.577393e+02
2.490000e-06	-7.390501e-08	2.226843e-09	-5.212877e-01	1.438766e+02
2.500000e-06	-1.776187e-07	2.011159e-09	-1.252830e+00	1.297210e+02
2.510000e-06	-2.812526e-07	1.784973e-09	-1.983810e+00	1.152600e+02
2.520000e-06	-3.847773e-07	1.556979e-09	-2.714020e+00	1.004783e+02
2.530000e-06	-4.881282e-07	1.330766e-09	-3.443003e+00	8.535844e+01
2.540000e-06	-5.912986e-07	1.102038e-09	-4.170714e+00	6.988123e+01
2.550000e-06	-6.943052e-07	8.642270e-10	-4.897269e+00	5.402705e+01
2.560000e-06	-7.970225e-07	6.116256e-10	-5.621784e+00	3.777753e+01
2.570000e-06	-8.993123e-07	3.493584e-10	-6.343283e+00	2.111762e+01
2.580000e-06	-1.001149e-06	8.744375e-11	-7.061588e+00	4.037982e+00
2.590000e-06	-1.102573e-06	-1.737358e-10	-7.776982e+00	-1.346257e+01
2.600000e-06	-1.203533e-06	-4.419011e-10	-8.489096e+00	-3.137473e+01
2.610000e-06	-1.303972e-06	-7.236951e-10	-9.197546e+00	-4.967686e+01
2.620000e-06	-1.403879e-06	-1.015422e-09	-9.902237e+00	-6.833364e+01
2.630000e-06	-1.503284e-06	-1.307822e-09	-1.060339e+01	-8.729568e+01
2.640000e-06	-1.602251e-06	-1.598054e-09	-1.130145e+01	-1.065000e+02
2.650000e-06	-1.700701e-06	-1.891443e-09	-1.199587e+01	-1.258716e+02
2.660000e-06	-1.798510e-06	-2.192572e-09	-1.268576e+01	-1.453258e+02
2.670000e-06	-1.895648e-06	-2.496985e-09	-1.337092e+01	-1.647714e+02
2.680000e-06	-1.992176e-06	-2.796860e-09	-1.405178e+01	-1.841147e+02
2.690000e-06	-2.088133e-06	-3.089006e-09	-1.472861e+01	-2.032632e+02
2.700000e-06	-2.183455e-06	-3.375105e-09	-1.540096e+01	-2.221297e+02
2.710000e-06	-2.277944e-06	-3.658282e-09	-1.606744e+01	-2.406360e+02
2.720000e-06	-2.371455e-06	-3.937930e-09	-1.672702e+01	-2.587153e+02
2.730000e-06	-2.463948e-06	-4.209006e-09	-1.737941e+01	-2.763143e+02
2.740000e-06	-2.555481e-06	-4.468737e-09	-1.802504e+01	-2.933945e+02
2.750000e-06	-2.646104e-06	-4.718722e-09	-1.866425e+01	-3.099314e+02
2.760000e-06	-2.735783e-06	-4.962102e-09	-1.929680e+01	-3.259136e+02
2.770000e-06	-2.824591e-06	-5.199873e-09	-1.992320e+01	-3.413410e+02
2.780000e-06	-2.912587e-06	-5.431288e-09	-2.054388e+01	-3.562221e+02
2.790000e-06	-2.999641e-06	-5.654891e-09	-2.115792e+01	-3.705712e+02
2.800000e-06	-3.085478e-06	-5.869001e-09	-2.176336e+01	-3.844059e+02
2.810000e-06	-3.170089e-06	-6.073892e-09	-2.236016e+01	-3.977442e+02
2.820000e-06	-3.253621e-06	-6.271431e-09	-2.294936e+01	-4.106031e+02
2.830000e-06	-3.336054e-06	-6.462983e-09	-2.353080e+01	-4.229969e+02
2.840000e-06	-3.417419e-06	-6.644839e-09	-2.410471e+01	-4.349366e+02
2.850000e-06	-3.497723e-06	-6.816669e-09	-2.467113e+01	-4.464303e+02
2.860000e-06	-3.576748e-06	-6.979820e-09	-2.522853e+01	-4.574836e+02
2.870000e-06	-3.654253e-06	-7.137578e-09	-2.577521e+01	-4.681005e+02
2.880000e-06	-3.730205e-06	-7.292743e-09	-2.631093e+01	-4.782847e+02
2.890000e-06	-3.804719e-06	-7.443328e-09	-2.683652e+01	-4.880410e+02
2.900000e-06	-3.877866e-06	-7.589033e-09	-2.735246e+01	-4.973759e+02
2.910000e-06	-3.949645e-06	-7.728374e-09	-2.785875e+01	-5.062985e+02
2.920000e-06	-4.019949e-06	-7.859711e-09	-2.835464e+01	-5.148210e+02
2.930000e-06	-4.088655e-06	-7.984416e-09	-2.883926e+01	-5.229581e+02
2.940000e-06	-4.155886e-06	-8.104702e-09	-2.931347e+01	-5.307269e+02
