# Temperatura_=_69.95
# Concentracion g/m^3_=_15000.0
# C_Vs_to_Am_M_A/Vsm_=_65563218390.804596
# pendiente_HvsI_1/m_=_3716.3
# ordenada_HvsI_A/m_=_1297.0
# frecuencia_Hz_=_301599.0285143676

Tiempo_(s)	Campo_(V.s)	Magnetizacion_(V.s)	Campo_(kA/m)	Magnetizacion_(A/m)
0.000000e+00	-5.425610e-06	-9.205536e-09	-3.833599e+01	-6.004443e+02
1.000000e-08	-5.422806e-06	-9.199754e-09	-3.831618e+01	-6.001745e+02
2.000000e-08	-5.418209e-06	-9.191584e-09	-3.828370e+01	-5.997733e+02
3.000000e-08	-5.411977e-06	-9.184765e-09	-3.823966e+01	-5.992374e+02
4.000000e-08	-5.404172e-06	-9.171138e-09	-3.818451e+01	-5.985656e+02
5.000000e-08	-5.394451e-06	-9.153087e-09	-3.811583e+01	-5.977600e+02
6.000000e-08	-5.382660e-06	-9.133899e-09	-3.803252e+01	-5.968265e+02
7.000000e-08	-5.369045e-06	-9.103474e-09	-3.793631e+01	-5.957747e+02
8.000000e-08	-5.353320e-06	-9.130607e-09	-3.782521e+01	-5.946180e+02
9.000000e-08	-5.335278e-06	-9.174141e-09	-3.769773e+01	-5.933715e+02
1.000000e-07	-5.315145e-06	-9.112443e-09	-3.755547e+01	-5.920516e+02
1.100000e-07	-5.293100e-06	-9.062707e-09	-3.739971e+01	-5.906731e+02
1.200000e-07	-5.269363e-06	-8.998099e-09	-3.723199e+01	-5.892480e+02
1.300000e-07	-5.244044e-06	-8.861563e-09	-3.705309e+01	-5.877836e+02
1.400000e-07	-5.217074e-06	-9.023919e-09	-3.686253e+01	-5.862812e+02
1.500000e-07	-5.188514e-06	-9.031248e-09	-3.666073e+01	-5.847353e+02
1.600000e-07	-5.158518e-06	-8.821147e-09	-3.644879e+01	-5.831339e+02
1.700000e-07	-5.126908e-06	-8.958306e-09	-3.622543e+01	-5.814596e+02
1.800000e-07	-5.093184e-06	-8.846028e-09	-3.598715e+01	-5.796906e+02
1.900000e-07	-5.057643e-06	-8.704294e-09	-3.573603e+01	-5.778030e+02
2.000000e-07	-5.020602e-06	-8.884787e-09	-3.547431e+01	-5.757735e+02
2.100000e-07	-4.981757e-06	-8.759357e-09	-3.519984e+01	-5.735811e+02
2.200000e-07	-4.941027e-06	-8.647485e-09	-3.491205e+01	-5.712096e+02
2.300000e-07	-4.898328e-06	-8.706989e-09	-3.461035e+01	-5.686490e+02
2.400000e-07	-4.853744e-06	-8.612278e-09	-3.429533e+01	-5.658961e+02
2.500000e-07	-4.807388e-06	-8.592859e-09	-3.396779e+01	-5.629547e+02
2.600000e-07	-4.759019e-06	-8.521329e-09	-3.362602e+01	-5.598346e+02
2.700000e-07	-4.708523e-06	-8.445606e-09	-3.326924e+01	-5.565501e+02
2.800000e-07	-4.655988e-06	-8.425000e-09	-3.289803e+01	-5.531182e+02
2.900000e-07	-4.601657e-06	-8.345668e-09	-3.251415e+01	-5.495565e+02
3.000000e-07	-4.545834e-06	-8.313605e-09	-3.211972e+01	-5.458805e+02
3.100000e-07	-4.488264e-06	-8.282091e-09	-3.171294e+01	-5.421027e+02
3.200000e-07	-4.428807e-06	-8.222865e-09	-3.129284e+01	-5.382305e+02
3.300000e-07	-4.367765e-06	-8.120567e-09	-3.086152e+01	-5.342663e+02
3.400000e-07	-4.305328e-06	-8.049945e-09	-3.042036e+01	-5.302070e+02
3.500000e-07	-4.241495e-06	-8.040672e-09	-2.996933e+01	-5.260454e+02
3.600000e-07	-4.176042e-06	-7.952458e-09	-2.950686e+01	-5.217710e+02
3.700000e-07	-4.108901e-06	-7.870238e-09	-2.903245e+01	-5.173716e+02
3.800000e-07	-4.040229e-06	-7.817110e-09	-2.854724e+01	-5.128354e+02
3.900000e-07	-3.970214e-06	-7.728245e-09	-2.805253e+01	-5.081521e+02
4.000000e-07	-3.899029e-06	-7.651023e-09	-2.754955e+01	-5.033140e+02
4.100000e-07	-3.826549e-06	-7.576249e-09	-2.703743e+01	-4.983169e+02
4.200000e-07	-3.752453e-06	-7.526131e-09	-2.651389e+01	-4.931602e+02
4.300000e-07	-3.676779e-06	-7.432162e-09	-2.597919e+01	-4.878463e+02
4.400000e-07	-3.599635e-06	-7.327596e-09	-2.543411e+01	-4.823797e+02
4.500000e-07	-3.520997e-06	-7.248148e-09	-2.487847e+01	-4.767664e+02
4.600000e-07	-3.440979e-06	-7.171272e-09	-2.431309e+01	-4.710120e+02
4.700000e-07	-3.359727e-06	-7.086105e-09	-2.373898e+01	-4.651212e+02
4.800000e-07	-3.277334e-06	-6.978754e-09	-2.315682e+01	-4.590965e+02
4.900000e-07	-3.193900e-06	-6.895475e-09	-2.256729e+01	-4.529381e+02
5.000000e-07	-3.109454e-06	-6.801926e-09	-2.197062e+01	-4.466434e+02
5.100000e-07	-3.024020e-06	-6.697416e-09	-2.136696e+01	-4.402077e+02
5.200000e-07	-2.937582e-06	-6.594573e-09	-2.075621e+01	-4.336249e+02
5.300000e-07	-2.850199e-06	-6.488781e-09	-2.013878e+01	-4.268881e+02
5.400000e-07	-2.761900e-06	-6.378063e-09	-1.951489e+01	-4.199905e+02
5.500000e-07	-2.672467e-06	-6.265222e-09	-1.888298e+01	-4.129265e+02
5.600000e-07	-2.581838e-06	-6.158892e-09	-1.824261e+01	-4.056920e+02
5.700000e-07	-2.490201e-06	-6.051433e-09	-1.759513e+01	-3.982848e+02
5.800000e-07	-2.397694e-06	-5.938475e-09	-1.694150e+01	-3.907042e+02
5.900000e-07	-2.304358e-06	-5.817550e-09	-1.628201e+01	-3.829513e+02
6.000000e-07	-2.210231e-06	-5.694455e-09	-1.561693e+01	-3.750274e+02
6.100000e-07	-2.115389e-06	-5.568659e-09	-1.494681e+01	-3.669342e+02
6.200000e-07	-2.019851e-06	-5.443337e-09	-1.427176e+01	-3.586721e+02
6.300000e-07	-1.923534e-06	-5.314167e-09	-1.359121e+01	-3.502403e+02
6.400000e-07	-1.826347e-06	-5.178934e-09	-1.290451e+01	-3.416361e+02
6.500000e-07	-1.728318e-06	-5.040674e-09	-1.221186e+01	-3.328546e+02
6.600000e-07	-1.629616e-06	-4.898802e-09	-1.151446e+01	-3.238894e+02
6.700000e-07	-1.530361e-06	-4.758290e-09	-1.081315e+01	-3.147324e+02
6.800000e-07	-1.430624e-06	-4.618401e-09	-1.010843e+01	-3.053753e+02
6.900000e-07	-1.330446e-06	-4.475533e-09	-9.400599e+00	-2.958098e+02
7.000000e-07	-1.229820e-06	-4.325937e-09	-8.689600e+00	-2.860283e+02
7.100000e-07	-1.128857e-06	-4.170687e-09	-7.976220e+00	-2.760252e+02
7.200000e-07	-1.027586e-06	-4.009475e-09	-7.260665e+00	-2.657963e+02
7.300000e-07	-9.259369e-07	-3.847890e-09	-6.542437e+00	-2.553397e+02
7.400000e-07	-8.239549e-07	-3.682976e-09	-5.821857e+00	-2.446550e+02
7.500000e-07	-7.216522e-07	-3.512246e-09	-5.099013e+00	-2.337433e+02
7.600000e-07	-6.190850e-07	-3.338851e-09	-4.374298e+00	-2.226059e+02
7.700000e-07	-5.163681e-07	-3.163800e-09	-3.648527e+00	-2.112439e+02
7.800000e-07	-4.135415e-07	-2.989616e-09	-2.921980e+00	-1.996570e+02
7.900000e-07	-3.106033e-07	-2.810660e-09	-2.194644e+00	-1.878430e+02
8.000000e-07	-2.075249e-07	-2.625551e-09	-1.466319e+00	-1.757972e+02
8.100000e-07	-1.043746e-07	-2.435743e-09	-7.374847e-01	-1.635119e+02
8.200000e-07	-1.233097e-09	-2.243432e-09	-8.712753e-03	-1.509762e+02
8.300000e-07	1.019320e-07	-2.049213e-09	7.202258e-01	-1.381767e+02
8.400000e-07	2.050762e-07	-1.851656e-09	1.449017e+00	-1.250975e+02
8.500000e-07	3.081486e-07	-1.648519e-09	2.177300e+00	-1.117209e+02
8.600000e-07	4.112015e-07	-1.439572e-09	2.905446e+00	-9.802845e+01
8.700000e-07	5.141675e-07	-1.225165e-09	3.632977e+00	-8.400178e+01
8.800000e-07	6.169619e-07	-1.005198e-09	4.359297e+00	-6.962365e+01
8.900000e-07	7.196333e-07	-7.793884e-10	5.084747e+00	-5.487902e+01
9.000000e-07	8.221039e-07	-5.477964e-10	5.808779e+00	-3.975624e+01
9.100000e-07	9.242868e-07	-3.118865e-10	6.530777e+00	-2.424822e+01
9.200000e-07	1.026155e-06	-6.987610e-11	7.250549e+00	-8.353567e+00
9.300000e-07	1.127624e-06	1.765232e-10	7.967506e+00	7.922242e+00
9.400000e-07	1.228683e-06	4.277758e-10	8.681565e+00	2.456577e+01
9.500000e-07	1.329304e-06	6.849603e-10	9.392529e+00	4.155472e+01
9.600000e-07	1.429504e-06	9.460679e-10	1.010052e+01	5.885722e+01
9.700000e-07	1.529300e-06	1.211666e-09	1.080565e+01	7.643150e+01
9.800000e-07	1.628570e-06	1.480144e-09	1.150707e+01	9.422598e+01
9.900000e-07	1.727103e-06	1.751527e-09	1.220327e+01	1.121799e+02
1.000000e-06	1.824826e-06	2.024019e-09	1.289376e+01	1.302246e+02
1.010000e-06	1.921745e-06	2.297426e-09	1.357857e+01	1.482852e+02
1.020000e-06	2.017807e-06	2.571322e-09	1.425732e+01	1.662831e+02
1.030000e-06	2.113059e-06	2.843012e-09	1.493034e+01	1.841385e+02
1.040000e-06	2.207593e-06	3.110482e-09	1.559830e+01	2.017735e+02
1.050000e-06	2.301375e-06	3.370708e-09	1.626094e+01	2.191152e+02
1.060000e-06	2.394367e-06	3.624582e-09	1.691799e+01	2.360983e+02
1.070000e-06	2.486655e-06	3.873009e-09	1.757008e+01	2.526673e+02
1.080000e-06	2.578189e-06	4.117109e-09	1.821683e+01	2.687784e+02
1.090000e-06	2.668789e-06	4.355308e-09	1.885699e+01	2.844000e+02
1.100000e-06	2.758246e-06	4.585296e-09	1.948907e+01	2.995130e+02
1.110000e-06	2.846569e-06	4.804920e-09	2.011314e+01	3.141094e+02
1.120000e-06	2.933893e-06	5.016341e-09	2.073014e+01	3.281910e+02
1.130000e-06	3.020295e-06	5.224768e-09	2.134064e+01	3.417671e+02
1.140000e-06	3.105732e-06	5.426658e-09	2.194432e+01	3.548515e+02
1.150000e-06	3.190228e-06	5.617723e-09	2.254135e+01	3.674608e+02
1.160000e-06	3.273798e-06	5.800969e-09	2.313183e+01	3.796113e+02
1.170000e-06	3.356230e-06	5.980722e-09	2.371428e+01	3.913174e+02
1.180000e-06	3.437373e-06	6.154315e-09	2.428761e+01	4.025906e+02
1.190000e-06	3.517177e-06	6.320023e-09	2.485148e+01	4.134390e+02
1.200000e-06	3.595694e-06	6.477582e-09	2.540627e+01	4.238673e+02
1.210000e-06	3.673009e-06	6.628535e-09	2.595255e+01	4.338780e+02
1.220000e-06	3.749073e-06	6.772459e-09	2.649001e+01	4.434725e+02
1.230000e-06	3.823616e-06	6.911284e-09	2.701670e+01	4.526527e+02
1.240000e-06	3.896501e-06	7.046123e-09	2.753170e+01	4.614223e+02
1.250000e-06	3.967926e-06	7.175565e-09	2.803636e+01	4.697885e+02
1.260000e-06	4.037976e-06	7.297768e-09	2.853132e+01	4.777618e+02
1.270000e-06	4.106632e-06	7.413126e-09	2.901642e+01	4.853573e+02
1.280000e-06	4.173912e-06	7.522682e-09	2.949181e+01	4.925935e+02
1.290000e-06	4.239597e-06	7.624759e-09	2.995592e+01	4.994917e+02
1.300000e-06	4.303575e-06	7.721619e-09	3.040798e+01	5.060747e+02
1.310000e-06	4.366045e-06	7.814935e-09	3.084937e+01	5.123652e+02
1.320000e-06	4.427122e-06	7.905548e-09	3.128093e+01	5.183844e+02
1.330000e-06	4.486809e-06	7.993756e-09	3.170266e+01	5.241510e+02
1.340000e-06	4.544848e-06	8.080374e-09	3.211275e+01	5.296795e+02
1.350000e-06	4.601077e-06	8.162999e-09	3.251005e+01	5.349806e+02
1.360000e-06	4.655670e-06	8.238408e-09	3.289579e+01	5.400610e+02
1.370000e-06	4.708604e-06	8.309169e-09	3.326981e+01	5.449236e+02
1.380000e-06	4.759484e-06	8.378336e-09	3.362932e+01	5.495687e+02
1.390000e-06	4.808257e-06	8.446864e-09	3.397393e+01	5.539954e+02
1.400000e-06	4.855247e-06	8.511530e-09	3.430595e+01	5.582018e+02
1.410000e-06	4.900602e-06	8.570629e-09	3.462641e+01	5.621873e+02
1.420000e-06	4.944458e-06	8.626035e-09	3.493629e+01	5.659520e+02
1.430000e-06	4.986514e-06	8.679515e-09	3.523345e+01	5.694984e+02
1.440000e-06	5.026638e-06	8.732733e-09	3.551696e+01	5.728303e+02
1.450000e-06	5.065122e-06	8.782312e-09	3.578888e+01	5.759534e+02
1.460000e-06	5.101979e-06	8.825804e-09	3.604929e+01	5.788740e+02
1.470000e-06	5.137112e-06	8.864365e-09	3.629754e+01	5.815989e+02
1.480000e-06	5.170287e-06	8.899771e-09	3.653194e+01	5.841346e+02
1.490000e-06	5.201551e-06	8.931135e-09	3.675285e+01	5.864866e+02
1.500000e-06	5.231099e-06	8.960053e-09	3.696162e+01	5.886593e+02
1.510000e-06	5.258985e-06	8.988154e-09	3.715866e+01	5.906560e+02
1.520000e-06	5.284935e-06	9.014995e-09	3.734202e+01	5.924790e+02
1.530000e-06	5.308733e-06	9.040381e-09	3.751017e+01	5.941302e+02
1.540000e-06	5.330624e-06	9.063273e-09	3.766484e+01	5.956120e+02
1.550000e-06	5.350784e-06	9.083217e-09	3.780729e+01	5.969271e+02
1.560000e-06	5.369102e-06	9.099364e-09	3.793672e+01	5.980796e+02
1.570000e-06	5.385416e-06	9.112627e-09	3.805199e+01	5.990748e+02
1.580000e-06	5.399758e-06	9.125030e-09	3.815333e+01	5.999194e+02
1.590000e-06	5.412079e-06	9.136644e-09	3.824038e+01	6.006206e+02
1.600000e-06	5.422160e-06	9.146440e-09	3.831161e+01	6.011860e+02
1.610000e-06	5.430113e-06	9.153606e-09	3.836781e+01	6.016225e+02
1.620000e-06	5.436168e-06	9.159055e-09	3.841059e+01	6.019355e+02
1.630000e-06	5.440461e-06	9.163118e-09	3.844093e+01	6.021285e+02
1.640000e-06	5.442838e-06	9.165628e-09	3.845772e+01	6.022023e+02
1.650000e-06	5.443161e-06	9.167052e-09	3.846000e+01	6.021558e+02
1.660000e-06	5.441708e-06	9.161344e-09	3.844974e+01	6.019857e+02
1.670000e-06	5.438625e-06	9.157291e-09	3.842795e+01	6.016877e+02
1.680000e-06	5.433813e-06	9.151700e-09	3.839395e+01	6.012574e+02
1.690000e-06	5.427068e-06	9.142041e-09	3.834629e+01	6.006920e+02
1.700000e-06	5.418493e-06	9.132597e-09	3.828571e+01	5.999908e+02
1.710000e-06	5.408318e-06	9.124076e-09	3.821381e+01	5.991567e+02
1.720000e-06	5.396433e-06	9.131119e-09	3.812984e+01	5.981965e+02
1.730000e-06	5.382528e-06	9.097537e-09	3.803159e+01	5.971206e+02
1.740000e-06	5.366551e-06	8.994106e-09	3.791869e+01	5.959428e+02
1.750000e-06	5.348238e-06	9.010386e-09	3.778930e+01	5.946788e+02
1.760000e-06	5.327155e-06	9.013894e-09	3.764034e+01	5.933447e+02
1.770000e-06	5.303793e-06	9.049023e-09	3.747526e+01	5.919549e+02
1.780000e-06	5.279191e-06	9.129633e-09	3.730143e+01	5.905206e+02
1.790000e-06	5.253863e-06	8.871281e-09	3.712247e+01	5.890477e+02
1.800000e-06	5.227043e-06	8.914309e-09	3.693297e+01	5.875362e+02
1.810000e-06	5.197850e-06	9.008647e-09	3.672670e+01	5.859792e+02
1.820000e-06	5.166857e-06	8.751935e-09	3.650771e+01	5.843634e+02
1.830000e-06	5.134294e-06	8.934885e-09	3.627762e+01	5.826703e+02
1.840000e-06	5.099825e-06	8.931614e-09	3.603408e+01	5.808774e+02
1.850000e-06	5.063724e-06	8.645015e-09	3.577900e+01	5.789609e+02
1.860000e-06	5.025793e-06	8.844342e-09	3.551098e+01	5.768977e+02
1.870000e-06	4.986002e-06	8.759284e-09	3.522983e+01	5.746677e+02
1.880000e-06	4.944532e-06	8.623324e-09	3.493682e+01	5.722559e+02
1.890000e-06	4.901200e-06	8.735546e-09	3.463064e+01	5.696537e+02
1.900000e-06	4.856216e-06	8.558599e-09	3.431280e+01	5.668594e+02
1.910000e-06	4.809391e-06	8.630211e-09	3.398194e+01	5.638783e+02
1.920000e-06	4.760571e-06	8.546522e-09	3.363699e+01	5.607211e+02
1.930000e-06	4.710121e-06	8.386311e-09	3.328052e+01	5.574031e+02
1.940000e-06	4.657737e-06	8.533541e-09	3.291039e+01	5.539416e+02
1.950000e-06	4.603268e-06	8.359036e-09	3.252553e+01	5.503537e+02
1.960000e-06	4.546958e-06	8.271423e-09	3.212766e+01	5.466546e+02
1.970000e-06	4.488961e-06	8.250814e-09	3.171786e+01	5.428556e+02
1.980000e-06	4.429559e-06	8.199273e-09	3.129814e+01	5.389633e+02
1.990000e-06	4.368528e-06	8.201141e-09	3.086692e+01	5.349787e+02
2.000000e-06	4.305768e-06	8.011381e-09	3.042347e+01	5.308978e+02
2.010000e-06	4.241496e-06	8.044585e-09	2.996934e+01	5.267125e+02
2.020000e-06	4.175716e-06	7.970828e-09	2.950455e+01	5.224119e+02
2.030000e-06	4.108548e-06	7.819376e-09	2.902996e+01	5.179838e+02
2.040000e-06	4.039858e-06	7.837893e-09	2.854462e+01	5.134164e+02
2.050000e-06	3.969582e-06	7.755149e-09	2.804807e+01	5.087000e+02
2.060000e-06	3.897882e-06	7.696599e-09	2.754145e+01	5.038276e+02
2.070000e-06	3.824830e-06	7.542417e-09	2.702528e+01	4.987959e+02
2.080000e-06	3.750499e-06	7.485231e-09	2.650008e+01	4.936047e+02
2.090000e-06	3.674784e-06	7.467502e-09	2.596510e+01	4.882572e+02
2.100000e-06	3.597451e-06	7.348913e-09	2.541868e+01	4.827582e+02
2.110000e-06	3.518587e-06	7.269687e-09	2.486145e+01	4.771138e+02
2.120000e-06	3.438542e-06	7.166672e-09	2.429587e+01	4.713294e+02
2.130000e-06	3.357310e-06	7.099381e-09	2.372191e+01	4.654094e+02
2.140000e-06	3.274907e-06	6.977211e-09	2.313967e+01	4.593557e+02
2.150000e-06	3.191492e-06	6.890210e-09	2.255028e+01	4.531678e+02
2.160000e-06	3.106938e-06	6.818984e-09	2.195284e+01	4.468430e+02
2.170000e-06	3.021046e-06	6.705784e-09	2.134595e+01	4.403759e+02
2.180000e-06	2.933946e-06	6.606646e-09	2.073052e+01	4.337603e+02
2.190000e-06	2.845840e-06	6.495389e-09	2.010799e+01	4.269891e+02
2.200000e-06	2.756742e-06	6.413173e-09	1.947844e+01	4.200559e+02
2.210000e-06	2.666681e-06	6.301291e-09	1.884209e+01	4.129552e+02
2.220000e-06	2.575746e-06	6.178291e-09	1.819957e+01	4.056833e+02
2.230000e-06	2.484019e-06	6.059353e-09	1.755145e+01	3.982385e+02
2.240000e-06	2.391391e-06	5.947471e-09	1.689697e+01	3.906205e+02
2.250000e-06	2.297781e-06	5.838535e-09	1.623554e+01	3.828303e+02
2.260000e-06	2.203252e-06	5.716169e-09	1.556762e+01	3.748696e+02
2.270000e-06	2.107863e-06	5.590330e-09	1.489363e+01	3.667397e+02
2.280000e-06	2.011628e-06	5.461043e-09	1.421366e+01	3.584410e+02
2.290000e-06	1.914661e-06	5.336289e-09	1.352851e+01	3.499721e+02
2.300000e-06	1.817182e-06	5.208101e-09	1.283975e+01	3.413300e+02
2.310000e-06	1.719162e-06	5.084443e-09	1.214716e+01	3.325093e+02
2.320000e-06	1.620582e-06	4.948860e-09	1.145062e+01	3.235032e+02
2.330000e-06	1.521535e-06	4.801265e-09	1.075078e+01	3.143036e+02
2.340000e-06	1.422077e-06	4.649944e-09	1.004804e+01	3.049021e+02
2.350000e-06	1.322255e-06	4.502842e-09	9.342722e+00	2.952904e+02
2.360000e-06	1.222019e-06	4.361716e-09	8.634476e+00	2.854615e+02
2.370000e-06	1.121327e-06	4.212097e-09	7.923013e+00	2.754098e+02
2.380000e-06	1.020110e-06	4.053291e-09	7.207842e+00	2.651318e+02
2.390000e-06	9.184424e-07	3.895293e-09	6.489482e+00	2.546258e+02
2.400000e-06	8.164286e-07	3.739787e-09	5.768678e+00	2.438920e+02
2.410000e-06	7.140383e-07	3.577646e-09	5.045214e+00	2.329314e+02
2.420000e-06	6.113139e-07	3.407130e-09	4.319390e+00	2.217453e+02
2.430000e-06	5.083453e-07	3.228803e-09	3.591839e+00	2.103347e+02
2.440000e-06	4.052278e-07	3.049934e-09	2.863237e+00	1.986990e+02
2.450000e-06	3.019704e-07	2.868607e-09	2.133647e+00	1.868354e+02
2.460000e-06	1.985630e-07	2.687042e-09	1.402996e+00	1.747386e+02
2.470000e-06	9.503332e-08	2.505134e-09	6.714815e-01	1.624002e+02
2.480000e-06	-8.539501e-09	2.312154e-09	-6.033796e-02	1.498088e+02
2.490000e-06	-1.120887e-07	2.111537e-09	-7.919903e-01	1.369504e+02
2.500000e-06	-2.156456e-07	1.910484e-09	-1.523698e+00	1.238085e+02
2.510000e-06	-3.191710e-07	1.710611e-09	-2.255182e+00	1.103653e+02
2.520000e-06	-4.225439e-07	1.504998e-09	-2.985589e+00	9.660235e+01
2.530000e-06	-5.257233e-07	1.288945e-09	-3.714628e+00	8.250133e+01
2.540000e-06	-6.287277e-07	1.066693e-09	-4.442431e+00	6.804539e+01
2.550000e-06	-7.315397e-07	8.379686e-10	-5.168875e+00	5.322014e+01
2.560000e-06	-8.340086e-07	6.020648e-10	-5.892894e+00	3.801480e+01
2.570000e-06	-9.359841e-07	3.634688e-10	-6.613428e+00	2.242339e+01
2.580000e-06	-1.037436e-06	1.229219e-10	-7.330263e+00	6.445902e+00
2.590000e-06	-1.138432e-06	-1.249791e-10	-8.043874e+00	-9.910562e+00
2.600000e-06	-1.239032e-06	-3.806823e-10	-8.754688e+00	-2.663074e+01
2.610000e-06	-1.339179e-06	-6.391381e-10	-9.462301e+00	-4.369034e+01
2.620000e-06	-1.438809e-06	-9.023830e-10	-1.016626e+01	-6.105537e+01
2.630000e-06	-1.537971e-06	-1.173758e-09	-1.086692e+01	-7.868193e+01
2.640000e-06	-1.636628e-06	-1.450453e-09	-1.156400e+01	-9.651643e+01
2.650000e-06	-1.734697e-06	-1.729798e-09	-1.225693e+01	-1.144963e+02
2.660000e-06	-1.832132e-06	-2.010028e-09	-1.294538e+01	-1.325513e+02
2.670000e-06	-1.928912e-06	-2.288441e-09	-1.362921e+01	-1.506056e+02
2.680000e-06	-2.025155e-06	-2.562717e-09	-1.430924e+01	-1.685801e+02
2.690000e-06	-2.120889e-06	-2.835177e-09	-1.498566e+01	-1.863951e+02
2.700000e-06	-2.215865e-06	-3.106360e-09	-1.565675e+01	-2.039736e+02
2.710000e-06	-2.309829e-06	-3.372931e-09	-1.632067e+01	-2.212441e+02
2.720000e-06	-2.402734e-06	-3.631494e-09	-1.697711e+01	-2.381432e+02
2.730000e-06	-2.494682e-06	-3.880815e-09	-1.762680e+01	-2.546178e+02
2.740000e-06	-2.585755e-06	-4.122849e-09	-1.827029e+01	-2.706266e+02
2.750000e-06	-2.675905e-06	-4.360231e-09	-1.890727e+01	-2.861409e+02
2.760000e-06	-2.765106e-06	-4.592838e-09	-1.953754e+01	-3.011439e+02
2.770000e-06	-2.853492e-06	-4.817370e-09	-2.016205e+01	-3.156300e+02
2.780000e-06	-2.941066e-06	-5.032358e-09	-2.078083e+01	-3.296028e+02
2.790000e-06	-3.027544e-06	-5.240017e-09	-2.139187e+01	-3.430726e+02
2.800000e-06	-3.112751e-06	-5.442840e-09	-2.199392e+01	-3.560543e+02
2.810000e-06	-3.196751e-06	-5.636918e-09	-2.258743e+01	-3.685644e+02
2.820000e-06	-3.279699e-06	-5.819997e-09	-2.317352e+01	-3.806189e+02
2.830000e-06	-3.361620e-06	-5.993778e-09	-2.375236e+01	-3.922319e+02
2.840000e-06	-3.442440e-06	-6.160213e-09	-2.432341e+01	-4.034139e+02
2.850000e-06	-3.522160e-06	-6.321336e-09	-2.488669e+01	-4.141724e+02
2.860000e-06	-3.600461e-06	-6.477725e-09	-2.543995e+01	-4.245115e+02
2.870000e-06	-3.677127e-06	-6.629681e-09	-2.598165e+01	-4.344334e+02
2.880000e-06	-3.752348e-06	-6.774416e-09	-2.651315e+01	-4.439393e+02
2.890000e-06	-3.826190e-06	-6.912914e-09	-2.703489e+01	-4.530315e+02
2.900000e-06	-3.898710e-06	-7.049457e-09	-2.754730e+01	-4.617145e+02
2.910000e-06	-3.969834e-06	-7.182700e-09	-2.804985e+01	-4.699958e+02
2.920000e-06	-4.039356e-06	-7.306975e-09	-2.854107e+01	-4.778873e+02
2.930000e-06	-4.107337e-06	-7.421151e-09	-2.902141e+01	-4.854046e+02
2.940000e-06	-4.173886e-06	-7.530449e-09	-2.949163e+01	-4.925669e+02
