# Temperatura_=_52.6
# Concentracion g/m^3_=_15000.0
# C_Vs_to_Am_M_A/Vsm_=_65563218390.804596
# pendiente_HvsI_1/m_=_3716.3
# ordenada_HvsI_A/m_=_1297.0
# frecuencia_Hz_=_301591.24553080933

Tiempo_(s)	Campo_(V.s)	Magnetizacion_(V.s)	Campo_(kA/m)	Magnetizacion_(A/m)
0.000000e+00	-5.403547e-06	-8.593770e-09	-3.833704e+01	-5.609284e+02
1.000000e-08	-5.400865e-06	-8.590993e-09	-3.831801e+01	-5.606921e+02
2.000000e-08	-5.396340e-06	-8.584436e-09	-3.828590e+01	-5.603385e+02
3.000000e-08	-5.390154e-06	-8.577805e-09	-3.824202e+01	-5.598661e+02
4.000000e-08	-5.382386e-06	-8.568306e-09	-3.818690e+01	-5.592749e+02
5.000000e-08	-5.372798e-06	-8.554715e-09	-3.811888e+01	-5.585669e+02
6.000000e-08	-5.361155e-06	-8.536921e-09	-3.803628e+01	-5.577470e+02
7.000000e-08	-5.347583e-06	-8.514530e-09	-3.793999e+01	-5.568227e+02
8.000000e-08	-5.331916e-06	-8.518291e-09	-3.782883e+01	-5.558036e+02
9.000000e-08	-5.314000e-06	-8.546071e-09	-3.770172e+01	-5.547013e+02
1.000000e-07	-5.294047e-06	-8.514726e-09	-3.756016e+01	-5.535274e+02
1.100000e-07	-5.272178e-06	-8.469290e-09	-3.740500e+01	-5.522932e+02
1.200000e-07	-5.248566e-06	-8.419195e-09	-3.723748e+01	-5.510075e+02
1.300000e-07	-5.223427e-06	-8.330187e-09	-3.705912e+01	-5.496759e+02
1.400000e-07	-5.196659e-06	-8.391820e-09	-3.686921e+01	-5.482997e+02
1.500000e-07	-5.168240e-06	-8.414866e-09	-3.666758e+01	-5.468754e+02
1.600000e-07	-5.138385e-06	-8.292066e-09	-3.645577e+01	-5.453946e+02
1.700000e-07	-5.106997e-06	-8.350155e-09	-3.623308e+01	-5.438450e+02
1.800000e-07	-5.073536e-06	-8.291916e-09	-3.599568e+01	-5.422109e+02
1.900000e-07	-5.038178e-06	-8.159158e-09	-3.574482e+01	-5.404751e+02
2.000000e-07	-5.001350e-06	-8.254256e-09	-3.548353e+01	-5.386204e+02
2.100000e-07	-4.962750e-06	-8.204599e-09	-3.520967e+01	-5.366313e+02
2.200000e-07	-4.922247e-06	-8.116458e-09	-3.492232e+01	-5.344955e+02
2.300000e-07	-4.879813e-06	-8.142504e-09	-3.462125e+01	-5.322051e+02
2.400000e-07	-4.835530e-06	-8.063068e-09	-3.430708e+01	-5.297571e+02
2.500000e-07	-4.789534e-06	-8.020284e-09	-3.398074e+01	-5.271532e+02
2.600000e-07	-4.741570e-06	-8.004722e-09	-3.364045e+01	-5.243999e+02
2.700000e-07	-4.691467e-06	-7.939178e-09	-3.328498e+01	-5.215066e+02
2.800000e-07	-4.639288e-06	-7.901368e-09	-3.291478e+01	-5.184848e+02
2.900000e-07	-4.585236e-06	-7.826382e-09	-3.253130e+01	-5.153462e+02
3.000000e-07	-4.529624e-06	-7.764307e-09	-3.213674e+01	-5.121014e+02
3.100000e-07	-4.472297e-06	-7.760375e-09	-3.173001e+01	-5.087582e+02
3.200000e-07	-4.413152e-06	-7.741231e-09	-3.131039e+01	-5.053210e+02
3.300000e-07	-4.352448e-06	-7.656263e-09	-3.087971e+01	-5.017903e+02
3.400000e-07	-4.290306e-06	-7.568927e-09	-3.043883e+01	-4.981627e+02
3.500000e-07	-4.226832e-06	-7.536035e-09	-2.998849e+01	-4.944318e+02
3.600000e-07	-4.161822e-06	-7.468421e-09	-2.952726e+01	-4.905885e+02
3.700000e-07	-4.095090e-06	-7.403828e-09	-2.905381e+01	-4.866232e+02
3.800000e-07	-4.026814e-06	-7.362546e-09	-2.856940e+01	-4.825264e+02
3.900000e-07	-3.957152e-06	-7.277944e-09	-2.807517e+01	-4.782900e+02
4.000000e-07	-3.886216e-06	-7.193927e-09	-2.757189e+01	-4.739082e+02
4.100000e-07	-3.814024e-06	-7.130920e-09	-2.705971e+01	-4.693784e+02
4.200000e-07	-3.740348e-06	-7.087441e-09	-2.653699e+01	-4.647005e+02
4.300000e-07	-3.665073e-06	-7.016772e-09	-2.600293e+01	-4.598772e+02
4.400000e-07	-3.588339e-06	-6.920557e-09	-2.545852e+01	-4.549131e+02
4.500000e-07	-3.510137e-06	-6.833628e-09	-2.490369e+01	-4.498136e+02
4.600000e-07	-3.430455e-06	-6.757480e-09	-2.433836e+01	-4.445840e+02
4.700000e-07	-3.349538e-06	-6.689349e-09	-2.376427e+01	-4.392286e+02
4.800000e-07	-3.267488e-06	-6.609925e-09	-2.318214e+01	-4.337497e+02
4.900000e-07	-3.184325e-06	-6.524763e-09	-2.259212e+01	-4.281476e+02
5.000000e-07	-3.100174e-06	-6.429104e-09	-2.199509e+01	-4.224200e+02
5.100000e-07	-3.015060e-06	-6.326676e-09	-2.139122e+01	-4.165626e+02
5.200000e-07	-2.928993e-06	-6.237806e-09	-2.078059e+01	-4.105695e+02
5.300000e-07	-2.841995e-06	-6.156683e-09	-2.016336e+01	-4.044340e+02
5.400000e-07	-2.754106e-06	-6.062689e-09	-1.953980e+01	-3.981494e+02
5.500000e-07	-2.665183e-06	-5.953153e-09	-1.890892e+01	-3.917098e+02
5.600000e-07	-2.575031e-06	-5.842558e-09	-1.826930e+01	-3.851106e+02
5.700000e-07	-2.483751e-06	-5.745240e-09	-1.762170e+01	-3.783490e+02
5.800000e-07	-2.391600e-06	-5.652347e-09	-1.696790e+01	-3.714238e+02
5.900000e-07	-2.298681e-06	-5.545068e-09	-1.630866e+01	-3.643352e+02
6.000000e-07	-2.204939e-06	-5.425667e-09	-1.564358e+01	-3.570845e+02
6.100000e-07	-2.110431e-06	-5.310948e-09	-1.497307e+01	-3.496733e+02
6.200000e-07	-2.015218e-06	-5.197801e-09	-1.429755e+01	-3.421025e+02
6.300000e-07	-1.919296e-06	-5.080530e-09	-1.361701e+01	-3.343720e+02
6.400000e-07	-1.822652e-06	-4.963256e-09	-1.293134e+01	-3.264803e+02
6.500000e-07	-1.725227e-06	-4.839180e-09	-1.224013e+01	-3.184238e+02
6.600000e-07	-1.627042e-06	-4.705123e-09	-1.154353e+01	-3.101971e+02
6.700000e-07	-1.528178e-06	-4.569732e-09	-1.084210e+01	-3.017932e+02
6.800000e-07	-1.428730e-06	-4.443062e-09	-1.013654e+01	-2.932040e+02
6.900000e-07	-1.328832e-06	-4.317093e-09	-9.427788e+00	-2.844208e+02
7.000000e-07	-1.228590e-06	-4.181165e-09	-8.716586e+00	-2.754354e+02
7.100000e-07	-1.128056e-06	-4.035972e-09	-8.003323e+00	-2.662401e+02
7.200000e-07	-1.027249e-06	-3.887168e-09	-7.288114e+00	-2.568288e+02
7.300000e-07	-9.260948e-07	-3.739466e-09	-6.570449e+00	-2.471968e+02
7.400000e-07	-8.245576e-07	-3.590013e-09	-5.850064e+00	-2.373412e+02
7.500000e-07	-7.226894e-07	-3.436425e-09	-5.127330e+00	-2.272604e+02
7.600000e-07	-6.205431e-07	-3.274667e-09	-4.402624e+00	-2.169540e+02
7.700000e-07	-5.181767e-07	-3.106073e-09	-3.676355e+00	-2.064217e+02
7.800000e-07	-4.156682e-07	-2.939359e-09	-2.949079e+00	-1.956631e+02
7.900000e-07	-3.130954e-07	-2.774894e-09	-2.221347e+00	-1.846771e+02
8.000000e-07	-2.104306e-07	-2.605871e-09	-1.492961e+00	-1.734608e+02
8.100000e-07	-1.076609e-07	-2.428799e-09	-7.638314e-01	-1.620093e+02
8.200000e-07	-4.804511e-09	-2.246874e-09	-3.408700e-02	-1.503155e+02
8.300000e-07	9.807781e-08	-2.063793e-09	6.958416e-01	-1.383700e+02
8.400000e-07	2.009192e-07	-1.879076e-09	1.425480e+00	-1.261612e+02
8.500000e-07	3.037084e-07	-1.689354e-09	2.154748e+00	-1.136758e+02
8.600000e-07	4.064272e-07	-1.493925e-09	2.883516e+00	-1.008989e+02
8.700000e-07	5.090758e-07	-1.290580e-09	3.611787e+00	-8.781547e+01
8.800000e-07	6.116027e-07	-1.083017e-09	4.339193e+00	-7.441057e+01
8.900000e-07	7.139170e-07	-8.749439e-10	5.065092e+00	-6.067055e+01
9.000000e-07	8.159754e-07	-6.653177e-10	5.789175e+00	-4.658409e+01
9.100000e-07	9.177472e-07	-4.514222e-10	6.511225e+00	-3.214327e+01
9.200000e-07	1.019089e-06	-2.281365e-10	7.230223e+00	-1.734474e+01
9.300000e-07	1.120011e-06	3.386952e-12	7.946245e+00	-2.190831e+00
9.400000e-07	1.220635e-06	2.405646e-10	8.660149e+00	1.330939e+01
9.500000e-07	1.320925e-06	4.814155e-10	9.371690e+00	2.913914e+01
9.600000e-07	1.420817e-06	7.266023e-10	1.008040e+01	4.527324e+01
9.700000e-07	1.520196e-06	9.779406e-10	1.078548e+01	6.167764e+01
9.800000e-07	1.618974e-06	1.232218e-09	1.148628e+01	7.830941e+01
9.900000e-07	1.717041e-06	1.486855e-09	1.218204e+01	9.511711e+01
1.000000e-06	1.814355e-06	1.741496e-09	1.287247e+01	1.120417e+02
1.010000e-06	1.910844e-06	1.997368e-09	1.355704e+01	1.290181e+02
1.020000e-06	2.006494e-06	2.254973e-09	1.423566e+01	1.459767e+02
1.030000e-06	2.101467e-06	2.512825e-09	1.490947e+01	1.628460e+02
1.040000e-06	2.195725e-06	2.769211e-09	1.557821e+01	1.795548e+02
1.050000e-06	2.289181e-06	3.019839e-09	1.624126e+01	1.960351e+02
1.060000e-06	2.381884e-06	3.264417e-09	1.689897e+01	2.122240e+02
1.070000e-06	2.473889e-06	3.503242e-09	1.755172e+01	2.280663e+02
1.080000e-06	2.565157e-06	3.737800e-09	1.819925e+01	2.435157e+02
1.090000e-06	2.655429e-06	3.966439e-09	1.883971e+01	2.585362e+02
1.100000e-06	2.744548e-06	4.185394e-09	1.947200e+01	2.731018e+02
1.110000e-06	2.832577e-06	4.395571e-09	2.009654e+01	2.871967e+02
1.120000e-06	2.919638e-06	4.600010e-09	2.071422e+01	3.008137e+02
1.130000e-06	3.005806e-06	4.800100e-09	2.132557e+01	3.139530e+02
1.140000e-06	3.090997e-06	4.995120e-09	2.192998e+01	3.266201e+02
1.150000e-06	3.175207e-06	5.183267e-09	2.252743e+01	3.388238e+02
1.160000e-06	3.258399e-06	5.363039e-09	2.311766e+01	3.505746e+02
1.170000e-06	3.340427e-06	5.535890e-09	2.369963e+01	3.618828e+02
1.180000e-06	3.421213e-06	5.702366e-09	2.427279e+01	3.727576e+02
1.190000e-06	3.500730e-06	5.863105e-09	2.483695e+01	3.832064e+02
1.200000e-06	3.579025e-06	6.014557e-09	2.539244e+01	3.932349e+02
1.210000e-06	3.656114e-06	6.157357e-09	2.593936e+01	4.028475e+02
1.220000e-06	3.731899e-06	6.295293e-09	2.647704e+01	4.120482e+02
1.230000e-06	3.806124e-06	6.429199e-09	2.700366e+01	4.208416e+02
1.240000e-06	3.878705e-06	6.557717e-09	2.751860e+01	4.292340e+02
1.250000e-06	3.949830e-06	6.680502e-09	2.802322e+01	4.372342e+02
1.260000e-06	4.019583e-06	6.796630e-09	2.851810e+01	4.448540e+02
1.270000e-06	4.088035e-06	6.906833e-09	2.900376e+01	4.521089e+02
1.280000e-06	4.155117e-06	7.010910e-09	2.947969e+01	4.590171e+02
1.290000e-06	4.220552e-06	7.108668e-09	2.994394e+01	4.655991e+02
1.300000e-06	4.284278e-06	7.202395e-09	3.039606e+01	4.718766e+02
1.310000e-06	4.346541e-06	7.291873e-09	3.083780e+01	4.778716e+02
1.320000e-06	4.407453e-06	7.378393e-09	3.126996e+01	4.836044e+02
1.330000e-06	4.466965e-06	7.463033e-09	3.169218e+01	4.890932e+02
1.340000e-06	4.524793e-06	7.546266e-09	3.210246e+01	4.943526e+02
1.350000e-06	4.580792e-06	7.625717e-09	3.249976e+01	4.993936e+02
1.360000e-06	4.635151e-06	7.698857e-09	3.288543e+01	5.042233e+02
1.370000e-06	4.687819e-06	7.767614e-09	3.325910e+01	5.088450e+02
1.380000e-06	4.738502e-06	7.833319e-09	3.361868e+01	5.132595e+02
1.390000e-06	4.787173e-06	7.897325e-09	3.396399e+01	5.174654e+02
1.400000e-06	4.834088e-06	7.957709e-09	3.429685e+01	5.214606e+02
1.410000e-06	4.879377e-06	8.013019e-09	3.461816e+01	5.252429e+02
1.420000e-06	4.923041e-06	8.066109e-09	3.492795e+01	5.288113e+02
1.430000e-06	4.964882e-06	8.117677e-09	3.522480e+01	5.321661e+02
1.440000e-06	5.004889e-06	8.166770e-09	3.550864e+01	5.353096e+02
1.450000e-06	5.043238e-06	8.211734e-09	3.578072e+01	5.382458e+02
1.460000e-06	5.080002e-06	8.254111e-09	3.604156e+01	5.409802e+02
1.470000e-06	5.115059e-06	8.291804e-09	3.629028e+01	5.435195e+02
1.480000e-06	5.148145e-06	8.324361e-09	3.652501e+01	5.458709e+02
1.490000e-06	5.179369e-06	8.352992e-09	3.674654e+01	5.480413e+02
1.500000e-06	5.208876e-06	8.378576e-09	3.695589e+01	5.500377e+02
1.510000e-06	5.236677e-06	8.404680e-09	3.715313e+01	5.518661e+02
1.520000e-06	5.262548e-06	8.429423e-09	3.733668e+01	5.535317e+02
1.530000e-06	5.286281e-06	8.452052e-09	3.750506e+01	5.550396e+02
1.540000e-06	5.308145e-06	8.471986e-09	3.766018e+01	5.563940e+02
1.550000e-06	5.328313e-06	8.489828e-09	3.780327e+01	5.575993e+02
1.560000e-06	5.346657e-06	8.506476e-09	3.793341e+01	5.586601e+02
1.570000e-06	5.362957e-06	8.520946e-09	3.804906e+01	5.595814e+02
1.580000e-06	5.377279e-06	8.533231e-09	3.815067e+01	5.603685e+02
1.590000e-06	5.389633e-06	8.542126e-09	3.823832e+01	5.610268e+02
1.600000e-06	5.399731e-06	8.548856e-09	3.830997e+01	5.615617e+02
1.610000e-06	5.407711e-06	8.554790e-09	3.836658e+01	5.619780e+02
1.620000e-06	5.413823e-06	8.560923e-09	3.840994e+01	5.622797e+02
1.630000e-06	5.418107e-06	8.567949e-09	3.844034e+01	5.624693e+02
1.640000e-06	5.420485e-06	8.573906e-09	3.845721e+01	5.625479e+02
1.650000e-06	5.420878e-06	8.576601e-09	3.846000e+01	5.625149e+02
1.660000e-06	5.419411e-06	8.572452e-09	3.844959e+01	5.623687e+02
1.670000e-06	5.416283e-06	8.566904e-09	3.842739e+01	5.621071e+02
1.680000e-06	5.411562e-06	8.560840e-09	3.839390e+01	5.617278e+02
1.690000e-06	5.404975e-06	8.550611e-09	3.834717e+01	5.612295e+02
1.700000e-06	5.396503e-06	8.540550e-09	3.828706e+01	5.606126e+02
1.710000e-06	5.386445e-06	8.533394e-09	3.821570e+01	5.598798e+02
1.720000e-06	5.374722e-06	8.534706e-09	3.813253e+01	5.590364e+02
1.730000e-06	5.360981e-06	8.521020e-09	3.803504e+01	5.580905e+02
1.740000e-06	5.345094e-06	8.448938e-09	3.792232e+01	5.570522e+02
1.750000e-06	5.326850e-06	8.434819e-09	3.779289e+01	5.559332e+02
1.760000e-06	5.305906e-06	8.437309e-09	3.764430e+01	5.547452e+02
1.770000e-06	5.282714e-06	8.450011e-09	3.747975e+01	5.534989e+02
1.780000e-06	5.258237e-06	8.509016e-09	3.730609e+01	5.522026e+02
1.790000e-06	5.233033e-06	8.383526e-09	3.712728e+01	5.508612e+02
1.800000e-06	5.206461e-06	8.348594e-09	3.693876e+01	5.494747e+02
1.810000e-06	5.177630e-06	8.411070e-09	3.673420e+01	5.480388e+02
1.820000e-06	5.146899e-06	8.273418e-09	3.651617e+01	5.465441e+02
1.830000e-06	5.114488e-06	8.319881e-09	3.628623e+01	5.449773e+02
1.840000e-06	5.080180e-06	8.367427e-09	3.604282e+01	5.433225e+02
1.850000e-06	5.044263e-06	8.198113e-09	3.578799e+01	5.415623e+02
1.860000e-06	5.006485e-06	8.251375e-09	3.551996e+01	5.396796e+02
1.870000e-06	4.966798e-06	8.218715e-09	3.523840e+01	5.376596e+02
1.880000e-06	4.925529e-06	8.086295e-09	3.494560e+01	5.354909e+02
1.890000e-06	4.882452e-06	8.158994e-09	3.463997e+01	5.331664e+02
1.900000e-06	4.837759e-06	8.072973e-09	3.432289e+01	5.306843e+02
1.910000e-06	4.791276e-06	8.038625e-09	3.399310e+01	5.280474e+02
1.920000e-06	4.742690e-06	8.026226e-09	3.364839e+01	5.252628e+02
1.930000e-06	4.692414e-06	7.884864e-09	3.329170e+01	5.223405e+02
1.940000e-06	4.640381e-06	7.953508e-09	3.292254e+01	5.192924e+02
1.950000e-06	4.586257e-06	7.910944e-09	3.253853e+01	5.161298e+02
1.960000e-06	4.530219e-06	7.779837e-09	3.214096e+01	5.128630e+02
1.970000e-06	4.472540e-06	7.735359e-09	3.173173e+01	5.094990e+02
1.980000e-06	4.413395e-06	7.679786e-09	3.131212e+01	5.060415e+02
1.990000e-06	4.352707e-06	7.673773e-09	3.088155e+01	5.024901e+02
2.000000e-06	4.290270e-06	7.580356e-09	3.043857e+01	4.988407e+02
2.010000e-06	4.226246e-06	7.548229e-09	2.998433e+01	4.950861e+02
2.020000e-06	4.160773e-06	7.507540e-09	2.951982e+01	4.912171e+02
2.030000e-06	4.093804e-06	7.374025e-09	2.904469e+01	4.872241e+02
2.040000e-06	4.025420e-06	7.349303e-09	2.855952e+01	4.830975e+02
2.050000e-06	3.955565e-06	7.302017e-09	2.806391e+01	4.788300e+02
2.060000e-06	3.884145e-06	7.249700e-09	2.755720e+01	4.744163e+02
2.070000e-06	3.811393e-06	7.151101e-09	2.704104e+01	4.698542e+02
2.080000e-06	3.737383e-06	7.052448e-09	2.651595e+01	4.651445e+02
2.090000e-06	3.661919e-06	7.021435e-09	2.598055e+01	4.602902e+02
2.100000e-06	3.584961e-06	6.939126e-09	2.543455e+01	4.552963e+02
2.110000e-06	3.506467e-06	6.868677e-09	2.487765e+01	4.501681e+02
2.120000e-06	3.426676e-06	6.779614e-09	2.431155e+01	4.449108e+02
2.130000e-06	3.345801e-06	6.692892e-09	2.373776e+01	4.395284e+02
2.140000e-06	3.263758e-06	6.599980e-09	2.315568e+01	4.340229e+02
2.150000e-06	3.180626e-06	6.509982e-09	2.256588e+01	4.283938e+02
2.160000e-06	3.096474e-06	6.458806e-09	2.196884e+01	4.226384e+02
2.170000e-06	3.011166e-06	6.367796e-09	2.136359e+01	4.167521e+02
2.180000e-06	2.924474e-06	6.257430e-09	2.074853e+01	4.107286e+02
2.190000e-06	2.836617e-06	6.146631e-09	2.012521e+01	4.045614e+02
2.200000e-06	2.747862e-06	6.063780e-09	1.949551e+01	3.982436e+02
2.210000e-06	2.658190e-06	5.984980e-09	1.885931e+01	3.917698e+02
2.220000e-06	2.567586e-06	5.880764e-09	1.821648e+01	3.851356e+02
2.230000e-06	2.476136e-06	5.767908e-09	1.756767e+01	3.783386e+02
2.240000e-06	2.383949e-06	5.654947e-09	1.691362e+01	3.713779e+02
2.250000e-06	2.290906e-06	5.547590e-09	1.625350e+01	3.642541e+02
2.260000e-06	2.196957e-06	5.434859e-09	1.558695e+01	3.569686e+02
2.270000e-06	2.102040e-06	5.330779e-09	1.491353e+01	3.495227e+02
2.280000e-06	2.006115e-06	5.217343e-09	1.423296e+01	3.419173e+02
2.290000e-06	1.909497e-06	5.089508e-09	1.354748e+01	3.341522e+02
2.300000e-06	1.812408e-06	4.964548e-09	1.285866e+01	3.262252e+02
2.310000e-06	1.714774e-06	4.850661e-09	1.216597e+01	3.181323e+02
2.320000e-06	1.616530e-06	4.736551e-09	1.146894e+01	3.098679e+02
2.330000e-06	1.517750e-06	4.602511e-09	1.076812e+01	3.014246e+02
2.340000e-06	1.418548e-06	4.458595e-09	1.006431e+01	2.927941e+02
2.350000e-06	1.318950e-06	4.318345e-09	9.357673e+00	2.839680e+02
2.360000e-06	1.218985e-06	4.187530e-09	8.648442e+00	2.749378e+02
2.370000e-06	1.118742e-06	4.056352e-09	7.937243e+00	2.656963e+02
2.380000e-06	1.018175e-06	3.915725e-09	7.223738e+00	2.562377e+02
2.390000e-06	9.171500e-07	3.763400e-09	6.506988e+00	2.465576e+02
2.400000e-06	8.156976e-07	3.606320e-09	5.787204e+00	2.366535e+02
2.410000e-06	7.139117e-07	3.453140e-09	5.065054e+00	2.265240e+02
2.420000e-06	6.118016e-07	3.301448e-09	4.340605e+00	2.161687e+02
2.430000e-06	5.094216e-07	3.147984e-09	3.614240e+00	2.055876e+02
2.440000e-06	4.068125e-07	2.986567e-09	2.886250e+00	1.947801e+02
2.450000e-06	3.040059e-07	2.815469e-09	2.156858e+00	1.837447e+02
2.460000e-06	2.010536e-07	2.641812e-09	1.426433e+00	1.724781e+02
2.470000e-06	9.799873e-08	2.472153e-09	6.952806e-01	1.609749e+02
2.480000e-06	-5.059633e-09	2.297932e-09	-3.589704e-02	1.492277e+02
2.490000e-06	-1.081164e-07	2.111596e-09	-7.670630e-01	1.372265e+02
2.500000e-06	-2.111485e-07	1.918891e-09	-1.498054e+00	1.249592e+02
2.510000e-06	-3.141154e-07	1.727299e-09	-2.228583e+00	1.124122e+02
2.520000e-06	-4.170140e-07	1.536818e-09	-2.958627e+00	9.957055e+01
2.530000e-06	-5.197923e-07	1.340414e-09	-3.687818e+00	8.641908e+01
2.540000e-06	-6.223811e-07	1.136498e-09	-4.415664e+00	7.294307e+01
2.550000e-06	-7.246703e-07	9.227825e-10	-5.141385e+00	5.912929e+01
2.560000e-06	-8.266245e-07	6.981649e-10	-5.864729e+00	4.496705e+01
2.570000e-06	-9.281480e-07	4.704399e-10	-6.585017e+00	3.044931e+01
2.580000e-06	-1.029157e-06	2.445209e-10	-7.301655e+00	1.557385e+01
2.590000e-06	-1.129734e-06	1.587147e-11	-8.015228e+00	3.443352e-01
2.600000e-06	-1.229880e-06	-2.215798e-10	-8.725743e+00	-1.522856e+01
2.610000e-06	-1.329569e-06	-4.664832e-10	-9.433016e+00	-3.112633e+01
2.620000e-06	-1.428807e-06	-7.143459e-10	-1.013709e+01	-4.732190e+01
2.630000e-06	-1.527619e-06	-9.631872e-10	-1.083814e+01	-6.377931e+01
2.640000e-06	-1.625961e-06	-1.215124e-09	-1.153586e+01	-8.045376e+01
2.650000e-06	-1.723688e-06	-1.473167e-09	-1.222921e+01	-9.729209e+01
2.660000e-06	-1.820749e-06	-1.735635e-09	-1.291784e+01	-1.142338e+02
2.670000e-06	-1.917231e-06	-1.999411e-09	-1.360235e+01	-1.312127e+02
2.680000e-06	-2.013195e-06	-2.258694e-09	-1.428320e+01	-1.481586e+02
2.690000e-06	-2.108536e-06	-2.513764e-09	-1.495962e+01	-1.649998e+02
2.700000e-06	-2.203025e-06	-2.766689e-09	-1.563000e+01	-1.816656e+02
2.710000e-06	-2.296517e-06	-3.018086e-09	-1.629331e+01	-1.980889e+02
2.720000e-06	-2.389019e-06	-3.266492e-09	-1.694959e+01	-2.142083e+02
2.730000e-06	-2.480604e-06	-3.507225e-09	-1.759937e+01	-2.299703e+02
2.740000e-06	-2.571345e-06	-3.740695e-09	-1.824316e+01	-2.453309e+02
2.750000e-06	-2.661198e-06	-3.968791e-09	-1.888064e+01	-2.602561e+02
2.760000e-06	-2.750112e-06	-4.193892e-09	-1.951147e+01	-2.747222e+02
2.770000e-06	-2.838195e-06	-4.413888e-09	-2.013640e+01	-2.887154e+02
2.780000e-06	-2.925443e-06	-4.623364e-09	-2.075541e+01	-3.022302e+02
2.790000e-06	-3.011592e-06	-4.820869e-09	-2.136662e+01	-3.152681e+02
2.800000e-06	-3.096451e-06	-5.011535e-09	-2.196867e+01	-3.278354e+02
2.810000e-06	-3.180149e-06	-5.196008e-09	-2.256249e+01	-3.399416e+02
2.820000e-06	-3.262864e-06	-5.373902e-09	-2.314934e+01	-3.515971e+02
2.830000e-06	-3.344527e-06	-5.545786e-09	-2.372872e+01	-3.628121e+02
2.840000e-06	-3.425140e-06	-5.709378e-09	-2.430065e+01	-3.735954e+02
2.850000e-06	-3.504630e-06	-5.864573e-09	-2.486462e+01	-3.839540e+02
2.860000e-06	-3.582662e-06	-6.013812e-09	-2.541824e+01	-3.938935e+02
2.870000e-06	-3.659063e-06	-6.160186e-09	-2.596029e+01	-4.034179e+02
2.880000e-06	-3.733991e-06	-6.302351e-09	-2.649189e+01	-4.125312e+02
2.890000e-06	-3.807608e-06	-6.436716e-09	-2.701418e+01	-4.212385e+02
2.900000e-06	-3.879961e-06	-6.564692e-09	-2.752751e+01	-4.295464e+02
2.910000e-06	-3.950911e-06	-6.689280e-09	-2.803089e+01	-4.374643e+02
2.920000e-06	-4.020230e-06	-6.807786e-09	-2.852269e+01	-4.450049e+02
2.930000e-06	-4.088013e-06	-6.917976e-09	-2.900360e+01	-4.521843e+02
2.940000e-06	-4.154436e-06	-7.022896e-09	-2.947486e+01	-4.590211e+02
