# Temperatura_=_57.19
# Concentracion g/m^3_=_15000.0
# C_Vs_to_Am_M_A/Vsm_=_65563218390.804596
# pendiente_HvsI_1/m_=_3716.3
# ordenada_HvsI_A/m_=_1297.0
# frecuencia_Hz_=_301596.1321437092

Tiempo_(s)	Campo_(V.s)	Magnetizacion_(V.s)	Campo_(kA/m)	Magnetizacion_(A/m)
0.000000e+00	-5.401207e-06	-8.702383e-09	-3.833818e+01	-5.686127e+02
1.000000e-08	-5.398098e-06	-8.701234e-09	-3.831612e+01	-5.683708e+02
2.000000e-08	-5.393205e-06	-8.695436e-09	-3.828139e+01	-5.680049e+02
3.000000e-08	-5.386701e-06	-8.689834e-09	-3.823522e+01	-5.675140e+02
4.000000e-08	-5.378610e-06	-8.678030e-09	-3.817779e+01	-5.668988e+02
5.000000e-08	-5.368610e-06	-8.660160e-09	-3.810681e+01	-5.661627e+02
6.000000e-08	-5.356569e-06	-8.637639e-09	-3.802134e+01	-5.653120e+02
7.000000e-08	-5.342633e-06	-8.602303e-09	-3.792242e+01	-5.643556e+02
8.000000e-08	-5.326500e-06	-8.638220e-09	-3.780791e+01	-5.633045e+02
9.000000e-08	-5.308121e-06	-8.694651e-09	-3.767745e+01	-5.621711e+02
1.000000e-07	-5.287805e-06	-8.632861e-09	-3.753324e+01	-5.609677e+02
1.100000e-07	-5.265582e-06	-8.582555e-09	-3.737550e+01	-5.597054e+02
1.200000e-07	-5.241708e-06	-8.507489e-09	-3.720605e+01	-5.583924e+02
1.300000e-07	-5.216338e-06	-8.370750e-09	-3.702597e+01	-5.570330e+02
1.400000e-07	-5.189300e-06	-8.564719e-09	-3.683405e+01	-5.556268e+02
1.500000e-07	-5.160668e-06	-8.564385e-09	-3.663082e+01	-5.541683e+02
1.600000e-07	-5.130626e-06	-8.347373e-09	-3.641758e+01	-5.526470e+02
1.700000e-07	-5.098937e-06	-8.503510e-09	-3.619265e+01	-5.510483e+02
1.800000e-07	-5.065015e-06	-8.373634e-09	-3.595186e+01	-5.493546e+02
1.900000e-07	-5.029276e-06	-8.230152e-09	-3.569819e+01	-5.475472e+02
2.000000e-07	-4.992084e-06	-8.427577e-09	-3.543420e+01	-5.456078e+02
2.100000e-07	-4.953068e-06	-8.287158e-09	-3.515726e+01	-5.435202e+02
2.200000e-07	-4.912189e-06	-8.176553e-09	-3.486709e+01	-5.412720e+02
2.300000e-07	-4.869358e-06	-8.259812e-09	-3.456308e+01	-5.388557e+02
2.400000e-07	-4.824694e-06	-8.170003e-09	-3.424605e+01	-5.362691e+02
2.500000e-07	-4.778268e-06	-8.158729e-09	-3.391651e+01	-5.335153e+02
2.600000e-07	-4.729837e-06	-8.078822e-09	-3.357274e+01	-5.306019e+02
2.700000e-07	-4.679263e-06	-7.993527e-09	-3.321377e+01	-5.275403e+02
2.800000e-07	-4.626660e-06	-7.989492e-09	-3.284039e+01	-5.243437e+02
2.900000e-07	-4.572294e-06	-7.912446e-09	-3.245449e+01	-5.210260e+02
3.000000e-07	-4.516357e-06	-7.880107e-09	-3.205745e+01	-5.175997e+02
3.100000e-07	-4.458689e-06	-7.863316e-09	-3.164812e+01	-5.140748e+02
3.200000e-07	-4.399200e-06	-7.809796e-09	-3.122586e+01	-5.104578e+02
3.300000e-07	-4.338155e-06	-7.705922e-09	-3.079255e+01	-5.067515e+02
3.400000e-07	-4.275678e-06	-7.642109e-09	-3.034909e+01	-5.029544e+02
3.500000e-07	-4.211889e-06	-7.640490e-09	-2.989631e+01	-4.990617e+02
3.600000e-07	-4.146519e-06	-7.543304e-09	-2.943231e+01	-4.950661e+02
3.700000e-07	-4.079371e-06	-7.459932e-09	-2.895569e+01	-4.909588e+02
3.800000e-07	-4.010738e-06	-7.424315e-09	-2.846853e+01	-4.867306e+02
3.900000e-07	-3.940808e-06	-7.346232e-09	-2.797216e+01	-4.823735e+02
4.000000e-07	-3.869661e-06	-7.273267e-09	-2.746715e+01	-4.778809e+02
4.100000e-07	-3.797305e-06	-7.201305e-09	-2.695356e+01	-4.732486e+02
4.200000e-07	-3.723499e-06	-7.157601e-09	-2.642968e+01	-4.684747e+02
4.300000e-07	-3.648026e-06	-7.071634e-09	-2.589397e+01	-4.635599e+02
4.400000e-07	-3.570974e-06	-6.973965e-09	-2.534705e+01	-4.585061e+02
4.500000e-07	-3.492505e-06	-6.907656e-09	-2.479007e+01	-4.533167e+02
4.600000e-07	-3.412665e-06	-6.836331e-09	-2.422336e+01	-4.479951e+02
4.700000e-07	-3.331597e-06	-6.749585e-09	-2.364793e+01	-4.425440e+02
4.800000e-07	-3.249355e-06	-6.645280e-09	-2.306417e+01	-4.369652e+02
4.900000e-07	-3.165954e-06	-6.571558e-09	-2.247219e+01	-4.312587e+02
5.000000e-07	-3.081601e-06	-6.487453e-09	-2.187344e+01	-4.254229e+02
5.100000e-07	-2.996362e-06	-6.389905e-09	-2.126841e+01	-4.194545e+02
5.200000e-07	-2.910120e-06	-6.296170e-09	-2.065626e+01	-4.133492e+02
5.300000e-07	-2.822848e-06	-6.199247e-09	-2.003679e+01	-4.071018e+02
5.400000e-07	-2.734739e-06	-6.100225e-09	-1.941138e+01	-4.007068e+02
5.500000e-07	-2.645701e-06	-5.997406e-09	-1.877939e+01	-3.941595e+02
5.600000e-07	-2.555409e-06	-5.896495e-09	-1.813849e+01	-3.874555e+02
5.700000e-07	-2.463976e-06	-5.791381e-09	-1.748949e+01	-3.805916e+02
5.800000e-07	-2.371727e-06	-5.683323e-09	-1.683470e+01	-3.735656e+02
5.900000e-07	-2.278693e-06	-5.574574e-09	-1.617434e+01	-3.663761e+02
6.000000e-07	-2.184850e-06	-5.465073e-09	-1.550824e+01	-3.590222e+02
6.100000e-07	-2.090266e-06	-5.350238e-09	-1.483687e+01	-3.515030e+02
6.200000e-07	-1.994955e-06	-5.233302e-09	-1.416034e+01	-3.438175e+02
6.300000e-07	-1.898929e-06	-5.112741e-09	-1.347875e+01	-3.359636e+02
6.400000e-07	-1.802232e-06	-4.988121e-09	-1.279238e+01	-3.279384e+02
6.500000e-07	-1.704795e-06	-4.861310e-09	-1.210077e+01	-3.197377e+02
6.600000e-07	-1.606544e-06	-4.729323e-09	-1.140337e+01	-3.113564e+02
6.700000e-07	-1.507608e-06	-4.594359e-09	-1.070112e+01	-3.027885e+02
6.800000e-07	-1.408103e-06	-4.459340e-09	-9.994825e+00	-2.940274e+02
6.900000e-07	-1.308166e-06	-4.326327e-09	-9.285465e+00	-2.850663e+02
7.000000e-07	-1.207897e-06	-4.188939e-09	-8.573746e+00	-2.758989e+02
7.100000e-07	-1.107313e-06	-4.044330e-09	-7.859792e+00	-2.665194e+02
7.200000e-07	-1.006428e-06	-3.893658e-09	-7.143705e+00	-2.569227e+02
7.300000e-07	-9.052364e-07	-3.743187e-09	-6.425437e+00	-2.471050e+02
7.400000e-07	-8.036743e-07	-3.588380e-09	-5.704542e+00	-2.370632e+02
7.500000e-07	-7.017306e-07	-3.427846e-09	-4.980938e+00	-2.267948e+02
7.600000e-07	-5.996031e-07	-3.264890e-09	-4.256029e+00	-2.162980e+02
7.700000e-07	-4.973739e-07	-3.097789e-09	-3.530398e+00	-2.055707e+02
7.800000e-07	-3.949846e-07	-2.931237e-09	-2.803631e+00	-1.946107e+02
7.900000e-07	-2.924348e-07	-2.761948e-09	-2.075724e+00	-1.834146e+02
8.000000e-07	-1.898006e-07	-2.587661e-09	-1.347219e+00	-1.719782e+02
8.100000e-07	-8.706659e-08	-2.409135e-09	-6.180053e-01	-1.602956e+02
8.200000e-07	1.576090e-08	-2.226144e-09	1.118721e-01	-1.483593e+02
8.300000e-07	1.185962e-07	-2.040049e-09	8.418046e-01	-1.361600e+02
8.400000e-07	2.214322e-07	-1.850396e-09	1.571743e+00	-1.236871e+02
8.500000e-07	3.242143e-07	-1.654696e-09	2.301298e+00	-1.109282e+02
8.600000e-07	4.268769e-07	-1.454713e-09	3.030005e+00	-9.787002e+01
8.700000e-07	5.294305e-07	-1.250335e-09	3.757938e+00	-8.449875e+01
8.800000e-07	6.318603e-07	-1.041558e-09	4.484993e+00	-7.080057e+01
8.900000e-07	7.340964e-07	-8.301897e-10	5.210672e+00	-5.676267e+01
9.000000e-07	8.360596e-07	-6.139792e-10	5.934415e+00	-4.237417e+01
9.100000e-07	9.377036e-07	-3.929779e-10	6.655892e+00	-2.762733e+01
9.200000e-07	1.038917e-06	-1.635853e-10	7.374315e+00	-1.251884e+01
9.300000e-07	1.139721e-06	7.365700e-11	8.089828e+00	2.948838e+00
9.400000e-07	1.240230e-06	3.165906e-10	8.803247e+00	1.876615e+01
9.500000e-07	1.340414e-06	5.632877e-10	9.514361e+00	3.491525e+01
9.600000e-07	1.440220e-06	8.134825e-10	1.022279e+01	5.136911e+01
9.700000e-07	1.539528e-06	1.068331e-09	1.092769e+01	6.809095e+01
9.800000e-07	1.638155e-06	1.324409e-09	1.162775e+01	8.503422e+01
9.900000e-07	1.735932e-06	1.582655e-09	1.232178e+01	1.021431e+02
1.000000e-06	1.832925e-06	1.842039e-09	1.301024e+01	1.193538e+02
1.010000e-06	1.929181e-06	2.102616e-09	1.369347e+01	1.365962e+02
1.020000e-06	2.024662e-06	2.364439e-09	1.437121e+01	1.537959e+02
1.030000e-06	2.119452e-06	2.626060e-09	1.504403e+01	1.708773e+02
1.040000e-06	2.213499e-06	2.884903e-09	1.571159e+01	1.877664e+02
1.050000e-06	2.306776e-06	3.136537e-09	1.637368e+01	2.043932e+02
1.060000e-06	2.399375e-06	3.382322e-09	1.703095e+01	2.206947e+02
1.070000e-06	2.491302e-06	3.622845e-09	1.768345e+01	2.366169e+02
1.080000e-06	2.582365e-06	3.858473e-09	1.832983e+01	2.521161e+02
1.090000e-06	2.672267e-06	4.087961e-09	1.896795e+01	2.671600e+02
1.100000e-06	2.761009e-06	4.308211e-09	1.959785e+01	2.817269e+02
1.110000e-06	2.848784e-06	4.519344e-09	2.022089e+01	2.958057e+02
1.120000e-06	2.935670e-06	4.722318e-09	2.083761e+01	3.093938e+02
1.130000e-06	3.021619e-06	4.922598e-09	2.144768e+01	3.224953e+02
1.140000e-06	3.106598e-06	5.119019e-09	2.205087e+01	3.351190e+02
1.150000e-06	3.190685e-06	5.305326e-09	2.264773e+01	3.472761e+02
1.160000e-06	3.273716e-06	5.482362e-09	2.323709e+01	3.589781e+02
1.170000e-06	3.355474e-06	5.653670e-09	2.381741e+01	3.702359e+02
1.180000e-06	3.435976e-06	5.818151e-09	2.438882e+01	3.810583e+02
1.190000e-06	3.515235e-06	5.975926e-09	2.495141e+01	3.914519e+02
1.200000e-06	3.593271e-06	6.126650e-09	2.550531e+01	4.014215e+02
1.210000e-06	3.670089e-06	6.271913e-09	2.605058e+01	4.109709e+02
1.220000e-06	3.745544e-06	6.410616e-09	2.658616e+01	4.201036e+02
1.230000e-06	3.819383e-06	6.543819e-09	2.711028e+01	4.288246e+02
1.240000e-06	3.891645e-06	6.671666e-09	2.762320e+01	4.371408e+02
1.250000e-06	3.962511e-06	6.791339e-09	2.812620e+01	4.450627e+02
1.260000e-06	4.031961e-06	6.904286e-09	2.861917e+01	4.526039e+02
1.270000e-06	4.100090e-06	7.011388e-09	2.910275e+01	4.597820e+02
1.280000e-06	4.166752e-06	7.114753e-09	2.957593e+01	4.666173e+02
1.290000e-06	4.231716e-06	7.212230e-09	3.003705e+01	4.731321e+02
1.300000e-06	4.295125e-06	7.303781e-09	3.048713e+01	4.793500e+02
1.310000e-06	4.357083e-06	7.391234e-09	3.092691e+01	4.852934e+02
1.320000e-06	4.417685e-06	7.476688e-09	3.135707e+01	4.909834e+02
1.330000e-06	4.476877e-06	7.560019e-09	3.177722e+01	4.964377e+02
1.340000e-06	4.534308e-06	7.641151e-09	3.218487e+01	5.016704e+02
1.350000e-06	4.589963e-06	7.718779e-09	3.257991e+01	5.066912e+02
1.360000e-06	4.643997e-06	7.791672e-09	3.296345e+01	5.115061e+02
1.370000e-06	4.696252e-06	7.860935e-09	3.333436e+01	5.161173e+02
1.380000e-06	4.746453e-06	7.928464e-09	3.369069e+01	5.205244e+02
1.390000e-06	4.794695e-06	7.994050e-09	3.403311e+01	5.247253e+02
1.400000e-06	4.841233e-06	8.053421e-09	3.436344e+01	5.287173e+02
1.410000e-06	4.886190e-06	8.106352e-09	3.468255e+01	5.324983e+02
1.420000e-06	4.929563e-06	8.157545e-09	3.499042e+01	5.360672e+02
1.430000e-06	4.971069e-06	8.208898e-09	3.528503e+01	5.394249e+02
1.440000e-06	5.010724e-06	8.258535e-09	3.556650e+01	5.425737e+02
1.450000e-06	5.048722e-06	8.304567e-09	3.583621e+01	5.455182e+02
1.460000e-06	5.085172e-06	8.346594e-09	3.609494e+01	5.482640e+02
1.470000e-06	5.119815e-06	8.384911e-09	3.634084e+01	5.508179e+02
1.480000e-06	5.152440e-06	8.419187e-09	3.657242e+01	5.531868e+02
1.490000e-06	5.183329e-06	8.449230e-09	3.679167e+01	5.553774e+02
1.500000e-06	5.212548e-06	8.475772e-09	3.699906e+01	5.573962e+02
1.510000e-06	5.239957e-06	8.500110e-09	3.719362e+01	5.592487e+02
1.520000e-06	5.265326e-06	8.523550e-09	3.737369e+01	5.609398e+02
1.530000e-06	5.288662e-06	8.546080e-09	3.753933e+01	5.624739e+02
1.540000e-06	5.310182e-06	8.565974e-09	3.769208e+01	5.638552e+02
1.550000e-06	5.329989e-06	8.583753e-09	3.783267e+01	5.650878e+02
1.560000e-06	5.347891e-06	8.600575e-09	3.795974e+01	5.661762e+02
1.570000e-06	5.363721e-06	8.615976e-09	3.807210e+01	5.671251e+02
1.580000e-06	5.377597e-06	8.629005e-09	3.817060e+01	5.679395e+02
1.590000e-06	5.389476e-06	8.639019e-09	3.825491e+01	5.686247e+02
1.600000e-06	5.399137e-06	8.646922e-09	3.832349e+01	5.691853e+02
1.610000e-06	5.406706e-06	8.653238e-09	3.837721e+01	5.696255e+02
1.620000e-06	5.412414e-06	8.658021e-09	3.841773e+01	5.699481e+02
1.630000e-06	5.416348e-06	8.662519e-09	3.844566e+01	5.701548e+02
1.640000e-06	5.418369e-06	8.668324e-09	3.846000e+01	5.702454e+02
1.650000e-06	5.418369e-06	8.672465e-09	3.846000e+01	5.702187e+02
1.660000e-06	5.416588e-06	8.665762e-09	3.844736e+01	5.700723e+02
1.670000e-06	5.413214e-06	8.660788e-09	3.842341e+01	5.698036e+02
1.680000e-06	5.408057e-06	8.655501e-09	3.838681e+01	5.694106e+02
1.690000e-06	5.400931e-06	8.645711e-09	3.833623e+01	5.688925e+02
1.700000e-06	5.392089e-06	8.635808e-09	3.827346e+01	5.682507e+02
1.710000e-06	5.381651e-06	8.629684e-09	3.819937e+01	5.674891e+02
1.720000e-06	5.369423e-06	8.647131e-09	3.811258e+01	5.666145e+02
1.730000e-06	5.355227e-06	8.609827e-09	3.801181e+01	5.656364e+02
1.740000e-06	5.338953e-06	8.493023e-09	3.789630e+01	5.645663e+02
1.750000e-06	5.320256e-06	8.511064e-09	3.776358e+01	5.634165e+02
1.760000e-06	5.298862e-06	8.519139e-09	3.761173e+01	5.621992e+02
1.770000e-06	5.275363e-06	8.582437e-09	3.744493e+01	5.609251e+02
1.780000e-06	5.250829e-06	8.665367e-09	3.727079e+01	5.596015e+02
1.790000e-06	5.225486e-06	8.364483e-09	3.709090e+01	5.582319e+02
1.800000e-06	5.198437e-06	8.424160e-09	3.689891e+01	5.568148e+02
1.810000e-06	5.169177e-06	8.531183e-09	3.669122e+01	5.553435e+02
1.820000e-06	5.138180e-06	8.257722e-09	3.647120e+01	5.538066e+02
1.830000e-06	5.105457e-06	8.492392e-09	3.623893e+01	5.521887e+02
1.840000e-06	5.070842e-06	8.507357e-09	3.599322e+01	5.504719e+02
1.850000e-06	5.034692e-06	8.194368e-09	3.573663e+01	5.486373e+02
1.860000e-06	4.996662e-06	8.420572e-09	3.546669e+01	5.466670e+02
1.870000e-06	4.956779e-06	8.329255e-09	3.518360e+01	5.445455e+02
1.880000e-06	4.915226e-06	8.177744e-09	3.488865e+01	5.422614e+02
1.890000e-06	4.871799e-06	8.300228e-09	3.458040e+01	5.398082e+02
1.900000e-06	4.826730e-06	8.108551e-09	3.426050e+01	5.371850e+02
1.910000e-06	4.779750e-06	8.206526e-09	3.392703e+01	5.343958e+02
1.920000e-06	4.730832e-06	8.131104e-09	3.357981e+01	5.314492e+02
1.930000e-06	4.680332e-06	7.948077e-09	3.322136e+01	5.283572e+02
1.940000e-06	4.627937e-06	8.128462e-09	3.284945e+01	5.251331e+02
1.950000e-06	4.573399e-06	7.945589e-09	3.246234e+01	5.217908e+02
1.960000e-06	4.516993e-06	7.836930e-09	3.206196e+01	5.183422e+02
1.970000e-06	4.459046e-06	7.837981e-09	3.165065e+01	5.147968e+02
1.980000e-06	4.399716e-06	7.793307e-09	3.122953e+01	5.111602e+02
1.990000e-06	4.338740e-06	7.800446e-09	3.079671e+01	5.074343e+02
2.000000e-06	4.276004e-06	7.606138e-09	3.035140e+01	5.036168e+02
2.010000e-06	4.211729e-06	7.655633e-09	2.989518e+01	4.997024e+02
2.020000e-06	4.146004e-06	7.585531e-09	2.942865e+01	4.956833e+02
2.030000e-06	4.078830e-06	7.413675e-09	2.895185e+01	4.915504e+02
2.040000e-06	4.010226e-06	7.449705e-09	2.846489e+01	4.872949e+02
2.050000e-06	3.940063e-06	7.373168e-09	2.796687e+01	4.829089e+02
2.060000e-06	3.868379e-06	7.324930e-09	2.745805e+01	4.783862e+02
2.070000e-06	3.795414e-06	7.174885e-09	2.694014e+01	4.737232e+02
2.080000e-06	3.721166e-06	7.118452e-09	2.641312e+01	4.689187e+02
2.090000e-06	3.645533e-06	7.115589e-09	2.587628e+01	4.639735e+02
2.100000e-06	3.568381e-06	6.985687e-09	2.532864e+01	4.588900e+02
2.110000e-06	3.489633e-06	6.913912e-09	2.476968e+01	4.536716e+02
2.120000e-06	3.409670e-06	6.821129e-09	2.420210e+01	4.483216e+02
2.130000e-06	3.328643e-06	6.763883e-09	2.362697e+01	4.428427e+02
2.140000e-06	3.246384e-06	6.653057e-09	2.304308e+01	4.372362e+02
2.150000e-06	3.163018e-06	6.567894e-09	2.245134e+01	4.315018e+02
2.160000e-06	3.078668e-06	6.506182e-09	2.185262e+01	4.256376e+02
2.170000e-06	2.993079e-06	6.395186e-09	2.124511e+01	4.196399e+02
2.180000e-06	2.906034e-06	6.304752e-09	2.062725e+01	4.135042e+02
2.190000e-06	2.817984e-06	6.200492e-09	2.000227e+01	4.072252e+02
2.200000e-06	2.729107e-06	6.126998e-09	1.937141e+01	4.007976e+02
2.210000e-06	2.639230e-06	6.025254e-09	1.873346e+01	3.942167e+02
2.220000e-06	2.548451e-06	5.910111e-09	1.808910e+01	3.874782e+02
2.230000e-06	2.456849e-06	5.799280e-09	1.743890e+01	3.805794e+02
2.240000e-06	2.364457e-06	5.691107e-09	1.678310e+01	3.735181e+02
2.250000e-06	2.271302e-06	5.591623e-09	1.612188e+01	3.662930e+02
2.260000e-06	2.177242e-06	5.478048e-09	1.545423e+01	3.589034e+02
2.270000e-06	2.082115e-06	5.363522e-09	1.477901e+01	3.513484e+02
2.280000e-06	1.986089e-06	5.244528e-09	1.409742e+01	3.436266e+02
2.290000e-06	1.889448e-06	5.126936e-09	1.341144e+01	3.357359e+02
2.300000e-06	1.792287e-06	5.003498e-09	1.272179e+01	3.276730e+02
2.310000e-06	1.694548e-06	4.884193e-09	1.202803e+01	3.194338e+02
2.320000e-06	1.596248e-06	4.756874e-09	1.133029e+01	3.110127e+02
2.330000e-06	1.497469e-06	4.619205e-09	1.062915e+01	3.024036e+02
2.340000e-06	1.398202e-06	4.479744e-09	9.924547e+00	2.935998e+02
2.350000e-06	1.298545e-06	4.344364e-09	9.217170e+00	2.845946e+02
2.360000e-06	1.198563e-06	4.214830e-09	8.507489e+00	2.753819e+02
2.370000e-06	1.098256e-06	4.073745e-09	7.795508e+00	2.659558e+02
2.380000e-06	9.976201e-07	3.923416e-09	7.081184e+00	2.563117e+02
2.390000e-06	8.965929e-07	3.774884e-09	6.364086e+00	2.464458e+02
2.400000e-06	7.951439e-07	3.627134e-09	5.643993e+00	2.363552e+02
2.410000e-06	6.933283e-07	3.471276e-09	4.921298e+00	2.260377e+02
2.420000e-06	5.911950e-07	3.308983e-09	4.196348e+00	2.154913e+02
2.430000e-06	4.887782e-07	3.143302e-09	3.469385e+00	2.047140e+02
2.440000e-06	3.861544e-07	2.978276e-09	2.740954e+00	1.937033e+02
2.450000e-06	2.833298e-07	2.808373e-09	2.011097e+00	1.824558e+02
2.460000e-06	1.803408e-07	2.634616e-09	1.280073e+00	1.709668e+02
2.470000e-06	7.726519e-08	2.460681e-09	5.484343e-01	1.592301e+02
2.480000e-06	-2.585875e-08	2.277564e-09	-1.835474e-01	1.472379e+02
2.490000e-06	-1.289651e-07	2.086631e-09	-9.154044e-01	1.349806e+02
2.500000e-06	-2.320520e-07	1.894777e-09	-1.647123e+00	1.224471e+02
2.510000e-06	-3.350837e-07	1.703159e-09	-2.378450e+00	1.096248e+02
2.520000e-06	-4.379512e-07	1.505074e-09	-3.108611e+00	9.650036e+01
2.530000e-06	-5.406240e-07	1.298041e-09	-3.837390e+00	8.305980e+01
2.540000e-06	-6.430661e-07	1.087996e-09	-4.564533e+00	6.928947e+01
2.550000e-06	-7.451939e-07	8.727190e-10	-5.289444e+00	5.517689e+01
2.560000e-06	-8.469283e-07	6.474678e-10	-6.011562e+00	4.071175e+01
2.570000e-06	-9.482436e-07	4.171340e-10	-6.730706e+00	2.588714e+01
2.580000e-06	-1.049150e-06	1.866992e-10	-7.446948e+00	1.070088e+01
2.590000e-06	-1.149683e-06	-4.721231e-11	-8.160541e+00	-4.843166e+00
2.600000e-06	-1.249802e-06	-2.879778e-10	-8.871190e+00	-2.073375e+01
2.610000e-06	-1.349441e-06	-5.344207e-10	-9.578433e+00	-3.695114e+01
2.620000e-06	-1.448556e-06	-7.873384e-10	-1.028196e+01	-5.346623e+01
2.630000e-06	-1.547148e-06	-1.046856e-09	-1.098177e+01	-7.024014e+01
2.640000e-06	-1.645244e-06	-1.308516e-09	-1.167807e+01	-8.722428e+01
2.650000e-06	-1.742714e-06	-1.570188e-09	-1.236992e+01	-1.043610e+02
2.660000e-06	-1.839545e-06	-1.832881e-09	-1.305723e+01	-1.215850e+02
2.670000e-06	-1.935899e-06	-2.096791e-09	-1.374116e+01	-1.388249e+02
2.680000e-06	-2.031755e-06	-2.358595e-09	-1.442155e+01	-1.560059e+02
2.690000e-06	-2.126927e-06	-2.619032e-09	-1.509709e+01	-1.730527e+02
2.700000e-06	-2.221183e-06	-2.877861e-09	-1.576613e+01	-1.898916e+02
2.710000e-06	-2.314447e-06	-3.132404e-09	-1.642812e+01	-2.064541e+02
2.720000e-06	-2.406724e-06	-3.381346e-09	-1.708311e+01	-2.226789e+02
2.730000e-06	-2.498097e-06	-3.623460e-09	-1.773169e+01	-2.385142e+02
2.740000e-06	-2.588632e-06	-3.858064e-09	-1.837431e+01	-2.539186e+02
2.750000e-06	-2.678227e-06	-4.084631e-09	-1.901026e+01	-2.688620e+02
2.760000e-06	-2.766905e-06	-4.306566e-09	-1.963970e+01	-2.833254e+02
2.770000e-06	-2.854773e-06	-4.522974e-09	-2.026340e+01	-2.972994e+02
2.780000e-06	-2.941683e-06	-4.731465e-09	-2.088029e+01	-3.107830e+02
2.790000e-06	-3.027433e-06	-4.931854e-09	-2.148895e+01	-3.237817e+02
2.800000e-06	-3.112047e-06	-5.124849e-09	-2.208955e+01	-3.363048e+02
2.810000e-06	-3.195565e-06	-5.310304e-09	-2.268236e+01	-3.483637e+02
2.820000e-06	-3.278045e-06	-5.486299e-09	-2.326781e+01	-3.599701e+02
2.830000e-06	-3.359442e-06	-5.654874e-09	-2.384557e+01	-3.711343e+02
2.840000e-06	-3.439741e-06	-5.816144e-09	-2.441555e+01	-3.818647e+02
2.850000e-06	-3.518869e-06	-5.970279e-09	-2.497720e+01	-3.921674e+02
2.860000e-06	-3.596551e-06	-6.119854e-09	-2.552860e+01	-4.020471e+02
2.870000e-06	-3.672718e-06	-6.265821e-09	-2.606923e+01	-4.115072e+02
2.880000e-06	-3.747432e-06	-6.406492e-09	-2.659956e+01	-4.205516e+02
2.890000e-06	-3.820735e-06	-6.540629e-09	-2.711987e+01	-4.291855e+02
2.900000e-06	-3.892721e-06	-6.670310e-09	-2.763083e+01	-4.374167e+02
2.910000e-06	-3.963292e-06	-6.794624e-09	-2.813175e+01	-4.452561e+02
2.920000e-06	-4.032248e-06	-6.910184e-09	-2.862120e+01	-4.527183e+02
2.930000e-06	-4.099718e-06	-7.018611e-09	-2.910011e+01	-4.598215e+02
2.940000e-06	-4.165816e-06	-7.122877e-09	-2.956928e+01	-4.665865e+02
