# Temperatura_=_80.19
# Concentracion g/m^3_=_15000.0
# C_Vs_to_Am_M_A/Vsm_=_65563218390.804596
# pendiente_HvsI_1/m_=_3716.3
# ordenada_HvsI_A/m_=_1297.0
# frecuencia_Hz_=_301597.0102246736

Tiempo_(s)	Campo_(V.s)	Magnetizacion_(V.s)	Campo_(kA/m)	Magnetizacion_(A/m)
0.000000e+00	-5.418485e-06	-9.688145e-09	-3.833649e+01	-6.325835e+02
1.000000e-08	-5.415950e-06	-9.684373e-09	-3.831855e+01	-6.323351e+02
2.000000e-08	-5.411583e-06	-9.676550e-09	-3.828766e+01	-6.319449e+02
3.000000e-08	-5.405589e-06	-9.668640e-09	-3.824525e+01	-6.314086e+02
4.000000e-08	-5.398006e-06	-9.658294e-09	-3.819160e+01	-6.307245e+02
5.000000e-08	-5.388559e-06	-9.643342e-09	-3.812476e+01	-6.298937e+02
6.000000e-08	-5.377065e-06	-9.624188e-09	-3.804344e+01	-6.289211e+02
7.000000e-08	-5.363700e-06	-9.598579e-09	-3.794888e+01	-6.278149e+02
8.000000e-08	-5.348229e-06	-9.601399e-09	-3.783942e+01	-6.265866e+02
9.000000e-08	-5.330480e-06	-9.637693e-09	-3.771384e+01	-6.252494e+02
1.000000e-07	-5.310704e-06	-9.597714e-09	-3.757392e+01	-6.238173e+02
1.100000e-07	-5.289020e-06	-9.539422e-09	-3.742050e+01	-6.223030e+02
1.200000e-07	-5.265589e-06	-9.489732e-09	-3.725473e+01	-6.207168e+02
1.300000e-07	-5.240610e-06	-9.371450e-09	-3.707800e+01	-6.190647e+02
1.400000e-07	-5.213981e-06	-9.438770e-09	-3.688959e+01	-6.173479e+02
1.500000e-07	-5.185684e-06	-9.479314e-09	-3.668939e+01	-6.155619e+02
1.600000e-07	-5.155954e-06	-9.310410e-09	-3.647904e+01	-6.136970e+02
1.700000e-07	-5.124716e-06	-9.390491e-09	-3.625803e+01	-6.117390e+02
1.800000e-07	-5.091350e-06	-9.351537e-09	-3.602196e+01	-6.096705e+02
1.900000e-07	-5.056040e-06	-9.163284e-09	-3.577214e+01	-6.074726e+02
2.000000e-07	-5.019305e-06	-9.258737e-09	-3.551224e+01	-6.051268e+02
2.100000e-07	-4.980807e-06	-9.207482e-09	-3.523986e+01	-6.026168e+02
2.200000e-07	-4.940440e-06	-9.100438e-09	-3.495426e+01	-5.999302e+02
2.300000e-07	-4.898113e-06	-9.139184e-09	-3.465479e+01	-5.970593e+02
2.400000e-07	-4.853853e-06	-9.044491e-09	-3.434164e+01	-5.940021e+02
2.500000e-07	-4.807876e-06	-8.972983e-09	-3.401635e+01	-5.907617e+02
2.600000e-07	-4.759966e-06	-8.948758e-09	-3.367738e+01	-5.873460e+02
2.700000e-07	-4.709902e-06	-8.895951e-09	-3.332317e+01	-5.837665e+02
2.800000e-07	-4.657751e-06	-8.862840e-09	-3.295420e+01	-5.800363e+02
2.900000e-07	-4.603763e-06	-8.759250e-09	-3.257222e+01	-5.761693e+02
3.000000e-07	-4.548206e-06	-8.674974e-09	-3.217915e+01	-5.721777e+02
3.100000e-07	-4.490969e-06	-8.652597e-09	-3.177419e+01	-5.680714e+02
3.200000e-07	-4.431879e-06	-8.622446e-09	-3.135612e+01	-5.638566e+02
3.300000e-07	-4.371208e-06	-8.537255e-09	-3.092687e+01	-5.595356e+02
3.400000e-07	-4.309060e-06	-8.434555e-09	-3.048716e+01	-5.551069e+02
3.500000e-07	-4.245565e-06	-8.385562e-09	-3.003793e+01	-5.505655e+02
3.600000e-07	-4.180590e-06	-8.305647e-09	-2.957822e+01	-5.459041e+02
3.700000e-07	-4.113812e-06	-8.237733e-09	-2.910576e+01	-5.411140e+02
3.800000e-07	-4.045498e-06	-8.191663e-09	-2.862242e+01	-5.361861e+02
3.900000e-07	-3.975851e-06	-8.089914e-09	-2.812967e+01	-5.311127e+02
4.000000e-07	-3.904948e-06	-7.985397e-09	-2.762802e+01	-5.258872e+02
4.100000e-07	-3.832798e-06	-7.897951e-09	-2.711754e+01	-5.205058e+02
4.200000e-07	-3.759117e-06	-7.843563e-09	-2.659624e+01	-5.149669e+02
4.300000e-07	-3.683844e-06	-7.768000e-09	-2.606368e+01	-5.092709e+02
4.400000e-07	-3.607159e-06	-7.665197e-09	-2.552112e+01	-5.034202e+02
4.500000e-07	-3.528983e-06	-7.564243e-09	-2.496801e+01	-4.974182e+02
4.600000e-07	-3.449281e-06	-7.465731e-09	-2.440411e+01	-4.912685e+02
4.700000e-07	-3.368380e-06	-7.383858e-09	-2.383173e+01	-4.849745e+02
4.800000e-07	-3.286363e-06	-7.295762e-09	-2.325144e+01	-4.785383e+02
4.900000e-07	-3.203187e-06	-7.196312e-09	-2.266296e+01	-4.719608e+02
5.000000e-07	-3.118965e-06	-7.079822e-09	-2.206709e+01	-4.652413e+02
5.100000e-07	-3.033744e-06	-6.956870e-09	-2.146414e+01	-4.583774e+02
5.200000e-07	-2.947560e-06	-6.849617e-09	-2.085437e+01	-4.513655e+02
5.300000e-07	-2.860418e-06	-6.754377e-09	-2.023783e+01	-4.442011e+02
5.400000e-07	-2.772397e-06	-6.651516e-09	-1.961507e+01	-4.368793e+02
5.500000e-07	-2.683380e-06	-6.530018e-09	-1.898526e+01	-4.293950e+02
5.600000e-07	-2.593050e-06	-6.398980e-09	-1.834617e+01	-4.217433e+02
5.700000e-07	-2.501534e-06	-6.281430e-09	-1.769868e+01	-4.139199e+02
5.800000e-07	-2.409213e-06	-6.175262e-09	-1.704550e+01	-4.059210e+02
5.900000e-07	-2.316141e-06	-6.055640e-09	-1.638700e+01	-3.977434e+02
6.000000e-07	-2.222222e-06	-5.915040e-09	-1.572251e+01	-3.893841e+02
6.100000e-07	-2.127573e-06	-5.774474e-09	-1.505286e+01	-3.808404e+02
6.200000e-07	-2.032229e-06	-5.641512e-09	-1.437829e+01	-3.721095e+02
6.300000e-07	-1.936157e-06	-5.508776e-09	-1.369856e+01	-3.631885e+02
6.400000e-07	-1.839326e-06	-5.377133e-09	-1.301347e+01	-3.540740e+02
6.500000e-07	-1.741677e-06	-5.236752e-09	-1.232259e+01	-3.447624e+02
6.600000e-07	-1.643219e-06	-5.082511e-09	-1.162599e+01	-3.352498e+02
6.700000e-07	-1.544087e-06	-4.924499e-09	-1.092461e+01	-3.255322e+02
6.800000e-07	-1.444506e-06	-4.776364e-09	-1.022007e+01	-3.156055e+02
6.900000e-07	-1.344566e-06	-4.630560e-09	-9.512981e+00	-3.054658e+02
7.000000e-07	-1.244197e-06	-4.472927e-09	-8.802859e+00	-2.951096e+02
7.100000e-07	-1.143424e-06	-4.303816e-09	-8.089871e+00	-2.845337e+02
7.200000e-07	-1.042342e-06	-4.130908e-09	-7.374709e+00	-2.737355e+02
7.300000e-07	-9.409216e-07	-3.960834e-09	-6.657142e+00	-2.627125e+02
7.400000e-07	-8.391392e-07	-3.792703e-09	-5.937019e+00	-2.514627e+02
7.500000e-07	-7.370896e-07	-3.621005e-09	-5.215005e+00	-2.399839e+02
7.600000e-07	-6.348021e-07	-3.439349e-09	-4.491307e+00	-2.282738e+02
7.700000e-07	-5.322641e-07	-3.249566e-09	-3.765838e+00	-2.163297e+02
7.800000e-07	-4.295316e-07	-3.061173e-09	-3.038992e+00	-2.041482e+02
7.900000e-07	-3.266861e-07	-2.876454e-09	-2.311347e+00	-1.917249e+02
8.000000e-07	-2.237540e-07	-2.687544e-09	-1.583089e+00	-1.790543e+02
8.100000e-07	-1.207336e-07	-2.488788e-09	-8.542058e-01	-1.661295e+02
8.200000e-07	-1.762896e-08	-2.283533e-09	-1.247272e-01	-1.529421e+02
8.300000e-07	8.549361e-08	-2.077916e-09	6.048784e-01	-1.394818e+02
8.400000e-07	1.885911e-07	-1.871926e-09	1.334307e+00	-1.257364e+02
8.500000e-07	2.916625e-07	-1.661703e-09	2.063550e+00	-1.116921e+02
8.600000e-07	3.946316e-07	-1.445021e-09	2.792070e+00	-9.733321e+01
8.700000e-07	4.974861e-07	-1.217354e-09	3.519779e+00	-8.264305e+01
8.800000e-07	6.002171e-07	-9.821654e-10	4.246614e+00	-6.760417e+01
8.900000e-07	7.027748e-07	-7.450378e-10	4.972223e+00	-5.219956e+01
9.000000e-07	8.050950e-07	-5.038359e-10	5.696152e+00	-3.641393e+01
9.100000e-07	9.070934e-07	-2.579398e-10	6.417804e+00	-2.023524e+01
9.200000e-07	1.008771e-06	-5.542219e-12	7.137183e+00	-3.656588e+00
9.300000e-07	1.110125e-06	2.530229e-10	7.854278e+00	1.332189e+01
9.400000e-07	1.211079e-06	5.169803e-10	8.568541e+00	3.069113e+01
9.500000e-07	1.311626e-06	7.833795e-10	9.279928e+00	4.843141e+01
9.600000e-07	1.411756e-06	1.052585e-09	9.988358e+00	6.651115e+01
9.700000e-07	1.511469e-06	1.328135e-09	1.069384e+01	8.488622e+01
9.800000e-07	1.610650e-06	1.610918e-09	1.139556e+01	1.035000e+02
9.900000e-07	1.709096e-06	1.897039e-09	1.209207e+01	1.222845e+02
1.000000e-06	1.806760e-06	2.182050e-09	1.278306e+01	1.411618e+02
1.010000e-06	1.903628e-06	2.467348e-09	1.346841e+01	1.600469e+02
1.020000e-06	1.999638e-06	2.752580e-09	1.414770e+01	1.788510e+02
1.030000e-06	2.094880e-06	3.038136e-09	1.482155e+01	1.974850e+02
1.040000e-06	2.189470e-06	3.321179e-09	1.549078e+01	2.158633e+02
1.050000e-06	2.283342e-06	3.594112e-09	1.615494e+01	2.339074e+02
1.060000e-06	2.376444e-06	3.856265e-09	1.681365e+01	2.515490e+02
1.070000e-06	2.468820e-06	4.111513e-09	1.746722e+01	2.687326e+02
1.080000e-06	2.560479e-06	4.364433e-09	1.811572e+01	2.854164e+02
1.090000e-06	2.651211e-06	4.612395e-09	1.875767e+01	3.015734e+02
1.100000e-06	2.740761e-06	4.852078e-09	1.939124e+01	3.171898e+02
1.110000e-06	2.829126e-06	5.080697e-09	2.001643e+01	3.322640e+02
1.120000e-06	2.916514e-06	5.301207e-09	2.063471e+01	3.468039e+02
1.130000e-06	3.003006e-06	5.514902e-09	2.124666e+01	3.608244e+02
1.140000e-06	3.088533e-06	5.721708e-09	2.185177e+01	3.743439e+02
1.150000e-06	3.173086e-06	5.920695e-09	2.245000e+01	3.873817e+02
1.160000e-06	3.256708e-06	6.111180e-09	2.304163e+01	3.999558e+02
1.170000e-06	3.339246e-06	6.296371e-09	2.362560e+01	4.120808e+02
1.180000e-06	3.420436e-06	6.474125e-09	2.420003e+01	4.237675e+02
1.190000e-06	3.500310e-06	6.646109e-09	2.476515e+01	4.350222e+02
1.200000e-06	3.578956e-06	6.811624e-09	2.532158e+01	4.458478e+02
1.210000e-06	3.656331e-06	6.970378e-09	2.586901e+01	4.562451e+02
1.220000e-06	3.732472e-06	7.121605e-09	2.640772e+01	4.662138e+02
1.230000e-06	3.807175e-06	7.266538e-09	2.693626e+01	4.757548e+02
1.240000e-06	3.880161e-06	7.406374e-09	2.745265e+01	4.848716e+02
1.250000e-06	3.951630e-06	7.540582e-09	2.795830e+01	4.935712e+02
1.260000e-06	4.021751e-06	7.667092e-09	2.845441e+01	5.018649e+02
1.270000e-06	4.090518e-06	7.786529e-09	2.894095e+01	5.097685e+02
1.280000e-06	4.157941e-06	7.899515e-09	2.941798e+01	5.173015e+02
1.290000e-06	4.223776e-06	8.006433e-09	2.988376e+01	5.244864e+02
1.300000e-06	4.287932e-06	8.108798e-09	3.033768e+01	5.313470e+02
1.310000e-06	4.350581e-06	8.207610e-09	3.078092e+01	5.379071e+02
1.320000e-06	4.411767e-06	8.304333e-09	3.121383e+01	5.441892e+02
1.330000e-06	4.471555e-06	8.396657e-09	3.163683e+01	5.502130e+02
1.340000e-06	4.529802e-06	8.485315e-09	3.204894e+01	5.559947e+02
1.350000e-06	4.586229e-06	8.571126e-09	3.244817e+01	5.615468e+02
1.360000e-06	4.640949e-06	8.651296e-09	3.283532e+01	5.668779e+02
1.370000e-06	4.694005e-06	8.726577e-09	3.321069e+01	5.719929e+02
1.380000e-06	4.745088e-06	8.799287e-09	3.357211e+01	5.768946e+02
1.390000e-06	4.794102e-06	8.870725e-09	3.391889e+01	5.815836e+02
1.400000e-06	4.841310e-06	8.939534e-09	3.425290e+01	5.860597e+02
1.410000e-06	4.886934e-06	9.004515e-09	3.457569e+01	5.903226e+02
1.420000e-06	4.930997e-06	9.066796e-09	3.488744e+01	5.943724e+02
1.430000e-06	4.973234e-06	9.125861e-09	3.518628e+01	5.982101e+02
1.440000e-06	5.013572e-06	9.181858e-09	3.547168e+01	6.018371e+02
1.450000e-06	5.052222e-06	9.234874e-09	3.574513e+01	6.052557e+02
1.460000e-06	5.089257e-06	9.284627e-09	3.600716e+01	6.084682e+02
1.470000e-06	5.124645e-06	9.329585e-09	3.625753e+01	6.114771e+02
1.480000e-06	5.158079e-06	9.367964e-09	3.649408e+01	6.142842e+02
1.490000e-06	5.189563e-06	9.402981e-09	3.671683e+01	6.168911e+02
1.500000e-06	5.219327e-06	9.437216e-09	3.692742e+01	6.192991e+02
1.510000e-06	5.247452e-06	9.470538e-09	3.712641e+01	6.215092e+02
1.520000e-06	5.273685e-06	9.501596e-09	3.731201e+01	6.235228e+02
1.530000e-06	5.297758e-06	9.529158e-09	3.748232e+01	6.253422e+02
1.540000e-06	5.319877e-06	9.552995e-09	3.763882e+01	6.269707e+02
1.550000e-06	5.340312e-06	9.573329e-09	3.778340e+01	6.284135e+02
1.560000e-06	5.358978e-06	9.590317e-09	3.791546e+01	6.296772e+02
1.570000e-06	5.375588e-06	9.605683e-09	3.803298e+01	6.307701e+02
1.580000e-06	5.390197e-06	9.621372e-09	3.813635e+01	6.317014e+02
1.590000e-06	5.402875e-06	9.634924e-09	3.822605e+01	6.324808e+02
1.600000e-06	5.413348e-06	9.645762e-09	3.830014e+01	6.331173e+02
1.610000e-06	5.421636e-06	9.654183e-09	3.835878e+01	6.336188e+02
1.620000e-06	5.428016e-06	9.660142e-09	3.840392e+01	6.339909e+02
1.630000e-06	5.432627e-06	9.665342e-09	3.843655e+01	6.342368e+02
1.640000e-06	5.435323e-06	9.669510e-09	3.845562e+01	6.343566e+02
1.650000e-06	5.435942e-06	9.672811e-09	3.846000e+01	6.343482e+02
1.660000e-06	5.434687e-06	9.669585e-09	3.845112e+01	6.342072e+02
1.670000e-06	5.431743e-06	9.662545e-09	3.843029e+01	6.339285e+02
1.680000e-06	5.427161e-06	9.656018e-09	3.839787e+01	6.335069e+02
1.690000e-06	5.420705e-06	9.647249e-09	3.835219e+01	6.329387e+02
1.700000e-06	5.412409e-06	9.637655e-09	3.829350e+01	6.322226e+02
1.710000e-06	5.402529e-06	9.630468e-09	3.822359e+01	6.313605e+02
1.720000e-06	5.390974e-06	9.630210e-09	3.814184e+01	6.303580e+02
1.730000e-06	5.377482e-06	9.617061e-09	3.804638e+01	6.292243e+02
1.740000e-06	5.361901e-06	9.524092e-09	3.793615e+01	6.279711e+02
1.750000e-06	5.344000e-06	9.506733e-09	3.780949e+01	6.266120e+02
1.760000e-06	5.323345e-06	9.514906e-09	3.766336e+01	6.251609e+02
1.770000e-06	5.300256e-06	9.512086e-09	3.750000e+01	6.236301e+02
1.780000e-06	5.275775e-06	9.590415e-09	3.732679e+01	6.220291e+02
1.790000e-06	5.250590e-06	9.436011e-09	3.714861e+01	6.203629e+02
1.800000e-06	5.224096e-06	9.384483e-09	3.696116e+01	6.186314e+02
1.810000e-06	5.195356e-06	9.492959e-09	3.675782e+01	6.168291e+02
1.820000e-06	5.164751e-06	9.314638e-09	3.654128e+01	6.149453e+02
1.830000e-06	5.132540e-06	9.348962e-09	3.631339e+01	6.129648e+02
1.840000e-06	5.098367e-06	9.423008e-09	3.607161e+01	6.108698e+02
1.850000e-06	5.062578e-06	9.204280e-09	3.581840e+01	6.086414e+02
1.860000e-06	5.025056e-06	9.266754e-09	3.555292e+01	6.062613e+02
1.870000e-06	4.985576e-06	9.235671e-09	3.527360e+01	6.037140e+02
1.880000e-06	4.944443e-06	9.057320e-09	3.498258e+01	6.009880e+02
1.890000e-06	4.901497e-06	9.154386e-09	3.467873e+01	5.980768e+02
1.900000e-06	4.856887e-06	9.064452e-09	3.436310e+01	5.949795e+02
1.910000e-06	4.810473e-06	9.016742e-09	3.403472e+01	5.917004e+02
1.920000e-06	4.761956e-06	8.990243e-09	3.369146e+01	5.882482e+02
1.930000e-06	4.711769e-06	8.811271e-09	3.333638e+01	5.846348e+02
1.940000e-06	4.659872e-06	8.894730e-09	3.296920e+01	5.808739e+02
1.950000e-06	4.605875e-06	8.835789e-09	3.258717e+01	5.769788e+02
1.960000e-06	4.549941e-06	8.706792e-09	3.219142e+01	5.729616e+02
1.970000e-06	4.492342e-06	8.663206e-09	3.178390e+01	5.688312e+02
1.980000e-06	4.433284e-06	8.558786e-09	3.136606e+01	5.645933e+02
1.990000e-06	4.372699e-06	8.556578e-09	3.093742e+01	5.602491e+02
2.000000e-06	4.310331e-06	8.453749e-09	3.049616e+01	5.557964e+02
2.010000e-06	4.246308e-06	8.412514e-09	3.004318e+01	5.512297e+02
2.020000e-06	4.180795e-06	8.360091e-09	2.957967e+01	5.465411e+02
2.030000e-06	4.113881e-06	8.197271e-09	2.910625e+01	5.417218e+02
2.040000e-06	4.045551e-06	8.167150e-09	2.862280e+01	5.367630e+02
2.050000e-06	3.975656e-06	8.099539e-09	2.812829e+01	5.316571e+02
2.060000e-06	3.904241e-06	8.045432e-09	2.762301e+01	5.263981e+02
2.070000e-06	3.831481e-06	7.938949e-09	2.710823e+01	5.209826e+02
2.080000e-06	3.757434e-06	7.816217e-09	2.658433e+01	5.154095e+02
2.090000e-06	3.681972e-06	7.765916e-09	2.605043e+01	5.096798e+02
2.100000e-06	3.605007e-06	7.667565e-09	2.550590e+01	5.037960e+02
2.110000e-06	3.526406e-06	7.599243e-09	2.494978e+01	4.977617e+02
2.120000e-06	3.446464e-06	7.491287e-09	2.438418e+01	4.915805e+02
2.130000e-06	3.365494e-06	7.386442e-09	2.381131e+01	4.852555e+02
2.140000e-06	3.283380e-06	7.279684e-09	2.323034e+01	4.787887e+02
2.150000e-06	3.200198e-06	7.168063e-09	2.264182e+01	4.721805e+02
2.160000e-06	3.116008e-06	7.102614e-09	2.204616e+01	4.654299e+02
2.170000e-06	3.030646e-06	7.006677e-09	2.144221e+01	4.585342e+02
2.180000e-06	2.943856e-06	6.887830e-09	2.082816e+01	4.514897e+02
2.190000e-06	2.855872e-06	6.748241e-09	2.020567e+01	4.442917e+02
2.200000e-06	2.766997e-06	6.641962e-09	1.957686e+01	4.369351e+02
2.210000e-06	2.677192e-06	6.555005e-09	1.894148e+01	4.294149e+02
2.220000e-06	2.586475e-06	6.441265e-09	1.829964e+01	4.217264e+02
2.230000e-06	2.494906e-06	6.308602e-09	1.765178e+01	4.138654e+02
2.240000e-06	2.402592e-06	6.176367e-09	1.699865e+01	4.058281e+02
2.250000e-06	2.309406e-06	6.057251e-09	1.633935e+01	3.976114e+02
2.260000e-06	2.215170e-06	5.928977e-09	1.567262e+01	3.892125e+02
2.270000e-06	2.119958e-06	5.808256e-09	1.499898e+01	3.806286e+02
2.280000e-06	2.023923e-06	5.682730e-09	1.431952e+01	3.718568e+02
2.290000e-06	1.927190e-06	5.535393e-09	1.363512e+01	3.628943e+02
2.300000e-06	1.829868e-06	5.382139e-09	1.294655e+01	3.537375e+02
2.310000e-06	1.732018e-06	5.246755e-09	1.225425e+01	3.443828e+02
2.320000e-06	1.633609e-06	5.120658e-09	1.155800e+01	3.348263e+02
2.330000e-06	1.534673e-06	4.973804e-09	1.085801e+01	3.250638e+02
2.340000e-06	1.435259e-06	4.809477e-09	1.015464e+01	3.150914e+02
2.350000e-06	1.335432e-06	4.644968e-09	9.448358e+00	3.049052e+02
2.360000e-06	1.235332e-06	4.492104e-09	8.740134e+00	2.945019e+02
2.370000e-06	1.134967e-06	4.341848e-09	8.030039e+00	2.838782e+02
2.380000e-06	1.034192e-06	4.184544e-09	7.317042e+00	2.730317e+02
2.390000e-06	9.330081e-07	4.013290e-09	6.601154e+00	2.619599e+02
2.400000e-06	8.313626e-07	3.832099e-09	5.881999e+00	2.506608e+02
2.410000e-06	7.292373e-07	3.654363e-09	5.159449e+00	2.391323e+02
2.420000e-06	6.267045e-07	3.481643e-09	4.434016e+00	2.273719e+02
2.430000e-06	5.238207e-07	3.307394e-09	3.706100e+00	2.153769e+02
2.440000e-06	4.207461e-07	3.122089e-09	2.976834e+00	2.031436e+02
2.450000e-06	3.175593e-07	2.924170e-09	2.246773e+00	1.906675e+02
2.460000e-06	2.142290e-07	2.723488e-09	1.515698e+00	1.779427e+02
2.470000e-06	1.108220e-07	2.530688e-09	7.840801e-01	1.649621e+02
2.480000e-06	7.367800e-09	2.337143e-09	5.212814e-02	1.517168e+02
2.490000e-06	-9.611320e-08	2.132708e-09	-6.800134e-01	1.381960e+02
2.500000e-06	-1.995364e-07	1.916884e-09	-1.411746e+00	1.243875e+02
2.510000e-06	-3.029445e-07	1.695056e-09	-2.143372e+00	1.102767e+02
2.520000e-06	-4.062941e-07	1.475003e-09	-2.874584e+00	9.584800e+01
2.530000e-06	-5.094897e-07	1.254551e-09	-3.604706e+00	8.108421e+01
2.540000e-06	-6.125068e-07	1.030330e-09	-4.333565e+00	6.596800e+01
2.550000e-06	-7.152239e-07	7.966619e-10	-5.060302e+00	5.048258e+01
2.560000e-06	-8.175004e-07	5.497109e-10	-5.783921e+00	3.461323e+01
2.570000e-06	-9.193172e-07	2.953575e-10	-6.504289e+00	1.834884e+01
2.580000e-06	-1.020661e-06	4.154071e-11	-7.221308e+00	1.683864e+00
2.590000e-06	-1.121513e-06	-2.153008e-10	-7.934853e+00	-1.537982e+01
2.600000e-06	-1.221902e-06	-4.836957e-10	-8.645117e+00	-3.283097e+01
2.610000e-06	-1.321869e-06	-7.604439e-10	-9.352398e+00	-5.064743e+01
2.620000e-06	-1.421390e-06	-1.040497e-09	-1.005652e+01	-6.879496e+01
2.630000e-06	-1.520440e-06	-1.320435e-09	-1.075731e+01	-8.722673e+01
2.640000e-06	-1.619043e-06	-1.602230e-09	-1.145494e+01	-1.058836e+02
2.650000e-06	-1.717090e-06	-1.890469e-09	-1.214864e+01	-1.246951e+02
2.660000e-06	-1.814464e-06	-2.186174e-09	-1.283757e+01	-1.435818e+02
2.670000e-06	-1.911196e-06	-2.484309e-09	-1.352196e+01	-1.624575e+02
2.680000e-06	-2.007378e-06	-2.774662e-09	-1.420246e+01	-1.812330e+02
2.690000e-06	-2.103000e-06	-3.057108e-09	-1.487900e+01	-1.998195e+02
2.700000e-06	-2.197908e-06	-3.336616e-09	-1.555049e+01	-2.181328e+02
2.710000e-06	-2.291886e-06	-3.615395e-09	-1.621539e+01	-2.360964e+02
2.720000e-06	-2.384796e-06	-3.887093e-09	-1.687274e+01	-2.536444e+02
2.730000e-06	-2.476730e-06	-4.146349e-09	-1.752319e+01	-2.707243e+02
2.740000e-06	-2.567801e-06	-4.394806e-09	-1.816753e+01	-2.872974e+02
2.750000e-06	-2.658008e-06	-4.635092e-09	-1.880575e+01	-3.033396e+02
2.760000e-06	-2.747251e-06	-4.872082e-09	-1.943716e+01	-3.188399e+02
2.770000e-06	-2.835582e-06	-5.106648e-09	-2.006211e+01	-3.337991e+02
2.780000e-06	-2.923121e-06	-5.334243e-09	-2.068146e+01	-3.482267e+02
2.790000e-06	-3.009699e-06	-5.550761e-09	-2.129402e+01	-3.621385e+02
2.800000e-06	-3.095006e-06	-5.756899e-09	-2.189757e+01	-3.755535e+02
2.810000e-06	-3.179110e-06	-5.954205e-09	-2.249262e+01	-3.884909e+02
2.820000e-06	-3.262172e-06	-6.143596e-09	-2.308029e+01	-4.009680e+02
2.830000e-06	-3.344126e-06	-6.326950e-09	-2.366013e+01	-4.129988e+02
2.840000e-06	-3.424995e-06	-6.501679e-09	-2.423228e+01	-4.245928e+02
2.850000e-06	-3.504751e-06	-6.667097e-09	-2.479657e+01	-4.357558e+02
2.860000e-06	-3.583185e-06	-6.826986e-09	-2.535150e+01	-4.464900e+02
2.870000e-06	-3.660067e-06	-6.984489e-09	-2.589545e+01	-4.567957e+02
2.880000e-06	-3.735432e-06	-7.137606e-09	-2.642867e+01	-4.666730e+02
2.890000e-06	-3.809391e-06	-7.282896e-09	-2.695194e+01	-4.761231e+02
2.900000e-06	-3.882000e-06	-7.421329e-09	-2.746566e+01	-4.851501e+02
2.910000e-06	-3.953304e-06	-7.554738e-09	-2.797014e+01	-4.937620e+02
2.920000e-06	-4.023013e-06	-7.681058e-09	-2.846334e+01	-5.019710e+02
2.930000e-06	-4.091114e-06	-7.800709e-09	-2.894516e+01	-5.097938e+02
2.940000e-06	-4.157883e-06	-7.915544e-09	-2.941756e+01	-5.172506e+02
