# Temperatura_=_32.07
# Concentracion g/m^3_=_15000.0
# C_Vs_to_Am_M_A/Vsm_=_65563218390.804596
# pendiente_HvsI_1/m_=_3716.3
# ordenada_HvsI_A/m_=_1297.0
# frecuencia_Hz_=_301600.4539089001

Tiempo_(s)	Campo_(V.s)	Magnetizacion_(V.s)	Campo_(kA/m)	Magnetizacion_(A/m)
0.000000e+00	-5.414060e-06	-8.118815e-09	-3.833652e+01	-5.304052e+02
1.000000e-08	-5.411621e-06	-8.116080e-09	-3.831925e+01	-5.302301e+02
2.000000e-08	-5.407400e-06	-8.110610e-09	-3.828936e+01	-5.299486e+02
3.000000e-08	-5.401566e-06	-8.105720e-09	-3.824805e+01	-5.295593e+02
4.000000e-08	-5.394115e-06	-8.099279e-09	-3.819529e+01	-5.290617e+02
5.000000e-08	-5.384844e-06	-8.089145e-09	-3.812964e+01	-5.284571e+02
6.000000e-08	-5.373492e-06	-8.074392e-09	-3.804926e+01	-5.277491e+02
7.000000e-08	-5.360144e-06	-8.056557e-09	-3.795474e+01	-5.269437e+02
8.000000e-08	-5.344673e-06	-8.059386e-09	-3.784520e+01	-5.260494e+02
9.000000e-08	-5.326973e-06	-8.079592e-09	-3.771986e+01	-5.250763e+02
1.000000e-07	-5.307234e-06	-8.057192e-09	-3.758010e+01	-5.240352e+02
1.100000e-07	-5.285603e-06	-8.019100e-09	-3.742692e+01	-5.229362e+02
1.200000e-07	-5.262247e-06	-7.973117e-09	-3.726154e+01	-5.217880e+02
1.300000e-07	-5.237263e-06	-7.890352e-09	-3.708464e+01	-5.205957e+02
1.400000e-07	-5.210666e-06	-7.932694e-09	-3.689631e+01	-5.193606e+02
1.500000e-07	-5.182509e-06	-7.965760e-09	-3.669692e+01	-5.180795e+02
1.600000e-07	-5.152895e-06	-7.864350e-09	-3.648723e+01	-5.167442e+02
1.700000e-07	-5.121745e-06	-7.897779e-09	-3.626666e+01	-5.153430e+02
1.800000e-07	-5.088515e-06	-7.867808e-09	-3.603136e+01	-5.138607e+02
1.900000e-07	-5.053299e-06	-7.769046e-09	-3.578200e+01	-5.122809e+02
2.000000e-07	-5.016594e-06	-7.826721e-09	-3.552209e+01	-5.105873e+02
2.100000e-07	-4.978207e-06	-7.771051e-09	-3.525028e+01	-5.087654e+02
2.200000e-07	-4.937987e-06	-7.672769e-09	-3.496549e+01	-5.068040e+02
2.300000e-07	-4.895854e-06	-7.689594e-09	-3.466714e+01	-5.046965e+02
2.400000e-07	-4.851763e-06	-7.659468e-09	-3.435494e+01	-5.024412e+02
2.500000e-07	-4.805858e-06	-7.636218e-09	-3.402989e+01	-5.000412e+02
2.600000e-07	-4.758041e-06	-7.609024e-09	-3.369130e+01	-4.975040e+02
2.700000e-07	-4.708074e-06	-7.519789e-09	-3.333749e+01	-4.948403e+02
2.800000e-07	-4.656009e-06	-7.474119e-09	-3.296882e+01	-4.920623e+02
2.900000e-07	-4.602149e-06	-7.452310e-09	-3.258744e+01	-4.891822e+02
3.000000e-07	-4.546751e-06	-7.410090e-09	-3.219517e+01	-4.862108e+02
3.100000e-07	-4.489689e-06	-7.370733e-09	-3.179112e+01	-4.831556e+02
3.200000e-07	-4.430743e-06	-7.331264e-09	-3.137373e+01	-4.800209e+02
3.300000e-07	-4.370138e-06	-7.249741e-09	-3.094459e+01	-4.768064e+02
3.400000e-07	-4.308113e-06	-7.185371e-09	-3.050540e+01	-4.735082e+02
3.500000e-07	-4.244678e-06	-7.179404e-09	-3.005622e+01	-4.701191e+02
3.600000e-07	-4.179718e-06	-7.127524e-09	-2.959624e+01	-4.666299e+02
3.700000e-07	-4.113118e-06	-7.045860e-09	-2.912466e+01	-4.630304e+02
3.800000e-07	-4.044975e-06	-6.992367e-09	-2.864214e+01	-4.593111e+02
3.900000e-07	-3.975433e-06	-6.934682e-09	-2.814972e+01	-4.554641e+02
4.000000e-07	-3.904648e-06	-6.868738e-09	-2.764850e+01	-4.514839e+02
4.100000e-07	-3.832564e-06	-6.803947e-09	-2.713808e+01	-4.473679e+02
4.200000e-07	-3.758967e-06	-6.747811e-09	-2.661694e+01	-4.431166e+02
4.300000e-07	-3.683827e-06	-6.681745e-09	-2.608488e+01	-4.387327e+02
4.400000e-07	-3.607161e-06	-6.608292e-09	-2.554201e+01	-4.342204e+02
4.500000e-07	-3.528966e-06	-6.544223e-09	-2.498832e+01	-4.295848e+02
4.600000e-07	-3.449298e-06	-6.484673e-09	-2.442420e+01	-4.248303e+02
4.700000e-07	-3.368324e-06	-6.406557e-09	-2.385083e+01	-4.199602e+02
4.800000e-07	-3.286237e-06	-6.309611e-09	-2.326958e+01	-4.149757e+02
4.900000e-07	-3.203085e-06	-6.233147e-09	-2.268078e+01	-4.098756e+02
5.000000e-07	-3.118903e-06	-6.166960e-09	-2.208470e+01	-4.046564e+02
5.100000e-07	-3.033757e-06	-6.083629e-09	-2.148179e+01	-3.993128e+02
5.200000e-07	-2.947687e-06	-5.994235e-09	-2.087233e+01	-3.938382e+02
5.300000e-07	-2.860671e-06	-5.904912e-09	-2.025618e+01	-3.882255e+02
5.400000e-07	-2.772619e-06	-5.810075e-09	-1.963269e+01	-3.824677e+02
5.500000e-07	-2.683547e-06	-5.719356e-09	-1.900198e+01	-3.765592e+02
5.600000e-07	-2.593396e-06	-5.634867e-09	-1.836363e+01	-3.704959e+02
5.700000e-07	-2.502109e-06	-5.545909e-09	-1.771723e+01	-3.642752e+02
5.800000e-07	-2.409899e-06	-5.444267e-09	-1.706430e+01	-3.578966e+02
5.900000e-07	-2.316910e-06	-5.337392e-09	-1.640585e+01	-3.513607e+02
6.000000e-07	-2.223142e-06	-5.236247e-09	-1.574189e+01	-3.446689e+02
6.100000e-07	-2.128687e-06	-5.135256e-09	-1.507306e+01	-3.378229e+02
6.200000e-07	-2.033527e-06	-5.027467e-09	-1.439924e+01	-3.308237e+02
6.300000e-07	-1.937517e-06	-4.915844e-09	-1.371940e+01	-3.236710e+02
6.400000e-07	-1.840720e-06	-4.805857e-09	-1.303399e+01	-3.163633e+02
6.500000e-07	-1.743223e-06	-4.694798e-09	-1.234362e+01	-3.088971e+02
6.600000e-07	-1.645027e-06	-4.578680e-09	-1.164831e+01	-3.012675e+02
6.700000e-07	-1.546170e-06	-4.456391e-09	-1.094830e+01	-2.934681e+02
6.800000e-07	-1.446707e-06	-4.329042e-09	-1.024402e+01	-2.854918e+02
6.900000e-07	-1.346717e-06	-4.201235e-09	-9.535996e+00	-2.773312e+02
7.000000e-07	-1.246294e-06	-4.077041e-09	-8.824906e+00	-2.689790e+02
7.100000e-07	-1.145549e-06	-3.952655e-09	-8.111540e+00	-2.604287e+02
7.200000e-07	-1.044515e-06	-3.820475e-09	-7.396128e+00	-2.516748e+02
7.300000e-07	-9.431742e-07	-3.681132e-09	-6.678540e+00	-2.427127e+02
7.400000e-07	-8.414718e-07	-3.537961e-09	-5.958394e+00	-2.335389e+02
7.500000e-07	-7.394658e-07	-3.391863e-09	-5.236097e+00	-2.241507e+02
7.600000e-07	-6.372581e-07	-3.244340e-09	-4.512373e+00	-2.145457e+02
7.700000e-07	-5.348604e-07	-3.095642e-09	-3.787303e+00	-2.047216e+02
7.800000e-07	-4.323291e-07	-2.943685e-09	-3.061287e+00	-1.946757e+02
7.900000e-07	-3.296828e-07	-2.786547e-09	-2.334457e+00	-1.844048e+02
8.000000e-07	-2.269203e-07	-2.623301e-09	-1.606804e+00	-1.739047e+02
8.100000e-07	-1.240458e-07	-2.456058e-09	-8.783582e-01	-1.631706e+02
8.200000e-07	-2.109643e-08	-2.286750e-09	-1.493821e-01	-1.521965e+02
8.300000e-07	8.185852e-08	-2.115111e-09	5.796335e-01	-1.409760e+02
8.400000e-07	1.848078e-07	-1.939437e-09	1.308609e+00	-1.295019e+02
8.500000e-07	2.877323e-07	-1.759008e-09	2.037409e+00	-1.177663e+02
8.600000e-07	3.905773e-07	-1.576561e-09	2.765646e+00	-1.057613e+02
8.700000e-07	4.933234e-07	-1.390233e-09	3.493183e+00	-9.347851e+01
8.800000e-07	5.959581e-07	-1.197327e-09	4.219931e+00	-8.090938e+01
8.900000e-07	6.984277e-07	-1.000312e-09	4.945510e+00	-6.804552e+01
9.000000e-07	8.006810e-07	-8.013983e-10	5.669557e+00	-5.487888e+01
9.100000e-07	9.026882e-07	-6.003300e-10	6.391862e+00	-4.140234e+01
9.200000e-07	1.004365e-06	-3.945135e-10	7.111824e+00	-2.761040e+01
9.300000e-07	1.105629e-06	-1.824832e-10	7.828872e+00	-1.350015e+01
9.400000e-07	1.206539e-06	3.677228e-11	8.543407e+00	9.274702e-01
9.500000e-07	1.307063e-06	2.608709e-10	9.255205e+00	1.566641e+01
9.600000e-07	1.407158e-06	4.884740e-10	9.963974e+00	3.070412e+01
9.700000e-07	1.506798e-06	7.212036e-10	1.066951e+01	4.602031e+01
9.800000e-07	1.605871e-06	9.592168e-10	1.137104e+01	6.158602e+01
9.900000e-07	1.704282e-06	1.201245e-09	1.206788e+01	7.736311e+01
1.000000e-06	1.801901e-06	1.443712e-09	1.275911e+01	9.330436e+01
1.010000e-06	1.898700e-06	1.686283e-09	1.344454e+01	1.093543e+02
1.020000e-06	1.994721e-06	1.930411e-09	1.412445e+01	1.254504e+02
1.030000e-06	2.089973e-06	2.177314e-09	1.479893e+01	1.415256e+02
1.040000e-06	2.184446e-06	2.423631e-09	1.546789e+01	1.575103e+02
1.050000e-06	2.278171e-06	2.664553e-09	1.613154e+01	1.733357e+02
1.060000e-06	2.371168e-06	2.899632e-09	1.679005e+01	1.889362e+02
1.070000e-06	2.463483e-06	3.130053e-09	1.744372e+01	2.042525e+02
1.080000e-06	2.555124e-06	3.358007e-09	1.809263e+01	2.192334e+02
1.090000e-06	2.645876e-06	3.580602e-09	1.873523e+01	2.338373e+02
1.100000e-06	2.735392e-06	3.795670e-09	1.936909e+01	2.480333e+02
1.110000e-06	2.823639e-06	4.003034e-09	1.999396e+01	2.618002e+02
1.120000e-06	2.910958e-06	4.203143e-09	2.061226e+01	2.751265e+02
1.130000e-06	2.997434e-06	4.397804e-09	2.122459e+01	2.880082e+02
1.140000e-06	3.082907e-06	4.587933e-09	2.182981e+01	3.004470e+02
1.150000e-06	3.167371e-06	4.772062e-09	2.242790e+01	3.124478e+02
1.160000e-06	3.250908e-06	4.948813e-09	2.301942e+01	3.240175e+02
1.170000e-06	3.333427e-06	5.119527e-09	2.360373e+01	3.351621e+02
1.180000e-06	3.414649e-06	5.285066e-09	2.417885e+01	3.458866e+02
1.190000e-06	3.494559e-06	5.444562e-09	2.474469e+01	3.561939e+02
1.200000e-06	3.573262e-06	5.595249e-09	2.530197e+01	3.660852e+02
1.210000e-06	3.650691e-06	5.737350e-09	2.585024e+01	3.755605e+02
1.220000e-06	3.726856e-06	5.873114e-09	2.638957e+01	3.846202e+02
1.230000e-06	3.801587e-06	6.004121e-09	2.691873e+01	3.932659e+02
1.240000e-06	3.874647e-06	6.131526e-09	2.743606e+01	4.015022e+02
1.250000e-06	3.946155e-06	6.252607e-09	2.794240e+01	4.093375e+02
1.260000e-06	4.016286e-06	6.364202e-09	2.843900e+01	4.167845e+02
1.270000e-06	4.085109e-06	6.468549e-09	2.892633e+01	4.238607e+02
1.280000e-06	4.152619e-06	6.569637e-09	2.940436e+01	4.305874e+02
1.290000e-06	4.218461e-06	6.667071e-09	2.987058e+01	4.369888e+02
1.300000e-06	4.282545e-06	6.759792e-09	3.032435e+01	4.430907e+02
1.310000e-06	4.345156e-06	6.847862e-09	3.076769e+01	4.489182e+02
1.320000e-06	4.406312e-06	6.932769e-09	3.120073e+01	4.544947e+02
1.330000e-06	4.466119e-06	7.015458e-09	3.162422e+01	4.598400e+02
1.340000e-06	4.524383e-06	7.096109e-09	3.203679e+01	4.649694e+02
1.350000e-06	4.580804e-06	7.173061e-09	3.243630e+01	4.698929e+02
1.360000e-06	4.635533e-06	7.244572e-09	3.282383e+01	4.746159e+02
1.370000e-06	4.688615e-06	7.310602e-09	3.319970e+01	4.791390e+02
1.380000e-06	4.739812e-06	7.372787e-09	3.356223e+01	4.834600e+02
1.390000e-06	4.788912e-06	7.433719e-09	3.390989e+01	4.875743e+02
1.400000e-06	4.836139e-06	7.492347e-09	3.424431e+01	4.914772e+02
1.410000e-06	4.881758e-06	7.546995e-09	3.456733e+01	4.951647e+02
1.420000e-06	4.925798e-06	7.598705e-09	3.487917e+01	4.986350e+02
1.430000e-06	4.968058e-06	7.649861e-09	3.517842e+01	5.018889e+02
1.440000e-06	5.008418e-06	7.699001e-09	3.546420e+01	5.049301e+02
1.450000e-06	5.047064e-06	7.742428e-09	3.573785e+01	5.077652e+02
1.460000e-06	5.084114e-06	7.780296e-09	3.600020e+01	5.104026e+02
1.470000e-06	5.119531e-06	7.815113e-09	3.625098e+01	5.128523e+02
1.480000e-06	5.153014e-06	7.846729e-09	3.648807e+01	5.151244e+02
1.490000e-06	5.184566e-06	7.874376e-09	3.671149e+01	5.172285e+02
1.500000e-06	5.214393e-06	7.899136e-09	3.692269e+01	5.191730e+02
1.510000e-06	5.242534e-06	7.923815e-09	3.712196e+01	5.209644e+02
1.520000e-06	5.268772e-06	7.948679e-09	3.730775e+01	5.226079e+02
1.530000e-06	5.292861e-06	7.971909e-09	3.747832e+01	5.241066e+02
1.540000e-06	5.315016e-06	7.992096e-09	3.763520e+01	5.254629e+02
1.550000e-06	5.335471e-06	8.009508e-09	3.778004e+01	5.266788e+02
1.560000e-06	5.354173e-06	8.024762e-09	3.791246e+01	5.277561e+02
1.570000e-06	5.370892e-06	8.038301e-09	3.803085e+01	5.286975e+02
1.580000e-06	5.385586e-06	8.050943e-09	3.813490e+01	5.295065e+02
1.590000e-06	5.398287e-06	8.061764e-09	3.822483e+01	5.301875e+02
1.600000e-06	5.408809e-06	8.069907e-09	3.829934e+01	5.307456e+02
1.610000e-06	5.417148e-06	8.076975e-09	3.835838e+01	5.311863e+02
1.620000e-06	5.423532e-06	8.083378e-09	3.840359e+01	5.315146e+02
1.630000e-06	5.428099e-06	8.089139e-09	3.843593e+01	5.317347e+02
1.640000e-06	5.430779e-06	8.092870e-09	3.845490e+01	5.318495e+02
1.650000e-06	5.431499e-06	8.093799e-09	3.846000e+01	5.318605e+02
1.660000e-06	5.430370e-06	8.090565e-09	3.845201e+01	5.317676e+02
1.670000e-06	5.427548e-06	8.086003e-09	3.843203e+01	5.315695e+02
1.680000e-06	5.423108e-06	8.081988e-09	3.840059e+01	5.312648e+02
1.690000e-06	5.416801e-06	8.076792e-09	3.835593e+01	5.308520e+02
1.700000e-06	5.408585e-06	8.069874e-09	3.829775e+01	5.303311e+02
1.710000e-06	5.398704e-06	8.062020e-09	3.822779e+01	5.297037e+02
1.720000e-06	5.387156e-06	8.059894e-09	3.814601e+01	5.289740e+02
1.730000e-06	5.373714e-06	8.045359e-09	3.805083e+01	5.281486e+02
1.740000e-06	5.358218e-06	7.991265e-09	3.794111e+01	5.272362e+02
1.750000e-06	5.340368e-06	7.972558e-09	3.781471e+01	5.262474e+02
1.760000e-06	5.319766e-06	7.972497e-09	3.766883e+01	5.251928e+02
1.770000e-06	5.296796e-06	7.987718e-09	3.750618e+01	5.240825e+02
1.780000e-06	5.272463e-06	8.036727e-09	3.733388e+01	5.229242e+02
1.790000e-06	5.247383e-06	7.937312e-09	3.715629e+01	5.217226e+02
1.800000e-06	5.221000e-06	7.888988e-09	3.696947e+01	5.204778e+02
1.810000e-06	5.192388e-06	7.937231e-09	3.676688e+01	5.191857e+02
1.820000e-06	5.161860e-06	7.838791e-09	3.655071e+01	5.178372e+02
1.830000e-06	5.129779e-06	7.855216e-09	3.632355e+01	5.164196e+02
1.840000e-06	5.095732e-06	7.892338e-09	3.608247e+01	5.149176e+02
1.850000e-06	5.059929e-06	7.776383e-09	3.582895e+01	5.133145e+02
1.860000e-06	5.022392e-06	7.805455e-09	3.556315e+01	5.115943e+02
1.870000e-06	4.982988e-06	7.805589e-09	3.528413e+01	5.097431e+02
1.880000e-06	4.941950e-06	7.713439e-09	3.499355e+01	5.077506e+02
1.890000e-06	4.899107e-06	7.714014e-09	3.469018e+01	5.056111e+02
1.900000e-06	4.854543e-06	7.631778e-09	3.437463e+01	5.033241e+02
1.910000e-06	4.808188e-06	7.609358e-09	3.404639e+01	5.008937e+02
1.920000e-06	4.759782e-06	7.621344e-09	3.370363e+01	4.983282e+02
1.930000e-06	4.709662e-06	7.526845e-09	3.334873e+01	4.956387e+02
1.940000e-06	4.657834e-06	7.528152e-09	3.298174e+01	4.928376e+02
1.950000e-06	4.603979e-06	7.488531e-09	3.260040e+01	4.899369e+02
1.960000e-06	4.548192e-06	7.387931e-09	3.220538e+01	4.869467e+02
1.970000e-06	4.490653e-06	7.347045e-09	3.179795e+01	4.838741e+02
1.980000e-06	4.431610e-06	7.334986e-09	3.137987e+01	4.807222e+02
1.990000e-06	4.371047e-06	7.308827e-09	3.095103e+01	4.774900e+02
2.000000e-06	4.308805e-06	7.205411e-09	3.051030e+01	4.741728e+02
2.010000e-06	4.245006e-06	7.159743e-09	3.005855e+01	4.707628e+02
2.020000e-06	4.179721e-06	7.131933e-09	2.959627e+01	4.672506e+02
2.030000e-06	4.112970e-06	7.044110e-09	2.912360e+01	4.636260e+02
2.040000e-06	4.044686e-06	7.006211e-09	2.864009e+01	4.598796e+02
2.050000e-06	3.974908e-06	6.971817e-09	2.814600e+01	4.560042e+02
2.060000e-06	3.903635e-06	6.907876e-09	2.764133e+01	4.519948e+02
2.070000e-06	3.830938e-06	6.812924e-09	2.712656e+01	4.478495e+02
2.080000e-06	3.756934e-06	6.737270e-09	2.660255e+01	4.435692e+02
2.090000e-06	3.681524e-06	6.700463e-09	2.606857e+01	4.391571e+02
2.100000e-06	3.604673e-06	6.627316e-09	2.552440e+01	4.346178e+02
2.110000e-06	3.526326e-06	6.539680e-09	2.496963e+01	4.299561e+02
2.120000e-06	3.446569e-06	6.473691e-09	2.440487e+01	4.251764e+02
2.130000e-06	3.365663e-06	6.416944e-09	2.383199e+01	4.202815e+02
2.140000e-06	3.283632e-06	6.331636e-09	2.325113e+01	4.152721e+02
2.150000e-06	3.200455e-06	6.246025e-09	2.266216e+01	4.101466e+02
2.160000e-06	3.116240e-06	6.176403e-09	2.206584e+01	4.049011e+02
2.170000e-06	3.030867e-06	6.088342e-09	2.146133e+01	3.995298e+02
2.180000e-06	2.944164e-06	6.000942e-09	2.084738e+01	3.940259e+02
2.190000e-06	2.856274e-06	5.924306e-09	2.022505e+01	3.883824e+02
2.200000e-06	2.767445e-06	5.847070e-09	1.959606e+01	3.825925e+02
2.210000e-06	2.677748e-06	5.753931e-09	1.896091e+01	3.766509e+02
2.220000e-06	2.587135e-06	5.648024e-09	1.831929e+01	3.705538e+02
2.230000e-06	2.495642e-06	5.548964e-09	1.767144e+01	3.642990e+02
2.240000e-06	2.403356e-06	5.457455e-09	1.701797e+01	3.578864e+02
2.250000e-06	2.310233e-06	5.364242e-09	1.635858e+01	3.513167e+02
2.260000e-06	2.216190e-06	5.264954e-09	1.569266e+01	3.445915e+02
2.270000e-06	2.121176e-06	5.158258e-09	1.501987e+01	3.377124e+02
2.280000e-06	2.025235e-06	5.045356e-09	1.434052e+01	3.306801e+02
2.290000e-06	1.928562e-06	4.933353e-09	1.365599e+01	3.234942e+02
2.300000e-06	1.831325e-06	4.824851e-09	1.296746e+01	3.161526e+02
2.310000e-06	1.733570e-06	4.715194e-09	1.227527e+01	3.086516e+02
2.320000e-06	1.635245e-06	4.599782e-09	1.157904e+01	3.009860e+02
2.330000e-06	1.536356e-06	4.479252e-09	1.087881e+01	2.931490e+02
2.340000e-06	1.437018e-06	4.356172e-09	1.017541e+01	2.851336e+02
2.350000e-06	1.337311e-06	4.229781e-09	9.469390e+00	2.769323e+02
2.360000e-06	1.237236e-06	4.101902e-09	8.760770e+00	2.685380e+02
2.370000e-06	1.136803e-06	3.969989e-09	8.049606e+00	2.599442e+02
2.380000e-06	1.036054e-06	3.831844e-09	7.336214e+00	2.511458e+02
2.390000e-06	9.348713e-07	3.697090e-09	6.619748e+00	2.421384e+02
2.400000e-06	8.332329e-07	3.566036e-09	5.900054e+00	2.329186e+02
2.410000e-06	7.312270e-07	3.427816e-09	5.177759e+00	2.234839e+02
2.420000e-06	6.289306e-07	3.276613e-09	4.453406e+00	2.138319e+02
2.430000e-06	5.263732e-07	3.121306e-09	3.727206e+00	2.039602e+02
2.440000e-06	4.235697e-07	2.968231e-09	2.999262e+00	1.938662e+02
2.450000e-06	3.205577e-07	2.813596e-09	2.269843e+00	1.835463e+02
2.460000e-06	2.173451e-07	2.655977e-09	1.539003e+00	1.729963e+02
2.470000e-06	1.140105e-07	2.495756e-09	8.072994e-01	1.622110e+02
2.480000e-06	1.063143e-08	2.328944e-09	7.528030e-02	1.511845e+02
2.490000e-06	-9.271967e-08	2.154401e-09	-6.565405e-01	1.399100e+02
2.500000e-06	-1.960533e-07	1.978788e-09	-1.388237e+00	1.283803e+02
2.510000e-06	-2.993065e-07	1.803804e-09	-2.119365e+00	1.165875e+02
2.520000e-06	-4.024407e-07	1.623383e-09	-2.849650e+00	1.045234e+02
2.530000e-06	-5.054444e-07	1.434046e-09	-3.579011e+00	9.217970e+01
2.540000e-06	-6.082546e-07	1.240462e-09	-4.307001e+00	7.954788e+01
2.550000e-06	-7.108456e-07	1.043557e-09	-5.033440e+00	6.661955e+01
2.560000e-06	-8.130453e-07	8.386072e-10	-5.757107e+00	5.338683e+01
2.570000e-06	-9.148147e-07	6.275602e-10	-6.477729e+00	3.984285e+01
2.580000e-06	-1.016114e-06	4.132923e-10	-7.195023e+00	2.598259e+01
2.590000e-06	-1.116873e-06	1.944039e-10	-7.908485e+00	1.180387e+01
2.600000e-06	-1.217159e-06	-2.849354e-11	-8.618604e+00	-2.691416e+00
2.610000e-06	-1.317067e-06	-2.538100e-10	-9.326047e+00	-1.749592e+01
2.620000e-06	-1.416597e-06	-4.838237e-10	-1.003081e+01	-3.259554e+01
2.630000e-06	-1.515687e-06	-7.191471e-10	-1.073246e+01	-4.796818e+01
2.640000e-06	-1.614261e-06	-9.569429e-10	-1.143045e+01	-6.358295e+01
2.650000e-06	-1.712213e-06	-1.197871e-09	-1.212404e+01	-7.939973e+01
2.660000e-06	-1.809561e-06	-1.442485e-09	-1.281336e+01	-9.536944e+01
2.670000e-06	-1.906326e-06	-1.688753e-09	-1.349854e+01	-1.114349e+02
2.680000e-06	-2.002499e-06	-1.933635e-09	-1.417953e+01	-1.275326e+02
2.690000e-06	-2.098115e-06	-2.177195e-09	-1.485658e+01	-1.435945e+02
2.700000e-06	-2.193048e-06	-2.419873e-09	-1.552879e+01	-1.595510e+02
2.710000e-06	-2.286948e-06	-2.660275e-09	-1.619369e+01	-1.753338e+02
2.720000e-06	-2.379717e-06	-2.898008e-09	-1.685059e+01	-1.908784e+02
2.730000e-06	-2.471595e-06	-3.131256e-09	-1.750117e+01	-2.061271e+02
2.740000e-06	-2.562692e-06	-3.359926e-09	-1.814622e+01	-2.210306e+02
2.750000e-06	-2.652858e-06	-3.584902e-09	-1.878467e+01	-2.355496e+02
2.760000e-06	-2.742022e-06	-3.804078e-09	-1.941604e+01	-2.496553e+02
2.770000e-06	-2.830339e-06	-4.015569e-09	-2.004140e+01	-2.633287e+02
2.780000e-06	-2.917916e-06	-4.219251e-09	-2.066153e+01	-2.765601e+02
2.790000e-06	-3.004463e-06	-4.414870e-09	-2.127436e+01	-2.893469e+02
2.800000e-06	-3.089673e-06	-4.603961e-09	-2.187773e+01	-3.016915e+02
2.810000e-06	-3.173702e-06	-4.785977e-09	-2.247273e+01	-3.135996e+02
2.820000e-06	-3.256747e-06	-4.959557e-09	-2.306076e+01	-3.250779e+02
2.830000e-06	-3.338758e-06	-5.126214e-09	-2.364147e+01	-3.361324e+02
2.840000e-06	-3.419644e-06	-5.286328e-09	-2.421422e+01	-3.467676e+02
2.850000e-06	-3.499410e-06	-5.440319e-09	-2.477904e+01	-3.569859e+02
2.860000e-06	-3.577853e-06	-5.588687e-09	-2.533449e+01	-3.667883e+02
2.870000e-06	-3.654711e-06	-5.732530e-09	-2.587871e+01	-3.761748e+02
2.880000e-06	-3.730038e-06	-5.871688e-09	-2.641210e+01	-3.851458e+02
2.890000e-06	-3.803946e-06	-6.003550e-09	-2.693543e+01	-3.937035e+02
2.900000e-06	-3.876534e-06	-6.130608e-09	-2.744942e+01	-4.018533e+02
2.910000e-06	-3.947846e-06	-6.253913e-09	-2.795438e+01	-4.096043e+02
2.920000e-06	-4.017565e-06	-6.368808e-09	-2.844805e+01	-4.169705e+02
2.930000e-06	-4.085662e-06	-6.475260e-09	-2.893024e+01	-4.239701e+02
2.940000e-06	-4.152396e-06	-6.576991e-09	-2.940278e+01	-4.306252e+02
