# Temperatura_=_41.7
# Concentracion g/m^3_=_15000.0
# C_Vs_to_Am_M_A/Vsm_=_65563218390.804596
# pendiente_HvsI_1/m_=_3716.3
# ordenada_HvsI_A/m_=_1297.0
# frecuencia_Hz_=_301595.6230054369

Tiempo_(s)	Campo_(V.s)	Magnetizacion_(V.s)	Campo_(kA/m)	Magnetizacion_(A/m)
0.000000e+00	-5.425051e-06	-8.239425e-09	-3.833608e+01	-5.384841e+02
1.000000e-08	-5.422634e-06	-8.239144e-09	-3.831900e+01	-5.383123e+02
2.000000e-08	-5.418368e-06	-8.235197e-09	-3.828885e+01	-5.380350e+02
3.000000e-08	-5.412455e-06	-8.230971e-09	-3.824707e+01	-5.376489e+02
4.000000e-08	-5.404962e-06	-8.222263e-09	-3.819412e+01	-5.371518e+02
5.000000e-08	-5.395633e-06	-8.208396e-09	-3.812820e+01	-5.365432e+02
6.000000e-08	-5.384168e-06	-8.192366e-09	-3.804718e+01	-5.358253e+02
7.000000e-08	-5.370828e-06	-8.169999e-09	-3.795291e+01	-5.350034e+02
8.000000e-08	-5.355490e-06	-8.169884e-09	-3.784453e+01	-5.340856e+02
9.000000e-08	-5.337900e-06	-8.212447e-09	-3.772023e+01	-5.330828e+02
1.000000e-07	-5.318255e-06	-8.193976e-09	-3.758141e+01	-5.320072e+02
1.100000e-07	-5.296677e-06	-8.144186e-09	-3.742892e+01	-5.308712e+02
1.200000e-07	-5.273309e-06	-8.108813e-09	-3.726380e+01	-5.296860e+02
1.300000e-07	-5.248255e-06	-8.001115e-09	-3.708675e+01	-5.284598e+02
1.400000e-07	-5.221579e-06	-8.039781e-09	-3.689824e+01	-5.271966e+02
1.500000e-07	-5.193378e-06	-8.124126e-09	-3.669896e+01	-5.258954e+02
1.600000e-07	-5.163708e-06	-7.974057e-09	-3.648930e+01	-5.245497e+02
1.700000e-07	-5.132499e-06	-7.999636e-09	-3.626876e+01	-5.231481e+02
1.800000e-07	-5.099209e-06	-8.004712e-09	-3.603352e+01	-5.216748e+02
1.900000e-07	-5.063980e-06	-7.849500e-09	-3.578457e+01	-5.201116e+02
2.000000e-07	-5.027301e-06	-7.951122e-09	-3.552538e+01	-5.184391e+02
2.100000e-07	-4.988890e-06	-7.939409e-09	-3.525395e+01	-5.166390e+02
2.200000e-07	-4.948597e-06	-7.799894e-09	-3.496922e+01	-5.146959e+02
2.300000e-07	-4.906308e-06	-7.828752e-09	-3.467039e+01	-5.125985e+02
2.400000e-07	-4.862103e-06	-7.791187e-09	-3.435801e+01	-5.103409e+02
2.500000e-07	-4.816193e-06	-7.739476e-09	-3.403359e+01	-5.079229e+02
2.600000e-07	-4.768343e-06	-7.720122e-09	-3.369546e+01	-5.053494e+02
2.700000e-07	-4.718349e-06	-7.637503e-09	-3.334217e+01	-5.026299e+02
2.800000e-07	-4.666261e-06	-7.597363e-09	-3.297410e+01	-4.997768e+02
2.900000e-07	-4.612271e-06	-7.554461e-09	-3.259257e+01	-4.968037e+02
3.000000e-07	-4.556733e-06	-7.519737e-09	-3.220011e+01	-4.937239e+02
3.100000e-07	-4.499500e-06	-7.501087e-09	-3.179568e+01	-4.905486e+02
3.200000e-07	-4.440396e-06	-7.461082e-09	-3.137802e+01	-4.872859e+02
3.300000e-07	-4.379705e-06	-7.386350e-09	-3.094915e+01	-4.839396e+02
3.400000e-07	-4.317527e-06	-7.301278e-09	-3.050977e+01	-4.805094e+02
3.500000e-07	-4.254024e-06	-7.284468e-09	-3.006103e+01	-4.769914e+02
3.600000e-07	-4.189010e-06	-7.232647e-09	-2.960160e+01	-4.733785e+02
3.700000e-07	-4.122240e-06	-7.147276e-09	-2.912978e+01	-4.696618e+02
3.800000e-07	-4.053939e-06	-7.099952e-09	-2.864713e+01	-4.658319e+02
3.900000e-07	-3.984251e-06	-7.037511e-09	-2.815468e+01	-4.618802e+02
4.000000e-07	-3.913323e-06	-6.972808e-09	-2.765347e+01	-4.577998e+02
4.100000e-07	-3.841170e-06	-6.912561e-09	-2.714359e+01	-4.535862e+02
4.200000e-07	-3.767430e-06	-6.861281e-09	-2.662251e+01	-4.492376e+02
4.300000e-07	-3.692054e-06	-6.790114e-09	-2.608987e+01	-4.447549e+02
4.400000e-07	-3.615240e-06	-6.698050e-09	-2.554706e+01	-4.401408e+02
4.500000e-07	-3.536961e-06	-6.625382e-09	-2.499391e+01	-4.353990e+02
4.600000e-07	-3.457183e-06	-6.567287e-09	-2.443015e+01	-4.305337e+02
4.700000e-07	-3.376105e-06	-6.500753e-09	-2.385722e+01	-4.255481e+02
4.800000e-07	-3.293890e-06	-6.411326e-09	-2.327625e+01	-4.204440e+02
4.900000e-07	-3.210641e-06	-6.329782e-09	-2.268797e+01	-4.152210e+02
5.000000e-07	-3.126447e-06	-6.254098e-09	-2.209302e+01	-4.098769e+02
5.100000e-07	-3.041257e-06	-6.163835e-09	-2.149102e+01	-4.044070e+02
5.200000e-07	-2.955060e-06	-6.073748e-09	-2.088191e+01	-3.988055e+02
5.300000e-07	-2.867949e-06	-5.984878e-09	-2.026634e+01	-3.930656e+02
5.400000e-07	-2.779866e-06	-5.888618e-09	-1.964390e+01	-3.871804e+02
5.500000e-07	-2.690593e-06	-5.791837e-09	-1.901305e+01	-3.811437e+02
5.600000e-07	-2.600103e-06	-5.700458e-09	-1.837361e+01	-3.749507e+02
5.700000e-07	-2.508614e-06	-5.613000e-09	-1.772710e+01	-3.685981e+02
5.800000e-07	-2.416327e-06	-5.515951e-09	-1.707496e+01	-3.620843e+02
5.900000e-07	-2.323240e-06	-5.411197e-09	-1.641716e+01	-3.554095e+02
6.000000e-07	-2.229327e-06	-5.307039e-09	-1.575352e+01	-3.485747e+02
6.100000e-07	-2.134640e-06	-5.200941e-09	-1.508441e+01	-3.415816e+02
6.200000e-07	-2.039291e-06	-5.090949e-09	-1.441063e+01	-3.344317e+02
6.300000e-07	-1.943193e-06	-4.976063e-09	-1.373156e+01	-3.271258e+02
6.400000e-07	-1.846164e-06	-4.857271e-09	-1.304590e+01	-3.196632e+02
6.500000e-07	-1.748223e-06	-4.734400e-09	-1.235380e+01	-3.120418e+02
6.600000e-07	-1.649577e-06	-4.610935e-09	-1.165672e+01	-3.042577e+02
6.700000e-07	-1.550441e-06	-4.491659e-09	-1.095618e+01	-2.963056e+02
6.800000e-07	-1.450883e-06	-4.375160e-09	-1.025265e+01	-2.881786e+02
6.900000e-07	-1.350862e-06	-4.251867e-09	-9.545852e+00	-2.798694e+02
7.000000e-07	-1.250369e-06	-4.120185e-09	-8.835725e+00	-2.713701e+02
7.100000e-07	-1.149501e-06	-3.983709e-09	-8.122942e+00	-2.626730e+02
7.200000e-07	-1.048292e-06	-3.843364e-09	-7.407750e+00	-2.537712e+02
7.300000e-07	-9.467506e-07	-3.701863e-09	-6.690205e+00	-2.446584e+02
7.400000e-07	-8.448656e-07	-3.558035e-09	-5.970236e+00	-2.353294e+02
7.500000e-07	-7.426408e-07	-3.409041e-09	-5.247865e+00	-2.257797e+02
7.600000e-07	-6.401508e-07	-3.257243e-09	-4.523620e+00	-2.160058e+02
7.700000e-07	-5.374938e-07	-3.104957e-09	-3.798196e+00	-2.060044e+02
7.800000e-07	-4.346861e-07	-2.951772e-09	-3.071706e+00	-1.957723e+02
7.900000e-07	-3.317320e-07	-2.793710e-09	-2.344181e+00	-1.853064e+02
8.000000e-07	-2.287132e-07	-2.627143e-09	-1.616200e+00	-1.746027e+02
8.100000e-07	-1.255996e-07	-2.456778e-09	-8.875489e-01	-1.636565e+02
8.200000e-07	-2.241256e-08	-2.284579e-09	-1.583782e-01	-1.524625e+02
8.300000e-07	8.076174e-08	-2.109638e-09	5.707022e-01	-1.410139e+02
8.400000e-07	1.838620e-07	-1.930792e-09	1.299259e+00	-1.293031e+02
8.500000e-07	2.869074e-07	-1.745570e-09	2.027429e+00	-1.173213e+02
8.600000e-07	3.899305e-07	-1.557493e-09	2.755441e+00	-1.050587e+02
8.700000e-07	4.928592e-07	-1.365541e-09	3.482786e+00	-9.250480e+01
8.800000e-07	5.956825e-07	-1.169802e-09	4.209385e+00	-7.964854e+01
8.900000e-07	6.983962e-07	-9.713649e-10	4.935211e+00	-6.647876e+01
9.000000e-07	8.008953e-07	-7.683479e-10	5.659520e+00	-5.298488e+01
9.100000e-07	9.031031e-07	-5.605417e-10	6.381771e+00	-3.915773e+01
9.200000e-07	1.005000e-06	-3.467103e-10	7.101821e+00	-2.499060e+01
9.300000e-07	1.106527e-06	-1.278278e-10	7.819266e+00	-1.048055e+01
9.400000e-07	1.207649e-06	9.707791e-11	8.533845e+00	4.370248e+00
9.500000e-07	1.308347e-06	3.272611e-10	9.245426e+00	1.955304e+01
9.600000e-07	1.408552e-06	5.637380e-10	9.953524e+00	3.505116e+01
9.700000e-07	1.508282e-06	8.059421e-10	1.065826e+01	5.083893e+01
9.800000e-07	1.607576e-06	1.051111e-09	1.135992e+01	6.688096e+01
9.900000e-07	1.706328e-06	1.297666e-09	1.205775e+01	8.313202e+01
1.000000e-06	1.804305e-06	1.544827e-09	1.275011e+01	9.953747e+01
1.010000e-06	1.901294e-06	1.794624e-09	1.343548e+01	1.160345e+02
1.020000e-06	1.997398e-06	2.046032e-09	1.411460e+01	1.325540e+02
1.030000e-06	2.092785e-06	2.297439e-09	1.478865e+01	1.490229e+02
1.040000e-06	2.187493e-06	2.548323e-09	1.545790e+01	1.653669e+02
1.050000e-06	2.281494e-06	2.795171e-09	1.612216e+01	1.815137e+02
1.060000e-06	2.374722e-06	3.036933e-09	1.678096e+01	1.973960e+02
1.070000e-06	2.467148e-06	3.272073e-09	1.743408e+01	2.129536e+02
1.080000e-06	2.558808e-06	3.501429e-09	1.808180e+01	2.281360e+02
1.090000e-06	2.649685e-06	3.723218e-09	1.872398e+01	2.429033e+02
1.100000e-06	2.739480e-06	3.937913e-09	1.935851e+01	2.572269e+02
1.110000e-06	2.828022e-06	4.145755e-09	1.998419e+01	2.710888e+02
1.120000e-06	2.915525e-06	4.347031e-09	2.060254e+01	2.844809e+02
1.130000e-06	3.002161e-06	4.543453e-09	2.121475e+01	2.974025e+02
1.140000e-06	3.087817e-06	4.735421e-09	2.182003e+01	3.098586e+02
1.150000e-06	3.172447e-06	4.920265e-09	2.241807e+01	3.218576e+02
1.160000e-06	3.256127e-06	5.097406e-09	2.300940e+01	3.334090e+02
1.170000e-06	3.338763e-06	5.268679e-09	2.359334e+01	3.445219e+02
1.180000e-06	3.420135e-06	5.431656e-09	2.416836e+01	3.552036e+02
1.190000e-06	3.500196e-06	5.586599e-09	2.473411e+01	3.654594e+02
1.200000e-06	3.579055e-06	5.734316e-09	2.529136e+01	3.752929e+02
1.210000e-06	3.656648e-06	5.876057e-09	2.583968e+01	3.847062e+02
1.220000e-06	3.732927e-06	6.012402e-09	2.637870e+01	3.937016e+02
1.230000e-06	3.807839e-06	6.143447e-09	2.690806e+01	4.022831e+02
1.240000e-06	3.881153e-06	6.268476e-09	2.742614e+01	4.104569e+02
1.250000e-06	3.952886e-06	6.387261e-09	2.793304e+01	4.182331e+02
1.260000e-06	4.023177e-06	6.497386e-09	2.842975e+01	4.256261e+02
1.270000e-06	4.092081e-06	6.601793e-09	2.891666e+01	4.326542e+02
1.280000e-06	4.159646e-06	6.702605e-09	2.939411e+01	4.393394e+02
1.290000e-06	4.225620e-06	6.797609e-09	2.986031e+01	4.457062e+02
1.300000e-06	4.289871e-06	6.888095e-09	3.031434e+01	4.517796e+02
1.310000e-06	4.352617e-06	6.975219e-09	3.075773e+01	4.575841e+02
1.320000e-06	4.413949e-06	7.059445e-09	3.119113e+01	4.631418e+02
1.330000e-06	4.473851e-06	7.141611e-09	3.161443e+01	4.684708e+02
1.340000e-06	4.532209e-06	7.221688e-09	3.202682e+01	4.735848e+02
1.350000e-06	4.588766e-06	7.298184e-09	3.242648e+01	4.784921e+02
1.360000e-06	4.643562e-06	7.367788e-09	3.281369e+01	4.831964e+02
1.370000e-06	4.696735e-06	7.432743e-09	3.318944e+01	4.876975e+02
1.380000e-06	4.748054e-06	7.496358e-09	3.355209e+01	4.919920e+02
1.390000e-06	4.797330e-06	7.558223e-09	3.390030e+01	4.960754e+02
1.400000e-06	4.844733e-06	7.615861e-09	3.423527e+01	4.999433e+02
1.410000e-06	4.890499e-06	7.668836e-09	3.455867e+01	5.035927e+02
1.420000e-06	4.934736e-06	7.718223e-09	3.487127e+01	5.070228e+02
1.430000e-06	4.977224e-06	7.765308e-09	3.517151e+01	5.102362e+02
1.440000e-06	5.017752e-06	7.811218e-09	3.545790e+01	5.132384e+02
1.450000e-06	5.056543e-06	7.854427e-09	3.573202e+01	5.160373e+02
1.460000e-06	5.093710e-06	7.893745e-09	3.599466e+01	5.186430e+02
1.470000e-06	5.129213e-06	7.928324e-09	3.624554e+01	5.210663e+02
1.480000e-06	5.162803e-06	7.958282e-09	3.648291e+01	5.233180e+02
1.490000e-06	5.194408e-06	7.985890e-09	3.670624e+01	5.254076e+02
1.500000e-06	5.224292e-06	8.011075e-09	3.691742e+01	5.273429e+02
1.510000e-06	5.252535e-06	8.035437e-09	3.711700e+01	5.291297e+02
1.520000e-06	5.278878e-06	8.059680e-09	3.730315e+01	5.307715e+02
1.530000e-06	5.303116e-06	8.081666e-09	3.747443e+01	5.322703e+02
1.540000e-06	5.325392e-06	8.101381e-09	3.763184e+01	5.336269e+02
1.550000e-06	5.345920e-06	8.119610e-09	3.777690e+01	5.348420e+02
1.560000e-06	5.364655e-06	8.135155e-09	3.790929e+01	5.359167e+02
1.570000e-06	5.381372e-06	8.148112e-09	3.802742e+01	5.368530e+02
1.580000e-06	5.396122e-06	8.159278e-09	3.813165e+01	5.376546e+02
1.590000e-06	5.408914e-06	8.168755e-09	3.822205e+01	5.383263e+02
1.600000e-06	5.419525e-06	8.176737e-09	3.829703e+01	5.388742e+02
1.610000e-06	5.427917e-06	8.183491e-09	3.835633e+01	5.393047e+02
1.620000e-06	5.434347e-06	8.188390e-09	3.840177e+01	5.396240e+02
1.630000e-06	5.439014e-06	8.192822e-09	3.843475e+01	5.398374e+02
1.640000e-06	5.441830e-06	8.196368e-09	3.845465e+01	5.399484e+02
1.650000e-06	5.442587e-06	8.198769e-09	3.846000e+01	5.399585e+02
1.660000e-06	5.441426e-06	8.197327e-09	3.845179e+01	5.398675e+02
1.670000e-06	5.438568e-06	8.193052e-09	3.843159e+01	5.396731e+02
1.680000e-06	5.434069e-06	8.189338e-09	3.839980e+01	5.393724e+02
1.690000e-06	5.427672e-06	8.181949e-09	3.835460e+01	5.389625e+02
1.700000e-06	5.419358e-06	8.174132e-09	3.829585e+01	5.384412e+02
1.710000e-06	5.409452e-06	8.168281e-09	3.822585e+01	5.378087e+02
1.720000e-06	5.397915e-06	8.168240e-09	3.814432e+01	5.370678e+02
1.730000e-06	5.384420e-06	8.161764e-09	3.804896e+01	5.362243e+02
1.740000e-06	5.368828e-06	8.079561e-09	3.793878e+01	5.352871e+02
1.750000e-06	5.350959e-06	8.056737e-09	3.781251e+01	5.342673e+02
1.760000e-06	5.330442e-06	8.072499e-09	3.766752e+01	5.331775e+02
1.770000e-06	5.307497e-06	8.074827e-09	3.750538e+01	5.320299e+02
1.780000e-06	5.283079e-06	8.162306e-09	3.733284e+01	5.308352e+02
1.790000e-06	5.258010e-06	8.038728e-09	3.715568e+01	5.296006e+02
1.800000e-06	5.231712e-06	7.947696e-09	3.696985e+01	5.283293e+02
1.810000e-06	5.203099e-06	8.054911e-09	3.676766e+01	5.270190e+02
1.820000e-06	5.172486e-06	7.914587e-09	3.655133e+01	5.256622e+02
1.830000e-06	5.140315e-06	7.937931e-09	3.632399e+01	5.242465e+02
1.840000e-06	5.106185e-06	8.052249e-09	3.608282e+01	5.227553e+02
1.850000e-06	5.070385e-06	7.851564e-09	3.582983e+01	5.211700e+02
1.860000e-06	5.032867e-06	7.898606e-09	3.556471e+01	5.194714e+02
1.870000e-06	4.993375e-06	7.946159e-09	3.528565e+01	5.176416e+02
1.880000e-06	4.952272e-06	7.792113e-09	3.499519e+01	5.156660e+02
1.890000e-06	4.909337e-06	7.860575e-09	3.469179e+01	5.135343e+02
1.900000e-06	4.864635e-06	7.782703e-09	3.437590e+01	5.112420e+02
1.910000e-06	4.818191e-06	7.739750e-09	3.404771e+01	5.087898e+02
1.920000e-06	4.769740e-06	7.773538e-09	3.370533e+01	5.061839e+02
1.930000e-06	4.719641e-06	7.610996e-09	3.335131e+01	5.034344e+02
1.940000e-06	4.667796e-06	7.668729e-09	3.298494e+01	5.005542e+02
1.950000e-06	4.613807e-06	7.625379e-09	3.260343e+01	4.975569e+02
1.960000e-06	4.557853e-06	7.483814e-09	3.220803e+01	4.944556e+02
1.970000e-06	4.500186e-06	7.474562e-09	3.180053e+01	4.912608e+02
1.980000e-06	4.441095e-06	7.426378e-09	3.138296e+01	4.879798e+02
1.990000e-06	4.380551e-06	7.432658e-09	3.095513e+01	4.846154e+02
2.000000e-06	4.318228e-06	7.316681e-09	3.051472e+01	4.811667e+02
2.010000e-06	4.254260e-06	7.269172e-09	3.006270e+01	4.776288e+02
2.020000e-06	4.188794e-06	7.270151e-09	2.960008e+01	4.739941e+02
2.030000e-06	4.121872e-06	7.128126e-09	2.912717e+01	4.702537e+02
2.040000e-06	4.053459e-06	7.109580e-09	2.864374e+01	4.663982e+02
2.050000e-06	3.983450e-06	7.066648e-09	2.814901e+01	4.624192e+02
2.060000e-06	3.911935e-06	7.000220e-09	2.764366e+01	4.583103e+02
2.070000e-06	3.839077e-06	6.909082e-09	2.712881e+01	4.540676e+02
2.080000e-06	3.764943e-06	6.819247e-09	2.660494e+01	4.496899e+02
2.090000e-06	3.689466e-06	6.814951e-09	2.607158e+01	4.451785e+02
2.100000e-06	3.612513e-06	6.729712e-09	2.552779e+01	4.405364e+02
2.110000e-06	3.533978e-06	6.642401e-09	2.497282e+01	4.357676e+02
2.120000e-06	3.454119e-06	6.563668e-09	2.440851e+01	4.308761e+02
2.130000e-06	3.373160e-06	6.494105e-09	2.383641e+01	4.258648e+02
2.140000e-06	3.291025e-06	6.410819e-09	2.325600e+01	4.207350e+02
2.150000e-06	3.207796e-06	6.322079e-09	2.266787e+01	4.154862e+02
2.160000e-06	3.123542e-06	6.268314e-09	2.207248e+01	4.101153e+02
2.170000e-06	3.038081e-06	6.175659e-09	2.146857e+01	4.046175e+02
2.180000e-06	2.951303e-06	6.083677e-09	2.085536e+01	3.989867e+02
2.190000e-06	2.863363e-06	5.994090e-09	2.023393e+01	3.932160e+02
2.200000e-06	2.774447e-06	5.917083e-09	1.960561e+01	3.872985e+02
2.210000e-06	2.684581e-06	5.831015e-09	1.897057e+01	3.812285e+02
2.220000e-06	2.593760e-06	5.722421e-09	1.832878e+01	3.750013e+02
2.230000e-06	2.502105e-06	5.620389e-09	1.768111e+01	3.686139e+02
2.240000e-06	2.409721e-06	5.515986e-09	1.702827e+01	3.620654e+02
2.250000e-06	2.316394e-06	5.419617e-09	1.636878e+01	3.553559e+02
2.260000e-06	2.222051e-06	5.318186e-09	1.570211e+01	3.484869e+02
2.270000e-06	2.126853e-06	5.212526e-09	1.502939e+01	3.414598e+02
2.280000e-06	2.030801e-06	5.102603e-09	1.435064e+01	3.342762e+02
2.290000e-06	1.933972e-06	4.993482e-09	1.366640e+01	3.269366e+02
2.300000e-06	1.836568e-06	4.884027e-09	1.297809e+01	3.194399e+02
2.310000e-06	1.738662e-06	4.770946e-09	1.228624e+01	3.117838e+02
2.320000e-06	1.640168e-06	4.651774e-09	1.159023e+01	3.039640e+02
2.330000e-06	1.541132e-06	4.523112e-09	1.089040e+01	2.959748e+02
2.340000e-06	1.441648e-06	4.393489e-09	1.018740e+01	2.878092e+02
2.350000e-06	1.341807e-06	4.264230e-09	9.481870e+00	2.794597e+02
2.360000e-06	1.241680e-06	4.143228e-09	8.774325e+00	2.709184e+02
2.370000e-06	1.141210e-06	4.018381e-09	8.064349e+00	2.621778e+02
2.380000e-06	1.040299e-06	3.879513e-09	7.351262e+00	2.532310e+02
2.390000e-06	9.388600e-07	3.737233e-09	6.634446e+00	2.440721e+02
2.400000e-06	8.369473e-07	3.597816e-09	5.914281e+00	2.346958e+02
2.410000e-06	7.346556e-07	3.455847e-09	5.191438e+00	2.250982e+02
2.420000e-06	6.320575e-07	3.305630e-09	4.466429e+00	2.152755e+02
2.430000e-06	5.291935e-07	3.151026e-09	3.739542e+00	2.052247e+02
2.440000e-06	4.261301e-07	2.996212e-09	3.011245e+00	1.949426e+02
2.450000e-06	3.229303e-07	2.838100e-09	2.281984e+00	1.844259e+02
2.460000e-06	2.195825e-07	2.675170e-09	1.551678e+00	1.736704e+02
2.470000e-06	1.161172e-07	2.513429e-09	8.205412e-01	1.626714e+02
2.480000e-06	1.258251e-08	2.344438e-09	8.891422e-02	1.514232e+02
2.490000e-06	-9.092853e-08	2.165179e-09	-6.425458e-01	1.399188e+02
2.500000e-06	-1.943655e-07	1.984342e-09	-1.373482e+00	1.281505e+02
2.510000e-06	-2.977680e-07	1.804110e-09	-2.104175e+00	1.161091e+02
2.520000e-06	-4.011511e-07	1.620868e-09	-2.834731e+00	1.037848e+02
2.530000e-06	-5.043990e-07	1.428098e-09	-3.564332e+00	9.116682e+01
2.540000e-06	-6.074597e-07	1.228502e-09	-4.292609e+00	7.824407e+01
2.550000e-06	-7.102841e-07	1.024822e-09	-5.019217e+00	6.500546e+01
2.560000e-06	-8.127512e-07	8.140470e-10	-5.743300e+00	5.144064e+01
2.570000e-06	-9.147516e-07	5.990913e-10	-6.464085e+00	3.754086e+01
2.580000e-06	-1.016248e-06	3.820014e-10	-7.181310e+00	2.330011e+01
2.590000e-06	-1.117297e-06	1.598477e-10	-7.895367e+00	8.716421e+00
2.600000e-06	-1.217905e-06	-6.891846e-11	-8.606315e+00	-6.206741e+00
2.610000e-06	-1.318070e-06	-3.026697e-10	-9.314134e+00	-2.145903e+01
2.620000e-06	-1.417795e-06	-5.409690e-10	-1.001884e+01	-3.702194e+01
2.630000e-06	-1.517046e-06	-7.829712e-10	-1.072019e+01	-5.286774e+01
2.640000e-06	-1.615764e-06	-1.028206e-09	-1.141779e+01	-6.895894e+01
2.650000e-06	-1.713917e-06	-1.277932e-09	-1.211138e+01	-8.524821e+01
2.660000e-06	-1.811523e-06	-1.530580e-09	-1.280111e+01	-1.016791e+02
2.670000e-06	-1.908488e-06	-1.783372e-09	-1.348632e+01	-1.181872e+02
2.680000e-06	-2.004806e-06	-2.032646e-09	-1.416695e+01	-1.347023e+02
2.690000e-06	-2.100572e-06	-2.280393e-09	-1.484367e+01	-1.511508e+02
2.700000e-06	-2.195659e-06	-2.528046e-09	-1.551561e+01	-1.674588e+02
2.710000e-06	-2.289769e-06	-2.774048e-09	-1.618063e+01	-1.835546e+02
2.720000e-06	-2.382808e-06	-3.016542e-09	-1.683809e+01	-1.993723e+02
2.730000e-06	-2.474932e-06	-3.254859e-09	-1.748909e+01	-2.148536e+02
2.740000e-06	-2.566210e-06	-3.488358e-09	-1.813410e+01	-2.299503e+02
2.750000e-06	-2.656603e-06	-3.714624e-09	-1.877286e+01	-2.446248e+02
2.760000e-06	-2.745978e-06	-3.935634e-09	-1.940443e+01	-2.588508e+02
2.770000e-06	-2.834428e-06	-4.150229e-09	-2.002946e+01	-2.726128e+02
2.780000e-06	-2.922099e-06	-4.354097e-09	-2.064899e+01	-2.859041e+02
2.790000e-06	-3.008758e-06	-4.546989e-09	-2.126136e+01	-2.987256e+02
2.800000e-06	-3.094189e-06	-4.734665e-09	-2.186506e+01	-3.110832e+02
2.810000e-06	-3.178487e-06	-4.918447e-09	-2.246075e+01	-3.229857e+02
2.820000e-06	-3.261744e-06	-5.094082e-09	-2.304909e+01	-3.344426e+02
2.830000e-06	-3.343928e-06	-5.261710e-09	-2.362984e+01	-3.454628e+02
2.840000e-06	-3.425030e-06	-5.422254e-09	-2.420295e+01	-3.560531e+02
2.850000e-06	-3.504994e-06	-5.575855e-09	-2.476801e+01	-3.662185e+02
2.860000e-06	-3.583587e-06	-5.723002e-09	-2.532339e+01	-3.759619e+02
2.870000e-06	-3.660592e-06	-5.865527e-09	-2.586754e+01	-3.852857e+02
2.880000e-06	-3.736078e-06	-6.003460e-09	-2.640096e+01	-3.941923e+02
2.890000e-06	-3.810188e-06	-6.134593e-09	-2.692466e+01	-4.026860e+02
2.900000e-06	-3.882994e-06	-6.259810e-09	-2.743915e+01	-4.107738e+02
2.910000e-06	-3.954498e-06	-6.382078e-09	-2.794442e+01	-4.184668e+02
2.920000e-06	-4.024439e-06	-6.496854e-09	-2.843866e+01	-4.257802e+02
2.930000e-06	-4.092756e-06	-6.601735e-09	-2.892142e+01	-4.327331e+02
2.940000e-06	-4.159669e-06	-6.702017e-09	-2.939427e+01	-4.393482e+02
