# Temperatura_=_83.62
# Concentracion g/m^3_=_15000.0
# C_Vs_to_Am_M_A/Vsm_=_65563218390.804596
# pendiente_HvsI_1/m_=_3716.3
# ordenada_HvsI_A/m_=_1297.0
# frecuencia_Hz_=_301964.3328534421

Tiempo_(s)	Campo_(V.s)	Magnetizacion_(V.s)	Campo_(kA/m)	Magnetizacion_(A/m)
0.000000e+00	-6.892768e-06	-1.274277e-08	-4.747245e+01	-8.347315e+02
1.000000e-08	-6.889079e-06	-1.274265e-08	-4.744704e+01	-8.343680e+02
2.000000e-08	-6.883189e-06	-1.273459e-08	-4.740647e+01	-8.337995e+02
3.000000e-08	-6.875135e-06	-1.272530e-08	-4.735100e+01	-8.330321e+02
4.000000e-08	-6.864678e-06	-1.271468e-08	-4.727898e+01	-8.320804e+02
5.000000e-08	-6.851691e-06	-1.270091e-08	-4.718954e+01	-8.309657e+02
6.000000e-08	-6.836288e-06	-1.268298e-08	-4.708345e+01	-8.297142e+02
7.000000e-08	-6.818626e-06	-1.266169e-08	-4.696181e+01	-8.283538e+02
8.000000e-08	-6.798762e-06	-1.266159e-08	-4.682500e+01	-8.269114e+02
9.000000e-08	-6.776344e-06	-1.268024e-08	-4.667060e+01	-8.254093e+02
1.000000e-07	-6.751084e-06	-1.263566e-08	-4.649662e+01	-8.238628e+02
1.100000e-07	-6.723137e-06	-1.257421e-08	-4.630415e+01	-8.222786e+02
1.200000e-07	-6.692898e-06	-1.254395e-08	-4.609589e+01	-8.206538e+02
1.300000e-07	-6.660629e-06	-1.248703e-08	-4.587364e+01	-8.189761e+02
1.400000e-07	-6.626439e-06	-1.241588e-08	-4.563816e+01	-8.172251e+02
1.500000e-07	-6.590332e-06	-1.247294e-08	-4.538948e+01	-8.153746e+02
1.600000e-07	-6.552141e-06	-1.242808e-08	-4.512645e+01	-8.133944e+02
1.700000e-07	-6.511836e-06	-1.233163e-08	-4.484886e+01	-8.112538e+02
1.800000e-07	-6.469148e-06	-1.237481e-08	-4.455486e+01	-8.089239e+02
1.900000e-07	-6.423900e-06	-1.229175e-08	-4.424322e+01	-8.063800e+02
2.000000e-07	-6.376229e-06	-1.226381e-08	-4.391489e+01	-8.036028e+02
2.100000e-07	-6.325964e-06	-1.225591e-08	-4.356871e+01	-8.005803e+02
2.200000e-07	-6.273120e-06	-1.215063e-08	-4.320476e+01	-7.973069e+02
2.300000e-07	-6.217840e-06	-1.208836e-08	-4.282402e+01	-7.937839e+02
2.400000e-07	-6.160169e-06	-1.201889e-08	-4.242683e+01	-7.900182e+02
2.500000e-07	-6.100242e-06	-1.197366e-08	-4.201410e+01	-7.860210e+02
2.600000e-07	-6.038131e-06	-1.193425e-08	-4.158632e+01	-7.818062e+02
2.700000e-07	-5.973813e-06	-1.184832e-08	-4.114334e+01	-7.773892e+02
2.800000e-07	-5.907221e-06	-1.176100e-08	-4.068470e+01	-7.727851e+02
2.900000e-07	-5.838372e-06	-1.168047e-08	-4.021052e+01	-7.680078e+02
3.000000e-07	-5.767342e-06	-1.163758e-08	-3.972132e+01	-7.630692e+02
3.100000e-07	-5.694149e-06	-1.156498e-08	-3.921722e+01	-7.579779e+02
3.200000e-07	-5.618685e-06	-1.148896e-08	-3.869747e+01	-7.527398e+02
3.300000e-07	-5.540898e-06	-1.140802e-08	-3.816174e+01	-7.473569e+02
3.400000e-07	-5.460920e-06	-1.129499e-08	-3.761090e+01	-7.418284e+02
3.500000e-07	-5.378930e-06	-1.121795e-08	-3.704621e+01	-7.361502e+02
3.600000e-07	-5.295134e-06	-1.113953e-08	-3.646909e+01	-7.303157e+02
3.700000e-07	-5.209641e-06	-1.105290e-08	-3.588027e+01	-7.243164e+02
3.800000e-07	-5.122396e-06	-1.094591e-08	-3.527939e+01	-7.181425e+02
3.900000e-07	-5.033290e-06	-1.084253e-08	-3.466570e+01	-7.117834e+02
4.000000e-07	-4.942308e-06	-1.075235e-08	-3.403907e+01	-7.052291e+02
4.100000e-07	-4.849579e-06	-1.065720e-08	-3.340043e+01	-6.984708e+02
4.200000e-07	-4.755261e-06	-1.055321e-08	-3.275083e+01	-6.915013e+02
4.300000e-07	-4.659249e-06	-1.043187e-08	-3.208957e+01	-6.843161e+02
4.400000e-07	-4.561511e-06	-1.031382e-08	-3.141642e+01	-6.769131e+02
4.500000e-07	-4.462071e-06	-1.019702e-08	-3.073154e+01	-6.692931e+02
4.600000e-07	-4.361088e-06	-1.008167e-08	-3.003605e+01	-6.614591e+02
4.700000e-07	-4.258690e-06	-9.968736e-09	-2.933080e+01	-6.534158e+02
4.800000e-07	-4.154692e-06	-9.842608e-09	-2.861454e+01	-6.451684e+02
4.900000e-07	-4.049179e-06	-9.703312e-09	-2.788784e+01	-6.367215e+02
5.000000e-07	-3.942159e-06	-9.568471e-09	-2.715077e+01	-6.280781e+02
5.100000e-07	-3.833641e-06	-9.440601e-09	-2.640337e+01	-6.192386e+02
5.200000e-07	-3.723844e-06	-9.308773e-09	-2.564717e+01	-6.101999e+02
5.300000e-07	-3.612752e-06	-9.164837e-09	-2.488205e+01	-6.009557e+02
5.400000e-07	-3.500254e-06	-9.011976e-09	-2.410724e+01	-5.914960e+02
5.500000e-07	-3.386301e-06	-8.859186e-09	-2.332241e+01	-5.818086e+02
5.600000e-07	-3.270877e-06	-8.708394e-09	-2.252745e+01	-5.718796e+02
5.700000e-07	-3.154072e-06	-8.557116e-09	-2.172299e+01	-5.616954e+02
5.800000e-07	-3.036132e-06	-8.400221e-09	-2.091070e+01	-5.512436e+02
5.900000e-07	-2.917092e-06	-8.235034e-09	-2.009084e+01	-5.405147e+02
6.000000e-07	-2.796897e-06	-8.065254e-09	-1.926302e+01	-5.295023e+02
6.100000e-07	-2.675631e-06	-7.897119e-09	-1.842783e+01	-5.182040e+02
6.200000e-07	-2.553416e-06	-7.722777e-09	-1.758610e+01	-5.066206e+02
6.300000e-07	-2.430260e-06	-7.536397e-09	-1.673789e+01	-4.947550e+02
6.400000e-07	-2.306095e-06	-7.345636e-09	-1.588273e+01	-4.826111e+02
6.500000e-07	-2.181145e-06	-7.156313e-09	-1.502217e+01	-4.701914e+02
6.600000e-07	-2.055588e-06	-6.967593e-09	-1.415741e+01	-4.574956e+02
6.700000e-07	-1.929366e-06	-6.775560e-09	-1.328809e+01	-4.445188e+02
6.800000e-07	-1.802413e-06	-6.575992e-09	-1.241373e+01	-4.312507e+02
6.900000e-07	-1.674718e-06	-6.364749e-09	-1.153426e+01	-4.176751e+02
7.000000e-07	-1.546439e-06	-6.145391e-09	-1.065076e+01	-4.037710e+02
7.100000e-07	-1.417671e-06	-5.925081e-09	-9.763902e+00	-3.895134e+02
7.200000e-07	-1.288448e-06	-5.704221e-09	-8.873904e+00	-3.748754e+02
7.300000e-07	-1.158878e-06	-5.475981e-09	-7.981519e+00	-3.598307e+02
7.400000e-07	-1.028985e-06	-5.241030e-09	-7.086912e+00	-3.443551e+02
7.500000e-07	-8.987325e-07	-5.000731e-09	-6.189825e+00	-3.284288e+02
7.600000e-07	-7.681221e-07	-4.754666e-09	-5.290275e+00	-3.120362e+02
7.700000e-07	-6.372290e-07	-4.501758e-09	-4.388777e+00	-2.951665e+02
7.800000e-07	-5.061036e-07	-4.239798e-09	-3.485679e+00	-2.778111e+02
7.900000e-07	-3.747933e-07	-3.970006e-09	-2.581307e+00	-2.599620e+02
8.000000e-07	-2.433301e-07	-3.688251e-09	-1.675883e+00	-2.416079e+02
8.100000e-07	-1.117140e-07	-3.396942e-09	-7.694062e-01	-2.227311e+02
8.200000e-07	2.001686e-08	-3.098741e-09	1.378618e-01	-2.033045e+02
8.300000e-07	1.517535e-07	-2.790762e-09	1.045170e+00	-1.832895e+02
8.400000e-07	2.834975e-07	-2.472593e-09	1.952528e+00	-1.626362e+02
8.500000e-07	4.152017e-07	-2.146483e-09	2.859612e+00	-1.412844e+02
8.600000e-07	5.467698e-07	-1.811197e-09	3.765759e+00	-1.191682e+02
8.700000e-07	6.782253e-07	-1.461185e-09	4.671130e+00	-9.622179e+01
8.800000e-07	8.094602e-07	-1.096421e-09	5.574981e+00	-7.238727e+01
8.900000e-07	9.403485e-07	-7.194971e-10	6.476446e+00	-4.762332e+01
9.000000e-07	1.070862e-06	-3.296686e-10	7.375331e+00	-2.191405e+01
9.100000e-07	1.200942e-06	7.459528e-11	8.271230e+00	4.723101e+00
9.200000e-07	1.330576e-06	4.922293e-10	9.164053e+00	3.223138e+01
9.300000e-07	1.459758e-06	9.218232e-10	1.005377e+01	6.051153e+01
9.400000e-07	1.588491e-06	1.363570e-09	1.094039e+01	8.942199e+01
9.500000e-07	1.716705e-06	1.814325e-09	1.182343e+01	1.187827e+02
9.600000e-07	1.844236e-06	2.270600e-09	1.270177e+01	1.483826e+02
9.700000e-07	1.970976e-06	2.727860e-09	1.357467e+01	1.779899e+02
9.800000e-07	2.096942e-06	3.181113e-09	1.444223e+01	2.073643e+02
9.900000e-07	2.222254e-06	3.624016e-09	1.530529e+01	2.362710e+02
1.000000e-06	2.346936e-06	4.050684e-09	1.616401e+01	2.644937e+02
1.010000e-06	2.470854e-06	4.460325e-09	1.701747e+01	2.918461e+02
1.020000e-06	2.593768e-06	4.854667e-09	1.786401e+01	3.181810e+02
1.030000e-06	2.715595e-06	5.235353e-09	1.870307e+01	3.433961e+02
1.040000e-06	2.836409e-06	5.599792e-09	1.953515e+01	3.674356e+02
1.050000e-06	2.956189e-06	5.946255e-09	2.036011e+01	3.902882e+02
1.060000e-06	3.074817e-06	6.275707e-09	2.117713e+01	4.119814e+02
1.070000e-06	3.192326e-06	6.591229e-09	2.198645e+01	4.325733e+02
1.080000e-06	3.308702e-06	6.893400e-09	2.278797e+01	4.521426e+02
1.090000e-06	3.423717e-06	7.180296e-09	2.358011e+01	4.707784e+02
1.100000e-06	3.537315e-06	7.451169e-09	2.436249e+01	4.885704e+02
1.110000e-06	3.649559e-06	7.708873e-09	2.513555e+01	5.056007e+02
1.120000e-06	3.760469e-06	7.955345e-09	2.589941e+01	5.219379e+02
1.130000e-06	3.870164e-06	8.192825e-09	2.665491e+01	5.376344e+02
1.140000e-06	3.978749e-06	8.421761e-09	2.740277e+01	5.527261e+02
1.150000e-06	4.085934e-06	8.642405e-09	2.814098e+01	5.672342e+02
1.160000e-06	4.191564e-06	8.856204e-09	2.886849e+01	5.811697e+02
1.170000e-06	4.295682e-06	9.060443e-09	2.958558e+01	5.945376e+02
1.180000e-06	4.398243e-06	9.253711e-09	3.029194e+01	6.073426e+02
1.190000e-06	4.499313e-06	9.435903e-09	3.098804e+01	6.195929e+02
1.200000e-06	4.598825e-06	9.608518e-09	3.167341e+01	6.313037e+02
1.210000e-06	4.696572e-06	9.772822e-09	3.234662e+01	6.424979e+02
1.220000e-06	4.792485e-06	9.932130e-09	3.300720e+01	6.532062e+02
1.230000e-06	4.886688e-06	1.008925e-08	3.365601e+01	6.634647e+02
1.240000e-06	4.979303e-06	1.024460e-08	3.429387e+01	6.733118e+02
1.250000e-06	5.070187e-06	1.039604e-08	3.491981e+01	6.827844e+02
1.260000e-06	5.159162e-06	1.053989e-08	3.553261e+01	6.919141e+02
1.270000e-06	5.246206e-06	1.067624e-08	3.613211e+01	7.007244e+02
1.280000e-06	5.331426e-06	1.080757e-08	3.671904e+01	7.092290e+02
1.290000e-06	5.414898e-06	1.093361e-08	3.729394e+01	7.174312e+02
1.300000e-06	5.496377e-06	1.105197e-08	3.785511e+01	7.253255e+02
1.310000e-06	5.575736e-06	1.116377e-08	3.840167e+01	7.329003e+02
1.320000e-06	5.653156e-06	1.127258e-08	3.893489e+01	7.401411e+02
1.330000e-06	5.728461e-06	1.137829e-08	3.945354e+01	7.470344e+02
1.340000e-06	5.801464e-06	1.147747e-08	3.995633e+01	7.535716e+02
1.350000e-06	5.872316e-06	1.157031e-08	4.044430e+01	7.597516e+02
1.360000e-06	5.941167e-06	1.165861e-08	4.091850e+01	7.655828e+02
1.370000e-06	6.007905e-06	1.174281e-08	4.137814e+01	7.710826e+02
1.380000e-06	6.072396e-06	1.182328e-08	4.182231e+01	7.762769e+02
1.390000e-06	6.134835e-06	1.189931e-08	4.225234e+01	7.811968e+02
1.400000e-06	6.195329e-06	1.197167e-08	4.266899e+01	7.858757e+02
1.410000e-06	6.253656e-06	1.204033e-08	4.307070e+01	7.903453e+02
1.420000e-06	6.309654e-06	1.210517e-08	4.345637e+01	7.946317e+02
1.430000e-06	6.363333e-06	1.216882e-08	4.382608e+01	7.987533e+02
1.440000e-06	6.414392e-06	1.223051e-08	4.417774e+01	8.027181e+02
1.450000e-06	6.462797e-06	1.228763e-08	4.451111e+01	8.065245e+02
1.460000e-06	6.508917e-06	1.234187e-08	4.482875e+01	8.101615e+02
1.470000e-06	6.552904e-06	1.239444e-08	4.513171e+01	8.136114e+02
1.480000e-06	6.594556e-06	1.244505e-08	4.541858e+01	8.168533e+02
1.490000e-06	6.633797e-06	1.249194e-08	4.568884e+01	8.198662e+02
1.500000e-06	6.670821e-06	1.253207e-08	4.594383e+01	8.226328e+02
1.510000e-06	6.705550e-06	1.256786e-08	4.618302e+01	8.251422e+02
1.520000e-06	6.737804e-06	1.260036e-08	4.640516e+01	8.273917e+02
1.530000e-06	6.767677e-06	1.262964e-08	4.661091e+01	8.293875e+02
1.540000e-06	6.795266e-06	1.265753e-08	4.680092e+01	8.311434e+02
1.550000e-06	6.820336e-06	1.268342e-08	4.697359e+01	8.326794e+02
1.560000e-06	6.842858e-06	1.270583e-08	4.712870e+01	8.340187e+02
1.570000e-06	6.863067e-06	1.272524e-08	4.726789e+01	8.351843e+02
1.580000e-06	6.880840e-06	1.274180e-08	4.739030e+01	8.361962e+02
1.590000e-06	6.896017e-06	1.275338e-08	4.749482e+01	8.370685e+02
1.600000e-06	6.908626e-06	1.276162e-08	4.758166e+01	8.378081e+02
1.610000e-06	6.918527e-06	1.276880e-08	4.764986e+01	8.384139e+02
1.620000e-06	6.925783e-06	1.277389e-08	4.769983e+01	8.388779e+02
1.630000e-06	6.930702e-06	1.277654e-08	4.773371e+01	8.391868e+02
1.640000e-06	6.933176e-06	1.277713e-08	4.775075e+01	8.393245e+02
1.650000e-06	6.933170e-06	1.277898e-08	4.775071e+01	8.392755e+02
1.660000e-06	6.930899e-06	1.277531e-08	4.773506e+01	8.390276e+02
1.670000e-06	6.926394e-06	1.276656e-08	4.770404e+01	8.385747e+02
1.680000e-06	6.919463e-06	1.275400e-08	4.765630e+01	8.379184e+02
1.690000e-06	6.910225e-06	1.273906e-08	4.759268e+01	8.370685e+02
1.700000e-06	6.898834e-06	1.272577e-08	4.751422e+01	8.360427e+02
1.710000e-06	6.884990e-06	1.271203e-08	4.741888e+01	8.348647e+02
1.720000e-06	6.868825e-06	1.269970e-08	4.730754e+01	8.335619e+02
1.730000e-06	6.850595e-06	1.265858e-08	4.718198e+01	8.321620e+02
1.740000e-06	6.829819e-06	1.258209e-08	4.703890e+01	8.306903e+02
1.750000e-06	6.805769e-06	1.258138e-08	4.687326e+01	8.291665e+02
1.760000e-06	6.778610e-06	1.258486e-08	4.668621e+01	8.276023e+02
1.770000e-06	6.749037e-06	1.254634e-08	4.648253e+01	8.260004e+02
1.780000e-06	6.717546e-06	1.258862e-08	4.626564e+01	8.243536e+02
1.790000e-06	6.684627e-06	1.256319e-08	4.603892e+01	8.226462e+02
1.800000e-06	6.650001e-06	1.243655e-08	4.580044e+01	8.208548e+02
1.810000e-06	6.612748e-06	1.250074e-08	4.554387e+01	8.189511e+02
1.820000e-06	6.573088e-06	1.246790e-08	4.527072e+01	8.169046e+02
1.830000e-06	6.531358e-06	1.242260e-08	4.498331e+01	8.146850e+02
1.840000e-06	6.487363e-06	1.246198e-08	4.468030e+01	8.122649e+02
1.850000e-06	6.441108e-06	1.230641e-08	4.436174e+01	8.096217e+02
1.860000e-06	6.392428e-06	1.231111e-08	4.402646e+01	8.067392e+02
1.870000e-06	6.341465e-06	1.228805e-08	4.367547e+01	8.036081e+02
1.880000e-06	6.288066e-06	1.221944e-08	4.330769e+01	8.002260e+02
1.890000e-06	6.231910e-06	1.222697e-08	4.292093e+01	7.965966e+02
1.900000e-06	6.173371e-06	1.207548e-08	4.251775e+01	7.927288e+02
1.910000e-06	6.112493e-06	1.202636e-08	4.209847e+01	7.886352e+02
1.920000e-06	6.049278e-06	1.196949e-08	4.166309e+01	7.843306e+02
1.930000e-06	5.983937e-06	1.190133e-08	4.121307e+01	7.798303e+02
1.940000e-06	5.916417e-06	1.188784e-08	4.074804e+01	7.751491e+02
1.950000e-06	5.846631e-06	1.175845e-08	4.026740e+01	7.703002e+02
1.960000e-06	5.774481e-06	1.170170e-08	3.977049e+01	7.652940e+02
1.970000e-06	5.700186e-06	1.158143e-08	3.925880e+01	7.601380e+02
1.980000e-06	5.623695e-06	1.151468e-08	3.873198e+01	7.548364e+02
1.990000e-06	5.544854e-06	1.147879e-08	3.818898e+01	7.493902e+02
2.000000e-06	5.464080e-06	1.136262e-08	3.763267e+01	7.437969e+02
2.010000e-06	5.381547e-06	1.128557e-08	3.706424e+01	7.380514e+02
2.020000e-06	5.297118e-06	1.116594e-08	3.648275e+01	7.321462e+02
2.030000e-06	5.210591e-06	1.108610e-08	3.588682e+01	7.260720e+02
2.040000e-06	5.122072e-06	1.098442e-08	3.527716e+01	7.198187e+02
2.050000e-06	5.031921e-06	1.088801e-08	3.465627e+01	7.133759e+02
2.060000e-06	4.940211e-06	1.079299e-08	3.402463e+01	7.067339e+02
2.070000e-06	4.846799e-06	1.067634e-08	3.338128e+01	6.998845e+02
2.080000e-06	4.751522e-06	1.058038e-08	3.272508e+01	6.928217e+02
2.090000e-06	4.654555e-06	1.046612e-08	3.205724e+01	6.855420e+02
2.100000e-06	4.556102e-06	1.037008e-08	3.137917e+01	6.780445e+02
2.110000e-06	4.456122e-06	1.023938e-08	3.069057e+01	6.703310e+02
2.120000e-06	4.354538e-06	1.010680e-08	2.999093e+01	6.624055e+02
2.130000e-06	4.251304e-06	9.982737e-09	2.927993e+01	6.542728e+02
2.140000e-06	4.146504e-06	9.865939e-09	2.855815e+01	6.459381e+02
2.150000e-06	4.040333e-06	9.747443e-09	2.782692e+01	6.374054e+02
2.160000e-06	3.932771e-06	9.613217e-09	2.708611e+01	6.286768e+02
2.170000e-06	3.823770e-06	9.471990e-09	2.633538e+01	6.197513e+02
2.180000e-06	3.713383e-06	9.321995e-09	2.557512e+01	6.106243e+02
2.190000e-06	3.601504e-06	9.183657e-09	2.480458e+01	6.012878e+02
2.200000e-06	3.488213e-06	9.042990e-09	2.402431e+01	5.917309e+02
2.210000e-06	3.373561e-06	8.901414e-09	2.323467e+01	5.819403e+02
2.220000e-06	3.257498e-06	8.739784e-09	2.243531e+01	5.719023e+02
2.230000e-06	3.140071e-06	8.573963e-09	2.162656e+01	5.616036e+02
2.240000e-06	3.021448e-06	8.409530e-09	2.080957e+01	5.510327e+02
2.250000e-06	2.901686e-06	8.249466e-09	1.998473e+01	5.401816e+02
2.260000e-06	2.780773e-06	8.088313e-09	1.915197e+01	5.290455e+02
2.270000e-06	2.658912e-06	7.917640e-09	1.831268e+01	5.176235e+02
2.280000e-06	2.536158e-06	7.740028e-09	1.746724e+01	5.059174e+02
2.290000e-06	2.412462e-06	7.555633e-09	1.661531e+01	4.939309e+02
2.300000e-06	2.287869e-06	7.370792e-09	1.575720e+01	4.816673e+02
2.310000e-06	2.162529e-06	7.182515e-09	1.489395e+01	4.691283e+02
2.320000e-06	2.036532e-06	6.985799e-09	1.402617e+01	4.563117e+02
2.330000e-06	1.909778e-06	6.776644e-09	1.315318e+01	4.432103e+02
2.340000e-06	1.782274e-06	6.567618e-09	1.227503e+01	4.298115e+02
2.350000e-06	1.654126e-06	6.360388e-09	1.139243e+01	4.160967e+02
2.360000e-06	1.525365e-06	6.150462e-09	1.050562e+01	4.020430e+02
2.370000e-06	1.396105e-06	5.931434e-09	9.615367e+00	3.876244e+02
2.380000e-06	1.266526e-06	5.702363e-09	8.722922e+00	3.728140e+02
2.390000e-06	1.136660e-06	5.466452e-09	7.828498e+00	3.575861e+02
2.400000e-06	1.006487e-06	5.225504e-09	6.931961e+00	3.419182e+02
2.410000e-06	8.760163e-07	4.982238e-09	6.033372e+00	3.257924e+02
2.420000e-06	7.452591e-07	4.732062e-09	5.132810e+00	3.091952e+02
2.430000e-06	6.142384e-07	4.472258e-09	4.230434e+00	2.921170e+02
2.440000e-06	4.829966e-07	4.201645e-09	3.326534e+00	2.745499e+02
2.450000e-06	3.515439e-07	3.924312e-09	2.421182e+00	2.564847e+02
2.460000e-06	2.199114e-07	3.642406e-09	1.514592e+00	2.379080e+02
2.470000e-06	8.816778e-08	3.354328e-09	6.072365e-01	2.187983e+02
2.480000e-06	-4.369533e-08	3.057772e-09	-3.009421e-01	1.991237e+02
2.490000e-06	-1.755597e-07	2.747130e-09	-1.209129e+00	1.788406e+02
2.500000e-06	-3.073391e-07	2.421210e-09	-2.116731e+00	1.578945e+02
2.510000e-06	-4.390204e-07	2.083024e-09	-3.023658e+00	1.362220e+02
2.520000e-06	-5.705864e-07	1.736860e-09	-3.929790e+00	1.137566e+02
2.530000e-06	-7.019507e-07	1.382072e-09	-4.834533e+00	9.043459e+01
2.540000e-06	-8.329878e-07	1.015934e-09	-5.737023e+00	6.620424e+01
2.550000e-06	-9.636499e-07	6.378685e-10	-6.636930e+00	4.103405e+01
2.560000e-06	-1.093909e-06	2.465817e-10	-7.534064e+00	1.492152e+01
2.570000e-06	-1.223831e-06	-1.593722e-10	-8.428873e+00	-1.209962e+01
2.580000e-06	-1.353462e-06	-5.791139e-10	-9.321673e+00	-3.995464e+01
2.590000e-06	-1.482714e-06	-1.012756e-09	-1.021187e+01	-6.852590e+01
2.600000e-06	-1.611504e-06	-1.459793e-09	-1.109888e+01	-9.765468e+01
2.610000e-06	-1.739680e-06	-1.915545e-09	-1.198167e+01	-1.271465e+02
2.620000e-06	-1.867124e-06	-2.373833e-09	-1.285941e+01	-1.567800e+02
2.630000e-06	-1.993818e-06	-2.828251e-09	-1.373199e+01	-1.863181e+02
2.640000e-06	-2.119752e-06	-3.276234e-09	-1.459933e+01	-2.155214e+02
2.650000e-06	-2.244897e-06	-3.716426e-09	-1.546124e+01	-2.441612e+02
2.660000e-06	-2.369160e-06	-4.143068e-09	-1.631708e+01	-2.720329e+02
2.670000e-06	-2.492461e-06	-4.551600e-09	-1.716628e+01	-2.989660e+02
2.680000e-06	-2.614749e-06	-4.939913e-09	-1.800851e+01	-3.248320e+02
2.690000e-06	-2.736117e-06	-5.310028e-09	-1.884441e+01	-3.495487e+02
2.700000e-06	-2.856549e-06	-5.666474e-09	-1.967386e+01	-3.730798e+02
2.710000e-06	-2.975869e-06	-6.009237e-09	-2.049565e+01	-3.954314e+02
2.720000e-06	-3.094039e-06	-6.335968e-09	-2.130952e+01	-4.166453e+02
2.730000e-06	-3.211014e-06	-6.647222e-09	-2.211517e+01	-4.367897e+02
2.740000e-06	-3.326634e-06	-6.945006e-09	-2.291147e+01	-4.559491e+02
2.750000e-06	-3.440866e-06	-7.229136e-09	-2.369822e+01	-4.742139e+02
2.760000e-06	-3.553768e-06	-7.499223e-09	-2.447580e+01	-4.916713e+02
2.770000e-06	-3.665317e-06	-7.756148e-09	-2.524408e+01	-5.083983e+02
2.780000e-06	-3.775482e-06	-7.998024e-09	-2.600281e+01	-5.244568e+02
2.790000e-06	-3.884340e-06	-8.228213e-09	-2.675255e+01	-5.398919e+02
2.800000e-06	-3.991925e-06	-8.450451e-09	-2.749352e+01	-5.547329e+02
2.810000e-06	-4.098198e-06	-8.667403e-09	-2.822545e+01	-5.689960e+02
2.820000e-06	-4.203123e-06	-8.880127e-09	-2.894810e+01	-5.826890e+02
2.830000e-06	-4.306497e-06	-9.085683e-09	-2.966006e+01	-5.958162e+02
2.840000e-06	-4.408139e-06	-9.281473e-09	-3.036010e+01	-6.083834e+02
2.850000e-06	-4.508175e-06	-9.468221e-09	-3.104908e+01	-6.204015e+02
2.860000e-06	-4.606687e-06	-9.647121e-09	-3.172755e+01	-6.318888e+02
2.870000e-06	-4.703643e-06	-9.815336e-09	-3.239532e+01	-6.428719e+02
2.880000e-06	-4.798984e-06	-9.972736e-09	-3.305196e+01	-6.533841e+02
2.890000e-06	-4.892534e-06	-1.012323e-08	-3.369627e+01	-6.634629e+02
2.900000e-06	-4.984318e-06	-1.027003e-08	-3.432841e+01	-6.731465e+02
2.910000e-06	-5.074353e-06	-1.041336e-08	-3.494851e+01	-6.824699e+02
2.920000e-06	-5.162510e-06	-1.055199e-08	-3.555567e+01	-6.914617e+02
2.930000e-06	-5.248722e-06	-1.068681e-08	-3.614944e+01	-7.001412e+02
2.940000e-06	-5.332969e-06	-1.081662e-08	-3.672967e+01	-7.085176e+02
