# Temperatura_=_26.46
# Concentracion g/m^3_=_15000.0
# C_Vs_to_Am_M_A/Vsm_=_65563218390.804596
# pendiente_HvsI_1/m_=_3716.3
# ordenada_HvsI_A/m_=_1297.0
# frecuencia_Hz_=_301957.6960894163

Tiempo_(s)	Campo_(V.s)	Magnetizacion_(V.s)	Campo_(kA/m)	Magnetizacion_(A/m)
0.000000e+00	-6.886423e-06	-1.011245e-08	-4.747181e+01	-6.616161e+02
1.000000e-08	-6.882456e-06	-1.010994e-08	-4.744446e+01	-6.613751e+02
2.000000e-08	-6.876338e-06	-1.010335e-08	-4.740229e+01	-6.609877e+02
3.000000e-08	-6.867977e-06	-1.009751e-08	-4.734465e+01	-6.604587e+02
4.000000e-08	-6.857195e-06	-1.009059e-08	-4.727032e+01	-6.597986e+02
5.000000e-08	-6.843900e-06	-1.008334e-08	-4.717867e+01	-6.590231e+02
6.000000e-08	-6.828116e-06	-1.006599e-08	-4.706987e+01	-6.581514e+02
7.000000e-08	-6.810089e-06	-1.004706e-08	-4.694560e+01	-6.572042e+02
8.000000e-08	-6.789957e-06	-1.007111e-08	-4.680682e+01	-6.562015e+02
9.000000e-08	-6.767263e-06	-1.006789e-08	-4.665038e+01	-6.551601e+02
1.000000e-07	-6.741630e-06	-1.001359e-08	-4.647367e+01	-6.540918e+02
1.100000e-07	-6.713351e-06	-9.986546e-09	-4.627873e+01	-6.530022e+02
1.200000e-07	-6.682899e-06	-9.976666e-09	-4.606881e+01	-6.518894e+02
1.300000e-07	-6.650394e-06	-9.911083e-09	-4.584474e+01	-6.507447e+02
1.400000e-07	-6.615920e-06	-9.898304e-09	-4.560708e+01	-6.495534e+02
1.500000e-07	-6.579562e-06	-9.963741e-09	-4.535645e+01	-6.482959e+02
1.600000e-07	-6.541190e-06	-9.834023e-09	-4.509193e+01	-6.469500e+02
1.700000e-07	-6.500672e-06	-9.837245e-09	-4.481262e+01	-6.454931e+02
1.800000e-07	-6.457627e-06	-9.869062e-09	-4.451589e+01	-6.439039e+02
1.900000e-07	-6.412034e-06	-9.786011e-09	-4.420159e+01	-6.421644e+02
2.000000e-07	-6.364190e-06	-9.844817e-09	-4.387177e+01	-6.402609e+02
2.100000e-07	-6.313752e-06	-9.790767e-09	-4.352408e+01	-6.381851e+02
2.200000e-07	-6.260573e-06	-9.715904e-09	-4.315749e+01	-6.359339e+02
2.300000e-07	-6.205000e-06	-9.666453e-09	-4.277440e+01	-6.335091e+02
2.400000e-07	-6.147134e-06	-9.599777e-09	-4.237549e+01	-6.309161e+02
2.500000e-07	-6.086959e-06	-9.592162e-09	-4.196067e+01	-6.281634e+02
2.600000e-07	-6.024570e-06	-9.554501e-09	-4.153060e+01	-6.252607e+02
2.700000e-07	-5.959954e-06	-9.496938e-09	-4.108516e+01	-6.222178e+02
2.800000e-07	-5.893069e-06	-9.421627e-09	-4.062409e+01	-6.190437e+02
2.900000e-07	-5.823957e-06	-9.368605e-09	-4.014766e+01	-6.157457e+02
3.000000e-07	-5.752749e-06	-9.340965e-09	-3.965679e+01	-6.123290e+02
3.100000e-07	-5.679327e-06	-9.282462e-09	-3.915064e+01	-6.087964e+02
3.200000e-07	-5.603565e-06	-9.260204e-09	-3.862838e+01	-6.051485e+02
3.300000e-07	-5.525511e-06	-9.190990e-09	-3.809031e+01	-6.013841e+02
3.400000e-07	-5.445289e-06	-9.116192e-09	-3.753730e+01	-5.975003e+02
3.500000e-07	-5.363122e-06	-9.066829e-09	-3.697088e+01	-5.934934e+02
3.600000e-07	-5.279166e-06	-9.004763e-09	-3.639212e+01	-5.893587e+02
3.700000e-07	-5.193537e-06	-8.940134e-09	-3.580184e+01	-5.850915e+02
3.800000e-07	-5.106201e-06	-8.849263e-09	-3.519978e+01	-5.806870e+02
3.900000e-07	-5.016989e-06	-8.782722e-09	-3.458479e+01	-5.761403e+02
4.000000e-07	-4.925868e-06	-8.721508e-09	-3.395665e+01	-5.714470e+02
4.100000e-07	-4.833080e-06	-8.662636e-09	-3.331701e+01	-5.666030e+02
4.200000e-07	-4.738731e-06	-8.586001e-09	-3.266661e+01	-5.616046e+02
4.300000e-07	-4.642678e-06	-8.492900e-09	-3.200447e+01	-5.564487e+02
4.400000e-07	-4.544808e-06	-8.402685e-09	-3.132980e+01	-5.511327e+02
4.500000e-07	-4.445263e-06	-8.311808e-09	-3.064358e+01	-5.456543e+02
4.600000e-07	-4.344184e-06	-8.240142e-09	-2.994679e+01	-5.400120e+02
4.700000e-07	-4.241623e-06	-8.163017e-09	-2.923978e+01	-5.342046e+02
4.800000e-07	-4.137617e-06	-8.068492e-09	-2.852281e+01	-5.282309e+02
4.900000e-07	-4.032046e-06	-7.961194e-09	-2.779506e+01	-5.220897e+02
5.000000e-07	-3.924916e-06	-7.862160e-09	-2.705655e+01	-5.157791e+02
5.100000e-07	-3.816368e-06	-7.769983e-09	-2.630827e+01	-5.092964e+02
5.200000e-07	-3.706551e-06	-7.674289e-09	-2.555125e+01	-5.026376e+02
5.300000e-07	-3.595487e-06	-7.568762e-09	-2.478562e+01	-4.957973e+02
5.400000e-07	-3.482960e-06	-7.452333e-09	-2.400991e+01	-4.887686e+02
5.500000e-07	-3.368861e-06	-7.337779e-09	-2.322337e+01	-4.815432e+02
5.600000e-07	-3.253283e-06	-7.227024e-09	-2.242662e+01	-4.741120e+02
5.700000e-07	-3.136412e-06	-7.118860e-09	-2.162097e+01	-4.664652e+02
5.800000e-07	-3.018439e-06	-6.998567e-09	-2.080772e+01	-4.585933e+02
5.900000e-07	-2.899381e-06	-6.871623e-09	-1.998699e+01	-4.504876e+02
6.000000e-07	-2.779250e-06	-6.743900e-09	-1.915886e+01	-4.421408e+02
6.100000e-07	-2.658088e-06	-6.618149e-09	-1.832362e+01	-4.335475e+02
6.200000e-07	-2.535867e-06	-6.485465e-09	-1.748109e+01	-4.247041e+02
6.300000e-07	-2.412630e-06	-6.340145e-09	-1.663155e+01	-4.156084e+02
6.400000e-07	-2.288426e-06	-6.188587e-09	-1.577535e+01	-4.062597e+02
6.500000e-07	-2.163448e-06	-6.035057e-09	-1.491381e+01	-3.966572e+02
6.600000e-07	-2.037889e-06	-5.886208e-09	-1.404826e+01	-3.867996e+02
6.700000e-07	-1.911745e-06	-5.740306e-09	-1.317869e+01	-3.766842e+02
6.800000e-07	-1.784930e-06	-5.589367e-09	-1.230448e+01	-3.663056e+02
6.900000e-07	-1.657428e-06	-5.424531e-09	-1.142554e+01	-3.556556e+02
7.000000e-07	-1.529339e-06	-5.252083e-09	-1.054256e+01	-3.447232e+02
7.100000e-07	-1.400724e-06	-5.080126e-09	-9.655944e+00	-3.334948e+02
7.200000e-07	-1.271629e-06	-4.907636e-09	-8.766023e+00	-3.219549e+02
7.300000e-07	-1.142075e-06	-4.728686e-09	-7.872938e+00	-3.100877e+02
7.400000e-07	-1.012101e-06	-4.539183e-09	-6.976957e+00	-2.978778e+02
7.500000e-07	-8.817810e-07	-4.342263e-09	-6.078590e+00	-2.853118e+02
7.600000e-07	-7.511170e-07	-4.143503e-09	-5.177853e+00	-2.723793e+02
7.700000e-07	-6.201842e-07	-3.943650e-09	-4.275263e+00	-2.590730e+02
7.800000e-07	-4.890541e-07	-3.738968e-09	-3.371312e+00	-2.453888e+02
7.900000e-07	-3.577452e-07	-3.527539e-09	-2.466130e+00	-2.313247e+02
8.000000e-07	-2.263140e-07	-3.307060e-09	-1.560104e+00	-2.168795e+02
8.100000e-07	-9.476955e-08	-3.081091e-09	-6.532973e-01	-2.020505e+02
8.200000e-07	3.683777e-08	-2.851030e-09	2.539425e-01	-1.868316e+02
8.300000e-07	1.684935e-07	-2.612446e-09	1.161516e+00	-1.712111e+02
8.400000e-07	3.001521e-07	-2.365834e-09	2.069109e+00	-1.551703e+02
8.500000e-07	4.316809e-07	-2.112576e-09	2.975808e+00	-1.386830e+02
8.600000e-07	5.630581e-07	-1.855114e-09	3.881462e+00	-1.217161e+02
8.700000e-07	6.942521e-07	-1.588676e-09	4.785852e+00	-1.042316e+02
8.800000e-07	8.252496e-07	-1.312532e-09	5.688888e+00	-8.618964e+01
8.900000e-07	9.560259e-07	-1.028450e-09	6.590399e+00	-6.755317e+01
9.000000e-07	1.086461e-06	-7.339633e-10	7.489555e+00	-4.829301e+01
9.100000e-07	1.216448e-06	-4.280455e-10	8.385631e+00	-2.839328e+01
9.200000e-07	1.345927e-06	-1.123326e-10	9.278196e+00	-7.856593e+00
9.300000e-07	1.474914e-06	2.094502e-10	1.016737e+01	1.329174e+01
9.400000e-07	1.603381e-06	5.378145e-10	1.105297e+01	3.500086e+01
9.500000e-07	1.731270e-06	8.736207e-10	1.193457e+01	5.719342e+01
9.600000e-07	1.858464e-06	1.219003e-09	1.281139e+01	7.976673e+01
9.700000e-07	1.984930e-06	1.570937e-09	1.368318e+01	1.025960e+02
9.800000e-07	2.110746e-06	1.923653e-09	1.455051e+01	1.255398e+02
9.900000e-07	2.235869e-06	2.273214e-09	1.541304e+01	1.484462e+02
1.000000e-06	2.360227e-06	2.618922e-09	1.627031e+01	1.711613e+02
1.010000e-06	2.483772e-06	2.960401e-09	1.712197e+01	1.935362e+02
1.020000e-06	2.606394e-06	3.294516e-09	1.796727e+01	2.154351e+02
1.030000e-06	2.727960e-06	3.619476e-09	1.880529e+01	2.367415e+02
1.040000e-06	2.848411e-06	3.933489e-09	1.963562e+01	2.573624e+02
1.050000e-06	2.967758e-06	4.235233e-09	2.045835e+01	2.772313e+02
1.060000e-06	3.086079e-06	4.523806e-09	2.127400e+01	2.963086e+02
1.070000e-06	3.203415e-06	4.801664e-09	2.208286e+01	3.145797e+02
1.080000e-06	3.319599e-06	5.067373e-09	2.288378e+01	3.320518e+02
1.090000e-06	3.434413e-06	5.319959e-09	2.367525e+01	3.487495e+02
1.100000e-06	3.547763e-06	5.561694e-09	2.445663e+01	3.647089e+02
1.110000e-06	3.659689e-06	5.793331e-09	2.522820e+01	3.799727e+02
1.120000e-06	3.770354e-06	6.015632e-09	2.599107e+01	3.945851e+02
1.130000e-06	3.879830e-06	6.229446e-09	2.674575e+01	4.085878e+02
1.140000e-06	3.988100e-06	6.435095e-09	2.749212e+01	4.220171e+02
1.150000e-06	4.095067e-06	6.632836e-09	2.822950e+01	4.349027e+02
1.160000e-06	4.200490e-06	6.822020e-09	2.895623e+01	4.472674e+02
1.170000e-06	4.304274e-06	7.001776e-09	2.967167e+01	4.591278e+02
1.180000e-06	4.406528e-06	7.173170e-09	3.037656e+01	4.704964e+02
1.190000e-06	4.507334e-06	7.334765e-09	3.107147e+01	4.813831e+02
1.200000e-06	4.606604e-06	7.488063e-09	3.175579e+01	4.917974e+02
1.210000e-06	4.704091e-06	7.636413e-09	3.242782e+01	5.017499e+02
1.220000e-06	4.799704e-06	7.781498e-09	3.308694e+01	5.112531e+02
1.230000e-06	4.893612e-06	7.922423e-09	3.373429e+01	5.203222e+02
1.240000e-06	4.985915e-06	8.059188e-09	3.437058e+01	5.289744e+02
1.250000e-06	5.076505e-06	8.192353e-09	3.499507e+01	5.372282e+02
1.260000e-06	5.165180e-06	8.317462e-09	3.560635e+01	5.451023e+02
1.270000e-06	5.251891e-06	8.433825e-09	3.620410e+01	5.526145e+02
1.280000e-06	5.336781e-06	8.544829e-09	3.678930e+01	5.597809e+02
1.290000e-06	5.419904e-06	8.650698e-09	3.736231e+01	5.666151e+02
1.300000e-06	5.501028e-06	8.747310e-09	3.792154e+01	5.731282e+02
1.310000e-06	5.580112e-06	8.835238e-09	3.846670e+01	5.793296e+02
1.320000e-06	5.657275e-06	8.922105e-09	3.899863e+01	5.852274e+02
1.330000e-06	5.732330e-06	9.009774e-09	3.951602e+01	5.908295e+02
1.340000e-06	5.805037e-06	9.092447e-09	4.001723e+01	5.961453e+02
1.350000e-06	5.875555e-06	9.168424e-09	4.050335e+01	6.011856e+02
1.360000e-06	5.944092e-06	9.239907e-09	4.097581e+01	6.059641e+02
1.370000e-06	6.010532e-06	9.308697e-09	4.143382e+01	6.104967e+02
1.380000e-06	6.074749e-06	9.375263e-09	4.187650e+01	6.148008e+02
1.390000e-06	6.136780e-06	9.437675e-09	4.230412e+01	6.188951e+02
1.400000e-06	6.196791e-06	9.497397e-09	4.271781e+01	6.227969e+02
1.410000e-06	6.254716e-06	9.555326e-09	4.311711e+01	6.265216e+02
1.420000e-06	6.310404e-06	9.609941e-09	4.350100e+01	6.300808e+02
1.430000e-06	6.363796e-06	9.662911e-09	4.386906e+01	6.334812e+02
1.440000e-06	6.414584e-06	9.712942e-09	4.421917e+01	6.367244e+02
1.450000e-06	6.462723e-06	9.758462e-09	4.455101e+01	6.398068e+02
1.460000e-06	6.508563e-06	9.800113e-09	4.486702e+01	6.427205e+02
1.470000e-06	6.552298e-06	9.838871e-09	4.516850e+01	6.454550e+02
1.480000e-06	6.593634e-06	9.875761e-09	4.545346e+01	6.479991e+02
1.490000e-06	6.632510e-06	9.909635e-09	4.572145e+01	6.503425e+02
1.500000e-06	6.669212e-06	9.939449e-09	4.597445e+01	6.524782e+02
1.510000e-06	6.703611e-06	9.966796e-09	4.621158e+01	6.544036e+02
1.520000e-06	6.735538e-06	9.991338e-09	4.643168e+01	6.561217e+02
1.530000e-06	6.765109e-06	1.001353e-08	4.663552e+01	6.576411e+02
1.540000e-06	6.792425e-06	1.003460e-08	4.682383e+01	6.589749e+02
1.550000e-06	6.817198e-06	1.005247e-08	4.699460e+01	6.601401e+02
1.560000e-06	6.839386e-06	1.006885e-08	4.714756e+01	6.611550e+02
1.570000e-06	6.859269e-06	1.008321e-08	4.728462e+01	6.620375e+02
1.580000e-06	6.876691e-06	1.009565e-08	4.740472e+01	6.628030e+02
1.590000e-06	6.891530e-06	1.010275e-08	4.750701e+01	6.634626e+02
1.600000e-06	6.903770e-06	1.010513e-08	4.759139e+01	6.640222e+02
1.610000e-06	6.913267e-06	1.010847e-08	4.765686e+01	6.644820e+02
1.620000e-06	6.920175e-06	1.011238e-08	4.770448e+01	6.648372e+02
1.630000e-06	6.924774e-06	1.011714e-08	4.773618e+01	6.650792e+02
1.640000e-06	6.926887e-06	1.012279e-08	4.775075e+01	6.651975e+02
1.650000e-06	6.926471e-06	1.012680e-08	4.774788e+01	6.651815e+02
1.660000e-06	6.923837e-06	1.012114e-08	4.772972e+01	6.650232e+02
1.670000e-06	6.919070e-06	1.011521e-08	4.769686e+01	6.647184e+02
1.680000e-06	6.911979e-06	1.010570e-08	4.764798e+01	6.642686e+02
1.690000e-06	6.902548e-06	1.009338e-08	4.758296e+01	6.636810e+02
1.700000e-06	6.890895e-06	1.008242e-08	4.750264e+01	6.629685e+02
1.710000e-06	6.876830e-06	1.007484e-08	4.740567e+01	6.621484e+02
1.720000e-06	6.860420e-06	1.007156e-08	4.729255e+01	6.612410e+02
1.730000e-06	6.841945e-06	1.001252e-08	4.716520e+01	6.602669e+02
1.740000e-06	6.820832e-06	9.983458e-09	4.701966e+01	6.592450e+02
1.750000e-06	6.796332e-06	1.001023e-08	4.685076e+01	6.581901e+02
1.760000e-06	6.768887e-06	9.988562e-09	4.666157e+01	6.571117e+02
1.770000e-06	6.739141e-06	9.967944e-09	4.645652e+01	6.560119e+02
1.780000e-06	6.707500e-06	1.001735e-08	4.623840e+01	6.548861e+02
1.790000e-06	6.674422e-06	9.924033e-09	4.601037e+01	6.537227e+02
1.800000e-06	6.639492e-06	9.910388e-09	4.576958e+01	6.525048e+02
1.810000e-06	6.601956e-06	9.987154e-09	4.551082e+01	6.512114e+02
1.820000e-06	6.562131e-06	9.880882e-09	4.523629e+01	6.498199e+02
1.830000e-06	6.520157e-06	9.930466e-09	4.494694e+01	6.483080e+02
1.840000e-06	6.475888e-06	9.857254e-09	4.464177e+01	6.466555e+02
1.850000e-06	6.429388e-06	9.749732e-09	4.432122e+01	6.448462e+02
1.860000e-06	6.380444e-06	9.822628e-09	4.398382e+01	6.428688e+02
1.870000e-06	6.329216e-06	9.740981e-09	4.363068e+01	6.407171e+02
1.880000e-06	6.275492e-06	9.784626e-09	4.326033e+01	6.383902e+02
1.890000e-06	6.219097e-06	9.750426e-09	4.287157e+01	6.358917e+02
1.900000e-06	6.160395e-06	9.633704e-09	4.246691e+01	6.332283e+02
1.910000e-06	6.099357e-06	9.637740e-09	4.204614e+01	6.304092e+02
1.920000e-06	6.036080e-06	9.536354e-09	4.160994e+01	6.274444e+02
1.930000e-06	5.970600e-06	9.555954e-09	4.115855e+01	6.243435e+02
1.940000e-06	5.902920e-06	9.509626e-09	4.069199e+01	6.211147e+02
1.950000e-06	5.833014e-06	9.443901e-09	4.021009e+01	6.177645e+02
1.960000e-06	5.760716e-06	9.398855e-09	3.971171e+01	6.142971e+02
1.970000e-06	5.686264e-06	9.278589e-09	3.919847e+01	6.107144e+02
1.980000e-06	5.609547e-06	9.280328e-09	3.866962e+01	6.070160e+02
1.990000e-06	5.530574e-06	9.205044e-09	3.812522e+01	6.032000e+02
2.000000e-06	5.449639e-06	9.158763e-09	3.756729e+01	5.992632e+02
2.010000e-06	5.366875e-06	9.100136e-09	3.699675e+01	5.952013e+02
2.020000e-06	5.282277e-06	9.017453e-09	3.641357e+01	5.910096e+02
2.030000e-06	5.195571e-06	8.963818e-09	3.581586e+01	5.866833e+02
2.040000e-06	5.106974e-06	8.868795e-09	3.520511e+01	5.822176e+02
2.050000e-06	5.016751e-06	8.818409e-09	3.458315e+01	5.776077e+02
2.060000e-06	4.924894e-06	8.726554e-09	3.394994e+01	5.728495e+02
2.070000e-06	4.831284e-06	8.661400e-09	3.330463e+01	5.679390e+02
2.080000e-06	4.735850e-06	8.592919e-09	3.264675e+01	5.628727e+02
2.090000e-06	4.638784e-06	8.532049e-09	3.197763e+01	5.576476e+02
2.100000e-06	4.540201e-06	8.460378e-09	3.129804e+01	5.522614e+02
2.110000e-06	4.440186e-06	8.348478e-09	3.060858e+01	5.467122e+02
2.120000e-06	4.338509e-06	8.250660e-09	2.990767e+01	5.409984e+02
2.130000e-06	4.235085e-06	8.152168e-09	2.919471e+01	5.351191e+02
2.140000e-06	4.130127e-06	8.076617e-09	2.847118e+01	5.290730e+02
2.150000e-06	4.023766e-06	7.990045e-09	2.773797e+01	5.228586e+02
2.160000e-06	3.916070e-06	7.902221e-09	2.699557e+01	5.164738e+02
2.170000e-06	3.806979e-06	7.794549e-09	2.624355e+01	5.099154e+02
2.180000e-06	3.696403e-06	7.685885e-09	2.548129e+01	5.031787e+02
2.190000e-06	3.584389e-06	7.581662e-09	2.470912e+01	4.962578e+02
2.200000e-06	3.471039e-06	7.480961e-09	2.392773e+01	4.891451e+02
2.210000e-06	3.356314e-06	7.372878e-09	2.313688e+01	4.818319e+02
2.220000e-06	3.240233e-06	7.247671e-09	2.233666e+01	4.743086e+02
2.230000e-06	3.122751e-06	7.121116e-09	2.152680e+01	4.665657e+02
2.240000e-06	3.003976e-06	6.993010e-09	2.070802e+01	4.585937e+02
2.250000e-06	2.884102e-06	6.872842e-09	1.988166e+01	4.503847e+02
2.260000e-06	2.763192e-06	6.748446e-09	1.904816e+01	4.419321e+02
2.270000e-06	2.641321e-06	6.623112e-09	1.820804e+01	4.332311e+02
2.280000e-06	2.518558e-06	6.489843e-09	1.736177e+01	4.242789e+02
2.290000e-06	2.394897e-06	6.354803e-09	1.650931e+01	4.150740e+02
2.300000e-06	2.270407e-06	6.215447e-09	1.565113e+01	4.056158e+02
2.310000e-06	2.145165e-06	6.070576e-09	1.478777e+01	3.959034e+02
2.320000e-06	2.019069e-06	5.912788e-09	1.391852e+01	3.859350e+02
2.330000e-06	1.892170e-06	5.743596e-09	1.304374e+01	3.757068e+02
2.340000e-06	1.764614e-06	5.576519e-09	1.216443e+01	3.652122e+02
2.350000e-06	1.636524e-06	5.416172e-09	1.128144e+01	3.544419e+02
2.360000e-06	1.507946e-06	5.258764e-09	1.039508e+01	3.433837e+02
2.370000e-06	1.378853e-06	5.089023e-09	9.505173e+00	3.320229e+02
2.380000e-06	1.249315e-06	4.906986e-09	8.612202e+00	3.203439e+02
2.390000e-06	1.119420e-06	4.719289e-09	7.716762e+00	3.083307e+02
2.400000e-06	9.891676e-07	4.530917e-09	6.818863e+00	2.959689e+02
2.410000e-06	8.586431e-07	4.341582e-09	5.919087e+00	2.832461e+02
2.420000e-06	7.278997e-07	4.145086e-09	5.017803e+00	2.701533e+02
2.430000e-06	5.969695e-07	3.937564e-09	4.115231e+00	2.566846e+02
2.440000e-06	4.658844e-07	3.721212e-09	3.211591e+00	2.428369e+02
2.450000e-06	3.345838e-07	3.501417e-09	2.306465e+00	2.286089e+02
2.460000e-06	2.031019e-07	3.281089e-09	1.400091e+00	2.139989e+02
2.470000e-06	7.154159e-08	3.056494e-09	4.931745e-01	1.990030e+02
2.480000e-06	-6.005407e-08	2.823299e-09	-4.139849e-01	1.836129e+02
2.490000e-06	-1.916700e-07	2.580272e-09	-1.321284e+00	1.678142e+02
2.500000e-06	-3.232188e-07	2.328089e-09	-2.228120e+00	1.515849e+02
2.510000e-06	-4.546861e-07	2.069449e-09	-3.134395e+00	1.348957e+02
2.520000e-06	-5.860313e-07	1.806004e-09	-4.039828e+00	1.177110e+02
2.530000e-06	-7.171423e-07	1.534126e-09	-4.943647e+00	9.999156e+01
2.540000e-06	-8.479888e-07	1.254452e-09	-5.845642e+00	8.169820e+01
2.550000e-06	-9.785186e-07	9.689937e-10	-6.745453e+00	6.279654e+01
2.560000e-06	-1.108750e-06	6.775308e-10	-7.643207e+00	4.326245e+01
2.570000e-06	-1.238676e-06	3.784789e-10	-8.538860e+00	2.308737e+01
2.580000e-06	-1.368210e-06	6.619563e-11	-9.431806e+00	2.283185e+00
2.590000e-06	-1.497327e-06	-2.612535e-10	-1.032187e+01	-1.911407e+01
2.600000e-06	-1.625942e-06	-6.013127e-10	-1.120849e+01	-4.104219e+01
2.610000e-06	-1.753958e-06	-9.495680e-10	-1.209098e+01	-6.341270e+01
2.620000e-06	-1.881290e-06	-1.299098e-09	-1.296874e+01	-8.611294e+01
2.630000e-06	-2.007851e-06	-1.646711e-09	-1.384119e+01	-1.090102e+02
2.640000e-06	-2.133663e-06	-1.994416e-09	-1.470848e+01	-1.319577e+02
2.650000e-06	-2.258616e-06	-2.344802e-09	-1.556985e+01	-1.548016e+02
2.660000e-06	-2.382622e-06	-2.692538e-09	-1.642469e+01	-1.773893e+02
2.670000e-06	-2.505664e-06	-3.030914e-09	-1.727288e+01	-1.995767e+02
2.680000e-06	-2.627707e-06	-3.359288e-09	-1.811420e+01	-2.212355e+02
2.690000e-06	-2.748853e-06	-3.679263e-09	-1.894932e+01	-2.422588e+02
2.700000e-06	-2.869096e-06	-3.988304e-09	-1.977821e+01	-2.625648e+02
2.710000e-06	-2.988298e-06	-4.284451e-09	-2.059994e+01	-2.820986e+02
2.720000e-06	-3.106262e-06	-4.570087e-09	-2.141313e+01	-3.008316e+02
2.730000e-06	-3.222899e-06	-4.845211e-09	-2.221717e+01	-3.187591e+02
2.740000e-06	-3.338243e-06	-5.109491e-09	-2.301230e+01	-3.358963e+02
2.750000e-06	-3.452308e-06	-5.361431e-09	-2.379861e+01	-3.522734e+02
2.760000e-06	-3.565024e-06	-5.600362e-09	-2.457562e+01	-3.679301e+02
2.770000e-06	-3.676280e-06	-5.829070e-09	-2.534257e+01	-3.829102e+02
2.780000e-06	-3.786153e-06	-6.047788e-09	-2.609998e+01	-3.972573e+02
2.790000e-06	-3.894772e-06	-6.258079e-09	-2.684875e+01	-4.110109e+02
2.800000e-06	-4.002142e-06	-6.461106e-09	-2.758891e+01	-4.242048e+02
2.810000e-06	-4.108176e-06	-6.659312e-09	-2.831986e+01	-4.368656e+02
2.820000e-06	-4.212762e-06	-6.851151e-09	-2.904083e+01	-4.490132e+02
2.830000e-06	-4.315739e-06	-7.031399e-09	-2.975071e+01	-4.606623e+02
2.840000e-06	-4.417032e-06	-7.200026e-09	-3.044897e+01	-4.718241e+02
2.850000e-06	-4.516779e-06	-7.360355e-09	-3.113658e+01	-4.825080e+02
2.860000e-06	-4.615038e-06	-7.514513e-09	-3.181393e+01	-4.927238e+02
2.870000e-06	-4.711715e-06	-7.661199e-09	-3.248038e+01	-5.024828e+02
2.880000e-06	-4.806713e-06	-7.800051e-09	-3.313525e+01	-5.117988e+02
2.890000e-06	-4.899904e-06	-7.933174e-09	-3.377767e+01	-5.206879e+02
2.900000e-06	-4.991346e-06	-8.062377e-09	-3.440803e+01	-5.291678e+02
2.910000e-06	-5.081073e-06	-8.187504e-09	-3.502656e+01	-5.372574e+02
2.920000e-06	-5.168921e-06	-8.307729e-09	-3.563214e+01	-5.449751e+02
2.930000e-06	-5.254760e-06	-8.422398e-09	-3.622388e+01	-5.523381e+02
2.940000e-06	-5.338668e-06	-8.529945e-09	-3.680230e+01	-5.593614e+02
