# Temperatura_=_78.3
# Concentracion g/m^3_=_15000.0
# C_Vs_to_Am_M_A/Vsm_=_65563218390.804596
# pendiente_HvsI_1/m_=_3716.3
# ordenada_HvsI_A/m_=_1297.0
# frecuencia_Hz_=_301962.7960066906

Tiempo_(s)	Campo_(V.s)	Magnetizacion_(V.s)	Campo_(kA/m)	Magnetizacion_(A/m)
0.000000e+00	-6.879997e-06	-1.246434e-08	-4.748790e+01	-8.172602e+02
1.000000e-08	-6.878091e-06	-1.246846e-08	-4.747475e+01	-8.170312e+02
2.000000e-08	-6.873752e-06	-1.246465e-08	-4.744480e+01	-8.166112e+02
3.000000e-08	-6.867255e-06	-1.245563e-08	-4.739995e+01	-8.159986e+02
4.000000e-08	-6.858596e-06	-1.244916e-08	-4.734019e+01	-8.151984e+02
5.000000e-08	-6.847524e-06	-1.243774e-08	-4.726376e+01	-8.142232e+02
6.000000e-08	-6.833963e-06	-1.242272e-08	-4.717016e+01	-8.130917e+02
7.000000e-08	-6.817953e-06	-1.239119e-08	-4.705966e+01	-8.118274e+02
8.000000e-08	-6.799680e-06	-1.236487e-08	-4.693353e+01	-8.104555e+02
9.000000e-08	-6.779155e-06	-1.243054e-08	-4.679186e+01	-8.090011e+02
1.000000e-07	-6.756002e-06	-1.242546e-08	-4.663205e+01	-8.074857e+02
1.100000e-07	-6.729996e-06	-1.232668e-08	-4.645255e+01	-8.059251e+02
1.200000e-07	-6.701414e-06	-1.228905e-08	-4.625527e+01	-8.043275e+02
1.300000e-07	-6.670726e-06	-1.226208e-08	-4.604345e+01	-8.026927e+02
1.400000e-07	-6.638080e-06	-1.213142e-08	-4.581812e+01	-8.010116e+02
1.500000e-07	-6.603532e-06	-1.217295e-08	-4.557965e+01	-7.992674e+02
1.600000e-07	-6.566986e-06	-1.227797e-08	-4.532741e+01	-7.974368e+02
1.700000e-07	-6.528350e-06	-1.202939e-08	-4.506072e+01	-7.954922e+02
1.800000e-07	-6.487559e-06	-1.208484e-08	-4.477918e+01	-7.934041e+02
1.900000e-07	-6.444246e-06	-1.210797e-08	-4.448021e+01	-7.911435e+02
2.000000e-07	-6.398447e-06	-1.197041e-08	-4.416409e+01	-7.886844e+02
2.100000e-07	-6.350291e-06	-1.207898e-08	-4.383171e+01	-7.860052e+02
2.200000e-07	-6.299458e-06	-1.198470e-08	-4.348084e+01	-7.830904e+02
2.300000e-07	-6.245987e-06	-1.188618e-08	-4.311177e+01	-7.799309e+02
2.400000e-07	-6.190098e-06	-1.181361e-08	-4.272601e+01	-7.765245e+02
2.500000e-07	-6.131867e-06	-1.172919e-08	-4.232408e+01	-7.728751e+02
2.600000e-07	-6.071348e-06	-1.173001e-08	-4.190635e+01	-7.689920e+02
2.700000e-07	-6.008569e-06	-1.165849e-08	-4.147303e+01	-7.648881e+02
2.800000e-07	-5.943612e-06	-1.157206e-08	-4.102468e+01	-7.605790e+02
2.900000e-07	-5.876472e-06	-1.147484e-08	-4.056126e+01	-7.560809e+02
3.000000e-07	-5.807117e-06	-1.142936e-08	-4.008255e+01	-7.514096e+02
3.100000e-07	-5.735661e-06	-1.139021e-08	-3.958933e+01	-7.465791e+02
3.200000e-07	-5.662052e-06	-1.130046e-08	-3.908126e+01	-7.416002e+02
3.300000e-07	-5.586138e-06	-1.126424e-08	-3.855728e+01	-7.364803e+02
3.400000e-07	-5.507917e-06	-1.114467e-08	-3.801737e+01	-7.312228e+02
3.500000e-07	-5.427513e-06	-1.104104e-08	-3.746240e+01	-7.258269e+02
3.600000e-07	-5.345203e-06	-1.098250e-08	-3.689427e+01	-7.202883e+02
3.700000e-07	-5.261122e-06	-1.090768e-08	-3.631392e+01	-7.145995e+02
3.800000e-07	-5.175327e-06	-1.081347e-08	-3.572173e+01	-7.087508e+02
3.900000e-07	-5.087771e-06	-1.068882e-08	-3.511740e+01	-7.027312e+02
4.000000e-07	-4.998333e-06	-1.060588e-08	-3.450007e+01	-6.965296e+02
4.100000e-07	-4.907081e-06	-1.051989e-08	-3.387022e+01	-6.901357e+02
4.200000e-07	-4.814191e-06	-1.043592e-08	-3.322906e+01	-6.835411e+02
4.300000e-07	-4.719750e-06	-1.032430e-08	-3.257720e+01	-6.767397e+02
4.400000e-07	-4.623550e-06	-1.019818e-08	-3.191320e+01	-6.697285e+02
4.500000e-07	-4.525579e-06	-1.008172e-08	-3.123697e+01	-6.625072e+02
4.600000e-07	-4.425971e-06	-9.965367e-09	-3.054945e+01	-6.550779e+02
4.700000e-07	-4.324792e-06	-9.871576e-09	-2.985108e+01	-6.474443e+02
4.800000e-07	-4.222147e-06	-9.762483e-09	-2.914258e+01	-6.396111e+02
4.900000e-07	-4.118019e-06	-9.631921e-09	-2.842386e+01	-6.315821e+02
5.000000e-07	-4.012331e-06	-9.490222e-09	-2.769437e+01	-6.233599e+02
5.100000e-07	-3.905117e-06	-9.363608e-09	-2.695434e+01	-6.149442e+02
5.200000e-07	-3.796509e-06	-9.243254e-09	-2.620470e+01	-6.063316e+02
5.300000e-07	-3.686629e-06	-9.113118e-09	-2.544627e+01	-5.975153e+02
5.400000e-07	-3.575475e-06	-8.968456e-09	-2.467906e+01	-5.884852e+02
5.500000e-07	-3.462890e-06	-8.813761e-09	-2.390196e+01	-5.792288e+02
5.600000e-07	-3.348827e-06	-8.668143e-09	-2.311466e+01	-5.697324e+02
5.700000e-07	-3.233261e-06	-8.525678e-09	-2.231698e+01	-5.599821e+02
5.800000e-07	-3.116353e-06	-8.382649e-09	-2.151005e+01	-5.499658e+02
5.900000e-07	-2.998369e-06	-8.224198e-09	-2.069568e+01	-5.396739e+02
6.000000e-07	-2.879318e-06	-8.059508e-09	-1.987396e+01	-5.291003e+02
6.100000e-07	-2.759147e-06	-7.893861e-09	-1.904450e+01	-5.182429e+02
6.200000e-07	-2.637917e-06	-7.728282e-09	-1.820773e+01	-5.071032e+02
6.300000e-07	-2.515702e-06	-7.555157e-09	-1.736416e+01	-4.956851e+02
6.400000e-07	-2.392507e-06	-7.369525e-09	-1.651384e+01	-4.839937e+02
6.500000e-07	-2.268384e-06	-7.180660e-09	-1.565710e+01	-4.720335e+02
6.600000e-07	-2.143455e-06	-6.993138e-09	-1.479480e+01	-4.598064e+02
6.700000e-07	-2.017903e-06	-6.808528e-09	-1.392820e+01	-4.473100e+02
6.800000e-07	-1.891797e-06	-6.620004e-09	-1.305778e+01	-4.345366e+02
6.900000e-07	-1.764988e-06	-6.424231e-09	-1.218250e+01	-4.214726e+02
7.000000e-07	-1.637475e-06	-6.215388e-09	-1.130236e+01	-4.080990e+02
7.100000e-07	-1.509418e-06	-5.998997e-09	-1.041848e+01	-3.943922e+02
7.200000e-07	-1.380833e-06	-5.782491e-09	-9.530946e+00	-3.803261e+02
7.300000e-07	-1.251777e-06	-5.564624e-09	-8.640156e+00	-3.658741e+02
7.400000e-07	-1.122348e-06	-5.339179e-09	-7.746799e+00	-3.510112e+02
7.500000e-07	-9.925754e-07	-5.103853e-09	-6.851067e+00	-3.357160e+02
7.600000e-07	-8.624574e-07	-4.864958e-09	-5.952952e+00	-3.199719e+02
7.700000e-07	-7.320438e-07	-4.621491e-09	-5.052797e+00	-3.037670e+02
7.800000e-07	-6.013329e-07	-4.372303e-09	-4.150589e+00	-2.870933e+02
7.900000e-07	-4.703707e-07	-4.116294e-09	-3.246646e+00	-2.699448e+02
8.000000e-07	-3.392878e-07	-3.850785e-09	-2.341871e+00	-2.523143e+02
8.100000e-07	-2.081044e-07	-3.571477e-09	-1.436402e+00	-2.341903e+02
8.200000e-07	-7.679614e-08	-3.282784e-09	-5.300711e-01	-2.155537e+02
8.300000e-07	5.459581e-08	-2.989329e-09	3.768374e-01	-1.963752e+02
8.400000e-07	1.860315e-07	-2.684556e-09	1.284048e+00	-1.766138e+02
8.500000e-07	3.174867e-07	-2.370104e-09	2.191393e+00	-1.562177e+02
8.600000e-07	4.488500e-07	-2.048340e-09	3.098104e+00	-1.351262e+02
8.700000e-07	5.800069e-07	-1.717498e-09	4.003390e+00	-1.132746e+02
8.800000e-07	7.109521e-07	-1.371066e-09	4.907215e+00	-9.060042e+01
8.900000e-07	8.417032e-07	-1.010788e-09	5.809701e+00	-6.705142e+01
9.000000e-07	9.721736e-07	-6.379175e-10	6.710248e+00	-4.259380e+01
9.100000e-07	1.102314e-06	-2.506338e-10	7.608515e+00	-1.722047e+01
9.200000e-07	1.232079e-06	1.491348e-10	8.504198e+00	9.041891e+00
9.300000e-07	1.361405e-06	5.583898e-10	9.396843e+00	3.612800e+01
9.400000e-07	1.490230e-06	9.775916e-10	1.028604e+01	6.393184e+01
9.500000e-07	1.618479e-06	1.410126e-09	1.117125e+01	9.230783e+01
9.600000e-07	1.746049e-06	1.852156e-09	1.205178e+01	1.210754e+02
9.700000e-07	1.872921e-06	2.300223e-09	1.292749e+01	1.500269e+02
9.800000e-07	1.999145e-06	2.746586e-09	1.379873e+01	1.789378e+02
9.900000e-07	2.124774e-06	3.187148e-09	1.466586e+01	2.075785e+02
1.000000e-06	2.249769e-06	3.617100e-09	1.552861e+01	2.357275e+02
1.010000e-06	2.373971e-06	4.030717e-09	1.638589e+01	2.631832e+02
1.020000e-06	2.497307e-06	4.429991e-09	1.723720e+01	2.897741e+02
1.030000e-06	2.619655e-06	4.814208e-09	1.808168e+01	3.153668e+02
1.040000e-06	2.741009e-06	5.185627e-09	1.891931e+01	3.398703e+02
1.050000e-06	2.861290e-06	5.539786e-09	1.974953e+01	3.632374e+02
1.060000e-06	2.980400e-06	5.875814e-09	2.057166e+01	3.854613e+02
1.070000e-06	3.098447e-06	6.198161e-09	2.138646e+01	4.065706e+02
1.080000e-06	3.215461e-06	6.505854e-09	2.219412e+01	4.266212e+02
1.090000e-06	3.331316e-06	6.798903e-09	2.299379e+01	4.456873e+02
1.100000e-06	3.445763e-06	7.076530e-09	2.378374e+01	4.638517e+02
1.110000e-06	3.558718e-06	7.340819e-09	2.456339e+01	4.811969e+02
1.120000e-06	3.670286e-06	7.592610e-09	2.533347e+01	4.977988e+02
1.130000e-06	3.780646e-06	7.832284e-09	2.609521e+01	5.137209e+02
1.140000e-06	3.889836e-06	8.062232e-09	2.684887e+01	5.290122e+02
1.150000e-06	3.997762e-06	8.284962e-09	2.759381e+01	5.437073e+02
1.160000e-06	4.104312e-06	8.500558e-09	2.832925e+01	5.578283e+02
1.170000e-06	4.209312e-06	8.708967e-09	2.905399e+01	5.713880e+02
1.180000e-06	4.312696e-06	8.908789e-09	2.976758e+01	5.843947e+02
1.190000e-06	4.414610e-06	9.098605e-09	3.047103e+01	5.968562e+02
1.200000e-06	4.515134e-06	9.276224e-09	3.116488e+01	6.087830e+02
1.210000e-06	4.614074e-06	9.443348e-09	3.184779e+01	6.201918e+02
1.220000e-06	4.711214e-06	9.604275e-09	3.251828e+01	6.311051e+02
1.230000e-06	4.806500e-06	9.761112e-09	3.317597e+01	6.415516e+02
1.240000e-06	4.900052e-06	9.913955e-09	3.382170e+01	6.515640e+02
1.250000e-06	4.992035e-06	1.006401e-08	3.445659e+01	6.611762e+02
1.260000e-06	5.082289e-06	1.021189e-08	3.507956e+01	6.704199e+02
1.270000e-06	5.170619e-06	1.035315e-08	3.568924e+01	6.793220e+02
1.280000e-06	5.257062e-06	1.048698e-08	3.628589e+01	6.879019e+02
1.290000e-06	5.341661e-06	1.061502e-08	3.686983e+01	6.961707e+02
1.300000e-06	5.424389e-06	1.073684e-08	3.744084e+01	7.041307e+02
1.310000e-06	5.505114e-06	1.085030e-08	3.799803e+01	7.117776e+02
1.320000e-06	5.583806e-06	1.095723e-08	3.854119e+01	7.191018e+02
1.330000e-06	5.660531e-06	1.106289e-08	3.907077e+01	7.260926e+02
1.340000e-06	5.735114e-06	1.116663e-08	3.958556e+01	7.327408e+02
1.350000e-06	5.807441e-06	1.126209e-08	4.008478e+01	7.390420e+02
1.360000e-06	5.877666e-06	1.135004e-08	4.056950e+01	7.449990e+02
1.370000e-06	5.945868e-06	1.143434e-08	4.104025e+01	7.506226e+02
1.380000e-06	6.011886e-06	1.151583e-08	4.149593e+01	7.559318e+02
1.390000e-06	6.075672e-06	1.159313e-08	4.193620e+01	7.609521e+02
1.400000e-06	6.137422e-06	1.166554e-08	4.236242e+01	7.657133e+02
1.410000e-06	6.197200e-06	1.173381e-08	4.277502e+01	7.702464e+02
1.420000e-06	6.254729e-06	1.179997e-08	4.317211e+01	7.745799e+02
1.430000e-06	6.309975e-06	1.186502e-08	4.355343e+01	7.787372e+02
1.440000e-06	6.362962e-06	1.192783e-08	4.391917e+01	7.827335e+02
1.450000e-06	6.413223e-06	1.198694e-08	4.426608e+01	7.865752e+02
1.460000e-06	6.460856e-06	1.204171e-08	4.459486e+01	7.902594e+02
1.470000e-06	6.506303e-06	1.209369e-08	4.490855e+01	7.937750e+02
1.480000e-06	6.549584e-06	1.214442e-08	4.520729e+01	7.971053e+02
1.490000e-06	6.590489e-06	1.219297e-08	4.548963e+01	8.002304e+02
1.500000e-06	6.628987e-06	1.223690e-08	4.575536e+01	8.031308e+02
1.510000e-06	6.665364e-06	1.227556e-08	4.600644e+01	8.057903e+02
1.520000e-06	6.699417e-06	1.230948e-08	4.624149e+01	8.081987e+02
1.530000e-06	6.730922e-06	1.233981e-08	4.645894e+01	8.103534e+02
1.540000e-06	6.760131e-06	1.236823e-08	4.666055e+01	8.122596e+02
1.550000e-06	6.787026e-06	1.239564e-08	4.684619e+01	8.139297e+02
1.560000e-06	6.811357e-06	1.241910e-08	4.701413e+01	8.153819e+02
1.570000e-06	6.833199e-06	1.243894e-08	4.716489e+01	8.166372e+02
1.580000e-06	6.852774e-06	1.245657e-08	4.730000e+01	8.177170e+02
1.590000e-06	6.869893e-06	1.247153e-08	4.741816e+01	8.186403e+02
1.600000e-06	6.884407e-06	1.248292e-08	4.751834e+01	8.194210e+02
1.610000e-06	6.896341e-06	1.249127e-08	4.760071e+01	8.200669e+02
1.620000e-06	6.905536e-06	1.249762e-08	4.766418e+01	8.205787e+02
1.630000e-06	6.912082e-06	1.250183e-08	4.770937e+01	8.209510e+02
1.640000e-06	6.916290e-06	1.250372e-08	4.773841e+01	8.211733e+02
1.650000e-06	6.918078e-06	1.250671e-08	4.775075e+01	8.212324e+02
1.660000e-06	6.917408e-06	1.250625e-08	4.774613e+01	8.211153e+02
1.670000e-06	6.914533e-06	1.249431e-08	4.772628e+01	8.208113e+02
1.680000e-06	6.909371e-06	1.248719e-08	4.769065e+01	8.203150e+02
1.690000e-06	6.901804e-06	1.247610e-08	4.763842e+01	8.196271e+02
1.700000e-06	6.892046e-06	1.246379e-08	4.757107e+01	8.187557e+02
1.710000e-06	6.880064e-06	1.245431e-08	4.748837e+01	8.177161e+02
1.720000e-06	6.865614e-06	1.245349e-08	4.738863e+01	8.165289e+02
1.730000e-06	6.848921e-06	1.244938e-08	4.727341e+01	8.152187e+02
1.740000e-06	6.830179e-06	1.232151e-08	4.714404e+01	8.138110e+02
1.750000e-06	6.808699e-06	1.227900e-08	4.699578e+01	8.123298e+02
1.760000e-06	6.783839e-06	1.233233e-08	4.682419e+01	8.107946e+02
1.770000e-06	6.756059e-06	1.228783e-08	4.663244e+01	8.092184e+02
1.780000e-06	6.725957e-06	1.230314e-08	4.642467e+01	8.076061e+02
1.790000e-06	6.694048e-06	1.239326e-08	4.620442e+01	8.059541e+02
1.800000e-06	6.660820e-06	1.217120e-08	4.597507e+01	8.042501e+02
1.810000e-06	6.625630e-06	1.218516e-08	4.573218e+01	8.024745e+02
1.820000e-06	6.587742e-06	1.228354e-08	4.547066e+01	8.006020e+02
1.830000e-06	6.547644e-06	1.209952e-08	4.519390e+01	7.986040e+02
1.840000e-06	6.505426e-06	1.225487e-08	4.490250e+01	7.964509e+02
1.850000e-06	6.460963e-06	1.210133e-08	4.459560e+01	7.941147e+02
1.860000e-06	6.414278e-06	1.196767e-08	4.427337e+01	7.915709e+02
1.870000e-06	6.365100e-06	1.208394e-08	4.393392e+01	7.888000e+02
1.880000e-06	6.313595e-06	1.192184e-08	4.357842e+01	7.857892e+02
1.890000e-06	6.259548e-06	1.202895e-08	4.320537e+01	7.825321e+02
1.900000e-06	6.202854e-06	1.194087e-08	4.281405e+01	7.790289e+02
1.910000e-06	6.143909e-06	1.178153e-08	4.240720e+01	7.752859e+02
1.920000e-06	6.082580e-06	1.181015e-08	4.198388e+01	7.713137e+02
1.930000e-06	6.018968e-06	1.164250e-08	4.154481e+01	7.671267e+02
1.940000e-06	5.953226e-06	1.169259e-08	4.109104e+01	7.627409e+02
1.950000e-06	5.885326e-06	1.159158e-08	4.062237e+01	7.581724e+02
1.960000e-06	5.815135e-06	1.151054e-08	4.013789e+01	7.534365e+02
1.970000e-06	5.742552e-06	1.143570e-08	3.963690e+01	7.485460e+02
1.980000e-06	5.667871e-06	1.127714e-08	3.912143e+01	7.435105e+02
1.990000e-06	5.590909e-06	1.131719e-08	3.859021e+01	7.383359e+02
2.000000e-06	5.511700e-06	1.119382e-08	3.804349e+01	7.330237e+02
2.010000e-06	5.430564e-06	1.112288e-08	3.748346e+01	7.275719e+02
2.020000e-06	5.347635e-06	1.102173e-08	3.691106e+01	7.219748e+02
2.030000e-06	5.262854e-06	1.091357e-08	3.632587e+01	7.162239e+02
2.040000e-06	5.176055e-06	1.084130e-08	3.572676e+01	7.103089e+02
2.050000e-06	5.087412e-06	1.072605e-08	3.511492e+01	7.042186e+02
2.060000e-06	4.997107e-06	1.066731e-08	3.449160e+01	6.979420e+02
2.070000e-06	4.905207e-06	1.053162e-08	3.385728e+01	6.914696e+02
2.080000e-06	4.811572e-06	1.043688e-08	3.321098e+01	6.847937e+02
2.090000e-06	4.716131e-06	1.033423e-08	3.255222e+01	6.779096e+02
2.100000e-06	4.618998e-06	1.026197e-08	3.188178e+01	6.708152e+02
2.110000e-06	4.520302e-06	1.015383e-08	3.120055e+01	6.635113e+02
2.120000e-06	4.420088e-06	1.000385e-08	3.050884e+01	6.560006e+02
2.130000e-06	4.318326e-06	9.881720e-09	2.980644e+01	6.482875e+02
2.140000e-06	4.214937e-06	9.755447e-09	2.909282e+01	6.403764e+02
2.150000e-06	4.109927e-06	9.655324e-09	2.836801e+01	6.322708e+02
2.160000e-06	4.003584e-06	9.533146e-09	2.763400e+01	6.239722e+02
2.170000e-06	3.895884e-06	9.410595e-09	2.689062e+01	6.154793e+02
2.180000e-06	3.786756e-06	9.262185e-09	2.613738e+01	6.067871e+02
2.190000e-06	3.676204e-06	9.121282e-09	2.537432e+01	5.978876e+02
2.200000e-06	3.564211e-06	8.986344e-09	2.460131e+01	5.887697e+02
2.210000e-06	3.450866e-06	8.858328e-09	2.381896e+01	5.794201e+02
2.220000e-06	3.336137e-06	8.710035e-09	2.302707e+01	5.698250e+02
2.230000e-06	3.220038e-06	8.542013e-09	2.222572e+01	5.599710e+02
2.240000e-06	3.102544e-06	8.376949e-09	2.141473e+01	5.498468e+02
2.250000e-06	2.983795e-06	8.218559e-09	2.059509e+01	5.394442e+02
2.260000e-06	2.863908e-06	8.071719e-09	1.976760e+01	5.287586e+02
2.270000e-06	2.742921e-06	7.909239e-09	1.893250e+01	5.177894e+02
2.280000e-06	2.621029e-06	7.740013e-09	1.809117e+01	5.065392e+02
2.290000e-06	2.498282e-06	7.562369e-09	1.724393e+01	4.950126e+02
2.300000e-06	2.374625e-06	7.386695e-09	1.639041e+01	4.832147e+02
2.310000e-06	2.250135e-06	7.207247e-09	1.553114e+01	4.711491e+02
2.320000e-06	2.124865e-06	7.021744e-09	1.466649e+01	4.588161e+02
2.330000e-06	1.998857e-06	6.819859e-09	1.379674e+01	4.462116e+02
2.340000e-06	1.872157e-06	6.611246e-09	1.292222e+01	4.333254e+02
2.350000e-06	1.744795e-06	6.406849e-09	1.204313e+01	4.201418e+02
2.360000e-06	1.616832e-06	6.208398e-09	1.115988e+01	4.066398e+02
2.370000e-06	1.488298e-06	6.008412e-09	1.027270e+01	3.927945e+02
2.380000e-06	1.359258e-06	5.792473e-09	9.382029e+00	3.785793e+02
2.390000e-06	1.229828e-06	5.565489e-09	8.488656e+00	3.639682e+02
2.400000e-06	1.100069e-06	5.330932e-09	7.593026e+00	3.489372e+02
2.410000e-06	9.699857e-07	5.095878e-09	6.695146e+00	3.334668e+02
2.420000e-06	8.396323e-07	4.858832e-09	5.795407e+00	3.175423e+02
2.430000e-06	7.090525e-07	4.609720e-09	4.894104e+00	3.011535e+02
2.440000e-06	5.782733e-07	4.347410e-09	3.991424e+00	2.842935e+02
2.450000e-06	4.473890e-07	4.076398e-09	3.088019e+00	2.669561e+02
2.460000e-06	3.163136e-07	3.804432e-09	2.183296e+00	2.491329e+02
2.470000e-06	1.850075e-07	3.532326e-09	1.276980e+00	2.308098e+02
2.480000e-06	5.359706e-08	3.251018e-09	3.699438e-01	2.119639e+02
2.490000e-06	-7.783388e-08	2.955702e-09	-5.372339e-01	1.925613e+02
2.500000e-06	-2.092367e-07	2.646418e-09	-1.444218e+00	1.725568e+02
2.510000e-06	-3.405711e-07	2.327010e-09	-2.350729e+00	1.518945e+02
2.520000e-06	-4.717690e-07	1.998904e-09	-3.256298e+00	1.305116e+02
2.530000e-06	-6.028176e-07	1.659286e-09	-4.160836e+00	1.083433e+02
2.540000e-06	-7.336808e-07	1.305684e-09	-5.064096e+00	8.533037e+01
2.550000e-06	-8.643422e-07	9.415846e-10	-5.965962e+00	6.142659e+01
2.560000e-06	-9.947433e-07	5.699982e-10	-6.866031e+00	3.660779e+01
2.570000e-06	-1.124824e-06	1.882593e-10	-7.763890e+00	1.087942e+01
2.580000e-06	-1.254551e-06	-2.083110e-10	-8.659303e+00	-1.571714e+01
2.590000e-06	-1.383867e-06	-6.225971e-10	-9.551885e+00	-4.310066e+01
2.600000e-06	-1.512735e-06	-1.054501e-09	-1.044137e+01	-7.114925e+01
2.610000e-06	-1.641130e-06	-1.497916e-09	-1.132759e+01	-9.970287e+01
2.620000e-06	-1.768884e-06	-1.945144e-09	-1.220940e+01	-1.285692e+02
2.630000e-06	-1.895785e-06	-2.391543e-09	-1.308530e+01	-1.575326e+02
2.640000e-06	-2.021974e-06	-2.834465e-09	-1.395630e+01	-1.863651e+02
2.650000e-06	-2.147521e-06	-3.271690e-09	-1.482287e+01	-2.148388e+02
2.660000e-06	-2.272208e-06	-3.699579e-09	-1.568350e+01	-2.427386e+02
2.670000e-06	-2.395896e-06	-4.110990e-09	-1.653723e+01	-2.698735e+02
2.680000e-06	-2.518588e-06	-4.504513e-09	-1.738409e+01	-2.960864e+02
2.690000e-06	-2.640382e-06	-4.882642e-09	-1.822475e+01	-3.212602e+02
2.700000e-06	-2.761287e-06	-5.248524e-09	-1.905927e+01	-3.453211e+02
2.710000e-06	-2.881153e-06	-5.601833e-09	-1.988663e+01	-3.682383e+02
2.720000e-06	-2.999903e-06	-5.938050e-09	-2.070627e+01	-3.900197e+02
2.730000e-06	-3.117504e-06	-6.256453e-09	-2.151799e+01	-4.107058e+02
2.740000e-06	-3.233781e-06	-6.559485e-09	-2.232057e+01	-4.303607e+02
2.750000e-06	-3.348690e-06	-6.847968e-09	-2.311371e+01	-4.490630e+02
2.760000e-06	-3.462300e-06	-7.122151e-09	-2.389788e+01	-4.668965e+02
2.770000e-06	-3.574553e-06	-7.383301e-09	-2.467269e+01	-4.839419e+02
2.780000e-06	-3.685368e-06	-7.631316e-09	-2.543757e+01	-5.002704e+02
2.790000e-06	-3.794841e-06	-7.867989e-09	-2.619319e+01	-5.159402e+02
2.800000e-06	-3.903108e-06	-8.095995e-09	-2.694048e+01	-5.309945e+02
2.810000e-06	-4.010177e-06	-8.316049e-09	-2.767951e+01	-5.454626e+02
2.820000e-06	-4.115996e-06	-8.529725e-09	-2.840990e+01	-5.593624e+02
2.830000e-06	-4.220380e-06	-8.736280e-09	-2.913039e+01	-5.727046e+02
2.840000e-06	-4.323084e-06	-8.933515e-09	-2.983929e+01	-5.854966e+02
2.850000e-06	-4.424069e-06	-9.122356e-09	-3.053632e+01	-5.977470e+02
2.860000e-06	-4.523496e-06	-9.304587e-09	-3.122259e+01	-6.094686e+02
2.870000e-06	-4.621496e-06	-9.479428e-09	-3.189902e+01	-6.206801e+02
2.880000e-06	-4.717954e-06	-9.642893e-09	-3.256481e+01	-6.314069e+02
2.890000e-06	-4.812625e-06	-9.796659e-09	-3.321825e+01	-6.416794e+02
2.900000e-06	-4.905446e-06	-9.944963e-09	-3.385893e+01	-6.515312e+02
2.910000e-06	-4.996560e-06	-1.008825e-08	-3.448783e+01	-6.609955e+02
2.920000e-06	-5.085997e-06	-1.022605e-08	-3.510515e+01	-6.701027e+02
2.930000e-06	-5.173542e-06	-1.035871e-08	-3.570942e+01	-6.788769e+02
2.940000e-06	-5.259037e-06	-1.048882e-08	-3.629953e+01	-6.873343e+02
