# Temperatura_=_49.05
# Concentracion g/m^3_=_15000.0
# C_Vs_to_Am_M_A/Vsm_=_65563218390.804596
# pendiente_HvsI_1/m_=_3716.3
# ordenada_HvsI_A/m_=_1297.0
# frecuencia_Hz_=_301964.7030915122

Tiempo_(s)	Campo_(V.s)	Magnetizacion_(V.s)	Campo_(kA/m)	Magnetizacion_(A/m)
0.000000e+00	-6.886922e-06	-1.054302e-08	-4.747214e+01	-6.905102e+02
1.000000e-08	-6.883179e-06	-1.053746e-08	-4.744635e+01	-6.902300e+02
2.000000e-08	-6.877226e-06	-1.053111e-08	-4.740531e+01	-6.897921e+02
3.000000e-08	-6.869103e-06	-1.052371e-08	-4.734932e+01	-6.892061e+02
4.000000e-08	-6.858605e-06	-1.051564e-08	-4.727695e+01	-6.884880e+02
5.000000e-08	-6.845516e-06	-1.050923e-08	-4.718673e+01	-6.876581e+02
6.000000e-08	-6.829911e-06	-1.049802e-08	-4.707916e+01	-6.867397e+02
7.000000e-08	-6.812039e-06	-1.048835e-08	-4.695597e+01	-6.857555e+02
8.000000e-08	-6.792023e-06	-1.049710e-08	-4.681799e+01	-6.847256e+02
9.000000e-08	-6.769563e-06	-1.047290e-08	-4.666318e+01	-6.836650e+02
1.000000e-07	-6.744281e-06	-1.044436e-08	-4.648891e+01	-6.825816e+02
1.100000e-07	-6.716294e-06	-1.042329e-08	-4.629599e+01	-6.814752e+02
1.200000e-07	-6.686032e-06	-1.038755e-08	-4.608739e+01	-6.803376e+02
1.300000e-07	-6.653773e-06	-1.034675e-08	-4.586502e+01	-6.791533e+02
1.400000e-07	-6.619583e-06	-1.034310e-08	-4.562935e+01	-6.779011e+02
1.500000e-07	-6.583462e-06	-1.032076e-08	-4.538037e+01	-6.765562e+02
1.600000e-07	-6.545318e-06	-1.026762e-08	-4.511744e+01	-6.750927e+02
1.700000e-07	-6.505005e-06	-1.029697e-08	-4.483956e+01	-6.734860e+02
1.800000e-07	-6.462248e-06	-1.025353e-08	-4.454483e+01	-6.717151e+02
1.900000e-07	-6.417028e-06	-1.022134e-08	-4.423312e+01	-6.697640e+02
2.000000e-07	-6.369413e-06	-1.021992e-08	-4.390491e+01	-6.676226e+02
2.100000e-07	-6.319149e-06	-1.014283e-08	-4.355844e+01	-6.652872e+02
2.200000e-07	-6.266268e-06	-1.008968e-08	-4.319392e+01	-6.627599e+02
2.300000e-07	-6.210989e-06	-1.003113e-08	-4.281288e+01	-6.600474e+02
2.400000e-07	-6.153249e-06	-9.996372e-09	-4.241487e+01	-6.571600e+02
2.500000e-07	-6.093223e-06	-9.988729e-09	-4.200111e+01	-6.541095e+02
2.600000e-07	-6.031099e-06	-9.945744e-09	-4.157288e+01	-6.509083e+02
2.700000e-07	-5.966705e-06	-9.885804e-09	-4.112901e+01	-6.475674e+02
2.800000e-07	-5.900034e-06	-9.808201e-09	-4.066944e+01	-6.440961e+02
2.900000e-07	-5.831129e-06	-9.748135e-09	-4.019447e+01	-6.405007e+02
3.000000e-07	-5.760061e-06	-9.696869e-09	-3.970459e+01	-6.367848e+02
3.100000e-07	-5.686784e-06	-9.655796e-09	-3.919949e+01	-6.329493e+02
3.200000e-07	-5.611208e-06	-9.615571e-09	-3.867854e+01	-6.289926e+02
3.300000e-07	-5.533326e-06	-9.530354e-09	-3.814169e+01	-6.249114e+02
3.400000e-07	-5.453258e-06	-9.462713e-09	-3.758978e+01	-6.207013e+02
3.500000e-07	-5.371238e-06	-9.399764e-09	-3.702440e+01	-6.163572e+02
3.600000e-07	-5.287426e-06	-9.329660e-09	-3.644668e+01	-6.118737e+02
3.700000e-07	-5.201880e-06	-9.254427e-09	-3.585701e+01	-6.072459e+02
3.800000e-07	-5.114579e-06	-9.179032e-09	-3.525523e+01	-6.024690e+02
3.900000e-07	-5.025432e-06	-9.114626e-09	-3.464073e+01	-5.975387e+02
4.000000e-07	-4.934409e-06	-9.043314e-09	-3.401331e+01	-5.924514e+02
4.100000e-07	-4.841752e-06	-8.970462e-09	-3.337461e+01	-5.872039e+02
4.200000e-07	-4.747550e-06	-8.877816e-09	-3.272527e+01	-5.817935e+02
4.300000e-07	-4.651651e-06	-8.780165e-09	-3.206423e+01	-5.762181e+02
4.400000e-07	-4.553921e-06	-8.689285e-09	-3.139057e+01	-5.704760e+02
4.500000e-07	-4.454503e-06	-8.604721e-09	-3.070527e+01	-5.645659e+02
4.600000e-07	-4.353617e-06	-8.526417e-09	-3.000986e+01	-5.584870e+02
4.700000e-07	-4.251269e-06	-8.434244e-09	-2.930436e+01	-5.522385e+02
4.800000e-07	-4.147433e-06	-8.328241e-09	-2.858861e+01	-5.458197e+02
4.900000e-07	-4.042064e-06	-8.215062e-09	-2.786229e+01	-5.392294e+02
5.000000e-07	-3.935047e-06	-8.109372e-09	-2.712462e+01	-5.324657e+02
5.100000e-07	-3.826541e-06	-8.010649e-09	-2.637668e+01	-5.255255e+02
5.200000e-07	-3.716790e-06	-7.909777e-09	-2.562016e+01	-5.184046e+02
5.300000e-07	-3.605729e-06	-7.798659e-09	-2.485460e+01	-5.110974e+02
5.400000e-07	-3.493287e-06	-7.680514e-09	-2.407952e+01	-5.035967e+02
5.500000e-07	-3.379389e-06	-7.562172e-09	-2.329442e+01	-4.958946e+02
5.600000e-07	-3.263998e-06	-7.440196e-09	-2.249902e+01	-4.879822e+02
5.700000e-07	-3.147196e-06	-7.315523e-09	-2.169390e+01	-4.798507e+02
5.800000e-07	-3.029223e-06	-7.184057e-09	-2.088070e+01	-4.714920e+02
5.900000e-07	-2.910239e-06	-7.049314e-09	-2.006053e+01	-4.628989e+02
6.000000e-07	-2.790201e-06	-6.915826e-09	-1.923309e+01	-4.540657e+02
6.100000e-07	-2.669153e-06	-6.785005e-09	-1.839870e+01	-4.449883e+02
6.200000e-07	-2.547051e-06	-6.645938e-09	-1.755704e+01	-4.356640e+02
6.300000e-07	-2.423899e-06	-6.492935e-09	-1.670815e+01	-4.260908e+02
6.400000e-07	-2.299825e-06	-6.336947e-09	-1.585289e+01	-4.162672e+02
6.500000e-07	-2.175006e-06	-6.183850e-09	-1.499250e+01	-4.061906e+02
6.600000e-07	-2.049542e-06	-6.030785e-09	-1.412767e+01	-3.958568e+02
6.700000e-07	-1.923426e-06	-5.871840e-09	-1.325834e+01	-3.852592e+02
6.800000e-07	-1.796630e-06	-5.706317e-09	-1.238432e+01	-3.743881e+02
6.900000e-07	-1.669104e-06	-5.532750e-09	-1.150528e+01	-3.632309e+02
7.000000e-07	-1.540950e-06	-5.353215e-09	-1.062190e+01	-3.517723e+02
7.100000e-07	-1.412340e-06	-5.173434e-09	-9.735378e+00	-3.399951e+02
7.200000e-07	-1.283291e-06	-4.991506e-09	-8.845833e+00	-3.278818e+02
7.300000e-07	-1.153860e-06	-4.801671e-09	-7.953654e+00	-3.154152e+02
7.400000e-07	-1.024109e-06	-4.603070e-09	-7.059273e+00	-3.025802e+02
7.500000e-07	-8.939082e-07	-4.403971e-09	-6.161786e+00	-2.893643e+02
7.600000e-07	-7.633136e-07	-4.201965e-09	-5.261586e+00	-2.757582e+02
7.700000e-07	-6.324611e-07	-3.990492e-09	-4.359609e+00	-2.617553e+02
7.800000e-07	-5.013830e-07	-3.769711e-09	-3.456076e+00	-2.473505e+02
7.900000e-07	-3.701230e-07	-3.542323e-09	-2.551289e+00	-2.325386e+02
8.000000e-07	-2.386978e-07	-3.309996e-09	-1.645364e+00	-2.173119e+02
8.100000e-07	-1.071131e-07	-3.072824e-09	-7.383395e-01	-2.016580e+02
8.200000e-07	2.459917e-08	-2.830375e-09	1.695642e-01	-1.855572e+02
8.300000e-07	1.563155e-07	-2.578013e-09	1.077496e+00	-1.689815e+02
8.400000e-07	2.879503e-07	-2.314561e-09	1.984866e+00	-1.518938e+02
8.500000e-07	4.195080e-07	-2.044524e-09	2.891704e+00	-1.342493e+02
8.600000e-07	5.509142e-07	-1.767216e-09	3.797499e+00	-1.159976e+02
8.700000e-07	6.821061e-07	-1.477069e-09	4.701816e+00	-9.708727e+01
8.800000e-07	8.130592e-07	-1.176759e-09	5.604487e+00	-7.747087e+01
8.900000e-07	9.437790e-07	-8.667937e-10	6.505550e+00	-5.711138e+01
9.000000e-07	1.074195e-06	-5.463392e-10	7.404517e+00	-3.598876e+01
9.100000e-07	1.204194e-06	-2.147473e-10	8.300615e+00	-1.410604e+01
9.200000e-07	1.333742e-06	1.284941e-10	9.193600e+00	8.505582e+00
9.300000e-07	1.462820e-06	4.832717e-10	1.008334e+01	3.178355e+01
9.400000e-07	1.591404e-06	8.497702e-10	1.096969e+01	5.563294e+01
9.500000e-07	1.719375e-06	1.222706e-09	1.185180e+01	7.992808e+01
9.600000e-07	1.846686e-06	1.601401e-09	1.272937e+01	1.045167e+02
9.700000e-07	1.973360e-06	1.982486e-09	1.360254e+01	1.292268e+02
9.800000e-07	2.099266e-06	2.361462e-09	1.447042e+01	1.538743e+02
9.900000e-07	2.224416e-06	2.735103e-09	1.533309e+01	1.782736e+02
1.000000e-06	2.348856e-06	3.099343e-09	1.619086e+01	2.022466e+02
1.010000e-06	2.472447e-06	3.453875e-09	1.704279e+01	2.256323e+02
1.020000e-06	2.595122e-06	3.795278e-09	1.788840e+01	2.482944e+02
1.030000e-06	2.716806e-06	4.125811e-09	1.872718e+01	2.701269e+02
1.040000e-06	2.837408e-06	4.444171e-09	1.955849e+01	2.910576e+02
1.050000e-06	2.956941e-06	4.746976e-09	2.038245e+01	3.110479e+02
1.060000e-06	3.075462e-06	5.034651e-09	2.119942e+01	3.300910e+02
1.070000e-06	3.192910e-06	5.309466e-09	2.200900e+01	3.482071e+02
1.080000e-06	3.309158e-06	5.572888e-09	2.281031e+01	3.654376e+02
1.090000e-06	3.424047e-06	5.823061e-09	2.360225e+01	3.818379e+02
1.100000e-06	3.537475e-06	6.060674e-09	2.438412e+01	3.974705e+02
1.110000e-06	3.649568e-06	6.284990e-09	2.515679e+01	4.123983e+02
1.120000e-06	3.760409e-06	6.500316e-09	2.592082e+01	4.266797e+02
1.130000e-06	3.869982e-06	6.708124e-09	2.667612e+01	4.403643e+02
1.140000e-06	3.978324e-06	6.907993e-09	2.742293e+01	4.534920e+02
1.150000e-06	4.085373e-06	7.100741e-09	2.816083e+01	4.660919e+02
1.160000e-06	4.190918e-06	7.286080e-09	2.888835e+01	4.781842e+02
1.170000e-06	4.294884e-06	7.462496e-09	2.960500e+01	4.897822e+02
1.180000e-06	4.397314e-06	7.628703e-09	3.031106e+01	5.008955e+02
1.190000e-06	4.498276e-06	7.787237e-09	3.100700e+01	5.115321e+02
1.200000e-06	4.597707e-06	7.939112e-09	3.169239e+01	5.217018e+02
1.210000e-06	4.695297e-06	8.085001e-09	3.236509e+01	5.314167e+02
1.220000e-06	4.791072e-06	8.225948e-09	3.302527e+01	5.406927e+02
1.230000e-06	4.885175e-06	8.363164e-09	3.367393e+01	5.495489e+02
1.240000e-06	4.977657e-06	8.496608e-09	3.431142e+01	5.580066e+02
1.250000e-06	5.068420e-06	8.625715e-09	3.493705e+01	5.660877e+02
1.260000e-06	5.157288e-06	8.748796e-09	3.554963e+01	5.738133e+02
1.270000e-06	5.244265e-06	8.863929e-09	3.614917e+01	5.812020e+02
1.280000e-06	5.329394e-06	8.972365e-09	3.673597e+01	5.882688e+02
1.290000e-06	5.412735e-06	9.075811e-09	3.731045e+01	5.950250e+02
1.300000e-06	5.494144e-06	9.172232e-09	3.787161e+01	6.014785e+02
1.310000e-06	5.573470e-06	9.262083e-09	3.841841e+01	6.076345e+02
1.320000e-06	5.650764e-06	9.349381e-09	3.895120e+01	6.134973e+02
1.330000e-06	5.725960e-06	9.435188e-09	3.946953e+01	6.190717e+02
1.340000e-06	5.798886e-06	9.516534e-09	3.997222e+01	6.243645e+02
1.350000e-06	5.869614e-06	9.591429e-09	4.045975e+01	6.293858e+02
1.360000e-06	5.938319e-06	9.662317e-09	4.093334e+01	6.341489e+02
1.370000e-06	6.004910e-06	9.730587e-09	4.139236e+01	6.386706e+02
1.380000e-06	6.069289e-06	9.797590e-09	4.183613e+01	6.429702e+02
1.390000e-06	6.131578e-06	9.861034e-09	4.226550e+01	6.470673e+02
1.400000e-06	6.191857e-06	9.920911e-09	4.268100e+01	6.509809e+02
1.410000e-06	6.249993e-06	9.980226e-09	4.308174e+01	6.547265e+02
1.420000e-06	6.305845e-06	1.003682e-08	4.346673e+01	6.583153e+02
1.430000e-06	6.359377e-06	1.009000e-08	4.383573e+01	6.617525e+02
1.440000e-06	6.410394e-06	1.014068e-08	4.418739e+01	6.650375e+02
1.450000e-06	6.458814e-06	1.018750e-08	4.452115e+01	6.681638e+02
1.460000e-06	6.504889e-06	1.023077e-08	4.483876e+01	6.711210e+02
1.470000e-06	6.548793e-06	1.027120e-08	4.514139e+01	6.738961e+02
1.480000e-06	6.590321e-06	1.030889e-08	4.542765e+01	6.764764e+02
1.490000e-06	6.629431e-06	1.034380e-08	4.569723e+01	6.788512e+02
1.500000e-06	6.666334e-06	1.037478e-08	4.595161e+01	6.810140e+02
1.510000e-06	6.700930e-06	1.040291e-08	4.619008e+01	6.829643e+02
1.520000e-06	6.733042e-06	1.042852e-08	4.641144e+01	6.847073e+02
1.530000e-06	6.762786e-06	1.045220e-08	4.661646e+01	6.862544e+02
1.540000e-06	6.790272e-06	1.047381e-08	4.680592e+01	6.876214e+02
1.550000e-06	6.815282e-06	1.049337e-08	4.697832e+01	6.888269e+02
1.560000e-06	6.837726e-06	1.050998e-08	4.713303e+01	6.898901e+02
1.570000e-06	6.857862e-06	1.052378e-08	4.727183e+01	6.908280e+02
1.580000e-06	6.875570e-06	1.053605e-08	4.739389e+01	6.916538e+02
1.590000e-06	6.890636e-06	1.054490e-08	4.749774e+01	6.923750e+02
1.600000e-06	6.903151e-06	1.055135e-08	4.758401e+01	6.929931e+02
1.610000e-06	6.912984e-06	1.055768e-08	4.765179e+01	6.935036e+02
1.620000e-06	6.920129e-06	1.056328e-08	4.770104e+01	6.938972e+02
1.630000e-06	6.924934e-06	1.056758e-08	4.773416e+01	6.941617e+02
1.640000e-06	6.927340e-06	1.057059e-08	4.775075e+01	6.942844e+02
1.650000e-06	6.927180e-06	1.057109e-08	4.774965e+01	6.942545e+02
1.660000e-06	6.924747e-06	1.056824e-08	4.773288e+01	6.940652e+02
1.670000e-06	6.920134e-06	1.056319e-08	4.770108e+01	6.937156e+02
1.680000e-06	6.913179e-06	1.055393e-08	4.765313e+01	6.932117e+02
1.690000e-06	6.903901e-06	1.054346e-08	4.758918e+01	6.925658e+02
1.700000e-06	6.892370e-06	1.053338e-08	4.750970e+01	6.917961e+02
1.710000e-06	6.878450e-06	1.052220e-08	4.741374e+01	6.909245e+02
1.720000e-06	6.862250e-06	1.050282e-08	4.730208e+01	6.899742e+02
1.730000e-06	6.843999e-06	1.045427e-08	4.717627e+01	6.889672e+02
1.740000e-06	6.823138e-06	1.044557e-08	4.703247e+01	6.879218e+02
1.750000e-06	6.798962e-06	1.044060e-08	4.686583e+01	6.868499e+02
1.760000e-06	6.771764e-06	1.041996e-08	4.667835e+01	6.857561e+02
1.770000e-06	6.742154e-06	1.042277e-08	4.647424e+01	6.846369e+02
1.780000e-06	6.710610e-06	1.041290e-08	4.625681e+01	6.834806e+02
1.790000e-06	6.677625e-06	1.036863e-08	4.602944e+01	6.822691e+02
1.800000e-06	6.642864e-06	1.039720e-08	4.578983e+01	6.809793e+02
1.810000e-06	6.605505e-06	1.035988e-08	4.553232e+01	6.795857e+02
1.820000e-06	6.565842e-06	1.032127e-08	4.525891e+01	6.780627e+02
1.830000e-06	6.524083e-06	1.034823e-08	4.497106e+01	6.763870e+02
1.840000e-06	6.480060e-06	1.024943e-08	4.466761e+01	6.745395e+02
1.850000e-06	6.433796e-06	1.025138e-08	4.434871e+01	6.725067e+02
1.860000e-06	6.385070e-06	1.025158e-08	4.401284e+01	6.702813e+02
1.870000e-06	6.334056e-06	1.019337e-08	4.366119e+01	6.678621e+02
1.880000e-06	6.280549e-06	1.021387e-08	4.329236e+01	6.652534e+02
1.890000e-06	6.224399e-06	1.011403e-08	4.290532e+01	6.624636e+02
1.900000e-06	6.165956e-06	1.004057e-08	4.250246e+01	6.595038e+02
1.910000e-06	6.105089e-06	9.996398e-09	4.208290e+01	6.563863e+02
1.920000e-06	6.041915e-06	9.928686e-09	4.164744e+01	6.531230e+02
1.930000e-06	5.976634e-06	9.956873e-09	4.119745e+01	6.497243e+02
1.940000e-06	5.909246e-06	9.891238e-09	4.073294e+01	6.461982e+02
1.950000e-06	5.839582e-06	9.829784e-09	4.025274e+01	6.425499e+02
1.960000e-06	5.767451e-06	9.740573e-09	3.975553e+01	6.387818e+02
1.970000e-06	5.693195e-06	9.665496e-09	3.924368e+01	6.348937e+02
1.980000e-06	5.616713e-06	9.634782e-09	3.871648e+01	6.308831e+02
1.990000e-06	5.537912e-06	9.553688e-09	3.817330e+01	6.267463e+02
2.000000e-06	5.457129e-06	9.518962e-09	3.761646e+01	6.224785e+02
2.010000e-06	5.374560e-06	9.441728e-09	3.704730e+01	6.180743e+02
2.020000e-06	5.290158e-06	9.369736e-09	3.646551e+01	6.135286e+02
2.030000e-06	5.203621e-06	9.294415e-09	3.586901e+01	6.088365e+02
2.040000e-06	5.115157e-06	9.212482e-09	3.525922e+01	6.039934e+02
2.050000e-06	5.025091e-06	9.137758e-09	3.463838e+01	5.989952e+02
2.060000e-06	4.933378e-06	9.044481e-09	3.400620e+01	5.938387e+02
2.070000e-06	4.839889e-06	8.984894e-09	3.336177e+01	5.885207e+02
2.080000e-06	4.744600e-06	8.905813e-09	3.270493e+01	5.830388e+02
2.090000e-06	4.647686e-06	8.827621e-09	3.203689e+01	5.773912e+02
2.100000e-06	4.549266e-06	8.722829e-09	3.135848e+01	5.715762e+02
2.110000e-06	4.449316e-06	8.621942e-09	3.066951e+01	5.655929e+02
2.120000e-06	4.347688e-06	8.528156e-09	2.996899e+01	5.594404e+02
2.130000e-06	4.244368e-06	8.434750e-09	2.925679e+01	5.531181e+02
2.140000e-06	4.139516e-06	8.356147e-09	2.853404e+01	5.466250e+02
2.150000e-06	4.033342e-06	8.262026e-09	2.780217e+01	5.399597e+02
2.160000e-06	3.925813e-06	8.155605e-09	2.706097e+01	5.331198e+02
2.170000e-06	3.816902e-06	8.029532e-09	2.631023e+01	5.261018e+02
2.180000e-06	3.706508e-06	7.912851e-09	2.554927e+01	5.189008e+02
2.190000e-06	3.594672e-06	7.800509e-09	2.477838e+01	5.115107e+02
2.200000e-06	3.481491e-06	7.694024e-09	2.399822e+01	5.039237e+02
2.210000e-06	3.366822e-06	7.576196e-09	2.320780e+01	4.961316e+02
2.220000e-06	3.250766e-06	7.454691e-09	2.240781e+01	4.881254e+02
2.230000e-06	3.133439e-06	7.331144e-09	2.159906e+01	4.798965e+02
2.240000e-06	3.014837e-06	7.201481e-09	2.078153e+01	4.714372e+02
2.250000e-06	2.894988e-06	7.067674e-09	1.995540e+01	4.627408e+02
2.260000e-06	2.774119e-06	6.926518e-09	1.912224e+01	4.538024e+02
2.270000e-06	2.652351e-06	6.789338e-09	1.828289e+01	4.446184e+02
2.280000e-06	2.529698e-06	6.649855e-09	1.743742e+01	4.351867e+02
2.290000e-06	2.406106e-06	6.508311e-09	1.658549e+01	4.255055e+02
2.300000e-06	2.281617e-06	6.358503e-09	1.572738e+01	4.155728e+02
2.310000e-06	2.156459e-06	6.201855e-09	1.486466e+01	4.053857e+02
2.320000e-06	2.030620e-06	6.035424e-09	1.399724e+01	3.949389e+02
2.330000e-06	1.903925e-06	5.867429e-09	1.312392e+01	3.842244e+02
2.340000e-06	1.776438e-06	5.702330e-09	1.224514e+01	3.732314e+02
2.350000e-06	1.648321e-06	5.537253e-09	1.136201e+01	3.619461e+02
2.360000e-06	1.519689e-06	5.363835e-09	1.047535e+01	3.503521e+02
2.370000e-06	1.390625e-06	5.179309e-09	9.585694e+00	3.384321e+02
2.380000e-06	1.261166e-06	4.991049e-09	8.693325e+00	3.261684e+02
2.390000e-06	1.131384e-06	4.796510e-09	7.798725e+00	3.135447e+02
2.400000e-06	1.001311e-06	4.595684e-09	6.902124e+00	3.005468e+02
2.410000e-06	8.709083e-07	4.391055e-09	6.003246e+00	2.871637e+02
2.420000e-06	7.401505e-07	4.183252e-09	5.101921e+00	2.733872e+02
2.430000e-06	6.091201e-07	3.969169e-09	4.198717e+00	2.592116e+02
2.440000e-06	4.779283e-07	3.747558e-09	3.294401e+00	2.446321e+02
2.450000e-06	3.466139e-07	3.518011e-09	2.389239e+00	2.296426e+02
2.460000e-06	2.151536e-07	3.281329e-09	1.483072e+00	2.142338e+02
2.470000e-06	8.354460e-08	3.036933e-09	5.758801e-01	1.983902e+02
2.480000e-06	-4.817598e-08	2.787294e-09	-3.320811e-01	1.820889e+02
2.490000e-06	-1.799027e-07	2.533484e-09	-1.240085e+00	1.652978e+02
2.500000e-06	-3.115380e-07	2.269321e-09	-2.147458e+00	1.479764e+02
2.510000e-06	-4.429818e-07	1.992806e-09	-3.053512e+00	1.300770e+02
2.520000e-06	-5.742844e-07	1.707567e-09	-3.958592e+00	1.115483e+02
2.530000e-06	-7.055181e-07	1.413254e-09	-4.863197e+00	9.233976e+01
2.540000e-06	-8.365860e-07	1.107850e-09	-5.766659e+00	7.240761e+01
2.550000e-06	-9.673179e-07	7.939410e-10	-6.667805e+00	5.172133e+01
2.560000e-06	-1.097613e-06	4.702004e-10	-7.565942e+00	3.027006e+01
2.570000e-06	-1.227485e-06	1.356291e-10	-8.461158e+00	8.068388e+00
2.580000e-06	-1.356954e-06	-2.087445e-10	-9.353600e+00	-1.483934e+01
2.590000e-06	-1.486051e-06	-5.635743e-10	-1.024348e+01	-3.837666e+01
2.600000e-06	-1.614706e-06	-9.284390e-10	-1.113031e+01	-6.243511e+01
2.610000e-06	-1.742732e-06	-1.304060e-09	-1.201280e+01	-8.687701e+01
2.620000e-06	-1.869979e-06	-1.685289e-09	-1.288992e+01	-1.115406e+02
2.630000e-06	-1.996518e-06	-2.064429e-09	-1.376217e+01	-1.362477e+02
2.640000e-06	-2.122339e-06	-2.437817e-09	-1.462947e+01	-1.608124e+02
2.650000e-06	-2.247299e-06	-2.806906e-09	-1.549082e+01	-1.850509e+02
2.660000e-06	-2.371381e-06	-3.170975e-09	-1.634613e+01	-2.087917e+02
2.670000e-06	-2.494562e-06	-3.525011e-09	-1.719523e+01	-2.318832e+02
2.680000e-06	-2.616776e-06	-3.865279e-09	-1.803766e+01	-2.542018e+02
2.690000e-06	-2.738052e-06	-4.191901e-09	-1.887363e+01	-2.756557e+02
2.700000e-06	-2.858341e-06	-4.502853e-09	-1.970279e+01	-2.961871e+02
2.710000e-06	-2.977535e-06	-4.797838e-09	-2.052441e+01	-3.157716e+02
2.720000e-06	-3.095512e-06	-5.081797e-09	-2.133763e+01	-3.344145e+02
2.730000e-06	-3.212213e-06	-5.355524e-09	-2.214206e+01	-3.521459e+02
2.740000e-06	-3.327651e-06	-5.618825e-09	-2.293778e+01	-3.690143e+02
2.750000e-06	-3.441737e-06	-5.868759e-09	-2.372419e+01	-3.850787e+02
2.760000e-06	-3.554452e-06	-6.103820e-09	-2.450114e+01	-4.004027e+02
2.770000e-06	-3.665726e-06	-6.327594e-09	-2.526816e+01	-4.150477e+02
2.780000e-06	-3.775634e-06	-6.541541e-09	-2.602577e+01	-4.290688e+02
2.790000e-06	-3.884331e-06	-6.747391e-09	-2.677502e+01	-4.425115e+02
2.800000e-06	-3.991836e-06	-6.944744e-09	-2.751607e+01	-4.554109e+02
2.810000e-06	-4.098052e-06	-7.135106e-09	-2.824823e+01	-4.677923e+02
2.820000e-06	-4.202833e-06	-7.318518e-09	-2.897049e+01	-4.796724e+02
2.830000e-06	-4.305991e-06	-7.493931e-09	-2.968156e+01	-4.910626e+02
2.840000e-06	-4.407482e-06	-7.661783e-09	-3.038115e+01	-5.019715e+02
2.850000e-06	-4.507412e-06	-7.820845e-09	-3.106998e+01	-5.124077e+02
2.860000e-06	-4.605816e-06	-7.972977e-09	-3.174829e+01	-5.223817e+02
2.870000e-06	-4.702662e-06	-8.117303e-09	-3.241585e+01	-5.319073e+02
2.880000e-06	-4.797858e-06	-8.254303e-09	-3.307204e+01	-5.410019e+02
2.890000e-06	-4.891282e-06	-8.385205e-09	-3.371602e+01	-5.496856e+02
2.900000e-06	-4.982930e-06	-8.510026e-09	-3.434776e+01	-5.579802e+02
2.910000e-06	-5.072840e-06	-8.631102e-09	-3.496752e+01	-5.659075e+02
2.920000e-06	-5.160886e-06	-8.747197e-09	-3.557443e+01	-5.734876e+02
2.930000e-06	-5.246960e-06	-8.858022e-09	-3.616775e+01	-5.807376e+02
2.940000e-06	-5.331064e-06	-8.964776e-09	-3.674748e+01	-5.876711e+02
