# Temperatura_=_30.64
# Concentracion g/m^3_=_15000.0
# C_Vs_to_Am_M_A/Vsm_=_65563218390.804596
# pendiente_HvsI_1/m_=_3716.3
# ordenada_HvsI_A/m_=_1297.0
# frecuencia_Hz_=_301958.1785816036

Tiempo_(s)	Campo_(V.s)	Magnetizacion_(V.s)	Campo_(kA/m)	Magnetizacion_(A/m)
0.000000e+00	-6.884686e-06	-9.986650e-09	-4.747263e+01	-6.539100e+02
1.000000e-08	-6.880733e-06	-9.985872e-09	-4.744537e+01	-6.536930e+02
2.000000e-08	-6.874649e-06	-9.977532e-09	-4.740342e+01	-6.533316e+02
3.000000e-08	-6.866346e-06	-9.971316e-09	-4.734617e+01	-6.528299e+02
4.000000e-08	-6.855612e-06	-9.964820e-09	-4.727215e+01	-6.521981e+02
5.000000e-08	-6.842370e-06	-9.956911e-09	-4.718084e+01	-6.514521e+02
6.000000e-08	-6.826669e-06	-9.940214e-09	-4.707258e+01	-6.506113e+02
7.000000e-08	-6.808699e-06	-9.920245e-09	-4.694867e+01	-6.496973e+02
8.000000e-08	-6.788553e-06	-9.949411e-09	-4.680976e+01	-6.487307e+02
9.000000e-08	-6.765878e-06	-9.977796e-09	-4.665341e+01	-6.477293e+02
1.000000e-07	-6.740292e-06	-9.914850e-09	-4.647698e+01	-6.467058e+02
1.100000e-07	-6.712046e-06	-9.865717e-09	-4.628221e+01	-6.456660e+02
1.200000e-07	-6.681632e-06	-9.853882e-09	-4.607249e+01	-6.446087e+02
1.300000e-07	-6.649270e-06	-9.779370e-09	-4.584935e+01	-6.435248e+02
1.400000e-07	-6.615006e-06	-9.737032e-09	-4.561308e+01	-6.423989e+02
1.500000e-07	-6.578727e-06	-9.868666e-09	-4.536292e+01	-6.412104e+02
1.600000e-07	-6.540336e-06	-9.749943e-09	-4.509820e+01	-6.399355e+02
1.700000e-07	-6.499815e-06	-9.697008e-09	-4.481880e+01	-6.385496e+02
1.800000e-07	-6.456836e-06	-9.783285e-09	-4.452244e+01	-6.370293e+02
1.900000e-07	-6.411310e-06	-9.661309e-09	-4.420851e+01	-6.353546e+02
2.000000e-07	-6.363491e-06	-9.733964e-09	-4.387879e+01	-6.335103e+02
2.100000e-07	-6.313019e-06	-9.721386e-09	-4.353077e+01	-6.314867e+02
2.200000e-07	-6.259865e-06	-9.607685e-09	-4.316424e+01	-6.292804e+02
2.300000e-07	-6.204370e-06	-9.565975e-09	-4.278158e+01	-6.268934e+02
2.400000e-07	-6.146465e-06	-9.483882e-09	-4.238231e+01	-6.243329e+02
2.500000e-07	-6.086300e-06	-9.475040e-09	-4.196744e+01	-6.216092e+02
2.600000e-07	-6.024018e-06	-9.462499e-09	-4.153799e+01	-6.187351e+02
2.700000e-07	-5.959498e-06	-9.399125e-09	-4.109310e+01	-6.157238e+02
2.800000e-07	-5.892683e-06	-9.325778e-09	-4.063238e+01	-6.125875e+02
2.900000e-07	-5.823667e-06	-9.272867e-09	-4.015649e+01	-6.093367e+02
3.000000e-07	-5.752524e-06	-9.266614e-09	-3.966593e+01	-6.059787e+02
3.100000e-07	-5.679220e-06	-9.198024e-09	-3.916046e+01	-6.025176e+02
3.200000e-07	-5.603579e-06	-9.165065e-09	-3.863890e+01	-5.989542e+02
3.300000e-07	-5.525520e-06	-9.098162e-09	-3.810064e+01	-5.952856e+02
3.400000e-07	-5.445282e-06	-9.004932e-09	-3.754737e+01	-5.915067e+02
3.500000e-07	-5.363081e-06	-8.970839e-09	-3.698057e+01	-5.876099e+02
3.600000e-07	-5.279060e-06	-8.922077e-09	-3.640120e+01	-5.835866e+02
3.700000e-07	-5.193336e-06	-8.866788e-09	-3.581010e+01	-5.794276e+02
3.800000e-07	-5.105892e-06	-8.773191e-09	-3.520714e+01	-5.751242e+02
3.900000e-07	-5.016666e-06	-8.702135e-09	-3.459190e+01	-5.706685e+02
4.000000e-07	-4.925636e-06	-8.644709e-09	-3.396421e+01	-5.660543e+02
4.100000e-07	-4.832875e-06	-8.588089e-09	-3.332458e+01	-5.612771e+02
4.200000e-07	-4.738539e-06	-8.510475e-09	-3.267410e+01	-5.563345e+02
4.300000e-07	-4.642526e-06	-8.412420e-09	-3.201205e+01	-5.512261e+02
4.400000e-07	-4.544753e-06	-8.324933e-09	-3.133787e+01	-5.459528e+02
4.500000e-07	-4.445253e-06	-8.233791e-09	-3.065178e+01	-5.405172e+02
4.600000e-07	-4.344211e-06	-8.161285e-09	-2.995505e+01	-5.349222e+02
4.700000e-07	-4.241722e-06	-8.088960e-09	-2.924835e+01	-5.291706e+02
4.800000e-07	-4.137674e-06	-7.997370e-09	-2.853090e+01	-5.232645e+02
4.900000e-07	-4.032136e-06	-7.889592e-09	-2.780317e+01	-5.172046e+02
5.000000e-07	-3.925062e-06	-7.792455e-09	-2.706485e+01	-5.109891e+02
5.100000e-07	-3.816506e-06	-7.704133e-09	-2.631632e+01	-5.046144e+02
5.200000e-07	-3.706651e-06	-7.608186e-09	-2.555882e+01	-4.980739e+02
5.300000e-07	-3.595520e-06	-7.498425e-09	-2.479253e+01	-4.913587e+02
5.400000e-07	-3.482938e-06	-7.381225e-09	-2.401624e+01	-4.844584e+02
5.500000e-07	-3.368850e-06	-7.270380e-09	-2.322955e+01	-4.773609e+02
5.600000e-07	-3.253355e-06	-7.163717e-09	-2.243317e+01	-4.700541e+02
5.700000e-07	-3.136529e-06	-7.058705e-09	-2.162761e+01	-4.625267e+02
5.800000e-07	-3.018548e-06	-6.941404e-09	-2.081408e+01	-4.547686e+02
5.900000e-07	-2.899527e-06	-6.813389e-09	-1.999339e+01	-4.467723e+02
6.000000e-07	-2.779341e-06	-6.681932e-09	-1.916466e+01	-4.385325e+02
6.100000e-07	-2.658075e-06	-6.556933e-09	-1.832848e+01	-4.300471e+02
6.200000e-07	-2.535953e-06	-6.428430e-09	-1.748640e+01	-4.213156e+02
6.300000e-07	-2.412827e-06	-6.286583e-09	-1.663739e+01	-4.123393e+02
6.400000e-07	-2.288645e-06	-6.137149e-09	-1.578111e+01	-4.031196e+02
6.500000e-07	-2.163700e-06	-5.988420e-09	-1.491957e+01	-3.936569e+02
6.600000e-07	-2.038209e-06	-5.843261e-09	-1.405426e+01	-3.839496e+02
6.700000e-07	-1.912048e-06	-5.697295e-09	-1.318433e+01	-3.739926e+02
6.800000e-07	-1.785160e-06	-5.545045e-09	-1.230938e+01	-3.637772e+02
6.900000e-07	-1.657642e-06	-5.380392e-09	-1.143010e+01	-3.532908e+02
7.000000e-07	-1.529481e-06	-5.209724e-09	-1.054638e+01	-3.425171e+02
7.100000e-07	-1.400713e-06	-5.039389e-09	-9.658468e+00	-3.314376e+02
7.200000e-07	-1.271525e-06	-4.870055e-09	-8.767668e+00	-3.200326e+02
7.300000e-07	-1.142019e-06	-4.693164e-09	-7.874673e+00	-3.082834e+02
7.400000e-07	-1.012199e-06	-4.504845e-09	-6.979514e+00	-2.961730e+02
7.500000e-07	-8.820341e-07	-4.310942e-09	-6.081974e+00	-2.836882e+02
7.600000e-07	-7.515909e-07	-4.116346e-09	-5.182516e+00	-2.708202e+02
7.700000e-07	-6.209215e-07	-3.918525e-09	-4.281500e+00	-2.575642e+02
7.800000e-07	-4.899651e-07	-3.714036e-09	-3.378503e+00	-2.439188e+02
7.900000e-07	-3.587994e-07	-3.502079e-09	-2.474064e+00	-2.298846e+02
8.000000e-07	-2.274476e-07	-3.279403e-09	-1.568341e+00	-2.154614e+02
8.100000e-07	-9.595155e-08	-3.051668e-09	-6.616239e-01	-2.006461e+02
8.200000e-07	3.562312e-08	-2.821247e-09	2.456355e-01	-1.854297e+02
8.300000e-07	1.672504e-07	-2.583073e-09	1.153258e+00	-1.697954e+02
8.400000e-07	2.987727e-07	-2.335315e-09	2.060156e+00	-1.537176e+02
8.500000e-07	4.301570e-07	-2.081528e-09	2.966103e+00	-1.371616e+02
8.600000e-07	5.613971e-07	-1.824005e-09	3.871055e+00	-1.200851e+02
8.700000e-07	6.924193e-07	-1.555906e-09	4.774505e+00	-1.024417e+02
8.800000e-07	8.232101e-07	-1.276808e-09	5.676359e+00	-8.418488e+01
8.900000e-07	9.537512e-07	-9.879527e-10	6.576492e+00	-6.527367e+01
9.000000e-07	1.083998e-06	-6.882411e-10	7.474592e+00	-4.567882e+01
9.100000e-07	1.213873e-06	-3.770325e-10	8.370132e+00	-2.538881e+01
9.200000e-07	1.343379e-06	-5.593386e-11	9.263127e+00	-4.415174e+00
9.300000e-07	1.472506e-06	2.731323e-10	1.015351e+01	1.720345e+01
9.400000e-07	1.601185e-06	6.109055e-10	1.104080e+01	3.939919e+01
9.500000e-07	1.729229e-06	9.562439e-10	1.192372e+01	6.207505e+01
9.600000e-07	1.856476e-06	1.307699e-09	1.280114e+01	8.510741e+01
9.700000e-07	1.982955e-06	1.663481e-09	1.367326e+01	1.083508e+02
9.800000e-07	2.108759e-06	2.020698e-09	1.454073e+01	1.316446e+02
9.900000e-07	2.233928e-06	2.376231e-09	1.540382e+01	1.548210e+02
1.000000e-06	2.358362e-06	2.725920e-09	1.626184e+01	1.777142e+02
1.010000e-06	2.481898e-06	3.066924e-09	1.711367e+01	2.001683e+02
1.020000e-06	2.604431e-06	3.398616e-09	1.795858e+01	2.220455e+02
1.030000e-06	2.726034e-06	3.722023e-09	1.879708e+01	2.432320e+02
1.040000e-06	2.846677e-06	4.032741e-09	1.962896e+01	2.636425e+02
1.050000e-06	2.966146e-06	4.328536e-09	2.045275e+01	2.832210e+02
1.060000e-06	3.084458e-06	4.611477e-09	2.126856e+01	3.019412e+02
1.070000e-06	3.201726e-06	4.884378e-09	2.207716e+01	3.198030e+02
1.080000e-06	3.317841e-06	5.142804e-09	2.287783e+01	3.368282e+02
1.090000e-06	3.432602e-06	5.386701e-09	2.366915e+01	3.530549e+02
1.100000e-06	3.546010e-06	5.620359e-09	2.445114e+01	3.685313e+02
1.110000e-06	3.658028e-06	5.844620e-09	2.522355e+01	3.833100e+02
1.120000e-06	3.768695e-06	6.059571e-09	2.598664e+01	3.974426e+02
1.130000e-06	3.878135e-06	6.266784e-09	2.674127e+01	4.109756e+02
1.140000e-06	3.986387e-06	6.466378e-09	2.748771e+01	4.239485e+02
1.150000e-06	4.093295e-06	6.657063e-09	2.822489e+01	4.363918e+02
1.160000e-06	4.198687e-06	6.837639e-09	2.895161e+01	4.483284e+02
1.170000e-06	4.302492e-06	7.006722e-09	2.966738e+01	4.597740e+02
1.180000e-06	4.404680e-06	7.170111e-09	3.037201e+01	4.707397e+02
1.190000e-06	4.505396e-06	7.328068e-09	3.106649e+01	4.812344e+02
1.200000e-06	4.604532e-06	7.479872e-09	3.175007e+01	4.912664e+02
1.210000e-06	4.701961e-06	7.626122e-09	3.242188e+01	5.008456e+02
1.220000e-06	4.797557e-06	7.767857e-09	3.308105e+01	5.099845e+02
1.230000e-06	4.891388e-06	7.904089e-09	3.372806e+01	5.186980e+02
1.240000e-06	4.983672e-06	8.033456e-09	3.436439e+01	5.270037e+02
1.250000e-06	5.074240e-06	8.158591e-09	3.498889e+01	5.349202e+02
1.260000e-06	5.162887e-06	8.276436e-09	3.560015e+01	5.424668e+02
1.270000e-06	5.249666e-06	8.385267e-09	3.619853e+01	5.496614e+02
1.280000e-06	5.334663e-06	8.490378e-09	3.678461e+01	5.565204e+02
1.290000e-06	5.417803e-06	8.592051e-09	3.735790e+01	5.630577e+02
1.300000e-06	5.498906e-06	8.687095e-09	3.791713e+01	5.692849e+02
1.310000e-06	5.577959e-06	8.773064e-09	3.846223e+01	5.752115e+02
1.320000e-06	5.655050e-06	8.855943e-09	3.899380e+01	5.808463e+02
1.330000e-06	5.730003e-06	8.939103e-09	3.951064e+01	5.861981e+02
1.340000e-06	5.802663e-06	9.016248e-09	4.001166e+01	5.912768e+02
1.350000e-06	5.873141e-06	9.086372e-09	4.049763e+01	5.960944e+02
1.360000e-06	5.941643e-06	9.151694e-09	4.096998e+01	6.006649e+02
1.370000e-06	6.008064e-06	9.215527e-09	4.142798e+01	6.050047e+02
1.380000e-06	6.072218e-06	9.279998e-09	4.187034e+01	6.091316e+02
1.390000e-06	6.134256e-06	9.342557e-09	4.229812e+01	6.130632e+02
1.400000e-06	6.194351e-06	9.402369e-09	4.271250e+01	6.168164e+02
1.410000e-06	6.252263e-06	9.459107e-09	4.311182e+01	6.204049e+02
1.420000e-06	6.307874e-06	9.512547e-09	4.349529e+01	6.238384e+02
1.430000e-06	6.361219e-06	9.563781e-09	4.386312e+01	6.271214e+02
1.440000e-06	6.412018e-06	9.611865e-09	4.421340e+01	6.302531e+02
1.450000e-06	6.460212e-06	9.655771e-09	4.454572e+01	6.332277e+02
1.460000e-06	6.506048e-06	9.696185e-09	4.486178e+01	6.360355e+02
1.470000e-06	6.549754e-06	9.733585e-09	4.516315e+01	6.386648e+02
1.480000e-06	6.591097e-06	9.769658e-09	4.544822e+01	6.411033e+02
1.490000e-06	6.629991e-06	9.804595e-09	4.571641e+01	6.433408e+02
1.500000e-06	6.666678e-06	9.835555e-09	4.596938e+01	6.453710e+02
1.510000e-06	6.701015e-06	9.861344e-09	4.620615e+01	6.471924e+02
1.520000e-06	6.732905e-06	9.882969e-09	4.642604e+01	6.488098e+02
1.530000e-06	6.762489e-06	9.903455e-09	4.663004e+01	6.502336e+02
1.540000e-06	6.789831e-06	9.922951e-09	4.681857e+01	6.514790e+02
1.550000e-06	6.814648e-06	9.939060e-09	4.698969e+01	6.525648e+02
1.560000e-06	6.836840e-06	9.951951e-09	4.714271e+01	6.535110e+02
1.570000e-06	6.856778e-06	9.963678e-09	4.728019e+01	6.543364e+02
1.580000e-06	6.874320e-06	9.975831e-09	4.740115e+01	6.550570e+02
1.590000e-06	6.889253e-06	9.985554e-09	4.750412e+01	6.556841e+02
1.600000e-06	6.901676e-06	9.992422e-09	4.758979e+01	6.562229e+02
1.610000e-06	6.911323e-06	9.998501e-09	4.765631e+01	6.566728e+02
1.620000e-06	6.918259e-06	1.000250e-08	4.770413e+01	6.570277e+02
1.630000e-06	6.922873e-06	1.000487e-08	4.773595e+01	6.572774e+02
1.640000e-06	6.925020e-06	1.000773e-08	4.775075e+01	6.574099e+02
1.650000e-06	6.924640e-06	1.001238e-08	4.774813e+01	6.574131e+02
1.660000e-06	6.922047e-06	1.000366e-08	4.773025e+01	6.572774e+02
1.670000e-06	6.917288e-06	9.995341e-09	4.769744e+01	6.569978e+02
1.680000e-06	6.910137e-06	9.986652e-09	4.764813e+01	6.565746e+02
1.690000e-06	6.900711e-06	9.977594e-09	4.758313e+01	6.560149e+02
1.700000e-06	6.889111e-06	9.972393e-09	4.750314e+01	6.553313e+02
1.710000e-06	6.875046e-06	9.967827e-09	4.740616e+01	6.545414e+02
1.720000e-06	6.858688e-06	9.970889e-09	4.729336e+01	6.536659e+02
1.730000e-06	6.840288e-06	9.909036e-09	4.716649e+01	6.527262e+02
1.740000e-06	6.819270e-06	9.839694e-09	4.702156e+01	6.517421e+02
1.750000e-06	6.794936e-06	9.878477e-09	4.685377e+01	6.507294e+02
1.760000e-06	6.767560e-06	9.879021e-09	4.666500e+01	6.496979e+02
1.770000e-06	6.737747e-06	9.850277e-09	4.645943e+01	6.486505e+02
1.780000e-06	6.706080e-06	9.943453e-09	4.624108e+01	6.475826e+02
1.790000e-06	6.673045e-06	9.847845e-09	4.601329e+01	6.464822e+02
1.800000e-06	6.638159e-06	9.748953e-09	4.577273e+01	6.453315e+02
1.810000e-06	6.600625e-06	9.903859e-09	4.551392e+01	6.441083e+02
1.820000e-06	6.560830e-06	9.787571e-09	4.523952e+01	6.427882e+02
1.830000e-06	6.518950e-06	9.805960e-09	4.495074e+01	6.413467e+02
1.840000e-06	6.474689e-06	9.798126e-09	4.464554e+01	6.397618e+02
1.850000e-06	6.428166e-06	9.591636e-09	4.432475e+01	6.380152e+02
1.860000e-06	6.379251e-06	9.704045e-09	4.398746e+01	6.360942e+02
1.870000e-06	6.328107e-06	9.632519e-09	4.363480e+01	6.339917e+02
1.880000e-06	6.274452e-06	9.652891e-09	4.326482e+01	6.317067e+02
1.890000e-06	6.218043e-06	9.688158e-09	4.287587e+01	6.292435e+02
1.900000e-06	6.159335e-06	9.504919e-09	4.247105e+01	6.266109e+02
1.910000e-06	6.098229e-06	9.526293e-09	4.204970e+01	6.238205e+02
1.920000e-06	6.034856e-06	9.421572e-09	4.161272e+01	6.208853e+02
1.930000e-06	5.969389e-06	9.422252e-09	4.116130e+01	6.178183e+02
1.940000e-06	5.901751e-06	9.421044e-09	4.069491e+01	6.146311e+02
1.950000e-06	5.831909e-06	9.307167e-09	4.021332e+01	6.113329e+02
1.960000e-06	5.759647e-06	9.304567e-09	3.971504e+01	6.079298e+02
1.970000e-06	5.685198e-06	9.160541e-09	3.920169e+01	6.044243e+02
1.980000e-06	5.608506e-06	9.175300e-09	3.867286e+01	6.008156e+02
1.990000e-06	5.529520e-06	9.129938e-09	3.812823e+01	5.970998e+02
2.000000e-06	5.448599e-06	9.040062e-09	3.757024e+01	5.932706e+02
2.010000e-06	5.365892e-06	8.998754e-09	3.699994e+01	5.893200e+02
2.020000e-06	5.281321e-06	8.893447e-09	3.641680e+01	5.852390e+02
2.030000e-06	5.194702e-06	8.863830e-09	3.581952e+01	5.810185e+02
2.040000e-06	5.106182e-06	8.776353e-09	3.520914e+01	5.766500e+02
2.050000e-06	5.016021e-06	8.728453e-09	3.458745e+01	5.721264e+02
2.060000e-06	4.924264e-06	8.642036e-09	3.395475e+01	5.674420e+02
2.070000e-06	4.830734e-06	8.558712e-09	3.330982e+01	5.625935e+02
2.080000e-06	4.735315e-06	8.496341e-09	3.265187e+01	5.575790e+02
2.090000e-06	4.638217e-06	8.429586e-09	3.198234e+01	5.523990e+02
2.100000e-06	4.539674e-06	8.371859e-09	3.130285e+01	5.470552e+02
2.110000e-06	4.439656e-06	8.257340e-09	3.061318e+01	5.415502e+02
2.120000e-06	4.338026e-06	8.163571e-09	2.991241e+01	5.358870e+02
2.130000e-06	4.234756e-06	8.066626e-09	2.920032e+01	5.300684e+02
2.140000e-06	4.129877e-06	7.993357e-09	2.847714e+01	5.240957e+02
2.150000e-06	4.023575e-06	7.908236e-09	2.774414e+01	5.179687e+02
2.160000e-06	3.915921e-06	7.818471e-09	2.700182e+01	5.116849e+02
2.170000e-06	3.806867e-06	7.714919e-09	2.624986e+01	5.052394e+02
2.180000e-06	3.696422e-06	7.603761e-09	2.548829e+01	4.986245e+02
2.190000e-06	3.584514e-06	7.505855e-09	2.471664e+01	4.918307e+02
2.200000e-06	3.471256e-06	7.407304e-09	2.393568e+01	4.848467e+02
2.210000e-06	3.356624e-06	7.301834e-09	2.314525e+01	4.776603e+02
2.220000e-06	3.240532e-06	7.172683e-09	2.234475e+01	4.702596e+02
2.230000e-06	3.123061e-06	7.050844e-09	2.153474e+01	4.626337e+02
2.240000e-06	3.004391e-06	6.930504e-09	2.071646e+01	4.547736e+02
2.250000e-06	2.884537e-06	6.818699e-09	1.989002e+01	4.466727e+02
2.260000e-06	2.763575e-06	6.696612e-09	1.905594e+01	4.383271e+02
2.270000e-06	2.641757e-06	6.567959e-09	1.821596e+01	4.297354e+02
2.280000e-06	2.519041e-06	6.432155e-09	1.736978e+01	4.208981e+02
2.290000e-06	2.395382e-06	6.293939e-09	1.651710e+01	4.118167e+02
2.300000e-06	2.270812e-06	6.158656e-09	1.565815e+01	4.024922e+02
2.310000e-06	2.145463e-06	6.020281e-09	1.479382e+01	3.929244e+02
2.320000e-06	2.019462e-06	5.867635e-09	1.392499e+01	3.831102e+02
2.330000e-06	1.892791e-06	5.701003e-09	1.305155e+01	3.730431e+02
2.340000e-06	1.765430e-06	5.538712e-09	1.217334e+01	3.627126e+02
2.350000e-06	1.637399e-06	5.381298e-09	1.129051e+01	3.521045e+02
2.360000e-06	1.508702e-06	5.224649e-09	1.040310e+01	3.412014e+02
2.370000e-06	1.379517e-06	5.056356e-09	9.512313e+00	3.299841e+02
2.380000e-06	1.250032e-06	4.877159e-09	8.619462e+00	3.184332e+02
2.390000e-06	1.120250e-06	4.691009e-09	7.724569e+00	3.065303e+02
2.400000e-06	9.901487e-07	4.502581e-09	6.827467e+00	2.942601e+02
2.410000e-06	8.597495e-07	4.314630e-09	5.928313e+00	2.816113e+02
2.420000e-06	7.291280e-07	4.116809e-09	5.027626e+00	2.685766e+02
2.430000e-06	5.982852e-07	3.908278e-09	4.125413e+00	2.551531e+02
2.440000e-06	4.671773e-07	3.694308e-09	3.221372e+00	2.413403e+02
2.450000e-06	3.358969e-07	3.478477e-09	2.316142e+00	2.271388e+02
2.460000e-06	2.044888e-07	3.260172e-09	1.410031e+00	2.125475e+02
2.470000e-06	7.296154e-08	3.034952e-09	5.030987e-01	1.975611e+02
2.480000e-06	-5.857856e-08	2.800470e-09	-4.039223e-01	1.821675e+02
2.490000e-06	-1.900962e-07	2.555996e-09	-1.310788e+00	1.663461e+02
2.500000e-06	-3.215507e-07	2.302092e-09	-2.217219e+00	1.500674e+02
2.510000e-06	-4.529133e-07	2.040936e-09	-3.123016e+00	1.332931e+02
2.520000e-06	-5.841589e-07	1.775491e-09	-4.028006e+00	1.159788e+02
2.530000e-06	-7.152341e-07	1.502130e-09	-4.931822e+00	9.807734e+01
2.540000e-06	-8.460947e-07	1.219106e-09	-5.834157e+00	7.954384e+01
2.550000e-06	-9.766510e-07	9.298637e-10	-6.734395e+00	6.034163e+01
2.560000e-06	-1.106846e-06	6.341513e-10	-7.632144e+00	4.044834e+01
2.570000e-06	-1.236665e-06	3.270417e-10	-8.527294e+00	1.986173e+01
2.580000e-06	-1.366172e-06	5.988847e-12	-9.420297e+00	-1.395433e+00
2.590000e-06	-1.495303e-06	-3.277617e-10	-1.031071e+01	-2.327213e+01
2.600000e-06	-1.623919e-06	-6.719567e-10	-1.119756e+01	-4.568784e+01
2.610000e-06	-1.751885e-06	-1.024372e-09	-1.207994e+01	-6.853372e+01
2.620000e-06	-1.879056e-06	-1.380255e-09	-1.295684e+01	-9.167608e+01
2.630000e-06	-2.005452e-06	-1.735326e-09	-1.382839e+01	-1.149620e+02
2.640000e-06	-2.131198e-06	-2.089684e-09	-1.469545e+01	-1.382269e+02
2.650000e-06	-2.256229e-06	-2.444450e-09	-1.555759e+01	-1.613025e+02
2.660000e-06	-2.380330e-06	-2.793575e-09	-1.641332e+01	-1.840264e+02
2.670000e-06	-2.503421e-06	-3.132539e-09	-1.726208e+01	-2.062495e+02
2.680000e-06	-2.625532e-06	-3.459512e-09	-1.810408e+01	-2.278438e+02
2.690000e-06	-2.746698e-06	-3.775031e-09	-1.893957e+01	-2.487072e+02
2.700000e-06	-2.866887e-06	-4.078352e-09	-1.976832e+01	-2.687668e+02
2.710000e-06	-2.985947e-06	-4.367477e-09	-2.058929e+01	-2.879798e+02
2.720000e-06	-3.103832e-06	-4.647411e-09	-2.140215e+01	-3.063315e+02
2.730000e-06	-3.220520e-06	-4.918079e-09	-2.220676e+01	-3.238316e+02
2.740000e-06	-3.335892e-06	-5.176995e-09	-2.300230e+01	-3.405099e+02
2.750000e-06	-3.449891e-06	-5.422661e-09	-2.378836e+01	-3.564095e+02
2.760000e-06	-3.562501e-06	-5.655225e-09	-2.456485e+01	-3.715811e+02
2.770000e-06	-3.673723e-06	-5.877328e-09	-2.533177e+01	-3.860775e+02
2.780000e-06	-3.783551e-06	-6.088686e-09	-2.608908e+01	-3.999485e+02
2.790000e-06	-3.892127e-06	-6.291551e-09	-2.683776e+01	-4.132378e+02
2.800000e-06	-3.999505e-06	-6.488454e-09	-2.757817e+01	-4.259811e+02
2.810000e-06	-4.105587e-06	-6.679791e-09	-2.830965e+01	-4.382057e+02
2.820000e-06	-4.210216e-06	-6.862602e-09	-2.903111e+01	-4.499309e+02
2.830000e-06	-4.313193e-06	-7.035233e-09	-2.974117e+01	-4.611704e+02
2.840000e-06	-4.414509e-06	-7.198120e-09	-3.043979e+01	-4.719339e+02
2.850000e-06	-4.514223e-06	-7.353195e-09	-3.112735e+01	-4.822299e+02
2.860000e-06	-4.612401e-06	-7.501511e-09	-3.180433e+01	-4.920672e+02
2.870000e-06	-4.709076e-06	-7.641531e-09	-3.247094e+01	-5.014567e+02
2.880000e-06	-4.804087e-06	-7.775319e-09	-3.312608e+01	-5.104120e+02
2.890000e-06	-4.897344e-06	-7.903767e-09	-3.376912e+01	-5.189492e+02
2.900000e-06	-4.988840e-06	-8.028222e-09	-3.440002e+01	-5.270864e+02
2.910000e-06	-5.078563e-06	-8.147840e-09	-3.501870e+01	-5.348428e+02
2.920000e-06	-5.166511e-06	-8.261764e-09	-3.562514e+01	-5.422371e+02
2.930000e-06	-5.252456e-06	-8.369659e-09	-3.621776e+01	-5.492867e+02
2.940000e-06	-5.336376e-06	-8.471238e-09	-3.679642e+01	-5.560070e+02
