# Temperatura_=_78.85
# Concentracion g/m^3_=_15000.0
# C_Vs_to_Am_M_A/Vsm_=_65563218390.804596
# pendiente_HvsI_1/m_=_3716.3
# ordenada_HvsI_A/m_=_1297.0
# frecuencia_Hz_=_301966.2013345451

Tiempo_(s)	Campo_(V.s)	Magnetizacion_(V.s)	Campo_(kA/m)	Magnetizacion_(A/m)
0.000000e+00	-6.899488e-06	-1.269265e-08	-4.746898e+01	-8.313978e+02
1.000000e-08	-6.895450e-06	-1.268680e-08	-4.744120e+01	-8.310020e+02
2.000000e-08	-6.889225e-06	-1.268075e-08	-4.739837e+01	-8.304028e+02
3.000000e-08	-6.880803e-06	-1.267245e-08	-4.734043e+01	-8.296086e+02
4.000000e-08	-6.869922e-06	-1.266292e-08	-4.726556e+01	-8.286356e+02
5.000000e-08	-6.856449e-06	-1.264927e-08	-4.717287e+01	-8.275068e+02
6.000000e-08	-6.840524e-06	-1.263300e-08	-4.706331e+01	-8.262490e+02
7.000000e-08	-6.822371e-06	-1.263214e-08	-4.693841e+01	-8.248902e+02
8.000000e-08	-6.802024e-06	-1.262968e-08	-4.679842e+01	-8.234560e+02
9.000000e-08	-6.779102e-06	-1.258565e-08	-4.664072e+01	-8.219667e+02
1.000000e-07	-6.753343e-06	-1.255147e-08	-4.646350e+01	-8.204348e+02
1.100000e-07	-6.724985e-06	-1.252066e-08	-4.626839e+01	-8.188636e+02
1.200000e-07	-6.694417e-06	-1.245740e-08	-4.605808e+01	-8.172466e+02
1.300000e-07	-6.661843e-06	-1.242763e-08	-4.583397e+01	-8.155683e+02
1.400000e-07	-6.627320e-06	-1.245350e-08	-4.559645e+01	-8.138059e+02
1.500000e-07	-6.590847e-06	-1.235110e-08	-4.534551e+01	-8.119315e+02
1.600000e-07	-6.552325e-06	-1.235439e-08	-4.508048e+01	-8.099148e+02
1.700000e-07	-6.511610e-06	-1.236577e-08	-4.480036e+01	-8.077263e+02
1.800000e-07	-6.468444e-06	-1.223718e-08	-4.450337e+01	-8.053393e+02
1.900000e-07	-6.422786e-06	-1.225189e-08	-4.418924e+01	-8.027327e+02
2.000000e-07	-6.374700e-06	-1.220442e-08	-4.385840e+01	-7.998916e+02
2.100000e-07	-6.323990e-06	-1.213799e-08	-4.350951e+01	-7.968084e+02
2.200000e-07	-6.270622e-06	-1.210140e-08	-4.314234e+01	-7.934821e+02
2.300000e-07	-6.214803e-06	-1.201860e-08	-4.275830e+01	-7.899179e+02
2.400000e-07	-6.156636e-06	-1.196809e-08	-4.235811e+01	-7.861254e+02
2.500000e-07	-6.096229e-06	-1.191380e-08	-4.194250e+01	-7.821174e+02
2.600000e-07	-6.033620e-06	-1.186304e-08	-4.151175e+01	-7.779079e+02
2.700000e-07	-5.968709e-06	-1.180243e-08	-4.106515e+01	-7.735108e+02
2.800000e-07	-5.901550e-06	-1.171243e-08	-4.060310e+01	-7.689390e+02
2.900000e-07	-5.832190e-06	-1.163519e-08	-4.012590e+01	-7.642026e+02
3.000000e-07	-5.760763e-06	-1.154790e-08	-3.963447e+01	-7.593096e+02
3.100000e-07	-5.687179e-06	-1.150631e-08	-3.912821e+01	-7.542647e+02
3.200000e-07	-5.611236e-06	-1.143659e-08	-3.860571e+01	-7.490701e+02
3.300000e-07	-5.533017e-06	-1.133109e-08	-3.806756e+01	-7.437251e+02
3.400000e-07	-5.452577e-06	-1.125052e-08	-3.751413e+01	-7.382273e+02
3.500000e-07	-5.370156e-06	-1.116186e-08	-3.694706e+01	-7.325721e+02
3.600000e-07	-5.285966e-06	-1.107942e-08	-3.636783e+01	-7.267541e+02
3.700000e-07	-5.199990e-06	-1.098574e-08	-3.577631e+01	-7.207665e+02
3.800000e-07	-5.112278e-06	-1.089935e-08	-3.517285e+01	-7.146024e+02
3.900000e-07	-5.022792e-06	-1.079439e-08	-3.455718e+01	-7.082547e+02
4.000000e-07	-4.931483e-06	-1.068755e-08	-3.392896e+01	-7.017165e+02
4.100000e-07	-4.838472e-06	-1.059722e-08	-3.328904e+01	-6.949818e+02
4.200000e-07	-4.743831e-06	-1.049626e-08	-3.263791e+01	-6.880456e+02
4.300000e-07	-4.647507e-06	-1.038065e-08	-3.197519e+01	-6.809043e+02
4.400000e-07	-4.549390e-06	-1.025808e-08	-3.130014e+01	-6.735561e+02
4.500000e-07	-4.449579e-06	-1.014771e-08	-3.061343e+01	-6.660002e+02
4.600000e-07	-4.348234e-06	-1.003424e-08	-2.991617e+01	-6.582376e+02
4.700000e-07	-4.245428e-06	-9.918056e-09	-2.920886e+01	-6.502698e+02
4.800000e-07	-4.141158e-06	-9.795516e-09	-2.849147e+01	-6.420988e+02
4.900000e-07	-4.035292e-06	-9.659983e-09	-2.776311e+01	-6.337258e+02
5.000000e-07	-3.927828e-06	-9.518166e-09	-2.702374e+01	-6.251508e+02
5.100000e-07	-3.818982e-06	-9.386393e-09	-2.627487e+01	-6.163718e+02
5.200000e-07	-3.708862e-06	-9.261900e-09	-2.551724e+01	-6.073844e+02
5.300000e-07	-3.597384e-06	-9.124788e-09	-2.475026e+01	-5.981815e+02
5.400000e-07	-3.484533e-06	-8.975318e-09	-2.397384e+01	-5.887537e+02
5.500000e-07	-3.370204e-06	-8.822115e-09	-2.318725e+01	-5.790899e+02
5.600000e-07	-3.254361e-06	-8.665874e-09	-2.239024e+01	-5.691782e+02
5.700000e-07	-3.137201e-06	-8.504953e-09	-2.158417e+01	-5.590068e+02
5.800000e-07	-3.018911e-06	-8.348530e-09	-2.077033e+01	-5.485654e+02
5.900000e-07	-2.899511e-06	-8.187475e-09	-1.994885e+01	-5.378459e+02
6.000000e-07	-2.779013e-06	-8.017233e-09	-1.911982e+01	-5.268433e+02
6.100000e-07	-2.657579e-06	-7.847450e-09	-1.828434e+01	-5.155553e+02
6.200000e-07	-2.535095e-06	-7.676971e-09	-1.744164e+01	-5.039825e+02
6.300000e-07	-2.411510e-06	-7.495617e-09	-1.659136e+01	-4.921267e+02
6.400000e-07	-2.287029e-06	-7.305100e-09	-1.573493e+01	-4.799903e+02
6.500000e-07	-2.161828e-06	-7.113550e-09	-1.487354e+01	-4.675741e+02
6.600000e-07	-2.036058e-06	-6.922677e-09	-1.400823e+01	-4.548763e+02
6.700000e-07	-1.909661e-06	-6.729452e-09	-1.313861e+01	-4.418905e+02
6.800000e-07	-1.782482e-06	-6.529403e-09	-1.226361e+01	-4.286058e+02
6.900000e-07	-1.654600e-06	-6.321769e-09	-1.138377e+01	-4.150058e+02
7.000000e-07	-1.526131e-06	-6.102110e-09	-1.049989e+01	-4.010701e+02
7.100000e-07	-1.397084e-06	-5.878310e-09	-9.612042e+00	-3.867750e+02
7.200000e-07	-1.267651e-06	-5.655211e-09	-8.721532e+00	-3.720953e+02
7.300000e-07	-1.137928e-06	-5.428305e-09	-7.829026e+00	-3.570067e+02
7.400000e-07	-1.007825e-06	-5.194536e-09	-6.933912e+00	-3.414871e+02
7.500000e-07	-8.773930e-07	-4.952943e-09	-6.036528e+00	-3.255180e+02
7.600000e-07	-7.465884e-07	-4.705198e-09	-5.136583e+00	-3.090853e+02
7.700000e-07	-6.154369e-07	-4.450712e-09	-4.234251e+00	-2.921781e+02
7.800000e-07	-4.841663e-07	-4.189805e-09	-3.331100e+00	-2.747879e+02
7.900000e-07	-3.527789e-07	-3.921016e-09	-2.427145e+00	-2.569051e+02
8.000000e-07	-2.211928e-07	-3.640685e-09	-1.521822e+00	-2.385171e+02
8.100000e-07	-8.946930e-08	-3.348612e-09	-6.155553e-01	-2.196041e+02
8.200000e-07	4.231782e-08	-3.047563e-09	2.911497e-01	-2.001372e+02
8.300000e-07	1.741007e-07	-2.736538e-09	1.197826e+00	-1.800766e+02
8.400000e-07	3.058664e-07	-2.417570e-09	2.104383e+00	-1.593716e+02
8.500000e-07	4.375188e-07	-2.091071e-09	3.010161e+00	-1.379626e+02
8.600000e-07	5.690032e-07	-1.754056e-09	3.914784e+00	-1.157855e+02
8.700000e-07	7.003316e-07	-1.402436e-09	4.818333e+00	-9.277770e+01
8.800000e-07	8.314104e-07	-1.036207e-09	5.720165e+00	-6.888544e+01
8.900000e-07	9.621873e-07	-6.584070e-10	6.619919e+00	-4.407261e+01
9.000000e-07	1.092656e-06	-2.672896e-10	7.517554e+00	-1.832902e+01
9.100000e-07	1.222825e-06	1.364305e-10	8.413128e+00	8.322142e+00
9.200000e-07	1.352630e-06	5.537404e-10	9.306191e+00	3.581888e+01
9.300000e-07	1.481988e-06	9.824881e-10	1.019619e+01	6.405766e+01
9.400000e-07	1.610909e-06	1.422704e-09	1.108317e+01	9.289407e+01
9.500000e-07	1.739248e-06	1.871261e-09	1.196615e+01	1.221469e+02
9.600000e-07	1.866823e-06	2.325215e-09	1.284388e+01	1.516058e+02
9.700000e-07	1.993611e-06	2.782195e-09	1.371619e+01	1.810416e+02
9.800000e-07	2.119638e-06	3.234274e-09	1.458327e+01	2.102184e+02
9.900000e-07	2.245020e-06	3.674366e-09	1.544590e+01	2.389070e+02
1.000000e-06	2.369682e-06	4.095124e-09	1.630359e+01	2.668975e+02
1.010000e-06	2.493387e-06	4.498176e-09	1.715469e+01	2.940106e+02
1.020000e-06	2.616113e-06	4.888781e-09	1.799905e+01	3.201058e+02
1.030000e-06	2.737915e-06	5.268150e-09	1.883706e+01	3.450869e+02
1.040000e-06	2.858801e-06	5.630239e-09	1.966876e+01	3.689031e+02
1.050000e-06	2.978589e-06	5.972603e-09	2.049291e+01	3.915466e+02
1.060000e-06	3.097127e-06	6.300436e-09	2.130846e+01	4.130470e+02
1.070000e-06	3.214495e-06	6.613621e-09	2.211596e+01	4.334631e+02
1.080000e-06	3.330669e-06	6.912654e-09	2.291525e+01	4.528729e+02
1.090000e-06	3.445626e-06	7.196978e-09	2.370616e+01	4.713638e+02
1.100000e-06	3.559335e-06	7.466873e-09	2.448849e+01	4.890232e+02
1.110000e-06	3.671660e-06	7.722156e-09	2.526129e+01	5.059305e+02
1.120000e-06	3.782541e-06	7.966144e-09	2.602416e+01	5.221518e+02
1.130000e-06	3.892172e-06	8.202942e-09	2.677843e+01	5.377374e+02
1.140000e-06	4.000530e-06	8.431891e-09	2.752394e+01	5.527215e+02
1.150000e-06	4.107485e-06	8.651993e-09	2.825980e+01	5.671247e+02
1.160000e-06	4.213080e-06	8.862246e-09	2.898630e+01	5.809575e+02
1.170000e-06	4.317125e-06	9.062868e-09	2.970214e+01	5.942255e+02
1.180000e-06	4.419526e-06	9.253780e-09	3.040666e+01	6.069339e+02
1.190000e-06	4.520392e-06	9.435807e-09	3.110063e+01	6.190920e+02
1.200000e-06	4.619662e-06	9.609456e-09	3.178362e+01	6.307153e+02
1.210000e-06	4.717251e-06	9.775061e-09	3.245503e+01	6.418274e+02
1.220000e-06	4.813069e-06	9.933573e-09	3.311427e+01	6.524588e+02
1.230000e-06	4.907117e-06	1.008884e-08	3.376132e+01	6.626448e+02
1.240000e-06	4.999463e-06	1.024267e-08	3.439667e+01	6.724227e+02
1.250000e-06	5.090110e-06	1.039308e-08	3.502033e+01	6.818277e+02
1.260000e-06	5.178960e-06	1.053609e-08	3.563162e+01	6.908899e+02
1.270000e-06	5.265885e-06	1.067190e-08	3.622967e+01	6.996310e+02
1.280000e-06	5.350942e-06	1.080315e-08	3.681487e+01	7.080633e+02
1.290000e-06	5.434130e-06	1.092846e-08	3.738721e+01	7.161893e+02
1.300000e-06	5.515353e-06	1.104441e-08	3.794603e+01	7.240033e+02
1.310000e-06	5.594540e-06	1.115309e-08	3.849084e+01	7.314943e+02
1.320000e-06	5.671595e-06	1.125905e-08	3.902099e+01	7.386489e+02
1.330000e-06	5.746554e-06	1.136286e-08	3.953671e+01	7.454555e+02
1.340000e-06	5.819372e-06	1.146065e-08	4.003770e+01	7.519075e+02
1.350000e-06	5.889979e-06	1.155041e-08	4.052348e+01	7.580060e+02
1.360000e-06	5.958456e-06	1.163639e-08	4.099461e+01	7.637613e+02
1.370000e-06	6.024808e-06	1.171998e-08	4.145112e+01	7.691923e+02
1.380000e-06	6.089088e-06	1.179968e-08	4.189337e+01	7.743255e+02
1.390000e-06	6.151342e-06	1.187503e-08	4.232168e+01	7.791920e+02
1.400000e-06	6.211455e-06	1.194685e-08	4.273526e+01	7.838242e+02
1.410000e-06	6.269369e-06	1.201519e-08	4.313372e+01	7.882519e+02
1.420000e-06	6.325060e-06	1.207938e-08	4.351688e+01	7.924992e+02
1.430000e-06	6.378366e-06	1.214116e-08	4.388362e+01	7.965816e+02
1.440000e-06	6.429166e-06	1.220059e-08	4.423313e+01	8.005048e+02
1.450000e-06	6.477432e-06	1.225742e-08	4.456521e+01	8.042647e+02
1.460000e-06	6.523303e-06	1.231094e-08	4.488080e+01	8.078486e+02
1.470000e-06	6.566939e-06	1.236075e-08	4.518102e+01	8.112382e+02
1.480000e-06	6.608226e-06	1.240871e-08	4.546508e+01	8.144125e+02
1.490000e-06	6.647134e-06	1.245325e-08	4.573277e+01	8.173515e+02
1.500000e-06	6.683775e-06	1.249288e-08	4.598486e+01	8.200398e+02
1.510000e-06	6.718107e-06	1.252940e-08	4.622107e+01	8.224688e+02
1.520000e-06	6.749993e-06	1.256235e-08	4.644045e+01	8.246385e+02
1.530000e-06	6.779488e-06	1.259235e-08	4.664337e+01	8.265576e+02
1.540000e-06	6.806649e-06	1.261884e-08	4.683025e+01	8.282425e+02
1.550000e-06	6.831284e-06	1.264139e-08	4.699974e+01	8.297147e+02
1.560000e-06	6.853438e-06	1.266052e-08	4.715216e+01	8.309983e+02
1.570000e-06	6.873230e-06	1.267628e-08	4.728833e+01	8.321164e+02
1.580000e-06	6.890541e-06	1.269081e-08	4.740743e+01	8.330881e+02
1.590000e-06	6.905304e-06	1.270269e-08	4.750900e+01	8.339263e+02
1.600000e-06	6.917493e-06	1.271259e-08	4.759286e+01	8.346358e+02
1.610000e-06	6.926978e-06	1.272048e-08	4.765812e+01	8.352138e+02
1.620000e-06	6.933849e-06	1.272501e-08	4.770539e+01	8.356503e+02
1.630000e-06	6.938339e-06	1.272699e-08	4.773628e+01	8.359306e+02
1.640000e-06	6.940442e-06	1.272784e-08	4.775075e+01	8.360381e+02
1.650000e-06	6.940085e-06	1.272389e-08	4.774829e+01	8.359572e+02
1.660000e-06	6.937442e-06	1.272056e-08	4.773011e+01	8.356766e+02
1.670000e-06	6.932548e-06	1.271275e-08	4.769644e+01	8.351918e+02
1.680000e-06	6.925243e-06	1.270070e-08	4.764618e+01	8.345060e+02
1.690000e-06	6.915669e-06	1.268930e-08	4.758031e+01	8.336313e+02
1.700000e-06	6.903840e-06	1.267760e-08	4.749892e+01	8.325870e+02
1.710000e-06	6.889575e-06	1.266455e-08	4.740078e+01	8.313981e+02
1.720000e-06	6.873024e-06	1.262361e-08	4.728691e+01	8.300922e+02
1.730000e-06	6.854344e-06	1.257597e-08	4.715839e+01	8.286968e+02
1.740000e-06	6.833018e-06	1.257051e-08	4.701166e+01	8.272354e+02
1.750000e-06	6.808403e-06	1.254694e-08	4.684231e+01	8.257254e+02
1.760000e-06	6.780812e-06	1.252448e-08	4.665249e+01	8.241754e+02
1.770000e-06	6.750857e-06	1.254626e-08	4.644639e+01	8.225844e+02
1.780000e-06	6.719091e-06	1.247029e-08	4.622784e+01	8.209421e+02
1.790000e-06	6.685872e-06	1.245274e-08	4.599929e+01	8.192295e+02
1.800000e-06	6.650737e-06	1.249931e-08	4.575756e+01	8.174213e+02
1.810000e-06	6.613081e-06	1.238468e-08	4.549848e+01	8.154882e+02
1.820000e-06	6.573092e-06	1.242843e-08	4.522336e+01	8.133999e+02
1.830000e-06	6.530968e-06	1.241088e-08	4.493354e+01	8.111278e+02
1.840000e-06	6.486551e-06	1.230264e-08	4.462794e+01	8.086476e+02
1.850000e-06	6.439771e-06	1.234167e-08	4.430609e+01	8.059404e+02
1.860000e-06	6.390605e-06	1.223133e-08	4.396783e+01	8.029946e+02
1.870000e-06	6.339168e-06	1.220521e-08	4.361394e+01	7.998056e+02
1.880000e-06	6.285183e-06	1.218364e-08	4.324252e+01	7.963749e+02
1.890000e-06	6.228545e-06	1.208452e-08	4.285284e+01	7.927101e+02
1.900000e-06	6.169583e-06	1.207452e-08	4.244718e+01	7.888221e+02
1.910000e-06	6.108269e-06	1.193695e-08	4.202534e+01	7.847245e+02
1.920000e-06	6.044684e-06	1.187865e-08	4.158787e+01	7.804315e+02
1.930000e-06	5.978975e-06	1.185989e-08	4.113579e+01	7.759567e+02
1.940000e-06	5.911091e-06	1.177845e-08	4.066874e+01	7.713117e+02
1.950000e-06	5.840865e-06	1.172591e-08	4.018558e+01	7.665060e+02
1.960000e-06	5.768271e-06	1.159417e-08	3.968613e+01	7.615461e+02
1.970000e-06	5.693541e-06	1.154403e-08	3.917198e+01	7.564355e+02
1.980000e-06	5.616518e-06	1.145344e-08	3.864205e+01	7.511751e+02
1.990000e-06	5.537249e-06	1.137524e-08	3.809668e+01	7.457637e+02
2.000000e-06	5.456083e-06	1.132638e-08	3.753825e+01	7.401976e+02
2.010000e-06	5.373113e-06	1.120184e-08	3.696741e+01	7.344720e+02
2.020000e-06	5.288239e-06	1.111033e-08	3.638347e+01	7.285807e+02
2.030000e-06	5.201291e-06	1.099873e-08	3.578526e+01	7.225169e+02
2.040000e-06	5.112433e-06	1.092590e-08	3.517391e+01	7.162735e+02
2.050000e-06	5.021972e-06	1.082322e-08	3.455154e+01	7.098435e+02
2.060000e-06	4.929980e-06	1.071570e-08	3.391863e+01	7.032203e+02
2.070000e-06	4.836206e-06	1.062765e-08	3.327345e+01	6.963983e+02
2.080000e-06	4.740548e-06	1.051565e-08	3.261532e+01	6.893732e+02
2.090000e-06	4.643235e-06	1.040711e-08	3.194579e+01	6.821419e+02
2.100000e-06	4.544388e-06	1.028624e-08	3.126572e+01	6.747032e+02
2.110000e-06	4.444052e-06	1.018496e-08	3.057540e+01	6.670571e+02
2.120000e-06	4.342079e-06	1.005071e-08	2.987382e+01	6.592049e+02
2.130000e-06	4.238389e-06	9.920211e-09	2.916042e+01	6.511484e+02
2.140000e-06	4.133138e-06	9.802453e-09	2.843629e+01	6.428893e+02
2.150000e-06	4.026524e-06	9.687039e-09	2.770278e+01	6.344284e+02
2.160000e-06	3.918543e-06	9.561265e-09	2.695986e+01	6.257649e+02
2.170000e-06	3.809166e-06	9.413457e-09	2.620734e+01	6.168958e+02
2.180000e-06	3.698350e-06	9.267763e-09	2.544492e+01	6.078156e+02
2.190000e-06	3.586104e-06	9.121268e-09	2.467266e+01	5.985162e+02
2.200000e-06	3.472506e-06	8.987028e-09	2.389109e+01	5.889872e+02
2.210000e-06	3.357522e-06	8.847152e-09	2.310000e+01	5.792172e+02
2.220000e-06	3.241110e-06	8.696312e-09	2.229907e+01	5.691941e+02
2.230000e-06	3.123377e-06	8.528359e-09	2.148906e+01	5.589067e+02
2.240000e-06	3.004407e-06	8.362958e-09	2.067054e+01	5.483455e+02
2.250000e-06	2.884235e-06	8.198677e-09	1.984375e+01	5.375037e+02
2.260000e-06	2.763010e-06	8.034282e-09	1.900971e+01	5.263775e+02
2.270000e-06	2.640874e-06	7.868977e-09	1.816941e+01	5.149658e+02
2.280000e-06	2.517846e-06	7.693021e-09	1.732296e+01	5.032699e+02
2.290000e-06	2.393805e-06	7.507497e-09	1.646955e+01	4.912922e+02
2.300000e-06	2.268886e-06	7.317951e-09	1.561010e+01	4.790345e+02
2.310000e-06	2.143343e-06	7.131285e-09	1.474635e+01	4.664966e+02
2.320000e-06	2.017174e-06	6.936830e-09	1.387830e+01	4.536750e+02
2.330000e-06	1.890185e-06	6.731251e-09	1.300461e+01	4.405613e+02
2.340000e-06	1.762418e-06	6.520726e-09	1.212557e+01	4.271423e+02
2.350000e-06	1.634029e-06	6.313660e-09	1.124224e+01	4.133998e+02
2.360000e-06	1.505013e-06	6.102352e-09	1.035460e+01	3.993116e+02
2.370000e-06	1.375527e-06	5.884077e-09	9.463726e+00	3.848533e+02
2.380000e-06	1.245758e-06	5.656987e-09	8.570907e+00	3.699998e+02
2.390000e-06	1.115747e-06	5.417438e-09	7.676419e+00	3.547275e+02
2.400000e-06	9.854895e-07	5.173440e-09	6.780240e+00	3.390159e+02
2.410000e-06	8.549224e-07	4.929173e-09	5.881928e+00	3.228482e+02
2.420000e-06	7.240865e-07	4.682817e-09	4.981768e+00	3.062118e+02
2.430000e-06	5.929816e-07	4.426709e-09	4.079757e+00	2.890972e+02
2.440000e-06	4.616142e-07	4.154965e-09	3.175940e+00	2.714957e+02
2.450000e-06	3.300309e-07	3.873139e-09	2.270637e+00	2.533969e+02
2.460000e-06	1.982087e-07	3.587887e-09	1.363691e+00	2.347853e+02
2.470000e-06	6.624326e-08	3.299443e-09	4.557585e-01	2.156377e+02
2.480000e-06	-6.576207e-08	3.002834e-09	-4.524478e-01	1.959204e+02
2.490000e-06	-1.976986e-07	2.692961e-09	-1.360181e+00	1.755890e+02
2.500000e-06	-3.295567e-07	2.367295e-09	-2.267374e+00	1.545885e+02
2.510000e-06	-4.613358e-07	2.028323e-09	-3.174024e+00	1.328568e+02
2.520000e-06	-5.929445e-07	1.682802e-09	-4.079502e+00	1.103296e+02
2.530000e-06	-7.243552e-07	1.329019e-09	-4.983617e+00	8.694705e+01
2.540000e-06	-8.554534e-07	9.634545e-10	-5.885582e+00	6.266191e+01
2.550000e-06	-9.862067e-07	5.840981e-10	-6.785175e+00	3.744820e+01
2.560000e-06	-1.116632e-06	1.906970e-10	-7.682511e+00	1.130920e+01
2.570000e-06	-1.246679e-06	-2.147773e-10	-8.577245e+00	-1.571578e+01
2.580000e-06	-1.376424e-06	-6.348737e-10	-9.469900e+00	-4.354709e+01
2.590000e-06	-1.505819e-06	-1.068559e-09	-1.036015e+01	-7.206340e+01
2.600000e-06	-1.634616e-06	-1.516239e-09	-1.124628e+01	-1.011038e+02
2.610000e-06	-1.762675e-06	-1.973178e-09	-1.212733e+01	-1.304736e+02
2.620000e-06	-1.889981e-06	-2.428620e-09	-1.300320e+01	-1.599527e+02
2.630000e-06	-2.016573e-06	-2.877352e-09	-1.387417e+01	-1.893077e+02
2.640000e-06	-2.142506e-06	-3.318279e-09	-1.474060e+01	-2.183039e+02
2.650000e-06	-2.267701e-06	-3.753515e-09	-1.560195e+01	-2.467190e+02
2.660000e-06	-2.391995e-06	-4.176527e-09	-1.645710e+01	-2.743547e+02
2.670000e-06	-2.515278e-06	-4.580578e-09	-1.730530e+01	-3.010477e+02
2.680000e-06	-2.637588e-06	-4.966650e-09	-1.814680e+01	-3.266761e+02
2.690000e-06	-2.758966e-06	-5.336945e-09	-1.898189e+01	-3.511630e+02
2.700000e-06	-2.879311e-06	-5.693284e-09	-1.980987e+01	-3.744767e+02
2.710000e-06	-2.998459e-06	-6.034859e-09	-2.062962e+01	-3.966262e+02
2.720000e-06	-3.116452e-06	-6.358466e-09	-2.144142e+01	-4.176547e+02
2.730000e-06	-3.233368e-06	-6.663970e-09	-2.224581e+01	-4.376306e+02
2.740000e-06	-3.348980e-06	-6.954044e-09	-2.304123e+01	-4.566372e+02
2.750000e-06	-3.463145e-06	-7.232266e-09	-2.382669e+01	-4.747628e+02
2.760000e-06	-3.575986e-06	-7.500036e-09	-2.460305e+01	-4.920923e+02
2.770000e-06	-3.687513e-06	-7.757455e-09	-2.537036e+01	-5.086998e+02
2.780000e-06	-3.797696e-06	-8.002939e-09	-2.612842e+01	-5.246449e+02
2.790000e-06	-3.906566e-06	-8.236269e-09	-2.687746e+01	-5.399708e+02
2.800000e-06	-4.014041e-06	-8.458710e-09	-2.761690e+01	-5.547056e+02
2.810000e-06	-4.120132e-06	-8.673188e-09	-2.834681e+01	-5.688649e+02
2.820000e-06	-4.224785e-06	-8.881454e-09	-2.906683e+01	-5.824565e+02
2.830000e-06	-4.327945e-06	-9.081245e-09	-2.977658e+01	-5.954853e+02
2.840000e-06	-4.429580e-06	-9.271141e-09	-3.047583e+01	-6.079579e+02
2.850000e-06	-4.529517e-06	-9.454700e-09	-3.116341e+01	-6.198858e+02
2.860000e-06	-4.627815e-06	-9.632453e-09	-3.183970e+01	-6.312882e+02
2.870000e-06	-4.724556e-06	-9.801755e-09	-3.250529e+01	-6.421916e+02
2.880000e-06	-4.819649e-06	-9.962451e-09	-3.315954e+01	-6.526290e+02
2.890000e-06	-4.913059e-06	-1.011467e-08	-3.380221e+01	-6.626370e+02
2.900000e-06	-5.004674e-06	-1.025992e-08	-3.443252e+01	-6.722525e+02
2.910000e-06	-5.094484e-06	-1.040033e-08	-3.505042e+01	-6.815088e+02
2.920000e-06	-5.182455e-06	-1.053633e-08	-3.565567e+01	-6.904327e+02
2.930000e-06	-5.268502e-06	-1.066577e-08	-3.624768e+01	-6.990420e+02
2.940000e-06	-5.352592e-06	-1.079009e-08	-3.682622e+01	-7.073446e+02
