# Temperatura_=_26.68
# Concentracion g/m^3_=_15000.0
# C_Vs_to_Am_M_A/Vsm_=_65563218390.804596
# pendiente_HvsI_1/m_=_3716.3
# ordenada_HvsI_A/m_=_1297.0
# frecuencia_Hz_=_301960.5296906873

Tiempo_(s)	Campo_(V.s)	Magnetizacion_(V.s)	Campo_(kA/m)	Magnetizacion_(A/m)
0.000000e+00	-6.927341e-06	-1.000774e-08	-4.748694e+01	-6.556396e+02
1.000000e-08	-6.925596e-06	-1.001143e-08	-4.747498e+01	-6.555083e+02
2.000000e-08	-6.921449e-06	-1.000681e-08	-4.744655e+01	-6.552345e+02
3.000000e-08	-6.915144e-06	-1.000025e-08	-4.740333e+01	-6.548189e+02
4.000000e-08	-6.906519e-06	-9.996036e-09	-4.734421e+01	-6.542680e+02
5.000000e-08	-6.895469e-06	-9.988106e-09	-4.726845e+01	-6.535936e+02
6.000000e-08	-6.881944e-06	-9.978100e-09	-4.717575e+01	-6.528124e+02
7.000000e-08	-6.865901e-06	-9.958794e-09	-4.706577e+01	-6.519437e+02
8.000000e-08	-6.847654e-06	-9.952488e-09	-4.694069e+01	-6.510082e+02
9.000000e-08	-6.827224e-06	-9.999943e-09	-4.680064e+01	-6.500249e+02
1.000000e-07	-6.804178e-06	-9.971453e-09	-4.664266e+01	-6.490097e+02
1.100000e-07	-6.778291e-06	-9.904299e-09	-4.646520e+01	-6.479729e+02
1.200000e-07	-6.749800e-06	-9.888165e-09	-4.626990e+01	-6.469183e+02
1.300000e-07	-6.719096e-06	-9.865847e-09	-4.605942e+01	-6.458428e+02
1.400000e-07	-6.686315e-06	-9.790471e-09	-4.583470e+01	-6.447365e+02
1.500000e-07	-6.651619e-06	-9.833027e-09	-4.559687e+01	-6.435833e+02
1.600000e-07	-6.614973e-06	-9.857988e-09	-4.534566e+01	-6.423632e+02
1.700000e-07	-6.576241e-06	-9.712483e-09	-4.508015e+01	-6.410538e+02
1.800000e-07	-6.535356e-06	-9.779605e-09	-4.479988e+01	-6.396323e+02
1.900000e-07	-6.491929e-06	-9.743822e-09	-4.450219e+01	-6.380778e+02
2.000000e-07	-6.446006e-06	-9.677329e-09	-4.418739e+01	-6.363728e+02
2.100000e-07	-6.397639e-06	-9.728559e-09	-4.385583e+01	-6.345043e+02
2.200000e-07	-6.346596e-06	-9.654265e-09	-4.350593e+01	-6.324648e+02
2.300000e-07	-6.292959e-06	-9.630502e-09	-4.313825e+01	-6.302519e+02
2.400000e-07	-6.236849e-06	-9.568259e-09	-4.275361e+01	-6.278680e+02
2.500000e-07	-6.178363e-06	-9.509365e-09	-4.235269e+01	-6.253196e+02
2.600000e-07	-6.117611e-06	-9.504313e-09	-4.193624e+01	-6.226157e+02
2.700000e-07	-6.054737e-06	-9.447264e-09	-4.150524e+01	-6.197665e+02
2.800000e-07	-5.989637e-06	-9.396424e-09	-4.105898e+01	-6.167826e+02
2.900000e-07	-5.922168e-06	-9.336375e-09	-4.059648e+01	-6.136734e+02
3.000000e-07	-5.852527e-06	-9.305339e-09	-4.011909e+01	-6.104465e+02
3.100000e-07	-5.780753e-06	-9.248763e-09	-3.962708e+01	-6.071071e+02
3.200000e-07	-5.706688e-06	-9.192936e-09	-3.911936e+01	-6.036580e+02
3.300000e-07	-5.630332e-06	-9.178843e-09	-3.859594e+01	-6.000992e+02
3.400000e-07	-5.551663e-06	-9.091442e-09	-3.805666e+01	-5.964286e+02
3.500000e-07	-5.470802e-06	-9.027111e-09	-3.750236e+01	-5.926425e+02
3.600000e-07	-5.388108e-06	-8.974685e-09	-3.693549e+01	-5.887355e+02
3.700000e-07	-5.303662e-06	-8.919841e-09	-3.635661e+01	-5.847016e+02
3.800000e-07	-5.217423e-06	-8.853585e-09	-3.576544e+01	-5.805342e+02
3.900000e-07	-5.129366e-06	-8.774726e-09	-3.516182e+01	-5.762271e+02
4.000000e-07	-5.039424e-06	-8.718235e-09	-3.454526e+01	-5.717740e+02
4.100000e-07	-4.947644e-06	-8.647525e-09	-3.391611e+01	-5.671696e+02
4.200000e-07	-4.854209e-06	-8.581203e-09	-3.327561e+01	-5.624091e+02
4.300000e-07	-4.759248e-06	-8.502888e-09	-3.262466e+01	-5.574888e+02
4.400000e-07	-4.662548e-06	-8.421596e-09	-3.196178e+01	-5.524059e+02
4.500000e-07	-4.564004e-06	-8.333012e-09	-3.128626e+01	-5.471586e+02
4.600000e-07	-4.463809e-06	-8.244195e-09	-3.059942e+01	-5.417460e+02
4.700000e-07	-4.362091e-06	-8.172962e-09	-2.990214e+01	-5.361678e+02
4.800000e-07	-4.258913e-06	-8.088751e-09	-2.919486e+01	-5.304241e+02
4.900000e-07	-4.154172e-06	-7.994730e-09	-2.847686e+01	-5.245149e+02
5.000000e-07	-4.047862e-06	-7.896697e-09	-2.774810e+01	-5.184397e+02
5.100000e-07	-3.940098e-06	-7.802075e-09	-2.700938e+01	-5.121974e+02
5.200000e-07	-3.830902e-06	-7.706273e-09	-2.626084e+01	-5.057853e+02
5.300000e-07	-3.720459e-06	-7.610546e-09	-2.550376e+01	-4.991992e+02
5.400000e-07	-3.608719e-06	-7.508732e-09	-2.473778e+01	-4.924332e+02
5.500000e-07	-3.495311e-06	-7.394870e-09	-2.396037e+01	-4.854796e+02
5.600000e-07	-3.380210e-06	-7.279646e-09	-2.317135e+01	-4.783296e+02
5.700000e-07	-3.263748e-06	-7.165201e-09	-2.237300e+01	-4.709732e+02
5.800000e-07	-3.146090e-06	-7.052594e-09	-2.156645e+01	-4.634003e+02
5.900000e-07	-3.027346e-06	-6.934551e-09	-2.075247e+01	-4.556013e+02
6.000000e-07	-2.907575e-06	-6.815013e-09	-1.993143e+01	-4.475674e+02
6.100000e-07	-2.786670e-06	-6.691152e-09	-1.910263e+01	-4.392917e+02
6.200000e-07	-2.664643e-06	-6.563807e-09	-1.826613e+01	-4.307687e+02
6.300000e-07	-2.541526e-06	-6.430479e-09	-1.742217e+01	-4.219952e+02
6.400000e-07	-2.417455e-06	-6.288014e-09	-1.657166e+01	-4.129689e+02
6.500000e-07	-2.292572e-06	-6.140957e-09	-1.571559e+01	-4.036887e+02
6.600000e-07	-2.166901e-06	-5.991628e-09	-1.485411e+01	-3.941530e+02
6.700000e-07	-2.040589e-06	-5.843686e-09	-1.398825e+01	-3.843596e+02
6.800000e-07	-1.913742e-06	-5.694326e-09	-1.311871e+01	-3.743043e+02
6.900000e-07	-1.786242e-06	-5.540795e-09	-1.224469e+01	-3.639802e+02
7.000000e-07	-1.657974e-06	-5.377593e-09	-1.136542e+01	-3.533780e+02
7.100000e-07	-1.529037e-06	-5.206413e-09	-1.048155e+01	-3.424856e+02
7.200000e-07	-1.399547e-06	-5.033142e-09	-9.593897e+00	-3.312890e+02
7.300000e-07	-1.269574e-06	-4.859980e-09	-8.702936e+00	-3.197729e+02
7.400000e-07	-1.139166e-06	-4.684140e-09	-7.808987e+00	-3.079223e+02
7.500000e-07	-1.008356e-06	-4.498495e-09	-6.912281e+00	-2.957237e+02
7.600000e-07	-8.772319e-07	-4.306296e-09	-6.013427e+00	-2.831658e+02
7.700000e-07	-7.458066e-07	-4.109113e-09	-5.112506e+00	-2.702405e+02
7.800000e-07	-6.141061e-07	-3.906806e-09	-4.209698e+00	-2.569428e+02
7.900000e-07	-4.822312e-07	-3.699551e-09	-3.305696e+00	-2.432706e+02
8.000000e-07	-3.502160e-07	-3.486826e-09	-2.400732e+00	-2.292230e+02
8.100000e-07	-2.180837e-07	-3.267639e-09	-1.494964e+00	-2.147986e+02
8.200000e-07	-8.583791e-08	-3.042397e-09	-5.884191e-01	-1.999937e+02
8.300000e-07	4.651009e-08	-2.812292e-09	3.188268e-01	-1.847997e+02
8.400000e-07	1.788253e-07	-2.574275e-09	1.225848e+00	-1.692013e+02
8.500000e-07	3.111063e-07	-2.329465e-09	2.132634e+00	-1.531757e+02
8.600000e-07	4.433782e-07	-2.078305e-09	3.039359e+00	-1.366922e+02
8.700000e-07	5.755061e-07	-1.819642e-09	3.945095e+00	-1.197135e+02
8.800000e-07	7.074725e-07	-1.550825e-09	4.849726e+00	-1.021983e+02
8.900000e-07	8.393058e-07	-1.274718e-09	5.753443e+00	-8.410495e+01
9.000000e-07	9.708440e-07	-9.906050e-10	6.655138e+00	-6.539625e+01
9.100000e-07	1.102019e-06	-6.946450e-10	7.554345e+00	-4.604510e+01
9.200000e-07	1.232817e-06	-3.876686e-10	8.450963e+00	-2.603981e+01
9.300000e-07	1.363194e-06	-7.174102e-11	9.344698e+00	-5.389125e+00
9.400000e-07	1.493053e-06	2.502439e-10	1.023488e+01	1.587389e+01
9.500000e-07	1.622290e-06	5.799563e-10	1.112081e+01	3.768961e+01
9.600000e-07	1.750839e-06	9.176088e-10	1.200200e+01	5.997158e+01
9.700000e-07	1.878618e-06	1.265717e-09	1.287793e+01	8.260841e+01
9.800000e-07	2.005682e-06	1.619502e-09	1.374896e+01	1.054677e+02
9.900000e-07	2.132090e-06	1.972800e-09	1.461549e+01	1.284019e+02
1.000000e-06	2.257818e-06	2.322022e-09	1.547735e+01	1.512554e+02
1.010000e-06	2.382713e-06	2.663849e-09	1.633350e+01	1.738727e+02
1.020000e-06	2.506774e-06	2.999995e-09	1.718394e+01	1.961057e+02
1.030000e-06	2.630090e-06	3.328497e-09	1.802927e+01	2.178216e+02
1.040000e-06	2.752485e-06	3.650796e-09	1.886829e+01	2.389085e+02
1.050000e-06	2.873673e-06	3.962821e-09	1.969903e+01	2.592795e+02
1.060000e-06	2.993662e-06	4.261000e-09	2.052156e+01	2.788746e+02
1.070000e-06	3.112592e-06	4.546487e-09	2.133682e+01	2.976608e+02
1.080000e-06	3.230439e-06	4.820525e-09	2.214466e+01	3.156300e+02
1.090000e-06	3.347188e-06	5.082680e-09	2.294498e+01	3.327948e+02
1.100000e-06	3.462709e-06	5.330431e-09	2.373688e+01	3.491842e+02
1.110000e-06	3.576783e-06	5.567121e-09	2.451886e+01	3.648376e+02
1.120000e-06	3.689369e-06	5.793485e-09	2.529063e+01	3.798001e+02
1.130000e-06	3.800615e-06	6.010688e-09	2.605323e+01	3.941169e+02
1.140000e-06	3.910607e-06	6.218528e-09	2.680722e+01	4.078303e+02
1.150000e-06	4.019329e-06	6.418842e-09	2.755251e+01	4.209770e+02
1.160000e-06	4.126783e-06	6.611511e-09	2.828911e+01	4.335866e+02
1.170000e-06	4.232733e-06	6.795556e-09	2.901540e+01	4.456819e+02
1.180000e-06	4.336991e-06	6.971874e-09	2.973009e+01	4.572800e+02
1.190000e-06	4.439697e-06	7.140906e-09	3.043413e+01	4.683940e+02
1.200000e-06	4.540913e-06	7.300664e-09	3.112797e+01	4.790344e+02
1.210000e-06	4.640603e-06	7.451860e-09	3.181135e+01	4.892118e+02
1.220000e-06	4.738558e-06	7.596885e-09	3.248283e+01	4.989374e+02
1.230000e-06	4.834596e-06	7.736387e-09	3.314117e+01	5.082246e+02
1.240000e-06	4.928849e-06	7.871622e-09	3.378727e+01	5.170889e+02
1.250000e-06	5.021481e-06	8.003750e-09	3.442227e+01	5.255474e+02
1.260000e-06	5.112394e-06	8.133965e-09	3.504547e+01	5.336182e+02
1.270000e-06	5.201350e-06	8.256560e-09	3.565527e+01	5.413192e+02
1.280000e-06	5.288347e-06	8.371429e-09	3.625163e+01	5.486672e+02
1.290000e-06	5.373551e-06	8.481215e-09	3.683571e+01	5.556770e+02
1.300000e-06	5.457024e-06	8.584217e-09	3.740791e+01	5.623612e+02
1.310000e-06	5.538504e-06	8.676785e-09	3.796646e+01	5.687301e+02
1.320000e-06	5.617882e-06	8.761586e-09	3.851059e+01	5.747922e+02
1.330000e-06	5.695298e-06	8.845192e-09	3.904128e+01	5.805556e+02
1.340000e-06	5.770547e-06	8.928173e-09	3.955711e+01	5.860285e+02
1.350000e-06	5.843474e-06	9.007683e-09	4.005703e+01	5.912205e+02
1.360000e-06	5.914216e-06	9.082528e-09	4.054197e+01	5.961434e+02
1.370000e-06	5.982920e-06	9.153390e-09	4.101293e+01	6.008114e+02
1.380000e-06	6.049522e-06	9.221180e-09	4.146949e+01	6.052411e+02
1.390000e-06	6.113896e-06	9.286933e-09	4.191077e+01	6.094505e+02
1.400000e-06	6.176112e-06	9.349292e-09	4.233727e+01	6.134581e+02
1.410000e-06	6.236324e-06	9.406352e-09	4.275002e+01	6.172812e+02
1.420000e-06	6.294397e-06	9.460227e-09	4.314811e+01	6.209346e+02
1.430000e-06	6.350169e-06	9.512076e-09	4.353043e+01	6.244289e+02
1.440000e-06	6.403676e-06	9.562349e-09	4.389722e+01	6.277698e+02
1.450000e-06	6.454578e-06	9.610680e-09	4.424615e+01	6.309579e+02
1.460000e-06	6.502803e-06	9.657733e-09	4.457673e+01	6.339885e+02
1.470000e-06	6.548737e-06	9.702755e-09	4.489161e+01	6.368532e+02
1.480000e-06	6.592542e-06	9.744093e-09	4.519189e+01	6.395410e+02
1.490000e-06	6.633964e-06	9.781620e-09	4.547584e+01	6.420404e+02
1.500000e-06	6.672904e-06	9.815359e-09	4.574278e+01	6.443414e+02
1.510000e-06	6.709628e-06	9.845447e-09	4.599452e+01	6.464372e+02
1.520000e-06	6.743975e-06	9.871092e-09	4.622997e+01	6.483258e+02
1.530000e-06	6.775804e-06	9.893569e-09	4.644816e+01	6.500103e+02
1.540000e-06	6.805340e-06	9.914422e-09	4.665062e+01	6.514994e+02
1.550000e-06	6.832552e-06	9.934843e-09	4.683716e+01	6.528063e+02
1.560000e-06	6.857196e-06	9.953818e-09	4.700610e+01	6.539474e+02
1.570000e-06	6.879303e-06	9.971001e-09	4.715764e+01	6.549402e+02
1.580000e-06	6.899096e-06	9.987283e-09	4.729332e+01	6.558018e+02
1.590000e-06	6.916450e-06	1.000097e-08	4.741228e+01	6.565464e+02
1.600000e-06	6.931204e-06	1.000962e-08	4.751342e+01	6.571842e+02
1.610000e-06	6.943330e-06	1.001489e-08	4.759654e+01	6.577201e+02
1.620000e-06	6.952686e-06	1.001899e-08	4.766068e+01	6.581540e+02
1.630000e-06	6.959410e-06	1.002144e-08	4.770677e+01	6.584810e+02
1.640000e-06	6.963825e-06	1.002302e-08	4.773704e+01	6.586930e+02
1.650000e-06	6.965825e-06	1.002577e-08	4.775075e+01	6.587801e+02
1.660000e-06	6.965309e-06	1.002715e-08	4.774721e+01	6.587334e+02
1.670000e-06	6.962560e-06	1.002260e-08	4.772836e+01	6.585462e+02
1.680000e-06	6.957599e-06	1.001911e-08	4.769436e+01	6.582160e+02
1.690000e-06	6.950270e-06	1.001081e-08	4.764411e+01	6.577460e+02
1.700000e-06	6.940623e-06	9.999115e-09	4.757799e+01	6.571447e+02
1.710000e-06	6.928651e-06	9.989945e-09	4.749592e+01	6.564259e+02
1.720000e-06	6.914245e-06	9.986723e-09	4.739717e+01	6.556077e+02
1.730000e-06	6.897589e-06	9.971978e-09	4.728299e+01	6.547101e+02
1.740000e-06	6.878846e-06	9.883532e-09	4.715451e+01	6.537535e+02
1.750000e-06	6.857411e-06	9.884106e-09	4.700757e+01	6.527558e+02
1.760000e-06	6.832612e-06	9.918480e-09	4.683757e+01	6.517310e+02
1.770000e-06	6.804795e-06	9.884736e-09	4.664688e+01	6.506869e+02
1.780000e-06	6.774606e-06	9.901873e-09	4.643994e+01	6.496247e+02
1.790000e-06	6.742587e-06	9.926136e-09	4.622045e+01	6.485384e+02
1.800000e-06	6.709189e-06	9.790946e-09	4.599151e+01	6.474156e+02
1.810000e-06	6.673854e-06	9.848506e-09	4.574928e+01	6.462385e+02
1.820000e-06	6.635894e-06	9.870944e-09	4.548907e+01	6.449858e+02
1.830000e-06	6.595688e-06	9.772561e-09	4.521346e+01	6.436348e+02
1.840000e-06	6.553349e-06	9.868819e-09	4.492322e+01	6.421632e+02
1.850000e-06	6.508716e-06	9.727490e-09	4.461726e+01	6.405512e+02
1.860000e-06	6.461767e-06	9.713993e-09	4.429543e+01	6.387830e+02
1.870000e-06	6.412337e-06	9.742902e-09	4.395658e+01	6.368477e+02
1.880000e-06	6.360598e-06	9.622546e-09	4.360192e+01	6.347399e+02
1.890000e-06	6.306306e-06	9.716450e-09	4.322974e+01	6.324591e+02
1.900000e-06	6.249365e-06	9.621111e-09	4.283941e+01	6.300094e+02
1.910000e-06	6.190106e-06	9.563347e-09	4.243319e+01	6.273985e+02
1.920000e-06	6.128380e-06	9.557891e-09	4.201006e+01	6.246360e+02
1.930000e-06	6.064424e-06	9.437379e-09	4.157164e+01	6.217325e+02
1.940000e-06	5.998380e-06	9.475186e-09	4.111891e+01	6.186981e+02
1.950000e-06	5.930150e-06	9.384989e-09	4.065119e+01	6.155417e+02
1.960000e-06	5.859609e-06	9.372246e-09	4.016763e+01	6.122699e+02
1.970000e-06	5.786660e-06	9.297418e-09	3.966757e+01	6.088870e+02
1.980000e-06	5.711583e-06	9.208851e-09	3.915291e+01	6.053946e+02
1.990000e-06	5.634237e-06	9.212975e-09	3.862271e+01	6.017921e+02
2.000000e-06	5.554639e-06	9.109189e-09	3.807706e+01	5.980765e+02
2.010000e-06	5.473102e-06	9.091502e-09	3.751813e+01	5.942433e+02
2.020000e-06	5.389793e-06	9.006883e-09	3.694705e+01	5.902870e+02
2.030000e-06	5.304593e-06	8.949762e-09	3.636300e+01	5.862012e+02
2.040000e-06	5.217260e-06	8.882291e-09	3.576433e+01	5.819795e+02
2.050000e-06	5.128007e-06	8.803482e-09	3.515250e+01	5.776155e+02
2.060000e-06	5.037221e-06	8.754368e-09	3.453017e+01	5.731034e+02
2.070000e-06	4.944870e-06	8.654951e-09	3.389709e+01	5.684379e+02
2.080000e-06	4.850623e-06	8.601660e-09	3.325103e+01	5.636148e+02
2.090000e-06	4.754536e-06	8.522097e-09	3.259236e+01	5.586307e+02
2.100000e-06	4.656824e-06	8.466817e-09	3.192254e+01	5.534832e+02
2.110000e-06	4.557659e-06	8.374837e-09	3.124276e+01	5.481708e+02
2.120000e-06	4.456976e-06	8.283826e-09	3.055258e+01	5.426930e+02
2.130000e-06	4.354498e-06	8.197719e-09	2.985009e+01	5.370495e+02
2.140000e-06	4.250346e-06	8.102696e-09	2.913613e+01	5.312405e+02
2.150000e-06	4.144707e-06	8.020878e-09	2.841198e+01	5.252660e+02
2.160000e-06	4.037719e-06	7.930229e-09	2.767857e+01	5.191252e+02
2.170000e-06	3.929327e-06	7.844046e-09	2.693554e+01	5.128164e+02
2.180000e-06	3.819479e-06	7.731713e-09	2.618254e+01	5.063363e+02
2.190000e-06	3.708177e-06	7.631778e-09	2.541956e+01	4.996801e+02
2.200000e-06	3.595445e-06	7.525234e-09	2.464678e+01	4.928412e+02
2.210000e-06	3.481400e-06	7.429825e-09	2.386501e+01	4.858113e+02
2.220000e-06	3.365990e-06	7.320252e-09	2.307387e+01	4.785812e+02
2.230000e-06	3.249109e-06	7.204815e-09	2.227265e+01	4.711407e+02
2.240000e-06	3.130751e-06	7.081507e-09	2.146131e+01	4.634799e+02
2.250000e-06	3.011152e-06	6.951781e-09	2.064146e+01	4.555894e+02
2.260000e-06	2.890487e-06	6.827057e-09	1.981430e+01	4.474610e+02
2.270000e-06	2.768807e-06	6.699700e-09	1.898018e+01	4.390885e+02
2.280000e-06	2.646194e-06	6.577488e-09	1.813966e+01	4.304672e+02
2.290000e-06	2.522728e-06	6.447570e-09	1.729331e+01	4.215943e+02
2.300000e-06	2.398337e-06	6.315263e-09	1.644060e+01	4.124682e+02
2.310000e-06	2.272928e-06	6.173881e-09	1.558093e+01	4.030876e+02
2.320000e-06	2.146659e-06	6.028858e-09	1.471535e+01	3.934508e+02
2.330000e-06	2.019699e-06	5.872219e-09	1.384504e+01	3.835549e+02
2.340000e-06	1.892020e-06	5.710097e-09	1.296981e+01	3.733947e+02
2.350000e-06	1.763680e-06	5.544342e-09	1.209003e+01	3.629625e+02
2.360000e-06	1.634820e-06	5.382180e-09	1.120670e+01	3.522476e+02
2.370000e-06	1.505493e-06	5.220117e-09	1.032016e+01	3.412373e+02
2.380000e-06	1.375682e-06	5.049024e-09	9.430301e+00	3.299167e+02
2.390000e-06	1.245427e-06	4.872461e-09	8.537403e+00	3.182708e+02
2.400000e-06	1.114828e-06	4.688476e-09	7.642146e+00	3.062848e+02
2.410000e-06	9.839386e-07	4.499049e-09	6.744901e+00	2.939460e+02
2.420000e-06	8.527981e-07	4.306895e-09	5.845933e+00	2.812443e+02
2.430000e-06	7.214314e-07	4.110638e-09	4.945414e+00	2.681729e+02
2.440000e-06	5.898537e-07	3.905867e-09	4.043449e+00	2.547280e+02
2.450000e-06	4.581073e-07	3.690875e-09	3.140327e+00	2.409082e+02
2.460000e-06	3.261840e-07	3.468687e-09	2.235992e+00	2.267126e+02
2.470000e-06	1.941257e-07	3.244350e-09	1.330732e+00	2.121392e+02
2.480000e-06	6.199018e-08	3.018213e-09	4.249428e-01	1.971826e+02
2.490000e-06	-7.022747e-08	2.788905e-09	-4.814095e-01	1.818317e+02
2.500000e-06	-2.024356e-07	2.551193e-09	-1.387696e+00	1.660684e+02
2.510000e-06	-3.345797e-07	2.301436e-09	-2.293545e+00	1.498668e+02
2.520000e-06	-4.666804e-07	2.040567e-09	-3.199096e+00	1.331933e+02
2.530000e-06	-5.986304e-07	1.772814e-09	-4.103613e+00	1.160087e+02
2.540000e-06	-7.303246e-07	1.500616e-09	-5.006377e+00	9.827093e+01
2.550000e-06	-8.617566e-07	1.221851e-09	-5.907343e+00	7.993959e+01
2.560000e-06	-9.929232e-07	9.361533e-10	-6.806491e+00	6.098079e+01
2.570000e-06	-1.123807e-06	6.411778e-10	-7.703698e+00	4.137280e+01
2.580000e-06	-1.254351e-06	3.375906e-10	-8.598578e+00	2.111142e+01
2.590000e-06	-1.384486e-06	2.500592e-11	-9.490655e+00	2.145867e-01
2.600000e-06	-1.514160e-06	-3.009412e-10	-1.037957e+01	-2.127439e+01
2.610000e-06	-1.643326e-06	-6.399461e-10	-1.126501e+01	-4.328526e+01
2.620000e-06	-1.771909e-06	-9.885887e-10	-1.214644e+01	-6.572141e+01
2.630000e-06	-1.899855e-06	-1.340212e-09	-1.302351e+01	-8.846262e+01
2.640000e-06	-2.027144e-06	-1.690858e-09	-1.389608e+01	-1.113698e+02
2.650000e-06	-2.153675e-06	-2.041188e-09	-1.476345e+01	-1.342912e+02
2.660000e-06	-2.279352e-06	-2.391560e-09	-1.562496e+01	-1.570705e+02
2.670000e-06	-2.404072e-06	-2.735560e-09	-1.647992e+01	-1.795539e+02
2.680000e-06	-2.527743e-06	-3.071018e-09	-1.732768e+01	-2.015988e+02
2.690000e-06	-2.650419e-06	-3.395806e-09	-1.816863e+01	-2.230799e+02
2.700000e-06	-2.772146e-06	-3.708551e-09	-1.900307e+01	-2.438946e+02
2.710000e-06	-2.892886e-06	-4.010928e-09	-1.983074e+01	-2.639666e+02
2.720000e-06	-3.012689e-06	-4.301896e-09	-2.065199e+01	-2.832467e+02
2.730000e-06	-3.131356e-06	-4.587107e-09	-2.146546e+01	-3.017119e+02
2.740000e-06	-3.248657e-06	-4.863938e-09	-2.226956e+01	-3.193627e+02
2.750000e-06	-3.364617e-06	-5.126058e-09	-2.306446e+01	-3.362190e+02
2.760000e-06	-3.479250e-06	-5.373416e-09	-2.385027e+01	-3.523143e+02
2.770000e-06	-3.592471e-06	-5.606597e-09	-2.462640e+01	-3.676910e+02
2.780000e-06	-3.704209e-06	-5.830697e-09	-2.539236e+01	-3.823947e+02
2.790000e-06	-3.814560e-06	-6.042900e-09	-2.614882e+01	-3.964699e+02
2.800000e-06	-3.923583e-06	-6.247222e-09	-2.689617e+01	-4.099570e+02
2.810000e-06	-4.031381e-06	-6.446055e-09	-2.763513e+01	-4.228897e+02
2.820000e-06	-4.137933e-06	-6.639287e-09	-2.836554e+01	-4.352951e+02
2.830000e-06	-4.243088e-06	-6.827654e-09	-2.908638e+01	-4.471935e+02
2.840000e-06	-4.346642e-06	-7.004772e-09	-2.979624e+01	-4.586003e+02
2.850000e-06	-4.448390e-06	-7.172035e-09	-3.049372e+01	-4.695272e+02
2.860000e-06	-4.548538e-06	-7.329738e-09	-3.118024e+01	-4.799847e+02
2.870000e-06	-4.647206e-06	-7.479426e-09	-3.185661e+01	-4.899833e+02
2.880000e-06	-4.744282e-06	-7.622895e-09	-3.252206e+01	-4.995352e+02
2.890000e-06	-4.839697e-06	-7.759001e-09	-3.317613e+01	-5.086545e+02
2.900000e-06	-4.933263e-06	-7.889006e-09	-3.381753e+01	-5.173575e+02
2.910000e-06	-5.025055e-06	-8.013810e-09	-3.444676e+01	-5.256617e+02
2.920000e-06	-5.115125e-06	-8.136597e-09	-3.506420e+01	-5.335854e+02
2.930000e-06	-5.203304e-06	-8.255677e-09	-3.566866e+01	-5.411460e+02
2.940000e-06	-5.289447e-06	-8.367928e-09	-3.625917e+01	-5.483597e+02
