# Temperatura_=_31.44
# Concentracion g/m^3_=_15000.0
# C_Vs_to_Am_M_A/Vsm_=_65563218390.804596
# pendiente_HvsI_1/m_=_3716.3
# ordenada_HvsI_A/m_=_1297.0
# frecuencia_Hz_=_301959.29534882715

Tiempo_(s)	Campo_(V.s)	Magnetizacion_(V.s)	Campo_(kA/m)	Magnetizacion_(A/m)
0.000000e+00	-6.844593e-06	-9.972344e-09	-4.748461e+01	-6.534542e+02
1.000000e-08	-6.842863e-06	-9.972673e-09	-4.747261e+01	-6.532889e+02
2.000000e-08	-6.838783e-06	-9.967932e-09	-4.744431e+01	-6.529736e+02
3.000000e-08	-6.832622e-06	-9.960923e-09	-4.740156e+01	-6.525140e+02
4.000000e-08	-6.824298e-06	-9.955151e-09	-4.734382e+01	-6.519228e+02
5.000000e-08	-6.813505e-06	-9.947541e-09	-4.726894e+01	-6.512181e+02
6.000000e-08	-6.800187e-06	-9.938332e-09	-4.717655e+01	-6.504219e+02
7.000000e-08	-6.784407e-06	-9.919167e-09	-4.706707e+01	-6.495577e+02
8.000000e-08	-6.766333e-06	-9.902455e-09	-4.694168e+01	-6.486470e+02
9.000000e-08	-6.746089e-06	-9.935331e-09	-4.680124e+01	-6.477076e+02
1.000000e-07	-6.723339e-06	-9.936185e-09	-4.664341e+01	-6.467505e+02
1.100000e-07	-6.697777e-06	-9.883456e-09	-4.646607e+01	-6.457793e+02
1.200000e-07	-6.669616e-06	-9.850572e-09	-4.627070e+01	-6.447891e+02
1.300000e-07	-6.639250e-06	-9.818592e-09	-4.606004e+01	-6.437676e+02
1.400000e-07	-6.606896e-06	-9.739579e-09	-4.583558e+01	-6.426963e+02
1.500000e-07	-6.572628e-06	-9.763205e-09	-4.559785e+01	-6.415524e+02
1.600000e-07	-6.536397e-06	-9.828236e-09	-4.534649e+01	-6.403119e+02
1.700000e-07	-6.498131e-06	-9.704156e-09	-4.508102e+01	-6.389518e+02
1.800000e-07	-6.457708e-06	-9.745820e-09	-4.480058e+01	-6.374521e+02
1.900000e-07	-6.414809e-06	-9.736419e-09	-4.450297e+01	-6.357983e+02
2.000000e-07	-6.369462e-06	-9.633213e-09	-4.418837e+01	-6.339816e+02
2.100000e-07	-6.321808e-06	-9.690392e-09	-4.385777e+01	-6.319993e+02
2.200000e-07	-6.271486e-06	-9.608851e-09	-4.350867e+01	-6.298542e+02
2.300000e-07	-6.218537e-06	-9.533555e-09	-4.314133e+01	-6.275533e+02
2.400000e-07	-6.163224e-06	-9.519885e-09	-4.275759e+01	-6.251062e+02
2.500000e-07	-6.105518e-06	-9.481355e-09	-4.235726e+01	-6.225232e+02
2.600000e-07	-6.045531e-06	-9.468710e-09	-4.194109e+01	-6.198138e+02
2.700000e-07	-5.983384e-06	-9.430422e-09	-4.150994e+01	-6.169852e+02
2.800000e-07	-5.919070e-06	-9.366440e-09	-4.106376e+01	-6.140420e+02
2.900000e-07	-5.852534e-06	-9.289859e-09	-4.060217e+01	-6.109856e+02
3.000000e-07	-5.783774e-06	-9.262035e-09	-4.012514e+01	-6.078146e+02
3.100000e-07	-5.712849e-06	-9.234906e-09	-3.963310e+01	-6.045255e+02
3.200000e-07	-5.639762e-06	-9.162329e-09	-3.912606e+01	-6.011139e+02
3.300000e-07	-5.564431e-06	-9.130546e-09	-3.860344e+01	-5.975750e+02
3.400000e-07	-5.486829e-06	-9.055417e-09	-3.806508e+01	-5.939049e+02
3.500000e-07	-5.407085e-06	-8.985383e-09	-3.751185e+01	-5.901009e+02
3.600000e-07	-5.325330e-06	-8.945122e-09	-3.694467e+01	-5.861616e+02
3.700000e-07	-5.241800e-06	-8.884257e-09	-3.636518e+01	-5.820871e+02
3.800000e-07	-5.156597e-06	-8.813699e-09	-3.577408e+01	-5.778779e+02
3.900000e-07	-5.069619e-06	-8.734396e-09	-3.517067e+01	-5.735349e+02
4.000000e-07	-4.980865e-06	-8.675985e-09	-3.455493e+01	-5.690583e+02
4.100000e-07	-4.890297e-06	-8.613692e-09	-3.392662e+01	-5.644469e+02
4.200000e-07	-4.798000e-06	-8.548950e-09	-3.328630e+01	-5.596981e+02
4.300000e-07	-4.704091e-06	-8.463154e-09	-3.263480e+01	-5.548077e+02
4.400000e-07	-4.608520e-06	-8.375394e-09	-3.197178e+01	-5.497699e+02
4.500000e-07	-4.511303e-06	-8.301172e-09	-3.129733e+01	-5.445783e+02
4.600000e-07	-4.412406e-06	-8.218276e-09	-3.061123e+01	-5.392259e+02
4.700000e-07	-4.311931e-06	-8.141826e-09	-2.991418e+01	-5.337066e+02
4.800000e-07	-4.209908e-06	-8.057171e-09	-2.920639e+01	-5.280151e+02
4.900000e-07	-4.106343e-06	-7.960503e-09	-2.848790e+01	-5.221474e+02
5.000000e-07	-4.001385e-06	-7.861838e-09	-2.775975e+01	-5.161013e+02
5.100000e-07	-3.894854e-06	-7.772578e-09	-2.702069e+01	-5.098755e+02
5.200000e-07	-3.786811e-06	-7.681355e-09	-2.627114e+01	-5.034696e+02
5.300000e-07	-3.677510e-06	-7.578658e-09	-2.551286e+01	-4.968831e+02
5.400000e-07	-3.567006e-06	-7.470035e-09	-2.474623e+01	-4.901146e+02
5.500000e-07	-3.455141e-06	-7.360416e-09	-2.397016e+01	-4.831615e+02
5.600000e-07	-3.341757e-06	-7.255069e-09	-2.318356e+01	-4.760192e+02
5.700000e-07	-3.226935e-06	-7.145224e-09	-2.238698e+01	-4.686813e+02
5.800000e-07	-3.110764e-06	-7.031601e-09	-2.158104e+01	-4.611395e+02
5.900000e-07	-2.993375e-06	-6.908315e-09	-2.076665e+01	-4.533845e+02
6.000000e-07	-2.874875e-06	-6.782605e-09	-1.994455e+01	-4.454068e+02
6.100000e-07	-2.755340e-06	-6.658902e-09	-1.911527e+01	-4.371969e+02
6.200000e-07	-2.634885e-06	-6.536654e-09	-1.827961e+01	-4.287471e+02
6.300000e-07	-2.513498e-06	-6.406020e-09	-1.743748e+01	-4.200508e+02
6.400000e-07	-2.391038e-06	-6.263211e-09	-1.658792e+01	-4.111037e+02
6.500000e-07	-2.267523e-06	-6.121336e-09	-1.573102e+01	-4.019029e+02
6.600000e-07	-2.143233e-06	-5.979687e-09	-1.486875e+01	-3.924462e+02
6.700000e-07	-2.018354e-06	-5.833284e-09	-1.400240e+01	-3.827316e+02
6.800000e-07	-1.892799e-06	-5.680270e-09	-1.313136e+01	-3.727559e+02
6.900000e-07	-1.766571e-06	-5.523713e-09	-1.225565e+01	-3.625137e+02
7.000000e-07	-1.639755e-06	-5.361476e-09	-1.137586e+01	-3.519970e+02
7.100000e-07	-1.512398e-06	-5.194462e-09	-1.049231e+01	-3.411942e+02
7.200000e-07	-1.384567e-06	-5.025383e-09	-9.605481e+00	-3.300914e+02
7.300000e-07	-1.256308e-06	-4.852443e-09	-8.715684e+00	-3.186719e+02
7.400000e-07	-1.127666e-06	-4.672952e-09	-7.823222e+00	-3.069185e+02
7.500000e-07	-9.987119e-07	-4.487158e-09	-6.928600e+00	-2.948141e+02
7.600000e-07	-8.694356e-07	-4.299983e-09	-6.031741e+00	-2.823433e+02
7.700000e-07	-7.397984e-07	-4.108582e-09	-5.132379e+00	-2.694938e+02
7.800000e-07	-6.098691e-07	-3.908993e-09	-4.230989e+00	-2.562564e+02
7.900000e-07	-4.797119e-07	-3.701720e-09	-3.328019e+00	-2.426251e+02
8.000000e-07	-3.493542e-07	-3.487046e-09	-2.423658e+00	-2.285961e+02
8.100000e-07	-2.188401e-07	-3.264890e-09	-1.518211e+00	-2.141660e+02
8.200000e-07	-8.815781e-08	-3.036934e-09	-6.115980e-01	-1.993296e+02
8.300000e-07	4.263279e-08	-2.803865e-09	2.957666e-01	-1.840772e+02
8.400000e-07	1.734476e-07	-2.563943e-09	1.203299e+00	-1.683931e+02
8.500000e-07	3.042389e-07	-2.318587e-09	2.110668e+00	-1.522532e+02
8.600000e-07	4.349106e-07	-2.067331e-09	3.017208e+00	-1.356254e+02
8.700000e-07	5.654387e-07	-1.809186e-09	3.922752e+00	-1.184702e+02
8.800000e-07	6.957415e-07	-1.538862e-09	4.826732e+00	-1.007436e+02
8.900000e-07	8.257231e-07	-1.256314e-09	5.728484e+00	-8.240101e+01
9.000000e-07	9.554025e-07	-9.644785e-10	6.628140e+00	-6.340276e+01
9.100000e-07	1.084705e-06	-6.626260e-10	7.525180e+00	-4.372020e+01
9.200000e-07	1.213590e-06	-3.505535e-10	8.419326e+00	-2.334195e+01
9.300000e-07	1.342171e-06	-2.849406e-11	9.311363e+00	-2.279683e+00
9.400000e-07	1.470386e-06	3.014994e-10	1.020085e+01	1.942754e+01
9.500000e-07	1.598065e-06	6.393414e-10	1.108664e+01	4.171069e+01
9.600000e-07	1.725135e-06	9.848238e-10	1.196818e+01	6.447066e+01
9.700000e-07	1.851547e-06	1.339171e-09	1.284517e+01	8.758060e+01
9.800000e-07	1.977294e-06	1.698203e-09	1.371755e+01	1.108909e+02
9.900000e-07	2.102411e-06	2.057618e-09	1.458556e+01	1.342360e+02
1.000000e-06	2.226889e-06	2.413117e-09	1.544913e+01	1.574433e+02
1.010000e-06	2.350623e-06	2.760986e-09	1.630753e+01	1.803421e+02
1.020000e-06	2.473371e-06	3.099866e-09	1.715910e+01	2.027732e+02
1.030000e-06	2.595035e-06	3.428542e-09	1.800315e+01	2.245966e+02
1.040000e-06	2.715754e-06	3.749581e-09	1.884064e+01	2.456986e+02
1.050000e-06	2.835496e-06	4.059264e-09	1.967136e+01	2.659956e+02
1.060000e-06	2.954180e-06	4.354746e-09	2.049473e+01	2.854360e+02
1.070000e-06	3.071783e-06	4.635540e-09	2.131060e+01	3.039987e+02
1.080000e-06	3.188303e-06	4.905291e-09	2.211897e+01	3.216905e+02
1.090000e-06	3.303575e-06	5.163620e-09	2.291867e+01	3.385400e+02
1.100000e-06	3.417353e-06	5.408084e-09	2.370801e+01	3.545921e+02
1.110000e-06	3.529812e-06	5.639935e-09	2.448820e+01	3.699007e+02
1.120000e-06	3.641088e-06	5.860517e-09	2.526018e+01	3.845223e+02
1.130000e-06	3.751148e-06	6.070377e-09	2.602372e+01	3.985109e+02
1.140000e-06	3.860008e-06	6.271753e-09	2.677895e+01	4.119137e+02
1.150000e-06	3.967613e-06	6.467146e-09	2.752546e+01	4.247689e+02
1.160000e-06	4.073755e-06	6.656747e-09	2.826182e+01	4.371051e+02
1.170000e-06	4.178276e-06	6.840195e-09	2.898694e+01	4.489422e+02
1.180000e-06	4.281272e-06	7.013243e-09	2.970148e+01	4.602933e+02
1.190000e-06	4.382840e-06	7.178044e-09	3.040611e+01	4.711674e+02
1.200000e-06	4.482981e-06	7.332347e-09	3.110084e+01	4.815719e+02
1.210000e-06	4.581478e-06	7.478147e-09	3.178417e+01	4.915151e+02
1.220000e-06	4.678150e-06	7.619797e-09	3.245484e+01	5.010081e+02
1.230000e-06	4.773052e-06	7.758011e-09	3.311322e+01	5.100652e+02
1.240000e-06	4.866372e-06	7.892375e-09	3.376063e+01	5.187037e+02
1.250000e-06	4.958130e-06	8.023555e-09	3.439721e+01	5.269436e+02
1.260000e-06	5.048066e-06	8.151584e-09	3.502114e+01	5.348056e+02
1.270000e-06	5.136050e-06	8.270610e-09	3.563153e+01	5.423098e+02
1.280000e-06	5.222195e-06	8.380981e-09	3.622917e+01	5.494742e+02
1.290000e-06	5.306586e-06	8.486315e-09	3.681464e+01	5.563136e+02
1.300000e-06	5.389103e-06	8.585903e-09	3.738710e+01	5.628395e+02
1.310000e-06	5.469596e-06	8.676607e-09	3.794552e+01	5.690601e+02
1.320000e-06	5.548093e-06	8.760819e-09	3.849010e+01	5.749814e+02
1.330000e-06	5.624603e-06	8.844392e-09	3.902089e+01	5.806088e+02
1.340000e-06	5.698917e-06	8.926962e-09	3.953645e+01	5.859482e+02
1.350000e-06	5.770967e-06	9.004207e-09	4.003629e+01	5.910079e+02
1.360000e-06	5.840905e-06	9.076367e-09	4.052149e+01	5.957993e+02
1.370000e-06	5.908837e-06	9.144987e-09	4.099277e+01	6.003374e+02
1.380000e-06	5.974661e-06	9.210635e-09	4.144943e+01	6.046402e+02
1.390000e-06	6.038329e-06	9.273525e-09	4.189113e+01	6.087280e+02
1.400000e-06	6.099964e-06	9.334217e-09	4.231872e+01	6.126214e+02
1.410000e-06	6.159569e-06	9.393253e-09	4.273223e+01	6.163396e+02
1.420000e-06	6.216976e-06	9.448702e-09	4.313049e+01	6.198982e+02
1.430000e-06	6.272186e-06	9.500067e-09	4.351352e+01	6.233077e+02
1.440000e-06	6.325103e-06	9.549643e-09	4.388063e+01	6.265725e+02
1.450000e-06	6.375342e-06	9.596424e-09	4.422916e+01	6.296908e+02
1.460000e-06	6.423030e-06	9.640352e-09	4.456001e+01	6.326549e+02
1.470000e-06	6.468498e-06	9.682016e-09	4.487544e+01	6.354531e+02
1.480000e-06	6.511776e-06	9.722025e-09	4.517568e+01	6.380715e+02
1.490000e-06	6.552674e-06	9.760140e-09	4.545941e+01	6.404968e+02
1.500000e-06	6.591159e-06	9.794043e-09	4.572640e+01	6.427183e+02
1.510000e-06	6.627524e-06	9.822931e-09	4.597869e+01	6.447300e+02
1.520000e-06	6.661608e-06	9.848303e-09	4.621515e+01	6.465323e+02
1.530000e-06	6.693221e-06	9.871025e-09	4.643447e+01	6.481319e+02
1.540000e-06	6.722593e-06	9.891814e-09	4.663824e+01	6.495416e+02
1.550000e-06	6.749664e-06	9.911948e-09	4.682604e+01	6.507786e+02
1.560000e-06	6.774179e-06	9.930219e-09	4.699611e+01	6.518630e+02
1.570000e-06	6.796190e-06	9.945880e-09	4.714882e+01	6.528144e+02
1.580000e-06	6.815927e-06	9.958921e-09	4.728574e+01	6.536504e+02
1.590000e-06	6.833216e-06	9.970649e-09	4.740568e+01	6.543836e+02
1.600000e-06	6.847931e-06	9.978998e-09	4.750777e+01	6.550209e+02
1.610000e-06	6.860070e-06	9.984973e-09	4.759198e+01	6.555629e+02
1.620000e-06	6.869510e-06	9.990696e-09	4.765748e+01	6.560038e+02
1.630000e-06	6.876395e-06	9.994627e-09	4.770524e+01	6.563338e+02
1.640000e-06	6.880907e-06	9.996942e-09	4.773654e+01	6.565403e+02
1.650000e-06	6.882955e-06	9.998793e-09	4.775075e+01	6.566111e+02
1.660000e-06	6.882489e-06	9.999977e-09	4.774752e+01	6.565364e+02
1.670000e-06	6.879814e-06	9.993827e-09	4.772896e+01	6.563116e+02
1.680000e-06	6.874902e-06	9.988642e-09	4.769488e+01	6.559382e+02
1.690000e-06	6.867614e-06	9.979319e-09	4.764432e+01	6.554247e+02
1.700000e-06	6.858110e-06	9.969266e-09	4.757839e+01	6.547861e+02
1.710000e-06	6.846354e-06	9.962203e-09	4.749683e+01	6.540424e+02
1.720000e-06	6.832196e-06	9.958029e-09	4.739861e+01	6.532164e+02
1.730000e-06	6.815779e-06	9.953962e-09	4.728471e+01	6.523311e+02
1.740000e-06	6.797325e-06	9.881517e-09	4.715669e+01	6.514070e+02
1.750000e-06	6.776216e-06	9.846587e-09	4.701024e+01	6.504594e+02
1.760000e-06	6.751735e-06	9.870541e-09	4.684040e+01	6.494964e+02
1.770000e-06	6.724333e-06	9.855638e-09	4.665031e+01	6.485184e+02
1.780000e-06	6.694592e-06	9.873444e-09	4.644397e+01	6.475175e+02
1.790000e-06	6.662987e-06	9.923270e-09	4.622471e+01	6.464785e+02
1.800000e-06	6.630065e-06	9.797520e-09	4.599632e+01	6.453812e+02
1.810000e-06	6.595267e-06	9.801987e-09	4.575491e+01	6.442019e+02
1.820000e-06	6.557812e-06	9.854368e-09	4.549506e+01	6.429167e+02
1.830000e-06	6.518150e-06	9.744379e-09	4.521990e+01	6.415035e+02
1.840000e-06	6.476350e-06	9.822189e-09	4.492991e+01	6.399444e+02
1.850000e-06	6.432283e-06	9.727066e-09	4.462419e+01	6.382269e+02
1.860000e-06	6.386028e-06	9.646823e-09	4.430331e+01	6.363448e+02
1.870000e-06	6.337302e-06	9.736102e-09	4.396526e+01	6.342976e+02
1.880000e-06	6.286318e-06	9.632553e-09	4.361156e+01	6.320899e+02
1.890000e-06	6.232851e-06	9.649933e-09	4.324063e+01	6.297300e+02
1.900000e-06	6.176689e-06	9.588080e-09	4.285101e+01	6.272280e+02
1.910000e-06	6.118246e-06	9.483642e-09	4.244556e+01	6.245939e+02
1.920000e-06	6.057440e-06	9.503325e-09	4.202371e+01	6.218366e+02
1.930000e-06	5.994293e-06	9.415738e-09	4.158563e+01	6.189623e+02
1.940000e-06	5.929011e-06	9.437779e-09	4.113273e+01	6.159742e+02
1.950000e-06	5.861679e-06	9.367652e-09	4.066561e+01	6.128727e+02
1.960000e-06	5.792121e-06	9.300527e-09	4.018305e+01	6.096555e+02
1.970000e-06	5.720139e-06	9.259094e-09	3.968367e+01	6.063185e+02
1.980000e-06	5.646063e-06	9.157846e-09	3.916977e+01	6.028570e+02
1.990000e-06	5.569760e-06	9.174668e-09	3.864041e+01	5.992667e+02
2.000000e-06	5.491148e-06	9.090553e-09	3.809504e+01	5.955439e+02
2.010000e-06	5.410552e-06	9.030919e-09	3.753590e+01	5.916865e+02
2.020000e-06	5.328150e-06	8.976987e-09	3.696423e+01	5.876937e+02
2.030000e-06	5.243972e-06	8.901279e-09	3.638024e+01	5.835658e+02
2.040000e-06	5.157751e-06	8.852232e-09	3.578208e+01	5.793036e+02
2.050000e-06	5.069617e-06	8.769499e-09	3.517065e+01	5.749078e+02
2.060000e-06	4.979862e-06	8.714077e-09	3.454797e+01	5.703781e+02
2.070000e-06	4.888534e-06	8.624076e-09	3.391438e+01	5.657127e+02
2.080000e-06	4.795549e-06	8.557711e-09	3.326929e+01	5.609086e+02
2.090000e-06	4.700660e-06	8.485930e-09	3.261100e+01	5.559607e+02
2.100000e-06	4.604045e-06	8.421174e-09	3.194073e+01	5.508629e+02
2.110000e-06	4.505988e-06	8.341418e-09	3.126045e+01	5.456086e+02
2.120000e-06	4.406513e-06	8.236530e-09	3.057035e+01	5.401910e+02
2.130000e-06	4.305525e-06	8.155703e-09	2.986974e+01	5.346042e+02
2.140000e-06	4.202820e-06	8.071937e-09	2.915722e+01	5.288435e+02
2.150000e-06	4.098450e-06	7.994538e-09	2.843315e+01	5.229056e+02
2.160000e-06	3.992673e-06	7.898045e-09	2.769932e+01	5.167886e+02
2.170000e-06	3.885522e-06	7.803297e-09	2.695595e+01	5.104918e+02
2.180000e-06	3.777082e-06	7.699126e-09	2.620365e+01	5.040147e+02
2.190000e-06	3.667268e-06	7.595888e-09	2.544181e+01	4.973565e+02
2.200000e-06	3.555955e-06	7.492531e-09	2.466957e+01	4.905156e+02
2.210000e-06	3.443297e-06	7.388567e-09	2.388800e+01	4.834885e+02
2.220000e-06	3.329287e-06	7.277270e-09	2.309705e+01	4.762699e+02
2.230000e-06	3.213957e-06	7.158667e-09	2.229695e+01	4.688526e+02
2.240000e-06	3.097369e-06	7.044674e-09	2.148811e+01	4.612278e+02
2.250000e-06	2.979488e-06	6.927546e-09	2.067031e+01	4.533861e+02
2.260000e-06	2.860322e-06	6.809622e-09	1.984359e+01	4.453179e+02
2.270000e-06	2.740050e-06	6.679667e-09	1.900920e+01	4.370143e+02
2.280000e-06	2.618888e-06	6.548375e-09	1.816863e+01	4.284679e+02
2.290000e-06	2.496842e-06	6.414599e-09	1.732194e+01	4.196732e+02
2.300000e-06	2.373871e-06	6.280080e-09	1.646881e+01	4.106263e+02
2.310000e-06	2.250064e-06	6.140882e-09	1.560990e+01	4.013249e+02
2.320000e-06	2.125613e-06	5.996128e-09	1.474652e+01	3.917668e+02
2.330000e-06	2.000504e-06	5.841259e-09	1.387857e+01	3.819498e+02
2.340000e-06	1.874628e-06	5.682830e-09	1.300530e+01	3.718698e+02
2.350000e-06	1.747940e-06	5.526169e-09	1.212640e+01	3.615206e+02
2.360000e-06	1.620494e-06	5.368336e-09	1.124223e+01	3.508926e+02
2.370000e-06	1.492493e-06	5.205442e-09	1.035423e+01	3.399735e+02
2.380000e-06	1.364102e-06	5.031517e-09	9.463510e+00	3.287479e+02
2.390000e-06	1.235387e-06	4.854035e-09	8.570541e+00	3.171990e+02
2.400000e-06	1.106305e-06	4.671444e-09	7.675034e+00	3.053093e+02
2.410000e-06	9.768787e-07	4.484453e-09	6.777131e+00	2.930623e+02
2.420000e-06	8.471821e-07	4.291782e-09	5.877356e+00	2.804437e+02
2.430000e-06	7.172040e-07	4.089998e-09	4.975629e+00	2.674423e+02
2.440000e-06	5.870155e-07	3.884398e-09	4.072442e+00	2.540504e+02
2.450000e-06	4.566720e-07	3.676095e-09	3.168179e+00	2.402629e+02
2.460000e-06	3.261209e-07	3.462878e-09	2.262475e+00	2.260765e+02
2.470000e-06	1.953983e-07	3.243141e-09	1.355583e+00	2.114872e+02
2.480000e-06	6.457759e-08	3.015037e-09	4.480094e-01	1.964885e+02
2.490000e-06	-6.625644e-08	2.779279e-09	-4.596564e-01	1.810685e+02
2.500000e-06	-1.970293e-07	2.535784e-09	-1.366898e+00	1.652082e+02
2.510000e-06	-3.277425e-07	2.282745e-09	-2.273726e+00	1.488806e+02
2.520000e-06	-4.584098e-07	2.020504e-09	-3.180235e+00	1.320503e+02
2.530000e-06	-5.889243e-07	1.751858e-09	-4.085684e+00	1.146757e+02
2.540000e-06	-7.192130e-07	1.477168e-09	-4.989566e+00	9.671189e+01
2.550000e-06	-8.493099e-07	1.195446e-09	-5.892118e+00	7.811564e+01
2.560000e-06	-9.791308e-07	9.069166e-10	-6.792756e+00	5.885080e+01
2.570000e-06	-1.108592e-06	6.080716e-10	-7.690900e+00	3.889478e+01
2.580000e-06	-1.237683e-06	2.968734e-10	-8.586472e+00	1.824463e+01
2.590000e-06	-1.366406e-06	-2.556679e-11	-9.479492e+00	-3.077645e+00
2.600000e-06	-1.494757e-06	-3.579820e-10	-1.036993e+01	-2.502140e+01
2.610000e-06	-1.622686e-06	-7.012453e-10	-1.125744e+01	-4.750565e+01
2.620000e-06	-1.749950e-06	-1.055510e-09	-1.214034e+01	-7.041998e+01
2.630000e-06	-1.876310e-06	-1.414261e-09	-1.301697e+01	-9.362788e+01
2.640000e-06	-2.001819e-06	-1.772031e-09	-1.388769e+01	-1.169725e+02
2.650000e-06	-2.126560e-06	-2.127572e-09	-1.475309e+01	-1.402846e+02
2.660000e-06	-2.250556e-06	-2.482336e-09	-1.561331e+01	-1.633909e+02
2.670000e-06	-2.373691e-06	-2.831469e-09	-1.646757e+01	-1.861244e+02
2.680000e-06	-2.495865e-06	-3.170487e-09	-1.731515e+01	-2.083324e+02
2.690000e-06	-2.617062e-06	-3.498515e-09	-1.815596e+01	-2.298848e+02
2.700000e-06	-2.737433e-06	-3.814212e-09	-1.899104e+01	-2.506791e+02
2.710000e-06	-2.856829e-06	-4.114881e-09	-1.981935e+01	-2.706443e+02
2.720000e-06	-2.974933e-06	-4.402727e-09	-2.063871e+01	-2.897411e+02
2.730000e-06	-3.091823e-06	-4.682095e-09	-2.144963e+01	-3.079599e+02
2.740000e-06	-3.207561e-06	-4.950617e-09	-2.225257e+01	-3.253167e+02
2.750000e-06	-3.322059e-06	-5.206402e-09	-2.304690e+01	-3.418473e+02
2.760000e-06	-3.435126e-06	-5.447930e-09	-2.383131e+01	-3.576009e+02
2.770000e-06	-3.546797e-06	-5.676873e-09	-2.460603e+01	-3.726333e+02
2.780000e-06	-3.657114e-06	-5.896808e-09	-2.537136e+01	-3.870004e+02
2.790000e-06	-3.766173e-06	-6.106436e-09	-2.612796e+01	-4.007540e+02
2.800000e-06	-3.874089e-06	-6.309472e-09	-2.687663e+01	-4.139380e+02
2.810000e-06	-3.980741e-06	-6.506939e-09	-2.761653e+01	-4.265868e+02
2.820000e-06	-4.086034e-06	-6.697100e-09	-2.834701e+01	-4.387254e+02
2.830000e-06	-4.189855e-06	-6.877251e-09	-2.906727e+01	-4.503706e+02
2.840000e-06	-4.292016e-06	-7.047204e-09	-2.977602e+01	-4.615338e+02
2.850000e-06	-4.392522e-06	-7.208927e-09	-3.047328e+01	-4.722228e+02
2.860000e-06	-4.491566e-06	-7.361112e-09	-3.116040e+01	-4.824453e+02
2.870000e-06	-4.589126e-06	-7.506796e-09	-3.183723e+01	-4.922106e+02
2.880000e-06	-4.685152e-06	-7.647145e-09	-3.250341e+01	-5.015307e+02
2.890000e-06	-4.779500e-06	-7.781752e-09	-3.315795e+01	-5.104215e+02
2.900000e-06	-4.872041e-06	-7.911035e-09	-3.379996e+01	-5.189013e+02
2.910000e-06	-4.962880e-06	-8.035403e-09	-3.443016e+01	-5.269906e+02
2.920000e-06	-5.051971e-06	-8.155555e-09	-3.504823e+01	-5.347101e+02
2.930000e-06	-5.139172e-06	-8.269487e-09	-3.565319e+01	-5.420792e+02
2.940000e-06	-5.224403e-06	-8.377057e-09	-3.624448e+01	-5.491147e+02
