# Temperatura_=_46.94
# Concentracion g/m^3_=_15000.0
# C_Vs_to_Am_M_A/Vsm_=_65563218390.804596
# pendiente_HvsI_1/m_=_3716.3
# ordenada_HvsI_A/m_=_1297.0
# frecuencia_Hz_=_301961.5785001148

Tiempo_(s)	Campo_(V.s)	Magnetizacion_(V.s)	Campo_(kA/m)	Magnetizacion_(A/m)
0.000000e+00	-6.882041e-06	-1.041546e-08	-4.748848e+01	-6.832745e+02
1.000000e-08	-6.880171e-06	-1.041778e-08	-4.747558e+01	-6.830971e+02
2.000000e-08	-6.875953e-06	-1.041498e-08	-4.744647e+01	-6.827656e+02
3.000000e-08	-6.869573e-06	-1.040666e-08	-4.740245e+01	-6.822853e+02
4.000000e-08	-6.860961e-06	-1.039983e-08	-4.734302e+01	-6.816673e+02
5.000000e-08	-6.849946e-06	-1.039052e-08	-4.726701e+01	-6.809276e+02
6.000000e-08	-6.836399e-06	-1.037799e-08	-4.717354e+01	-6.800856e+02
7.000000e-08	-6.820356e-06	-1.035796e-08	-4.706283e+01	-6.791615e+02
8.000000e-08	-6.802010e-06	-1.034396e-08	-4.693624e+01	-6.781744e+02
9.000000e-08	-6.781585e-06	-1.037843e-08	-4.679530e+01	-6.771400e+02
1.000000e-07	-6.758681e-06	-1.038846e-08	-4.663725e+01	-6.760683e+02
1.100000e-07	-6.732830e-06	-1.032836e-08	-4.645887e+01	-6.749633e+02
1.200000e-07	-6.704376e-06	-1.028690e-08	-4.626253e+01	-6.738218e+02
1.300000e-07	-6.673770e-06	-1.025865e-08	-4.605134e+01	-6.726342e+02
1.400000e-07	-6.641108e-06	-1.017674e-08	-4.582596e+01	-6.713856e+02
1.500000e-07	-6.606529e-06	-1.017624e-08	-4.558735e+01	-6.700572e+02
1.600000e-07	-6.570034e-06	-1.025912e-08	-4.533553e+01	-6.686287e+02
1.700000e-07	-6.531496e-06	-1.014303e-08	-4.506960e+01	-6.670800e+02
1.800000e-07	-6.490845e-06	-1.014382e-08	-4.478909e+01	-6.653931e+02
1.900000e-07	-6.447690e-06	-1.016938e-08	-4.449131e+01	-6.635536e+02
2.000000e-07	-6.402044e-06	-1.006535e-08	-4.417634e+01	-6.615515e+02
2.100000e-07	-6.354059e-06	-1.010135e-08	-4.384522e+01	-6.593815e+02
2.200000e-07	-6.303372e-06	-1.004206e-08	-4.349547e+01	-6.570426e+02
2.300000e-07	-6.250011e-06	-9.960532e-09	-4.312726e+01	-6.545377e+02
2.400000e-07	-6.194239e-06	-9.930932e-09	-4.274241e+01	-6.518721e+02
2.500000e-07	-6.136130e-06	-9.881307e-09	-4.234143e+01	-6.490528e+02
2.600000e-07	-6.075736e-06	-9.871838e-09	-4.192470e+01	-6.460870e+02
2.700000e-07	-6.013163e-06	-9.826614e-09	-4.149292e+01	-6.429815e+02
2.800000e-07	-5.948382e-06	-9.745119e-09	-4.104591e+01	-6.397418e+02
2.900000e-07	-5.881325e-06	-9.675058e-09	-4.058319e+01	-6.363719e+02
3.000000e-07	-5.812136e-06	-9.647229e-09	-4.010576e+01	-6.328743e+02
3.100000e-07	-5.740842e-06	-9.620270e-09	-3.961381e+01	-6.292498e+02
3.200000e-07	-5.667240e-06	-9.540090e-09	-3.910593e+01	-6.254984e+02
3.300000e-07	-5.591299e-06	-9.495938e-09	-3.858191e+01	-6.216190e+02
3.400000e-07	-5.513064e-06	-9.422226e-09	-3.804206e+01	-6.176101e+02
3.500000e-07	-5.432658e-06	-9.344540e-09	-3.748724e+01	-6.134697e+02
3.600000e-07	-5.350348e-06	-9.300117e-09	-3.691926e+01	-6.091958e+02
3.700000e-07	-5.266305e-06	-9.237265e-09	-3.633934e+01	-6.047857e+02
3.800000e-07	-5.180576e-06	-9.161961e-09	-3.574778e+01	-6.002366e+02
3.900000e-07	-5.093036e-06	-9.072124e-09	-3.514372e+01	-5.955448e+02
4.000000e-07	-5.003604e-06	-9.006610e-09	-3.452661e+01	-5.907064e+02
4.100000e-07	-4.912398e-06	-8.941828e-09	-3.389726e+01	-5.857167e+02
4.200000e-07	-4.819568e-06	-8.869514e-09	-3.325670e+01	-5.805708e+02
4.300000e-07	-4.725132e-06	-8.779447e-09	-3.260506e+01	-5.752640e+02
4.400000e-07	-4.628977e-06	-8.688205e-09	-3.194156e+01	-5.697918e+02
4.500000e-07	-4.531076e-06	-8.608984e-09	-3.126600e+01	-5.641504e+02
4.600000e-07	-4.431466e-06	-8.521695e-09	-3.057866e+01	-5.583374e+02
4.700000e-07	-4.330338e-06	-8.436357e-09	-2.988084e+01	-5.523512e+02
4.800000e-07	-4.227839e-06	-8.340724e-09	-2.917356e+01	-5.461913e+02
4.900000e-07	-4.123832e-06	-8.234160e-09	-2.845588e+01	-5.398581e+02
5.000000e-07	-4.018243e-06	-8.129126e-09	-2.772728e+01	-5.333520e+02
5.100000e-07	-3.911102e-06	-8.034783e-09	-2.698797e+01	-5.266731e+02
5.200000e-07	-3.802505e-06	-7.937808e-09	-2.623861e+01	-5.198204e+02
5.300000e-07	-3.692634e-06	-7.829989e-09	-2.548046e+01	-5.127910e+02
5.400000e-07	-3.581496e-06	-7.713627e-09	-2.471357e+01	-5.055801e+02
5.500000e-07	-3.468918e-06	-7.595190e-09	-2.393675e+01	-4.981808e+02
5.600000e-07	-3.354799e-06	-7.481855e-09	-2.314928e+01	-4.905843e+02
5.700000e-07	-3.239161e-06	-7.366133e-09	-2.235134e+01	-4.827802e+02
5.800000e-07	-3.122235e-06	-7.245489e-09	-2.154451e+01	-4.747578e+02
5.900000e-07	-3.004220e-06	-7.115084e-09	-2.073017e+01	-4.665065e+02
6.000000e-07	-2.885147e-06	-6.983796e-09	-1.990852e+01	-4.580170e+02
6.100000e-07	-2.765008e-06	-6.854357e-09	-1.907952e+01	-4.492818e+02
6.200000e-07	-2.643799e-06	-6.721534e-09	-1.824313e+01	-4.402954e+02
6.300000e-07	-2.521554e-06	-6.578464e-09	-1.739960e+01	-4.310545e+02
6.400000e-07	-2.398324e-06	-6.426723e-09	-1.654927e+01	-4.215576e+02
6.500000e-07	-2.274228e-06	-6.274599e-09	-1.569296e+01	-4.118036e+02
6.600000e-07	-2.149383e-06	-6.121893e-09	-1.483149e+01	-4.017913e+02
6.700000e-07	-2.023879e-06	-5.966750e-09	-1.396547e+01	-3.915182e+02
6.800000e-07	-1.897732e-06	-5.807133e-09	-1.309501e+01	-3.809789e+02
6.900000e-07	-1.770895e-06	-5.642272e-09	-1.221979e+01	-3.701652e+02
7.000000e-07	-1.643392e-06	-5.470644e-09	-1.133998e+01	-3.590653e+02
7.100000e-07	-1.515285e-06	-5.295160e-09	-1.045599e+01	-3.476644e+02
7.200000e-07	-1.386650e-06	-5.118414e-09	-9.568369e+00	-3.359455e+02
7.300000e-07	-1.257631e-06	-4.936449e-09	-8.678092e+00	-3.238904e+02
7.400000e-07	-1.128216e-06	-4.744251e-09	-7.785085e+00	-3.114816e+02
7.500000e-07	-9.983926e-07	-4.545276e-09	-6.889257e+00	-2.987034e+02
7.600000e-07	-8.682348e-07	-4.345324e-09	-5.991123e+00	-2.855429e+02
7.700000e-07	-7.377720e-07	-4.143154e-09	-5.090884e+00	-2.719907e+02
7.800000e-07	-6.070561e-07	-3.932659e-09	-4.188899e+00	-2.580402e+02
7.900000e-07	-4.761390e-07	-3.713435e-09	-3.285525e+00	-2.436870e+02
8.000000e-07	-3.450444e-07	-3.489726e-09	-2.380927e+00	-2.289265e+02
8.100000e-07	-2.138098e-07	-3.259413e-09	-1.475362e+00	-2.137521e+02
8.200000e-07	-8.244796e-08	-3.023850e-09	-5.689197e-01	-1.981520e+02
8.300000e-07	4.903564e-08	-2.782737e-09	3.383630e-01	-1.821074e+02
8.400000e-07	1.805034e-07	-2.530601e-09	1.245536e+00	-1.655908e+02
8.500000e-07	3.119022e-07	-2.267841e-09	2.152234e+00	-1.485655e+02
8.600000e-07	4.432508e-07	-1.997493e-09	3.058585e+00	-1.309868e+02
8.700000e-07	5.744966e-07	-1.719922e-09	3.964227e+00	-1.128047e+02
8.800000e-07	7.055594e-07	-1.430994e-09	4.868606e+00	-9.396788e+01
8.900000e-07	8.363772e-07	-1.131188e-09	5.771294e+00	-7.442978e+01
9.000000e-07	9.669502e-07	-8.221345e-10	6.672294e+00	-5.415463e+01
9.100000e-07	1.097159e-06	-5.039845e-10	7.570782e+00	-3.312433e+01
9.200000e-07	1.226957e-06	-1.745424e-10	8.466430e+00	-1.134451e+01
9.300000e-07	1.356376e-06	1.673893e-10	9.359469e+00	1.115052e+01
9.400000e-07	1.485255e-06	5.206448e-10	1.024878e+01	3.429477e+01
9.500000e-07	1.613530e-06	8.843850e-10	1.113392e+01	5.798990e+01
9.600000e-07	1.741207e-06	1.254060e-09	1.201494e+01	8.210729e+01
9.700000e-07	1.868251e-06	1.629865e-09	1.289159e+01	1.064926e+02
9.800000e-07	1.994588e-06	2.009596e-09	1.376335e+01	1.309727e+02
9.900000e-07	2.120180e-06	2.387154e-09	1.462998e+01	1.553644e+02
1.000000e-06	2.245104e-06	2.756674e-09	1.549200e+01	1.794839e+02
1.010000e-06	2.369285e-06	3.114602e-09	1.634889e+01	2.031570e+02
1.020000e-06	2.492626e-06	3.462096e-09	1.719999e+01	2.262276e+02
1.030000e-06	2.615063e-06	3.798634e-09	1.804484e+01	2.485651e+02
1.040000e-06	2.736462e-06	4.125120e-09	1.888254e+01	2.700699e+02
1.050000e-06	2.856750e-06	4.439189e-09	1.971257e+01	2.906757e+02
1.060000e-06	2.975942e-06	4.739042e-09	2.053504e+01	3.103490e+02
1.070000e-06	3.094077e-06	5.024900e-09	2.135021e+01	3.290872e+02
1.080000e-06	3.211145e-06	5.298074e-09	2.215802e+01	3.469130e+02
1.090000e-06	3.327014e-06	5.556098e-09	2.295756e+01	3.638688e+02
1.100000e-06	3.441512e-06	5.798569e-09	2.374763e+01	3.800093e+02
1.110000e-06	3.554539e-06	6.029807e-09	2.452756e+01	3.953950e+02
1.120000e-06	3.666231e-06	6.252692e-09	2.529827e+01	4.100863e+02
1.130000e-06	3.776724e-06	6.466361e-09	2.606071e+01	4.241384e+02
1.140000e-06	3.886017e-06	6.669805e-09	2.681487e+01	4.375982e+02
1.150000e-06	3.994111e-06	6.865493e-09	2.756076e+01	4.505034e+02
1.160000e-06	4.100805e-06	7.056371e-09	2.829698e+01	4.628820e+02
1.170000e-06	4.205862e-06	7.240311e-09	2.902191e+01	4.747543e+02
1.180000e-06	4.309331e-06	7.413380e-09	2.973588e+01	4.861348e+02
1.190000e-06	4.411360e-06	7.577937e-09	3.043992e+01	4.970351e+02
1.200000e-06	4.511912e-06	7.734219e-09	3.113377e+01	5.074662e+02
1.210000e-06	4.610899e-06	7.882025e-09	3.181681e+01	5.174404e+02
1.220000e-06	4.708075e-06	8.023534e-09	3.248736e+01	5.269725e+02
1.230000e-06	4.803361e-06	8.161610e-09	3.314487e+01	5.360801e+02
1.240000e-06	4.896980e-06	8.297824e-09	3.379087e+01	5.447827e+02
1.250000e-06	4.989072e-06	8.430683e-09	3.442634e+01	5.531011e+02
1.260000e-06	5.079453e-06	8.559120e-09	3.505000e+01	5.610553e+02
1.270000e-06	5.167867e-06	8.680472e-09	3.566009e+01	5.686637e+02
1.280000e-06	5.254382e-06	8.792118e-09	3.625707e+01	5.759415e+02
1.290000e-06	5.339124e-06	8.898350e-09	3.684182e+01	5.829001e+02
1.300000e-06	5.422049e-06	8.999470e-09	3.741403e+01	5.895479e+02
1.310000e-06	5.502959e-06	9.093240e-09	3.797233e+01	5.958902e+02
1.320000e-06	5.581786e-06	9.180838e-09	3.851627e+01	6.019313e+02
1.330000e-06	5.658584e-06	9.266307e-09	3.904620e+01	6.076754e+02
1.340000e-06	5.733222e-06	9.350763e-09	3.956123e+01	6.131287e+02
1.350000e-06	5.805623e-06	9.429948e-09	4.006082e+01	6.183003e+02
1.360000e-06	5.875947e-06	9.504169e-09	4.054608e+01	6.232033e+02
1.370000e-06	5.944262e-06	9.575160e-09	4.101748e+01	6.278544e+02
1.380000e-06	6.010396e-06	9.642289e-09	4.147382e+01	6.322734e+02
1.390000e-06	6.074305e-06	9.706916e-09	4.191482e+01	6.364817e+02
1.400000e-06	6.136165e-06	9.768956e-09	4.234168e+01	6.405005e+02
1.410000e-06	6.196038e-06	9.828024e-09	4.275482e+01	6.443487e+02
1.420000e-06	6.253672e-06	9.884271e-09	4.315252e+01	6.480409e+02
1.430000e-06	6.309009e-06	9.937809e-09	4.353436e+01	6.515861e+02
1.440000e-06	6.362091e-06	9.990422e-09	4.390064e+01	6.549869e+02
1.450000e-06	6.412600e-06	1.004164e-08	4.424918e+01	6.582393e+02
1.460000e-06	6.460489e-06	1.008971e-08	4.457962e+01	6.613341e+02
1.470000e-06	6.506078e-06	1.013476e-08	4.489420e+01	6.642582e+02
1.480000e-06	6.549521e-06	1.017571e-08	4.519398e+01	6.669972e+02
1.490000e-06	6.590529e-06	1.021289e-08	4.547695e+01	6.695372e+02
1.500000e-06	6.629095e-06	1.024628e-08	4.574307e+01	6.718677e+02
1.510000e-06	6.665519e-06	1.027533e-08	4.599440e+01	6.739833e+02
1.520000e-06	6.699611e-06	1.030207e-08	4.622965e+01	6.758845e+02
1.530000e-06	6.731234e-06	1.032768e-08	4.644786e+01	6.775783e+02
1.540000e-06	6.760562e-06	1.035283e-08	4.665023e+01	6.790772e+02
1.550000e-06	6.787552e-06	1.037697e-08	4.683648e+01	6.803980e+02
1.560000e-06	6.812003e-06	1.039780e-08	4.700519e+01	6.815595e+02
1.570000e-06	6.833999e-06	1.041398e-08	4.715697e+01	6.825805e+02
1.580000e-06	6.853718e-06	1.042706e-08	4.729304e+01	6.834769e+02
1.590000e-06	6.870998e-06	1.043750e-08	4.741228e+01	6.842606e+02
1.600000e-06	6.885686e-06	1.044472e-08	4.751364e+01	6.849377e+02
1.610000e-06	6.897793e-06	1.045203e-08	4.759717e+01	6.855086e+02
1.620000e-06	6.907129e-06	1.046054e-08	4.766160e+01	6.859683e+02
1.630000e-06	6.913806e-06	1.046648e-08	4.770767e+01	6.863077e+02
1.640000e-06	6.918158e-06	1.046982e-08	4.773770e+01	6.865158e+02
1.650000e-06	6.920049e-06	1.047240e-08	4.775075e+01	6.865820e+02
1.660000e-06	6.919463e-06	1.047200e-08	4.774671e+01	6.864977e+02
1.670000e-06	6.916663e-06	1.046345e-08	4.772738e+01	6.862591e+02
1.680000e-06	6.911637e-06	1.045630e-08	4.769270e+01	6.858678e+02
1.690000e-06	6.904241e-06	1.044897e-08	4.764167e+01	6.853314e+02
1.700000e-06	6.894609e-06	1.043988e-08	4.757520e+01	6.846631e+02
1.710000e-06	6.882733e-06	1.043219e-08	4.749326e+01	6.838804e+02
1.720000e-06	6.868393e-06	1.042917e-08	4.739430e+01	6.830034e+02
1.730000e-06	6.851809e-06	1.042164e-08	4.727987e+01	6.820520e+02
1.740000e-06	6.833160e-06	1.034932e-08	4.715119e+01	6.810443e+02
1.750000e-06	6.811826e-06	1.030205e-08	4.700397e+01	6.799939e+02
1.760000e-06	6.787171e-06	1.032871e-08	4.683385e+01	6.789087e+02
1.770000e-06	6.759574e-06	1.031389e-08	4.664342e+01	6.777898e+02
1.780000e-06	6.729618e-06	1.031982e-08	4.643671e+01	6.766312e+02
1.790000e-06	6.697791e-06	1.038262e-08	4.621709e+01	6.754213e+02
1.800000e-06	6.664608e-06	1.026678e-08	4.598812e+01	6.741433e+02
1.810000e-06	6.629501e-06	1.022378e-08	4.574586e+01	6.727776e+02
1.820000e-06	6.591726e-06	1.029881e-08	4.548521e+01	6.713038e+02
1.830000e-06	6.551727e-06	1.019917e-08	4.520920e+01	6.697024e+02
1.840000e-06	6.509616e-06	1.023176e-08	4.491862e+01	6.679566e+02
1.850000e-06	6.465201e-06	1.016252e-08	4.461214e+01	6.660538e+02
1.860000e-06	6.418569e-06	1.005926e-08	4.429036e+01	6.639858e+02
1.870000e-06	6.369496e-06	1.013577e-08	4.395174e+01	6.617489e+02
1.880000e-06	6.318079e-06	1.004561e-08	4.359694e+01	6.593439e+02
1.890000e-06	6.264143e-06	1.005192e-08	4.322477e+01	6.567747e+02
1.900000e-06	6.207561e-06	9.999931e-09	4.283433e+01	6.540475e+02
1.910000e-06	6.148724e-06	9.880496e-09	4.242834e+01	6.511693e+02
1.920000e-06	6.087533e-06	9.903050e-09	4.200610e+01	6.481475e+02
1.930000e-06	6.024014e-06	9.815115e-09	4.156779e+01	6.449883e+02
1.940000e-06	5.958363e-06	9.811652e-09	4.111478e+01	6.416967e+02
1.950000e-06	5.890559e-06	9.752961e-09	4.064691e+01	6.382760e+02
1.960000e-06	5.820461e-06	9.668028e-09	4.016321e+01	6.347281e+02
1.970000e-06	5.747944e-06	9.631924e-09	3.966282e+01	6.310535e+02
1.980000e-06	5.673317e-06	9.527643e-09	3.914786e+01	6.272515e+02
1.990000e-06	5.596515e-06	9.533776e-09	3.861790e+01	6.233210e+02
2.000000e-06	5.517465e-06	9.459496e-09	3.807243e+01	6.192603e+02
2.010000e-06	5.436422e-06	9.381465e-09	3.751321e+01	6.150674e+02
2.020000e-06	5.353519e-06	9.318525e-09	3.694115e+01	6.107399e+02
2.030000e-06	5.268791e-06	9.229558e-09	3.635649e+01	6.062752e+02
2.040000e-06	5.182030e-06	9.175154e-09	3.575781e+01	6.016701e+02
2.050000e-06	5.093360e-06	9.090386e-09	3.514596e+01	5.969208e+02
2.060000e-06	5.003076e-06	9.033479e-09	3.452297e+01	5.920231e+02
2.070000e-06	4.911187e-06	8.944244e-09	3.388890e+01	5.869723e+02
2.080000e-06	4.817533e-06	8.865208e-09	3.324266e+01	5.817633e+02
2.090000e-06	4.722083e-06	8.787218e-09	3.258402e+01	5.763916e+02
2.100000e-06	4.624987e-06	8.709961e-09	3.191402e+01	5.708530e+02
2.110000e-06	4.526413e-06	8.622801e-09	3.123383e+01	5.651440e+02
2.120000e-06	4.426380e-06	8.512228e-09	3.054356e+01	5.592627e+02
2.130000e-06	4.324669e-06	8.424268e-09	2.984173e+01	5.532078e+02
2.140000e-06	4.221270e-06	8.333327e-09	2.912824e+01	5.469794e+02
2.150000e-06	4.116306e-06	8.249358e-09	2.840395e+01	5.405778e+02
2.160000e-06	4.009957e-06	8.149450e-09	2.767010e+01	5.340035e+02
2.170000e-06	3.902238e-06	8.045129e-09	2.692680e+01	5.272561e+02
2.180000e-06	3.793120e-06	7.933161e-09	2.617385e+01	5.203340e+02
2.190000e-06	3.682644e-06	7.823714e-09	2.541153e+01	5.132337e+02
2.200000e-06	3.570710e-06	7.716472e-09	2.463915e+01	5.059493e+02
2.210000e-06	3.457404e-06	7.605283e-09	2.385729e+01	4.984733e+02
2.220000e-06	3.342719e-06	7.484825e-09	2.306593e+01	4.907961e+02
2.230000e-06	3.226603e-06	7.355277e-09	2.226469e+01	4.829071e+02
2.240000e-06	3.109144e-06	7.231484e-09	2.145418e+01	4.747956e+02
2.250000e-06	2.990437e-06	7.108164e-09	2.063505e+01	4.664514e+02
2.260000e-06	2.870516e-06	6.986287e-09	1.980756e+01	4.578657e+02
2.270000e-06	2.749500e-06	6.851976e-09	1.897251e+01	4.490320e+02
2.280000e-06	2.627619e-06	6.712368e-09	1.813149e+01	4.399455e+02
2.290000e-06	2.504919e-06	6.569716e-09	1.728481e+01	4.306038e+02
2.300000e-06	2.381289e-06	6.426615e-09	1.643172e+01	4.210055e+02
2.310000e-06	2.256771e-06	6.278873e-09	1.557251e+01	4.111499e+02
2.320000e-06	2.131500e-06	6.124347e-09	1.470809e+01	4.010352e+02
2.330000e-06	2.005486e-06	5.961788e-09	1.383855e+01	3.906579e+02
2.340000e-06	1.878740e-06	5.795762e-09	1.296396e+01	3.800116e+02
2.350000e-06	1.751337e-06	5.631945e-09	1.208484e+01	3.690867e+02
2.360000e-06	1.623303e-06	5.467013e-09	1.120135e+01	3.578700e+02
2.370000e-06	1.494714e-06	5.295702e-09	1.031404e+01	3.463459e+02
2.380000e-06	1.365670e-06	5.112980e-09	9.423600e+00	3.344967e+02
2.390000e-06	1.236260e-06	4.926046e-09	8.530623e+00	3.223043e+02
2.400000e-06	1.106549e-06	4.732828e-09	7.635572e+00	3.097517e+02
2.410000e-06	9.764904e-07	4.533090e-09	6.738124e+00	2.968243e+02
2.420000e-06	8.460891e-07	4.329051e-09	5.838310e+00	2.835104e+02
2.430000e-06	7.153904e-07	4.118382e-09	4.936443e+00	2.698019e+02
2.440000e-06	5.844605e-07	3.903365e-09	4.032981e+00	2.556933e+02
2.450000e-06	4.533532e-07	3.684929e-09	3.128295e+00	2.411803e+02
2.460000e-06	3.220865e-07	3.460514e-09	2.222509e+00	2.262579e+02
2.470000e-06	1.906909e-07	3.228632e-09	1.315834e+00	2.109176e+02
2.480000e-06	5.914979e-08	2.986819e-09	4.081541e-01	1.951451e+02
2.490000e-06	-7.244595e-08	2.736693e-09	-4.999023e-01	1.789185e+02
2.500000e-06	-2.039836e-07	2.479828e-09	-1.407558e+00	1.622065e+02
2.510000e-06	-3.354528e-07	2.213219e-09	-2.314741e+00	1.449692e+02
2.520000e-06	-4.668220e-07	1.936536e-09	-3.221234e+00	1.271592e+02
2.530000e-06	-5.980174e-07	1.653348e-09	-4.126528e+00	1.087254e+02
2.540000e-06	-7.290328e-07	1.362322e-09	-5.030581e+00	8.961785e+01
2.550000e-06	-8.597823e-07	1.061598e-09	-5.932798e+00	6.979323e+01
2.560000e-06	-9.901844e-07	7.530130e-10	-6.832618e+00	4.922200e+01
2.570000e-06	-1.120250e-06	4.329709e-10	-7.730118e+00	2.789468e+01
2.580000e-06	-1.249931e-06	1.002537e-10	-8.624961e+00	5.827684e+00
2.590000e-06	-1.379276e-06	-2.436126e-10	-9.517484e+00	-1.693246e+01
2.600000e-06	-1.508295e-06	-5.975079e-10	-1.040776e+01	-4.030700e+01
2.610000e-06	-1.636770e-06	-9.621742e-10	-1.129428e+01	-6.418531e+01
2.620000e-06	-1.764545e-06	-1.336232e-09	-1.217597e+01	-8.842797e+01
2.630000e-06	-1.891647e-06	-1.713150e-09	-1.305302e+01	-1.128723e+02
2.640000e-06	-2.018018e-06	-2.086186e-09	-1.392503e+01	-1.373402e+02
2.650000e-06	-2.143638e-06	-2.455502e-09	-1.479185e+01	-1.616469e+02
2.660000e-06	-2.268365e-06	-2.821866e-09	-1.565251e+01	-1.856115e+02
2.670000e-06	-2.392107e-06	-3.180264e-09	-1.650638e+01	-2.090656e+02
2.680000e-06	-2.514909e-06	-3.528600e-09	-1.735375e+01	-2.318625e+02
2.690000e-06	-2.636751e-06	-3.863632e-09	-1.819450e+01	-2.538834e+02
2.700000e-06	-2.757708e-06	-4.185517e-09	-1.902914e+01	-2.750414e+02
2.710000e-06	-2.877701e-06	-4.491598e-09	-1.985714e+01	-2.952835e+02
2.720000e-06	-2.996569e-06	-4.783652e-09	-2.067737e+01	-3.145886e+02
2.730000e-06	-3.114211e-06	-5.065844e-09	-2.148914e+01	-3.329648e+02
2.740000e-06	-3.230565e-06	-5.336816e-09	-2.229203e+01	-3.504433e+02
2.750000e-06	-3.345607e-06	-5.595502e-09	-2.308586e+01	-3.670722e+02
2.760000e-06	-3.459326e-06	-5.838403e-09	-2.387056e+01	-3.829092e+02
2.770000e-06	-3.571623e-06	-6.067504e-09	-2.464545e+01	-3.980156e+02
2.780000e-06	-3.682438e-06	-6.287747e-09	-2.541011e+01	-4.124499e+02
2.790000e-06	-3.791949e-06	-6.498701e-09	-2.616577e+01	-4.262647e+02
2.800000e-06	-3.900314e-06	-6.702899e-09	-2.691353e+01	-4.395031e+02
2.810000e-06	-4.007472e-06	-6.900603e-09	-2.765296e+01	-4.521989e+02
2.820000e-06	-4.113292e-06	-7.090462e-09	-2.838315e+01	-4.643770e+02
2.830000e-06	-4.217683e-06	-7.272253e-09	-2.910348e+01	-4.760549e+02
2.840000e-06	-4.320440e-06	-7.443464e-09	-2.981254e+01	-4.872459e+02
2.850000e-06	-4.421479e-06	-7.605519e-09	-3.050975e+01	-4.979609e+02
2.860000e-06	-4.520970e-06	-7.757838e-09	-3.119627e+01	-5.082113e+02
2.870000e-06	-4.618994e-06	-7.903121e-09	-3.187267e+01	-5.180103e+02
2.880000e-06	-4.715487e-06	-8.043384e-09	-3.253850e+01	-5.273738e+02
2.890000e-06	-4.810274e-06	-8.178211e-09	-3.319257e+01	-5.363202e+02
2.900000e-06	-4.903263e-06	-8.309102e-09	-3.383423e+01	-5.448698e+02
2.910000e-06	-4.994507e-06	-8.435025e-09	-3.446384e+01	-5.530432e+02
2.920000e-06	-5.083957e-06	-8.556245e-09	-3.508107e+01	-5.608600e+02
2.930000e-06	-5.171597e-06	-8.671660e-09	-3.568582e+01	-5.683372e+02
2.940000e-06	-5.257289e-06	-8.781466e-09	-3.627713e+01	-5.754888e+02
