# Temperatura_=_39.4
# Concentracion g/m^3_=_15000.0
# C_Vs_to_Am_M_A/Vsm_=_65563218390.804596
# pendiente_HvsI_1/m_=_3716.3
# ordenada_HvsI_A/m_=_1297.0
# frecuencia_Hz_=_301961.20538682485

Tiempo_(s)	Campo_(V.s)	Magnetizacion_(V.s)	Campo_(kA/m)	Magnetizacion_(A/m)
0.000000e+00	-6.880763e-06	-1.015176e-08	-4.748494e+01	-6.658154e+02
1.000000e-08	-6.878844e-06	-1.015502e-08	-4.747169e+01	-6.657326e+02
2.000000e-08	-6.874572e-06	-1.015233e-08	-4.744221e+01	-6.655021e+02
3.000000e-08	-6.868198e-06	-1.014604e-08	-4.739823e+01	-6.651246e+02
4.000000e-08	-6.859591e-06	-1.014234e-08	-4.733882e+01	-6.646062e+02
5.000000e-08	-6.848559e-06	-1.013580e-08	-4.726269e+01	-6.639591e+02
6.000000e-08	-6.835002e-06	-1.012542e-08	-4.716913e+01	-6.631995e+02
7.000000e-08	-6.818955e-06	-1.010292e-08	-4.705839e+01	-6.623463e+02
8.000000e-08	-6.800648e-06	-1.008843e-08	-4.693206e+01	-6.614190e+02
9.000000e-08	-6.780143e-06	-1.014337e-08	-4.679055e+01	-6.604352e+02
1.000000e-07	-6.757088e-06	-1.014708e-08	-4.663144e+01	-6.594087e+02
1.100000e-07	-6.731133e-06	-1.006810e-08	-4.645232e+01	-6.583483e+02
1.200000e-07	-6.702536e-06	-1.003320e-08	-4.625497e+01	-6.572563e+02
1.300000e-07	-6.671827e-06	-1.000741e-08	-4.604305e+01	-6.561283e+02
1.400000e-07	-6.639173e-06	-9.913138e-09	-4.581770e+01	-6.549544e+02
1.500000e-07	-6.604601e-06	-9.951554e-09	-4.557912e+01	-6.537192e+02
1.600000e-07	-6.568052e-06	-1.003597e-08	-4.532688e+01	-6.524042e+02
1.700000e-07	-6.529432e-06	-9.870594e-09	-4.506036e+01	-6.509895e+02
1.800000e-07	-6.488620e-06	-9.910088e-09	-4.477871e+01	-6.494550e+02
1.900000e-07	-6.445380e-06	-9.927504e-09	-4.448031e+01	-6.477828e+02
2.000000e-07	-6.399683e-06	-9.814873e-09	-4.416495e+01	-6.459581e+02
2.100000e-07	-6.351614e-06	-9.886927e-09	-4.383322e+01	-6.439701e+02
2.200000e-07	-6.300859e-06	-9.811893e-09	-4.348296e+01	-6.418124e+02
2.300000e-07	-6.247421e-06	-9.732472e-09	-4.311417e+01	-6.394828e+02
2.400000e-07	-6.191631e-06	-9.706244e-09	-4.272916e+01	-6.369829e+02
2.500000e-07	-6.133433e-06	-9.653714e-09	-4.232753e+01	-6.343170e+02
2.600000e-07	-6.072954e-06	-9.649195e-09	-4.191016e+01	-6.314919e+02
2.700000e-07	-6.010343e-06	-9.597675e-09	-4.147807e+01	-6.285149e+02
2.800000e-07	-5.945529e-06	-9.532175e-09	-4.103078e+01	-6.253941e+02
2.900000e-07	-5.878480e-06	-9.458902e-09	-4.056807e+01	-6.221367e+02
3.000000e-07	-5.809171e-06	-9.430741e-09	-4.008976e+01	-6.187491e+02
3.100000e-07	-5.737771e-06	-9.406973e-09	-3.959702e+01	-6.152364e+02
3.200000e-07	-5.664188e-06	-9.325647e-09	-3.908922e+01	-6.116022e+02
3.300000e-07	-5.588273e-06	-9.295783e-09	-3.856532e+01	-6.078485e+02
3.400000e-07	-5.510106e-06	-9.214275e-09	-3.802587e+01	-6.039758e+02
3.500000e-07	-5.429728e-06	-9.139234e-09	-3.747118e+01	-5.999833e+02
3.600000e-07	-5.347360e-06	-9.099634e-09	-3.690275e+01	-5.958687e+02
3.700000e-07	-5.263271e-06	-9.040064e-09	-3.632244e+01	-5.916287e+02
3.800000e-07	-5.177475e-06	-8.969166e-09	-3.573035e+01	-5.872587e+02
3.900000e-07	-5.089952e-06	-8.879479e-09	-3.512634e+01	-5.827535e+02
4.000000e-07	-5.000582e-06	-8.819946e-09	-3.450959e+01	-5.781073e+02
4.100000e-07	-4.909306e-06	-8.754575e-09	-3.387968e+01	-5.733139e+02
4.200000e-07	-4.816348e-06	-8.688920e-09	-3.323817e+01	-5.683675e+02
4.300000e-07	-4.721781e-06	-8.602683e-09	-3.258555e+01	-5.632627e+02
4.400000e-07	-4.625548e-06	-8.509726e-09	-3.192144e+01	-5.579949e+02
4.500000e-07	-4.527557e-06	-8.429150e-09	-3.124519e+01	-5.525609e+02
4.600000e-07	-4.427906e-06	-8.342120e-09	-3.055749e+01	-5.469587e+02
4.700000e-07	-4.326770e-06	-8.264902e-09	-2.985954e+01	-5.411876e+02
4.800000e-07	-4.224148e-06	-8.176080e-09	-2.915133e+01	-5.352479e+02
4.900000e-07	-4.120090e-06	-8.074619e-09	-2.843321e+01	-5.291403e+02
5.000000e-07	-4.014479e-06	-7.968716e-09	-2.770438e+01	-5.228657e+02
5.100000e-07	-3.907261e-06	-7.873994e-09	-2.696445e+01	-5.164242e+02
5.200000e-07	-3.798709e-06	-7.780858e-09	-2.621533e+01	-5.098146e+02
5.300000e-07	-3.688901e-06	-7.680209e-09	-2.545753e+01	-5.030339e+02
5.400000e-07	-3.577782e-06	-7.572028e-09	-2.469069e+01	-4.960773e+02
5.500000e-07	-3.465264e-06	-7.457558e-09	-2.391418e+01	-4.889378e+02
5.600000e-07	-3.351141e-06	-7.346141e-09	-2.312661e+01	-4.816068e+02
5.700000e-07	-3.235480e-06	-7.231766e-09	-2.232842e+01	-4.740745e+02
5.800000e-07	-3.118554e-06	-7.113878e-09	-2.152150e+01	-4.663309e+02
5.900000e-07	-3.000476e-06	-6.987757e-09	-2.070663e+01	-4.583664e+02
6.000000e-07	-2.881326e-06	-6.860872e-09	-1.988436e+01	-4.501723e+02
6.100000e-07	-2.761200e-06	-6.735771e-09	-1.905536e+01	-4.417420e+02
6.200000e-07	-2.640054e-06	-6.610561e-09	-1.821932e+01	-4.330704e+02
6.300000e-07	-2.517754e-06	-6.475330e-09	-1.737531e+01	-4.241542e+02
6.400000e-07	-2.394386e-06	-6.327776e-09	-1.652393e+01	-4.149913e+02
6.500000e-07	-2.270179e-06	-6.177060e-09	-1.566677e+01	-4.055797e+02
6.600000e-07	-2.145256e-06	-6.029509e-09	-1.480466e+01	-3.959170e+02
6.700000e-07	-2.019687e-06	-5.882920e-09	-1.393810e+01	-3.859987e+02
6.800000e-07	-1.893483e-06	-5.730868e-09	-1.306714e+01	-3.758179e+02
6.900000e-07	-1.766598e-06	-5.572956e-09	-1.219149e+01	-3.653646e+02
7.000000e-07	-1.639073e-06	-5.405033e-09	-1.131143e+01	-3.546256e+02
7.100000e-07	-1.510989e-06	-5.232074e-09	-1.042751e+01	-3.435853e+02
7.200000e-07	-1.382440e-06	-5.059039e-09	-9.540376e+00	-3.322260e+02
7.300000e-07	-1.253456e-06	-4.882635e-09	-8.650247e+00	-3.205300e+02
7.400000e-07	-1.124049e-06	-4.696644e-09	-7.757190e+00	-3.084804e+02
7.500000e-07	-9.942773e-07	-4.503447e-09	-6.861622e+00	-2.960627e+02
7.600000e-07	-8.641126e-07	-4.311195e-09	-5.963340e+00	-2.832659e+02
7.700000e-07	-7.336131e-07	-4.117461e-09	-5.062748e+00	-2.700821e+02
7.800000e-07	-6.028370e-07	-3.913547e-09	-4.160248e+00	-2.565071e+02
7.900000e-07	-4.717880e-07	-3.699804e-09	-3.255863e+00	-2.425382e+02
8.000000e-07	-3.406359e-07	-3.480695e-09	-2.350768e+00	-2.281729e+02
8.100000e-07	-2.093378e-07	-3.255450e-09	-1.444664e+00	-2.134059e+02
8.200000e-07	-7.783071e-08	-3.024774e-09	-5.371187e-01	-1.982272e+02
8.300000e-07	5.371333e-08	-2.787751e-09	3.706819e-01	-1.826189e+02
8.400000e-07	1.852362e-07	-2.541810e-09	1.278336e+00	-1.665545e+02
8.500000e-07	3.166943e-07	-2.288276e-09	2.185544e+00	-1.499977e+02
8.600000e-07	4.480802e-07	-2.028787e-09	3.092253e+00	-1.329042e+02
8.700000e-07	5.793363e-07	-1.762159e-09	3.998066e+00	-1.152236e+02
8.800000e-07	7.103570e-07	-1.482667e-09	4.902256e+00	-9.690392e+01
8.900000e-07	8.410905e-07	-1.191362e-09	5.804462e+00	-7.789699e+01
9.000000e-07	9.715403e-07	-8.904652e-10	6.704711e+00	-5.816492e+01
9.100000e-07	1.101665e-06	-5.788362e-10	7.602720e+00	-3.768652e+01
9.200000e-07	1.231376e-06	-2.553635e-10	8.497870e+00	-1.646352e+01
9.300000e-07	1.360665e-06	7.952417e-11	9.390105e+00	5.474500e+00
9.400000e-07	1.489504e-06	4.237332e-10	1.027924e+01	2.806694e+01
9.500000e-07	1.617801e-06	7.772401e-10	1.116463e+01	5.122133e+01
9.600000e-07	1.745493e-06	1.136927e-09	1.204585e+01	7.481499e+01
9.700000e-07	1.872502e-06	1.503025e-09	1.292235e+01	9.869936e+01
9.800000e-07	1.998764e-06	1.873073e-09	1.379370e+01	1.227065e+02
9.900000e-07	2.124346e-06	2.242157e-09	1.466036e+01	1.466574e+02
1.000000e-06	2.249291e-06	2.606333e-09	1.552262e+01	1.703713e+02
1.010000e-06	2.373507e-06	2.962102e-09	1.637985e+01	1.936755e+02
1.020000e-06	2.496870e-06	3.308549e-09	1.723119e+01	2.164140e+02
1.030000e-06	2.619285e-06	3.643988e-09	1.807599e+01	2.384549e+02
1.040000e-06	2.740628e-06	3.967886e-09	1.891339e+01	2.596961e+02
1.050000e-06	2.860883e-06	4.276757e-09	1.974328e+01	2.800677e+02
1.060000e-06	2.980083e-06	4.570132e-09	2.056590e+01	2.995323e+02
1.070000e-06	3.098207e-06	4.850757e-09	2.138109e+01	3.180831e+02
1.080000e-06	3.215231e-06	5.121945e-09	2.218868e+01	3.357388e+02
1.090000e-06	3.331005e-06	5.380382e-09	2.298765e+01	3.525381e+02
1.100000e-06	3.445425e-06	5.623468e-09	2.377727e+01	3.685331e+02
1.110000e-06	3.558490e-06	5.853928e-09	2.455755e+01	3.837822e+02
1.120000e-06	3.670226e-06	6.074605e-09	2.532866e+01	3.983441e+02
1.130000e-06	3.780719e-06	6.286889e-09	2.609118e+01	4.122729e+02
1.140000e-06	3.890015e-06	6.489195e-09	2.684544e+01	4.256149e+02
1.150000e-06	3.998051e-06	6.683966e-09	2.759101e+01	4.384068e+02
1.160000e-06	4.104646e-06	6.873093e-09	2.832663e+01	4.506755e+02
1.170000e-06	4.209677e-06	7.053556e-09	2.905146e+01	4.624397e+02
1.180000e-06	4.313163e-06	7.223308e-09	2.976564e+01	4.737121e+02
1.190000e-06	4.415126e-06	7.386204e-09	3.046929e+01	4.845016e+02
1.200000e-06	4.515580e-06	7.541432e-09	3.116254e+01	4.948166e+02
1.210000e-06	4.614423e-06	7.688831e-09	3.184466e+01	5.046667e+02
1.220000e-06	4.711496e-06	7.830028e-09	3.251457e+01	5.140644e+02
1.230000e-06	4.806766e-06	7.967148e-09	3.317204e+01	5.230254e+02
1.240000e-06	4.900398e-06	8.101611e-09	3.381821e+01	5.315687e+02
1.250000e-06	4.992406e-06	8.231059e-09	3.445317e+01	5.397152e+02
1.260000e-06	5.082584e-06	8.354684e-09	3.507550e+01	5.474867e+02
1.270000e-06	5.170864e-06	8.470853e-09	3.568473e+01	5.549040e+02
1.280000e-06	5.257282e-06	8.580385e-09	3.628111e+01	5.619857e+02
1.290000e-06	5.341898e-06	8.685599e-09	3.686505e+01	5.687474e+02
1.300000e-06	5.424635e-06	8.784792e-09	3.743603e+01	5.752014e+02
1.310000e-06	5.505365e-06	8.875300e-09	3.799316e+01	5.813566e+02
1.320000e-06	5.584073e-06	8.959698e-09	3.853633e+01	5.872201e+02
1.330000e-06	5.660770e-06	9.043154e-09	3.906562e+01	5.927979e+02
1.340000e-06	5.735334e-06	9.126910e-09	3.958020e+01	5.980967e+02
1.350000e-06	5.807678e-06	9.204931e-09	4.007946e+01	6.031250e+02
1.360000e-06	5.877923e-06	9.275446e-09	4.056422e+01	6.078937e+02
1.370000e-06	5.946126e-06	9.340989e-09	4.103490e+01	6.124169e+02
1.380000e-06	6.012127e-06	9.404666e-09	4.149038e+01	6.167113e+02
1.390000e-06	6.075923e-06	9.466895e-09	4.193065e+01	6.207951e+02
1.400000e-06	6.137679e-06	9.526052e-09	4.235683e+01	6.246869e+02
1.410000e-06	6.197414e-06	9.582654e-09	4.276907e+01	6.284035e+02
1.420000e-06	6.254999e-06	9.637843e-09	4.316647e+01	6.319587e+02
1.430000e-06	6.310355e-06	9.692647e-09	4.354849e+01	6.353616e+02
1.440000e-06	6.363374e-06	9.745891e-09	4.391438e+01	6.386160e+02
1.450000e-06	6.413739e-06	9.794184e-09	4.426195e+01	6.417200e+02
1.460000e-06	6.461470e-06	9.835410e-09	4.459135e+01	6.446669e+02
1.470000e-06	6.506930e-06	9.874003e-09	4.490508e+01	6.474464e+02
1.480000e-06	6.550247e-06	9.910525e-09	4.520401e+01	6.500465e+02
1.490000e-06	6.591231e-06	9.944894e-09	4.548685e+01	6.524557e+02
1.500000e-06	6.629806e-06	9.977639e-09	4.575305e+01	6.546649e+02
1.510000e-06	6.666164e-06	1.000593e-08	4.600397e+01	6.566695e+02
1.520000e-06	6.700229e-06	1.003136e-08	4.623905e+01	6.584705e+02
1.530000e-06	6.731800e-06	1.005641e-08	4.645692e+01	6.600744e+02
1.540000e-06	6.761041e-06	1.007955e-08	4.665872e+01	6.614936e+02
1.550000e-06	6.787987e-06	1.009751e-08	4.684468e+01	6.627444e+02
1.560000e-06	6.812379e-06	1.011203e-08	4.701301e+01	6.638460e+02
1.570000e-06	6.834270e-06	1.012682e-08	4.716408e+01	6.648173e+02
1.580000e-06	6.853859e-06	1.014163e-08	4.729927e+01	6.656756e+02
1.590000e-06	6.870979e-06	1.015357e-08	4.741742e+01	6.664341e+02
1.600000e-06	6.885502e-06	1.016028e-08	4.751764e+01	6.671008e+02
1.610000e-06	6.897376e-06	1.016642e-08	4.759958e+01	6.676777e+02
1.620000e-06	6.906516e-06	1.017445e-08	4.766266e+01	6.681611e+02
1.630000e-06	6.913113e-06	1.018124e-08	4.770819e+01	6.685425e+02
1.640000e-06	6.917413e-06	1.018530e-08	4.773787e+01	6.688104e+02
1.650000e-06	6.919280e-06	1.018880e-08	4.775075e+01	6.689523e+02
1.660000e-06	6.918645e-06	1.018898e-08	4.774636e+01	6.689569e+02
1.670000e-06	6.915783e-06	1.018031e-08	4.772661e+01	6.688164e+02
1.680000e-06	6.910684e-06	1.017504e-08	4.769143e+01	6.685279e+02
1.690000e-06	6.903184e-06	1.016841e-08	4.763967e+01	6.680939e+02
1.700000e-06	6.893428e-06	1.016103e-08	4.757234e+01	6.675233e+02
1.710000e-06	6.881428e-06	1.015608e-08	4.748953e+01	6.668299e+02
1.720000e-06	6.866953e-06	1.015844e-08	4.738963e+01	6.660312e+02
1.730000e-06	6.850211e-06	1.015418e-08	4.727410e+01	6.651467e+02
1.740000e-06	6.831454e-06	1.005674e-08	4.714465e+01	6.641952e+02
1.750000e-06	6.810048e-06	1.001853e-08	4.699693e+01	6.631933e+02
1.760000e-06	6.785263e-06	1.006615e-08	4.682588e+01	6.621529e+02
1.770000e-06	6.757521e-06	1.004365e-08	4.663443e+01	6.610801e+02
1.780000e-06	6.727458e-06	1.006615e-08	4.642696e+01	6.599749e+02
1.790000e-06	6.695613e-06	1.012423e-08	4.620720e+01	6.588304e+02
1.800000e-06	6.662382e-06	9.957736e-09	4.597786e+01	6.576344e+02
1.810000e-06	6.627181e-06	9.966881e-09	4.573494e+01	6.563703e+02
1.820000e-06	6.589348e-06	1.005518e-08	4.547385e+01	6.550186e+02
1.830000e-06	6.549298e-06	9.933769e-09	4.519746e+01	6.535591e+02
1.840000e-06	6.507134e-06	1.002386e-08	4.490648e+01	6.519725e+02
1.850000e-06	6.462668e-06	9.908242e-09	4.459962e+01	6.502420e+02
1.860000e-06	6.415973e-06	9.810324e-09	4.427737e+01	6.483542e+02
1.870000e-06	6.366837e-06	9.915179e-09	4.393828e+01	6.463001e+02
1.880000e-06	6.315377e-06	9.794120e-09	4.358315e+01	6.440750e+02
1.890000e-06	6.261315e-06	9.842514e-09	4.321006e+01	6.416781e+02
1.900000e-06	6.204579e-06	9.778279e-09	4.281852e+01	6.391124e+02
1.910000e-06	6.145626e-06	9.669058e-09	4.241167e+01	6.363831e+02
1.920000e-06	6.084262e-06	9.693565e-09	4.198820e+01	6.334974e+02
1.930000e-06	6.020593e-06	9.569257e-09	4.154881e+01	6.304630e+02
1.940000e-06	5.954835e-06	9.617585e-09	4.109500e+01	6.272877e+02
1.950000e-06	5.887018e-06	9.540630e-09	4.062699e+01	6.239785e+02
1.960000e-06	5.816882e-06	9.465413e-09	4.014297e+01	6.205413e+02
1.970000e-06	5.744235e-06	9.425176e-09	3.964163e+01	6.169806e+02
1.980000e-06	5.669533e-06	9.306505e-09	3.912610e+01	6.132993e+02
1.990000e-06	5.592530e-06	9.339328e-09	3.859469e+01	6.094989e+02
2.000000e-06	5.513286e-06	9.240410e-09	3.804782e+01	6.055793e+02
2.010000e-06	5.432214e-06	9.189073e-09	3.748833e+01	6.015392e+02
2.020000e-06	5.349379e-06	9.124381e-09	3.691668e+01	5.973758e+02
2.030000e-06	5.264720e-06	9.036733e-09	3.633244e+01	5.930854e+02
2.040000e-06	5.177913e-06	8.987942e-09	3.573337e+01	5.886630e+02
2.050000e-06	5.089196e-06	8.898430e-09	3.512113e+01	5.841031e+02
2.060000e-06	4.998874e-06	8.853595e-09	3.449780e+01	5.793999e+02
2.070000e-06	4.907040e-06	8.747833e-09	3.386405e+01	5.745471e+02
2.080000e-06	4.813425e-06	8.682767e-09	3.321800e+01	5.695390e+02
2.090000e-06	4.717851e-06	8.607227e-09	3.255843e+01	5.643707e+02
2.100000e-06	4.620697e-06	8.544319e-09	3.188796e+01	5.590379e+02
2.110000e-06	4.522083e-06	8.464089e-09	3.120742e+01	5.535381e+02
2.120000e-06	4.421995e-06	8.353905e-09	3.051670e+01	5.478696e+02
2.130000e-06	4.320239e-06	8.266486e-09	2.981447e+01	5.420322e+02
2.140000e-06	4.216741e-06	8.169772e-09	2.910022e+01	5.360264e+02
2.150000e-06	4.111717e-06	8.094382e-09	2.837543e+01	5.298532e+02
2.160000e-06	4.005342e-06	7.996977e-09	2.764133e+01	5.235131e+02
2.170000e-06	3.897633e-06	7.903115e-09	2.689802e+01	5.170058e+02
2.180000e-06	3.788507e-06	7.789136e-09	2.614492e+01	5.103295e+02
2.190000e-06	3.677918e-06	7.680442e-09	2.538174e+01	5.034804e+02
2.200000e-06	3.565938e-06	7.574302e-09	2.460895e+01	4.964529e+02
2.210000e-06	3.452622e-06	7.474367e-09	2.382694e+01	4.892393e+02
2.220000e-06	3.337916e-06	7.362407e-09	2.303534e+01	4.818304e+02
2.230000e-06	3.221834e-06	7.235116e-09	2.223425e+01	4.742164e+02
2.240000e-06	3.104370e-06	7.112929e-09	2.142361e+01	4.663871e+02
2.250000e-06	2.985561e-06	6.988878e-09	2.060370e+01	4.583333e+02
2.260000e-06	2.865575e-06	6.870794e-09	1.977567e+01	4.500472e+02
2.270000e-06	2.744605e-06	6.738244e-09	1.894084e+01	4.415226e+02
2.280000e-06	2.622734e-06	6.605761e-09	1.809979e+01	4.327553e+02
2.290000e-06	2.499988e-06	6.469559e-09	1.725271e+01	4.237424e+02
2.300000e-06	2.376355e-06	6.333373e-09	1.639950e+01	4.144821e+02
2.310000e-06	2.251872e-06	6.193109e-09	1.554043e+01	4.049723e+02
2.320000e-06	2.126687e-06	6.049037e-09	1.467651e+01	3.952098e+02
2.330000e-06	2.000714e-06	5.891020e-09	1.380716e+01	3.851894e+02
2.340000e-06	1.873919e-06	5.723358e-09	1.293213e+01	3.749029e+02
2.350000e-06	1.746427e-06	5.557822e-09	1.205230e+01	3.643392e+02
2.360000e-06	1.618347e-06	5.397342e-09	1.116840e+01	3.534838e+02
2.370000e-06	1.489764e-06	5.234424e-09	1.028103e+01	3.423203e+02
2.380000e-06	1.360755e-06	5.057739e-09	9.390727e+00	3.308309e+02
2.390000e-06	1.231403e-06	4.875700e-09	8.498055e+00	3.189979e+02
2.400000e-06	1.101662e-06	4.687571e-09	7.602693e+00	3.068053e+02
2.410000e-06	9.715354e-07	4.496528e-09	6.704678e+00	2.942399e+02
2.420000e-06	8.410978e-07	4.301391e-09	5.804513e+00	2.812917e+02
2.430000e-06	7.104204e-07	4.097996e-09	4.902693e+00	2.679547e+02
2.440000e-06	5.795540e-07	3.886957e-09	3.999569e+00	2.542252e+02
2.450000e-06	4.485065e-07	3.668635e-09	3.095195e+00	2.401010e+02
2.460000e-06	3.173004e-07	3.447404e-09	2.189726e+00	2.255788e+02
2.470000e-06	1.859791e-07	3.222779e-09	1.283463e+00	2.106517e+02
2.480000e-06	5.458785e-08	2.989263e-09	3.767171e-01	1.953068e+02
2.490000e-06	-7.691436e-08	2.746019e-09	-5.307948e-01	1.795230e+02
2.500000e-06	-2.084164e-07	2.495205e-09	-1.438306e+00	1.632700e+02
2.510000e-06	-3.397990e-07	2.237641e-09	-2.344992e+00	1.465082e+02
2.520000e-06	-4.710760e-07	1.970713e-09	-3.250949e+00	1.291902e+02
2.530000e-06	-6.022395e-07	1.695074e-09	-4.156124e+00	1.112647e+02
2.540000e-06	-7.332472e-07	1.409538e-09	-5.060223e+00	9.268035e+01
2.550000e-06	-8.639917e-07	1.114125e-09	-5.962506e+00	7.339231e+01
2.560000e-06	-9.944325e-07	8.127681e-10	-6.862693e+00	5.336845e+01
2.570000e-06	-1.124535e-06	5.023355e-10	-7.760549e+00	3.259591e+01
2.580000e-06	-1.254238e-06	1.796874e-10	-8.655639e+00	1.108683e+01
2.590000e-06	-1.383540e-06	-1.552067e-10	-9.547969e+00	-1.111725e+01
2.600000e-06	-1.512450e-06	-5.016883e-10	-1.043759e+01	-3.394320e+01
2.610000e-06	-1.640883e-06	-8.589070e-10	-1.132392e+01	-5.728631e+01
2.620000e-06	-1.768642e-06	-1.223887e-09	-1.220560e+01	-8.101312e+01
2.630000e-06	-1.895598e-06	-1.590839e-09	-1.308174e+01	-1.049665e+02
2.640000e-06	-2.021813e-06	-1.957356e-09	-1.395276e+01	-1.289732e+02
2.650000e-06	-2.147283e-06	-2.321908e-09	-1.481864e+01	-1.528523e+02
2.660000e-06	-2.271922e-06	-2.681735e-09	-1.567879e+01	-1.764251e+02
2.670000e-06	-2.395664e-06	-3.033351e-09	-1.653275e+01	-1.995244e+02
2.680000e-06	-2.518412e-06	-3.375766e-09	-1.737985e+01	-2.220030e+02
2.690000e-06	-2.640217e-06	-3.706852e-09	-1.822044e+01	-2.437402e+02
2.700000e-06	-2.761168e-06	-4.024287e-09	-1.905514e+01	-2.646462e+02
2.710000e-06	-2.881076e-06	-4.326955e-09	-1.988264e+01	-2.846641e+02
2.720000e-06	-2.999808e-06	-4.615032e-09	-2.070202e+01	-3.037690e+02
2.730000e-06	-3.117416e-06	-4.892024e-09	-2.151365e+01	-3.219646e+02
2.740000e-06	-3.233797e-06	-5.158236e-09	-2.231680e+01	-3.392783e+02
2.750000e-06	-3.348836e-06	-5.413125e-09	-2.311070e+01	-3.557550e+02
2.760000e-06	-3.462469e-06	-5.655579e-09	-2.389490e+01	-3.714498e+02
2.770000e-06	-3.574685e-06	-5.884250e-09	-2.466931e+01	-3.864220e+02
2.780000e-06	-3.685560e-06	-6.103578e-09	-2.543447e+01	-4.007291e+02
2.790000e-06	-3.795131e-06	-6.314605e-09	-2.619064e+01	-4.144224e+02
2.800000e-06	-3.903452e-06	-6.518396e-09	-2.693817e+01	-4.275444e+02
2.810000e-06	-4.010487e-06	-6.713889e-09	-2.767684e+01	-4.401280e+02
2.820000e-06	-4.116206e-06	-6.900706e-09	-2.840641e+01	-4.521967e+02
2.830000e-06	-4.220516e-06	-7.078877e-09	-2.912627e+01	-4.637664e+02
2.840000e-06	-4.323206e-06	-7.246399e-09	-2.983494e+01	-4.748480e+02
2.850000e-06	-4.424243e-06	-7.406211e-09	-3.053221e+01	-4.854501e+02
2.860000e-06	-4.523695e-06	-7.558291e-09	-3.121854e+01	-4.955812e+02
2.870000e-06	-4.621670e-06	-7.703613e-09	-3.189468e+01	-5.052518e+02
2.880000e-06	-4.718117e-06	-7.843020e-09	-3.256027e+01	-5.144758e+02
2.890000e-06	-4.812828e-06	-7.976448e-09	-3.321388e+01	-5.232703e+02
2.900000e-06	-4.905754e-06	-8.104526e-09	-3.385517e+01	-5.316551e+02
2.910000e-06	-4.996889e-06	-8.226178e-09	-3.448411e+01	-5.396517e+02
2.920000e-06	-5.086275e-06	-8.343570e-09	-3.510097e+01	-5.472816e+02
2.930000e-06	-5.173805e-06	-8.454584e-09	-3.570503e+01	-5.545650e+02
2.940000e-06	-5.259323e-06	-8.559090e-09	-3.629519e+01	-5.615193e+02
