# Temperatura_=_60.92
# Concentracion g/m^3_=_15000.0
# C_Vs_to_Am_M_A/Vsm_=_65563218390.804596
# pendiente_HvsI_1/m_=_3716.3
# ordenada_HvsI_A/m_=_1297.0
# frecuencia_Hz_=_301962.4482715181

Tiempo_(s)	Campo_(V.s)	Magnetizacion_(V.s)	Campo_(kA/m)	Magnetizacion_(A/m)
0.000000e+00	-6.890362e-06	-1.125178e-08	-4.747576e+01	-7.367782e+02
1.000000e-08	-6.886586e-06	-1.125067e-08	-4.744975e+01	-7.364873e+02
2.000000e-08	-6.880664e-06	-1.123979e-08	-4.740894e+01	-7.360162e+02
3.000000e-08	-6.872587e-06	-1.123064e-08	-4.735329e+01	-7.353691e+02
4.000000e-08	-6.862129e-06	-1.122113e-08	-4.728123e+01	-7.345586e+02
5.000000e-08	-6.849105e-06	-1.120943e-08	-4.719150e+01	-7.336042e+02
6.000000e-08	-6.833550e-06	-1.118876e-08	-4.708432e+01	-7.325308e+02
7.000000e-08	-6.815778e-06	-1.116231e-08	-4.696187e+01	-7.313658e+02
8.000000e-08	-6.795917e-06	-1.118417e-08	-4.682502e+01	-7.301358e+02
9.000000e-08	-6.773541e-06	-1.122937e-08	-4.667085e+01	-7.288639e+02
1.000000e-07	-6.748230e-06	-1.116545e-08	-4.649645e+01	-7.275665e+02
1.100000e-07	-6.720209e-06	-1.109924e-08	-4.630338e+01	-7.262513e+02
1.200000e-07	-6.689961e-06	-1.108852e-08	-4.609497e+01	-7.249163e+02
1.300000e-07	-6.657730e-06	-1.100928e-08	-4.587289e+01	-7.235499e+02
1.400000e-07	-6.623568e-06	-1.091874e-08	-4.563751e+01	-7.221317e+02
1.500000e-07	-6.587445e-06	-1.107308e-08	-4.538862e+01	-7.206349e+02
1.600000e-07	-6.549253e-06	-1.097254e-08	-4.512547e+01	-7.190287e+02
1.700000e-07	-6.509004e-06	-1.087736e-08	-4.484815e+01	-7.172816e+02
1.800000e-07	-6.466356e-06	-1.100759e-08	-4.455429e+01	-7.153642e+02
1.900000e-07	-6.421060e-06	-1.085213e-08	-4.424219e+01	-7.132517e+02
2.000000e-07	-6.373391e-06	-1.088598e-08	-4.391375e+01	-7.109263e+02
2.100000e-07	-6.323096e-06	-1.087741e-08	-4.356721e+01	-7.083778e+02
2.200000e-07	-6.270156e-06	-1.072544e-08	-4.320244e+01	-7.056041e+02
2.300000e-07	-6.214821e-06	-1.069665e-08	-4.282117e+01	-7.026105e+02
2.400000e-07	-6.157069e-06	-1.061997e-08	-4.242325e+01	-6.994082e+02
2.500000e-07	-6.097035e-06	-1.059992e-08	-4.200960e+01	-6.960124e+02
2.600000e-07	-6.034853e-06	-1.059510e-08	-4.158116e+01	-6.924405e+02
2.700000e-07	-5.970486e-06	-1.051570e-08	-4.113766e+01	-6.887096e+02
2.800000e-07	-5.903811e-06	-1.041903e-08	-4.067826e+01	-6.848348e+02
2.900000e-07	-5.834858e-06	-1.035026e-08	-4.020316e+01	-6.808280e+02
3.000000e-07	-5.763774e-06	-1.034806e-08	-3.971338e+01	-6.766967e+02
3.100000e-07	-5.690535e-06	-1.025302e-08	-3.920875e+01	-6.724442e+02
3.200000e-07	-5.615002e-06	-1.020092e-08	-3.868831e+01	-6.680693e+02
3.300000e-07	-5.537128e-06	-1.014424e-08	-3.815175e+01	-6.635675e+02
3.400000e-07	-5.457106e-06	-1.002977e-08	-3.760039e+01	-6.589317e+02
3.500000e-07	-5.375137e-06	-9.980729e-09	-3.703561e+01	-6.541533e+02
3.600000e-07	-5.291377e-06	-9.915476e-09	-3.645848e+01	-6.492234e+02
3.700000e-07	-5.205859e-06	-9.846372e-09	-3.586926e+01	-6.441334e+02
3.800000e-07	-5.118556e-06	-9.738897e-09	-3.526772e+01	-6.388762e+02
3.900000e-07	-5.029400e-06	-9.654558e-09	-3.465342e+01	-6.334463e+02
4.000000e-07	-4.938381e-06	-9.589054e-09	-3.402629e+01	-6.278400e+02
4.100000e-07	-4.845719e-06	-9.514444e-09	-3.338782e+01	-6.220554e+02
4.200000e-07	-4.751504e-06	-9.414643e-09	-3.273867e+01	-6.160920e+02
4.300000e-07	-4.655606e-06	-9.295874e-09	-3.207791e+01	-6.099502e+02
4.400000e-07	-4.557882e-06	-9.201537e-09	-3.140458e+01	-6.036313e+02
4.500000e-07	-4.458447e-06	-9.101037e-09	-3.071946e+01	-5.971363e+02
4.600000e-07	-4.357528e-06	-9.011608e-09	-3.002410e+01	-5.904662e+02
4.700000e-07	-4.255092e-06	-8.924222e-09	-2.931830e+01	-5.836208e+02
4.800000e-07	-4.151130e-06	-8.810022e-09	-2.860199e+01	-5.765990e+02
4.900000e-07	-4.045651e-06	-8.678546e-09	-2.787522e+01	-5.693986e+02
5.000000e-07	-3.938569e-06	-8.564522e-09	-2.713741e+01	-5.620156e+02
5.100000e-07	-3.830056e-06	-8.462326e-09	-2.638973e+01	-5.544449e+02
5.200000e-07	-3.720273e-06	-8.348406e-09	-2.563331e+01	-5.466800e+02
5.300000e-07	-3.609156e-06	-8.221554e-09	-2.486770e+01	-5.387136e+02
5.400000e-07	-3.496688e-06	-8.090356e-09	-2.409278e+01	-5.305373e+02
5.500000e-07	-3.382723e-06	-7.962962e-09	-2.330754e+01	-5.221429e+02
5.600000e-07	-3.267196e-06	-7.834267e-09	-2.251153e+01	-5.135219e+02
5.700000e-07	-3.150381e-06	-7.702505e-09	-2.170666e+01	-5.046666e+02
5.800000e-07	-3.032419e-06	-7.560459e-09	-2.089388e+01	-4.955703e+02
5.900000e-07	-2.913311e-06	-7.411679e-09	-2.007321e+01	-4.862272e+02
6.000000e-07	-2.793228e-06	-7.263921e-09	-1.924582e+01	-4.766331e+02
6.100000e-07	-2.672181e-06	-7.123196e-09	-1.841178e+01	-4.667846e+02
6.200000e-07	-2.550030e-06	-6.974473e-09	-1.757014e+01	-4.566793e+02
6.300000e-07	-2.426772e-06	-6.809207e-09	-1.672087e+01	-4.463149e+02
6.400000e-07	-2.302566e-06	-6.639193e-09	-1.586507e+01	-4.356887e+02
6.500000e-07	-2.177647e-06	-6.471327e-09	-1.500436e+01	-4.247969e+02
6.600000e-07	-2.052112e-06	-6.304915e-09	-1.413940e+01	-4.136341e+02
6.700000e-07	-1.925938e-06	-6.136026e-09	-1.327004e+01	-4.021924e+02
6.800000e-07	-1.799061e-06	-5.961281e-09	-1.239584e+01	-3.904619e+02
6.900000e-07	-1.671542e-06	-5.773883e-09	-1.151721e+01	-3.784302e+02
7.000000e-07	-1.543436e-06	-5.579432e-09	-1.063454e+01	-3.660832e+02
7.100000e-07	-1.414788e-06	-5.385584e-09	-9.748129e+00	-3.534058e+02
7.200000e-07	-1.285711e-06	-5.191374e-09	-8.858765e+00	-3.403827e+02
7.300000e-07	-1.156233e-06	-4.986868e-09	-7.966639e+00	-3.269997e+02
7.400000e-07	-1.026334e-06	-4.773294e-09	-7.071615e+00	-3.132438e+02
7.500000e-07	-8.960271e-07	-4.556841e-09	-6.173778e+00	-2.991043e+02
7.600000e-07	-7.653655e-07	-4.337914e-09	-5.273498e+00	-2.845721e+02
7.700000e-07	-6.343970e-07	-4.112868e-09	-4.371103e+00	-2.696393e+02
7.800000e-07	-5.031906e-07	-3.879548e-09	-3.467069e+00	-2.542979e+02
7.900000e-07	-3.718176e-07	-3.640788e-09	-2.561886e+00	-2.385379e+02
8.000000e-07	-2.402669e-07	-3.392741e-09	-1.655480e+00	-2.223452e+02
8.100000e-07	-1.085682e-07	-3.138365e-09	-7.480534e-01	-2.056997e+02
8.200000e-07	2.316617e-08	-2.879269e-09	1.596189e-01	-1.885737e+02
8.300000e-07	1.549062e-07	-2.609941e-09	1.067330e+00	-1.709311e+02
8.400000e-07	2.865938e-07	-2.326817e-09	1.974680e+00	-1.527277e+02
8.500000e-07	4.182498e-07	-2.035127e-09	2.881812e+00	-1.339130e+02
8.600000e-07	5.498716e-07	-1.738500e-09	3.788709e+00	-1.144331e+02
8.700000e-07	6.813242e-07	-1.431304e-09	4.694439e+00	-9.423570e+01
8.800000e-07	8.125582e-07	-1.112919e-09	5.598664e+00	-7.327552e+01
8.900000e-07	9.435133e-07	-7.827036e-10	6.500967e+00	-5.152062e+01
9.000000e-07	1.074069e-06	-4.394591e-10	7.400515e+00	-2.895890e+01
9.100000e-07	1.204124e-06	-8.199372e-11	8.296617e+00	-5.603908e+00
9.200000e-07	1.333635e-06	2.870058e-10	9.188975e+00	1.850065e+01
9.300000e-07	1.462658e-06	6.644495e-10	1.007796e+01	4.327828e+01
9.400000e-07	1.591199e-06	1.051139e-09	1.096363e+01	6.861939e+01
9.500000e-07	1.719174e-06	1.444421e-09	1.184540e+01	9.438366e+01
9.600000e-07	1.846467e-06	1.842341e-09	1.272247e+01	1.204049e+02
9.700000e-07	1.973079e-06	2.242800e-09	1.359485e+01	1.464982e+02
9.800000e-07	2.099017e-06	2.640817e-09	1.446259e+01	1.724691e+02
9.900000e-07	2.224275e-06	3.032942e-09	1.532563e+01	1.981232e+02
1.000000e-06	2.348852e-06	3.416770e-09	1.618399e+01	2.232766e+02
1.010000e-06	2.472651e-06	3.789690e-09	1.703699e+01	2.477648e+02
1.020000e-06	2.595510e-06	4.148993e-09	1.788350e+01	2.714512e+02
1.030000e-06	2.717265e-06	4.493393e-09	1.872242e+01	2.942316e+02
1.040000e-06	2.837919e-06	4.821898e-09	1.955374e+01	3.160379e+02
1.050000e-06	2.957480e-06	5.135535e-09	2.037754e+01	3.368375e+02
1.060000e-06	3.076006e-06	5.434660e-09	2.119420e+01	3.566308e+02
1.070000e-06	3.193530e-06	5.724263e-09	2.200397e+01	3.754463e+02
1.080000e-06	3.309937e-06	5.999926e-09	2.280603e+01	3.933335e+02
1.090000e-06	3.424953e-06	6.260527e-09	2.359850e+01	4.103559e+02
1.100000e-06	3.538439e-06	6.507492e-09	2.438045e+01	4.265832e+02
1.110000e-06	3.650500e-06	6.742729e-09	2.515256e+01	4.420846e+02
1.120000e-06	3.761282e-06	6.967988e-09	2.591587e+01	4.569233e+02
1.130000e-06	3.870880e-06	7.183860e-09	2.667102e+01	4.711526e+02
1.140000e-06	3.979318e-06	7.391505e-09	2.741818e+01	4.848145e+02
1.150000e-06	4.086469e-06	7.593164e-09	2.815647e+01	4.979394e+02
1.160000e-06	4.192102e-06	7.787820e-09	2.888429e+01	5.105481e+02
1.170000e-06	4.296092e-06	7.971038e-09	2.960080e+01	5.226541e+02
1.180000e-06	4.398511e-06	8.146010e-09	3.030648e+01	5.342672e+02
1.190000e-06	4.499490e-06	8.311984e-09	3.100225e+01	5.453962e+02
1.200000e-06	4.598970e-06	8.470397e-09	3.168768e+01	5.560519e+02
1.210000e-06	4.696703e-06	8.622618e-09	3.236108e+01	5.662486e+02
1.220000e-06	4.792561e-06	8.770536e-09	3.302156e+01	5.760046e+02
1.230000e-06	4.886687e-06	8.914053e-09	3.367010e+01	5.853418e+02
1.240000e-06	4.979179e-06	9.054600e-09	3.430739e+01	5.942840e+02
1.250000e-06	5.069946e-06	9.192535e-09	3.493279e+01	6.028556e+02
1.260000e-06	5.158821e-06	9.324096e-09	3.554515e+01	6.110785e+02
1.270000e-06	5.245811e-06	9.446317e-09	3.614452e+01	6.189712e+02
1.280000e-06	5.330961e-06	9.560804e-09	3.673123e+01	6.265468e+02
1.290000e-06	5.414253e-06	9.671010e-09	3.730512e+01	6.338128e+02
1.300000e-06	5.495576e-06	9.775212e-09	3.786545e+01	6.407717e+02
1.310000e-06	5.574856e-06	9.871968e-09	3.841170e+01	6.474225e+02
1.320000e-06	5.652179e-06	9.966335e-09	3.894447e+01	6.537622e+02
1.330000e-06	5.727418e-06	1.005900e-08	3.946288e+01	6.597887e+02
1.340000e-06	5.800365e-06	1.014606e-08	3.996550e+01	6.655028e+02
1.350000e-06	5.871098e-06	1.022701e-08	4.045286e+01	6.709101e+02
1.360000e-06	5.939813e-06	1.030359e-08	4.092632e+01	6.760219e+02
1.370000e-06	6.006467e-06	1.037712e-08	4.138558e+01	6.808554e+02
1.380000e-06	6.070895e-06	1.044770e-08	4.182950e+01	6.854326e+02
1.390000e-06	6.133166e-06	1.051451e-08	4.225856e+01	6.897790e+02
1.400000e-06	6.193532e-06	1.057911e-08	4.267449e+01	6.939204e+02
1.410000e-06	6.251755e-06	1.064106e-08	4.307565e+01	6.978810e+02
1.420000e-06	6.307632e-06	1.069964e-08	4.346066e+01	7.016801e+02
1.430000e-06	6.361240e-06	1.075645e-08	4.383002e+01	7.053305e+02
1.440000e-06	6.412371e-06	1.081068e-08	4.418232e+01	7.088372e+02
1.450000e-06	6.460890e-06	1.086136e-08	4.451663e+01	7.121973e+02
1.460000e-06	6.507008e-06	1.090913e-08	4.483439e+01	7.154006e+02
1.470000e-06	6.551064e-06	1.095325e-08	4.513794e+01	7.184318e+02
1.480000e-06	6.592734e-06	1.099521e-08	4.542506e+01	7.212732e+02
1.490000e-06	6.631848e-06	1.103547e-08	4.569456e+01	7.239073e+02
1.500000e-06	6.668794e-06	1.107239e-08	4.594912e+01	7.263198e+02
1.510000e-06	6.703465e-06	1.110541e-08	4.618801e+01	7.285021e+02
1.520000e-06	6.735604e-06	1.113423e-08	4.640945e+01	7.304528e+02
1.530000e-06	6.765381e-06	1.115990e-08	4.661462e+01	7.321779e+02
1.540000e-06	6.792915e-06	1.118285e-08	4.680434e+01	7.336909e+02
1.550000e-06	6.817917e-06	1.120485e-08	4.697660e+01	7.350101e+02
1.560000e-06	6.840321e-06	1.122467e-08	4.713097e+01	7.361574e+02
1.570000e-06	6.860477e-06	1.124044e-08	4.726985e+01	7.371545e+02
1.580000e-06	6.878246e-06	1.125421e-08	4.739228e+01	7.380205e+02
1.590000e-06	6.893365e-06	1.126513e-08	4.749646e+01	7.387695e+02
1.600000e-06	6.905950e-06	1.127440e-08	4.758317e+01	7.394090e+02
1.610000e-06	6.915819e-06	1.128254e-08	4.765117e+01	7.399388e+02
1.620000e-06	6.923004e-06	1.128729e-08	4.770067e+01	7.403523e+02
1.630000e-06	6.927827e-06	1.128964e-08	4.773391e+01	7.406372e+02
1.640000e-06	6.930272e-06	1.129072e-08	4.775075e+01	7.407784e+02
1.650000e-06	6.930264e-06	1.129557e-08	4.775070e+01	7.407603e+02
1.660000e-06	6.927910e-06	1.128768e-08	4.773448e+01	7.405703e+02
1.670000e-06	6.923343e-06	1.127964e-08	4.770301e+01	7.402012e+02
1.680000e-06	6.916379e-06	1.127083e-08	4.765502e+01	7.396527e+02
1.690000e-06	6.907123e-06	1.125883e-08	4.759125e+01	7.389326e+02
1.700000e-06	6.895728e-06	1.124866e-08	4.751274e+01	7.380567e+02
1.710000e-06	6.881793e-06	1.123885e-08	4.741672e+01	7.370471e+02
1.720000e-06	6.865488e-06	1.124394e-08	4.730437e+01	7.359300e+02
1.730000e-06	6.847229e-06	1.118778e-08	4.717857e+01	7.347331e+02
1.740000e-06	6.826483e-06	1.109012e-08	4.703563e+01	7.334817e+02
1.750000e-06	6.802360e-06	1.112383e-08	4.686941e+01	7.321963e+02
1.760000e-06	6.775114e-06	1.113086e-08	4.668168e+01	7.308899e+02
1.770000e-06	6.745561e-06	1.107846e-08	4.647806e+01	7.295661e+02
1.780000e-06	6.714079e-06	1.119275e-08	4.626114e+01	7.282186e+02
1.790000e-06	6.681123e-06	1.111891e-08	4.603407e+01	7.268320e+02
1.800000e-06	6.646472e-06	1.095263e-08	4.579532e+01	7.253827e+02
1.810000e-06	6.609155e-06	1.113601e-08	4.553820e+01	7.238420e+02
1.820000e-06	6.569490e-06	1.100799e-08	4.526490e+01	7.221782e+02
1.830000e-06	6.527883e-06	1.098341e-08	4.497822e+01	7.203605e+02
1.840000e-06	6.483989e-06	1.104100e-08	4.467578e+01	7.183612e+02
1.850000e-06	6.437802e-06	1.078532e-08	4.435755e+01	7.161582e+02
1.860000e-06	6.389137e-06	1.091988e-08	4.402224e+01	7.137370e+02
1.870000e-06	6.338151e-06	1.086040e-08	4.367093e+01	7.110908e+02
1.880000e-06	6.284699e-06	1.081372e-08	4.330264e+01	7.082209e+02
1.890000e-06	6.228510e-06	1.087789e-08	4.291549e+01	7.051352e+02
1.900000e-06	6.170016e-06	1.063920e-08	4.251246e+01	7.018469e+02
1.910000e-06	6.109117e-06	1.064738e-08	4.209285e+01	6.983726e+02
1.920000e-06	6.045877e-06	1.056725e-08	4.165712e+01	6.947295e+02
1.930000e-06	5.980577e-06	1.054128e-08	4.120719e+01	6.909343e+02
1.940000e-06	5.913115e-06	1.055473e-08	4.074236e+01	6.870007e+02
1.950000e-06	5.843419e-06	1.040304e-08	4.026215e+01	6.829389e+02
1.960000e-06	5.771264e-06	1.040715e-08	3.976499e+01	6.787546e+02
1.970000e-06	5.696917e-06	1.022532e-08	3.925273e+01	6.744490e+02
1.980000e-06	5.620414e-06	1.021448e-08	3.872561e+01	6.700195e+02
1.990000e-06	5.541552e-06	1.018727e-08	3.818223e+01	6.654603e+02
2.000000e-06	5.460693e-06	1.006718e-08	3.762510e+01	6.607635e+02
2.010000e-06	5.378044e-06	1.003012e-08	3.705564e+01	6.559203e+02
2.020000e-06	5.293618e-06	9.897145e-09	3.647392e+01	6.509217e+02
2.030000e-06	5.207117e-06	9.856449e-09	3.587792e+01	6.457599e+02
2.040000e-06	5.118629e-06	9.747434e-09	3.526822e+01	6.404283e+02
2.050000e-06	5.028507e-06	9.679783e-09	3.464727e+01	6.349222e+02
2.060000e-06	4.936825e-06	9.594164e-09	3.401556e+01	6.292387e+02
2.070000e-06	4.843455e-06	9.492688e-09	3.337222e+01	6.233764e+02
2.080000e-06	4.748169e-06	9.417918e-09	3.271569e+01	6.173354e+02
2.090000e-06	4.651204e-06	9.324057e-09	3.204758e+01	6.111166e+02
2.100000e-06	4.552766e-06	9.256168e-09	3.136933e+01	6.047212e+02
2.110000e-06	4.452847e-06	9.113266e-09	3.068087e+01	5.981501e+02
2.120000e-06	4.351284e-06	8.999621e-09	2.998108e+01	5.914039e+02
2.130000e-06	4.248000e-06	8.896290e-09	2.926944e+01	5.844822e+02
2.140000e-06	4.143138e-06	8.814348e-09	2.854692e+01	5.773832e+02
2.150000e-06	4.036900e-06	8.714763e-09	2.781493e+01	5.701041e+02
2.160000e-06	3.929342e-06	8.599670e-09	2.707383e+01	5.626404e+02
2.170000e-06	3.820419e-06	8.473218e-09	2.632333e+01	5.549864e+02
2.180000e-06	3.710091e-06	8.332745e-09	2.556316e+01	5.471351e+02
2.190000e-06	3.598240e-06	8.214872e-09	2.479249e+01	5.390788e+02
2.200000e-06	3.485001e-06	8.098474e-09	2.401225e+01	5.308091e+02
2.210000e-06	3.370416e-06	7.981559e-09	2.322274e+01	5.223176e+02
2.220000e-06	3.254431e-06	7.833594e-09	2.242358e+01	5.135961e+02
2.230000e-06	3.137094e-06	7.693125e-09	2.161511e+01	5.046373e+02
2.240000e-06	3.018448e-06	7.553408e-09	2.079762e+01	4.954349e+02
2.250000e-06	2.898550e-06	7.420036e-09	1.997150e+01	4.859838e+02
2.260000e-06	2.777655e-06	7.273538e-09	1.913851e+01	4.762800e+02
2.270000e-06	2.655865e-06	7.119254e-09	1.829936e+01	4.663208e+02
2.280000e-06	2.533120e-06	6.962749e-09	1.745362e+01	4.561037e+02
2.290000e-06	2.409470e-06	6.804920e-09	1.660166e+01	4.456265e+02
2.300000e-06	2.285013e-06	6.649490e-09	1.574413e+01	4.348861e+02
2.310000e-06	2.159866e-06	6.483881e-09	1.488184e+01	4.238779e+02
2.320000e-06	2.033928e-06	6.305706e-09	1.401411e+01	4.125957e+02
2.330000e-06	1.907117e-06	6.115284e-09	1.314036e+01	4.010307e+02
2.340000e-06	1.779535e-06	5.932105e-09	1.226130e+01	3.891717e+02
2.350000e-06	1.651358e-06	5.754168e-09	1.137814e+01	3.770057e+02
2.360000e-06	1.522653e-06	5.575606e-09	1.049134e+01	3.645180e+02
2.370000e-06	1.393484e-06	5.381869e-09	9.601343e+00	3.516933e+02
2.380000e-06	1.263946e-06	5.175567e-09	8.708802e+00	3.385167e+02
2.390000e-06	1.134077e-06	4.964664e-09	7.813986e+00	3.249744e+02
2.400000e-06	1.003856e-06	4.750951e-09	6.916738e+00	3.110544e+02
2.410000e-06	8.733185e-07	4.539336e-09	6.017312e+00	2.967466e+02
2.420000e-06	7.425189e-07	4.317309e-09	5.116081e+00	2.820427e+02
2.430000e-06	6.114811e-07	4.081384e-09	4.213209e+00	2.669349e+02
2.440000e-06	4.802145e-07	3.839966e-09	3.308759e+00	2.514145e+02
2.450000e-06	3.487497e-07	3.598304e-09	2.402944e+00	2.354701e+02
2.460000e-06	2.171380e-07	3.354205e-09	1.496118e+00	2.190852e+02
2.470000e-06	8.546042e-08	3.099667e-09	5.888368e-01	2.022367e+02
2.480000e-06	-4.626673e-08	2.835079e-09	-3.187856e-01	1.848933e+02
2.490000e-06	-1.780087e-07	2.561136e-09	-1.226510e+00	1.670152e+02
2.500000e-06	-3.096430e-07	2.277003e-09	-2.133493e+00	1.485553e+02
2.510000e-06	-4.411855e-07	1.984307e-09	-3.039843e+00	1.294611e+02
2.520000e-06	-5.725800e-07	1.683441e-09	-3.945173e+00	1.096789e+02
2.530000e-06	-7.037859e-07	1.369064e-09	-4.849205e+00	8.915853e+01
2.540000e-06	-8.348200e-07	1.040670e-09	-5.752052e+00	6.785968e+01
2.550000e-06	-9.655248e-07	7.049623e-10	-6.652630e+00	4.575814e+01
2.560000e-06	-1.095834e-06	3.624006e-10	-7.550482e+00	2.285214e+01
2.570000e-06	-1.225777e-06	8.343115e-12	-8.445814e+00	-8.322963e-01
2.580000e-06	-1.355357e-06	-3.600873e-10	-9.338641e+00	-2.523761e+01
2.590000e-06	-1.484545e-06	-7.417940e-10	-1.022877e+01	-5.027299e+01
2.600000e-06	-1.613260e-06	-1.133706e-09	-1.111564e+01	-7.581526e+01
2.610000e-06	-1.741453e-06	-1.531699e-09	-1.199891e+01	-1.017122e+02
2.620000e-06	-1.868986e-06	-1.931602e-09	-1.287763e+01	-1.277888e+02
2.630000e-06	-1.995688e-06	-2.330950e-09	-1.375063e+01	-1.538546e+02
2.640000e-06	-2.121565e-06	-2.729153e-09	-1.461794e+01	-1.797142e+02
2.650000e-06	-2.246647e-06	-3.120644e-09	-1.547978e+01	-2.051762e+02
2.660000e-06	-2.370846e-06	-3.499064e-09	-1.633553e+01	-2.300642e+02
2.670000e-06	-2.494118e-06	-3.864386e-09	-1.718490e+01	-2.542247e+02
2.680000e-06	-2.616423e-06	-4.217624e-09	-1.802760e+01	-2.775344e+02
2.690000e-06	-2.737734e-06	-4.560806e-09	-1.886345e+01	-2.999046e+02
2.700000e-06	-2.858092e-06	-4.889924e-09	-1.969274e+01	-3.212824e+02
2.710000e-06	-2.977401e-06	-5.200173e-09	-2.051480e+01	-3.416499e+02
2.720000e-06	-3.095534e-06	-5.493302e-09	-2.132876e+01	-3.610202e+02
2.730000e-06	-3.212355e-06	-5.773661e-09	-2.213367e+01	-3.794317e+02
2.740000e-06	-3.327894e-06	-6.042838e-09	-2.292976e+01	-3.969410e+02
2.750000e-06	-3.442168e-06	-6.299480e-09	-2.371712e+01	-4.136149e+02
2.760000e-06	-3.554957e-06	-6.543372e-09	-2.449426e+01	-4.295239e+02
2.770000e-06	-3.666324e-06	-6.775251e-09	-2.526159e+01	-4.447351e+02
2.780000e-06	-3.776328e-06	-6.996705e-09	-2.601954e+01	-4.593077e+02
2.790000e-06	-3.885095e-06	-7.211640e-09	-2.676896e+01	-4.732903e+02
2.800000e-06	-3.992709e-06	-7.418643e-09	-2.751044e+01	-4.867200e+02
2.810000e-06	-4.098971e-06	-7.618394e-09	-2.824260e+01	-4.996226e+02
2.820000e-06	-4.203812e-06	-7.809745e-09	-2.896498e+01	-5.120154e+02
2.830000e-06	-4.307058e-06	-7.990381e-09	-2.967636e+01	-5.239101e+02
2.840000e-06	-4.408615e-06	-8.163124e-09	-3.037610e+01	-5.353155e+02
2.850000e-06	-4.508592e-06	-8.329294e-09	-3.106496e+01	-5.462412e+02
2.860000e-06	-4.607030e-06	-8.489482e-09	-3.174322e+01	-5.566991e+02
2.870000e-06	-4.703972e-06	-8.641951e-09	-3.241116e+01	-5.667055e+02
2.880000e-06	-4.799232e-06	-8.786712e-09	-3.306752e+01	-5.762801e+02
2.890000e-06	-4.892643e-06	-8.926077e-09	-3.371114e+01	-5.854460e+02
2.900000e-06	-4.984326e-06	-9.059623e-09	-3.434285e+01	-5.942275e+02
2.910000e-06	-5.074341e-06	-9.188107e-09	-3.496307e+01	-6.026481e+02
2.920000e-06	-5.162589e-06	-9.310971e-09	-3.557112e+01	-6.107285e+02
2.930000e-06	-5.248777e-06	-9.428323e-09	-3.616496e+01	-6.184850e+02
2.940000e-06	-5.332915e-06	-9.541824e-09	-3.674469e+01	-6.259282e+02
