# Temperatura_=_74.64
# Concentracion g/m^3_=_15000.0
# C_Vs_to_Am_M_A/Vsm_=_65563218390.804596
# pendiente_HvsI_1/m_=_3716.3
# ordenada_HvsI_A/m_=_1297.0
# frecuencia_Hz_=_302363.0119935924

Tiempo_(s)	Campo_(V.s)	Magnetizacion_(V.s)	Campo_(kA/m)	Magnetizacion_(A/m)
0.000000e+00	-8.133386e-06	-1.254055e-08	-5.689762e+01	-8.206799e+02
1.000000e-08	-8.128726e-06	-1.253883e-08	-5.686501e+01	-8.202124e+02
2.000000e-08	-8.121541e-06	-1.253025e-08	-5.681476e+01	-8.195998e+02
3.000000e-08	-8.111565e-06	-1.251787e-08	-5.674497e+01	-8.188596e+02
4.000000e-08	-8.098690e-06	-1.250413e-08	-5.665490e+01	-8.180092e+02
5.000000e-08	-8.082910e-06	-1.248923e-08	-5.654451e+01	-8.170636e+02
6.000000e-08	-8.064450e-06	-1.247089e-08	-5.641537e+01	-8.160340e+02
7.000000e-08	-8.043664e-06	-1.245244e-08	-5.626996e+01	-8.149268e+02
8.000000e-08	-8.020268e-06	-1.243981e-08	-5.610629e+01	-8.137433e+02
9.000000e-08	-7.993747e-06	-1.245561e-08	-5.592076e+01	-8.124801e+02
1.000000e-07	-7.964015e-06	-1.243327e-08	-5.571277e+01	-8.111304e+02
1.100000e-07	-7.931297e-06	-1.237832e-08	-5.548389e+01	-8.096849e+02
1.200000e-07	-7.895681e-06	-1.234029e-08	-5.523474e+01	-8.081335e+02
1.300000e-07	-7.857483e-06	-1.230080e-08	-5.496752e+01	-8.064663e+02
1.400000e-07	-7.816979e-06	-1.225240e-08	-5.468417e+01	-8.046741e+02
1.500000e-07	-7.774127e-06	-1.221874e-08	-5.438440e+01	-8.027495e+02
1.600000e-07	-7.728646e-06	-1.224078e-08	-5.406623e+01	-8.006858e+02
1.700000e-07	-7.680382e-06	-1.218577e-08	-5.372860e+01	-7.984774e+02
1.800000e-07	-7.629252e-06	-1.211209e-08	-5.337091e+01	-7.961189e+02
1.900000e-07	-7.575146e-06	-1.211753e-08	-5.299241e+01	-7.936045e+02
2.000000e-07	-7.518194e-06	-1.204227e-08	-5.259401e+01	-7.909278e+02
2.100000e-07	-7.458565e-06	-1.197737e-08	-5.217687e+01	-7.880817e+02
2.200000e-07	-7.396310e-06	-1.195154e-08	-5.174136e+01	-7.850588e+02
2.300000e-07	-7.331327e-06	-1.190300e-08	-5.128677e+01	-7.818524e+02
2.400000e-07	-7.263520e-06	-1.185608e-08	-5.081241e+01	-7.784572e+02
2.500000e-07	-7.192875e-06	-1.179485e-08	-5.031821e+01	-7.748705e+02
2.600000e-07	-7.119398e-06	-1.175649e-08	-4.980420e+01	-7.710928e+02
2.700000e-07	-7.043124e-06	-1.167742e-08	-4.927062e+01	-7.671284e+02
2.800000e-07	-6.964103e-06	-1.159688e-08	-4.871782e+01	-7.629850e+02
2.900000e-07	-6.882404e-06	-1.153407e-08	-4.814629e+01	-7.586730e+02
3.000000e-07	-6.798263e-06	-1.147774e-08	-4.755768e+01	-7.542044e+02
3.100000e-07	-6.711756e-06	-1.142933e-08	-4.695251e+01	-7.495907e+02
3.200000e-07	-6.622807e-06	-1.134693e-08	-4.633027e+01	-7.448413e+02
3.300000e-07	-6.531424e-06	-1.127204e-08	-4.569099e+01	-7.399620e+02
3.400000e-07	-6.437696e-06	-1.119048e-08	-4.503531e+01	-7.349532e+02
3.500000e-07	-6.341692e-06	-1.111225e-08	-4.436371e+01	-7.298100e+02
3.600000e-07	-6.243371e-06	-1.102945e-08	-4.367590e+01	-7.245222e+02
3.700000e-07	-6.142790e-06	-1.094464e-08	-4.297228e+01	-7.190751e+02
3.800000e-07	-6.039980e-06	-1.086640e-08	-4.225306e+01	-7.134517e+02
3.900000e-07	-5.934953e-06	-1.077519e-08	-4.151834e+01	-7.076347e+02
4.000000e-07	-5.827860e-06	-1.067996e-08	-4.076917e+01	-7.016086e+02
4.100000e-07	-5.718757e-06	-1.057772e-08	-4.000593e+01	-6.953620e+02
4.200000e-07	-5.607559e-06	-1.048822e-08	-3.922803e+01	-6.888887e+02
4.300000e-07	-5.494252e-06	-1.038736e-08	-3.843539e+01	-6.821884e+02
4.400000e-07	-5.378901e-06	-1.027533e-08	-3.762844e+01	-6.752661e+02
4.500000e-07	-5.261523e-06	-1.017023e-08	-3.680732e+01	-6.681306e+02
4.600000e-07	-5.142141e-06	-1.006828e-08	-3.597217e+01	-6.607926e+02
4.700000e-07	-5.020881e-06	-9.949871e-09	-3.512389e+01	-6.532620e+02
4.800000e-07	-4.897865e-06	-9.824523e-09	-3.426333e+01	-6.455450e+02
4.900000e-07	-4.773128e-06	-9.708651e-09	-3.339072e+01	-6.376429e+02
5.000000e-07	-4.646678e-06	-9.585339e-09	-3.250613e+01	-6.295499e+02
5.100000e-07	-4.518501e-06	-9.453704e-09	-3.160946e+01	-6.212534e+02
5.200000e-07	-4.388635e-06	-9.326204e-09	-3.070098e+01	-6.127346e+02
5.300000e-07	-4.257092e-06	-9.199147e-09	-2.978076e+01	-6.039710e+02
5.400000e-07	-4.124023e-06	-9.050908e-09	-2.884987e+01	-5.949383e+02
5.500000e-07	-3.989459e-06	-8.896454e-09	-2.790851e+01	-5.856141e+02
5.600000e-07	-3.853270e-06	-8.750164e-09	-2.695579e+01	-5.759803e+02
5.700000e-07	-3.715579e-06	-8.603028e-09	-2.599257e+01	-5.660255e+02
5.800000e-07	-3.576461e-06	-8.444348e-09	-2.501936e+01	-5.557457e+02
5.900000e-07	-3.435827e-06	-8.284098e-09	-2.403554e+01	-5.451445e+02
6.000000e-07	-3.293737e-06	-8.122943e-09	-2.304155e+01	-5.342310e+02
6.100000e-07	-3.150308e-06	-7.949038e-09	-2.203818e+01	-5.230175e+02
6.200000e-07	-3.005666e-06	-7.771671e-09	-2.102633e+01	-5.115158e+02
6.300000e-07	-2.859987e-06	-7.595883e-09	-2.000722e+01	-4.997335e+02
6.400000e-07	-2.713297e-06	-7.416642e-09	-1.898104e+01	-4.876710e+02
6.500000e-07	-2.565655e-06	-7.225616e-09	-1.794820e+01	-4.753191e+02
6.600000e-07	-2.417148e-06	-7.027769e-09	-1.690931e+01	-4.626583e+02
6.700000e-07	-2.267861e-06	-6.825802e-09	-1.586496e+01	-4.496595e+02
6.800000e-07	-2.117856e-06	-6.614906e-09	-1.481559e+01	-4.362866e+02
6.900000e-07	-1.967110e-06	-6.399917e-09	-1.376104e+01	-4.225000e+02
7.000000e-07	-1.815641e-06	-6.182408e-09	-1.270143e+01	-4.082609e+02
7.100000e-07	-1.663523e-06	-5.959262e-09	-1.163728e+01	-3.935357e+02
7.200000e-07	-1.510873e-06	-5.729518e-09	-1.056941e+01	-3.782991e+02
7.300000e-07	-1.357740e-06	-5.494680e-09	-9.498160e+00	-3.625361e+02
7.400000e-07	-1.204113e-06	-5.250146e-09	-8.423451e+00	-3.462418e+02
7.500000e-07	-1.050029e-06	-4.992994e-09	-7.345547e+00	-3.294184e+02
7.600000e-07	-8.955990e-07	-4.727337e-09	-6.265220e+00	-3.120713e+02
7.700000e-07	-7.409224e-07	-4.455736e-09	-5.183170e+00	-2.942021e+02
7.800000e-07	-5.859931e-07	-4.175898e-09	-4.099352e+00	-2.758024e+02
7.900000e-07	-4.308673e-07	-3.887577e-09	-3.014160e+00	-2.568467e+02
8.000000e-07	-2.755881e-07	-3.590637e-09	-1.927894e+00	-2.372880e+02
8.100000e-07	-1.202114e-07	-3.278935e-09	-8.409462e-01	-2.170552e+02
8.200000e-07	3.519246e-08	-2.952205e-09	2.461911e-01	-1.960540e+02
8.300000e-07	1.906388e-07	-2.615841e-09	1.333626e+00	-1.741728e+02
8.400000e-07	3.460964e-07	-2.268115e-09	2.421139e+00	-1.512905e+02
8.500000e-07	5.014703e-07	-1.902379e-09	3.508067e+00	-1.272894e+02
8.600000e-07	6.567368e-07	-1.516796e-09	4.594244e+00	-1.020691e+02
8.700000e-07	8.118575e-07	-1.115579e-09	5.679401e+00	-7.556142e+01
8.800000e-07	9.667048e-07	-6.987468e-10	6.762645e+00	-4.774427e+01
8.900000e-07	1.121227e-06	-2.629667e-10	7.843615e+00	-1.865292e+01
9.000000e-07	1.275302e-06	1.913459e-10	8.921458e+00	1.161306e+01
9.100000e-07	1.428872e-06	6.630367e-10	9.995762e+00	4.288801e+01
9.200000e-07	1.582009e-06	1.152563e-09	1.106704e+01	7.494437e+01
9.300000e-07	1.734654e-06	1.655971e-09	1.213488e+01	1.075025e+02
9.400000e-07	1.886659e-06	2.161630e-09	1.319824e+01	1.402453e+02
9.500000e-07	2.037912e-06	2.663157e-09	1.425635e+01	1.728373e+02
9.600000e-07	2.188406e-06	3.157285e-09	1.530914e+01	2.049443e+02
9.700000e-07	2.338055e-06	3.636987e-09	1.635601e+01	2.362544e+02
9.800000e-07	2.486738e-06	4.094655e-09	1.739613e+01	2.664960e+02
9.900000e-07	2.634466e-06	4.526686e-09	1.842957e+01	2.954525e+02
1.000000e-06	2.781226e-06	4.935987e-09	1.945624e+01	3.229718e+02
1.010000e-06	2.926931e-06	5.324672e-09	2.047553e+01	3.489698e+02
1.020000e-06	3.071579e-06	5.690088e-09	2.148742e+01	3.734282e+02
1.030000e-06	3.215118e-06	6.035019e-09	2.249156e+01	3.963873e+02
1.040000e-06	3.357409e-06	6.363876e-09	2.348697e+01	4.179337e+02
1.050000e-06	3.498319e-06	6.675814e-09	2.447272e+01	4.381863e+02
1.060000e-06	3.637795e-06	6.969357e-09	2.544843e+01	4.572807e+02
1.070000e-06	3.775909e-06	7.247412e-09	2.641461e+01	4.753545e+02
1.080000e-06	3.912697e-06	7.513390e-09	2.737152e+01	4.925352e+02
1.090000e-06	4.048026e-06	7.766326e-09	2.831822e+01	5.089309e+02
1.100000e-06	4.181883e-06	8.005287e-09	2.925463e+01	5.246254e+02
1.110000e-06	4.314310e-06	8.231586e-09	3.018103e+01	5.396770e+02
1.120000e-06	4.445187e-06	8.446870e-09	3.109658e+01	5.541207e+02
1.130000e-06	4.574455e-06	8.651442e-09	3.200089e+01	5.679739e+02
1.140000e-06	4.702145e-06	8.847152e-09	3.289415e+01	5.812425e+02
1.150000e-06	4.828259e-06	9.036116e-09	3.377639e+01	5.939282e+02
1.160000e-06	4.952703e-06	9.218975e-09	3.464695e+01	6.060347e+02
1.170000e-06	5.075385e-06	9.394332e-09	3.550518e+01	6.175727e+02
1.180000e-06	5.196334e-06	9.562488e-09	3.635128e+01	6.285619e+02
1.190000e-06	5.315423e-06	9.724658e-09	3.718438e+01	6.390315e+02
1.200000e-06	5.432441e-06	9.880422e-09	3.800298e+01	6.490183e+02
1.210000e-06	5.547320e-06	1.002828e-08	3.880663e+01	6.585629e+02
1.220000e-06	5.660086e-06	1.016838e-08	3.959549e+01	6.677059e+02
1.230000e-06	5.770821e-06	1.030353e-08	4.037014e+01	6.764834e+02
1.240000e-06	5.879467e-06	1.043335e-08	4.113019e+01	6.849237e+02
1.250000e-06	5.985973e-06	1.055823e-08	4.187526e+01	6.930452e+02
1.260000e-06	6.090296e-06	1.067794e-08	4.260505e+01	7.008561e+02
1.270000e-06	6.192395e-06	1.079067e-08	4.331929e+01	7.083557e+02
1.280000e-06	6.292193e-06	1.089813e-08	4.401743e+01	7.155375e+02
1.290000e-06	6.389588e-06	1.100149e-08	4.469877e+01	7.223923e+02
1.300000e-06	6.484550e-06	1.110008e-08	4.536308e+01	7.289131e+02
1.310000e-06	6.577185e-06	1.119271e-08	4.601111e+01	7.350977e+02
1.320000e-06	6.667530e-06	1.127924e-08	4.664313e+01	7.409522e+02
1.330000e-06	6.755515e-06	1.136120e-08	4.725863e+01	7.464913e+02
1.340000e-06	6.841155e-06	1.144053e-08	4.785774e+01	7.517388e+02
1.350000e-06	6.924383e-06	1.151883e-08	4.843996e+01	7.567247e+02
1.360000e-06	7.005072e-06	1.159524e-08	4.900442e+01	7.614826e+02
1.370000e-06	7.083214e-06	1.166782e-08	4.955107e+01	7.660457e+02
1.380000e-06	7.158761e-06	1.173739e-08	5.007957e+01	7.704426e+02
1.390000e-06	7.231610e-06	1.180466e-08	5.058918e+01	7.746944e+02
1.400000e-06	7.301855e-06	1.186800e-08	5.108059e+01	7.788122e+02
1.410000e-06	7.369527e-06	1.192714e-08	5.155399e+01	7.827958e+02
1.420000e-06	7.434546e-06	1.198369e-08	5.200884e+01	7.866353e+02
1.430000e-06	7.496973e-06	1.203899e-08	5.244555e+01	7.903123e+02
1.440000e-06	7.556869e-06	1.209171e-08	5.286456e+01	7.938040e+02
1.450000e-06	7.614148e-06	1.214025e-08	5.326525e+01	7.970862e+02
1.460000e-06	7.668682e-06	1.218485e-08	5.364675e+01	8.001379e+02
1.470000e-06	7.720183e-06	1.222595e-08	5.400703e+01	8.029443e+02
1.480000e-06	7.768504e-06	1.226457e-08	5.434507e+01	8.054988e+02
1.490000e-06	7.813970e-06	1.230032e-08	5.466312e+01	8.078047e+02
1.500000e-06	7.856744e-06	1.233268e-08	5.496235e+01	8.098740e+02
1.510000e-06	7.896674e-06	1.236188e-08	5.524168e+01	8.117262e+02
1.520000e-06	7.933801e-06	1.238633e-08	5.550141e+01	8.133850e+02
1.530000e-06	7.968163e-06	1.240764e-08	5.574179e+01	8.148758e+02
1.540000e-06	7.999641e-06	1.242892e-08	5.596200e+01	8.162213e+02
1.550000e-06	8.028321e-06	1.244907e-08	5.616263e+01	8.174396e+02
1.560000e-06	8.054161e-06	1.246560e-08	5.634339e+01	8.185419e+02
1.570000e-06	8.077014e-06	1.247939e-08	5.650327e+01	8.195313e+02
1.580000e-06	8.096990e-06	1.249269e-08	5.664300e+01	8.204038e+02
1.590000e-06	8.114083e-06	1.250427e-08	5.676259e+01	8.211493e+02
1.600000e-06	8.128158e-06	1.251215e-08	5.686104e+01	8.217543e+02
1.610000e-06	8.139112e-06	1.251742e-08	5.693767e+01	8.222044e+02
1.620000e-06	8.146932e-06	1.252163e-08	5.699238e+01	8.224869e+02
1.630000e-06	8.151877e-06	1.252523e-08	5.702697e+01	8.225935e+02
1.640000e-06	8.153954e-06	1.252599e-08	5.704150e+01	8.225214e+02
1.650000e-06	8.153082e-06	1.252335e-08	5.703540e+01	8.222745e+02
1.660000e-06	8.149504e-06	1.251557e-08	5.701037e+01	8.218622e+02
1.670000e-06	8.143200e-06	1.250895e-08	5.696627e+01	8.212989e+02
1.680000e-06	8.134167e-06	1.250240e-08	5.690308e+01	8.206016e+02
1.690000e-06	8.122398e-06	1.249300e-08	5.682075e+01	8.197881e+02
1.700000e-06	8.107709e-06	1.248269e-08	5.671799e+01	8.188744e+02
1.710000e-06	8.090385e-06	1.247247e-08	5.659680e+01	8.178732e+02
1.720000e-06	8.070791e-06	1.245685e-08	5.645973e+01	8.167928e+02
1.730000e-06	8.048629e-06	1.241981e-08	5.630469e+01	8.156361e+02
1.740000e-06	8.023169e-06	1.235672e-08	5.612659e+01	8.144014e+02
1.750000e-06	7.993930e-06	1.235307e-08	5.592204e+01	8.130830e+02
1.760000e-06	7.961275e-06	1.235271e-08	5.569360e+01	8.116723e+02
1.770000e-06	7.926082e-06	1.233028e-08	5.544741e+01	8.101594e+02
1.780000e-06	7.888631e-06	1.233055e-08	5.518542e+01	8.085340e+02
1.790000e-06	7.848893e-06	1.234285e-08	5.490743e+01	8.067868e+02
1.800000e-06	7.807118e-06	1.227063e-08	5.461519e+01	8.049097e+02
1.810000e-06	7.762862e-06	1.221177e-08	5.430559e+01	8.028958e+02
1.820000e-06	7.715700e-06	1.224848e-08	5.397567e+01	8.007391e+02
1.830000e-06	7.665812e-06	1.217263e-08	5.362667e+01	7.984343e+02
1.840000e-06	7.612860e-06	1.216889e-08	5.325624e+01	7.959757e+02
1.850000e-06	7.556916e-06	1.213746e-08	5.286489e+01	7.933572e+02
1.860000e-06	7.498275e-06	1.206181e-08	5.245466e+01	7.905718e+02
1.870000e-06	7.436850e-06	1.203614e-08	5.202496e+01	7.876123e+02
1.880000e-06	7.372676e-06	1.194847e-08	5.157602e+01	7.844716e+02
1.890000e-06	7.305672e-06	1.193657e-08	5.110729e+01	7.811437e+02
1.900000e-06	7.235883e-06	1.185980e-08	5.061908e+01	7.776250e+02
1.910000e-06	7.163276e-06	1.179998e-08	5.011115e+01	7.739146e+02
1.920000e-06	7.087838e-06	1.176205e-08	4.958342e+01	7.700156e+02
1.930000e-06	7.009662e-06	1.168180e-08	4.903653e+01	7.659345e+02
1.940000e-06	6.928767e-06	1.166051e-08	4.847063e+01	7.616808e+02
1.950000e-06	6.845327e-06	1.155517e-08	4.788692e+01	7.572662e+02
1.960000e-06	6.759370e-06	1.148565e-08	4.728560e+01	7.527025e+02
1.970000e-06	6.670850e-06	1.141559e-08	4.666636e+01	7.480001e+02
1.980000e-06	6.579930e-06	1.134017e-08	4.603032e+01	7.431662e+02
1.990000e-06	6.486752e-06	1.128210e-08	4.537849e+01	7.382034e+02
2.000000e-06	6.391228e-06	1.119950e-08	4.471024e+01	7.331086e+02
2.010000e-06	6.293377e-06	1.112994e-08	4.402572e+01	7.278733e+02
2.020000e-06	6.193354e-06	1.101279e-08	4.332600e+01	7.224844e+02
2.030000e-06	6.091065e-06	1.092596e-08	4.261043e+01	7.169254e+02
2.040000e-06	5.986534e-06	1.084538e-08	4.187918e+01	7.111789e+02
2.050000e-06	5.879960e-06	1.077855e-08	4.113363e+01	7.052284e+02
2.060000e-06	5.771435e-06	1.068076e-08	4.037444e+01	6.990610e+02
2.070000e-06	5.660892e-06	1.056817e-08	3.960113e+01	6.926685e+02
2.080000e-06	5.548237e-06	1.047100e-08	3.881304e+01	6.860484e+02
2.090000e-06	5.433449e-06	1.036069e-08	3.801004e+01	6.792039e+02
2.100000e-06	5.316584e-06	1.025310e-08	3.719250e+01	6.721428e+02
2.110000e-06	5.197720e-06	1.015034e-08	3.636098e+01	6.648753e+02
2.120000e-06	5.076930e-06	1.005135e-08	3.551599e+01	6.574119e+02
2.130000e-06	4.954354e-06	9.921282e-09	3.465850e+01	6.497605e+02
2.140000e-06	4.829948e-06	9.800763e-09	3.378821e+01	6.419243e+02
2.150000e-06	4.703781e-06	9.686239e-09	3.290560e+01	6.339000e+02
2.160000e-06	4.575927e-06	9.565424e-09	3.201119e+01	6.256774e+02
2.170000e-06	4.446408e-06	9.423304e-09	3.110513e+01	6.172399e+02
2.180000e-06	4.315272e-06	9.285927e-09	3.018776e+01	6.085659e+02
2.190000e-06	4.182493e-06	9.156052e-09	2.925890e+01	5.996314e+02
2.200000e-06	4.048184e-06	9.017214e-09	2.831933e+01	5.904131e+02
2.210000e-06	3.912359e-06	8.874550e-09	2.736916e+01	5.808910e+02
2.220000e-06	3.774997e-06	8.727579e-09	2.640823e+01	5.710511e+02
2.230000e-06	3.636138e-06	8.570016e-09	2.543684e+01	5.608868e+02
2.240000e-06	3.495866e-06	8.403968e-09	2.445555e+01	5.503990e+02
2.250000e-06	3.354279e-06	8.247556e-09	2.346507e+01	5.395952e+02
2.260000e-06	3.211452e-06	8.092746e-09	2.246591e+01	5.284868e+02
2.270000e-06	3.067449e-06	7.925476e-09	2.145854e+01	5.170862e+02
2.280000e-06	2.922242e-06	7.737813e-09	2.044273e+01	5.054031e+02
2.290000e-06	2.775931e-06	7.546360e-09	1.941920e+01	4.934406e+02
2.300000e-06	2.628699e-06	7.356920e-09	1.838923e+01	4.811932e+02
2.310000e-06	2.480498e-06	7.169392e-09	1.735248e+01	4.686450e+02
2.320000e-06	2.331383e-06	6.979863e-09	1.630934e+01	4.557702e+02
2.330000e-06	2.181517e-06	6.779746e-09	1.526094e+01	4.425348e+02
2.340000e-06	2.030950e-06	6.565791e-09	1.420764e+01	4.288999e+02
2.350000e-06	1.879752e-06	6.347188e-09	1.314992e+01	4.148261e+02
2.360000e-06	1.728022e-06	6.125810e-09	1.208849e+01	4.002773e+02
2.370000e-06	1.575750e-06	5.896234e-09	1.102326e+01	3.852251e+02
2.380000e-06	1.422856e-06	5.658961e-09	9.953678e+00	3.696506e+02
2.390000e-06	1.269368e-06	5.414537e-09	8.879945e+00	3.535455e+02
2.400000e-06	1.115416e-06	5.163643e-09	7.802961e+00	3.369099e+02
2.410000e-06	9.611506e-07	4.906797e-09	6.723790e+00	3.197487e+02
2.420000e-06	8.066454e-07	4.643709e-09	5.642939e+00	3.020657e+02
2.430000e-06	6.518740e-07	4.369259e-09	4.560226e+00	2.838568e+02
2.440000e-06	4.968762e-07	4.080309e-09	3.475929e+00	2.651033e+02
2.450000e-06	3.416753e-07	3.779002e-09	2.390211e+00	2.457663e+02
2.460000e-06	1.863289e-07	3.472003e-09	1.303476e+00	2.257833e+02
2.470000e-06	3.088624e-08	3.155330e-09	2.160667e-01	2.050681e+02
2.480000e-06	-1.246107e-07	2.821589e-09	-8.717223e-01	1.835142e+02
2.490000e-06	-2.800574e-07	2.471716e-09	-1.959160e+00	1.610028e+02
2.500000e-06	-4.354135e-07	2.106525e-09	-3.045963e+00	1.374135e+02
2.510000e-06	-5.906836e-07	1.726810e-09	-4.132165e+00	1.126379e+02
2.520000e-06	-7.458185e-07	1.331705e-09	-5.217421e+00	8.659460e+01
2.530000e-06	-9.007049e-07	9.218063e-10	-6.300938e+00	5.924367e+01
2.540000e-06	-1.055273e-06	4.943446e-10	-7.382227e+00	3.059882e+01
2.550000e-06	-1.209479e-06	4.492578e-11	-8.460986e+00	7.361660e-01
2.560000e-06	-1.363245e-06	-4.248624e-10	-9.536668e+00	-3.020208e+01
2.570000e-06	-1.516494e-06	-9.096888e-10	-1.060873e+01	-6.200961e+01
2.580000e-06	-1.669103e-06	-1.408269e-09	-1.167631e+01	-9.442389e+01
2.590000e-06	-1.820985e-06	-1.918217e-09	-1.273881e+01	-1.271393e+02
2.600000e-06	-1.972212e-06	-2.429942e-09	-1.379674e+01	-1.598246e+02
2.610000e-06	-2.122783e-06	-2.933058e-09	-1.485006e+01	-1.921428e+02
2.620000e-06	-2.272635e-06	-3.420526e-09	-1.589836e+01	-2.237717e+02
2.630000e-06	-2.421668e-06	-3.888380e-09	-1.694093e+01	-2.544235e+02
2.640000e-06	-2.569749e-06	-4.334849e-09	-1.797684e+01	-2.838605e+02
2.650000e-06	-2.716789e-06	-4.758851e-09	-1.900547e+01	-3.119068e+02
2.660000e-06	-2.862804e-06	-5.160893e-09	-2.002693e+01	-3.384541e+02
2.670000e-06	-3.007737e-06	-5.541668e-09	-2.104082e+01	-3.634611e+02
2.680000e-06	-3.151481e-06	-5.900747e-09	-2.204639e+01	-3.869485e+02
2.690000e-06	-3.294015e-06	-6.237996e-09	-2.304349e+01	-4.089877e+02
2.700000e-06	-3.435343e-06	-6.555640e-09	-2.403216e+01	-4.296879e+02
2.710000e-06	-3.575394e-06	-6.858218e-09	-2.501189e+01	-4.491805e+02
2.720000e-06	-3.714089e-06	-7.147214e-09	-2.598214e+01	-4.676040e+02
2.730000e-06	-3.851391e-06	-7.420919e-09	-2.694265e+01	-4.850907e+02
2.740000e-06	-3.987226e-06	-7.676312e-09	-2.789289e+01	-5.017564e+02
2.750000e-06	-4.121654e-06	-7.917633e-09	-2.883329e+01	-5.176939e+02
2.760000e-06	-4.254623e-06	-8.151828e-09	-2.976348e+01	-5.329705e+02
2.770000e-06	-4.386090e-06	-8.379625e-09	-3.068317e+01	-5.476292e+02
2.780000e-06	-4.516112e-06	-8.598064e-09	-3.159275e+01	-5.616927e+02
2.790000e-06	-4.644566e-06	-8.803899e-09	-3.249136e+01	-5.751704e+02
2.800000e-06	-4.771346e-06	-9.000088e-09	-3.337825e+01	-5.880646e+02
2.810000e-06	-4.896467e-06	-9.187869e-09	-3.425355e+01	-6.003777e+02
2.820000e-06	-5.019886e-06	-9.367086e-09	-3.511693e+01	-6.121176e+02
2.830000e-06	-5.141494e-06	-9.538007e-09	-3.596765e+01	-6.233005e+02
2.840000e-06	-5.261152e-06	-9.697753e-09	-3.680472e+01	-6.339524e+02
2.850000e-06	-5.378764e-06	-9.848120e-09	-3.762749e+01	-6.441076e+02
2.860000e-06	-5.494275e-06	-9.995486e-09	-3.843555e+01	-6.538060e+02
2.870000e-06	-5.607552e-06	-1.014135e-08	-3.922798e+01	-6.630885e+02
2.880000e-06	-5.718636e-06	-1.028230e-08	-4.000508e+01	-6.719934e+02
2.890000e-06	-5.827671e-06	-1.041623e-08	-4.076784e+01	-6.805521e+02
2.900000e-06	-5.934664e-06	-1.054379e-08	-4.151632e+01	-6.887865e+02
2.910000e-06	-6.039496e-06	-1.066481e-08	-4.224968e+01	-6.967086e+02
2.920000e-06	-6.142028e-06	-1.077812e-08	-4.296695e+01	-7.043205e+02
2.930000e-06	-6.242305e-06	-1.088755e-08	-4.366844e+01	-7.116173e+02
2.940000e-06	-6.340423e-06	-1.099278e-08	-4.435483e+01	-7.185905e+02
