# Temperatura_=_53.45
# Concentracion g/m^3_=_15000.0
# C_Vs_to_Am_M_A/Vsm_=_65563218390.804596
# pendiente_HvsI_1/m_=_3716.3
# ordenada_HvsI_A/m_=_1297.0
# frecuencia_Hz_=_302360.9160660546

Tiempo_(s)	Campo_(V.s)	Magnetizacion_(V.s)	Campo_(kA/m)	Magnetizacion_(A/m)
0.000000e+00	-8.106971e-06	-9.893877e-09	-5.689824e+01	-6.471237e+02
1.000000e-08	-8.102681e-06	-9.896264e-09	-5.686813e+01	-6.468118e+02
2.000000e-08	-8.095836e-06	-9.888976e-09	-5.682009e+01	-6.463974e+02
3.000000e-08	-8.086243e-06	-9.879668e-09	-5.675276e+01	-6.458933e+02
4.000000e-08	-8.073680e-06	-9.868289e-09	-5.666459e+01	-6.453119e+02
5.000000e-08	-8.058153e-06	-9.854059e-09	-5.655561e+01	-6.446638e+02
6.000000e-08	-8.039964e-06	-9.837053e-09	-5.642795e+01	-6.439565e+02
7.000000e-08	-8.019479e-06	-9.814746e-09	-5.628418e+01	-6.431936e+02
8.000000e-08	-7.996491e-06	-9.811133e-09	-5.612284e+01	-6.423752e+02
9.000000e-08	-7.970477e-06	-9.876521e-09	-5.594026e+01	-6.414978e+02
1.000000e-07	-7.941227e-06	-9.852846e-09	-5.573497e+01	-6.405552e+02
1.100000e-07	-7.908926e-06	-9.780384e-09	-5.550827e+01	-6.395399e+02
1.200000e-07	-7.873759e-06	-9.750467e-09	-5.526145e+01	-6.384433e+02
1.300000e-07	-7.835965e-06	-9.723129e-09	-5.499619e+01	-6.372573e+02
1.400000e-07	-7.795874e-06	-9.676013e-09	-5.471482e+01	-6.359748e+02
1.500000e-07	-7.753519e-06	-9.621488e-09	-5.441756e+01	-6.345897e+02
1.600000e-07	-7.708515e-06	-9.728064e-09	-5.410170e+01	-6.330972e+02
1.700000e-07	-7.660700e-06	-9.635749e-09	-5.376611e+01	-6.314934e+02
1.800000e-07	-7.610089e-06	-9.561366e-09	-5.341090e+01	-6.297748e+02
1.900000e-07	-7.556515e-06	-9.659937e-09	-5.303490e+01	-6.279380e+02
2.000000e-07	-7.500055e-06	-9.517063e-09	-5.263863e+01	-6.259796e+02
2.100000e-07	-7.440894e-06	-9.471743e-09	-5.222342e+01	-6.238955e+02
2.200000e-07	-7.379095e-06	-9.461297e-09	-5.178969e+01	-6.216816e+02
2.300000e-07	-7.314685e-06	-9.420931e-09	-5.133763e+01	-6.193343e+02
2.400000e-07	-7.247469e-06	-9.416755e-09	-5.086588e+01	-6.168504e+02
2.500000e-07	-7.177392e-06	-9.353676e-09	-5.037405e+01	-6.142286e+02
2.600000e-07	-7.104517e-06	-9.333396e-09	-4.986258e+01	-6.114691e+02
2.700000e-07	-7.028762e-06	-9.268835e-09	-4.933090e+01	-6.085749e+02
2.800000e-07	-6.950190e-06	-9.217547e-09	-4.877944e+01	-6.055506e+02
2.900000e-07	-6.868926e-06	-9.156339e-09	-4.820910e+01	-6.024028e+02
3.000000e-07	-6.785249e-06	-9.129966e-09	-4.762182e+01	-5.991389e+02
3.100000e-07	-6.699275e-06	-9.111399e-09	-4.701842e+01	-5.957661e+02
3.200000e-07	-6.610924e-06	-9.001273e-09	-4.639833e+01	-5.922901e+02
3.300000e-07	-6.520202e-06	-8.966083e-09	-4.576160e+01	-5.887141e+02
3.400000e-07	-6.427107e-06	-8.923681e-09	-4.510822e+01	-5.850380e+02
3.500000e-07	-6.331725e-06	-8.846863e-09	-4.443879e+01	-5.812580e+02
3.600000e-07	-6.233993e-06	-8.768609e-09	-4.375286e+01	-5.773666e+02
3.700000e-07	-6.133945e-06	-8.721729e-09	-4.305068e+01	-5.733536e+02
3.800000e-07	-6.031733e-06	-8.675308e-09	-4.233331e+01	-5.692068e+02
3.900000e-07	-5.927391e-06	-8.591713e-09	-4.160100e+01	-5.649137e+02
4.000000e-07	-5.820956e-06	-8.533720e-09	-4.085399e+01	-5.604628e+02
4.100000e-07	-5.712473e-06	-8.464400e-09	-4.009261e+01	-5.558453e+02
4.200000e-07	-5.601948e-06	-8.390631e-09	-3.931690e+01	-5.510554e+02
4.300000e-07	-5.489348e-06	-8.295068e-09	-3.852662e+01	-5.460913e+02
4.400000e-07	-5.374616e-06	-8.224802e-09	-3.772138e+01	-5.409546e+02
4.500000e-07	-5.257720e-06	-8.160449e-09	-3.690096e+01	-5.356493e+02
4.600000e-07	-5.138926e-06	-8.072904e-09	-3.606721e+01	-5.301806e+02
4.700000e-07	-5.018367e-06	-7.975218e-09	-3.522108e+01	-5.245535e+02
4.800000e-07	-4.895976e-06	-7.887096e-09	-3.436208e+01	-5.187706e+02
4.900000e-07	-4.771761e-06	-7.802300e-09	-3.349028e+01	-5.128310e+02
5.000000e-07	-4.645791e-06	-7.700565e-09	-3.260618e+01	-5.067296e+02
5.100000e-07	-4.518237e-06	-7.605376e-09	-3.171094e+01	-5.004568e+02
5.200000e-07	-4.389024e-06	-7.507066e-09	-3.080407e+01	-4.939993e+02
5.300000e-07	-4.258131e-06	-7.407856e-09	-2.988541e+01	-4.873412e+02
5.400000e-07	-4.125617e-06	-7.299115e-09	-2.895537e+01	-4.804659e+02
5.500000e-07	-3.991532e-06	-7.191773e-09	-2.801430e+01	-4.733581e+02
5.600000e-07	-3.855994e-06	-7.076721e-09	-2.706303e+01	-4.660057e+02
5.700000e-07	-3.718957e-06	-6.953540e-09	-2.610125e+01	-4.584009e+02
5.800000e-07	-3.580456e-06	-6.830717e-09	-2.512919e+01	-4.505412e+02
5.900000e-07	-3.440476e-06	-6.710673e-09	-2.414675e+01	-4.424287e+02
6.000000e-07	-3.299008e-06	-6.588999e-09	-2.315387e+01	-4.340690e+02
6.100000e-07	-3.156206e-06	-6.455159e-09	-2.215162e+01	-4.254695e+02
6.200000e-07	-3.012213e-06	-6.319403e-09	-2.114102e+01	-4.166364e+02
6.300000e-07	-2.867065e-06	-6.180044e-09	-2.012231e+01	-4.075723e+02
6.400000e-07	-2.720811e-06	-6.040984e-09	-1.909583e+01	-3.982740e+02
6.500000e-07	-2.573735e-06	-5.896321e-09	-1.806359e+01	-3.887310e+02
6.600000e-07	-2.425827e-06	-5.746179e-09	-1.702550e+01	-3.789248e+02
6.700000e-07	-2.277008e-06	-5.587934e-09	-1.598103e+01	-3.688296e+02
6.800000e-07	-2.127501e-06	-5.423796e-09	-1.493172e+01	-3.584147e+02
6.900000e-07	-1.977403e-06	-5.259220e-09	-1.387827e+01	-3.476464e+02
7.000000e-07	-1.826681e-06	-5.087457e-09	-1.282044e+01	-3.364924e+02
7.100000e-07	-1.675289e-06	-4.909915e-09	-1.175790e+01	-3.249243e+02
7.200000e-07	-1.523313e-06	-4.724750e-09	-1.069127e+01	-3.129209e+02
7.300000e-07	-1.370803e-06	-4.538511e-09	-9.620893e+00	-3.004695e+02
7.400000e-07	-1.217750e-06	-4.346265e-09	-8.546701e+00	-2.875662e+02
7.500000e-07	-1.064230e-06	-4.147086e-09	-7.469230e+00	-2.742141e+02
7.600000e-07	-9.103287e-07	-3.941823e-09	-6.389082e+00	-2.604201e+02
7.700000e-07	-7.561425e-07	-3.727142e-09	-5.306936e+00	-2.461902e+02
7.800000e-07	-6.017716e-07	-3.502793e-09	-4.223494e+00	-2.315245e+02
7.900000e-07	-4.472488e-07	-3.272287e-09	-3.138986e+00	-2.164117e+02
8.000000e-07	-2.926178e-07	-3.036201e-09	-2.053719e+00	-2.008249e+02
8.100000e-07	-1.378903e-07	-2.787633e-09	-9.677738e-01	-1.847193e+02
8.200000e-07	1.697737e-08	-2.528875e-09	1.191546e-01	-1.680320e+02
8.300000e-07	1.719110e-07	-2.262953e-09	1.206546e+00	-1.506847e+02
8.400000e-07	3.267828e-07	-1.989686e-09	2.293503e+00	-1.325897e+02
8.500000e-07	4.815738e-07	-1.702461e-09	3.379894e+00	-1.136578e+02
8.600000e-07	6.362489e-07	-1.399767e-09	4.465471e+00	-9.380912e+01
8.700000e-07	7.907139e-07	-1.083843e-09	5.549573e+00	-7.298332e+01
8.800000e-07	9.449880e-07	-7.540722e-10	6.632336e+00	-5.115105e+01
8.900000e-07	1.099058e-06	-4.111360e-10	7.713668e+00	-2.832289e+01
9.000000e-07	1.252823e-06	-5.480973e-11	8.792853e+00	-4.555915e+00
9.100000e-07	1.406157e-06	3.150688e-10	9.869019e+00	2.004345e+01
9.200000e-07	1.558918e-06	7.003757e-10	1.094116e+01	4.532068e+01
9.300000e-07	1.710946e-06	1.099158e-09	1.200816e+01	7.107881e+01
9.400000e-07	1.862233e-06	1.502143e-09	1.306996e+01	9.708786e+01
9.500000e-07	2.012865e-06	1.902487e-09	1.412716e+01	1.230976e+02
9.600000e-07	2.162847e-06	2.299178e-09	1.517980e+01	1.488519e+02
9.700000e-07	2.312090e-06	2.687946e-09	1.622725e+01	1.741043e+02
9.800000e-07	2.460439e-06	3.061744e-09	1.726843e+01	1.986322e+02
9.900000e-07	2.607828e-06	3.416730e-09	1.830286e+01	2.222486e+02
1.000000e-06	2.754292e-06	3.754017e-09	1.933081e+01	2.448118e+02
1.010000e-06	2.899772e-06	4.075767e-09	2.035185e+01	2.662292e+02
1.020000e-06	3.044081e-06	4.379335e-09	2.136468e+01	2.864587e+02
1.030000e-06	3.187248e-06	4.664651e-09	2.236949e+01	3.055046e+02
1.040000e-06	3.329255e-06	4.935301e-09	2.336615e+01	3.234108e+02
1.050000e-06	3.469972e-06	5.191508e-09	2.435377e+01	3.402508e+02
1.060000e-06	3.609291e-06	5.433547e-09	2.533156e+01	3.561176e+02
1.070000e-06	3.747181e-06	5.663901e-09	2.629934e+01	3.711118e+02
1.080000e-06	3.883657e-06	5.885751e-09	2.725719e+01	3.853318e+02
1.090000e-06	4.018634e-06	6.094711e-09	2.820452e+01	3.988661e+02
1.100000e-06	4.152203e-06	6.290090e-09	2.914196e+01	4.117874e+02
1.110000e-06	4.284363e-06	6.474961e-09	3.006952e+01	4.241501e+02
1.120000e-06	4.414978e-06	6.652193e-09	3.098623e+01	4.359907e+02
1.130000e-06	4.544040e-06	6.822403e-09	3.189204e+01	4.473297e+02
1.140000e-06	4.671485e-06	6.983301e-09	3.278651e+01	4.581758e+02
1.150000e-06	4.797288e-06	7.138979e-09	3.366945e+01	4.685312e+02
1.160000e-06	4.921529e-06	7.290014e-09	3.454143e+01	4.783962e+02
1.170000e-06	5.044060e-06	7.434498e-09	3.540140e+01	4.877736e+02
1.180000e-06	5.164745e-06	7.571451e-09	3.624842e+01	4.966716e+02
1.190000e-06	5.283542e-06	7.700874e-09	3.708219e+01	5.051056e+02
1.200000e-06	5.400387e-06	7.824534e-09	3.790226e+01	5.130985e+02
1.210000e-06	5.515164e-06	7.940752e-09	3.870781e+01	5.206789e+02
1.220000e-06	5.627746e-06	8.050037e-09	3.949796e+01	5.278793e+02
1.230000e-06	5.738228e-06	8.155528e-09	4.027337e+01	5.347333e+02
1.240000e-06	5.846793e-06	8.254589e-09	4.103533e+01	5.412728e+02
1.250000e-06	5.953331e-06	8.348034e-09	4.178306e+01	5.475261e+02
1.260000e-06	6.057586e-06	8.437818e-09	4.251476e+01	5.535163e+02
1.270000e-06	6.159568e-06	8.523222e-09	4.323052e+01	5.592609e+02
1.280000e-06	6.259332e-06	8.604168e-09	4.393070e+01	5.647721e+02
1.290000e-06	6.356720e-06	8.683069e-09	4.461421e+01	5.700581e+02
1.300000e-06	6.451681e-06	8.760840e-09	4.528070e+01	5.751248e+02
1.310000e-06	6.544400e-06	8.834916e-09	4.593144e+01	5.799770e+02
1.320000e-06	6.634852e-06	8.904937e-09	4.656627e+01	5.846205e+02
1.330000e-06	6.722860e-06	8.971673e-09	4.718395e+01	5.890628e+02
1.340000e-06	6.808485e-06	9.035936e-09	4.778490e+01	5.933131e+02
1.350000e-06	6.891783e-06	9.097056e-09	4.836952e+01	5.973824e+02
1.360000e-06	6.972571e-06	9.155571e-09	4.893652e+01	6.012820e+02
1.370000e-06	7.050816e-06	9.213105e-09	4.948568e+01	6.050225e+02
1.380000e-06	7.126485e-06	9.269047e-09	5.001676e+01	6.086121e+02
1.390000e-06	7.199433e-06	9.322479e-09	5.052874e+01	6.120556e+02
1.400000e-06	7.269730e-06	9.372556e-09	5.102211e+01	6.153535e+02
1.410000e-06	7.337526e-06	9.419736e-09	5.149794e+01	6.185019e+02
1.420000e-06	7.402673e-06	9.462543e-09	5.195517e+01	6.214931e+02
1.430000e-06	7.465172e-06	9.502144e-09	5.239381e+01	6.243170e+02
1.440000e-06	7.525227e-06	9.539742e-09	5.281531e+01	6.269629e+02
1.450000e-06	7.582626e-06	9.575357e-09	5.321816e+01	6.294212e+02
1.460000e-06	7.637277e-06	9.608618e-09	5.360172e+01	6.316853e+02
1.470000e-06	7.688975e-06	9.638798e-09	5.396456e+01	6.337534e+02
1.480000e-06	7.737500e-06	9.668625e-09	5.430513e+01	6.356290e+02
1.490000e-06	7.783177e-06	9.696426e-09	5.462571e+01	6.373212e+02
1.500000e-06	7.826205e-06	9.719264e-09	5.492770e+01	6.388437e+02
1.510000e-06	7.866378e-06	9.738150e-09	5.520965e+01	6.402137e+02
1.520000e-06	7.903683e-06	9.756210e-09	5.547147e+01	6.414498e+02
1.530000e-06	7.938257e-06	9.774584e-09	5.571413e+01	6.425700e+02
1.540000e-06	7.969995e-06	9.791054e-09	5.593688e+01	6.435894e+02
1.550000e-06	7.998958e-06	9.805523e-09	5.614016e+01	6.445192e+02
1.560000e-06	8.025031e-06	9.818693e-09	5.632315e+01	6.453651e+02
1.570000e-06	8.048116e-06	9.830626e-09	5.648517e+01	6.461274e+02
1.580000e-06	8.068454e-06	9.841767e-09	5.662791e+01	6.468017e+02
1.590000e-06	8.085919e-06	9.850918e-09	5.675049e+01	6.473797e+02
1.600000e-06	8.100314e-06	9.857508e-09	5.685151e+01	6.478515e+02
1.610000e-06	8.111608e-06	9.862105e-09	5.693078e+01	6.482071e+02
1.620000e-06	8.119755e-06	9.865664e-09	5.698796e+01	6.484381e+02
1.630000e-06	8.125000e-06	9.868931e-09	5.702477e+01	6.485398e+02
1.640000e-06	8.127384e-06	9.870151e-09	5.704150e+01	6.485115e+02
1.650000e-06	8.126826e-06	9.872173e-09	5.703759e+01	6.483570e+02
1.660000e-06	8.123613e-06	9.862951e-09	5.701503e+01	6.480845e+02
1.670000e-06	8.117753e-06	9.858694e-09	5.697391e+01	6.477048e+02
1.680000e-06	8.109082e-06	9.857029e-09	5.691305e+01	6.472309e+02
1.690000e-06	8.097678e-06	9.850543e-09	5.683301e+01	6.466754e+02
1.700000e-06	8.083476e-06	9.845230e-09	5.673334e+01	6.460497e+02
1.710000e-06	8.066578e-06	9.843358e-09	5.661474e+01	6.453625e+02
1.720000e-06	8.047326e-06	9.849468e-09	5.647962e+01	6.446189e+02
1.730000e-06	8.025592e-06	9.807711e-09	5.632708e+01	6.438202e+02
1.740000e-06	8.000679e-06	9.706335e-09	5.615223e+01	6.429641e+02
1.750000e-06	7.971971e-06	9.730928e-09	5.595075e+01	6.420453e+02
1.760000e-06	7.939716e-06	9.751719e-09	5.572437e+01	6.410565e+02
1.770000e-06	7.904795e-06	9.723472e-09	5.547928e+01	6.399895e+02
1.780000e-06	7.867605e-06	9.741397e-09	5.521826e+01	6.388360e+02
1.790000e-06	7.828112e-06	9.819900e-09	5.494108e+01	6.375883e+02
1.800000e-06	7.786641e-06	9.661334e-09	5.465002e+01	6.362401e+02
1.810000e-06	7.742868e-06	9.615118e-09	5.434281e+01	6.347861e+02
1.820000e-06	7.696291e-06	9.741303e-09	5.401590e+01	6.332220e+02
1.830000e-06	7.646978e-06	9.552074e-09	5.366980e+01	6.315444e+02
1.840000e-06	7.594574e-06	9.642766e-09	5.330201e+01	6.297499e+02
1.850000e-06	7.539169e-06	9.586552e-09	5.291316e+01	6.278350e+02
1.860000e-06	7.481070e-06	9.515212e-09	5.250539e+01	6.257958e+02
1.870000e-06	7.420186e-06	9.565702e-09	5.207808e+01	6.236284e+02
1.880000e-06	7.356618e-06	9.413490e-09	5.163193e+01	6.213288e+02
1.890000e-06	7.290195e-06	9.477916e-09	5.116575e+01	6.188936e+02
1.900000e-06	7.220923e-06	9.374930e-09	5.067957e+01	6.163207e+02
1.910000e-06	7.148829e-06	9.324554e-09	5.017358e+01	6.136098e+02
1.920000e-06	7.073939e-06	9.324326e-09	4.964797e+01	6.107629e+02
1.930000e-06	6.996378e-06	9.259560e-09	4.910362e+01	6.077840e+02
1.940000e-06	6.916086e-06	9.267464e-09	4.854009e+01	6.046791e+02
1.950000e-06	6.833287e-06	9.122094e-09	4.795897e+01	6.014555e+02
1.960000e-06	6.747976e-06	9.137431e-09	4.736022e+01	5.981204e+02
1.970000e-06	6.660043e-06	9.074065e-09	4.674307e+01	5.946803e+02
1.980000e-06	6.569660e-06	8.990942e-09	4.610872e+01	5.911395e+02
1.990000e-06	6.476996e-06	8.979805e-09	4.545837e+01	5.874990e+02
2.000000e-06	6.382074e-06	8.916322e-09	4.479216e+01	5.837564e+02
2.010000e-06	6.284838e-06	8.862992e-09	4.410971e+01	5.799055e+02
2.020000e-06	6.185355e-06	8.753314e-09	4.341150e+01	5.759369e+02
2.030000e-06	6.083645e-06	8.724390e-09	4.269766e+01	5.718390e+02
2.040000e-06	5.979787e-06	8.660069e-09	4.196874e+01	5.675991e+02
2.050000e-06	5.873837e-06	8.598056e-09	4.122514e+01	5.632054e+02
2.060000e-06	5.765900e-06	8.521079e-09	4.046758e+01	5.586479e+02
2.070000e-06	5.656019e-06	8.456089e-09	3.969639e+01	5.539196e+02
2.080000e-06	5.544005e-06	8.386350e-09	3.891023e+01	5.490173e+02
2.090000e-06	5.429872e-06	8.288540e-09	3.810920e+01	5.439415e+02
2.100000e-06	5.313731e-06	8.216418e-09	3.729407e+01	5.386954e+02
2.110000e-06	5.195542e-06	8.136057e-09	3.646457e+01	5.332842e+02
2.120000e-06	5.075314e-06	8.056017e-09	3.562075e+01	5.277128e+02
2.130000e-06	4.953258e-06	7.960282e-09	3.476411e+01	5.219851e+02
2.140000e-06	4.829448e-06	7.890561e-09	3.389516e+01	5.161014e+02
2.150000e-06	4.703849e-06	7.801974e-09	3.301365e+01	5.100583e+02
2.160000e-06	4.576539e-06	7.703094e-09	3.212013e+01	5.038477e+02
2.170000e-06	4.447575e-06	7.592844e-09	3.121501e+01	4.974575e+02
2.180000e-06	4.316994e-06	7.493001e-09	3.029853e+01	4.908726e+02
2.190000e-06	4.184864e-06	7.390224e-09	2.937119e+01	4.840763e+02
2.200000e-06	4.051171e-06	7.281440e-09	2.843287e+01	4.770528e+02
2.210000e-06	3.915982e-06	7.174061e-09	2.748406e+01	4.697885e+02
2.220000e-06	3.779213e-06	7.062549e-09	2.652415e+01	4.622741e+02
2.230000e-06	3.640911e-06	6.949208e-09	2.555349e+01	4.545050e+02
2.240000e-06	3.501305e-06	6.827945e-09	2.457368e+01	4.464819e+02
2.250000e-06	3.360373e-06	6.708683e-09	2.358455e+01	4.382093e+02
2.260000e-06	3.218130e-06	6.578935e-09	2.258623e+01	4.296943e+02
2.270000e-06	3.074660e-06	6.444132e-09	2.157929e+01	4.209437e+02
2.280000e-06	2.929984e-06	6.300829e-09	2.056390e+01	4.119617e+02
2.290000e-06	2.784116e-06	6.161203e-09	1.954014e+01	4.027475e+02
2.300000e-06	2.637292e-06	6.019293e-09	1.850966e+01	3.932933e+02
2.310000e-06	2.489728e-06	5.875041e-09	1.747399e+01	3.835833e+02
2.320000e-06	2.341413e-06	5.726330e-09	1.643305e+01	3.735943e+02
2.330000e-06	2.192228e-06	5.566962e-09	1.538601e+01	3.632969e+02
2.340000e-06	2.042178e-06	5.401771e-09	1.433289e+01	3.526583e+02
2.350000e-06	1.891474e-06	5.234284e-09	1.327519e+01	3.416452e+02
2.360000e-06	1.740266e-06	5.061893e-09	1.221394e+01	3.302275e+02
2.370000e-06	1.588565e-06	4.881064e-09	1.114924e+01	3.183811e+02
2.380000e-06	1.436288e-06	4.693556e-09	1.008049e+01	3.060902e+02
2.390000e-06	1.283366e-06	4.501501e-09	9.007219e+00	2.933479e+02
2.400000e-06	1.129927e-06	4.301359e-09	7.930316e+00	2.801550e+02
2.410000e-06	9.761224e-07	4.091694e-09	6.850850e+00	2.665176e+02
2.420000e-06	8.219772e-07	3.877160e-09	5.768992e+00	2.524426e+02
2.430000e-06	6.675622e-07	3.656899e-09	4.685241e+00	2.379328e+02
2.440000e-06	5.129630e-07	3.429804e-09	3.600197e+00	2.229815e+02
2.450000e-06	3.581995e-07	3.193807e-09	2.513999e+00	2.075678e+02
2.460000e-06	2.033102e-07	2.949785e-09	1.426919e+00	1.916534e+02
2.470000e-06	4.837908e-08	2.692763e-09	3.395453e-01	1.751818e+02
2.480000e-06	-1.065796e-07	2.423935e-09	-7.480221e-01	1.580795e+02
2.490000e-06	-2.615567e-07	2.147638e-09	-1.835718e+00	1.402615e+02
2.500000e-06	-4.164667e-07	1.862027e-09	-2.922944e+00	1.216381e+02
2.510000e-06	-5.712533e-07	1.566250e-09	-4.009303e+00	1.021247e+02
2.520000e-06	-7.259304e-07	1.257131e-09	-5.094894e+00	8.165262e+01
2.530000e-06	-8.804090e-07	9.339035e-10	-6.179092e+00	6.018047e+01
2.540000e-06	-1.034620e-06	5.923912e-10	-7.261414e+00	3.770357e+01
2.550000e-06	-1.188526e-06	2.339987e-10	-8.341592e+00	1.426188e+01
2.560000e-06	-1.341930e-06	-1.362701e-10	-9.418248e+00	-1.005590e+01
2.570000e-06	-1.494758e-06	-5.171501e-10	-1.049086e+01	-3.511198e+01
2.580000e-06	-1.647000e-06	-9.077862e-10	-1.155936e+01	-6.072366e+01
2.590000e-06	-1.798545e-06	-1.306770e-09	-1.262297e+01	-8.667145e+01
2.600000e-06	-1.949441e-06	-1.707795e-09	-1.368202e+01	-1.127107e+02
2.610000e-06	-2.099702e-06	-2.106741e-09	-1.473662e+01	-1.385857e+02
2.620000e-06	-2.249090e-06	-2.498930e-09	-1.578509e+01	-1.640449e+02
2.630000e-06	-2.397535e-06	-2.879605e-09	-1.682694e+01	-1.888554e+02
2.640000e-06	-2.545069e-06	-3.247378e-09	-1.786240e+01	-2.128165e+02
2.650000e-06	-2.691682e-06	-3.597470e-09	-1.889139e+01	-2.357694e+02
2.660000e-06	-2.837438e-06	-3.925532e-09	-1.991437e+01	-2.576038e+02
2.670000e-06	-2.982151e-06	-4.234484e-09	-2.093003e+01	-2.782598e+02
2.680000e-06	-3.125606e-06	-4.530477e-09	-2.193685e+01	-2.977256e+02
2.690000e-06	-3.267884e-06	-4.813340e-09	-2.293543e+01	-3.160320e+02
2.700000e-06	-3.408863e-06	-5.079379e-09	-2.392488e+01	-3.332433e+02
2.710000e-06	-3.548463e-06	-5.328473e-09	-2.490465e+01	-3.494467e+02
2.720000e-06	-3.686808e-06	-5.564380e-09	-2.587562e+01	-3.647413e+02
2.730000e-06	-3.823767e-06	-5.791640e-09	-2.683685e+01	-3.792273e+02
2.740000e-06	-3.959234e-06	-6.009359e-09	-2.778762e+01	-3.929976e+02
2.750000e-06	-4.093294e-06	-6.216254e-09	-2.872851e+01	-4.061310e+02
2.760000e-06	-4.225972e-06	-6.409911e-09	-2.965970e+01	-4.186886e+02
2.770000e-06	-4.357152e-06	-6.590404e-09	-3.058038e+01	-4.307129e+02
2.780000e-06	-4.486859e-06	-6.763599e-09	-3.149072e+01	-4.422298e+02
2.790000e-06	-4.615030e-06	-6.930145e-09	-3.239028e+01	-4.532519e+02
2.800000e-06	-4.741601e-06	-7.088860e-09	-3.327861e+01	-4.637829e+02
2.810000e-06	-4.866573e-06	-7.239743e-09	-3.415572e+01	-4.738233e+02
2.820000e-06	-4.989794e-06	-7.383228e-09	-3.502054e+01	-4.833746e+02
2.830000e-06	-5.111248e-06	-7.521433e-09	-3.587295e+01	-4.924428e+02
2.840000e-06	-5.230794e-06	-7.652599e-09	-3.671198e+01	-5.010407e+02
2.850000e-06	-5.348238e-06	-7.777965e-09	-3.753625e+01	-5.091885e+02
2.860000e-06	-5.463515e-06	-7.899597e-09	-3.834532e+01	-5.169130e+02
2.870000e-06	-5.576507e-06	-8.014277e-09	-3.913834e+01	-5.242456e+02
2.880000e-06	-5.687293e-06	-8.121957e-09	-3.991589e+01	-5.312198e+02
2.890000e-06	-5.796117e-06	-8.226036e-09	-4.067966e+01	-5.378685e+02
2.900000e-06	-5.902993e-06	-8.325277e-09	-4.142977e+01	-5.442215e+02
2.910000e-06	-6.007785e-06	-8.418858e-09	-4.216524e+01	-5.503037e+02
2.920000e-06	-6.110313e-06	-8.505665e-09	-4.288482e+01	-5.561348e+02
2.930000e-06	-6.210533e-06	-8.589959e-09	-4.358821e+01	-5.617286e+02
2.940000e-06	-6.308589e-06	-8.672619e-09	-4.427641e+01	-5.670947e+02
