# Temperatura_=_78.99
# Concentracion g/m^3_=_15000.0
# C_Vs_to_Am_M_A/Vsm_=_65563218390.804596
# pendiente_HvsI_1/m_=_3716.3
# ordenada_HvsI_A/m_=_1297.0
# frecuencia_Hz_=_302363.0355751063

Tiempo_(s)	Campo_(V.s)	Magnetizacion_(V.s)	Campo_(kA/m)	Magnetizacion_(A/m)
0.000000e+00	-8.194426e-06	-1.293074e-08	-5.689620e+01	-8.469896e+02
1.000000e-08	-8.189930e-06	-1.292426e-08	-5.686498e+01	-8.465391e+02
2.000000e-08	-8.182849e-06	-1.291466e-08	-5.681582e+01	-8.459577e+02
3.000000e-08	-8.172972e-06	-1.290594e-08	-5.674724e+01	-8.452591e+02
4.000000e-08	-8.160181e-06	-1.289666e-08	-5.665842e+01	-8.444537e+02
5.000000e-08	-8.144529e-06	-1.288370e-08	-5.654975e+01	-8.435476e+02
6.000000e-08	-8.126191e-06	-1.286718e-08	-5.642242e+01	-8.425425e+02
7.000000e-08	-8.105455e-06	-1.284728e-08	-5.627845e+01	-8.414354e+02
8.000000e-08	-8.082083e-06	-1.284131e-08	-5.611617e+01	-8.402205e+02
9.000000e-08	-8.055552e-06	-1.286671e-08	-5.593195e+01	-8.388900e+02
1.000000e-07	-8.025774e-06	-1.283122e-08	-5.572520e+01	-8.374364e+02
1.100000e-07	-7.992964e-06	-1.277142e-08	-5.549739e+01	-8.358540e+02
1.200000e-07	-7.957269e-06	-1.273682e-08	-5.524955e+01	-8.341394e+02
1.300000e-07	-7.919005e-06	-1.270270e-08	-5.498387e+01	-8.322927e+02
1.400000e-07	-7.878310e-06	-1.266199e-08	-5.470131e+01	-8.303164e+02
1.500000e-07	-7.835216e-06	-1.260061e-08	-5.440210e+01	-8.282144e+02
1.600000e-07	-7.789575e-06	-1.262389e-08	-5.408520e+01	-8.259907e+02
1.700000e-07	-7.741027e-06	-1.256439e-08	-5.374812e+01	-8.236473e+02
1.800000e-07	-7.689564e-06	-1.248688e-08	-5.339080e+01	-8.211831e+02
1.900000e-07	-7.635236e-06	-1.251546e-08	-5.301359e+01	-8.185922e+02
2.000000e-07	-7.578017e-06	-1.242991e-08	-5.261630e+01	-8.158643e+02
2.100000e-07	-7.518084e-06	-1.238646e-08	-5.220017e+01	-8.129851e+02
2.200000e-07	-7.455519e-06	-1.235273e-08	-5.176576e+01	-8.099377e+02
2.300000e-07	-7.390202e-06	-1.226998e-08	-5.131225e+01	-8.067047e+02
2.400000e-07	-7.322062e-06	-1.222096e-08	-5.083913e+01	-8.032708e+02
2.500000e-07	-7.251058e-06	-1.217111e-08	-5.034613e+01	-7.996247e+02
2.600000e-07	-7.177101e-06	-1.214301e-08	-4.983262e+01	-7.957613e+02
2.700000e-07	-7.100267e-06	-1.206680e-08	-4.929914e+01	-7.916826e+02
2.800000e-07	-7.020657e-06	-1.199353e-08	-4.874639e+01	-7.873974e+02
2.900000e-07	-6.938438e-06	-1.191029e-08	-4.817552e+01	-7.829201e+02
3.000000e-07	-6.853883e-06	-1.183933e-08	-4.758843e+01	-7.782689e+02
3.100000e-07	-6.766940e-06	-1.178709e-08	-4.698477e+01	-7.734627e+02
3.200000e-07	-6.677467e-06	-1.169654e-08	-4.636353e+01	-7.685182e+02
3.300000e-07	-6.585561e-06	-1.163617e-08	-4.572540e+01	-7.634471e+02
3.400000e-07	-6.491307e-06	-1.156878e-08	-4.507096e+01	-7.582540e+02
3.500000e-07	-6.394637e-06	-1.148369e-08	-4.439975e+01	-7.529354e+02
3.600000e-07	-6.295663e-06	-1.138728e-08	-4.371255e+01	-7.474800e+02
3.700000e-07	-6.194390e-06	-1.129918e-08	-4.300939e+01	-7.418702e+02
3.800000e-07	-6.090817e-06	-1.121246e-08	-4.229025e+01	-7.360842e+02
3.900000e-07	-5.985116e-06	-1.111445e-08	-4.155634e+01	-7.300997e+02
4.000000e-07	-5.877363e-06	-1.102748e-08	-4.080818e+01	-7.238965e+02
4.100000e-07	-5.767596e-06	-1.093297e-08	-4.004604e+01	-7.174598e+02
4.200000e-07	-5.655671e-06	-1.083722e-08	-3.926891e+01	-7.107820e+02
4.300000e-07	-5.541520e-06	-1.071794e-08	-3.847633e+01	-7.038634e+02
4.400000e-07	-5.425286e-06	-1.059916e-08	-3.766928e+01	-6.967114e+02
4.500000e-07	-5.307052e-06	-1.049200e-08	-3.684835e+01	-6.893390e+02
4.600000e-07	-5.186911e-06	-1.038575e-08	-3.601418e+01	-6.817613e+02
4.700000e-07	-5.064894e-06	-1.027061e-08	-3.516698e+01	-6.739925e+02
4.800000e-07	-4.941018e-06	-1.015370e-08	-3.430688e+01	-6.660423e+02
4.900000e-07	-4.815421e-06	-1.003184e-08	-3.343482e+01	-6.579133e+02
5.000000e-07	-4.688132e-06	-9.892676e-09	-3.255102e+01	-6.495989e+02
5.100000e-07	-4.559101e-06	-9.755778e-09	-3.165512e+01	-6.410837e+02
5.200000e-07	-4.428343e-06	-9.626792e-09	-3.074723e+01	-6.323441e+02
5.300000e-07	-4.295963e-06	-9.495000e-09	-2.982807e+01	-6.233517e+02
5.400000e-07	-4.162045e-06	-9.346679e-09	-2.889824e+01	-6.140765e+02
5.500000e-07	-4.026506e-06	-9.197247e-09	-2.795716e+01	-6.044906e+02
5.600000e-07	-3.889333e-06	-9.045393e-09	-2.700473e+01	-5.945725e+02
5.700000e-07	-3.750635e-06	-8.882948e-09	-2.604171e+01	-5.843096e+02
5.800000e-07	-3.610432e-06	-8.714495e-09	-2.506824e+01	-5.736993e+02
5.900000e-07	-3.468709e-06	-8.550928e-09	-2.408422e+01	-5.627486e+02
6.000000e-07	-3.325569e-06	-8.386819e-09	-2.309036e+01	-5.514725e+02
6.100000e-07	-3.181184e-06	-8.210701e-09	-2.208786e+01	-5.398895e+02
6.200000e-07	-3.035635e-06	-8.031573e-09	-2.107726e+01	-5.280177e+02
6.300000e-07	-2.889005e-06	-7.850389e-09	-2.005917e+01	-5.158700e+02
6.400000e-07	-2.741334e-06	-7.659829e-09	-1.903385e+01	-5.034496e+02
6.500000e-07	-2.592728e-06	-7.458461e-09	-1.800204e+01	-4.907476e+02
6.600000e-07	-2.443255e-06	-7.256470e-09	-1.696421e+01	-4.777418e+02
6.700000e-07	-2.292956e-06	-7.052420e-09	-1.592064e+01	-4.643979e+02
6.800000e-07	-2.141851e-06	-6.840377e-09	-1.487147e+01	-4.506723e+02
6.900000e-07	-1.989914e-06	-6.623265e-09	-1.381653e+01	-4.365174e+02
7.000000e-07	-1.837301e-06	-6.398047e-09	-1.275690e+01	-4.218863e+02
7.100000e-07	-1.684111e-06	-6.162205e-09	-1.169325e+01	-4.067389e+02
7.200000e-07	-1.530361e-06	-5.919132e-09	-1.062572e+01	-3.910457e+02
7.300000e-07	-1.376089e-06	-5.677017e-09	-9.554574e+00	-3.747903e+02
7.400000e-07	-1.221336e-06	-5.429394e-09	-8.480076e+00	-3.579691e+02
7.500000e-07	-1.066143e-06	-5.168793e-09	-7.402532e+00	-3.405884e+02
7.600000e-07	-9.105867e-07	-4.897538e-09	-6.322459e+00	-3.226588e+02
7.700000e-07	-7.547525e-07	-4.617149e-09	-5.240459e+00	-3.041874e+02
7.800000e-07	-5.987131e-07	-4.327378e-09	-4.157033e+00	-2.851701e+02
7.900000e-07	-4.424679e-07	-4.028837e-09	-3.072179e+00	-2.655834e+02
8.000000e-07	-2.859650e-07	-3.719688e-09	-1.985535e+00	-2.453785e+02
8.100000e-07	-1.293601e-07	-3.394823e-09	-8.981837e-01	-2.244785e+02
8.200000e-07	2.725877e-08	-3.055370e-09	1.892653e-01	-2.027797e+02
8.300000e-07	1.839160e-07	-2.704125e-09	1.276981e+00	-1.801576e+02
8.400000e-07	3.405657e-07	-2.341544e-09	2.364643e+00	-1.564770e+02
8.500000e-07	4.971755e-07	-1.961166e-09	3.452029e+00	-1.316057e+02
8.600000e-07	6.536252e-07	-1.560858e-09	4.538303e+00	-1.054310e+02
8.700000e-07	8.098638e-07	-1.146509e-09	5.623111e+00	-7.787654e+01
8.800000e-07	9.658610e-07	-7.164722e-10	6.706244e+00	-4.891785e+01
8.900000e-07	1.121530e-06	-2.648067e-10	7.787096e+00	-1.859460e+01
9.000000e-07	1.276826e-06	2.087160e-10	8.865363e+00	1.298201e+01
9.100000e-07	1.431671e-06	7.024739e-10	9.940494e+00	4.562786e+01
9.200000e-07	1.585989e-06	1.215883e-09	1.101197e+01	7.909129e+01
9.300000e-07	1.739752e-06	1.741826e-09	1.207958e+01	1.130648e+02
9.400000e-07	1.892896e-06	2.269851e-09	1.314291e+01	1.472020e+02
9.500000e-07	2.045390e-06	2.793592e-09	1.420172e+01	1.811389e+02
9.600000e-07	2.197160e-06	3.306403e-09	1.525550e+01	2.145163e+02
9.700000e-07	2.348015e-06	3.801867e-09	1.630293e+01	2.470026e+02
9.800000e-07	2.497826e-06	4.273914e-09	1.734310e+01	2.783131e+02
9.900000e-07	2.646574e-06	4.719082e-09	1.837591e+01	3.082253e+02
1.000000e-06	2.794387e-06	5.139272e-09	1.940221e+01	3.365883e+02
1.010000e-06	2.941242e-06	5.537791e-09	2.042187e+01	3.633257e+02
1.020000e-06	3.086990e-06	5.913806e-09	2.143384e+01	3.884315e+02
1.030000e-06	3.231668e-06	6.269472e-09	2.243837e+01	4.119612e+02
1.040000e-06	3.375131e-06	6.606511e-09	2.343448e+01	4.340179e+02
1.050000e-06	3.517251e-06	6.926313e-09	2.442126e+01	4.547361e+02
1.060000e-06	3.658033e-06	7.227988e-09	2.539875e+01	4.742650e+02
1.070000e-06	3.797387e-06	7.512145e-09	2.636632e+01	4.927524e+02
1.080000e-06	3.935284e-06	7.782448e-09	2.732378e+01	5.103327e+02
1.090000e-06	4.071723e-06	8.038453e-09	2.827111e+01	5.271173e+02
1.100000e-06	4.206630e-06	8.281738e-09	2.920781e+01	5.431904e+02
1.110000e-06	4.340029e-06	8.513178e-09	3.013404e+01	5.586089e+02
1.120000e-06	4.471945e-06	8.735240e-09	3.104997e+01	5.734056e+02
1.130000e-06	4.602278e-06	8.948068e-09	3.195491e+01	5.875952e+02
1.140000e-06	4.731050e-06	9.150484e-09	3.284901e+01	6.011823e+02
1.150000e-06	4.858165e-06	9.343937e-09	3.373160e+01	6.141683e+02
1.160000e-06	4.983558e-06	9.529920e-09	3.460224e+01	6.265583e+02
1.170000e-06	5.107229e-06	9.707795e-09	3.546093e+01	6.383653e+02
1.180000e-06	5.229133e-06	9.877573e-09	3.630733e+01	6.496121e+02
1.190000e-06	5.349164e-06	1.004055e-08	3.714075e+01	6.603313e+02
1.200000e-06	5.467157e-06	1.019953e-08	3.796000e+01	6.705622e+02
1.210000e-06	5.583086e-06	1.035287e-08	3.876494e+01	6.803473e+02
1.220000e-06	5.696879e-06	1.049923e-08	3.955503e+01	6.897274e+02
1.230000e-06	5.808444e-06	1.063924e-08	4.032966e+01	6.987374e+02
1.240000e-06	5.917858e-06	1.077300e-08	4.108935e+01	7.074035e+02
1.250000e-06	6.025199e-06	1.090065e-08	4.183464e+01	7.157409e+02
1.260000e-06	6.130377e-06	1.102078e-08	4.256493e+01	7.237550e+02
1.270000e-06	6.233279e-06	1.113365e-08	4.327940e+01	7.314426e+02
1.280000e-06	6.333904e-06	1.124301e-08	4.397807e+01	7.387957e+02
1.290000e-06	6.432200e-06	1.134963e-08	4.466057e+01	7.458056e+02
1.300000e-06	6.528042e-06	1.145134e-08	4.532603e+01	7.524668e+02
1.310000e-06	6.621538e-06	1.154711e-08	4.597519e+01	7.587804e+02
1.320000e-06	6.712778e-06	1.163648e-08	4.660870e+01	7.647565e+02
1.330000e-06	6.801604e-06	1.172114e-08	4.722545e+01	7.704144e+02
1.340000e-06	6.887981e-06	1.180277e-08	4.782518e+01	7.757820e+02
1.350000e-06	6.971932e-06	1.188178e-08	4.840808e+01	7.808923e+02
1.360000e-06	7.053370e-06	1.195703e-08	4.897353e+01	7.857807e+02
1.370000e-06	7.132244e-06	1.202891e-08	4.952117e+01	7.904801e+02
1.380000e-06	7.208474e-06	1.209969e-08	5.005045e+01	7.950175e+02
1.390000e-06	7.281971e-06	1.216963e-08	5.056077e+01	7.994108e+02
1.400000e-06	7.352832e-06	1.223600e-08	5.105278e+01	8.036668e+02
1.410000e-06	7.421183e-06	1.229780e-08	5.152735e+01	8.077817e+02
1.420000e-06	7.486874e-06	1.235541e-08	5.198347e+01	8.117419e+02
1.430000e-06	7.549856e-06	1.241185e-08	5.242077e+01	8.155271e+02
1.440000e-06	7.610311e-06	1.246614e-08	5.284052e+01	8.191137e+02
1.450000e-06	7.668152e-06	1.251650e-08	5.324213e+01	8.224792e+02
1.460000e-06	7.723242e-06	1.256283e-08	5.362464e+01	8.256052e+02
1.470000e-06	7.775379e-06	1.260522e-08	5.398664e+01	8.284809e+02
1.480000e-06	7.824319e-06	1.264581e-08	5.432644e+01	8.311044e+02
1.490000e-06	7.870291e-06	1.268379e-08	5.464564e+01	8.334827e+02
1.500000e-06	7.913504e-06	1.271848e-08	5.494568e+01	8.356309e+02
1.510000e-06	7.953870e-06	1.274922e-08	5.522595e+01	8.375694e+02
1.520000e-06	7.991411e-06	1.277560e-08	5.548661e+01	8.393212e+02
1.530000e-06	8.026210e-06	1.280056e-08	5.572823e+01	8.409085e+02
1.540000e-06	8.058136e-06	1.282426e-08	5.594990e+01	8.423498e+02
1.550000e-06	8.087226e-06	1.284509e-08	5.615188e+01	8.436575e+02
1.560000e-06	8.113478e-06	1.286337e-08	5.633415e+01	8.448372e+02
1.570000e-06	8.136725e-06	1.287963e-08	5.649556e+01	8.458875e+02
1.580000e-06	8.157060e-06	1.289456e-08	5.663675e+01	8.468013e+02
1.590000e-06	8.174425e-06	1.290525e-08	5.675733e+01	8.475680e+02
1.600000e-06	8.188745e-06	1.291227e-08	5.685675e+01	8.481757e+02
1.610000e-06	8.199980e-06	1.291830e-08	5.693476e+01	8.486144e+02
1.620000e-06	8.208035e-06	1.292311e-08	5.699069e+01	8.488775e+02
1.630000e-06	8.213119e-06	1.292623e-08	5.702599e+01	8.489636e+02
1.640000e-06	8.215353e-06	1.292669e-08	5.704150e+01	8.488770e+02
1.650000e-06	8.214690e-06	1.292652e-08	5.703690e+01	8.486268e+02
1.660000e-06	8.211347e-06	1.291808e-08	5.701368e+01	8.482260e+02
1.670000e-06	8.205241e-06	1.291130e-08	5.697129e+01	8.476891e+02
1.680000e-06	8.196268e-06	1.290569e-08	5.690899e+01	8.470304e+02
1.690000e-06	8.184475e-06	1.289613e-08	5.682710e+01	8.462616e+02
1.700000e-06	8.169759e-06	1.288580e-08	5.672493e+01	8.453905e+02
1.710000e-06	8.152399e-06	1.287408e-08	5.660439e+01	8.444203e+02
1.720000e-06	8.132747e-06	1.286047e-08	5.646795e+01	8.433497e+02
1.730000e-06	8.110532e-06	1.280942e-08	5.631370e+01	8.421735e+02
1.740000e-06	8.085071e-06	1.274270e-08	5.613692e+01	8.408846e+02
1.750000e-06	8.055832e-06	1.275150e-08	5.593390e+01	8.394752e+02
1.760000e-06	8.023041e-06	1.274651e-08	5.570623e+01	8.379387e+02
1.770000e-06	7.987658e-06	1.271648e-08	5.546055e+01	8.362710e+02
1.780000e-06	7.950000e-06	1.270774e-08	5.519908e+01	8.344707e+02
1.790000e-06	7.910088e-06	1.273980e-08	5.492196e+01	8.325397e+02
1.800000e-06	7.868169e-06	1.264269e-08	5.463090e+01	8.304815e+02
1.810000e-06	7.823749e-06	1.258299e-08	5.432249e+01	8.283004e+02
1.820000e-06	7.776430e-06	1.263538e-08	5.399393e+01	8.259991e+02
1.830000e-06	7.726348e-06	1.252573e-08	5.364620e+01	8.235779e+02
1.840000e-06	7.673171e-06	1.255525e-08	5.327698e+01	8.210326e+02
1.850000e-06	7.617024e-06	1.249236e-08	5.288713e+01	8.183545e+02
1.860000e-06	7.558146e-06	1.241453e-08	5.247833e+01	8.155306e+02
1.870000e-06	7.496373e-06	1.242956e-08	5.204942e+01	8.125448e+02
1.880000e-06	7.431880e-06	1.234651e-08	5.160162e+01	8.093794e+02
1.890000e-06	7.364589e-06	1.235225e-08	5.113441e+01	8.060182e+02
1.900000e-06	7.294349e-06	1.224215e-08	5.064671e+01	8.024483e+02
1.910000e-06	7.221227e-06	1.216514e-08	5.013901e+01	7.986621e+02
1.920000e-06	7.145315e-06	1.210352e-08	4.961192e+01	7.946591e+02
1.930000e-06	7.066612e-06	1.203861e-08	4.906547e+01	7.904456e+02
1.940000e-06	6.985272e-06	1.203447e-08	4.850070e+01	7.860344e+02
1.950000e-06	6.901482e-06	1.193427e-08	4.791893e+01	7.814425e+02
1.960000e-06	6.815015e-06	1.189111e-08	4.731856e+01	7.766890e+02
1.970000e-06	6.725919e-06	1.178883e-08	4.669994e+01	7.717917e+02
1.980000e-06	6.634476e-06	1.168869e-08	4.606503e+01	7.667643e+02
1.990000e-06	6.540698e-06	1.162406e-08	4.541390e+01	7.616142e+02
2.000000e-06	6.444563e-06	1.155335e-08	4.474641e+01	7.563407e+02
2.010000e-06	6.346183e-06	1.148183e-08	4.406333e+01	7.509354e+02
2.020000e-06	6.245583e-06	1.137131e-08	4.336483e+01	7.453825e+02
2.030000e-06	6.142666e-06	1.129025e-08	4.265025e+01	7.396615e+02
2.040000e-06	6.037599e-06	1.119230e-08	4.192075e+01	7.337498e+02
2.050000e-06	5.930465e-06	1.110195e-08	4.117688e+01	7.276261e+02
2.060000e-06	5.821245e-06	1.099279e-08	4.041853e+01	7.212736e+02
2.070000e-06	5.709986e-06	1.090124e-08	3.964604e+01	7.146817e+02
2.080000e-06	5.596637e-06	1.080905e-08	3.885902e+01	7.078480e+02
2.090000e-06	5.481045e-06	1.070215e-08	3.805644e+01	7.007776e+02
2.100000e-06	5.363318e-06	1.059323e-08	3.723902e+01	6.934816e+02
2.110000e-06	5.243604e-06	1.048133e-08	3.640781e+01	6.859748e+02
2.120000e-06	5.121990e-06	1.035850e-08	3.556341e+01	6.782723e+02
2.130000e-06	4.998632e-06	1.022150e-08	3.470690e+01	6.703857e+02
2.140000e-06	4.873423e-06	1.011233e-08	3.383754e+01	6.623202e+02
2.150000e-06	4.746382e-06	1.000393e-08	3.295546e+01	6.540728e+02
2.160000e-06	4.617646e-06	9.877811e-09	3.206161e+01	6.456310e+02
2.170000e-06	4.487266e-06	9.727899e-09	3.115635e+01	6.369741e+02
2.180000e-06	4.355225e-06	9.584408e-09	3.023955e+01	6.280749e+02
2.190000e-06	4.221527e-06	9.440478e-09	2.931125e+01	6.189035e+02
2.200000e-06	4.086306e-06	9.297463e-09	2.837237e+01	6.094308e+02
2.210000e-06	3.949604e-06	9.157816e-09	2.742321e+01	5.996328e+02
2.220000e-06	3.811276e-06	9.014861e-09	2.646276e+01	5.894933e+02
2.230000e-06	3.671344e-06	8.854391e-09	2.549117e+01	5.790061e+02
2.240000e-06	3.530026e-06	8.682872e-09	2.450996e+01	5.681751e+02
2.250000e-06	3.387389e-06	8.517029e-09	2.351959e+01	5.570126e+02
2.260000e-06	3.243520e-06	8.348278e-09	2.252067e+01	5.455364e+02
2.270000e-06	3.098447e-06	8.170649e-09	2.151339e+01	5.337653e+02
2.280000e-06	2.952203e-06	7.985462e-09	2.049797e+01	5.217147e+02
2.290000e-06	2.804855e-06	7.801003e-09	1.947490e+01	5.093914e+02
2.300000e-06	2.656474e-06	7.608807e-09	1.844465e+01	4.967913e+02
2.310000e-06	2.507220e-06	7.410310e-09	1.740833e+01	4.838968e+02
2.320000e-06	2.357127e-06	7.207734e-09	1.636619e+01	4.706777e+02
2.330000e-06	2.206178e-06	6.996251e-09	1.531811e+01	4.570932e+02
2.340000e-06	2.054527e-06	6.777229e-09	1.426515e+01	4.430966e+02
2.350000e-06	1.902241e-06	6.558299e-09	1.320779e+01	4.286401e+02
2.360000e-06	1.749314e-06	6.337641e-09	1.214598e+01	4.136805e+02
2.370000e-06	1.595867e-06	6.103196e-09	1.108055e+01	3.981843e+02
2.380000e-06	1.441968e-06	5.854627e-09	1.001199e+01	3.821301e+02
2.390000e-06	1.287551e-06	5.599079e-09	8.939827e+00	3.655101e+02
2.400000e-06	1.132561e-06	5.338008e-09	7.863686e+00	3.483276e+02
2.410000e-06	9.771005e-07	5.071531e-09	6.784283e+00	3.305922e+02
2.420000e-06	8.213271e-07	4.800281e-09	5.702705e+00	3.123134e+02
2.430000e-06	6.652888e-07	4.519824e-09	4.619287e+00	2.934921e+02
2.440000e-06	5.089769e-07	4.223156e-09	3.533969e+00	2.741124e+02
2.450000e-06	3.524519e-07	3.912500e-09	2.447172e+00	2.541351e+02
2.460000e-06	1.958209e-07	3.594586e-09	1.359640e+00	2.334933e+02
2.470000e-06	3.908305e-08	3.264784e-09	2.713646e-01	2.120926e+02
2.480000e-06	-1.177315e-07	2.918835e-09	-8.174427e-01	1.898150e+02
2.490000e-06	-2.745261e-07	2.558190e-09	-1.906112e+00	1.665275e+02
2.500000e-06	-4.312312e-07	2.182649e-09	-2.994159e+00	1.420951e+02
2.510000e-06	-5.878144e-07	1.792103e-09	-4.081361e+00	1.163964e+02
2.520000e-06	-7.442375e-07	1.385038e-09	-5.167450e+00	8.933993e+01
2.530000e-06	-9.003521e-07	9.582499e-10	-6.251397e+00	6.088119e+01
2.540000e-06	-1.056154e-06	5.100414e-10	-7.333170e+00	3.103575e+01
2.550000e-06	-1.211578e-06	4.105094e-11	-8.412329e+00	-1.111924e-01
2.560000e-06	-1.366451e-06	-4.471353e-10	-9.487652e+00	-3.240131e+01
2.570000e-06	-1.520770e-06	-9.525362e-10	-1.055914e+01	-6.560603e+01
2.580000e-06	-1.674546e-06	-1.476200e-09	-1.162684e+01	-9.943607e+01
2.590000e-06	-1.827717e-06	-2.011758e-09	-1.269035e+01	-1.335567e+02
2.600000e-06	-1.980154e-06	-2.547390e-09	-1.374876e+01	-1.676077e+02
2.610000e-06	-2.131821e-06	-3.073211e-09	-1.480183e+01	-2.012255e+02
2.620000e-06	-2.282703e-06	-3.576821e-09	-1.584945e+01	-2.340661e+02
2.630000e-06	-2.432733e-06	-4.054779e-09	-1.689115e+01	-2.658262e+02
2.640000e-06	-2.581949e-06	-4.512498e-09	-1.792720e+01	-2.962595e+02
2.650000e-06	-2.730139e-06	-4.951325e-09	-1.895612e+01	-3.251890e+02
2.660000e-06	-2.877200e-06	-5.365632e-09	-1.997720e+01	-3.525117e+02
2.670000e-06	-3.023259e-06	-5.755520e-09	-2.099134e+01	-3.781973e+02
2.680000e-06	-3.168226e-06	-6.125116e-09	-2.199788e+01	-4.022808e+02
2.690000e-06	-3.311982e-06	-6.472921e-09	-2.299602e+01	-4.248499e+02
2.700000e-06	-3.454485e-06	-6.799052e-09	-2.398546e+01	-4.460301e+02
2.710000e-06	-3.595729e-06	-7.106998e-09	-2.496615e+01	-4.659669e+02
2.720000e-06	-3.735589e-06	-7.400496e-09	-2.593724e+01	-4.848105e+02
2.730000e-06	-3.873971e-06	-7.679330e-09	-2.689806e+01	-5.027012e+02
2.740000e-06	-4.010909e-06	-7.942468e-09	-2.784887e+01	-5.197594e+02
2.750000e-06	-4.146375e-06	-8.192831e-09	-2.878944e+01	-5.360793e+02
2.760000e-06	-4.280376e-06	-8.433520e-09	-2.971985e+01	-5.517273e+02
2.770000e-06	-4.412838e-06	-8.663172e-09	-3.063957e+01	-5.667441e+02
2.780000e-06	-4.543711e-06	-8.882396e-09	-3.154826e+01	-5.811502e+02
2.790000e-06	-4.673051e-06	-9.093111e-09	-3.244631e+01	-5.949529e+02
2.800000e-06	-4.800784e-06	-9.296425e-09	-3.333319e+01	-6.081538e+02
2.810000e-06	-4.926934e-06	-9.489687e-09	-3.420909e+01	-6.207563e+02
2.820000e-06	-5.051351e-06	-9.672183e-09	-3.507295e+01	-6.327699e+02
2.830000e-06	-5.173889e-06	-9.845792e-09	-3.592376e+01	-6.442141e+02
2.840000e-06	-5.294626e-06	-1.000988e-08	-3.676208e+01	-6.551181e+02
2.850000e-06	-5.413380e-06	-1.016753e-08	-3.758662e+01	-6.655192e+02
2.860000e-06	-5.529940e-06	-1.032111e-08	-3.839593e+01	-6.754592e+02
2.870000e-06	-5.644243e-06	-1.047061e-08	-3.918956e+01	-6.849801e+02
2.880000e-06	-5.756313e-06	-1.061241e-08	-3.996770e+01	-6.941193e+02
2.890000e-06	-5.866197e-06	-1.074784e-08	-4.073065e+01	-7.029064e+02
2.900000e-06	-5.973999e-06	-1.087722e-08	-4.147915e+01	-7.113607e+02
2.910000e-06	-6.079719e-06	-1.099987e-08	-4.221319e+01	-7.194908e+02
2.920000e-06	-6.183180e-06	-1.111702e-08	-4.293155e+01	-7.272963e+02
2.930000e-06	-6.284319e-06	-1.123136e-08	-4.363379e+01	-7.347706e+02
2.940000e-06	-6.383211e-06	-1.134156e-08	-4.432043e+01	-7.419045e+02
