# Temperatura_=_39.58
# Concentracion g/m^3_=_15000.0
# C_Vs_to_Am_M_A/Vsm_=_65563218390.804596
# pendiente_HvsI_1/m_=_3716.3
# ordenada_HvsI_A/m_=_1297.0
# frecuencia_Hz_=_302361.37530615926

Tiempo_(s)	Campo_(V.s)	Magnetizacion_(V.s)	Campo_(kA/m)	Magnetizacion_(A/m)
0.000000e+00	-8.135587e-06	-8.759658e-09	-5.689147e+01	-5.726177e+02
1.000000e-08	-8.130940e-06	-8.757890e-09	-5.685898e+01	-5.723404e+02
2.000000e-08	-8.123752e-06	-8.750760e-09	-5.680871e+01	-5.719813e+02
3.000000e-08	-8.113807e-06	-8.742334e-09	-5.673917e+01	-5.715516e+02
4.000000e-08	-8.100887e-06	-8.733382e-09	-5.664882e+01	-5.710620e+02
5.000000e-08	-8.084993e-06	-8.724331e-09	-5.653767e+01	-5.705211e+02
6.000000e-08	-8.066501e-06	-8.712809e-09	-5.640836e+01	-5.699351e+02
7.000000e-08	-8.045755e-06	-8.698750e-09	-5.626329e+01	-5.693064e+02
8.000000e-08	-8.022410e-06	-8.702308e-09	-5.610004e+01	-5.686340e+02
9.000000e-08	-7.995873e-06	-8.719106e-09	-5.591447e+01	-5.679135e+02
1.000000e-07	-7.966064e-06	-8.698452e-09	-5.570601e+01	-5.671383e+02
1.100000e-07	-7.933252e-06	-8.660884e-09	-5.547656e+01	-5.663003e+02
1.200000e-07	-7.897575e-06	-8.635656e-09	-5.522708e+01	-5.653909e+02
1.300000e-07	-7.859311e-06	-8.612268e-09	-5.495950e+01	-5.644025e+02
1.400000e-07	-7.818691e-06	-8.582443e-09	-5.467545e+01	-5.633287e+02
1.500000e-07	-7.775734e-06	-8.570111e-09	-5.437506e+01	-5.621650e+02
1.600000e-07	-7.730262e-06	-8.576531e-09	-5.405707e+01	-5.609085e+02
1.700000e-07	-7.681990e-06	-8.517749e-09	-5.371951e+01	-5.595580e+02
1.800000e-07	-7.630760e-06	-8.490380e-09	-5.336126e+01	-5.581133e+02
1.900000e-07	-7.576582e-06	-8.495765e-09	-5.298240e+01	-5.565744e+02
2.000000e-07	-7.519527e-06	-8.447172e-09	-5.258342e+01	-5.549409e+02
2.100000e-07	-7.459750e-06	-8.434148e-09	-5.216540e+01	-5.532117e+02
2.200000e-07	-7.397407e-06	-8.424406e-09	-5.172944e+01	-5.513850e+02
2.300000e-07	-7.332311e-06	-8.386933e-09	-5.127423e+01	-5.494581e+02
2.400000e-07	-7.264396e-06	-8.340986e-09	-5.079931e+01	-5.474278e+02
2.500000e-07	-7.193762e-06	-8.311968e-09	-5.030537e+01	-5.452913e+02
2.600000e-07	-7.120240e-06	-8.286669e-09	-4.979124e+01	-5.430462e+02
2.700000e-07	-7.043818e-06	-8.225708e-09	-4.925683e+01	-5.406918e+02
2.800000e-07	-6.964543e-06	-8.179050e-09	-4.870246e+01	-5.382286e+02
2.900000e-07	-6.882632e-06	-8.146793e-09	-4.812967e+01	-5.356587e+02
3.000000e-07	-6.798437e-06	-8.112942e-09	-4.754090e+01	-5.329854e+02
3.100000e-07	-6.711899e-06	-8.075272e-09	-4.693574e+01	-5.302125e+02
3.200000e-07	-6.622855e-06	-8.031486e-09	-4.631307e+01	-5.273435e+02
3.300000e-07	-6.531362e-06	-7.990754e-09	-4.567326e+01	-5.243807e+02
3.400000e-07	-6.437569e-06	-7.939463e-09	-4.501738e+01	-5.213241e+02
3.500000e-07	-6.341441e-06	-7.889762e-09	-4.434516e+01	-5.181716e+02
3.600000e-07	-6.242956e-06	-7.843094e-09	-4.365647e+01	-5.149181e+02
3.700000e-07	-6.142211e-06	-7.789737e-09	-4.295196e+01	-5.115563e+02
3.800000e-07	-6.039237e-06	-7.729281e-09	-4.223187e+01	-5.080770e+02
3.900000e-07	-5.934100e-06	-7.672067e-09	-4.149666e+01	-5.044704e+02
4.000000e-07	-5.826882e-06	-7.620375e-09	-4.074689e+01	-5.007270e+02
4.100000e-07	-5.717699e-06	-7.560142e-09	-3.998338e+01	-4.968389e+02
4.200000e-07	-5.606447e-06	-7.499155e-09	-3.920541e+01	-4.928008e+02
4.300000e-07	-5.493022e-06	-7.435939e-09	-3.841224e+01	-4.886098e+02
4.400000e-07	-5.377454e-06	-7.366378e-09	-3.760408e+01	-4.842664e+02
4.500000e-07	-5.259801e-06	-7.294296e-09	-3.678135e+01	-4.797730e+02
4.600000e-07	-5.140275e-06	-7.225761e-09	-3.594551e+01	-4.751332e+02
4.700000e-07	-5.019002e-06	-7.156000e-09	-3.509746e+01	-4.703508e+02
4.800000e-07	-4.895900e-06	-7.080254e-09	-3.423662e+01	-4.654278e+02
4.900000e-07	-4.770955e-06	-7.001979e-09	-3.336288e+01	-4.603636e+02
5.000000e-07	-4.644317e-06	-6.920005e-09	-3.247732e+01	-4.551540e+02
5.100000e-07	-4.516004e-06	-6.835974e-09	-3.158003e+01	-4.497906e+02
5.200000e-07	-4.386038e-06	-6.752809e-09	-3.067120e+01	-4.442615e+02
5.300000e-07	-4.254403e-06	-6.666664e-09	-2.975068e+01	-4.385523e+02
5.400000e-07	-4.121214e-06	-6.570258e-09	-2.881931e+01	-4.326472e+02
5.500000e-07	-3.986545e-06	-6.471179e-09	-2.787757e+01	-4.265312e+02
5.600000e-07	-3.850315e-06	-6.375538e-09	-2.692493e+01	-4.201913e+02
5.700000e-07	-3.712557e-06	-6.277546e-09	-2.596160e+01	-4.136186e+02
5.800000e-07	-3.573200e-06	-6.173044e-09	-2.498709e+01	-4.068083e+02
5.900000e-07	-3.432329e-06	-6.066421e-09	-2.400199e+01	-3.997605e+02
6.000000e-07	-3.290058e-06	-5.958715e-09	-2.300710e+01	-3.924789e+02
6.100000e-07	-3.146559e-06	-5.844004e-09	-2.200362e+01	-3.849695e+02
6.200000e-07	-3.001925e-06	-5.725130e-09	-2.099221e+01	-3.772383e+02
6.300000e-07	-2.856120e-06	-5.605546e-09	-1.997261e+01	-3.692891e+02
6.400000e-07	-2.709348e-06	-5.481292e-09	-1.894624e+01	-3.611209e+02
6.500000e-07	-2.561701e-06	-5.349134e-09	-1.791376e+01	-3.527265e+02
6.600000e-07	-2.413197e-06	-5.214302e-09	-1.687528e+01	-3.440916e+02
6.700000e-07	-2.263910e-06	-5.077887e-09	-1.583133e+01	-3.351947e+02
6.800000e-07	-2.113859e-06	-4.935400e-09	-1.478204e+01	-3.260087e+02
6.900000e-07	-1.963072e-06	-4.789935e-09	-1.372760e+01	-3.165029e+02
7.000000e-07	-1.811622e-06	-4.642058e-09	-1.266852e+01	-3.066461e+02
7.100000e-07	-1.659522e-06	-4.487135e-09	-1.160490e+01	-2.964098e+02
7.200000e-07	-1.506815e-06	-4.323035e-09	-1.053703e+01	-2.857710e+02
7.300000e-07	-1.353560e-06	-4.154321e-09	-9.465328e+00	-2.747142e+02
7.400000e-07	-1.199854e-06	-3.981940e-09	-8.390475e+00	-2.632323e+02
7.500000e-07	-1.045763e-06	-3.800667e-09	-7.312936e+00	-2.513261e+02
7.600000e-07	-8.912548e-07	-3.612081e-09	-6.232470e+00	-2.390015e+02
7.700000e-07	-7.364726e-07	-3.417981e-09	-5.150091e+00	-2.262668e+02
7.800000e-07	-5.814540e-07	-3.217874e-09	-4.066059e+00	-2.131274e+02
7.900000e-07	-4.261711e-07	-3.014354e-09	-2.980179e+00	-1.995813e+02
8.000000e-07	-2.707029e-07	-2.805906e-09	-1.893002e+00	-1.856148e+02
8.100000e-07	-1.151248e-07	-2.587835e-09	-8.050583e-01	-1.711995e+02
8.200000e-07	4.048962e-08	-2.357831e-09	2.831405e-01	-1.562908e+02
8.300000e-07	1.960985e-07	-2.118829e-09	1.371300e+00	-1.408292e+02
8.400000e-07	3.516685e-07	-1.873368e-09	2.459188e+00	-1.247445e+02
8.500000e-07	5.071550e-07	-1.617808e-09	3.546493e+00	-1.079615e+02
8.600000e-07	6.625204e-07	-1.348550e-09	4.632949e+00	-9.040868e+01
8.700000e-07	8.176922e-07	-1.068696e-09	5.718053e+00	-7.202754e+01
8.800000e-07	9.725995e-07	-7.786822e-10	6.801306e+00	-5.278233e+01
8.900000e-07	1.127187e-06	-4.766302e-10	7.882326e+00	-3.266893e+01
9.000000e-07	1.281409e-06	-1.628641e-10	8.960785e+00	-1.172165e+01
9.100000e-07	1.435150e-06	1.637967e-10	1.003588e+01	9.982801e+00
9.200000e-07	1.588266e-06	5.045661e-10	1.110661e+01	3.232487e+01
9.300000e-07	1.740771e-06	8.548387e-10	1.217306e+01	5.514559e+01
9.400000e-07	1.892706e-06	1.208940e-09	1.323553e+01	7.825361e+01
9.500000e-07	2.043982e-06	1.564376e-09	1.429339e+01	1.014354e+02
9.600000e-07	2.194432e-06	1.919319e-09	1.534548e+01	1.244674e+02
9.700000e-07	2.344018e-06	2.268986e-09	1.639152e+01	1.471297e+02
9.800000e-07	2.492661e-06	2.604847e-09	1.743097e+01	1.692189e+02
9.900000e-07	2.640403e-06	2.926009e-09	1.846411e+01	1.905596e+02
1.000000e-06	2.787235e-06	3.232012e-09	1.949090e+01	2.110134e+02
1.010000e-06	2.932968e-06	3.522750e-09	2.051000e+01	2.304846e+02
1.020000e-06	3.077627e-06	3.798019e-09	2.152159e+01	2.489215e+02
1.030000e-06	3.221125e-06	4.057034e-09	2.252506e+01	2.663150e+02
1.040000e-06	3.363391e-06	4.305054e-09	2.351991e+01	2.826924e+02
1.050000e-06	3.504460e-06	4.541630e-09	2.450639e+01	2.981102e+02
1.060000e-06	3.644160e-06	4.765126e-09	2.548330e+01	3.126440e+02
1.070000e-06	3.782388e-06	4.976447e-09	2.644992e+01	3.263788e+02
1.080000e-06	3.919139e-06	5.177382e-09	2.740621e+01	3.393997e+02
1.090000e-06	4.054419e-06	5.367264e-09	2.835221e+01	3.517840e+02
1.100000e-06	4.188253e-06	5.545644e-09	2.928810e+01	3.635957e+02
1.110000e-06	4.320603e-06	5.714345e-09	3.021361e+01	3.748827e+02
1.120000e-06	4.451399e-06	5.875653e-09	3.112826e+01	3.856764e+02
1.130000e-06	4.580610e-06	6.031632e-09	3.203182e+01	3.959939e+02
1.140000e-06	4.708237e-06	6.180998e-09	3.292430e+01	4.058412e+02
1.150000e-06	4.834250e-06	6.323641e-09	3.380550e+01	4.152184e+02
1.160000e-06	4.958638e-06	6.459782e-09	3.467534e+01	4.241242e+02
1.170000e-06	5.081325e-06	6.587387e-09	3.553328e+01	4.325606e+02
1.180000e-06	5.202219e-06	6.707411e-09	3.637868e+01	4.405355e+02
1.190000e-06	5.321257e-06	6.823234e-09	3.721110e+01	4.480652e+02
1.200000e-06	5.438296e-06	6.932623e-09	3.802955e+01	4.551743e+02
1.210000e-06	5.553173e-06	7.033532e-09	3.883287e+01	4.618944e+02
1.220000e-06	5.665865e-06	7.129483e-09	3.962092e+01	4.682618e+02
1.230000e-06	5.776461e-06	7.222147e-09	4.039430e+01	4.743148e+02
1.240000e-06	5.885049e-06	7.310547e-09	4.115365e+01	4.800901e+02
1.250000e-06	5.991595e-06	7.395460e-09	4.189872e+01	4.856204e+02
1.260000e-06	6.095876e-06	7.477080e-09	4.262795e+01	4.909322e+02
1.270000e-06	6.197884e-06	7.553810e-09	4.334128e+01	4.960447e+02
1.280000e-06	6.297631e-06	7.627512e-09	4.403881e+01	5.009700e+02
1.290000e-06	6.395000e-06	7.698995e-09	4.471970e+01	5.057138e+02
1.300000e-06	6.489959e-06	7.768198e-09	4.538373e+01	5.102773e+02
1.310000e-06	6.582610e-06	7.834291e-09	4.603164e+01	5.146589e+02
1.320000e-06	6.672945e-06	7.895275e-09	4.666335e+01	5.188565e+02
1.330000e-06	6.760880e-06	7.953825e-09	4.727826e+01	5.228692e+02
1.340000e-06	6.846433e-06	8.010462e-09	4.787653e+01	5.266980e+02
1.350000e-06	6.929578e-06	8.065805e-09	4.845795e+01	5.303468e+02
1.360000e-06	7.010259e-06	8.120219e-09	4.902215e+01	5.338217e+02
1.370000e-06	7.088402e-06	8.173330e-09	4.956860e+01	5.371303e+02
1.380000e-06	7.163952e-06	8.224603e-09	5.009691e+01	5.402802e+02
1.390000e-06	7.236761e-06	8.270940e-09	5.060606e+01	5.432784e+02
1.400000e-06	7.306941e-06	8.311752e-09	5.109683e+01	5.461292e+02
1.410000e-06	7.374605e-06	8.349741e-09	5.156999e+01	5.488345e+02
1.420000e-06	7.439583e-06	8.386135e-09	5.202438e+01	5.513929e+02
1.430000e-06	7.501941e-06	8.421959e-09	5.246045e+01	5.538006e+02
1.440000e-06	7.561785e-06	8.455302e-09	5.287893e+01	5.560524e+02
1.450000e-06	7.618989e-06	8.485626e-09	5.327895e+01	5.581427e+02
1.460000e-06	7.673433e-06	8.514387e-09	5.365967e+01	5.600675e+02
1.470000e-06	7.724861e-06	8.540978e-09	5.401930e+01	5.618254e+02
1.480000e-06	7.773141e-06	8.565879e-09	5.435692e+01	5.634185e+02
1.490000e-06	7.818584e-06	8.588998e-09	5.467470e+01	5.648531e+02
1.500000e-06	7.861311e-06	8.608480e-09	5.497349e+01	5.661393e+02
1.510000e-06	7.901228e-06	8.623256e-09	5.525262e+01	5.672901e+02
1.520000e-06	7.938341e-06	8.636891e-09	5.551215e+01	5.683203e+02
1.530000e-06	7.972628e-06	8.652099e-09	5.575192e+01	5.692449e+02
1.540000e-06	8.004027e-06	8.667235e-09	5.597149e+01	5.700771e+02
1.550000e-06	8.032658e-06	8.679894e-09	5.617170e+01	5.708273e+02
1.560000e-06	8.058416e-06	8.690142e-09	5.635183e+01	5.715019e+02
1.570000e-06	8.081142e-06	8.700142e-09	5.651075e+01	5.721031e+02
1.580000e-06	8.100971e-06	8.710419e-09	5.664941e+01	5.726290e+02
1.590000e-06	8.117934e-06	8.718306e-09	5.676803e+01	5.730743e+02
1.600000e-06	8.131889e-06	8.723461e-09	5.686561e+01	5.734320e+02
1.610000e-06	8.142669e-06	8.725936e-09	5.694100e+01	5.736948e+02
1.620000e-06	8.150320e-06	8.726502e-09	5.699450e+01	5.738562e+02
1.630000e-06	8.155117e-06	8.727604e-09	5.702805e+01	5.739127e+02
1.640000e-06	8.157041e-06	8.729409e-09	5.704150e+01	5.738639e+02
1.650000e-06	8.156009e-06	8.730086e-09	5.703429e+01	5.737131e+02
1.660000e-06	8.152306e-06	8.725782e-09	5.700839e+01	5.734672e+02
1.670000e-06	8.145905e-06	8.722908e-09	5.696363e+01	5.731358e+02
1.680000e-06	8.136771e-06	8.721195e-09	5.689975e+01	5.727297e+02
1.690000e-06	8.124904e-06	8.717097e-09	5.681677e+01	5.722600e+02
1.700000e-06	8.110120e-06	8.711635e-09	5.671339e+01	5.717362e+02
1.710000e-06	8.092689e-06	8.704915e-09	5.659149e+01	5.711655e+02
1.720000e-06	8.072965e-06	8.693462e-09	5.645356e+01	5.705516e+02
1.730000e-06	8.050679e-06	8.655798e-09	5.629772e+01	5.698948e+02
1.740000e-06	8.025139e-06	8.620675e-09	5.611912e+01	5.691918e+02
1.750000e-06	7.995820e-06	8.630277e-09	5.591409e+01	5.684367e+02
1.760000e-06	7.963040e-06	8.633670e-09	5.568487e+01	5.676217e+02
1.770000e-06	7.927729e-06	8.626314e-09	5.543794e+01	5.667385e+02
1.780000e-06	7.890109e-06	8.636937e-09	5.517487e+01	5.657788e+02
1.790000e-06	7.850195e-06	8.632704e-09	5.489575e+01	5.647357e+02
1.800000e-06	7.808311e-06	8.576471e-09	5.460286e+01	5.636042e+02
1.810000e-06	7.763996e-06	8.574472e-09	5.429297e+01	5.623806e+02
1.820000e-06	7.716804e-06	8.581058e-09	5.396296e+01	5.610635e+02
1.830000e-06	7.666836e-06	8.542634e-09	5.361354e+01	5.596521e+02
1.840000e-06	7.613764e-06	8.546364e-09	5.324241e+01	5.581465e+02
1.850000e-06	7.557714e-06	8.486294e-09	5.285046e+01	5.565465e+02
1.860000e-06	7.498984e-06	8.436637e-09	5.243976e+01	5.548513e+02
1.870000e-06	7.437469e-06	8.416376e-09	5.200960e+01	5.530594e+02
1.880000e-06	7.373266e-06	8.401688e-09	5.156063e+01	5.511683e+02
1.890000e-06	7.306249e-06	8.400080e-09	5.109199e+01	5.491749e+02
1.900000e-06	7.236397e-06	8.334261e-09	5.060351e+01	5.470762e+02
1.910000e-06	7.163710e-06	8.318163e-09	5.009522e+01	5.448698e+02
1.920000e-06	7.088216e-06	8.287507e-09	4.956730e+01	5.425541e+02
1.930000e-06	7.009946e-06	8.239196e-09	4.901996e+01	5.401292e+02
1.940000e-06	6.928926e-06	8.220020e-09	4.845340e+01	5.375967e+02
1.950000e-06	6.845437e-06	8.167506e-09	4.786957e+01	5.349596e+02
1.960000e-06	6.759357e-06	8.131285e-09	4.726761e+01	5.322215e+02
1.970000e-06	6.670649e-06	8.071197e-09	4.664728e+01	5.293862e+02
1.980000e-06	6.579574e-06	8.032927e-09	4.601041e+01	5.264563e+02
1.990000e-06	6.486266e-06	8.000374e-09	4.535791e+01	5.234330e+02
2.000000e-06	6.390712e-06	7.945618e-09	4.468971e+01	5.203149e+02
2.010000e-06	6.292889e-06	7.897184e-09	4.400564e+01	5.170979e+02
2.020000e-06	6.192798e-06	7.843253e-09	4.330572e+01	5.137754e+02
2.030000e-06	6.090403e-06	7.795844e-09	4.258967e+01	5.103388e+02
2.040000e-06	5.985775e-06	7.737039e-09	4.185802e+01	5.067784e+02
2.050000e-06	5.879068e-06	7.686565e-09	4.111183e+01	5.030845e+02
2.060000e-06	5.770470e-06	7.624179e-09	4.035241e+01	4.992486e+02
2.070000e-06	5.659881e-06	7.556925e-09	3.957907e+01	4.952641e+02
2.080000e-06	5.547161e-06	7.494741e-09	3.879083e+01	4.911275e+02
2.090000e-06	5.432305e-06	7.437116e-09	3.798765e+01	4.868380e+02
2.100000e-06	5.315281e-06	7.373852e-09	3.716932e+01	4.823974e+02
2.110000e-06	5.196190e-06	7.302341e-09	3.633652e+01	4.778091e+02
2.120000e-06	5.075172e-06	7.229760e-09	3.549025e+01	4.730769e+02
2.130000e-06	4.952399e-06	7.149414e-09	3.463171e+01	4.682037e+02
2.140000e-06	4.827872e-06	7.075541e-09	3.376090e+01	4.631899e+02
2.150000e-06	4.701561e-06	7.002996e-09	3.287762e+01	4.580326e+02
2.160000e-06	4.573496e-06	6.926430e-09	3.198207e+01	4.527250e+02
2.170000e-06	4.443770e-06	6.840009e-09	3.107491e+01	4.472563e+02
2.180000e-06	4.312506e-06	6.755233e-09	3.015699e+01	4.416128e+02
2.190000e-06	4.179710e-06	6.667586e-09	2.922836e+01	4.357792e+02
2.200000e-06	4.045293e-06	6.575460e-09	2.828839e+01	4.297398e+02
2.210000e-06	3.909313e-06	6.480710e-09	2.733749e+01	4.234808e+02
2.220000e-06	3.771787e-06	6.382625e-09	2.637579e+01	4.169916e+02
2.230000e-06	3.632770e-06	6.277232e-09	2.540366e+01	4.102660e+02
2.240000e-06	3.492432e-06	6.167491e-09	2.442229e+01	4.033024e+02
2.250000e-06	3.350728e-06	6.062495e-09	2.343136e+01	3.961034e+02
2.260000e-06	3.207730e-06	5.955558e-09	2.243138e+01	3.886743e+02
2.270000e-06	3.063487e-06	5.839911e-09	2.142271e+01	3.810214e+02
2.280000e-06	2.918054e-06	5.718045e-09	2.040571e+01	3.731495e+02
2.290000e-06	2.771583e-06	5.597901e-09	1.938145e+01	3.650596e+02
2.300000e-06	2.624255e-06	5.474471e-09	1.835119e+01	3.567470e+02
2.310000e-06	2.476076e-06	5.344617e-09	1.731499e+01	3.481997e+02
2.320000e-06	2.326985e-06	5.208341e-09	1.627241e+01	3.393989e+02
2.330000e-06	2.177064e-06	5.064895e-09	1.522402e+01	3.303192e+02
2.340000e-06	2.026430e-06	4.915609e-09	1.417065e+01	3.209308e+02
2.350000e-06	1.875173e-06	4.766069e-09	1.311293e+01	3.112025e+02
2.360000e-06	1.723278e-06	4.616315e-09	1.205074e+01	3.011044e+02
2.370000e-06	1.570762e-06	4.459032e-09	1.098421e+01	2.906112e+02
2.380000e-06	1.417732e-06	4.293481e-09	9.914080e+00	2.797046e+02
2.390000e-06	1.264245e-06	4.122433e-09	8.840760e+00	2.683745e+02
2.400000e-06	1.110331e-06	3.945663e-09	7.764448e+00	2.566190e+02
2.410000e-06	9.560735e-07	3.761870e-09	6.685742e+00	2.444426e+02
2.420000e-06	8.015090e-07	3.570678e-09	5.604885e+00	2.318531e+02
2.430000e-06	6.466954e-07	3.373024e-09	4.522287e+00	2.188576e+02
2.440000e-06	4.916802e-07	3.165023e-09	3.438278e+00	2.054573e+02
2.450000e-06	3.364690e-07	2.949360e-09	2.352900e+00	1.916431e+02
2.460000e-06	1.810943e-07	2.731195e-09	1.266377e+00	1.773920e+02
2.470000e-06	2.560303e-08	2.506500e-09	1.790398e-01	1.626652e+02
2.480000e-06	-1.299547e-07	2.272775e-09	-9.087621e-01	1.474084e+02
2.490000e-06	-2.854872e-07	2.028829e-09	-1.996388e+00	1.315544e+02
2.500000e-06	-4.409486e-07	1.774298e-09	-3.083516e+00	1.150291e+02
2.510000e-06	-5.963093e-07	1.508814e-09	-4.169941e+00	9.775843e+01
2.520000e-06	-7.514551e-07	1.229657e-09	-5.254862e+00	7.967826e+01
2.530000e-06	-9.063289e-07	9.404387e-10	-6.337882e+00	6.074359e+01
2.540000e-06	-1.060924e-06	6.419103e-10	-7.418955e+00	4.093808e+01
2.550000e-06	-1.215189e-06	3.321701e-10	-8.497717e+00	2.028171e+01
2.560000e-06	-1.368959e-06	1.034893e-11	-9.573017e+00	-1.164204e+00
2.570000e-06	-1.522184e-06	-3.241769e-10	-1.064450e+01	-2.329522e+01
2.580000e-06	-1.674893e-06	-6.707337e-10	-1.171238e+01	-4.596581e+01
2.590000e-06	-1.826986e-06	-1.028202e-09	-1.277596e+01	-6.899518e+01
2.600000e-06	-1.978378e-06	-1.390283e-09	-1.383463e+01	-9.217636e+01
2.610000e-06	-2.129000e-06	-1.752253e-09	-1.488791e+01	-1.152879e+02
2.620000e-06	-2.278794e-06	-2.106933e-09	-1.593542e+01	-1.381071e+02
2.630000e-06	-2.427782e-06	-2.448244e-09	-1.697728e+01	-1.604232e+02
2.640000e-06	-2.575870e-06	-2.776084e-09	-1.801284e+01	-1.820495e+02
2.650000e-06	-2.722939e-06	-3.089171e-09	-1.904129e+01	-2.028336e+02
2.660000e-06	-2.869038e-06	-3.388130e-09	-2.006294e+01	-2.226643e+02
2.670000e-06	-3.014105e-06	-3.673863e-09	-2.107738e+01	-2.414742e+02
2.680000e-06	-3.158019e-06	-3.945566e-09	-2.208376e+01	-2.592392e+02
2.690000e-06	-3.300610e-06	-4.202148e-09	-2.308089e+01	-2.759747e+02
2.700000e-06	-3.441910e-06	-4.444999e-09	-2.406899e+01	-2.917277e+02
2.710000e-06	-3.581950e-06	-4.677501e-09	-2.504827e+01	-3.065680e+02
2.720000e-06	-3.720568e-06	-4.898350e-09	-2.601762e+01	-3.205786e+02
2.730000e-06	-3.857769e-06	-5.106225e-09	-2.697705e+01	-3.338454e+02
2.740000e-06	-3.993532e-06	-5.301450e-09	-2.792644e+01	-3.464493e+02
2.750000e-06	-4.127835e-06	-5.485456e-09	-2.886560e+01	-3.584595e+02
2.760000e-06	-4.260674e-06	-5.660008e-09	-2.979454e+01	-3.699298e+02
2.770000e-06	-4.392036e-06	-5.824824e-09	-3.071314e+01	-3.808974e+02
2.780000e-06	-4.521941e-06	-5.981933e-09	-3.162155e+01	-3.913841e+02
2.790000e-06	-4.650291e-06	-6.132659e-09	-3.251909e+01	-4.013994e+02
2.800000e-06	-4.776993e-06	-6.278266e-09	-3.340511e+01	-4.109451e+02
2.810000e-06	-4.902069e-06	-6.418558e-09	-3.427975e+01	-4.200196e+02
2.820000e-06	-5.025436e-06	-6.552085e-09	-3.514245e+01	-4.286234e+02
2.830000e-06	-5.147078e-06	-6.677973e-09	-3.599308e+01	-4.367621e+02
2.840000e-06	-5.266853e-06	-6.794596e-09	-3.683066e+01	-4.444487e+02
2.850000e-06	-5.384566e-06	-6.903378e-09	-3.765381e+01	-4.517051e+02
2.860000e-06	-5.500116e-06	-7.008588e-09	-3.846185e+01	-4.585605e+02
2.870000e-06	-5.613386e-06	-7.109490e-09	-3.925393e+01	-4.650499e+02
2.880000e-06	-5.724448e-06	-7.204899e-09	-4.003059e+01	-4.712111e+02
2.890000e-06	-5.833453e-06	-7.296249e-09	-4.079284e+01	-4.770820e+02
2.900000e-06	-5.940456e-06	-7.383530e-09	-4.154111e+01	-4.826967e+02
2.910000e-06	-6.045308e-06	-7.467395e-09	-4.227433e+01	-4.880843e+02
2.920000e-06	-6.147867e-06	-7.546208e-09	-4.299152e+01	-4.932665e+02
2.930000e-06	-6.248130e-06	-7.622596e-09	-4.369265e+01	-4.982581e+02
2.940000e-06	-6.346206e-06	-7.696736e-09	-4.437848e+01	-5.030667e+02
