# Temperatura_=_51.65
# Concentracion g/m^3_=_15000.0
# C_Vs_to_Am_M_A/Vsm_=_65563218390.804596
# pendiente_HvsI_1/m_=_3716.3
# ordenada_HvsI_A/m_=_1297.0
# frecuencia_Hz_=_302363.8484009089

Tiempo_(s)	Campo_(V.s)	Magnetizacion_(V.s)	Campo_(kA/m)	Magnetizacion_(A/m)
0.000000e+00	-8.170869e-06	-9.419560e-09	-5.689031e+01	-6.164695e+02
1.000000e-08	-8.165979e-06	-9.418928e-09	-5.685626e+01	-6.161419e+02
2.000000e-08	-8.158479e-06	-9.410949e-09	-5.680404e+01	-6.157240e+02
3.000000e-08	-8.148118e-06	-9.400233e-09	-5.673190e+01	-6.152279e+02
4.000000e-08	-8.134736e-06	-9.387644e-09	-5.663873e+01	-6.146647e+02
5.000000e-08	-8.118442e-06	-9.373164e-09	-5.652528e+01	-6.140436e+02
6.000000e-08	-8.099685e-06	-9.358908e-09	-5.639468e+01	-6.133703e+02
7.000000e-08	-8.078669e-06	-9.340365e-09	-5.624836e+01	-6.126469e+02
8.000000e-08	-8.054894e-06	-9.379733e-09	-5.608282e+01	-6.118715e+02
9.000000e-08	-8.027887e-06	-9.396354e-09	-5.589478e+01	-6.110393e+02
1.000000e-07	-7.997710e-06	-9.338889e-09	-5.568467e+01	-6.101428e+02
1.100000e-07	-7.964539e-06	-9.303901e-09	-5.545372e+01	-6.091732e+02
1.200000e-07	-7.928510e-06	-9.281289e-09	-5.520286e+01	-6.081219e+02
1.300000e-07	-7.889984e-06	-9.249595e-09	-5.493463e+01	-6.069805e+02
1.400000e-07	-7.849057e-06	-9.201952e-09	-5.464967e+01	-6.057423e+02
1.500000e-07	-7.805697e-06	-9.222199e-09	-5.434777e+01	-6.044025e+02
1.600000e-07	-7.759689e-06	-9.237358e-09	-5.402744e+01	-6.029575e+02
1.700000e-07	-7.710776e-06	-9.124733e-09	-5.368688e+01	-6.014055e+02
1.800000e-07	-7.658998e-06	-9.161913e-09	-5.332637e+01	-5.997453e+02
1.900000e-07	-7.604353e-06	-9.136666e-09	-5.294590e+01	-5.979759e+02
2.000000e-07	-7.546826e-06	-9.033884e-09	-5.254536e+01	-5.960960e+02
2.100000e-07	-7.486549e-06	-9.050759e-09	-5.212567e+01	-5.941042e+02
2.200000e-07	-7.423661e-06	-9.021291e-09	-5.168781e+01	-5.919982e+02
2.300000e-07	-7.358073e-06	-9.006577e-09	-5.123115e+01	-5.897758e+02
2.400000e-07	-7.289671e-06	-8.934037e-09	-5.075490e+01	-5.874349e+02
2.500000e-07	-7.218402e-06	-8.916355e-09	-5.025868e+01	-5.849741e+02
2.600000e-07	-7.144206e-06	-8.889247e-09	-4.974209e+01	-5.823935e+02
2.700000e-07	-7.067135e-06	-8.822551e-09	-4.920547e+01	-5.796944e+02
2.800000e-07	-6.987278e-06	-8.778307e-09	-4.864946e+01	-5.768799e+02
2.900000e-07	-6.904900e-06	-8.738273e-09	-4.807590e+01	-5.739542e+02
3.000000e-07	-6.820263e-06	-8.722028e-09	-4.748661e+01	-5.709221e+02
3.100000e-07	-6.733218e-06	-8.644783e-09	-4.688055e+01	-5.677881e+02
3.200000e-07	-6.643654e-06	-8.593930e-09	-4.625696e+01	-5.645554e+02
3.300000e-07	-6.551683e-06	-8.565890e-09	-4.561660e+01	-5.612250e+02
3.400000e-07	-6.457304e-06	-8.504040e-09	-4.495948e+01	-5.577952e+02
3.500000e-07	-6.360537e-06	-8.435207e-09	-4.428573e+01	-5.542611e+02
3.600000e-07	-6.261464e-06	-8.385653e-09	-4.359592e+01	-5.506149e+02
3.700000e-07	-6.160147e-06	-8.342778e-09	-4.289050e+01	-5.468469e+02
3.800000e-07	-6.056545e-06	-8.268498e-09	-4.216916e+01	-5.429457e+02
3.900000e-07	-5.950747e-06	-8.206243e-09	-4.143254e+01	-5.389003e+02
4.000000e-07	-5.842908e-06	-8.153352e-09	-4.068170e+01	-5.347009e+02
4.100000e-07	-5.733002e-06	-8.086330e-09	-3.991647e+01	-5.303404e+02
4.200000e-07	-5.620966e-06	-8.007440e-09	-3.913641e+01	-5.258146e+02
4.300000e-07	-5.506820e-06	-7.938261e-09	-3.834166e+01	-5.211230e+02
4.400000e-07	-5.390619e-06	-7.874051e-09	-3.753261e+01	-5.162677e+02
4.500000e-07	-5.272372e-06	-7.796721e-09	-3.670930e+01	-5.112531e+02
4.600000e-07	-5.152213e-06	-7.710090e-09	-3.587268e+01	-5.060843e+02
4.700000e-07	-5.030279e-06	-7.629795e-09	-3.502371e+01	-5.007652e+02
4.800000e-07	-4.906519e-06	-7.550784e-09	-3.416202e+01	-4.952976e+02
4.900000e-07	-4.780966e-06	-7.462240e-09	-3.328785e+01	-4.896794e+02
5.000000e-07	-4.653683e-06	-7.369996e-09	-3.240163e+01	-4.839045e+02
5.100000e-07	-4.524724e-06	-7.277316e-09	-3.150374e+01	-4.779622e+02
5.200000e-07	-4.394027e-06	-7.187793e-09	-3.059375e+01	-4.718389e+02
5.300000e-07	-4.261641e-06	-7.093048e-09	-2.967200e+01	-4.655185e+02
5.400000e-07	-4.127769e-06	-6.994772e-09	-2.873991e+01	-4.589847e+02
5.500000e-07	-3.992331e-06	-6.889994e-09	-2.779691e+01	-4.522230e+02
5.600000e-07	-3.855362e-06	-6.779992e-09	-2.684326e+01	-4.452221e+02
5.700000e-07	-3.716884e-06	-6.663267e-09	-2.587909e+01	-4.379753e+02
5.800000e-07	-3.576727e-06	-6.545611e-09	-2.490324e+01	-4.304809e+02
5.900000e-07	-3.435067e-06	-6.428387e-09	-2.391692e+01	-4.227418e+02
6.000000e-07	-3.292162e-06	-6.308280e-09	-2.292193e+01	-4.147636e+02
6.100000e-07	-3.148075e-06	-6.183234e-09	-2.191872e+01	-4.065536e+02
6.200000e-07	-3.002756e-06	-6.055141e-09	-2.090692e+01	-3.981172e+02
6.300000e-07	-2.856285e-06	-5.928159e-09	-1.988711e+01	-3.894560e+02
6.400000e-07	-2.708851e-06	-5.794422e-09	-1.886058e+01	-3.805654e+02
6.500000e-07	-2.560503e-06	-5.653105e-09	-1.782770e+01	-3.714335e+02
6.600000e-07	-2.411304e-06	-5.505537e-09	-1.678889e+01	-3.620408e+02
6.700000e-07	-2.261336e-06	-5.354972e-09	-1.574473e+01	-3.523607e+02
6.800000e-07	-2.110519e-06	-5.197593e-09	-1.469465e+01	-3.423621e+02
6.900000e-07	-1.958880e-06	-5.038146e-09	-1.363885e+01	-3.320121e+02
7.000000e-07	-1.806623e-06	-4.874587e-09	-1.257875e+01	-3.212794e+02
7.100000e-07	-1.653787e-06	-4.701790e-09	-1.151462e+01	-3.101374e+02
7.200000e-07	-1.500430e-06	-4.525411e-09	-1.044686e+01	-2.985671e+02
7.300000e-07	-1.346583e-06	-4.347196e-09	-9.375688e+00	-2.865583e+02
7.400000e-07	-1.192308e-06	-4.164325e-09	-8.301537e+00	-2.741093e+02
7.500000e-07	-1.037622e-06	-3.969788e-09	-7.224524e+00	-2.612251e+02
7.600000e-07	-8.825221e-07	-3.766423e-09	-6.144628e+00	-2.479141e+02
7.700000e-07	-7.270500e-07	-3.554936e-09	-5.062142e+00	-2.341832e+02
7.800000e-07	-5.713142e-07	-3.337719e-09	-3.977819e+00	-2.200322e+02
7.900000e-07	-4.154631e-07	-3.115509e-09	-2.892694e+00	-2.054494e+02
8.000000e-07	-2.594731e-07	-2.885785e-09	-1.806602e+00	-1.904068e+02
8.100000e-07	-1.033324e-07	-2.647342e-09	-7.194602e-01	-1.748584e+02
8.200000e-07	5.289078e-08	-2.400601e-09	3.682561e-01	-1.587405e+02
8.300000e-07	2.091251e-07	-2.146078e-09	1.456050e+00	-1.419745e+02
8.400000e-07	3.653498e-07	-1.879467e-09	2.543776e+00	-1.244734e+02
8.500000e-07	5.215315e-07	-1.598450e-09	3.631204e+00	-1.061502e+02
8.600000e-07	6.775421e-07	-1.302406e-09	4.717439e+00	-8.692802e+01
8.700000e-07	8.332926e-07	-9.966703e-10	5.801864e+00	-6.675137e+01
8.800000e-07	9.887870e-07	-6.804306e-10	6.884506e+00	-4.559653e+01
8.900000e-07	1.143930e-06	-3.500404e-10	7.964704e+00	-2.348037e+01
9.000000e-07	1.298648e-06	-4.868333e-12	9.041936e+00	-4.663761e-01
9.100000e-07	1.452899e-06	3.551111e-10	1.011592e+01	2.333318e+01
9.200000e-07	1.606554e-06	7.294081e-10	1.118576e+01	4.775919e+01
9.300000e-07	1.759637e-06	1.114761e-09	1.225161e+01	7.261195e+01
9.400000e-07	1.912178e-06	1.500391e-09	1.331369e+01	9.766119e+01
9.500000e-07	2.064107e-06	1.884696e-09	1.437151e+01	1.226591e+02
9.600000e-07	2.215318e-06	2.264475e-09	1.542432e+01	1.473549e+02
9.700000e-07	2.365658e-06	2.634557e-09	1.647108e+01	1.715103e+02
9.800000e-07	2.514977e-06	2.989855e-09	1.751072e+01	1.949130e+02
9.900000e-07	2.663300e-06	3.327003e-09	1.854343e+01	2.173888e+02
1.000000e-06	2.810655e-06	3.648388e-09	1.956941e+01	2.388092e+02
1.010000e-06	2.956898e-06	3.953641e-09	2.058763e+01	2.590955e+02
1.020000e-06	3.101975e-06	4.238324e-09	2.159774e+01	2.782188e+02
1.030000e-06	3.245971e-06	4.504675e-09	2.260032e+01	2.961951e+02
1.040000e-06	3.388816e-06	4.758593e-09	2.359489e+01	3.130777e+02
1.050000e-06	3.530319e-06	5.001200e-09	2.458012e+01	3.289475e+02
1.060000e-06	3.670431e-06	5.231588e-09	2.555566e+01	3.439011e+02
1.070000e-06	3.809110e-06	5.451352e-09	2.652122e+01	3.580400e+02
1.080000e-06	3.946401e-06	5.660338e-09	2.747712e+01	3.714611e+02
1.090000e-06	4.082288e-06	5.857013e-09	2.842324e+01	3.842486e+02
1.100000e-06	4.216614e-06	6.042116e-09	2.935850e+01	3.964690e+02
1.110000e-06	4.349395e-06	6.217448e-09	3.028300e+01	4.081698e+02
1.120000e-06	4.480623e-06	6.385287e-09	3.119668e+01	4.193797e+02
1.130000e-06	4.610275e-06	6.546002e-09	3.209940e+01	4.301120e+02
1.140000e-06	4.738421e-06	6.699413e-09	3.299162e+01	4.403691e+02
1.150000e-06	4.864940e-06	6.846734e-09	3.387252e+01	4.501480e+02
1.160000e-06	4.989771e-06	6.988128e-09	3.474166e+01	4.594456e+02
1.170000e-06	5.112840e-06	7.122409e-09	3.559854e+01	4.682630e+02
1.180000e-06	5.234123e-06	7.251020e-09	3.644299e+01	4.766084e+02
1.190000e-06	5.353568e-06	7.374289e-09	3.727463e+01	4.844987e+02
1.200000e-06	5.470966e-06	7.490938e-09	3.809202e+01	4.919593e+02
1.210000e-06	5.586218e-06	7.598442e-09	3.889448e+01	4.990220e+02
1.220000e-06	5.699293e-06	7.699623e-09	3.968177e+01	5.057228e+02
1.230000e-06	5.810222e-06	7.797715e-09	4.045412e+01	5.120986e+02
1.240000e-06	5.919094e-06	7.890039e-09	4.121215e+01	5.181842e+02
1.250000e-06	6.025916e-06	7.976423e-09	4.195591e+01	5.240098e+02
1.260000e-06	6.130510e-06	8.059869e-09	4.268415e+01	5.295997e+02
1.270000e-06	6.232815e-06	8.138969e-09	4.339645e+01	5.349712e+02
1.280000e-06	6.332772e-06	8.216005e-09	4.409242e+01	5.401355e+02
1.290000e-06	6.430334e-06	8.291407e-09	4.477170e+01	5.450991e+02
1.300000e-06	6.525461e-06	8.364687e-09	4.543403e+01	5.498651e+02
1.310000e-06	6.618240e-06	8.435274e-09	4.608001e+01	5.544358e+02
1.320000e-06	6.708806e-06	8.501553e-09	4.671058e+01	5.588137e+02
1.330000e-06	6.796995e-06	8.564990e-09	4.732460e+01	5.630035e+02
1.340000e-06	6.882718e-06	8.624978e-09	4.792145e+01	5.670117e+02
1.350000e-06	6.966043e-06	8.681831e-09	4.850161e+01	5.708471e+02
1.360000e-06	7.046884e-06	8.736580e-09	4.906447e+01	5.745196e+02
1.370000e-06	7.125185e-06	8.791401e-09	4.960965e+01	5.780385e+02
1.380000e-06	7.200855e-06	8.846486e-09	5.013651e+01	5.814117e+02
1.390000e-06	7.273795e-06	8.897738e-09	5.064436e+01	5.846440e+02
1.400000e-06	7.344078e-06	8.943966e-09	5.113371e+01	5.877362e+02
1.410000e-06	7.411802e-06	8.987419e-09	5.160524e+01	5.906849e+02
1.420000e-06	7.476865e-06	9.029380e-09	5.205825e+01	5.934833e+02
1.430000e-06	7.539278e-06	9.068605e-09	5.249281e+01	5.961219e+02
1.440000e-06	7.599178e-06	9.104347e-09	5.290986e+01	5.985902e+02
1.450000e-06	7.656422e-06	9.135848e-09	5.330843e+01	6.008790e+02
1.460000e-06	7.710909e-06	9.165807e-09	5.368780e+01	6.029817e+02
1.470000e-06	7.762391e-06	9.195359e-09	5.404625e+01	6.048960e+02
1.480000e-06	7.810662e-06	9.222515e-09	5.438234e+01	6.066250e+02
1.490000e-06	7.856041e-06	9.246744e-09	5.469830e+01	6.081770e+02
1.500000e-06	7.898687e-06	9.269040e-09	5.499522e+01	6.095647e+02
1.510000e-06	7.938445e-06	9.290233e-09	5.527204e+01	6.108046e+02
1.520000e-06	7.975424e-06	9.307704e-09	5.552951e+01	6.119145e+02
1.530000e-06	8.009673e-06	9.322524e-09	5.576797e+01	6.129118e+02
1.540000e-06	8.041006e-06	9.335976e-09	5.598613e+01	6.138115e+02
1.550000e-06	8.069520e-06	9.348329e-09	5.618466e+01	6.146247e+02
1.560000e-06	8.095133e-06	9.360153e-09	5.636299e+01	6.153574e+02
1.570000e-06	8.117730e-06	9.370771e-09	5.652032e+01	6.160109e+02
1.580000e-06	8.137511e-06	9.380996e-09	5.665805e+01	6.165815e+02
1.590000e-06	8.154353e-06	9.390052e-09	5.677531e+01	6.170624e+02
1.600000e-06	8.168128e-06	9.396376e-09	5.687122e+01	6.174448e+02
1.610000e-06	8.178722e-06	9.400510e-09	5.694498e+01	6.177200e+02
1.620000e-06	8.186177e-06	9.403056e-09	5.699689e+01	6.178812e+02
1.630000e-06	8.190828e-06	9.404279e-09	5.702928e+01	6.179245e+02
1.640000e-06	8.192584e-06	9.404678e-09	5.704150e+01	6.178502e+02
1.650000e-06	8.191360e-06	9.400205e-09	5.703298e+01	6.176625e+02
1.660000e-06	8.187486e-06	9.393032e-09	5.700601e+01	6.173696e+02
1.670000e-06	8.180907e-06	9.390785e-09	5.696020e+01	6.169821e+02
1.680000e-06	8.171552e-06	9.386919e-09	5.689506e+01	6.165121e+02
1.690000e-06	8.159395e-06	9.381336e-09	5.681042e+01	6.159713e+02
1.700000e-06	8.144346e-06	9.378535e-09	5.670564e+01	6.153696e+02
1.710000e-06	8.126684e-06	9.376835e-09	5.658267e+01	6.147141e+02
1.720000e-06	8.106716e-06	9.371065e-09	5.644363e+01	6.140082e+02
1.730000e-06	8.084113e-06	9.281342e-09	5.628626e+01	6.132514e+02
1.740000e-06	8.058134e-06	9.259933e-09	5.610538e+01	6.124398e+02
1.750000e-06	8.028360e-06	9.289491e-09	5.589808e+01	6.115667e+02
1.760000e-06	7.995214e-06	9.271953e-09	5.566730e+01	6.106239e+02
1.770000e-06	7.959628e-06	9.268032e-09	5.541953e+01	6.096023e+02
1.780000e-06	7.921629e-06	9.317135e-09	5.515495e+01	6.084935e+02
1.790000e-06	7.881292e-06	9.293320e-09	5.487410e+01	6.072902e+02
1.800000e-06	7.839040e-06	9.160038e-09	5.457992e+01	6.059867e+02
1.810000e-06	7.794242e-06	9.250560e-09	5.426801e+01	6.045791e+02
1.820000e-06	7.746545e-06	9.210693e-09	5.393592e+01	6.030651e+02
1.830000e-06	7.696090e-06	9.169145e-09	5.358463e+01	6.014433e+02
1.840000e-06	7.642527e-06	9.214010e-09	5.321169e+01	5.997125e+02
1.850000e-06	7.586093e-06	9.110010e-09	5.281876e+01	5.978719e+02
1.860000e-06	7.526932e-06	9.121291e-09	5.240685e+01	5.959198e+02
1.870000e-06	7.464935e-06	9.028966e-09	5.197519e+01	5.938545e+02
1.880000e-06	7.400171e-06	9.034750e-09	5.152426e+01	5.916735e+02
1.890000e-06	7.332516e-06	9.038204e-09	5.105321e+01	5.893747e+02
1.900000e-06	7.262034e-06	8.921368e-09	5.056247e+01	5.869563e+02
1.910000e-06	7.188741e-06	8.936789e-09	5.005217e+01	5.844180e+02
1.920000e-06	7.112699e-06	8.867321e-09	4.952272e+01	5.817605e+02
1.930000e-06	7.033822e-06	8.849597e-09	4.897353e+01	5.789864e+02
1.940000e-06	6.952253e-06	8.783665e-09	4.840560e+01	5.760995e+02
1.950000e-06	6.868225e-06	8.742752e-09	4.782055e+01	5.731044e+02
1.960000e-06	6.781530e-06	8.734198e-09	4.721693e+01	5.700060e+02
1.970000e-06	6.692273e-06	8.634122e-09	4.659547e+01	5.668078e+02
1.980000e-06	6.600641e-06	8.613380e-09	4.595747e+01	5.635119e+02
1.990000e-06	6.506763e-06	8.560001e-09	4.530384e+01	5.601176e+02
2.000000e-06	6.410610e-06	8.514933e-09	4.463437e+01	5.566210e+02
2.010000e-06	6.312145e-06	8.427114e-09	4.394879e+01	5.530156e+02
2.020000e-06	6.211411e-06	8.378901e-09	4.324743e+01	5.492919e+02
2.030000e-06	6.108388e-06	8.333807e-09	4.253012e+01	5.454391e+02
2.040000e-06	6.003215e-06	8.265755e-09	4.179785e+01	5.414460e+02
2.050000e-06	5.895990e-06	8.209899e-09	4.105129e+01	5.373022e+02
2.060000e-06	5.786753e-06	8.136619e-09	4.029072e+01	5.329994e+02
2.070000e-06	5.675431e-06	8.076056e-09	3.951563e+01	5.285325e+02
2.080000e-06	5.562001e-06	7.987825e-09	3.872586e+01	5.238995e+02
2.090000e-06	5.446393e-06	7.924394e-09	3.792093e+01	5.191019e+02
2.100000e-06	5.328744e-06	7.848617e-09	3.710179e+01	5.141432e+02
2.110000e-06	5.209104e-06	7.778563e-09	3.626879e+01	5.090285e+02
2.120000e-06	5.087548e-06	7.694042e-09	3.542245e+01	5.037623e+02
2.130000e-06	4.964219e-06	7.613313e-09	3.456376e+01	4.983474e+02
2.140000e-06	4.839037e-06	7.531715e-09	3.369217e+01	4.927830e+02
2.150000e-06	4.712127e-06	7.445376e-09	3.280855e+01	4.870646e+02
2.160000e-06	4.583472e-06	7.353458e-09	3.191278e+01	4.811832e+02
2.170000e-06	4.453181e-06	7.253266e-09	3.100562e+01	4.751259e+02
2.180000e-06	4.321252e-06	7.161705e-09	3.008705e+01	4.688773e+02
2.190000e-06	4.187695e-06	7.063025e-09	2.915715e+01	4.624211e+02
2.200000e-06	4.052651e-06	6.964915e-09	2.821689e+01	4.557419e+02
2.210000e-06	3.915982e-06	6.859612e-09	2.726533e+01	4.488270e+02
2.220000e-06	3.777647e-06	6.757268e-09	2.630216e+01	4.416681e+02
2.230000e-06	3.637859e-06	6.643680e-09	2.532887e+01	4.342616e+02
2.240000e-06	3.496786e-06	6.525981e-09	2.434664e+01	4.266089e+02
2.250000e-06	3.354471e-06	6.408442e-09	2.335576e+01	4.187149e+02
2.260000e-06	3.210865e-06	6.290313e-09	2.235590e+01	4.105865e+02
2.270000e-06	3.065931e-06	6.160617e-09	2.134678e+01	4.022301e+02
2.280000e-06	2.919847e-06	6.024432e-09	2.032966e+01	3.936489e+02
2.290000e-06	2.772708e-06	5.892739e-09	1.930519e+01	3.848407e+02
2.300000e-06	2.624570e-06	5.758971e-09	1.827378e+01	3.757965e+02
2.310000e-06	2.475585e-06	5.617751e-09	1.723646e+01	3.664992e+02
2.320000e-06	2.325803e-06	5.469734e-09	1.619358e+01	3.569247e+02
2.330000e-06	2.175266e-06	5.317489e-09	1.514546e+01	3.470432e+02
2.340000e-06	2.024054e-06	5.160559e-09	1.409263e+01	3.368220e+02
2.350000e-06	1.872140e-06	5.000110e-09	1.303492e+01	3.262289e+02
2.360000e-06	1.719525e-06	4.835281e-09	1.197233e+01	3.152353e+02
2.370000e-06	1.566358e-06	4.660741e-09	1.090589e+01	3.038193e+02
2.380000e-06	1.412715e-06	4.478372e-09	9.836138e+00	2.919672e+02
2.390000e-06	1.258525e-06	4.291546e-09	8.762581e+00	2.796747e+02
2.400000e-06	1.103863e-06	4.099441e-09	7.685732e+00	2.669447e+02
2.410000e-06	9.488735e-07	3.901044e-09	6.606605e+00	2.537847e+02
2.420000e-06	7.935241e-07	3.695452e-09	5.524973e+00	2.402029e+02
2.430000e-06	6.378373e-07	3.484243e-09	4.440991e+00	2.262021e+02
2.440000e-06	4.818864e-07	3.264203e-09	3.355171e+00	2.117754e+02
2.450000e-06	3.257579e-07	3.034799e-09	2.268115e+00	1.969009e+02
2.460000e-06	1.694936e-07	2.796994e-09	1.180112e+00	1.815392e+02
2.470000e-06	1.310691e-08	2.549156e-09	9.125787e-02	1.656326e+02
2.480000e-06	-1.432801e-07	2.291513e-09	-9.975988e-01	1.491074e+02
2.490000e-06	-2.996164e-07	2.026388e-09	-2.086102e+00	1.318786e+02
2.500000e-06	-4.558494e-07	1.751248e-09	-3.173887e+00	1.138582e+02
2.510000e-06	-6.119336e-07	1.463373e-09	-4.260635e+00	9.496435e+01
2.520000e-06	-7.678243e-07	1.161839e-09	-5.346036e+00	7.513276e+01
2.530000e-06	-9.234730e-07	8.474921e-10	-6.429752e+00	5.432718e+01
2.540000e-06	-1.078854e-06	5.187889e-10	-7.511607e+00	3.254915e+01
2.550000e-06	-1.233818e-06	1.744191e-10	-8.590556e+00	9.845039e+00
2.560000e-06	-1.388264e-06	-1.833363e-10	-9.665895e+00	-1.369030e+01
2.570000e-06	-1.542131e-06	-5.529659e-10	-1.073721e+01	-3.791399e+01
2.580000e-06	-1.695410e-06	-9.312585e-10	-1.180442e+01	-6.263986e+01
2.590000e-06	-1.848061e-06	-1.315313e-09	-1.286726e+01	-8.764719e+01
2.600000e-06	-2.000012e-06	-1.701826e-09	-1.392524e+01	-1.126928e+02
2.610000e-06	-2.151184e-06	-2.086120e-09	-1.497779e+01	-1.375252e+02
2.620000e-06	-2.301480e-06	-2.463417e-09	-1.602423e+01	-1.619000e+02
2.630000e-06	-2.450960e-06	-2.827896e-09	-1.706500e+01	-1.855942e+02
2.640000e-06	-2.599643e-06	-3.175496e-09	-1.810022e+01	-2.084187e+02
2.650000e-06	-2.747317e-06	-3.505973e-09	-1.912841e+01	-2.302281e+02
2.660000e-06	-2.893912e-06	-3.818418e-09	-2.014909e+01	-2.509257e+02
2.670000e-06	-3.039453e-06	-4.113825e-09	-2.116242e+01	-2.704651e+02
2.680000e-06	-3.183844e-06	-4.393049e-09	-2.216776e+01	-2.888471e+02
2.690000e-06	-3.326968e-06	-4.654955e-09	-2.316427e+01	-3.061127e+02
2.700000e-06	-3.468783e-06	-4.902756e-09	-2.415167e+01	-3.223341e+02
2.710000e-06	-3.609297e-06	-5.138679e-09	-2.513001e+01	-3.376037e+02
2.720000e-06	-3.748411e-06	-5.365137e-09	-2.609860e+01	-3.520224e+02
2.730000e-06	-3.886100e-06	-5.583219e-09	-2.705727e+01	-3.656899e+02
2.740000e-06	-4.022332e-06	-5.789167e-09	-2.800580e+01	-3.786954e+02
2.750000e-06	-4.157121e-06	-5.983024e-09	-2.894428e+01	-3.911123e+02
2.760000e-06	-4.290559e-06	-6.164175e-09	-2.987335e+01	-4.029949e+02
2.770000e-06	-4.422466e-06	-6.333449e-09	-3.079176e+01	-4.143783e+02
2.780000e-06	-4.552787e-06	-6.493855e-09	-3.169913e+01	-4.252809e+02
2.790000e-06	-4.681569e-06	-6.647148e-09	-3.259579e+01	-4.357083e+02
2.800000e-06	-4.808698e-06	-6.796646e-09	-3.348093e+01	-4.456588e+02
2.810000e-06	-4.934223e-06	-6.940481e-09	-3.435491e+01	-4.551289e+02
2.820000e-06	-5.058021e-06	-7.079041e-09	-3.521687e+01	-4.641177e+02
2.830000e-06	-5.179888e-06	-7.211459e-09	-3.606537e+01	-4.726306e+02
2.840000e-06	-5.299837e-06	-7.335645e-09	-3.690053e+01	-4.806814e+02
2.850000e-06	-5.417863e-06	-7.452205e-09	-3.772229e+01	-4.882925e+02
2.860000e-06	-5.533736e-06	-7.564020e-09	-3.852907e+01	-4.954937e+02
2.870000e-06	-5.647290e-06	-7.670674e-09	-3.931969e+01	-5.023199e+02
2.880000e-06	-5.758587e-06	-7.770701e-09	-4.009461e+01	-5.088080e+02
2.890000e-06	-5.867749e-06	-7.866053e-09	-4.085466e+01	-5.149939e+02
2.900000e-06	-5.974978e-06	-7.956958e-09	-4.160124e+01	-5.209098e+02
2.910000e-06	-6.080117e-06	-8.042915e-09	-4.233329e+01	-5.265819e+02
2.920000e-06	-6.182973e-06	-8.123977e-09	-4.304943e+01	-5.320302e+02
2.930000e-06	-6.283530e-06	-8.203926e-09	-4.374957e+01	-5.372680e+02
2.940000e-06	-6.381801e-06	-8.281893e-09	-4.443378e+01	-5.423032e+02
