# Temperatura_=_28.15
# Concentracion g/m^3_=_15000.0
# C_Vs_to_Am_M_A/Vsm_=_65563218390.804596
# pendiente_HvsI_1/m_=_3716.3
# ordenada_HvsI_A/m_=_1297.0
# frecuencia_Hz_=_302363.22921210236

Tiempo_(s)	Campo_(V.s)	Magnetizacion_(V.s)	Campo_(kA/m)	Magnetizacion_(A/m)
0.000000e+00	-8.160283e-06	-8.573624e-09	-5.689585e+01	-5.606923e+02
1.000000e-08	-8.155419e-06	-8.572980e-09	-5.686194e+01	-5.604420e+02
2.000000e-08	-8.147989e-06	-8.566453e-09	-5.681014e+01	-5.601170e+02
3.000000e-08	-8.137729e-06	-8.558628e-09	-5.673860e+01	-5.597287e+02
4.000000e-08	-8.124463e-06	-8.550161e-09	-5.664611e+01	-5.592874e+02
5.000000e-08	-8.108312e-06	-8.539902e-09	-5.653350e+01	-5.588011e+02
6.000000e-08	-8.089571e-06	-8.528010e-09	-5.640283e+01	-5.582744e+02
7.000000e-08	-8.068519e-06	-8.515473e-09	-5.625605e+01	-5.577083e+02
8.000000e-08	-8.044819e-06	-8.536172e-09	-5.609080e+01	-5.570995e+02
9.000000e-08	-8.017895e-06	-8.557559e-09	-5.590308e+01	-5.564418e+02
1.000000e-07	-7.987706e-06	-8.515810e-09	-5.569260e+01	-5.557264e+02
1.100000e-07	-7.954528e-06	-8.476130e-09	-5.546127e+01	-5.549435e+02
1.200000e-07	-7.918556e-06	-8.456379e-09	-5.521047e+01	-5.540835e+02
1.300000e-07	-7.880071e-06	-8.435480e-09	-5.494214e+01	-5.531383e+02
1.400000e-07	-7.839213e-06	-8.404206e-09	-5.465726e+01	-5.521019e+02
1.500000e-07	-7.795947e-06	-8.405291e-09	-5.435560e+01	-5.509711e+02
1.600000e-07	-7.750078e-06	-8.432688e-09	-5.403579e+01	-5.497450e+02
1.700000e-07	-7.701312e-06	-8.337141e-09	-5.369578e+01	-5.484250e+02
1.800000e-07	-7.649636e-06	-8.333710e-09	-5.333548e+01	-5.470135e+02
1.900000e-07	-7.595003e-06	-8.344900e-09	-5.295456e+01	-5.455133e+02
2.000000e-07	-7.537508e-06	-8.261756e-09	-5.255369e+01	-5.439264e+02
2.100000e-07	-7.477401e-06	-8.267676e-09	-5.213460e+01	-5.422536e+02
2.200000e-07	-7.414682e-06	-8.254761e-09	-5.169731e+01	-5.404936e+02
2.300000e-07	-7.349229e-06	-8.233997e-09	-5.124095e+01	-5.386437e+02
2.400000e-07	-7.280962e-06	-8.183687e-09	-5.076497e+01	-5.366995e+02
2.500000e-07	-7.209893e-06	-8.153862e-09	-5.026946e+01	-5.346560e+02
2.600000e-07	-7.135948e-06	-8.134798e-09	-4.975389e+01	-5.325085e+02
2.700000e-07	-7.059117e-06	-8.073718e-09	-4.921821e+01	-5.302532e+02
2.800000e-07	-6.979440e-06	-8.031489e-09	-4.866268e+01	-5.278880e+02
2.900000e-07	-6.897119e-06	-7.999157e-09	-4.808871e+01	-5.254127e+02
3.000000e-07	-6.812478e-06	-7.979462e-09	-4.749857e+01	-5.228294e+02
3.100000e-07	-6.725480e-06	-7.928558e-09	-4.689199e+01	-5.201415e+02
3.200000e-07	-6.636003e-06	-7.876967e-09	-4.626814e+01	-5.173533e+02
3.300000e-07	-6.544115e-06	-7.850392e-09	-4.562746e+01	-5.144688e+02
3.400000e-07	-6.449836e-06	-7.796608e-09	-4.497012e+01	-5.114908e+02
3.500000e-07	-6.353198e-06	-7.741716e-09	-4.429634e+01	-5.084201e+02
3.600000e-07	-6.254271e-06	-7.699241e-09	-4.360659e+01	-5.052547e+02
3.700000e-07	-6.153123e-06	-7.659382e-09	-4.290135e+01	-5.019898e+02
3.800000e-07	-6.049712e-06	-7.598911e-09	-4.218034e+01	-4.986181e+02
3.900000e-07	-5.944142e-06	-7.539269e-09	-4.144428e+01	-4.951305e+02
4.000000e-07	-5.836533e-06	-7.492836e-09	-4.069400e+01	-4.915172e+02
4.100000e-07	-5.726862e-06	-7.431456e-09	-3.992934e+01	-4.877689e+02
4.200000e-07	-5.615135e-06	-7.368223e-09	-3.915035e+01	-4.838776e+02
4.300000e-07	-5.501300e-06	-7.305960e-09	-3.835666e+01	-4.798377e+02
4.400000e-07	-5.385306e-06	-7.248362e-09	-3.754791e+01	-4.756465e+02
4.500000e-07	-5.267198e-06	-7.182737e-09	-3.672443e+01	-4.713037e+02
4.600000e-07	-5.147215e-06	-7.110912e-09	-3.588787e+01	-4.668109e+02
4.700000e-07	-5.025507e-06	-7.040459e-09	-3.503929e+01	-4.621709e+02
4.800000e-07	-4.901990e-06	-6.969270e-09	-3.417810e+01	-4.573861e+02
4.900000e-07	-4.776669e-06	-6.892941e-09	-3.330432e+01	-4.524572e+02
5.000000e-07	-4.649543e-06	-6.809789e-09	-3.241796e+01	-4.473823e+02
5.100000e-07	-4.520709e-06	-6.728355e-09	-3.151969e+01	-4.421559e+02
5.200000e-07	-4.390226e-06	-6.648922e-09	-3.060992e+01	-4.367694e+02
5.300000e-07	-4.258097e-06	-6.567372e-09	-2.968868e+01	-4.312107e+02
5.400000e-07	-4.124433e-06	-6.476963e-09	-2.875674e+01	-4.254662e+02
5.500000e-07	-3.989179e-06	-6.382830e-09	-2.781371e+01	-4.195214e+02
5.600000e-07	-3.852364e-06	-6.287150e-09	-2.685980e+01	-4.133629e+02
5.700000e-07	-3.714074e-06	-6.187771e-09	-2.589560e+01	-4.069798e+02
5.800000e-07	-3.574184e-06	-6.086458e-09	-2.492025e+01	-4.003646e+02
5.900000e-07	-3.432747e-06	-5.983715e-09	-2.393411e+01	-3.935138e+02
6.000000e-07	-3.289997e-06	-5.877255e-09	-2.293881e+01	-3.864275e+02
6.100000e-07	-3.146024e-06	-5.763111e-09	-2.193499e+01	-3.791085e+02
6.200000e-07	-3.000850e-06	-5.647992e-09	-2.092279e+01	-3.715605e+02
6.300000e-07	-2.854539e-06	-5.533374e-09	-1.990267e+01	-3.637863e+02
6.400000e-07	-2.707246e-06	-5.412953e-09	-1.887570e+01	-3.557855e+02
6.500000e-07	-2.559107e-06	-5.283616e-09	-1.784283e+01	-3.475530e+02
6.600000e-07	-2.410174e-06	-5.149753e-09	-1.680443e+01	-3.390774e+02
6.700000e-07	-2.260417e-06	-5.013873e-09	-1.576028e+01	-3.303415e+02
6.800000e-07	-2.109830e-06	-4.872776e-09	-1.471034e+01	-3.213223e+02
6.900000e-07	-1.958503e-06	-4.729534e-09	-1.365525e+01	-3.119931e+02
7.000000e-07	-1.806565e-06	-4.581631e-09	-1.259589e+01	-3.023256e+02
7.100000e-07	-1.654044e-06	-4.427366e-09	-1.153247e+01	-2.922930e+02
7.200000e-07	-1.500915e-06	-4.266901e-09	-1.046481e+01	-2.818725e+02
7.300000e-07	-1.347196e-06	-4.103835e-09	-9.393040e+00	-2.710475e+02
7.400000e-07	-1.193030e-06	-3.935795e-09	-8.318153e+00	-2.598085e+02
7.500000e-07	-1.038500e-06	-3.757986e-09	-7.240724e+00	-2.481535e+02
7.600000e-07	-8.834734e-07	-3.572466e-09	-6.159832e+00	-2.360862e+02
7.700000e-07	-7.280556e-07	-3.380254e-09	-5.076215e+00	-2.236131e+02
7.800000e-07	-5.724528e-07	-3.183305e-09	-3.991306e+00	-2.107398e+02
7.900000e-07	-4.166881e-07	-2.981552e-09	-2.905270e+00	-1.974668e+02
8.000000e-07	-2.608017e-07	-2.775814e-09	-1.818385e+00	-1.837852e+02
8.100000e-07	-1.047417e-07	-2.561373e-09	-7.302897e-01	-1.696736e+02
8.200000e-07	5.138777e-08	-2.337651e-09	3.582904e-01	-1.550963e+02
8.300000e-07	2.074873e-07	-2.107306e-09	1.446662e+00	-1.400040e+02
8.400000e-07	3.635368e-07	-1.867686e-09	2.534684e+00	-1.243361e+02
8.500000e-07	5.195237e-07	-1.617286e-09	3.622270e+00	-1.080259e+02
8.600000e-07	6.753887e-07	-1.356191e-09	4.709006e+00	-9.100805e+01
8.700000e-07	8.310124e-07	-1.087160e-09	5.794059e+00	-7.322620e+01
8.800000e-07	9.863864e-07	-8.081517e-10	6.877372e+00	-5.464249e+01
8.900000e-07	1.141439e-06	-5.169954e-10	7.958443e+00	-3.524575e+01
9.000000e-07	1.296108e-06	-2.119350e-10	9.036837e+00	-1.505849e+01
9.100000e-07	1.450286e-06	1.066989e-10	1.011182e+01	5.858619e+00
9.200000e-07	1.603819e-06	4.356025e-10	1.118229e+01	2.740530e+01
9.300000e-07	1.756696e-06	7.735737e-10	1.224819e+01	4.944370e+01
9.400000e-07	1.908954e-06	1.115957e-09	1.330978e+01	7.180382e+01
9.500000e-07	2.060551e-06	1.460550e-09	1.436676e+01	9.429211e+01
9.600000e-07	2.211421e-06	1.805775e-09	1.541867e+01	1.167022e+02
9.700000e-07	2.361431e-06	2.146677e-09	1.646458e+01	1.388269e+02
9.800000e-07	2.510438e-06	2.477496e-09	1.750350e+01	1.604707e+02
9.900000e-07	2.658520e-06	2.795760e-09	1.853597e+01	1.814606e+02
1.000000e-06	2.805703e-06	3.101017e-09	1.956217e+01	2.016553e+02
1.010000e-06	2.951775e-06	3.390830e-09	2.058063e+01	2.209513e+02
1.020000e-06	3.096656e-06	3.663296e-09	2.159078e+01	2.392856e+02
1.030000e-06	3.240481e-06	3.920482e-09	2.259357e+01	2.566347e+02
1.040000e-06	3.383149e-06	4.166481e-09	2.358829e+01	2.730109e+02
1.050000e-06	3.524502e-06	4.402470e-09	2.457385e+01	2.884557e+02
1.060000e-06	3.664522e-06	4.626330e-09	2.555011e+01	3.030311e+02
1.070000e-06	3.803088e-06	4.838244e-09	2.651623e+01	3.168107e+02
1.080000e-06	3.940106e-06	5.039921e-09	2.747156e+01	3.298712e+02
1.090000e-06	4.075661e-06	5.230314e-09	2.841669e+01	3.422848e+02
1.100000e-06	4.209764e-06	5.410834e-09	2.935169e+01	3.541130e+02
1.110000e-06	4.342383e-06	5.581782e-09	3.027635e+01	3.654040e+02
1.120000e-06	4.473459e-06	5.745130e-09	3.119025e+01	3.761915e+02
1.130000e-06	4.602917e-06	5.901073e-09	3.209287e+01	3.864955e+02
1.140000e-06	4.730845e-06	6.047170e-09	3.298482e+01	3.963259e+02
1.150000e-06	4.857127e-06	6.187891e-09	3.386530e+01	4.056860e+02
1.160000e-06	4.981741e-06	6.324345e-09	3.473414e+01	4.145769e+02
1.170000e-06	5.104689e-06	6.453667e-09	3.559137e+01	4.230017e+02
1.180000e-06	5.225804e-06	6.575872e-09	3.643582e+01	4.309686e+02
1.190000e-06	5.345055e-06	6.691285e-09	3.726727e+01	4.384926e+02
1.200000e-06	5.462362e-06	6.800449e-09	3.808517e+01	4.455965e+02
1.210000e-06	5.577514e-06	6.902701e-09	3.888804e+01	4.523093e+02
1.220000e-06	5.690411e-06	6.998645e-09	3.967519e+01	4.586649e+02
1.230000e-06	5.801137e-06	7.089984e-09	4.044720e+01	4.646992e+02
1.240000e-06	5.909873e-06	7.177312e-09	4.120535e+01	4.704473e+02
1.250000e-06	6.016565e-06	7.260136e-09	4.194923e+01	4.759409e+02
1.260000e-06	6.120992e-06	7.339919e-09	4.267733e+01	4.812064e+02
1.270000e-06	6.223140e-06	7.416589e-09	4.338953e+01	4.862634e+02
1.280000e-06	6.323008e-06	7.491260e-09	4.408584e+01	4.911253e+02
1.290000e-06	6.420471e-06	7.564580e-09	4.476538e+01	4.957990e+02
1.300000e-06	6.515495e-06	7.634946e-09	4.542792e+01	5.002872e+02
1.310000e-06	6.608242e-06	7.701765e-09	4.607458e+01	5.045897e+02
1.320000e-06	6.698717e-06	7.762424e-09	4.670539e+01	5.087053e+02
1.330000e-06	6.786760e-06	7.818393e-09	4.731925e+01	5.126336e+02
1.340000e-06	6.872379e-06	7.870771e-09	4.791622e+01	5.163761e+02
1.350000e-06	6.955593e-06	7.921510e-09	4.849641e+01	5.199363e+02
1.360000e-06	7.036311e-06	7.971465e-09	4.905920e+01	5.233199e+02
1.370000e-06	7.114502e-06	8.021236e-09	4.960437e+01	5.265342e+02
1.380000e-06	7.190111e-06	8.071771e-09	5.013154e+01	5.295868e+02
1.390000e-06	7.262988e-06	8.118704e-09	5.063966e+01	5.324843e+02
1.400000e-06	7.333199e-06	8.160548e-09	5.112919e+01	5.352318e+02
1.410000e-06	7.400821e-06	8.197956e-09	5.160066e+01	5.378316e+02
1.420000e-06	7.465759e-06	8.232015e-09	5.205343e+01	5.402839e+02
1.430000e-06	7.528114e-06	8.264541e-09	5.248819e+01	5.425862e+02
1.440000e-06	7.587971e-06	8.293533e-09	5.290553e+01	5.447350e+02
1.450000e-06	7.645180e-06	8.318819e-09	5.330441e+01	5.467266e+02
1.460000e-06	7.699646e-06	8.342368e-09	5.368416e+01	5.485587e+02
1.470000e-06	7.751064e-06	8.365894e-09	5.404266e+01	5.502312e+02
1.480000e-06	7.799259e-06	8.390474e-09	5.437869e+01	5.517475e+02
1.490000e-06	7.844591e-06	8.413632e-09	5.469476e+01	5.531145e+02
1.500000e-06	7.887193e-06	8.435195e-09	5.499180e+01	5.543425e+02
1.510000e-06	7.926932e-06	8.455031e-09	5.526886e+01	5.554445e+02
1.520000e-06	7.963876e-06	8.471538e-09	5.552645e+01	5.564347e+02
1.530000e-06	7.998055e-06	8.484915e-09	5.576476e+01	5.573272e+02
1.540000e-06	8.029343e-06	8.495451e-09	5.598290e+01	5.581342e+02
1.550000e-06	8.057880e-06	8.504758e-09	5.618187e+01	5.588651e+02
1.560000e-06	8.083531e-06	8.513065e-09	5.636072e+01	5.595254e+02
1.570000e-06	8.106114e-06	8.521499e-09	5.651818e+01	5.601161e+02
1.580000e-06	8.125901e-06	8.531718e-09	5.665614e+01	5.606347e+02
1.590000e-06	8.142819e-06	8.541253e-09	5.677409e+01	5.610755e+02
1.600000e-06	8.156664e-06	8.548681e-09	5.687063e+01	5.614313e+02
1.610000e-06	8.167346e-06	8.553816e-09	5.694510e+01	5.616949e+02
1.620000e-06	8.174836e-06	8.557604e-09	5.699733e+01	5.618604e+02
1.630000e-06	8.179442e-06	8.559419e-09	5.702944e+01	5.619248e+02
1.640000e-06	8.181172e-06	8.559164e-09	5.704150e+01	5.618886e+02
1.650000e-06	8.180018e-06	8.556684e-09	5.703345e+01	5.617560e+02
1.660000e-06	8.176259e-06	8.549145e-09	5.700724e+01	5.615348e+02
1.670000e-06	8.169771e-06	8.546103e-09	5.696201e+01	5.612349e+02
1.680000e-06	8.160501e-06	8.543531e-09	5.689737e+01	5.608677e+02
1.690000e-06	8.148389e-06	8.540056e-09	5.681293e+01	5.604439e+02
1.700000e-06	8.133383e-06	8.538901e-09	5.670830e+01	5.599726e+02
1.710000e-06	8.115821e-06	8.537609e-09	5.658585e+01	5.594597e+02
1.720000e-06	8.095897e-06	8.528867e-09	5.644694e+01	5.589075e+02
1.730000e-06	8.073324e-06	8.472989e-09	5.628955e+01	5.583143e+02
1.740000e-06	8.047456e-06	8.442873e-09	5.610919e+01	5.576746e+02
1.750000e-06	8.017801e-06	8.467239e-09	5.590243e+01	5.569806e+02
1.760000e-06	7.984752e-06	8.464108e-09	5.567200e+01	5.562226e+02
1.770000e-06	7.949181e-06	8.456991e-09	5.542399e+01	5.553909e+02
1.780000e-06	7.911232e-06	8.482343e-09	5.515940e+01	5.544766e+02
1.790000e-06	7.871048e-06	8.476152e-09	5.487923e+01	5.534730e+02
1.800000e-06	7.828934e-06	8.372961e-09	5.458559e+01	5.523758e+02
1.810000e-06	7.784287e-06	8.404839e-09	5.427430e+01	5.511834e+02
1.820000e-06	7.736765e-06	8.400793e-09	5.394297e+01	5.498964e+02
1.830000e-06	7.686432e-06	8.338217e-09	5.359203e+01	5.485169e+02
1.840000e-06	7.632958e-06	8.380464e-09	5.321919e+01	5.470478e+02
1.850000e-06	7.576607e-06	8.299060e-09	5.282630e+01	5.454914e+02
1.860000e-06	7.517578e-06	8.281110e-09	5.241473e+01	5.438490e+02
1.870000e-06	7.455741e-06	8.242686e-09	5.198359e+01	5.421201e+02
1.880000e-06	7.391188e-06	8.219774e-09	5.153350e+01	5.403024e+02
1.890000e-06	7.323790e-06	8.236551e-09	5.106359e+01	5.383921e+02
1.900000e-06	7.253490e-06	8.142639e-09	5.057343e+01	5.363843e+02
1.910000e-06	7.180283e-06	8.147417e-09	5.006301e+01	5.342742e+02
1.920000e-06	7.104306e-06	8.114087e-09	4.953328e+01	5.320574e+02
1.930000e-06	7.025605e-06	8.079780e-09	4.898455e+01	5.297313e+02
1.940000e-06	6.944204e-06	8.044418e-09	4.841700e+01	5.272949e+02
1.950000e-06	6.860291e-06	7.988999e-09	4.783193e+01	5.247495e+02
1.960000e-06	6.773770e-06	7.976593e-09	4.722869e+01	5.220982e+02
1.970000e-06	6.684699e-06	7.898251e-09	4.660765e+01	5.193450e+02
1.980000e-06	6.593223e-06	7.871475e-09	4.596986e+01	5.164942e+02
1.990000e-06	6.499471e-06	7.841064e-09	4.531619e+01	5.135491e+02
2.000000e-06	6.403499e-06	7.794593e-09	4.464705e+01	5.105113e+02
2.010000e-06	6.305275e-06	7.731659e-09	4.396220e+01	5.073798e+02
2.020000e-06	6.204784e-06	7.679686e-09	4.326155e+01	5.041508e+02
2.030000e-06	6.101959e-06	7.642432e-09	4.254463e+01	5.008179e+02
2.040000e-06	5.996938e-06	7.579333e-09	4.181239e+01	4.973725e+02
2.050000e-06	5.889870e-06	7.531339e-09	4.106588e+01	4.938049e+02
2.060000e-06	5.780827e-06	7.470941e-09	4.030560e+01	4.901055e+02
2.070000e-06	5.669748e-06	7.416555e-09	3.953112e+01	4.862657e+02
2.080000e-06	5.556542e-06	7.348044e-09	3.874182e+01	4.822791e+02
2.090000e-06	5.441160e-06	7.287354e-09	3.793735e+01	4.781418e+02
2.100000e-06	5.323726e-06	7.224149e-09	3.711856e+01	4.738527e+02
2.110000e-06	5.204301e-06	7.160145e-09	3.628589e+01	4.694128e+02
2.120000e-06	5.082916e-06	7.089706e-09	3.543956e+01	4.648248e+02
2.130000e-06	4.959698e-06	7.016609e-09	3.458045e+01	4.600912e+02
2.140000e-06	4.834694e-06	6.948689e-09	3.370889e+01	4.552136e+02
2.150000e-06	4.707954e-06	6.874300e-09	3.282522e+01	4.501909e+02
2.160000e-06	4.579435e-06	6.793851e-09	3.192915e+01	4.450191e+02
2.170000e-06	4.449228e-06	6.704218e-09	3.102131e+01	4.396907e+02
2.180000e-06	4.317430e-06	6.623306e-09	3.010237e+01	4.341947e+02
2.190000e-06	4.184091e-06	6.537559e-09	2.917270e+01	4.285179e+02
2.200000e-06	4.049266e-06	6.450085e-09	2.823266e+01	4.226460e+02
2.210000e-06	3.912858e-06	6.359367e-09	2.728158e+01	4.165649e+02
2.220000e-06	3.774793e-06	6.267293e-09	2.631895e+01	4.102628e+02
2.230000e-06	3.635220e-06	6.165742e-09	2.534581e+01	4.037308e+02
2.240000e-06	3.494323e-06	6.058854e-09	2.436343e+01	3.969639e+02
2.250000e-06	3.352112e-06	5.953971e-09	2.337189e+01	3.899612e+02
2.260000e-06	3.208622e-06	5.847019e-09	2.237144e+01	3.827246e+02
2.270000e-06	3.063880e-06	5.732653e-09	2.136226e+01	3.752577e+02
2.280000e-06	2.917972e-06	5.613699e-09	2.034494e+01	3.675638e+02
2.290000e-06	2.770961e-06	5.497354e-09	1.931994e+01	3.596439e+02
2.300000e-06	2.622978e-06	5.375484e-09	1.828816e+01	3.514948e+02
2.310000e-06	2.474232e-06	5.248467e-09	1.725106e+01	3.431074e+02
2.320000e-06	2.324713e-06	5.116886e-09	1.620858e+01	3.344665e+02
2.330000e-06	2.174375e-06	4.980040e-09	1.516037e+01	3.255511e+02
2.340000e-06	2.023265e-06	4.838007e-09	1.410679e+01	3.163355e+02
2.350000e-06	1.871483e-06	4.693722e-09	1.304852e+01	3.067917e+02
2.360000e-06	1.719089e-06	4.545070e-09	1.198598e+01	2.968921e+02
2.370000e-06	1.566185e-06	4.387287e-09	1.091990e+01	2.866121e+02
2.380000e-06	1.412772e-06	4.224544e-09	9.850255e+00	2.759327e+02
2.390000e-06	1.258856e-06	4.058491e-09	8.777105e+00	2.648418e+02
2.400000e-06	1.104478e-06	3.884927e-09	7.700737e+00	2.533350e+02
2.410000e-06	9.496360e-07	3.704020e-09	6.621137e+00	2.414139e+02
2.420000e-06	7.943800e-07	3.518204e-09	5.538648e+00	2.290847e+02
2.430000e-06	6.388538e-07	3.327201e-09	4.454274e+00	2.163536e+02
2.440000e-06	4.831566e-07	3.126812e-09	3.368708e+00	2.032235e+02
2.450000e-06	3.272677e-07	2.916963e-09	2.281805e+00	1.896893e+02
2.460000e-06	1.712002e-07	2.700778e-09	1.193657e+00	1.757343e+02
2.470000e-06	1.503803e-08	2.477085e-09	1.048495e-01	1.613280e+02
2.480000e-06	-1.411199e-07	2.247568e-09	-9.839286e-01	1.464257e+02
2.490000e-06	-2.972467e-07	2.012019e-09	-2.072490e+00	1.309705e+02
2.500000e-06	-4.533041e-07	1.767414e-09	-3.160567e+00	1.148972e+02
2.510000e-06	-6.092623e-07	1.510412e-09	-4.247953e+00	9.813888e+01
2.520000e-06	-7.650102e-07	1.240515e-09	-5.333873e+00	8.063506e+01
2.530000e-06	-9.204237e-07	9.607291e-10	-6.417460e+00	6.234026e+01
2.540000e-06	-1.075544e-06	6.715192e-10	-7.499007e+00	4.323287e+01
2.550000e-06	-1.230257e-06	3.713665e-10	-8.577705e+00	2.332271e+01
2.560000e-06	-1.384392e-06	6.044940e-11	-9.652379e+00	2.656487e+00
2.570000e-06	-1.537960e-06	-2.613291e-10	-1.072310e+01	-1.867962e+01
2.580000e-06	-1.691018e-06	-5.946344e-10	-1.179027e+01	-4.056071e+01
2.590000e-06	-1.843483e-06	-9.382439e-10	-1.285330e+01	-6.282745e+01
2.600000e-06	-1.995260e-06	-1.287343e-09	-1.391153e+01	-8.529355e+01
2.610000e-06	-2.146314e-06	-1.637135e-09	-1.496472e+01	-1.077559e+02
2.620000e-06	-2.296456e-06	-1.980854e-09	-1.601156e+01	-1.300061e+02
2.630000e-06	-2.445644e-06	-2.312920e-09	-1.705174e+01	-1.518432e+02
2.640000e-06	-2.594071e-06	-2.633821e-09	-1.808661e+01	-1.730850e+02
2.650000e-06	-2.741604e-06	-2.942921e-09	-1.911526e+01	-1.935780e+02
2.660000e-06	-2.888073e-06	-3.241159e-09	-2.013648e+01	-2.132046e+02
2.670000e-06	-3.033486e-06	-3.525872e-09	-2.115034e+01	-2.318873e+02
2.680000e-06	-3.177723e-06	-3.794548e-09	-2.215601e+01	-2.495889e+02
2.690000e-06	-3.320690e-06	-4.049044e-09	-2.315281e+01	-2.663095e+02
2.700000e-06	-3.462333e-06	-4.290858e-09	-2.414039e+01	-2.820810e+02
2.710000e-06	-3.602649e-06	-4.521637e-09	-2.511871e+01	-2.969591e+02
2.720000e-06	-3.741628e-06	-4.741077e-09	-2.608772e+01	-3.110144e+02
2.730000e-06	-3.879213e-06	-4.949836e-09	-2.704700e+01	-3.243235e+02
2.740000e-06	-4.015366e-06	-5.147894e-09	-2.799629e+01	-3.369607e+02
2.750000e-06	-4.150027e-06	-5.334323e-09	-2.893519e+01	-3.489919e+02
2.760000e-06	-4.283197e-06	-5.509622e-09	-2.986369e+01	-3.604705e+02
2.770000e-06	-4.414877e-06	-5.674686e-09	-3.078180e+01	-3.714352e+02
2.780000e-06	-4.545044e-06	-5.831114e-09	-3.168937e+01	-3.819106e+02
2.790000e-06	-4.673683e-06	-5.980185e-09	-3.258627e+01	-3.919099e+02
2.800000e-06	-4.800686e-06	-6.123986e-09	-3.347178e+01	-4.014381e+02
2.810000e-06	-4.926015e-06	-6.261685e-09	-3.434561e+01	-4.104967e+02
2.820000e-06	-5.049631e-06	-6.393263e-09	-3.520749e+01	-4.190876e+02
2.830000e-06	-5.171469e-06	-6.518709e-09	-3.605698e+01	-4.272170e+02
2.840000e-06	-5.291412e-06	-6.635802e-09	-3.689326e+01	-4.348973e+02
2.850000e-06	-5.409298e-06	-6.746655e-09	-3.771519e+01	-4.421485e+02
2.860000e-06	-5.525034e-06	-6.853138e-09	-3.852214e+01	-4.489976e+02
2.870000e-06	-5.638493e-06	-6.954301e-09	-3.931321e+01	-4.554770e+02
2.880000e-06	-5.749727e-06	-7.051340e-09	-4.008876e+01	-4.616222e+02
2.890000e-06	-5.858874e-06	-7.143495e-09	-4.084977e+01	-4.674690e+02
2.900000e-06	-5.965971e-06	-7.229806e-09	-4.159648e+01	-4.730505e+02
2.910000e-06	-6.071004e-06	-7.311938e-09	-4.232880e+01	-4.783951e+02
2.920000e-06	-6.173752e-06	-7.388451e-09	-4.304519e+01	-4.835251e+02
2.930000e-06	-6.274111e-06	-7.461781e-09	-4.374492e+01	-4.884558e+02
2.940000e-06	-6.372253e-06	-7.533094e-09	-4.442920e+01	-4.931965e+02
