# Temperatura_=_50.94
# Concentracion g/m^3_=_15000.0
# C_Vs_to_Am_M_A/Vsm_=_65563218390.804596
# pendiente_HvsI_1/m_=_3716.3
# ordenada_HvsI_A/m_=_1297.0
# frecuencia_Hz_=_302360.0685354985

Tiempo_(s)	Campo_(V.s)	Magnetizacion_(V.s)	Campo_(kA/m)	Magnetizacion_(A/m)
0.000000e+00	-8.084803e-06	-9.370315e-09	-5.689249e+01	-6.123833e+02
1.000000e-08	-8.080060e-06	-9.368654e-09	-5.685912e+01	-6.120342e+02
2.000000e-08	-8.072731e-06	-9.360470e-09	-5.680755e+01	-6.115921e+02
3.000000e-08	-8.062558e-06	-9.349971e-09	-5.673596e+01	-6.110705e+02
4.000000e-08	-8.049450e-06	-9.338860e-09	-5.664372e+01	-6.104828e+02
5.000000e-08	-8.033471e-06	-9.325340e-09	-5.653128e+01	-6.098398e+02
6.000000e-08	-8.014901e-06	-9.308271e-09	-5.640060e+01	-6.091495e+02
7.000000e-08	-7.994037e-06	-9.289195e-09	-5.625378e+01	-6.084159e+02
8.000000e-08	-7.970517e-06	-9.297080e-09	-5.608827e+01	-6.076384e+02
9.000000e-08	-7.943859e-06	-9.315120e-09	-5.590068e+01	-6.068129e+02
1.000000e-07	-7.914046e-06	-9.293241e-09	-5.569088e+01	-6.059321e+02
1.100000e-07	-7.881253e-06	-9.255854e-09	-5.546012e+01	-6.049865e+02
1.200000e-07	-7.845615e-06	-9.224487e-09	-5.520934e+01	-6.039657e+02
1.300000e-07	-7.807427e-06	-9.189431e-09	-5.494061e+01	-6.028596e+02
1.400000e-07	-7.766952e-06	-9.147665e-09	-5.465579e+01	-6.016591e+02
1.500000e-07	-7.724122e-06	-9.155456e-09	-5.435439e+01	-6.003566e+02
1.600000e-07	-7.678694e-06	-9.172109e-09	-5.403472e+01	-5.989465e+02
1.700000e-07	-7.630489e-06	-9.103878e-09	-5.369551e+01	-5.974249e+02
1.800000e-07	-7.579389e-06	-9.099690e-09	-5.333591e+01	-5.957892e+02
1.900000e-07	-7.525360e-06	-9.076651e-09	-5.295571e+01	-5.940379e+02
2.000000e-07	-7.468554e-06	-8.995702e-09	-5.255597e+01	-5.921699e+02
2.100000e-07	-7.409086e-06	-8.978510e-09	-5.213750e+01	-5.901843e+02
2.200000e-07	-7.347044e-06	-8.949369e-09	-5.170091e+01	-5.880801e+02
2.300000e-07	-7.282326e-06	-8.917397e-09	-5.124549e+01	-5.858565e+02
2.400000e-07	-7.214722e-06	-8.881306e-09	-5.076976e+01	-5.835131e+02
2.500000e-07	-7.144298e-06	-8.865224e-09	-5.027419e+01	-5.810498e+02
2.600000e-07	-7.071036e-06	-8.839286e-09	-4.975865e+01	-5.784679e+02
2.700000e-07	-6.994919e-06	-8.781931e-09	-4.922301e+01	-5.757695e+02
2.800000e-07	-6.916060e-06	-8.731839e-09	-4.866809e+01	-5.729582e+02
2.900000e-07	-6.834554e-06	-8.685664e-09	-4.809453e+01	-5.700381e+02
3.000000e-07	-6.750623e-06	-8.645484e-09	-4.750392e+01	-5.670140e+02
3.100000e-07	-6.664369e-06	-8.591365e-09	-4.689694e+01	-5.638900e+02
3.200000e-07	-6.575778e-06	-8.542593e-09	-4.627353e+01	-5.606692e+02
3.300000e-07	-6.484805e-06	-8.502361e-09	-4.563336e+01	-5.573525e+02
3.400000e-07	-6.391396e-06	-8.442190e-09	-4.497605e+01	-5.539383e+02
3.500000e-07	-6.295641e-06	-8.380761e-09	-4.430222e+01	-5.504222e+02
3.600000e-07	-6.197583e-06	-8.329192e-09	-4.361219e+01	-5.467971e+02
3.700000e-07	-6.097290e-06	-8.275461e-09	-4.290643e+01	-5.430536e+02
3.800000e-07	-5.994831e-06	-8.209912e-09	-4.218543e+01	-5.391813e+02
3.900000e-07	-5.890325e-06	-8.148178e-09	-4.145003e+01	-5.351696e+02
4.000000e-07	-5.783731e-06	-8.090586e-09	-4.069993e+01	-5.310091e+02
4.100000e-07	-5.675019e-06	-8.020339e-09	-3.993492e+01	-5.266924e+02
4.200000e-07	-5.564320e-06	-7.949851e-09	-3.915594e+01	-5.222151e+02
4.300000e-07	-5.451607e-06	-7.883843e-09	-3.836278e+01	-5.175758e+02
4.400000e-07	-5.336746e-06	-7.815866e-09	-3.755451e+01	-5.127759e+02
4.500000e-07	-5.219766e-06	-7.740278e-09	-3.673133e+01	-5.078187e+02
4.600000e-07	-5.100855e-06	-7.659226e-09	-3.589455e+01	-5.027084e+02
4.700000e-07	-4.980137e-06	-7.578403e-09	-3.504506e+01	-4.974484e+02
4.800000e-07	-4.857617e-06	-7.491659e-09	-3.418289e+01	-4.920399e+02
4.900000e-07	-4.733332e-06	-7.401648e-09	-3.330830e+01	-4.864813e+02
5.000000e-07	-4.607392e-06	-7.312211e-09	-3.242206e+01	-4.807665e+02
5.100000e-07	-4.479809e-06	-7.222130e-09	-3.152427e+01	-4.748860e+02
5.200000e-07	-4.350567e-06	-7.132063e-09	-3.061480e+01	-4.688268e+02
5.300000e-07	-4.219675e-06	-7.039786e-09	-2.969371e+01	-4.625736e+02
5.400000e-07	-4.087198e-06	-6.942619e-09	-2.876148e+01	-4.561109e+02
5.500000e-07	-3.953193e-06	-6.838670e-09	-2.781849e+01	-4.494244e+02
5.600000e-07	-3.817716e-06	-6.728941e-09	-2.686515e+01	-4.425028e+02
5.700000e-07	-3.680788e-06	-6.614517e-09	-2.590158e+01	-4.353391e+02
5.800000e-07	-3.542327e-06	-6.497368e-09	-2.492724e+01	-4.279307e+02
5.900000e-07	-3.402354e-06	-6.378203e-09	-2.394226e+01	-4.202795e+02
6.000000e-07	-3.261021e-06	-6.257798e-09	-2.294770e+01	-4.123905e+02
6.100000e-07	-3.118439e-06	-6.133423e-09	-2.194435e+01	-4.042701e+02
6.200000e-07	-2.974592e-06	-6.006854e-09	-2.093211e+01	-3.959235e+02
6.300000e-07	-2.829555e-06	-5.880864e-09	-1.991148e+01	-3.873528e+02
6.400000e-07	-2.683528e-06	-5.750614e-09	-1.888390e+01	-3.785541e+02
6.500000e-07	-2.536640e-06	-5.613593e-09	-1.785025e+01	-3.695170e+02
6.600000e-07	-2.388928e-06	-5.470421e-09	-1.681081e+01	-3.602234e+02
6.700000e-07	-2.240375e-06	-5.319576e-09	-1.576545e+01	-3.506487e+02
6.800000e-07	-2.091084e-06	-5.160718e-09	-1.471489e+01	-3.407631e+02
6.900000e-07	-1.941196e-06	-4.999252e-09	-1.366013e+01	-3.305347e+02
7.000000e-07	-1.790704e-06	-4.835056e-09	-1.260112e+01	-3.199324e+02
7.100000e-07	-1.639588e-06	-4.665804e-09	-1.153772e+01	-3.089292e+02
7.200000e-07	-1.487866e-06	-4.491423e-09	-1.047007e+01	-2.975044e+02
7.300000e-07	-1.335616e-06	-4.315240e-09	-9.398688e+00	-2.856457e+02
7.400000e-07	-1.182940e-06	-4.135152e-09	-8.324313e+00	-2.733491e+02
7.500000e-07	-1.029879e-06	-3.945077e-09	-7.247226e+00	-2.606173e+02
7.600000e-07	-8.764533e-07	-3.746481e-09	-6.167573e+00	-2.474568e+02
7.700000e-07	-7.227562e-07	-3.539244e-09	-5.086012e+00	-2.338738e+02
7.800000e-07	-5.688735e-07	-3.324226e-09	-4.003144e+00	-2.198688e+02
7.900000e-07	-4.147167e-07	-3.103253e-09	-2.918348e+00	-2.054323e+02
8.000000e-07	-2.603259e-07	-2.876406e-09	-1.831905e+00	-1.905405e+02
8.100000e-07	-1.059066e-07	-2.640934e-09	-7.452616e-01	-1.751527e+02
8.200000e-07	4.854993e-08	-2.394600e-09	3.416442e-01	-1.592114e+02
8.300000e-07	2.030815e-07	-2.141448e-09	1.429078e+00	-1.426447e+02
8.400000e-07	3.575727e-07	-1.880538e-09	2.516227e+00	-1.253718e+02
8.500000e-07	5.119715e-07	-1.608337e-09	3.602727e+00	-1.073103e+02
8.600000e-07	6.661995e-07	-1.321198e-09	4.688024e+00	-8.838605e+01
8.700000e-07	8.201965e-07	-1.019238e-09	5.771696e+00	-6.854332e+01
8.800000e-07	9.739588e-07	-7.042988e-10	6.853717e+00	-4.775509e+01
8.900000e-07	1.127457e-06	-3.760857e-10	7.933880e+00	-2.603177e+01
9.000000e-07	1.280614e-06	-3.594801e-11	9.011639e+00	-3.427377e+00
9.100000e-07	1.433308e-06	3.164938e-10	1.008614e+01	1.995759e+01
9.200000e-07	1.585468e-06	6.821141e-10	1.115688e+01	4.397725e+01
9.300000e-07	1.737030e-06	1.058020e-09	1.222343e+01	6.844556e+01
9.400000e-07	1.887845e-06	1.437765e-09	1.328470e+01	9.314515e+01
9.500000e-07	2.037965e-06	1.818387e-09	1.434109e+01	1.178393e+02
9.600000e-07	2.187501e-06	2.195242e-09	1.539337e+01	1.422856e+02
9.700000e-07	2.336232e-06	2.563574e-09	1.643999e+01	1.662505e+02
9.800000e-07	2.484030e-06	2.917806e-09	1.748004e+01	1.895232e+02
9.900000e-07	2.630875e-06	3.254297e-09	1.851338e+01	2.119266e+02
1.000000e-06	2.776728e-06	3.573632e-09	1.953974e+01	2.333264e+02
1.010000e-06	2.921527e-06	3.876592e-09	2.055869e+01	2.536353e+02
1.020000e-06	3.065191e-06	4.162008e-09	2.156965e+01	2.728141e+02
1.030000e-06	3.207760e-06	4.430848e-09	2.257290e+01	2.908676e+02
1.040000e-06	3.349126e-06	4.688058e-09	2.356769e+01	3.078384e+02
1.050000e-06	3.489177e-06	4.932636e-09	2.455322e+01	3.237975e+02
1.060000e-06	3.627820e-06	5.164676e-09	2.552885e+01	3.388338e+02
1.070000e-06	3.765029e-06	5.385539e-09	2.649439e+01	3.530435e+02
1.080000e-06	3.900819e-06	5.595006e-09	2.744993e+01	3.665202e+02
1.090000e-06	4.035155e-06	5.792682e-09	2.839526e+01	3.793476e+02
1.100000e-06	4.168115e-06	5.977035e-09	2.933089e+01	3.915938e+02
1.110000e-06	4.299615e-06	6.151317e-09	3.025625e+01	4.033088e+02
1.120000e-06	4.429544e-06	6.317484e-09	3.117056e+01	4.145251e+02
1.130000e-06	4.557906e-06	6.477104e-09	3.207384e+01	4.252601e+02
1.140000e-06	4.684696e-06	6.631966e-09	3.296605e+01	4.355200e+02
1.150000e-06	4.809919e-06	6.781551e-09	3.384724e+01	4.453046e+02
1.160000e-06	4.933514e-06	6.925004e-09	3.471698e+01	4.546130e+02
1.170000e-06	5.055344e-06	7.059622e-09	3.557429e+01	4.634473e+02
1.180000e-06	5.175359e-06	7.186830e-09	3.641883e+01	4.718159e+02
1.190000e-06	5.293527e-06	7.307667e-09	3.725038e+01	4.797351e+02
1.200000e-06	5.409683e-06	7.421755e-09	3.806776e+01	4.872289e+02
1.210000e-06	5.523703e-06	7.529034e-09	3.887012e+01	4.943280e+02
1.220000e-06	5.635549e-06	7.630996e-09	3.965718e+01	5.010670e+02
1.230000e-06	5.745347e-06	7.728756e-09	4.042982e+01	5.074819e+02
1.240000e-06	5.853250e-06	7.820664e-09	4.118913e+01	5.136065e+02
1.250000e-06	5.959004e-06	7.908416e-09	4.193332e+01	5.194706e+02
1.260000e-06	6.062460e-06	7.993584e-09	4.266133e+01	5.250980e+02
1.270000e-06	6.163709e-06	8.074041e-09	4.337382e+01	5.305059e+02
1.280000e-06	6.262699e-06	8.151046e-09	4.407041e+01	5.357051e+02
1.290000e-06	6.359352e-06	8.226852e-09	4.475056e+01	5.407015e+02
1.300000e-06	6.453686e-06	8.300446e-09	4.541438e+01	5.454976e+02
1.310000e-06	6.545726e-06	8.370111e-09	4.606206e+01	5.500944e+02
1.320000e-06	6.635443e-06	8.435156e-09	4.669340e+01	5.544934e+02
1.330000e-06	6.722741e-06	8.497145e-09	4.730771e+01	5.586979e+02
1.340000e-06	6.807666e-06	8.556371e-09	4.790532e+01	5.627136e+02
1.350000e-06	6.890235e-06	8.612984e-09	4.848636e+01	5.665486e+02
1.360000e-06	6.970271e-06	8.668800e-09	4.904957e+01	5.702126e+02
1.370000e-06	7.047748e-06	8.723900e-09	4.959477e+01	5.737157e+02
1.380000e-06	7.122575e-06	8.777052e-09	5.012133e+01	5.770672e+02
1.390000e-06	7.194687e-06	8.826832e-09	5.062878e+01	5.802736e+02
1.400000e-06	7.264274e-06	8.873002e-09	5.111846e+01	5.833383e+02
1.410000e-06	7.331350e-06	8.916500e-09	5.159047e+01	5.862609e+02
1.420000e-06	7.395770e-06	8.956118e-09	5.204380e+01	5.890369e+02
1.430000e-06	7.457636e-06	8.993563e-09	5.247914e+01	5.916594e+02
1.440000e-06	7.517025e-06	9.029768e-09	5.289706e+01	5.941198e+02
1.450000e-06	7.573775e-06	9.062896e-09	5.329641e+01	5.964101e+02
1.460000e-06	7.627738e-06	9.093307e-09	5.367614e+01	5.985240e+02
1.470000e-06	7.678668e-06	9.121227e-09	5.403453e+01	6.004589e+02
1.480000e-06	7.726490e-06	9.148456e-09	5.437106e+01	6.022165e+02
1.490000e-06	7.771536e-06	9.174126e-09	5.468804e+01	6.038033e+02
1.500000e-06	7.813844e-06	9.197172e-09	5.498577e+01	6.052303e+02
1.510000e-06	7.853251e-06	9.216876e-09	5.526307e+01	6.065115e+02
1.520000e-06	7.889926e-06	9.232573e-09	5.552115e+01	6.076628e+02
1.530000e-06	7.923903e-06	9.247888e-09	5.576025e+01	6.086997e+02
1.540000e-06	7.955017e-06	9.262598e-09	5.597920e+01	6.096359e+02
1.550000e-06	7.983351e-06	9.275977e-09	5.617858e+01	6.104816e+02
1.560000e-06	8.008766e-06	9.288741e-09	5.635742e+01	6.112423e+02
1.570000e-06	8.031173e-06	9.299374e-09	5.651510e+01	6.119188e+02
1.580000e-06	8.050823e-06	9.307710e-09	5.665338e+01	6.125076e+02
1.590000e-06	8.067631e-06	9.315329e-09	5.677166e+01	6.130018e+02
1.600000e-06	8.081407e-06	9.322846e-09	5.686860e+01	6.133927e+02
1.610000e-06	8.092049e-06	9.328370e-09	5.694349e+01	6.136715e+02
1.620000e-06	8.099604e-06	9.331872e-09	5.699665e+01	6.138313e+02
1.630000e-06	8.104243e-06	9.333434e-09	5.702929e+01	6.138683e+02
1.640000e-06	8.105978e-06	9.333635e-09	5.704150e+01	6.137825e+02
1.650000e-06	8.104879e-06	9.331476e-09	5.703377e+01	6.135787e+02
1.660000e-06	8.101142e-06	9.326313e-09	5.700748e+01	6.132655e+02
1.670000e-06	8.094681e-06	9.322579e-09	5.696200e+01	6.128546e+02
1.680000e-06	8.085462e-06	9.318230e-09	5.689713e+01	6.123594e+02
1.690000e-06	8.073440e-06	9.312353e-09	5.681254e+01	6.117934e+02
1.700000e-06	8.058545e-06	9.307502e-09	5.670772e+01	6.111686e+02
1.710000e-06	8.041130e-06	9.303626e-09	5.658517e+01	6.104941e+02
1.720000e-06	8.021446e-06	9.296272e-09	5.644665e+01	6.097753e+02
1.730000e-06	7.999134e-06	9.252058e-09	5.628964e+01	6.090133e+02
1.740000e-06	7.973506e-06	9.212658e-09	5.610930e+01	6.082053e+02
1.750000e-06	7.944102e-06	9.214483e-09	5.590239e+01	6.073448e+02
1.760000e-06	7.911309e-06	9.211367e-09	5.567163e+01	6.064230e+02
1.770000e-06	7.876085e-06	9.206395e-09	5.542375e+01	6.054298e+02
1.780000e-06	7.838615e-06	9.231965e-09	5.516008e+01	6.043549e+02
1.790000e-06	7.798912e-06	9.220788e-09	5.488069e+01	6.031886e+02
1.800000e-06	7.757238e-06	9.146045e-09	5.458743e+01	6.019228e+02
1.810000e-06	7.713082e-06	9.158414e-09	5.427671e+01	6.005512e+02
1.820000e-06	7.666054e-06	9.142231e-09	5.394577e+01	5.990693e+02
1.830000e-06	7.616238e-06	9.104178e-09	5.359522e+01	5.974741e+02
1.840000e-06	7.563321e-06	9.120299e-09	5.322285e+01	5.957638e+02
1.850000e-06	7.507466e-06	9.071766e-09	5.282980e+01	5.939372e+02
1.860000e-06	7.448980e-06	9.052774e-09	5.241823e+01	5.919932e+02
1.870000e-06	7.387805e-06	9.015191e-09	5.198774e+01	5.899310e+02
1.880000e-06	7.323839e-06	8.980283e-09	5.153762e+01	5.877497e+02
1.890000e-06	7.257005e-06	8.951159e-09	5.106731e+01	5.854486e+02
1.900000e-06	7.187460e-06	8.859941e-09	5.057792e+01	5.830276e+02
1.910000e-06	7.115036e-06	8.842733e-09	5.006827e+01	5.804874e+02
1.920000e-06	7.039827e-06	8.816446e-09	4.953904e+01	5.778298e+02
1.930000e-06	6.961963e-06	8.776461e-09	4.899111e+01	5.750579e+02
1.940000e-06	6.881382e-06	8.749443e-09	4.842406e+01	5.721758e+02
1.950000e-06	6.798315e-06	8.691642e-09	4.783952e+01	5.691878e+02
1.960000e-06	6.712694e-06	8.648024e-09	4.723701e+01	5.660987e+02
1.970000e-06	6.624450e-06	8.577396e-09	4.661604e+01	5.629117e+02
1.980000e-06	6.533756e-06	8.538925e-09	4.597783e+01	5.596289e+02
1.990000e-06	6.440858e-06	8.502673e-09	4.532411e+01	5.562494e+02
2.000000e-06	6.345747e-06	8.441945e-09	4.465481e+01	5.527699e+02
2.010000e-06	6.248328e-06	8.386026e-09	4.396928e+01	5.491842e+02
2.020000e-06	6.148696e-06	8.327291e-09	4.326818e+01	5.454837e+02
2.030000e-06	6.046866e-06	8.272712e-09	4.255160e+01	5.416582e+02
2.040000e-06	5.942829e-06	8.204495e-09	4.181950e+01	5.376970e+02
2.050000e-06	5.836667e-06	8.148582e-09	4.107244e+01	5.335902e+02
2.060000e-06	5.728585e-06	8.084582e-09	4.031187e+01	5.293295e+02
2.070000e-06	5.618552e-06	8.012327e-09	3.953756e+01	5.249095e+02
2.080000e-06	5.506411e-06	7.940308e-09	3.874843e+01	5.203275e+02
2.090000e-06	5.392170e-06	7.871769e-09	3.794453e+01	5.155842e+02
2.100000e-06	5.275963e-06	7.797552e-09	3.712678e+01	5.106823e+02
2.110000e-06	5.157751e-06	7.716995e-09	3.629493e+01	5.056257e+02
2.120000e-06	5.037472e-06	7.643669e-09	3.544852e+01	5.004184e+02
2.130000e-06	4.915348e-06	7.567227e-09	3.458914e+01	4.950626e+02
2.140000e-06	4.791460e-06	7.488178e-09	3.371735e+01	4.895576e+02
2.150000e-06	4.665901e-06	7.400550e-09	3.283380e+01	4.838991e+02
2.160000e-06	4.538649e-06	7.307458e-09	3.193833e+01	4.780787e+02
2.170000e-06	4.409668e-06	7.208056e-09	3.103069e+01	4.720844e+02
2.180000e-06	4.279104e-06	7.113924e-09	3.011191e+01	4.659018e+02
2.190000e-06	4.147025e-06	7.021026e-09	2.918248e+01	4.595153e+02
2.200000e-06	4.013504e-06	6.924674e-09	2.824290e+01	4.529097e+02
2.210000e-06	3.878420e-06	6.822602e-09	2.729232e+01	4.460727e+02
2.220000e-06	3.741620e-06	6.717226e-09	2.632966e+01	4.389956e+02
2.230000e-06	3.603376e-06	6.608613e-09	2.535684e+01	4.316741e+02
2.240000e-06	3.463889e-06	6.494236e-09	2.437527e+01	4.241087e+02
2.250000e-06	3.323096e-06	6.379181e-09	2.338452e+01	4.163035e+02
2.260000e-06	3.181029e-06	6.259437e-09	2.238480e+01	4.082645e+02
2.270000e-06	3.037621e-06	6.131727e-09	2.137564e+01	3.999979e+02
2.280000e-06	2.892948e-06	5.997574e-09	2.035758e+01	3.915068e+02
2.290000e-06	2.747235e-06	5.865569e-09	1.933220e+01	3.827900e+02
2.300000e-06	2.600683e-06	5.730846e-09	1.830092e+01	3.738393e+02
2.310000e-06	2.453313e-06	5.590052e-09	1.726388e+01	3.646393e+02
2.320000e-06	2.305079e-06	5.445647e-09	1.622077e+01	3.551677e+02
2.330000e-06	2.156110e-06	5.298575e-09	1.517248e+01	3.453963e+02
2.340000e-06	2.006482e-06	5.146481e-09	1.411955e+01	3.352936e+02
2.350000e-06	1.856233e-06	4.988897e-09	1.306225e+01	3.248278e+02
2.360000e-06	1.705357e-06	4.824465e-09	1.200054e+01	3.139700e+02
2.370000e-06	1.553883e-06	4.650152e-09	1.093462e+01	3.026972e+02
2.380000e-06	1.401802e-06	4.469801e-09	9.864437e+00	2.909939e+02
2.390000e-06	1.249149e-06	4.287510e-09	8.790222e+00	2.788533e+02
2.400000e-06	1.096024e-06	4.099536e-09	7.712683e+00	2.662758e+02
2.410000e-06	9.424646e-07	3.901785e-09	6.632093e+00	2.532671e+02
2.420000e-06	7.886018e-07	3.696321e-09	5.549365e+00	2.398341e+02
2.430000e-06	6.345513e-07	3.486231e-09	4.465317e+00	2.259798e+02
2.440000e-06	4.803121e-07	3.267948e-09	3.379940e+00	2.116989e+02
2.450000e-06	3.259254e-07	3.041254e-09	2.293527e+00	1.969731e+02
2.460000e-06	1.714314e-07	2.808544e-09	1.206357e+00	1.817677e+02
2.470000e-06	1.685557e-08	2.565145e-09	1.186121e-01	1.660312e+02
2.480000e-06	-1.377554e-07	2.310071e-09	-9.693805e-01	1.496964e+02
2.490000e-06	-2.923800e-07	2.046590e-09	-2.057468e+00	1.326848e+02
2.500000e-06	-4.469633e-07	1.774663e-09	-3.145266e+00	1.149136e+02
2.510000e-06	-6.014122e-07	1.490963e-09	-4.232118e+00	9.630464e+01
2.520000e-06	-7.557130e-07	1.194186e-09	-5.317928e+00	7.679427e+01
2.530000e-06	-9.098056e-07	8.843269e-10	-6.402272e+00	5.634418e+01
2.540000e-06	-1.063587e-06	5.620751e-10	-7.484430e+00	3.495053e+01
2.550000e-06	-1.216986e-06	2.262530e-10	-8.563892e+00	1.265125e+01
2.560000e-06	-1.369895e-06	-1.249690e-10	-9.639903e+00	-1.046985e+01
2.570000e-06	-1.522231e-06	-4.894643e-10	-1.071189e+01	-3.428271e+01
2.580000e-06	-1.673915e-06	-8.632862e-10	-1.177929e+01	-5.861479e+01
2.590000e-06	-1.824904e-06	-1.242851e-09	-1.284179e+01	-8.325869e+01
2.600000e-06	-1.975211e-06	-1.624753e-09	-1.389949e+01	-1.079830e+02
2.610000e-06	-2.124856e-06	-2.005677e-09	-1.495254e+01	-1.325459e+02
2.620000e-06	-2.273663e-06	-2.380205e-09	-1.599969e+01	-1.567089e+02
2.630000e-06	-2.421541e-06	-2.743702e-09	-1.704030e+01	-1.802515e+02
2.640000e-06	-2.568583e-06	-3.091569e-09	-1.807503e+01	-2.029836e+02
2.650000e-06	-2.714726e-06	-3.420163e-09	-1.910344e+01	-2.247548e+02
2.660000e-06	-2.859908e-06	-3.730275e-09	-2.012508e+01	-2.454607e+02
2.670000e-06	-3.004014e-06	-4.026176e-09	-2.113915e+01	-2.650452e+02
2.680000e-06	-3.146855e-06	-4.307670e-09	-2.214432e+01	-2.834979e+02
2.690000e-06	-3.288411e-06	-4.573061e-09	-2.314044e+01	-3.008489e+02
2.700000e-06	-3.428669e-06	-4.822669e-09	-2.412743e+01	-3.171603e+02
2.710000e-06	-3.567637e-06	-5.060360e-09	-2.510534e+01	-3.325158e+02
2.720000e-06	-3.705305e-06	-5.289143e-09	-2.607411e+01	-3.470100e+02
2.730000e-06	-3.841575e-06	-5.506395e-09	-2.703304e+01	-3.607388e+02
2.740000e-06	-3.976385e-06	-5.711113e-09	-2.798169e+01	-3.737898e+02
2.750000e-06	-4.109728e-06	-5.903637e-09	-2.892002e+01	-3.862373e+02
2.760000e-06	-4.241675e-06	-6.085473e-09	-2.984853e+01	-3.981378e+02
2.770000e-06	-4.372210e-06	-6.256527e-09	-3.076710e+01	-4.095300e+02
2.780000e-06	-4.501291e-06	-6.420093e-09	-3.167544e+01	-4.204362e+02
2.790000e-06	-4.628787e-06	-6.576231e-09	-3.257262e+01	-4.308660e+02
2.800000e-06	-4.754661e-06	-6.725360e-09	-3.345840e+01	-4.408210e+02
2.810000e-06	-4.878961e-06	-6.868063e-09	-3.433309e+01	-4.502999e+02
2.820000e-06	-5.001529e-06	-7.005413e-09	-3.519560e+01	-4.593034e+02
2.830000e-06	-5.122219e-06	-7.138582e-09	-3.604489e+01	-4.678373e+02
2.840000e-06	-5.240963e-06	-7.264144e-09	-3.688049e+01	-4.759151e+02
2.850000e-06	-5.357710e-06	-7.382496e-09	-3.770203e+01	-4.835580e+02
2.860000e-06	-5.472279e-06	-7.496039e-09	-3.850825e+01	-4.907947e+02
2.870000e-06	-5.584549e-06	-7.602632e-09	-3.929829e+01	-4.976587e+02
2.880000e-06	-5.694713e-06	-7.703175e-09	-4.007351e+01	-5.041857e+02
2.890000e-06	-5.802938e-06	-7.800620e-09	-4.083508e+01	-5.104107e+02
2.900000e-06	-5.909178e-06	-7.893161e-09	-4.158269e+01	-5.163653e+02
2.910000e-06	-6.013231e-06	-7.980642e-09	-4.231491e+01	-5.220753e+02
2.920000e-06	-6.114958e-06	-8.063368e-09	-4.303076e+01	-5.275605e+02
2.930000e-06	-6.214450e-06	-8.144072e-09	-4.373088e+01	-5.328338e+02
2.940000e-06	-6.311809e-06	-8.222206e-09	-4.441600e+01	-5.379027e+02
