# Temperatura_=_45.77
# Concentracion g/m^3_=_15000.0
# C_Vs_to_Am_M_A/Vsm_=_65563218390.804596
# pendiente_HvsI_1/m_=_3716.3
# ordenada_HvsI_A/m_=_1297.0
# frecuencia_Hz_=_302363.1890762036

Tiempo_(s)	Campo_(V.s)	Magnetizacion_(V.s)	Campo_(kA/m)	Magnetizacion_(A/m)
0.000000e+00	-8.142111e-06	-9.027331e-09	-5.689479e+01	-5.901047e+02
1.000000e-08	-8.137410e-06	-9.024589e-09	-5.686194e+01	-5.898511e+02
2.000000e-08	-8.130122e-06	-9.017690e-09	-5.681101e+01	-5.895120e+02
3.000000e-08	-8.120044e-06	-9.008148e-09	-5.674060e+01	-5.890966e+02
4.000000e-08	-8.106975e-06	-8.999204e-09	-5.664927e+01	-5.886135e+02
5.000000e-08	-8.090942e-06	-8.991463e-09	-5.653723e+01	-5.880696e+02
6.000000e-08	-8.072319e-06	-8.981507e-09	-5.640711e+01	-5.874696e+02
7.000000e-08	-8.051408e-06	-8.968925e-09	-5.626098e+01	-5.868155e+02
8.000000e-08	-8.027782e-06	-8.978503e-09	-5.609590e+01	-5.861069e+02
9.000000e-08	-8.000963e-06	-8.987433e-09	-5.590849e+01	-5.853412e+02
1.000000e-07	-7.971006e-06	-8.963125e-09	-5.569916e+01	-5.845146e+02
1.100000e-07	-7.938096e-06	-8.931327e-09	-5.546919e+01	-5.836223e+02
1.200000e-07	-7.902360e-06	-8.907456e-09	-5.521948e+01	-5.826598e+02
1.300000e-07	-7.864088e-06	-8.882130e-09	-5.495205e+01	-5.816229e+02
1.400000e-07	-7.823431e-06	-8.841153e-09	-5.466795e+01	-5.805080e+02
1.500000e-07	-7.780374e-06	-8.831270e-09	-5.436707e+01	-5.793121e+02
1.600000e-07	-7.734683e-06	-8.843657e-09	-5.404780e+01	-5.780324e+02
1.700000e-07	-7.686163e-06	-8.775073e-09	-5.370875e+01	-5.766657e+02
1.800000e-07	-7.634749e-06	-8.772311e-09	-5.334949e+01	-5.752083e+02
1.900000e-07	-7.580366e-06	-8.772795e-09	-5.296948e+01	-5.736554e+02
2.000000e-07	-7.523184e-06	-8.705412e-09	-5.256990e+01	-5.720009e+02
2.100000e-07	-7.463368e-06	-8.691359e-09	-5.215193e+01	-5.702379e+02
2.200000e-07	-7.400886e-06	-8.669351e-09	-5.171532e+01	-5.683590e+02
2.300000e-07	-7.335689e-06	-8.641012e-09	-5.125974e+01	-5.663573e+02
2.400000e-07	-7.267695e-06	-8.593279e-09	-5.078462e+01	-5.642270e+02
2.500000e-07	-7.196879e-06	-8.571177e-09	-5.028977e+01	-5.619645e+02
2.600000e-07	-7.123211e-06	-8.540958e-09	-4.977501e+01	-5.595689e+02
2.700000e-07	-7.046670e-06	-8.478288e-09	-4.924016e+01	-5.570426e+02
2.800000e-07	-6.967290e-06	-8.428422e-09	-4.868547e+01	-5.543906e+02
2.900000e-07	-6.885248e-06	-8.393480e-09	-4.811218e+01	-5.516207e+02
3.000000e-07	-6.800915e-06	-8.363446e-09	-4.752289e+01	-5.487415e+02
3.100000e-07	-6.714182e-06	-8.313169e-09	-4.691682e+01	-5.457621e+02
3.200000e-07	-6.624932e-06	-8.273544e-09	-4.629317e+01	-5.426899e+02
3.300000e-07	-6.533379e-06	-8.238726e-09	-4.565342e+01	-5.395298e+02
3.400000e-07	-6.439495e-06	-8.181031e-09	-4.499739e+01	-5.362830e+02
3.500000e-07	-6.343258e-06	-8.120242e-09	-4.432491e+01	-5.329465e+02
3.600000e-07	-6.244712e-06	-8.071339e-09	-4.363630e+01	-5.295136e+02
3.700000e-07	-6.143922e-06	-8.017851e-09	-4.293200e+01	-5.259743e+02
3.800000e-07	-6.040833e-06	-7.951596e-09	-4.221165e+01	-5.223166e+02
3.900000e-07	-5.935563e-06	-7.897410e-09	-4.147605e+01	-5.185279e+02
4.000000e-07	-5.828269e-06	-7.848887e-09	-4.072631e+01	-5.145970e+02
4.100000e-07	-5.718927e-06	-7.780905e-09	-3.996226e+01	-5.105151e+02
4.200000e-07	-5.607473e-06	-7.705681e-09	-3.918345e+01	-5.062770e+02
4.300000e-07	-5.493880e-06	-7.639358e-09	-3.838970e+01	-5.018812e+02
4.400000e-07	-5.378217e-06	-7.574199e-09	-3.758148e+01	-4.973301e+02
4.500000e-07	-5.260493e-06	-7.501747e-09	-3.675885e+01	-4.926284e+02
4.600000e-07	-5.140809e-06	-7.429309e-09	-3.592254e+01	-4.877819e+02
4.700000e-07	-5.019338e-06	-7.360227e-09	-3.507373e+01	-4.827958e+02
4.800000e-07	-4.896055e-06	-7.280862e-09	-3.421226e+01	-4.776729e+02
4.900000e-07	-4.771003e-06	-7.194038e-09	-3.333843e+01	-4.724120e+02
5.000000e-07	-4.644236e-06	-7.108510e-09	-3.245262e+01	-4.670072e+02
5.100000e-07	-4.515795e-06	-7.022236e-09	-3.155511e+01	-4.614476e+02
5.200000e-07	-4.385690e-06	-6.933888e-09	-3.064597e+01	-4.557183e+02
5.300000e-07	-4.253897e-06	-6.844231e-09	-2.972504e+01	-4.498017e+02
5.400000e-07	-4.120584e-06	-6.751488e-09	-2.879349e+01	-4.436793e+02
5.500000e-07	-3.985715e-06	-6.652285e-09	-2.785106e+01	-4.373342e+02
5.600000e-07	-3.849279e-06	-6.549712e-09	-2.689768e+01	-4.307527e+02
5.700000e-07	-3.711352e-06	-6.444443e-09	-2.593389e+01	-4.239264e+02
5.800000e-07	-3.571850e-06	-6.337997e-09	-2.495909e+01	-4.168522e+02
5.900000e-07	-3.430844e-06	-6.229431e-09	-2.397378e+01	-4.095328e+02
6.000000e-07	-3.288489e-06	-6.116906e-09	-2.297904e+01	-4.019749e+02
6.100000e-07	-3.144871e-06	-5.996955e-09	-2.197548e+01	-3.941874e+02
6.200000e-07	-3.000101e-06	-5.871506e-09	-2.096387e+01	-3.861788e+02
6.300000e-07	-2.854208e-06	-5.745006e-09	-1.994441e+01	-3.779541e+02
6.400000e-07	-2.707256e-06	-5.615166e-09	-1.891755e+01	-3.695128e+02
6.500000e-07	-2.559409e-06	-5.480979e-09	-1.788444e+01	-3.608465e+02
6.600000e-07	-2.410748e-06	-5.343570e-09	-1.684563e+01	-3.519386e+02
6.700000e-07	-2.261312e-06	-5.203051e-09	-1.580142e+01	-3.427648e+02
6.800000e-07	-2.111101e-06	-5.056882e-09	-1.475178e+01	-3.332946e+02
6.900000e-07	-1.960066e-06	-4.906572e-09	-1.369640e+01	-3.234946e+02
7.000000e-07	-1.808355e-06	-4.750701e-09	-1.263628e+01	-3.133311e+02
7.100000e-07	-1.656135e-06	-4.587860e-09	-1.157261e+01	-3.027743e+02
7.200000e-07	-1.503386e-06	-4.418307e-09	-1.050524e+01	-2.918009e+02
7.300000e-07	-1.350101e-06	-4.245392e-09	-9.434130e+00	-2.803963e+02
7.400000e-07	-1.196326e-06	-4.067431e-09	-8.359593e+00	-2.685547e+02
7.500000e-07	-1.042120e-06	-3.880234e-09	-7.282042e+00	-2.562781e+02
7.600000e-07	-8.875242e-07	-3.686519e-09	-6.201770e+00	-2.435733e+02
7.700000e-07	-7.326082e-07	-3.486793e-09	-5.119261e+00	-2.304477e+02
7.800000e-07	-5.775169e-07	-3.281560e-09	-4.035526e+00	-2.169042e+02
7.900000e-07	-4.222394e-07	-3.069779e-09	-2.950491e+00	-2.029359e+02
8.000000e-07	-2.667007e-07	-2.852153e-09	-1.863630e+00	-1.885222e+02
8.100000e-07	-1.110125e-07	-2.625707e-09	-7.757240e-01	-1.736255e+02
8.200000e-07	4.467263e-08	-2.386494e-09	3.121598e-01	-1.581916e+02
8.300000e-07	2.003408e-07	-2.138881e-09	1.399925e+00	-1.421509e+02
8.400000e-07	3.559802e-07	-1.883859e-09	2.487490e+00	-1.254244e+02
8.500000e-07	5.115586e-07	-1.618590e-09	3.574628e+00	-1.079307e+02
8.600000e-07	6.669877e-07	-1.338881e-09	4.660723e+00	-8.959582e+01
8.700000e-07	8.221511e-07	-1.046776e-09	5.744961e+00	-7.036325e+01
8.800000e-07	9.770006e-07	-7.434943e-10	6.827006e+00	-5.020443e+01
8.900000e-07	1.131524e-06	-4.265284e-10	7.906770e+00	-2.912743e+01
9.000000e-07	1.285721e-06	-9.589379e-11	8.984262e+00	-7.183313e+00
9.100000e-07	1.439510e-06	2.484057e-10	1.005889e+01	1.553096e+01
9.200000e-07	1.592804e-06	6.043703e-10	1.113007e+01	3.887353e+01
9.300000e-07	1.745504e-06	9.696770e-10	1.219710e+01	6.266270e+01
9.400000e-07	1.897586e-06	1.337937e-09	1.325980e+01	8.668581e+01
9.500000e-07	2.048990e-06	1.705342e-09	1.431777e+01	1.107109e+02
9.600000e-07	2.199567e-06	2.070611e-09	1.536996e+01	1.345006e+02
9.700000e-07	2.349306e-06	2.428702e-09	1.641629e+01	1.578262e+02
9.800000e-07	2.498147e-06	2.773829e-09	1.745635e+01	1.804810e+02
9.900000e-07	2.645952e-06	3.102797e-09	1.848917e+01	2.022923e+02
1.000000e-06	2.792721e-06	3.415383e-09	1.951475e+01	2.231290e+02
1.010000e-06	2.938560e-06	3.712111e-09	2.053383e+01	2.429061e+02
1.020000e-06	3.083388e-06	3.991717e-09	2.154585e+01	2.615859e+02
1.030000e-06	3.227001e-06	4.255344e-09	2.254938e+01	2.791734e+02
1.040000e-06	3.369342e-06	4.505515e-09	2.354402e+01	2.957104e+02
1.050000e-06	3.510426e-06	4.742729e-09	2.452987e+01	3.112658e+02
1.060000e-06	3.650142e-06	4.965670e-09	2.550617e+01	3.259257e+02
1.070000e-06	3.788395e-06	5.177192e-09	2.647225e+01	3.397827e+02
1.080000e-06	3.925236e-06	5.379732e-09	2.742845e+01	3.529264e+02
1.090000e-06	4.060598e-06	5.570858e-09	2.837432e+01	3.654365e+02
1.100000e-06	4.194507e-06	5.752635e-09	2.931004e+01	3.773769e+02
1.110000e-06	4.326961e-06	5.926327e-09	3.023559e+01	3.887946e+02
1.120000e-06	4.457835e-06	6.093081e-09	3.115010e+01	3.997192e+02
1.130000e-06	4.587174e-06	6.250667e-09	3.205389e+01	4.101660e+02
1.140000e-06	4.714893e-06	6.400206e-09	3.294635e+01	4.201401e+02
1.150000e-06	4.840950e-06	6.544650e-09	3.382720e+01	4.296412e+02
1.160000e-06	4.965388e-06	6.681887e-09	3.469674e+01	4.386686e+02
1.170000e-06	5.088052e-06	6.811808e-09	3.555388e+01	4.472252e+02
1.180000e-06	5.208978e-06	6.935039e-09	3.639888e+01	4.553205e+02
1.190000e-06	5.328063e-06	7.053372e-09	3.723101e+01	4.629721e+02
1.200000e-06	5.445081e-06	7.164441e-09	3.804870e+01	4.702052e+02
1.210000e-06	5.560008e-06	7.267539e-09	3.885178e+01	4.770514e+02
1.220000e-06	5.672787e-06	7.366067e-09	3.963985e+01	4.835460e+02
1.230000e-06	5.783454e-06	7.460331e-09	4.041316e+01	4.897252e+02
1.240000e-06	5.892122e-06	7.550332e-09	4.117250e+01	4.956233e+02
1.250000e-06	5.998731e-06	7.636127e-09	4.191746e+01	5.012697e+02
1.260000e-06	6.103011e-06	7.718034e-09	4.264613e+01	5.066881e+02
1.270000e-06	6.204973e-06	7.795027e-09	4.335862e+01	5.118952e+02
1.280000e-06	6.304759e-06	7.868672e-09	4.405589e+01	5.169014e+02
1.290000e-06	6.402157e-06	7.942191e-09	4.473648e+01	5.217120e+02
1.300000e-06	6.497096e-06	8.013818e-09	4.539989e+01	5.263289e+02
1.310000e-06	6.589762e-06	8.082189e-09	4.604741e+01	5.307525e+02
1.320000e-06	6.680131e-06	8.146318e-09	4.667889e+01	5.349833e+02
1.330000e-06	6.768059e-06	8.207852e-09	4.729330e+01	5.390237e+02
1.340000e-06	6.853635e-06	8.265377e-09	4.789128e+01	5.428783e+02
1.350000e-06	6.936924e-06	8.317932e-09	4.847328e+01	5.465539e+02
1.360000e-06	7.017709e-06	8.369088e-09	4.903779e+01	5.500591e+02
1.370000e-06	7.095850e-06	8.420333e-09	4.958381e+01	5.534030e+02
1.380000e-06	7.171304e-06	8.471365e-09	5.011106e+01	5.565939e+02
1.390000e-06	7.244059e-06	8.520309e-09	5.061945e+01	5.596381e+02
1.400000e-06	7.314212e-06	8.564856e-09	5.110967e+01	5.625391e+02
1.410000e-06	7.381832e-06	8.605670e-09	5.158218e+01	5.652970e+02
1.420000e-06	7.446760e-06	8.643079e-09	5.203587e+01	5.679088e+02
1.430000e-06	7.509022e-06	8.678737e-09	5.247094e+01	5.703691e+02
1.440000e-06	7.568817e-06	8.711568e-09	5.288878e+01	5.726716e+02
1.450000e-06	7.625959e-06	8.740802e-09	5.328807e+01	5.748103e+02
1.460000e-06	7.680356e-06	8.768427e-09	5.366818e+01	5.767812e+02
1.470000e-06	7.731740e-06	8.795244e-09	5.402723e+01	5.785837e+02
1.480000e-06	7.779955e-06	8.821314e-09	5.436415e+01	5.802207e+02
1.490000e-06	7.825343e-06	8.845169e-09	5.468131e+01	5.816997e+02
1.500000e-06	7.867986e-06	8.866153e-09	5.497929e+01	5.830316e+02
1.510000e-06	7.907768e-06	8.884924e-09	5.525727e+01	5.842300e+02
1.520000e-06	7.944778e-06	8.901267e-09	5.551588e+01	5.853099e+02
1.530000e-06	7.979012e-06	8.916285e-09	5.575510e+01	5.862855e+02
1.540000e-06	8.010366e-06	8.930620e-09	5.597420e+01	5.871695e+02
1.550000e-06	8.038977e-06	8.942040e-09	5.617412e+01	5.879709e+02
1.560000e-06	8.064649e-06	8.952344e-09	5.635351e+01	5.886951e+02
1.570000e-06	8.087269e-06	8.963126e-09	5.651157e+01	5.893431e+02
1.580000e-06	8.107130e-06	8.973617e-09	5.665036e+01	5.899121e+02
1.590000e-06	8.124153e-06	8.981578e-09	5.676931e+01	5.903969e+02
1.600000e-06	8.138095e-06	8.988317e-09	5.686673e+01	5.907904e+02
1.610000e-06	8.148861e-06	8.993557e-09	5.694196e+01	5.910859e+02
1.620000e-06	8.156498e-06	8.997789e-09	5.699533e+01	5.912777e+02
1.630000e-06	8.161253e-06	9.001174e-09	5.702855e+01	5.913630e+02
1.640000e-06	8.163106e-06	9.001208e-09	5.704150e+01	5.913419e+02
1.650000e-06	8.162071e-06	8.998483e-09	5.703427e+01	5.912176e+02
1.660000e-06	8.158345e-06	8.992740e-09	5.700823e+01	5.909964e+02
1.670000e-06	8.151876e-06	8.987489e-09	5.696303e+01	5.906865e+02
1.680000e-06	8.142653e-06	8.984343e-09	5.689858e+01	5.902970e+02
1.690000e-06	8.130707e-06	8.981137e-09	5.681510e+01	5.898368e+02
1.700000e-06	8.115903e-06	8.980083e-09	5.671166e+01	5.893137e+02
1.710000e-06	8.098403e-06	8.978571e-09	5.658937e+01	5.887331e+02
1.720000e-06	8.078588e-06	8.970673e-09	5.645091e+01	5.880979e+02
1.730000e-06	8.056204e-06	8.928392e-09	5.629450e+01	5.874087e+02
1.740000e-06	8.030545e-06	8.898205e-09	5.611520e+01	5.866635e+02
1.750000e-06	8.001120e-06	8.899204e-09	5.590959e+01	5.858588e+02
1.760000e-06	7.968233e-06	8.892064e-09	5.567978e+01	5.849902e+02
1.770000e-06	7.932756e-06	8.883501e-09	5.543188e+01	5.840530e+02
1.780000e-06	7.894940e-06	8.901034e-09	5.516763e+01	5.830428e+02
1.790000e-06	7.854912e-06	8.900146e-09	5.488792e+01	5.819559e+02
1.800000e-06	7.812980e-06	8.830927e-09	5.459492e+01	5.807889e+02
1.810000e-06	7.768596e-06	8.842238e-09	5.428477e+01	5.795391e+02
1.820000e-06	7.721294e-06	8.828121e-09	5.395424e+01	5.782036e+02
1.830000e-06	7.671169e-06	8.787499e-09	5.360398e+01	5.767788e+02
1.840000e-06	7.617960e-06	8.801005e-09	5.323217e+01	5.752603e+02
1.850000e-06	7.561845e-06	8.751145e-09	5.284005e+01	5.736426e+02
1.860000e-06	7.502979e-06	8.722523e-09	5.242872e+01	5.719189e+02
1.870000e-06	7.441332e-06	8.678484e-09	5.199794e+01	5.700819e+02
1.880000e-06	7.377024e-06	8.666831e-09	5.154858e+01	5.681245e+02
1.890000e-06	7.309872e-06	8.661594e-09	5.107934e+01	5.660404e+02
1.900000e-06	7.239836e-06	8.584383e-09	5.058994e+01	5.638250e+02
1.910000e-06	7.166897e-06	8.570285e-09	5.008027e+01	5.614766e+02
1.920000e-06	7.091211e-06	8.541124e-09	4.955140e+01	5.589962e+02
1.930000e-06	7.012825e-06	8.493747e-09	4.900366e+01	5.563880e+02
1.940000e-06	6.931734e-06	8.456854e-09	4.843702e+01	5.536589e+02
1.950000e-06	6.848137e-06	8.413602e-09	4.785286e+01	5.508174e+02
1.960000e-06	6.761918e-06	8.373375e-09	4.725039e+01	5.478726e+02
1.970000e-06	6.673112e-06	8.302123e-09	4.662984e+01	5.448325e+02
1.980000e-06	6.581908e-06	8.262209e-09	4.599253e+01	5.417031e+02
1.990000e-06	6.488449e-06	8.232016e-09	4.533947e+01	5.384871e+02
2.000000e-06	6.392770e-06	8.179804e-09	4.467089e+01	5.351829e+02
2.010000e-06	6.294825e-06	8.118262e-09	4.398648e+01	5.317852e+02
2.020000e-06	6.194590e-06	8.065721e-09	4.328606e+01	5.282849e+02
2.030000e-06	6.092062e-06	8.011534e-09	4.256962e+01	5.246706e+02
2.040000e-06	5.987321e-06	7.945200e-09	4.183772e+01	5.209298e+02
2.050000e-06	5.880496e-06	7.890476e-09	4.109126e+01	5.170505e+02
2.060000e-06	5.771783e-06	7.839501e-09	4.033161e+01	5.130231e+02
2.070000e-06	5.661069e-06	7.774991e-09	3.955796e+01	5.088408e+02
2.080000e-06	5.548208e-06	7.702615e-09	3.876933e+01	5.045009e+02
2.090000e-06	5.433157e-06	7.638711e-09	3.796538e+01	5.000045e+02
2.100000e-06	5.315991e-06	7.569429e-09	3.714666e+01	4.953556e+02
2.110000e-06	5.196839e-06	7.490959e-09	3.631405e+01	4.905599e+02
2.120000e-06	5.075803e-06	7.412360e-09	3.546829e+01	4.856229e+02
2.130000e-06	4.952945e-06	7.339266e-09	3.460979e+01	4.805485e+02
2.140000e-06	4.828231e-06	7.266715e-09	3.373833e+01	4.753370e+02
2.150000e-06	4.701784e-06	7.190750e-09	3.285475e+01	4.699842e+02
2.160000e-06	4.573643e-06	7.108095e-09	3.195934e+01	4.644811e+02
2.170000e-06	4.443872e-06	7.017184e-09	3.105253e+01	4.588141e+02
2.180000e-06	4.312438e-06	6.924188e-09	3.013411e+01	4.529662e+02
2.190000e-06	4.179412e-06	6.831474e-09	2.920456e+01	4.469190e+02
2.200000e-06	4.044952e-06	6.737863e-09	2.826499e+01	4.406549e+02
2.210000e-06	3.908953e-06	6.639060e-09	2.731467e+01	4.341589e+02
2.220000e-06	3.771299e-06	6.535563e-09	2.635278e+01	4.274203e+02
2.230000e-06	3.632112e-06	6.425728e-09	2.538018e+01	4.204343e+02
2.240000e-06	3.491597e-06	6.313190e-09	2.439830e+01	4.132016e+02
2.250000e-06	3.349810e-06	6.203766e-09	2.340754e+01	4.057276e+02
2.260000e-06	3.206765e-06	6.094201e-09	2.240798e+01	3.980208e+02
2.270000e-06	3.062450e-06	5.976662e-09	2.139954e+01	3.900900e+02
2.280000e-06	2.916989e-06	5.850380e-09	2.038310e+01	3.819419e+02
2.290000e-06	2.770493e-06	5.723882e-09	1.935943e+01	3.735782e+02
2.300000e-06	2.622992e-06	5.594364e-09	1.832873e+01	3.649934e+02
2.310000e-06	2.474564e-06	5.458216e-09	1.729156e+01	3.561739e+02
2.320000e-06	2.325310e-06	5.317557e-09	1.624861e+01	3.470980e+02
2.330000e-06	2.175282e-06	5.172471e-09	1.520026e+01	3.377371e+02
2.340000e-06	2.024549e-06	5.023921e-09	1.414698e+01	3.280585e+02
2.350000e-06	1.873154e-06	4.873048e-09	1.308908e+01	3.180282e+02
2.360000e-06	1.721167e-06	4.717894e-09	1.202704e+01	3.076146e+02
2.370000e-06	1.568620e-06	4.553405e-09	1.096108e+01	2.967919e+02
2.380000e-06	1.415507e-06	4.381133e-09	9.891168e+00	2.855421e+02
2.390000e-06	1.261903e-06	4.203941e-09	8.817823e+00	2.738564e+02
2.400000e-06	1.107859e-06	4.021474e-09	7.741406e+00	2.617342e+02
2.410000e-06	9.534141e-07	3.832403e-09	6.662191e+00	2.491811e+02
2.420000e-06	7.986097e-07	3.636375e-09	5.580461e+00	2.362049e+02
2.430000e-06	6.435556e-07	3.435252e-09	4.496986e+00	2.228105e+02
2.440000e-06	4.882629e-07	3.225292e-09	3.411845e+00	2.089952e+02
2.450000e-06	3.326974e-07	3.004766e-09	2.324797e+00	1.947436e+02
2.460000e-06	1.769951e-07	2.777258e-09	1.236793e+00	1.800246e+02
2.470000e-06	2.126629e-08	2.541497e-09	1.486029e-01	1.647895e+02
2.480000e-06	-1.344864e-07	2.296157e-09	-9.397535e-01	1.489739e+02
2.490000e-06	-2.902109e-07	2.041391e-09	-2.027912e+00	1.325014e+02
2.500000e-06	-4.458839e-07	1.776160e-09	-3.115712e+00	1.152905e+02
2.510000e-06	-6.013843e-07	1.499148e-09	-4.202305e+00	9.726339e+01
2.520000e-06	-7.565651e-07	1.211512e-09	-5.286665e+00	7.835606e+01
2.530000e-06	-9.114888e-07	9.130937e-10	-6.369228e+00	5.852888e+01
2.540000e-06	-1.066111e-06	6.020711e-10	-7.449687e+00	3.777597e+01
2.550000e-06	-1.220334e-06	2.765070e-10	-8.527350e+00	1.613251e+01
2.560000e-06	-1.374175e-06	-6.426232e-11	-9.602348e+00	-6.321033e+00
2.570000e-06	-1.527579e-06	-4.169493e-10	-1.067429e+01	-2.945845e+01
2.580000e-06	-1.680390e-06	-7.795815e-10	-1.174210e+01	-5.311146e+01
2.590000e-06	-1.832468e-06	-1.151406e-09	-1.280477e+01	-7.707722e+01
2.600000e-06	-1.983809e-06	-1.526170e-09	-1.386230e+01	-1.011292e+02
2.610000e-06	-2.134478e-06	-1.897988e-09	-1.491514e+01	-1.250303e+02
2.620000e-06	-2.284447e-06	-2.261362e-09	-1.596307e+01	-1.485470e+02
2.630000e-06	-2.433548e-06	-2.611354e-09	-1.700495e+01	-1.714635e+02
2.640000e-06	-2.581685e-06	-2.946758e-09	-1.804009e+01	-1.935938e+02
2.650000e-06	-2.728860e-06	-3.266223e-09	-1.906851e+01	-2.147910e+02
2.660000e-06	-2.875066e-06	-3.569680e-09	-2.009015e+01	-2.349536e+02
2.670000e-06	-3.020185e-06	-3.858509e-09	-2.110421e+01	-2.540271e+02
2.680000e-06	-3.164055e-06	-4.134741e-09	-2.210953e+01	-2.720019e+02
2.690000e-06	-3.306681e-06	-4.395845e-09	-2.310616e+01	-2.889077e+02
2.700000e-06	-3.448093e-06	-4.641355e-09	-2.409431e+01	-3.048047e+02
2.710000e-06	-3.588194e-06	-4.873828e-09	-2.507329e+01	-3.197743e+02
2.720000e-06	-3.726909e-06	-5.094310e-09	-2.604260e+01	-3.339077e+02
2.730000e-06	-3.864246e-06	-5.303938e-09	-2.700227e+01	-3.472967e+02
2.740000e-06	-4.000097e-06	-5.502479e-09	-2.795155e+01	-3.600251e+02
2.750000e-06	-4.134511e-06	-5.690120e-09	-2.889080e+01	-3.721630e+02
2.760000e-06	-4.267526e-06	-5.867446e-09	-2.982028e+01	-3.837634e+02
2.770000e-06	-4.399001e-06	-6.035336e-09	-3.073899e+01	-3.948620e+02
2.780000e-06	-4.528988e-06	-6.195018e-09	-3.164730e+01	-4.054787e+02
2.790000e-06	-4.657436e-06	-6.345995e-09	-3.254486e+01	-4.156218e+02
2.800000e-06	-4.784198e-06	-6.490482e-09	-3.343064e+01	-4.252923e+02
2.810000e-06	-4.909301e-06	-6.629774e-09	-3.430482e+01	-4.344891e+02
2.820000e-06	-5.032703e-06	-6.763127e-09	-3.516712e+01	-4.432135e+02
2.830000e-06	-5.154374e-06	-6.890520e-09	-3.601732e+01	-4.514722e+02
2.840000e-06	-5.274183e-06	-7.010876e-09	-3.685451e+01	-4.592801e+02
2.850000e-06	-5.391888e-06	-7.124822e-09	-3.767701e+01	-4.666596e+02
2.860000e-06	-5.507341e-06	-7.234033e-09	-3.848375e+01	-4.736403e+02
2.870000e-06	-5.620545e-06	-7.337727e-09	-3.927479e+01	-4.802566e+02
2.880000e-06	-5.731584e-06	-7.436133e-09	-4.005071e+01	-4.865447e+02
2.890000e-06	-5.840563e-06	-7.529754e-09	-4.081222e+01	-4.925398e+02
2.900000e-06	-5.947612e-06	-7.618450e-09	-4.156025e+01	-4.982734e+02
2.910000e-06	-6.052527e-06	-7.702301e-09	-4.229336e+01	-5.037712e+02
2.920000e-06	-6.155090e-06	-7.781076e-09	-4.301004e+01	-5.090526e+02
2.930000e-06	-6.255292e-06	-7.856894e-09	-4.371023e+01	-5.141300e+02
2.940000e-06	-6.353256e-06	-7.930972e-09	-4.439477e+01	-5.190104e+02
