# Temperatura_=_72.85
# Concentracion g/m^3_=_15000.0
# C_Vs_to_Am_M_A/Vsm_=_65563218390.804596
# pendiente_HvsI_1/m_=_3716.3
# ordenada_HvsI_A/m_=_1297.0
# frecuencia_Hz_=_302362.81382882944

Tiempo_(s)	Campo_(V.s)	Magnetizacion_(V.s)	Campo_(kA/m)	Magnetizacion_(A/m)
0.000000e+00	-8.149570e-06	-1.242343e-08	-5.689900e+01	-8.132007e+02
1.000000e-08	-8.144962e-06	-1.241974e-08	-5.686683e+01	-8.127313e+02
2.000000e-08	-8.137766e-06	-1.240990e-08	-5.681659e+01	-8.121332e+02
3.000000e-08	-8.127844e-06	-1.239897e-08	-5.674732e+01	-8.114220e+02
4.000000e-08	-8.114991e-06	-1.238711e-08	-5.665758e+01	-8.106116e+02
5.000000e-08	-8.099158e-06	-1.237353e-08	-5.654704e+01	-8.097120e+02
6.000000e-08	-8.080686e-06	-1.235598e-08	-5.641807e+01	-8.087289e+02
7.000000e-08	-8.059923e-06	-1.233352e-08	-5.627310e+01	-8.076629e+02
8.000000e-08	-8.036577e-06	-1.232558e-08	-5.611011e+01	-8.065104e+02
9.000000e-08	-8.010111e-06	-1.236073e-08	-5.592532e+01	-8.052645e+02
1.000000e-07	-7.980416e-06	-1.232869e-08	-5.571800e+01	-8.039165e+02
1.100000e-07	-7.947726e-06	-1.226387e-08	-5.548976e+01	-8.024576e+02
1.200000e-07	-7.912193e-06	-1.222861e-08	-5.524167e+01	-8.008804e+02
1.300000e-07	-7.874037e-06	-1.219704e-08	-5.497528e+01	-7.991792e+02
1.400000e-07	-7.833517e-06	-1.214965e-08	-5.469237e+01	-7.973509e+02
1.500000e-07	-7.790672e-06	-1.209383e-08	-5.439324e+01	-7.953944e+02
1.600000e-07	-7.745207e-06	-1.214603e-08	-5.407580e+01	-7.933098e+02
1.700000e-07	-7.696897e-06	-1.206283e-08	-5.373851e+01	-7.910972e+02
1.800000e-07	-7.645717e-06	-1.199517e-08	-5.338118e+01	-7.887553e+02
1.900000e-07	-7.591570e-06	-1.203962e-08	-5.300314e+01	-7.862806e+02
2.000000e-07	-7.534517e-06	-1.192318e-08	-5.260480e+01	-7.836668e+02
2.100000e-07	-7.474770e-06	-1.187945e-08	-5.218766e+01	-7.809049e+02
2.200000e-07	-7.412433e-06	-1.185719e-08	-5.175243e+01	-7.779836e+02
2.300000e-07	-7.347390e-06	-1.179946e-08	-5.129831e+01	-7.748908e+02
2.400000e-07	-7.279524e-06	-1.174835e-08	-5.082448e+01	-7.716155e+02
2.500000e-07	-7.208853e-06	-1.168244e-08	-5.033107e+01	-7.681488e+02
2.600000e-07	-7.135303e-06	-1.165706e-08	-4.981755e+01	-7.644859e+02
2.700000e-07	-7.058884e-06	-1.158267e-08	-4.928401e+01	-7.606270e+02
2.800000e-07	-6.979697e-06	-1.151927e-08	-4.873114e+01	-7.565773e+02
2.900000e-07	-6.897871e-06	-1.145192e-08	-4.815984e+01	-7.523465e+02
3.000000e-07	-6.813643e-06	-1.139250e-08	-4.757177e+01	-7.479478e+02
3.100000e-07	-6.727057e-06	-1.133350e-08	-4.696725e+01	-7.433951e+02
3.200000e-07	-6.637990e-06	-1.123100e-08	-4.634539e+01	-7.387017e+02
3.300000e-07	-6.546476e-06	-1.117740e-08	-4.570646e+01	-7.338776e+02
3.400000e-07	-6.452623e-06	-1.110654e-08	-4.505119e+01	-7.289278e+02
3.500000e-07	-6.356451e-06	-1.102003e-08	-4.437973e+01	-7.238514e+02
3.600000e-07	-6.257942e-06	-1.093586e-08	-4.369196e+01	-7.186415e+02
3.700000e-07	-6.157168e-06	-1.086342e-08	-4.298837e+01	-7.132855e+02
3.800000e-07	-6.054169e-06	-1.078233e-08	-4.226925e+01	-7.077675e+02
3.900000e-07	-5.948968e-06	-1.067994e-08	-4.153475e+01	-7.020700e+02
4.000000e-07	-5.841682e-06	-1.059761e-08	-4.078570e+01	-6.961764e+02
4.100000e-07	-5.732419e-06	-1.050261e-08	-4.002284e+01	-6.900732e+02
4.200000e-07	-5.621124e-06	-1.040713e-08	-3.924579e+01	-6.837519e+02
4.300000e-07	-5.507701e-06	-1.030125e-08	-3.845390e+01	-6.772095e+02
4.400000e-07	-5.392100e-06	-1.020375e-08	-3.764678e+01	-6.704484e+02
4.500000e-07	-5.274401e-06	-1.010163e-08	-3.682503e+01	-6.634751e+02
4.600000e-07	-5.154812e-06	-9.989994e-09	-3.599008e+01	-6.562985e+02
4.700000e-07	-5.033437e-06	-9.876976e-09	-3.514266e+01	-6.489268e+02
4.800000e-07	-4.910251e-06	-9.763847e-09	-3.428259e+01	-6.413654e+02
4.900000e-07	-4.785304e-06	-9.649792e-09	-3.341023e+01	-6.336149e+02
5.000000e-07	-4.658692e-06	-9.523647e-09	-3.252625e+01	-6.256691e+02
5.100000e-07	-4.530381e-06	-9.398835e-09	-3.163040e+01	-6.175154e+02
5.200000e-07	-4.400344e-06	-9.270719e-09	-3.072250e+01	-6.091354e+02
5.300000e-07	-4.268618e-06	-9.138724e-09	-2.980281e+01	-6.005068e+02
5.400000e-07	-4.135377e-06	-8.996738e-09	-2.887254e+01	-5.916060e+02
5.500000e-07	-4.000633e-06	-8.854675e-09	-2.793179e+01	-5.824114e+02
5.600000e-07	-3.864283e-06	-8.707352e-09	-2.697981e+01	-5.729060e+02
5.700000e-07	-3.726419e-06	-8.553154e-09	-2.601726e+01	-5.630798e+02
5.800000e-07	-3.587017e-06	-8.396175e-09	-2.504398e+01	-5.529302e+02
5.900000e-07	-3.446000e-06	-8.239054e-09	-2.405943e+01	-5.424624e+02
6.000000e-07	-3.303560e-06	-8.079184e-09	-2.306493e+01	-5.316871e+02
6.100000e-07	-3.159866e-06	-7.909017e-09	-2.206168e+01	-5.206180e+02
6.200000e-07	-3.015052e-06	-7.737709e-09	-2.105061e+01	-5.092677e+02
6.300000e-07	-2.869133e-06	-7.564194e-09	-2.003183e+01	-4.976443e+02
6.400000e-07	-2.722150e-06	-7.385386e-09	-1.900562e+01	-4.857479e+02
6.500000e-07	-2.574261e-06	-7.197187e-09	-1.797308e+01	-4.735682e+02
6.600000e-07	-2.425546e-06	-7.003371e-09	-1.693477e+01	-4.610839e+02
6.700000e-07	-2.276047e-06	-6.802823e-09	-1.589100e+01	-4.482633e+02
6.800000e-07	-2.125766e-06	-6.594814e-09	-1.484176e+01	-4.350675e+02
6.900000e-07	-1.974740e-06	-6.384873e-09	-1.378732e+01	-4.214537e+02
7.000000e-07	-1.823035e-06	-6.170016e-09	-1.272814e+01	-4.073798e+02
7.100000e-07	-1.670747e-06	-5.949271e-09	-1.166489e+01	-3.928095e+02
7.200000e-07	-1.517910e-06	-5.720024e-09	-1.059780e+01	-3.777156e+02
7.300000e-07	-1.364519e-06	-5.485018e-09	-9.526857e+00	-3.620819e+02
7.400000e-07	-1.210624e-06	-5.242032e-09	-8.452387e+00	-3.459032e+02
7.500000e-07	-1.056285e-06	-4.989494e-09	-7.374812e+00	-3.291830e+02
7.600000e-07	-9.015567e-07	-4.729255e-09	-6.294526e+00	-3.119284e+02
7.700000e-07	-7.465566e-07	-4.460565e-09	-5.212340e+00	-2.941442e+02
7.800000e-07	-5.912885e-07	-4.181824e-09	-4.128283e+00	-2.758254e+02
7.900000e-07	-4.357873e-07	-3.893934e-09	-3.042598e+00	-2.569505e+02
8.000000e-07	-2.801726e-07	-3.597337e-09	-1.956120e+00	-2.374766e+02
8.100000e-07	-1.244491e-07	-3.285789e-09	-8.688836e-01	-2.173361e+02
8.200000e-07	3.132740e-08	-2.960940e-09	2.187229e-01	-1.964385e+02
8.300000e-07	1.871024e-07	-2.625097e-09	1.306319e+00	-1.746744e+02
8.400000e-07	3.428833e-07	-2.277557e-09	2.393957e+00	-1.519249e+02
8.500000e-07	4.986232e-07	-1.913281e-09	3.481308e+00	-1.280733e+02
8.600000e-07	6.542363e-07	-1.530164e-09	4.567774e+00	-1.030193e+02
8.700000e-07	8.096545e-07	-1.133625e-09	5.652880e+00	-7.669426e+01
8.800000e-07	9.648012e-07	-7.220537e-10	6.736089e+00	-4.907460e+01
8.900000e-07	1.119667e-06	-2.921377e-10	7.817340e+00	-2.019365e+01
9.000000e-07	1.274175e-06	1.588040e-10	8.896088e+00	9.851584e+00
9.100000e-07	1.428231e-06	6.293413e-10	9.971680e+00	4.089845e+01
9.200000e-07	1.581736e-06	1.116353e-09	1.104343e+01	7.272271e+01
9.300000e-07	1.734554e-06	1.616281e-09	1.211038e+01	1.050483e+02
9.400000e-07	1.886747e-06	2.119420e-09	1.317297e+01	1.375618e+02
9.500000e-07	2.038306e-06	2.617789e-09	1.423113e+01	1.699312e+02
9.600000e-07	2.189096e-06	3.106748e-09	1.528392e+01	2.018259e+02
9.700000e-07	2.338980e-06	3.581897e-09	1.633039e+01	2.329366e+02
9.800000e-07	2.487923e-06	4.037309e-09	1.737028e+01	2.629943e+02
9.900000e-07	2.635893e-06	4.466878e-09	1.840338e+01	2.917837e+02
1.000000e-06	2.782902e-06	4.873331e-09	1.942978e+01	3.191531e+02
1.010000e-06	2.928944e-06	5.260645e-09	2.044942e+01	3.450181e+02
1.020000e-06	3.073878e-06	5.626329e-09	2.146133e+01	3.693590e+02
1.030000e-06	3.217687e-06	5.970712e-09	2.246538e+01	3.922134e+02
1.040000e-06	3.360279e-06	6.297608e-09	2.346093e+01	4.136649e+02
1.050000e-06	3.501557e-06	6.608963e-09	2.444732e+01	4.338288e+02
1.060000e-06	3.641497e-06	6.902979e-09	2.542436e+01	4.528371e+02
1.070000e-06	3.780054e-06	7.179581e-09	2.639174e+01	4.708240e+02
1.080000e-06	3.917168e-06	7.442326e-09	2.734904e+01	4.879143e+02
1.090000e-06	4.052814e-06	7.691453e-09	2.829611e+01	5.042144e+02
1.100000e-06	4.186978e-06	7.927961e-09	2.923281e+01	5.198074e+02
1.110000e-06	4.319650e-06	8.153080e-09	3.015911e+01	5.347520e+02
1.120000e-06	4.450839e-06	8.368388e-09	3.107505e+01	5.490849e+02
1.130000e-06	4.580451e-06	8.574331e-09	3.197998e+01	5.628258e+02
1.140000e-06	4.708430e-06	8.769686e-09	3.287351e+01	5.759836e+02
1.150000e-06	4.834746e-06	8.956476e-09	3.375543e+01	5.885630e+02
1.160000e-06	4.959431e-06	9.136961e-09	3.462596e+01	6.005704e+02
1.170000e-06	5.082440e-06	9.311088e-09	3.548479e+01	6.120182e+02
1.180000e-06	5.203638e-06	9.478020e-09	3.633097e+01	6.229272e+02
1.190000e-06	5.322919e-06	9.637671e-09	3.716378e+01	6.333262e+02
1.200000e-06	5.440229e-06	9.790846e-09	3.798282e+01	6.432505e+02
1.210000e-06	5.555470e-06	9.937113e-09	3.878741e+01	6.527383e+02
1.220000e-06	5.668499e-06	1.007626e-08	3.957656e+01	6.618271e+02
1.230000e-06	5.779362e-06	1.021175e-08	4.035059e+01	6.705496e+02
1.240000e-06	5.888173e-06	1.034121e-08	4.111029e+01	6.789310e+02
1.250000e-06	5.994935e-06	1.046429e-08	4.185568e+01	6.869873e+02
1.260000e-06	6.099479e-06	1.058319e-08	4.258559e+01	6.947254e+02
1.270000e-06	6.201770e-06	1.069526e-08	4.329977e+01	7.021447e+02
1.280000e-06	6.301814e-06	1.080059e-08	4.399827e+01	7.092397e+02
1.290000e-06	6.399513e-06	1.090102e-08	4.468038e+01	7.160040e+02
1.300000e-06	6.494820e-06	1.099701e-08	4.534580e+01	7.224338e+02
1.310000e-06	6.587800e-06	1.108795e-08	4.599498e+01	7.285310e+02
1.320000e-06	6.678463e-06	1.117414e-08	4.662797e+01	7.343054e+02
1.330000e-06	6.766683e-06	1.125813e-08	4.724390e+01	7.397753e+02
1.340000e-06	6.852499e-06	1.134000e-08	4.784306e+01	7.449665e+02
1.350000e-06	6.935946e-06	1.141732e-08	4.842568e+01	7.499104e+02
1.360000e-06	7.016927e-06	1.148935e-08	4.899107e+01	7.546401e+02
1.370000e-06	7.095336e-06	1.155979e-08	4.953851e+01	7.591871e+02
1.380000e-06	7.171094e-06	1.162939e-08	5.006744e+01	7.635776e+02
1.390000e-06	7.244104e-06	1.169548e-08	5.057719e+01	7.678289e+02
1.400000e-06	7.314478e-06	1.175672e-08	5.106852e+01	7.719484e+02
1.410000e-06	7.382368e-06	1.181457e-08	5.154252e+01	7.759327e+02
1.420000e-06	7.447614e-06	1.187116e-08	5.199806e+01	7.797689e+02
1.430000e-06	7.510194e-06	1.192735e-08	5.243498e+01	7.834371e+02
1.440000e-06	7.570242e-06	1.197913e-08	5.285423e+01	7.869137e+02
1.450000e-06	7.627656e-06	1.202550e-08	5.325508e+01	7.901753e+02
1.460000e-06	7.682355e-06	1.206973e-08	5.363698e+01	7.932024e+02
1.470000e-06	7.734087e-06	1.211286e-08	5.399817e+01	7.959822e+02
1.480000e-06	7.782625e-06	1.215335e-08	5.433705e+01	7.985107e+02
1.490000e-06	7.828266e-06	1.218798e-08	5.465571e+01	8.007930e+02
1.500000e-06	7.871148e-06	1.221811e-08	5.495511e+01	8.028426e+02
1.510000e-06	7.911172e-06	1.224638e-08	5.523455e+01	8.046793e+02
1.520000e-06	7.948443e-06	1.227238e-08	5.549477e+01	8.063262e+02
1.530000e-06	7.982966e-06	1.229677e-08	5.573580e+01	8.078069e+02
1.540000e-06	8.014603e-06	1.231956e-08	5.595668e+01	8.091420e+02
1.550000e-06	8.043434e-06	1.233817e-08	5.615798e+01	8.103466e+02
1.560000e-06	8.069391e-06	1.235336e-08	5.633921e+01	8.114293e+02
1.570000e-06	8.092337e-06	1.236766e-08	5.649941e+01	8.123914e+02
1.580000e-06	8.112496e-06	1.238156e-08	5.664016e+01	8.132280e+02
1.590000e-06	8.129777e-06	1.239195e-08	5.676081e+01	8.139294e+02
1.600000e-06	8.143992e-06	1.239864e-08	5.686006e+01	8.144840e+02
1.610000e-06	8.155061e-06	1.240446e-08	5.693734e+01	8.148804e+02
1.620000e-06	8.162917e-06	1.241029e-08	5.699219e+01	8.151102e+02
1.630000e-06	8.167875e-06	1.241401e-08	5.702681e+01	8.151695e+02
1.640000e-06	8.169979e-06	1.241366e-08	5.704150e+01	8.150601e+02
1.650000e-06	8.169173e-06	1.241095e-08	5.703587e+01	8.147894e+02
1.660000e-06	8.165711e-06	1.239949e-08	5.701170e+01	8.143692e+02
1.670000e-06	8.159561e-06	1.239288e-08	5.696876e+01	8.138146e+02
1.680000e-06	8.150578e-06	1.238778e-08	5.690604e+01	8.131415e+02
1.690000e-06	8.138766e-06	1.237837e-08	5.682357e+01	8.123645e+02
1.700000e-06	8.124093e-06	1.236863e-08	5.672113e+01	8.114953e+02
1.710000e-06	8.106810e-06	1.235931e-08	5.660046e+01	8.105411e+02
1.720000e-06	8.087218e-06	1.235065e-08	5.646367e+01	8.095044e+02
1.730000e-06	8.065045e-06	1.230343e-08	5.630887e+01	8.083828e+02
1.740000e-06	8.039604e-06	1.222919e-08	5.613124e+01	8.071706e+02
1.750000e-06	8.010378e-06	1.224065e-08	5.592719e+01	8.058594e+02
1.760000e-06	7.977687e-06	1.224125e-08	5.569894e+01	8.044405e+02
1.770000e-06	7.942480e-06	1.221222e-08	5.545313e+01	8.029057e+02
1.780000e-06	7.904970e-06	1.221200e-08	5.519125e+01	8.012486e+02
1.790000e-06	7.865080e-06	1.224573e-08	5.491274e+01	7.994654e+02
1.800000e-06	7.823210e-06	1.212160e-08	5.462041e+01	7.975541e+02
1.810000e-06	7.778970e-06	1.208515e-08	5.431153e+01	7.955146e+02
1.820000e-06	7.731867e-06	1.215281e-08	5.398267e+01	7.933472e+02
1.830000e-06	7.681996e-06	1.201744e-08	5.363447e+01	7.910511e+02
1.840000e-06	7.629005e-06	1.206813e-08	5.326450e+01	7.886238e+02
1.850000e-06	7.573026e-06	1.200442e-08	5.287366e+01	7.860600e+02
1.860000e-06	7.514377e-06	1.192935e-08	5.246419e+01	7.833516e+02
1.870000e-06	7.452992e-06	1.192987e-08	5.203561e+01	7.804880e+02
1.880000e-06	7.388879e-06	1.183360e-08	5.158798e+01	7.774572e+02
1.890000e-06	7.321826e-06	1.186418e-08	5.111983e+01	7.742476e+02
1.900000e-06	7.251920e-06	1.174371e-08	5.063176e+01	7.708494e+02
1.910000e-06	7.179239e-06	1.168560e-08	5.012430e+01	7.672563e+02
1.920000e-06	7.103751e-06	1.164516e-08	4.959726e+01	7.634664e+02
1.930000e-06	7.025503e-06	1.156641e-08	4.905095e+01	7.594833e+02
1.940000e-06	6.944544e-06	1.155575e-08	4.848570e+01	7.553153e+02
1.950000e-06	6.861069e-06	1.144399e-08	4.790290e+01	7.509743e+02
1.960000e-06	6.774980e-06	1.142113e-08	4.730184e+01	7.464744e+02
1.970000e-06	6.686294e-06	1.132542e-08	4.668264e+01	7.418293e+02
1.980000e-06	6.595254e-06	1.123617e-08	4.604702e+01	7.370504e+02
1.990000e-06	6.501969e-06	1.118349e-08	4.539571e+01	7.321447e+02
2.000000e-06	6.406438e-06	1.109695e-08	4.472873e+01	7.271135e+02
2.010000e-06	6.308614e-06	1.102260e-08	4.404574e+01	7.219518e+02
2.020000e-06	6.208498e-06	1.091680e-08	4.334675e+01	7.166490e+02
2.030000e-06	6.106069e-06	1.086214e-08	4.263160e+01	7.111903e+02
2.040000e-06	6.001419e-06	1.077314e-08	4.190095e+01	7.055583e+02
2.050000e-06	5.894715e-06	1.069079e-08	4.115596e+01	6.997358e+02
2.060000e-06	5.786012e-06	1.058854e-08	4.039702e+01	6.937081e+02
2.070000e-06	5.675270e-06	1.048801e-08	3.962384e+01	6.874648e+02
2.080000e-06	5.562474e-06	1.038496e-08	3.883631e+01	6.810007e+02
2.090000e-06	5.447529e-06	1.027837e-08	3.803378e+01	6.743165e+02
2.100000e-06	5.330468e-06	1.018610e-08	3.721648e+01	6.674175e+02
2.110000e-06	5.211406e-06	1.008464e-08	3.638521e+01	6.603119e+02
2.120000e-06	5.090389e-06	9.978247e-09	3.554029e+01	6.530084e+02
2.130000e-06	4.967619e-06	9.852408e-09	3.468313e+01	6.455138e+02
2.140000e-06	4.843073e-06	9.742723e-09	3.381357e+01	6.378306e+02
2.150000e-06	4.716693e-06	9.624115e-09	3.293120e+01	6.299551e+02
2.160000e-06	4.588541e-06	9.501653e-09	3.203647e+01	6.218769e+02
2.170000e-06	4.458737e-06	9.365253e-09	3.113020e+01	6.135795e+02
2.180000e-06	4.327354e-06	9.236100e-09	3.021290e+01	6.050418e+02
2.190000e-06	4.194398e-06	9.103060e-09	2.928462e+01	5.962402e+02
2.200000e-06	4.059894e-06	8.965142e-09	2.834553e+01	5.871522e+02
2.210000e-06	3.923845e-06	8.825663e-09	2.739566e+01	5.777588e+02
2.220000e-06	3.786220e-06	8.681289e-09	2.643479e+01	5.680472e+02
2.230000e-06	3.647052e-06	8.528761e-09	2.546314e+01	5.580123e+02
2.240000e-06	3.506536e-06	8.369245e-09	2.448208e+01	5.476566e+02
2.250000e-06	3.364686e-06	8.215010e-09	2.349170e+01	5.369890e+02
2.260000e-06	3.221577e-06	8.054481e-09	2.249254e+01	5.260226e+02
2.270000e-06	3.077253e-06	7.883604e-09	2.148489e+01	5.147709e+02
2.280000e-06	2.931756e-06	7.701383e-09	2.046906e+01	5.032439e+02
2.290000e-06	2.785180e-06	7.521439e-09	1.944569e+01	4.914450e+02
2.300000e-06	2.637627e-06	7.338437e-09	1.841549e+01	4.793678e+02
2.310000e-06	2.489226e-06	7.152020e-09	1.737938e+01	4.669948e+02
2.320000e-06	2.339960e-06	6.960481e-09	1.633723e+01	4.542979e+02
2.330000e-06	2.189822e-06	6.759485e-09	1.528899e+01	4.412404e+02
2.340000e-06	2.038933e-06	6.549346e-09	1.423551e+01	4.277801e+02
2.350000e-06	1.887463e-06	6.336129e-09	1.317796e+01	4.138745e+02
2.360000e-06	1.735454e-06	6.119032e-09	1.211666e+01	3.994846e+02
2.370000e-06	1.582897e-06	5.890106e-09	1.105154e+01	3.845796e+02
2.380000e-06	1.429801e-06	5.652137e-09	9.982646e+00	3.691391e+02
2.390000e-06	1.276204e-06	5.410697e-09	8.910253e+00	3.531544e+02
2.400000e-06	1.122100e-06	5.163995e-09	7.834326e+00	3.366263e+02
2.410000e-06	9.675523e-07	4.908666e-09	6.755297e+00	3.195611e+02
2.420000e-06	8.126692e-07	4.644720e-09	5.673927e+00	3.019654e+02
2.430000e-06	6.574547e-07	4.371095e-09	4.590244e+00	2.838383e+02
2.440000e-06	5.019546e-07	4.084945e-09	3.504567e+00	2.651652e+02
2.450000e-06	3.462847e-07	3.787007e-09	2.417705e+00	2.459111e+02
2.460000e-06	1.905254e-07	3.482071e-09	1.330218e+00	2.260173e+02
2.470000e-06	3.467377e-08	3.163503e-09	2.420867e-01	2.054012e+02
2.480000e-06	-1.212268e-07	2.828051e-09	-8.463866e-01	1.839593e+02
2.490000e-06	-2.770983e-07	2.479895e-09	-1.934656e+00	1.615750e+02
2.500000e-06	-4.328884e-07	2.120475e-09	-3.022358e+00	1.381291e+02
2.510000e-06	-5.885759e-07	1.747334e-09	-4.109343e+00	1.135138e+02
2.520000e-06	-7.441364e-07	1.357101e-09	-5.195442e+00	8.764740e+01
2.530000e-06	-8.994427e-07	9.496728e-10	-6.279766e+00	6.048881e+01
2.540000e-06	-1.054370e-06	5.203874e-10	-7.361447e+00	3.204999e+01
2.550000e-06	-1.208853e-06	7.035071e-11	-8.440018e+00	2.404676e+00
2.560000e-06	-1.362833e-06	-3.957079e-10	-9.515084e+00	-2.830776e+01
2.570000e-06	-1.516265e-06	-8.769086e-10	-1.058632e+01	-5.988425e+01
2.580000e-06	-1.669155e-06	-1.373337e-09	-1.165378e+01	-9.206576e+01
2.590000e-06	-1.821435e-06	-1.880131e-09	-1.271697e+01	-1.245503e+02
2.600000e-06	-1.973033e-06	-2.386799e-09	-1.377540e+01	-1.570103e+02
2.610000e-06	-2.123938e-06	-2.885141e-09	-1.482900e+01	-1.891121e+02
2.620000e-06	-2.273994e-06	-3.367948e-09	-1.587666e+01	-2.205368e+02
2.630000e-06	-2.423164e-06	-3.831563e-09	-1.691815e+01	-2.509989e+02
2.640000e-06	-2.571550e-06	-4.276252e-09	-1.795416e+01	-2.802627e+02
2.650000e-06	-2.718970e-06	-4.698666e-09	-1.898341e+01	-3.081531e+02
2.660000e-06	-2.865326e-06	-5.096704e-09	-2.000525e+01	-3.345615e+02
2.670000e-06	-3.010619e-06	-5.474666e-09	-2.101966e+01	-3.594457e+02
2.680000e-06	-3.154717e-06	-5.833695e-09	-2.202573e+01	-3.828241e+02
2.690000e-06	-3.297587e-06	-6.170634e-09	-2.302323e+01	-4.047654e+02
2.700000e-06	-3.439184e-06	-6.486820e-09	-2.401184e+01	-4.253752e+02
2.710000e-06	-3.579486e-06	-6.787238e-09	-2.499140e+01	-4.447812e+02
2.720000e-06	-3.718476e-06	-7.074006e-09	-2.596181e+01	-4.631184e+02
2.730000e-06	-3.856059e-06	-7.344736e-09	-2.692239e+01	-4.805162e+02
2.740000e-06	-3.992211e-06	-7.600222e-09	-2.787298e+01	-4.970884e+02
2.750000e-06	-4.126913e-06	-7.843483e-09	-2.881345e+01	-5.129265e+02
2.760000e-06	-4.260124e-06	-8.076301e-09	-2.974351e+01	-5.280980e+02
2.770000e-06	-4.391832e-06	-8.299087e-09	-3.066307e+01	-5.426469e+02
2.780000e-06	-4.522057e-06	-8.512155e-09	-3.157228e+01	-5.565985e+02
2.790000e-06	-4.650728e-06	-8.716748e-09	-3.247064e+01	-5.699645e+02
2.800000e-06	-4.777738e-06	-8.912077e-09	-3.335741e+01	-5.827505e+02
2.810000e-06	-4.903098e-06	-9.097523e-09	-3.423265e+01	-5.949617e+02
2.820000e-06	-5.026712e-06	-9.274817e-09	-3.509570e+01	-6.066081e+02
2.830000e-06	-5.148540e-06	-9.443824e-09	-3.594629e+01	-6.177072e+02
2.840000e-06	-5.268584e-06	-9.602739e-09	-3.678442e+01	-6.282852e+02
2.850000e-06	-5.386606e-06	-9.753517e-09	-3.760843e+01	-6.383753e+02
2.860000e-06	-5.502411e-06	-9.900569e-09	-3.841696e+01	-6.480152e+02
2.870000e-06	-5.615969e-06	-1.004430e-08	-3.920981e+01	-6.572430e+02
2.880000e-06	-5.727300e-06	-1.018229e-08	-3.998710e+01	-6.660936e+02
2.890000e-06	-5.836526e-06	-1.031625e-08	-4.074970e+01	-6.745951e+02
2.900000e-06	-5.943752e-06	-1.044453e-08	-4.149834e+01	-6.827668e+02
2.910000e-06	-6.048928e-06	-1.056438e-08	-4.223265e+01	-6.906189e+02
2.920000e-06	-6.151817e-06	-1.067617e-08	-4.295101e+01	-6.981531e+02
2.930000e-06	-6.252333e-06	-1.078311e-08	-4.365279e+01	-7.053653e+02
2.940000e-06	-6.350629e-06	-1.088728e-08	-4.433909e+01	-7.122490e+02
