# Temperatura_=_43.7
# Concentracion g/m^3_=_15000.0
# C_Vs_to_Am_M_A/Vsm_=_65563218390.804596
# pendiente_HvsI_1/m_=_3716.3
# ordenada_HvsI_A/m_=_1297.0
# frecuencia_Hz_=_302363.20046288276

Tiempo_(s)	Campo_(V.s)	Magnetizacion_(V.s)	Campo_(kA/m)	Magnetizacion_(A/m)
0.000000e+00	-8.147922e-06	-8.901490e-09	-5.689359e+01	-5.821891e+02
1.000000e-08	-8.143157e-06	-8.900781e-09	-5.686032e+01	-5.819043e+02
2.000000e-08	-8.135829e-06	-8.894750e-09	-5.680915e+01	-5.815372e+02
3.000000e-08	-8.125733e-06	-8.886737e-09	-5.673865e+01	-5.811000e+02
4.000000e-08	-8.112693e-06	-8.877146e-09	-5.664760e+01	-5.806036e+02
5.000000e-08	-8.096768e-06	-8.866431e-09	-5.653641e+01	-5.800569e+02
6.000000e-08	-8.078271e-06	-8.854634e-09	-5.640724e+01	-5.794654e+02
7.000000e-08	-8.057442e-06	-8.840945e-09	-5.626181e+01	-5.788304e+02
8.000000e-08	-8.033943e-06	-8.849396e-09	-5.609772e+01	-5.781497e+02
9.000000e-08	-8.007312e-06	-8.864623e-09	-5.591177e+01	-5.774174e+02
1.000000e-07	-7.977500e-06	-8.837435e-09	-5.570360e+01	-5.766255e+02
1.100000e-07	-7.944630e-06	-8.804406e-09	-5.547409e+01	-5.757650e+02
1.200000e-07	-7.908907e-06	-8.781374e-09	-5.522464e+01	-5.748267e+02
1.300000e-07	-7.870679e-06	-8.754819e-09	-5.495772e+01	-5.738030e+02
1.400000e-07	-7.830040e-06	-8.721816e-09	-5.467395e+01	-5.726878e+02
1.500000e-07	-7.787007e-06	-8.717485e-09	-5.437347e+01	-5.714775e+02
1.600000e-07	-7.741397e-06	-8.724944e-09	-5.405500e+01	-5.701706e+02
1.700000e-07	-7.692899e-06	-8.655155e-09	-5.371635e+01	-5.687670e+02
1.800000e-07	-7.641497e-06	-8.652523e-09	-5.335744e+01	-5.672674e+02
1.900000e-07	-7.587191e-06	-8.641537e-09	-5.297824e+01	-5.656724e+02
2.000000e-07	-7.529966e-06	-8.575240e-09	-5.257866e+01	-5.639818e+02
2.100000e-07	-7.470060e-06	-8.567962e-09	-5.216036e+01	-5.621941e+02
2.200000e-07	-7.407632e-06	-8.544596e-09	-5.172445e+01	-5.603060e+02
2.300000e-07	-7.342470e-06	-8.518813e-09	-5.126945e+01	-5.583133e+02
2.400000e-07	-7.274447e-06	-8.472224e-09	-5.079448e+01	-5.562110e+02
2.500000e-07	-7.203649e-06	-8.439876e-09	-5.030012e+01	-5.539940e+02
2.600000e-07	-7.129937e-06	-8.412042e-09	-4.978542e+01	-5.516585e+02
2.700000e-07	-7.053356e-06	-8.360465e-09	-4.925068e+01	-5.492022e+02
2.800000e-07	-6.974007e-06	-8.316843e-09	-4.869662e+01	-5.466250e+02
2.900000e-07	-6.892011e-06	-8.282052e-09	-4.812408e+01	-5.439293e+02
3.000000e-07	-6.807672e-06	-8.255839e-09	-4.753518e+01	-5.411192e+02
3.100000e-07	-6.721014e-06	-8.202061e-09	-4.693008e+01	-5.382003e+02
3.200000e-07	-6.631846e-06	-8.149074e-09	-4.630746e+01	-5.351784e+02
3.300000e-07	-6.540198e-06	-8.115475e-09	-4.566751e+01	-5.320584e+02
3.400000e-07	-6.446249e-06	-8.062804e-09	-4.501151e+01	-5.288434e+02
3.500000e-07	-6.349941e-06	-8.007027e-09	-4.433903e+01	-5.255335e+02
3.600000e-07	-6.251289e-06	-7.957274e-09	-4.365018e+01	-5.221260e+02
3.700000e-07	-6.150394e-06	-7.904412e-09	-4.294568e+01	-5.186151e+02
3.800000e-07	-6.047277e-06	-7.838315e-09	-4.222565e+01	-5.149925e+02
3.900000e-07	-5.941930e-06	-7.779565e-09	-4.149006e+01	-5.112485e+02
4.000000e-07	-5.834498e-06	-7.731438e-09	-4.073990e+01	-5.073732e+02
4.100000e-07	-5.725129e-06	-7.668365e-09	-3.997622e+01	-5.033574e+02
4.200000e-07	-5.613710e-06	-7.598613e-09	-3.919823e+01	-4.991943e+02
4.300000e-07	-5.500084e-06	-7.531637e-09	-3.840483e+01	-4.948796e+02
4.400000e-07	-5.384256e-06	-7.466955e-09	-3.759605e+01	-4.904117e+02
4.500000e-07	-5.266364e-06	-7.393527e-09	-3.677286e+01	-4.857917e+02
4.600000e-07	-5.146626e-06	-7.317201e-09	-3.593677e+01	-4.810221e+02
4.700000e-07	-5.025120e-06	-7.248806e-09	-3.508835e+01	-4.761057e+02
4.800000e-07	-4.901808e-06	-7.176046e-09	-3.422731e+01	-4.710443e+02
4.900000e-07	-4.776779e-06	-7.094306e-09	-3.335428e+01	-4.658371e+02
5.000000e-07	-4.650069e-06	-7.010199e-09	-3.246952e+01	-4.604802e+02
5.100000e-07	-4.521605e-06	-6.924949e-09	-3.157251e+01	-4.549660e+02
5.200000e-07	-4.391373e-06	-6.837178e-09	-3.066315e+01	-4.492835e+02
5.300000e-07	-4.259455e-06	-6.746693e-09	-2.974202e+01	-4.434189e+02
5.400000e-07	-4.126033e-06	-6.652924e-09	-2.881039e+01	-4.373575e+02
5.500000e-07	-3.991138e-06	-6.556297e-09	-2.786848e+01	-4.310850e+02
5.600000e-07	-3.854681e-06	-6.455916e-09	-2.691565e+01	-4.245893e+02
5.700000e-07	-3.716679e-06	-6.350310e-09	-2.595204e+01	-4.178617e+02
5.800000e-07	-3.577162e-06	-6.242522e-09	-2.497785e+01	-4.108981e+02
5.900000e-07	-3.436132e-06	-6.133070e-09	-2.399310e+01	-4.036982e+02
6.000000e-07	-3.293650e-06	-6.022045e-09	-2.299820e+01	-3.962656e+02
6.100000e-07	-3.149837e-06	-5.905874e-09	-2.199401e+01	-3.886054e+02
6.200000e-07	-3.004878e-06	-5.786742e-09	-2.098183e+01	-3.807227e+02
6.300000e-07	-2.858811e-06	-5.665926e-09	-1.996190e+01	-3.726197e+02
6.400000e-07	-2.711775e-06	-5.538707e-09	-1.893521e+01	-3.642939e+02
6.500000e-07	-2.563926e-06	-5.404481e-09	-1.790284e+01	-3.557365e+02
6.600000e-07	-2.415228e-06	-5.265020e-09	-1.686454e+01	-3.469315e+02
6.700000e-07	-2.265771e-06	-5.123987e-09	-1.582095e+01	-3.378559e+02
6.800000e-07	-2.115595e-06	-4.979492e-09	-1.477233e+01	-3.284816e+02
6.900000e-07	-1.964634e-06	-4.831544e-09	-1.371823e+01	-3.187776e+02
7.000000e-07	-1.812893e-06	-4.677409e-09	-1.265869e+01	-3.087128e+02
7.100000e-07	-1.660520e-06	-4.516674e-09	-1.159473e+01	-2.982596e+02
7.200000e-07	-1.507625e-06	-4.350931e-09	-1.052712e+01	-2.873966e+02
7.300000e-07	-1.354195e-06	-4.181521e-09	-9.455790e+00	-2.761102e+02
7.400000e-07	-1.200239e-06	-4.006305e-09	-8.380778e+00	-2.643955e+02
7.500000e-07	-1.045834e-06	-3.821209e-09	-7.302629e+00	-2.522553e+02
7.600000e-07	-8.910557e-07	-3.629822e-09	-6.221876e+00	-2.396969e+02
7.700000e-07	-7.359799e-07	-3.432053e-09	-5.139045e+00	-2.267290e+02
7.800000e-07	-5.806600e-07	-3.227905e-09	-4.054510e+00	-2.133563e+02
7.900000e-07	-4.251613e-07	-3.018105e-09	-2.968727e+00	-1.995743e+02
8.000000e-07	-2.695210e-07	-2.802828e-09	-1.881954e+00	-1.853658e+02
8.100000e-07	-1.137509e-07	-2.577437e-09	-7.942759e-01	-1.706970e+02
8.200000e-07	4.208617e-08	-2.342399e-09	2.938705e-01	-1.555174e+02
8.300000e-07	1.978972e-07	-2.103173e-09	1.381835e+00	-1.397613e+02
8.400000e-07	3.536776e-07	-1.855876e-09	2.469586e+00	-1.233522e+02
8.500000e-07	5.094271e-07	-1.596788e-09	3.557120e+00	-1.062100e+02
8.600000e-07	6.650397e-07	-1.322321e-09	4.643699e+00	-8.826028e+01
8.700000e-07	8.204661e-07	-1.035629e-09	5.728978e+00	-6.944394e+01
8.800000e-07	9.756812e-07	-7.374877e-10	6.812781e+00	-4.972779e+01
8.900000e-07	1.130607e-06	-4.256550e-10	7.894566e+00	-2.911341e+01
9.000000e-07	1.285108e-06	-1.025345e-10	8.973383e+00	-7.643934e+00
9.100000e-07	1.439084e-06	2.324718e-10	1.004853e+01	1.459249e+01
9.200000e-07	1.592555e-06	5.783623e-10	1.112016e+01	3.746298e+01
9.300000e-07	1.745466e-06	9.342050e-10	1.218787e+01	6.079431e+01
9.400000e-07	1.897627e-06	1.294943e-09	1.325035e+01	8.438111e+01
9.500000e-07	2.048908e-06	1.657394e-09	1.430669e+01	1.079971e+02
9.600000e-07	2.199416e-06	2.017806e-09	1.535762e+01	1.314088e+02
9.700000e-07	2.349220e-06	2.370886e-09	1.640364e+01	1.543891e+02
9.800000e-07	2.498121e-06	2.711930e-09	1.744335e+01	1.767316e+02
9.900000e-07	2.646028e-06	3.038355e-09	1.847613e+01	1.982620e+02
1.000000e-06	2.793014e-06	3.349483e-09	1.950247e+01	2.188469e+02
1.010000e-06	2.939017e-06	3.642737e-09	2.052195e+01	2.383987e+02
1.020000e-06	3.083919e-06	3.916351e-09	2.153374e+01	2.568767e+02
1.030000e-06	3.227611e-06	4.172553e-09	2.253708e+01	2.742836e+02
1.040000e-06	3.370090e-06	4.417729e-09	2.353196e+01	2.906594e+02
1.050000e-06	3.511289e-06	4.653219e-09	2.451789e+01	3.060718e+02
1.060000e-06	3.651088e-06	4.875877e-09	2.549405e+01	3.206063e+02
1.070000e-06	3.789505e-06	5.088276e-09	2.646056e+01	3.343548e+02
1.080000e-06	3.926455e-06	5.292017e-09	2.741682e+01	3.474066e+02
1.090000e-06	4.061871e-06	5.484964e-09	2.836237e+01	3.598398e+02
1.100000e-06	4.195895e-06	5.666879e-09	2.929821e+01	3.717169e+02
1.110000e-06	4.328495e-06	5.838670e-09	3.022410e+01	3.830817e+02
1.120000e-06	4.459532e-06	6.000285e-09	3.113908e+01	3.939602e+02
1.130000e-06	4.588988e-06	6.154403e-09	3.204302e+01	4.043635e+02
1.140000e-06	4.716763e-06	6.303258e-09	3.293522e+01	4.142916e+02
1.150000e-06	4.842933e-06	6.446709e-09	3.381621e+01	4.237399e+02
1.160000e-06	4.967498e-06	6.584292e-09	3.468600e+01	4.327035e+02
1.170000e-06	5.090324e-06	6.714496e-09	3.554364e+01	4.411826e+02
1.180000e-06	5.211353e-06	6.836446e-09	3.638874e+01	4.491855e+02
1.190000e-06	5.330497e-06	6.951851e-09	3.722067e+01	4.567301e+02
1.200000e-06	5.447670e-06	7.061461e-09	3.803884e+01	4.638441e+02
1.210000e-06	5.562722e-06	7.162646e-09	3.884220e+01	4.705628e+02
1.220000e-06	5.675576e-06	7.257718e-09	3.963021e+01	4.769266e+02
1.230000e-06	5.786310e-06	7.347915e-09	4.040342e+01	4.829773e+02
1.240000e-06	5.894998e-06	7.433541e-09	4.116235e+01	4.887547e+02
1.250000e-06	6.001561e-06	7.516620e-09	4.190643e+01	4.942932e+02
1.260000e-06	6.105897e-06	7.598587e-09	4.263497e+01	4.996201e+02
1.270000e-06	6.208008e-06	7.677468e-09	4.334797e+01	5.047546e+02
1.280000e-06	6.307852e-06	7.752632e-09	4.404514e+01	5.097074e+02
1.290000e-06	6.405283e-06	7.825732e-09	4.472546e+01	5.144827e+02
1.300000e-06	6.500334e-06	7.896788e-09	4.538916e+01	5.190796e+02
1.310000e-06	6.593147e-06	7.964338e-09	4.603723e+01	5.234948e+02
1.320000e-06	6.683610e-06	8.027129e-09	4.666890e+01	5.277247e+02
1.330000e-06	6.771661e-06	8.085346e-09	4.728373e+01	5.317673e+02
1.340000e-06	6.857361e-06	8.140151e-09	4.788213e+01	5.356234e+02
1.350000e-06	6.940631e-06	8.193325e-09	4.846357e+01	5.392971e+02
1.360000e-06	7.021352e-06	8.245375e-09	4.902722e+01	5.427950e+02
1.370000e-06	7.099510e-06	8.297090e-09	4.957296e+01	5.461256e+02
1.380000e-06	7.175086e-06	8.348622e-09	5.010067e+01	5.492977e+02
1.390000e-06	7.247999e-06	8.398433e-09	5.060979e+01	5.523186e+02
1.400000e-06	7.318285e-06	8.443604e-09	5.110057e+01	5.551936e+02
1.410000e-06	7.385972e-06	8.483966e-09	5.157321e+01	5.579243e+02
1.420000e-06	7.451019e-06	8.520384e-09	5.202740e+01	5.605093e+02
1.430000e-06	7.513490e-06	8.553459e-09	5.246361e+01	5.629443e+02
1.440000e-06	7.573410e-06	8.584730e-09	5.288201e+01	5.652234e+02
1.450000e-06	7.630705e-06	8.614524e-09	5.328208e+01	5.673407e+02
1.460000e-06	7.685249e-06	8.643184e-09	5.366293e+01	5.692914e+02
1.470000e-06	7.736703e-06	8.670451e-09	5.402221e+01	5.710741e+02
1.480000e-06	7.785037e-06	8.696241e-09	5.435971e+01	5.726911e+02
1.490000e-06	7.830561e-06	8.720967e-09	5.467759e+01	5.741488e+02
1.500000e-06	7.873298e-06	8.741765e-09	5.497600e+01	5.754581e+02
1.510000e-06	7.913174e-06	8.757943e-09	5.525444e+01	5.766326e+02
1.520000e-06	7.950297e-06	8.771104e-09	5.551365e+01	5.776876e+02
1.530000e-06	7.984619e-06	8.784733e-09	5.575331e+01	5.786384e+02
1.540000e-06	8.016032e-06	8.799750e-09	5.597266e+01	5.794983e+02
1.550000e-06	8.044674e-06	8.813358e-09	5.617265e+01	5.802772e+02
1.560000e-06	8.070387e-06	8.825702e-09	5.635219e+01	5.809808e+02
1.570000e-06	8.093084e-06	8.836036e-09	5.651068e+01	5.816101e+02
1.580000e-06	8.113015e-06	8.845007e-09	5.664985e+01	5.821620e+02
1.590000e-06	8.130057e-06	8.852728e-09	5.676885e+01	5.826301e+02
1.600000e-06	8.144003e-06	8.859280e-09	5.686623e+01	5.830062e+02
1.610000e-06	8.154802e-06	8.862826e-09	5.694163e+01	5.832821e+02
1.620000e-06	8.162477e-06	8.864756e-09	5.699522e+01	5.834514e+02
1.630000e-06	8.167235e-06	8.866524e-09	5.702844e+01	5.835107e+02
1.640000e-06	8.169105e-06	8.867186e-09	5.704150e+01	5.834602e+02
1.650000e-06	8.168079e-06	8.865368e-09	5.703434e+01	5.833044e+02
1.660000e-06	8.164380e-06	8.858973e-09	5.700851e+01	5.830514e+02
1.670000e-06	8.157971e-06	8.856515e-09	5.696376e+01	5.827120e+02
1.680000e-06	8.148792e-06	8.855772e-09	5.689966e+01	5.822981e+02
1.690000e-06	8.136805e-06	8.853693e-09	5.681597e+01	5.818213e+02
1.700000e-06	8.121938e-06	8.850647e-09	5.671215e+01	5.812914e+02
1.710000e-06	8.104482e-06	8.846089e-09	5.659027e+01	5.807152e+02
1.720000e-06	8.084740e-06	8.836824e-09	5.645242e+01	5.800954e+02
1.730000e-06	8.062393e-06	8.789621e-09	5.629638e+01	5.794312e+02
1.740000e-06	8.036750e-06	8.755172e-09	5.611732e+01	5.787178e+02
1.750000e-06	8.007363e-06	8.766440e-09	5.591212e+01	5.779479e+02
1.760000e-06	7.974554e-06	8.762805e-09	5.568303e+01	5.771126e+02
1.770000e-06	7.939225e-06	8.753731e-09	5.543635e+01	5.762027e+02
1.780000e-06	7.901540e-06	8.769965e-09	5.517320e+01	5.752099e+02
1.790000e-06	7.861589e-06	8.768298e-09	5.489424e+01	5.741275e+02
1.800000e-06	7.819693e-06	8.695857e-09	5.460171e+01	5.729511e+02
1.810000e-06	7.775285e-06	8.703702e-09	5.429162e+01	5.716784e+02
1.820000e-06	7.728007e-06	8.701568e-09	5.396150e+01	5.703089e+02
1.830000e-06	7.677931e-06	8.665760e-09	5.361184e+01	5.688432e+02
1.840000e-06	7.624707e-06	8.685015e-09	5.324020e+01	5.672819e+02
1.850000e-06	7.568541e-06	8.619475e-09	5.284801e+01	5.656252e+02
1.860000e-06	7.509737e-06	8.597340e-09	5.243741e+01	5.638721e+02
1.870000e-06	7.448117e-06	8.566013e-09	5.200714e+01	5.620199e+02
1.880000e-06	7.383727e-06	8.539202e-09	5.155753e+01	5.600648e+02
1.890000e-06	7.316581e-06	8.547956e-09	5.108868e+01	5.580019e+02
1.900000e-06	7.246525e-06	8.475304e-09	5.059951e+01	5.558260e+02
1.910000e-06	7.173574e-06	8.458366e-09	5.009012e+01	5.535328e+02
1.920000e-06	7.097924e-06	8.413350e-09	4.956189e+01	5.511194e+02
1.930000e-06	7.019486e-06	8.368206e-09	4.901419e+01	5.485849e+02
1.940000e-06	6.938309e-06	8.339869e-09	4.844736e+01	5.459308e+02
1.950000e-06	6.854661e-06	8.286687e-09	4.786328e+01	5.431606e+02
1.960000e-06	6.768400e-06	8.267915e-09	4.726096e+01	5.402795e+02
1.970000e-06	6.679548e-06	8.196398e-09	4.664054e+01	5.372934e+02
1.980000e-06	6.588338e-06	8.157115e-09	4.600366e+01	5.342076e+02
1.990000e-06	6.494877e-06	8.118187e-09	4.535106e+01	5.310260e+02
2.000000e-06	6.399085e-06	8.067133e-09	4.468218e+01	5.277497e+02
2.010000e-06	6.301013e-06	8.011841e-09	4.399738e+01	5.243773e+02
2.020000e-06	6.200792e-06	7.953783e-09	4.329758e+01	5.209038e+02
2.030000e-06	6.098213e-06	7.908397e-09	4.258131e+01	5.173218e+02
2.040000e-06	5.993403e-06	7.843409e-09	4.184947e+01	5.136220e+02
2.050000e-06	5.886606e-06	7.791487e-09	4.110375e+01	5.097943e+02
2.060000e-06	5.777850e-06	7.727477e-09	4.034435e+01	5.058293e+02
2.070000e-06	5.666967e-06	7.667957e-09	3.957010e+01	5.017191e+02
2.080000e-06	5.553924e-06	7.600853e-09	3.878077e+01	4.974584e+02
2.090000e-06	5.438850e-06	7.542945e-09	3.797725e+01	4.930449e+02
2.100000e-06	5.321724e-06	7.478985e-09	3.715941e+01	4.884786e+02
2.110000e-06	5.202541e-06	7.403926e-09	3.632721e+01	4.837618e+02
2.120000e-06	5.081423e-06	7.324318e-09	3.548149e+01	4.788972e+02
2.130000e-06	4.958565e-06	7.242059e-09	3.462362e+01	4.738871e+02
2.140000e-06	4.833918e-06	7.168067e-09	3.375326e+01	4.687319e+02
2.150000e-06	4.707441e-06	7.091334e-09	3.287012e+01	4.634288e+02
2.160000e-06	4.579180e-06	7.014191e-09	3.197453e+01	4.579715e+02
2.170000e-06	4.449271e-06	6.925359e-09	3.106743e+01	4.523502e+02
2.180000e-06	4.317796e-06	6.836197e-09	3.014939e+01	4.465519e+02
2.190000e-06	4.184725e-06	6.740279e-09	2.922021e+01	4.405622e+02
2.200000e-06	4.050060e-06	6.645542e-09	2.827991e+01	4.343662e+02
2.210000e-06	3.913823e-06	6.548433e-09	2.732862e+01	4.279511e+02
2.220000e-06	3.776065e-06	6.449176e-09	2.636671e+01	4.213067e+02
2.230000e-06	3.636861e-06	6.344625e-09	2.539471e+01	4.144273e+02
2.240000e-06	3.496268e-06	6.236747e-09	2.441300e+01	4.073112e+02
2.250000e-06	3.354260e-06	6.129023e-09	2.342142e+01	3.999608e+02
2.260000e-06	3.210933e-06	6.016845e-09	2.242063e+01	3.923809e+02
2.270000e-06	3.066409e-06	5.896367e-09	2.141147e+01	3.845768e+02
2.280000e-06	2.920814e-06	5.770590e-09	2.039484e+01	3.765521e+02
2.290000e-06	2.774238e-06	5.647802e-09	1.937137e+01	3.683062e+02
2.300000e-06	2.626742e-06	5.523254e-09	1.834146e+01	3.598327e+02
2.310000e-06	2.478306e-06	5.394593e-09	1.730499e+01	3.511180e+02
2.320000e-06	2.329001e-06	5.256160e-09	1.626246e+01	3.421417e+02
2.330000e-06	2.178869e-06	5.109499e-09	1.521415e+01	3.328772e+02
2.340000e-06	2.027931e-06	4.959008e-09	1.416021e+01	3.232942e+02
2.350000e-06	1.876375e-06	4.808732e-09	1.310196e+01	3.133613e+02
2.360000e-06	1.724204e-06	4.656406e-09	1.203941e+01	3.030493e+02
2.370000e-06	1.571469e-06	4.494871e-09	1.097292e+01	2.923343e+02
2.380000e-06	1.418242e-06	4.325112e-09	9.902999e+00	2.811997e+02
2.390000e-06	1.264515e-06	4.150443e-09	8.829589e+00	2.696377e+02
2.400000e-06	1.110371e-06	3.969650e-09	7.753264e+00	2.576484e+02
2.410000e-06	9.559114e-07	3.782080e-09	6.674737e+00	2.452380e+02
2.420000e-06	8.011496e-07	3.586731e-09	5.594098e+00	2.324152e+02
2.430000e-06	6.461042e-07	3.385358e-09	4.511480e+00	2.191866e+02
2.440000e-06	4.908289e-07	3.176487e-09	3.427257e+00	2.055516e+02
2.450000e-06	3.353810e-07	2.960900e-09	2.341828e+00	1.914981e+02
2.460000e-06	1.797887e-07	2.739998e-09	1.255390e+00	1.769983e+02
2.470000e-06	2.407082e-08	2.508801e-09	1.680766e-01	1.620076e+02
2.480000e-06	-1.317224e-07	2.266703e-09	-9.197635e-01	1.464653e+02
2.490000e-06	-2.875113e-07	2.016216e-09	-2.007573e+00	1.302982e+02
2.500000e-06	-4.431632e-07	1.757837e-09	-3.094426e+00	1.134266e+02
2.510000e-06	-5.986474e-07	1.488264e-09	-4.180109e+00	9.577272e+01
2.520000e-06	-7.539504e-07	1.204198e-09	-5.264525e+00	7.727088e+01
2.530000e-06	-9.090489e-07	9.084180e-10	-6.347515e+00	5.787753e+01
2.540000e-06	-1.063830e-06	6.025243e-10	-7.428286e+00	3.758091e+01
2.550000e-06	-1.218247e-06	2.852971e-10	-8.506518e+00	1.640872e+01
2.560000e-06	-1.372276e-06	-4.557473e-11	-9.582037e+00	-5.567136e+00
2.570000e-06	-1.525768e-06	-3.907740e-10	-1.065381e+01	-2.822946e+01
2.580000e-06	-1.678704e-06	-7.471255e-10	-1.172170e+01	-5.141868e+01
2.590000e-06	-1.831036e-06	-1.111796e-09	-1.278537e+01	-7.493976e+01
2.600000e-06	-1.982676e-06	-1.478815e-09	-1.384421e+01	-9.857245e+01
2.610000e-06	-2.133606e-06	-1.844295e-09	-1.489810e+01	-1.220841e+02
2.620000e-06	-2.283700e-06	-2.204243e-09	-1.594614e+01	-1.452439e+02
2.630000e-06	-2.432825e-06	-2.552102e-09	-1.698742e+01	-1.678364e+02
2.640000e-06	-2.580964e-06	-2.885633e-09	-1.802181e+01	-1.896748e+02
2.650000e-06	-2.728188e-06	-3.201883e-09	-1.904981e+01	-2.106103e+02
2.660000e-06	-2.874478e-06	-3.501555e-09	-2.007130e+01	-2.305385e+02
2.670000e-06	-3.019655e-06	-3.786693e-09	-2.108501e+01	-2.494022e+02
2.680000e-06	-3.163709e-06	-4.055826e-09	-2.209088e+01	-2.671891e+02
2.690000e-06	-3.306579e-06	-4.311695e-09	-2.308848e+01	-2.839270e+02
2.700000e-06	-3.448081e-06	-4.555725e-09	-2.407654e+01	-2.996747e+02
2.710000e-06	-3.588181e-06	-4.787553e-09	-2.505479e+01	-3.145126e+02
2.720000e-06	-3.726973e-06	-5.008495e-09	-2.602392e+01	-3.285316e+02
2.730000e-06	-3.864417e-06	-5.218288e-09	-2.698363e+01	-3.418229e+02
2.740000e-06	-4.000437e-06	-5.417047e-09	-2.793341e+01	-3.544693e+02
2.750000e-06	-4.135008e-06	-5.602787e-09	-2.887306e+01	-3.665394e+02
2.760000e-06	-4.268094e-06	-5.776505e-09	-2.980235e+01	-3.780836e+02
2.770000e-06	-4.399727e-06	-5.941733e-09	-3.072148e+01	-3.891342e+02
2.780000e-06	-4.529885e-06	-6.100250e-09	-3.163032e+01	-3.997071e+02
2.790000e-06	-4.658465e-06	-6.251235e-09	-3.252815e+01	-4.098057e+02
2.800000e-06	-4.785387e-06	-6.396427e-09	-3.341439e+01	-4.194264e+02
2.810000e-06	-4.910612e-06	-6.537165e-09	-3.428878e+01	-4.285637e+02
2.820000e-06	-5.034170e-06	-6.670811e-09	-3.515154e+01	-4.372158e+02
2.830000e-06	-5.156003e-06	-6.797247e-09	-3.600225e+01	-4.453875e+02
2.840000e-06	-5.275929e-06	-6.915381e-09	-3.683964e+01	-4.530935e+02
2.850000e-06	-5.393773e-06	-7.026863e-09	-3.766250e+01	-4.603579e+02
2.860000e-06	-5.509409e-06	-7.133896e-09	-3.846994e+01	-4.672137e+02
2.870000e-06	-5.622809e-06	-7.234681e-09	-3.926176e+01	-4.736999e+02
2.880000e-06	-5.734016e-06	-7.331599e-09	-4.003828e+01	-4.798580e+02
2.890000e-06	-5.843122e-06	-7.424867e-09	-4.080012e+01	-4.857290e+02
2.900000e-06	-5.950225e-06	-7.512914e-09	-4.154798e+01	-4.913496e+02
2.910000e-06	-6.055267e-06	-7.595275e-09	-4.228144e+01	-4.967499e+02
2.920000e-06	-6.157996e-06	-7.671870e-09	-4.299876e+01	-5.019518e+02
2.930000e-06	-6.258383e-06	-7.747079e-09	-4.369971e+01	-5.069691e+02
2.940000e-06	-6.356543e-06	-7.821073e-09	-4.438513e+01	-5.118080e+02
