# Temperatura_=_59.34
# Concentracion g/m^3_=_15000.0
# C_Vs_to_Am_M_A/Vsm_=_65563218390.804596
# pendiente_HvsI_1/m_=_3716.3
# ordenada_HvsI_A/m_=_1297.0
# frecuencia_Hz_=_302361.6629994208

Tiempo_(s)	Campo_(V.s)	Magnetizacion_(V.s)	Campo_(kA/m)	Magnetizacion_(A/m)
0.000000e+00	-8.117391e-06	-1.080852e-08	-5.689368e+01	-7.069725e+02
1.000000e-08	-8.112679e-06	-1.080538e-08	-5.686065e+01	-7.065932e+02
2.000000e-08	-8.105386e-06	-1.079704e-08	-5.680954e+01	-7.061043e+02
3.000000e-08	-8.095241e-06	-1.078915e-08	-5.673844e+01	-7.055179e+02
4.000000e-08	-8.082078e-06	-1.077907e-08	-5.664618e+01	-7.048448e+02
5.000000e-08	-8.066023e-06	-1.076457e-08	-5.653365e+01	-7.040932e+02
6.000000e-08	-8.047432e-06	-1.074742e-08	-5.640335e+01	-7.032681e+02
7.000000e-08	-8.026568e-06	-1.072167e-08	-5.625712e+01	-7.023710e+02
8.000000e-08	-8.003086e-06	-1.073936e-08	-5.609253e+01	-7.014003e+02
9.000000e-08	-7.976420e-06	-1.077029e-08	-5.590564e+01	-7.003521e+02
1.000000e-07	-7.946570e-06	-1.072272e-08	-5.569642e+01	-6.992214e+02
1.100000e-07	-7.913718e-06	-1.067157e-08	-5.546617e+01	-6.980026e+02
1.200000e-07	-7.877991e-06	-1.064426e-08	-5.521576e+01	-6.966908e+02
1.300000e-07	-7.839738e-06	-1.061504e-08	-5.494765e+01	-6.952823e+02
1.400000e-07	-7.799088e-06	-1.056703e-08	-5.466274e+01	-6.937744e+02
1.500000e-07	-7.756099e-06	-1.055711e-08	-5.436144e+01	-6.921654e+02
1.600000e-07	-7.710563e-06	-1.058577e-08	-5.404229e+01	-6.904538e+02
1.700000e-07	-7.662165e-06	-1.045783e-08	-5.370307e+01	-6.886378e+02
1.800000e-07	-7.610905e-06	-1.046197e-08	-5.334379e+01	-6.867141e+02
1.900000e-07	-7.556766e-06	-1.048605e-08	-5.296434e+01	-6.846777e+02
2.000000e-07	-7.499748e-06	-1.039141e-08	-5.256471e+01	-6.825217e+02
2.100000e-07	-7.440021e-06	-1.039779e-08	-5.214609e+01	-6.802376e+02
2.200000e-07	-7.377711e-06	-1.035006e-08	-5.170937e+01	-6.778156e+02
2.300000e-07	-7.312663e-06	-1.031125e-08	-5.125346e+01	-6.752465e+02
2.400000e-07	-7.244770e-06	-1.024709e-08	-5.077760e+01	-6.725220e+02
2.500000e-07	-7.174163e-06	-1.020442e-08	-5.028273e+01	-6.696365e+02
2.600000e-07	-7.100704e-06	-1.017357e-08	-4.976786e+01	-6.665879e+02
2.700000e-07	-7.024363e-06	-1.010081e-08	-4.923280e+01	-6.633776e+02
2.800000e-07	-6.945201e-06	-1.004396e-08	-4.867797e+01	-6.600112e+02
2.900000e-07	-6.863371e-06	-9.985793e-09	-4.810443e+01	-6.564971e+02
3.000000e-07	-6.779243e-06	-9.961694e-09	-4.751479e+01	-6.528453e+02
3.100000e-07	-6.692825e-06	-9.900278e-09	-4.690910e+01	-6.490662e+02
3.200000e-07	-6.603942e-06	-9.823523e-09	-4.628613e+01	-6.451685e+02
3.300000e-07	-6.512596e-06	-9.785699e-09	-4.564589e+01	-6.411580e+02
3.400000e-07	-6.418889e-06	-9.726359e-09	-4.498911e+01	-6.370360e+02
3.500000e-07	-6.322873e-06	-9.655577e-09	-4.431615e+01	-6.327992e+02
3.600000e-07	-6.224557e-06	-9.585265e-09	-4.362707e+01	-6.284398e+02
3.700000e-07	-6.124021e-06	-9.522088e-09	-4.292242e+01	-6.239462e+02
3.800000e-07	-6.021261e-06	-9.439856e-09	-4.220219e+01	-6.193050e+02
3.900000e-07	-5.916259e-06	-9.355270e-09	-4.146625e+01	-6.145021e+02
4.000000e-07	-5.809210e-06	-9.290145e-09	-4.071596e+01	-6.095255e+02
4.100000e-07	-5.700192e-06	-9.216852e-09	-3.995187e+01	-6.043659e+02
4.200000e-07	-5.589128e-06	-9.134699e-09	-3.917343e+01	-5.990185e+02
4.300000e-07	-5.475938e-06	-9.041187e-09	-3.838010e+01	-5.934830e+02
4.400000e-07	-5.360578e-06	-8.955833e-09	-3.757155e+01	-5.877631e+02
4.500000e-07	-5.243155e-06	-8.870450e-09	-3.674856e+01	-5.818654e+02
4.600000e-07	-5.123863e-06	-8.777306e-09	-3.591245e+01	-5.757971e+02
4.700000e-07	-5.002775e-06	-8.684949e-09	-3.506376e+01	-5.695644e+02
4.800000e-07	-4.879846e-06	-8.592473e-09	-3.420217e+01	-5.631703e+02
4.900000e-07	-4.755119e-06	-8.490948e-09	-3.332798e+01	-5.566128e+02
5.000000e-07	-4.628742e-06	-8.379934e-09	-3.244222e+01	-5.498845e+02
5.100000e-07	-4.500721e-06	-8.270933e-09	-3.154494e+01	-5.429722e+02
5.200000e-07	-4.371001e-06	-8.162615e-09	-3.063575e+01	-5.358583e+02
5.300000e-07	-4.239595e-06	-8.049340e-09	-2.971474e+01	-5.285222e+02
5.400000e-07	-4.106628e-06	-7.928687e-09	-2.878279e+01	-5.209431e+02
5.500000e-07	-3.972228e-06	-7.807519e-09	-2.784080e+01	-5.131021e+02
5.600000e-07	-3.836295e-06	-7.685844e-09	-2.688806e+01	-5.049848e+02
5.700000e-07	-3.698739e-06	-7.557034e-09	-2.592395e+01	-4.965825e+02
5.800000e-07	-3.559689e-06	-7.424219e-09	-2.494938e+01	-4.878933e+02
5.900000e-07	-3.419233e-06	-7.288589e-09	-2.396494e+01	-4.789209e+02
6.000000e-07	-3.277344e-06	-7.149411e-09	-2.297045e+01	-4.696735e+02
6.100000e-07	-3.134128e-06	-7.003408e-09	-2.196667e+01	-4.601612e+02
6.200000e-07	-2.989684e-06	-6.853463e-09	-2.095428e+01	-4.503925e+02
6.300000e-07	-2.844074e-06	-6.701302e-09	-1.993373e+01	-4.403717e+02
6.400000e-07	-2.697481e-06	-6.541633e-09	-1.890627e+01	-4.300960e+02
6.500000e-07	-2.550065e-06	-6.374678e-09	-1.787306e+01	-4.195541e+02
6.600000e-07	-2.401862e-06	-6.205105e-09	-1.683432e+01	-4.087254e+02
6.700000e-07	-2.252854e-06	-6.034742e-09	-1.578995e+01	-3.975816e+02
6.800000e-07	-2.103111e-06	-5.858583e-09	-1.474041e+01	-3.860885e+02
6.900000e-07	-1.952665e-06	-5.677942e-09	-1.368597e+01	-3.742101e+02
7.000000e-07	-1.801569e-06	-5.490326e-09	-1.262695e+01	-3.619118e+02
7.100000e-07	-1.649893e-06	-5.295129e-09	-1.156388e+01	-3.491645e+02
7.200000e-07	-1.497632e-06	-5.094578e-09	-1.049670e+01	-3.359476e+02
7.300000e-07	-1.344800e-06	-4.889391e-09	-9.425518e+00	-3.222501e+02
7.400000e-07	-1.191367e-06	-4.676030e-09	-8.350128e+00	-3.080704e+02
7.500000e-07	-1.037474e-06	-4.452648e-09	-7.271513e+00	-2.934139e+02
7.600000e-07	-8.832796e-07	-4.221956e-09	-6.190786e+00	-2.782891e+02
7.700000e-07	-7.288204e-07	-3.983656e-09	-5.108203e+00	-2.627016e+02
7.800000e-07	-5.741406e-07	-3.738652e-09	-4.024073e+00	-2.466484e+02
7.900000e-07	-4.192753e-07	-3.486291e-09	-2.938643e+00	-2.301120e+02
8.000000e-07	-2.642362e-07	-3.227524e-09	-1.851996e+00	-2.130563e+02
8.100000e-07	-1.090550e-07	-2.957758e-09	-7.643513e-01	-1.954243e+02
8.200000e-07	4.623972e-08	-2.676295e-09	3.240879e-01	-1.771390e+02
8.300000e-07	2.015873e-07	-2.384694e-09	1.412898e+00	-1.581075e+02
8.400000e-07	3.568156e-07	-2.079636e-09	2.500872e+00	-1.382285e+02
8.500000e-07	5.119177e-07	-1.758652e-09	3.587961e+00	-1.174023e+02
8.600000e-07	6.669060e-07	-1.420754e-09	4.674253e+00	-9.554279e+01
8.700000e-07	8.217233e-07	-1.072037e-09	5.759346e+00	-7.258988e+01
8.800000e-07	9.763233e-07	-7.098619e-10	6.842917e+00	-4.852127e+01
8.900000e-07	1.130614e-06	-3.304417e-10	7.924320e+00	-2.336198e+01
9.000000e-07	1.284542e-06	6.526301e-11	9.003180e+00	2.809503e+00
9.100000e-07	1.437942e-06	4.749562e-10	1.007834e+01	2.985945e+01
9.200000e-07	1.590648e-06	8.965560e-10	1.114864e+01	5.760192e+01
9.300000e-07	1.742698e-06	1.328729e-09	1.221433e+01	8.580646e+01
9.400000e-07	1.894095e-06	1.763765e-09	1.327545e+01	1.142100e+02
9.500000e-07	2.044814e-06	2.196573e-09	1.433182e+01	1.425319e+02
9.600000e-07	2.194845e-06	2.625503e-09	1.538337e+01	1.704906e+02
9.700000e-07	2.344132e-06	3.046206e-09	1.642970e+01	1.978202e+02
9.800000e-07	2.492517e-06	3.449813e-09	1.746971e+01	2.242862e+02
9.900000e-07	2.639934e-06	3.831983e-09	1.850294e+01	2.496974e+02
1.000000e-06	2.786433e-06	4.193242e-09	1.952973e+01	2.739145e+02
1.010000e-06	2.931859e-06	4.536692e-09	2.054900e+01	2.968538e+02
1.020000e-06	3.076113e-06	4.862648e-09	2.156005e+01	3.184861e+02
1.030000e-06	3.219226e-06	5.170773e-09	2.256311e+01	3.388317e+02
1.040000e-06	3.361122e-06	5.461377e-09	2.355764e+01	3.579509e+02
1.050000e-06	3.501735e-06	5.734294e-09	2.454318e+01	3.759334e+02
1.060000e-06	3.640971e-06	5.991907e-09	2.551907e+01	3.928858e+02
1.070000e-06	3.778769e-06	6.237362e-09	2.648487e+01	4.089198e+02
1.080000e-06	3.915099e-06	6.471954e-09	2.744040e+01	4.241419e+02
1.090000e-06	4.049971e-06	6.696060e-09	2.838569e+01	4.386454e+02
1.100000e-06	4.183455e-06	6.907307e-09	2.932126e+01	4.525057e+02
1.110000e-06	4.315493e-06	7.106739e-09	3.024670e+01	4.657781e+02
1.120000e-06	4.445999e-06	7.297858e-09	3.116140e+01	4.784992e+02
1.130000e-06	4.574880e-06	7.480149e-09	3.206471e+01	4.906896e+02
1.140000e-06	4.702176e-06	7.653442e-09	3.295691e+01	5.023591e+02
1.150000e-06	4.827923e-06	7.820035e-09	3.383826e+01	5.135112e+02
1.160000e-06	4.952042e-06	7.981003e-09	3.470819e+01	5.241488e+02
1.170000e-06	5.074359e-06	8.135595e-09	3.556549e+01	5.342774e+02
1.180000e-06	5.194802e-06	8.283445e-09	3.640966e+01	5.439085e+02
1.190000e-06	5.313477e-06	8.425395e-09	3.724143e+01	5.530600e+02
1.200000e-06	5.430223e-06	8.560886e-09	3.805969e+01	5.617558e+02
1.210000e-06	5.544838e-06	8.688007e-09	3.886301e+01	5.700243e+02
1.220000e-06	5.657230e-06	8.808233e-09	3.965075e+01	5.778958e+02
1.230000e-06	5.767511e-06	8.923650e-09	4.042369e+01	5.854004e+02
1.240000e-06	5.875854e-06	9.033510e-09	4.118306e+01	5.925649e+02
1.250000e-06	5.982024e-06	9.136060e-09	4.192719e+01	5.994121e+02
1.260000e-06	6.085912e-06	9.234110e-09	4.265532e+01	6.059597e+02
1.270000e-06	6.187643e-06	9.326735e-09	4.336834e+01	6.122208e+02
1.280000e-06	6.287116e-06	9.415313e-09	4.406553e+01	6.182049e+02
1.290000e-06	6.384179e-06	9.502207e-09	4.474583e+01	6.239200e+02
1.300000e-06	6.478869e-06	9.585591e-09	4.540951e+01	6.293739e+02
1.310000e-06	6.571307e-06	9.665201e-09	4.605739e+01	6.345761e+02
1.320000e-06	6.661427e-06	9.739845e-09	4.668903e+01	6.395390e+02
1.330000e-06	6.749106e-06	9.811163e-09	4.730356e+01	6.442779e+02
1.340000e-06	6.834386e-06	9.879301e-09	4.790127e+01	6.488103e+02
1.350000e-06	6.917288e-06	9.944564e-09	4.848232e+01	6.531551e+02
1.360000e-06	6.997694e-06	1.000827e-08	4.904588e+01	6.573303e+02
1.370000e-06	7.075527e-06	1.006992e-08	4.959140e+01	6.613511e+02
1.380000e-06	7.150690e-06	1.013159e-08	5.011821e+01	6.652281e+02
1.390000e-06	7.223151e-06	1.019145e-08	5.062608e+01	6.689659e+02
1.400000e-06	7.293036e-06	1.024650e-08	5.111589e+01	6.725627e+02
1.410000e-06	7.360346e-06	1.029579e-08	5.158766e+01	6.760106e+02
1.420000e-06	7.425014e-06	1.034160e-08	5.204091e+01	6.792966e+02
1.430000e-06	7.487157e-06	1.038700e-08	5.247646e+01	6.824054e+02
1.440000e-06	7.546802e-06	1.042996e-08	5.289450e+01	6.853209e+02
1.450000e-06	7.603765e-06	1.046920e-08	5.329375e+01	6.880294e+02
1.460000e-06	7.657946e-06	1.050452e-08	5.367350e+01	6.905219e+02
1.470000e-06	7.709050e-06	1.053717e-08	5.403168e+01	6.927952e+02
1.480000e-06	7.757012e-06	1.056903e-08	5.436783e+01	6.948531e+02
1.490000e-06	7.802201e-06	1.059890e-08	5.468456e+01	6.967061e+02
1.500000e-06	7.844644e-06	1.062563e-08	5.498204e+01	6.983702e+02
1.510000e-06	7.884255e-06	1.064828e-08	5.525967e+01	6.998648e+02
1.520000e-06	7.921201e-06	1.066696e-08	5.551861e+01	7.012108e+02
1.530000e-06	7.955381e-06	1.068469e-08	5.575818e+01	7.024278e+02
1.540000e-06	7.986580e-06	1.070217e-08	5.597685e+01	7.035319e+02
1.550000e-06	8.014994e-06	1.071729e-08	5.617600e+01	7.045342e+02
1.560000e-06	8.040571e-06	1.072941e-08	5.635526e+01	7.054399e+02
1.570000e-06	8.063175e-06	1.074050e-08	5.651369e+01	7.062486e+02
1.580000e-06	8.082950e-06	1.075204e-08	5.665229e+01	7.069546e+02
1.590000e-06	8.099809e-06	1.076184e-08	5.677046e+01	7.075493e+02
1.600000e-06	8.113634e-06	1.076891e-08	5.686735e+01	7.080223e+02
1.610000e-06	8.124341e-06	1.077367e-08	5.694239e+01	7.083643e+02
1.620000e-06	8.131912e-06	1.077719e-08	5.699546e+01	7.085681e+02
1.630000e-06	8.136624e-06	1.077941e-08	5.702848e+01	7.086306e+02
1.640000e-06	8.138481e-06	1.078027e-08	5.704150e+01	7.085529e+02
1.650000e-06	8.137416e-06	1.077840e-08	5.703404e+01	7.083406e+02
1.660000e-06	8.133659e-06	1.077004e-08	5.700771e+01	7.080029e+02
1.670000e-06	8.127196e-06	1.076492e-08	5.696240e+01	7.075512e+02
1.680000e-06	8.117986e-06	1.075872e-08	5.689785e+01	7.069979e+02
1.690000e-06	8.106008e-06	1.075062e-08	5.681390e+01	7.063542e+02
1.700000e-06	8.091173e-06	1.074453e-08	5.670993e+01	7.056294e+02
1.710000e-06	8.073723e-06	1.074044e-08	5.658762e+01	7.048297e+02
1.720000e-06	8.053968e-06	1.073860e-08	5.644916e+01	7.039578e+02
1.730000e-06	8.031613e-06	1.066467e-08	5.629248e+01	7.030132e+02
1.740000e-06	8.005938e-06	1.061640e-08	5.611252e+01	7.019928e+02
1.750000e-06	7.976469e-06	1.064212e-08	5.590598e+01	7.008917e+02
1.760000e-06	7.943581e-06	1.063219e-08	5.567547e+01	6.997045e+02
1.770000e-06	7.908233e-06	1.061073e-08	5.542773e+01	6.984260e+02
1.780000e-06	7.870596e-06	1.063984e-08	5.516393e+01	6.970519e+02
1.790000e-06	7.830701e-06	1.064189e-08	5.488432e+01	6.955792e+02
1.800000e-06	7.788870e-06	1.051000e-08	5.459113e+01	6.940060e+02
1.810000e-06	7.744527e-06	1.057165e-08	5.428033e+01	6.923308e+02
1.820000e-06	7.697340e-06	1.056689e-08	5.394960e+01	6.905519e+02
1.830000e-06	7.647412e-06	1.048720e-08	5.359967e+01	6.886666e+02
1.840000e-06	7.594345e-06	1.052531e-08	5.322773e+01	6.866707e+02
1.850000e-06	7.538340e-06	1.038896e-08	5.283519e+01	6.845579e+02
1.860000e-06	7.479690e-06	1.038841e-08	5.242412e+01	6.823200e+02
1.870000e-06	7.418268e-06	1.034954e-08	5.199363e+01	6.799479e+02
1.880000e-06	7.354108e-06	1.032166e-08	5.154394e+01	6.774319e+02
1.890000e-06	7.287089e-06	1.035530e-08	5.107421e+01	6.747632e+02
1.900000e-06	7.217203e-06	1.022518e-08	5.058439e+01	6.719352e+02
1.910000e-06	7.144490e-06	1.020992e-08	5.007475e+01	6.689444e+02
1.920000e-06	7.069055e-06	1.014598e-08	4.954604e+01	6.657910e+02
1.930000e-06	6.990817e-06	1.011712e-08	4.899768e+01	6.624790e+02
1.940000e-06	6.909868e-06	1.007834e-08	4.843032e+01	6.590160e+02
1.950000e-06	6.826559e-06	9.991308e-09	4.784642e+01	6.554117e+02
1.960000e-06	6.740636e-06	9.977422e-09	4.724420e+01	6.516764e+02
1.970000e-06	6.652059e-06	9.866365e-09	4.662337e+01	6.478198e+02
1.980000e-06	6.561171e-06	9.820618e-09	4.598635e+01	6.438487e+02
1.990000e-06	6.468066e-06	9.762444e-09	4.533379e+01	6.397662e+02
2.000000e-06	6.372575e-06	9.707253e-09	4.466451e+01	6.355706e+02
2.010000e-06	6.274753e-06	9.632400e-09	4.397889e+01	6.312557e+02
2.020000e-06	6.174758e-06	9.554717e-09	4.327803e+01	6.268110e+02
2.030000e-06	6.072507e-06	9.505649e-09	4.256137e+01	6.222236e+02
2.040000e-06	5.968032e-06	9.421774e-09	4.182912e+01	6.174796e+02
2.050000e-06	5.861512e-06	9.350818e-09	4.108254e+01	6.125657e+02
2.060000e-06	5.753092e-06	9.253080e-09	4.032264e+01	6.074718e+02
2.070000e-06	5.642649e-06	9.183673e-09	3.954855e+01	6.021912e+02
2.080000e-06	5.530101e-06	9.100261e-09	3.875972e+01	5.967222e+02
2.090000e-06	5.415475e-06	9.027563e-09	3.795632e+01	5.910671e+02
2.100000e-06	5.298719e-06	8.944890e-09	3.713800e+01	5.852316e+02
2.110000e-06	5.179864e-06	8.850898e-09	3.630496e+01	5.792229e+02
2.120000e-06	5.059058e-06	8.744244e-09	3.545825e+01	5.730479e+02
2.130000e-06	4.936496e-06	8.636433e-09	3.459922e+01	5.667109e+02
2.140000e-06	4.812236e-06	8.548495e-09	3.372830e+01	5.602118e+02
2.150000e-06	4.686250e-06	8.455937e-09	3.284528e+01	5.535453e+02
2.160000e-06	4.558439e-06	8.359418e-09	3.194948e+01	5.467001e+02
2.170000e-06	4.428915e-06	8.244929e-09	3.104166e+01	5.396599e+02
2.180000e-06	4.297860e-06	8.135812e-09	3.012311e+01	5.324051e+02
2.190000e-06	4.165288e-06	8.017445e-09	2.919394e+01	5.249146e+02
2.200000e-06	4.031179e-06	7.900300e-09	2.825399e+01	5.171686e+02
2.210000e-06	3.895502e-06	7.777427e-09	2.730304e+01	5.091508e+02
2.220000e-06	3.758267e-06	7.653435e-09	2.634118e+01	5.008504e+02
2.230000e-06	3.619630e-06	7.521695e-09	2.536949e+01	4.922630e+02
2.240000e-06	3.479648e-06	7.387543e-09	2.438838e+01	4.833905e+02
2.250000e-06	3.338261e-06	7.254592e-09	2.339742e+01	4.742398e+02
2.260000e-06	3.195564e-06	7.116113e-09	2.239727e+01	4.648205e+02
2.270000e-06	3.051602e-06	6.968128e-09	2.138826e+01	4.551421e+02
2.280000e-06	2.906479e-06	6.812423e-09	2.037112e+01	4.452107e+02
2.290000e-06	2.760324e-06	6.661492e-09	1.934673e+01	4.350264e+02
2.300000e-06	2.613297e-06	6.508856e-09	1.831624e+01	4.245810e+02
2.310000e-06	2.465507e-06	6.350156e-09	1.728040e+01	4.138572e+02
2.320000e-06	2.316845e-06	6.178998e-09	1.623845e+01	4.028291e+02
2.330000e-06	2.167271e-06	5.997423e-09	1.519010e+01	3.914644e+02
2.340000e-06	2.016857e-06	5.812062e-09	1.413587e+01	3.797273e+02
2.350000e-06	1.865793e-06	5.628109e-09	1.307709e+01	3.675821e+02
2.360000e-06	1.714160e-06	5.441926e-09	1.201432e+01	3.549976e+02
2.370000e-06	1.561951e-06	5.244612e-09	1.094750e+01	3.419497e+02
2.380000e-06	1.409251e-06	5.037936e-09	9.877247e+00	3.284240e+02
2.390000e-06	1.256057e-06	4.825405e-09	8.803530e+00	3.144156e+02
2.400000e-06	1.102397e-06	4.605408e-09	7.726548e+00	2.999281e+02
2.410000e-06	9.483968e-07	4.379295e-09	6.647183e+00	2.849691e+02
2.420000e-06	7.941085e-07	4.147155e-09	5.565798e+00	2.695461e+02
2.430000e-06	6.395336e-07	3.906452e-09	4.482404e+00	2.536599e+02
2.440000e-06	4.847133e-07	3.653842e-09	3.397289e+00	2.372987e+02
2.450000e-06	3.297186e-07	3.393396e-09	2.310953e+00	2.204335e+02
2.460000e-06	1.746068e-07	3.127473e-09	1.223795e+00	2.030147e+02
2.470000e-06	1.938699e-08	2.849683e-09	1.358808e-01	1.849721e+02
2.480000e-06	-1.358647e-07	2.559196e-09	-9.522574e-01	1.662180e+02
2.490000e-06	-2.910675e-07	2.258526e-09	-2.040052e+00	1.466530e+02
2.500000e-06	-4.462173e-07	1.946558e-09	-3.127476e+00	1.261755e+02
2.510000e-06	-6.012452e-07	1.621356e-09	-4.214045e+00	1.046931e+02
2.520000e-06	-7.560803e-07	1.280371e-09	-5.299263e+00	8.213494e+01
2.530000e-06	-9.106982e-07	9.226166e-10	-6.382959e+00	5.846406e+01
2.540000e-06	-1.065045e-06	5.484597e-10	-7.464753e+00	3.368767e+01
2.550000e-06	-1.218970e-06	1.593020e-10	-8.543593e+00	7.864709e+00
2.560000e-06	-1.372367e-06	-2.442205e-10	-9.618735e+00	-1.889073e+01
2.570000e-06	-1.525249e-06	-6.620954e-10	-1.069026e+01	-4.641071e+01
2.580000e-06	-1.677506e-06	-1.093881e-09	-1.175741e+01	-7.447951e+01
2.590000e-06	-1.829169e-06	-1.535375e-09	-1.282040e+01	-1.028441e+02
2.600000e-06	-1.980257e-06	-1.979680e-09	-1.387935e+01	-1.312283e+02
2.610000e-06	-2.130596e-06	-2.419534e-09	-1.493306e+01	-1.593489e+02
2.620000e-06	-2.280022e-06	-2.845778e-09	-1.598036e+01	-1.869325e+02
2.630000e-06	-2.428477e-06	-3.252465e-09	-1.702087e+01	-2.137318e+02
2.640000e-06	-2.576078e-06	-3.642172e-09	-1.805538e+01	-2.395390e+02
2.650000e-06	-2.722804e-06	-4.015903e-09	-1.908376e+01	-2.641955e+02
2.660000e-06	-2.868527e-06	-4.370481e-09	-2.010511e+01	-2.875978e+02
2.670000e-06	-3.013154e-06	-4.703959e-09	-2.111878e+01	-3.096975e+02
2.680000e-06	-3.156600e-06	-5.018954e-09	-2.212418e+01	-3.304980e+02
2.690000e-06	-3.298779e-06	-5.318732e-09	-2.312069e+01	-3.500467e+02
2.700000e-06	-3.439619e-06	-5.603814e-09	-2.410782e+01	-3.684240e+02
2.710000e-06	-3.579156e-06	-5.873298e-09	-2.508582e+01	-3.857320e+02
2.720000e-06	-3.717384e-06	-6.127300e-09	-2.605463e+01	-4.020818e+02
2.730000e-06	-3.854234e-06	-6.367308e-09	-2.701380e+01	-4.175828e+02
2.740000e-06	-3.989723e-06	-6.595293e-09	-2.796342e+01	-4.323337e+02
2.750000e-06	-4.123764e-06	-6.813808e-09	-2.890290e+01	-4.464168e+02
2.760000e-06	-4.256314e-06	-7.023134e-09	-2.983192e+01	-4.598945e+02
2.770000e-06	-4.387395e-06	-7.220880e-09	-3.075065e+01	-4.728099e+02
2.780000e-06	-4.516995e-06	-7.408486e-09	-3.165900e+01	-4.851888e+02
2.790000e-06	-4.645065e-06	-7.588259e-09	-3.255663e+01	-4.970442e+02
2.800000e-06	-4.771481e-06	-7.759813e-09	-3.344266e+01	-5.083812e+02
2.810000e-06	-4.896252e-06	-7.922954e-09	-3.431716e+01	-5.192026e+02
2.820000e-06	-5.019376e-06	-8.077525e-09	-3.518012e+01	-5.295125e+02
2.830000e-06	-5.140698e-06	-8.226065e-09	-3.603045e+01	-5.393201e+02
2.840000e-06	-5.260026e-06	-8.367896e-09	-3.686680e+01	-5.486409e+02
2.850000e-06	-5.377214e-06	-8.502867e-09	-3.768816e+01	-5.574968e+02
2.860000e-06	-5.492223e-06	-8.634397e-09	-3.849424e+01	-5.659150e+02
2.870000e-06	-5.604998e-06	-8.759956e-09	-3.928467e+01	-5.739253e+02
2.880000e-06	-5.715631e-06	-8.878937e-09	-4.006008e+01	-5.815581e+02
2.890000e-06	-5.824263e-06	-8.991910e-09	-4.082146e+01	-5.888416e+02
2.900000e-06	-5.930860e-06	-9.099710e-09	-4.156859e+01	-5.958004e+02
2.910000e-06	-6.035308e-06	-9.201428e-09	-4.230065e+01	-6.024537e+02
2.920000e-06	-6.137465e-06	-9.296523e-09	-4.301666e+01	-6.088163e+02
2.930000e-06	-6.237404e-06	-9.388254e-09	-4.371712e+01	-6.148989e+02
2.940000e-06	-6.335208e-06	-9.476424e-09	-4.440261e+01	-6.207097e+02
