# Temperatura_=_73.97
# Concentracion g/m^3_=_15000.0
# C_Vs_to_Am_M_A/Vsm_=_65563218390.804596
# pendiente_HvsI_1/m_=_3716.3
# ordenada_HvsI_A/m_=_1297.0
# frecuencia_Hz_=_302362.11174461414

Tiempo_(s)	Campo_(V.s)	Magnetizacion_(V.s)	Campo_(kA/m)	Magnetizacion_(A/m)
0.000000e+00	-8.128659e-06	-1.255318e-08	-5.690075e+01	-8.218167e+02
1.000000e-08	-8.124191e-06	-1.255137e-08	-5.686948e+01	-8.213445e+02
2.000000e-08	-8.117185e-06	-1.254149e-08	-5.682044e+01	-8.207342e+02
3.000000e-08	-8.107439e-06	-1.253090e-08	-5.675222e+01	-8.200036e+02
4.000000e-08	-8.094794e-06	-1.251871e-08	-5.666370e+01	-8.191694e+02
5.000000e-08	-8.079188e-06	-1.250109e-08	-5.655446e+01	-8.182445e+02
6.000000e-08	-8.060922e-06	-1.247795e-08	-5.642660e+01	-8.172372e+02
7.000000e-08	-8.040381e-06	-1.244893e-08	-5.628281e+01	-8.161503e+02
8.000000e-08	-8.017295e-06	-1.244144e-08	-5.612120e+01	-8.149810e+02
9.000000e-08	-7.991110e-06	-1.250328e-08	-5.593791e+01	-8.137225e+02
1.000000e-07	-7.961688e-06	-1.246570e-08	-5.573196e+01	-8.123650e+02
1.100000e-07	-7.929268e-06	-1.238490e-08	-5.550502e+01	-8.108976e+02
1.200000e-07	-7.893942e-06	-1.235620e-08	-5.525773e+01	-8.093104e+02
1.300000e-07	-7.856030e-06	-1.232539e-08	-5.499235e+01	-8.075949e+02
1.400000e-07	-7.815757e-06	-1.226358e-08	-5.471044e+01	-8.057455e+02
1.500000e-07	-7.773103e-06	-1.219480e-08	-5.441186e+01	-8.037593e+02
1.600000e-07	-7.727900e-06	-1.230274e-08	-5.409544e+01	-8.016353e+02
1.700000e-07	-7.679834e-06	-1.218494e-08	-5.375897e+01	-7.993737e+02
1.800000e-07	-7.628883e-06	-1.208046e-08	-5.340232e+01	-7.969745e+02
1.900000e-07	-7.575003e-06	-1.218182e-08	-5.302515e+01	-7.944362e+02
2.000000e-07	-7.518185e-06	-1.205390e-08	-5.262743e+01	-7.917551e+02
2.100000e-07	-7.458688e-06	-1.200586e-08	-5.221095e+01	-7.889249e+02
2.200000e-07	-7.396612e-06	-1.197511e-08	-5.177641e+01	-7.859368e+02
2.300000e-07	-7.331865e-06	-1.191774e-08	-5.132318e+01	-7.827809e+02
2.400000e-07	-7.264355e-06	-1.187028e-08	-5.085061e+01	-7.794467e+02
2.500000e-07	-7.194067e-06	-1.178983e-08	-5.035860e+01	-7.759256e+02
2.600000e-07	-7.120908e-06	-1.178660e-08	-4.984649e+01	-7.722117e+02
2.700000e-07	-7.044854e-06	-1.170364e-08	-4.931410e+01	-7.683029e+02
2.800000e-07	-6.965966e-06	-1.161425e-08	-4.876189e+01	-7.642020e+02
2.900000e-07	-6.884405e-06	-1.153134e-08	-4.819095e+01	-7.599159e+02
3.000000e-07	-6.800505e-06	-1.149545e-08	-4.760366e+01	-7.554549e+02
3.100000e-07	-6.714276e-06	-1.146383e-08	-4.700005e+01	-7.508308e+02
3.200000e-07	-6.625566e-06	-1.134602e-08	-4.637908e+01	-7.460555e+02
3.300000e-07	-6.534408e-06	-1.129424e-08	-4.574097e+01	-7.411385e+02
3.400000e-07	-6.440933e-06	-1.122250e-08	-4.508665e+01	-7.360854e+02
3.500000e-07	-6.345191e-06	-1.113373e-08	-4.441645e+01	-7.308964e+02
3.600000e-07	-6.247102e-06	-1.103497e-08	-4.372983e+01	-7.255664e+02
3.700000e-07	-6.146743e-06	-1.095856e-08	-4.302731e+01	-7.200851e+02
3.800000e-07	-6.044161e-06	-1.088752e-08	-4.230923e+01	-7.144384e+02
3.900000e-07	-5.939424e-06	-1.077862e-08	-4.157608e+01	-7.086105e+02
4.000000e-07	-5.832603e-06	-1.069143e-08	-4.082832e+01	-7.025857e+02
4.100000e-07	-5.723729e-06	-1.059860e-08	-4.006621e+01	-6.963510e+02
4.200000e-07	-5.612786e-06	-1.051373e-08	-3.928960e+01	-6.898976e+02
4.300000e-07	-5.499783e-06	-1.039147e-08	-3.849858e+01	-6.832217e+02
4.400000e-07	-5.384687e-06	-1.027742e-08	-3.769291e+01	-6.763246e+02
4.500000e-07	-5.267438e-06	-1.018090e-08	-3.687216e+01	-6.692122e+02
4.600000e-07	-5.148279e-06	-1.008479e-08	-3.603804e+01	-6.618923e+02
4.700000e-07	-5.027379e-06	-9.968300e-09	-3.519174e+01	-6.543734e+02
4.800000e-07	-4.904627e-06	-9.847103e-09	-3.433247e+01	-6.466615e+02
4.900000e-07	-4.780039e-06	-9.735173e-09	-3.346036e+01	-6.387584e+02
5.000000e-07	-4.653750e-06	-9.600030e-09	-3.257633e+01	-6.306598e+02
5.100000e-07	-4.525836e-06	-9.463584e-09	-3.168093e+01	-6.223555e+02
5.200000e-07	-4.396261e-06	-9.336008e-09	-3.077390e+01	-6.138290e+02
5.300000e-07	-4.264981e-06	-9.216093e-09	-2.985494e+01	-6.050600e+02
5.400000e-07	-4.132174e-06	-9.070275e-09	-2.892529e+01	-5.960262e+02
5.500000e-07	-3.997815e-06	-8.917422e-09	-2.798477e+01	-5.867064e+02
5.600000e-07	-3.861882e-06	-8.771702e-09	-2.703324e+01	-5.770831e+02
5.700000e-07	-3.724534e-06	-8.622146e-09	-2.607181e+01	-5.671445e+02
5.800000e-07	-3.585608e-06	-8.460734e-09	-2.509932e+01	-5.568859e+02
5.900000e-07	-3.445073e-06	-8.299955e-09	-2.411557e+01	-5.463096e+02
6.000000e-07	-3.303166e-06	-8.143379e-09	-2.312222e+01	-5.354233e+02
6.100000e-07	-3.159971e-06	-7.972168e-09	-2.211985e+01	-5.242381e+02
6.200000e-07	-3.015528e-06	-7.795598e-09	-2.110875e+01	-5.127645e+02
6.300000e-07	-2.869959e-06	-7.617028e-09	-2.008976e+01	-5.010095e+02
6.400000e-07	-2.723402e-06	-7.435213e-09	-1.906386e+01	-4.889732e+02
6.500000e-07	-2.575896e-06	-7.240203e-09	-1.803132e+01	-4.766461e+02
6.600000e-07	-2.427561e-06	-7.042455e-09	-1.699297e+01	-4.640091e+02
6.700000e-07	-2.278519e-06	-6.845424e-09	-1.594967e+01	-4.510332e+02
6.800000e-07	-2.128714e-06	-6.640264e-09	-1.490104e+01	-4.376825e+02
6.900000e-07	-1.978106e-06	-6.430387e-09	-1.384677e+01	-4.239173e+02
7.000000e-07	-1.826808e-06	-6.213328e-09	-1.278768e+01	-4.096985e+02
7.100000e-07	-1.674998e-06	-5.988828e-09	-1.172501e+01	-3.949921e+02
7.200000e-07	-1.522709e-06	-5.754388e-09	-1.065899e+01	-3.797721e+02
7.300000e-07	-1.369856e-06	-5.516483e-09	-9.589016e+00	-3.640231e+02
7.400000e-07	-1.216437e-06	-5.270760e-09	-8.515080e+00	-3.477401e+02
7.500000e-07	-1.062596e-06	-5.014831e-09	-7.438194e+00	-3.309257e+02
7.600000e-07	-9.083361e-07	-4.751904e-09	-6.358369e+00	-3.135863e+02
7.700000e-07	-7.536626e-07	-4.480380e-09	-5.275651e+00	-2.957255e+02
7.800000e-07	-5.986807e-07	-4.200763e-09	-4.190776e+00	-2.773373e+02
7.900000e-07	-4.434030e-07	-3.913444e-09	-3.103829e+00	-2.583995e+02
8.000000e-07	-2.879485e-07	-3.618651e-09	-2.015645e+00	-2.388686e+02
8.100000e-07	-1.324083e-07	-3.307637e-09	-9.268606e-01	-2.186765e+02
8.200000e-07	2.318975e-08	-2.981869e-09	1.623286e-01	-1.977322e+02
8.300000e-07	1.788204e-07	-2.646984e-09	1.251746e+00	-1.759256e+02
8.400000e-07	3.344327e-07	-2.299687e-09	2.341035e+00	-1.531363e+02
8.500000e-07	4.899376e-07	-1.933280e-09	3.429572e+00	-1.292456e+02
8.600000e-07	6.453231e-07	-1.547464e-09	4.517273e+00	-1.041503e+02
8.700000e-07	8.005322e-07	-1.147906e-09	5.603740e+00	-7.777777e+01
8.800000e-07	9.554397e-07	-7.325270e-10	6.688095e+00	-5.010030e+01
8.900000e-07	1.109998e-06	-3.004424e-10	7.770006e+00	-2.114637e+01
9.000000e-07	1.264128e-06	1.483079e-10	8.848919e+00	8.991597e+00
9.100000e-07	1.417687e-06	6.153245e-10	9.923832e+00	4.015501e+01
9.200000e-07	1.570636e-06	1.104918e-09	1.099448e+01	7.212260e+01
9.300000e-07	1.722978e-06	1.608723e-09	1.206088e+01	1.046197e+02
9.400000e-07	1.874730e-06	2.112737e-09	1.312314e+01	1.373329e+02
9.500000e-07	2.025850e-06	2.612785e-09	1.418098e+01	1.699277e+02
9.600000e-07	2.176211e-06	3.106596e-09	1.523352e+01	2.020697e+02
9.700000e-07	2.325711e-06	3.587047e-09	1.628002e+01	2.334446e+02
9.800000e-07	2.474346e-06	4.045966e-09	1.732046e+01	2.637766e+02
9.900000e-07	2.622144e-06	4.479702e-09	1.835506e+01	2.928441e+02
1.000000e-06	2.768983e-06	4.889796e-09	1.938293e+01	3.204892e+02
1.010000e-06	2.914747e-06	5.279629e-09	2.040328e+01	3.466219e+02
1.020000e-06	3.059410e-06	5.648178e-09	2.141593e+01	3.712185e+02
1.030000e-06	3.202931e-06	5.996862e-09	2.242057e+01	3.943145e+02
1.040000e-06	3.345219e-06	6.327553e-09	2.341659e+01	4.159931e+02
1.050000e-06	3.486251e-06	6.641379e-09	2.440382e+01	4.363708e+02
1.060000e-06	3.625994e-06	6.937768e-09	2.538202e+01	4.555822e+02
1.070000e-06	3.764269e-06	7.217283e-09	2.634995e+01	4.737653e+02
1.080000e-06	3.901015e-06	7.483211e-09	2.730717e+01	4.910487e+02
1.090000e-06	4.036286e-06	7.735540e-09	2.825407e+01	5.075424e+02
1.100000e-06	4.170091e-06	7.973750e-09	2.919071e+01	5.233324e+02
1.110000e-06	4.302498e-06	8.199319e-09	3.011756e+01	5.384791e+02
1.120000e-06	4.433390e-06	8.417307e-09	3.103381e+01	5.530197e+02
1.130000e-06	4.562638e-06	8.628954e-09	3.193855e+01	5.669728e+02
1.140000e-06	4.690311e-06	8.830382e-09	3.283226e+01	5.803451e+02
1.150000e-06	4.816347e-06	9.021060e-09	3.371452e+01	5.931383e+02
1.160000e-06	4.940797e-06	9.203852e-09	3.458567e+01	6.053555e+02
1.170000e-06	5.063593e-06	9.380037e-09	3.544524e+01	6.170058e+02
1.180000e-06	5.184541e-06	9.546902e-09	3.629188e+01	6.281072e+02
1.190000e-06	5.303619e-06	9.706833e-09	3.712543e+01	6.386865e+02
1.200000e-06	5.420746e-06	9.861278e-09	3.794532e+01	6.487782e+02
1.210000e-06	5.535781e-06	1.001106e-08	3.875056e+01	6.584207e+02
1.220000e-06	5.648620e-06	1.015505e-08	3.954044e+01	6.676525e+02
1.230000e-06	5.759270e-06	1.029354e-08	4.031499e+01	6.765082e+02
1.240000e-06	5.867945e-06	1.042701e-08	4.107572e+01	6.850152e+02
1.250000e-06	5.974594e-06	1.055255e-08	4.182226e+01	6.931916e+02
1.260000e-06	6.078970e-06	1.067177e-08	4.255290e+01	7.010462e+02
1.270000e-06	6.181103e-06	1.078273e-08	4.326783e+01	7.085795e+02
1.280000e-06	6.281005e-06	1.088837e-08	4.396714e+01	7.157867e+02
1.290000e-06	6.378538e-06	1.099067e-08	4.464988e+01	7.226614e+02
1.300000e-06	6.473614e-06	1.108864e-08	4.531541e+01	7.291988e+02
1.310000e-06	6.566441e-06	1.118243e-08	4.596520e+01	7.354000e+02
1.320000e-06	6.656982e-06	1.127051e-08	4.659899e+01	7.412737e+02
1.330000e-06	6.745040e-06	1.135600e-08	4.721540e+01	7.468372e+02
1.340000e-06	6.830727e-06	1.143873e-08	4.781521e+01	7.521159e+02
1.350000e-06	6.914085e-06	1.151805e-08	4.839872e+01	7.571412e+02
1.360000e-06	6.994929e-06	1.159197e-08	4.896463e+01	7.619469e+02
1.370000e-06	7.073207e-06	1.166112e-08	4.951257e+01	7.665657e+02
1.380000e-06	7.148912e-06	1.172976e-08	5.004251e+01	7.710249e+02
1.390000e-06	7.221891e-06	1.179792e-08	5.055337e+01	7.753435e+02
1.400000e-06	7.292237e-06	1.186259e-08	5.104579e+01	7.795300e+02
1.410000e-06	7.360089e-06	1.192274e-08	5.152076e+01	7.835817e+02
1.420000e-06	7.425292e-06	1.197983e-08	5.197717e+01	7.874860e+02
1.430000e-06	7.487868e-06	1.203598e-08	5.241521e+01	7.912224e+02
1.440000e-06	7.547961e-06	1.208999e-08	5.283586e+01	7.947663e+02
1.450000e-06	7.605434e-06	1.213968e-08	5.323818e+01	7.980926e+02
1.460000e-06	7.660206e-06	1.218427e-08	5.362158e+01	8.011801e+02
1.470000e-06	7.712026e-06	1.222532e-08	5.398432e+01	8.040146e+02
1.480000e-06	7.760625e-06	1.226436e-08	5.432451e+01	8.065910e+02
1.490000e-06	7.806268e-06	1.230016e-08	5.464401e+01	8.089138e+02
1.500000e-06	7.849123e-06	1.233155e-08	5.494400e+01	8.109970e+02
1.510000e-06	7.889171e-06	1.235922e-08	5.522433e+01	8.128616e+02
1.520000e-06	7.926503e-06	1.238561e-08	5.548566e+01	8.145326e+02
1.530000e-06	7.961076e-06	1.241144e-08	5.572768e+01	8.160358e+02
1.540000e-06	7.992744e-06	1.243510e-08	5.594935e+01	8.173942e+02
1.550000e-06	8.021614e-06	1.245498e-08	5.615144e+01	8.186252e+02
1.560000e-06	8.047649e-06	1.247126e-08	5.633369e+01	8.197389e+02
1.570000e-06	8.070692e-06	1.248446e-08	5.649499e+01	8.207372e+02
1.580000e-06	8.090933e-06	1.249656e-08	5.663667e+01	8.216149e+02
1.590000e-06	8.108260e-06	1.250655e-08	5.675797e+01	8.223609e+02
1.600000e-06	8.122530e-06	1.251413e-08	5.685786e+01	8.229613e+02
1.610000e-06	8.133682e-06	1.252011e-08	5.693592e+01	8.234020e+02
1.620000e-06	8.141599e-06	1.252440e-08	5.699134e+01	8.236715e+02
1.630000e-06	8.146610e-06	1.252844e-08	5.702641e+01	8.237632e+02
1.640000e-06	8.148765e-06	1.253075e-08	5.704150e+01	8.236766e+02
1.650000e-06	8.148058e-06	1.253453e-08	5.703655e+01	8.234178e+02
1.660000e-06	8.144752e-06	1.252541e-08	5.701341e+01	8.229986e+02
1.670000e-06	8.138730e-06	1.251958e-08	5.697126e+01	8.224350e+02
1.680000e-06	8.129899e-06	1.251333e-08	5.690944e+01	8.217447e+02
1.690000e-06	8.118318e-06	1.250060e-08	5.682837e+01	8.209452e+02
1.700000e-06	8.103866e-06	1.248849e-08	5.672720e+01	8.200508e+02
1.710000e-06	8.086748e-06	1.248087e-08	5.660738e+01	8.190718e+02
1.720000e-06	8.067317e-06	1.248291e-08	5.647136e+01	8.180128e+02
1.730000e-06	8.045339e-06	1.242912e-08	5.631751e+01	8.168729e+02
1.740000e-06	8.020212e-06	1.232854e-08	5.614163e+01	8.156467e+02
1.750000e-06	7.991345e-06	1.236067e-08	5.593956e+01	8.143251e+02
1.760000e-06	7.958924e-06	1.237202e-08	5.571261e+01	8.128977e+02
1.770000e-06	7.923930e-06	1.232708e-08	5.546765e+01	8.113537e+02
1.780000e-06	7.886641e-06	1.233356e-08	5.520663e+01	8.096842e+02
1.790000e-06	7.847009e-06	1.241523e-08	5.492921e+01	8.078826e+02
1.800000e-06	7.805402e-06	1.224060e-08	5.463795e+01	8.059448e+02
1.810000e-06	7.761428e-06	1.218265e-08	5.433013e+01	8.038694e+02
1.820000e-06	7.714535e-06	1.230222e-08	5.400188e+01	8.016564e+02
1.830000e-06	7.664917e-06	1.211713e-08	5.365456e+01	7.993058e+02
1.840000e-06	7.612280e-06	1.221166e-08	5.328610e+01	7.968169e+02
1.850000e-06	7.556603e-06	1.213205e-08	5.289635e+01	7.941868e+02
1.860000e-06	7.498251e-06	1.206156e-08	5.248789e+01	7.914101e+02
1.870000e-06	7.437168e-06	1.208289e-08	5.206030e+01	7.884790e+02
1.880000e-06	7.373328e-06	1.193194e-08	5.161343e+01	7.853836e+02
1.890000e-06	7.306608e-06	1.202268e-08	5.114639e+01	7.821136e+02
1.900000e-06	7.237086e-06	1.188239e-08	5.065973e+01	7.786595e+02
1.910000e-06	7.164732e-06	1.180260e-08	5.015325e+01	7.750143e+02
1.920000e-06	7.089583e-06	1.176773e-08	4.962721e+01	7.711745e+02
1.930000e-06	7.011675e-06	1.170059e-08	4.908185e+01	7.671410e+02
1.940000e-06	6.931009e-06	1.171934e-08	4.851719e+01	7.629195e+02
1.950000e-06	6.847882e-06	1.156572e-08	4.793529e+01	7.585189e+02
1.960000e-06	6.762170e-06	1.154841e-08	4.733531e+01	7.539511e+02
1.970000e-06	6.673834e-06	1.143624e-08	4.671696e+01	7.492280e+02
1.980000e-06	6.583110e-06	1.134030e-08	4.608189e+01	7.443601e+02
1.990000e-06	6.490119e-06	1.129529e-08	4.543095e+01	7.393547e+02
2.000000e-06	6.394871e-06	1.123419e-08	4.476421e+01	7.342140e+02
2.010000e-06	6.297293e-06	1.117638e-08	4.408116e+01	7.289347e+02
2.020000e-06	6.197490e-06	1.102864e-08	4.338254e+01	7.235083e+02
2.030000e-06	6.095500e-06	1.096056e-08	4.266861e+01	7.179218e+02
2.040000e-06	5.991283e-06	1.086855e-08	4.193908e+01	7.121599e+02
2.050000e-06	5.884922e-06	1.080182e-08	4.119456e+01	7.062065e+02
2.060000e-06	5.776628e-06	1.069276e-08	4.043650e+01	7.000474e+02
2.070000e-06	5.666318e-06	1.059793e-08	3.966433e+01	6.936722e+02
2.080000e-06	5.553845e-06	1.050749e-08	3.887701e+01	6.870753e+02
2.090000e-06	5.439325e-06	1.039547e-08	3.807537e+01	6.802562e+02
2.100000e-06	5.322837e-06	1.029115e-08	3.725996e+01	6.732192e+02
2.110000e-06	5.204281e-06	1.018531e-08	3.643006e+01	6.659718e+02
2.120000e-06	5.083723e-06	1.007333e-08	3.558615e+01	6.585225e+02
2.130000e-06	4.961363e-06	9.927292e-09	3.472963e+01	6.508785e+02
2.140000e-06	4.837142e-06	9.821582e-09	3.386008e+01	6.430432e+02
2.150000e-06	4.711237e-06	9.721344e-09	3.297874e+01	6.350148e+02
2.160000e-06	4.583615e-06	9.611317e-09	3.208539e+01	6.267849e+02
2.170000e-06	4.454256e-06	9.458636e-09	3.117987e+01	6.183393e+02
2.180000e-06	4.323286e-06	9.313444e-09	3.026308e+01	6.096589e+02
2.190000e-06	4.190757e-06	9.176294e-09	2.933537e+01	6.007216e+02
2.200000e-06	4.056741e-06	9.040485e-09	2.839726e+01	5.915057e+02
2.210000e-06	3.921125e-06	8.903674e-09	2.744794e+01	5.819918e+02
2.220000e-06	3.783888e-06	8.762818e-09	2.648729e+01	5.721661e+02
2.230000e-06	3.645201e-06	8.603916e-09	2.551647e+01	5.620213e+02
2.240000e-06	3.505207e-06	8.429381e-09	2.453651e+01	5.515572e+02
2.250000e-06	3.363899e-06	8.269246e-09	2.354735e+01	5.407799e+02
2.260000e-06	3.221260e-06	8.114711e-09	2.254887e+01	5.296996e+02
2.270000e-06	3.077243e-06	7.953513e-09	2.154076e+01	5.183273e+02
2.280000e-06	2.932031e-06	7.768340e-09	2.052427e+01	5.066718e+02
2.290000e-06	2.785859e-06	7.581059e-09	1.950107e+01	4.947359e+02
2.300000e-06	2.638703e-06	7.393949e-09	1.847097e+01	4.825138e+02
2.310000e-06	2.490630e-06	7.206227e-09	1.743445e+01	4.699897e+02
2.320000e-06	2.341824e-06	7.011704e-09	1.639281e+01	4.571381e+02
2.330000e-06	2.192279e-06	6.805271e-09	1.534599e+01	4.439251e+02
2.340000e-06	2.041973e-06	6.589528e-09	1.429385e+01	4.303120e+02
2.350000e-06	1.890919e-06	6.373995e-09	1.323647e+01	4.162588e+02
2.360000e-06	1.739111e-06	6.158992e-09	1.217381e+01	4.017294e+02
2.370000e-06	1.586691e-06	5.933998e-09	1.110687e+01	3.866946e+02
2.380000e-06	1.433780e-06	5.695863e-09	1.003649e+01	3.711351e+02
2.390000e-06	1.280447e-06	5.446984e-09	8.963149e+00	3.550422e+02
2.400000e-06	1.126753e-06	5.191458e-09	7.887292e+00	3.384163e+02
2.410000e-06	9.726698e-07	4.934500e-09	6.808706e+00	3.212631e+02
2.420000e-06	8.182203e-07	4.675497e-09	5.727557e+00	3.035880e+02
2.430000e-06	6.635029e-07	4.404144e-09	4.644532e+00	2.853891e+02
2.440000e-06	5.085067e-07	4.114332e-09	3.559556e+00	2.666508e+02
2.450000e-06	3.533061e-07	3.811510e-09	2.473149e+00	2.473376e+02
2.460000e-06	1.980029e-07	3.505491e-09	1.386024e+00	2.273904e+02
2.470000e-06	4.254941e-08	3.189939e-09	2.978466e-01	2.067260e+02
2.480000e-06	-1.129928e-07	2.857667e-09	-7.909518e-01	1.852402e+02
2.490000e-06	-2.685057e-07	2.508735e-09	-1.879545e+00	1.628153e+02
2.500000e-06	-4.239360e-07	2.143473e-09	-2.967559e+00	1.393304e+02
2.510000e-06	-5.792061e-07	1.764794e-09	-4.054453e+00	1.146749e+02
2.520000e-06	-7.342555e-07	1.374302e-09	-5.139802e+00	8.876374e+01
2.530000e-06	-8.890667e-07	9.694177e-10	-6.223483e+00	6.155159e+01
2.540000e-06	-1.043522e-06	5.412925e-10	-7.304669e+00	3.304576e+01
2.550000e-06	-1.197500e-06	8.998224e-11	-8.382519e+00	3.315290e+00
2.560000e-06	-1.351039e-06	-3.779692e-10	-9.457297e+00	-2.750477e+01
2.570000e-06	-1.504198e-06	-8.593025e-10	-1.052942e+01	-5.921476e+01
2.580000e-06	-1.656917e-06	-1.356699e-09	-1.159845e+01	-9.155770e+01
2.590000e-06	-1.809067e-06	-1.868348e-09	-1.266350e+01	-1.242320e+02
2.600000e-06	-1.960470e-06	-2.380755e-09	-1.372333e+01	-1.569085e+02
2.610000e-06	-2.111032e-06	-2.884668e-09	-1.477726e+01	-1.892504e+02
2.620000e-06	-2.260716e-06	-3.371810e-09	-1.582505e+01	-2.209338e+02
2.630000e-06	-2.409552e-06	-3.837196e-09	-1.686690e+01	-2.516674e+02
2.640000e-06	-2.557555e-06	-4.282579e-09	-1.790293e+01	-2.812087e+02
2.650000e-06	-2.704583e-06	-4.710606e-09	-1.893213e+01	-3.093763e+02
2.660000e-06	-2.850585e-06	-5.118313e-09	-1.995415e+01	-3.360558e+02
2.670000e-06	-2.995597e-06	-5.501305e-09	-2.096923e+01	-3.612004e+02
2.680000e-06	-3.139565e-06	-5.860851e-09	-2.197701e+01	-3.848256e+02
2.690000e-06	-3.282269e-06	-6.198050e-09	-2.297594e+01	-4.069990e+02
2.700000e-06	-3.423587e-06	-6.516356e-09	-2.396517e+01	-4.278270e+02
2.710000e-06	-3.563524e-06	-6.820467e-09	-2.494473e+01	-4.474396e+02
2.720000e-06	-3.702030e-06	-7.110972e-09	-2.591428e+01	-4.659751e+02
2.730000e-06	-3.839212e-06	-7.386043e-09	-2.687456e+01	-4.835666e+02
2.740000e-06	-3.975133e-06	-7.644583e-09	-2.782600e+01	-5.003317e+02
2.750000e-06	-4.109500e-06	-7.890521e-09	-2.876657e+01	-5.163654e+02
2.760000e-06	-4.242344e-06	-8.127474e-09	-2.969648e+01	-5.317371e+02
2.770000e-06	-4.373811e-06	-8.353585e-09	-3.061675e+01	-5.464918e+02
2.780000e-06	-4.503806e-06	-8.568607e-09	-3.152672e+01	-5.606540e+02
2.790000e-06	-4.632319e-06	-8.774728e-09	-3.242632e+01	-5.742341e+02
2.800000e-06	-4.759154e-06	-8.974512e-09	-3.331416e+01	-5.872345e+02
2.810000e-06	-4.884294e-06	-9.167542e-09	-3.419015e+01	-5.996574e+02
2.820000e-06	-5.007791e-06	-9.350967e-09	-3.505463e+01	-6.115092e+02
2.830000e-06	-5.129539e-06	-9.523120e-09	-3.590687e+01	-6.228045e+02
2.840000e-06	-5.249375e-06	-9.683746e-09	-3.674572e+01	-6.335673e+02
2.850000e-06	-5.367113e-06	-9.836801e-09	-3.756989e+01	-6.438294e+02
2.860000e-06	-5.482664e-06	-9.986814e-09	-3.837875e+01	-6.536284e+02
2.870000e-06	-5.595945e-06	-1.013355e-08	-3.917171e+01	-6.630032e+02
2.880000e-06	-5.707033e-06	-1.027454e-08	-3.994933e+01	-6.719903e+02
2.890000e-06	-5.816105e-06	-1.040891e-08	-4.071284e+01	-6.806198e+02
2.900000e-06	-5.923223e-06	-1.053774e-08	-4.146266e+01	-6.889134e+02
2.910000e-06	-6.028269e-06	-1.066054e-08	-4.219799e+01	-6.968831e+02
2.920000e-06	-6.131017e-06	-1.077605e-08	-4.291722e+01	-7.045321e+02
2.930000e-06	-6.231418e-06	-1.088698e-08	-4.362004e+01	-7.118571e+02
2.940000e-06	-6.329613e-06	-1.099185e-08	-4.430740e+01	-7.188518e+02
