# Temperatura_=_31.03
# Concentracion g/m^3_=_15000.0
# C_Vs_to_Am_M_A/Vsm_=_65563218390.804596
# pendiente_HvsI_1/m_=_3716.3
# ordenada_HvsI_A/m_=_1297.0
# frecuencia_Hz_=_302360.44517026504

Tiempo_(s)	Campo_(V.s)	Magnetizacion_(V.s)	Campo_(kA/m)	Magnetizacion_(A/m)
0.000000e+00	-8.121680e-06	-8.594271e-09	-5.689874e+01	-5.615422e+02
1.000000e-08	-8.117342e-06	-8.595364e-09	-5.686835e+01	-5.612722e+02
2.000000e-08	-8.110421e-06	-8.589011e-09	-5.681986e+01	-5.609168e+02
3.000000e-08	-8.100662e-06	-8.582182e-09	-5.675149e+01	-5.604884e+02
4.000000e-08	-8.087957e-06	-8.575059e-09	-5.666248e+01	-5.600000e+02
5.000000e-08	-8.072318e-06	-8.563409e-09	-5.655292e+01	-5.594635e+02
6.000000e-08	-8.054047e-06	-8.547937e-09	-5.642491e+01	-5.588885e+02
7.000000e-08	-8.033523e-06	-8.526579e-09	-5.628113e+01	-5.582811e+02
8.000000e-08	-8.010435e-06	-8.527614e-09	-5.611938e+01	-5.576432e+02
9.000000e-08	-7.984247e-06	-8.594420e-09	-5.593592e+01	-5.569730e+02
1.000000e-07	-7.954860e-06	-8.565540e-09	-5.573004e+01	-5.562648e+02
1.100000e-07	-7.922491e-06	-8.497833e-09	-5.550326e+01	-5.555102e+02
1.200000e-07	-7.887226e-06	-8.480884e-09	-5.525621e+01	-5.546994e+02
1.300000e-07	-7.849332e-06	-8.456956e-09	-5.499073e+01	-5.538218e+02
1.400000e-07	-7.809124e-06	-8.400007e-09	-5.470904e+01	-5.528676e+02
1.500000e-07	-7.766560e-06	-8.353434e-09	-5.441084e+01	-5.518283e+02
1.600000e-07	-7.721390e-06	-8.482748e-09	-5.409439e+01	-5.506972e+02
1.700000e-07	-7.673364e-06	-8.390486e-09	-5.375793e+01	-5.494697e+02
1.800000e-07	-7.622461e-06	-8.309714e-09	-5.340132e+01	-5.481430e+02
1.900000e-07	-7.568620e-06	-8.409575e-09	-5.302412e+01	-5.467154e+02
2.000000e-07	-7.511909e-06	-8.289225e-09	-5.262681e+01	-5.451862e+02
2.100000e-07	-7.452544e-06	-8.261063e-09	-5.221092e+01	-5.435551e+02
2.200000e-07	-7.390528e-06	-8.265131e-09	-5.177645e+01	-5.418216e+02
2.300000e-07	-7.325821e-06	-8.242264e-09	-5.132313e+01	-5.399851e+02
2.400000e-07	-7.258311e-06	-8.211358e-09	-5.085016e+01	-5.380445e+02
2.500000e-07	-7.188024e-06	-8.150066e-09	-5.035775e+01	-5.359990e+02
2.600000e-07	-7.114954e-06	-8.172404e-09	-4.984583e+01	-5.338480e+02
2.700000e-07	-7.039009e-06	-8.119007e-09	-4.931378e+01	-5.315916e+02
2.800000e-07	-6.960236e-06	-8.054790e-09	-4.876191e+01	-5.292306e+02
2.900000e-07	-6.878824e-06	-8.003523e-09	-4.819156e+01	-5.267670e+02
3.000000e-07	-6.794986e-06	-7.994946e-09	-4.760421e+01	-5.242034e+02
3.100000e-07	-6.708782e-06	-7.979604e-09	-4.700028e+01	-5.215428e+02
3.200000e-07	-6.620199e-06	-7.892102e-09	-4.637969e+01	-5.187880e+02
3.300000e-07	-6.529173e-06	-7.873717e-09	-4.574198e+01	-5.159407e+02
3.400000e-07	-6.435754e-06	-7.829150e-09	-4.508750e+01	-5.130014e+02
3.500000e-07	-6.340015e-06	-7.767794e-09	-4.441678e+01	-5.099684e+02
3.600000e-07	-6.241949e-06	-7.711011e-09	-4.372975e+01	-5.068377e+02
3.700000e-07	-6.141611e-06	-7.679807e-09	-4.302681e+01	-5.036033e+02
3.800000e-07	-6.039058e-06	-7.642833e-09	-4.230834e+01	-5.002576e+02
3.900000e-07	-5.934407e-06	-7.567707e-09	-4.157518e+01	-4.967918e+02
4.000000e-07	-5.827687e-06	-7.515113e-09	-4.082752e+01	-4.931975e+02
4.100000e-07	-5.718953e-06	-7.455572e-09	-4.006575e+01	-4.894667e+02
4.200000e-07	-5.608140e-06	-7.405900e-09	-3.928942e+01	-4.855936e+02
4.300000e-07	-5.495154e-06	-7.333034e-09	-3.849786e+01	-4.815743e+02
4.400000e-07	-5.380112e-06	-7.269188e-09	-3.769191e+01	-4.774072e+02
4.500000e-07	-5.263020e-06	-7.210090e-09	-3.687159e+01	-4.730927e+02
4.600000e-07	-5.143896e-06	-7.146658e-09	-3.603702e+01	-4.686326e+02
4.700000e-07	-5.022993e-06	-7.071391e-09	-3.519000e+01	-4.640285e+02
4.800000e-07	-4.900292e-06	-6.995566e-09	-3.433039e+01	-4.592816e+02
4.900000e-07	-4.775745e-06	-6.925941e-09	-3.345784e+01	-4.543906e+02
5.000000e-07	-4.649503e-06	-6.836414e-09	-3.257342e+01	-4.493515e+02
5.100000e-07	-4.521573e-06	-6.749975e-09	-3.167717e+01	-4.441571e+02
5.200000e-07	-4.392034e-06	-6.673966e-09	-3.076964e+01	-4.387971e+02
5.300000e-07	-4.260821e-06	-6.604378e-09	-2.985039e+01	-4.332587e+02
5.400000e-07	-4.128040e-06	-6.511102e-09	-2.892016e+01	-4.275281e+02
5.500000e-07	-3.993758e-06	-6.412123e-09	-2.797941e+01	-4.215915e+02
5.600000e-07	-3.857904e-06	-6.318662e-09	-2.702764e+01	-4.154368e+02
5.700000e-07	-3.720589e-06	-6.220180e-09	-2.606565e+01	-4.090547e+02
5.800000e-07	-3.581783e-06	-6.110738e-09	-2.509320e+01	-4.024401e+02
5.900000e-07	-3.441404e-06	-6.004701e-09	-2.410973e+01	-3.955915e+02
6.000000e-07	-3.299560e-06	-5.903722e-09	-2.311600e+01	-3.885108e+02
6.100000e-07	-3.156469e-06	-5.788349e-09	-2.211354e+01	-3.812023e+02
6.200000e-07	-3.012255e-06	-5.670858e-09	-2.110321e+01	-3.736704e+02
6.300000e-07	-2.866869e-06	-5.557054e-09	-2.008467e+01	-3.659181e+02
6.400000e-07	-2.720360e-06	-5.443334e-09	-1.905826e+01	-3.579446e+02
6.500000e-07	-2.572938e-06	-5.315364e-09	-1.802545e+01	-3.497436e+02
6.600000e-07	-2.424715e-06	-5.182119e-09	-1.698703e+01	-3.413027e+02
6.700000e-07	-2.275714e-06	-5.047830e-09	-1.594316e+01	-3.326030e+02
6.800000e-07	-2.125976e-06	-4.906176e-09	-1.489413e+01	-3.236203e+02
6.900000e-07	-1.975524e-06	-4.761770e-09	-1.384010e+01	-3.143269e+02
7.000000e-07	-1.824354e-06	-4.612280e-09	-1.278103e+01	-3.046940e+02
7.100000e-07	-1.672612e-06	-4.458138e-09	-1.171796e+01	-2.946946e+02
7.200000e-07	-1.520379e-06	-4.297066e-09	-1.065145e+01	-2.843061e+02
7.300000e-07	-1.367567e-06	-4.134951e-09	-9.580882e+00	-2.735128e+02
7.400000e-07	-1.214196e-06	-3.967787e-09	-8.506396e+00	-2.623062e+02
7.500000e-07	-1.060383e-06	-3.792028e-09	-7.428815e+00	-2.506851e+02
7.600000e-07	-9.062161e-07	-3.608820e-09	-6.348755e+00	-2.386538e+02
7.700000e-07	-7.517610e-07	-3.418454e-09	-5.266675e+00	-2.262191e+02
7.800000e-07	-5.970296e-07	-3.221553e-09	-4.182660e+00	-2.133861e+02
7.900000e-07	-4.420752e-07	-3.020612e-09	-3.097084e+00	-2.001541e+02
8.000000e-07	-2.869709e-07	-2.817534e-09	-2.010456e+00	-1.865121e+02
8.100000e-07	-1.317354e-07	-2.602719e-09	-9.229098e-01	-1.724361e+02
8.200000e-07	2.359439e-08	-2.376852e-09	1.652972e-01	-1.578870e+02
8.300000e-07	1.789339e-07	-2.144928e-09	1.253573e+00	-1.428117e+02
8.400000e-07	3.342219e-07	-1.906582e-09	2.341486e+00	-1.271458e+02
8.500000e-07	4.894349e-07	-1.657164e-09	3.428876e+00	-1.108192e+02
8.600000e-07	6.444998e-07	-1.395840e-09	4.515227e+00	-9.376301e+01
8.700000e-07	7.994021e-07	-1.126869e-09	5.600439e+00	-7.591878e+01
8.800000e-07	9.540758e-07	-8.459416e-10	6.684049e+00	-5.724729e+01
8.900000e-07	1.108427e-06	-5.513243e-10	7.765399e+00	-3.773728e+01
9.000000e-07	1.262408e-06	-2.460164e-10	8.844157e+00	-1.741245e+01
9.100000e-07	1.415881e-06	7.077036e-11	9.919357e+00	3.664002e+00
9.200000e-07	1.568794e-06	4.020422e-10	1.099064e+01	2.538810e+01
9.300000e-07	1.721110e-06	7.448265e-10	1.205773e+01	4.761730e+01
9.400000e-07	1.872769e-06	1.090387e-09	1.312021e+01	7.017622e+01
9.500000e-07	2.023750e-06	1.436120e-09	1.417796e+01	9.286550e+01
9.600000e-07	2.174019e-06	1.783685e-09	1.523071e+01	1.154730e+02
9.700000e-07	2.323480e-06	2.129451e-09	1.627780e+01	1.377861e+02
9.800000e-07	2.472018e-06	2.466412e-09	1.731842e+01	1.596047e+02
9.900000e-07	2.619584e-06	2.788821e-09	1.835224e+01	1.807519e+02
1.000000e-06	2.766192e-06	3.095284e-09	1.937935e+01	2.010841e+02
1.010000e-06	2.911836e-06	3.385047e-09	2.039970e+01	2.204966e+02
1.020000e-06	3.056348e-06	3.658362e-09	2.141212e+01	2.389264e+02
1.030000e-06	3.199659e-06	3.918106e-09	2.241612e+01	2.563515e+02
1.040000e-06	3.341803e-06	4.167175e-09	2.341196e+01	2.727867e+02
1.050000e-06	3.482712e-06	4.404794e-09	2.439913e+01	2.882763e+02
1.060000e-06	3.622253e-06	4.628768e-09	2.537673e+01	3.028856e+02
1.070000e-06	3.760317e-06	4.839278e-09	2.634397e+01	3.166919e+02
1.080000e-06	3.896889e-06	5.041293e-09	2.730077e+01	3.297746e+02
1.090000e-06	4.032018e-06	5.233485e-09	2.824745e+01	3.422081e+02
1.100000e-06	4.165759e-06	5.413469e-09	2.918441e+01	3.540557e+02
1.110000e-06	4.298078e-06	5.583276e-09	3.011141e+01	3.653662e+02
1.120000e-06	4.428841e-06	5.745454e-09	3.102750e+01	3.761728e+02
1.130000e-06	4.557958e-06	5.901365e-09	3.193207e+01	3.864946e+02
1.140000e-06	4.685512e-06	6.049560e-09	3.282569e+01	3.963401e+02
1.150000e-06	4.811515e-06	6.190367e-09	3.370843e+01	4.057107e+02
1.160000e-06	4.935883e-06	6.324583e-09	3.457973e+01	4.146061e+02
1.170000e-06	5.058513e-06	6.451630e-09	3.543885e+01	4.230284e+02
1.180000e-06	5.179343e-06	6.571566e-09	3.628536e+01	4.309854e+02
1.190000e-06	5.298355e-06	6.687349e-09	3.711913e+01	4.384925e+02
1.200000e-06	5.415435e-06	6.796093e-09	3.793937e+01	4.455739e+02
1.210000e-06	5.530354e-06	6.896652e-09	3.874447e+01	4.522607e+02
1.220000e-06	5.643035e-06	6.990828e-09	3.953388e+01	4.585897e+02
1.230000e-06	5.753636e-06	7.081962e-09	4.030874e+01	4.645998e+02
1.240000e-06	5.862267e-06	7.169989e-09	4.106978e+01	4.703292e+02
1.250000e-06	5.968840e-06	7.253441e-09	4.181641e+01	4.758122e+02
1.260000e-06	6.073221e-06	7.333483e-09	4.254768e+01	4.810772e+02
1.270000e-06	6.175344e-06	7.409454e-09	4.326313e+01	4.861453e+02
1.280000e-06	6.275198e-06	7.481286e-09	4.396268e+01	4.910295e+02
1.290000e-06	6.372676e-06	7.550785e-09	4.464559e+01	4.957363e+02
1.300000e-06	6.467708e-06	7.619458e-09	4.531137e+01	5.002665e+02
1.310000e-06	6.560498e-06	7.686316e-09	4.596143e+01	5.046174e+02
1.320000e-06	6.650915e-06	7.748528e-09	4.659488e+01	5.087853e+02
1.330000e-06	6.738892e-06	7.806013e-09	4.721123e+01	5.127671e+02
1.340000e-06	6.824571e-06	7.860817e-09	4.781147e+01	5.165618e+02
1.350000e-06	6.907855e-06	7.914114e-09	4.839494e+01	5.201713e+02
1.360000e-06	6.988656e-06	7.966346e-09	4.896102e+01	5.236003e+02
1.370000e-06	7.066911e-06	8.016287e-09	4.950925e+01	5.268559e+02
1.380000e-06	7.142538e-06	8.064284e-09	5.003908e+01	5.299462e+02
1.390000e-06	7.215496e-06	8.109811e-09	5.055021e+01	5.328790e+02
1.400000e-06	7.285864e-06	8.150873e-09	5.104319e+01	5.356609e+02
1.410000e-06	7.353698e-06	8.188871e-09	5.151843e+01	5.382956e+02
1.420000e-06	7.418822e-06	8.224833e-09	5.197467e+01	5.407844e+02
1.430000e-06	7.481292e-06	8.259490e-09	5.241232e+01	5.431255e+02
1.440000e-06	7.541380e-06	8.292240e-09	5.283328e+01	5.453153e+02
1.450000e-06	7.598867e-06	8.321505e-09	5.323602e+01	5.473494e+02
1.460000e-06	7.653550e-06	8.348788e-09	5.361912e+01	5.492240e+02
1.470000e-06	7.705229e-06	8.374095e-09	5.398117e+01	5.509373e+02
1.480000e-06	7.753753e-06	8.396217e-09	5.432112e+01	5.524907e+02
1.490000e-06	7.799414e-06	8.415785e-09	5.464101e+01	5.538893e+02
1.500000e-06	7.842346e-06	8.434118e-09	5.494179e+01	5.551421e+02
1.510000e-06	7.882457e-06	8.450763e-09	5.522280e+01	5.562612e+02
1.520000e-06	7.919756e-06	8.465516e-09	5.548410e+01	5.572612e+02
1.530000e-06	7.954250e-06	8.480136e-09	5.572576e+01	5.581569e+02
1.540000e-06	7.985873e-06	8.494190e-09	5.594731e+01	5.589625e+02
1.550000e-06	8.014753e-06	8.506188e-09	5.614963e+01	5.596894e+02
1.560000e-06	8.040773e-06	8.516226e-09	5.633193e+01	5.603453e+02
1.570000e-06	8.063740e-06	8.524480e-09	5.649283e+01	5.609335e+02
1.580000e-06	8.083888e-06	8.532388e-09	5.663398e+01	5.614527e+02
1.590000e-06	8.101196e-06	8.538719e-09	5.675523e+01	5.618982e+02
1.600000e-06	8.115521e-06	8.542950e-09	5.685559e+01	5.622624e+02
1.610000e-06	8.126753e-06	8.547157e-09	5.693428e+01	5.625366e+02
1.620000e-06	8.134781e-06	8.550718e-09	5.699053e+01	5.627129e+02
1.630000e-06	8.139857e-06	8.553717e-09	5.702609e+01	5.627854e+02
1.640000e-06	8.142057e-06	8.555653e-09	5.704150e+01	5.627517e+02
1.650000e-06	8.141376e-06	8.557860e-09	5.703672e+01	5.626134e+02
1.660000e-06	8.138031e-06	8.547846e-09	5.701329e+01	5.623763e+02
1.670000e-06	8.131966e-06	8.542634e-09	5.697080e+01	5.620497e+02
1.680000e-06	8.123144e-06	8.539487e-09	5.690900e+01	5.616455e+02
1.690000e-06	8.111627e-06	8.533340e-09	5.682831e+01	5.611768e+02
1.700000e-06	8.097228e-06	8.529680e-09	5.672744e+01	5.606559e+02
1.710000e-06	8.080120e-06	8.531594e-09	5.660758e+01	5.600934e+02
1.720000e-06	8.060675e-06	8.540991e-09	5.647135e+01	5.594968e+02
1.730000e-06	8.038744e-06	8.493364e-09	5.631771e+01	5.588695e+02
1.740000e-06	8.013621e-06	8.403191e-09	5.614170e+01	5.582110e+02
1.750000e-06	7.984744e-06	8.444793e-09	5.593940e+01	5.575168e+02
1.760000e-06	7.952357e-06	8.463636e-09	5.571250e+01	5.567796e+02
1.770000e-06	7.917326e-06	8.428744e-09	5.546708e+01	5.559897e+02
1.780000e-06	7.879990e-06	8.459081e-09	5.520551e+01	5.551368e+02
1.790000e-06	7.840340e-06	8.550324e-09	5.492773e+01	5.542107e+02
1.800000e-06	7.798739e-06	8.386993e-09	5.463629e+01	5.532023e+02
1.810000e-06	7.754809e-06	8.361724e-09	5.432852e+01	5.521043e+02
1.820000e-06	7.707998e-06	8.482215e-09	5.400058e+01	5.509114e+02
1.830000e-06	7.658442e-06	8.307528e-09	5.365339e+01	5.496200e+02
1.840000e-06	7.605844e-06	8.411279e-09	5.328490e+01	5.482282e+02
1.850000e-06	7.550209e-06	8.350055e-09	5.289514e+01	5.467350e+02
1.860000e-06	7.491880e-06	8.296936e-09	5.248650e+01	5.451400e+02
1.870000e-06	7.430823e-06	8.308873e-09	5.205874e+01	5.434429e+02
1.880000e-06	7.367038e-06	8.185347e-09	5.161188e+01	5.416429e+02
1.890000e-06	7.300376e-06	8.301188e-09	5.114486e+01	5.397392e+02
1.900000e-06	7.230926e-06	8.187870e-09	5.065831e+01	5.377310e+02
1.910000e-06	7.158637e-06	8.140601e-09	5.015187e+01	5.356174e+02
1.920000e-06	7.083459e-06	8.132926e-09	4.962519e+01	5.333982e+02
1.930000e-06	7.005653e-06	8.084342e-09	4.908010e+01	5.310741e+02
1.940000e-06	6.925163e-06	8.113341e-09	4.851620e+01	5.286466e+02
1.950000e-06	6.842022e-06	8.001976e-09	4.793373e+01	5.261180e+02
1.960000e-06	6.756351e-06	8.018269e-09	4.733354e+01	5.234914e+02
1.970000e-06	6.668179e-06	7.931445e-09	4.671582e+01	5.207696e+02
1.980000e-06	6.577558e-06	7.867199e-09	4.608095e+01	5.179549e+02
1.990000e-06	6.484664e-06	7.859565e-09	4.543016e+01	5.150482e+02
2.000000e-06	6.389551e-06	7.832081e-09	4.476382e+01	5.120487e+02
2.010000e-06	6.292147e-06	7.798408e-09	4.408143e+01	5.089531e+02
2.020000e-06	6.192450e-06	7.690753e-09	4.338297e+01	5.057562e+02
2.030000e-06	6.090510e-06	7.661038e-09	4.266880e+01	5.024509e+02
2.040000e-06	5.986333e-06	7.604583e-09	4.193896e+01	4.990287e+02
2.050000e-06	5.880045e-06	7.575122e-09	4.119433e+01	4.954809e+02
2.060000e-06	5.771842e-06	7.509433e-09	4.043628e+01	4.917993e+02
2.070000e-06	5.661716e-06	7.447129e-09	3.966477e+01	4.879773e+02
2.080000e-06	5.549500e-06	7.384235e-09	3.887860e+01	4.840102e+02
2.090000e-06	5.435081e-06	7.313372e-09	3.807701e+01	4.798955e+02
2.100000e-06	5.318609e-06	7.260744e-09	3.726103e+01	4.756332e+02
2.110000e-06	5.200178e-06	7.204418e-09	3.643133e+01	4.712245e+02
2.120000e-06	5.079701e-06	7.137389e-09	3.558729e+01	4.666714e+02
2.130000e-06	4.957325e-06	7.038141e-09	3.472995e+01	4.619752e+02
2.140000e-06	4.833183e-06	6.974339e-09	3.386024e+01	4.571356e+02
2.150000e-06	4.707326e-06	6.915013e-09	3.297851e+01	4.521497e+02
2.160000e-06	4.579781e-06	6.850749e-09	3.208496e+01	4.470114e+02
2.170000e-06	4.450538e-06	6.751888e-09	3.117951e+01	4.417116e+02
2.180000e-06	4.319654e-06	6.659920e-09	3.026257e+01	4.362382e+02
2.190000e-06	4.187201e-06	6.574877e-09	2.933463e+01	4.305776e+02
2.200000e-06	4.053304e-06	6.489545e-09	2.839657e+01	4.247157e+02
2.210000e-06	3.917931e-06	6.404304e-09	2.744818e+01	4.186398e+02
2.220000e-06	3.780866e-06	6.315405e-09	2.648793e+01	4.123394e+02
2.230000e-06	3.642209e-06	6.210764e-09	2.551653e+01	4.058079e+02
2.240000e-06	3.502254e-06	6.093884e-09	2.453604e+01	3.990424e+02
2.250000e-06	3.361000e-06	5.994241e-09	2.354644e+01	3.920439e+02
2.260000e-06	3.218514e-06	5.899610e-09	2.254821e+01	3.848159e+02
2.270000e-06	3.074790e-06	5.793255e-09	2.154132e+01	3.773630e+02
2.280000e-06	2.929841e-06	5.664051e-09	2.052583e+01	3.696890e+02
2.290000e-06	2.783788e-06	5.537484e-09	1.950262e+01	3.617945e+02
2.300000e-06	2.636742e-06	5.415990e-09	1.847245e+01	3.536755e+02
2.310000e-06	2.488810e-06	5.295414e-09	1.743606e+01	3.453218e+02
2.320000e-06	2.340098e-06	5.169495e-09	1.639422e+01	3.367167e+02
2.330000e-06	2.190557e-06	5.032999e-09	1.534657e+01	3.278379e+02
2.340000e-06	2.040171e-06	4.886058e-09	1.429300e+01	3.186584e+02
2.350000e-06	1.889187e-06	4.739368e-09	1.323524e+01	3.091497e+02
2.360000e-06	1.737678e-06	4.595989e-09	1.217379e+01	2.992837e+02
2.370000e-06	1.585554e-06	4.444742e-09	1.110805e+01	2.890360e+02
2.380000e-06	1.432894e-06	4.281412e-09	1.003855e+01	2.783884e+02
2.390000e-06	1.279788e-06	4.109374e-09	8.965922e+00	2.673295e+02
2.400000e-06	1.126201e-06	3.933689e-09	7.889920e+00	2.558559e+02
2.410000e-06	9.721750e-07	3.756534e-09	6.810849e+00	2.439700e+02
2.420000e-06	8.178165e-07	3.576724e-09	5.729446e+00	2.316783e+02
2.430000e-06	6.631491e-07	3.387730e-09	4.645880e+00	2.189869e+02
2.440000e-06	5.082134e-07	3.184044e-09	3.560434e+00	2.058977e+02
2.450000e-06	3.531640e-07	2.971625e-09	2.474191e+00	1.924039e+02
2.460000e-06	1.979718e-07	2.759881e-09	1.386947e+00	1.784862e+02
2.470000e-06	4.262868e-08	2.540957e-09	2.986474e-01	1.641111e+02
2.480000e-06	-1.126838e-07	2.310491e-09	-7.894383e-01	1.492303e+02
2.490000e-06	-2.679494e-07	2.070130e-09	-1.877195e+00	1.337829e+02
2.500000e-06	-4.231759e-07	1.821580e-09	-2.964679e+00	1.177001e+02
2.510000e-06	-5.783048e-07	1.564764e-09	-4.051479e+00	1.009116e+02
2.520000e-06	-7.332553e-07	1.297938e-09	-5.137029e+00	8.335420e+01
2.530000e-06	-8.879506e-07	1.020672e-09	-6.220790e+00	6.498074e+01
2.540000e-06	-1.042338e-06	7.297278e-10	-7.302397e+00	4.576909e+01
2.550000e-06	-1.196390e-06	4.246323e-10	-8.381649e+00	2.572980e+01
2.560000e-06	-1.349983e-06	1.077238e-10	-9.457690e+00	4.911632e+00
2.570000e-06	-1.503022e-06	-2.167864e-10	-1.052985e+01	-1.659594e+01
2.580000e-06	-1.655465e-06	-5.520751e-10	-1.159783e+01	-3.866366e+01
2.590000e-06	-1.807282e-06	-8.994178e-10	-1.266143e+01	-6.112701e+01
2.600000e-06	-1.958455e-06	-1.251945e-09	-1.372051e+01	-8.379401e+01
2.610000e-06	-2.108903e-06	-1.605815e-09	-1.477452e+01	-1.064557e+02
2.620000e-06	-2.258559e-06	-1.953693e-09	-1.582298e+01	-1.288982e+02
2.630000e-06	-2.407355e-06	-2.288845e-09	-1.686541e+01	-1.509154e+02
2.640000e-06	-2.555282e-06	-2.611110e-09	-1.790176e+01	-1.723211e+02
2.650000e-06	-2.702303e-06	-2.923944e-09	-1.893175e+01	-1.929589e+02
2.660000e-06	-2.848353e-06	-3.226412e-09	-1.995495e+01	-2.127095e+02
2.670000e-06	-2.993345e-06	-3.513544e-09	-2.097073e+01	-2.314952e+02
2.680000e-06	-3.137137e-06	-3.782949e-09	-2.197810e+01	-2.492796e+02
2.690000e-06	-3.279644e-06	-4.036974e-09	-2.297648e+01	-2.660650e+02
2.700000e-06	-3.420817e-06	-4.279261e-09	-2.396550e+01	-2.818859e+02
2.710000e-06	-3.560636e-06	-4.511191e-09	-2.494505e+01	-2.968015e+02
2.720000e-06	-3.699159e-06	-4.732930e-09	-2.591551e+01	-3.108857e+02
2.730000e-06	-3.836344e-06	-4.942640e-09	-2.687660e+01	-3.242182e+02
2.740000e-06	-3.972076e-06	-5.139030e-09	-2.782751e+01	-3.368760e+02
2.750000e-06	-4.106337e-06	-5.324551e-09	-2.876811e+01	-3.489268e+02
2.760000e-06	-4.239151e-06	-5.502842e-09	-2.969858e+01	-3.604248e+02
2.770000e-06	-4.370514e-06	-5.671336e-09	-3.061888e+01	-3.714088e+02
2.780000e-06	-4.500404e-06	-5.829112e-09	-3.152886e+01	-3.819027e+02
2.790000e-06	-4.628748e-06	-5.978075e-09	-3.242801e+01	-3.919182e+02
2.800000e-06	-4.755479e-06	-6.121146e-09	-3.331586e+01	-4.014587e+02
2.810000e-06	-4.880552e-06	-6.259363e-09	-3.419209e+01	-4.105242e+02
2.820000e-06	-5.003910e-06	-6.392016e-09	-3.505632e+01	-4.191152e+02
2.830000e-06	-5.125509e-06	-6.518690e-09	-3.590821e+01	-4.272373e+02
2.840000e-06	-5.245214e-06	-6.636245e-09	-3.674684e+01	-4.349032e+02
2.850000e-06	-5.362844e-06	-6.746345e-09	-3.757093e+01	-4.421337e+02
2.860000e-06	-5.478291e-06	-6.854080e-09	-3.837972e+01	-4.489577e+02
2.870000e-06	-5.591483e-06	-6.958431e-09	-3.917273e+01	-4.554104e+02
2.880000e-06	-5.702459e-06	-7.055509e-09	-3.995020e+01	-4.615303e+02
2.890000e-06	-5.811419e-06	-7.145071e-09	-4.071355e+01	-4.673560e+02
2.900000e-06	-5.918434e-06	-7.228960e-09	-4.146327e+01	-4.729237e+02
2.910000e-06	-6.023342e-06	-7.309549e-09	-4.219823e+01	-4.782641e+02
2.920000e-06	-6.125949e-06	-7.386298e-09	-4.291708e+01	-4.834009e+02
2.930000e-06	-6.226232e-06	-7.462107e-09	-4.361964e+01	-4.883501e+02
2.940000e-06	-6.324330e-06	-7.535664e-09	-4.430689e+01	-4.931203e+02
