# Temperatura_=_78.89
# Concentracion g/m^3_=_15000.0
# C_Vs_to_Am_M_A/Vsm_=_65563218390.804596
# pendiente_HvsI_1/m_=_3716.3
# ordenada_HvsI_A/m_=_1297.0
# frecuencia_Hz_=_301975.11401955213

Tiempo_(s)	Campo_(V.s)	Magnetizacion_(V.s)	Campo_(kA/m)	Magnetizacion_(A/m)
0.000000e+00	-6.860322e-06	-1.252040e-08	-4.746205e+01	-8.196735e+02
1.000000e-08	-6.856320e-06	-1.251503e-08	-4.743436e+01	-8.192807e+02
2.000000e-08	-6.850180e-06	-1.250504e-08	-4.739188e+01	-8.187025e+02
3.000000e-08	-6.841814e-06	-1.249721e-08	-4.733401e+01	-8.179466e+02
4.000000e-08	-6.830987e-06	-1.248653e-08	-4.725910e+01	-8.170268e+02
5.000000e-08	-6.817649e-06	-1.247200e-08	-4.716682e+01	-8.159616e+02
6.000000e-08	-6.801892e-06	-1.244077e-08	-4.705781e+01	-8.147726e+02
7.000000e-08	-6.783888e-06	-1.240591e-08	-4.693325e+01	-8.134819e+02
8.000000e-08	-6.763707e-06	-1.246258e-08	-4.679364e+01	-8.121100e+02
9.000000e-08	-6.741044e-06	-1.248921e-08	-4.663684e+01	-8.106729e+02
1.000000e-07	-6.715539e-06	-1.238613e-08	-4.646039e+01	-8.091805e+02
1.100000e-07	-6.687327e-06	-1.232929e-08	-4.626521e+01	-8.076355e+02
1.200000e-07	-6.656897e-06	-1.232573e-08	-4.605468e+01	-8.060330e+02
1.300000e-07	-6.624524e-06	-1.220094e-08	-4.583072e+01	-8.043606e+02
1.400000e-07	-6.590223e-06	-1.218010e-08	-4.559341e+01	-8.026002e+02
1.500000e-07	-6.553959e-06	-1.235569e-08	-4.534252e+01	-8.007291e+02
1.600000e-07	-6.515626e-06	-1.215152e-08	-4.507733e+01	-7.987227e+02
1.700000e-07	-6.475137e-06	-1.211730e-08	-4.479721e+01	-7.965561e+02
1.800000e-07	-6.432221e-06	-1.219294e-08	-4.450030e+01	-7.942068e+02
1.900000e-07	-6.386750e-06	-1.199679e-08	-4.418572e+01	-7.916559e+02
2.000000e-07	-6.338971e-06	-1.205286e-08	-4.385516e+01	-7.888896e+02
2.100000e-07	-6.288590e-06	-1.203329e-08	-4.350661e+01	-7.858996e+02
2.200000e-07	-6.235510e-06	-1.196201e-08	-4.313939e+01	-7.826834e+02
2.300000e-07	-6.180094e-06	-1.191270e-08	-4.275600e+01	-7.792437e+02
2.400000e-07	-6.122293e-06	-1.179316e-08	-4.235611e+01	-7.755876e+02
2.500000e-07	-6.062207e-06	-1.177301e-08	-4.194042e+01	-7.717253e+02
2.600000e-07	-6.000018e-06	-1.171737e-08	-4.151017e+01	-7.676692e+02
2.700000e-07	-5.935631e-06	-1.164289e-08	-4.106472e+01	-7.634322e+02
2.800000e-07	-5.868930e-06	-1.156806e-08	-4.060326e+01	-7.590268e+02
2.900000e-07	-5.799958e-06	-1.149709e-08	-4.012609e+01	-7.544640e+02
3.000000e-07	-5.728887e-06	-1.144821e-08	-3.963440e+01	-7.497526e+02
3.100000e-07	-5.655658e-06	-1.134006e-08	-3.912777e+01	-7.448985e+02
3.200000e-07	-5.580179e-06	-1.130740e-08	-3.860559e+01	-7.399046e+02
3.300000e-07	-5.502446e-06	-1.122520e-08	-3.806780e+01	-7.347708e+02
3.400000e-07	-5.422502e-06	-1.110899e-08	-3.751472e+01	-7.294935e+02
3.500000e-07	-5.340538e-06	-1.104055e-08	-3.694767e+01	-7.240671e+02
3.600000e-07	-5.256809e-06	-1.097279e-08	-3.636840e+01	-7.184833e+02
3.700000e-07	-5.171349e-06	-1.090781e-08	-3.577716e+01	-7.127326e+02
3.800000e-07	-5.084154e-06	-1.078565e-08	-3.517391e+01	-7.068048e+02
3.900000e-07	-4.995194e-06	-1.068505e-08	-3.455846e+01	-7.006897e+02
4.000000e-07	-4.904373e-06	-1.058256e-08	-3.393012e+01	-6.943780e+02
4.100000e-07	-4.811854e-06	-1.048989e-08	-3.329005e+01	-6.878622e+02
4.200000e-07	-4.717745e-06	-1.040452e-08	-3.263897e+01	-6.811370e+02
4.300000e-07	-4.621938e-06	-1.029722e-08	-3.197614e+01	-6.741996e+02
4.400000e-07	-4.524377e-06	-1.018334e-08	-3.130118e+01	-6.670497e+02
4.500000e-07	-4.425144e-06	-1.005348e-08	-3.061465e+01	-6.596895e+02
4.600000e-07	-4.324401e-06	-9.943395e-09	-2.991768e+01	-6.521228e+02
4.700000e-07	-4.222214e-06	-9.837881e-09	-2.921071e+01	-6.443539e+02
4.800000e-07	-4.118555e-06	-9.724236e-09	-2.849357e+01	-6.363871e+02
4.900000e-07	-4.013304e-06	-9.590745e-09	-2.776540e+01	-6.282250e+02
5.000000e-07	-3.906440e-06	-9.455484e-09	-2.702608e+01	-6.198680e+02
5.100000e-07	-3.798190e-06	-9.326148e-09	-2.627717e+01	-6.113131e+02
5.200000e-07	-3.688646e-06	-9.196759e-09	-2.551931e+01	-6.025540e+02
5.300000e-07	-3.577821e-06	-9.061324e-09	-2.475259e+01	-5.935808e+02
5.400000e-07	-3.465692e-06	-8.911279e-09	-2.397684e+01	-5.843812e+02
5.500000e-07	-3.352046e-06	-8.761093e-09	-2.319060e+01	-5.749411e+02
5.600000e-07	-3.236841e-06	-8.611540e-09	-2.239357e+01	-5.652459e+02
5.700000e-07	-3.120289e-06	-8.466438e-09	-2.158723e+01	-5.552824e+02
5.800000e-07	-3.002616e-06	-8.315112e-09	-2.077312e+01	-5.450399e+02
5.900000e-07	-2.883932e-06	-8.155241e-09	-1.995203e+01	-5.345111e+02
6.000000e-07	-2.764230e-06	-7.984276e-09	-1.912389e+01	-5.236926e+02
6.100000e-07	-2.643483e-06	-7.810269e-09	-1.828852e+01	-5.125852e+02
6.200000e-07	-2.521687e-06	-7.639123e-09	-1.744589e+01	-5.011924e+02
6.300000e-07	-2.398823e-06	-7.466848e-09	-1.659588e+01	-4.895197e+02
6.400000e-07	-2.275019e-06	-7.284432e-09	-1.573936e+01	-4.775722e+02
6.500000e-07	-2.150505e-06	-7.090443e-09	-1.487793e+01	-4.653532e+02
6.600000e-07	-2.025318e-06	-6.895579e-09	-1.401184e+01	-4.528620e+02
6.700000e-07	-1.899457e-06	-6.700701e-09	-1.314109e+01	-4.400926e+02
6.800000e-07	-1.772999e-06	-6.506739e-09	-1.226621e+01	-4.270330e+02
6.900000e-07	-1.645939e-06	-6.306076e-09	-1.138717e+01	-4.136654e+02
7.000000e-07	-1.518289e-06	-6.094989e-09	-1.050404e+01	-3.999667e+02
7.100000e-07	-1.390102e-06	-5.874632e-09	-9.617200e+00	-3.859107e+02
7.200000e-07	-1.261428e-06	-5.650794e-09	-8.726991e+00	-3.714698e+02
7.300000e-07	-1.132344e-06	-5.425238e-09	-7.833945e+00	-3.566175e+02
7.400000e-07	-1.002917e-06	-5.192744e-09	-6.938522e+00	-3.413304e+02
7.500000e-07	-8.731700e-07	-4.953821e-09	-6.040888e+00	-3.255900e+02
7.600000e-07	-7.430730e-07	-4.706532e-09	-5.140832e+00	-3.093826e+02
7.700000e-07	-6.127061e-07	-4.454004e-09	-4.238910e+00	-2.926993e+02
7.800000e-07	-4.821363e-07	-4.199755e-09	-3.335583e+00	-2.755340e+02
7.900000e-07	-3.513727e-07	-3.939987e-09	-2.430916e+00	-2.578808e+02
8.000000e-07	-2.205135e-07	-3.664289e-09	-1.525588e+00	-2.397306e+02
8.100000e-07	-8.954523e-08	-3.371815e-09	-6.195045e-01	-2.210681e+02
8.200000e-07	4.155831e-08	-3.073210e-09	2.875146e-01	-2.018683e+02
8.300000e-07	1.727216e-07	-2.769714e-09	1.194947e+00	-1.820952e+02
8.400000e-07	3.039386e-07	-2.457766e-09	2.102751e+00	-1.617016e+02
8.500000e-07	4.350838e-07	-2.134288e-09	3.010058e+00	-1.406307e+02
8.600000e-07	5.659899e-07	-1.799127e-09	3.915711e+00	-1.188200e+02
8.700000e-07	6.967043e-07	-1.450845e-09	4.820038e+00	-9.620766e+01
8.800000e-07	8.272273e-07	-1.091443e-09	5.723040e+00	-7.273918e+01
8.900000e-07	9.574563e-07	-7.227025e-10	6.624009e+00	-4.837622e+01
9.000000e-07	1.087298e-06	-3.420650e-10	7.522296e+00	-2.310467e+01
9.100000e-07	1.216746e-06	5.374352e-11	8.417865e+00	3.058003e+00
9.200000e-07	1.345827e-06	4.644702e-10	9.310888e+00	3.005726e+01
9.300000e-07	1.474417e-06	8.881000e-10	1.020052e+01	5.779861e+01
9.400000e-07	1.602409e-06	1.322460e-09	1.108601e+01	8.614799e+01
9.500000e-07	1.729779e-06	1.764907e-09	1.196720e+01	1.149354e+02
9.600000e-07	1.856498e-06	2.212547e-09	1.284389e+01	1.439616e+02
9.700000e-07	1.982586e-06	2.659414e-09	1.371621e+01	1.730084e+02
9.800000e-07	2.108028e-06	3.102191e-09	1.458406e+01	2.018491e+02
9.900000e-07	2.232813e-06	3.535681e-09	1.544736e+01	2.302620e+02
1.000000e-06	2.356864e-06	3.955993e-09	1.630559e+01	2.580417e+02
1.010000e-06	2.480013e-06	4.364399e-09	1.715758e+01	2.850100e+02
1.020000e-06	2.602140e-06	4.758517e-09	1.800249e+01	3.110245e+02
1.030000e-06	2.723230e-06	5.136789e-09	1.884023e+01	3.359833e+02
1.040000e-06	2.843242e-06	5.496364e-09	1.967052e+01	3.598271e+02
1.050000e-06	2.962208e-06	5.838351e-09	2.049356e+01	3.825373e+02
1.060000e-06	3.080192e-06	6.166021e-09	2.130982e+01	4.041315e+02
1.070000e-06	3.197090e-06	6.480338e-09	2.211856e+01	4.246557e+02
1.080000e-06	3.312735e-06	6.781434e-09	2.291863e+01	4.441763e+02
1.090000e-06	3.426990e-06	7.067405e-09	2.370908e+01	4.627705e+02
1.100000e-06	3.539833e-06	7.338566e-09	2.448977e+01	4.805178e+02
1.110000e-06	3.651311e-06	7.596671e-09	2.526101e+01	4.974927e+02
1.120000e-06	3.761567e-06	7.843550e-09	2.602381e+01	5.137596e+02
1.130000e-06	3.870673e-06	8.081266e-09	2.677864e+01	5.293696e+02
1.140000e-06	3.978529e-06	8.311025e-09	2.752482e+01	5.443600e+02
1.150000e-06	4.085060e-06	8.529213e-09	2.826184e+01	5.587559e+02
1.160000e-06	4.190078e-06	8.737208e-09	2.898839e+01	5.725730e+02
1.170000e-06	4.293468e-06	8.936498e-09	2.970368e+01	5.858218e+02
1.180000e-06	4.395330e-06	9.128394e-09	3.040839e+01	5.985111e+02
1.190000e-06	4.495703e-06	9.311694e-09	3.110281e+01	6.106520e+02
1.200000e-06	4.594461e-06	9.486391e-09	3.178605e+01	6.222603e+02
1.210000e-06	4.691441e-06	9.654422e-09	3.245699e+01	6.333573e+02
1.220000e-06	4.786644e-06	9.815953e-09	3.311564e+01	6.439699e+02
1.230000e-06	4.880206e-06	9.971920e-09	3.376293e+01	6.541289e+02
1.240000e-06	4.972188e-06	1.012271e-08	3.439930e+01	6.638668e+02
1.250000e-06	5.062409e-06	1.026876e-08	3.502347e+01	6.732146e+02
1.260000e-06	5.150698e-06	1.040850e-08	3.563428e+01	6.821991e+02
1.270000e-06	5.237077e-06	1.054137e-08	3.623189e+01	6.908409e+02
1.280000e-06	5.321675e-06	1.066968e-08	3.681717e+01	6.991532e+02
1.290000e-06	5.404460e-06	1.079442e-08	3.738990e+01	7.071415e+02
1.300000e-06	5.485211e-06	1.091115e-08	3.794856e+01	7.148049e+02
1.310000e-06	5.563949e-06	1.101952e-08	3.849330e+01	7.221379e+02
1.320000e-06	5.640715e-06	1.112361e-08	3.902439e+01	7.291336e+02
1.330000e-06	5.715249e-06	1.122403e-08	3.954004e+01	7.357863e+02
1.340000e-06	5.787563e-06	1.131975e-08	4.004033e+01	7.420943e+02
1.350000e-06	5.857838e-06	1.140970e-08	4.052652e+01	7.480617e+02
1.360000e-06	5.926059e-06	1.149424e-08	4.099850e+01	7.536999e+02
1.370000e-06	5.992101e-06	1.157446e-08	4.145540e+01	7.590271e+02
1.380000e-06	6.055946e-06	1.165029e-08	4.189710e+01	7.640671e+02
1.390000e-06	6.117764e-06	1.172425e-08	4.232478e+01	7.688473e+02
1.400000e-06	6.177571e-06	1.179672e-08	4.273854e+01	7.733955e+02
1.410000e-06	6.235200e-06	1.186441e-08	4.313724e+01	7.777376e+02
1.420000e-06	6.290590e-06	1.192682e-08	4.352045e+01	7.818943e+02
1.430000e-06	6.343629e-06	1.198624e-08	4.388739e+01	7.858793e+02
1.440000e-06	6.393992e-06	1.204425e-08	4.423582e+01	7.896982e+02
1.450000e-06	6.441754e-06	1.210017e-08	4.456625e+01	7.933487e+02
1.460000e-06	6.487317e-06	1.215274e-08	4.488147e+01	7.968217e+02
1.470000e-06	6.530755e-06	1.220258e-08	4.518199e+01	8.001030e+02
1.480000e-06	6.571811e-06	1.224877e-08	4.546603e+01	8.031764e+02
1.490000e-06	6.610426e-06	1.228990e-08	4.573318e+01	8.060265e+02
1.500000e-06	6.646859e-06	1.232726e-08	4.598524e+01	8.086412e+02
1.510000e-06	6.680973e-06	1.236302e-08	4.622125e+01	8.110138e+02
1.520000e-06	6.712588e-06	1.239736e-08	4.643997e+01	8.131444e+02
1.530000e-06	6.741946e-06	1.242702e-08	4.664308e+01	8.150396e+02
1.540000e-06	6.769011e-06	1.245189e-08	4.683033e+01	8.167124e+02
1.550000e-06	6.793507e-06	1.247282e-08	4.699980e+01	8.181797e+02
1.560000e-06	6.815500e-06	1.249082e-08	4.715195e+01	8.194604e+02
1.570000e-06	6.835189e-06	1.250678e-08	4.728817e+01	8.205730e+02
1.580000e-06	6.852439e-06	1.252096e-08	4.740751e+01	8.215328e+02
1.590000e-06	6.867135e-06	1.253339e-08	4.750918e+01	8.223505e+02
1.600000e-06	6.879267e-06	1.254229e-08	4.759312e+01	8.230308e+02
1.610000e-06	6.888687e-06	1.255019e-08	4.765829e+01	8.235724e+02
1.620000e-06	6.895491e-06	1.255868e-08	4.770536e+01	8.239688e+02
1.630000e-06	6.899990e-06	1.256443e-08	4.773648e+01	8.242099e+02
1.640000e-06	6.902052e-06	1.256698e-08	4.775075e+01	8.242843e+02
1.650000e-06	6.901559e-06	1.256540e-08	4.774734e+01	8.241814e+02
1.660000e-06	6.898826e-06	1.255127e-08	4.772843e+01	8.238939e+02
1.670000e-06	6.893920e-06	1.254334e-08	4.769449e+01	8.234196e+02
1.680000e-06	6.886666e-06	1.253597e-08	4.764431e+01	8.227625e+02
1.690000e-06	6.877150e-06	1.252500e-08	4.757847e+01	8.219329e+02
1.700000e-06	6.865390e-06	1.251438e-08	4.749711e+01	8.209468e+02
1.710000e-06	6.851188e-06	1.251334e-08	4.739886e+01	8.198243e+02
1.720000e-06	6.834741e-06	1.252547e-08	4.728507e+01	8.185876e+02
1.730000e-06	6.816286e-06	1.241473e-08	4.715739e+01	8.172583e+02
1.740000e-06	6.795209e-06	1.233874e-08	4.701158e+01	8.158553e+02
1.750000e-06	6.770714e-06	1.240039e-08	4.684211e+01	8.143922e+02
1.760000e-06	6.743195e-06	1.237420e-08	4.665172e+01	8.128759e+02
1.770000e-06	6.713385e-06	1.235342e-08	4.644549e+01	8.113058e+02
1.780000e-06	6.681716e-06	1.247253e-08	4.622639e+01	8.096738e+02
1.790000e-06	6.648678e-06	1.227728e-08	4.599782e+01	8.079648e+02
1.800000e-06	6.613848e-06	1.220561e-08	4.575686e+01	8.061584e+02
1.810000e-06	6.576331e-06	1.235265e-08	4.549730e+01	8.042309e+02
1.820000e-06	6.536510e-06	1.214722e-08	4.522181e+01	8.021573e+02
1.830000e-06	6.494627e-06	1.227566e-08	4.493205e+01	7.999135e+02
1.840000e-06	6.450445e-06	1.224071e-08	4.462638e+01	7.974783e+02
1.850000e-06	6.404046e-06	1.202906e-08	4.430537e+01	7.948350e+02
1.860000e-06	6.355233e-06	1.213583e-08	4.396767e+01	7.919720e+02
1.870000e-06	6.304135e-06	1.193656e-08	4.361416e+01	7.888836e+02
1.880000e-06	6.250517e-06	1.197423e-08	4.324321e+01	7.855695e+02
1.890000e-06	6.194144e-06	1.198716e-08	4.285320e+01	7.820345e+02
1.900000e-06	6.135498e-06	1.182424e-08	4.244747e+01	7.782872e+02
1.910000e-06	6.074580e-06	1.188577e-08	4.202601e+01	7.743388e+02
1.920000e-06	6.011381e-06	1.169130e-08	4.158879e+01	7.702021e+02
1.930000e-06	5.946007e-06	1.167226e-08	4.113651e+01	7.658899e+02
1.940000e-06	5.878469e-06	1.162941e-08	4.066925e+01	7.614144e+02
1.950000e-06	5.808695e-06	1.153821e-08	4.018653e+01	7.567855e+02
1.960000e-06	5.736506e-06	1.151523e-08	3.968710e+01	7.520109e+02
1.970000e-06	5.662206e-06	1.132536e-08	3.917308e+01	7.470953e+02
1.980000e-06	5.585722e-06	1.134677e-08	3.864393e+01	7.420402e+02
1.990000e-06	5.506922e-06	1.125052e-08	3.809877e+01	7.368439e+02
2.000000e-06	5.426103e-06	1.116152e-08	3.753963e+01	7.315021e+02
2.010000e-06	5.343455e-06	1.108788e-08	3.696785e+01	7.260079e+02
2.020000e-06	5.259074e-06	1.095957e-08	3.638407e+01	7.203523e+02
2.030000e-06	5.172672e-06	1.090117e-08	3.578631e+01	7.145255e+02
2.040000e-06	5.084283e-06	1.078177e-08	3.517480e+01	7.085171e+02
2.050000e-06	4.994239e-06	1.074650e-08	3.455185e+01	7.023174e+02
2.060000e-06	4.902683e-06	1.062076e-08	3.391843e+01	6.959176e+02
2.070000e-06	4.809454e-06	1.049642e-08	3.327344e+01	6.893110e+02
2.080000e-06	4.714360e-06	1.038116e-08	3.261555e+01	6.824936e+02
2.090000e-06	4.617618e-06	1.028808e-08	3.194626e+01	6.754635e+02
2.100000e-06	4.519361e-06	1.021458e-08	3.126648e+01	6.682216e+02
2.110000e-06	4.419641e-06	1.007976e-08	3.057658e+01	6.607709e+02
2.120000e-06	4.318310e-06	9.966736e-09	2.987554e+01	6.531155e+02
2.130000e-06	4.215258e-06	9.828411e-09	2.916259e+01	6.452599e+02
2.140000e-06	4.110608e-06	9.710263e-09	2.843859e+01	6.372077e+02
2.150000e-06	4.004520e-06	9.583864e-09	2.770464e+01	6.289607e+02
2.160000e-06	3.897130e-06	9.473686e-09	2.696167e+01	6.205180e+02
2.170000e-06	3.788409e-06	9.341958e-09	2.620951e+01	6.118751e+02
2.180000e-06	3.678261e-06	9.194342e-09	2.544746e+01	6.030241e+02
2.190000e-06	3.566665e-06	9.050112e-09	2.467541e+01	5.939541e+02
2.200000e-06	3.453667e-06	8.915614e-09	2.389365e+01	5.846517e+02
2.210000e-06	3.339330e-06	8.785566e-09	2.310262e+01	5.751025e+02
2.220000e-06	3.223724e-06	8.626607e-09	2.230283e+01	5.652924e+02
2.230000e-06	3.106733e-06	8.463108e-09	2.149344e+01	5.552090e+02
2.240000e-06	2.988407e-06	8.295844e-09	2.067482e+01	5.448429e+02
2.250000e-06	2.868876e-06	8.145107e-09	1.984786e+01	5.341887e+02
2.260000e-06	2.748264e-06	7.986917e-09	1.901343e+01	5.232446e+02
2.270000e-06	2.626708e-06	7.820522e-09	1.817246e+01	5.120128e+02
2.280000e-06	2.504256e-06	7.639970e-09	1.732530e+01	5.004979e+02
2.290000e-06	2.380971e-06	7.456292e-09	1.647237e+01	4.887053e+02
2.300000e-06	2.256878e-06	7.272372e-09	1.561385e+01	4.766398e+02
2.310000e-06	2.132061e-06	7.093038e-09	1.475033e+01	4.643030e+02
2.320000e-06	2.006522e-06	6.909475e-09	1.388181e+01	4.516922e+02
2.330000e-06	1.880215e-06	6.706852e-09	1.300797e+01	4.387988e+02
2.340000e-06	1.753126e-06	6.494648e-09	1.212872e+01	4.256082e+02
2.350000e-06	1.625356e-06	6.283028e-09	1.124477e+01	4.121003e+02
2.360000e-06	1.497070e-06	6.081001e-09	1.035724e+01	3.982504e+02
2.370000e-06	1.368347e-06	5.872221e-09	9.466692e+00	3.840313e+02
2.380000e-06	1.239246e-06	5.648372e-09	8.573524e+00	3.694157e+02
2.390000e-06	1.109807e-06	5.411691e-09	7.678021e+00	3.543782e+02
2.400000e-06	9.800127e-07	5.170660e-09	6.780062e+00	3.388973e+02
2.410000e-06	8.498882e-07	4.930052e-09	5.879816e+00	3.229566e+02
2.420000e-06	7.195048e-07	4.685904e-09	4.977780e+00	3.065447e+02
2.430000e-06	5.889694e-07	4.431915e-09	4.074691e+00	2.896540e+02
2.440000e-06	4.582827e-07	4.163545e-09	3.170556e+00	2.722789e+02
2.450000e-06	3.274344e-07	3.883072e-09	2.265303e+00	2.544127e+02
2.460000e-06	1.964495e-07	3.600003e-09	1.359105e+00	2.360438e+02
2.470000e-06	6.537644e-08	3.317619e-09	4.522965e-01	2.171532e+02
2.480000e-06	-6.571570e-08	3.029346e-09	-4.546436e-01	1.977113e+02
2.490000e-06	-1.967742e-07	2.722242e-09	-1.361351e+00	1.776772e+02
2.500000e-06	-3.278000e-07	2.398845e-09	-2.267832e+00	1.569993e+02
2.510000e-06	-4.587596e-07	2.068690e-09	-3.173855e+00	1.356176e+02
2.520000e-06	-5.895531e-07	1.732024e-09	-4.078730e+00	1.134692e+02
2.530000e-06	-7.201767e-07	1.386505e-09	-4.982428e+00	9.049440e+01
2.540000e-06	-8.506609e-07	1.026157e-09	-5.885162e+00	6.664456e+01
2.550000e-06	-9.808789e-07	6.515265e-10	-6.786055e+00	4.189076e+01
2.560000e-06	-1.110732e-06	2.634219e-10	-7.684423e+00	1.623162e+01
2.570000e-06	-1.240248e-06	-1.361053e-10	-8.580461e+00	-1.030004e+01
2.580000e-06	-1.369330e-06	-5.475741e-10	-9.473496e+00	-3.763274e+01
2.590000e-06	-1.497981e-06	-9.752157e-10	-1.036355e+01	-6.565480e+01
2.600000e-06	-1.626135e-06	-1.417774e-09	-1.125016e+01	-9.421606e+01
2.610000e-06	-1.753642e-06	-1.866690e-09	-1.213229e+01	-1.231331e+02
2.620000e-06	-1.880476e-06	-2.312109e-09	-1.300978e+01	-1.521971e+02
2.630000e-06	-2.006603e-06	-2.751511e-09	-1.388236e+01	-1.811847e+02
2.640000e-06	-2.131955e-06	-3.187303e-09	-1.474959e+01	-2.098701e+02
2.650000e-06	-2.256412e-06	-3.620277e-09	-1.561063e+01	-2.380368e+02
2.660000e-06	-2.379882e-06	-4.042739e-09	-1.646483e+01	-2.654902e+02
2.670000e-06	-2.502421e-06	-4.446603e-09	-1.731260e+01	-2.920664e+02
2.680000e-06	-2.624080e-06	-4.832303e-09	-1.815428e+01	-3.176399e+02
2.690000e-06	-2.744830e-06	-5.202571e-09	-1.898967e+01	-3.421271e+02
2.700000e-06	-2.864559e-06	-5.558278e-09	-1.981800e+01	-3.654866e+02
2.710000e-06	-2.983186e-06	-5.900327e-09	-2.063870e+01	-3.877160e+02
2.720000e-06	-3.100581e-06	-6.225864e-09	-2.145088e+01	-4.088460e+02
2.730000e-06	-3.216618e-06	-6.531650e-09	-2.225366e+01	-4.289326e+02
2.740000e-06	-3.331361e-06	-6.822217e-09	-2.304749e+01	-4.480479e+02
2.750000e-06	-3.444817e-06	-7.103936e-09	-2.383242e+01	-4.662710e+02
2.760000e-06	-3.556889e-06	-7.377157e-09	-2.460777e+01	-4.836802e+02
2.770000e-06	-3.667544e-06	-7.636574e-09	-2.537332e+01	-5.003460e+02
2.780000e-06	-3.776954e-06	-7.879590e-09	-2.613026e+01	-5.163274e+02
2.790000e-06	-3.885210e-06	-8.109651e-09	-2.687921e+01	-5.316695e+02
2.800000e-06	-3.992221e-06	-8.330515e-09	-2.761955e+01	-5.464042e+02
2.810000e-06	-4.097878e-06	-8.544075e-09	-2.835052e+01	-5.605520e+02
2.820000e-06	-4.202061e-06	-8.751192e-09	-2.907129e+01	-5.741259e+02
2.830000e-06	-4.304661e-06	-8.951534e-09	-2.978112e+01	-5.871353e+02
2.840000e-06	-4.405598e-06	-9.144259e-09	-3.047943e+01	-5.995894e+02
2.850000e-06	-4.504971e-06	-9.329122e-09	-3.116693e+01	-6.115013e+02
2.860000e-06	-4.602886e-06	-9.507344e-09	-3.184434e+01	-6.228890e+02
2.870000e-06	-4.699214e-06	-9.677696e-09	-3.251077e+01	-6.337763e+02
2.880000e-06	-4.793816e-06	-9.835834e-09	-3.316526e+01	-6.441921e+02
2.890000e-06	-4.886632e-06	-9.983376e-09	-3.380739e+01	-6.541681e+02
2.900000e-06	-4.977713e-06	-1.012437e-08	-3.443751e+01	-6.637367e+02
2.910000e-06	-5.067055e-06	-1.026184e-08	-3.505562e+01	-6.729273e+02
2.920000e-06	-5.154540e-06	-1.039601e-08	-3.566087e+01	-6.817643e+02
2.930000e-06	-5.240019e-06	-1.052463e-08	-3.625224e+01	-6.902652e+02
2.940000e-06	-5.323535e-06	-1.064801e-08	-3.683003e+01	-6.984399e+02
