# Temperatura_=_71.6
# Concentracion g/m^3_=_15000.0
# C_Vs_to_Am_M_A/Vsm_=_65563218390.804596
# pendiente_HvsI_1/m_=_3716.3
# ordenada_HvsI_A/m_=_1297.0
# frecuencia_Hz_=_301976.1658159742

Tiempo_(s)	Campo_(V.s)	Magnetizacion_(V.s)	Campo_(kA/m)	Magnetizacion_(A/m)
0.000000e+00	-6.872948e-06	-1.177367e-08	-4.748087e+01	-7.723542e+02
1.000000e-08	-6.871239e-06	-1.177913e-08	-4.746906e+01	-7.721264e+02
2.000000e-08	-6.867132e-06	-1.177621e-08	-4.744068e+01	-7.717340e+02
3.000000e-08	-6.860857e-06	-1.176821e-08	-4.739734e+01	-7.711776e+02
4.000000e-08	-6.852361e-06	-1.176185e-08	-4.733864e+01	-7.704629e+02
5.000000e-08	-6.841457e-06	-1.174705e-08	-4.726331e+01	-7.696003e+02
6.000000e-08	-6.828032e-06	-1.172849e-08	-4.717057e+01	-7.686045e+02
7.000000e-08	-6.812111e-06	-1.169477e-08	-4.706058e+01	-7.674928e+02
8.000000e-08	-6.793943e-06	-1.165847e-08	-4.693507e+01	-7.662835e+02
9.000000e-08	-6.773610e-06	-1.173540e-08	-4.679460e+01	-7.649937e+02
1.000000e-07	-6.750715e-06	-1.176598e-08	-4.663643e+01	-7.636377e+02
1.100000e-07	-6.724959e-06	-1.165809e-08	-4.645850e+01	-7.622250e+02
1.200000e-07	-6.696595e-06	-1.160749e-08	-4.626255e+01	-7.607597e+02
1.300000e-07	-6.666064e-06	-1.160104e-08	-4.605163e+01	-7.592394e+02
1.400000e-07	-6.633579e-06	-1.145090e-08	-4.582722e+01	-7.576557e+02
1.500000e-07	-6.599163e-06	-1.144441e-08	-4.558945e+01	-7.559950e+02
1.600000e-07	-6.562750e-06	-1.166498e-08	-4.533790e+01	-7.542391e+02
1.700000e-07	-6.524285e-06	-1.139093e-08	-4.507217e+01	-7.523674e+02
1.800000e-07	-6.483699e-06	-1.138173e-08	-4.479179e+01	-7.503584e+02
1.900000e-07	-6.440650e-06	-1.148762e-08	-4.449439e+01	-7.481914e+02
2.000000e-07	-6.395079e-06	-1.126396e-08	-4.417957e+01	-7.458480e+02
2.100000e-07	-6.347123e-06	-1.136980e-08	-4.384827e+01	-7.433135e+02
2.200000e-07	-6.296498e-06	-1.133241e-08	-4.349854e+01	-7.405777e+02
2.300000e-07	-6.243258e-06	-1.125749e-08	-4.313073e+01	-7.376351e+02
2.400000e-07	-6.187644e-06	-1.121404e-08	-4.274653e+01	-7.344852e+02
2.500000e-07	-6.129625e-06	-1.109158e-08	-4.234571e+01	-7.311318e+02
2.600000e-07	-6.069351e-06	-1.109777e-08	-4.192932e+01	-7.275823e+02
2.700000e-07	-6.006920e-06	-1.102472e-08	-4.149802e+01	-7.238467e+02
2.800000e-07	-5.942231e-06	-1.093059e-08	-4.105113e+01	-7.199364e+02
2.900000e-07	-5.875269e-06	-1.086621e-08	-4.058853e+01	-7.158632e+02
3.000000e-07	-5.806150e-06	-1.083125e-08	-4.011103e+01	-7.116378e+02
3.100000e-07	-5.734986e-06	-1.080591e-08	-3.961940e+01	-7.072694e+02
3.200000e-07	-5.661628e-06	-1.069298e-08	-3.911262e+01	-7.027643e+02
3.300000e-07	-5.585936e-06	-1.067508e-08	-3.858971e+01	-6.981258e+02
3.400000e-07	-5.507930e-06	-1.057295e-08	-3.805081e+01	-6.933537e+02
3.500000e-07	-5.427732e-06	-1.044998e-08	-3.749678e+01	-6.884446e+02
3.600000e-07	-5.345548e-06	-1.040418e-08	-3.692902e+01	-6.833921e+02
3.700000e-07	-5.261589e-06	-1.034928e-08	-3.634900e+01	-6.781873e+02
3.800000e-07	-5.175897e-06	-1.028596e-08	-3.575701e+01	-6.728199e+02
3.900000e-07	-5.088428e-06	-1.015897e-08	-3.515274e+01	-6.672788e+02
4.000000e-07	-4.999128e-06	-1.007785e-08	-3.453582e+01	-6.615536e+02
4.100000e-07	-4.908002e-06	-9.987633e-09	-3.390629e+01	-6.556348e+02
4.200000e-07	-4.815232e-06	-9.897606e-09	-3.326540e+01	-6.495155e+02
4.300000e-07	-4.720868e-06	-9.810890e-09	-3.261350e+01	-6.431910e+02
4.400000e-07	-4.624848e-06	-9.710926e-09	-3.195016e+01	-6.366600e+02
4.500000e-07	-4.527073e-06	-9.606268e-09	-3.127469e+01	-6.299236e+02
4.600000e-07	-4.427617e-06	-9.480847e-09	-3.058761e+01	-6.229852e+02
4.700000e-07	-4.326698e-06	-9.384747e-09	-2.989043e+01	-6.158496e+02
4.800000e-07	-4.224304e-06	-9.283615e-09	-2.918306e+01	-6.085222e+02
4.900000e-07	-4.120414e-06	-9.168513e-09	-2.846534e+01	-6.010075e+02
5.000000e-07	-4.014941e-06	-9.041399e-09	-2.773670e+01	-5.933080e+02
5.100000e-07	-3.907889e-06	-8.923122e-09	-2.699714e+01	-5.854239e+02
5.200000e-07	-3.799438e-06	-8.805469e-09	-2.624792e+01	-5.773518e+02
5.300000e-07	-3.689701e-06	-8.680186e-09	-2.548982e+01	-5.690850e+02
5.400000e-07	-3.578726e-06	-8.546578e-09	-2.472316e+01	-5.606138e+02
5.500000e-07	-3.466358e-06	-8.399689e-09	-2.394688e+01	-5.519262e+02
5.600000e-07	-3.352432e-06	-8.258852e-09	-2.315984e+01	-5.430091e+02
5.700000e-07	-3.237019e-06	-8.122537e-09	-2.236252e+01	-5.338493e+02
5.800000e-07	-3.120262e-06	-7.994645e-09	-2.155593e+01	-5.244354e+02
5.900000e-07	-3.002328e-06	-7.856134e-09	-2.074119e+01	-5.147581e+02
6.000000e-07	-2.883374e-06	-7.706521e-09	-1.991941e+01	-5.048115e+02
6.100000e-07	-2.763422e-06	-7.544143e-09	-1.909074e+01	-4.945935e+02
6.200000e-07	-2.642388e-06	-7.376880e-09	-1.825459e+01	-4.841046e+02
6.300000e-07	-2.520246e-06	-7.210407e-09	-1.741079e+01	-4.733480e+02
6.400000e-07	-2.397132e-06	-7.042782e-09	-1.656027e+01	-4.623275e+02
6.500000e-07	-2.273157e-06	-6.867830e-09	-1.570381e+01	-4.510464e+02
6.600000e-07	-2.148427e-06	-6.685248e-09	-1.484213e+01	-4.395058e+02
6.700000e-07	-2.023054e-06	-6.505312e-09	-1.397601e+01	-4.277029e+02
6.800000e-07	-1.897027e-06	-6.324671e-09	-1.310537e+01	-4.156304e+02
6.900000e-07	-1.770392e-06	-6.142088e-09	-1.223052e+01	-4.032761e+02
7.000000e-07	-1.643204e-06	-5.950027e-09	-1.135186e+01	-3.906232e+02
7.100000e-07	-1.515429e-06	-5.751216e-09	-1.046914e+01	-3.776512e+02
7.200000e-07	-1.387095e-06	-5.545847e-09	-9.582567e+00	-3.643377e+02
7.300000e-07	-1.258236e-06	-5.335381e-09	-8.692358e+00	-3.506601e+02
7.400000e-07	-1.128906e-06	-5.120968e-09	-7.798903e+00	-3.365975e+02
7.500000e-07	-9.991681e-07	-4.898576e-09	-6.902622e+00	-3.221320e+02
7.600000e-07	-8.690967e-07	-4.669773e-09	-6.004041e+00	-3.072497e+02
7.700000e-07	-7.387766e-07	-4.434605e-09	-5.103742e+00	-2.919404e+02
7.800000e-07	-6.082113e-07	-4.196616e-09	-4.201749e+00	-2.761971e+02
7.900000e-07	-4.774137e-07	-3.956144e-09	-3.298150e+00	-2.600135e+02
8.000000e-07	-3.464233e-07	-3.710920e-09	-2.393220e+00	-2.433822e+02
8.100000e-07	-2.152599e-07	-3.452799e-09	-1.487095e+00	-2.262911e+02
8.200000e-07	-8.398182e-08	-3.182507e-09	-5.801774e-01	-2.087211e+02
8.300000e-07	4.735799e-08	-2.904916e-09	3.271665e-01	-1.906441e+02
8.400000e-07	1.787495e-07	-2.618062e-09	1.234868e+00	-1.720216e+02
8.500000e-07	3.100547e-07	-2.322530e-09	2.141972e+00	-1.528058e+02
8.600000e-07	4.412424e-07	-2.016751e-09	3.048266e+00	-1.329416e+02
8.700000e-07	5.723527e-07	-1.699129e-09	3.954024e+00	-1.123707e+02
8.800000e-07	7.033036e-07	-1.370103e-09	4.858681e+00	-9.103743e+01
8.900000e-07	8.340222e-07	-1.034136e-09	5.761734e+00	-6.889515e+01
9.000000e-07	9.644843e-07	-6.882593e-10	6.663014e+00	-4.591386e+01
9.100000e-07	1.094625e-06	-3.281127e-10	7.562075e+00	-2.208701e+01
9.200000e-07	1.224354e-06	4.772491e-11	8.458289e+00	2.562446e+00
9.300000e-07	1.353573e-06	4.353334e-10	9.350982e+00	2.797792e+01
9.400000e-07	1.482259e-06	8.311169e-10	1.023999e+01	5.406734e+01
9.500000e-07	1.610412e-06	1.235026e-09	1.112532e+01	8.070408e+01
9.600000e-07	1.737939e-06	1.647164e-09	1.200632e+01	1.077307e+02
9.700000e-07	1.864806e-06	2.065665e-09	1.288277e+01	1.349656e+02
9.800000e-07	1.991051e-06	2.482919e-09	1.375491e+01	1.622111e+02
9.900000e-07	2.116637e-06	2.895480e-09	1.462251e+01	1.892640e+02
1.000000e-06	2.241503e-06	3.299687e-09	1.548513e+01	2.159260e+02
1.010000e-06	2.365635e-06	3.694111e-09	1.634268e+01	2.420137e+02
1.020000e-06	2.488935e-06	4.080408e-09	1.719449e+01	2.673678e+02
1.030000e-06	2.611258e-06	4.453778e-09	1.803954e+01	2.918596e+02
1.040000e-06	2.732508e-06	4.811203e-09	1.887717e+01	3.153955e+02
1.050000e-06	2.852625e-06	5.150158e-09	1.970699e+01	3.379185e+02
1.060000e-06	2.971681e-06	5.474558e-09	2.052947e+01	3.594062e+02
1.070000e-06	3.089766e-06	5.788313e-09	2.134525e+01	3.798674e+02
1.080000e-06	3.206827e-06	6.087389e-09	2.215395e+01	3.993362e+02
1.090000e-06	3.322673e-06	6.371600e-09	2.295425e+01	4.178647e+02
1.100000e-06	3.437103e-06	6.640642e-09	2.374478e+01	4.355159e+02
1.110000e-06	3.550043e-06	6.895556e-09	2.452501e+01	4.523563e+02
1.120000e-06	3.661622e-06	7.139432e-09	2.529584e+01	4.684505e+02
1.130000e-06	3.771992e-06	7.373627e-09	2.605831e+01	4.838566e+02
1.140000e-06	3.881162e-06	7.598731e-09	2.681250e+01	4.986233e+02
1.150000e-06	3.989134e-06	7.816139e-09	2.755841e+01	5.127893e+02
1.160000e-06	4.095763e-06	8.024442e-09	2.829505e+01	5.263841e+02
1.170000e-06	4.200795e-06	8.222853e-09	2.902064e+01	5.394299e+02
1.180000e-06	4.304237e-06	8.410679e-09	2.973526e+01	5.519438e+02
1.190000e-06	4.406204e-06	8.589978e-09	3.043969e+01	5.639409e+02
1.200000e-06	4.506652e-06	8.761733e-09	3.113361e+01	5.754365e+02
1.210000e-06	4.605486e-06	8.926090e-09	3.181640e+01	5.864478e+02
1.220000e-06	4.702512e-06	9.085024e-09	3.248669e+01	5.969947e+02
1.230000e-06	4.797734e-06	9.240047e-09	3.314452e+01	6.070995e+02
1.240000e-06	4.891356e-06	9.390780e-09	3.379129e+01	6.167860e+02
1.250000e-06	4.983414e-06	9.536479e-09	3.442726e+01	6.260778e+02
1.260000e-06	5.073706e-06	9.677323e-09	3.505104e+01	6.349966e+02
1.270000e-06	5.161997e-06	9.811249e-09	3.566098e+01	6.435607e+02
1.280000e-06	5.248382e-06	9.937638e-09	3.625776e+01	6.517834e+02
1.290000e-06	5.333011e-06	1.005839e-08	3.684241e+01	6.596731e+02
1.300000e-06	5.415802e-06	1.017569e-08	3.741436e+01	6.672332e+02
1.310000e-06	5.496558e-06	1.028499e-08	3.797226e+01	6.744633e+02
1.320000e-06	5.575276e-06	1.038665e-08	3.851606e+01	6.813613e+02
1.330000e-06	5.652044e-06	1.048604e-08	3.904641e+01	6.879250e+02
1.340000e-06	5.726640e-06	1.058386e-08	3.956174e+01	6.941545e+02
1.350000e-06	5.798963e-06	1.067507e-08	4.006138e+01	7.000540e+02
1.360000e-06	5.869207e-06	1.075873e-08	4.054665e+01	7.056326e+02
1.370000e-06	5.937452e-06	1.083864e-08	4.101811e+01	7.109050e+02
1.380000e-06	6.003488e-06	1.091416e-08	4.147431e+01	7.158910e+02
1.390000e-06	6.067248e-06	1.098488e-08	4.191479e+01	7.206139e+02
1.400000e-06	6.128968e-06	1.105254e-08	4.234118e+01	7.250986e+02
1.410000e-06	6.188792e-06	1.111839e-08	4.275447e+01	7.293696e+02
1.420000e-06	6.246434e-06	1.118157e-08	4.315267e+01	7.334482e+02
1.430000e-06	6.301775e-06	1.124138e-08	4.353499e+01	7.373508e+02
1.440000e-06	6.354843e-06	1.129980e-08	4.390161e+01	7.410873e+02
1.450000e-06	6.405234e-06	1.135809e-08	4.424973e+01	7.446610e+02
1.460000e-06	6.452996e-06	1.141240e-08	4.457968e+01	7.480681e+02
1.470000e-06	6.498514e-06	1.146149e-08	4.489413e+01	7.512998e+02
1.480000e-06	6.541844e-06	1.150578e-08	4.519348e+01	7.543435e+02
1.490000e-06	6.582813e-06	1.154550e-08	4.547651e+01	7.571853e+02
1.500000e-06	6.621411e-06	1.158264e-08	4.574315e+01	7.598126e+02
1.510000e-06	6.657840e-06	1.161829e-08	4.599482e+01	7.622157e+02
1.520000e-06	6.691914e-06	1.165350e-08	4.623022e+01	7.643900e+02
1.530000e-06	6.723494e-06	1.168569e-08	4.644838e+01	7.663367e+02
1.540000e-06	6.752820e-06	1.171277e-08	4.665098e+01	7.680625e+02
1.550000e-06	6.779873e-06	1.173622e-08	4.683787e+01	7.695794e+02
1.560000e-06	6.804341e-06	1.175680e-08	4.700690e+01	7.709029e+02
1.570000e-06	6.826262e-06	1.177332e-08	4.715834e+01	7.720499e+02
1.580000e-06	6.845900e-06	1.178412e-08	4.729401e+01	7.730373e+02
1.590000e-06	6.863063e-06	1.179254e-08	4.741257e+01	7.738792e+02
1.600000e-06	6.877625e-06	1.180230e-08	4.751317e+01	7.745860e+02
1.610000e-06	6.889626e-06	1.181231e-08	4.759609e+01	7.751633e+02
1.620000e-06	6.898911e-06	1.182075e-08	4.766022e+01	7.756117e+02
1.630000e-06	6.905622e-06	1.182747e-08	4.770659e+01	7.759270e+02
1.640000e-06	6.910058e-06	1.183248e-08	4.773723e+01	7.761024e+02
1.650000e-06	6.912014e-06	1.183633e-08	4.775075e+01	7.761292e+02
1.660000e-06	6.911435e-06	1.183357e-08	4.774675e+01	7.759991e+02
1.670000e-06	6.908665e-06	1.181454e-08	4.772761e+01	7.757063e+02
1.680000e-06	6.903648e-06	1.180593e-08	4.769295e+01	7.752485e+02
1.690000e-06	6.896258e-06	1.179877e-08	4.764190e+01	7.746283e+02
1.700000e-06	6.886656e-06	1.178974e-08	4.757556e+01	7.738534e+02
1.710000e-06	6.874785e-06	1.178234e-08	4.749356e+01	7.729359e+02
1.720000e-06	6.860476e-06	1.178620e-08	4.739470e+01	7.718918e+02
1.730000e-06	6.843946e-06	1.180603e-08	4.728051e+01	7.707390e+02
1.740000e-06	6.825387e-06	1.167432e-08	4.715229e+01	7.694956e+02
1.750000e-06	6.804109e-06	1.159903e-08	4.700530e+01	7.681777e+02
1.760000e-06	6.779419e-06	1.167001e-08	4.683473e+01	7.667979e+02
1.770000e-06	6.751776e-06	1.163248e-08	4.664376e+01	7.653638e+02
1.780000e-06	6.721792e-06	1.162876e-08	4.643662e+01	7.638769e+02
1.790000e-06	6.689966e-06	1.178980e-08	4.621676e+01	7.623324e+02
1.800000e-06	6.656775e-06	1.154145e-08	4.598746e+01	7.607198e+02
1.810000e-06	6.621744e-06	1.148099e-08	4.574545e+01	7.590234e+02
1.820000e-06	6.584074e-06	1.166774e-08	4.548522e+01	7.572239e+02
1.830000e-06	6.544124e-06	1.141108e-08	4.520923e+01	7.553003e+02
1.840000e-06	6.502085e-06	1.159772e-08	4.491881e+01	7.532309e+02
1.850000e-06	6.457771e-06	1.152643e-08	4.461267e+01	7.509960e+02
1.860000e-06	6.411172e-06	1.129931e-08	4.429075e+01	7.485785e+02
1.870000e-06	6.362093e-06	1.146272e-08	4.395169e+01	7.459652e+02
1.880000e-06	6.310782e-06	1.122457e-08	4.359721e+01	7.431480e+02
1.890000e-06	6.256941e-06	1.132376e-08	4.322526e+01	7.401231e+02
1.900000e-06	6.200389e-06	1.131658e-08	4.283458e+01	7.368920e+02
1.910000e-06	6.141620e-06	1.112486e-08	4.242858e+01	7.334599e+02
1.920000e-06	6.080499e-06	1.124560e-08	4.200633e+01	7.298354e+02
1.930000e-06	6.017076e-06	1.103494e-08	4.156819e+01	7.260292e+02
1.940000e-06	5.951519e-06	1.104472e-08	4.111530e+01	7.220529e+02
1.950000e-06	5.883762e-06	1.097294e-08	4.064720e+01	7.179180e+02
1.960000e-06	5.813677e-06	1.087380e-08	4.016303e+01	7.136349e+02
1.970000e-06	5.741222e-06	1.085282e-08	3.966248e+01	7.092116e+02
1.980000e-06	5.666724e-06	1.066291e-08	3.914783e+01	7.046532e+02
1.990000e-06	5.589997e-06	1.074908e-08	3.861777e+01	6.999618e+02
2.000000e-06	5.510950e-06	1.063151e-08	3.807168e+01	6.951359e+02
2.010000e-06	5.429964e-06	1.054141e-08	3.751220e+01	6.901708e+02
2.020000e-06	5.347230e-06	1.046315e-08	3.694064e+01	6.850590e+02
2.030000e-06	5.262671e-06	1.033874e-08	3.635648e+01	6.797910e+02
2.040000e-06	5.176016e-06	1.029578e-08	3.575783e+01	6.743561e+02
2.050000e-06	5.087480e-06	1.017542e-08	3.514619e+01	6.687433e+02
2.060000e-06	4.997324e-06	1.016390e-08	3.452336e+01	6.629424e+02
2.070000e-06	4.905582e-06	1.002664e-08	3.388958e+01	6.569449e+02
2.080000e-06	4.812113e-06	9.906023e-09	3.324385e+01	6.507448e+02
2.090000e-06	4.716781e-06	9.799143e-09	3.258526e+01	6.443386e+02
2.100000e-06	4.619805e-06	9.726314e-09	3.191532e+01	6.377260e+02
2.110000e-06	4.521336e-06	9.652461e-09	3.123506e+01	6.309091e+02
2.120000e-06	4.421422e-06	9.510682e-09	3.054482e+01	6.238920e+02
2.130000e-06	4.319829e-06	9.415010e-09	2.984297e+01	6.166799e+02
2.140000e-06	4.216465e-06	9.287280e-09	2.912890e+01	6.092778e+02
2.150000e-06	4.111531e-06	9.179341e-09	2.840398e+01	6.016897e+02
2.160000e-06	4.005266e-06	9.055360e-09	2.766986e+01	5.939172e+02
2.170000e-06	3.897704e-06	8.950827e-09	2.692678e+01	5.859592e+02
2.180000e-06	3.788753e-06	8.817813e-09	2.617411e+01	5.778110e+02
2.190000e-06	3.678354e-06	8.684184e-09	2.541143e+01	5.694646e+02
2.200000e-06	3.566494e-06	8.561784e-09	2.463866e+01	5.609093e+02
2.210000e-06	3.453286e-06	8.441237e-09	2.385658e+01	5.521325e+02
2.220000e-06	3.338750e-06	8.306033e-09	2.306532e+01	5.431210e+02
2.230000e-06	3.222854e-06	8.137467e-09	2.226467e+01	5.338620e+02
2.240000e-06	3.105527e-06	7.978560e-09	2.145413e+01	5.243449e+02
2.250000e-06	2.986912e-06	7.825938e-09	2.063469e+01	5.145617e+02
2.260000e-06	2.867154e-06	7.695225e-09	1.980736e+01	5.045080e+02
2.270000e-06	2.746339e-06	7.551201e-09	1.897273e+01	4.941827e+02
2.280000e-06	2.624632e-06	7.394454e-09	1.813193e+01	4.835876e+02
2.290000e-06	2.502075e-06	7.219209e-09	1.728526e+01	4.727262e+02
2.300000e-06	2.378671e-06	7.045478e-09	1.643274e+01	4.616025e+02
2.310000e-06	2.254488e-06	6.873813e-09	1.557484e+01	4.502189e+02
2.320000e-06	2.129510e-06	6.705111e-09	1.471144e+01	4.385752e+02
2.330000e-06	2.003641e-06	6.526571e-09	1.384189e+01	4.266669e+02
2.340000e-06	1.877008e-06	6.331289e-09	1.296707e+01	4.144848e+02
2.350000e-06	1.749707e-06	6.133340e-09	1.208762e+01	4.020148e+02
2.360000e-06	1.621784e-06	5.936142e-09	1.120388e+01	3.892385e+02
2.370000e-06	1.493347e-06	5.745635e-09	1.031659e+01	3.761345e+02
2.380000e-06	1.364472e-06	5.545516e-09	9.426279e+00	3.626800e+02
2.390000e-06	1.235225e-06	5.332563e-09	8.533391e+00	3.488529e+02
2.400000e-06	1.105599e-06	5.111869e-09	7.637889e+00	3.346334e+02
2.410000e-06	9.755796e-07	4.889291e-09	6.739665e+00	3.200049e+02
2.420000e-06	8.452529e-07	4.663748e-09	5.839320e+00	3.049553e+02
2.430000e-06	7.147482e-07	4.429110e-09	4.937745e+00	2.894756e+02
2.440000e-06	5.840384e-07	4.181453e-09	4.034753e+00	2.735595e+02
2.450000e-06	4.531054e-07	3.924382e-09	3.130220e+00	2.572005e+02
2.460000e-06	3.220567e-07	3.665096e-09	2.224887e+00	2.403897e+02
2.470000e-06	1.909218e-07	3.405895e-09	1.318958e+00	2.231126e+02
2.480000e-06	5.968925e-08	3.142452e-09	4.123554e-01	2.053467e+02
2.490000e-06	-7.159628e-08	2.868095e-09	-4.946136e-01	1.870599e+02
2.500000e-06	-2.028595e-07	2.576293e-09	-1.401428e+00	1.682099e+02
2.510000e-06	-3.340416e-07	2.272250e-09	-2.307683e+00	1.487456e+02
2.520000e-06	-4.651730e-07	1.962183e-09	-3.213587e+00	1.286101e+02
2.530000e-06	-5.962134e-07	1.644919e-09	-4.118862e+00	1.077454e+02
2.540000e-06	-7.270829e-07	1.316353e-09	-5.022957e+00	8.609851e+01
2.550000e-06	-8.577239e-07	9.738055e-10	-5.925474e+00	6.362843e+01
2.560000e-06	-9.880311e-07	6.200819e-10	-6.825684e+00	4.031361e+01
2.570000e-06	-1.117930e-06	2.547548e-10	-7.723074e+00	1.615846e+01
2.580000e-06	-1.247452e-06	-1.196418e-10	-8.617861e+00	-8.801246e+00
2.590000e-06	-1.376630e-06	-5.057869e-10	-9.510265e+00	-3.449504e+01
2.600000e-06	-1.505428e-06	-9.087700e-10	-1.040005e+01	-6.081701e+01
2.610000e-06	-1.633712e-06	-1.326095e-09	-1.128629e+01	-8.762782e+01
2.620000e-06	-1.761352e-06	-1.748406e-09	-1.216807e+01	-1.147596e+02
2.630000e-06	-1.888344e-06	-2.166958e-09	-1.304538e+01	-1.420234e+02
2.640000e-06	-2.014639e-06	-2.582961e-09	-1.391787e+01	-1.692180e+02
2.650000e-06	-2.140086e-06	-2.997017e-09	-1.478450e+01	-1.961411e+02
2.660000e-06	-2.264616e-06	-3.403481e-09	-1.564480e+01	-2.225988e+02
2.670000e-06	-2.388183e-06	-3.797324e-09	-1.649845e+01	-2.484163e+02
2.680000e-06	-2.510772e-06	-4.177268e-09	-1.734534e+01	-2.734457e+02
2.690000e-06	-2.632460e-06	-4.543749e-09	-1.818601e+01	-2.975717e+02
2.700000e-06	-2.753236e-06	-4.896550e-09	-1.902037e+01	-3.207152e+02
2.710000e-06	-2.873031e-06	-5.234643e-09	-1.984796e+01	-3.428328e+02
2.720000e-06	-2.991781e-06	-5.557499e-09	-2.066833e+01	-3.639153e+02
2.730000e-06	-3.109335e-06	-5.862603e-09	-2.148043e+01	-3.839821e+02
2.740000e-06	-3.225544e-06	-6.150825e-09	-2.228325e+01	-4.030751e+02
2.750000e-06	-3.340449e-06	-6.427909e-09	-2.307706e+01	-4.212516e+02
2.760000e-06	-3.454073e-06	-6.696780e-09	-2.386201e+01	-4.385769e+02
2.770000e-06	-3.566309e-06	-6.954600e-09	-2.463738e+01	-4.551174e+02
2.780000e-06	-3.677048e-06	-7.197524e-09	-2.540241e+01	-4.709355e+02
2.790000e-06	-3.786436e-06	-7.427444e-09	-2.615810e+01	-4.860857e+02
2.800000e-06	-3.894656e-06	-7.647047e-09	-2.690573e+01	-5.006129e+02
2.810000e-06	-4.001697e-06	-7.858549e-09	-2.764520e+01	-5.145521e+02
2.820000e-06	-4.107376e-06	-8.064069e-09	-2.837527e+01	-5.279295e+02
2.830000e-06	-4.211568e-06	-8.262090e-09	-2.909506e+01	-5.407651e+02
2.840000e-06	-4.314227e-06	-8.451934e-09	-2.980427e+01	-5.530748e+02
2.850000e-06	-4.415202e-06	-8.633384e-09	-3.050185e+01	-5.648736e+02
2.860000e-06	-4.514591e-06	-8.806905e-09	-3.118846e+01	-5.761773e+02
2.870000e-06	-4.612499e-06	-8.973513e-09	-3.186485e+01	-5.870043e+02
2.880000e-06	-4.708867e-06	-9.132666e-09	-3.253060e+01	-5.973754e+02
2.890000e-06	-4.803550e-06	-9.282585e-09	-3.318470e+01	-6.073136e+02
2.900000e-06	-4.896394e-06	-9.424113e-09	-3.382610e+01	-6.168429e+02
2.910000e-06	-4.987504e-06	-9.559742e-09	-3.445552e+01	-6.259863e+02
2.920000e-06	-5.076871e-06	-9.691403e-09	-3.507290e+01	-6.347645e+02
2.930000e-06	-5.164324e-06	-9.819878e-09	-3.567706e+01	-6.431937e+02
2.940000e-06	-5.249728e-06	-9.943531e-09	-3.626706e+01	-6.512855e+02
