# Temperatura_=_69.78
# Concentracion g/m^3_=_15000.0
# C_Vs_to_Am_M_A/Vsm_=_65563218390.804596
# pendiente_HvsI_1/m_=_3716.3
# ordenada_HvsI_A/m_=_1297.0
# frecuencia_Hz_=_301968.34702051966

Tiempo_(s)	Campo_(V.s)	Magnetizacion_(V.s)	Campo_(kA/m)	Magnetizacion_(A/m)
0.000000e+00	-6.802180e-06	-1.159841e-08	-4.746986e+01	-7.599951e+02
1.000000e-08	-6.798594e-06	-1.159277e-08	-4.744484e+01	-7.596962e+02
2.000000e-08	-6.792824e-06	-1.158461e-08	-4.740457e+01	-7.592227e+02
3.000000e-08	-6.784940e-06	-1.157667e-08	-4.734955e+01	-7.585816e+02
4.000000e-08	-6.774746e-06	-1.156810e-08	-4.727841e+01	-7.577860e+02
5.000000e-08	-6.762057e-06	-1.155454e-08	-4.718986e+01	-7.568538e+02
6.000000e-08	-6.746907e-06	-1.153930e-08	-4.708413e+01	-7.558059e+02
7.000000e-08	-6.729400e-06	-1.152274e-08	-4.696197e+01	-7.546637e+02
8.000000e-08	-6.709712e-06	-1.150766e-08	-4.682457e+01	-7.534469e+02
9.000000e-08	-6.687617e-06	-1.151745e-08	-4.667038e+01	-7.521709e+02
1.000000e-07	-6.662736e-06	-1.150551e-08	-4.649674e+01	-7.508452e+02
1.100000e-07	-6.635183e-06	-1.145746e-08	-4.630446e+01	-7.494723e+02
1.200000e-07	-6.605405e-06	-1.141085e-08	-4.609665e+01	-7.480474e+02
1.300000e-07	-6.573717e-06	-1.136648e-08	-4.587551e+01	-7.465587e+02
1.400000e-07	-6.540114e-06	-1.132641e-08	-4.564101e+01	-7.449889e+02
1.500000e-07	-6.504521e-06	-1.133481e-08	-4.539261e+01	-7.433169e+02
1.600000e-07	-6.466915e-06	-1.134321e-08	-4.513017e+01	-7.415198e+02
1.700000e-07	-6.427205e-06	-1.127336e-08	-4.485306e+01	-7.395751e+02
1.800000e-07	-6.385145e-06	-1.124579e-08	-4.455954e+01	-7.374624e+02
1.900000e-07	-6.340603e-06	-1.120619e-08	-4.424869e+01	-7.351655e+02
2.000000e-07	-6.293789e-06	-1.113568e-08	-4.392200e+01	-7.326728e+02
2.100000e-07	-6.244437e-06	-1.113009e-08	-4.357759e+01	-7.299780e+02
2.200000e-07	-6.192330e-06	-1.109140e-08	-4.321395e+01	-7.270799e+02
2.300000e-07	-6.137791e-06	-1.102320e-08	-4.283334e+01	-7.239819e+02
2.400000e-07	-6.080907e-06	-1.096964e-08	-4.243637e+01	-7.206907e+02
2.500000e-07	-6.021725e-06	-1.093000e-08	-4.202336e+01	-7.172152e+02
2.600000e-07	-5.960369e-06	-1.087729e-08	-4.159518e+01	-7.135653e+02
2.700000e-07	-5.896850e-06	-1.080400e-08	-4.115191e+01	-7.097509e+02
2.800000e-07	-5.831133e-06	-1.076594e-08	-4.069330e+01	-7.057804e+02
2.900000e-07	-5.763259e-06	-1.069820e-08	-4.021963e+01	-7.016608e+02
3.000000e-07	-5.693233e-06	-1.061807e-08	-3.973094e+01	-6.973964e+02
3.100000e-07	-5.621088e-06	-1.056828e-08	-3.922747e+01	-6.929896e+02
3.200000e-07	-5.546760e-06	-1.049327e-08	-3.870876e+01	-6.884401e+02
3.300000e-07	-5.470175e-06	-1.041179e-08	-3.817430e+01	-6.837459e+02
3.400000e-07	-5.391331e-06	-1.033112e-08	-3.762408e+01	-6.789032e+02
3.500000e-07	-5.310360e-06	-1.026449e-08	-3.705901e+01	-6.739071e+02
3.600000e-07	-5.227576e-06	-1.019854e-08	-3.648129e+01	-6.687519e+02
3.700000e-07	-5.143130e-06	-1.011859e-08	-3.589198e+01	-6.634318e+02
3.800000e-07	-5.056963e-06	-1.003390e-08	-3.529065e+01	-6.579408e+02
3.900000e-07	-4.969029e-06	-9.940579e-09	-3.467699e+01	-6.522739e+02
4.000000e-07	-4.879329e-06	-9.845427e-09	-3.405101e+01	-6.464264e+02
4.100000e-07	-4.787854e-06	-9.747793e-09	-3.341264e+01	-6.403953e+02
4.200000e-07	-4.694757e-06	-9.668664e-09	-3.276295e+01	-6.341785e+02
4.300000e-07	-4.600074e-06	-9.582287e-09	-3.210220e+01	-6.277753e+02
4.400000e-07	-4.503746e-06	-9.474053e-09	-3.142996e+01	-6.211866e+02
4.500000e-07	-4.405638e-06	-9.368951e-09	-3.074529e+01	-6.144141e+02
4.600000e-07	-4.305910e-06	-9.263298e-09	-3.004933e+01	-6.074600e+02
4.700000e-07	-4.204801e-06	-9.149638e-09	-2.934373e+01	-6.003269e+02
4.800000e-07	-4.102207e-06	-9.033347e-09	-2.862777e+01	-5.930166e+02
4.900000e-07	-3.998185e-06	-8.921034e-09	-2.790184e+01	-5.855297e+02
5.000000e-07	-3.892674e-06	-8.801621e-09	-2.716552e+01	-5.778651e+02
5.100000e-07	-3.785572e-06	-8.681287e-09	-2.641809e+01	-5.700191e+02
5.200000e-07	-3.677082e-06	-8.564401e-09	-2.566097e+01	-5.619856e+02
5.300000e-07	-3.567370e-06	-8.440090e-09	-2.489534e+01	-5.537560e+02
5.400000e-07	-3.456403e-06	-8.305180e-09	-2.412094e+01	-5.453196e+02
5.500000e-07	-3.344153e-06	-8.168548e-09	-2.333759e+01	-5.366644e+02
5.600000e-07	-3.230453e-06	-8.036881e-09	-2.254412e+01	-5.277777e+02
5.700000e-07	-3.115221e-06	-7.901074e-09	-2.173996e+01	-5.186477e+02
5.800000e-07	-2.998683e-06	-7.757635e-09	-2.092668e+01	-5.092640e+02
5.900000e-07	-2.881075e-06	-7.608036e-09	-2.010594e+01	-4.996187e+02
6.000000e-07	-2.762463e-06	-7.454139e-09	-1.927819e+01	-4.897066e+02
6.100000e-07	-2.642864e-06	-7.295172e-09	-1.844356e+01	-4.795256e+02
6.200000e-07	-2.522404e-06	-7.135855e-09	-1.760291e+01	-4.690761e+02
6.300000e-07	-2.401008e-06	-6.978412e-09	-1.675574e+01	-4.583600e+02
6.400000e-07	-2.278545e-06	-6.814212e-09	-1.590111e+01	-4.473798e+02
6.500000e-07	-2.155132e-06	-6.642024e-09	-1.503986e+01	-4.361370e+02
6.600000e-07	-2.030994e-06	-6.466469e-09	-1.417355e+01	-4.246307e+02
6.700000e-07	-1.906215e-06	-6.285605e-09	-1.330276e+01	-4.128567e+02
6.800000e-07	-1.780833e-06	-6.098737e-09	-1.242777e+01	-4.008067e+02
6.900000e-07	-1.654893e-06	-5.909192e-09	-1.154888e+01	-3.884680e+02
7.000000e-07	-1.528370e-06	-5.715917e-09	-1.066592e+01	-3.758240e+02
7.100000e-07	-1.401320e-06	-5.517551e-09	-9.779291e+00	-3.628556e+02
7.200000e-07	-1.273858e-06	-5.314439e-09	-8.889778e+00	-3.495420e+02
7.300000e-07	-1.146035e-06	-5.106405e-09	-7.997752e+00	-3.358626e+02
7.400000e-07	-1.017815e-06	-4.891552e-09	-7.102949e+00	-3.217988e+02
7.500000e-07	-8.892340e-07	-4.668440e-09	-6.205631e+00	-3.073343e+02
7.600000e-07	-7.604067e-07	-4.440346e-09	-5.306594e+00	-2.924563e+02
7.700000e-07	-6.313267e-07	-4.209778e-09	-4.405792e+00	-2.771550e+02
7.800000e-07	-5.019940e-07	-3.973294e-09	-3.503228e+00	-2.614222e+02
7.900000e-07	-3.725040e-07	-3.729364e-09	-2.599566e+00	-2.452494e+02
8.000000e-07	-2.428796e-07	-3.478320e-09	-1.694965e+00	-2.286258e+02
8.100000e-07	-1.130745e-07	-3.217861e-09	-7.891044e-01	-2.115352e+02
8.200000e-07	1.685071e-08	-2.949177e-09	1.175948e-01	-1.939544e+02
8.300000e-07	1.467620e-07	-2.671696e-09	1.024197e+00	-1.758511e+02
8.400000e-07	2.766144e-07	-2.383698e-09	1.930388e+00	-1.571843e+02
8.500000e-07	4.063746e-07	-2.086331e-09	2.835936e+00	-1.379052e+02
8.600000e-07	5.360398e-07	-1.778879e-09	3.740821e+00	-1.179603e+02
8.700000e-07	6.655981e-07	-1.460354e-09	4.644960e+00	-9.729596e+01
8.800000e-07	7.949348e-07	-1.132682e-09	5.547553e+00	-7.586411e+01
8.900000e-07	9.239732e-07	-7.964636e-10	6.448063e+00	-5.362910e+01
9.000000e-07	1.052647e-06	-4.487577e-10	7.346027e+00	-3.057444e+01
9.100000e-07	1.180929e-06	-8.843302e-11	8.241263e+00	-6.709056e+00
9.200000e-07	1.308860e-06	2.866630e-10	9.134044e+00	1.792773e+01
9.300000e-07	1.436341e-06	6.751874e-10	1.002369e+01	4.326323e+01
9.400000e-07	1.563292e-06	1.071858e-09	1.090963e+01	6.919089e+01
9.500000e-07	1.689716e-06	1.475164e-09	1.179190e+01	9.557247e+01
9.600000e-07	1.815593e-06	1.882961e-09	1.267034e+01	1.222429e+02
9.700000e-07	1.940844e-06	2.291906e-09	1.354442e+01	1.490176e+02
9.800000e-07	2.065398e-06	2.698158e-09	1.441364e+01	1.757013e+02
9.900000e-07	2.189321e-06	3.098295e-09	1.527845e+01	2.020983e+02
1.000000e-06	2.312600e-06	3.490100e-09	1.613877e+01	2.280226e+02
1.010000e-06	2.434982e-06	3.872671e-09	1.699283e+01	2.533068e+02
1.020000e-06	2.556203e-06	4.246293e-09	1.783879e+01	2.778104e+02
1.030000e-06	2.676325e-06	4.606273e-09	1.867707e+01	3.014249e+02
1.040000e-06	2.795437e-06	4.949465e-09	1.950831e+01	3.240765e+02
1.050000e-06	2.913568e-06	5.276307e-09	2.033270e+01	3.457262e+02
1.060000e-06	3.030705e-06	5.589303e-09	2.115016e+01	3.663673e+02
1.070000e-06	3.146791e-06	5.889497e-09	2.196027e+01	3.860202e+02
1.080000e-06	3.261618e-06	6.176308e-09	2.276161e+01	4.047264e+02
1.090000e-06	3.374954e-06	6.449696e-09	2.355254e+01	4.225415e+02
1.100000e-06	3.486909e-06	6.708277e-09	2.433383e+01	4.395278e+02
1.110000e-06	3.597640e-06	6.953903e-09	2.510658e+01	4.557485e+02
1.120000e-06	3.707226e-06	7.189366e-09	2.587134e+01	4.712623e+02
1.130000e-06	3.815694e-06	7.415730e-09	2.662830e+01	4.861202e+02
1.140000e-06	3.923003e-06	7.633785e-09	2.737717e+01	5.003640e+02
1.150000e-06	4.028847e-06	7.842341e-09	2.811582e+01	5.140261e+02
1.160000e-06	4.133067e-06	8.041033e-09	2.884312e+01	5.271309e+02
1.170000e-06	4.235813e-06	8.230738e-09	2.956015e+01	5.396970e+02
1.180000e-06	4.337120e-06	8.411112e-09	3.026714e+01	5.517399e+02
1.190000e-06	4.436999e-06	8.584220e-09	3.096415e+01	5.632744e+02
1.200000e-06	4.535277e-06	8.750756e-09	3.165000e+01	5.743162e+02
1.210000e-06	4.631740e-06	8.910422e-09	3.232318e+01	5.848834e+02
1.220000e-06	4.726449e-06	9.063415e-09	3.298412e+01	5.949965e+02
1.230000e-06	4.819545e-06	9.212956e-09	3.363380e+01	6.046778e+02
1.240000e-06	4.911124e-06	9.357399e-09	3.427289e+01	6.139501e+02
1.250000e-06	5.000927e-06	9.495126e-09	3.489959e+01	6.228352e+02
1.260000e-06	5.088763e-06	9.628628e-09	3.551257e+01	6.313521e+02
1.270000e-06	5.174764e-06	9.755314e-09	3.611274e+01	6.395162e+02
1.280000e-06	5.259032e-06	9.876236e-09	3.670082e+01	6.473382e+02
1.290000e-06	5.341498e-06	9.992529e-09	3.727631e+01	6.548245e+02
1.300000e-06	5.421981e-06	1.010196e-08	3.783798e+01	6.619782e+02
1.310000e-06	5.500470e-06	1.020361e-08	3.838572e+01	6.688005e+02
1.320000e-06	5.576963e-06	1.029926e-08	3.891954e+01	6.752922e+02
1.330000e-06	5.651248e-06	1.039248e-08	3.943794e+01	6.814562e+02
1.340000e-06	5.723317e-06	1.048141e-08	3.994089e+01	6.872987e+02
1.350000e-06	5.793363e-06	1.056458e-08	4.042971e+01	6.928307e+02
1.360000e-06	5.861443e-06	1.064369e-08	4.090481e+01	6.980677e+02
1.370000e-06	5.927358e-06	1.071912e-08	4.136481e+01	7.030297e+02
1.380000e-06	5.991047e-06	1.079158e-08	4.180927e+01	7.077397e+02
1.390000e-06	6.052745e-06	1.086126e-08	4.223984e+01	7.122218e+02
1.400000e-06	6.112503e-06	1.092767e-08	4.265687e+01	7.164987e+02
1.410000e-06	6.170039e-06	1.099004e-08	4.305839e+01	7.205899e+02
1.420000e-06	6.225255e-06	1.104965e-08	4.344372e+01	7.245095e+02
1.430000e-06	6.278234e-06	1.110647e-08	4.381344e+01	7.282651e+02
1.440000e-06	6.328645e-06	1.116171e-08	4.416524e+01	7.318571e+02
1.450000e-06	6.376495e-06	1.121478e-08	4.449917e+01	7.352797e+02
1.460000e-06	6.422134e-06	1.126427e-08	4.481767e+01	7.385222e+02
1.470000e-06	6.465675e-06	1.131039e-08	4.512152e+01	7.415708e+02
1.480000e-06	6.506859e-06	1.135219e-08	4.540893e+01	7.444113e+02
1.490000e-06	6.545631e-06	1.139034e-08	4.567950e+01	7.470317e+02
1.500000e-06	6.582234e-06	1.142414e-08	4.593495e+01	7.494242e+02
1.510000e-06	6.616535e-06	1.145489e-08	4.617432e+01	7.515867e+02
1.520000e-06	6.648405e-06	1.148459e-08	4.639673e+01	7.535237e+02
1.530000e-06	6.677963e-06	1.151190e-08	4.660300e+01	7.552458e+02
1.540000e-06	6.705314e-06	1.153680e-08	4.679387e+01	7.567689e+02
1.550000e-06	6.730149e-06	1.155769e-08	4.696719e+01	7.581118e+02
1.560000e-06	6.752431e-06	1.157387e-08	4.712269e+01	7.592943e+02
1.570000e-06	6.772473e-06	1.158651e-08	4.726255e+01	7.603345e+02
1.580000e-06	6.790128e-06	1.159803e-08	4.738576e+01	7.612470e+02
1.590000e-06	6.805227e-06	1.160982e-08	4.749113e+01	7.620405e+02
1.600000e-06	6.817810e-06	1.162020e-08	4.757895e+01	7.627180e+02
1.610000e-06	6.827725e-06	1.162775e-08	4.764814e+01	7.632760e+02
1.620000e-06	6.834954e-06	1.163335e-08	4.769858e+01	7.637062e+02
1.630000e-06	6.839820e-06	1.163830e-08	4.773254e+01	7.639966e+02
1.640000e-06	6.842350e-06	1.164106e-08	4.775020e+01	7.641342e+02
1.650000e-06	6.842429e-06	1.164039e-08	4.775075e+01	7.641074e+02
1.660000e-06	6.840183e-06	1.163548e-08	4.773507e+01	7.639079e+02
1.670000e-06	6.835744e-06	1.162642e-08	4.770410e+01	7.635327e+02
1.680000e-06	6.828983e-06	1.161811e-08	4.765691e+01	7.629851e+02
1.690000e-06	6.819966e-06	1.160979e-08	4.759399e+01	7.622748e+02
1.700000e-06	6.808844e-06	1.159840e-08	4.751637e+01	7.614172e+02
1.710000e-06	6.795354e-06	1.158526e-08	4.742223e+01	7.604318e+02
1.720000e-06	6.779504e-06	1.157222e-08	4.731162e+01	7.593399e+02
1.730000e-06	6.761548e-06	1.155438e-08	4.718631e+01	7.581625e+02
1.740000e-06	6.741134e-06	1.150274e-08	4.704385e+01	7.569177e+02
1.750000e-06	6.717551e-06	1.147172e-08	4.687927e+01	7.556186e+02
1.760000e-06	6.690893e-06	1.147071e-08	4.669324e+01	7.542718e+02
1.770000e-06	6.661815e-06	1.146600e-08	4.649031e+01	7.528766e+02
1.780000e-06	6.630707e-06	1.146411e-08	4.627322e+01	7.514251e+02
1.790000e-06	6.598117e-06	1.144002e-08	4.604579e+01	7.499030e+02
1.800000e-06	6.563974e-06	1.137418e-08	4.580752e+01	7.482911e+02
1.810000e-06	6.527357e-06	1.136312e-08	4.555198e+01	7.465673e+02
1.820000e-06	6.488257e-06	1.136550e-08	4.527912e+01	7.447086e+02
1.830000e-06	6.447081e-06	1.133105e-08	4.499176e+01	7.426931e+02
1.840000e-06	6.403714e-06	1.133997e-08	4.468912e+01	7.405022e+02
1.850000e-06	6.358145e-06	1.127461e-08	4.437111e+01	7.381215e+02
1.860000e-06	6.310232e-06	1.119708e-08	4.403675e+01	7.355416e+02
1.870000e-06	6.260047e-06	1.116600e-08	4.368652e+01	7.327585e+02
1.880000e-06	6.207507e-06	1.110519e-08	4.331986e+01	7.297731e+02
1.890000e-06	6.152251e-06	1.108383e-08	4.293426e+01	7.265903e+02
1.900000e-06	6.094582e-06	1.102889e-08	4.253180e+01	7.232179e+02
1.910000e-06	6.034660e-06	1.098785e-08	4.211363e+01	7.196654e+02
1.920000e-06	5.972372e-06	1.092734e-08	4.167895e+01	7.159428e+02
1.930000e-06	5.907892e-06	1.081667e-08	4.122896e+01	7.120595e+02
1.940000e-06	5.841323e-06	1.080731e-08	4.076441e+01	7.080234e+02
1.950000e-06	5.772652e-06	1.073499e-08	4.028517e+01	7.038403e+02
1.960000e-06	5.701660e-06	1.066014e-08	3.978975e+01	6.995137e+02
1.970000e-06	5.628410e-06	1.060294e-08	3.927857e+01	6.950449e+02
1.980000e-06	5.553115e-06	1.052357e-08	3.875311e+01	6.904327e+02
1.990000e-06	5.475530e-06	1.047726e-08	3.821167e+01	6.856744e+02
2.000000e-06	5.395766e-06	1.037569e-08	3.765503e+01	6.807655e+02
2.010000e-06	5.314138e-06	1.030478e-08	3.708538e+01	6.757010e+02
2.020000e-06	5.230794e-06	1.022266e-08	3.650375e+01	6.704748e+02
2.030000e-06	5.145578e-06	1.013595e-08	3.590906e+01	6.650811e+02
2.040000e-06	5.058295e-06	1.006339e-08	3.529995e+01	6.595143e+02
2.050000e-06	4.969263e-06	9.978047e-09	3.467863e+01	6.537694e+02
2.060000e-06	4.878757e-06	9.895923e-09	3.404701e+01	6.478426e+02
2.070000e-06	4.786686e-06	9.773153e-09	3.340449e+01	6.417310e+02
2.080000e-06	4.692792e-06	9.672404e-09	3.274924e+01	6.354333e+02
2.090000e-06	4.597121e-06	9.568672e-09	3.208158e+01	6.289495e+02
2.100000e-06	4.499894e-06	9.476049e-09	3.140308e+01	6.222807e+02
2.110000e-06	4.401194e-06	9.385330e-09	3.071429e+01	6.154290e+02
2.120000e-06	4.301055e-06	9.284527e-09	3.001545e+01	6.083969e+02
2.130000e-06	4.199324e-06	9.176338e-09	2.930551e+01	6.011866e+02
2.140000e-06	4.095934e-06	9.054490e-09	2.858399e+01	5.937997e+02
2.150000e-06	3.991010e-06	8.940252e-09	2.785176e+01	5.862359e+02
2.160000e-06	3.884758e-06	8.816980e-09	2.711027e+01	5.784931e+02
2.170000e-06	3.777264e-06	8.699775e-09	2.636011e+01	5.705666e+02
2.180000e-06	3.668439e-06	8.576126e-09	2.560066e+01	5.624492e+02
2.190000e-06	3.558110e-06	8.450755e-09	2.483072e+01	5.541314e+02
2.200000e-06	3.446394e-06	8.316476e-09	2.405109e+01	5.456017e+02
2.210000e-06	3.333399e-06	8.184468e-09	2.326254e+01	5.368478e+02
2.220000e-06	3.219060e-06	8.050064e-09	2.246461e+01	5.278572e+02
2.230000e-06	3.103392e-06	7.904819e-09	2.165741e+01	5.186186e+02
2.240000e-06	2.986456e-06	7.757301e-09	2.084136e+01	5.091226e+02
2.250000e-06	2.868284e-06	7.612470e-09	2.001668e+01	4.993623e+02
2.260000e-06	2.748869e-06	7.467420e-09	1.918333e+01	4.893341e+02
2.270000e-06	2.628480e-06	7.307930e-09	1.834318e+01	4.790368e+02
2.280000e-06	2.507241e-06	7.145052e-09	1.749710e+01	4.684717e+02
2.290000e-06	2.385128e-06	6.977819e-09	1.664491e+01	4.576411e+02
2.300000e-06	2.262220e-06	6.805266e-09	1.578718e+01	4.465473e+02
2.310000e-06	2.138629e-06	6.630893e-09	1.492469e+01	4.351908e+02
2.320000e-06	2.014412e-06	6.461289e-09	1.405783e+01	4.235695e+02
2.330000e-06	1.889506e-06	6.285378e-09	1.318615e+01	4.116775e+02
2.340000e-06	1.763848e-06	6.098016e-09	1.230923e+01	3.995045e+02
2.350000e-06	1.637452e-06	5.903306e-09	1.142717e+01	3.870361e+02
2.360000e-06	1.510336e-06	5.708062e-09	1.054007e+01	3.742546e+02
2.370000e-06	1.382646e-06	5.511799e-09	9.648968e+00	3.611397e+02
2.380000e-06	1.254565e-06	5.308088e-09	8.755138e+00	3.476708e+02
2.390000e-06	1.126155e-06	5.098097e-09	7.859012e+00	3.338278e+02
2.400000e-06	9.974199e-07	4.878220e-09	6.960620e+00	3.195930e+02
2.410000e-06	8.684203e-07	4.651862e-09	6.060380e+00	3.049517e+02
2.420000e-06	7.392026e-07	4.422845e-09	5.158618e+00	2.898924e+02
2.430000e-06	6.097672e-07	4.190993e-09	4.255337e+00	2.744060e+02
2.440000e-06	4.801566e-07	3.950187e-09	3.350833e+00	2.584847e+02
2.450000e-06	3.503156e-07	3.697343e-09	2.444721e+00	2.421193e+02
2.460000e-06	2.202564e-07	3.436441e-09	1.537087e+00	2.252969e+02
2.470000e-06	9.009187e-08	3.170950e-09	6.287174e-01	2.079985e+02
2.480000e-06	-4.009358e-08	2.904542e-09	-2.797981e-01	1.901972e+02
2.490000e-06	-1.702554e-07	2.630868e-09	-1.188149e+00	1.718569e+02
2.500000e-06	-3.003744e-07	2.342343e-09	-2.096201e+00	1.529330e+02
2.510000e-06	-4.304364e-07	2.040587e-09	-3.003854e+00	1.333743e+02
2.520000e-06	-5.603581e-07	1.729638e-09	-3.910529e+00	1.131264e+02
2.530000e-06	-6.900589e-07	1.412146e-09	-4.815663e+00	9.213739e+01
2.540000e-06	-8.195338e-07	1.083188e-09	-5.719219e+00	7.036371e+01
2.550000e-06	-9.487482e-07	7.392115e-10	-6.620958e+00	4.777706e+01
2.560000e-06	-1.077642e-06	3.820235e-10	-7.520457e+00	2.437115e+01
2.570000e-06	-1.206212e-06	1.418346e-11	-8.417704e+00	1.674269e-01
2.580000e-06	-1.334476e-06	-3.618568e-10	-9.312808e+00	-2.478073e+01
2.590000e-06	-1.462390e-06	-7.485056e-10	-1.020547e+01	-5.038601e+01
2.600000e-06	-1.589803e-06	-1.148017e-09	-1.109464e+01	-7.652786e+01
2.610000e-06	-1.716461e-06	-1.555121e-09	-1.197854e+01	-1.030558e+02
2.620000e-06	-1.842206e-06	-1.964569e-09	-1.285607e+01	-1.297954e+02
2.630000e-06	-1.967103e-06	-2.374031e-09	-1.372768e+01	-1.565563e+02
2.640000e-06	-2.091263e-06	-2.781805e-09	-1.459414e+01	-1.831418e+02
2.650000e-06	-2.214634e-06	-3.185210e-09	-1.545510e+01	-2.093591e+02
2.660000e-06	-2.337146e-06	-3.580453e-09	-1.631007e+01	-2.350291e+02
2.670000e-06	-2.458806e-06	-3.964418e-09	-1.715908e+01	-2.599953e+02
2.680000e-06	-2.579585e-06	-4.335895e-09	-1.800196e+01	-2.841301e+02
2.690000e-06	-2.699527e-06	-4.691064e-09	-1.883899e+01	-3.073400e+02
2.700000e-06	-2.818445e-06	-5.026094e-09	-1.966887e+01	-3.295660e+02
2.710000e-06	-2.936045e-06	-5.344554e-09	-2.048956e+01	-3.507836e+02
2.720000e-06	-3.052425e-06	-5.650177e-09	-2.130173e+01	-3.709983e+02
2.730000e-06	-3.167657e-06	-5.942181e-09	-2.210589e+01	-3.902405e+02
2.740000e-06	-3.281646e-06	-6.221951e-09	-2.290138e+01	-4.085584e+02
2.750000e-06	-3.394194e-06	-6.493233e-09	-2.368681e+01	-4.260115e+02
2.760000e-06	-3.505313e-06	-6.754882e-09	-2.446227e+01	-4.426632e+02
2.770000e-06	-3.615165e-06	-7.002808e-09	-2.522888e+01	-4.585752e+02
2.780000e-06	-3.723881e-06	-7.235994e-09	-2.598757e+01	-4.738032e+02
2.790000e-06	-3.831490e-06	-7.457231e-09	-2.673853e+01	-4.883944e+02
2.800000e-06	-3.937818e-06	-7.667854e-09	-2.748056e+01	-5.023864e+02
2.810000e-06	-4.042790e-06	-7.869917e-09	-2.821312e+01	-5.158081e+02
2.820000e-06	-4.146296e-06	-8.066669e-09	-2.893545e+01	-5.286810e+02
2.830000e-06	-4.248144e-06	-8.258046e-09	-2.964621e+01	-5.410221e+02
2.840000e-06	-4.348408e-06	-8.441315e-09	-3.034591e+01	-5.528463e+02
2.850000e-06	-4.447257e-06	-8.614812e-09	-3.103574e+01	-5.641686e+02
2.860000e-06	-4.544624e-06	-8.782055e-09	-3.171523e+01	-5.750057e+02
2.870000e-06	-4.640455e-06	-8.943484e-09	-3.238400e+01	-5.853767e+02
2.880000e-06	-4.734517e-06	-9.095343e-09	-3.304042e+01	-5.953029e+02
2.890000e-06	-4.826802e-06	-9.236854e-09	-3.368444e+01	-6.048072e+02
2.900000e-06	-4.917453e-06	-9.370044e-09	-3.431706e+01	-6.139121e+02
2.910000e-06	-5.006330e-06	-9.500483e-09	-3.493730e+01	-6.226383e+02
2.920000e-06	-5.093295e-06	-9.629102e-09	-3.554420e+01	-6.310034e+02
2.930000e-06	-5.178311e-06	-9.753144e-09	-3.613749e+01	-6.390208e+02
2.940000e-06	-5.261578e-06	-9.870887e-09	-3.671858e+01	-6.466994e+02
