# Temperatura_=_26.51
# Concentracion g/m^3_=_15000.0
# C_Vs_to_Am_M_A/Vsm_=_65563218390.804596
# pendiente_HvsI_1/m_=_3716.3
# ordenada_HvsI_A/m_=_1297.0
# frecuencia_Hz_=_301974.8854230762

Tiempo_(s)	Campo_(V.s)	Magnetizacion_(V.s)	Campo_(kA/m)	Magnetizacion_(A/m)
0.000000e+00	-6.869849e-06	-1.097688e-08	-4.746852e+01	-7.173615e+02
1.000000e-08	-6.866348e-06	-1.097418e-08	-4.744432e+01	-7.171651e+02
2.000000e-08	-6.860617e-06	-1.096745e-08	-4.740472e+01	-7.168228e+02
3.000000e-08	-6.852780e-06	-1.096062e-08	-4.735058e+01	-7.163307e+02
4.000000e-08	-6.842571e-06	-1.095311e-08	-4.728003e+01	-7.156888e+02
5.000000e-08	-6.829791e-06	-1.094300e-08	-4.719173e+01	-7.149018e+02
6.000000e-08	-6.814547e-06	-1.092539e-08	-4.708639e+01	-7.139793e+02
7.000000e-08	-6.797000e-06	-1.089536e-08	-4.696515e+01	-7.129350e+02
8.000000e-08	-6.777336e-06	-1.088613e-08	-4.682928e+01	-7.117856e+02
9.000000e-08	-6.755242e-06	-1.091128e-08	-4.667662e+01	-7.105490e+02
1.000000e-07	-6.730245e-06	-1.087870e-08	-4.650390e+01	-7.092424e+02
1.100000e-07	-6.702525e-06	-1.082916e-08	-4.631236e+01	-7.078806e+02
1.200000e-07	-6.672540e-06	-1.081460e-08	-4.610517e+01	-7.064741e+02
1.300000e-07	-6.640578e-06	-1.077598e-08	-4.588432e+01	-7.050276e+02
1.400000e-07	-6.606654e-06	-1.072195e-08	-4.564992e+01	-7.035400e+02
1.500000e-07	-6.570804e-06	-1.078291e-08	-4.540221e+01	-7.020035e+02
1.600000e-07	-6.532930e-06	-1.071771e-08	-4.514051e+01	-7.004050e+02
1.700000e-07	-6.492954e-06	-1.062023e-08	-4.486429e+01	-6.987269e+02
1.800000e-07	-6.450587e-06	-1.065049e-08	-4.457155e+01	-6.969490e+02
1.900000e-07	-6.405620e-06	-1.056515e-08	-4.426084e+01	-6.950503e+02
2.000000e-07	-6.358378e-06	-1.056808e-08	-4.393441e+01	-6.930110e+02
2.100000e-07	-6.308573e-06	-1.057100e-08	-4.359027e+01	-6.908141e+02
2.200000e-07	-6.256039e-06	-1.050994e-08	-4.322728e+01	-6.884471e+02
2.300000e-07	-6.201098e-06	-1.047614e-08	-4.284765e+01	-6.859024e+02
2.400000e-07	-6.143768e-06	-1.039219e-08	-4.245152e+01	-6.831778e+02
2.500000e-07	-6.084152e-06	-1.035107e-08	-4.203959e+01	-6.802760e+02
2.600000e-07	-6.022359e-06	-1.031492e-08	-4.161262e+01	-6.772039e+02
2.700000e-07	-5.958340e-06	-1.025656e-08	-4.117027e+01	-6.739715e+02
2.800000e-07	-5.892059e-06	-1.021125e-08	-4.071229e+01	-6.705899e+02
2.900000e-07	-5.823547e-06	-1.014393e-08	-4.023889e+01	-6.670701e+02
3.000000e-07	-5.752908e-06	-1.010555e-08	-3.975080e+01	-6.634219e+02
3.100000e-07	-5.680143e-06	-1.004259e-08	-3.924802e+01	-6.596521e+02
3.200000e-07	-5.605134e-06	-9.989300e-09	-3.872973e+01	-6.557642e+02
3.300000e-07	-5.527743e-06	-9.938104e-09	-3.819498e+01	-6.517579e+02
3.400000e-07	-5.448045e-06	-9.860171e-09	-3.764429e+01	-6.476293e+02
3.500000e-07	-5.366272e-06	-9.798195e-09	-3.707927e+01	-6.433713e+02
3.600000e-07	-5.282770e-06	-9.729875e-09	-3.650229e+01	-6.389746e+02
3.700000e-07	-5.197635e-06	-9.678585e-09	-3.591403e+01	-6.344284e+02
3.800000e-07	-5.110784e-06	-9.598361e-09	-3.531393e+01	-6.297220e+02
3.900000e-07	-5.022087e-06	-9.511439e-09	-3.470106e+01	-6.248452e+02
4.000000e-07	-4.931471e-06	-9.433681e-09	-3.407493e+01	-6.197899e+02
4.100000e-07	-4.839171e-06	-9.357085e-09	-3.343717e+01	-6.145499e+02
4.200000e-07	-4.745315e-06	-9.287729e-09	-3.278865e+01	-6.091219e+02
4.300000e-07	-4.649814e-06	-9.200593e-09	-3.212877e+01	-6.035051e+02
4.400000e-07	-4.552553e-06	-9.105157e-09	-3.145672e+01	-5.977008e+02
4.500000e-07	-4.453532e-06	-9.002250e-09	-3.077252e+01	-5.917120e+02
4.600000e-07	-4.352960e-06	-8.908174e-09	-3.007760e+01	-5.855424e+02
4.700000e-07	-4.250941e-06	-8.819285e-09	-2.937267e+01	-5.791958e+02
4.800000e-07	-4.147431e-06	-8.726562e-09	-2.865746e+01	-5.726748e+02
4.900000e-07	-4.042383e-06	-8.623885e-09	-2.793161e+01	-5.659805e+02
5.000000e-07	-3.935775e-06	-8.511978e-09	-2.719498e+01	-5.591114e+02
5.100000e-07	-3.827703e-06	-8.403309e-09	-2.644823e+01	-5.520637e+02
5.200000e-07	-3.718321e-06	-8.295800e-09	-2.569244e+01	-5.448307e+02
5.300000e-07	-3.607700e-06	-8.183538e-09	-2.492808e+01	-5.374033e+02
5.400000e-07	-3.495704e-06	-8.061133e-09	-2.415423e+01	-5.297707e+02
5.500000e-07	-3.382235e-06	-7.936486e-09	-2.337019e+01	-5.219207e+02
5.600000e-07	-3.267310e-06	-7.815386e-09	-2.257610e+01	-5.138410e+02
5.700000e-07	-3.150986e-06	-7.693759e-09	-2.177233e+01	-5.055200e+02
5.800000e-07	-3.033402e-06	-7.566086e-09	-2.095986e+01	-4.969473e+02
5.900000e-07	-2.914704e-06	-7.430667e-09	-2.013969e+01	-4.881146e+02
6.000000e-07	-2.794955e-06	-7.288743e-09	-1.931227e+01	-4.790161e+02
6.100000e-07	-2.674140e-06	-7.142153e-09	-1.847747e+01	-4.696486e+02
6.200000e-07	-2.552362e-06	-6.995737e-09	-1.763602e+01	-4.600109e+02
6.300000e-07	-2.429617e-06	-6.850284e-09	-1.678790e+01	-4.501035e+02
6.400000e-07	-2.305854e-06	-6.696312e-09	-1.593273e+01	-4.399279e+02
6.500000e-07	-2.181303e-06	-6.531248e-09	-1.507212e+01	-4.294851e+02
6.600000e-07	-2.056102e-06	-6.362385e-09	-1.420702e+01	-4.187754e+02
6.700000e-07	-1.930249e-06	-6.192743e-09	-1.333742e+01	-4.077967e+02
6.800000e-07	-1.803762e-06	-6.020921e-09	-1.246343e+01	-3.965444e+02
6.900000e-07	-1.676608e-06	-5.844906e-09	-1.158484e+01	-3.850109e+02
7.000000e-07	-1.548870e-06	-5.663896e-09	-1.070221e+01	-3.731857e+02
7.100000e-07	-1.420633e-06	-5.477764e-09	-9.816131e+00	-3.610556e+02
7.200000e-07	-1.291910e-06	-5.289932e-09	-8.926692e+00	-3.486059e+02
7.300000e-07	-1.162750e-06	-5.099180e-09	-8.034238e+00	-3.358211e+02
7.400000e-07	-1.033209e-06	-4.899666e-09	-7.139155e+00	-3.226862e+02
7.500000e-07	-9.033077e-07	-4.690648e-09	-6.241575e+00	-3.091876e+02
7.600000e-07	-7.730845e-07	-4.473645e-09	-5.341773e+00	-2.953139e+02
7.700000e-07	-6.426234e-07	-4.253254e-09	-4.440328e+00	-2.810564e+02
7.800000e-07	-5.119192e-07	-4.031924e-09	-3.537202e+00	-2.664085e+02
7.900000e-07	-3.809842e-07	-3.807150e-09	-2.632482e+00	-2.513655e+02
8.000000e-07	-2.498900e-07	-3.575564e-09	-1.726662e+00	-2.359230e+02
8.100000e-07	-1.186858e-07	-3.334682e-09	-8.200821e-01	-2.200755e+02
8.200000e-07	1.255259e-08	-3.088949e-09	8.673451e-02	-2.038147e+02
8.300000e-07	1.438077e-07	-2.838062e-09	9.936663e-01	-1.871280e+02
8.400000e-07	2.750739e-07	-2.577541e-09	1.900675e+00	-1.699970e+02
8.500000e-07	4.062768e-07	-2.307254e-09	2.807246e+00	-1.523975e+02
8.600000e-07	5.373352e-07	-2.026582e-09	3.712819e+00	-1.342998e+02
8.700000e-07	6.682043e-07	-1.737640e-09	4.617084e+00	-1.156700e+02
8.800000e-07	7.989047e-07	-1.442989e-09	5.520182e+00	-9.647288e+01
8.900000e-07	9.293695e-07	-1.143108e-09	6.421654e+00	-7.667555e+01
9.000000e-07	1.059479e-06	-8.349226e-10	7.320670e+00	-5.625145e+01
9.100000e-07	1.189207e-06	-5.154544e-10	8.217047e+00	-3.518518e+01
9.200000e-07	1.318533e-06	-1.856648e-10	9.110650e+00	-1.347700e+01
9.300000e-07	1.447418e-06	1.545941e-10	1.000121e+01	8.853179e+00
9.400000e-07	1.575764e-06	5.030587e-10	1.088804e+01	3.176287e+01
9.500000e-07	1.703470e-06	8.611003e-10	1.177045e+01	5.518546e+01
9.600000e-07	1.830517e-06	1.228718e-09	1.264830e+01	7.903044e+01
9.700000e-07	1.956860e-06	1.601797e-09	1.352129e+01	1.031854e+02
9.800000e-07	2.082555e-06	1.976192e-09	1.438980e+01	1.275197e+02
9.900000e-07	2.207643e-06	2.346670e-09	1.525412e+01	1.518900e+02
1.000000e-06	2.331980e-06	2.713510e-09	1.611325e+01	1.761463e+02
1.010000e-06	2.455419e-06	3.078253e-09	1.696618e+01	2.001393e+02
1.020000e-06	2.577934e-06	3.437602e-09	1.781272e+01	2.237271e+02
1.030000e-06	2.699511e-06	3.789148e-09	1.865278e+01	2.467819e+02
1.040000e-06	2.820009e-06	4.128447e-09	1.948538e+01	2.691950e+02
1.050000e-06	2.939367e-06	4.455775e-09	2.031011e+01	2.908808e+02
1.060000e-06	3.057666e-06	4.772228e-09	2.112752e+01	3.117790e+02
1.070000e-06	3.174937e-06	5.077676e-09	2.193782e+01	3.318541e+02
1.080000e-06	3.291041e-06	5.370420e-09	2.274007e+01	3.510943e+02
1.090000e-06	3.405786e-06	5.649706e-09	2.353292e+01	3.695079e+02
1.100000e-06	3.519142e-06	5.916343e-09	2.431618e+01	3.871196e+02
1.110000e-06	3.631115e-06	6.171194e-09	2.508987e+01	4.039652e+02
1.120000e-06	3.741748e-06	6.415135e-09	2.585431e+01	4.200867e+02
1.130000e-06	3.851177e-06	6.649974e-09	2.661043e+01	4.355282e+02
1.140000e-06	3.959454e-06	6.876660e-09	2.735859e+01	4.503316e+02
1.150000e-06	4.066414e-06	7.094371e-09	2.809766e+01	4.645343e+02
1.160000e-06	4.171805e-06	7.302169e-09	2.882587e+01	4.781677e+02
1.170000e-06	4.275594e-06	7.500742e-09	2.954302e+01	4.912565e+02
1.180000e-06	4.377853e-06	7.690984e-09	3.024960e+01	5.038197e+02
1.190000e-06	4.478688e-06	7.870689e-09	3.094634e+01	5.158717e+02
1.200000e-06	4.578009e-06	8.041083e-09	3.163262e+01	5.274239e+02
1.210000e-06	4.675592e-06	8.205641e-09	3.230688e+01	5.384868e+02
1.220000e-06	4.771380e-06	8.366816e-09	3.296875e+01	5.490711e+02
1.230000e-06	4.865422e-06	8.521669e-09	3.361855e+01	5.591893e+02
1.240000e-06	4.957853e-06	8.670388e-09	3.425722e+01	5.688559e+02
1.250000e-06	5.048622e-06	8.813868e-09	3.488441e+01	5.780873e+02
1.260000e-06	5.137463e-06	8.951752e-09	3.549827e+01	5.869016e+02
1.270000e-06	5.224335e-06	9.080854e-09	3.609853e+01	5.953172e+02
1.280000e-06	5.309388e-06	9.202809e-09	3.668622e+01	6.033523e+02
1.290000e-06	5.392679e-06	9.320819e-09	3.726173e+01	6.110234e+02
1.300000e-06	5.474092e-06	9.432452e-09	3.782427e+01	6.183450e+02
1.310000e-06	5.553419e-06	9.537835e-09	3.837239e+01	6.253290e+02
1.320000e-06	5.630702e-06	9.638471e-09	3.890640e+01	6.319851e+02
1.330000e-06	5.705912e-06	9.734512e-09	3.942608e+01	6.383210e+02
1.340000e-06	5.778829e-06	9.824706e-09	3.992990e+01	6.443433e+02
1.350000e-06	5.849569e-06	9.908342e-09	4.041870e+01	6.500588e+02
1.360000e-06	5.918320e-06	9.988138e-09	4.089375e+01	6.554750e+02
1.370000e-06	5.985005e-06	1.006500e-08	4.135452e+01	6.606014e+02
1.380000e-06	6.049483e-06	1.013725e-08	4.180004e+01	6.654493e+02
1.390000e-06	6.111796e-06	1.020544e-08	4.223061e+01	6.700324e+02
1.400000e-06	6.172100e-06	1.027151e-08	4.264729e+01	6.743659e+02
1.410000e-06	6.230297e-06	1.033420e-08	4.304941e+01	6.784658e+02
1.420000e-06	6.286265e-06	1.039279e-08	4.343613e+01	6.823478e+02
1.430000e-06	6.339920e-06	1.044922e-08	4.380687e+01	6.860258e+02
1.440000e-06	6.390987e-06	1.050394e-08	4.415973e+01	6.895113e+02
1.450000e-06	6.439403e-06	1.055518e-08	4.449427e+01	6.928121e+02
1.460000e-06	6.485465e-06	1.060114e-08	4.481254e+01	6.959320e+02
1.470000e-06	6.529356e-06	1.064342e-08	4.511582e+01	6.988713e+02
1.480000e-06	6.570888e-06	1.068364e-08	4.540279e+01	7.016267e+02
1.490000e-06	6.609994e-06	1.072117e-08	4.567300e+01	7.041933e+02
1.500000e-06	6.646947e-06	1.075418e-08	4.592833e+01	7.065652e+02
1.510000e-06	6.681713e-06	1.078486e-08	4.616855e+01	7.087371e+02
1.520000e-06	6.714006e-06	1.081480e-08	4.639169e+01	7.107062e+02
1.530000e-06	6.743878e-06	1.084062e-08	4.659810e+01	7.124727e+02
1.540000e-06	6.771481e-06	1.086368e-08	4.678882e+01	7.140405e+02
1.550000e-06	6.796629e-06	1.088406e-08	4.696259e+01	7.154175e+02
1.560000e-06	6.819224e-06	1.089971e-08	4.711871e+01	7.166147e+02
1.570000e-06	6.839478e-06	1.091206e-08	4.725866e+01	7.176455e+02
1.580000e-06	6.857348e-06	1.092330e-08	4.738214e+01	7.185241e+02
1.590000e-06	6.872617e-06	1.093488e-08	4.748764e+01	7.192642e+02
1.600000e-06	6.885333e-06	1.094488e-08	4.757551e+01	7.198771e+02
1.610000e-06	6.895425e-06	1.095106e-08	4.764524e+01	7.203708e+02
1.620000e-06	6.902879e-06	1.095604e-08	4.769674e+01	7.207495e+02
1.630000e-06	6.907962e-06	1.096140e-08	4.773187e+01	7.210128e+02
1.640000e-06	6.910612e-06	1.096466e-08	4.775017e+01	7.211567e+02
1.650000e-06	6.910695e-06	1.096629e-08	4.775075e+01	7.211744e+02
1.660000e-06	6.908441e-06	1.095931e-08	4.773518e+01	7.210577e+02
1.670000e-06	6.904065e-06	1.095104e-08	4.770494e+01	7.207989e+02
1.680000e-06	6.897314e-06	1.094393e-08	4.765829e+01	7.203921e+02
1.690000e-06	6.888208e-06	1.093603e-08	4.759537e+01	7.198349e+02
1.700000e-06	6.876962e-06	1.092781e-08	4.751766e+01	7.191294e+02
1.710000e-06	6.863298e-06	1.092055e-08	4.742325e+01	7.182823e+02
1.720000e-06	6.847265e-06	1.092776e-08	4.731247e+01	7.173051e+02
1.730000e-06	6.829172e-06	1.090794e-08	4.718745e+01	7.162130e+02
1.740000e-06	6.808677e-06	1.083920e-08	4.704583e+01	7.150234e+02
1.750000e-06	6.784936e-06	1.083086e-08	4.688179e+01	7.137542e+02
1.760000e-06	6.758019e-06	1.083109e-08	4.669580e+01	7.124218e+02
1.770000e-06	6.728613e-06	1.079568e-08	4.649262e+01	7.110393e+02
1.780000e-06	6.697212e-06	1.083104e-08	4.627565e+01	7.096148e+02
1.790000e-06	6.664370e-06	1.077996e-08	4.604872e+01	7.081507e+02
1.800000e-06	6.629924e-06	1.067210e-08	4.581071e+01	7.066428e+02
1.810000e-06	6.592916e-06	1.075311e-08	4.555499e+01	7.050810e+02
1.820000e-06	6.553505e-06	1.068760e-08	4.528267e+01	7.034501e+02
1.830000e-06	6.512080e-06	1.068204e-08	4.499645e+01	7.017312e+02
1.840000e-06	6.468436e-06	1.074451e-08	4.469487e+01	6.999035e+02
1.850000e-06	6.422552e-06	1.060284e-08	4.437783e+01	6.979462e+02
1.860000e-06	6.374211e-06	1.062313e-08	4.404381e+01	6.958407e+02
1.870000e-06	6.323548e-06	1.055959e-08	4.369374e+01	6.935716e+02
1.880000e-06	6.270411e-06	1.050600e-08	4.332658e+01	6.911284e+02
1.890000e-06	6.214523e-06	1.054186e-08	4.294042e+01	6.885060e+02
1.900000e-06	6.156340e-06	1.044428e-08	4.253839e+01	6.857042e+02
1.910000e-06	6.095900e-06	1.045194e-08	4.212077e+01	6.827278e+02
1.920000e-06	6.033086e-06	1.037315e-08	4.168674e+01	6.795851e+02
1.930000e-06	5.968091e-06	1.029836e-08	4.123765e+01	6.762867e+02
1.940000e-06	5.900953e-06	1.029064e-08	4.077374e+01	6.728440e+02
1.950000e-06	5.831658e-06	1.019260e-08	4.029494e+01	6.692676e+02
1.960000e-06	5.759933e-06	1.017854e-08	3.979934e+01	6.655660e+02
1.970000e-06	5.685957e-06	1.007575e-08	3.928819e+01	6.617448e+02
1.980000e-06	5.609892e-06	1.003083e-08	3.876261e+01	6.578058e+02
1.990000e-06	5.531565e-06	9.989803e-09	3.822139e+01	6.537472e+02
2.000000e-06	5.451209e-06	9.913271e-09	3.766616e+01	6.495636e+02
2.010000e-06	5.368992e-06	9.878819e-09	3.709806e+01	6.452467e+02
2.020000e-06	5.284942e-06	9.775199e-09	3.651730e+01	6.407867e+02
2.030000e-06	5.198854e-06	9.718004e-09	3.592246e+01	6.361725e+02
2.040000e-06	5.110801e-06	9.624957e-09	3.531405e+01	6.313937e+02
2.050000e-06	5.021060e-06	9.565919e-09	3.469396e+01	6.264407e+02
2.060000e-06	4.929766e-06	9.494132e-09	3.406315e+01	6.213062e+02
2.070000e-06	4.836882e-06	9.390952e-09	3.342135e+01	6.159853e+02
2.080000e-06	4.742109e-06	9.307840e-09	3.276649e+01	6.104758e+02
2.090000e-06	4.645594e-06	9.216913e-09	3.209961e+01	6.047777e+02
2.100000e-06	4.547558e-06	9.158275e-09	3.142221e+01	5.988933e+02
2.110000e-06	4.448030e-06	9.058841e-09	3.073450e+01	5.928260e+02
2.120000e-06	4.346906e-06	8.961916e-09	3.003576e+01	5.865795e+02
2.130000e-06	4.244038e-06	8.856290e-09	2.932498e+01	5.801573e+02
2.140000e-06	4.139564e-06	8.758067e-09	2.860310e+01	5.735615e+02
2.150000e-06	4.033655e-06	8.655976e-09	2.787130e+01	5.667920e+02
2.160000e-06	3.926421e-06	8.551305e-09	2.713035e+01	5.598464e+02
2.170000e-06	3.817846e-06	8.452232e-09	2.638013e+01	5.527196e+02
2.180000e-06	3.707845e-06	8.336343e-09	2.562005e+01	5.454040e+02
2.190000e-06	3.596374e-06	8.218290e-09	2.484982e+01	5.378894e+02
2.200000e-06	3.483567e-06	8.094773e-09	2.407036e+01	5.301646e+02
2.210000e-06	3.369461e-06	7.983332e-09	2.328192e+01	5.222170e+02
2.220000e-06	3.254016e-06	7.857792e-09	2.248424e+01	5.140347e+02
2.230000e-06	3.137146e-06	7.723765e-09	2.167670e+01	5.056064e+02
2.240000e-06	3.018934e-06	7.581825e-09	2.085990e+01	4.969225e+02
2.250000e-06	2.899514e-06	7.449240e-09	2.003474e+01	4.879759e+02
2.260000e-06	2.778955e-06	7.316710e-09	1.920171e+01	4.787618e+02
2.270000e-06	2.657486e-06	7.174894e-09	1.836240e+01	4.692779e+02
2.280000e-06	2.535149e-06	7.026423e-09	1.751709e+01	4.595239e+02
2.290000e-06	2.411922e-06	6.872465e-09	1.666563e+01	4.495008e+02
2.300000e-06	2.287818e-06	6.717250e-09	1.580811e+01	4.392099e+02
2.310000e-06	2.162918e-06	6.559387e-09	1.494509e+01	4.286523e+02
2.320000e-06	2.037315e-06	6.400364e-09	1.407721e+01	4.178270e+02
2.330000e-06	1.911015e-06	6.228788e-09	1.320452e+01	4.067312e+02
2.340000e-06	1.783994e-06	6.049331e-09	1.232685e+01	3.953590e+02
2.350000e-06	1.656253e-06	5.865727e-09	1.144419e+01	3.837013e+02
2.360000e-06	1.527882e-06	5.686627e-09	1.055719e+01	3.717465e+02
2.370000e-06	1.399049e-06	5.507007e-09	9.666990e+00	3.594807e+02
2.380000e-06	1.269811e-06	5.317764e-09	8.774000e+00	3.468887e+02
2.390000e-06	1.140240e-06	5.118542e-09	7.878702e+00	3.339550e+02
2.400000e-06	1.010389e-06	4.909995e-09	6.981470e+00	3.206652e+02
2.410000e-06	8.802347e-07	4.699242e-09	6.082147e+00	3.070065e+02
2.420000e-06	7.497843e-07	4.487081e-09	5.180776e+00	2.929687e+02
2.430000e-06	6.191628e-07	4.268278e-09	4.278222e+00	2.785440e+02
2.440000e-06	4.883871e-07	4.040619e-09	3.374603e+00	2.637267e+02
2.450000e-06	3.574057e-07	3.804903e-09	2.469562e+00	2.485124e+02
2.460000e-06	2.262765e-07	3.565267e-09	1.563500e+00	2.328965e+02
2.470000e-06	9.501008e-08	3.323816e-09	6.564901e-01	2.168726e+02
2.480000e-06	-3.632600e-08	3.078976e-09	-2.510014e-01	2.004305e+02
2.490000e-06	-1.676193e-07	2.824766e-09	-1.158197e+00	1.835554e+02
2.500000e-06	-2.988324e-07	2.555084e-09	-2.064839e+00	1.662263e+02
2.510000e-06	-4.299375e-07	2.272849e-09	-2.970734e+00	1.484167e+02
2.520000e-06	-5.609275e-07	1.987113e-09	-3.875834e+00	1.300946e+02
2.530000e-06	-6.917792e-07	1.701196e-09	-4.779979e+00	1.112253e+02
2.540000e-06	-8.224668e-07	1.408236e-09	-5.682989e+00	9.177415e+01
2.550000e-06	-9.528906e-07	1.103266e-09	-6.584177e+00	7.171032e+01
2.560000e-06	-1.082930e-06	7.899440e-10	-7.482710e+00	5.101148e+01
2.570000e-06	-1.212631e-06	4.694231e-10	-8.378904e+00	2.966842e+01
2.580000e-06	-1.341975e-06	1.385016e-10	-9.272629e+00	7.689372e+00
2.590000e-06	-1.470833e-06	-2.049358e-10	-1.016300e+01	-1.489636e+01
2.600000e-06	-1.599192e-06	-5.611260e-10	-1.104992e+01	-3.803603e+01
2.610000e-06	-1.726972e-06	-9.248829e-10	-1.193284e+01	-6.165267e+01
2.620000e-06	-1.854017e-06	-1.291453e-09	-1.281068e+01	-8.564601e+01
2.630000e-06	-1.980329e-06	-1.657911e-09	-1.368346e+01	-1.098953e+02
2.640000e-06	-2.105921e-06	-2.025737e-09	-1.455126e+01	-1.342637e+02
2.650000e-06	-2.230729e-06	-2.397102e-09	-1.541364e+01	-1.586043e+02
2.660000e-06	-2.354628e-06	-2.768597e-09	-1.626974e+01	-1.827663e+02
2.670000e-06	-2.477564e-06	-3.135117e-09	-1.711919e+01	-2.066030e+02
2.680000e-06	-2.599574e-06	-3.494150e-09	-1.796225e+01	-2.299776e+02
2.690000e-06	-2.720649e-06	-3.843388e-09	-1.879884e+01	-2.527699e+02
2.700000e-06	-2.840727e-06	-4.180419e-09	-1.962854e+01	-2.748810e+02
2.710000e-06	-2.959736e-06	-4.506137e-09	-2.045085e+01	-2.962358e+02
2.720000e-06	-3.077606e-06	-4.820556e-09	-2.126530e+01	-3.167847e+02
2.730000e-06	-3.194209e-06	-5.120644e-09	-2.207099e+01	-3.365028e+02
2.740000e-06	-3.309461e-06	-5.406702e-09	-2.286734e+01	-3.553872e+02
2.750000e-06	-3.423353e-06	-5.682334e-09	-2.365430e+01	-3.734540e+02
2.760000e-06	-3.535924e-06	-5.949917e-09	-2.443213e+01	-3.907331e+02
2.770000e-06	-3.647124e-06	-6.208439e-09	-2.520049e+01	-4.072636e+02
2.780000e-06	-3.756941e-06	-6.454076e-09	-2.595929e+01	-4.230889e+02
2.790000e-06	-3.865534e-06	-6.685957e-09	-2.670963e+01	-4.382526e+02
2.800000e-06	-3.972926e-06	-6.905738e-09	-2.745168e+01	-4.527949e+02
2.810000e-06	-4.079016e-06	-7.117035e-09	-2.818473e+01	-4.667508e+02
2.820000e-06	-4.183668e-06	-7.322898e-09	-2.890784e+01	-4.801487e+02
2.830000e-06	-4.286730e-06	-7.521009e-09	-2.961997e+01	-4.930108e+02
2.840000e-06	-4.388190e-06	-7.710453e-09	-3.032103e+01	-5.053540e+02
2.850000e-06	-4.488062e-06	-7.892645e-09	-3.101111e+01	-5.171911e+02
2.860000e-06	-4.586386e-06	-8.069091e-09	-3.169050e+01	-5.285329e+02
2.870000e-06	-4.683159e-06	-8.238709e-09	-3.235917e+01	-5.393899e+02
2.880000e-06	-4.778229e-06	-8.397718e-09	-3.301607e+01	-5.497734e+02
2.890000e-06	-4.871528e-06	-8.545775e-09	-3.366074e+01	-5.596967e+02
2.900000e-06	-4.963063e-06	-8.685760e-09	-3.429322e+01	-5.691753e+02
2.910000e-06	-5.052871e-06	-8.820887e-09	-3.491376e+01	-5.782263e+02
2.920000e-06	-5.140879e-06	-8.952195e-09	-3.552187e+01	-5.868680e+02
2.930000e-06	-5.226924e-06	-9.079664e-09	-3.611641e+01	-5.951190e+02
2.940000e-06	-5.311002e-06	-9.202164e-09	-3.669737e+01	-6.029967e+02
