# Temperatura_=_76.27
# Concentracion g/m^3_=_15000.0
# C_Vs_to_Am_M_A/Vsm_=_65563218390.804596
# pendiente_HvsI_1/m_=_3716.3
# ordenada_HvsI_A/m_=_1297.0
# frecuencia_Hz_=_301976.86242047534

Tiempo_(s)	Campo_(V.s)	Magnetizacion_(V.s)	Campo_(kA/m)	Magnetizacion_(A/m)
0.000000e+00	-6.860832e-06	-1.223207e-08	-4.748260e+01	-8.019636e+02
1.000000e-08	-6.859170e-06	-1.223322e-08	-4.747110e+01	-8.017463e+02
2.000000e-08	-6.855078e-06	-1.222930e-08	-4.744278e+01	-8.013525e+02
3.000000e-08	-6.848812e-06	-1.222151e-08	-4.739941e+01	-8.007843e+02
4.000000e-08	-6.840405e-06	-1.221519e-08	-4.734122e+01	-8.000495e+02
5.000000e-08	-6.829610e-06	-1.220226e-08	-4.726651e+01	-7.991609e+02
6.000000e-08	-6.816269e-06	-1.218392e-08	-4.717419e+01	-7.981354e+02
7.000000e-08	-6.800462e-06	-1.215694e-08	-4.706479e+01	-7.969922e+02
8.000000e-08	-6.782377e-06	-1.213224e-08	-4.693962e+01	-7.957506e+02
9.000000e-08	-6.762135e-06	-1.217702e-08	-4.679953e+01	-7.944276e+02
1.000000e-07	-6.739401e-06	-1.218917e-08	-4.664219e+01	-7.930367e+02
1.100000e-07	-6.713811e-06	-1.211045e-08	-4.646509e+01	-7.915855e+02
1.200000e-07	-6.685522e-06	-1.206208e-08	-4.626931e+01	-7.900752e+02
1.300000e-07	-6.654956e-06	-1.203637e-08	-4.605777e+01	-7.885004e+02
1.400000e-07	-6.622494e-06	-1.192477e-08	-4.583310e+01	-7.868498e+02
1.500000e-07	-6.588171e-06	-1.193015e-08	-4.559556e+01	-7.851070e+02
1.600000e-07	-6.551860e-06	-1.204459e-08	-4.534426e+01	-7.832522e+02
1.700000e-07	-6.513507e-06	-1.188576e-08	-4.507882e+01	-7.812640e+02
1.800000e-07	-6.473015e-06	-1.187625e-08	-4.479858e+01	-7.791216e+02
1.900000e-07	-6.430045e-06	-1.189489e-08	-4.450120e+01	-7.768058e+02
2.000000e-07	-6.384576e-06	-1.174025e-08	-4.418652e+01	-7.743009e+02
2.100000e-07	-6.336792e-06	-1.175288e-08	-4.385581e+01	-7.715954e+02
2.200000e-07	-6.286391e-06	-1.171321e-08	-4.350700e+01	-7.686822e+02
2.300000e-07	-6.233352e-06	-1.167086e-08	-4.313992e+01	-7.655590e+02
2.400000e-07	-6.177896e-06	-1.163325e-08	-4.275612e+01	-7.622274e+02
2.500000e-07	-6.120051e-06	-1.154591e-08	-4.235578e+01	-7.586926e+02
2.600000e-07	-6.059936e-06	-1.151192e-08	-4.193974e+01	-7.549622e+02
2.700000e-07	-5.997667e-06	-1.144244e-08	-4.150878e+01	-7.510452e+02
2.800000e-07	-5.933258e-06	-1.136901e-08	-4.106302e+01	-7.469514e+02
2.900000e-07	-5.866605e-06	-1.131082e-08	-4.060173e+01	-7.426903e+02
3.000000e-07	-5.797671e-06	-1.126535e-08	-4.012465e+01	-7.382704e+02
3.100000e-07	-5.726663e-06	-1.120335e-08	-3.963322e+01	-7.336985e+02
3.200000e-07	-5.653539e-06	-1.109445e-08	-3.912714e+01	-7.289796e+02
3.300000e-07	-5.578075e-06	-1.103916e-08	-3.860486e+01	-7.241165e+02
3.400000e-07	-5.500258e-06	-1.095215e-08	-3.806631e+01	-7.191094e+02
3.500000e-07	-5.420258e-06	-1.085973e-08	-3.751264e+01	-7.139564e+02
3.600000e-07	-5.338277e-06	-1.079889e-08	-3.694526e+01	-7.086529e+02
3.700000e-07	-5.254500e-06	-1.073318e-08	-3.636546e+01	-7.031929e+02
3.800000e-07	-5.169005e-06	-1.065772e-08	-3.577376e+01	-6.975685e+02
3.900000e-07	-5.081716e-06	-1.054800e-08	-3.516965e+01	-6.917709e+02
4.000000e-07	-4.992675e-06	-1.045188e-08	-3.455342e+01	-6.857913e+02
4.100000e-07	-4.901880e-06	-1.034959e-08	-3.392504e+01	-6.796209e+02
4.200000e-07	-4.809341e-06	-1.025472e-08	-3.328459e+01	-6.732526e+02
4.300000e-07	-4.715186e-06	-1.016873e-08	-3.263297e+01	-6.666808e+02
4.400000e-07	-4.619359e-06	-1.007412e-08	-3.196976e+01	-6.599021e+02
4.500000e-07	-4.521775e-06	-9.969545e-09	-3.129440e+01	-6.529158e+02
4.600000e-07	-4.422477e-06	-9.846849e-09	-3.060717e+01	-6.457232e+02
4.700000e-07	-4.321696e-06	-9.727906e-09	-2.990969e+01	-6.383275e+02
4.800000e-07	-4.219472e-06	-9.607800e-09	-2.920222e+01	-6.307328e+02
4.900000e-07	-4.115804e-06	-9.491904e-09	-2.848475e+01	-6.229432e+02
5.000000e-07	-4.010686e-06	-9.375530e-09	-2.775724e+01	-6.149618e+02
5.100000e-07	-3.903948e-06	-9.255651e-09	-2.701853e+01	-6.067895e+02
5.200000e-07	-3.795675e-06	-9.128187e-09	-2.626919e+01	-5.984244e+02
5.300000e-07	-3.686126e-06	-8.995192e-09	-2.551102e+01	-5.898611e+02
5.400000e-07	-3.575362e-06	-8.856709e-09	-2.474445e+01	-5.810910e+02
5.500000e-07	-3.463192e-06	-8.710233e-09	-2.396814e+01	-5.721026e+02
5.600000e-07	-3.349514e-06	-8.569289e-09	-2.318139e+01	-5.628824e+02
5.700000e-07	-3.234353e-06	-8.428717e-09	-2.238438e+01	-5.534160e+02
5.800000e-07	-3.117848e-06	-8.285452e-09	-2.157807e+01	-5.436899e+02
5.900000e-07	-3.000195e-06	-8.134798e-09	-2.076381e+01	-5.336925e+02
6.000000e-07	-2.881466e-06	-7.979001e-09	-1.994212e+01	-5.234150e+02
6.100000e-07	-2.761680e-06	-7.815352e-09	-1.911310e+01	-5.128525e+02
6.200000e-07	-2.640836e-06	-7.644893e-09	-1.827675e+01	-5.020037e+02
6.300000e-07	-2.519047e-06	-7.475421e-09	-1.743387e+01	-4.908703e+02
6.400000e-07	-2.396293e-06	-7.307833e-09	-1.658432e+01	-4.794560e+02
6.500000e-07	-2.272508e-06	-7.133178e-09	-1.572763e+01	-4.677648e+02
6.600000e-07	-2.147879e-06	-6.947607e-09	-1.486509e+01	-4.557994e+02
6.700000e-07	-2.022592e-06	-6.757192e-09	-1.399800e+01	-4.435591e+02
6.800000e-07	-1.896721e-06	-6.561825e-09	-1.312687e+01	-4.310393e+02
6.900000e-07	-1.770274e-06	-6.364686e-09	-1.225175e+01	-4.182298e+02
7.000000e-07	-1.643213e-06	-6.166133e-09	-1.137239e+01	-4.051153e+02
7.100000e-07	-1.515534e-06	-5.965181e-09	-1.048874e+01	-3.916760e+02
7.200000e-07	-1.387325e-06	-5.755856e-09	-9.601430e+00	-3.778887e+02
7.300000e-07	-1.258632e-06	-5.536199e-09	-8.710768e+00	-3.637292e+02
7.400000e-07	-1.129495e-06	-5.311733e-09	-7.817032e+00	-3.491736e+02
7.500000e-07	-1.000024e-06	-5.083115e-09	-6.920990e+00	-3.342007e+02
7.600000e-07	-8.702997e-07	-4.850332e-09	-6.023189e+00	-3.187929e+02
7.700000e-07	-7.402852e-07	-4.610160e-09	-5.123382e+00	-3.029366e+02
7.800000e-07	-6.099913e-07	-4.363950e-09	-4.221641e+00	-2.866217e+02
7.900000e-07	-4.795527e-07	-4.113052e-09	-3.318899e+00	-2.698404e+02
8.000000e-07	-3.489503e-07	-3.854280e-09	-2.415023e+00	-2.525840e+02
8.100000e-07	-2.181406e-07	-3.584179e-09	-1.509712e+00	-2.348408e+02
8.200000e-07	-8.712132e-08	-3.303286e-09	-6.029512e-01	-2.165927e+02
8.300000e-07	4.399258e-08	-3.014436e-09	3.044648e-01	-1.978126e+02
8.400000e-07	1.750825e-07	-2.716417e-09	1.211715e+00	-1.784634e+02
8.500000e-07	3.061379e-07	-2.409678e-09	2.118726e+00	-1.584981e+02
8.600000e-07	4.370804e-07	-2.093503e-09	3.024956e+00	-1.378612e+02
8.700000e-07	5.678878e-07	-1.766454e-09	3.930250e+00	-1.164931e+02
8.800000e-07	6.985201e-07	-1.426527e-09	4.834333e+00	-9.433587e+01
8.900000e-07	8.288889e-07	-1.073806e-09	5.736592e+00	-7.133962e+01
9.000000e-07	9.589581e-07	-7.110302e-10	6.636778e+00	-4.747082e+01
9.100000e-07	1.088716e-06	-3.372089e-10	7.534810e+00	-2.271975e+01
9.200000e-07	1.218186e-06	4.976171e-11	8.430846e+00	2.892765e+00
9.300000e-07	1.347298e-06	4.505061e-10	9.324407e+00	2.931042e+01
9.400000e-07	1.475909e-06	8.631862e-10	1.021450e+01	5.643904e+01
9.500000e-07	1.603889e-06	1.286668e-09	1.110023e+01	8.414710e+01
9.600000e-07	1.731152e-06	1.719285e-09	1.198100e+01	1.122695e+02
9.700000e-07	1.857751e-06	2.155998e-09	1.285716e+01	1.406140e+02
9.800000e-07	1.983755e-06	2.591629e-09	1.372922e+01	1.689711e+02
9.900000e-07	2.109166e-06	3.021471e-09	1.459716e+01	1.971239e+02
1.000000e-06	2.233931e-06	3.442209e-09	1.546064e+01	2.248606e+02
1.010000e-06	2.357895e-06	3.851229e-09	1.631857e+01	2.519856e+02
1.020000e-06	2.480907e-06	4.248636e-09	1.716991e+01	2.783291e+02
1.030000e-06	2.602948e-06	4.634232e-09	1.801454e+01	3.037552e+02
1.040000e-06	2.723998e-06	5.005701e-09	1.885231e+01	3.281663e+02
1.050000e-06	2.843976e-06	5.360233e-09	1.968265e+01	3.515048e+02
1.060000e-06	2.962871e-06	5.698792e-09	2.050550e+01	3.737516e+02
1.070000e-06	3.080740e-06	6.023676e-09	2.132125e+01	3.949210e+02
1.080000e-06	3.197526e-06	6.333137e-09	2.212951e+01	4.150547e+02
1.090000e-06	3.313016e-06	6.625330e-09	2.292879e+01	4.342130e+02
1.100000e-06	3.427117e-06	6.902979e-09	2.371846e+01	4.524671e+02
1.110000e-06	3.539877e-06	7.169050e-09	2.449886e+01	4.698903e+02
1.120000e-06	3.651330e-06	7.423269e-09	2.527020e+01	4.865521e+02
1.130000e-06	3.761519e-06	7.665346e-09	2.603281e+01	5.025127e+02
1.140000e-06	3.870503e-06	7.897698e-09	2.678707e+01	5.178211e+02
1.150000e-06	3.978272e-06	8.123162e-09	2.753291e+01	5.325137e+02
1.160000e-06	4.084671e-06	8.338972e-09	2.826928e+01	5.466162e+02
1.170000e-06	4.189537e-06	8.544422e-09	2.899504e+01	5.601461e+02
1.180000e-06	4.292837e-06	8.740067e-09	2.970996e+01	5.731162e+02
1.190000e-06	4.394677e-06	8.926043e-09	3.041477e+01	5.855381e+02
1.200000e-06	4.495043e-06	9.102913e-09	3.110939e+01	5.974252e+02
1.210000e-06	4.593768e-06	9.272462e-09	3.179265e+01	6.087949e+02
1.220000e-06	4.690726e-06	9.436128e-09	3.246368e+01	6.196694e+02
1.230000e-06	4.785907e-06	9.595623e-09	3.312241e+01	6.300753e+02
1.240000e-06	4.879455e-06	9.749888e-09	3.376984e+01	6.400424e+02
1.250000e-06	4.971383e-06	9.898165e-09	3.440606e+01	6.496008e+02
1.260000e-06	5.061449e-06	1.004166e-08	3.502939e+01	6.587792e+02
1.270000e-06	5.149598e-06	1.018013e-08	3.563945e+01	6.676015e+02
1.280000e-06	5.235931e-06	1.031215e-08	3.623695e+01	6.760859e+02
1.290000e-06	5.320477e-06	1.043737e-08	3.682208e+01	6.842433e+02
1.300000e-06	5.403210e-06	1.055779e-08	3.739466e+01	6.920777e+02
1.310000e-06	5.483949e-06	1.067081e-08	3.795344e+01	6.995875e+02
1.320000e-06	5.562619e-06	1.077687e-08	3.849789e+01	7.067671e+02
1.330000e-06	5.639276e-06	1.087987e-08	3.902843e+01	7.136103e+02
1.340000e-06	5.713745e-06	1.097969e-08	3.954381e+01	7.201122e+02
1.350000e-06	5.785958e-06	1.107424e-08	4.004358e+01	7.262723e+02
1.360000e-06	5.856097e-06	1.116292e-08	4.052900e+01	7.320958e+02
1.370000e-06	5.924238e-06	1.124745e-08	4.100060e+01	7.375948e+02
1.380000e-06	5.990222e-06	1.132767e-08	4.145726e+01	7.427876e+02
1.390000e-06	6.053988e-06	1.140206e-08	4.189857e+01	7.476979e+02
1.400000e-06	6.115767e-06	1.147205e-08	4.232613e+01	7.523523e+02
1.410000e-06	6.175557e-06	1.153889e-08	4.273993e+01	7.567776e+02
1.420000e-06	6.233120e-06	1.160390e-08	4.313831e+01	7.609984e+02
1.430000e-06	6.288413e-06	1.166601e-08	4.352099e+01	7.650345e+02
1.440000e-06	6.341380e-06	1.172600e-08	4.388756e+01	7.688989e+02
1.450000e-06	6.391781e-06	1.178415e-08	4.423638e+01	7.725970e+02
1.460000e-06	6.439633e-06	1.183712e-08	4.456756e+01	7.761267e+02
1.470000e-06	6.485225e-06	1.188636e-08	4.488309e+01	7.794799e+02
1.480000e-06	6.528660e-06	1.193380e-08	4.518369e+01	7.826439e+02
1.490000e-06	6.569737e-06	1.197788e-08	4.546798e+01	7.856042e+02
1.500000e-06	6.608403e-06	1.201865e-08	4.573558e+01	7.883473e+02
1.510000e-06	6.644858e-06	1.205695e-08	4.598788e+01	7.908626e+02
1.520000e-06	6.678965e-06	1.209343e-08	4.622393e+01	7.931449e+02
1.530000e-06	6.710606e-06	1.212575e-08	4.644291e+01	7.951949e+02
1.540000e-06	6.740003e-06	1.215421e-08	4.664636e+01	7.970196e+02
1.550000e-06	6.767094e-06	1.218045e-08	4.683385e+01	7.986310e+02
1.560000e-06	6.791576e-06	1.220168e-08	4.700329e+01	8.000452e+02
1.570000e-06	6.813528e-06	1.221781e-08	4.715521e+01	8.012796e+02
1.580000e-06	6.833205e-06	1.222977e-08	4.729140e+01	8.023509e+02
1.590000e-06	6.850451e-06	1.224053e-08	4.741075e+01	8.032733e+02
1.600000e-06	6.865101e-06	1.225166e-08	4.751214e+01	8.040562e+02
1.610000e-06	6.877088e-06	1.226179e-08	4.759511e+01	8.047037e+02
1.620000e-06	6.886364e-06	1.227074e-08	4.765930e+01	8.052148e+02
1.630000e-06	6.893129e-06	1.227820e-08	4.770612e+01	8.055839e+02
1.640000e-06	6.897570e-06	1.228375e-08	4.773686e+01	8.058020e+02
1.650000e-06	6.899578e-06	1.228765e-08	4.775075e+01	8.058595e+02
1.660000e-06	6.899086e-06	1.228403e-08	4.774735e+01	8.057475e+02
1.670000e-06	6.896383e-06	1.226991e-08	4.772864e+01	8.054604e+02
1.680000e-06	6.891485e-06	1.225990e-08	4.769474e+01	8.049970e+02
1.690000e-06	6.884210e-06	1.225135e-08	4.764439e+01	8.043617e+02
1.700000e-06	6.874682e-06	1.224137e-08	4.757845e+01	8.035641e+02
1.710000e-06	6.862870e-06	1.223109e-08	4.749670e+01	8.026191e+02
1.720000e-06	6.848625e-06	1.222981e-08	4.739812e+01	8.015445e+02
1.730000e-06	6.832110e-06	1.223062e-08	4.728382e+01	8.003598e+02
1.740000e-06	6.813510e-06	1.213447e-08	4.715509e+01	7.990838e+02
1.750000e-06	6.792269e-06	1.207650e-08	4.700808e+01	7.977324e+02
1.760000e-06	6.767748e-06	1.211374e-08	4.683838e+01	7.963167e+02
1.770000e-06	6.740313e-06	1.209076e-08	4.664851e+01	7.948419e+02
1.780000e-06	6.710533e-06	1.209530e-08	4.644240e+01	7.933067e+02
1.790000e-06	6.678884e-06	1.216687e-08	4.622336e+01	7.917034e+02
1.800000e-06	6.645853e-06	1.199337e-08	4.599477e+01	7.900182e+02
1.810000e-06	6.610999e-06	1.194759e-08	4.575355e+01	7.882333e+02
1.820000e-06	6.573546e-06	1.201841e-08	4.549434e+01	7.863281e+02
1.830000e-06	6.533759e-06	1.188859e-08	4.521898e+01	7.842813e+02
1.840000e-06	6.491821e-06	1.200887e-08	4.492874e+01	7.820723e+02
1.850000e-06	6.447641e-06	1.195992e-08	4.462298e+01	7.796834e+02
1.860000e-06	6.401256e-06	1.183357e-08	4.430196e+01	7.771003e+02
1.870000e-06	6.352463e-06	1.187330e-08	4.396427e+01	7.743132e+02
1.880000e-06	6.301316e-06	1.170560e-08	4.361029e+01	7.713170e+02
1.890000e-06	6.247660e-06	1.171724e-08	4.323894e+01	7.681110e+02
1.900000e-06	6.191371e-06	1.168253e-08	4.284938e+01	7.646984e+02
1.910000e-06	6.132758e-06	1.158750e-08	4.244373e+01	7.610851e+02
1.920000e-06	6.071775e-06	1.162607e-08	4.202167e+01	7.572798e+02
1.930000e-06	6.008492e-06	1.147139e-08	4.158370e+01	7.532916e+02
1.940000e-06	5.943098e-06	1.142863e-08	4.113112e+01	7.491305e+02
1.950000e-06	5.875600e-06	1.135879e-08	4.066398e+01	7.448055e+02
1.960000e-06	5.805857e-06	1.128836e-08	4.018131e+01	7.403246e+02
1.970000e-06	5.733684e-06	1.124465e-08	3.968180e+01	7.356940e+02
1.980000e-06	5.659305e-06	1.111981e-08	3.916704e+01	7.309178e+02
1.990000e-06	5.582732e-06	1.111929e-08	3.863709e+01	7.259977e+02
2.000000e-06	5.503963e-06	1.101602e-08	3.809195e+01	7.209331e+02
2.010000e-06	5.423260e-06	1.092097e-08	3.753342e+01	7.157211e+02
2.020000e-06	5.340732e-06	1.083334e-08	3.696226e+01	7.103564e+02
2.030000e-06	5.256355e-06	1.073366e-08	3.637830e+01	7.048323e+02
2.040000e-06	5.169886e-06	1.066769e-08	3.577986e+01	6.991404e+02
2.050000e-06	5.081462e-06	1.057126e-08	3.516790e+01	6.932719e+02
2.060000e-06	4.991458e-06	1.051845e-08	3.454499e+01	6.872177e+02
2.070000e-06	4.899918e-06	1.039570e-08	3.391146e+01	6.809699e+02
2.080000e-06	4.806684e-06	1.027277e-08	3.326621e+01	6.745216e+02
2.090000e-06	4.711567e-06	1.015673e-08	3.260792e+01	6.678683e+02
2.100000e-06	4.614767e-06	1.006496e-08	3.193798e+01	6.610075e+02
2.110000e-06	4.516480e-06	9.980548e-09	3.125775e+01	6.539394e+02
2.120000e-06	4.416659e-06	9.866853e-09	3.056691e+01	6.466660e+02
2.130000e-06	4.315245e-06	9.765536e-09	2.986504e+01	6.391910e+02
2.140000e-06	4.212157e-06	9.641225e-09	2.915159e+01	6.315188e+02
2.150000e-06	4.107504e-06	9.517103e-09	2.842731e+01	6.236530e+02
2.160000e-06	4.001499e-06	9.384858e-09	2.769366e+01	6.155961e+02
2.170000e-06	3.894127e-06	9.265236e-09	2.695056e+01	6.073480e+02
2.180000e-06	3.785375e-06	9.140098e-09	2.619791e+01	5.989053e+02
2.190000e-06	3.675229e-06	9.012432e-09	2.543561e+01	5.902615e+02
2.200000e-06	3.563648e-06	8.876289e-09	2.466338e+01	5.814066e+02
2.210000e-06	3.450767e-06	8.736250e-09	2.388215e+01	5.723283e+02
2.220000e-06	3.336550e-06	8.594998e-09	2.309167e+01	5.630125e+02
2.230000e-06	3.220878e-06	8.441614e-09	2.229112e+01	5.534452e+02
2.240000e-06	3.103808e-06	8.288238e-09	2.148090e+01	5.436132e+02
2.250000e-06	2.985479e-06	8.134559e-09	2.066197e+01	5.335060e+02
2.260000e-06	2.865975e-06	7.990023e-09	1.983490e+01	5.231165e+02
2.270000e-06	2.745385e-06	7.833545e-09	1.900032e+01	5.124409e+02
2.280000e-06	2.623871e-06	7.661986e-09	1.815934e+01	5.014795e+02
2.290000e-06	2.501473e-06	7.480472e-09	1.731225e+01	4.902347e+02
2.300000e-06	2.378218e-06	7.300623e-09	1.645922e+01	4.787107e+02
2.310000e-06	2.254126e-06	7.120834e-09	1.560040e+01	4.669110e+02
2.320000e-06	2.129259e-06	6.943918e-09	1.473622e+01	4.548373e+02
2.330000e-06	2.003696e-06	6.763987e-09	1.386722e+01	4.424876e+02
2.340000e-06	1.877394e-06	6.572241e-09	1.299311e+01	4.298550e+02
2.350000e-06	1.750367e-06	6.370663e-09	1.211398e+01	4.169272e+02
2.360000e-06	1.622711e-06	6.162334e-09	1.123050e+01	4.036872e+02
2.370000e-06	1.494508e-06	5.955950e-09	1.034322e+01	3.901135e+02
2.380000e-06	1.365857e-06	5.744781e-09	9.452852e+00	3.761823e+02
2.390000e-06	1.236806e-06	5.526454e-09	8.559714e+00	3.618694e+02
2.400000e-06	1.107381e-06	5.301159e-09	7.663988e+00	3.471518e+02
2.410000e-06	9.776361e-07	5.069228e-09	6.766045e+00	3.320094e+02
2.420000e-06	8.475963e-07	4.831563e-09	5.866063e+00	3.164262e+02
2.430000e-06	7.173410e-07	4.587622e-09	4.964589e+00	3.003902e+02
2.440000e-06	5.868956e-07	4.337243e-09	4.061800e+00	2.838925e+02
2.450000e-06	4.562695e-07	4.079030e-09	3.157760e+00	2.669252e+02
2.460000e-06	3.254675e-07	3.811685e-09	2.252503e+00	2.494787e+02
2.470000e-06	1.945074e-07	3.536265e-09	1.346151e+00	2.315393e+02
2.480000e-06	6.349335e-08	3.254555e-09	4.394261e-01	2.130853e+02
2.490000e-06	-6.752888e-08	2.965639e-09	-4.673554e-01	1.940862e+02
2.500000e-06	-1.985610e-07	2.665744e-09	-1.374205e+00	1.745006e+02
2.510000e-06	-3.295361e-07	2.354248e-09	-2.280660e+00	1.542778e+02
2.520000e-06	-4.604147e-07	2.032835e-09	-3.186448e+00	1.333603e+02
2.530000e-06	-5.911903e-07	1.702914e-09	-4.091523e+00	1.116883e+02
2.540000e-06	-7.218136e-07	1.362972e-09	-4.995543e+00	8.920615e+01
2.550000e-06	-8.522371e-07	1.009820e-09	-5.898182e+00	6.586944e+01
2.560000e-06	-9.823857e-07	6.433567e-10	-6.798917e+00	4.165311e+01
2.570000e-06	-1.112204e-06	2.636587e-10	-7.697366e+00	1.655873e+01
2.580000e-06	-1.241614e-06	-1.289296e-10	-8.592992e+00	-9.379406e+00
2.590000e-06	-1.370594e-06	-5.333120e-10	-9.485640e+00	-3.609024e+01
2.600000e-06	-1.499182e-06	-9.498528e-10	-1.037557e+01	-6.346468e+01
2.610000e-06	-1.627254e-06	-1.379183e-09	-1.126193e+01	-9.135739e+01
2.620000e-06	-1.754658e-06	-1.817175e-09	-1.214367e+01	-1.195917e+02
2.630000e-06	-1.881347e-06	-2.256234e-09	-1.302047e+01	-1.479673e+02
2.640000e-06	-2.007324e-06	-2.689727e-09	-1.389233e+01	-1.762705e+02
2.650000e-06	-2.132584e-06	-3.116880e-09	-1.475924e+01	-2.042850e+02
2.660000e-06	-2.257013e-06	-3.538058e-09	-1.562038e+01	-2.318041e+02
2.670000e-06	-2.380452e-06	-3.948960e-09	-1.647468e+01	-2.586411e+02
2.680000e-06	-2.502878e-06	-4.344265e-09	-1.732198e+01	-2.846388e+02
2.690000e-06	-2.624391e-06	-4.724514e-09	-1.816294e+01	-3.096761e+02
2.700000e-06	-2.745045e-06	-5.090039e-09	-1.899797e+01	-3.336710e+02
2.710000e-06	-2.864658e-06	-5.437484e-09	-1.982578e+01	-3.565815e+02
2.720000e-06	-2.983142e-06	-5.769268e-09	-2.064580e+01	-3.784021e+02
2.730000e-06	-3.100544e-06	-6.086592e-09	-2.145831e+01	-3.991590e+02
2.740000e-06	-3.216646e-06	-6.387282e-09	-2.226183e+01	-4.189020e+02
2.750000e-06	-3.331387e-06	-6.673237e-09	-2.305594e+01	-4.376969e+02
2.760000e-06	-3.444782e-06	-6.949406e-09	-2.384072e+01	-4.556164e+02
2.770000e-06	-3.556747e-06	-7.216822e-09	-2.461561e+01	-4.727331e+02
2.780000e-06	-3.667283e-06	-7.471254e-09	-2.538061e+01	-4.891134e+02
2.790000e-06	-3.776573e-06	-7.709946e-09	-2.613699e+01	-5.048132e+02
2.800000e-06	-3.884729e-06	-7.936480e-09	-2.688552e+01	-5.198764e+02
2.810000e-06	-3.991671e-06	-8.153899e-09	-2.762564e+01	-5.343352e+02
2.820000e-06	-4.097299e-06	-8.363097e-09	-2.835667e+01	-5.482115e+02
2.830000e-06	-4.201405e-06	-8.566711e-09	-2.907717e+01	-5.615207e+02
2.840000e-06	-4.303872e-06	-8.763155e-09	-2.978633e+01	-5.742745e+02
2.850000e-06	-4.404696e-06	-8.952220e-09	-3.048412e+01	-5.864851e+02
2.860000e-06	-4.503933e-06	-9.134726e-09	-3.117092e+01	-5.981671e+02
2.870000e-06	-4.601717e-06	-9.309442e-09	-3.184767e+01	-6.093398e+02
2.880000e-06	-4.697952e-06	-9.475749e-09	-3.251369e+01	-6.200274e+02
2.890000e-06	-4.792501e-06	-9.629693e-09	-3.316805e+01	-6.302578e+02
2.900000e-06	-4.885288e-06	-9.774375e-09	-3.381021e+01	-6.400613e+02
2.910000e-06	-4.976299e-06	-9.913677e-09	-3.444008e+01	-6.494677e+02
2.920000e-06	-5.065567e-06	-1.004943e-08	-3.505789e+01	-6.585042e+02
2.930000e-06	-5.152961e-06	-1.018167e-08	-3.566273e+01	-6.671925e+02
2.940000e-06	-5.238368e-06	-1.030854e-08	-3.625381e+01	-6.755481e+02
