# Temperatura_=_37.2
# Concentracion g/m^3_=_15000.0
# C_Vs_to_Am_M_A/Vsm_=_65563218390.804596
# pendiente_HvsI_1/m_=_3716.3
# ordenada_HvsI_A/m_=_1297.0
# frecuencia_Hz_=_301969.18417447514

Tiempo_(s)	Campo_(V.s)	Magnetizacion_(V.s)	Campo_(kA/m)	Magnetizacion_(A/m)
0.000000e+00	-6.845315e-06	-1.000719e-08	-4.747504e+01	-6.563242e+02
1.000000e-08	-6.841999e-06	-1.000817e-08	-4.745204e+01	-6.560975e+02
2.000000e-08	-6.836426e-06	-1.000409e-08	-4.741339e+01	-6.557320e+02
3.000000e-08	-6.828761e-06	-9.999508e-09	-4.736024e+01	-6.552332e+02
4.000000e-08	-6.818771e-06	-9.994775e-09	-4.729095e+01	-6.546114e+02
5.000000e-08	-6.806260e-06	-9.984008e-09	-4.720418e+01	-6.538815e+02
6.000000e-08	-6.791289e-06	-9.967944e-09	-4.710035e+01	-6.530614e+02
7.000000e-08	-6.773952e-06	-9.942551e-09	-4.698011e+01	-6.521698e+02
8.000000e-08	-6.754511e-06	-9.932957e-09	-4.684528e+01	-6.512244e+02
9.000000e-08	-6.732736e-06	-9.993914e-09	-4.669426e+01	-6.502400e+02
1.000000e-07	-6.708151e-06	-9.968424e-09	-4.652376e+01	-6.492267e+02
1.100000e-07	-6.680815e-06	-9.894251e-09	-4.633417e+01	-6.481887e+02
1.200000e-07	-6.651113e-06	-9.881918e-09	-4.612817e+01	-6.471239e+02
1.300000e-07	-6.619379e-06	-9.840023e-09	-4.590808e+01	-6.460242e+02
1.400000e-07	-6.585701e-06	-9.726538e-09	-4.567452e+01	-6.448759e+02
1.500000e-07	-6.550112e-06	-9.833647e-09	-4.542769e+01	-6.436614e+02
1.600000e-07	-6.512499e-06	-9.877172e-09	-4.516683e+01	-6.423606e+02
1.700000e-07	-6.472817e-06	-9.693387e-09	-4.489162e+01	-6.409531e+02
1.800000e-07	-6.430831e-06	-9.779310e-09	-4.460043e+01	-6.394197e+02
1.900000e-07	-6.386224e-06	-9.709145e-09	-4.429106e+01	-6.377440e+02
2.000000e-07	-6.339273e-06	-9.618334e-09	-4.396543e+01	-6.359136e+02
2.100000e-07	-6.289829e-06	-9.695554e-09	-4.362252e+01	-6.339207e+02
2.200000e-07	-6.237771e-06	-9.652074e-09	-4.326148e+01	-6.317624e+02
2.300000e-07	-6.183264e-06	-9.623052e-09	-4.288345e+01	-6.294403e+02
2.400000e-07	-6.126302e-06	-9.532514e-09	-4.248839e+01	-6.269597e+02
2.500000e-07	-6.067038e-06	-9.476169e-09	-4.207737e+01	-6.243286e+02
2.600000e-07	-6.005601e-06	-9.480564e-09	-4.165128e+01	-6.215565e+02
2.700000e-07	-5.942049e-06	-9.421242e-09	-4.121053e+01	-6.186535e+02
2.800000e-07	-5.876284e-06	-9.378807e-09	-4.075442e+01	-6.156287e+02
2.900000e-07	-5.808249e-06	-9.305063e-09	-4.028257e+01	-6.124896e+02
3.000000e-07	-5.738033e-06	-9.265764e-09	-3.979560e+01	-6.092412e+02
3.100000e-07	-5.665694e-06	-9.225054e-09	-3.929389e+01	-6.058859e+02
3.200000e-07	-5.591147e-06	-9.186885e-09	-3.877688e+01	-6.024233e+02
3.300000e-07	-5.514300e-06	-9.162768e-09	-3.824391e+01	-5.988500e+02
3.400000e-07	-5.435235e-06	-9.054786e-09	-3.769556e+01	-5.951605e+02
3.500000e-07	-5.354014e-06	-8.986356e-09	-3.713226e+01	-5.913473e+02
3.600000e-07	-5.270935e-06	-8.944170e-09	-3.655608e+01	-5.874019e+02
3.700000e-07	-5.186246e-06	-8.913991e-09	-3.596873e+01	-5.833152e+02
3.800000e-07	-5.099851e-06	-8.855745e-09	-3.536954e+01	-5.790785e+02
3.900000e-07	-5.011699e-06	-8.764630e-09	-3.475817e+01	-5.746838e+02
4.000000e-07	-4.921699e-06	-8.682326e-09	-3.413398e+01	-5.701249e+02
4.100000e-07	-4.829888e-06	-8.599088e-09	-3.349724e+01	-5.653971e+02
4.200000e-07	-4.736478e-06	-8.551617e-09	-3.284940e+01	-5.604980e+02
4.300000e-07	-4.641502e-06	-8.486138e-09	-3.219071e+01	-5.554273e+02
4.400000e-07	-4.544767e-06	-8.393685e-09	-3.151981e+01	-5.501865e+02
4.500000e-07	-4.446212e-06	-8.298145e-09	-3.083629e+01	-5.447788e+02
4.600000e-07	-4.346102e-06	-8.204775e-09	-3.014198e+01	-5.392080e+02
4.700000e-07	-4.244554e-06	-8.127398e-09	-2.943771e+01	-5.334780e+02
4.800000e-07	-4.141534e-06	-8.054780e-09	-2.872322e+01	-5.275920e+02
4.900000e-07	-4.037038e-06	-7.967357e-09	-2.799850e+01	-5.215516e+02
5.000000e-07	-3.931000e-06	-7.852821e-09	-2.726308e+01	-5.153561e+02
5.100000e-07	-3.823411e-06	-7.747162e-09	-2.651691e+01	-5.090020e+02
5.200000e-07	-3.714488e-06	-7.660512e-09	-2.576148e+01	-5.024830e+02
5.300000e-07	-3.604354e-06	-7.571594e-09	-2.499766e+01	-4.957900e+02
5.400000e-07	-3.492939e-06	-7.460460e-09	-2.422495e+01	-4.889115e+02
5.500000e-07	-3.380126e-06	-7.336431e-09	-2.344255e+01	-4.818346e+02
5.600000e-07	-3.265837e-06	-7.221710e-09	-2.264991e+01	-4.745462e+02
5.700000e-07	-3.150090e-06	-7.108898e-09	-2.184716e+01	-4.670334e+02
5.800000e-07	-3.033050e-06	-7.001499e-09	-2.103544e+01	-4.592854e+02
5.900000e-07	-2.914907e-06	-6.891972e-09	-2.021606e+01	-4.512939e+02
6.000000e-07	-2.795775e-06	-6.762272e-09	-1.938984e+01	-4.430534e+02
6.100000e-07	-2.675652e-06	-6.616115e-09	-1.855673e+01	-4.345618e+02
6.200000e-07	-2.554476e-06	-6.478918e-09	-1.771633e+01	-4.258194e+02
6.300000e-07	-2.432300e-06	-6.353875e-09	-1.686899e+01	-4.168285e+02
6.400000e-07	-2.309105e-06	-6.219372e-09	-1.601458e+01	-4.075919e+02
6.500000e-07	-2.184997e-06	-6.070591e-09	-1.515384e+01	-3.981117e+02
6.600000e-07	-2.060235e-06	-5.915114e-09	-1.428857e+01	-3.883877e+02
6.700000e-07	-1.934860e-06	-5.758776e-09	-1.341904e+01	-3.784167e+02
6.800000e-07	-1.808868e-06	-5.600609e-09	-1.254523e+01	-3.681910e+02
6.900000e-07	-1.682311e-06	-5.443427e-09	-1.166751e+01	-3.576991e+02
7.000000e-07	-1.555141e-06	-5.280485e-09	-1.078554e+01	-3.469254e+02
7.100000e-07	-1.427386e-06	-5.105300e-09	-9.899505e+00	-3.358516e+02
7.200000e-07	-1.299104e-06	-4.927614e-09	-9.009817e+00	-3.244581e+02
7.300000e-07	-1.170351e-06	-4.751833e-09	-8.116859e+00	-3.127254e+02
7.400000e-07	-1.041211e-06	-4.572457e-09	-7.221219e+00	-3.006361e+02
7.500000e-07	-9.117723e-07	-4.383351e-09	-6.323512e+00	-2.881762e+02
7.600000e-07	-7.820963e-07	-4.184917e-09	-5.424156e+00	-2.753356e+02
7.700000e-07	-6.521760e-07	-3.979996e-09	-4.523106e+00	-2.621084e+02
7.800000e-07	-5.220534e-07	-3.773279e-09	-3.620653e+00	-2.484923e+02
7.900000e-07	-3.917401e-07	-3.565258e-09	-2.716877e+00	-2.344864e+02
8.000000e-07	-2.613032e-07	-3.350309e-09	-1.812244e+00	-2.200892e+02
8.100000e-07	-1.307420e-07	-3.123055e-09	-9.067488e-01	-2.052962e+02
8.200000e-07	-6.899714e-11	-2.886502e-09	-4.785232e-04	-1.900969e+02
8.300000e-07	1.306522e-07	-2.646752e-09	9.061262e-01	-1.744730e+02
8.400000e-07	2.613766e-07	-2.403470e-09	1.812753e+00	-1.583969e+02
8.500000e-07	3.920415e-07	-2.155282e-09	2.718967e+00	-1.418321e+02
8.600000e-07	5.225518e-07	-1.898385e-09	3.624109e+00	-1.247345e+02
8.700000e-07	6.528756e-07	-1.627630e-09	4.527958e+00	-1.070557e+02
8.800000e-07	7.830102e-07	-1.343701e-09	5.430494e+00	-8.874707e+01
8.900000e-07	9.128985e-07	-1.052571e-09	6.331322e+00	-6.976588e+01
9.000000e-07	1.042550e-06	-7.541658e-10	7.230508e+00	-5.008103e+01
9.100000e-07	1.171914e-06	-4.431247e-10	8.127701e+00	-2.967932e+01
9.200000e-07	1.300906e-06	-1.198180e-10	9.022315e+00	-8.570883e+00
9.300000e-07	1.429422e-06	2.123895e-10	9.913622e+00	1.320675e+01
9.400000e-07	1.557287e-06	5.524228e-10	1.080042e+01	3.558643e+01
9.500000e-07	1.684443e-06	9.009236e-10	1.168230e+01	5.847144e+01
9.600000e-07	1.810991e-06	1.255118e-09	1.255996e+01	8.173788e+01
9.700000e-07	1.937001e-06	1.614586e-09	1.343389e+01	1.052394e+02
9.800000e-07	2.062439e-06	1.978107e-09	1.430385e+01	1.288136e+02
9.900000e-07	2.187190e-06	2.340035e-09	1.516905e+01	1.522906e+02
1.000000e-06	2.311168e-06	2.694570e-09	1.602889e+01	1.755012e+02
1.010000e-06	2.434231e-06	3.039637e-09	1.688238e+01	1.982855e+02
1.020000e-06	2.556325e-06	3.375874e-09	1.772915e+01	2.205014e+02
1.030000e-06	2.677515e-06	3.701427e-09	1.856966e+01	2.420300e+02
1.040000e-06	2.797644e-06	4.015148e-09	1.940280e+01	2.627803e+02
1.050000e-06	2.916652e-06	4.317900e-09	2.022817e+01	2.826913e+02
1.060000e-06	3.034689e-06	4.608052e-09	2.104680e+01	3.017314e+02
1.070000e-06	3.151699e-06	4.884544e-09	2.185832e+01	3.198959e+02
1.080000e-06	3.267448e-06	5.147471e-09	2.266108e+01	3.372031e+02
1.090000e-06	3.381788e-06	5.398757e-09	2.345407e+01	3.536884e+02
1.100000e-06	3.494768e-06	5.637985e-09	2.423764e+01	3.693988e+02
1.110000e-06	3.606392e-06	5.864532e-09	2.501179e+01	3.843868e+02
1.120000e-06	3.716779e-06	6.080819e-09	2.577737e+01	3.987050e+02
1.130000e-06	3.826046e-06	6.291028e-09	2.653518e+01	4.124025e+02
1.140000e-06	3.934103e-06	6.493025e-09	2.728461e+01	4.255215e+02
1.150000e-06	4.040835e-06	6.684941e-09	2.802483e+01	4.380962e+02
1.160000e-06	4.146063e-06	6.866189e-09	2.875463e+01	4.501527e+02
1.170000e-06	4.249670e-06	7.037644e-09	2.947319e+01	4.617099e+02
1.180000e-06	4.351731e-06	7.203562e-09	3.018103e+01	4.727814e+02
1.190000e-06	4.452420e-06	7.363847e-09	3.087934e+01	4.833774e+02
1.200000e-06	4.551615e-06	7.518385e-09	3.156730e+01	4.935071e+02
1.210000e-06	4.649038e-06	7.665714e-09	3.224297e+01	5.031799e+02
1.220000e-06	4.744623e-06	7.806743e-09	3.290589e+01	5.124071e+02
1.230000e-06	4.838462e-06	7.942225e-09	3.355670e+01	5.212019e+02
1.240000e-06	4.930684e-06	8.072765e-09	3.419630e+01	5.295800e+02
1.250000e-06	5.021262e-06	8.197844e-09	3.482449e+01	5.375585e+02
1.260000e-06	5.109987e-06	8.316754e-09	3.543984e+01	5.451552e+02
1.270000e-06	5.196804e-06	8.427907e-09	3.604195e+01	5.523878e+02
1.280000e-06	5.281819e-06	8.532583e-09	3.663156e+01	5.592731e+02
1.290000e-06	5.365040e-06	8.633707e-09	3.720874e+01	5.658265e+02
1.300000e-06	5.446228e-06	8.729942e-09	3.777181e+01	5.720616e+02
1.310000e-06	5.525346e-06	8.818097e-09	3.832052e+01	5.779910e+02
1.320000e-06	5.602561e-06	8.899471e-09	3.885604e+01	5.836263e+02
1.330000e-06	5.677716e-06	8.978208e-09	3.937727e+01	5.889792e+02
1.340000e-06	5.750569e-06	9.055093e-09	3.988253e+01	5.940619e+02
1.350000e-06	5.821269e-06	9.129179e-09	4.037287e+01	5.988875e+02
1.360000e-06	5.889977e-06	9.199912e-09	4.084938e+01	6.034708e+02
1.370000e-06	5.956557e-06	9.266871e-09	4.131115e+01	6.078271e+02
1.380000e-06	6.020929e-06	9.330718e-09	4.175759e+01	6.119723e+02
1.390000e-06	6.083198e-06	9.391944e-09	4.218945e+01	6.159219e+02
1.400000e-06	6.143512e-06	9.451705e-09	4.260776e+01	6.196892e+02
1.410000e-06	6.201721e-06	9.509144e-09	4.301146e+01	6.232853e+02
1.420000e-06	6.257664e-06	9.562307e-09	4.339944e+01	6.267170e+02
1.430000e-06	6.311351e-06	9.610914e-09	4.377179e+01	6.299871e+02
1.440000e-06	6.362488e-06	9.657116e-09	4.412644e+01	6.330942e+02
1.450000e-06	6.410971e-06	9.701284e-09	4.446269e+01	6.360331e+02
1.460000e-06	6.457085e-06	9.742585e-09	4.478251e+01	6.387958e+02
1.470000e-06	6.501058e-06	9.780851e-09	4.508748e+01	6.413733e+02
1.480000e-06	6.542743e-06	9.814395e-09	4.537658e+01	6.437572e+02
1.490000e-06	6.581998e-06	9.845536e-09	4.564883e+01	6.459410e+02
1.500000e-06	6.619060e-06	9.876477e-09	4.590588e+01	6.479221e+02
1.510000e-06	6.653881e-06	9.905160e-09	4.614737e+01	6.497023e+02
1.520000e-06	6.686222e-06	9.930232e-09	4.637167e+01	6.512883e+02
1.530000e-06	6.716219e-06	9.951967e-09	4.657971e+01	6.526917e+02
1.540000e-06	6.744010e-06	9.970924e-09	4.677245e+01	6.539274e+02
1.550000e-06	6.769266e-06	9.986501e-09	4.694761e+01	6.550126e+02
1.560000e-06	6.791950e-06	9.998240e-09	4.710494e+01	6.559649e+02
1.570000e-06	6.812394e-06	1.000750e-08	4.724672e+01	6.568003e+02
1.580000e-06	6.830447e-06	1.001697e-08	4.737193e+01	6.575316e+02
1.590000e-06	6.845902e-06	1.002801e-08	4.747911e+01	6.581671e+02
1.600000e-06	6.858859e-06	1.003810e-08	4.756898e+01	6.587102e+02
1.610000e-06	6.869169e-06	1.004564e-08	4.764048e+01	6.591588e+02
1.620000e-06	6.876808e-06	1.005137e-08	4.769346e+01	6.595070e+02
1.630000e-06	6.882009e-06	1.005578e-08	4.772953e+01	6.597454e+02
1.640000e-06	6.884785e-06	1.005812e-08	4.774878e+01	6.598637e+02
1.650000e-06	6.885069e-06	1.006093e-08	4.775075e+01	6.598525e+02
1.660000e-06	6.883019e-06	1.005497e-08	4.773653e+01	6.597047e+02
1.670000e-06	6.878897e-06	1.004506e-08	4.770795e+01	6.594175e+02
1.680000e-06	6.872455e-06	1.003997e-08	4.766327e+01	6.589931e+02
1.690000e-06	6.863636e-06	1.003267e-08	4.760211e+01	6.584392e+02
1.700000e-06	6.852680e-06	1.002291e-08	4.752612e+01	6.577683e+02
1.710000e-06	6.839403e-06	1.001535e-08	4.743404e+01	6.569968e+02
1.720000e-06	6.823714e-06	1.002392e-08	4.732523e+01	6.561430e+02
1.730000e-06	6.805888e-06	1.001374e-08	4.720160e+01	6.552255e+02
1.740000e-06	6.785820e-06	9.902426e-09	4.706242e+01	6.542611e+02
1.750000e-06	6.762579e-06	9.899535e-09	4.690124e+01	6.532626e+02
1.760000e-06	6.736009e-06	9.935861e-09	4.671696e+01	6.522378e+02
1.770000e-06	6.706987e-06	9.886965e-09	4.651568e+01	6.511882e+02
1.780000e-06	6.675959e-06	9.956504e-09	4.630049e+01	6.501090e+02
1.790000e-06	6.643412e-06	9.986889e-09	4.607476e+01	6.489897e+02
1.800000e-06	6.609332e-06	9.780842e-09	4.583841e+01	6.478146e+02
1.810000e-06	6.572764e-06	9.861956e-09	4.558479e+01	6.465648e+02
1.820000e-06	6.533721e-06	9.855707e-09	4.531401e+01	6.452201e+02
1.830000e-06	6.492615e-06	9.763670e-09	4.502893e+01	6.437601e+02
1.840000e-06	6.449268e-06	9.936598e-09	4.472830e+01	6.421667e+02
1.850000e-06	6.403762e-06	9.758360e-09	4.441269e+01	6.404252e+02
1.860000e-06	6.355884e-06	9.720248e-09	4.408064e+01	6.385250e+02
1.870000e-06	6.305517e-06	9.707390e-09	4.373132e+01	6.364606e+02
1.880000e-06	6.252780e-06	9.584748e-09	4.336557e+01	6.342309e+02
1.890000e-06	6.197364e-06	9.711489e-09	4.298124e+01	6.318393e+02
1.900000e-06	6.139552e-06	9.602034e-09	4.258029e+01	6.292923e+02
1.910000e-06	6.079504e-06	9.575041e-09	4.216383e+01	6.265988e+02
1.920000e-06	6.017105e-06	9.533369e-09	4.173107e+01	6.237687e+02
1.930000e-06	5.952543e-06	9.387310e-09	4.128331e+01	6.208117e+02
1.940000e-06	5.885855e-06	9.473542e-09	4.082080e+01	6.177363e+02
1.950000e-06	5.817111e-06	9.380630e-09	4.034403e+01	6.145491e+02
1.960000e-06	5.745980e-06	9.357644e-09	3.985071e+01	6.112541e+02
1.970000e-06	5.672500e-06	9.243446e-09	3.934109e+01	6.078523e+02
1.980000e-06	5.596952e-06	9.161912e-09	3.881714e+01	6.043420e+02
1.990000e-06	5.519108e-06	9.203202e-09	3.827726e+01	6.007189e+02
2.000000e-06	5.439090e-06	9.113116e-09	3.772230e+01	5.969766e+02
2.010000e-06	5.357171e-06	9.091737e-09	3.715416e+01	5.931071e+02
2.020000e-06	5.273492e-06	8.968421e-09	3.657381e+01	5.891015e+02
2.030000e-06	5.187953e-06	8.899985e-09	3.598056e+01	5.849508e+02
2.040000e-06	5.100420e-06	8.829493e-09	3.537349e+01	5.806465e+02
2.050000e-06	5.011106e-06	8.786900e-09	3.475406e+01	5.761814e+02
2.060000e-06	4.920212e-06	8.763685e-09	3.412367e+01	5.715497e+02
2.070000e-06	4.827754e-06	8.634221e-09	3.348244e+01	5.667479e+02
2.080000e-06	4.733553e-06	8.547842e-09	3.282912e+01	5.617745e+02
2.090000e-06	4.637567e-06	8.445500e-09	3.216342e+01	5.566298e+02
2.100000e-06	4.540033e-06	8.410812e-09	3.148697e+01	5.513164e+02
2.110000e-06	4.441045e-06	8.347517e-09	3.080045e+01	5.458375e+02
2.120000e-06	4.340499e-06	8.253234e-09	3.010313e+01	5.401972e+02
2.130000e-06	4.238259e-06	8.144966e-09	2.939405e+01	5.343993e+02
2.140000e-06	4.134344e-06	8.041588e-09	2.867336e+01	5.284463e+02
2.150000e-06	4.028970e-06	7.962458e-09	2.794255e+01	5.223389e+02
2.160000e-06	3.922247e-06	7.878200e-09	2.720237e+01	5.160752e+02
2.170000e-06	3.814156e-06	7.795385e-09	2.645272e+01	5.096507e+02
2.180000e-06	3.704754e-06	7.668375e-09	2.569397e+01	5.030576e+02
2.190000e-06	3.593925e-06	7.551365e-09	2.492533e+01	4.962858e+02
2.200000e-06	3.481662e-06	7.441037e-09	2.414674e+01	4.893232e+02
2.210000e-06	3.368060e-06	7.364833e-09	2.335887e+01	4.821565e+02
2.220000e-06	3.253142e-06	7.265299e-09	2.256186e+01	4.747726e+02
2.230000e-06	3.136950e-06	7.127505e-09	2.175603e+01	4.671595e+02
2.240000e-06	3.019426e-06	6.982917e-09	2.094095e+01	4.593072e+02
2.250000e-06	2.900606e-06	6.859397e-09	2.011688e+01	4.512087e+02
2.260000e-06	2.780575e-06	6.750543e-09	1.928442e+01	4.428599e+02
2.270000e-06	2.659518e-06	6.630713e-09	1.844484e+01	4.342599e+02
2.280000e-06	2.537620e-06	6.498837e-09	1.759942e+01	4.254099e+02
2.290000e-06	2.414948e-06	6.347672e-09	1.674865e+01	4.163126e+02
2.300000e-06	2.291499e-06	6.198206e-09	1.589248e+01	4.069707e+02
2.310000e-06	2.167313e-06	6.057997e-09	1.503120e+01	3.973855e+02
2.320000e-06	2.042324e-06	5.931243e-09	1.416434e+01	3.875555e+02
2.330000e-06	1.916523e-06	5.780997e-09	1.329186e+01	3.774757e+02
2.340000e-06	1.790095e-06	5.605291e-09	1.241503e+01	3.671368e+02
2.350000e-06	1.663063e-06	5.426783e-09	1.153402e+01	3.565255e+02
2.360000e-06	1.535393e-06	5.264658e-09	1.064857e+01	3.456248e+02
2.370000e-06	1.407111e-06	5.109616e-09	9.758884e+00	3.344157e+02
2.380000e-06	1.278343e-06	4.939511e-09	8.865829e+00	3.228783e+02
2.390000e-06	1.149220e-06	4.752865e-09	7.970309e+00	3.109940e+02
2.400000e-06	1.019812e-06	4.555098e-09	7.072813e+00	2.987466e+02
2.410000e-06	8.901432e-07	4.360541e-09	6.173505e+00	2.861237e+02
2.420000e-06	7.602046e-07	4.172208e-09	5.272328e+00	2.731172e+02
2.430000e-06	6.300281e-07	3.979207e-09	4.369501e+00	2.597228e+02
2.440000e-06	4.996265e-07	3.765611e-09	3.465113e+00	2.459389e+02
2.450000e-06	3.690821e-07	3.533869e-09	2.559734e+00	2.317649e+02
2.460000e-06	2.384151e-07	3.301512e-09	1.653505e+00	2.171981e+02
2.470000e-06	1.076180e-07	3.078674e-09	7.463747e-01	2.022319e+02
2.480000e-06	-2.323593e-08	2.859815e-09	-1.611506e-01	1.868526e+02
2.490000e-06	-1.540918e-07	2.625645e-09	-1.068689e+00	1.710381e+02
2.500000e-06	-2.849101e-07	2.367149e-09	-1.975967e+00	1.547567e+02
2.510000e-06	-4.156278e-07	2.095608e-09	-2.882548e+00	1.379686e+02
2.520000e-06	-5.462254e-07	1.825076e-09	-3.788295e+00	1.206272e+02
2.530000e-06	-6.766804e-07	1.556290e-09	-4.693053e+00	1.026834e+02
2.540000e-06	-8.069728e-07	1.277912e-09	-5.596684e+00	8.409054e+01
2.550000e-06	-9.370245e-07	9.836117e-10	-6.498646e+00	6.480992e+01
2.560000e-06	-1.066699e-06	6.782747e-10	-7.397993e+00	4.481745e+01
2.570000e-06	-1.196043e-06	3.668333e-10	-8.295044e+00	2.410934e+01
2.580000e-06	-1.325060e-06	5.010949e-11	-9.189828e+00	2.707055e+00
2.590000e-06	-1.453610e-06	-2.779144e-10	-1.008138e+01	-1.933933e+01
2.600000e-06	-1.581581e-06	-6.242866e-10	-1.096891e+01	-4.194985e+01
2.610000e-06	-1.708901e-06	-9.853293e-10	-1.185192e+01	-6.501571e+01
2.620000e-06	-1.835550e-06	-1.350105e-09	-1.273029e+01	-8.840266e+01
2.630000e-06	-1.961566e-06	-1.708445e-09	-1.360426e+01	-1.119566e+02
2.640000e-06	-2.086869e-06	-2.062752e-09	-1.447328e+01	-1.355109e+02
2.650000e-06	-2.211256e-06	-2.420399e-09	-1.533596e+01	-1.588948e+02
2.660000e-06	-2.334653e-06	-2.780086e-09	-1.619177e+01	-1.819422e+02
2.670000e-06	-2.457165e-06	-3.130243e-09	-1.704144e+01	-2.044999e+02
2.680000e-06	-2.578816e-06	-3.463321e-09	-1.788514e+01	-2.264349e+02
2.690000e-06	-2.699539e-06	-3.779403e-09	-1.872240e+01	-2.476401e+02
2.700000e-06	-2.819230e-06	-4.081381e-09	-1.955250e+01	-2.680372e+02
2.710000e-06	-2.937858e-06	-4.376226e-09	-2.037524e+01	-2.875780e+02
2.720000e-06	-3.055405e-06	-4.665232e-09	-2.119048e+01	-3.062427e+02
2.730000e-06	-3.171699e-06	-4.940976e-09	-2.199703e+01	-3.240372e+02
2.740000e-06	-3.286656e-06	-5.199381e-09	-2.279430e+01	-3.409877e+02
2.750000e-06	-3.400258e-06	-5.445957e-09	-2.358217e+01	-3.571355e+02
2.760000e-06	-3.512467e-06	-5.685986e-09	-2.436039e+01	-3.725305e+02
2.770000e-06	-3.623240e-06	-5.917272e-09	-2.512864e+01	-3.872259e+02
2.780000e-06	-3.732734e-06	-6.135041e-09	-2.588803e+01	-4.012732e+02
2.790000e-06	-3.841085e-06	-6.338982e-09	-2.663949e+01	-4.147188e+02
2.800000e-06	-3.948191e-06	-6.531701e-09	-2.738231e+01	-4.276016e+02
2.810000e-06	-4.054036e-06	-6.718290e-09	-2.811639e+01	-4.399522e+02
2.820000e-06	-4.158452e-06	-6.901574e-09	-2.884055e+01	-4.517935e+02
2.830000e-06	-4.261246e-06	-7.077024e-09	-2.955347e+01	-4.631419e+02
2.840000e-06	-4.362378e-06	-7.241892e-09	-3.025487e+01	-4.740092e+02
2.850000e-06	-4.461937e-06	-7.397473e-09	-3.094535e+01	-4.844051e+02
2.860000e-06	-4.560035e-06	-7.548594e-09	-3.162569e+01	-4.943385e+02
2.870000e-06	-4.656638e-06	-7.695540e-09	-3.229568e+01	-5.038195e+02
2.880000e-06	-4.751626e-06	-7.833601e-09	-3.295446e+01	-5.128604e+02
2.890000e-06	-4.844784e-06	-7.962173e-09	-3.360055e+01	-5.214754e+02
2.900000e-06	-4.936165e-06	-8.082340e-09	-3.423431e+01	-5.296808e+02
2.910000e-06	-5.025846e-06	-8.199298e-09	-3.485629e+01	-5.374943e+02
2.920000e-06	-5.113714e-06	-8.315652e-09	-3.546569e+01	-5.449336e+02
2.930000e-06	-5.199619e-06	-8.427792e-09	-3.606147e+01	-5.520161e+02
2.940000e-06	-5.283586e-06	-8.532414e-09	-3.664382e+01	-5.587581e+02
