# Temperatura_=_63.74
# Concentracion g/m^3_=_15000.0
# C_Vs_to_Am_M_A/Vsm_=_65563218390.804596
# pendiente_HvsI_1/m_=_3716.3
# ordenada_HvsI_A/m_=_1297.0
# frecuencia_Hz_=_301972.81472429197

Tiempo_(s)	Campo_(V.s)	Magnetizacion_(V.s)	Campo_(kA/m)	Magnetizacion_(A/m)
0.000000e+00	-6.871286e-06	-1.103410e-08	-4.747344e+01	-7.232467e+02
1.000000e-08	-6.867745e-06	-1.103254e-08	-4.744898e+01	-7.229169e+02
2.000000e-08	-6.862008e-06	-1.102715e-08	-4.740935e+01	-7.224317e+02
3.000000e-08	-6.854099e-06	-1.102014e-08	-4.735470e+01	-7.217991e+02
4.000000e-08	-6.843753e-06	-1.101135e-08	-4.728322e+01	-7.210319e+02
5.000000e-08	-6.830808e-06	-1.099803e-08	-4.719379e+01	-7.201465e+02
6.000000e-08	-6.815343e-06	-1.098040e-08	-4.708694e+01	-7.191613e+02
7.000000e-08	-6.797632e-06	-1.096274e-08	-4.696457e+01	-7.180947e+02
8.000000e-08	-6.777832e-06	-1.096315e-08	-4.682778e+01	-7.169632e+02
9.000000e-08	-6.755580e-06	-1.097824e-08	-4.667404e+01	-7.157791e+02
1.000000e-07	-6.730491e-06	-1.094639e-08	-4.650070e+01	-7.145497e+02
1.100000e-07	-6.702707e-06	-1.089795e-08	-4.630874e+01	-7.132756e+02
1.200000e-07	-6.672618e-06	-1.086955e-08	-4.610086e+01	-7.119514e+02
1.300000e-07	-6.640505e-06	-1.081674e-08	-4.587899e+01	-7.105655e+02
1.400000e-07	-6.606481e-06	-1.076450e-08	-4.564392e+01	-7.091016e+02
1.500000e-07	-6.570578e-06	-1.080721e-08	-4.539587e+01	-7.075400e+02
1.600000e-07	-6.532628e-06	-1.078799e-08	-4.513367e+01	-7.058596e+02
1.700000e-07	-6.492515e-06	-1.071525e-08	-4.485653e+01	-7.040399e+02
1.800000e-07	-6.450016e-06	-1.071520e-08	-4.456291e+01	-7.020623e+02
1.900000e-07	-6.404955e-06	-1.064740e-08	-4.425158e+01	-6.999117e+02
2.000000e-07	-6.357603e-06	-1.059690e-08	-4.392443e+01	-6.975776e+02
2.100000e-07	-6.307696e-06	-1.059868e-08	-4.357962e+01	-6.950541e+02
2.200000e-07	-6.255055e-06	-1.058629e-08	-4.321593e+01	-6.923403e+02
2.300000e-07	-6.200000e-06	-1.053732e-08	-4.283556e+01	-6.894396e+02
2.400000e-07	-6.142539e-06	-1.043970e-08	-4.243856e+01	-6.863587e+02
2.500000e-07	-6.082808e-06	-1.039116e-08	-4.202589e+01	-6.831065e+02
2.600000e-07	-6.020927e-06	-1.035221e-08	-4.159835e+01	-6.796934e+02
2.700000e-07	-5.956853e-06	-1.028725e-08	-4.115567e+01	-6.761295e+02
2.800000e-07	-5.890505e-06	-1.024787e-08	-4.069727e+01	-6.724243e+02
2.900000e-07	-5.821877e-06	-1.018733e-08	-4.022312e+01	-6.685852e+02
3.000000e-07	-5.751125e-06	-1.012058e-08	-3.973430e+01	-6.646176e+02
3.100000e-07	-5.678223e-06	-1.006698e-08	-3.923062e+01	-6.605240e+02
3.200000e-07	-5.603018e-06	-1.002412e-08	-3.871103e+01	-6.563044e+02
3.300000e-07	-5.525522e-06	-9.953558e-09	-3.817561e+01	-6.519563e+02
3.400000e-07	-5.445857e-06	-9.855776e-09	-3.762522e+01	-6.474752e+02
3.500000e-07	-5.364165e-06	-9.785976e-09	-3.706081e+01	-6.428546e+02
3.600000e-07	-5.280683e-06	-9.729644e-09	-3.648403e+01	-6.380872e+02
3.700000e-07	-5.195481e-06	-9.678009e-09	-3.589538e+01	-6.331651e+02
3.800000e-07	-5.108551e-06	-9.602172e-09	-3.529478e+01	-6.280805e+02
3.900000e-07	-5.019791e-06	-9.506600e-09	-3.468154e+01	-6.228264e+02
4.000000e-07	-4.929122e-06	-9.403516e-09	-3.405511e+01	-6.173971e+02
4.100000e-07	-4.836751e-06	-9.309132e-09	-3.341692e+01	-6.117883e+02
4.200000e-07	-4.742863e-06	-9.246926e-09	-3.276825e+01	-6.059977e+02
4.300000e-07	-4.647338e-06	-9.173511e-09	-3.210828e+01	-6.000249e+02
4.400000e-07	-4.550020e-06	-9.071361e-09	-3.143591e+01	-5.938708e+02
4.500000e-07	-4.450992e-06	-8.961965e-09	-3.075173e+01	-5.875378e+02
4.600000e-07	-4.350376e-06	-8.858770e-09	-3.005658e+01	-5.810288e+02
4.700000e-07	-4.248254e-06	-8.758740e-09	-2.935102e+01	-5.743465e+02
4.800000e-07	-4.144744e-06	-8.663583e-09	-2.863588e+01	-5.674928e+02
4.900000e-07	-4.039716e-06	-8.560351e-09	-2.791024e+01	-5.604679e+02
5.000000e-07	-3.933051e-06	-8.437389e-09	-2.717330e+01	-5.532695e+02
5.100000e-07	-3.824968e-06	-8.318192e-09	-2.642656e+01	-5.458931e+02
5.200000e-07	-3.715637e-06	-8.212723e-09	-2.567119e+01	-5.383311e+02
5.300000e-07	-3.605034e-06	-8.103648e-09	-2.490704e+01	-5.305739e+02
5.400000e-07	-3.492981e-06	-7.975669e-09	-2.413287e+01	-5.226101e+02
5.500000e-07	-3.379344e-06	-7.841893e-09	-2.334775e+01	-5.144273e+02
5.600000e-07	-3.264214e-06	-7.713410e-09	-2.255233e+01	-5.060134e+02
5.700000e-07	-3.147754e-06	-7.584927e-09	-2.174771e+01	-4.973576e+02
5.800000e-07	-3.030114e-06	-7.456024e-09	-2.093494e+01	-4.884512e+02
5.900000e-07	-2.911436e-06	-7.320544e-09	-2.011500e+01	-4.792886e+02
6.000000e-07	-2.791740e-06	-7.168137e-09	-1.928802e+01	-4.698668e+02
6.100000e-07	-2.670917e-06	-7.006752e-09	-1.845326e+01	-4.601860e+02
6.200000e-07	-2.549052e-06	-6.853873e-09	-1.761130e+01	-4.502480e+02
6.300000e-07	-2.426249e-06	-6.709462e-09	-1.676286e+01	-4.400560e+02
6.400000e-07	-2.302518e-06	-6.556359e-09	-1.590801e+01	-4.296124e+02
6.500000e-07	-2.177990e-06	-6.390374e-09	-1.504765e+01	-4.189181e+02
6.600000e-07	-2.052784e-06	-6.219707e-09	-1.418261e+01	-4.079708e+02
6.700000e-07	-1.926977e-06	-6.045342e-09	-1.331341e+01	-3.967640e+02
6.800000e-07	-1.800577e-06	-5.866649e-09	-1.244011e+01	-3.852871e+02
6.900000e-07	-1.673513e-06	-5.688851e-09	-1.156224e+01	-3.735253e+02
7.000000e-07	-1.545780e-06	-5.506399e-09	-1.067973e+01	-3.614606e+02
7.100000e-07	-1.417438e-06	-5.314024e-09	-9.793027e+00	-3.490730e+02
7.200000e-07	-1.288609e-06	-5.118702e-09	-8.902951e+00	-3.363424e+02
7.300000e-07	-1.159381e-06	-4.922374e-09	-8.010120e+00	-3.232498e+02
7.400000e-07	-1.029811e-06	-4.720767e-09	-7.114922e+00	-3.097793e+02
7.500000e-07	-8.999568e-07	-4.510139e-09	-6.217766e+00	-2.959188e+02
7.600000e-07	-7.698033e-07	-4.289592e-09	-5.318541e+00	-2.816601e+02
7.700000e-07	-6.393668e-07	-4.062636e-09	-4.417360e+00	-2.669979e+02
7.800000e-07	-5.086823e-07	-3.833238e-09	-3.514466e+00	-2.519287e+02
7.900000e-07	-3.778033e-07	-3.602599e-09	-2.610228e+00	-2.364481e+02
8.000000e-07	-2.467435e-07	-3.365518e-09	-1.704741e+00	-2.205484e+02
8.100000e-07	-1.155485e-07	-3.117303e-09	-7.983201e-01	-2.042153e+02
8.200000e-07	1.572299e-08	-2.860413e-09	1.086295e-01	-1.874261e+02
8.300000e-07	1.470494e-07	-2.596427e-09	1.015958e+00	-1.701485e+02
8.400000e-07	2.783680e-07	-2.324171e-09	1.923234e+00	-1.523400e+02
8.500000e-07	4.096186e-07	-2.043678e-09	2.830039e+00	-1.339499e+02
8.600000e-07	5.407602e-07	-1.751610e-09	3.736091e+00	-1.149224e+02
8.700000e-07	6.717630e-07	-1.445186e-09	4.641184e+00	-9.520178e+01
8.800000e-07	8.025086e-07	-1.129981e-09	5.544501e+00	-7.473807e+01
8.900000e-07	9.329238e-07	-8.090022e-10	6.445534e+00	-5.349414e+01
9.000000e-07	1.063000e-06	-4.788973e-10	7.344224e+00	-3.145240e+01
9.100000e-07	1.192690e-06	-1.346109e-10	8.240247e+00	-8.621050e+00
9.200000e-07	1.321997e-06	2.249212e-10	9.133626e+00	1.496127e+01
9.300000e-07	1.450872e-06	5.960707e-10	1.002402e+01	3.922277e+01
9.400000e-07	1.579213e-06	9.756177e-10	1.091072e+01	6.405832e+01
9.500000e-07	1.706960e-06	1.363689e-09	1.179332e+01	8.933195e+01
9.600000e-07	1.834066e-06	1.756931e-09	1.267149e+01	1.148819e+02
9.700000e-07	1.960500e-06	2.151088e-09	1.354502e+01	1.405279e+02
9.800000e-07	2.086210e-06	2.544048e-09	1.441354e+01	1.660804e+02
9.900000e-07	2.211197e-06	2.930840e-09	1.527707e+01	1.913498e+02
1.000000e-06	2.335480e-06	3.308035e-09	1.613574e+01	2.161569e+02
1.010000e-06	2.458918e-06	3.673770e-09	1.698857e+01	2.403417e+02
1.020000e-06	2.581361e-06	4.027729e-09	1.783452e+01	2.637702e+02
1.030000e-06	2.702790e-06	4.369269e-09	1.867347e+01	2.863399e+02
1.040000e-06	2.823184e-06	4.696736e-09	1.950527e+01	3.079822e+02
1.050000e-06	2.942515e-06	5.012382e-09	2.032972e+01	3.286618e+02
1.060000e-06	3.060792e-06	5.314635e-09	2.114690e+01	3.483741e+02
1.070000e-06	3.178040e-06	5.601470e-09	2.195696e+01	3.671406e+02
1.080000e-06	3.294113e-06	5.872869e-09	2.275890e+01	3.850026e+02
1.090000e-06	3.408805e-06	6.130896e-09	2.355130e+01	4.020145e+02
1.100000e-06	3.522056e-06	6.377361e-09	2.433375e+01	4.182366e+02
1.110000e-06	3.633928e-06	6.612259e-09	2.510667e+01	4.337300e+02
1.120000e-06	3.744548e-06	6.836847e-09	2.587093e+01	4.485511e+02
1.130000e-06	3.854012e-06	7.053540e-09	2.662722e+01	4.627486e+02
1.140000e-06	3.962330e-06	7.263019e-09	2.737559e+01	4.763622e+02
1.150000e-06	4.069304e-06	7.463960e-09	2.811466e+01	4.894225e+02
1.160000e-06	4.174742e-06	7.654148e-09	2.884313e+01	5.019522e+02
1.170000e-06	4.278579e-06	7.833460e-09	2.956053e+01	5.139685e+02
1.180000e-06	4.380871e-06	8.005962e-09	3.026727e+01	5.254851e+02
1.190000e-06	4.481672e-06	8.172348e-09	3.096370e+01	5.365149e+02
1.200000e-06	4.580880e-06	8.332971e-09	3.164912e+01	5.470717e+02
1.210000e-06	4.678394e-06	8.486290e-09	3.232284e+01	5.571715e+02
1.220000e-06	4.774116e-06	8.633389e-09	3.298418e+01	5.668325e+02
1.230000e-06	4.868068e-06	8.776268e-09	3.363329e+01	5.760748e+02
1.240000e-06	4.960416e-06	8.914612e-09	3.427132e+01	5.849196e+02
1.250000e-06	5.051068e-06	9.046408e-09	3.489763e+01	5.933871e+02
1.260000e-06	5.139823e-06	9.173302e-09	3.551084e+01	6.014960e+02
1.270000e-06	5.226679e-06	9.295999e-09	3.611092e+01	6.092616e+02
1.280000e-06	5.311731e-06	9.412341e-09	3.669854e+01	6.166957e+02
1.290000e-06	5.395004e-06	9.522372e-09	3.727387e+01	6.238063e+02
1.300000e-06	5.476283e-06	9.625264e-09	3.783542e+01	6.305986e+02
1.310000e-06	5.555478e-06	9.721490e-09	3.838258e+01	6.370758e+02
1.320000e-06	5.632721e-06	9.811997e-09	3.891625e+01	6.432410e+02
1.330000e-06	5.707894e-06	9.898323e-09	3.943562e+01	6.490985e+02
1.340000e-06	5.780763e-06	9.982179e-09	3.993907e+01	6.546553e+02
1.350000e-06	5.851464e-06	1.006365e-08	4.042754e+01	6.599220e+02
1.360000e-06	5.920176e-06	1.014067e-08	4.090226e+01	6.649130e+02
1.370000e-06	5.986753e-06	1.021225e-08	4.136224e+01	6.696460e+02
1.380000e-06	6.051111e-06	1.028124e-08	4.180689e+01	6.741412e+02
1.390000e-06	6.113341e-06	1.034761e-08	4.223683e+01	6.784192e+02
1.400000e-06	6.173577e-06	1.041157e-08	4.265300e+01	6.824997e+02
1.410000e-06	6.231724e-06	1.047263e-08	4.305474e+01	6.863994e+02
1.420000e-06	6.287645e-06	1.052910e-08	4.344110e+01	6.901301e+02
1.430000e-06	6.341290e-06	1.058200e-08	4.381172e+01	6.936985e+02
1.440000e-06	6.392408e-06	1.063427e-08	4.416489e+01	6.971052e+02
1.450000e-06	6.440875e-06	1.068654e-08	4.449975e+01	7.003456e+02
1.460000e-06	6.486948e-06	1.073434e-08	4.481807e+01	7.034109e+02
1.470000e-06	6.530867e-06	1.077706e-08	4.512151e+01	7.062901e+02
1.480000e-06	6.572422e-06	1.081588e-08	4.540860e+01	7.089716e+02
1.490000e-06	6.611540e-06	1.085196e-08	4.567887e+01	7.114457e+02
1.500000e-06	6.648509e-06	1.088526e-08	4.593429e+01	7.137064e+02
1.510000e-06	6.683216e-06	1.091602e-08	4.617408e+01	7.157521e+02
1.520000e-06	6.715449e-06	1.094358e-08	4.639678e+01	7.175869e+02
1.530000e-06	6.745348e-06	1.096850e-08	4.660334e+01	7.192198e+02
1.540000e-06	6.772978e-06	1.099164e-08	4.679424e+01	7.206638e+02
1.550000e-06	6.798070e-06	1.101201e-08	4.696760e+01	7.219346e+02
1.560000e-06	6.820572e-06	1.102837e-08	4.712307e+01	7.230486e+02
1.570000e-06	6.840751e-06	1.104001e-08	4.726248e+01	7.240207e+02
1.580000e-06	6.858538e-06	1.104968e-08	4.738537e+01	7.248627e+02
1.590000e-06	6.873780e-06	1.106050e-08	4.749068e+01	7.255825e+02
1.600000e-06	6.886482e-06	1.107082e-08	4.757843e+01	7.261825e+02
1.610000e-06	6.896469e-06	1.107659e-08	4.764744e+01	7.266609e+02
1.620000e-06	6.903773e-06	1.108004e-08	4.769790e+01	7.270115e+02
1.630000e-06	6.908732e-06	1.108415e-08	4.773216e+01	7.272261e+02
1.640000e-06	6.911327e-06	1.108713e-08	4.775009e+01	7.272955e+02
1.650000e-06	6.911423e-06	1.108764e-08	4.775075e+01	7.272122e+02
1.660000e-06	6.909170e-06	1.108123e-08	4.773519e+01	7.269714e+02
1.670000e-06	6.904754e-06	1.107190e-08	4.770468e+01	7.265732e+02
1.680000e-06	6.897960e-06	1.106296e-08	4.765774e+01	7.260223e+02
1.690000e-06	6.888819e-06	1.105265e-08	4.759458e+01	7.253290e+02
1.700000e-06	6.877516e-06	1.104117e-08	4.751649e+01	7.245077e+02
1.710000e-06	6.863847e-06	1.103125e-08	4.742205e+01	7.235760e+02
1.720000e-06	6.847814e-06	1.102433e-08	4.731128e+01	7.225525e+02
1.730000e-06	6.829693e-06	1.099117e-08	4.718609e+01	7.214550e+02
1.740000e-06	6.809164e-06	1.093456e-08	4.704425e+01	7.202985e+02
1.750000e-06	6.785373e-06	1.092836e-08	4.687987e+01	7.190932e+02
1.760000e-06	6.758464e-06	1.092355e-08	4.669396e+01	7.178437e+02
1.770000e-06	6.729139e-06	1.090169e-08	4.649136e+01	7.165480e+02
1.780000e-06	6.697781e-06	1.093009e-08	4.627471e+01	7.151978e+02
1.790000e-06	6.664910e-06	1.090082e-08	4.604761e+01	7.137794e+02
1.800000e-06	6.630419e-06	1.082823e-08	4.580931e+01	7.122749e+02
1.810000e-06	6.593414e-06	1.084943e-08	4.555364e+01	7.106638e+02
1.820000e-06	6.553998e-06	1.081021e-08	4.528132e+01	7.089249e+02
1.830000e-06	6.512502e-06	1.079789e-08	4.499462e+01	7.070384e+02
1.840000e-06	6.468738e-06	1.082105e-08	4.469226e+01	7.049870e+02
1.850000e-06	6.422732e-06	1.073527e-08	4.437440e+01	7.027575e+02
1.860000e-06	6.374292e-06	1.069365e-08	4.403973e+01	7.003414e+02
1.870000e-06	6.323503e-06	1.060036e-08	4.368883e+01	6.977350e+02
1.880000e-06	6.270282e-06	1.055455e-08	4.332113e+01	6.949393e+02
1.890000e-06	6.214354e-06	1.058401e-08	4.293473e+01	6.919591e+02
1.900000e-06	6.156087e-06	1.051883e-08	4.253216e+01	6.888023e+02
1.910000e-06	6.095516e-06	1.050231e-08	4.211369e+01	6.854786e+02
1.920000e-06	6.032563e-06	1.041026e-08	4.167874e+01	6.819985e+02
1.930000e-06	5.967475e-06	1.031485e-08	4.122905e+01	6.783717e+02
1.940000e-06	5.900308e-06	1.031100e-08	4.076500e+01	6.746071e+02
1.950000e-06	5.830941e-06	1.023839e-08	4.028574e+01	6.707112e+02
1.960000e-06	5.759182e-06	1.017889e-08	3.978997e+01	6.666881e+02
1.970000e-06	5.685204e-06	1.008256e-08	3.927885e+01	6.625394e+02
1.980000e-06	5.609034e-06	1.002987e-08	3.875260e+01	6.582640e+02
1.990000e-06	5.530552e-06	9.992803e-09	3.821037e+01	6.538583e+02
2.000000e-06	5.449999e-06	9.920237e-09	3.765383e+01	6.493170e+02
2.010000e-06	5.367636e-06	9.854479e-09	3.708478e+01	6.446333e+02
2.020000e-06	5.283555e-06	9.742160e-09	3.650388e+01	6.397993e+02
2.030000e-06	5.197423e-06	9.663161e-09	3.590880e+01	6.348072e+02
2.040000e-06	5.109246e-06	9.586197e-09	3.529958e+01	6.296496e+02
2.050000e-06	5.019391e-06	9.538883e-09	3.467877e+01	6.243198e+02
2.060000e-06	4.927998e-06	9.465976e-09	3.404735e+01	6.188127e+02
2.070000e-06	4.834961e-06	9.343525e-09	3.340456e+01	6.131249e+02
2.080000e-06	4.740063e-06	9.237957e-09	3.274891e+01	6.072550e+02
2.090000e-06	4.643451e-06	9.135808e-09	3.208142e+01	6.012030e+02
2.100000e-06	4.545340e-06	9.068220e-09	3.140358e+01	5.949706e+02
2.110000e-06	4.445792e-06	8.991038e-09	3.071581e+01	5.885606e+02
2.120000e-06	4.344624e-06	8.895850e-09	3.001684e+01	5.819758e+02
2.130000e-06	4.241739e-06	8.774015e-09	2.930601e+01	5.752187e+02
2.140000e-06	4.137258e-06	8.655007e-09	2.858416e+01	5.682905e+02
2.150000e-06	4.031321e-06	8.549329e-09	2.785224e+01	5.611904e+02
2.160000e-06	3.924041e-06	8.449242e-09	2.711104e+01	5.539152e+02
2.170000e-06	3.815395e-06	8.340805e-09	2.636042e+01	5.464590e+02
2.180000e-06	3.705383e-06	8.212736e-09	2.560035e+01	5.388135e+02
2.190000e-06	3.593957e-06	8.089619e-09	2.483051e+01	5.309680e+02
2.200000e-06	3.481178e-06	7.970161e-09	2.405132e+01	5.229106e+02
2.210000e-06	3.367060e-06	7.860968e-09	2.326288e+01	5.146289e+02
2.220000e-06	3.251565e-06	7.731122e-09	2.246494e+01	5.061113e+02
2.230000e-06	3.134624e-06	7.578939e-09	2.165700e+01	4.973478e+02
2.240000e-06	3.016344e-06	7.426254e-09	2.083980e+01	4.883309e+02
2.250000e-06	2.896852e-06	7.292242e-09	2.001424e+01	4.790561e+02
2.260000e-06	2.776224e-06	7.164687e-09	1.918082e+01	4.695219e+02
2.270000e-06	2.654670e-06	7.027799e-09	1.834101e+01	4.597293e+02
2.280000e-06	2.532245e-06	6.874633e-09	1.749519e+01	4.496809e+02
2.290000e-06	2.408976e-06	6.705418e-09	1.664352e+01	4.393796e+02
2.300000e-06	2.284868e-06	6.534224e-09	1.578606e+01	4.288274e+02
2.310000e-06	2.159978e-06	6.373647e-09	1.492320e+01	4.180239e+02
2.320000e-06	2.034374e-06	6.221948e-09	1.405541e+01	4.069651e+02
2.330000e-06	1.908087e-06	6.051659e-09	1.318290e+01	3.956429e+02
2.340000e-06	1.781086e-06	5.862918e-09	1.230546e+01	3.840447e+02
2.350000e-06	1.653348e-06	5.672636e-09	1.142292e+01	3.721542e+02
2.360000e-06	1.524963e-06	5.490395e-09	1.053591e+01	3.599524e+02
2.370000e-06	1.396101e-06	5.308954e-09	9.645605e+00	3.474190e+02
2.380000e-06	1.266864e-06	5.116558e-09	8.752712e+00	3.345341e+02
2.390000e-06	1.137240e-06	4.911097e-09	7.857146e+00	3.212801e+02
2.400000e-06	1.007305e-06	4.695928e-09	6.959429e+00	3.076425e+02
2.410000e-06	8.771384e-07	4.479625e-09	6.060115e+00	2.936109e+02
2.420000e-06	7.467534e-07	4.265907e-09	5.159290e+00	2.791785e+02
2.430000e-06	6.161661e-07	4.045584e-09	4.257067e+00	2.643410e+02
2.440000e-06	4.853722e-07	3.807652e-09	3.353418e+00	2.490950e+02
2.450000e-06	3.544059e-07	3.557590e-09	2.448577e+00	2.334348e+02
2.460000e-06	2.232793e-07	3.307604e-09	1.542628e+00	2.173503e+02
2.470000e-06	9.203439e-08	3.061248e-09	6.358620e-01	2.008238e+02
2.480000e-06	-3.925041e-08	2.812143e-09	-2.711795e-01	1.838287e+02
2.490000e-06	-1.705804e-07	2.548381e-09	-1.178533e+00	1.663280e+02
2.500000e-06	-3.018764e-07	2.266308e-09	-2.085652e+00	1.482756e+02
2.510000e-06	-4.329913e-07	1.971787e-09	-2.991520e+00	1.296180e+02
2.520000e-06	-5.639384e-07	1.673763e-09	-3.896228e+00	1.102989e+02
2.530000e-06	-6.947604e-07	1.373650e-09	-4.800073e+00	9.026409e+01
2.540000e-06	-8.253916e-07	1.061576e-09	-5.702599e+00	6.946832e+01
2.550000e-06	-9.557453e-07	7.320183e-10	-6.603207e+00	4.788201e+01
2.560000e-06	-1.085811e-06	3.880420e-10	-7.501828e+00	2.549794e+01
2.570000e-06	-1.215571e-06	3.626137e-11	-8.398336e+00	2.336873e+00
2.580000e-06	-1.344990e-06	-3.217944e-10	-9.292482e+00	-2.154852e+01
2.590000e-06	-1.473979e-06	-6.902212e-10	-1.018366e+01	-4.607204e+01
2.600000e-06	-1.602437e-06	-1.072915e-09	-1.107117e+01	-7.111488e+01
2.610000e-06	-1.730286e-06	-1.466274e-09	-1.195448e+01	-9.652924e+01
2.620000e-06	-1.857369e-06	-1.859588e-09	-1.283249e+01	-1.221445e+02
2.630000e-06	-1.983689e-06	-2.247001e-09	-1.370523e+01	-1.477750e+02
2.640000e-06	-2.109296e-06	-2.630625e-09	-1.457304e+01	-1.732302e+02
2.650000e-06	-2.234104e-06	-3.013786e-09	-1.543534e+01	-1.983238e+02
2.660000e-06	-2.358006e-06	-3.394896e-09	-1.629137e+01	-2.228837e+02
2.670000e-06	-2.480943e-06	-3.764508e-09	-1.714074e+01	-2.467602e+02
2.680000e-06	-2.602979e-06	-4.116947e-09	-1.798388e+01	-2.698325e+02
2.690000e-06	-2.724103e-06	-4.451454e-09	-1.882072e+01	-2.920124e+02
2.700000e-06	-2.844193e-06	-4.769096e-09	-1.965042e+01	-3.132458e+02
2.710000e-06	-2.963173e-06	-5.075513e-09	-2.047245e+01	-3.335110e+02
2.720000e-06	-3.080966e-06	-5.372135e-09	-2.128628e+01	-3.528153e+02
2.730000e-06	-3.197527e-06	-5.655001e-09	-2.209159e+01	-3.711894e+02
2.740000e-06	-3.312807e-06	-5.922436e-09	-2.288805e+01	-3.886811e+02
2.750000e-06	-3.426697e-06	-6.177760e-09	-2.367492e+01	-4.053482e+02
2.760000e-06	-3.539235e-06	-6.423855e-09	-2.445243e+01	-4.212520e+02
2.770000e-06	-3.650414e-06	-6.660039e-09	-2.522056e+01	-4.364520e+02
2.780000e-06	-3.760219e-06	-6.884332e-09	-2.597921e+01	-4.510016e+02
2.790000e-06	-3.868775e-06	-7.097082e-09	-2.672921e+01	-4.649458e+02
2.800000e-06	-3.976112e-06	-7.298941e-09	-2.747080e+01	-4.783202e+02
2.810000e-06	-4.082173e-06	-7.494299e-09	-2.820357e+01	-4.911520e+02
2.820000e-06	-4.186818e-06	-7.685421e-09	-2.892656e+01	-5.034611e+02
2.830000e-06	-4.289840e-06	-7.868853e-09	-2.963833e+01	-5.152628e+02
2.840000e-06	-4.391233e-06	-8.041667e-09	-3.033886e+01	-5.265705e+02
2.850000e-06	-4.491094e-06	-8.203297e-09	-3.102879e+01	-5.373970e+02
2.860000e-06	-4.589433e-06	-8.359531e-09	-3.170821e+01	-5.477571e+02
2.870000e-06	-4.686197e-06	-8.513007e-09	-3.237675e+01	-5.576677e+02
2.880000e-06	-4.781252e-06	-8.657834e-09	-3.303348e+01	-5.671480e+02
2.890000e-06	-4.874577e-06	-8.792513e-09	-3.367827e+01	-5.762186e+02
2.900000e-06	-4.966168e-06	-8.920378e-09	-3.431106e+01	-5.849005e+02
2.910000e-06	-5.055991e-06	-9.045359e-09	-3.493165e+01	-5.932135e+02
2.920000e-06	-5.143953e-06	-9.167924e-09	-3.553937e+01	-6.011748e+02
2.930000e-06	-5.229945e-06	-9.286201e-09	-3.613348e+01	-6.087984e+02
2.940000e-06	-5.314014e-06	-9.398291e-09	-3.671432e+01	-6.160943e+02
