# Temperatura_=_78.21
# Concentracion g/m^3_=_15000.0
# C_Vs_to_Am_M_A/Vsm_=_65563218390.804596
# pendiente_HvsI_1/m_=_3716.3
# ordenada_HvsI_A/m_=_1297.0
# frecuencia_Hz_=_301980.10849494056

Tiempo_(s)	Campo_(V.s)	Magnetizacion_(V.s)	Campo_(kA/m)	Magnetizacion_(A/m)
0.000000e+00	-6.881453e-06	-1.241791e-08	-4.747002e+01	-8.135905e+02
1.000000e-08	-6.877938e-06	-1.241558e-08	-4.744577e+01	-8.132624e+02
2.000000e-08	-6.872161e-06	-1.240870e-08	-4.740593e+01	-8.127497e+02
3.000000e-08	-6.864226e-06	-1.240316e-08	-4.735119e+01	-8.120565e+02
4.000000e-08	-6.853908e-06	-1.239397e-08	-4.728001e+01	-8.111938e+02
5.000000e-08	-6.841013e-06	-1.237820e-08	-4.719106e+01	-8.101787e+02
6.000000e-08	-6.825575e-06	-1.235275e-08	-4.708456e+01	-8.090322e+02
7.000000e-08	-6.807783e-06	-1.232327e-08	-4.696183e+01	-8.077773e+02
8.000000e-08	-6.787923e-06	-1.233895e-08	-4.682483e+01	-8.064362e+02
9.000000e-08	-6.765759e-06	-1.236672e-08	-4.667193e+01	-8.050277e+02
1.000000e-07	-6.740767e-06	-1.230821e-08	-4.649953e+01	-8.035649e+02
1.100000e-07	-6.713009e-06	-1.224843e-08	-4.630805e+01	-8.020538e+02
1.200000e-07	-6.682930e-06	-1.223639e-08	-4.610056e+01	-8.004926e+02
1.300000e-07	-6.650806e-06	-1.216630e-08	-4.587896e+01	-7.988715e+02
1.400000e-07	-6.616769e-06	-1.209908e-08	-4.564417e+01	-7.971741e+02
1.500000e-07	-6.580822e-06	-1.220002e-08	-4.539619e+01	-7.953787e+02
1.600000e-07	-6.542821e-06	-1.210659e-08	-4.513405e+01	-7.934604e+02
1.700000e-07	-6.502711e-06	-1.201024e-08	-4.485736e+01	-7.913937e+02
1.800000e-07	-6.460161e-06	-1.207283e-08	-4.456384e+01	-7.891545e+02
1.900000e-07	-6.415052e-06	-1.197006e-08	-4.425267e+01	-7.867220e+02
2.000000e-07	-6.367725e-06	-1.196638e-08	-4.392619e+01	-7.840803e+02
2.100000e-07	-6.317797e-06	-1.195941e-08	-4.358178e+01	-7.812193e+02
2.200000e-07	-6.265071e-06	-1.189145e-08	-4.321806e+01	-7.781348e+02
2.300000e-07	-6.209871e-06	-1.183461e-08	-4.283728e+01	-7.748282e+02
2.400000e-07	-6.152265e-06	-1.172784e-08	-4.243990e+01	-7.713057e+02
2.500000e-07	-6.092454e-06	-1.169546e-08	-4.202731e+01	-7.675768e+02
2.600000e-07	-6.030549e-06	-1.165052e-08	-4.160027e+01	-7.636536e+02
2.700000e-07	-5.966389e-06	-1.156095e-08	-4.115768e+01	-7.595487e+02
2.800000e-07	-5.899938e-06	-1.149442e-08	-4.069928e+01	-7.552742e+02
2.900000e-07	-5.831252e-06	-1.142814e-08	-4.022547e+01	-7.508404e+02
3.000000e-07	-5.760408e-06	-1.138245e-08	-3.973677e+01	-7.462552e+02
3.100000e-07	-5.687419e-06	-1.130555e-08	-3.923327e+01	-7.415232e+02
3.200000e-07	-5.612157e-06	-1.125558e-08	-3.871410e+01	-7.366460e+02
3.300000e-07	-5.534534e-06	-1.117799e-08	-3.817863e+01	-7.316216e+02
3.400000e-07	-5.454682e-06	-1.106663e-08	-3.762779e+01	-7.264454e+02
3.500000e-07	-5.372846e-06	-1.099492e-08	-3.706327e+01	-7.211101e+02
3.600000e-07	-5.289257e-06	-1.092533e-08	-3.648664e+01	-7.156069e+02
3.700000e-07	-5.203951e-06	-1.085601e-08	-3.589819e+01	-7.099263e+02
3.800000e-07	-5.116881e-06	-1.074276e-08	-3.529755e+01	-7.040585e+02
3.900000e-07	-5.027944e-06	-1.063897e-08	-3.468404e+01	-6.979946e+02
4.000000e-07	-4.937128e-06	-1.054567e-08	-3.405757e+01	-6.917276e+02
4.100000e-07	-4.844668e-06	-1.045078e-08	-3.341976e+01	-6.852523e+02
4.200000e-07	-4.750651e-06	-1.036175e-08	-3.277120e+01	-6.785663e+02
4.300000e-07	-4.654933e-06	-1.025634e-08	-3.211092e+01	-6.716697e+02
4.400000e-07	-4.557492e-06	-1.014087e-08	-3.143875e+01	-6.645652e+02
4.500000e-07	-4.458358e-06	-1.001989e-08	-3.075489e+01	-6.572572e+02
4.600000e-07	-4.357608e-06	-9.914512e-09	-3.005990e+01	-6.497516e+02
4.700000e-07	-4.255421e-06	-9.808052e-09	-2.935498e+01	-6.420539e+02
4.800000e-07	-4.151725e-06	-9.686436e-09	-2.863966e+01	-6.341690e+02
4.900000e-07	-4.046488e-06	-9.552599e-09	-2.791371e+01	-6.260995e+02
5.000000e-07	-3.939734e-06	-9.419987e-09	-2.717729e+01	-6.178450e+02
5.100000e-07	-3.831467e-06	-9.295543e-09	-2.643044e+01	-6.094016e+02
5.200000e-07	-3.721915e-06	-9.173033e-09	-2.567472e+01	-6.007615e+02
5.300000e-07	-3.611133e-06	-9.040673e-09	-2.491052e+01	-5.919136e+02
5.400000e-07	-3.498892e-06	-8.891334e-09	-2.413625e+01	-5.828440e+02
5.500000e-07	-3.385146e-06	-8.738687e-09	-2.335160e+01	-5.735372e+02
5.600000e-07	-3.269976e-06	-8.592159e-09	-2.255713e+01	-5.639778e+02
5.700000e-07	-3.153401e-06	-8.451174e-09	-2.175296e+01	-5.541518e+02
5.800000e-07	-3.035607e-06	-8.303422e-09	-2.094039e+01	-5.440480e+02
5.900000e-07	-2.916811e-06	-8.144445e-09	-2.012091e+01	-5.336587e+02
6.000000e-07	-2.796941e-06	-7.976940e-09	-1.929401e+01	-5.229810e+02
6.100000e-07	-2.675942e-06	-7.807730e-09	-1.845933e+01	-5.120155e+02
6.200000e-07	-2.553912e-06	-7.637416e-09	-1.761754e+01	-5.007664e+02
6.300000e-07	-2.430939e-06	-7.463149e-09	-1.676924e+01	-4.892396e+02
6.400000e-07	-2.307031e-06	-7.279063e-09	-1.591449e+01	-4.774411e+02
6.500000e-07	-2.182274e-06	-7.086103e-09	-1.505388e+01	-4.653748e+02
6.600000e-07	-2.056826e-06	-6.895682e-09	-1.418851e+01	-4.530409e+02
6.700000e-07	-1.930777e-06	-6.706944e-09	-1.331899e+01	-4.404343e+02
6.800000e-07	-1.804184e-06	-6.514658e-09	-1.244572e+01	-4.275439e+02
6.900000e-07	-1.676904e-06	-6.313550e-09	-1.156771e+01	-4.143526e+02
7.000000e-07	-1.548876e-06	-6.104685e-09	-1.068454e+01	-4.008381e+02
7.100000e-07	-1.420238e-06	-5.891793e-09	-9.797168e+00	-3.869745e+02
7.200000e-07	-1.291140e-06	-5.676083e-09	-8.906616e+00	-3.727345e+02
7.300000e-07	-1.161678e-06	-5.454970e-09	-8.013552e+00	-3.580916e+02
7.400000e-07	-1.031930e-06	-5.224748e-09	-7.118515e+00	-3.430220e+02
7.500000e-07	-9.018908e-07	-4.984894e-09	-6.221473e+00	-3.275064e+02
7.600000e-07	-7.715138e-07	-4.737828e-09	-5.322099e+00	-3.115305e+02
7.700000e-07	-6.408389e-07	-4.487913e-09	-4.420671e+00	-2.950844e+02
7.800000e-07	-5.099753e-07	-4.236058e-09	-3.517940e+00	-2.781610e+02
7.900000e-07	-3.789387e-07	-3.979833e-09	-2.614016e+00	-2.607537e+02
8.000000e-07	-2.477281e-07	-3.711216e-09	-1.708892e+00	-2.428530e+02
8.100000e-07	-1.163505e-07	-3.427367e-09	-8.026157e-01	-2.244430e+02
8.200000e-07	1.520759e-08	-3.134654e-09	1.049058e-01	-2.054991e+02
8.300000e-07	1.467513e-07	-2.834540e-09	1.012328e+00	-1.859855e+02
8.400000e-07	2.782011e-07	-2.524886e-09	1.919102e+00	-1.658553e+02
8.500000e-07	4.095882e-07	-2.204288e-09	2.825444e+00	-1.450521e+02
8.600000e-07	5.408463e-07	-1.871689e-09	3.730896e+00	-1.235134e+02
8.700000e-07	6.719489e-07	-1.528504e-09	4.635275e+00	-1.011766e+02
8.800000e-07	8.028551e-07	-1.174534e-09	5.538300e+00	-7.798588e+01
8.900000e-07	9.334430e-07	-8.087555e-10	6.439129e+00	-5.390060e+01
9.000000e-07	1.063668e-06	-4.311419e-10	7.337454e+00	-2.890316e+01
9.100000e-07	1.193542e-06	-3.987327e-11	8.233359e+00	-3.006585e+00
9.200000e-07	1.323062e-06	3.645180e-10	9.126819e+00	2.373987e+01
9.300000e-07	1.452181e-06	7.821918e-10	1.001752e+01	5.124763e+01
9.400000e-07	1.580755e-06	1.211617e-09	1.090445e+01	7.938866e+01
9.500000e-07	1.708690e-06	1.651585e-09	1.178698e+01	1.079987e+02
9.600000e-07	1.835935e-06	2.098003e-09	1.266475e+01	1.368838e+02
9.700000e-07	1.962456e-06	2.543964e-09	1.353752e+01	1.658293e+02
9.800000e-07	2.088292e-06	2.985009e-09	1.440557e+01	1.946110e+02
9.900000e-07	2.213463e-06	3.417150e-09	1.526903e+01	2.230074e+02
1.000000e-06	2.337941e-06	3.838925e-09	1.612771e+01	2.508115e+02
1.010000e-06	2.461580e-06	4.248827e-09	1.698060e+01	2.778415e+02
1.020000e-06	2.584236e-06	4.644549e-09	1.782672e+01	3.039498e+02
1.030000e-06	2.705931e-06	5.025186e-09	1.866620e+01	3.290277e+02
1.040000e-06	2.826594e-06	5.387405e-09	1.949857e+01	3.530084e+02
1.050000e-06	2.946139e-06	5.732140e-09	2.032322e+01	3.758653e+02
1.060000e-06	3.064611e-06	6.061789e-09	2.114047e+01	3.976083e+02
1.070000e-06	3.182017e-06	6.376355e-09	2.195037e+01	4.182765e+02
1.080000e-06	3.298243e-06	6.677195e-09	2.275212e+01	4.379305e+02
1.090000e-06	3.413122e-06	6.964580e-09	2.354459e+01	4.566429e+02
1.100000e-06	3.526576e-06	7.237717e-09	2.432722e+01	4.744907e+02
1.110000e-06	3.638648e-06	7.499128e-09	2.510032e+01	4.915473e+02
1.120000e-06	3.749441e-06	7.749307e-09	2.586460e+01	5.078774e+02
1.130000e-06	3.859065e-06	7.987853e-09	2.662082e+01	5.235339e+02
1.140000e-06	3.967512e-06	8.217244e-09	2.736891e+01	5.385568e+02
1.150000e-06	4.074636e-06	8.435721e-09	2.810788e+01	5.529745e+02
1.160000e-06	4.180296e-06	8.642992e-09	2.883675e+01	5.668061e+02
1.170000e-06	4.284353e-06	8.841065e-09	2.955456e+01	5.800655e+02
1.180000e-06	4.386795e-06	9.030991e-09	3.026124e+01	5.927646e+02
1.190000e-06	4.487732e-06	9.214090e-09	3.095752e+01	6.049169e+02
1.200000e-06	4.587136e-06	9.390323e-09	3.164323e+01	6.165397e+02
1.210000e-06	4.684867e-06	9.559003e-09	3.231741e+01	6.276554e+02
1.220000e-06	4.780745e-06	9.720794e-09	3.297880e+01	6.382912e+02
1.230000e-06	4.874851e-06	9.877214e-09	3.362797e+01	6.484774e+02
1.240000e-06	4.967379e-06	1.002936e-08	3.426625e+01	6.582454e+02
1.250000e-06	5.058229e-06	1.017477e-08	3.489295e+01	6.676250e+02
1.260000e-06	5.147164e-06	1.031414e-08	3.550645e+01	6.766413e+02
1.270000e-06	5.234140e-06	1.044811e-08	3.610643e+01	6.853131e+02
1.280000e-06	5.319339e-06	1.057721e-08	3.669416e+01	6.936517e+02
1.290000e-06	5.402721e-06	1.070177e-08	3.726935e+01	7.016609e+02
1.300000e-06	5.484111e-06	1.081961e-08	3.783080e+01	7.093382e+02
1.310000e-06	5.563484e-06	1.093147e-08	3.837833e+01	7.166770e+02
1.320000e-06	5.640870e-06	1.103755e-08	3.891216e+01	7.236695e+02
1.330000e-06	5.716142e-06	1.113824e-08	3.943141e+01	7.303094e+02
1.340000e-06	5.789126e-06	1.123238e-08	3.993487e+01	7.365953e+02
1.350000e-06	5.859930e-06	1.132023e-08	4.042329e+01	7.425320e+02
1.360000e-06	5.928697e-06	1.140414e-08	4.089767e+01	7.481320e+02
1.370000e-06	5.995358e-06	1.148463e-08	4.135751e+01	7.534153e+02
1.380000e-06	6.059869e-06	1.156142e-08	4.180253e+01	7.584076e+02
1.390000e-06	6.122318e-06	1.163467e-08	4.223332e+01	7.631387e+02
1.400000e-06	6.182767e-06	1.170547e-08	4.265031e+01	7.676388e+02
1.410000e-06	6.241077e-06	1.177200e-08	4.305255e+01	7.719357e+02
1.420000e-06	6.297122e-06	1.183461e-08	4.343916e+01	7.760519e+02
1.430000e-06	6.350880e-06	1.189385e-08	4.381000e+01	7.800023e+02
1.440000e-06	6.402094e-06	1.195086e-08	4.416328e+01	7.837929e+02
1.450000e-06	6.450632e-06	1.200743e-08	4.449811e+01	7.874210e+02
1.460000e-06	6.496787e-06	1.206064e-08	4.481650e+01	7.908764e+02
1.470000e-06	6.540833e-06	1.211010e-08	4.512034e+01	7.941431e+02
1.480000e-06	6.582574e-06	1.215567e-08	4.540827e+01	7.972028e+02
1.490000e-06	6.621828e-06	1.219709e-08	4.567906e+01	8.000378e+02
1.500000e-06	6.658831e-06	1.223581e-08	4.593432e+01	8.026338e+02
1.510000e-06	6.693542e-06	1.227181e-08	4.617376e+01	8.049825e+02
1.520000e-06	6.725792e-06	1.230397e-08	4.639623e+01	8.070830e+02
1.530000e-06	6.755696e-06	1.233075e-08	4.660252e+01	8.089422e+02
1.540000e-06	6.783352e-06	1.235451e-08	4.679330e+01	8.105739e+02
1.550000e-06	6.808459e-06	1.237684e-08	4.696649e+01	8.119972e+02
1.560000e-06	6.830962e-06	1.239442e-08	4.712172e+01	8.132338e+02
1.570000e-06	6.851189e-06	1.240652e-08	4.726125e+01	8.143055e+02
1.580000e-06	6.869047e-06	1.241780e-08	4.738444e+01	8.152313e+02
1.590000e-06	6.884330e-06	1.243048e-08	4.748987e+01	8.160251e+02
1.600000e-06	6.897051e-06	1.244264e-08	4.757762e+01	8.166943e+02
1.610000e-06	6.907071e-06	1.245157e-08	4.764674e+01	8.172395e+02
1.620000e-06	6.914424e-06	1.245785e-08	4.769746e+01	8.176549e+02
1.630000e-06	6.919414e-06	1.246236e-08	4.773188e+01	8.179296e+02
1.640000e-06	6.922034e-06	1.246437e-08	4.774996e+01	8.180504e+02
1.650000e-06	6.922149e-06	1.246465e-08	4.775075e+01	8.180041e+02
1.660000e-06	6.919881e-06	1.245377e-08	4.773511e+01	8.177797e+02
1.670000e-06	6.915458e-06	1.244356e-08	4.770459e+01	8.173712e+02
1.680000e-06	6.908659e-06	1.243490e-08	4.765770e+01	8.167791e+02
1.690000e-06	6.899500e-06	1.242515e-08	4.759451e+01	8.160103e+02
1.700000e-06	6.888204e-06	1.241542e-08	4.751659e+01	8.150788e+02
1.710000e-06	6.874468e-06	1.240770e-08	4.742184e+01	8.140035e+02
1.720000e-06	6.858331e-06	1.240905e-08	4.731052e+01	8.128066e+02
1.730000e-06	6.840135e-06	1.234972e-08	4.718500e+01	8.115110e+02
1.740000e-06	6.819457e-06	1.227136e-08	4.704236e+01	8.101379e+02
1.750000e-06	6.795536e-06	1.229079e-08	4.687734e+01	8.087037e+02
1.760000e-06	6.768524e-06	1.228634e-08	4.669101e+01	8.072188e+02
1.770000e-06	6.739078e-06	1.224694e-08	4.648788e+01	8.056858e+02
1.780000e-06	6.707683e-06	1.231479e-08	4.627131e+01	8.040994e+02
1.790000e-06	6.674850e-06	1.223580e-08	4.604482e+01	8.024468e+02
1.800000e-06	6.640369e-06	1.213173e-08	4.580696e+01	8.007091e+02
1.810000e-06	6.603352e-06	1.223329e-08	4.555161e+01	7.988630e+02
1.820000e-06	6.563950e-06	1.212838e-08	4.527981e+01	7.968831e+02
1.830000e-06	6.522450e-06	1.213712e-08	4.499353e+01	7.947441e+02
1.840000e-06	6.478612e-06	1.215675e-08	4.469112e+01	7.924231e+02
1.850000e-06	6.432537e-06	1.198670e-08	4.437328e+01	7.899015e+02
1.860000e-06	6.384052e-06	1.203052e-08	4.403882e+01	7.871656e+02
1.870000e-06	6.333176e-06	1.192350e-08	4.368787e+01	7.842078e+02
1.880000e-06	6.279885e-06	1.189491e-08	4.332025e+01	7.810265e+02
1.890000e-06	6.223881e-06	1.192681e-08	4.293392e+01	7.776252e+02
1.900000e-06	6.165495e-06	1.177898e-08	4.253116e+01	7.740117e+02
1.910000e-06	6.104829e-06	1.179697e-08	4.211267e+01	7.701969e+02
1.920000e-06	6.041865e-06	1.168955e-08	4.167833e+01	7.661932e+02
1.930000e-06	5.976763e-06	1.161325e-08	4.122924e+01	7.620130e+02
1.940000e-06	5.909507e-06	1.159622e-08	4.076529e+01	7.576679e+02
1.950000e-06	5.840012e-06	1.148490e-08	4.028589e+01	7.531673e+02
1.960000e-06	5.768065e-06	1.144509e-08	3.978959e+01	7.485177e+02
1.970000e-06	5.693934e-06	1.130431e-08	3.927821e+01	7.437223e+02
1.980000e-06	5.617662e-06	1.127268e-08	3.875207e+01	7.387813e+02
1.990000e-06	5.539102e-06	1.122121e-08	3.821014e+01	7.336914e+02
2.000000e-06	5.458492e-06	1.112332e-08	3.765407e+01	7.284468e+02
2.010000e-06	5.376042e-06	1.105461e-08	3.708531e+01	7.230396e+02
2.020000e-06	5.291758e-06	1.093247e-08	3.650390e+01	7.174604e+02
2.030000e-06	5.205435e-06	1.086068e-08	3.590842e+01	7.116995e+02
2.040000e-06	5.117152e-06	1.074923e-08	3.529942e+01	7.057476e+02
2.050000e-06	5.027176e-06	1.068609e-08	3.467875e+01	6.995963e+02
2.060000e-06	4.935680e-06	1.058700e-08	3.404758e+01	6.932393e+02
2.070000e-06	4.842473e-06	1.046192e-08	3.340462e+01	6.866727e+02
2.080000e-06	4.747388e-06	1.035715e-08	3.274869e+01	6.798951e+02
2.090000e-06	4.650614e-06	1.025508e-08	3.208112e+01	6.729078e+02
2.100000e-06	4.552344e-06	1.017438e-08	3.140323e+01	6.657143e+02
2.110000e-06	4.452640e-06	1.004640e-08	3.071545e+01	6.583198e+02
2.120000e-06	4.351295e-06	9.929751e-09	3.001635e+01	6.507300e+02
2.130000e-06	4.248261e-06	9.802779e-09	2.930559e+01	6.429505e+02
2.140000e-06	4.143700e-06	9.683627e-09	2.858430e+01	6.349851e+02
2.150000e-06	4.037718e-06	9.563416e-09	2.785321e+01	6.268354e+02
2.160000e-06	3.930393e-06	9.444723e-09	2.711285e+01	6.184995e+02
2.170000e-06	3.821635e-06	9.313849e-09	2.636261e+01	6.099719e+02
2.180000e-06	3.711423e-06	9.168778e-09	2.560234e+01	6.012431e+02
2.190000e-06	3.599792e-06	9.032892e-09	2.483229e+01	5.923008e+02
2.200000e-06	3.486809e-06	8.899563e-09	2.405290e+01	5.831303e+02
2.210000e-06	3.372500e-06	8.768455e-09	2.326437e+01	5.737160e+02
2.220000e-06	3.256709e-06	8.609921e-09	2.246561e+01	5.640428e+02
2.230000e-06	3.139424e-06	8.444840e-09	2.165655e+01	5.540977e+02
2.240000e-06	3.020951e-06	8.279606e-09	2.083929e+01	5.438711e+02
2.250000e-06	2.901370e-06	8.128600e-09	2.001439e+01	5.333572e+02
2.260000e-06	2.780621e-06	7.978368e-09	1.918143e+01	5.225546e+02
2.270000e-06	2.658887e-06	7.815438e-09	1.834168e+01	5.114658e+02
2.280000e-06	2.536331e-06	7.638758e-09	1.749626e+01	5.000958e+02
2.290000e-06	2.412958e-06	7.458644e-09	1.664520e+01	4.884507e+02
2.300000e-06	2.288633e-06	7.278607e-09	1.578758e+01	4.765360e+02
2.310000e-06	2.163433e-06	7.096846e-09	1.492391e+01	4.643541e+02
2.320000e-06	2.037521e-06	6.911749e-09	1.405534e+01	4.519032e+02
2.330000e-06	1.910955e-06	6.711581e-09	1.318225e+01	4.391755e+02
2.340000e-06	1.783698e-06	6.504176e-09	1.230441e+01	4.261575e+02
2.350000e-06	1.655785e-06	6.296753e-09	1.142203e+01	4.128295e+02
2.360000e-06	1.527309e-06	6.095337e-09	1.053577e+01	3.991675e+02
2.370000e-06	1.398309e-06	5.888651e-09	9.645892e+00	3.851448e+02
2.380000e-06	1.268828e-06	5.667622e-09	8.752703e+00	3.707341e+02
2.390000e-06	1.138974e-06	5.437009e-09	7.856933e+00	3.559098e+02
2.400000e-06	1.008855e-06	5.202343e-09	6.959341e+00	3.406500e+02
2.410000e-06	8.785125e-07	4.965457e-09	6.060204e+00	3.249375e+02
2.420000e-06	7.479543e-07	4.721971e-09	5.159580e+00	3.087599e+02
2.430000e-06	6.172024e-07	4.467423e-09	4.257620e+00	2.921088e+02
2.440000e-06	4.862749e-07	4.200583e-09	3.354449e+00	2.749778e+02
2.450000e-06	3.551416e-07	3.926173e-09	2.449857e+00	2.573594e+02
2.460000e-06	2.237973e-07	3.649926e-09	1.543811e+00	2.392416e+02
2.470000e-06	9.231024e-08	3.372727e-09	6.367797e-01	2.206053e+02
2.480000e-06	-3.918221e-08	3.088632e-09	-2.702889e-01	2.014211e+02
2.490000e-06	-1.706278e-07	2.786811e-09	-1.177034e+00	1.816485e+02
2.500000e-06	-3.019977e-07	2.468504e-09	-2.083258e+00	1.612361e+02
2.510000e-06	-4.332483e-07	2.140010e-09	-2.988658e+00	1.401243e+02
2.520000e-06	-5.644218e-07	1.803464e-09	-3.893526e+00	1.182498e+02
2.530000e-06	-6.954732e-07	1.459422e-09	-4.797552e+00	9.555208e+01
2.540000e-06	-8.262915e-07	1.103460e-09	-5.699970e+00	7.198067e+01
2.550000e-06	-9.568383e-07	7.340772e-10	-6.600515e+00	4.750383e+01
2.560000e-06	-1.087070e-06	3.528008e-10	-7.498886e+00	2.211629e+01
2.570000e-06	-1.216961e-06	-3.973943e-11	-8.394906e+00	-4.153950e+00
2.580000e-06	-1.346478e-06	-4.462457e-10	-9.288349e+00	-3.124101e+01
2.590000e-06	-1.475592e-06	-8.697716e-10	-1.017901e+01	-5.903922e+01
2.600000e-06	-1.604253e-06	-1.308010e-09	-1.106655e+01	-8.740445e+01
2.610000e-06	-1.732234e-06	-1.754211e-09	-1.194939e+01	-1.161587e+02
2.620000e-06	-1.859447e-06	-2.200501e-09	-1.282694e+01	-1.450980e+02
2.630000e-06	-1.985974e-06	-2.642013e-09	-1.369976e+01	-1.740020e+02
2.640000e-06	-2.111811e-06	-3.079719e-09	-1.456781e+01	-2.026462e+02
2.650000e-06	-2.236855e-06	-3.512228e-09	-1.543040e+01	-2.308140e+02
2.660000e-06	-2.360979e-06	-3.933396e-09	-1.628664e+01	-2.583080e+02
2.670000e-06	-2.484125e-06	-4.335714e-09	-1.713613e+01	-2.849600e+02
2.680000e-06	-2.606327e-06	-4.721641e-09	-1.797911e+01	-3.106387e+02
2.690000e-06	-2.727573e-06	-5.094427e-09	-1.881550e+01	-3.352533e+02
2.700000e-06	-2.847779e-06	-5.452233e-09	-1.964471e+01	-3.587545e+02
2.710000e-06	-2.966904e-06	-5.798104e-09	-2.046646e+01	-3.811322e+02
2.720000e-06	-3.084955e-06	-6.127768e-09	-2.128081e+01	-4.024095e+02
2.730000e-06	-3.201785e-06	-6.436691e-09	-2.208673e+01	-4.226358e+02
2.740000e-06	-3.317233e-06	-6.727868e-09	-2.288312e+01	-4.418781e+02
2.750000e-06	-3.431331e-06	-7.009557e-09	-2.367020e+01	-4.602117e+02
2.760000e-06	-3.544087e-06	-7.283590e-09	-2.444802e+01	-4.777130e+02
2.770000e-06	-3.655405e-06	-7.543514e-09	-2.521592e+01	-4.944521e+02
2.780000e-06	-3.765301e-06	-7.788161e-09	-2.597401e+01	-5.104890e+02
2.790000e-06	-3.873960e-06	-8.019803e-09	-2.672356e+01	-5.258709e+02
2.800000e-06	-3.981422e-06	-8.241442e-09	-2.746487e+01	-5.406327e+02
2.810000e-06	-4.087593e-06	-8.455901e-09	-2.819726e+01	-5.547984e+02
2.820000e-06	-4.192354e-06	-8.664225e-09	-2.891993e+01	-5.683845e+02
2.830000e-06	-4.295510e-06	-8.864471e-09	-2.963153e+01	-5.814034e+02
2.840000e-06	-4.397025e-06	-9.056346e-09	-3.033181e+01	-5.938674e+02
2.850000e-06	-4.496994e-06	-9.241377e-09	-3.102142e+01	-6.057915e+02
2.860000e-06	-4.595431e-06	-9.420000e-09	-3.170046e+01	-6.171951e+02
2.870000e-06	-4.692332e-06	-9.590568e-09	-3.236891e+01	-6.281027e+02
2.880000e-06	-4.787554e-06	-9.749040e-09	-3.302577e+01	-6.385432e+02
2.890000e-06	-4.880952e-06	-9.896484e-09	-3.367005e+01	-6.485475e+02
2.900000e-06	-4.972584e-06	-1.003857e-08	-3.430215e+01	-6.581468e+02
2.910000e-06	-5.062491e-06	-1.017855e-08	-3.492235e+01	-6.673691e+02
2.920000e-06	-5.150564e-06	-1.031481e-08	-3.552991e+01	-6.762370e+02
2.930000e-06	-5.236637e-06	-1.044517e-08	-3.612366e+01	-6.847662e+02
2.940000e-06	-5.320758e-06	-1.056897e-08	-3.670395e+01	-6.929647e+02
