# Temperatura_=_63.34
# Concentracion g/m^3_=_15000.0
# C_Vs_to_Am_M_A/Vsm_=_65563218390.804596
# pendiente_HvsI_1/m_=_3716.3
# ordenada_HvsI_A/m_=_1297.0
# frecuencia_Hz_=_301972.57042715384

Tiempo_(s)	Campo_(V.s)	Magnetizacion_(V.s)	Campo_(kA/m)	Magnetizacion_(A/m)
0.000000e+00	-6.855179e-06	-1.094909e-08	-4.747403e+01	-7.175411e+02
1.000000e-08	-6.851658e-06	-1.094514e-08	-4.744965e+01	-7.172282e+02
2.000000e-08	-6.845888e-06	-1.093930e-08	-4.740969e+01	-7.167545e+02
3.000000e-08	-6.838006e-06	-1.093248e-08	-4.735510e+01	-7.161281e+02
4.000000e-08	-6.827758e-06	-1.092370e-08	-4.728414e+01	-7.153629e+02
5.000000e-08	-6.814946e-06	-1.091037e-08	-4.719541e+01	-7.144771e+02
6.000000e-08	-6.799656e-06	-1.089443e-08	-4.708952e+01	-7.134917e+02
7.000000e-08	-6.782110e-06	-1.087847e-08	-4.696801e+01	-7.124279e+02
8.000000e-08	-6.762406e-06	-1.087209e-08	-4.683156e+01	-7.113047e+02
9.000000e-08	-6.740263e-06	-1.088730e-08	-4.667821e+01	-7.101369e+02
1.000000e-07	-6.715344e-06	-1.086441e-08	-4.650564e+01	-7.089333e+02
1.100000e-07	-6.687715e-06	-1.081656e-08	-4.631430e+01	-7.076955e+02
1.200000e-07	-6.657777e-06	-1.078332e-08	-4.610697e+01	-7.064180e+02
1.300000e-07	-6.625849e-06	-1.073532e-08	-4.588586e+01	-7.050883e+02
1.400000e-07	-6.591986e-06	-1.068066e-08	-4.565135e+01	-7.036885e+02
1.500000e-07	-6.556186e-06	-1.071677e-08	-4.540342e+01	-7.021970e+02
1.600000e-07	-6.518353e-06	-1.072186e-08	-4.514142e+01	-7.005906e+02
1.700000e-07	-6.478430e-06	-1.064054e-08	-4.486494e+01	-6.988462e+02
1.800000e-07	-6.436143e-06	-1.063969e-08	-4.457209e+01	-6.969435e+02
1.900000e-07	-6.391294e-06	-1.058600e-08	-4.426150e+01	-6.948660e+02
2.000000e-07	-6.344097e-06	-1.052423e-08	-4.393465e+01	-6.926022e+02
2.100000e-07	-6.294329e-06	-1.053723e-08	-4.358999e+01	-6.901462e+02
2.200000e-07	-6.241911e-06	-1.051019e-08	-4.322698e+01	-6.874971e+02
2.300000e-07	-6.187107e-06	-1.045023e-08	-4.284745e+01	-6.846591e+02
2.400000e-07	-6.129902e-06	-1.037706e-08	-4.245129e+01	-6.816399e+02
2.500000e-07	-6.070379e-06	-1.033469e-08	-4.203907e+01	-6.784495e+02
2.600000e-07	-6.008684e-06	-1.029366e-08	-4.161182e+01	-6.750990e+02
2.700000e-07	-5.944782e-06	-1.022836e-08	-4.116928e+01	-6.715995e+02
2.800000e-07	-5.878590e-06	-1.018526e-08	-4.071088e+01	-6.679606e+02
2.900000e-07	-5.810132e-06	-1.011721e-08	-4.023679e+01	-6.641897e+02
3.000000e-07	-5.739558e-06	-1.005734e-08	-3.974805e+01	-6.602916e+02
3.100000e-07	-5.666907e-06	-1.001625e-08	-3.924491e+01	-6.562683e+02
3.200000e-07	-5.592029e-06	-9.958142e-09	-3.872636e+01	-6.521187e+02
3.300000e-07	-5.514811e-06	-9.883989e-09	-3.819161e+01	-6.478393e+02
3.400000e-07	-5.435381e-06	-9.793279e-09	-3.764153e+01	-6.434245e+02
3.500000e-07	-5.353961e-06	-9.726135e-09	-3.707768e+01	-6.388669e+02
3.600000e-07	-5.270731e-06	-9.673935e-09	-3.650129e+01	-6.341585e+02
3.700000e-07	-5.185717e-06	-9.621354e-09	-3.591254e+01	-6.292910e+02
3.800000e-07	-5.098953e-06	-9.545370e-09	-3.531168e+01	-6.242563e+02
3.900000e-07	-5.010435e-06	-9.446529e-09	-3.469867e+01	-6.190475e+02
4.000000e-07	-4.920061e-06	-9.345110e-09	-3.407280e+01	-6.136590e+02
4.100000e-07	-4.827919e-06	-9.255882e-09	-3.343469e+01	-6.080868e+02
4.200000e-07	-4.734220e-06	-9.195554e-09	-3.278580e+01	-6.023292e+02
4.300000e-07	-4.638943e-06	-9.119455e-09	-3.212598e+01	-5.963858e+02
4.400000e-07	-4.541888e-06	-9.015872e-09	-3.145385e+01	-5.902584e+02
4.500000e-07	-4.443093e-06	-8.912335e-09	-3.076967e+01	-5.839496e+02
4.600000e-07	-4.342750e-06	-8.807885e-09	-3.007476e+01	-5.774628e+02
4.700000e-07	-4.240970e-06	-8.702719e-09	-2.936990e+01	-5.708015e+02
4.800000e-07	-4.137751e-06	-8.605930e-09	-2.865509e+01	-5.639680e+02
4.900000e-07	-4.033010e-06	-8.504273e-09	-2.792972e+01	-5.569635e+02
5.000000e-07	-3.926718e-06	-8.385493e-09	-2.719362e+01	-5.497867e+02
5.100000e-07	-3.818895e-06	-8.270920e-09	-2.644692e+01	-5.424340e+02
5.200000e-07	-3.709705e-06	-8.166162e-09	-2.569075e+01	-5.348992e+02
5.300000e-07	-3.599259e-06	-8.052332e-09	-2.492588e+01	-5.271738e+02
5.400000e-07	-3.487503e-06	-7.920606e-09	-2.415193e+01	-5.192473e+02
5.500000e-07	-3.374313e-06	-7.787234e-09	-2.336806e+01	-5.111084e+02
5.600000e-07	-3.259639e-06	-7.661805e-09	-2.257391e+01	-5.027457e+02
5.700000e-07	-3.143589e-06	-7.533878e-09	-2.177024e+01	-4.941487e+02
5.800000e-07	-3.026281e-06	-7.406053e-09	-2.095784e+01	-4.853090e+02
5.900000e-07	-2.907877e-06	-7.272474e-09	-2.013786e+01	-4.762203e+02
6.000000e-07	-2.788468e-06	-7.121809e-09	-1.931092e+01	-4.668792e+02
6.100000e-07	-2.668064e-06	-6.963329e-09	-1.847709e+01	-4.572849e+02
6.200000e-07	-2.546629e-06	-6.813789e-09	-1.763612e+01	-4.474384e+02
6.300000e-07	-2.424171e-06	-6.670255e-09	-1.678806e+01	-4.373415e+02
6.400000e-07	-2.300759e-06	-6.515764e-09	-1.593340e+01	-4.269959e+02
6.500000e-07	-2.176500e-06	-6.348339e-09	-1.507287e+01	-4.164013e+02
6.600000e-07	-2.051538e-06	-6.177443e-09	-1.420747e+01	-4.055548e+02
6.700000e-07	-1.925989e-06	-6.004125e-09	-1.333801e+01	-3.944496e+02
6.800000e-07	-1.799814e-06	-5.827041e-09	-1.246422e+01	-3.830750e+02
6.900000e-07	-1.672955e-06	-5.651937e-09	-1.158569e+01	-3.714165e+02
7.000000e-07	-1.545541e-06	-5.472885e-09	-1.070330e+01	-3.594563e+02
7.100000e-07	-1.417586e-06	-5.284180e-09	-9.817179e+00	-3.471753e+02
7.200000e-07	-1.289121e-06	-5.091761e-09	-8.927526e+00	-3.345541e+02
7.300000e-07	-1.160273e-06	-4.895502e-09	-8.035215e+00	-3.215746e+02
7.400000e-07	-1.031057e-06	-4.690990e-09	-7.140356e+00	-3.082219e+02
7.500000e-07	-9.014222e-07	-4.478141e-09	-6.242601e+00	-2.944846e+02
7.600000e-07	-7.714130e-07	-4.259232e-09	-5.342251e+00	-2.803552e+02
7.700000e-07	-6.411360e-07	-4.035866e-09	-4.440046e+00	-2.658291e+02
7.800000e-07	-5.106567e-07	-3.809792e-09	-3.536440e+00	-2.509032e+02
7.900000e-07	-3.800185e-07	-3.581616e-09	-2.631735e+00	-2.355734e+02
8.000000e-07	-2.492644e-07	-3.346265e-09	-1.726226e+00	-2.198321e+02
8.100000e-07	-1.183973e-07	-3.099853e-09	-8.199343e-01	-2.036651e+02
8.200000e-07	1.257244e-08	-2.845553e-09	8.706766e-02	-1.870496e+02
8.300000e-07	1.435603e-07	-2.584793e-09	9.941954e-01	-1.699528e+02
8.400000e-07	2.744877e-07	-2.315520e-09	1.900904e+00	-1.523318e+02
8.500000e-07	4.053279e-07	-2.037592e-09	2.807009e+00	-1.341352e+02
8.600000e-07	5.360719e-07	-1.747668e-09	3.712448e+00	-1.153065e+02
8.700000e-07	6.667110e-07	-1.444990e-09	4.617161e+00	-9.578882e+01
8.800000e-07	7.972079e-07	-1.133193e-09	5.520888e+00	-7.553106e+01
8.900000e-07	9.274743e-07	-8.155351e-10	6.423019e+00	-5.449476e+01
9.000000e-07	1.057399e-06	-4.897511e-10	7.322786e+00	-3.266092e+01
9.100000e-07	1.186874e-06	-1.491767e-10	8.219433e+00	-1.003622e+01
9.200000e-07	1.315850e-06	2.082691e-10	9.112630e+00	1.334223e+01
9.300000e-07	1.444289e-06	5.784319e-10	1.000211e+01	3.740417e+01
9.400000e-07	1.572218e-06	9.566545e-10	1.088805e+01	6.204593e+01
9.500000e-07	1.699678e-06	1.341910e-09	1.177075e+01	8.713290e+01
9.600000e-07	1.826548e-06	1.731457e-09	1.264936e+01	1.125046e+02
9.700000e-07	1.952634e-06	2.123739e-09	1.352254e+01	1.379818e+02
9.800000e-07	2.077967e-06	2.515050e-09	1.439050e+01	1.633759e+02
9.900000e-07	2.202708e-06	2.898991e-09	1.525437e+01	1.884981e+02
1.000000e-06	2.326797e-06	3.272842e-09	1.611372e+01	2.131699e+02
1.010000e-06	2.450022e-06	3.636090e-09	1.696709e+01	2.372314e+02
1.020000e-06	2.572247e-06	3.990942e-09	1.781353e+01	2.605490e+02
1.030000e-06	2.693468e-06	4.333758e-09	1.865302e+01	2.830202e+02
1.040000e-06	2.813674e-06	4.660101e-09	1.948548e+01	3.045760e+02
1.050000e-06	2.932836e-06	4.972264e-09	2.031071e+01	3.251804e+02
1.060000e-06	3.050884e-06	5.271543e-09	2.112823e+01	3.448281e+02
1.070000e-06	3.167840e-06	5.557108e-09	2.193818e+01	3.635394e+02
1.080000e-06	3.283646e-06	5.828194e-09	2.274017e+01	3.813542e+02
1.090000e-06	3.398013e-06	6.085600e-09	2.353219e+01	3.983252e+02
1.100000e-06	3.510941e-06	6.330112e-09	2.431425e+01	4.145113e+02
1.110000e-06	3.622593e-06	6.562190e-09	2.508747e+01	4.299715e+02
1.120000e-06	3.733027e-06	6.785625e-09	2.585226e+01	4.447606e+02
1.130000e-06	3.842292e-06	7.002746e-09	2.660895e+01	4.589260e+02
1.140000e-06	3.950387e-06	7.211988e-09	2.735754e+01	4.725062e+02
1.150000e-06	4.057102e-06	7.411678e-09	2.809656e+01	4.855311e+02
1.160000e-06	4.162266e-06	7.600417e-09	2.882486e+01	4.980231e+02
1.170000e-06	4.265899e-06	7.779692e-09	2.954254e+01	5.099994e+02
1.180000e-06	4.368019e-06	7.950566e-09	3.024975e+01	5.214743e+02
1.190000e-06	4.468687e-06	8.113479e-09	3.094691e+01	5.324615e+02
1.200000e-06	4.567759e-06	8.271248e-09	3.163301e+01	5.429759e+02
1.210000e-06	4.665064e-06	8.424638e-09	3.230687e+01	5.530341e+02
1.220000e-06	4.760591e-06	8.573963e-09	3.296843e+01	5.626554e+02
1.230000e-06	4.854405e-06	8.718888e-09	3.361811e+01	5.718604e+02
1.240000e-06	4.946631e-06	8.858303e-09	3.425681e+01	5.806700e+02
1.250000e-06	5.037139e-06	8.990130e-09	3.488360e+01	5.891045e+02
1.260000e-06	5.125732e-06	9.115191e-09	3.549713e+01	5.971814e+02
1.270000e-06	5.212473e-06	9.232776e-09	3.609784e+01	6.049152e+02
1.280000e-06	5.297413e-06	9.344504e-09	3.668607e+01	6.123161e+02
1.290000e-06	5.380501e-06	9.453347e-09	3.726148e+01	6.193908e+02
1.300000e-06	5.461613e-06	9.556220e-09	3.782320e+01	6.261435e+02
1.310000e-06	5.540726e-06	9.652382e-09	3.837108e+01	6.325764e+02
1.320000e-06	5.617834e-06	9.743346e-09	3.890508e+01	6.386924e+02
1.330000e-06	5.692772e-06	9.831957e-09	3.942404e+01	6.444962e+02
1.340000e-06	5.765457e-06	9.917550e-09	3.992740e+01	6.499956e+02
1.350000e-06	5.836045e-06	9.997373e-09	4.041624e+01	6.552027e+02
1.360000e-06	5.904627e-06	1.007159e-08	4.089120e+01	6.601336e+02
1.370000e-06	5.971057e-06	1.014253e-08	4.135124e+01	6.648081e+02
1.380000e-06	6.035285e-06	1.021113e-08	4.179604e+01	6.692480e+02
1.390000e-06	6.097466e-06	1.027539e-08	4.222666e+01	6.734756e+02
1.400000e-06	6.157671e-06	1.033639e-08	4.264359e+01	6.775113e+02
1.410000e-06	6.215691e-06	1.039614e-08	4.304540e+01	6.813720e+02
1.420000e-06	6.271495e-06	1.045323e-08	4.343186e+01	6.850688e+02
1.430000e-06	6.325066e-06	1.050783e-08	4.380285e+01	6.886071e+02
1.440000e-06	6.376063e-06	1.056119e-08	4.415602e+01	6.919854e+02
1.450000e-06	6.424421e-06	1.061267e-08	4.449091e+01	6.951968e+02
1.460000e-06	6.470451e-06	1.065878e-08	4.480968e+01	6.982301e+02
1.470000e-06	6.514376e-06	1.069944e-08	4.511388e+01	7.010719e+02
1.480000e-06	6.555973e-06	1.073746e-08	4.540195e+01	7.037093e+02
1.490000e-06	6.595111e-06	1.077298e-08	4.567299e+01	7.061318e+02
1.500000e-06	6.632006e-06	1.080446e-08	4.592850e+01	7.083334e+02
1.510000e-06	6.666644e-06	1.083394e-08	4.616838e+01	7.103140e+02
1.520000e-06	6.698833e-06	1.086171e-08	4.639129e+01	7.120797e+02
1.530000e-06	6.728643e-06	1.088583e-08	4.659774e+01	7.136425e+02
1.540000e-06	6.756166e-06	1.090734e-08	4.678834e+01	7.150188e+02
1.550000e-06	6.781185e-06	1.092566e-08	4.696161e+01	7.162276e+02
1.560000e-06	6.803687e-06	1.094079e-08	4.711744e+01	7.172885e+02
1.570000e-06	6.823904e-06	1.095277e-08	4.725745e+01	7.182188e+02
1.580000e-06	6.841756e-06	1.096214e-08	4.738107e+01	7.190321e+02
1.590000e-06	6.857077e-06	1.097139e-08	4.748718e+01	7.197364e+02
1.600000e-06	6.869893e-06	1.098066e-08	4.757593e+01	7.203337e+02
1.610000e-06	6.879974e-06	1.098808e-08	4.764574e+01	7.208202e+02
1.620000e-06	6.887328e-06	1.099420e-08	4.769668e+01	7.211874e+02
1.630000e-06	6.892317e-06	1.099944e-08	4.773122e+01	7.214238e+02
1.640000e-06	6.894953e-06	1.100320e-08	4.774948e+01	7.215172e+02
1.650000e-06	6.895136e-06	1.100291e-08	4.775075e+01	7.214568e+02
1.660000e-06	6.892959e-06	1.099568e-08	4.773567e+01	7.212357e+02
1.670000e-06	6.888546e-06	1.098535e-08	4.770511e+01	7.208522e+02
1.680000e-06	6.881819e-06	1.097653e-08	4.765852e+01	7.203106e+02
1.690000e-06	6.872822e-06	1.096838e-08	4.759622e+01	7.196216e+02
1.700000e-06	6.861611e-06	1.095815e-08	4.751858e+01	7.188011e+02
1.710000e-06	6.848008e-06	1.094667e-08	4.742437e+01	7.178689e+02
1.720000e-06	6.832065e-06	1.093534e-08	4.731397e+01	7.168462e+02
1.730000e-06	6.813991e-06	1.090939e-08	4.718880e+01	7.157536e+02
1.740000e-06	6.793479e-06	1.085234e-08	4.704675e+01	7.146087e+02
1.750000e-06	6.769792e-06	1.083807e-08	4.688271e+01	7.134237e+02
1.760000e-06	6.742981e-06	1.084040e-08	4.669703e+01	7.122046e+02
1.770000e-06	6.713724e-06	1.082306e-08	4.649442e+01	7.109497e+02
1.780000e-06	6.682448e-06	1.084419e-08	4.627782e+01	7.096506e+02
1.790000e-06	6.649706e-06	1.082895e-08	4.605108e+01	7.082922e+02
1.800000e-06	6.615348e-06	1.074081e-08	4.581313e+01	7.068548e+02
1.810000e-06	6.578469e-06	1.074782e-08	4.555774e+01	7.053157e+02
1.820000e-06	6.539157e-06	1.073330e-08	4.528549e+01	7.036517e+02
1.830000e-06	6.497816e-06	1.070431e-08	4.499920e+01	7.018407e+02
1.840000e-06	6.454303e-06	1.073588e-08	4.469785e+01	6.998637e+02
1.850000e-06	6.408541e-06	1.064881e-08	4.438094e+01	6.977063e+02
1.860000e-06	6.360373e-06	1.058678e-08	4.404736e+01	6.953594e+02
1.870000e-06	6.309852e-06	1.053317e-08	4.369749e+01	6.928193e+02
1.880000e-06	6.256914e-06	1.047925e-08	4.333088e+01	6.900874e+02
1.890000e-06	6.201282e-06	1.049133e-08	4.294561e+01	6.871695e+02
1.900000e-06	6.143252e-06	1.043229e-08	4.254374e+01	6.840744e+02
1.910000e-06	6.082937e-06	1.040544e-08	4.212604e+01	6.808129e+02
1.920000e-06	6.020260e-06	1.033021e-08	4.169198e+01	6.773961e+02
1.930000e-06	5.955385e-06	1.023105e-08	4.124271e+01	6.738346e+02
1.940000e-06	5.888384e-06	1.023281e-08	4.077871e+01	6.701372e+02
1.950000e-06	5.819235e-06	1.015840e-08	4.029983e+01	6.663103e+02
1.960000e-06	5.747705e-06	1.009834e-08	3.980447e+01	6.623573e+02
1.970000e-06	5.673905e-06	1.002327e-08	3.929338e+01	6.582791e+02
1.980000e-06	5.598005e-06	9.962230e-09	3.876775e+01	6.540733e+02
1.990000e-06	5.519860e-06	9.933335e-09	3.822658e+01	6.497355e+02
2.000000e-06	5.439581e-06	9.849370e-09	3.767062e+01	6.452593e+02
2.010000e-06	5.357471e-06	9.773743e-09	3.710199e+01	6.406370e+02
2.020000e-06	5.273628e-06	9.669864e-09	3.652135e+01	6.358602e+02
2.030000e-06	5.187746e-06	9.594751e-09	3.592659e+01	6.309209e+02
2.040000e-06	5.099883e-06	9.530815e-09	3.531812e+01	6.258112e+02
2.050000e-06	5.010328e-06	9.476889e-09	3.469792e+01	6.205248e+02
2.060000e-06	4.919183e-06	9.404511e-09	3.406672e+01	6.150568e+02
2.070000e-06	4.826376e-06	9.280672e-09	3.342401e+01	6.094042e+02
2.080000e-06	4.731735e-06	9.176191e-09	3.276859e+01	6.035657e+02
2.090000e-06	4.635403e-06	9.073368e-09	3.210146e+01	5.975421e+02
2.100000e-06	4.537540e-06	9.003545e-09	3.142374e+01	5.913354e+02
2.110000e-06	4.438200e-06	8.931433e-09	3.073578e+01	5.849487e+02
2.120000e-06	4.337316e-06	8.833517e-09	3.003713e+01	5.783856e+02
2.130000e-06	4.234702e-06	8.716122e-09	2.932650e+01	5.716492e+02
2.140000e-06	4.130405e-06	8.601235e-09	2.860421e+01	5.647412e+02
2.150000e-06	4.024693e-06	8.496290e-09	2.787212e+01	5.576620e+02
2.160000e-06	3.917734e-06	8.388998e-09	2.713141e+01	5.504093e+02
2.170000e-06	3.809446e-06	8.280843e-09	2.638148e+01	5.429784e+02
2.180000e-06	3.699775e-06	8.158774e-09	2.562198e+01	5.353619e+02
2.190000e-06	3.588655e-06	8.037667e-09	2.485244e+01	5.275505e+02
2.200000e-06	3.476110e-06	7.913050e-09	2.407304e+01	5.195332e+02
2.210000e-06	3.362240e-06	7.798766e-09	2.328446e+01	5.112987e+02
2.220000e-06	3.247061e-06	7.670831e-09	2.248681e+01	5.028356e+02
2.230000e-06	3.130537e-06	7.523356e-09	2.167985e+01	4.941344e+02
2.240000e-06	3.012708e-06	7.378948e-09	2.086385e+01	4.851874e+02
2.250000e-06	2.893626e-06	7.249554e-09	2.003917e+01	4.759896e+02
2.260000e-06	2.773367e-06	7.123281e-09	1.920634e+01	4.665389e+02
2.270000e-06	2.652101e-06	6.979554e-09	1.836654e+01	4.568351e+02
2.280000e-06	2.529960e-06	6.822181e-09	1.752068e+01	4.468800e+02
2.290000e-06	2.407018e-06	6.654744e-09	1.666927e+01	4.366752e+02
2.300000e-06	2.283240e-06	6.487705e-09	1.581208e+01	4.262219e+02
2.310000e-06	2.158637e-06	6.330147e-09	1.494917e+01	4.155188e+02
2.320000e-06	2.033318e-06	6.180839e-09	1.408130e+01	4.045614e+02
2.330000e-06	1.907254e-06	6.015763e-09	1.320827e+01	3.933411e+02
2.340000e-06	1.780438e-06	5.829900e-09	1.233003e+01	3.818457e+02
2.350000e-06	1.652991e-06	5.640077e-09	1.144743e+01	3.700590e+02
2.360000e-06	1.525029e-06	5.456667e-09	1.056126e+01	3.579626e+02
2.370000e-06	1.396594e-06	5.275648e-09	9.671803e+00	3.455370e+02
2.380000e-06	1.267645e-06	5.086789e-09	8.778798e+00	3.327632e+02
2.390000e-06	1.138298e-06	4.885551e-09	7.883029e+00	3.196243e+02
2.400000e-06	1.008633e-06	4.672542e-09	6.985063e+00	3.061068e+02
2.410000e-06	8.787046e-07	4.455613e-09	6.085276e+00	2.922010e+02
2.420000e-06	7.485655e-07	4.240831e-09	5.184026e+00	2.779008e+02
2.430000e-06	6.181770e-07	4.022694e-09	4.281049e+00	2.632026e+02
2.440000e-06	4.876238e-07	3.791017e-09	3.376932e+00	2.481031e+02
2.450000e-06	3.569342e-07	3.547067e-09	2.471869e+00	2.325971e+02
2.460000e-06	2.260253e-07	3.301418e-09	1.565288e+00	2.166744e+02
2.470000e-06	9.498215e-08	3.056944e-09	6.577780e-01	2.003174e+02
2.480000e-06	-3.611745e-08	2.809084e-09	-2.501235e-01	1.834992e+02
2.490000e-06	-1.672743e-07	2.547553e-09	-1.158421e+00	1.661824e+02
2.500000e-06	-2.983248e-07	2.266743e-09	-2.065983e+00	1.483202e+02
2.510000e-06	-4.291841e-07	1.974873e-09	-2.972220e+00	1.298586e+02
2.520000e-06	-5.599466e-07	1.680818e-09	-3.877787e+00	1.107403e+02
2.530000e-06	-6.905547e-07	1.384770e-09	-4.782285e+00	9.090999e+01
2.540000e-06	-8.209110e-07	1.077329e-09	-5.685039e+00	7.032117e+01
2.550000e-06	-9.509782e-07	7.513574e-10	-6.585790e+00	4.894289e+01
2.560000e-06	-1.080721e-06	4.110673e-10	-7.484296e+00	2.676647e+01
2.570000e-06	-1.210181e-06	6.177806e-11	-8.380839e+00	3.811151e+00
2.580000e-06	-1.339314e-06	-2.941944e-10	-9.275127e+00	-1.987194e+01
2.590000e-06	-1.467987e-06	-6.590890e-10	-1.016622e+01	-4.419809e+01
2.600000e-06	-1.596111e-06	-1.038856e-09	-1.105351e+01	-6.904993e+01
2.610000e-06	-1.723638e-06	-1.428516e-09	-1.193667e+01	-9.428098e+01
2.620000e-06	-1.850489e-06	-1.818460e-09	-1.281515e+01	-1.197217e+02
2.630000e-06	-1.976533e-06	-2.202795e-09	-1.368804e+01	-1.451878e+02
2.640000e-06	-2.101795e-06	-2.582289e-09	-1.455552e+01	-1.704892e+02
2.650000e-06	-2.226269e-06	-2.962144e-09	-1.541753e+01	-1.954405e+02
2.660000e-06	-2.349859e-06	-3.340092e-09	-1.627343e+01	-2.198701e+02
2.670000e-06	-2.472515e-06	-3.708295e-09	-1.712286e+01	-2.436286e+02
2.680000e-06	-2.594250e-06	-4.059767e-09	-1.796591e+01	-2.665952e+02
2.690000e-06	-2.715085e-06	-4.392652e-09	-1.880273e+01	-2.886817e+02
2.700000e-06	-2.834901e-06	-4.710393e-09	-1.963249e+01	-3.098334e+02
2.710000e-06	-2.953562e-06	-5.016070e-09	-2.045424e+01	-3.300280e+02
2.720000e-06	-3.071040e-06	-5.311037e-09	-2.126781e+01	-3.492717e+02
2.730000e-06	-3.187331e-06	-5.592796e-09	-2.207316e+01	-3.675942e+02
2.740000e-06	-3.302363e-06	-5.858288e-09	-2.286979e+01	-3.850415e+02
2.750000e-06	-3.416033e-06	-6.114146e-09	-2.365698e+01	-4.016699e+02
2.760000e-06	-3.528242e-06	-6.362989e-09	-2.443407e+01	-4.175389e+02
2.770000e-06	-3.639016e-06	-6.601007e-09	-2.520121e+01	-4.327063e+02
2.780000e-06	-3.748541e-06	-6.825766e-09	-2.595970e+01	-4.472240e+02
2.790000e-06	-3.856940e-06	-7.035978e-09	-2.671039e+01	-4.611356e+02
2.800000e-06	-3.964122e-06	-7.236025e-09	-2.745265e+01	-4.744757e+02
2.810000e-06	-4.069985e-06	-7.430401e-09	-2.818578e+01	-4.872709e+02
2.820000e-06	-4.174436e-06	-7.621440e-09	-2.890914e+01	-4.995412e+02
2.830000e-06	-4.277210e-06	-7.804145e-09	-2.962088e+01	-5.113021e+02
2.840000e-06	-4.378275e-06	-7.976198e-09	-3.032078e+01	-5.225674e+02
2.850000e-06	-4.477830e-06	-8.140938e-09	-3.101023e+01	-5.333512e+02
2.860000e-06	-4.575933e-06	-8.299985e-09	-3.168962e+01	-5.436690e+02
2.870000e-06	-4.672535e-06	-8.453343e-09	-3.235862e+01	-5.535387e+02
2.880000e-06	-4.767457e-06	-8.596689e-09	-3.301598e+01	-5.629801e+02
2.890000e-06	-4.860602e-06	-8.729614e-09	-3.366103e+01	-5.720142e+02
2.900000e-06	-4.952033e-06	-8.855167e-09	-3.429422e+01	-5.806619e+02
2.910000e-06	-5.041752e-06	-8.977116e-09	-3.491555e+01	-5.889423e+02
2.920000e-06	-5.129618e-06	-9.098511e-09	-3.552404e+01	-5.968717e+02
2.930000e-06	-5.215446e-06	-9.218964e-09	-3.611843e+01	-6.044629e+02
2.940000e-06	-5.299325e-06	-9.332648e-09	-3.669931e+01	-6.117245e+02
