# Temperatura_=_80.56
# Concentracion g/m^3_=_15000.0
# C_Vs_to_Am_M_A/Vsm_=_65563218390.804596
# pendiente_HvsI_1/m_=_3716.3
# ordenada_HvsI_A/m_=_1297.0
# frecuencia_Hz_=_301976.8085948437

Tiempo_(s)	Campo_(V.s)	Magnetizacion_(V.s)	Campo_(kA/m)	Magnetizacion_(A/m)
0.000000e+00	-6.870280e-06	-1.268482e-08	-4.746914e+01	-8.311557e+02
1.000000e-08	-6.866678e-06	-1.267966e-08	-4.744425e+01	-8.307728e+02
2.000000e-08	-6.860871e-06	-1.267353e-08	-4.740412e+01	-8.301932e+02
3.000000e-08	-6.852899e-06	-1.266559e-08	-4.734904e+01	-8.294238e+02
4.000000e-08	-6.842547e-06	-1.265490e-08	-4.727752e+01	-8.284787e+02
5.000000e-08	-6.829619e-06	-1.264026e-08	-4.718819e+01	-8.273785e+02
6.000000e-08	-6.814212e-06	-1.262171e-08	-4.708174e+01	-8.261483e+02
7.000000e-08	-6.796574e-06	-1.260702e-08	-4.695987e+01	-8.248146e+02
8.000000e-08	-6.776783e-06	-1.259604e-08	-4.682313e+01	-8.234028e+02
9.000000e-08	-6.754520e-06	-1.257595e-08	-4.666931e+01	-8.219342e+02
1.000000e-07	-6.729473e-06	-1.255157e-08	-4.649625e+01	-8.204234e+02
1.100000e-07	-6.701767e-06	-1.251809e-08	-4.630482e+01	-8.188766e+02
1.200000e-07	-6.671726e-06	-1.248273e-08	-4.609726e+01	-8.172906e+02
1.300000e-07	-6.639664e-06	-1.244300e-08	-4.587573e+01	-8.156534e+02
1.400000e-07	-6.605690e-06	-1.240884e-08	-4.564099e+01	-8.139451e+02
1.500000e-07	-6.569731e-06	-1.236873e-08	-4.539253e+01	-8.121398e+02
1.600000e-07	-6.531761e-06	-1.235227e-08	-4.513019e+01	-8.102081e+02
1.700000e-07	-6.491767e-06	-1.232163e-08	-4.485386e+01	-8.081198e+02
1.800000e-07	-6.449398e-06	-1.226579e-08	-4.456112e+01	-8.058469e+02
1.900000e-07	-6.404458e-06	-1.224805e-08	-4.425061e+01	-8.033653e+02
2.000000e-07	-6.357142e-06	-1.218908e-08	-4.392368e+01	-8.006570e+02
2.100000e-07	-6.307266e-06	-1.217513e-08	-4.357907e+01	-7.977112e+02
2.200000e-07	-6.254695e-06	-1.217703e-08	-4.321585e+01	-7.945240e+02
2.300000e-07	-6.199632e-06	-1.206827e-08	-4.283539e+01	-7.910985e+02
2.400000e-07	-6.142177e-06	-1.197138e-08	-4.243842e+01	-7.874435e+02
2.500000e-07	-6.082474e-06	-1.192026e-08	-4.202591e+01	-7.835719e+02
2.600000e-07	-6.020608e-06	-1.185428e-08	-4.159845e+01	-7.794991e+02
2.700000e-07	-5.956536e-06	-1.180495e-08	-4.115576e+01	-7.752410e+02
2.800000e-07	-5.890190e-06	-1.176469e-08	-4.069735e+01	-7.708128e+02
2.900000e-07	-5.821613e-06	-1.167123e-08	-4.022353e+01	-7.662268e+02
3.000000e-07	-5.750960e-06	-1.156755e-08	-3.973536e+01	-7.614924e+02
3.100000e-07	-5.678096e-06	-1.153233e-08	-3.923192e+01	-7.566148e+02
3.200000e-07	-5.602897e-06	-1.147720e-08	-3.871235e+01	-7.515950e+02
3.300000e-07	-5.525439e-06	-1.138351e-08	-3.817717e+01	-7.464303e+02
3.400000e-07	-5.445754e-06	-1.129908e-08	-3.762660e+01	-7.411146e+02
3.500000e-07	-5.364060e-06	-1.120493e-08	-3.706214e+01	-7.356392e+02
3.600000e-07	-5.280605e-06	-1.112621e-08	-3.648552e+01	-7.299937e+02
3.700000e-07	-5.195419e-06	-1.105305e-08	-3.589694e+01	-7.241673e+02
3.800000e-07	-5.108488e-06	-1.096680e-08	-3.529631e+01	-7.181494e+02
3.900000e-07	-5.019757e-06	-1.085948e-08	-3.468323e+01	-7.119306e+02
4.000000e-07	-4.929182e-06	-1.074020e-08	-3.405742e+01	-7.055034e+02
4.100000e-07	-4.836837e-06	-1.063966e-08	-3.341937e+01	-6.988630e+02
4.200000e-07	-4.742872e-06	-1.056101e-08	-3.277014e+01	-6.920069e+02
4.300000e-07	-4.647261e-06	-1.046360e-08	-3.210953e+01	-6.849355e+02
4.400000e-07	-4.549902e-06	-1.033206e-08	-3.143685e+01	-6.776513e+02
4.500000e-07	-4.450825e-06	-1.020773e-08	-3.075229e+01	-6.701585e+02
4.600000e-07	-4.350202e-06	-1.009521e-08	-3.005705e+01	-6.624622e+02
4.700000e-07	-4.248129e-06	-9.981954e-09	-2.935179e+01	-6.545674e+02
4.800000e-07	-4.144582e-06	-9.873736e-09	-2.863634e+01	-6.464776e+02
4.900000e-07	-4.039549e-06	-9.749784e-09	-2.791064e+01	-6.381946e+02
5.000000e-07	-3.932955e-06	-9.600644e-09	-2.717414e+01	-6.297169e+02
5.100000e-07	-3.824872e-06	-9.457542e-09	-2.642736e+01	-6.210400e+02
5.200000e-07	-3.715499e-06	-9.335094e-09	-2.567166e+01	-6.121557e+02
5.300000e-07	-3.604856e-06	-9.205592e-09	-2.490719e+01	-6.030531e+02
5.400000e-07	-3.492802e-06	-9.054893e-09	-2.413297e+01	-5.937188e+02
5.500000e-07	-3.379304e-06	-8.897692e-09	-2.334877e+01	-5.841384e+02
5.600000e-07	-3.264302e-06	-8.745097e-09	-2.255419e+01	-5.742978e+02
5.700000e-07	-3.147885e-06	-8.596379e-09	-2.174982e+01	-5.641844e+02
5.800000e-07	-3.030323e-06	-8.448569e-09	-2.093755e+01	-5.537885e+02
5.900000e-07	-2.911704e-06	-8.293055e-09	-2.011797e+01	-5.431039e+02
6.000000e-07	-2.791988e-06	-8.119336e-09	-1.929080e+01	-5.321284e+02
6.100000e-07	-2.671215e-06	-7.935295e-09	-1.845634e+01	-5.208637e+02
6.200000e-07	-2.549457e-06	-7.757450e-09	-1.761508e+01	-5.093142e+02
6.300000e-07	-2.426677e-06	-7.584905e-09	-1.676675e+01	-4.974860e+02
6.400000e-07	-2.302960e-06	-7.400594e-09	-1.591195e+01	-4.853846e+02
6.500000e-07	-2.178460e-06	-7.203710e-09	-1.505173e+01	-4.730138e+02
6.600000e-07	-2.053243e-06	-7.007735e-09	-1.418656e+01	-4.603733e+02
6.700000e-07	-1.927378e-06	-6.812937e-09	-1.331692e+01	-4.474576e+02
6.800000e-07	-1.800905e-06	-6.615070e-09	-1.244308e+01	-4.342553e+02
6.900000e-07	-1.673743e-06	-6.413257e-09	-1.156447e+01	-4.207494e+02
7.000000e-07	-1.545922e-06	-6.199969e-09	-1.068131e+01	-4.069175e+02
7.100000e-07	-1.417631e-06	-5.975239e-09	-9.794904e+00	-3.927339e+02
7.200000e-07	-1.288925e-06	-5.749255e-09	-8.905629e+00	-3.781715e+02
7.300000e-07	-1.159776e-06	-5.523602e-09	-8.013290e+00	-3.632036e+02
7.400000e-07	-1.030262e-06	-5.291932e-09	-7.118438e+00	-3.478065e+02
7.500000e-07	-9.004272e-07	-5.049795e-09	-6.221362e+00	-3.319604e+02
7.600000e-07	-7.702460e-07	-4.798026e-09	-5.321896e+00	-3.156499e+02
7.700000e-07	-6.397540e-07	-4.543081e-09	-4.420281e+00	-2.988641e+02
7.800000e-07	-5.089874e-07	-4.285819e-09	-3.516769e+00	-2.815946e+02
7.900000e-07	-3.779882e-07	-4.022540e-09	-2.611651e+00	-2.638331e+02
8.000000e-07	-2.468413e-07	-3.748229e-09	-1.705511e+00	-2.455685e+02
8.100000e-07	-1.155690e-07	-3.458253e-09	-7.985061e-01	-2.267836e+02
8.200000e-07	1.579939e-08	-3.156977e-09	1.091634e-01	-2.074525e+02
8.300000e-07	1.471816e-07	-2.849065e-09	1.016928e+00	-1.875386e+02
8.400000e-07	2.785361e-07	-2.534891e-09	1.924502e+00	-1.669947e+02
8.500000e-07	4.098464e-07	-2.211492e-09	2.831770e+00	-1.457644e+02
8.600000e-07	5.410679e-07	-1.874933e-09	3.738425e+00	-1.237861e+02
8.700000e-07	6.721126e-07	-1.525386e-09	4.643858e+00	-1.009980e+02
8.800000e-07	8.029327e-07	-1.164177e-09	5.547739e+00	-7.734557e+01
8.900000e-07	9.334721e-07	-7.918620e-10	6.449681e+00	-5.278968e+01
9.000000e-07	1.063625e-06	-4.068543e-10	7.348951e+00	-2.731432e+01
9.100000e-07	1.193305e-06	-7.469875e-12	8.244959e+00	-9.341544e-01
9.200000e-07	1.322524e-06	4.051118e-10	9.137775e+00	2.629999e+01
9.300000e-07	1.451316e-06	8.314963e-10	1.002764e+01	5.429793e+01
9.400000e-07	1.579605e-06	1.269775e-09	1.091403e+01	8.293008e+01
9.500000e-07	1.707280e-06	1.716017e-09	1.179619e+01	1.120306e+02
9.600000e-07	1.834290e-06	2.169318e-09	1.267374e+01	1.414037e+02
9.700000e-07	1.960652e-06	2.624139e-09	1.354682e+01	1.708329e+02
9.800000e-07	2.086357e-06	3.075870e-09	1.441536e+01	2.000922e+02
9.900000e-07	2.211341e-06	3.516888e-09	1.527892e+01	2.289578e+02
1.000000e-06	2.335586e-06	3.942430e-09	1.613737e+01	2.572209e+02
1.010000e-06	2.459025e-06	4.355352e-09	1.699025e+01	2.846977e+02
1.020000e-06	2.581512e-06	4.755661e-09	1.783656e+01	3.112388e+02
1.030000e-06	2.702976e-06	5.143607e-09	1.867580e+01	3.367343e+02
1.040000e-06	2.823394e-06	5.514711e-09	1.950780e+01	3.611165e+02
1.050000e-06	2.942761e-06	5.868137e-09	2.033255e+01	3.843590e+02
1.060000e-06	3.061080e-06	6.204945e-09	2.115006e+01	4.064718e+02
1.070000e-06	3.178314e-06	6.525051e-09	2.196007e+01	4.274953e+02
1.080000e-06	3.294359e-06	6.831029e-09	2.276186e+01	4.474915e+02
1.090000e-06	3.409081e-06	7.121730e-09	2.355452e+01	4.665350e+02
1.100000e-06	3.522369e-06	7.398409e-09	2.433726e+01	4.847045e+02
1.110000e-06	3.634280e-06	7.662175e-09	2.511049e+01	5.020751e+02
1.120000e-06	3.744918e-06	7.914814e-09	2.587493e+01	5.187128e+02
1.130000e-06	3.854334e-06	8.159343e-09	2.663092e+01	5.346711e+02
1.140000e-06	3.962531e-06	8.396148e-09	2.737849e+01	5.499900e+02
1.150000e-06	4.069419e-06	8.621838e-09	2.811702e+01	5.646971e+02
1.160000e-06	4.174814e-06	8.834269e-09	2.884523e+01	5.788105e+02
1.170000e-06	4.278613e-06	9.035452e-09	2.956241e+01	5.923423e+02
1.180000e-06	4.380860e-06	9.227071e-09	3.026887e+01	6.053028e+02
1.190000e-06	4.481649e-06	9.411730e-09	3.096526e+01	6.177041e+02
1.200000e-06	4.580974e-06	9.589782e-09	3.165153e+01	6.295626e+02
1.210000e-06	4.678497e-06	9.760916e-09	3.232535e+01	6.409005e+02
1.220000e-06	4.774126e-06	9.925316e-09	3.298608e+01	6.517457e+02
1.230000e-06	4.868097e-06	1.008585e-08	3.363536e+01	6.621303e+02
1.240000e-06	4.960472e-06	1.024262e-08	3.427361e+01	6.720882e+02
1.250000e-06	5.051185e-06	1.039224e-08	3.490038e+01	6.816523e+02
1.260000e-06	5.140030e-06	1.053558e-08	3.551424e+01	6.908514e+02
1.270000e-06	5.226906e-06	1.067189e-08	3.611449e+01	6.997076e+02
1.280000e-06	5.311895e-06	1.080136e-08	3.670171e+01	7.082353e+02
1.290000e-06	5.395081e-06	1.092659e-08	3.727647e+01	7.164404e+02
1.300000e-06	5.476360e-06	1.104649e-08	3.783806e+01	7.243213e+02
1.310000e-06	5.555626e-06	1.116105e-08	3.838574e+01	7.318712e+02
1.320000e-06	5.632883e-06	1.127127e-08	3.891953e+01	7.390805e+02
1.330000e-06	5.707991e-06	1.137545e-08	3.943848e+01	7.459401e+02
1.340000e-06	5.780825e-06	1.147376e-08	3.994171e+01	7.524446e+02
1.350000e-06	5.851503e-06	1.156713e-08	4.043005e+01	7.585942e+02
1.360000e-06	5.920197e-06	1.165421e-08	4.090468e+01	7.643968e+02
1.370000e-06	5.986760e-06	1.173619e-08	4.136459e+01	7.698677e+02
1.380000e-06	6.051121e-06	1.181430e-08	4.180928e+01	7.750289e+02
1.390000e-06	6.113443e-06	1.188908e-08	4.223988e+01	7.799073e+02
1.400000e-06	6.173820e-06	1.196113e-08	4.265705e+01	7.845315e+02
1.410000e-06	6.232028e-06	1.203089e-08	4.305923e+01	7.889294e+02
1.420000e-06	6.287925e-06	1.209659e-08	4.344544e+01	7.931244e+02
1.430000e-06	6.341553e-06	1.215768e-08	4.381598e+01	7.971339e+02
1.440000e-06	6.392677e-06	1.221638e-08	4.416921e+01	8.009671e+02
1.450000e-06	6.441132e-06	1.227236e-08	4.450400e+01	8.046253e+02
1.460000e-06	6.487150e-06	1.232374e-08	4.482196e+01	8.081023e+02
1.470000e-06	6.531039e-06	1.237102e-08	4.512520e+01	8.113862e+02
1.480000e-06	6.572611e-06	1.241644e-08	4.541244e+01	8.144625e+02
1.490000e-06	6.611735e-06	1.246007e-08	4.568276e+01	8.173162e+02
1.500000e-06	6.648627e-06	1.249992e-08	4.593766e+01	8.199354e+02
1.510000e-06	6.683227e-06	1.253712e-08	4.617672e+01	8.223131e+02
1.520000e-06	6.715377e-06	1.257144e-08	4.639885e+01	8.244489e+02
1.530000e-06	6.745170e-06	1.260046e-08	4.660471e+01	8.263493e+02
1.540000e-06	6.772718e-06	1.262570e-08	4.679505e+01	8.280272e+02
1.550000e-06	6.797776e-06	1.264721e-08	4.696818e+01	8.294999e+02
1.560000e-06	6.820274e-06	1.266447e-08	4.712362e+01	8.307873e+02
1.570000e-06	6.840491e-06	1.267782e-08	4.726331e+01	8.319090e+02
1.580000e-06	6.858350e-06	1.269101e-08	4.738671e+01	8.328815e+02
1.590000e-06	6.873628e-06	1.270475e-08	4.749227e+01	8.337162e+02
1.600000e-06	6.886325e-06	1.271705e-08	4.757999e+01	8.344182e+02
1.610000e-06	6.896292e-06	1.272734e-08	4.764886e+01	8.349858e+02
1.620000e-06	6.903569e-06	1.273457e-08	4.769914e+01	8.354114e+02
1.630000e-06	6.908466e-06	1.273980e-08	4.773298e+01	8.356826e+02
1.640000e-06	6.911002e-06	1.274049e-08	4.775050e+01	8.357853e+02
1.650000e-06	6.911039e-06	1.273497e-08	4.775075e+01	8.357060e+02
1.660000e-06	6.908716e-06	1.272663e-08	4.773470e+01	8.354342e+02
1.670000e-06	6.904221e-06	1.271419e-08	4.770365e+01	8.349653e+02
1.680000e-06	6.897398e-06	1.270476e-08	4.765650e+01	8.343017e+02
1.690000e-06	6.888282e-06	1.269714e-08	4.759352e+01	8.334534e+02
1.700000e-06	6.876976e-06	1.268751e-08	4.751540e+01	8.324376e+02
1.710000e-06	6.863313e-06	1.267463e-08	4.742099e+01	8.312771e+02
1.720000e-06	6.847315e-06	1.265100e-08	4.731046e+01	8.299978e+02
1.730000e-06	6.829171e-06	1.261974e-08	4.718510e+01	8.286263e+02
1.740000e-06	6.808571e-06	1.259376e-08	4.704276e+01	8.271866e+02
1.750000e-06	6.784787e-06	1.256141e-08	4.687843e+01	8.256972e+02
1.760000e-06	6.757866e-06	1.253588e-08	4.669243e+01	8.241693e+02
1.770000e-06	6.728486e-06	1.252146e-08	4.648943e+01	8.226052e+02
1.780000e-06	6.697119e-06	1.249275e-08	4.627271e+01	8.209978e+02
1.790000e-06	6.664233e-06	1.247654e-08	4.604548e+01	8.193316e+02
1.800000e-06	6.629709e-06	1.248120e-08	4.580694e+01	8.175838e+02
1.810000e-06	6.592756e-06	1.243439e-08	4.555163e+01	8.157266e+02
1.820000e-06	6.553359e-06	1.243164e-08	4.527942e+01	8.137300e+02
1.830000e-06	6.511816e-06	1.240606e-08	4.499239e+01	8.115645e+02
1.840000e-06	6.468043e-06	1.234495e-08	4.468994e+01	8.092033e+02
1.850000e-06	6.422078e-06	1.233887e-08	4.437235e+01	8.066250e+02
1.860000e-06	6.373724e-06	1.223130e-08	4.403826e+01	8.038144e+02
1.870000e-06	6.322922e-06	1.215933e-08	4.368725e+01	8.007638e+02
1.880000e-06	6.269713e-06	1.216162e-08	4.331961e+01	7.974724e+02
1.890000e-06	6.213876e-06	1.212411e-08	4.293381e+01	7.939458e+02
1.900000e-06	6.155625e-06	1.210270e-08	4.253133e+01	7.901948e+02
1.910000e-06	6.095101e-06	1.202488e-08	4.211316e+01	7.862336e+02
1.920000e-06	6.032247e-06	1.191038e-08	4.167887e+01	7.820781e+02
1.930000e-06	5.967200e-06	1.183507e-08	4.122944e+01	7.777439e+02
1.940000e-06	5.900035e-06	1.180038e-08	4.076538e+01	7.732453e+02
1.950000e-06	5.830643e-06	1.175841e-08	4.028592e+01	7.685935e+02
1.960000e-06	5.758854e-06	1.165607e-08	3.978991e+01	7.637959e+02
1.970000e-06	5.684833e-06	1.157843e-08	3.927847e+01	7.588561e+02
1.980000e-06	5.608619e-06	1.148487e-08	3.875189e+01	7.537733e+02
1.990000e-06	5.530128e-06	1.141631e-08	3.820956e+01	7.485434e+02
2.000000e-06	5.449580e-06	1.136587e-08	3.765303e+01	7.431590e+02
2.010000e-06	5.367258e-06	1.126837e-08	3.708423e+01	7.376107e+02
2.020000e-06	5.283223e-06	1.116818e-08	3.650361e+01	7.318876e+02
2.030000e-06	5.197191e-06	1.105450e-08	3.590919e+01	7.259790e+02
2.040000e-06	5.109115e-06	1.097079e-08	3.530064e+01	7.198746e+02
2.050000e-06	5.019280e-06	1.089114e-08	3.467994e+01	7.135659e+02
2.060000e-06	4.927813e-06	1.079378e-08	3.404796e+01	7.070464e+02
2.070000e-06	4.834662e-06	1.068168e-08	3.340435e+01	7.003123e+02
2.080000e-06	4.739703e-06	1.056257e-08	3.274824e+01	6.933623e+02
2.090000e-06	4.643073e-06	1.045451e-08	3.208059e+01	6.861979e+02
2.100000e-06	4.544985e-06	1.035128e-08	3.140287e+01	6.788223e+02
2.110000e-06	4.445444e-06	1.025802e-08	3.071510e+01	6.712403e+02
2.120000e-06	4.344279e-06	1.013150e-08	3.001612e+01	6.634570e+02
2.130000e-06	4.241427e-06	9.986928e-09	2.930548e+01	6.554768e+02
2.140000e-06	4.136942e-06	9.856475e-09	2.858356e+01	6.473028e+02
2.150000e-06	4.030967e-06	9.744744e-09	2.785134e+01	6.389353e+02
2.160000e-06	3.923681e-06	9.628707e-09	2.711007e+01	6.303716e+02
2.170000e-06	3.815067e-06	9.494582e-09	2.635961e+01	6.216056e+02
2.180000e-06	3.705064e-06	9.348465e-09	2.559956e+01	6.126278e+02
2.190000e-06	3.593562e-06	9.196101e-09	2.482916e+01	6.034262e+02
2.200000e-06	3.480654e-06	9.053887e-09	2.404904e+01	5.939869e+02
2.210000e-06	3.366458e-06	8.917791e-09	2.326002e+01	5.842953e+02
2.220000e-06	3.250899e-06	8.772068e-09	2.246158e+01	5.743378e+02
2.230000e-06	3.133963e-06	8.599876e-09	2.165363e+01	5.641029e+02
2.240000e-06	3.015741e-06	8.424198e-09	2.083680e+01	5.535824e+02
2.250000e-06	2.896251e-06	8.263778e-09	2.001119e+01	5.427717e+02
2.260000e-06	2.775613e-06	8.112793e-09	1.917767e+01	5.316705e+02
2.270000e-06	2.654018e-06	7.951726e-09	1.833753e+01	5.202817e+02
2.280000e-06	2.531575e-06	7.773436e-09	1.749153e+01	5.086106e+02
2.290000e-06	2.408288e-06	7.584097e-09	1.663969e+01	4.966633e+02
2.300000e-06	2.284103e-06	7.390565e-09	1.578166e+01	4.844448e+02
2.310000e-06	2.159116e-06	7.203524e-09	1.491808e+01	4.719573e+02
2.320000e-06	2.033481e-06	7.018656e-09	1.405002e+01	4.591985e+02
2.330000e-06	1.907215e-06	6.819845e-09	1.317761e+01	4.461603e+02
2.340000e-06	1.780198e-06	6.605588e-09	1.230000e+01	4.328289e+02
2.350000e-06	1.652419e-06	6.390915e-09	1.141713e+01	4.191848e+02
2.360000e-06	1.524064e-06	6.181895e-09	1.053028e+01	4.052041e+02
2.370000e-06	1.395299e-06	5.972687e-09	9.640601e+00	3.908601e+02
2.380000e-06	1.266126e-06	5.751059e-09	8.748104e+00	3.761257e+02
2.390000e-06	1.136521e-06	5.513999e-09	7.852615e+00	3.609752e+02
2.400000e-06	1.006552e-06	5.268302e-09	6.954614e+00	3.453864e+02
2.410000e-06	8.763194e-07	5.022536e-09	6.054793e+00	3.293414e+02
2.420000e-06	7.458634e-07	4.778718e-09	5.153427e+00	3.128270e+02
2.430000e-06	6.152370e-07	4.526563e-09	4.250884e+00	2.958335e+02
2.440000e-06	4.844084e-07	4.256725e-09	3.346945e+00	2.783528e+02
2.450000e-06	3.534289e-07	3.972382e-09	2.441962e+00	2.603760e+02
2.460000e-06	2.223325e-07	3.685894e-09	1.536172e+00	2.418896e+02
2.470000e-06	9.109717e-08	3.401919e-09	6.294218e-01	2.228729e+02
2.480000e-06	-4.015768e-08	3.113726e-09	-2.774632e-01	2.032957e+02
2.490000e-06	-1.714222e-07	2.807958e-09	-1.184415e+00	1.831168e+02
2.500000e-06	-3.026787e-07	2.479808e-09	-2.091312e+00	1.622847e+02
2.510000e-06	-4.338376e-07	2.139049e-09	-2.997533e+00	1.407401e+02
2.520000e-06	-5.648361e-07	1.795810e-09	-3.902648e+00	1.184207e+02
2.530000e-06	-6.956580e-07	1.449968e-09	-4.806541e+00	9.526669e+01
2.540000e-06	-8.262963e-07	1.091209e-09	-5.709166e+00	7.122932e+01
2.550000e-06	-9.566829e-07	7.136780e-10	-6.610052e+00	4.627830e+01
2.560000e-06	-1.086754e-06	3.210723e-10	-7.508756e+00	2.040997e+01
2.570000e-06	-1.216474e-06	-8.245267e-11	-8.405038e+00	-6.346058e+00
2.580000e-06	-1.345807e-06	-4.981829e-10	-9.298648e+00	-3.392231e+01
2.590000e-06	-1.474719e-06	-9.282096e-10	-1.018934e+01	-6.221155e+01
2.600000e-06	-1.603172e-06	-1.373358e-09	-1.107687e+01	-9.106804e+01
2.610000e-06	-1.731071e-06	-1.827812e-09	-1.196057e+01	-1.203122e+02
2.620000e-06	-1.858252e-06	-2.280391e-09	-1.283930e+01	-1.497381e+02
2.630000e-06	-1.984592e-06	-2.725029e-09	-1.371223e+01	-1.791237e+02
2.640000e-06	-2.110135e-06	-3.164534e-09	-1.457965e+01	-2.082425e+02
2.650000e-06	-2.234873e-06	-3.603512e-09	-1.544151e+01	-2.368756e+02
2.660000e-06	-2.358700e-06	-4.036987e-09	-1.629707e+01	-2.648238e+02
2.670000e-06	-2.481577e-06	-4.451461e-09	-1.714607e+01	-2.919170e+02
2.680000e-06	-2.603493e-06	-4.843234e-09	-1.798843e+01	-3.180224e+02
2.690000e-06	-2.724497e-06	-5.217919e-09	-1.882449e+01	-3.430480e+02
2.700000e-06	-2.844578e-06	-5.578778e-09	-1.965417e+01	-3.669442e+02
2.710000e-06	-2.963573e-06	-5.928924e-09	-2.047635e+01	-3.897007e+02
2.720000e-06	-3.081347e-06	-6.265673e-09	-2.129009e+01	-4.113417e+02
2.730000e-06	-3.197895e-06	-6.581313e-09	-2.209536e+01	-4.319178e+02
2.740000e-06	-3.313172e-06	-6.877144e-09	-2.289184e+01	-4.514975e+02
2.750000e-06	-3.427065e-06	-7.162623e-09	-2.367878e+01	-4.701582e+02
2.760000e-06	-3.539521e-06	-7.440691e-09	-2.445577e+01	-4.879780e+02
2.770000e-06	-3.650580e-06	-7.706928e-09	-2.522311e+01	-5.050285e+02
2.780000e-06	-3.760288e-06	-7.958416e-09	-2.598113e+01	-5.213706e+02
2.790000e-06	-3.868797e-06	-8.195405e-09	-2.673085e+01	-5.370521e+02
2.800000e-06	-3.976137e-06	-8.419947e-09	-2.747250e+01	-5.521075e+02
2.810000e-06	-4.082137e-06	-8.637114e-09	-2.820489e+01	-5.665598e+02
2.820000e-06	-4.186706e-06	-8.848865e-09	-2.892739e+01	-5.804240e+02
2.830000e-06	-4.289691e-06	-9.053935e-09	-2.963896e+01	-5.937111e+02
2.840000e-06	-4.390991e-06	-9.250022e-09	-3.033887e+01	-6.064317e+02
2.850000e-06	-4.490733e-06	-9.437468e-09	-3.102803e+01	-6.185994e+02
2.860000e-06	-4.589004e-06	-9.620373e-09	-3.170701e+01	-6.302331e+02
2.870000e-06	-4.685759e-06	-9.796644e-09	-3.237553e+01	-6.413575e+02
2.880000e-06	-4.780881e-06	-9.961527e-09	-3.303276e+01	-6.520026e+02
2.890000e-06	-4.874188e-06	-1.011392e-08	-3.367745e+01	-6.622016e+02
2.900000e-06	-4.965740e-06	-1.025787e-08	-3.431001e+01	-6.719883e+02
2.910000e-06	-5.055542e-06	-1.039771e-08	-3.493049e+01	-6.813941e+02
2.920000e-06	-5.143475e-06	-1.053559e-08	-3.553804e+01	-6.904454e+02
2.930000e-06	-5.229461e-06	-1.067068e-08	-3.613215e+01	-6.991610e+02
2.940000e-06	-5.313522e-06	-1.079904e-08	-3.671296e+01	-7.075515e+02
