# Temperatura_=_55.45
# Concentracion g/m^3_=_15000.0
# C_Vs_to_Am_M_A/Vsm_=_65563218390.804596
# pendiente_HvsI_1/m_=_3716.3
# ordenada_HvsI_A/m_=_1297.0
# frecuencia_Hz_=_302328.86106912926

Tiempo_(s)	Campo_(V.s)	Magnetizacion_(V.s)	Campo_(kA/m)	Magnetizacion_(A/m)
0.000000e+00	-8.240297e-06	-7.587721e-09	-5.692417e+01	-4.955915e+02
1.000000e-08	-8.237481e-06	-7.584870e-09	-5.690472e+01	-4.953681e+02
2.000000e-08	-8.231936e-06	-7.580146e-09	-5.686641e+01	-4.950740e+02
3.000000e-08	-8.223670e-06	-7.573989e-09	-5.680932e+01	-4.947200e+02
4.000000e-08	-8.212491e-06	-7.566175e-09	-5.673209e+01	-4.943158e+02
5.000000e-08	-8.198358e-06	-7.558126e-09	-5.663446e+01	-4.938687e+02
6.000000e-08	-8.181410e-06	-7.550659e-09	-5.651738e+01	-4.933828e+02
7.000000e-08	-8.161988e-06	-7.540133e-09	-5.638321e+01	-4.928589e+02
8.000000e-08	-8.140149e-06	-7.539665e-09	-5.623235e+01	-4.922942e+02
9.000000e-08	-8.115352e-06	-7.532506e-09	-5.606105e+01	-4.916837e+02
1.000000e-07	-8.087231e-06	-7.528908e-09	-5.586679e+01	-4.910207e+02
1.100000e-07	-8.055963e-06	-7.521976e-09	-5.565079e+01	-4.902980e+02
1.200000e-07	-8.021765e-06	-7.493004e-09	-5.541455e+01	-4.895093e+02
1.300000e-07	-7.984793e-06	-7.461331e-09	-5.515915e+01	-4.886494e+02
1.400000e-07	-7.945340e-06	-7.434174e-09	-5.488660e+01	-4.877153e+02
1.500000e-07	-7.903480e-06	-7.418377e-09	-5.459743e+01	-4.867057e+02
1.600000e-07	-7.859091e-06	-7.402985e-09	-5.429079e+01	-4.856207e+02
1.700000e-07	-7.811949e-06	-7.396549e-09	-5.396514e+01	-4.844610e+02
1.800000e-07	-7.761925e-06	-7.379718e-09	-5.361957e+01	-4.832274e+02
1.900000e-07	-7.708974e-06	-7.335009e-09	-5.325378e+01	-4.819195e+02
2.000000e-07	-7.653061e-06	-7.322714e-09	-5.286754e+01	-4.805351e+02
2.100000e-07	-7.594340e-06	-7.306481e-09	-5.246189e+01	-4.790701e+02
2.200000e-07	-7.532987e-06	-7.282354e-09	-5.203806e+01	-4.775189e+02
2.300000e-07	-7.468999e-06	-7.266358e-09	-5.159603e+01	-4.758744e+02
2.400000e-07	-7.402151e-06	-7.216603e-09	-5.113424e+01	-4.741291e+02
2.500000e-07	-7.332439e-06	-7.177976e-09	-5.065267e+01	-4.722764e+02
2.600000e-07	-7.259870e-06	-7.147837e-09	-5.015136e+01	-4.703116e+02
2.700000e-07	-7.184341e-06	-7.139275e-09	-4.962961e+01	-4.682323e+02
2.800000e-07	-7.105937e-06	-7.098692e-09	-4.908799e+01	-4.660395e+02
2.900000e-07	-7.024781e-06	-7.055662e-09	-4.852736e+01	-4.637371e+02
3.000000e-07	-6.941161e-06	-7.032728e-09	-4.794971e+01	-4.613313e+02
3.100000e-07	-6.855220e-06	-6.985287e-09	-4.735603e+01	-4.588299e+02
3.200000e-07	-6.766776e-06	-6.949835e-09	-4.674506e+01	-4.562410e+02
3.300000e-07	-6.675787e-06	-6.910822e-09	-4.611650e+01	-4.535713e+02
3.400000e-07	-6.582424e-06	-6.868638e-09	-4.547155e+01	-4.508250e+02
3.500000e-07	-6.486711e-06	-6.815891e-09	-4.481036e+01	-4.480031e+02
3.600000e-07	-6.388543e-06	-6.779772e-09	-4.413221e+01	-4.451027e+02
3.700000e-07	-6.288067e-06	-6.743871e-09	-4.343812e+01	-4.421175e+02
3.800000e-07	-6.185377e-06	-6.692742e-09	-4.272873e+01	-4.390386e+02
3.900000e-07	-6.080424e-06	-6.638632e-09	-4.200372e+01	-4.358554e+02
4.000000e-07	-5.973299e-06	-6.577418e-09	-4.126369e+01	-4.325578e+02
4.100000e-07	-5.864209e-06	-6.522501e-09	-4.051010e+01	-4.291369e+02
4.200000e-07	-5.753053e-06	-6.469928e-09	-3.974223e+01	-4.255869e+02
4.300000e-07	-5.639661e-06	-6.424525e-09	-3.895892e+01	-4.219055e+02
4.400000e-07	-5.524020e-06	-6.367556e-09	-3.816006e+01	-4.180944e+02
4.500000e-07	-5.406226e-06	-6.302545e-09	-3.734634e+01	-4.141583e+02
4.600000e-07	-5.286471e-06	-6.236961e-09	-3.651907e+01	-4.101039e+02
4.700000e-07	-5.164924e-06	-6.178347e-09	-3.567942e+01	-4.059385e+02
4.800000e-07	-5.041574e-06	-6.119090e-09	-3.482732e+01	-4.016679e+02
4.900000e-07	-4.916397e-06	-6.055290e-09	-3.396259e+01	-3.972950e+02
5.000000e-07	-4.789422e-06	-5.985265e-09	-3.308545e+01	-3.928182e+02
5.100000e-07	-4.660691e-06	-5.906519e-09	-3.219617e+01	-3.882312e+02
5.200000e-07	-4.530231e-06	-5.830456e-09	-3.129494e+01	-3.835226e+02
5.300000e-07	-4.398045e-06	-5.756585e-09	-3.038180e+01	-3.786773e+02
5.400000e-07	-4.264245e-06	-5.680480e-09	-2.945751e+01	-3.736779e+02
5.500000e-07	-4.128871e-06	-5.594798e-09	-2.852234e+01	-3.685066e+02
5.600000e-07	-3.991956e-06	-5.514215e-09	-2.757653e+01	-3.631476e+02
5.700000e-07	-3.853465e-06	-5.436060e-09	-2.661983e+01	-3.575885e+02
5.800000e-07	-3.713347e-06	-5.349469e-09	-2.565189e+01	-3.518220e+02
5.900000e-07	-3.571628e-06	-5.258107e-09	-2.467290e+01	-3.458460e+02
6.000000e-07	-3.428520e-06	-5.166614e-09	-2.368430e+01	-3.396631e+02
6.100000e-07	-3.284088e-06	-5.069594e-09	-2.268656e+01	-3.332795e+02
6.200000e-07	-3.138367e-06	-4.965843e-09	-2.167992e+01	-3.267026e+02
6.300000e-07	-2.991619e-06	-4.863045e-09	-2.066618e+01	-3.199384e+02
6.400000e-07	-2.843917e-06	-4.759022e-09	-1.964585e+01	-3.129894e+02
6.500000e-07	-2.695229e-06	-4.646374e-09	-1.861871e+01	-3.058521e+02
6.600000e-07	-2.545620e-06	-4.524367e-09	-1.758521e+01	-2.985163e+02
6.700000e-07	-2.395155e-06	-4.404338e-09	-1.654579e+01	-2.909644e+02
6.800000e-07	-2.243817e-06	-4.288504e-09	-1.550034e+01	-2.831726e+02
6.900000e-07	-2.091657e-06	-4.171848e-09	-1.444922e+01	-2.751134e+02
7.000000e-07	-1.938783e-06	-4.047534e-09	-1.339316e+01	-2.667574e+02
7.100000e-07	-1.785253e-06	-3.915028e-09	-1.233257e+01	-2.580775e+02
7.200000e-07	-1.631081e-06	-3.774191e-09	-1.126755e+01	-2.490509e+02
7.300000e-07	-1.476321e-06	-3.626959e-09	-1.019846e+01	-2.396619e+02
7.400000e-07	-1.321037e-06	-3.476181e-09	-9.125754e+00	-2.299023e+02
7.500000e-07	-1.165259e-06	-3.319242e-09	-8.049640e+00	-2.197714e+02
7.600000e-07	-1.009085e-06	-3.159842e-09	-6.970782e+00	-2.092733e+02
7.700000e-07	-8.525550e-07	-2.997463e-09	-5.889471e+00	-1.984142e+02
7.800000e-07	-6.957158e-07	-2.830823e-09	-4.806022e+00	-1.871970e+02
7.900000e-07	-5.386649e-07	-2.656044e-09	-3.721110e+00	-1.756178e+02
8.000000e-07	-3.814626e-07	-2.473027e-09	-2.635153e+00	-1.636606e+02
8.100000e-07	-2.241084e-07	-2.283154e-09	-1.548146e+00	-1.512953e+02
8.200000e-07	-6.664710e-08	-2.084558e-09	-4.603998e-01	-1.384757e+02
8.300000e-07	9.084268e-08	-1.878536e-09	6.275435e-01	-1.251418e+02
8.400000e-07	2.483505e-07	-1.665107e-09	1.715611e+00	-1.112229e+02
8.500000e-07	4.058049e-07	-1.441960e-09	2.803310e+00	-9.664461e+01
8.600000e-07	5.631019e-07	-1.205957e-09	3.889922e+00	-8.133669e+01
8.700000e-07	7.202658e-07	-9.613273e-10	4.975614e+00	-6.524260e+01
8.800000e-07	8.772744e-07	-7.095766e-10	6.060233e+00	-4.832897e+01
8.900000e-07	1.033989e-06	-4.467976e-10	7.142824e+00	-3.059409e+01
9.000000e-07	1.190383e-06	-1.702612e-10	8.223198e+00	-1.207428e+01
9.100000e-07	1.346409e-06	1.181370e-10	9.301029e+00	7.152715e+00
9.200000e-07	1.501922e-06	4.179800e-10	1.037532e+01	2.696789e+01
9.300000e-07	1.656824e-06	7.323564e-10	1.144538e+01	4.721493e+01
9.400000e-07	1.811084e-06	1.054926e-09	1.251101e+01	6.770776e+01
9.500000e-07	1.964691e-06	1.375682e-09	1.357213e+01	8.824092e+01
9.600000e-07	2.117599e-06	1.688923e-09	1.462842e+01	1.086020e+02
9.700000e-07	2.269674e-06	1.992661e-09	1.567896e+01	1.285848e+02
9.800000e-07	2.420797e-06	2.284420e-09	1.672293e+01	1.480018e+02
9.900000e-07	2.570908e-06	2.561555e-09	1.775990e+01	1.666950e+02
1.000000e-06	2.719996e-06	2.824314e-09	1.878980e+01	1.845438e+02
1.010000e-06	2.868123e-06	3.075687e-09	1.981306e+01	2.014695e+02
1.020000e-06	3.015274e-06	3.317185e-09	2.082959e+01	2.174358e+02
1.030000e-06	3.161367e-06	3.545682e-09	2.183880e+01	2.324459e+02
1.040000e-06	3.306259e-06	3.760171e-09	2.283972e+01	2.465361e+02
1.050000e-06	3.449812e-06	3.960850e-09	2.383138e+01	2.597675e+02
1.060000e-06	3.592056e-06	4.150014e-09	2.481401e+01	2.722162e+02
1.070000e-06	3.732983e-06	4.328430e-09	2.578754e+01	2.839637e+02
1.080000e-06	3.872526e-06	4.499512e-09	2.675151e+01	2.950882e+02
1.090000e-06	4.010611e-06	4.662433e-09	2.770540e+01	3.056578e+02
1.100000e-06	4.147121e-06	4.815583e-09	2.864841e+01	3.157264e+02
1.110000e-06	4.282039e-06	4.961867e-09	2.958043e+01	3.253314e+02
1.120000e-06	4.415413e-06	5.102712e-09	3.050178e+01	3.344955e+02
1.130000e-06	4.547289e-06	5.238513e-09	3.141278e+01	3.432290e+02
1.140000e-06	4.677582e-06	5.366205e-09	3.231285e+01	3.515343e+02
1.150000e-06	4.806203e-06	5.484205e-09	3.320137e+01	3.594113e+02
1.160000e-06	4.933123e-06	5.592959e-09	3.407814e+01	3.668618e+02
1.170000e-06	5.058333e-06	5.695113e-09	3.494309e+01	3.738931e+02
1.180000e-06	5.181870e-06	5.791890e-09	3.579649e+01	3.805214e+02
1.190000e-06	5.303674e-06	5.884982e-09	3.663791e+01	3.867713e+02
1.200000e-06	5.423562e-06	5.974501e-09	3.746610e+01	3.926758e+02
1.210000e-06	5.541407e-06	6.060887e-09	3.828017e+01	3.982735e+02
1.220000e-06	5.657154e-06	6.144948e-09	3.907976e+01	4.036057e+02
1.230000e-06	5.770630e-06	6.226044e-09	3.986366e+01	4.087121e+02
1.240000e-06	5.881813e-06	6.304341e-09	4.063171e+01	4.136278e+02
1.250000e-06	5.990936e-06	6.378002e-09	4.138553e+01	4.183803e+02
1.260000e-06	6.098059e-06	6.446506e-09	4.212554e+01	4.229883e+02
1.270000e-06	6.202904e-06	6.512405e-09	4.284981e+01	4.274603e+02
1.280000e-06	6.305390e-06	6.576805e-09	4.355779e+01	4.317968e+02
1.290000e-06	6.405632e-06	6.639628e-09	4.425026e+01	4.359911e+02
1.300000e-06	6.503473e-06	6.700043e-09	4.492615e+01	4.400325e+02
1.310000e-06	6.598796e-06	6.757592e-09	4.558464e+01	4.439094e+02
1.320000e-06	6.691751e-06	6.810997e-09	4.622678e+01	4.476113e+02
1.330000e-06	6.782375e-06	6.862059e-09	4.685281e+01	4.511317e+02
1.340000e-06	6.870500e-06	6.912185e-09	4.746159e+01	4.544690e+02
1.350000e-06	6.956205e-06	6.959802e-09	4.805364e+01	4.576266e+02
1.360000e-06	7.039625e-06	7.004113e-09	4.862990e+01	4.606129e+02
1.370000e-06	7.120518e-06	7.046895e-09	4.918871e+01	4.634393e+02
1.380000e-06	7.198768e-06	7.088691e-09	4.972926e+01	4.661189e+02
1.390000e-06	7.274409e-06	7.127132e-09	5.025180e+01	4.686639e+02
1.400000e-06	7.347271e-06	7.161735e-09	5.075513e+01	4.710848e+02
1.410000e-06	7.417458e-06	7.195685e-09	5.123998e+01	4.733883e+02
1.420000e-06	7.485121e-06	7.228858e-09	5.170740e+01	4.755775e+02
1.430000e-06	7.550064e-06	7.258202e-09	5.215603e+01	4.776518e+02
1.440000e-06	7.612345e-06	7.285105e-09	5.258626e+01	4.796078e+02
1.450000e-06	7.672112e-06	7.312032e-09	5.299914e+01	4.814409e+02
1.460000e-06	7.729169e-06	7.337812e-09	5.339329e+01	4.831465e+02
1.470000e-06	7.783395e-06	7.359515e-09	5.376788e+01	4.847217e+02
1.480000e-06	7.834597e-06	7.378822e-09	5.412159e+01	4.861667e+02
1.490000e-06	7.882602e-06	7.398830e-09	5.445321e+01	4.874848e+02
1.500000e-06	7.927701e-06	7.419427e-09	5.476475e+01	4.886828e+02
1.510000e-06	7.970080e-06	7.437417e-09	5.505751e+01	4.897702e+02
1.520000e-06	8.009585e-06	7.452970e-09	5.533041e+01	4.907579e+02
1.530000e-06	8.046241e-06	7.466929e-09	5.558363e+01	4.916570e+02
1.540000e-06	8.080092e-06	7.479049e-09	5.581747e+01	4.924771e+02
1.550000e-06	8.111018e-06	7.490118e-09	5.603111e+01	4.932253e+02
1.560000e-06	8.139090e-06	7.499521e-09	5.622503e+01	4.939049e+02
1.570000e-06	8.164173e-06	7.506763e-09	5.639831e+01	4.945158e+02
1.580000e-06	8.186246e-06	7.513372e-09	5.655079e+01	4.950542e+02
1.590000e-06	8.205551e-06	7.521660e-09	5.668415e+01	4.955141e+02
1.600000e-06	8.221877e-06	7.531721e-09	5.679693e+01	4.958883e+02
1.610000e-06	8.235117e-06	7.538771e-09	5.688839e+01	4.961699e+02
1.620000e-06	8.245242e-06	7.540683e-09	5.695834e+01	4.963538e+02
1.630000e-06	8.252186e-06	7.540014e-09	5.700630e+01	4.964380e+02
1.640000e-06	8.256201e-06	7.539933e-09	5.703404e+01	4.964237e+02
1.650000e-06	8.257281e-06	7.540413e-09	5.704150e+01	4.963161e+02
1.660000e-06	8.255494e-06	7.537220e-09	5.702916e+01	4.961233e+02
1.670000e-06	8.250985e-06	7.534187e-09	5.699801e+01	4.958555e+02
1.680000e-06	8.243686e-06	7.530937e-09	5.694759e+01	4.955235e+02
1.690000e-06	8.233628e-06	7.527567e-09	5.687811e+01	4.951378e+02
1.700000e-06	8.220679e-06	7.524968e-09	5.678865e+01	4.947067e+02
1.710000e-06	8.204905e-06	7.521963e-09	5.667969e+01	4.942356e+02
1.720000e-06	8.186651e-06	7.517600e-09	5.655358e+01	4.937265e+02
1.730000e-06	8.165953e-06	7.487867e-09	5.641060e+01	4.931782e+02
1.740000e-06	8.142385e-06	7.475466e-09	5.624779e+01	4.925862e+02
1.750000e-06	8.115239e-06	7.458815e-09	5.606027e+01	4.919445e+02
1.760000e-06	8.084264e-06	7.445515e-09	5.584630e+01	4.912459e+02
1.770000e-06	8.050183e-06	7.446677e-09	5.561087e+01	4.904836e+02
1.780000e-06	8.013767e-06	7.454888e-09	5.535930e+01	4.896520e+02
1.790000e-06	7.974998e-06	7.450123e-09	5.509148e+01	4.887471e+02
1.800000e-06	7.934082e-06	7.439425e-09	5.480883e+01	4.877670e+02
1.810000e-06	7.890978e-06	7.439929e-09	5.451107e+01	4.867113e+02
1.820000e-06	7.845075e-06	7.388584e-09	5.419397e+01	4.855806e+02
1.830000e-06	7.796415e-06	7.400580e-09	5.385783e+01	4.843759e+02
1.840000e-06	7.744784e-06	7.387878e-09	5.350116e+01	4.830971e+02
1.850000e-06	7.689970e-06	7.344941e-09	5.312250e+01	4.817429e+02
1.860000e-06	7.632404e-06	7.332852e-09	5.272484e+01	4.803100e+02
1.870000e-06	7.572116e-06	7.282154e-09	5.230836e+01	4.787933e+02
1.880000e-06	7.508995e-06	7.279333e-09	5.187232e+01	4.771861e+02
1.890000e-06	7.443000e-06	7.270279e-09	5.141643e+01	4.754810e+02
1.900000e-06	7.374084e-06	7.260488e-09	5.094035e+01	4.736710e+02
1.910000e-06	7.302227e-06	7.214764e-09	5.044396e+01	4.717505e+02
1.920000e-06	7.227528e-06	7.155506e-09	4.992794e+01	4.697161e+02
1.930000e-06	7.150118e-06	7.142971e-09	4.939319e+01	4.675674e+02
1.940000e-06	7.069920e-06	7.095290e-09	4.883918e+01	4.653072e+02
1.950000e-06	6.987108e-06	7.084227e-09	4.826711e+01	4.629409e+02
1.960000e-06	6.901773e-06	7.042432e-09	4.767762e+01	4.604759e+02
1.970000e-06	6.813794e-06	6.989741e-09	4.706986e+01	4.579203e+02
1.980000e-06	6.723346e-06	6.950649e-09	4.644504e+01	4.552815e+02
1.990000e-06	6.630600e-06	6.909269e-09	4.580435e+01	4.525648e+02
2.000000e-06	6.535534e-06	6.883224e-09	4.514763e+01	4.497725e+02
2.010000e-06	6.438098e-06	6.825216e-09	4.447454e+01	4.469033e+02
2.020000e-06	6.338372e-06	6.781832e-09	4.378563e+01	4.439522e+02
2.030000e-06	6.236325e-06	6.724885e-09	4.308069e+01	4.409111e+02
2.040000e-06	6.131938e-06	6.687709e-09	4.235958e+01	4.377699e+02
2.050000e-06	6.025427e-06	6.645262e-09	4.162380e+01	4.345182e+02
2.060000e-06	5.916970e-06	6.596303e-09	4.087457e+01	4.311464e+02
2.070000e-06	5.806469e-06	6.538838e-09	4.011123e+01	4.276474e+02
2.080000e-06	5.693803e-06	6.470126e-09	3.933293e+01	4.240175e+02
2.090000e-06	5.578931e-06	6.416176e-09	3.853939e+01	4.202567e+02
2.100000e-06	5.461870e-06	6.361861e-09	3.773073e+01	4.163688e+02
2.110000e-06	5.342738e-06	6.314110e-09	3.690777e+01	4.123598e+02
2.120000e-06	5.221624e-06	6.246772e-09	3.607111e+01	4.082370e+02
2.130000e-06	5.098676e-06	6.173908e-09	3.522178e+01	4.040070e+02
2.140000e-06	4.973928e-06	6.098672e-09	3.436002e+01	3.996740e+02
2.150000e-06	4.847335e-06	6.037744e-09	3.348551e+01	3.952383e+02
2.160000e-06	4.718934e-06	5.977839e-09	3.259851e+01	3.906955e+02
2.170000e-06	4.588902e-06	5.912844e-09	3.170024e+01	3.860361e+02
2.180000e-06	4.457188e-06	5.835966e-09	3.079036e+01	3.812463e+02
2.190000e-06	4.323811e-06	5.757277e-09	2.986899e+01	3.763094e+02
2.200000e-06	4.188870e-06	5.678290e-09	2.893681e+01	3.712075e+02
2.210000e-06	4.052292e-06	5.595305e-09	2.799334e+01	3.659237e+02
2.220000e-06	3.914136e-06	5.514202e-09	2.703895e+01	3.604442e+02
2.230000e-06	3.774413e-06	5.426160e-09	2.607373e+01	3.547595e+02
2.240000e-06	3.633253e-06	5.332180e-09	2.509860e+01	3.488655e+02
2.250000e-06	3.490707e-06	5.238363e-09	2.411389e+01	3.427631e+02
2.260000e-06	3.346717e-06	5.151435e-09	2.311920e+01	3.364573e+02
2.270000e-06	3.201477e-06	5.060154e-09	2.211588e+01	3.299553e+02
2.280000e-06	3.055171e-06	4.957719e-09	2.110519e+01	3.232639e+02
2.290000e-06	2.907761e-06	4.846499e-09	2.008688e+01	3.163874e+02
2.300000e-06	2.759288e-06	4.738072e-09	1.906123e+01	3.093247e+02
2.310000e-06	2.609908e-06	4.632229e-09	1.802931e+01	3.020684e+02
2.320000e-06	2.459722e-06	4.522037e-09	1.699182e+01	2.946037e+02
2.330000e-06	2.308689e-06	4.403032e-09	1.594848e+01	2.869091e+02
2.340000e-06	2.156703e-06	4.276107e-09	1.489856e+01	2.789582e+02
2.350000e-06	2.003893e-06	4.145098e-09	1.384294e+01	2.707220e+02
2.360000e-06	1.850499e-06	4.016036e-09	1.278329e+01	2.621722e+02
2.370000e-06	1.696601e-06	3.887147e-09	1.172016e+01	2.532839e+02
2.380000e-06	1.542206e-06	3.752107e-09	1.065359e+01	2.440384e+02
2.390000e-06	1.387326e-06	3.606530e-09	9.583682e+00	2.344247e+02
2.400000e-06	1.231930e-06	3.450971e-09	8.510202e+00	2.244392e+02
2.410000e-06	1.076075e-06	3.293073e-09	7.433551e+00	2.140845e+02
2.420000e-06	9.198768e-07	3.133959e-09	6.354532e+00	2.033664e+02
2.430000e-06	7.633478e-07	2.966850e-09	5.273225e+00	1.922896e+02
2.440000e-06	6.065114e-07	2.791299e-09	4.189796e+00	1.808536e+02
2.450000e-06	4.494583e-07	2.608706e-09	3.104869e+00	1.690475e+02
2.460000e-06	2.922127e-07	2.421741e-09	2.018613e+00	1.568469e+02
2.470000e-06	1.347836e-07	2.229650e-09	9.310886e-01	1.442120e+02
2.480000e-06	-2.275198e-08	2.028213e-09	-1.571713e-01	1.310879e+02
2.490000e-06	-1.802756e-07	1.816255e-09	-1.245348e+00	1.174075e+02
2.500000e-06	-3.377306e-07	1.593186e-09	-2.333051e+00	1.030969e+02
2.510000e-06	-4.951372e-07	1.360970e-09	-3.420420e+00	8.808312e+01
2.520000e-06	-6.523752e-07	1.120441e-09	-4.506624e+00	7.230315e+01
2.530000e-06	-8.093488e-07	8.711616e-10	-5.591002e+00	5.571341e+01
2.540000e-06	-9.660628e-07	6.098069e-10	-6.673586e+00	3.829885e+01
2.550000e-06	-1.122395e-06	3.353709e-10	-7.753529e+00	2.008026e+01
2.560000e-06	-1.278229e-06	4.766465e-11	-8.830036e+00	1.118937e+00
2.570000e-06	-1.433523e-06	-2.537090e-10	-9.902813e+00	-1.848207e+01
2.580000e-06	-1.588311e-06	-5.617933e-10	-1.097209e+01	-3.858040e+01
2.590000e-06	-1.742606e-06	-8.738514e-10	-1.203796e+01	-5.900055e+01
2.600000e-06	-1.896314e-06	-1.190151e-09	-1.309978e+01	-7.954330e+01
2.610000e-06	-2.049329e-06	-1.507264e-09	-1.415681e+01	-9.999743e+01
2.620000e-06	-2.201566e-06	-1.820653e-09	-1.520847e+01	-1.201527e+02
2.630000e-06	-2.352962e-06	-2.124420e-09	-1.625432e+01	-1.398129e+02
2.640000e-06	-2.503428e-06	-2.414314e-09	-1.729374e+01	-1.588072e+02
2.650000e-06	-2.652945e-06	-2.690290e-09	-1.832661e+01	-1.769997e+02
2.660000e-06	-2.801460e-06	-2.952331e-09	-1.935256e+01	-1.942948e+02
2.670000e-06	-2.948893e-06	-3.199058e-09	-2.037103e+01	-2.106399e+02
2.680000e-06	-3.095242e-06	-3.431886e-09	-2.138201e+01	-2.260232e+02
2.690000e-06	-3.240476e-06	-3.654095e-09	-2.238529e+01	-2.404689e+02
2.700000e-06	-3.384533e-06	-3.865729e-09	-2.338044e+01	-2.540294e+02
2.710000e-06	-3.527292e-06	-4.066278e-09	-2.436662e+01	-2.667762e+02
2.720000e-06	-3.668660e-06	-4.256112e-09	-2.534319e+01	-2.787897e+02
2.730000e-06	-3.808552e-06	-4.435032e-09	-2.630957e+01	-2.901503e+02
2.740000e-06	-3.946960e-06	-4.600261e-09	-2.726570e+01	-3.009309e+02
2.750000e-06	-4.083964e-06	-4.753516e-09	-2.821213e+01	-3.111911e+02
2.760000e-06	-4.219527e-06	-4.899922e-09	-2.914859e+01	-3.209749e+02
2.770000e-06	-4.353589e-06	-5.039133e-09	-3.007470e+01	-3.303106e+02
2.780000e-06	-4.486073e-06	-5.171420e-09	-3.098990e+01	-3.392128e+02
2.790000e-06	-4.616996e-06	-5.297953e-09	-3.189432e+01	-3.476865e+02
2.800000e-06	-4.746400e-06	-5.420976e-09	-3.278825e+01	-3.557320e+02
2.810000e-06	-4.874212e-06	-5.540159e-09	-3.367117e+01	-3.633497e+02
2.820000e-06	-5.000307e-06	-5.655244e-09	-3.454225e+01	-3.705446e+02
2.830000e-06	-5.124568e-06	-5.764847e-09	-3.540064e+01	-3.773289e+02
2.840000e-06	-5.247038e-06	-5.866220e-09	-3.624667e+01	-3.837241e+02
2.850000e-06	-5.367690e-06	-5.957178e-09	-3.708014e+01	-3.897601e+02
2.860000e-06	-5.486289e-06	-6.040106e-09	-3.789942e+01	-3.954738e+02
2.870000e-06	-5.602630e-06	-6.121108e-09	-3.870310e+01	-4.009056e+02
2.880000e-06	-5.716639e-06	-6.200700e-09	-3.949068e+01	-4.060963e+02
2.890000e-06	-5.828333e-06	-6.276663e-09	-4.026227e+01	-4.110833e+02
2.900000e-06	-5.937897e-06	-6.350435e-09	-4.101914e+01	-4.158975e+02
2.910000e-06	-6.045476e-06	-6.424858e-09	-4.176229e+01	-4.205608e+02
2.920000e-06	-6.150954e-06	-6.498415e-09	-4.249094e+01	-4.250860e+02
2.930000e-06	-6.254113e-06	-6.567070e-09	-4.320357e+01	-4.294764e+02
2.940000e-06	-6.354892e-06	-6.630150e-09	-4.389975e+01	-4.337279e+02
