# Temperatura_=_26.56
# Concentracion g/m^3_=_15000.0
# C_Vs_to_Am_M_A/Vsm_=_65563218390.804596
# pendiente_HvsI_1/m_=_3716.3
# ordenada_HvsI_A/m_=_1297.0
# frecuencia_Hz_=_302323.08992954635

Tiempo_(s)	Campo_(V.s)	Magnetizacion_(V.s)	Campo_(kA/m)	Magnetizacion_(A/m)
0.000000e+00	-8.195277e-06	-5.624581e-09	-5.692852e+01	-3.673252e+02
1.000000e-08	-8.192476e-06	-5.623610e-09	-5.690907e+01	-3.671629e+02
2.000000e-08	-8.186984e-06	-5.621878e-09	-5.687091e+01	-3.669432e+02
3.000000e-08	-8.178818e-06	-5.615767e-09	-5.681419e+01	-3.666756e+02
4.000000e-08	-8.167788e-06	-5.607074e-09	-5.673757e+01	-3.663691e+02
5.000000e-08	-8.153784e-06	-5.599925e-09	-5.664029e+01	-3.660316e+02
6.000000e-08	-8.136911e-06	-5.594788e-09	-5.652308e+01	-3.656682e+02
7.000000e-08	-8.117525e-06	-5.589031e-09	-5.638842e+01	-3.652807e+02
8.000000e-08	-8.095732e-06	-5.591254e-09	-5.623703e+01	-3.648677e+02
9.000000e-08	-8.071069e-06	-5.579852e-09	-5.606571e+01	-3.644246e+02
1.000000e-07	-8.043146e-06	-5.582178e-09	-5.587174e+01	-3.639442e+02
1.100000e-07	-8.012094e-06	-5.582497e-09	-5.565604e+01	-3.634180e+02
1.200000e-07	-7.978074e-06	-5.553454e-09	-5.541972e+01	-3.628371e+02
1.300000e-07	-7.941253e-06	-5.520753e-09	-5.516394e+01	-3.621935e+02
1.400000e-07	-7.902014e-06	-5.496783e-09	-5.489137e+01	-3.614812e+02
1.500000e-07	-7.860426e-06	-5.505987e-09	-5.460248e+01	-3.606962e+02
1.600000e-07	-7.816341e-06	-5.488965e-09	-5.429624e+01	-3.598373e+02
1.700000e-07	-7.769547e-06	-5.478566e-09	-5.397119e+01	-3.589060e+02
1.800000e-07	-7.719868e-06	-5.500941e-09	-5.362609e+01	-3.579053e+02
1.900000e-07	-7.667210e-06	-5.450554e-09	-5.326031e+01	-3.568396e+02
2.000000e-07	-7.611584e-06	-5.424476e-09	-5.287390e+01	-3.557133e+02
2.100000e-07	-7.553184e-06	-5.390460e-09	-5.246822e+01	-3.545303e+02
2.200000e-07	-7.492155e-06	-5.360105e-09	-5.204428e+01	-3.532932e+02
2.300000e-07	-7.428440e-06	-5.369841e-09	-5.160169e+01	-3.520029e+02
2.400000e-07	-7.361901e-06	-5.341588e-09	-5.113947e+01	-3.506585e+02
2.500000e-07	-7.292554e-06	-5.344467e-09	-5.065775e+01	-3.492577e+02
2.600000e-07	-7.220364e-06	-5.321474e-09	-5.015629e+01	-3.477971e+02
2.700000e-07	-7.145232e-06	-5.296789e-09	-4.963438e+01	-3.462731e+02
2.800000e-07	-7.067260e-06	-5.257139e-09	-4.909275e+01	-3.446822e+02
2.900000e-07	-6.986505e-06	-5.241275e-09	-4.853178e+01	-3.430220e+02
3.000000e-07	-6.903262e-06	-5.223477e-09	-4.795353e+01	-3.412909e+02
3.100000e-07	-6.817722e-06	-5.167108e-09	-4.735933e+01	-3.394888e+02
3.200000e-07	-6.729674e-06	-5.148680e-09	-4.674770e+01	-3.376168e+02
3.300000e-07	-6.639133e-06	-5.120368e-09	-4.611876e+01	-3.356761e+02
3.400000e-07	-6.546249e-06	-5.086324e-09	-4.547355e+01	-3.336685e+02
3.500000e-07	-6.451014e-06	-5.047083e-09	-4.481199e+01	-3.315948e+02
3.600000e-07	-6.353380e-06	-5.021980e-09	-4.413378e+01	-3.294551e+02
3.700000e-07	-6.253485e-06	-4.990297e-09	-4.343986e+01	-3.272480e+02
3.800000e-07	-6.151377e-06	-4.946659e-09	-4.273056e+01	-3.249707e+02
3.900000e-07	-6.046995e-06	-4.913543e-09	-4.200547e+01	-3.226192e+02
4.000000e-07	-5.940447e-06	-4.881625e-09	-4.126533e+01	-3.201888e+02
4.100000e-07	-5.831900e-06	-4.843640e-09	-4.051131e+01	-3.176747e+02
4.200000e-07	-5.721349e-06	-4.790432e-09	-3.974337e+01	-3.150727e+02
4.300000e-07	-5.608602e-06	-4.754670e-09	-3.896018e+01	-3.123795e+02
4.400000e-07	-5.493621e-06	-4.721698e-09	-3.816146e+01	-3.095935e+02
4.500000e-07	-5.376544e-06	-4.678747e-09	-3.734818e+01	-3.067145e+02
4.600000e-07	-5.257507e-06	-4.625136e-09	-3.652129e+01	-3.037437e+02
4.700000e-07	-5.136605e-06	-4.578316e-09	-3.568145e+01	-3.006828e+02
4.800000e-07	-5.013859e-06	-4.528433e-09	-3.482879e+01	-2.975339e+02
4.900000e-07	-4.889318e-06	-4.475131e-09	-3.396366e+01	-2.942978e+02
5.000000e-07	-4.763075e-06	-4.427141e-09	-3.308672e+01	-2.909742e+02
5.100000e-07	-4.635124e-06	-4.378459e-09	-3.219791e+01	-2.875600e+02
5.200000e-07	-4.505421e-06	-4.324984e-09	-3.129692e+01	-2.840503e+02
5.300000e-07	-4.373975e-06	-4.263526e-09	-3.038383e+01	-2.804374e+02
5.400000e-07	-4.240904e-06	-4.207554e-09	-2.945946e+01	-2.767119e+02
5.500000e-07	-4.106298e-06	-4.150101e-09	-2.852441e+01	-2.728638e+02
5.600000e-07	-3.970080e-06	-4.091608e-09	-2.757818e+01	-2.688826e+02
5.700000e-07	-3.832310e-06	-4.026690e-09	-2.662116e+01	-2.647596e+02
5.800000e-07	-3.692999e-06	-3.958037e-09	-2.565343e+01	-2.604876e+02
5.900000e-07	-3.552083e-06	-3.887795e-09	-2.467456e+01	-2.560626e+02
6.000000e-07	-3.409712e-06	-3.818533e-09	-2.368558e+01	-2.514831e+02
6.100000e-07	-3.266038e-06	-3.748680e-09	-2.268755e+01	-2.467502e+02
6.200000e-07	-3.121142e-06	-3.673333e-09	-2.168103e+01	-2.418666e+02
6.300000e-07	-2.975124e-06	-3.597125e-09	-2.066671e+01	-2.368357e+02
6.400000e-07	-2.828062e-06	-3.521009e-09	-1.964514e+01	-2.316598e+02
6.500000e-07	-2.680031e-06	-3.441520e-09	-1.861685e+01	-2.263390e+02
6.600000e-07	-2.531161e-06	-3.354596e-09	-1.758272e+01	-2.208702e+02
6.700000e-07	-2.381520e-06	-3.266025e-09	-1.654324e+01	-2.152461e+02
6.800000e-07	-2.231050e-06	-3.175246e-09	-1.549800e+01	-2.094557e+02
6.900000e-07	-2.079755e-06	-3.083914e-09	-1.444702e+01	-2.034841e+02
7.000000e-07	-1.927734e-06	-2.990752e-09	-1.339101e+01	-1.973145e+02
7.100000e-07	-1.774986e-06	-2.896006e-09	-1.232995e+01	-1.909289e+02
7.200000e-07	-1.621605e-06	-2.794021e-09	-1.126448e+01	-1.843103e+02
7.300000e-07	-1.467764e-06	-2.682714e-09	-1.019583e+01	-1.774440e+02
7.400000e-07	-1.313491e-06	-2.571094e-09	-9.124170e+00	-1.703188e+02
7.500000e-07	-1.158742e-06	-2.458070e-09	-8.049207e+00	-1.629277e+02
7.600000e-07	-1.003562e-06	-2.344832e-09	-6.971249e+00	-1.552673e+02
7.700000e-07	-8.480042e-07	-2.229296e-09	-5.890664e+00	-1.473369e+02
7.800000e-07	-6.921076e-07	-2.109121e-09	-4.807728e+00	-1.391368e+02
7.900000e-07	-5.359222e-07	-1.978333e-09	-3.722785e+00	-1.306660e+02
8.000000e-07	-3.794752e-07	-1.839661e-09	-2.636026e+00	-1.219200e+02
8.100000e-07	-2.228668e-07	-1.698264e-09	-1.548145e+00	-1.128886e+02
8.200000e-07	-6.613104e-08	-1.554439e-09	-4.593795e-01	-1.035545e+02
8.300000e-07	9.067642e-08	-1.407177e-09	6.298841e-01	-9.389324e+01
8.400000e-07	2.474587e-07	-1.252706e-09	1.718973e+00	-8.387396e+01
8.500000e-07	4.041802e-07	-1.091627e-09	2.807639e+00	-7.346168e+01
8.600000e-07	5.607829e-07	-9.240332e-10	3.895481e+00	-6.262084e+01
8.700000e-07	7.172545e-07	-7.517271e-10	4.982411e+00	-5.131971e+01
8.800000e-07	8.735549e-07	-5.736014e-10	6.068153e+00	-3.953531e+01
8.900000e-07	1.029521e-06	-3.893077e-10	7.151570e+00	-2.725831e+01
9.000000e-07	1.185046e-06	-1.977342e-10	8.231929e+00	-1.449729e+01
9.100000e-07	1.340074e-06	-9.791857e-13	9.308832e+00	-1.281776e+00
9.200000e-07	1.494557e-06	2.000638e-10	1.038195e+01	1.233626e+01
9.300000e-07	1.648521e-06	4.111467e-10	1.145146e+01	2.628286e+01
9.400000e-07	1.801877e-06	6.314317e-10	1.251674e+01	4.046449e+01
9.500000e-07	1.954504e-06	8.541093e-10	1.357697e+01	5.477227e+01
9.600000e-07	2.106374e-06	1.073284e-09	1.463194e+01	6.908756e+01
9.700000e-07	2.257440e-06	1.287971e-09	1.568131e+01	8.328864e+01
9.800000e-07	2.407654e-06	1.497141e-09	1.672478e+01	9.725745e+01
9.900000e-07	2.557039e-06	1.699865e-09	1.776248e+01	1.108862e+02
1.000000e-06	2.705498e-06	1.896026e-09	1.879375e+01	1.240825e+02
1.010000e-06	2.852883e-06	2.085789e-09	1.981756e+01	1.367739e+02
1.020000e-06	2.999181e-06	2.267971e-09	2.083382e+01	1.489094e+02
1.030000e-06	3.144389e-06	2.441429e-09	2.184251e+01	1.604601e+02
1.040000e-06	3.288409e-06	2.608897e-09	2.284294e+01	1.714176e+02
1.050000e-06	3.431183e-06	2.768309e-09	2.383473e+01	1.817907e+02
1.060000e-06	3.572721e-06	2.919440e-09	2.481792e+01	1.916017e+02
1.070000e-06	3.712859e-06	3.061445e-09	2.579139e+01	2.008816e+02
1.080000e-06	3.851462e-06	3.196394e-09	2.675420e+01	2.096657e+02
1.090000e-06	3.988592e-06	3.325322e-09	2.770677e+01	2.179900e+02
1.100000e-06	4.124253e-06	3.444743e-09	2.864914e+01	2.258876e+02
1.110000e-06	4.258440e-06	3.557384e-09	2.958127e+01	2.333875e+02
1.120000e-06	4.391187e-06	3.665778e-09	3.050340e+01	2.405138e+02
1.130000e-06	4.522393e-06	3.771295e-09	3.141482e+01	2.472860e+02
1.140000e-06	4.651959e-06	3.870736e-09	3.231485e+01	2.537205e+02
1.150000e-06	4.779864e-06	3.961333e-09	3.320334e+01	2.598319e+02
1.160000e-06	4.906153e-06	4.046051e-09	3.408061e+01	2.656351e+02
1.170000e-06	5.030881e-06	4.128545e-09	3.494703e+01	2.711465e+02
1.180000e-06	5.153851e-06	4.208616e-09	3.580124e+01	2.763850e+02
1.190000e-06	5.274886e-06	4.284719e-09	3.664201e+01	2.813718e+02
1.200000e-06	5.394058e-06	4.356724e-09	3.746985e+01	2.861302e+02
1.210000e-06	5.511279e-06	4.426828e-09	3.828412e+01	2.906842e+02
1.220000e-06	5.626299e-06	4.495843e-09	3.908311e+01	2.950566e+02
1.230000e-06	5.739110e-06	4.562369e-09	3.986675e+01	2.992678e+02
1.240000e-06	5.849812e-06	4.624564e-09	4.063574e+01	3.033337e+02
1.250000e-06	5.958440e-06	4.683275e-09	4.139032e+01	3.072651e+02
1.260000e-06	6.064931e-06	4.740365e-09	4.213007e+01	3.110667e+02
1.270000e-06	6.169182e-06	4.794763e-09	4.285424e+01	3.147381e+02
1.280000e-06	6.271165e-06	4.847096e-09	4.356267e+01	3.182740e+02
1.290000e-06	6.370796e-06	4.895668e-09	4.425476e+01	3.216663e+02
1.300000e-06	6.468024e-06	4.940210e-09	4.493016e+01	3.249059e+02
1.310000e-06	6.562867e-06	4.982978e-09	4.558898e+01	3.279845e+02
1.320000e-06	6.655375e-06	5.023448e-09	4.623158e+01	3.308964e+02
1.330000e-06	6.745534e-06	5.063684e-09	4.685787e+01	3.336399e+02
1.340000e-06	6.833284e-06	5.102778e-09	4.746743e+01	3.362178e+02
1.350000e-06	6.918602e-06	5.138629e-09	4.806010e+01	3.386372e+02
1.360000e-06	7.001484e-06	5.172598e-09	4.863584e+01	3.409090e+02
1.370000e-06	7.081903e-06	5.205916e-09	4.919447e+01	3.430465e+02
1.380000e-06	7.159751e-06	5.236940e-09	4.973523e+01	3.450640e+02
1.390000e-06	7.234910e-06	5.262501e-09	5.025733e+01	3.469747e+02
1.400000e-06	7.307372e-06	5.284645e-09	5.076069e+01	3.487899e+02
1.410000e-06	7.377215e-06	5.306842e-09	5.124585e+01	3.505174e+02
1.420000e-06	7.444409e-06	5.330850e-09	5.171261e+01	3.521613e+02
1.430000e-06	7.508922e-06	5.355445e-09	5.216075e+01	3.537223e+02
1.440000e-06	7.570918e-06	5.378946e-09	5.259141e+01	3.551980e+02
1.450000e-06	7.630398e-06	5.400214e-09	5.300459e+01	3.565843e+02
1.460000e-06	7.687153e-06	5.418979e-09	5.339884e+01	3.578765e+02
1.470000e-06	7.741028e-06	5.435468e-09	5.377308e+01	3.590711e+02
1.480000e-06	7.791819e-06	5.450509e-09	5.412590e+01	3.601662e+02
1.490000e-06	7.839503e-06	5.465627e-09	5.445713e+01	3.611631e+02
1.500000e-06	7.884376e-06	5.480756e-09	5.476885e+01	3.620658e+02
1.510000e-06	7.926506e-06	5.494509e-09	5.506150e+01	3.628811e+02
1.520000e-06	7.965733e-06	5.505520e-09	5.533399e+01	3.636175e+02
1.530000e-06	8.002139e-06	5.514788e-09	5.558689e+01	3.642843e+02
1.540000e-06	8.035725e-06	5.523811e-09	5.582020e+01	3.648905e+02
1.550000e-06	8.066445e-06	5.533547e-09	5.603359e+01	3.654432e+02
1.560000e-06	8.094361e-06	5.543359e-09	5.622751e+01	3.659468e+02
1.570000e-06	8.119317e-06	5.551914e-09	5.640087e+01	3.664029e+02
1.580000e-06	8.141275e-06	5.558223e-09	5.655340e+01	3.668097e+02
1.590000e-06	8.160411e-06	5.564844e-09	5.668632e+01	3.671629e+02
1.600000e-06	8.176601e-06	5.571507e-09	5.679879e+01	3.674568e+02
1.610000e-06	8.189681e-06	5.576468e-09	5.688965e+01	3.676847e+02
1.620000e-06	8.199555e-06	5.579831e-09	5.695824e+01	3.678411e+02
1.630000e-06	8.206366e-06	5.581451e-09	5.700555e+01	3.679224e+02
1.640000e-06	8.210388e-06	5.582814e-09	5.703349e+01	3.679274e+02
1.650000e-06	8.211541e-06	5.582557e-09	5.704150e+01	3.678586e+02
1.660000e-06	8.209807e-06	5.579223e-09	5.702945e+01	3.677211e+02
1.670000e-06	8.205376e-06	5.577976e-09	5.699867e+01	3.675227e+02
1.680000e-06	8.198226e-06	5.576450e-09	5.694901e+01	3.672727e+02
1.690000e-06	8.188269e-06	5.574990e-09	5.687984e+01	3.669803e+02
1.700000e-06	8.175437e-06	5.573840e-09	5.679070e+01	3.666541e+02
1.710000e-06	8.159763e-06	5.571220e-09	5.668183e+01	3.663003e+02
1.720000e-06	8.141585e-06	5.567455e-09	5.655555e+01	3.659221e+02
1.730000e-06	8.121043e-06	5.544205e-09	5.641286e+01	3.655194e+02
1.740000e-06	8.097593e-06	5.541389e-09	5.624996e+01	3.650887e+02
1.750000e-06	8.070505e-06	5.515643e-09	5.606179e+01	3.646238e+02
1.760000e-06	8.039667e-06	5.502243e-09	5.584758e+01	3.641165e+02
1.770000e-06	8.005790e-06	5.517371e-09	5.561225e+01	3.635579e+02
1.780000e-06	7.969558e-06	5.539964e-09	5.536057e+01	3.629397e+02
1.790000e-06	7.931038e-06	5.520181e-09	5.509298e+01	3.622549e+02
1.800000e-06	7.890389e-06	5.508300e-09	5.481061e+01	3.614985e+02
1.810000e-06	7.847507e-06	5.539118e-09	5.451274e+01	3.606686e+02
1.820000e-06	7.801877e-06	5.461047e-09	5.419577e+01	3.597653e+02
1.830000e-06	7.753476e-06	5.489028e-09	5.385955e+01	3.587913e+02
1.840000e-06	7.702133e-06	5.478538e-09	5.350290e+01	3.577504e+02
1.850000e-06	7.647600e-06	5.445326e-09	5.312408e+01	3.566473e+02
1.860000e-06	7.590245e-06	5.473925e-09	5.272566e+01	3.554860e+02
1.870000e-06	7.530213e-06	5.415622e-09	5.230865e+01	3.542698e+02
1.880000e-06	7.467434e-06	5.420720e-09	5.187256e+01	3.530003e+02
1.890000e-06	7.401850e-06	5.373324e-09	5.141698e+01	3.516772e+02
1.900000e-06	7.333343e-06	5.334648e-09	5.094109e+01	3.502988e+02
1.910000e-06	7.261900e-06	5.323342e-09	5.044482e+01	3.488620e+02
1.920000e-06	7.187672e-06	5.307382e-09	4.992919e+01	3.473632e+02
1.930000e-06	7.110726e-06	5.311335e-09	4.939468e+01	3.457988e+02
1.940000e-06	7.030950e-06	5.252925e-09	4.884052e+01	3.441659e+02
1.950000e-06	6.948607e-06	5.244254e-09	4.826852e+01	3.424626e+02
1.960000e-06	6.863797e-06	5.206592e-09	4.767939e+01	3.406882e+02
1.970000e-06	6.776295e-06	5.166877e-09	4.707156e+01	3.388434e+02
1.980000e-06	6.686291e-06	5.152227e-09	4.644634e+01	3.369293e+02
1.990000e-06	6.593990e-06	5.127246e-09	4.580518e+01	3.349477e+02
2.000000e-06	6.499365e-06	5.104320e-09	4.514786e+01	3.328998e+02
2.010000e-06	6.402431e-06	5.047532e-09	4.447451e+01	3.307860e+02
2.020000e-06	6.303315e-06	5.030688e-09	4.378600e+01	3.286055e+02
2.030000e-06	6.201893e-06	4.999373e-09	4.308148e+01	3.263561e+02
2.040000e-06	6.098152e-06	4.964981e-09	4.236084e+01	3.240341e+02
2.050000e-06	5.992280e-06	4.918569e-09	4.162539e+01	3.216351e+02
2.060000e-06	5.884396e-06	4.881883e-09	4.087598e+01	3.191543e+02
2.070000e-06	5.774450e-06	4.846906e-09	4.011224e+01	3.165871e+02
2.080000e-06	5.662320e-06	4.797049e-09	3.933333e+01	3.139299e+02
2.090000e-06	5.548083e-06	4.760975e-09	3.853978e+01	3.111804e+02
2.100000e-06	5.431685e-06	4.719936e-09	3.773122e+01	3.083377e+02
2.110000e-06	5.313222e-06	4.674726e-09	3.690832e+01	3.054026e+02
2.120000e-06	5.192801e-06	4.620029e-09	3.607181e+01	3.023768e+02
2.130000e-06	5.070509e-06	4.582332e-09	3.522231e+01	2.992621e+02
2.140000e-06	4.946434e-06	4.538474e-09	3.436042e+01	2.960601e+02
2.150000e-06	4.820550e-06	4.487511e-09	3.348597e+01	2.927709e+02
2.160000e-06	4.692887e-06	4.430926e-09	3.259916e+01	2.893927e+02
2.170000e-06	4.563545e-06	4.379980e-09	3.170068e+01	2.859211e+02
2.180000e-06	4.432639e-06	4.328242e-09	3.079134e+01	2.823496e+02
2.190000e-06	4.300106e-06	4.271453e-09	2.987070e+01	2.786695e+02
2.200000e-06	4.165925e-06	4.212163e-09	2.893861e+01	2.748706e+02
2.210000e-06	4.030153e-06	4.148574e-09	2.799547e+01	2.709427e+02
2.220000e-06	3.892769e-06	4.085793e-09	2.704114e+01	2.668763e+02
2.230000e-06	3.753818e-06	4.025551e-09	2.607591e+01	2.626633e+02
2.240000e-06	3.613449e-06	3.966799e-09	2.510084e+01	2.582986e+02
2.250000e-06	3.471701e-06	3.901914e-09	2.411619e+01	2.537797e+02
2.260000e-06	3.328637e-06	3.831099e-09	2.312239e+01	2.491066e+02
2.270000e-06	3.184279e-06	3.751252e-09	2.211961e+01	2.442817e+02
2.280000e-06	3.038718e-06	3.667890e-09	2.110846e+01	2.393082e+02
2.290000e-06	2.892017e-06	3.587510e-09	2.008941e+01	2.341890e+02
2.300000e-06	2.744292e-06	3.512198e-09	1.906323e+01	2.289251e+02
2.310000e-06	2.595712e-06	3.435035e-09	1.803113e+01	2.235150e+02
2.320000e-06	2.446238e-06	3.352994e-09	1.699280e+01	2.179529e+02
2.330000e-06	2.295946e-06	3.266465e-09	1.594880e+01	2.122292e+02
2.340000e-06	2.144890e-06	3.176987e-09	1.489948e+01	2.063306e+02
2.350000e-06	1.993046e-06	3.083958e-09	1.384470e+01	2.002408e+02
2.360000e-06	1.840457e-06	2.987507e-09	1.278474e+01	1.939420e+02
2.370000e-06	1.687262e-06	2.888161e-09	1.172057e+01	1.874167e+02
2.380000e-06	1.533583e-06	2.785243e-09	1.065304e+01	1.806491e+02
2.390000e-06	1.379462e-06	2.679359e-09	9.582437e+00	1.736266e+02
2.400000e-06	1.224882e-06	2.569981e-09	8.508644e+00	1.663404e+02
2.410000e-06	1.069825e-06	2.456137e-09	7.431542e+00	1.587858e+02
2.420000e-06	9.143635e-07	2.335055e-09	6.351629e+00	1.509613e+02
2.430000e-06	7.585904e-07	2.207220e-09	5.269551e+00	1.428670e+02
2.440000e-06	6.025620e-07	2.079242e-09	4.185699e+00	1.345028e+02
2.450000e-06	4.463514e-07	1.951645e-09	3.100582e+00	1.258656e+02
2.460000e-06	2.900341e-07	1.820322e-09	2.014723e+00	1.169478e+02
2.470000e-06	1.336553e-07	1.681110e-09	9.284372e-01	1.077350e+02
2.480000e-06	-2.277154e-08	1.534117e-09	-1.581826e-01	9.820554e+01
2.490000e-06	-1.792749e-07	1.381613e-09	-1.245333e+00	8.833079e+01
2.500000e-06	-3.357821e-07	1.224710e-09	-2.332512e+00	7.807707e+01
2.510000e-06	-4.921620e-07	1.064459e-09	-3.418805e+00	6.740856e+01
2.520000e-06	-6.483961e-07	8.968969e-10	-4.504086e+00	5.629146e+01
2.530000e-06	-8.044507e-07	7.179904e-10	-5.588120e+00	4.469875e+01
2.540000e-06	-9.602557e-07	5.302561e-10	-6.670420e+00	3.261519e+01
2.550000e-06	-1.115732e-06	3.380338e-10	-7.750439e+00	2.004188e+01
2.560000e-06	-1.270835e-06	1.398796e-10	-8.827857e+00	6.999831e+00
2.570000e-06	-1.425471e-06	-6.779319e-11	-9.902038e+00	-6.467840e+00
2.580000e-06	-1.579579e-06	-2.806572e-10	-1.097255e+01	-2.029564e+01
2.590000e-06	-1.733180e-06	-4.942762e-10	-1.203954e+01	-3.439733e+01
2.600000e-06	-1.886138e-06	-7.117603e-10	-1.310207e+01	-4.866943e+01
2.610000e-06	-2.038316e-06	-9.339018e-10	-1.415917e+01	-6.299641e+01
2.620000e-06	-2.189649e-06	-1.157994e-09	-1.521041e+01	-7.725692e+01
2.630000e-06	-2.340127e-06	-1.380087e-09	-1.625570e+01	-9.133068e+01
2.640000e-06	-2.489707e-06	-1.596148e-09	-1.729476e+01	-1.051051e+02
2.650000e-06	-2.638324e-06	-1.803643e-09	-1.832713e+01	-1.184813e+02
2.660000e-06	-2.786018e-06	-2.000604e-09	-1.935308e+01	-1.313785e+02
2.670000e-06	-2.932753e-06	-2.186376e-09	-2.037238e+01	-1.437371e+02
2.680000e-06	-3.078402e-06	-2.364670e-09	-2.138413e+01	-1.555198e+02
2.690000e-06	-3.222832e-06	-2.535831e-09	-2.238741e+01	-1.667103e+02
2.700000e-06	-3.365941e-06	-2.696918e-09	-2.338152e+01	-1.773111e+02
2.710000e-06	-3.507687e-06	-2.848337e-09	-2.436616e+01	-1.873398e+02
2.720000e-06	-3.648104e-06	-2.992174e-09	-2.534157e+01	-1.968243e+02
2.730000e-06	-3.787209e-06	-3.131092e-09	-2.630786e+01	-2.057991e+02
2.740000e-06	-3.924886e-06	-3.263950e-09	-2.726424e+01	-2.143000e+02
2.750000e-06	-4.061120e-06	-3.391572e-09	-2.821059e+01	-2.223616e+02
2.760000e-06	-4.195927e-06	-3.511857e-09	-2.914702e+01	-2.300147e+02
2.770000e-06	-4.329279e-06	-3.620286e-09	-3.007336e+01	-2.372854e+02
2.780000e-06	-4.461140e-06	-3.721977e-09	-3.098932e+01	-2.441947e+02
2.790000e-06	-4.591487e-06	-3.821746e-09	-3.189478e+01	-2.507602e+02
2.800000e-06	-4.720273e-06	-3.918342e-09	-3.278940e+01	-2.569970e+02
2.810000e-06	-4.847328e-06	-4.008674e-09	-3.367198e+01	-2.629195e+02
2.820000e-06	-4.972701e-06	-4.094301e-09	-3.454289e+01	-2.685436e+02
2.830000e-06	-5.096396e-06	-4.176993e-09	-3.540213e+01	-2.738871e+02
2.840000e-06	-5.218272e-06	-4.255162e-09	-3.624874e+01	-2.789702e+02
2.850000e-06	-5.338214e-06	-4.328143e-09	-3.708192e+01	-2.838156e+02
2.860000e-06	-5.456072e-06	-4.397422e-09	-3.790063e+01	-2.884472e+02
2.870000e-06	-5.571784e-06	-4.465689e-09	-3.870442e+01	-2.928885e+02
2.880000e-06	-5.685213e-06	-4.531598e-09	-3.949235e+01	-2.971610e+02
2.890000e-06	-5.796331e-06	-4.593690e-09	-4.026424e+01	-3.012825e+02
2.900000e-06	-5.905365e-06	-4.654968e-09	-4.102164e+01	-3.052660e+02
2.910000e-06	-6.012364e-06	-4.716185e-09	-4.176491e+01	-3.091185e+02
2.920000e-06	-6.117213e-06	-4.775680e-09	-4.249325e+01	-3.128416e+02
2.930000e-06	-6.219801e-06	-4.833299e-09	-4.320587e+01	-3.164317e+02
2.940000e-06	-6.320096e-06	-4.887641e-09	-4.390257e+01	-3.198816e+02
