# Temperatura_=_26.3
# Concentracion g/m^3_=_15000.0
# C_Vs_to_Am_M_A/Vsm_=_65563218390.804596
# pendiente_HvsI_1/m_=_3716.3
# ordenada_HvsI_A/m_=_1297.0
# frecuencia_Hz_=_302327.16534479073

Tiempo_(s)	Campo_(V.s)	Magnetizacion_(V.s)	Campo_(kA/m)	Magnetizacion_(A/m)
0.000000e+00	-8.195363e-06	-5.636478e-09	-5.692269e+01	-3.679010e+02
1.000000e-08	-8.192650e-06	-5.636651e-09	-5.690384e+01	-3.677223e+02
2.000000e-08	-8.187240e-06	-5.630136e-09	-5.686627e+01	-3.674736e+02
3.000000e-08	-8.179206e-06	-5.619916e-09	-5.681047e+01	-3.671662e+02
4.000000e-08	-8.168266e-06	-5.610051e-09	-5.673448e+01	-3.668128e+02
5.000000e-08	-8.154305e-06	-5.601530e-09	-5.663751e+01	-3.664254e+02
6.000000e-08	-8.137463e-06	-5.594607e-09	-5.652053e+01	-3.660142e+02
7.000000e-08	-8.118183e-06	-5.589262e-09	-5.638662e+01	-3.655865e+02
8.000000e-08	-8.096534e-06	-5.587991e-09	-5.623625e+01	-3.651456e+02
9.000000e-08	-8.071960e-06	-5.604379e-09	-5.606557e+01	-3.646904e+02
1.000000e-07	-8.044129e-06	-5.607132e-09	-5.587226e+01	-3.642161e+02
1.100000e-07	-8.013195e-06	-5.579321e-09	-5.565740e+01	-3.637148e+02
1.200000e-07	-7.979258e-06	-5.549154e-09	-5.542168e+01	-3.631762e+02
1.300000e-07	-7.942508e-06	-5.522241e-09	-5.516643e+01	-3.625895e+02
1.400000e-07	-7.903418e-06	-5.493820e-09	-5.489492e+01	-3.619442e+02
1.500000e-07	-7.861989e-06	-5.485556e-09	-5.460716e+01	-3.612314e+02
1.600000e-07	-7.817993e-06	-5.519505e-09	-5.430158e+01	-3.604449e+02
1.700000e-07	-7.771245e-06	-5.508170e-09	-5.397689e+01	-3.595807e+02
1.800000e-07	-7.721583e-06	-5.492347e-09	-5.363194e+01	-3.586381e+02
1.900000e-07	-7.669019e-06	-5.489038e-09	-5.326685e+01	-3.576183e+02
2.000000e-07	-7.613557e-06	-5.417658e-09	-5.288163e+01	-3.565243e+02
2.100000e-07	-7.555242e-06	-5.370726e-09	-5.247659e+01	-3.553598e+02
2.200000e-07	-7.494237e-06	-5.364246e-09	-5.205287e+01	-3.541282e+02
2.300000e-07	-7.430553e-06	-5.371250e-09	-5.161053e+01	-3.528324e+02
2.400000e-07	-7.364042e-06	-5.371851e-09	-5.114856e+01	-3.514739e+02
2.500000e-07	-7.294792e-06	-5.344002e-09	-5.066758e+01	-3.500526e+02
2.600000e-07	-7.222751e-06	-5.319272e-09	-5.016719e+01	-3.485674e+02
2.700000e-07	-7.147718e-06	-5.289645e-09	-4.964604e+01	-3.470161e+02
2.800000e-07	-7.069795e-06	-5.263136e-09	-4.910481e+01	-3.453959e+02
2.900000e-07	-6.989112e-06	-5.252689e-09	-4.854441e+01	-3.437045e+02
3.000000e-07	-6.905975e-06	-5.246928e-09	-4.796696e+01	-3.419400e+02
3.100000e-07	-6.820546e-06	-5.214409e-09	-4.737359e+01	-3.401015e+02
3.200000e-07	-6.732635e-06	-5.156184e-09	-4.676299e+01	-3.381891e+02
3.300000e-07	-6.642182e-06	-5.119774e-09	-4.613473e+01	-3.362041e+02
3.400000e-07	-6.549353e-06	-5.082107e-09	-4.548996e+01	-3.341481e+02
3.500000e-07	-6.454213e-06	-5.035013e-09	-4.482915e+01	-3.320230e+02
3.600000e-07	-6.356675e-06	-5.006976e-09	-4.415167e+01	-3.298303e+02
3.700000e-07	-6.256812e-06	-4.995012e-09	-4.345805e+01	-3.275708e+02
3.800000e-07	-6.154721e-06	-4.967236e-09	-4.274896e+01	-3.252440e+02
3.900000e-07	-6.050385e-06	-4.919292e-09	-4.202428e+01	-3.228484e+02
4.000000e-07	-5.943848e-06	-4.880978e-09	-4.128430e+01	-3.203812e+02
4.100000e-07	-5.835336e-06	-4.836468e-09	-4.053061e+01	-3.178389e+02
4.200000e-07	-5.724870e-06	-4.785002e-09	-3.976334e+01	-3.152175e+02
4.300000e-07	-5.612210e-06	-4.747532e-09	-3.898083e+01	-3.125131e+02
4.400000e-07	-5.497276e-06	-4.727927e-09	-3.818254e+01	-3.097223e+02
4.500000e-07	-5.380215e-06	-4.694831e-09	-3.736946e+01	-3.068426e+02
4.600000e-07	-5.261198e-06	-4.636685e-09	-3.654280e+01	-3.038721e+02
4.700000e-07	-5.140353e-06	-4.577556e-09	-3.570345e+01	-3.008098e+02
4.800000e-07	-5.017635e-06	-4.524288e-09	-3.485108e+01	-2.976552e+02
4.900000e-07	-4.893069e-06	-4.472120e-09	-3.398588e+01	-2.944073e+02
5.000000e-07	-4.766784e-06	-4.422826e-09	-3.310874e+01	-2.910650e+02
5.100000e-07	-4.638847e-06	-4.379030e-09	-3.222013e+01	-2.876256e+02
5.200000e-07	-4.509206e-06	-4.324772e-09	-3.131968e+01	-2.840855e+02
5.300000e-07	-4.377764e-06	-4.260554e-09	-3.040671e+01	-2.804392e+02
5.400000e-07	-4.244701e-06	-4.201390e-09	-2.948250e+01	-2.766802e+02
5.500000e-07	-4.110151e-06	-4.145981e-09	-2.854795e+01	-2.728010e+02
5.600000e-07	-3.974038e-06	-4.086196e-09	-2.760255e+01	-2.687938e+02
5.700000e-07	-3.836338e-06	-4.023678e-09	-2.664613e+01	-2.646514e+02
5.800000e-07	-3.696991e-06	-3.959019e-09	-2.567826e+01	-2.603676e+02
5.900000e-07	-3.556129e-06	-3.890210e-09	-2.469987e+01	-2.559377e+02
6.000000e-07	-3.413881e-06	-3.817930e-09	-2.371186e+01	-2.513589e+02
6.100000e-07	-3.270284e-06	-3.744288e-09	-2.271448e+01	-2.466302e+02
6.200000e-07	-3.125422e-06	-3.669045e-09	-2.170831e+01	-2.417514e+02
6.300000e-07	-2.979328e-06	-3.592096e-09	-2.069358e+01	-2.367231e+02
6.400000e-07	-2.832189e-06	-3.519469e-09	-1.967159e+01	-2.315453e+02
6.500000e-07	-2.684162e-06	-3.444868e-09	-1.864343e+01	-2.262165e+02
6.600000e-07	-2.535308e-06	-3.358446e-09	-1.760954e+01	-2.207328e+02
6.700000e-07	-2.385663e-06	-3.263076e-09	-1.657015e+01	-2.150877e+02
6.800000e-07	-2.235161e-06	-3.166803e-09	-1.552480e+01	-2.092717e+02
6.900000e-07	-2.083879e-06	-3.074256e-09	-1.447404e+01	-2.032725e+02
7.000000e-07	-1.931941e-06	-2.981848e-09	-1.341872e+01	-1.970762e+02
7.100000e-07	-1.779306e-06	-2.888671e-09	-1.235856e+01	-1.906683e+02
7.200000e-07	-1.626052e-06	-2.789126e-09	-1.129410e+01	-1.840346e+02
7.300000e-07	-1.472252e-06	-2.679182e-09	-1.022585e+01	-1.771628e+02
7.400000e-07	-1.317940e-06	-2.565325e-09	-9.154044e+00	-1.700434e+02
7.500000e-07	-1.163159e-06	-2.450826e-09	-8.078975e+00	-1.626699e+02
7.600000e-07	-1.007964e-06	-2.336751e-09	-7.001036e+00	-1.550386e+02
7.700000e-07	-8.523806e-07	-2.222355e-09	-5.920396e+00	-1.471482e+02
7.800000e-07	-6.964453e-07	-2.102261e-09	-4.837313e+00	-1.389980e+02
7.900000e-07	-5.402246e-07	-1.973687e-09	-3.752248e+00	-1.305861e+02
8.000000e-07	-3.837745e-07	-1.837271e-09	-2.665590e+00	-1.219075e+02
8.100000e-07	-2.271522e-07	-1.695134e-09	-1.577735e+00	-1.129524e+02
8.200000e-07	-7.041281e-08	-1.550760e-09	-4.890676e-01	-1.037048e+02
8.300000e-07	8.639231e-08	-1.402672e-09	6.000567e-01	-9.414252e+01
8.400000e-07	2.432231e-07	-1.252936e-09	1.689359e+00	-8.423735e+01
8.500000e-07	3.999648e-07	-1.098320e-09	2.778043e+00	-7.395733e+01
8.600000e-07	5.565805e-07	-9.339033e-10	3.865852e+00	-6.326958e+01
8.700000e-07	7.130220e-07	-7.611212e-10	4.952450e+00	-5.214416e+01
8.800000e-07	8.692339e-07	-5.825771e-10	6.037454e+00	-4.055852e+01
8.900000e-07	1.025170e-06	-4.007131e-10	7.120543e+00	-2.850191e+01
9.000000e-07	1.180687e-06	-2.132377e-10	8.200720e+00	-1.597941e+01
9.100000e-07	1.335718e-06	-2.109888e-11	9.277520e+00	-3.015038e+00
9.200000e-07	1.490303e-06	1.764169e-10	1.035122e+01	1.034663e+01
9.300000e-07	1.644380e-06	3.846589e-10	1.142140e+01	2.404038e+01
9.400000e-07	1.797794e-06	6.006730e-10	1.248697e+01	3.798213e+01
9.500000e-07	1.950459e-06	8.171332e-10	1.354734e+01	5.207242e+01
9.600000e-07	2.102337e-06	1.030565e-09	1.460224e+01	6.620124e+01
9.700000e-07	2.253390e-06	1.241666e-09	1.565142e+01	8.025392e+01
9.800000e-07	2.403635e-06	1.451001e-09	1.669497e+01	9.411740e+01
9.900000e-07	2.553082e-06	1.655388e-09	1.773299e+01	1.076863e+02
1.000000e-06	2.701586e-06	1.852856e-09	1.876446e+01	1.208684e+02
1.010000e-06	2.849014e-06	2.043981e-09	1.978845e+01	1.335886e+02
1.020000e-06	2.995361e-06	2.227986e-09	2.080493e+01	1.457913e+02
1.030000e-06	3.140590e-06	2.403309e-09	2.181365e+01	1.574415e+02
1.040000e-06	3.284678e-06	2.570628e-09	2.281445e+01	1.685237e+02
1.050000e-06	3.427525e-06	2.731857e-09	2.380662e+01	1.790396e+02
1.060000e-06	3.569021e-06	2.883186e-09	2.478942e+01	1.890044e+02
1.070000e-06	3.709133e-06	3.026185e-09	2.576259e+01	1.984431e+02
1.080000e-06	3.847863e-06	3.165004e-09	2.672617e+01	2.073860e+02
1.090000e-06	3.985124e-06	3.298263e-09	2.767955e+01	2.158654e+02
1.100000e-06	4.120862e-06	3.421624e-09	2.862235e+01	2.239122e+02
1.110000e-06	4.255206e-06	3.535151e-09	2.955547e+01	2.315540e+02
1.120000e-06	4.388095e-06	3.644716e-09	3.047848e+01	2.388147e+02
1.130000e-06	4.519380e-06	3.750837e-09	3.139034e+01	2.457137e+02
1.140000e-06	4.649026e-06	3.851021e-09	3.229083e+01	2.522679e+02
1.150000e-06	4.776991e-06	3.944175e-09	3.317963e+01	2.584924e+02
1.160000e-06	4.903329e-06	4.032817e-09	3.405714e+01	2.644021e+02
1.170000e-06	5.028065e-06	4.117194e-09	3.492353e+01	2.700136e+02
1.180000e-06	5.151095e-06	4.197192e-09	3.577805e+01	2.753455e+02
1.190000e-06	5.272255e-06	4.273590e-09	3.661960e+01	2.804188e+02
1.200000e-06	5.391459e-06	4.346276e-09	3.744756e+01	2.852565e+02
1.210000e-06	5.508616e-06	4.415387e-09	3.826130e+01	2.898826e+02
1.220000e-06	5.623623e-06	4.483290e-09	3.906011e+01	2.943202e+02
1.230000e-06	5.736481e-06	4.551419e-09	3.984399e+01	2.985902e+02
1.240000e-06	5.847218e-06	4.617261e-09	4.061313e+01	3.027096e+02
1.250000e-06	5.955840e-06	4.678767e-09	4.136759e+01	3.066903e+02
1.260000e-06	6.062313e-06	4.736891e-09	4.210712e+01	3.105383e+02
1.270000e-06	6.166552e-06	4.793216e-09	4.283114e+01	3.142542e+02
1.280000e-06	6.268566e-06	4.846420e-09	4.353970e+01	3.178339e+02
1.290000e-06	6.368314e-06	4.894572e-09	4.423252e+01	3.212700e+02
1.300000e-06	6.465641e-06	4.939950e-09	4.490853e+01	3.245536e+02
1.310000e-06	6.560592e-06	4.984196e-09	4.556803e+01	3.276762e+02
1.320000e-06	6.653241e-06	5.026033e-09	4.621154e+01	3.306318e+02
1.330000e-06	6.743534e-06	5.067190e-09	4.683869e+01	3.334179e+02
1.340000e-06	6.831416e-06	5.108713e-09	4.744909e+01	3.360367e+02
1.350000e-06	6.916912e-06	5.146340e-09	4.804292e+01	3.384948e+02
1.360000e-06	6.999964e-06	5.180553e-09	4.861978e+01	3.408028e+02
1.370000e-06	7.080442e-06	5.213539e-09	4.917876e+01	3.429742e+02
1.380000e-06	7.158340e-06	5.244399e-09	4.971982e+01	3.450236e+02
1.390000e-06	7.233598e-06	5.272108e-09	5.024254e+01	3.469650e+02
1.400000e-06	7.306137e-06	5.296933e-09	5.074638e+01	3.488105e+02
1.410000e-06	7.376047e-06	5.321826e-09	5.123195e+01	3.505688e+02
1.420000e-06	7.443352e-06	5.346280e-09	5.169943e+01	3.522446e+02
1.430000e-06	7.507981e-06	5.370617e-09	5.214833e+01	3.538389e+02
1.440000e-06	7.570013e-06	5.394113e-09	5.257918e+01	3.553492e+02
1.450000e-06	7.629477e-06	5.415029e-09	5.299220e+01	3.567705e+02
1.460000e-06	7.686230e-06	5.433558e-09	5.338640e+01	3.580974e+02
1.470000e-06	7.740220e-06	5.449922e-09	5.376139e+01	3.593249e+02
1.480000e-06	7.791126e-06	5.464451e-09	5.411497e+01	3.604501e+02
1.490000e-06	7.838864e-06	5.478659e-09	5.444655e+01	3.614729e+02
1.500000e-06	7.883791e-06	5.493331e-09	5.475860e+01	3.623969e+02
1.510000e-06	7.925941e-06	5.507928e-09	5.505136e+01	3.632288e+02
1.520000e-06	7.965219e-06	5.520867e-09	5.532417e+01	3.639777e+02
1.530000e-06	8.001727e-06	5.531463e-09	5.557774e+01	3.646542e+02
1.540000e-06	8.035474e-06	5.541132e-09	5.581214e+01	3.652690e+02
1.550000e-06	8.066308e-06	5.550306e-09	5.602630e+01	3.658311e+02
1.560000e-06	8.094278e-06	5.558724e-09	5.622058e+01	3.663467e+02
1.570000e-06	8.119334e-06	5.564988e-09	5.639461e+01	3.668188e+02
1.580000e-06	8.141409e-06	5.569524e-09	5.654794e+01	3.672462e+02
1.590000e-06	8.160681e-06	5.575299e-09	5.668180e+01	3.676245e+02
1.600000e-06	8.177062e-06	5.582459e-09	5.679557e+01	3.679463e+02
1.610000e-06	8.190311e-06	5.587708e-09	5.688759e+01	3.682029e+02
1.620000e-06	8.200321e-06	5.590784e-09	5.695712e+01	3.683860e+02
1.630000e-06	8.207242e-06	5.592843e-09	5.700520e+01	3.684883e+02
1.640000e-06	8.211329e-06	5.594509e-09	5.703358e+01	3.685060e+02
1.650000e-06	8.212469e-06	5.596318e-09	5.704150e+01	3.684385e+02
1.660000e-06	8.210720e-06	5.594827e-09	5.702935e+01	3.682898e+02
1.670000e-06	8.206328e-06	5.591414e-09	5.699885e+01	3.680672e+02
1.680000e-06	8.199164e-06	5.589167e-09	5.694909e+01	3.677813e+02
1.690000e-06	8.189252e-06	5.585774e-09	5.688024e+01	3.674443e+02
1.700000e-06	8.176493e-06	5.583308e-09	5.679162e+01	3.670687e+02
1.710000e-06	8.160851e-06	5.582881e-09	5.668297e+01	3.666657e+02
1.720000e-06	8.142749e-06	5.583830e-09	5.655724e+01	3.662437e+02
1.730000e-06	8.122329e-06	5.568544e-09	5.641541e+01	3.658077e+02
1.740000e-06	8.099051e-06	5.525653e-09	5.625373e+01	3.653583e+02
1.750000e-06	8.072135e-06	5.511782e-09	5.606678e+01	3.648922e+02
1.760000e-06	8.041386e-06	5.524785e-09	5.585321e+01	3.644025e+02
1.770000e-06	8.007526e-06	5.530318e-09	5.561803e+01	3.638797e+02
1.780000e-06	7.971391e-06	5.546425e-09	5.536704e+01	3.633131e+02
1.790000e-06	7.932925e-06	5.561445e-09	5.509987e+01	3.626918e+02
1.800000e-06	7.892307e-06	5.515095e-09	5.481775e+01	3.620063e+02
1.810000e-06	7.849578e-06	5.478775e-09	5.452096e+01	3.612492e+02
1.820000e-06	7.804006e-06	5.482633e-09	5.420443e+01	3.604156e+02
1.830000e-06	7.755635e-06	5.455214e-09	5.386846e+01	3.595037e+02
1.840000e-06	7.704344e-06	5.483573e-09	5.351220e+01	3.585138e+02
1.850000e-06	7.649840e-06	5.494720e-09	5.313364e+01	3.574484e+02
1.860000e-06	7.592614e-06	5.473976e-09	5.273616e+01	3.563109e+02
1.870000e-06	7.532687e-06	5.449995e-09	5.231993e+01	3.551052e+02
1.880000e-06	7.469965e-06	5.372489e-09	5.188428e+01	3.538342e+02
1.890000e-06	7.404452e-06	5.357371e-09	5.142924e+01	3.525001e+02
1.900000e-06	7.336085e-06	5.336464e-09	5.095438e+01	3.511034e+02
1.910000e-06	7.264839e-06	5.316558e-09	5.045953e+01	3.496434e+02
1.920000e-06	7.190744e-06	5.340067e-09	4.994489e+01	3.481182e+02
1.930000e-06	7.113892e-06	5.307490e-09	4.941110e+01	3.465253e+02
1.940000e-06	7.034204e-06	5.255807e-09	4.885760e+01	3.448620e+02
1.950000e-06	6.951953e-06	5.195043e-09	4.828631e+01	3.431262e+02
1.960000e-06	6.867203e-06	5.183152e-09	4.769766e+01	3.413167e+02
1.970000e-06	6.779675e-06	5.173049e-09	4.708972e+01	3.394331e+02
1.980000e-06	6.689647e-06	5.147453e-09	4.646441e+01	3.374763e+02
1.990000e-06	6.597433e-06	5.153867e-09	4.582391e+01	3.354478e+02
2.000000e-06	6.502913e-06	5.114410e-09	4.516741e+01	3.333495e+02
2.010000e-06	6.405984e-06	5.052734e-09	4.449417e+01	3.311831e+02
2.020000e-06	6.306831e-06	4.997913e-09	4.380547e+01	3.289497e+02
2.030000e-06	6.205364e-06	4.979608e-09	4.310071e+01	3.266493e+02
2.040000e-06	6.101495e-06	4.955527e-09	4.237927e+01	3.242809e+02
2.050000e-06	5.995517e-06	4.922681e-09	4.164317e+01	3.218420e+02
2.060000e-06	5.887656e-06	4.898064e-09	4.089400e+01	3.193295e+02
2.070000e-06	5.777864e-06	4.855285e-09	4.013142e+01	3.167395e+02
2.080000e-06	5.665903e-06	4.795820e-09	3.935377e+01	3.140680e+02
2.090000e-06	5.551746e-06	4.732308e-09	3.856087e+01	3.113114e+02
2.100000e-06	5.435443e-06	4.696979e-09	3.775306e+01	3.084667e+02
2.110000e-06	5.317016e-06	4.659410e-09	3.693050e+01	3.055319e+02
2.120000e-06	5.196580e-06	4.621659e-09	3.609398e+01	3.025057e+02
2.130000e-06	5.074304e-06	4.587919e-09	3.524469e+01	2.993872e+02
2.140000e-06	4.950233e-06	4.547249e-09	3.438293e+01	2.961760e+02
2.150000e-06	4.824391e-06	4.481641e-09	3.350887e+01	2.928708e+02
2.160000e-06	4.696741e-06	4.414875e-09	3.262224e+01	2.894698e+02
2.170000e-06	4.567353e-06	4.363603e-09	3.172355e+01	2.859697e+02
2.180000e-06	4.436366e-06	4.316957e-09	3.081375e+01	2.823657e+02
2.190000e-06	4.303788e-06	4.269555e-09	2.989290e+01	2.786517e+02
2.200000e-06	4.169645e-06	4.213900e-09	2.896118e+01	2.748205e+02
2.210000e-06	4.033827e-06	4.149698e-09	2.801783e+01	2.708644e+02
2.220000e-06	3.896389e-06	4.074718e-09	2.706322e+01	2.667758e+02
2.230000e-06	3.757465e-06	4.008972e-09	2.609830e+01	2.625480e+02
2.240000e-06	3.617149e-06	3.950257e-09	2.512370e+01	2.581758e+02
2.250000e-06	3.475397e-06	3.890598e-09	2.413913e+01	2.536556e+02
2.260000e-06	3.332277e-06	3.822757e-09	2.314506e+01	2.489856e+02
2.270000e-06	3.187890e-06	3.747885e-09	2.214219e+01	2.441656e+02
2.280000e-06	3.042289e-06	3.663787e-09	2.113089e+01	2.391959e+02
2.290000e-06	2.895573e-06	3.575940e-09	2.011183e+01	2.340768e+02
2.300000e-06	2.747889e-06	3.492709e-09	1.908606e+01	2.288074e+02
2.310000e-06	2.599336e-06	3.414182e-09	1.805426e+01	2.233851e+02
2.320000e-06	2.449928e-06	3.336488e-09	1.701651e+01	2.178042e+02
2.330000e-06	2.299750e-06	3.256527e-09	1.597341e+01	2.120565e+02
2.340000e-06	2.148735e-06	3.172552e-09	1.492451e+01	2.061307e+02
2.350000e-06	1.996904e-06	3.079396e-09	1.386993e+01	2.000134e+02
2.360000e-06	1.844345e-06	2.977733e-09	1.281030e+01	1.936903e+02
2.370000e-06	1.691164e-06	2.873091e-09	1.174635e+01	1.871467e+02
2.380000e-06	1.537428e-06	2.768040e-09	1.067854e+01	1.803697e+02
2.390000e-06	1.383209e-06	2.663804e-09	9.607383e+00	1.733483e+02
2.400000e-06	1.228535e-06	2.557747e-09	8.533058e+00	1.660750e+02
2.410000e-06	1.073467e-06	2.445551e-09	7.456003e+00	1.585451e+02
2.420000e-06	9.181025e-07	2.325065e-09	6.376882e+00	1.507565e+02
2.430000e-06	7.624729e-07	2.197422e-09	5.295922e+00	1.427084e+02
2.440000e-06	6.065740e-07	2.071791e-09	4.213092e+00	1.343995e+02
2.450000e-06	4.504042e-07	1.946751e-09	3.128381e+00	1.258264e+02
2.460000e-06	2.940550e-07	1.816509e-09	2.042423e+00	1.169813e+02
2.470000e-06	1.376036e-07	1.676734e-09	9.557558e-01	1.078508e+02
2.480000e-06	-1.894662e-08	1.528355e-09	-1.315979e-01	9.841506e+01
2.490000e-06	-1.755395e-07	1.377146e-09	-1.219248e+00	8.864810e+01
2.500000e-06	-3.320373e-07	1.223279e-09	-2.306237e+00	7.851915e+01
2.510000e-06	-4.884326e-07	1.065568e-09	-3.392515e+00	6.799526e+01
2.520000e-06	-6.446913e-07	9.016302e-10	-4.477844e+00	5.704484e+01
2.530000e-06	-8.006775e-07	7.288531e-10	-5.561281e+00	4.564190e+01
2.540000e-06	-9.563903e-07	5.472552e-10	-6.642818e+00	3.377052e+01
2.550000e-06	-1.111802e-06	3.579704e-10	-7.722263e+00	2.142914e+01
2.560000e-06	-1.266873e-06	1.618893e-10	-8.799347e+00	8.634064e+00
2.570000e-06	-1.421601e-06	-4.295762e-11	-9.874043e+00	-4.578322e+00
2.580000e-06	-1.575894e-06	-2.524930e-10	-1.094572e+01	-1.815079e+01
2.590000e-06	-1.729571e-06	-4.622842e-10	-1.201312e+01	-3.200636e+01
2.600000e-06	-1.882471e-06	-6.757367e-10	-1.307512e+01	-4.605110e+01
2.610000e-06	-2.034609e-06	-8.945938e-10	-1.413182e+01	-6.017848e+01
2.620000e-06	-2.186005e-06	-1.116417e-09	-1.518338e+01	-7.427493e+01
2.630000e-06	-2.336566e-06	-1.336493e-09	-1.622913e+01	-8.822600e+01
2.640000e-06	-2.486186e-06	-1.551604e-09	-1.726835e+01	-1.019226e+02
2.650000e-06	-2.634852e-06	-1.757818e-09	-1.830094e+01	-1.152668e+02
2.660000e-06	-2.782564e-06	-1.952047e-09	-1.932690e+01	-1.281763e+02
2.670000e-06	-2.929289e-06	-2.136750e-09	-2.034602e+01	-1.405877e+02
2.680000e-06	-3.074979e-06	-2.316965e-09	-2.135794e+01	-1.524581e+02
2.690000e-06	-3.219495e-06	-2.492318e-09	-2.236170e+01	-1.637643e+02
2.700000e-06	-3.362769e-06	-2.657462e-09	-2.335685e+01	-1.745016e+02
2.710000e-06	-3.504692e-06	-2.812663e-09	-2.434261e+01	-1.846805e+02
2.720000e-06	-3.645185e-06	-2.958733e-09	-2.531843e+01	-1.943226e+02
2.730000e-06	-3.784368e-06	-3.097650e-09	-2.628516e+01	-2.034566e+02
2.740000e-06	-3.922198e-06	-3.230323e-09	-2.724248e+01	-2.121145e+02
2.750000e-06	-4.058544e-06	-3.357943e-09	-2.818950e+01	-2.203278e+02
2.760000e-06	-4.193384e-06	-3.480695e-09	-2.912606e+01	-2.281258e+02
2.770000e-06	-4.326718e-06	-3.594000e-09	-3.005217e+01	-2.355338e+02
2.780000e-06	-4.458591e-06	-3.700468e-09	-3.096812e+01	-2.425729e+02
2.790000e-06	-4.588980e-06	-3.802589e-09	-3.187377e+01	-2.492609e+02
2.800000e-06	-4.717751e-06	-3.900019e-09	-3.276817e+01	-2.556133e+02
2.810000e-06	-4.844872e-06	-3.991629e-09	-3.365112e+01	-2.616449e+02
2.820000e-06	-4.970289e-06	-4.077993e-09	-3.452223e+01	-2.673717e+02
2.830000e-06	-5.093946e-06	-4.160681e-09	-3.538112e+01	-2.728112e+02
2.840000e-06	-5.215836e-06	-4.240257e-09	-3.622773e+01	-2.779835e+02
2.850000e-06	-5.335775e-06	-4.315747e-09	-3.706079e+01	-2.829111e+02
2.860000e-06	-5.453632e-06	-4.386468e-09	-3.787939e+01	-2.876177e+02
2.870000e-06	-5.569345e-06	-4.455309e-09	-3.868310e+01	-2.921268e+02
2.880000e-06	-5.682807e-06	-4.521842e-09	-3.947118e+01	-2.964605e+02
2.890000e-06	-5.794029e-06	-4.585704e-09	-4.024369e+01	-3.006375e+02
2.900000e-06	-5.903147e-06	-4.649354e-09	-4.100160e+01	-3.046718e+02
2.910000e-06	-6.010232e-06	-4.713242e-09	-4.174538e+01	-3.085716e+02
2.920000e-06	-6.115156e-06	-4.774697e-09	-4.247416e+01	-3.123398e+02
2.930000e-06	-6.217757e-06	-4.831254e-09	-4.318679e+01	-3.159740e+02
2.940000e-06	-6.318046e-06	-4.882444e-09	-4.388337e+01	-3.194676e+02
