# Temperatura_=_74.35
# Concentracion g/m^3_=_15000.0
# C_Vs_to_Am_M_A/Vsm_=_65563218390.804596
# pendiente_HvsI_1/m_=_3716.3
# ordenada_HvsI_A/m_=_1297.0
# frecuencia_Hz_=_302331.3494883885

Tiempo_(s)	Campo_(V.s)	Magnetizacion_(V.s)	Campo_(kA/m)	Magnetizacion_(A/m)
0.000000e+00	-8.291103e-06	-9.820731e-09	-5.692429e+01	-6.423314e+02
1.000000e-08	-8.288643e-06	-9.818620e-09	-5.690741e+01	-6.420675e+02
2.000000e-08	-8.283422e-06	-9.814841e-09	-5.687156e+01	-6.417047e+02
3.000000e-08	-8.275570e-06	-9.806103e-09	-5.681765e+01	-6.412526e+02
4.000000e-08	-8.264827e-06	-9.795950e-09	-5.674389e+01	-6.407189e+02
5.000000e-08	-8.251081e-06	-9.784831e-09	-5.664951e+01	-6.401086e+02
6.000000e-08	-8.234408e-06	-9.774301e-09	-5.653504e+01	-6.394240e+02
7.000000e-08	-8.215174e-06	-9.763528e-09	-5.640299e+01	-6.386641e+02
8.000000e-08	-8.193550e-06	-9.752643e-09	-5.625453e+01	-6.378259e+02
9.000000e-08	-8.169026e-06	-9.737711e-09	-5.608615e+01	-6.369053e+02
1.000000e-07	-8.141195e-06	-9.747629e-09	-5.589507e+01	-6.358978e+02
1.100000e-07	-8.110160e-06	-9.730752e-09	-5.568200e+01	-6.348000e+02
1.200000e-07	-8.076098e-06	-9.690013e-09	-5.544814e+01	-6.336101e+02
1.300000e-07	-8.039217e-06	-9.658814e-09	-5.519492e+01	-6.323283e+02
1.400000e-07	-7.999850e-06	-9.643024e-09	-5.492464e+01	-6.309567e+02
1.500000e-07	-7.958070e-06	-9.609405e-09	-5.463779e+01	-6.294982e+02
1.600000e-07	-7.913809e-06	-9.538910e-09	-5.433390e+01	-6.279558e+02
1.700000e-07	-7.866815e-06	-9.584472e-09	-5.401126e+01	-6.263312e+02
1.800000e-07	-7.816801e-06	-9.519665e-09	-5.366788e+01	-6.246237e+02
1.900000e-07	-7.763794e-06	-9.466119e-09	-5.330394e+01	-6.228295e+02
2.000000e-07	-7.707833e-06	-9.505741e-09	-5.291973e+01	-6.209412e+02
2.100000e-07	-7.649060e-06	-9.443544e-09	-5.251622e+01	-6.189482e+02
2.200000e-07	-7.587674e-06	-9.418641e-09	-5.209476e+01	-6.168379e+02
2.300000e-07	-7.523590e-06	-9.367134e-09	-5.165477e+01	-6.145966e+02
2.400000e-07	-7.456673e-06	-9.320177e-09	-5.119534e+01	-6.122117e+02
2.500000e-07	-7.386958e-06	-9.266942e-09	-5.071670e+01	-6.096731e+02
2.600000e-07	-7.314305e-06	-9.220541e-09	-5.021788e+01	-6.069748e+02
2.700000e-07	-7.238633e-06	-9.212670e-09	-4.969834e+01	-6.041159e+02
2.800000e-07	-7.160104e-06	-9.151584e-09	-4.915919e+01	-6.011004e+02
2.900000e-07	-7.078837e-06	-9.097091e-09	-4.860123e+01	-5.979372e+02
3.000000e-07	-6.995082e-06	-9.048456e-09	-4.802620e+01	-5.946382e+02
3.100000e-07	-6.908944e-06	-9.004291e-09	-4.743480e+01	-5.912169e+02
3.200000e-07	-6.820242e-06	-8.956471e-09	-4.682579e+01	-5.876859e+02
3.300000e-07	-6.729035e-06	-8.888276e-09	-4.619959e+01	-5.840551e+02
3.400000e-07	-6.635480e-06	-8.845202e-09	-4.555727e+01	-5.803302e+02
3.500000e-07	-6.539480e-06	-8.781297e-09	-4.489816e+01	-5.765111e+02
3.600000e-07	-6.441064e-06	-8.723194e-09	-4.422247e+01	-5.725924e+02
3.700000e-07	-6.340389e-06	-8.663175e-09	-4.353127e+01	-5.685637e+02
3.800000e-07	-6.237383e-06	-8.601513e-09	-4.282405e+01	-5.644113e+02
3.900000e-07	-6.132020e-06	-8.531816e-09	-4.210066e+01	-5.601202e+02
4.000000e-07	-6.024502e-06	-8.450557e-09	-4.136247e+01	-5.556764e+02
4.100000e-07	-5.914999e-06	-8.386822e-09	-4.061066e+01	-5.510688e+02
4.200000e-07	-5.803400e-06	-8.317192e-09	-3.984445e+01	-5.462909e+02
4.300000e-07	-5.689507e-06	-8.245859e-09	-3.906250e+01	-5.413416e+02
4.400000e-07	-5.573381e-06	-8.158445e-09	-3.826521e+01	-5.362249e+02
4.500000e-07	-5.455148e-06	-8.078877e-09	-3.745346e+01	-5.309487e+02
4.600000e-07	-5.334867e-06	-7.998521e-09	-3.662764e+01	-5.255232e+02
4.700000e-07	-5.212761e-06	-7.917458e-09	-3.578930e+01	-5.199582e+02
4.800000e-07	-5.088879e-06	-7.836686e-09	-3.493876e+01	-5.142606e+02
4.900000e-07	-4.963187e-06	-7.749857e-09	-3.407579e+01	-5.084329e+02
5.000000e-07	-4.835679e-06	-7.656291e-09	-3.320036e+01	-5.024708e+02
5.100000e-07	-4.706365e-06	-7.556403e-09	-3.231253e+01	-4.963639e+02
5.200000e-07	-4.575359e-06	-7.462931e-09	-3.141308e+01	-4.900954e+02
5.300000e-07	-4.442630e-06	-7.361458e-09	-3.050180e+01	-4.836445e+02
5.400000e-07	-4.308312e-06	-7.253285e-09	-2.957961e+01	-4.769883e+02
5.500000e-07	-4.172369e-06	-7.140901e-09	-2.864627e+01	-4.701051e+02
5.600000e-07	-4.034710e-06	-7.035312e-09	-2.770114e+01	-4.629768e+02
5.700000e-07	-3.895482e-06	-6.928200e-09	-2.674524e+01	-4.555915e+02
5.800000e-07	-3.754556e-06	-6.812085e-09	-2.577769e+01	-4.479442e+02
5.900000e-07	-3.611979e-06	-6.694864e-09	-2.479879e+01	-4.400371e+02
6.000000e-07	-3.468054e-06	-6.574858e-09	-2.381065e+01	-4.318781e+02
6.100000e-07	-3.322905e-06	-6.449283e-09	-2.281410e+01	-4.234787e+02
6.200000e-07	-3.176591e-06	-6.315668e-09	-2.180954e+01	-4.148501e+02
6.300000e-07	-3.029168e-06	-6.180206e-09	-2.079738e+01	-4.060005e+02
6.400000e-07	-2.880673e-06	-6.038612e-09	-1.977786e+01	-3.969310e+02
6.500000e-07	-2.731218e-06	-5.890241e-09	-1.875174e+01	-3.876341e+02
6.600000e-07	-2.580840e-06	-5.737821e-09	-1.771930e+01	-3.780920e+02
6.700000e-07	-2.429491e-06	-5.584762e-09	-1.668018e+01	-3.682775e+02
6.800000e-07	-2.277258e-06	-5.432247e-09	-1.563499e+01	-3.581560e+02
6.900000e-07	-2.124185e-06	-5.276925e-09	-1.458404e+01	-3.476890e+02
7.000000e-07	-1.970323e-06	-5.114558e-09	-1.352766e+01	-3.368382e+02
7.100000e-07	-1.815814e-06	-4.942146e-09	-1.246685e+01	-3.255701e+02
7.200000e-07	-1.660761e-06	-4.761497e-09	-1.140230e+01	-3.138596e+02
7.300000e-07	-1.505183e-06	-4.574882e-09	-1.033415e+01	-3.016924e+02
7.400000e-07	-1.349065e-06	-4.383961e-09	-9.262288e+00	-2.890656e+02
7.500000e-07	-1.192401e-06	-4.182360e-09	-8.186680e+00	-2.759862e+02
7.600000e-07	-1.035309e-06	-3.975358e-09	-7.108132e+00	-2.624668e+02
7.700000e-07	-8.779321e-07	-3.767288e-09	-6.027626e+00	-2.485203e+02
7.800000e-07	-7.203421e-07	-3.554013e-09	-4.945659e+00	-2.341534e+02
7.900000e-07	-5.625546e-07	-3.330104e-09	-3.862336e+00	-2.193595e+02
8.000000e-07	-4.045905e-07	-3.094967e-09	-2.777800e+00	-2.041135e+02
8.100000e-07	-2.465371e-07	-2.851806e-09	-1.692652e+00	-1.883675e+02
8.200000e-07	-8.835735e-08	-2.599190e-09	-6.066358e-01	-1.720507e+02
8.300000e-07	6.998246e-08	-2.337580e-09	4.804792e-01	-1.550718e+02
8.400000e-07	2.283608e-07	-2.064575e-09	1.567858e+00	-1.373256e+02
8.500000e-07	3.866153e-07	-1.778040e-09	2.654388e+00	-1.187027e+02
8.600000e-07	5.446973e-07	-1.477948e-09	3.739733e+00	-9.910141e+01
8.700000e-07	7.026525e-07	-1.166462e-09	4.824208e+00	-7.844136e+01
8.800000e-07	8.604411e-07	-8.420251e-10	5.907538e+00	-5.667650e+01
8.900000e-07	1.018017e-06	-5.002325e-10	6.989405e+00	-3.380653e+01
9.000000e-07	1.175333e-06	-1.409443e-10	8.069493e+00	-9.885107e+00
9.100000e-07	1.332288e-06	2.337986e-10	9.147102e+00	1.497637e+01
9.200000e-07	1.488744e-06	6.230810e-10	1.022128e+01	4.060991e+01
9.300000e-07	1.644647e-06	1.028395e-09	1.129167e+01	6.679737e+01
9.400000e-07	1.799944e-06	1.442246e-09	1.235789e+01	9.328159e+01
9.500000e-07	1.954606e-06	1.854435e-09	1.341975e+01	1.197813e+02
9.600000e-07	2.108610e-06	2.258275e-09	1.447710e+01	1.460087e+02
9.700000e-07	2.261819e-06	2.648467e-09	1.552899e+01	1.716871e+02
9.800000e-07	2.414157e-06	3.022621e-09	1.657490e+01	1.965680e+02
9.900000e-07	2.565452e-06	3.378245e-09	1.761364e+01	2.204456e+02
1.000000e-06	2.715640e-06	3.715845e-09	1.864479e+01	2.431668e+02
1.010000e-06	2.864766e-06	4.037559e-09	1.966865e+01	2.646364e+02
1.020000e-06	3.012834e-06	4.341275e-09	2.068524e+01	2.848174e+02
1.030000e-06	3.159847e-06	4.626216e-09	2.169459e+01	3.037263e+02
1.040000e-06	3.305709e-06	4.895868e-09	2.269604e+01	3.214241e+02
1.050000e-06	3.450393e-06	5.150573e-09	2.368939e+01	3.380044e+02
1.060000e-06	3.593838e-06	5.389924e-09	2.467424e+01	3.535802e+02
1.070000e-06	3.735947e-06	5.613827e-09	2.564992e+01	3.682708e+02
1.080000e-06	3.876607e-06	5.825757e-09	2.661566e+01	3.821900e+02
1.090000e-06	4.015796e-06	6.028762e-09	2.757129e+01	3.954367e+02
1.100000e-06	4.153490e-06	6.220661e-09	2.851665e+01	4.080889e+02
1.110000e-06	4.289537e-06	6.403646e-09	2.945071e+01	4.202020e+02
1.120000e-06	4.423982e-06	6.580835e-09	3.037377e+01	4.318088e+02
1.130000e-06	4.556868e-06	6.752251e-09	3.128613e+01	4.429240e+02
1.140000e-06	4.688248e-06	6.915437e-09	3.218814e+01	4.535492e+02
1.150000e-06	4.818036e-06	7.068422e-09	3.307923e+01	4.636799e+02
1.160000e-06	4.946018e-06	7.213832e-09	3.395792e+01	4.733114e+02
1.170000e-06	5.072248e-06	7.351356e-09	3.482458e+01	4.824440e+02
1.180000e-06	5.196781e-06	7.480190e-09	3.567958e+01	4.910869e+02
1.190000e-06	5.319551e-06	7.602535e-09	3.652249e+01	4.992595e+02
1.200000e-06	5.440428e-06	7.720428e-09	3.735239e+01	5.069911e+02
1.210000e-06	5.559269e-06	7.832938e-09	3.816832e+01	5.143186e+02
1.220000e-06	5.676048e-06	7.939314e-09	3.897009e+01	5.212834e+02
1.230000e-06	5.790620e-06	8.040887e-09	3.975671e+01	5.279271e+02
1.240000e-06	5.902854e-06	8.138185e-09	4.052728e+01	5.342886e+02
1.250000e-06	6.012919e-06	8.231312e-09	4.128295e+01	5.404003e+02
1.260000e-06	6.120911e-06	8.321277e-09	4.202439e+01	5.462866e+02
1.270000e-06	6.226705e-06	8.409278e-09	4.275074e+01	5.519635e+02
1.280000e-06	6.330151e-06	8.492847e-09	4.346097e+01	5.574388e+02
1.290000e-06	6.431255e-06	8.571507e-09	4.415512e+01	5.627146e+02
1.300000e-06	6.530068e-06	8.646719e-09	4.483354e+01	5.677894e+02
1.310000e-06	6.626424e-06	8.719784e-09	4.549510e+01	5.726603e+02
1.320000e-06	6.720311e-06	8.789343e-09	4.613969e+01	5.773262e+02
1.330000e-06	6.811835e-06	8.854923e-09	4.676808e+01	5.817889e+02
1.340000e-06	6.900915e-06	8.919177e-09	4.737967e+01	5.860538e+02
1.350000e-06	6.987511e-06	8.982015e-09	4.797422e+01	5.901303e+02
1.360000e-06	7.071655e-06	9.042625e-09	4.855192e+01	5.940302e+02
1.370000e-06	7.153317e-06	9.101094e-09	4.911259e+01	5.977663e+02
1.380000e-06	7.232429e-06	9.156739e-09	4.965575e+01	6.013504e+02
1.390000e-06	7.308887e-06	9.207967e-09	5.018069e+01	6.047919e+02
1.400000e-06	7.382623e-06	9.254591e-09	5.068694e+01	6.080958e+02
1.410000e-06	7.453640e-06	9.300464e-09	5.117452e+01	6.112624e+02
1.420000e-06	7.522028e-06	9.345801e-09	5.164405e+01	6.142878e+02
1.430000e-06	7.587779e-06	9.387941e-09	5.209548e+01	6.171643e+02
1.440000e-06	7.650814e-06	9.426676e-09	5.252826e+01	6.198822e+02
1.450000e-06	7.711230e-06	9.464605e-09	5.294306e+01	6.224318e+02
1.460000e-06	7.768981e-06	9.501670e-09	5.333956e+01	6.248054e+02
1.470000e-06	7.823940e-06	9.532748e-09	5.371689e+01	6.269986e+02
1.480000e-06	7.875905e-06	9.559470e-09	5.407367e+01	6.290118e+02
1.490000e-06	7.924677e-06	9.586335e-09	5.440852e+01	6.308502e+02
1.500000e-06	7.970479e-06	9.613464e-09	5.472299e+01	6.325233e+02
1.510000e-06	8.013503e-06	9.639944e-09	5.501837e+01	6.340441e+02
1.520000e-06	8.053610e-06	9.663944e-09	5.529374e+01	6.354269e+02
1.530000e-06	8.090846e-06	9.684072e-09	5.554939e+01	6.366857e+02
1.540000e-06	8.125299e-06	9.700161e-09	5.578593e+01	6.378327e+02
1.550000e-06	8.156849e-06	9.714213e-09	5.600255e+01	6.388763e+02
1.560000e-06	8.185506e-06	9.728561e-09	5.619930e+01	6.398208e+02
1.570000e-06	8.211209e-06	9.741307e-09	5.637576e+01	6.406661e+02
1.580000e-06	8.233878e-06	9.751296e-09	5.653141e+01	6.414085e+02
1.590000e-06	8.253681e-06	9.761403e-09	5.666737e+01	6.420417e+02
1.600000e-06	8.270513e-06	9.772182e-09	5.678293e+01	6.425584e+02
1.610000e-06	8.284203e-06	9.779648e-09	5.687692e+01	6.429521e+02
1.620000e-06	8.294718e-06	9.783781e-09	5.694911e+01	6.432182e+02
1.630000e-06	8.302098e-06	9.785573e-09	5.699978e+01	6.433556e+02
1.640000e-06	8.306583e-06	9.787307e-09	5.703058e+01	6.433664e+02
1.650000e-06	8.308174e-06	9.788303e-09	5.704150e+01	6.432563e+02
1.660000e-06	8.306855e-06	9.787158e-09	5.703244e+01	6.430337e+02
1.670000e-06	8.302777e-06	9.779937e-09	5.700445e+01	6.427084e+02
1.680000e-06	8.295833e-06	9.774097e-09	5.695677e+01	6.422901e+02
1.690000e-06	8.286086e-06	9.767841e-09	5.688985e+01	6.417874e+02
1.700000e-06	8.273528e-06	9.761164e-09	5.680363e+01	6.412066e+02
1.710000e-06	8.258044e-06	9.753828e-09	5.669732e+01	6.405509e+02
1.720000e-06	8.239971e-06	9.742358e-09	5.657324e+01	6.398206e+02
1.730000e-06	8.219536e-06	9.723393e-09	5.643294e+01	6.390135e+02
1.740000e-06	8.196299e-06	9.698406e-09	5.627340e+01	6.381256e+02
1.750000e-06	8.169487e-06	9.661377e-09	5.608932e+01	6.371525e+02
1.760000e-06	8.138812e-06	9.659488e-09	5.587871e+01	6.360902e+02
1.770000e-06	8.104912e-06	9.656488e-09	5.564597e+01	6.349363e+02
1.780000e-06	8.068575e-06	9.638334e-09	5.539649e+01	6.336903e+02
1.790000e-06	8.029873e-06	9.621270e-09	5.513077e+01	6.323534e+02
1.800000e-06	7.989019e-06	9.657891e-09	5.485027e+01	6.309285e+02
1.810000e-06	7.946066e-06	9.588312e-09	5.455537e+01	6.294185e+02
1.820000e-06	7.900338e-06	9.550090e-09	5.424142e+01	6.278259e+02
1.830000e-06	7.851748e-06	9.586917e-09	5.390781e+01	6.261510e+02
1.840000e-06	7.800223e-06	9.502418e-09	5.355406e+01	6.243914e+02
1.850000e-06	7.745538e-06	9.506333e-09	5.317860e+01	6.225409e+02
1.860000e-06	7.688035e-06	9.441159e-09	5.278381e+01	6.205903e+02
1.870000e-06	7.627672e-06	9.427978e-09	5.236937e+01	6.185275e+02
1.880000e-06	7.564457e-06	9.430071e-09	5.193536e+01	6.163390e+02
1.890000e-06	7.498464e-06	9.373355e-09	5.148227e+01	6.140117e+02
1.900000e-06	7.429475e-06	9.394066e-09	5.100861e+01	6.115342e+02
1.910000e-06	7.357590e-06	9.286421e-09	5.051507e+01	6.088988e+02
1.920000e-06	7.282876e-06	9.233559e-09	5.000210e+01	6.061026e+02
1.930000e-06	7.205298e-06	9.207130e-09	4.946948e+01	6.031476e+02
1.940000e-06	7.124923e-06	9.165374e-09	4.891764e+01	6.000409e+02
1.950000e-06	7.042021e-06	9.140958e-09	4.834847e+01	5.967935e+02
1.960000e-06	6.956589e-06	9.058288e-09	4.776191e+01	5.934183e+02
1.970000e-06	6.868404e-06	9.026894e-09	4.715646e+01	5.899288e+02
1.980000e-06	6.777731e-06	8.945532e-09	4.653393e+01	5.863361e+02
1.990000e-06	6.684664e-06	8.895206e-09	4.589496e+01	5.826477e+02
2.000000e-06	6.589221e-06	8.855458e-09	4.523967e+01	5.788657e+02
2.010000e-06	6.491500e-06	8.792930e-09	4.456875e+01	5.749869e+02
2.020000e-06	6.391533e-06	8.724899e-09	4.388240e+01	5.710027e+02
2.030000e-06	6.289176e-06	8.645370e-09	4.317965e+01	5.669004e+02
2.040000e-06	6.184438e-06	8.600767e-09	4.246055e+01	5.626654e+02
2.050000e-06	6.077616e-06	8.529754e-09	4.172714e+01	5.582829e+02
2.060000e-06	5.968720e-06	8.456834e-09	4.097949e+01	5.537404e+02
2.070000e-06	5.857740e-06	8.378280e-09	4.021753e+01	5.490297e+02
2.080000e-06	5.744618e-06	8.311951e-09	3.944088e+01	5.441473e+02
2.090000e-06	5.629275e-06	8.235621e-09	3.864896e+01	5.390954e+02
2.100000e-06	5.511713e-06	8.161114e-09	3.784181e+01	5.338805e+02
2.110000e-06	5.392111e-06	8.087420e-09	3.702066e+01	5.285122e+02
2.120000e-06	5.270589e-06	7.997210e-09	3.618633e+01	5.230007e+02
2.130000e-06	5.147230e-06	7.899139e-09	3.533938e+01	5.173544e+02
2.140000e-06	5.021988e-06	7.806090e-09	3.447951e+01	5.115777e+02
2.150000e-06	4.894821e-06	7.729018e-09	3.360641e+01	5.056691e+02
2.160000e-06	4.765910e-06	7.641919e-09	3.272135e+01	4.996206e+02
2.170000e-06	4.635362e-06	7.548859e-09	3.182505e+01	4.934177e+02
2.180000e-06	4.503096e-06	7.445125e-09	3.091694e+01	4.870408e+02
2.190000e-06	4.369094e-06	7.345475e-09	2.999692e+01	4.804678e+02
2.200000e-06	4.233537e-06	7.240879e-09	2.906623e+01	4.736759e+02
2.210000e-06	4.096380e-06	7.135797e-09	2.812455e+01	4.666455e+02
2.220000e-06	3.957583e-06	7.024456e-09	2.717161e+01	4.593620e+02
2.230000e-06	3.817111e-06	6.904527e-09	2.620717e+01	4.518175e+02
2.240000e-06	3.675141e-06	6.779306e-09	2.523245e+01	4.440116e+02
2.250000e-06	3.531820e-06	6.656825e-09	2.424845e+01	4.359501e+02
2.260000e-06	3.387181e-06	6.538982e-09	2.325540e+01	4.276435e+02
2.270000e-06	3.241374e-06	6.417123e-09	2.225433e+01	4.191035e+02
2.280000e-06	3.094438e-06	6.287721e-09	2.124551e+01	4.103399e+02
2.290000e-06	2.946259e-06	6.148164e-09	2.022815e+01	4.013569e+02
2.300000e-06	2.796921e-06	6.006165e-09	1.920285e+01	3.921507e+02
2.310000e-06	2.646673e-06	5.864086e-09	1.817129e+01	3.827074e+02
2.320000e-06	2.495547e-06	5.718658e-09	1.713370e+01	3.730035e+02
2.330000e-06	2.343640e-06	5.561474e-09	1.609075e+01	3.630069e+02
2.340000e-06	2.190961e-06	5.396573e-09	1.504250e+01	3.526801e+02
2.350000e-06	2.037470e-06	5.230042e-09	1.398868e+01	3.419842e+02
2.360000e-06	1.883345e-06	5.064836e-09	1.293049e+01	3.308833e+02
2.370000e-06	1.728668e-06	4.895073e-09	1.186853e+01	3.193487e+02
2.380000e-06	1.573461e-06	4.714649e-09	1.080292e+01	3.073617e+02
2.390000e-06	1.417657e-06	4.523101e-09	9.733220e+00	2.949149e+02
2.400000e-06	1.261254e-06	4.323317e-09	8.659405e+00	2.820118e+02
2.410000e-06	1.104411e-06	4.122104e-09	7.582564e+00	2.686634e+02
2.420000e-06	9.471880e-07	3.918834e-09	6.503117e+00	2.548831e+02
2.430000e-06	7.896187e-07	3.705190e-09	5.421292e+00	2.406811e+02
2.440000e-06	6.317627e-07	3.480281e-09	4.337498e+00	2.260566e+02
2.450000e-06	4.736758e-07	3.245895e-09	3.252120e+00	2.109924e+02
2.460000e-06	3.153911e-07	3.005148e-09	2.165384e+00	1.954498e+02
2.470000e-06	1.569465e-07	2.759699e-09	1.077549e+00	1.793668e+02
2.480000e-06	-1.562434e-09	2.504587e-09	-1.072721e-02	1.626598e+02
2.490000e-06	-1.600866e-07	2.235228e-09	-1.099108e+00	1.452279e+02
2.500000e-06	-3.185858e-07	1.951372e-09	-2.187317e+00	1.269620e+02
2.510000e-06	-4.769594e-07	1.655671e-09	-3.274664e+00	1.077560e+02
2.520000e-06	-6.352053e-07	1.349018e-09	-4.361135e+00	8.751932e+01
2.530000e-06	-7.932620e-07	1.028911e-09	-5.446305e+00	6.619107e+01
2.540000e-06	-9.510111e-07	6.910536e-10	-6.529365e+00	4.375176e+01
2.550000e-06	-1.108436e-06	3.350273e-10	-7.610198e+00	2.023313e+01
2.560000e-06	-1.265485e-06	-3.678100e-11	-8.688448e+00	-4.276250e+00
2.570000e-06	-1.422038e-06	-4.225001e-10	-9.763297e+00	-2.963014e+01
2.580000e-06	-1.577997e-06	-8.186847e-10	-1.083407e+01	-5.562901e+01
2.590000e-06	-1.733325e-06	-1.223168e-09	-1.190050e+01	-8.202944e+01
2.600000e-06	-1.887993e-06	-1.633606e-09	-1.296241e+01	-1.085577e+02
2.610000e-06	-2.041957e-06	-2.044521e-09	-1.401948e+01	-1.349263e+02
2.620000e-06	-2.195142e-06	-2.447327e-09	-1.507121e+01	-1.608521e+02
2.630000e-06	-2.347451e-06	-2.835981e-09	-1.611692e+01	-1.860737e+02
2.640000e-06	-2.498886e-06	-3.207430e-09	-1.715662e+01	-2.103671e+02
2.650000e-06	-2.649399e-06	-3.561057e-09	-1.819000e+01	-2.335574e+02
2.660000e-06	-2.798954e-06	-3.894836e-09	-1.921680e+01	-2.555265e+02
2.670000e-06	-2.947478e-06	-4.205329e-09	-2.023653e+01	-2.762147e+02
2.680000e-06	-3.094815e-06	-4.495557e-09	-2.124810e+01	-2.956186e+02
2.690000e-06	-3.240986e-06	-4.770292e-09	-2.225167e+01	-3.137828e+02
2.700000e-06	-3.386034e-06	-5.032131e-09	-2.324752e+01	-3.307895e+02
2.710000e-06	-3.529871e-06	-5.281533e-09	-2.423507e+01	-3.467460e+02
2.720000e-06	-3.672356e-06	-5.517852e-09	-2.521332e+01	-3.617705e+02
2.730000e-06	-3.813413e-06	-5.743019e-09	-2.618178e+01	-3.759802e+02
2.740000e-06	-3.952945e-06	-5.954295e-09	-2.713977e+01	-3.894807e+02
2.750000e-06	-4.090941e-06	-6.154297e-09	-2.808721e+01	-4.023589e+02
2.760000e-06	-4.227462e-06	-6.345351e-09	-2.902452e+01	-4.146789e+02
2.770000e-06	-4.362510e-06	-6.521828e-09	-2.995172e+01	-4.264821e+02
2.780000e-06	-4.496105e-06	-6.685951e-09	-3.086895e+01	-4.377899e+02
2.790000e-06	-4.628105e-06	-6.843072e-09	-3.177522e+01	-4.486082e+02
2.800000e-06	-4.758488e-06	-6.997018e-09	-3.267039e+01	-4.589341e+02
2.810000e-06	-4.887292e-06	-7.146030e-09	-3.355472e+01	-4.687622e+02
2.820000e-06	-5.014400e-06	-7.289310e-09	-3.442741e+01	-4.780905e+02
2.830000e-06	-5.139714e-06	-7.428196e-09	-3.528777e+01	-4.869242e+02
2.840000e-06	-5.263139e-06	-7.560572e-09	-3.613518e+01	-4.952789e+02
2.850000e-06	-5.384679e-06	-7.684204e-09	-3.696963e+01	-5.031799e+02
2.860000e-06	-5.504328e-06	-7.800850e-09	-3.779111e+01	-5.106616e+02
2.870000e-06	-5.621838e-06	-7.911347e-09	-3.859790e+01	-5.177640e+02
2.880000e-06	-5.736988e-06	-8.014336e-09	-3.938849e+01	-5.245293e+02
2.890000e-06	-5.849842e-06	-8.111545e-09	-4.016331e+01	-5.309976e+02
2.900000e-06	-5.960472e-06	-8.205403e-09	-4.092287e+01	-5.372042e+02
2.910000e-06	-6.068927e-06	-8.297890e-09	-4.166748e+01	-5.431770e+02
2.920000e-06	-6.175300e-06	-8.388498e-09	-4.239781e+01	-5.489349e+02
2.930000e-06	-6.279463e-06	-8.475697e-09	-4.311296e+01	-5.544891e+02
2.940000e-06	-6.381176e-06	-8.556847e-09	-4.381129e+01	-5.598436e+02
