# Temperatura_=_31.43
# Concentracion g/m^3_=_15000.0
# C_Vs_to_Am_M_A/Vsm_=_65563218390.804596
# pendiente_HvsI_1/m_=_3716.3
# ordenada_HvsI_A/m_=_1297.0
# frecuencia_Hz_=_302315.99326004955

Tiempo_(s)	Campo_(V.s)	Magnetizacion_(V.s)	Campo_(kA/m)	Magnetizacion_(A/m)
0.000000e+00	-8.177451e-06	-5.678821e-09	-5.693148e+01	-3.712105e+02
1.000000e-08	-8.174895e-06	-5.679957e-09	-5.691368e+01	-3.710408e+02
2.000000e-08	-8.169656e-06	-5.680532e-09	-5.687721e+01	-3.708092e+02
3.000000e-08	-8.161784e-06	-5.675312e-09	-5.682240e+01	-3.705246e+02
4.000000e-08	-8.151063e-06	-5.670796e-09	-5.674777e+01	-3.701963e+02
5.000000e-08	-8.137405e-06	-5.664644e-09	-5.665268e+01	-3.698325e+02
6.000000e-08	-8.120832e-06	-5.656652e-09	-5.653730e+01	-3.694396e+02
7.000000e-08	-8.101732e-06	-5.646534e-09	-5.640432e+01	-3.690211e+02
8.000000e-08	-8.080266e-06	-5.625782e-09	-5.625487e+01	-3.685777e+02
9.000000e-08	-8.055984e-06	-5.638658e-09	-5.608582e+01	-3.681068e+02
1.000000e-07	-8.028502e-06	-5.681555e-09	-5.589450e+01	-3.676037e+02
1.100000e-07	-7.997858e-06	-5.647158e-09	-5.568115e+01	-3.670616e+02
1.200000e-07	-7.964213e-06	-5.602606e-09	-5.544691e+01	-3.664732e+02
1.300000e-07	-7.927752e-06	-5.586179e-09	-5.519307e+01	-3.658311e+02
1.400000e-07	-7.888871e-06	-5.565535e-09	-5.492238e+01	-3.651291e+02
1.500000e-07	-7.847675e-06	-5.530709e-09	-5.463557e+01	-3.643624e+02
1.600000e-07	-7.804032e-06	-5.543894e-09	-5.433173e+01	-3.635283e+02
1.700000e-07	-7.757683e-06	-5.590063e-09	-5.400905e+01	-3.626259e+02
1.800000e-07	-7.708401e-06	-5.476451e-09	-5.366595e+01	-3.616556e+02
1.900000e-07	-7.656095e-06	-5.498624e-09	-5.330180e+01	-3.606192e+02
2.000000e-07	-7.600839e-06	-5.515027e-09	-5.291710e+01	-3.595187e+02
2.100000e-07	-7.542820e-06	-5.445062e-09	-5.251317e+01	-3.583560e+02
2.200000e-07	-7.482143e-06	-5.477561e-09	-5.209074e+01	-3.571322e+02
2.300000e-07	-7.418836e-06	-5.440079e-09	-5.165000e+01	-3.558476e+02
2.400000e-07	-7.352728e-06	-5.418439e-09	-5.118975e+01	-3.545014e+02
2.500000e-07	-7.283787e-06	-5.366461e-09	-5.070979e+01	-3.530919e+02
2.600000e-07	-7.212092e-06	-5.352848e-09	-5.021064e+01	-3.516171e+02
2.700000e-07	-7.137503e-06	-5.355167e-09	-4.969135e+01	-3.500747e+02
2.800000e-07	-7.060064e-06	-5.306649e-09	-4.915222e+01	-3.484629e+02
2.900000e-07	-6.979834e-06	-5.283604e-09	-4.859366e+01	-3.467805e+02
3.000000e-07	-6.897008e-06	-5.254942e-09	-4.801702e+01	-3.450269e+02
3.100000e-07	-6.811864e-06	-5.249513e-09	-4.742425e+01	-3.432025e+02
3.200000e-07	-6.724263e-06	-5.208683e-09	-4.681437e+01	-3.413080e+02
3.300000e-07	-6.634142e-06	-5.163954e-09	-4.618695e+01	-3.393445e+02
3.400000e-07	-6.541630e-06	-5.146870e-09	-4.554288e+01	-3.373127e+02
3.500000e-07	-6.446830e-06	-5.100721e-09	-4.488288e+01	-3.352125e+02
3.600000e-07	-6.349714e-06	-5.070389e-09	-4.420676e+01	-3.330430e+02
3.700000e-07	-6.250234e-06	-5.046291e-09	-4.351418e+01	-3.308022e+02
3.800000e-07	-6.148501e-06	-5.023915e-09	-4.280591e+01	-3.284873e+02
3.900000e-07	-6.044558e-06	-4.970539e-09	-4.208226e+01	-3.260945e+02
4.000000e-07	-5.938449e-06	-4.916673e-09	-4.134353e+01	-3.236200e+02
4.100000e-07	-5.830291e-06	-4.884221e-09	-4.059053e+01	-3.210605e+02
4.200000e-07	-5.720101e-06	-4.848719e-09	-3.982339e+01	-3.184133e+02
4.300000e-07	-5.607751e-06	-4.813314e-09	-3.904121e+01	-3.156768e+02
4.400000e-07	-5.493219e-06	-4.768652e-09	-3.824383e+01	-3.128509e+02
4.500000e-07	-5.376625e-06	-4.728603e-09	-3.743210e+01	-3.099364e+02
4.600000e-07	-5.258043e-06	-4.677373e-09	-3.660653e+01	-3.069349e+02
4.700000e-07	-5.137603e-06	-4.626704e-09	-3.576803e+01	-3.038481e+02
4.800000e-07	-5.015346e-06	-4.580589e-09	-3.491687e+01	-3.006770e+02
4.900000e-07	-4.891234e-06	-4.532386e-09	-3.405281e+01	-2.974210e+02
5.000000e-07	-4.765369e-06	-4.477431e-09	-3.317653e+01	-2.940779e+02
5.100000e-07	-4.637803e-06	-4.421481e-09	-3.228842e+01	-2.906430e+02
5.200000e-07	-4.508530e-06	-4.371752e-09	-3.138842e+01	-2.871091e+02
5.300000e-07	-4.377502e-06	-4.316690e-09	-3.047620e+01	-2.834675e+02
5.400000e-07	-4.244863e-06	-4.255798e-09	-2.955277e+01	-2.797080e+02
5.500000e-07	-4.110771e-06	-4.192842e-09	-2.861922e+01	-2.758204e+02
5.600000e-07	-3.975095e-06	-4.132703e-09	-2.767464e+01	-2.717951e+02
5.700000e-07	-3.837854e-06	-4.071477e-09	-2.671917e+01	-2.676245e+02
5.800000e-07	-3.699076e-06	-4.006672e-09	-2.575299e+01	-2.633034e+02
5.900000e-07	-3.558694e-06	-3.939486e-09	-2.477565e+01	-2.588295e+02
6.000000e-07	-3.416805e-06	-3.867673e-09	-2.378782e+01	-2.542030e+02
6.100000e-07	-3.273621e-06	-3.794106e-09	-2.279098e+01	-2.494262e+02
6.200000e-07	-3.129177e-06	-3.718972e-09	-2.178536e+01	-2.445026e+02
6.300000e-07	-2.983518e-06	-3.644533e-09	-2.077128e+01	-2.394350e+02
6.400000e-07	-2.836853e-06	-3.566857e-09	-1.975019e+01	-2.342249e+02
6.500000e-07	-2.689228e-06	-3.481183e-09	-1.872242e+01	-2.288706e+02
6.600000e-07	-2.540707e-06	-3.390574e-09	-1.768842e+01	-2.233666e+02
6.700000e-07	-2.391448e-06	-3.300199e-09	-1.664928e+01	-2.177037e+02
6.800000e-07	-2.241435e-06	-3.211681e-09	-1.560488e+01	-2.118684e+02
6.900000e-07	-2.090592e-06	-3.121725e-09	-1.455472e+01	-2.058445e+02
7.000000e-07	-1.938935e-06	-3.028713e-09	-1.349888e+01	-1.996142e+02
7.100000e-07	-1.786563e-06	-2.931250e-09	-1.243807e+01	-1.931599e+02
7.200000e-07	-1.633607e-06	-2.830835e-09	-1.137319e+01	-1.864657e+02
7.300000e-07	-1.480218e-06	-2.723743e-09	-1.030529e+01	-1.795186e+02
7.400000e-07	-1.326405e-06	-2.611806e-09	-9.234443e+00	-1.723099e+02
7.500000e-07	-1.172058e-06	-2.494577e-09	-8.159874e+00	-1.648348e+02
7.600000e-07	-1.017212e-06	-2.374330e-09	-7.081841e+00	-1.570918e+02
7.700000e-07	-8.619832e-07	-2.255666e-09	-6.001133e+00	-1.490812e+02
7.800000e-07	-7.064258e-07	-2.132980e-09	-4.918142e+00	-1.408030e+02
7.900000e-07	-5.505833e-07	-2.003337e-09	-3.833166e+00	-1.322543e+02
8.000000e-07	-3.945635e-07	-1.865425e-09	-2.746954e+00	-1.234269e+02
8.100000e-07	-2.384157e-07	-1.724249e-09	-1.659852e+00	-1.143057e+02
8.200000e-07	-8.214883e-08	-1.580283e-09	-5.719208e-01	-1.048674e+02
8.300000e-07	7.419946e-08	-1.432675e-09	5.165772e-01	-9.508069e+01
8.400000e-07	2.305973e-07	-1.277873e-09	1.605420e+00	-8.490826e+01
8.500000e-07	3.869421e-07	-1.112829e-09	2.693894e+00	-7.430939e+01
8.600000e-07	5.431083e-07	-9.401906e-10	3.781124e+00	-6.324436e+01
8.700000e-07	6.991327e-07	-7.615930e-10	4.867367e+00	-5.167946e+01
8.800000e-07	8.550022e-07	-5.790311e-10	5.952532e+00	-3.959232e+01
8.900000e-07	1.010548e-06	-3.898924e-10	7.035443e+00	-2.697702e+01
9.000000e-07	1.165711e-06	-1.925115e-10	8.115691e+00	-1.384826e+01
9.100000e-07	1.320450e-06	1.177475e-11	9.192981e+00	-2.440705e-01
9.200000e-07	1.474674e-06	2.202888e-10	1.026669e+01	1.377323e+01
9.300000e-07	1.628334e-06	4.359173e-10	1.133647e+01	2.811826e+01
9.400000e-07	1.781365e-06	6.595369e-10	1.240188e+01	4.268586e+01
9.500000e-07	1.933795e-06	8.862096e-10	1.346309e+01	5.735609e+01
9.600000e-07	2.085522e-06	1.111053e-09	1.451942e+01	7.200078e+01
9.700000e-07	2.236382e-06	1.331375e-09	1.556971e+01	8.649067e+01
9.800000e-07	2.386351e-06	1.545976e-09	1.661379e+01	1.007028e+02
9.900000e-07	2.535434e-06	1.753578e-09	1.765171e+01	1.145271e+02
1.000000e-06	2.683607e-06	1.953266e-09	1.868329e+01	1.278718e+02
1.010000e-06	2.830820e-06	2.144479e-09	1.970819e+01	1.406672e+02
1.020000e-06	2.976982e-06	2.327828e-09	2.072577e+01	1.528674e+02
1.030000e-06	3.122020e-06	2.502402e-09	2.173553e+01	1.644497e+02
1.040000e-06	3.265887e-06	2.669085e-09	2.273713e+01	1.754126e+02
1.050000e-06	3.408496e-06	2.828921e-09	2.372998e+01	1.857721e+02
1.060000e-06	3.549785e-06	2.979727e-09	2.471363e+01	1.955570e+02
1.070000e-06	3.689685e-06	3.122497e-09	2.568762e+01	2.048040e+02
1.080000e-06	3.828139e-06	3.255946e-09	2.665153e+01	2.135528e+02
1.090000e-06	3.965187e-06	3.383212e-09	2.760566e+01	2.218421e+02
1.100000e-06	4.100805e-06	3.503723e-09	2.854984e+01	2.297071e+02
1.110000e-06	4.234895e-06	3.617023e-09	2.948337e+01	2.371770e+02
1.120000e-06	4.367497e-06	3.725020e-09	3.040655e+01	2.442758e+02
1.130000e-06	4.498560e-06	3.829322e-09	3.131901e+01	2.510219e+02
1.140000e-06	4.628010e-06	3.928726e-09	3.222024e+01	2.574305e+02
1.150000e-06	4.755822e-06	4.019866e-09	3.311007e+01	2.635154e+02
1.160000e-06	4.881969e-06	4.105578e-09	3.398830e+01	2.692905e+02
1.170000e-06	5.006525e-06	4.187321e-09	3.485547e+01	2.747721e+02
1.180000e-06	5.129371e-06	4.265852e-09	3.571072e+01	2.799790e+02
1.190000e-06	5.250373e-06	4.340582e-09	3.655313e+01	2.849332e+02
1.200000e-06	5.369546e-06	4.412705e-09	3.738282e+01	2.896589e+02
1.210000e-06	5.486702e-06	4.482988e-09	3.819846e+01	2.941811e+02
1.220000e-06	5.601602e-06	4.551426e-09	3.899840e+01	2.985241e+02
1.230000e-06	5.714324e-06	4.616695e-09	3.978317e+01	3.027090e+02
1.240000e-06	5.824972e-06	4.678257e-09	4.055350e+01	3.067527e+02
1.250000e-06	5.933542e-06	4.736220e-09	4.130936e+01	3.106662e+02
1.260000e-06	6.039980e-06	4.791336e-09	4.205039e+01	3.144544e+02
1.270000e-06	6.144235e-06	4.845664e-09	4.277621e+01	3.181163e+02
1.280000e-06	6.246287e-06	4.897402e-09	4.348670e+01	3.216461e+02
1.290000e-06	6.346002e-06	4.945911e-09	4.418091e+01	3.250349e+02
1.300000e-06	6.443273e-06	4.992710e-09	4.485811e+01	3.282728e+02
1.310000e-06	6.538119e-06	5.037154e-09	4.551843e+01	3.313507e+02
1.320000e-06	6.630703e-06	5.078743e-09	4.616301e+01	3.342625e+02
1.330000e-06	6.720949e-06	5.117784e-09	4.679130e+01	3.370060e+02
1.340000e-06	6.808719e-06	5.155460e-09	4.740235e+01	3.395840e+02
1.350000e-06	6.894106e-06	5.190481e-09	4.799682e+01	3.420042e+02
1.360000e-06	6.977157e-06	5.223123e-09	4.857502e+01	3.442780e+02
1.370000e-06	7.057751e-06	5.256118e-09	4.913612e+01	3.464196e+02
1.380000e-06	7.135709e-06	5.289330e-09	4.967886e+01	3.484440e+02
1.390000e-06	7.210947e-06	5.318069e-09	5.020267e+01	3.503655e+02
1.400000e-06	7.283488e-06	5.342965e-09	5.070770e+01	3.521959e+02
1.410000e-06	7.353443e-06	5.367718e-09	5.119473e+01	3.539438e+02
1.420000e-06	7.420807e-06	5.392310e-09	5.166371e+01	3.556134e+02
1.430000e-06	7.485513e-06	5.415254e-09	5.211420e+01	3.572051e+02
1.440000e-06	7.547606e-06	5.435880e-09	5.254649e+01	3.587160e+02
1.450000e-06	7.607153e-06	5.456046e-09	5.296106e+01	3.601411e+02
1.460000e-06	7.664001e-06	5.475581e-09	5.335683e+01	3.614746e+02
1.470000e-06	7.718030e-06	5.492565e-09	5.373298e+01	3.627113e+02
1.480000e-06	7.769029e-06	5.508115e-09	5.408804e+01	3.638482e+02
1.490000e-06	7.816853e-06	5.524388e-09	5.442099e+01	3.648849e+02
1.500000e-06	7.861875e-06	5.540113e-09	5.473444e+01	3.658241e+02
1.510000e-06	7.904155e-06	5.554418e-09	5.502879e+01	3.666716e+02
1.520000e-06	7.943541e-06	5.567844e-09	5.530299e+01	3.674353e+02
1.530000e-06	7.980145e-06	5.579237e-09	5.555783e+01	3.681242e+02
1.540000e-06	8.014000e-06	5.588221e-09	5.579353e+01	3.687472e+02
1.550000e-06	8.045023e-06	5.595754e-09	5.600951e+01	3.693121e+02
1.560000e-06	8.073236e-06	5.603344e-09	5.620593e+01	3.698241e+02
1.570000e-06	8.098493e-06	5.609973e-09	5.638177e+01	3.702856e+02
1.580000e-06	8.120726e-06	5.615800e-09	5.653655e+01	3.706959e+02
1.590000e-06	8.140132e-06	5.623273e-09	5.667166e+01	3.710516e+02
1.600000e-06	8.156621e-06	5.631092e-09	5.678646e+01	3.713474e+02
1.610000e-06	8.170093e-06	5.636382e-09	5.688025e+01	3.715772e+02
1.620000e-06	8.180374e-06	5.638966e-09	5.695183e+01	3.717354e+02
1.630000e-06	8.187504e-06	5.640235e-09	5.700147e+01	3.718177e+02
1.640000e-06	8.191818e-06	5.641139e-09	5.703150e+01	3.718226e+02
1.650000e-06	8.193254e-06	5.641826e-09	5.704150e+01	3.717512e+02
1.660000e-06	8.191798e-06	5.641860e-09	5.703136e+01	3.716079e+02
1.670000e-06	8.187642e-06	5.634286e-09	5.700243e+01	3.713994e+02
1.680000e-06	8.180765e-06	5.631247e-09	5.695455e+01	3.711344e+02
1.690000e-06	8.171129e-06	5.628786e-09	5.688746e+01	3.708221e+02
1.700000e-06	8.158630e-06	5.625681e-09	5.680045e+01	3.704712e+02
1.710000e-06	8.143217e-06	5.624263e-09	5.669314e+01	3.700890e+02
1.720000e-06	8.125250e-06	5.625140e-09	5.656805e+01	3.696802e+02
1.730000e-06	8.105011e-06	5.631265e-09	5.642715e+01	3.692465e+02
1.740000e-06	8.082048e-06	5.575835e-09	5.626728e+01	3.687867e+02
1.750000e-06	8.055489e-06	5.525550e-09	5.608238e+01	3.682969e+02
1.760000e-06	8.025054e-06	5.560800e-09	5.587049e+01	3.677708e+02
1.770000e-06	7.991459e-06	5.567461e-09	5.563660e+01	3.672013e+02
1.780000e-06	7.955554e-06	5.559650e-09	5.538663e+01	3.665810e+02
1.790000e-06	7.917365e-06	5.598599e-09	5.512076e+01	3.659031e+02
1.800000e-06	7.877025e-06	5.621421e-09	5.483991e+01	3.651621e+02
1.810000e-06	7.834578e-06	5.515127e-09	5.454440e+01	3.643546e+02
1.820000e-06	7.789367e-06	5.568704e-09	5.422964e+01	3.634789e+02
1.830000e-06	7.741333e-06	5.567836e-09	5.389522e+01	3.625349e+02
1.840000e-06	7.690464e-06	5.502844e-09	5.354107e+01	3.615242e+02
1.850000e-06	7.636429e-06	5.559347e-09	5.316488e+01	3.604485e+02
1.860000e-06	7.579532e-06	5.450137e-09	5.276876e+01	3.593099e+02
1.870000e-06	7.519941e-06	5.490473e-09	5.235389e+01	3.581098e+02
1.880000e-06	7.457600e-06	5.450604e-09	5.191987e+01	3.568490e+02
1.890000e-06	7.392434e-06	5.431938e-09	5.146619e+01	3.555270e+02
1.900000e-06	7.324413e-06	5.493932e-09	5.099262e+01	3.541424e+02
1.910000e-06	7.253544e-06	5.371912e-09	5.049923e+01	3.526934e+02
1.920000e-06	7.179780e-06	5.394691e-09	4.998569e+01	3.511777e+02
1.930000e-06	7.103310e-06	5.350628e-09	4.945330e+01	3.495933e+02
1.940000e-06	7.024077e-06	5.336565e-09	4.890168e+01	3.479385e+02
1.950000e-06	6.942184e-06	5.305801e-09	4.833154e+01	3.462127e+02
1.960000e-06	6.857817e-06	5.248976e-09	4.774417e+01	3.444159e+02
1.970000e-06	6.770804e-06	5.276293e-09	4.713839e+01	3.425487e+02
1.980000e-06	6.681291e-06	5.190895e-09	4.651520e+01	3.406121e+02
1.990000e-06	6.589455e-06	5.203192e-09	4.587584e+01	3.386069e+02
2.000000e-06	6.495313e-06	5.168750e-09	4.522042e+01	3.365335e+02
2.010000e-06	6.398808e-06	5.132517e-09	4.454855e+01	3.343913e+02
2.020000e-06	6.300012e-06	5.076687e-09	4.386073e+01	3.321787e+02
2.030000e-06	6.199011e-06	5.037706e-09	4.315756e+01	3.298931e+02
2.040000e-06	6.095700e-06	5.032709e-09	4.243831e+01	3.275312e+02
2.050000e-06	5.990264e-06	4.979861e-09	4.170427e+01	3.250891e+02
2.060000e-06	5.882846e-06	4.952254e-09	4.095642e+01	3.225633e+02
2.070000e-06	5.773414e-06	4.892710e-09	4.019456e+01	3.199506e+02
2.080000e-06	5.661818e-06	4.857913e-09	3.941762e+01	3.172492e+02
2.090000e-06	5.548063e-06	4.800559e-09	3.862566e+01	3.144582e+02
2.100000e-06	5.432206e-06	4.777066e-09	3.781906e+01	3.115782e+02
2.110000e-06	5.314244e-06	4.740394e-09	3.699781e+01	3.086106e+02
2.120000e-06	5.194239e-06	4.688677e-09	3.616233e+01	3.055570e+02
2.130000e-06	5.072375e-06	4.629645e-09	3.531392e+01	3.024187e+02
2.140000e-06	4.948736e-06	4.578737e-09	3.445314e+01	2.991961e+02
2.150000e-06	4.823321e-06	4.534701e-09	3.358000e+01	2.958876e+02
2.160000e-06	4.696141e-06	4.477581e-09	3.269457e+01	2.924893e+02
2.170000e-06	4.567212e-06	4.431112e-09	3.179697e+01	2.889951e+02
2.180000e-06	4.436690e-06	4.374011e-09	3.088827e+01	2.853968e+02
2.190000e-06	4.304541e-06	4.324109e-09	2.996825e+01	2.816847e+02
2.200000e-06	4.170845e-06	4.261680e-09	2.903745e+01	2.778485e+02
2.210000e-06	4.035617e-06	4.205682e-09	2.809600e+01	2.738782e+02
2.220000e-06	3.898761e-06	4.135411e-09	2.714321e+01	2.697653e+02
2.230000e-06	3.760287e-06	4.066107e-09	2.617915e+01	2.655037e+02
2.240000e-06	3.620377e-06	3.996659e-09	2.520509e+01	2.610897e+02
2.250000e-06	3.479111e-06	3.932253e-09	2.422160e+01	2.565228e+02
2.260000e-06	3.336544e-06	3.866673e-09	2.322905e+01	2.518046e+02
2.270000e-06	3.192663e-06	3.794382e-09	2.222735e+01	2.469381e+02
2.280000e-06	3.047467e-06	3.714023e-09	2.121649e+01	2.419267e+02
2.290000e-06	2.901178e-06	3.628909e-09	2.019802e+01	2.367724e+02
2.300000e-06	2.753882e-06	3.551735e-09	1.917255e+01	2.314750e+02
2.310000e-06	2.605650e-06	3.475082e-09	1.814056e+01	2.260306e+02
2.320000e-06	2.456505e-06	3.395260e-09	1.710221e+01	2.204314e+02
2.330000e-06	2.306580e-06	3.305322e-09	1.605843e+01	2.146654e+02
2.340000e-06	2.156029e-06	3.211403e-09	1.501029e+01	2.087176e+02
2.350000e-06	2.004722e-06	3.115118e-09	1.395689e+01	2.025704e+02
2.360000e-06	1.852568e-06	3.018589e-09	1.289759e+01	1.962060e+02
2.370000e-06	1.699806e-06	2.920226e-09	1.183406e+01	1.896076e+02
2.380000e-06	1.546541e-06	2.816251e-09	1.076703e+01	1.827610e+02
2.390000e-06	1.392729e-06	2.707235e-09	9.696191e+00	1.756558e+02
2.400000e-06	1.238491e-06	2.595467e-09	8.622386e+00	1.682855e+02
2.410000e-06	1.083852e-06	2.481680e-09	7.545790e+00	1.606476e+02
2.420000e-06	9.288325e-07	2.364973e-09	6.466539e+00	1.527419e+02
2.430000e-06	7.735564e-07	2.239622e-09	5.385506e+00	1.445689e+02
2.440000e-06	6.180358e-07	2.107568e-09	4.302770e+00	1.361269e+02
2.450000e-06	4.622675e-07	1.972044e-09	3.218310e+00	1.274102e+02
2.460000e-06	3.062590e-07	1.835499e-09	2.132177e+00	1.184067e+02
2.470000e-06	1.500662e-07	1.695413e-09	1.044762e+00	1.090961e+02
2.480000e-06	-6.219133e-09	1.547939e-09	-4.329766e-02	9.945027e+01
2.490000e-06	-1.624878e-07	1.395377e-09	-1.131241e+00	8.943399e+01
2.500000e-06	-3.186364e-07	1.237096e-09	-2.218349e+00	7.900741e+01
2.510000e-06	-4.746855e-07	1.071875e-09	-3.304764e+00	6.812984e+01
2.520000e-06	-6.306335e-07	8.995564e-10	-4.390475e+00	5.676459e+01
2.530000e-06	-7.864028e-07	7.183133e-10	-5.474942e+00	4.488420e+01
2.540000e-06	-9.418833e-07	5.272647e-10	-6.557399e+00	3.247572e+01
2.550000e-06	-1.097021e-06	3.276887e-10	-7.637470e+00	1.954533e+01
2.560000e-06	-1.251764e-06	1.217413e-10	-8.714789e+00	6.121681e+00
2.570000e-06	-1.406073e-06	-8.967179e-11	-9.789088e+00	-7.742417e+00
2.580000e-06	-1.559926e-06	-3.064587e-10	-1.086022e+01	-2.197038e+01
2.590000e-06	-1.713204e-06	-5.267296e-10	-1.192734e+01	-3.646430e+01
2.600000e-06	-1.865826e-06	-7.506660e-10	-1.298989e+01	-5.110934e+01
2.610000e-06	-2.017700e-06	-9.788938e-10	-1.404724e+01	-6.577972e+01
2.620000e-06	-2.168729e-06	-1.208756e-09	-1.509871e+01	-8.034574e+01
2.630000e-06	-2.318924e-06	-1.434603e-09	-1.614436e+01	-9.468111e+01
2.640000e-06	-2.468254e-06	-1.652873e-09	-1.718400e+01	-1.086699e+02
2.650000e-06	-2.616661e-06	-1.862305e-09	-1.821722e+01	-1.222128e+02
2.660000e-06	-2.764167e-06	-2.061356e-09	-1.924415e+01	-1.352310e+02
2.670000e-06	-2.910682e-06	-2.247009e-09	-2.026419e+01	-1.476691e+02
2.680000e-06	-3.056066e-06	-2.421774e-09	-2.127635e+01	-1.594955e+02
2.690000e-06	-3.200312e-06	-2.591083e-09	-2.228060e+01	-1.707009e+02
2.700000e-06	-3.343301e-06	-2.753676e-09	-2.327609e+01	-1.812948e+02
2.710000e-06	-3.484975e-06	-2.907497e-09	-2.426242e+01	-1.913015e+02
2.720000e-06	-3.625337e-06	-3.052611e-09	-2.523963e+01	-2.007553e+02
2.730000e-06	-3.764339e-06	-3.191056e-09	-2.620736e+01	-2.096952e+02
2.740000e-06	-3.901953e-06	-3.321952e-09	-2.716543e+01	-2.181607e+02
2.750000e-06	-4.038089e-06	-3.447636e-09	-2.811321e+01	-2.261887e+02
2.760000e-06	-4.172748e-06	-3.568214e-09	-2.905071e+01	-2.338108e+02
2.770000e-06	-4.305966e-06	-3.677204e-09	-2.997817e+01	-2.410531e+02
2.780000e-06	-4.437683e-06	-3.776995e-09	-3.089518e+01	-2.479359e+02
2.790000e-06	-4.567859e-06	-3.872323e-09	-3.180147e+01	-2.544756e+02
2.800000e-06	-4.696539e-06	-3.965858e-09	-3.269734e+01	-2.606862e+02
2.810000e-06	-4.823568e-06	-4.056969e-09	-3.358172e+01	-2.665813e+02
2.820000e-06	-4.948872e-06	-4.145247e-09	-3.445408e+01	-2.721763e+02
2.830000e-06	-5.072498e-06	-4.230598e-09	-3.531477e+01	-2.774888e+02
2.840000e-06	-5.194334e-06	-4.309954e-09	-3.616299e+01	-2.825396e+02
2.850000e-06	-5.314208e-06	-4.383059e-09	-3.699756e+01	-2.873522e+02
2.860000e-06	-5.431973e-06	-4.451517e-09	-3.781744e+01	-2.919516e+02
2.870000e-06	-5.547591e-06	-4.518384e-09	-3.862237e+01	-2.963624e+02
2.880000e-06	-5.660970e-06	-4.582888e-09	-3.941172e+01	-3.006073e+02
2.890000e-06	-5.772088e-06	-4.644980e-09	-4.018532e+01	-3.047049e+02
2.900000e-06	-5.881069e-06	-4.706139e-09	-4.094405e+01	-3.086688e+02
2.910000e-06	-5.988029e-06	-4.767571e-09	-4.168871e+01	-3.125062e+02
2.920000e-06	-6.092936e-06	-4.827856e-09	-4.241907e+01	-3.162183e+02
2.930000e-06	-6.195540e-06	-4.885746e-09	-4.313340e+01	-3.198010e+02
2.940000e-06	-6.295795e-06	-4.941118e-09	-4.383137e+01	-3.232466e+02
