# Temperatura_=_72.37
# Concentracion g/m^3_=_15000.0
# C_Vs_to_Am_M_A/Vsm_=_65563218390.804596
# pendiente_HvsI_1/m_=_3716.3
# ordenada_HvsI_A/m_=_1297.0
# frecuencia_Hz_=_302329.6765686257

Tiempo_(s)	Campo_(V.s)	Magnetizacion_(V.s)	Campo_(kA/m)	Magnetizacion_(A/m)
0.000000e+00	-8.232177e-06	-9.514383e-09	-5.692372e+01	-6.221436e+02
1.000000e-08	-8.229693e-06	-9.512162e-09	-5.690654e+01	-6.218826e+02
2.000000e-08	-8.224423e-06	-9.507486e-09	-5.687010e+01	-6.215183e+02
3.000000e-08	-8.216530e-06	-9.497969e-09	-5.681552e+01	-6.210636e+02
4.000000e-08	-8.205754e-06	-9.487233e-09	-5.674100e+01	-6.205310e+02
5.000000e-08	-8.192054e-06	-9.475086e-09	-5.664628e+01	-6.199311e+02
6.000000e-08	-8.175466e-06	-9.464076e-09	-5.653157e+01	-6.192715e+02
7.000000e-08	-8.156310e-06	-9.453433e-09	-5.639911e+01	-6.185563e+02
8.000000e-08	-8.134799e-06	-9.438019e-09	-5.625037e+01	-6.177858e+02
9.000000e-08	-8.110398e-06	-9.435942e-09	-5.608164e+01	-6.169574e+02
1.000000e-07	-8.082724e-06	-9.451645e-09	-5.589028e+01	-6.160658e+02
1.100000e-07	-8.051922e-06	-9.427879e-09	-5.567729e+01	-6.151047e+02
1.200000e-07	-8.018078e-06	-9.387925e-09	-5.544327e+01	-6.140673e+02
1.300000e-07	-7.981361e-06	-9.357759e-09	-5.518938e+01	-6.129475e+02
1.400000e-07	-7.942193e-06	-9.330048e-09	-5.491854e+01	-6.117402e+02
1.500000e-07	-7.900717e-06	-9.285824e-09	-5.463174e+01	-6.104411e+02
1.600000e-07	-7.856815e-06	-9.268674e-09	-5.432817e+01	-6.090470e+02
1.700000e-07	-7.810101e-06	-9.307817e-09	-5.400515e+01	-6.075551e+02
1.800000e-07	-7.760415e-06	-9.224806e-09	-5.366158e+01	-6.059617e+02
1.900000e-07	-7.707793e-06	-9.210359e-09	-5.329771e+01	-6.042628e+02
2.000000e-07	-7.652251e-06	-9.204471e-09	-5.291365e+01	-6.024526e+02
2.100000e-07	-7.593950e-06	-9.123914e-09	-5.251052e+01	-6.005240e+02
2.200000e-07	-7.532985e-06	-9.117915e-09	-5.208896e+01	-5.984694e+02
2.300000e-07	-7.469311e-06	-9.079042e-09	-5.164866e+01	-5.962804e+02
2.400000e-07	-7.402766e-06	-9.047496e-09	-5.118852e+01	-5.939499e+02
2.500000e-07	-7.333357e-06	-8.991607e-09	-5.070857e+01	-5.914726e+02
2.600000e-07	-7.261129e-06	-8.960413e-09	-5.020913e+01	-5.888459e+02
2.700000e-07	-7.186006e-06	-8.939801e-09	-4.968967e+01	-5.860708e+02
2.800000e-07	-7.107991e-06	-8.876494e-09	-4.915021e+01	-5.831518e+02
2.900000e-07	-7.027186e-06	-8.829842e-09	-4.859146e+01	-5.800966e+02
3.000000e-07	-6.943848e-06	-8.788097e-09	-4.801520e+01	-5.769151e+02
3.100000e-07	-6.858139e-06	-8.749905e-09	-4.742254e+01	-5.736180e+02
3.200000e-07	-6.770035e-06	-8.689985e-09	-4.681332e+01	-5.702149e+02
3.300000e-07	-6.679488e-06	-8.629241e-09	-4.618721e+01	-5.667132e+02
3.400000e-07	-6.586475e-06	-8.582622e-09	-4.554405e+01	-5.631166e+02
3.500000e-07	-6.491034e-06	-8.511630e-09	-4.488409e+01	-5.594240e+02
3.600000e-07	-6.393231e-06	-8.452628e-09	-4.420780e+01	-5.556298e+02
3.700000e-07	-6.293131e-06	-8.404893e-09	-4.351564e+01	-5.517243e+02
3.800000e-07	-6.190763e-06	-8.353746e-09	-4.280778e+01	-5.476950e+02
3.900000e-07	-6.086162e-06	-8.282090e-09	-4.208449e+01	-5.435282e+02
4.000000e-07	-5.979400e-06	-8.203562e-09	-4.134625e+01	-5.392111e+02
4.100000e-07	-5.870578e-06	-8.133213e-09	-4.059377e+01	-5.347336e+02
4.200000e-07	-5.759701e-06	-8.060672e-09	-3.982708e+01	-5.300894e+02
4.300000e-07	-5.646667e-06	-7.992251e-09	-3.904547e+01	-5.252772e+02
4.400000e-07	-5.531443e-06	-7.919395e-09	-3.824873e+01	-5.203003e+02
4.500000e-07	-5.414081e-06	-7.847729e-09	-3.743720e+01	-5.151656e+02
4.600000e-07	-5.294751e-06	-7.767484e-09	-3.661205e+01	-5.098824e+02
4.700000e-07	-5.173602e-06	-7.683209e-09	-3.577434e+01	-5.044600e+02
4.800000e-07	-5.050602e-06	-7.599769e-09	-3.492382e+01	-4.989055e+02
4.900000e-07	-4.925742e-06	-7.514165e-09	-3.406044e+01	-4.932221e+02
5.000000e-07	-4.799054e-06	-7.422475e-09	-3.318442e+01	-4.874074e+02
5.100000e-07	-4.670649e-06	-7.325943e-09	-3.229652e+01	-4.814530e+02
5.200000e-07	-4.540514e-06	-7.233599e-09	-3.139667e+01	-4.753450e+02
5.300000e-07	-4.408695e-06	-7.137971e-09	-3.048517e+01	-4.690649e+02
5.400000e-07	-4.275239e-06	-7.035300e-09	-2.956235e+01	-4.625924e+02
5.500000e-07	-4.140156e-06	-6.926735e-09	-2.862828e+01	-4.559071e+02
5.600000e-07	-4.003532e-06	-6.821333e-09	-2.768356e+01	-4.489914e+02
5.700000e-07	-3.865333e-06	-6.717585e-09	-2.672794e+01	-4.418327e+02
5.800000e-07	-3.725463e-06	-6.604994e-09	-2.576077e+01	-4.344244e+02
5.900000e-07	-3.584005e-06	-6.490274e-09	-2.478262e+01	-4.267662e+02
6.000000e-07	-3.441157e-06	-6.372004e-09	-2.379485e+01	-4.188632e+02
6.100000e-07	-3.297036e-06	-6.246645e-09	-2.279829e+01	-4.107242e+02
6.200000e-07	-3.151694e-06	-6.115310e-09	-2.179328e+01	-4.023585e+02
6.300000e-07	-3.005127e-06	-5.984181e-09	-2.077980e+01	-3.937731e+02
6.400000e-07	-2.857568e-06	-5.852887e-09	-1.975946e+01	-3.849697e+02
6.500000e-07	-2.709132e-06	-5.712821e-09	-1.873306e+01	-3.759424e+02
6.600000e-07	-2.559752e-06	-5.565817e-09	-1.770013e+01	-3.666767e+02
6.700000e-07	-2.409417e-06	-5.416926e-09	-1.666059e+01	-3.571495e+02
6.800000e-07	-2.258231e-06	-5.266756e-09	-1.561518e+01	-3.473307e+02
6.900000e-07	-2.106343e-06	-5.112257e-09	-1.456490e+01	-3.371862e+02
7.000000e-07	-1.953751e-06	-4.952429e-09	-1.350976e+01	-3.266814e+02
7.100000e-07	-1.800467e-06	-4.786433e-09	-1.244984e+01	-3.157853e+02
7.200000e-07	-1.646596e-06	-4.613493e-09	-1.138585e+01	-3.044733e+02
7.300000e-07	-1.492111e-06	-4.432939e-09	-1.031762e+01	-2.927302e+02
7.400000e-07	-1.337063e-06	-4.247287e-09	-9.245499e+00	-2.805507e+02
7.500000e-07	-1.181576e-06	-4.054091e-09	-8.170339e+00	-2.679377e+02
7.600000e-07	-1.025694e-06	-3.855686e-09	-7.092453e+00	-2.548999e+02
7.700000e-07	-8.694377e-07	-3.656839e-09	-6.011973e+00	-2.414462e+02
7.800000e-07	-7.128572e-07	-3.452121e-09	-4.929253e+00	-2.275803e+02
7.900000e-07	-5.560293e-07	-3.235901e-09	-3.844822e+00	-2.132945e+02
8.000000e-07	-3.989795e-07	-3.007228e-09	-2.758857e+00	-1.985642e+02
8.100000e-07	-2.417632e-07	-2.771081e-09	-1.671740e+00	-1.833449e+02
8.200000e-07	-8.441616e-08	-2.527900e-09	-5.837194e-01	-1.675709e+02
8.300000e-07	7.296548e-08	-2.275338e-09	5.045404e-01	-1.511577e+02
8.400000e-07	2.303205e-07	-2.013477e-09	1.592617e+00	-1.340077e+02
8.500000e-07	3.876274e-07	-1.739185e-09	2.680359e+00	-1.160187e+02
8.600000e-07	5.448441e-07	-1.450908e-09	3.767479e+00	-9.709542e+01
8.700000e-07	7.019032e-07	-1.150074e-09	4.853508e+00	-7.716129e+01
8.800000e-07	8.587280e-07	-8.350529e-10	5.937918e+00	-5.617130e+01
8.900000e-07	1.015315e-06	-5.041247e-10	7.020684e+00	-3.412269e+01
9.000000e-07	1.171618e-06	-1.569461e-10	8.101487e+00	-1.106309e+01
9.100000e-07	1.327507e-06	2.028551e-10	9.179420e+00	1.290541e+01
9.200000e-07	1.482869e-06	5.749803e-10	1.025371e+01	3.762677e+01
9.300000e-07	1.637664e-06	9.643009e-10	1.132409e+01	6.289650e+01
9.400000e-07	1.791827e-06	1.363456e-09	1.239010e+01	8.847177e+01
9.500000e-07	1.945285e-06	1.762826e-09	1.345123e+01	1.140851e+02
9.600000e-07	2.097952e-06	2.155433e-09	1.450688e+01	1.394609e+02
9.700000e-07	2.249838e-06	2.535156e-09	1.555714e+01	1.643322e+02
9.800000e-07	2.401003e-06	2.900997e-09	1.660242e+01	1.884576e+02
9.900000e-07	2.551238e-06	3.248287e-09	1.764125e+01	2.116349e+02
1.000000e-06	2.700415e-06	3.575538e-09	1.867278e+01	2.337114e+02
1.010000e-06	2.848584e-06	3.885251e-09	1.969734e+01	2.545901e+02
1.020000e-06	2.995681e-06	4.177689e-09	2.071448e+01	2.742302e+02
1.030000e-06	3.141642e-06	4.454036e-09	2.172377e+01	2.926429e+02
1.040000e-06	3.286466e-06	4.715531e-09	2.272520e+01	3.098836e+02
1.050000e-06	3.430114e-06	4.962957e-09	2.371849e+01	3.260407e+02
1.060000e-06	3.572486e-06	5.196699e-09	2.470297e+01	3.412227e+02
1.070000e-06	3.713481e-06	5.417974e-09	2.567791e+01	3.555454e+02
1.080000e-06	3.853058e-06	5.627915e-09	2.664306e+01	3.691201e+02
1.090000e-06	3.991137e-06	5.827402e-09	2.759785e+01	3.820443e+02
1.100000e-06	4.127699e-06	6.014202e-09	2.854214e+01	3.943954e+02
1.110000e-06	4.262758e-06	6.190220e-09	2.947605e+01	4.062279e+02
1.120000e-06	4.396309e-06	6.361271e-09	3.039952e+01	4.175740e+02
1.130000e-06	4.528307e-06	6.528067e-09	3.131226e+01	4.284471e+02
1.140000e-06	4.658678e-06	6.687516e-09	3.221375e+01	4.388472e+02
1.150000e-06	4.787420e-06	6.836116e-09	3.310397e+01	4.487671e+02
1.160000e-06	4.914477e-06	6.977838e-09	3.398254e+01	4.581991e+02
1.170000e-06	5.039837e-06	7.113513e-09	3.484938e+01	4.671404e+02
1.180000e-06	5.163441e-06	7.241168e-09	3.570407e+01	4.755971e+02
1.190000e-06	5.285251e-06	7.361815e-09	3.654636e+01	4.835862e+02
1.200000e-06	5.405237e-06	7.476725e-09	3.737604e+01	4.911350e+02
1.210000e-06	5.523209e-06	7.587013e-09	3.819179e+01	4.982799e+02
1.220000e-06	5.638988e-06	7.692563e-09	3.899238e+01	5.050627e+02
1.230000e-06	5.752564e-06	7.792572e-09	3.977773e+01	5.115265e+02
1.240000e-06	5.863986e-06	7.887245e-09	4.054819e+01	5.177121e+02
1.250000e-06	5.973290e-06	7.976961e-09	4.130400e+01	5.236545e+02
1.260000e-06	6.080457e-06	8.062963e-09	4.204504e+01	5.293806e+02
1.270000e-06	6.185423e-06	8.147502e-09	4.277086e+01	5.349081e+02
1.280000e-06	6.288133e-06	8.230208e-09	4.348107e+01	5.402462e+02
1.290000e-06	6.388539e-06	8.309210e-09	4.417536e+01	5.453970e+02
1.300000e-06	6.486575e-06	8.383016e-09	4.485326e+01	5.503578e+02
1.310000e-06	6.582095e-06	8.453432e-09	4.551376e+01	5.551240e+02
1.320000e-06	6.675223e-06	8.519999e-09	4.615772e+01	5.596918e+02
1.330000e-06	6.766073e-06	8.584046e-09	4.678592e+01	5.640597e+02
1.340000e-06	6.854538e-06	8.646267e-09	4.739764e+01	5.682303e+02
1.350000e-06	6.940569e-06	8.705971e-09	4.799253e+01	5.722101e+02
1.360000e-06	7.024127e-06	8.764816e-09	4.857031e+01	5.760089e+02
1.370000e-06	7.105133e-06	8.821975e-09	4.913045e+01	5.796384e+02
1.380000e-06	7.183556e-06	8.876471e-09	4.967273e+01	5.831101e+02
1.390000e-06	7.259371e-06	8.926264e-09	5.019697e+01	5.864337e+02
1.400000e-06	7.332444e-06	8.972552e-09	5.070226e+01	5.896154e+02
1.410000e-06	7.402898e-06	9.018257e-09	5.118943e+01	5.926570e+02
1.420000e-06	7.470795e-06	9.061483e-09	5.165893e+01	5.955559e+02
1.430000e-06	7.535926e-06	9.102110e-09	5.210929e+01	5.983056e+02
1.440000e-06	7.598405e-06	9.138799e-09	5.254132e+01	6.008975e+02
1.450000e-06	7.658393e-06	9.173373e-09	5.295612e+01	6.033222e+02
1.460000e-06	7.715665e-06	9.206054e-09	5.335215e+01	6.055721e+02
1.470000e-06	7.770105e-06	9.234734e-09	5.372859e+01	6.076431e+02
1.480000e-06	7.821552e-06	9.261624e-09	5.408433e+01	6.095354e+02
1.490000e-06	7.869796e-06	9.287010e-09	5.441793e+01	6.112546e+02
1.500000e-06	7.915155e-06	9.312291e-09	5.473158e+01	6.128112e+02
1.510000e-06	7.957781e-06	9.336635e-09	5.502633e+01	6.142195e+02
1.520000e-06	7.997519e-06	9.357546e-09	5.530111e+01	6.154961e+02
1.530000e-06	8.034471e-06	9.375319e-09	5.555662e+01	6.166576e+02
1.540000e-06	8.068617e-06	9.390308e-09	5.579273e+01	6.177188e+02
1.550000e-06	8.099815e-06	9.403703e-09	5.600846e+01	6.186907e+02
1.560000e-06	8.128246e-06	9.416083e-09	5.620506e+01	6.195796e+02
1.570000e-06	8.153756e-06	9.426772e-09	5.638146e+01	6.203863e+02
1.580000e-06	8.176187e-06	9.436354e-09	5.653656e+01	6.211071e+02
1.590000e-06	8.195745e-06	9.447083e-09	5.667180e+01	6.217340e+02
1.600000e-06	8.212335e-06	9.458987e-09	5.678651e+01	6.222569e+02
1.610000e-06	8.225876e-06	9.467635e-09	5.688014e+01	6.226658e+02
1.620000e-06	8.236254e-06	9.472407e-09	5.695191e+01	6.229517e+02
1.630000e-06	8.243467e-06	9.474777e-09	5.700179e+01	6.231093e+02
1.640000e-06	8.247799e-06	9.475664e-09	5.703174e+01	6.231371e+02
1.650000e-06	8.249211e-06	9.475348e-09	5.704150e+01	6.230387e+02
1.660000e-06	8.247750e-06	9.473726e-09	5.703140e+01	6.228213e+02
1.670000e-06	8.243627e-06	9.466958e-09	5.700289e+01	6.224958e+02
1.680000e-06	8.236708e-06	9.462439e-09	5.695505e+01	6.220749e+02
1.690000e-06	8.226988e-06	9.458663e-09	5.688783e+01	6.215713e+02
1.700000e-06	8.214426e-06	9.454260e-09	5.680097e+01	6.209965e+02
1.710000e-06	8.198993e-06	9.448459e-09	5.669425e+01	6.203595e+02
1.720000e-06	8.180996e-06	9.442024e-09	5.656981e+01	6.196657e+02
1.730000e-06	8.160614e-06	9.433066e-09	5.642888e+01	6.189169e+02
1.740000e-06	8.137458e-06	9.392017e-09	5.626875e+01	6.181115e+02
1.750000e-06	8.110768e-06	9.354831e-09	5.608420e+01	6.172453e+02
1.760000e-06	8.080190e-06	9.357902e-09	5.587276e+01	6.163121e+02
1.770000e-06	8.046405e-06	9.350636e-09	5.563915e+01	6.153052e+02
1.780000e-06	8.010299e-06	9.341045e-09	5.538947e+01	6.142183e+02
1.790000e-06	7.971885e-06	9.358737e-09	5.512385e+01	6.130457e+02
1.800000e-06	7.931310e-06	9.366913e-09	5.484329e+01	6.117828e+02
1.810000e-06	7.888623e-06	9.276878e-09	5.454811e+01	6.104263e+02
1.820000e-06	7.843133e-06	9.283503e-09	5.423356e+01	6.089729e+02
1.830000e-06	7.794784e-06	9.277448e-09	5.389924e+01	6.074197e+02
1.840000e-06	7.743556e-06	9.233800e-09	5.354501e+01	6.057626e+02
1.850000e-06	7.689143e-06	9.259331e-09	5.316875e+01	6.039966e+02
1.860000e-06	7.631925e-06	9.183047e-09	5.277311e+01	6.021153e+02
1.870000e-06	7.572014e-06	9.177538e-09	5.235883e+01	6.001109e+02
1.880000e-06	7.509318e-06	9.122339e-09	5.192531e+01	5.979754e+02
1.890000e-06	7.443759e-06	9.085319e-09	5.147198e+01	5.957011e+02
1.900000e-06	7.375262e-06	9.094760e-09	5.099834e+01	5.932818e+02
1.910000e-06	7.303895e-06	8.996005e-09	5.050485e+01	5.907136e+02
1.920000e-06	7.229610e-06	8.982545e-09	4.999118e+01	5.879963e+02
1.930000e-06	7.152566e-06	8.938795e-09	4.945844e+01	5.851328e+02
1.940000e-06	7.072747e-06	8.896334e-09	4.890651e+01	5.821299e+02
1.950000e-06	6.990307e-06	8.846033e-09	4.833646e+01	5.789965e+02
1.960000e-06	6.905372e-06	8.776292e-09	4.774915e+01	5.757433e+02
1.970000e-06	6.817751e-06	8.753142e-09	4.714327e+01	5.723806e+02
1.980000e-06	6.727610e-06	8.670291e-09	4.651996e+01	5.689168e+02
1.990000e-06	6.635182e-06	8.643449e-09	4.588084e+01	5.653571e+02
2.000000e-06	6.540505e-06	8.598956e-09	4.522617e+01	5.617025e+02
2.010000e-06	6.443492e-06	8.532945e-09	4.455535e+01	5.579489e+02
2.020000e-06	6.344135e-06	8.454459e-09	4.386831e+01	5.540883e+02
2.030000e-06	6.242414e-06	8.386497e-09	4.316493e+01	5.501090e+02
2.040000e-06	6.138418e-06	8.343652e-09	4.244582e+01	5.459976e+02
2.050000e-06	6.032290e-06	8.278011e-09	4.171198e+01	5.417408e+02
2.060000e-06	5.924069e-06	8.218807e-09	4.096365e+01	5.373271e+02
2.070000e-06	5.813842e-06	8.141259e-09	4.020145e+01	5.327486e+02
2.080000e-06	5.701526e-06	8.068020e-09	3.942481e+01	5.280021e+02
2.090000e-06	5.586972e-06	7.979401e-09	3.863270e+01	5.230890e+02
2.100000e-06	5.470270e-06	7.909918e-09	3.782573e+01	5.180150e+02
2.110000e-06	5.351550e-06	7.839799e-09	3.700480e+01	5.127888e+02
2.120000e-06	5.230826e-06	7.757751e-09	3.617003e+01	5.074199e+02
2.130000e-06	5.108228e-06	7.668537e-09	3.532229e+01	5.019164e+02
2.140000e-06	4.983826e-06	7.583581e-09	3.446207e+01	4.962834e+02
2.150000e-06	4.857608e-06	7.502784e-09	3.358930e+01	4.905208e+02
2.160000e-06	4.729573e-06	7.409438e-09	3.270397e+01	4.846224e+02
2.170000e-06	4.599817e-06	7.316097e-09	3.180674e+01	4.785765e+02
2.180000e-06	4.468394e-06	7.216611e-09	3.089798e+01	4.723662e+02
2.190000e-06	4.335347e-06	7.123732e-09	2.997798e+01	4.659716e+02
2.200000e-06	4.200758e-06	7.023312e-09	2.904733e+01	4.593720e+02
2.210000e-06	4.064507e-06	6.922523e-09	2.810518e+01	4.525484e+02
2.220000e-06	3.926586e-06	6.813577e-09	2.715149e+01	4.454861e+02
2.230000e-06	3.787125e-06	6.700046e-09	2.618715e+01	4.381760e+02
2.240000e-06	3.646283e-06	6.581928e-09	2.521325e+01	4.306154e+02
2.250000e-06	3.504055e-06	6.465867e-09	2.422978e+01	4.228075e+02
2.260000e-06	3.360454e-06	6.351373e-09	2.323681e+01	4.147599e+02
2.270000e-06	3.215594e-06	6.229261e-09	2.223514e+01	4.064821e+02
2.280000e-06	3.069504e-06	6.097566e-09	2.122496e+01	3.979822e+02
2.290000e-06	2.922229e-06	5.958693e-09	2.020658e+01	3.892645e+02
2.300000e-06	2.773963e-06	5.822521e-09	1.918135e+01	3.803261e+02
2.310000e-06	2.624817e-06	5.686882e-09	1.815004e+01	3.711562e+02
2.320000e-06	2.474805e-06	5.548456e-09	1.711274e+01	3.617347e+02
2.330000e-06	2.323972e-06	5.400529e-09	1.606976e+01	3.520342e+02
2.340000e-06	2.172320e-06	5.245120e-09	1.502112e+01	3.420216e+02
2.350000e-06	2.019928e-06	5.083528e-09	1.396737e+01	3.316622e+02
2.360000e-06	1.866891e-06	4.917314e-09	1.290915e+01	3.209230e+02
2.370000e-06	1.713152e-06	4.748276e-09	1.184608e+01	3.097765e+02
2.380000e-06	1.558723e-06	4.573481e-09	1.077823e+01	2.982037e+02
2.390000e-06	1.403769e-06	4.392203e-09	9.706760e+00	2.861955e+02
2.400000e-06	1.248359e-06	4.204066e-09	8.632132e+00	2.737518e+02
2.410000e-06	1.092503e-06	4.010896e-09	7.554422e+00	2.608795e+02
2.420000e-06	9.362986e-07	3.812398e-09	6.474301e+00	2.475881e+02
2.430000e-06	7.798825e-07	3.602107e-09	5.392718e+00	2.338841e+02
2.440000e-06	6.232551e-07	3.383748e-09	4.309674e+00	2.197650e+02
2.450000e-06	4.663792e-07	3.160226e-09	3.224911e+00	2.052132e+02
2.460000e-06	3.092620e-07	2.929782e-09	2.138480e+00	1.901925e+02
2.470000e-06	1.519982e-07	2.690612e-09	1.051034e+00	1.746454e+02
2.480000e-06	-5.300162e-09	2.441086e-09	-3.664947e-02	1.584941e+02
2.490000e-06	-1.626325e-07	2.179908e-09	-1.124568e+00	1.416455e+02
2.500000e-06	-3.198891e-07	1.906006e-09	-2.211964e+00	1.239979e+02
2.510000e-06	-4.769715e-07	1.620893e-09	-3.298154e+00	1.054520e+02
2.520000e-06	-6.339650e-07	1.323638e-09	-4.383731e+00	8.592210e+01
2.530000e-06	-7.907981e-07	1.013005e-09	-5.468197e+00	6.534960e+01
2.540000e-06	-9.474100e-07	6.871438e-10	-6.551134e+00	4.371391e+01
2.550000e-06	-1.103738e-06	3.442372e-10	-7.632107e+00	2.104216e+01
2.560000e-06	-1.259667e-06	-1.386384e-11	-8.710327e+00	-2.585177e+00
2.570000e-06	-1.415143e-06	-3.861891e-10	-9.785406e+00	-2.703286e+01
2.580000e-06	-1.570061e-06	-7.697830e-10	-1.085663e+01	-5.211448e+01
2.590000e-06	-1.724342e-06	-1.160626e-09	-1.192345e+01	-7.760080e+01
2.600000e-06	-1.877945e-06	-1.554740e-09	-1.298558e+01	-1.032322e+02
2.610000e-06	-2.030870e-06	-1.948572e-09	-1.404302e+01	-1.287342e+02
2.620000e-06	-2.183025e-06	-2.338167e-09	-1.509515e+01	-1.538345e+02
2.630000e-06	-2.334290e-06	-2.717740e-09	-1.614111e+01	-1.782797e+02
2.640000e-06	-2.484618e-06	-3.080590e-09	-1.718059e+01	-2.018507e+02
2.650000e-06	-2.634029e-06	-3.422918e-09	-1.821374e+01	-2.243746e+02
2.660000e-06	-2.782578e-06	-3.744891e-09	-1.924092e+01	-2.457321e+02
2.670000e-06	-2.930143e-06	-4.048448e-09	-2.026130e+01	-2.658604e+02
2.680000e-06	-3.076558e-06	-4.334528e-09	-2.127373e+01	-2.847510e+02
2.690000e-06	-3.221888e-06	-4.603608e-09	-2.227865e+01	-3.024434e+02
2.700000e-06	-3.366004e-06	-4.857176e-09	-2.327519e+01	-3.190143e+02
2.710000e-06	-3.508686e-06	-5.096692e-09	-2.426180e+01	-3.345659e+02
2.720000e-06	-3.650006e-06	-5.325478e-09	-2.523900e+01	-3.492126e+02
2.730000e-06	-3.790009e-06	-5.545013e-09	-2.620709e+01	-3.630688e+02
2.740000e-06	-3.928562e-06	-5.752749e-09	-2.716515e+01	-3.762384e+02
2.750000e-06	-4.065651e-06	-5.949357e-09	-2.811310e+01	-3.888070e+02
2.760000e-06	-4.201236e-06	-6.135183e-09	-2.905064e+01	-4.008384e+02
2.770000e-06	-4.335285e-06	-6.307515e-09	-2.997756e+01	-4.123733e+02
2.780000e-06	-4.467936e-06	-6.470388e-09	-3.089481e+01	-4.234318e+02
2.790000e-06	-4.599056e-06	-6.627100e-09	-3.180147e+01	-4.340186e+02
2.800000e-06	-4.728531e-06	-6.778790e-09	-3.269677e+01	-4.441283e+02
2.810000e-06	-4.856361e-06	-6.924073e-09	-3.358068e+01	-4.537529e+02
2.820000e-06	-4.982472e-06	-7.062483e-09	-3.445271e+01	-4.628871e+02
2.830000e-06	-5.106838e-06	-7.195640e-09	-3.531268e+01	-4.715330e+02
2.840000e-06	-5.229451e-06	-7.322394e-09	-3.616052e+01	-4.797032e+02
2.850000e-06	-5.350150e-06	-7.442044e-09	-3.699513e+01	-4.874213e+02
2.860000e-06	-5.468742e-06	-7.557223e-09	-3.781517e+01	-4.947204e+02
2.870000e-06	-5.585239e-06	-7.667396e-09	-3.862071e+01	-5.016404e+02
2.880000e-06	-5.699506e-06	-7.769128e-09	-3.941085e+01	-5.082247e+02
2.890000e-06	-5.811385e-06	-7.863278e-09	-4.018446e+01	-5.145152e+02
2.900000e-06	-5.921049e-06	-7.953158e-09	-4.094277e+01	-5.205497e+02
2.910000e-06	-6.028697e-06	-8.042830e-09	-4.168713e+01	-5.263583e+02
2.920000e-06	-6.134271e-06	-8.130068e-09	-4.241715e+01	-5.319625e+02
2.930000e-06	-6.237569e-06	-8.212905e-09	-4.313143e+01	-5.373746e+02
2.940000e-06	-6.338483e-06	-8.290796e-09	-4.382923e+01	-5.425993e+02
