# Temperatura_=_64.57
# Concentracion g/m^3_=_15000.0
# C_Vs_to_Am_M_A/Vsm_=_65563218390.804596
# pendiente_HvsI_1/m_=_3716.3
# ordenada_HvsI_A/m_=_1297.0
# frecuencia_Hz_=_302330.61179358815

Tiempo_(s)	Campo_(V.s)	Magnetizacion_(V.s)	Campo_(kA/m)	Magnetizacion_(A/m)
0.000000e+00	-8.277128e-06	-8.497665e-09	-5.692396e+01	-5.556966e+02
1.000000e-08	-8.274432e-06	-8.496111e-09	-5.690541e+01	-5.554672e+02
2.000000e-08	-8.269022e-06	-8.490955e-09	-5.686821e+01	-5.551439e+02
3.000000e-08	-8.261000e-06	-8.482627e-09	-5.681304e+01	-5.547397e+02
4.000000e-08	-8.250075e-06	-8.474172e-09	-5.673790e+01	-5.542679e+02
5.000000e-08	-8.236158e-06	-8.465119e-09	-5.664220e+01	-5.537400e+02
6.000000e-08	-8.219365e-06	-8.455887e-09	-5.652670e+01	-5.531647e+02
7.000000e-08	-8.200013e-06	-8.446067e-09	-5.639362e+01	-5.525471e+02
8.000000e-08	-8.178240e-06	-8.439376e-09	-5.624387e+01	-5.518883e+02
9.000000e-08	-8.153562e-06	-8.445069e-09	-5.607416e+01	-5.511858e+02
1.000000e-07	-8.125589e-06	-8.452900e-09	-5.588179e+01	-5.504341e+02
1.100000e-07	-8.094422e-06	-8.427401e-09	-5.566744e+01	-5.496255e+02
1.200000e-07	-8.060273e-06	-8.393678e-09	-5.543259e+01	-5.487518e+02
1.300000e-07	-8.023313e-06	-8.364301e-09	-5.517841e+01	-5.478048e+02
1.400000e-07	-7.983848e-06	-8.330053e-09	-5.490700e+01	-5.467768e+02
1.500000e-07	-7.942014e-06	-8.288185e-09	-5.461929e+01	-5.456619e+02
1.600000e-07	-7.897715e-06	-8.292983e-09	-5.431463e+01	-5.444550e+02
1.700000e-07	-7.850617e-06	-8.335249e-09	-5.399073e+01	-5.431523e+02
1.800000e-07	-7.800560e-06	-8.259141e-09	-5.364647e+01	-5.417504e+02
1.900000e-07	-7.747579e-06	-8.244460e-09	-5.328211e+01	-5.402459e+02
2.000000e-07	-7.691581e-06	-8.229913e-09	-5.289700e+01	-5.386354e+02
2.100000e-07	-7.632716e-06	-8.148029e-09	-5.249217e+01	-5.369145e+02
2.200000e-07	-7.571207e-06	-8.135330e-09	-5.206916e+01	-5.350788e+02
2.300000e-07	-7.506997e-06	-8.119443e-09	-5.162757e+01	-5.331237e+02
2.400000e-07	-7.439939e-06	-8.094000e-09	-5.116639e+01	-5.310453e+02
2.500000e-07	-7.370078e-06	-8.030587e-09	-5.068594e+01	-5.288414e+02
2.600000e-07	-7.297347e-06	-8.018968e-09	-5.018575e+01	-5.265114e+02
2.700000e-07	-7.221678e-06	-8.010970e-09	-4.966535e+01	-5.240575e+02
2.800000e-07	-7.143135e-06	-7.941841e-09	-4.912519e+01	-5.214845e+02
2.900000e-07	-7.061824e-06	-7.894621e-09	-4.856600e+01	-5.187993e+02
3.000000e-07	-6.978044e-06	-7.871567e-09	-4.798982e+01	-5.160102e+02
3.100000e-07	-6.891866e-06	-7.839057e-09	-4.739715e+01	-5.131259e+02
3.200000e-07	-6.803192e-06	-7.781099e-09	-4.678731e+01	-5.101537e+02
3.300000e-07	-6.712069e-06	-7.732588e-09	-4.616064e+01	-5.070991e+02
3.400000e-07	-6.618535e-06	-7.683036e-09	-4.551738e+01	-5.039637e+02
3.500000e-07	-6.522578e-06	-7.610568e-09	-4.485746e+01	-5.007456e+02
3.600000e-07	-6.424223e-06	-7.561465e-09	-4.418104e+01	-4.974386e+02
3.700000e-07	-6.323581e-06	-7.530117e-09	-4.348890e+01	-4.940331e+02
3.800000e-07	-6.220668e-06	-7.489325e-09	-4.278115e+01	-4.905175e+02
3.900000e-07	-6.115425e-06	-7.424662e-09	-4.205736e+01	-4.868791e+02
4.000000e-07	-6.007971e-06	-7.355472e-09	-4.131837e+01	-4.831067e+02
4.100000e-07	-5.898482e-06	-7.291193e-09	-4.056539e+01	-4.791912e+02
4.200000e-07	-5.786879e-06	-7.224153e-09	-3.979787e+01	-4.751276e+02
4.300000e-07	-5.673041e-06	-7.168268e-09	-3.901498e+01	-4.709153e+02
4.400000e-07	-5.557006e-06	-7.113153e-09	-3.821697e+01	-4.665578e+02
4.500000e-07	-5.438865e-06	-7.048443e-09	-3.740449e+01	-4.620623e+02
4.600000e-07	-5.318742e-06	-6.974498e-09	-3.657837e+01	-4.574375e+02
4.700000e-07	-5.196775e-06	-6.900151e-09	-3.573957e+01	-4.526924e+02
4.800000e-07	-5.072985e-06	-6.823093e-09	-3.488823e+01	-4.478336e+02
4.900000e-07	-4.947346e-06	-6.746268e-09	-3.402418e+01	-4.428641e+02
5.000000e-07	-4.819934e-06	-6.667953e-09	-3.314794e+01	-4.377814e+02
5.100000e-07	-4.690792e-06	-6.583227e-09	-3.225979e+01	-4.325773e+02
5.200000e-07	-4.559894e-06	-6.502623e-09	-3.135957e+01	-4.272383e+02
5.300000e-07	-4.427291e-06	-6.423212e-09	-3.044763e+01	-4.217468e+02
5.400000e-07	-4.293087e-06	-6.333969e-09	-2.952468e+01	-4.160829e+02
5.500000e-07	-4.157212e-06	-6.232749e-09	-2.859022e+01	-4.102268e+02
5.600000e-07	-4.019657e-06	-6.138093e-09	-2.764423e+01	-4.041614e+02
5.700000e-07	-3.880515e-06	-6.052335e-09	-2.668731e+01	-3.978739e+02
5.800000e-07	-3.739769e-06	-5.955914e-09	-2.571936e+01	-3.913573e+02
5.900000e-07	-3.597459e-06	-5.853471e-09	-2.474066e+01	-3.846105e+02
6.000000e-07	-3.453769e-06	-5.750571e-09	-2.375246e+01	-3.776379e+02
6.100000e-07	-3.308836e-06	-5.639300e-09	-2.275572e+01	-3.704470e+02
6.200000e-07	-3.162704e-06	-5.517177e-09	-2.175074e+01	-3.630464e+02
6.300000e-07	-3.015413e-06	-5.399540e-09	-2.073778e+01	-3.554426e+02
6.400000e-07	-2.867092e-06	-5.288541e-09	-1.971773e+01	-3.476373e+02
6.500000e-07	-2.717849e-06	-5.168256e-09	-1.869135e+01	-3.396252e+02
6.600000e-07	-2.567611e-06	-5.035914e-09	-1.765812e+01	-3.313930e+02
6.700000e-07	-2.416395e-06	-4.901707e-09	-1.661818e+01	-3.229191e+02
6.800000e-07	-2.264305e-06	-4.768019e-09	-1.557222e+01	-3.141753e+02
6.900000e-07	-2.111455e-06	-4.626280e-09	-1.452103e+01	-3.051294e+02
7.000000e-07	-1.957921e-06	-4.480274e-09	-1.346513e+01	-2.957485e+02
7.100000e-07	-1.803694e-06	-4.334062e-09	-1.240447e+01	-2.860024e+02
7.200000e-07	-1.648842e-06	-4.182112e-09	-1.133952e+01	-2.758675e+02
7.300000e-07	-1.493445e-06	-4.020505e-09	-1.027081e+01	-2.653283e+02
7.400000e-07	-1.337548e-06	-3.852917e-09	-9.198667e+00	-2.543791e+02
7.500000e-07	-1.181200e-06	-3.679719e-09	-8.123419e+00	-2.430222e+02
7.600000e-07	-1.024489e-06	-3.499979e-09	-7.045675e+00	-2.312659e+02
7.700000e-07	-8.674668e-07	-3.316662e-09	-5.965794e+00	-2.191194e+02
7.800000e-07	-7.101390e-07	-3.129896e-09	-4.883810e+00	-2.065883e+02
7.900000e-07	-5.525503e-07	-2.935057e-09	-3.800032e+00	-1.936680e+02
8.000000e-07	-3.948415e-07	-2.729687e-09	-2.715427e+00	-1.803396e+02
8.100000e-07	-2.369914e-07	-2.516155e-09	-1.629851e+00	-1.665661e+02
8.200000e-07	-7.893238e-08	-2.294446e-09	-5.428384e-01	-1.522912e+02
8.300000e-07	7.918016e-08	-2.065715e-09	5.445425e-01	-1.374416e+02
8.400000e-07	2.372394e-07	-1.827701e-09	1.631557e+00	-1.219315e+02
8.500000e-07	3.952408e-07	-1.578459e-09	2.718173e+00	-1.056706e+02
8.600000e-07	5.531657e-07	-1.318322e-09	3.804264e+00	-8.857394e+01
8.700000e-07	7.109256e-07	-1.047332e-09	4.889220e+00	-7.057323e+01
8.800000e-07	8.684375e-07	-7.647137e-10	5.972470e+00	-5.162808e+01
8.900000e-07	1.025719e-06	-4.663299e-10	7.054137e+00	-3.173599e+01
9.000000e-07	1.182718e-06	-1.524516e-10	8.133856e+00	-1.093978e+01
9.100000e-07	1.339334e-06	1.729484e-10	9.210945e+00	1.066855e+01
9.200000e-07	1.495498e-06	5.092242e-10	1.028492e+01	3.294833e+01
9.300000e-07	1.651125e-06	8.593681e-10	1.135521e+01	5.571514e+01
9.400000e-07	1.806133e-06	1.219498e-09	1.242125e+01	7.875000e+01
9.500000e-07	1.960430e-06	1.579510e-09	1.348238e+01	1.018119e+02
9.600000e-07	2.113990e-06	1.931672e-09	1.453846e+01	1.246528e+02
9.700000e-07	2.266839e-06	2.273525e-09	1.558964e+01	1.470329e+02
9.800000e-07	2.418912e-06	2.602662e-09	1.663548e+01	1.687363e+02
9.900000e-07	2.569981e-06	2.913626e-09	1.767442e+01	1.895826e+02
1.000000e-06	2.719899e-06	3.206692e-09	1.870545e+01	2.094372e+02
1.010000e-06	2.868741e-06	3.483765e-09	1.972907e+01	2.282155e+02
1.020000e-06	3.016569e-06	3.746835e-09	2.074572e+01	2.458837e+02
1.030000e-06	3.163291e-06	3.996806e-09	2.175477e+01	2.624548e+02
1.040000e-06	3.308893e-06	4.235051e-09	2.275611e+01	2.779806e+02
1.050000e-06	3.453294e-06	4.460574e-09	2.374920e+01	2.925414e+02
1.060000e-06	3.596355e-06	4.672435e-09	2.473307e+01	3.062342e+02
1.070000e-06	3.738030e-06	4.871497e-09	2.570741e+01	3.191608e+02
1.080000e-06	3.878287e-06	5.059868e-09	2.667199e+01	3.314174e+02
1.090000e-06	4.017107e-06	5.239319e-09	2.762669e+01	3.430861e+02
1.100000e-06	4.154450e-06	5.408891e-09	2.857123e+01	3.542299e+02
1.110000e-06	4.290211e-06	5.568429e-09	2.950489e+01	3.648907e+02
1.120000e-06	4.424368e-06	5.720902e-09	3.042753e+01	3.750909e+02
1.130000e-06	4.556941e-06	5.868772e-09	3.133926e+01	3.848365e+02
1.140000e-06	4.687911e-06	6.011646e-09	3.223998e+01	3.941234e+02
1.150000e-06	4.817300e-06	6.146479e-09	3.312982e+01	4.029435e+02
1.160000e-06	4.944979e-06	6.271947e-09	3.400790e+01	4.112907e+02
1.170000e-06	5.070947e-06	6.389765e-09	3.487422e+01	4.191662e+02
1.180000e-06	5.195215e-06	6.499170e-09	3.572884e+01	4.265818e+02
1.190000e-06	5.317662e-06	6.600936e-09	3.657094e+01	4.335611e+02
1.200000e-06	5.438230e-06	6.698508e-09	3.740012e+01	4.401384e+02
1.210000e-06	5.556804e-06	6.794681e-09	3.821558e+01	4.463568e+02
1.220000e-06	5.673306e-06	6.887202e-09	3.901680e+01	4.522635e+02
1.230000e-06	5.787597e-06	6.974819e-09	3.980280e+01	4.579056e+02
1.240000e-06	5.899509e-06	7.059402e-09	4.057246e+01	4.633262e+02
1.250000e-06	6.009226e-06	7.140762e-09	4.132700e+01	4.685600e+02
1.260000e-06	6.116921e-06	7.219094e-09	4.206765e+01	4.736317e+02
1.270000e-06	6.222448e-06	7.294892e-09	4.279339e+01	4.785547e+02
1.280000e-06	6.325651e-06	7.366975e-09	4.350314e+01	4.833323e+02
1.290000e-06	6.426510e-06	7.434383e-09	4.419678e+01	4.879591e+02
1.300000e-06	6.524982e-06	7.498050e-09	4.487399e+01	4.924247e+02
1.310000e-06	6.620948e-06	7.561953e-09	4.553398e+01	4.967165e+02
1.320000e-06	6.714518e-06	7.624364e-09	4.617749e+01	5.008231e+02
1.330000e-06	6.805754e-06	7.681990e-09	4.680494e+01	5.047369e+02
1.340000e-06	6.894539e-06	7.737064e-09	4.741553e+01	5.084555e+02
1.350000e-06	6.980890e-06	7.790047e-09	4.800939e+01	5.119827e+02
1.360000e-06	7.064855e-06	7.842157e-09	4.858684e+01	5.153274e+02
1.370000e-06	7.146274e-06	7.893083e-09	4.914678e+01	5.185022e+02
1.380000e-06	7.225052e-06	7.940202e-09	4.968855e+01	5.215214e+02
1.390000e-06	7.301202e-06	7.982255e-09	5.021226e+01	5.243987e+02
1.400000e-06	7.374634e-06	8.019336e-09	5.071727e+01	5.271449e+02
1.410000e-06	7.445379e-06	8.055957e-09	5.120380e+01	5.297670e+02
1.420000e-06	7.513538e-06	8.093928e-09	5.167255e+01	5.322671e+02
1.430000e-06	7.578996e-06	8.129364e-09	5.212272e+01	5.346427e+02
1.440000e-06	7.641757e-06	8.161350e-09	5.255434e+01	5.368881e+02
1.450000e-06	7.702023e-06	8.192454e-09	5.296881e+01	5.389957e+02
1.460000e-06	7.759597e-06	8.222609e-09	5.336476e+01	5.409583e+02
1.470000e-06	7.814364e-06	8.248518e-09	5.374140e+01	5.427708e+02
1.480000e-06	7.866107e-06	8.270384e-09	5.409726e+01	5.444315e+02
1.490000e-06	7.914579e-06	8.291987e-09	5.443061e+01	5.459438e+02
1.500000e-06	7.960167e-06	8.313521e-09	5.474413e+01	5.473151e+02
1.510000e-06	8.002998e-06	8.333549e-09	5.503869e+01	5.485571e+02
1.520000e-06	8.042876e-06	8.351609e-09	5.531294e+01	5.496839e+02
1.530000e-06	8.079923e-06	8.368136e-09	5.556773e+01	5.507103e+02
1.540000e-06	8.114120e-06	8.383279e-09	5.580291e+01	5.516498e+02
1.550000e-06	8.145353e-06	8.398044e-09	5.601771e+01	5.525128e+02
1.560000e-06	8.173767e-06	8.412105e-09	5.621312e+01	5.533056e+02
1.570000e-06	8.199215e-06	8.423970e-09	5.638813e+01	5.540293e+02
1.580000e-06	8.221623e-06	8.433089e-09	5.654223e+01	5.546803e+02
1.590000e-06	8.241185e-06	8.441471e-09	5.667677e+01	5.552513e+02
1.600000e-06	8.257795e-06	8.448979e-09	5.679100e+01	5.557321e+02
1.610000e-06	8.271293e-06	8.453915e-09	5.688383e+01	5.561124e+02
1.620000e-06	8.281570e-06	8.456910e-09	5.695450e+01	5.563829e+02
1.630000e-06	8.288711e-06	8.458886e-09	5.700361e+01	5.565372e+02
1.640000e-06	8.292942e-06	8.461357e-09	5.703271e+01	5.565732e+02
1.650000e-06	8.294220e-06	8.464223e-09	5.704150e+01	5.564931e+02
1.660000e-06	8.292628e-06	8.465392e-09	5.703056e+01	5.563038e+02
1.670000e-06	8.288343e-06	8.460613e-09	5.700109e+01	5.560157e+02
1.680000e-06	8.281249e-06	8.455857e-09	5.695230e+01	5.556415e+02
1.690000e-06	8.271404e-06	8.449498e-09	5.688459e+01	5.551946e+02
1.700000e-06	8.258718e-06	8.442683e-09	5.679735e+01	5.546873e+02
1.710000e-06	8.243119e-06	8.437743e-09	5.669006e+01	5.541296e+02
1.720000e-06	8.224970e-06	8.431843e-09	5.656525e+01	5.535281e+02
1.730000e-06	8.204415e-06	8.415974e-09	5.642389e+01	5.528855e+02
1.740000e-06	8.181009e-06	8.378011e-09	5.626292e+01	5.522005e+02
1.750000e-06	8.154028e-06	8.354374e-09	5.607737e+01	5.514687e+02
1.760000e-06	8.123177e-06	8.359249e-09	5.586519e+01	5.506833e+02
1.770000e-06	8.089167e-06	8.351283e-09	5.563130e+01	5.498360e+02
1.780000e-06	8.052799e-06	8.346300e-09	5.538118e+01	5.489185e+02
1.790000e-06	8.014039e-06	8.371931e-09	5.511463e+01	5.479230e+02
1.800000e-06	7.973125e-06	8.374001e-09	5.483325e+01	5.468427e+02
1.810000e-06	7.930101e-06	8.280565e-09	5.453736e+01	5.456723e+02
1.820000e-06	7.884224e-06	8.284095e-09	5.422185e+01	5.444074e+02
1.830000e-06	7.835480e-06	8.285987e-09	5.388663e+01	5.430447e+02
1.840000e-06	7.783806e-06	8.252019e-09	5.353125e+01	5.415808e+02
1.850000e-06	7.728950e-06	8.281373e-09	5.315399e+01	5.400122e+02
1.860000e-06	7.671348e-06	8.240753e-09	5.275785e+01	5.383351e+02
1.870000e-06	7.610892e-06	8.216641e-09	5.234208e+01	5.365448e+02
1.880000e-06	7.547593e-06	8.143454e-09	5.190675e+01	5.346369e+02
1.890000e-06	7.481548e-06	8.121767e-09	5.145255e+01	5.326072e+02
1.900000e-06	7.412524e-06	8.119161e-09	5.097785e+01	5.304526e+02
1.910000e-06	7.340585e-06	8.031145e-09	5.048311e+01	5.281718e+02
1.920000e-06	7.265811e-06	8.031824e-09	4.996887e+01	5.257660e+02
1.930000e-06	7.188276e-06	7.998343e-09	4.943564e+01	5.232390e+02
1.940000e-06	7.108008e-06	7.947804e-09	4.888361e+01	5.205967e+02
1.950000e-06	7.025153e-06	7.901663e-09	4.831380e+01	5.178472e+02
1.960000e-06	6.939681e-06	7.847651e-09	4.772599e+01	5.149991e+02
1.970000e-06	6.851533e-06	7.818997e-09	4.711977e+01	5.120605e+02
1.980000e-06	6.760924e-06	7.755312e-09	4.649663e+01	5.090377e+02
1.990000e-06	6.667931e-06	7.735804e-09	4.585709e+01	5.059339e+02
2.000000e-06	6.572593e-06	7.698869e-09	4.520143e+01	5.027486e+02
2.010000e-06	6.474916e-06	7.642255e-09	4.452968e+01	4.994773e+02
2.020000e-06	6.374933e-06	7.563972e-09	4.384207e+01	4.961116e+02
2.030000e-06	6.272562e-06	7.500981e-09	4.313804e+01	4.926406e+02
2.040000e-06	6.167849e-06	7.462401e-09	4.241790e+01	4.890517e+02
2.050000e-06	6.061092e-06	7.409696e-09	4.168370e+01	4.853330e+02
2.060000e-06	5.952278e-06	7.371315e-09	4.093536e+01	4.814744e+02
2.070000e-06	5.841340e-06	7.305630e-09	4.017241e+01	4.774691e+02
2.080000e-06	5.728233e-06	7.229381e-09	3.939454e+01	4.733148e+02
2.090000e-06	5.612891e-06	7.145948e-09	3.860131e+01	4.690135e+02
2.100000e-06	5.495354e-06	7.077261e-09	3.779298e+01	4.645711e+02
2.110000e-06	5.375821e-06	7.017602e-09	3.697092e+01	4.599958e+02
2.120000e-06	5.254404e-06	6.961040e-09	3.613590e+01	4.552968e+02
2.130000e-06	5.131159e-06	6.889597e-09	3.528831e+01	4.504819e+02
2.140000e-06	5.006048e-06	6.809535e-09	3.442789e+01	4.455557e+02
2.150000e-06	4.879043e-06	6.733446e-09	3.355445e+01	4.405179e+02
2.160000e-06	4.750293e-06	6.653425e-09	3.266900e+01	4.353627e+02
2.170000e-06	4.619908e-06	6.572684e-09	3.177231e+01	4.300784e+02
2.180000e-06	4.487830e-06	6.483440e-09	3.086397e+01	4.246490e+02
2.190000e-06	4.354003e-06	6.405071e-09	2.994361e+01	4.190550e+02
2.200000e-06	4.218582e-06	6.321139e-09	2.901229e+01	4.132765e+02
2.210000e-06	4.081572e-06	6.227558e-09	2.807003e+01	4.072950e+02
2.220000e-06	3.942908e-06	6.130066e-09	2.711640e+01	4.010957e+02
2.230000e-06	3.802562e-06	6.031870e-09	2.615121e+01	3.946694e+02
2.240000e-06	3.660760e-06	5.923805e-09	2.517600e+01	3.880126e+02
2.250000e-06	3.517606e-06	5.818008e-09	2.419149e+01	3.811277e+02
2.260000e-06	3.373160e-06	5.723496e-09	2.319809e+01	3.740214e+02
2.270000e-06	3.227580e-06	5.626485e-09	2.219690e+01	3.667020e+02
2.280000e-06	3.080817e-06	5.511761e-09	2.118758e+01	3.591774e+02
2.290000e-06	2.932827e-06	5.379560e-09	2.016981e+01	3.514512e+02
2.300000e-06	2.783736e-06	5.250653e-09	1.914447e+01	3.435214e+02
2.310000e-06	2.633701e-06	5.126792e-09	1.811264e+01	3.353776e+02
2.320000e-06	2.482762e-06	5.004245e-09	1.707460e+01	3.270015e+02
2.330000e-06	2.331026e-06	4.881439e-09	1.603107e+01	3.183672e+02
2.340000e-06	2.178570e-06	4.749396e-09	1.498259e+01	3.094438e+02
2.350000e-06	2.025380e-06	4.603436e-09	1.392906e+01	3.001982e+02
2.360000e-06	1.871547e-06	4.450857e-09	1.287112e+01	2.905986e+02
2.370000e-06	1.717119e-06	4.298863e-09	1.180907e+01	2.806186e+02
2.380000e-06	1.562066e-06	4.144315e-09	1.074273e+01	2.702393e+02
2.390000e-06	1.406426e-06	3.981590e-09	9.672360e+00	2.594511e+02
2.400000e-06	1.250201e-06	3.810936e-09	8.597956e+00	2.482534e+02
2.410000e-06	1.093473e-06	3.636700e-09	7.520094e+00	2.366527e+02
2.420000e-06	9.364167e-07	3.458917e-09	6.439981e+00	2.246584e+02
2.430000e-06	7.790945e-07	3.271204e-09	5.358035e+00	2.122780e+02
2.440000e-06	6.214937e-07	3.075851e-09	4.274173e+00	1.995118e+02
2.450000e-06	4.636322e-07	2.872856e-09	3.188519e+00	1.863470e+02
2.460000e-06	3.055937e-07	2.662662e-09	2.101647e+00	1.727538e+02
2.470000e-06	1.474133e-07	2.446808e-09	1.013800e+00	1.586835e+02
2.480000e-06	-1.086218e-08	2.222578e-09	-7.470205e-02	1.440692e+02
2.490000e-06	-1.691318e-07	1.987865e-09	-1.163163e+00	1.288291e+02
2.500000e-06	-3.273560e-07	1.739511e-09	-2.251312e+00	1.128737e+02
2.510000e-06	-4.854603e-07	1.478974e-09	-3.338636e+00	9.611451e+01
2.520000e-06	-6.434005e-07	1.209340e-09	-4.424832e+00	7.847539e+01
2.530000e-06	-8.011604e-07	9.295810e-10	-5.509788e+00	5.990369e+01
2.540000e-06	-9.586703e-07	6.387102e-10	-6.593024e+00	4.038096e+01
2.550000e-06	-1.115868e-06	3.347628e-10	-7.674112e+00	1.993156e+01
2.560000e-06	-1.272639e-06	1.421583e-11	-8.752265e+00	-1.372047e+00
2.570000e-06	-1.428911e-06	-3.230446e-10	-9.826989e+00	-2.340796e+01
2.580000e-06	-1.584665e-06	-6.719203e-10	-1.089815e+01	-4.600807e+01
2.590000e-06	-1.739719e-06	-1.025714e-09	-1.196450e+01	-6.896563e+01
2.600000e-06	-1.894048e-06	-1.383000e-09	-1.302586e+01	-9.204663e+01
2.610000e-06	-2.047729e-06	-1.741502e-09	-1.408276e+01	-1.150039e+02
2.620000e-06	-2.200647e-06	-2.094735e-09	-1.513442e+01	-1.375926e+02
2.630000e-06	-2.352712e-06	-2.433401e-09	-1.618021e+01	-1.595858e+02
2.640000e-06	-2.503834e-06	-2.753860e-09	-1.721952e+01	-1.807877e+02
2.650000e-06	-2.653999e-06	-3.059147e-09	-1.825224e+01	-2.010450e+02
2.660000e-06	-2.803283e-06	-3.350332e-09	-1.927891e+01	-2.202531e+02
2.670000e-06	-2.951516e-06	-3.623119e-09	-2.029834e+01	-2.383585e+02
2.680000e-06	-3.098535e-06	-3.877434e-09	-2.130943e+01	-2.553565e+02
2.690000e-06	-3.244409e-06	-4.119483e-09	-2.231264e+01	-2.712849e+02
2.700000e-06	-3.389118e-06	-4.349781e-09	-2.330785e+01	-2.862141e+02
2.710000e-06	-3.532583e-06	-4.569693e-09	-2.429449e+01	-3.002359e+02
2.720000e-06	-3.674742e-06	-4.779638e-09	-2.527215e+01	-3.134517e+02
2.730000e-06	-3.815498e-06	-4.979749e-09	-2.624017e+01	-3.259610e+02
2.740000e-06	-3.954791e-06	-5.164526e-09	-2.719812e+01	-3.378522e+02
2.750000e-06	-4.092578e-06	-5.334855e-09	-2.814572e+01	-3.491962e+02
2.760000e-06	-4.228813e-06	-5.498814e-09	-2.908264e+01	-3.600433e+02
2.770000e-06	-4.363571e-06	-5.653807e-09	-3.000941e+01	-3.704230e+02
2.780000e-06	-4.496823e-06	-5.800574e-09	-3.092581e+01	-3.803475e+02
2.790000e-06	-4.628471e-06	-5.940800e-09	-3.183119e+01	-3.898157e+02
2.800000e-06	-4.758546e-06	-6.077053e-09	-3.272575e+01	-3.988203e+02
2.810000e-06	-4.886980e-06	-6.208086e-09	-3.360903e+01	-4.073538e+02
2.820000e-06	-5.013753e-06	-6.332786e-09	-3.448088e+01	-4.154140e+02
2.830000e-06	-5.138777e-06	-6.454329e-09	-3.534070e+01	-4.230084e+02
2.840000e-06	-5.261897e-06	-6.569602e-09	-3.618743e+01	-4.301557e+02
2.850000e-06	-5.383158e-06	-6.674604e-09	-3.702137e+01	-4.368864e+02
2.860000e-06	-5.502502e-06	-6.770921e-09	-3.784214e+01	-4.432405e+02
2.870000e-06	-5.619668e-06	-6.863627e-09	-3.864791e+01	-4.492640e+02
2.880000e-06	-5.734458e-06	-6.952453e-09	-3.943736e+01	-4.550048e+02
2.890000e-06	-5.846911e-06	-7.034814e-09	-4.021072e+01	-4.605079e+02
2.900000e-06	-5.957128e-06	-7.113658e-09	-4.096872e+01	-4.658118e+02
2.910000e-06	-6.065267e-06	-7.192822e-09	-4.171242e+01	-4.709451e+02
2.920000e-06	-6.171356e-06	-7.270635e-09	-4.244202e+01	-4.759258e+02
2.930000e-06	-6.275197e-06	-7.344636e-09	-4.315616e+01	-4.807609e+02
2.940000e-06	-6.376666e-06	-7.416167e-09	-4.385398e+01	-4.854481e+02
