# Temperatura_=_65.79
# Concentracion g/m^3_=_15000.0
# C_Vs_to_Am_M_A/Vsm_=_65563218390.804596
# pendiente_HvsI_1/m_=_3716.3
# ordenada_HvsI_A/m_=_1297.0
# frecuencia_Hz_=_302329.52429617546

Tiempo_(s)	Campo_(V.s)	Magnetizacion_(V.s)	Campo_(kA/m)	Magnetizacion_(A/m)
0.000000e+00	-8.265678e-06	-8.748943e-09	-5.692041e+01	-5.719009e+02
1.000000e-08	-8.262857e-06	-8.747982e-09	-5.690099e+01	-5.716511e+02
2.000000e-08	-8.257304e-06	-8.741921e-09	-5.686275e+01	-5.713020e+02
3.000000e-08	-8.249096e-06	-8.732646e-09	-5.680622e+01	-5.708656e+02
4.000000e-08	-8.238014e-06	-8.721823e-09	-5.672991e+01	-5.703547e+02
5.000000e-08	-8.223952e-06	-8.710768e-09	-5.663307e+01	-5.697813e+02
6.000000e-08	-8.207027e-06	-8.699590e-09	-5.651652e+01	-5.691553e+02
7.000000e-08	-8.187567e-06	-8.686970e-09	-5.638251e+01	-5.684833e+02
8.000000e-08	-8.165701e-06	-8.686816e-09	-5.623194e+01	-5.677686e+02
9.000000e-08	-8.140885e-06	-8.701872e-09	-5.606104e+01	-5.670106e+02
1.000000e-07	-8.112752e-06	-8.693502e-09	-5.586731e+01	-5.662056e+02
1.100000e-07	-8.081479e-06	-8.664613e-09	-5.565195e+01	-5.653472e+02
1.200000e-07	-8.047228e-06	-8.633638e-09	-5.541609e+01	-5.644276e+02
1.300000e-07	-8.010215e-06	-8.597740e-09	-5.516120e+01	-5.634380e+02
1.400000e-07	-7.970762e-06	-8.555763e-09	-5.488952e+01	-5.623697e+02
1.500000e-07	-7.928904e-06	-8.528910e-09	-5.460127e+01	-5.612146e+02
1.600000e-07	-7.884525e-06	-8.557873e-09	-5.429566e+01	-5.599654e+02
1.700000e-07	-7.837326e-06	-8.553925e-09	-5.397062e+01	-5.586160e+02
1.800000e-07	-7.787111e-06	-8.524614e-09	-5.362483e+01	-5.571609e+02
1.900000e-07	-7.734010e-06	-8.506477e-09	-5.325915e+01	-5.555957e+02
2.000000e-07	-7.677995e-06	-8.444730e-09	-5.287341e+01	-5.539160e+02
2.100000e-07	-7.619149e-06	-8.375851e-09	-5.246818e+01	-5.521183e+02
2.200000e-07	-7.557642e-06	-8.339866e-09	-5.204463e+01	-5.501996e+02
2.300000e-07	-7.493424e-06	-8.343450e-09	-5.160239e+01	-5.481574e+02
2.400000e-07	-7.426352e-06	-8.321724e-09	-5.114052e+01	-5.459907e+02
2.500000e-07	-7.356413e-06	-8.278410e-09	-5.065889e+01	-5.436997e+02
2.600000e-07	-7.283569e-06	-8.260141e-09	-5.015726e+01	-5.412862e+02
2.700000e-07	-7.207813e-06	-8.234751e-09	-4.963558e+01	-5.387541e+02
2.800000e-07	-7.129226e-06	-8.176666e-09	-4.909440e+01	-5.361087e+02
2.900000e-07	-7.047906e-06	-8.130956e-09	-4.853440e+01	-5.333561e+02
3.000000e-07	-6.964095e-06	-8.115611e-09	-4.795725e+01	-5.305029e+02
3.100000e-07	-6.877898e-06	-8.069621e-09	-4.736366e+01	-5.275551e+02
3.200000e-07	-6.789247e-06	-8.002168e-09	-4.675318e+01	-5.245168e+02
3.300000e-07	-6.698076e-06	-7.953141e-09	-4.612535e+01	-5.213897e+02
3.400000e-07	-6.604470e-06	-7.896131e-09	-4.548074e+01	-5.181724e+02
3.500000e-07	-6.508467e-06	-7.826671e-09	-4.481963e+01	-5.148602e+02
3.600000e-07	-6.410039e-06	-7.778125e-09	-4.414182e+01	-5.114455e+02
3.700000e-07	-6.309295e-06	-7.748152e-09	-4.344806e+01	-5.079185e+02
3.800000e-07	-6.206249e-06	-7.703568e-09	-4.273845e+01	-5.042687e+02
3.900000e-07	-6.100908e-06	-7.638199e-09	-4.201303e+01	-5.004857e+02
4.000000e-07	-5.993442e-06	-7.568992e-09	-4.127298e+01	-4.965613e+02
4.100000e-07	-5.883977e-06	-7.496641e-09	-4.051916e+01	-4.924901e+02
4.200000e-07	-5.772395e-06	-7.424555e-09	-3.975078e+01	-4.882706e+02
4.300000e-07	-5.658575e-06	-7.363647e-09	-3.896697e+01	-4.839052e+02
4.400000e-07	-5.542562e-06	-7.311502e-09	-3.816806e+01	-4.793999e+02
4.500000e-07	-5.424455e-06	-7.250242e-09	-3.735474e+01	-4.747625e+02
4.600000e-07	-5.304390e-06	-7.176066e-09	-3.652792e+01	-4.700018e+02
4.700000e-07	-5.182496e-06	-7.095397e-09	-3.568852e+01	-4.651253e+02
4.800000e-07	-5.058749e-06	-7.009456e-09	-3.483636e+01	-4.601371e+02
4.900000e-07	-4.933172e-06	-6.929123e-09	-3.397159e+01	-4.550372e+02
5.000000e-07	-4.805834e-06	-6.851067e-09	-3.309469e+01	-4.498199e+02
5.100000e-07	-4.676736e-06	-6.768890e-09	-3.220568e+01	-4.444739e+02
5.200000e-07	-4.545870e-06	-6.686359e-09	-3.130449e+01	-4.389835e+02
5.300000e-07	-4.413275e-06	-6.602249e-09	-3.039139e+01	-4.333295e+02
5.400000e-07	-4.279108e-06	-6.508525e-09	-2.946747e+01	-4.274916e+02
5.500000e-07	-4.143350e-06	-6.404391e-09	-2.853258e+01	-4.214507e+02
5.600000e-07	-4.005919e-06	-6.307359e-09	-2.758619e+01	-4.151910e+02
5.700000e-07	-3.866894e-06	-6.215687e-09	-2.662881e+01	-4.087018e+02
5.800000e-07	-3.726257e-06	-6.114585e-09	-2.566034e+01	-4.019783e+02
5.900000e-07	-3.584019e-06	-6.009571e-09	-2.468083e+01	-3.950215e+02
6.000000e-07	-3.440379e-06	-5.905916e-09	-2.369168e+01	-3.878370e+02
6.100000e-07	-3.295572e-06	-5.792152e-09	-2.269448e+01	-3.804331e+02
6.200000e-07	-3.149614e-06	-5.666307e-09	-2.168937e+01	-3.728182e+02
6.300000e-07	-3.002405e-06	-5.542793e-09	-2.067563e+01	-3.649975e+02
6.400000e-07	-2.854133e-06	-5.427471e-09	-1.965458e+01	-3.569709e+02
6.500000e-07	-2.704987e-06	-5.306419e-09	-1.862751e+01	-3.487309e+02
6.600000e-07	-2.554884e-06	-5.172900e-09	-1.759385e+01	-3.402615e+02
6.700000e-07	-2.403865e-06	-5.035701e-09	-1.655387e+01	-3.315391e+02
6.800000e-07	-2.252057e-06	-4.894554e-09	-1.550847e+01	-3.225342e+02
6.900000e-07	-2.099451e-06	-4.748725e-09	-1.445757e+01	-3.132136e+02
7.000000e-07	-1.946053e-06	-4.598034e-09	-1.340121e+01	-3.035448e+02
7.100000e-07	-1.791949e-06	-4.445861e-09	-1.234000e+01	-2.934987e+02
7.200000e-07	-1.637260e-06	-4.287412e-09	-1.127476e+01	-2.830535e+02
7.300000e-07	-1.482052e-06	-4.119766e-09	-1.020594e+01	-2.721959e+02
7.400000e-07	-1.326372e-06	-3.948308e-09	-9.133871e+00	-2.609222e+02
7.500000e-07	-1.170272e-06	-3.771573e-09	-8.058910e+00	-2.492366e+02
7.600000e-07	-1.013752e-06	-3.590724e-09	-6.981060e+00	-2.371481e+02
7.700000e-07	-8.568522e-07	-3.404124e-09	-5.900590e+00	-2.246659e+02
7.800000e-07	-6.996537e-07	-3.210387e-09	-4.818065e+00	-2.117936e+02
7.900000e-07	-5.421774e-07	-3.007470e-09	-3.733627e+00	-1.985240e+02
8.000000e-07	-3.845014e-07	-2.796379e-09	-2.647814e+00	-1.848342e+02
8.100000e-07	-2.267128e-07	-2.577513e-09	-1.561226e+00	-1.706821e+02
8.200000e-07	-6.880410e-08	-2.348720e-09	-4.738096e-01	-1.560063e+02
8.300000e-07	8.919321e-08	-2.110583e-09	6.142163e-01	-1.407280e+02
8.400000e-07	2.471973e-07	-1.864559e-09	1.702289e+00	-1.247569e+02
8.500000e-07	4.051157e-07	-1.610584e-09	2.789771e+00	-1.079989e+02
8.600000e-07	5.629047e-07	-1.345494e-09	3.876363e+00	-9.036674e+01
8.700000e-07	7.205262e-07	-1.067095e-09	4.961801e+00	-7.179154e+01
8.800000e-07	8.778856e-07	-7.733912e-10	6.045434e+00	-5.223419e+01
8.900000e-07	1.034964e-06	-4.633240e-10	7.127133e+00	-3.169531e+01
9.000000e-07	1.191697e-06	-1.378643e-10	8.206449e+00	-1.022257e+01
9.100000e-07	1.347972e-06	1.978367e-10	9.282613e+00	1.208569e+01
9.200000e-07	1.503781e-06	5.458006e-10	1.035557e+01	3.508132e+01
9.300000e-07	1.659154e-06	9.090555e-10	1.142553e+01	5.857159e+01
9.400000e-07	1.814023e-06	1.280489e-09	1.249201e+01	8.232882e+01
9.500000e-07	1.968191e-06	1.649326e-09	1.355366e+01	1.061034e+02
9.600000e-07	2.121530e-06	2.008958e-09	1.460961e+01	1.296388e+02
9.700000e-07	2.274027e-06	2.359636e-09	1.565976e+01	1.526879e+02
9.800000e-07	2.425659e-06	2.696653e-09	1.670395e+01	1.750280e+02
9.900000e-07	2.576418e-06	3.018422e-09	1.774214e+01	1.964736e+02
1.000000e-06	2.726123e-06	3.323905e-09	1.877306e+01	2.168860e+02
1.010000e-06	2.874678e-06	3.611194e-09	1.979606e+01	2.361785e+02
1.020000e-06	3.022212e-06	3.880839e-09	2.081203e+01	2.543167e+02
1.030000e-06	3.168667e-06	4.135263e-09	2.182057e+01	2.713143e+02
1.040000e-06	3.313865e-06	4.378638e-09	2.282046e+01	2.872259e+02
1.050000e-06	3.457859e-06	4.607355e-09	2.381205e+01	3.021356e+02
1.060000e-06	3.600665e-06	4.820571e-09	2.479547e+01	3.161455e+02
1.070000e-06	3.742111e-06	5.022626e-09	2.576951e+01	3.293633e+02
1.080000e-06	3.882118e-06	5.218434e-09	2.673365e+01	3.418913e+02
1.090000e-06	4.020587e-06	5.405047e-09	2.768720e+01	3.538179e+02
1.100000e-06	4.157502e-06	5.580215e-09	2.863005e+01	3.652120e+02
1.110000e-06	4.292946e-06	5.745264e-09	2.956276e+01	3.761205e+02
1.120000e-06	4.426856e-06	5.902721e-09	3.048491e+01	3.865691e+02
1.130000e-06	4.559184e-06	6.054917e-09	3.139617e+01	3.965663e+02
1.140000e-06	4.689899e-06	6.199460e-09	3.229632e+01	4.061085e+02
1.150000e-06	4.818957e-06	6.335009e-09	3.318506e+01	4.151865e+02
1.160000e-06	4.946377e-06	6.463244e-09	3.406252e+01	4.237918e+02
1.170000e-06	5.072111e-06	6.584208e-09	3.492837e+01	4.319222e+02
1.180000e-06	5.196080e-06	6.698470e-09	3.578206e+01	4.395853e+02
1.190000e-06	5.318186e-06	6.806124e-09	3.662293e+01	4.468004e+02
1.200000e-06	5.438410e-06	6.908012e-09	3.745084e+01	4.535981e+02
1.210000e-06	5.556631e-06	7.006157e-09	3.826495e+01	4.600181e+02
1.220000e-06	5.672745e-06	7.101056e-09	3.906455e+01	4.661058e+02
1.230000e-06	5.786640e-06	7.193912e-09	3.984887e+01	4.719079e+02
1.240000e-06	5.898282e-06	7.281188e-09	4.061768e+01	4.774682e+02
1.250000e-06	6.007806e-06	7.362859e-09	4.137190e+01	4.828236e+02
1.260000e-06	6.115207e-06	7.439316e-09	4.211150e+01	4.880021e+02
1.270000e-06	6.220411e-06	7.513408e-09	4.283597e+01	4.930212e+02
1.280000e-06	6.323308e-06	7.587994e-09	4.354456e+01	4.978883e+02
1.290000e-06	6.423847e-06	7.659998e-09	4.423691e+01	5.026022e+02
1.300000e-06	6.521957e-06	7.727514e-09	4.491252e+01	5.071561e+02
1.310000e-06	6.617603e-06	7.792259e-09	4.557118e+01	5.115399e+02
1.320000e-06	6.710896e-06	7.855132e-09	4.621363e+01	5.157438e+02
1.330000e-06	6.801820e-06	7.914423e-09	4.683976e+01	5.197606e+02
1.340000e-06	6.890323e-06	7.969925e-09	4.744922e+01	5.235875e+02
1.350000e-06	6.976382e-06	8.023917e-09	4.804186e+01	5.272267e+02
1.360000e-06	7.060010e-06	8.077326e-09	4.861775e+01	5.306851e+02
1.370000e-06	7.141144e-06	8.130072e-09	4.917647e+01	5.339732e+02
1.380000e-06	7.219681e-06	8.180281e-09	4.971730e+01	5.371031e+02
1.390000e-06	7.295607e-06	8.225913e-09	5.024016e+01	5.400865e+02
1.400000e-06	7.368832e-06	8.267180e-09	5.074441e+01	5.429329e+02
1.410000e-06	7.439358e-06	8.306312e-09	5.123008e+01	5.456482e+02
1.420000e-06	7.507286e-06	8.343164e-09	5.169785e+01	5.482342e+02
1.430000e-06	7.572582e-06	8.377403e-09	5.214750e+01	5.506885e+02
1.440000e-06	7.635226e-06	8.409095e-09	5.257889e+01	5.530053e+02
1.450000e-06	7.695248e-06	8.439685e-09	5.299223e+01	5.551776e+02
1.460000e-06	7.752534e-06	8.469290e-09	5.338672e+01	5.571980e+02
1.470000e-06	7.807032e-06	8.495846e-09	5.376201e+01	5.590616e+02
1.480000e-06	7.858457e-06	8.520455e-09	5.411614e+01	5.607664e+02
1.490000e-06	7.906630e-06	8.543842e-09	5.444788e+01	5.623153e+02
1.500000e-06	7.951953e-06	8.566430e-09	5.475999e+01	5.637152e+02
1.510000e-06	7.994549e-06	8.587249e-09	5.505332e+01	5.649774e+02
1.520000e-06	8.034174e-06	8.604648e-09	5.532619e+01	5.661156e+02
1.530000e-06	8.070942e-06	8.619876e-09	5.557939e+01	5.671449e+02
1.540000e-06	8.104933e-06	8.634340e-09	5.581346e+01	5.680794e+02
1.550000e-06	8.135992e-06	8.647331e-09	5.602735e+01	5.689305e+02
1.560000e-06	8.164213e-06	8.658538e-09	5.622169e+01	5.697061e+02
1.570000e-06	8.189533e-06	8.668251e-09	5.639605e+01	5.704091e+02
1.580000e-06	8.211840e-06	8.676765e-09	5.654966e+01	5.710378e+02
1.590000e-06	8.231272e-06	8.685806e-09	5.668348e+01	5.715864e+02
1.600000e-06	8.247701e-06	8.695285e-09	5.679662e+01	5.720464e+02
1.610000e-06	8.260958e-06	8.701961e-09	5.688791e+01	5.724080e+02
1.620000e-06	8.271042e-06	8.705344e-09	5.695735e+01	5.726620e+02
1.630000e-06	8.278011e-06	8.706557e-09	5.700534e+01	5.728015e+02
1.640000e-06	8.282097e-06	8.707499e-09	5.703348e+01	5.728230e+02
1.650000e-06	8.283262e-06	8.708945e-09	5.704150e+01	5.727272e+02
1.660000e-06	8.281492e-06	8.705890e-09	5.702931e+01	5.725191e+02
1.670000e-06	8.276997e-06	8.702079e-09	5.699836e+01	5.722074e+02
1.680000e-06	8.269764e-06	8.697913e-09	5.694855e+01	5.718036e+02
1.690000e-06	8.259788e-06	8.692322e-09	5.687985e+01	5.713203e+02
1.700000e-06	8.246860e-06	8.688029e-09	5.679083e+01	5.707699e+02
1.710000e-06	8.231057e-06	8.685686e-09	5.668200e+01	5.701634e+02
1.720000e-06	8.212786e-06	8.682763e-09	5.655618e+01	5.695087e+02
1.730000e-06	8.192109e-06	8.648713e-09	5.641379e+01	5.688104e+02
1.740000e-06	8.168554e-06	8.606496e-09	5.625158e+01	5.680695e+02
1.750000e-06	8.141384e-06	8.598290e-09	5.606448e+01	5.672834e+02
1.760000e-06	8.110352e-06	8.594214e-09	5.585078e+01	5.664467e+02
1.770000e-06	8.076182e-06	8.584097e-09	5.561548e+01	5.655519e+02
1.780000e-06	8.039670e-06	8.598125e-09	5.536404e+01	5.645907e+02
1.790000e-06	8.000802e-06	8.622648e-09	5.509638e+01	5.635541e+02
1.800000e-06	7.959842e-06	8.579127e-09	5.481432e+01	5.624338e+02
1.810000e-06	7.916745e-06	8.541627e-09	5.451754e+01	5.612221e+02
1.820000e-06	7.870776e-06	8.512945e-09	5.420097e+01	5.599126e+02
1.830000e-06	7.821963e-06	8.479804e-09	5.386483e+01	5.584994e+02
1.840000e-06	7.770161e-06	8.502268e-09	5.350810e+01	5.569778e+02
1.850000e-06	7.715216e-06	8.497254e-09	5.312973e+01	5.553433e+02
1.860000e-06	7.657538e-06	8.508670e-09	5.273254e+01	5.535922e+02
1.870000e-06	7.597017e-06	8.457283e-09	5.231577e+01	5.517212e+02
1.880000e-06	7.533674e-06	8.367867e-09	5.187957e+01	5.497275e+02
1.890000e-06	7.467553e-06	8.354396e-09	5.142424e+01	5.476096e+02
1.900000e-06	7.398516e-06	8.302238e-09	5.094883e+01	5.453670e+02
1.910000e-06	7.326539e-06	8.259921e-09	5.045317e+01	5.430011e+02
1.920000e-06	7.251639e-06	8.250618e-09	4.993737e+01	5.405149e+02
1.930000e-06	7.173935e-06	8.230622e-09	4.940228e+01	5.379131e+02
1.940000e-06	7.093498e-06	8.166494e-09	4.884836e+01	5.352016e+02
1.950000e-06	7.010521e-06	8.097655e-09	4.827695e+01	5.323870e+02
1.960000e-06	6.924954e-06	8.064958e-09	4.768771e+01	5.294755e+02
1.970000e-06	6.836707e-06	8.011402e-09	4.708001e+01	5.264722e+02
1.980000e-06	6.746026e-06	7.978117e-09	4.645554e+01	5.233798e+02
1.990000e-06	6.652984e-06	7.952949e-09	4.581482e+01	5.201981e+02
2.000000e-06	6.557609e-06	7.918103e-09	4.515804e+01	5.169237e+02
2.010000e-06	6.459933e-06	7.847428e-09	4.448541e+01	5.135502e+02
2.020000e-06	6.359947e-06	7.766425e-09	4.379687e+01	5.100684e+02
2.030000e-06	6.257625e-06	7.712986e-09	4.309224e+01	5.064679e+02
2.040000e-06	6.152984e-06	7.664116e-09	4.237164e+01	5.027381e+02
2.050000e-06	6.046197e-06	7.620311e-09	4.163627e+01	4.988699e+02
2.060000e-06	5.937372e-06	7.572027e-09	4.088687e+01	4.948565e+02
2.070000e-06	5.826493e-06	7.510494e-09	4.012332e+01	4.906950e+02
2.080000e-06	5.713487e-06	7.422567e-09	3.934511e+01	4.863863e+02
2.090000e-06	5.598259e-06	7.338654e-09	3.855161e+01	4.819348e+02
2.100000e-06	5.480820e-06	7.262404e-09	3.774288e+01	4.773481e+02
2.110000e-06	5.361312e-06	7.198548e-09	3.691991e+01	4.726347e+02
2.120000e-06	5.239879e-06	7.142077e-09	3.608368e+01	4.678027e+02
2.130000e-06	5.116623e-06	7.080337e-09	3.523489e+01	4.628580e+02
2.140000e-06	4.991499e-06	7.008274e-09	3.437325e+01	4.578021e+02
2.150000e-06	4.864532e-06	6.923720e-09	3.349891e+01	4.526317e+02
2.160000e-06	4.735822e-06	6.835842e-09	3.261256e+01	4.473378e+02
2.170000e-06	4.605447e-06	6.744102e-09	3.171475e+01	4.419061e+02
2.180000e-06	4.473352e-06	6.654691e-09	3.080510e+01	4.363185e+02
2.190000e-06	4.339562e-06	6.574332e-09	2.988377e+01	4.305551e+02
2.200000e-06	4.204234e-06	6.493757e-09	2.895186e+01	4.245958e+02
2.210000e-06	4.067299e-06	6.397023e-09	2.800888e+01	4.184235e+02
2.220000e-06	3.928683e-06	6.296078e-09	2.705431e+01	4.120252e+02
2.230000e-06	3.788411e-06	6.194454e-09	2.608835e+01	4.053937e+02
2.240000e-06	3.646743e-06	6.089401e-09	2.511278e+01	3.985278e+02
2.250000e-06	3.503751e-06	5.984522e-09	2.412808e+01	3.914317e+02
2.260000e-06	3.359481e-06	5.883274e-09	2.313458e+01	3.841128e+02
2.270000e-06	3.214014e-06	5.777866e-09	2.213285e+01	3.765797e+02
2.280000e-06	3.067381e-06	5.655236e-09	2.112308e+01	3.688393e+02
2.290000e-06	2.919535e-06	5.521262e-09	2.010496e+01	3.608939e+02
2.300000e-06	2.770557e-06	5.391601e-09	1.907904e+01	3.527389e+02
2.310000e-06	2.620679e-06	5.265398e-09	1.804693e+01	3.443618e+02
2.320000e-06	2.469917e-06	5.136651e-09	1.700873e+01	3.357419e+02
2.330000e-06	2.318352e-06	5.008079e-09	1.596500e+01	3.268516e+02
2.340000e-06	2.166032e-06	4.875519e-09	1.491607e+01	3.176589e+02
2.350000e-06	2.012986e-06	4.730674e-09	1.386214e+01	3.081304e+02
2.360000e-06	1.859256e-06	4.573870e-09	1.280350e+01	2.982354e+02
2.370000e-06	1.704875e-06	4.412214e-09	1.174038e+01	2.879488e+02
2.380000e-06	1.549929e-06	4.249014e-09	1.067337e+01	2.772540e+02
2.390000e-06	1.394462e-06	4.084099e-09	9.602762e+00	2.661435e+02
2.400000e-06	1.238470e-06	3.912822e-09	8.528550e+00	2.546186e+02
2.410000e-06	1.082000e-06	3.735515e-09	7.451039e+00	2.426870e+02
2.420000e-06	9.251916e-07	3.550108e-09	6.371200e+00	2.303584e+02
2.430000e-06	7.681242e-07	3.352943e-09	5.289578e+00	2.176392e+02
2.440000e-06	6.107966e-07	3.151248e-09	4.206163e+00	2.045273e+02
2.450000e-06	4.532377e-07	2.943995e-09	3.121157e+00	1.910063e+02
2.460000e-06	2.954463e-07	2.729469e-09	2.034549e+00	1.770419e+02
2.470000e-06	1.374712e-07	2.507521e-09	9.466760e-01	1.625801e+02
2.480000e-06	-2.059283e-08	2.276011e-09	-1.418096e-01	1.475487e+02
2.490000e-06	-1.786759e-07	2.035755e-09	-1.230426e+00	1.318608e+02
2.500000e-06	-3.367091e-07	1.782196e-09	-2.318699e+00	1.154227e+02
2.510000e-06	-4.946197e-07	1.515636e-09	-3.406128e+00	9.814328e+01
2.520000e-06	-6.523375e-07	1.237038e-09	-4.492229e+00	7.994492e+01
2.530000e-06	-8.097706e-07	9.454309e-10	-5.576370e+00	6.077553e+01
2.540000e-06	-9.669102e-07	6.437149e-10	-6.658489e+00	4.061910e+01
2.550000e-06	-1.123729e-06	3.297431e-10	-7.738398e+00	1.950415e+01
2.560000e-06	-1.280132e-06	-4.309582e-13	-8.815445e+00	-2.491058e+00
2.570000e-06	-1.436095e-06	-3.470125e-10	-9.889465e+00	-2.523754e+01
2.580000e-06	-1.591607e-06	-7.064566e-10	-1.096037e+01	-4.855915e+01
2.590000e-06	-1.746530e-06	-1.072331e-09	-1.202723e+01	-7.224058e+01
2.600000e-06	-1.900717e-06	-1.440832e-09	-1.308902e+01	-9.603908e+01
2.610000e-06	-2.054088e-06	-1.808868e-09	-1.414518e+01	-1.196990e+02
2.620000e-06	-2.206676e-06	-2.171375e-09	-1.519596e+01	-1.429676e+02
2.630000e-06	-2.358489e-06	-2.521822e-09	-1.624140e+01	-1.656109e+02
2.640000e-06	-2.509400e-06	-2.855288e-09	-1.728062e+01	-1.874273e+02
2.650000e-06	-2.659378e-06	-3.170033e-09	-1.831343e+01	-2.082591e+02
2.660000e-06	-2.808397e-06	-3.466897e-09	-1.933963e+01	-2.279988e+02
2.670000e-06	-2.956419e-06	-3.745731e-09	-2.035895e+01	-2.465915e+02
2.680000e-06	-3.103328e-06	-4.008246e-09	-2.137062e+01	-2.640330e+02
2.690000e-06	-3.248981e-06	-4.256407e-09	-2.237364e+01	-2.803628e+02
2.700000e-06	-3.393413e-06	-4.493124e-09	-2.336825e+01	-2.956548e+02
2.710000e-06	-3.536655e-06	-4.718301e-09	-2.435467e+01	-3.100056e+02
2.720000e-06	-3.678540e-06	-4.930986e-09	-2.533174e+01	-3.235220e+02
2.730000e-06	-3.818975e-06	-5.132839e-09	-2.629882e+01	-3.363097e+02
2.740000e-06	-3.957968e-06	-5.321410e-09	-2.725598e+01	-3.484634e+02
2.750000e-06	-4.095403e-06	-5.498959e-09	-2.820241e+01	-3.600601e+02
2.760000e-06	-4.231340e-06	-5.667284e-09	-2.913852e+01	-3.711554e+02
2.770000e-06	-4.365821e-06	-5.826243e-09	-3.006460e+01	-3.817830e+02
2.780000e-06	-4.498775e-06	-5.976899e-09	-3.098018e+01	-3.919577e+02
2.790000e-06	-4.630192e-06	-6.120181e-09	-3.188516e+01	-4.016798e+02
2.800000e-06	-4.759991e-06	-6.259445e-09	-3.277900e+01	-4.109415e+02
2.810000e-06	-4.888123e-06	-6.393629e-09	-3.366136e+01	-4.197334e+02
2.820000e-06	-5.014559e-06	-6.521366e-09	-3.453205e+01	-4.280503e+02
2.830000e-06	-5.139230e-06	-6.644734e-09	-3.539057e+01	-4.358955e+02
2.840000e-06	-5.262086e-06	-6.763196e-09	-3.623660e+01	-4.432838e+02
2.850000e-06	-5.383110e-06	-6.873317e-09	-3.707002e+01	-4.502413e+02
2.860000e-06	-5.502127e-06	-6.975038e-09	-3.788961e+01	-4.568047e+02
2.870000e-06	-5.619009e-06	-7.071226e-09	-3.869450e+01	-4.630176e+02
2.880000e-06	-5.733596e-06	-7.162250e-09	-3.948359e+01	-4.689267e+02
2.890000e-06	-5.845822e-06	-7.246893e-09	-4.025642e+01	-4.745772e+02
2.900000e-06	-5.955848e-06	-7.328162e-09	-4.101410e+01	-4.800094e+02
2.910000e-06	-6.063771e-06	-7.409314e-09	-4.175729e+01	-4.852550e+02
2.920000e-06	-6.169606e-06	-7.489521e-09	-4.248611e+01	-4.903355e+02
2.930000e-06	-6.273155e-06	-7.565657e-09	-4.319918e+01	-4.952622e+02
2.940000e-06	-6.374310e-06	-7.636681e-09	-4.389578e+01	-5.000371e+02
