# Temperatura_=_26.2
# Concentracion g/m^3_=_15000.0
# C_Vs_to_Am_M_A/Vsm_=_65563218390.804596
# pendiente_HvsI_1/m_=_3716.3
# ordenada_HvsI_A/m_=_1297.0
# frecuencia_Hz_=_302324.37507822947

Tiempo_(s)	Campo_(V.s)	Magnetizacion_(V.s)	Campo_(kA/m)	Magnetizacion_(A/m)
0.000000e+00	-8.221920e-06	-5.708405e-09	-5.692628e+01	-3.714088e+02
1.000000e-08	-8.219063e-06	-5.706862e-09	-5.690650e+01	-3.713101e+02
2.000000e-08	-8.213539e-06	-5.702528e-09	-5.686825e+01	-3.711380e+02
3.000000e-08	-8.205306e-06	-5.696293e-09	-5.681125e+01	-3.708910e+02
4.000000e-08	-8.194186e-06	-5.688352e-09	-5.673426e+01	-3.705702e+02
5.000000e-08	-8.180088e-06	-5.681282e-09	-5.663664e+01	-3.701790e+02
6.000000e-08	-8.163157e-06	-5.674037e-09	-5.651942e+01	-3.697237e+02
7.000000e-08	-8.143794e-06	-5.660430e-09	-5.638535e+01	-3.692131e+02
8.000000e-08	-8.122015e-06	-5.650156e-09	-5.623456e+01	-3.686578e+02
9.000000e-08	-8.097283e-06	-5.639712e-09	-5.606333e+01	-3.680695e+02
1.000000e-07	-8.069227e-06	-5.636630e-09	-5.586907e+01	-3.674600e+02
1.100000e-07	-8.037992e-06	-5.643145e-09	-5.565281e+01	-3.668399e+02
1.200000e-07	-8.003782e-06	-5.623785e-09	-5.541595e+01	-3.662173e+02
1.300000e-07	-7.966848e-06	-5.601392e-09	-5.516023e+01	-3.655971e+02
1.400000e-07	-7.927480e-06	-5.589286e-09	-5.488766e+01	-3.649801e+02
1.500000e-07	-7.885751e-06	-5.575856e-09	-5.459874e+01	-3.643623e+02
1.600000e-07	-7.841541e-06	-5.570911e-09	-5.429264e+01	-3.637354e+02
1.700000e-07	-7.794529e-06	-5.549505e-09	-5.396714e+01	-3.630867e+02
1.800000e-07	-7.744597e-06	-5.572564e-09	-5.362143e+01	-3.624006e+02
1.900000e-07	-7.691717e-06	-5.541118e-09	-5.325530e+01	-3.616594e+02
2.000000e-07	-7.635866e-06	-5.503378e-09	-5.286861e+01	-3.608451e+02
2.100000e-07	-7.577220e-06	-5.502541e-09	-5.246255e+01	-3.599405e+02
2.200000e-07	-7.515910e-06	-5.461552e-09	-5.203806e+01	-3.589314e+02
2.300000e-07	-7.451940e-06	-5.469071e-09	-5.159515e+01	-3.578073e+02
2.400000e-07	-7.385203e-06	-5.454272e-09	-5.113308e+01	-3.565624e+02
2.500000e-07	-7.315643e-06	-5.417448e-09	-5.065147e+01	-3.551959e+02
2.600000e-07	-7.243224e-06	-5.374648e-09	-5.015006e+01	-3.537120e+02
2.700000e-07	-7.167928e-06	-5.358135e-09	-4.962873e+01	-3.521188e+02
2.800000e-07	-7.089733e-06	-5.340230e-09	-4.908733e+01	-3.504277e+02
2.900000e-07	-7.008778e-06	-5.311266e-09	-4.852682e+01	-3.486514e+02
3.000000e-07	-6.925353e-06	-5.307874e-09	-4.794921e+01	-3.468030e+02
3.100000e-07	-6.839523e-06	-5.272164e-09	-4.735495e+01	-3.448936e+02
3.200000e-07	-6.751194e-06	-5.228270e-09	-4.674338e+01	-3.429318e+02
3.300000e-07	-6.660417e-06	-5.191723e-09	-4.611487e+01	-3.409225e+02
3.400000e-07	-6.567263e-06	-5.154314e-09	-4.546989e+01	-3.388664e+02
3.500000e-07	-6.471708e-06	-5.114109e-09	-4.480830e+01	-3.367604e+02
3.600000e-07	-6.373752e-06	-5.076510e-09	-4.413008e+01	-3.345980e+02
3.700000e-07	-6.273487e-06	-5.057197e-09	-4.343587e+01	-3.323703e+02
3.800000e-07	-6.171000e-06	-5.031804e-09	-4.272628e+01	-3.300674e+02
3.900000e-07	-6.066258e-06	-4.986323e-09	-4.200108e+01	-3.276800e+02
4.000000e-07	-5.959372e-06	-4.935352e-09	-4.126103e+01	-3.251998e+02
4.100000e-07	-5.850488e-06	-4.896537e-09	-4.050714e+01	-3.226212e+02
4.200000e-07	-5.739453e-06	-4.858619e-09	-3.973837e+01	-3.199417e+02
4.300000e-07	-5.626232e-06	-4.815918e-09	-3.895446e+01	-3.171616e+02
4.400000e-07	-5.510916e-06	-4.779409e-09	-3.815604e+01	-3.142836e+02
4.500000e-07	-5.393472e-06	-4.740139e-09	-3.734290e+01	-3.113125e+02
4.600000e-07	-5.274029e-06	-4.686620e-09	-3.651590e+01	-3.082534e+02
4.700000e-07	-5.152796e-06	-4.629876e-09	-3.567652e+01	-3.051107e+02
4.800000e-07	-5.029770e-06	-4.579101e-09	-3.482472e+01	-3.018872e+02
4.900000e-07	-4.904875e-06	-4.530178e-09	-3.395998e+01	-2.985830e+02
5.000000e-07	-4.778144e-06	-4.481900e-09	-3.308253e+01	-2.951949e+02
5.100000e-07	-4.649680e-06	-4.432251e-09	-3.219309e+01	-2.917167e+02
5.200000e-07	-4.519525e-06	-4.375106e-09	-3.129193e+01	-2.881394e+02
5.300000e-07	-4.387685e-06	-4.313645e-09	-3.037910e+01	-2.844522e+02
5.400000e-07	-4.254207e-06	-4.253697e-09	-2.945494e+01	-2.806436e+02
5.500000e-07	-4.119150e-06	-4.189687e-09	-2.851984e+01	-2.767027e+02
5.600000e-07	-3.982449e-06	-4.122467e-09	-2.757337e+01	-2.726207e+02
5.700000e-07	-3.844188e-06	-4.059328e-09	-2.661609e+01	-2.683909e+02
5.800000e-07	-3.704413e-06	-4.002093e-09	-2.564832e+01	-2.640104e+02
5.900000e-07	-3.563032e-06	-3.937100e-09	-2.466944e+01	-2.594789e+02
6.000000e-07	-3.420199e-06	-3.864474e-09	-2.368050e+01	-2.547991e+02
6.100000e-07	-3.276105e-06	-3.789482e-09	-2.268284e+01	-2.499750e+02
6.200000e-07	-3.130809e-06	-3.711495e-09	-2.167685e+01	-2.450111e+02
6.300000e-07	-2.984381e-06	-3.631696e-09	-2.066302e+01	-2.399105e+02
6.400000e-07	-2.836917e-06	-3.554051e-09	-1.964202e+01	-2.346738e+02
6.500000e-07	-2.688487e-06	-3.475864e-09	-1.861434e+01	-2.292984e+02
6.600000e-07	-2.539110e-06	-3.387209e-09	-1.758009e+01	-2.237772e+02
6.700000e-07	-2.388798e-06	-3.294276e-09	-1.653937e+01	-2.180993e+02
6.800000e-07	-2.237702e-06	-3.204089e-09	-1.549322e+01	-2.122503e+02
6.900000e-07	-2.085891e-06	-3.114219e-09	-1.444213e+01	-2.062136e+02
7.000000e-07	-1.933372e-06	-3.018298e-09	-1.338613e+01	-1.999717e+02
7.100000e-07	-1.780199e-06	-2.920791e-09	-1.232560e+01	-1.935084e+02
7.200000e-07	-1.626385e-06	-2.821691e-09	-1.126064e+01	-1.868097e+02
7.300000e-07	-1.471987e-06	-2.716810e-09	-1.019163e+01	-1.798654e+02
7.400000e-07	-1.317135e-06	-2.604149e-09	-9.119477e+00	-1.726699e+02
7.500000e-07	-1.161901e-06	-2.485994e-09	-8.044677e+00	-1.652214e+02
7.600000e-07	-1.006298e-06	-2.369185e-09	-6.967325e+00	-1.575219e+02
7.700000e-07	-8.502839e-07	-2.250619e-09	-5.887128e+00	-1.495752e+02
7.800000e-07	-6.938958e-07	-2.128182e-09	-4.804341e+00	-1.413848e+02
7.900000e-07	-5.372621e-07	-2.000555e-09	-3.719852e+00	-1.329521e+02
8.000000e-07	-3.804344e-07	-1.868275e-09	-2.634022e+00	-1.242739e+02
8.100000e-07	-2.234329e-07	-1.733144e-09	-1.546987e+00	-1.153409e+02
8.200000e-07	-6.627444e-08	-1.593856e-09	-4.588657e-01	-1.061367e+02
8.300000e-07	9.094817e-08	-1.447575e-09	6.296997e-01	-9.663768e+01
8.400000e-07	2.481897e-07	-1.294178e-09	1.718396e+00	-8.681462e+01
8.500000e-07	4.054334e-07	-1.134509e-09	2.807107e+00	-7.663454e+01
8.600000e-07	5.625441e-07	-9.694646e-10	3.894898e+00	-6.606413e+01
8.700000e-07	7.194305e-07	-8.008839e-10	4.981136e+00	-5.507357e+01
8.800000e-07	8.760774e-07	-6.286611e-10	6.065715e+00	-4.364076e+01
8.900000e-07	1.032395e-06	-4.502789e-10	7.148016e+00	-3.175534e+01
9.000000e-07	1.188291e-06	-2.639497e-10	8.227395e+00	-1.942216e+01
9.100000e-07	1.343767e-06	-7.443410e-11	9.303868e+00	-6.663767e+00
9.200000e-07	1.498791e-06	1.186546e-10	1.037721e+01	6.478445e+00
9.300000e-07	1.653289e-06	3.205083e-10	1.144691e+01	1.994451e+01
9.400000e-07	1.807165e-06	5.329411e-10	1.251231e+01	3.365770e+01
9.500000e-07	1.960306e-06	7.490999e-10	1.357261e+01	4.752771e+01
9.600000e-07	2.112710e-06	9.612054e-10	1.462781e+01	6.145492e+01
9.700000e-07	2.264393e-06	1.170538e-09	1.567803e+01	7.533540e+01
9.800000e-07	2.415214e-06	1.377269e-09	1.672227e+01	8.906622e+01
9.900000e-07	2.565093e-06	1.580046e-09	1.775999e+01	1.025505e+02
1.000000e-06	2.713941e-06	1.776863e-09	1.879057e+01	1.157018e+02
1.010000e-06	2.861723e-06	1.967912e-09	1.981377e+01	1.284476e+02
1.020000e-06	3.008482e-06	2.152509e-09	2.082989e+01	1.407318e+02
1.030000e-06	3.154147e-06	2.329308e-09	2.183843e+01	1.525150e+02
1.040000e-06	3.298719e-06	2.500970e-09	2.283941e+01	1.637747e+02
1.050000e-06	3.442069e-06	2.666579e-09	2.383192e+01	1.745035e+02
1.060000e-06	3.584046e-06	2.822898e-09	2.481494e+01	1.847067e+02
1.070000e-06	3.724622e-06	2.969582e-09	2.578824e+01	1.943994e+02
1.080000e-06	3.863759e-06	3.111163e-09	2.675159e+01	2.036034e+02
1.090000e-06	4.001423e-06	3.246518e-09	2.770473e+01	2.123442e+02
1.100000e-06	4.137623e-06	3.372236e-09	2.864775e+01	2.206485e+02
1.110000e-06	4.272298e-06	3.490143e-09	2.958020e+01	2.285423e+02
1.120000e-06	4.405429e-06	3.603410e-09	3.050196e+01	2.360497e+02
1.130000e-06	4.537043e-06	3.713331e-09	3.141322e+01	2.431922e+02
1.140000e-06	4.667053e-06	3.816934e-09	3.231337e+01	2.499891e+02
1.150000e-06	4.795480e-06	3.913578e-09	3.320256e+01	2.564578e+02
1.160000e-06	4.922251e-06	4.004629e-09	3.408029e+01	2.626145e+02
1.170000e-06	5.047331e-06	4.091469e-09	3.494631e+01	2.684756e+02
1.180000e-06	5.170641e-06	4.175346e-09	3.580008e+01	2.740575e+02
1.190000e-06	5.292078e-06	4.256253e-09	3.664087e+01	2.793775e+02
1.200000e-06	5.411639e-06	4.333896e-09	3.746868e+01	2.844539e+02
1.210000e-06	5.529159e-06	4.408151e-09	3.828235e+01	2.893052e+02
1.220000e-06	5.644552e-06	4.479808e-09	3.908130e+01	2.939501e+02
1.230000e-06	5.757752e-06	4.548893e-09	3.986507e+01	2.984060e+02
1.240000e-06	5.868715e-06	4.613541e-09	4.063334e+01	3.026887e+02
1.250000e-06	5.977592e-06	4.674554e-09	4.138718e+01	3.068110e+02
1.260000e-06	6.084420e-06	4.732819e-09	4.212682e+01	3.107828e+02
1.270000e-06	6.189025e-06	4.789496e-09	4.285108e+01	3.146103e+02
1.280000e-06	6.291317e-06	4.845137e-09	4.355932e+01	3.182962e+02
1.290000e-06	6.391323e-06	4.898322e-09	4.425174e+01	3.218404e+02
1.300000e-06	6.488925e-06	4.948509e-09	4.492750e+01	3.252405e+02
1.310000e-06	6.584058e-06	4.994578e-09	4.558618e+01	3.284926e+02
1.320000e-06	6.676848e-06	5.036471e-09	4.622863e+01	3.315930e+02
1.330000e-06	6.767323e-06	5.076025e-09	4.685506e+01	3.345385e+02
1.340000e-06	6.855345e-06	5.114615e-09	4.746449e+01	3.373277e+02
1.350000e-06	6.940938e-06	5.152131e-09	4.805712e+01	3.399612e+02
1.360000e-06	7.024140e-06	5.188404e-09	4.863318e+01	3.424425e+02
1.370000e-06	7.104778e-06	5.224075e-09	4.919150e+01	3.447772e+02
1.380000e-06	7.182860e-06	5.257849e-09	4.973212e+01	3.469731e+02
1.390000e-06	7.258351e-06	5.287295e-09	5.025479e+01	3.490394e+02
1.400000e-06	7.331050e-06	5.313891e-09	5.075814e+01	3.509862e+02
1.410000e-06	7.401125e-06	5.340143e-09	5.124332e+01	3.528232e+02
1.420000e-06	7.468693e-06	5.364598e-09	5.171115e+01	3.545593e+02
1.430000e-06	7.533548e-06	5.386712e-09	5.216018e+01	3.562019e+02
1.440000e-06	7.595730e-06	5.407757e-09	5.259071e+01	3.577565e+02
1.450000e-06	7.655336e-06	5.428583e-09	5.300341e+01	3.592265e+02
1.460000e-06	7.712251e-06	5.448495e-09	5.339747e+01	3.606133e+02
1.470000e-06	7.766355e-06	5.466218e-09	5.377207e+01	3.619169e+02
1.480000e-06	7.817370e-06	5.482823e-09	5.412528e+01	3.631360e+02
1.490000e-06	7.865211e-06	5.498180e-09	5.445653e+01	3.642688e+02
1.500000e-06	7.910218e-06	5.512918e-09	5.476814e+01	3.653139e+02
1.510000e-06	7.952433e-06	5.527904e-09	5.506043e+01	3.662703e+02
1.520000e-06	7.991763e-06	5.540986e-09	5.533273e+01	3.671383e+02
1.530000e-06	8.028350e-06	5.552331e-09	5.558605e+01	3.679196e+02
1.540000e-06	8.062137e-06	5.563481e-09	5.581999e+01	3.686172e+02
1.550000e-06	8.092982e-06	5.573611e-09	5.603355e+01	3.692352e+02
1.560000e-06	8.120949e-06	5.581466e-09	5.622718e+01	3.697786e+02
1.570000e-06	8.145953e-06	5.586865e-09	5.640030e+01	3.702528e+02
1.580000e-06	8.168007e-06	5.591715e-09	5.655300e+01	3.706629e+02
1.590000e-06	8.187245e-06	5.598707e-09	5.668620e+01	3.710131e+02
1.600000e-06	8.203510e-06	5.605931e-09	5.679881e+01	3.713065e+02
1.610000e-06	8.216649e-06	5.610535e-09	5.688978e+01	3.715444e+02
1.620000e-06	8.226608e-06	5.613687e-09	5.695874e+01	3.717265e+02
1.630000e-06	8.233481e-06	5.615284e-09	5.700632e+01	3.718509e+02
1.640000e-06	8.237478e-06	5.615594e-09	5.703400e+01	3.719144e+02
1.650000e-06	8.238562e-06	5.616525e-09	5.704150e+01	3.719130e+02
1.660000e-06	8.236808e-06	5.614919e-09	5.702936e+01	3.718424e+02
1.670000e-06	8.232332e-06	5.614380e-09	5.699836e+01	3.716994e+02
1.680000e-06	8.225050e-06	5.612258e-09	5.694795e+01	3.714818e+02
1.690000e-06	8.215016e-06	5.610224e-09	5.687848e+01	3.711896e+02
1.700000e-06	8.202139e-06	5.608772e-09	5.678932e+01	3.708254e+02
1.710000e-06	8.186442e-06	5.606255e-09	5.668064e+01	3.703944e+02
1.720000e-06	8.168231e-06	5.607781e-09	5.655455e+01	3.699043e+02
1.730000e-06	8.147536e-06	5.600091e-09	5.641126e+01	3.693651e+02
1.740000e-06	8.123965e-06	5.597329e-09	5.624807e+01	3.687883e+02
1.750000e-06	8.096838e-06	5.573161e-09	5.606024e+01	3.681858e+02
1.760000e-06	8.065920e-06	5.549396e-09	5.584618e+01	3.675686e+02
1.770000e-06	8.031993e-06	5.556367e-09	5.561127e+01	3.669462e+02
1.780000e-06	7.995755e-06	5.557605e-09	5.536037e+01	3.663247e+02
1.790000e-06	7.957160e-06	5.548016e-09	5.509315e+01	3.657066e+02
1.800000e-06	7.916374e-06	5.515512e-09	5.481076e+01	3.650898e+02
1.810000e-06	7.873353e-06	5.531007e-09	5.451290e+01	3.644677e+02
1.820000e-06	7.827535e-06	5.510535e-09	5.419566e+01	3.638293e+02
1.830000e-06	7.778940e-06	5.503485e-09	5.385920e+01	3.631599e+02
1.840000e-06	7.727373e-06	5.532313e-09	5.350217e+01	3.624425e+02
1.850000e-06	7.672672e-06	5.515577e-09	5.312344e+01	3.616589e+02
1.860000e-06	7.615227e-06	5.546331e-09	5.272571e+01	3.607916e+02
1.870000e-06	7.555040e-06	5.509822e-09	5.230898e+01	3.598250e+02
1.880000e-06	7.492090e-06	5.471329e-09	5.187314e+01	3.587471e+02
1.890000e-06	7.426299e-06	5.447618e-09	5.141762e+01	3.575499e+02
1.900000e-06	7.357609e-06	5.428007e-09	5.094203e+01	3.562309e+02
1.910000e-06	7.286016e-06	5.437791e-09	5.044634e+01	3.547923e+02
1.920000e-06	7.211484e-06	5.403398e-09	4.993030e+01	3.532408e+02
1.930000e-06	7.134180e-06	5.399298e-09	4.939507e+01	3.515866e+02
1.940000e-06	7.054153e-06	5.338290e-09	4.884099e+01	3.498422e+02
1.950000e-06	6.971563e-06	5.292704e-09	4.826915e+01	3.480206e+02
1.960000e-06	6.886419e-06	5.279029e-09	4.767964e+01	3.461339e+02
1.970000e-06	6.798618e-06	5.257002e-09	4.707173e+01	3.441919e+02
1.980000e-06	6.708341e-06	5.253807e-09	4.644668e+01	3.422009e+02
1.990000e-06	6.615718e-06	5.215799e-09	4.580538e+01	3.401633e+02
2.000000e-06	6.520806e-06	5.198589e-09	4.514824e+01	3.380775e+02
2.010000e-06	6.423579e-06	5.151197e-09	4.447507e+01	3.359381e+02
2.020000e-06	6.324036e-06	5.109185e-09	4.378586e+01	3.337371e+02
2.030000e-06	6.222136e-06	5.071269e-09	4.308033e+01	3.314650e+02
2.040000e-06	6.117939e-06	5.045585e-09	4.235890e+01	3.291118e+02
2.050000e-06	6.011606e-06	5.016578e-09	4.162268e+01	3.266688e+02
2.060000e-06	5.903252e-06	4.970860e-09	4.087247e+01	3.241293e+02
2.070000e-06	5.792908e-06	4.935781e-09	4.010848e+01	3.214895e+02
2.080000e-06	5.680463e-06	4.882044e-09	3.932994e+01	3.187487e+02
2.090000e-06	5.565837e-06	4.832335e-09	3.853630e+01	3.159086e+02
2.100000e-06	5.449024e-06	4.785192e-09	3.772752e+01	3.129735e+02
2.110000e-06	5.330160e-06	4.755313e-09	3.690454e+01	3.099482e+02
2.120000e-06	5.209392e-06	4.713206e-09	3.606837e+01	3.068379e+02
2.130000e-06	5.086740e-06	4.668730e-09	3.521917e+01	3.036460e+02
2.140000e-06	4.962223e-06	4.615143e-09	3.435704e+01	3.003736e+02
2.150000e-06	4.835925e-06	4.555536e-09	3.348259e+01	2.970190e+02
2.160000e-06	4.707864e-06	4.498516e-09	3.259594e+01	2.935771e+02
2.170000e-06	4.578052e-06	4.449449e-09	3.169716e+01	2.900399e+02
2.180000e-06	4.446568e-06	4.404630e-09	3.078679e+01	2.863971e+02
2.190000e-06	4.313498e-06	4.351789e-09	2.986545e+01	2.826375e+02
2.200000e-06	4.178861e-06	4.294963e-09	2.893327e+01	2.787498e+02
2.210000e-06	4.042646e-06	4.226549e-09	2.799015e+01	2.747241e+02
2.220000e-06	3.904789e-06	4.154292e-09	2.703567e+01	2.705529e+02
2.230000e-06	3.765345e-06	4.082929e-09	2.607019e+01	2.662317e+02
2.240000e-06	3.624515e-06	4.020836e-09	2.509513e+01	2.617593e+02
2.250000e-06	3.482288e-06	3.955907e-09	2.411039e+01	2.571373e+02
2.260000e-06	3.338776e-06	3.888532e-09	2.311675e+01	2.523693e+02
2.270000e-06	3.194081e-06	3.816602e-09	2.211493e+01	2.474598e+02
2.280000e-06	3.048092e-06	3.736552e-09	2.110414e+01	2.424126e+02
2.290000e-06	2.900879e-06	3.649758e-09	2.008488e+01	2.372295e+02
2.300000e-06	2.752710e-06	3.565794e-09	1.905900e+01	2.319091e+02
2.310000e-06	2.603646e-06	3.488530e-09	1.802692e+01	2.264462e+02
2.320000e-06	2.453674e-06	3.409974e-09	1.698856e+01	2.208314e+02
2.330000e-06	2.302894e-06	3.324495e-09	1.594459e+01	2.150515e+02
2.340000e-06	2.151406e-06	3.232519e-09	1.489574e+01	2.090905e+02
2.350000e-06	1.999200e-06	3.137092e-09	1.384191e+01	2.029312e+02
2.360000e-06	1.846270e-06	3.036788e-09	1.278306e+01	1.965567e+02
2.370000e-06	1.692727e-06	2.934506e-09	1.171997e+01	1.899518e+02
2.380000e-06	1.538510e-06	2.831602e-09	1.065221e+01	1.831050e+02
2.390000e-06	1.383753e-06	2.726449e-09	9.580722e+00	1.760085e+02
2.400000e-06	1.228657e-06	2.616137e-09	8.506880e+00	1.686593e+02
2.410000e-06	1.073173e-06	2.501355e-09	7.430353e+00	1.610580e+02
2.420000e-06	9.172748e-07	2.381722e-09	6.350955e+00	1.532078e+02
2.430000e-06	7.610099e-07	2.254126e-09	5.269020e+00	1.451128e+02
2.440000e-06	6.044678e-07	2.124213e-09	4.185166e+00	1.367753e+02
2.450000e-06	4.477207e-07	1.994768e-09	3.099893e+00	1.281943e+02
2.460000e-06	2.908276e-07	1.864641e-09	2.013609e+00	1.193629e+02
2.470000e-06	1.338720e-07	1.729355e-09	9.268921e-01	1.102676e+02
2.480000e-06	-2.313519e-08	1.586810e-09	-1.601816e-01	1.008876e+02
2.490000e-06	-1.801942e-07	1.438585e-09	-1.247614e+00	9.119556e+01
2.500000e-06	-3.372476e-07	1.283770e-09	-2.335008e+00	8.115973e+01
2.510000e-06	-4.942183e-07	1.124360e-09	-3.421829e+00	7.074646e+01
2.520000e-06	-6.510280e-07	9.594767e-10	-4.507536e+00	5.992407e+01
2.530000e-06	-8.076104e-07	7.866788e-10	-5.591669e+00	4.866693e+01
2.540000e-06	-9.639679e-07	6.060062e-10	-6.674245e+00	3.695960e+01
2.550000e-06	-1.120014e-06	4.197763e-10	-7.754663e+00	2.480062e+01
2.560000e-06	-1.275634e-06	2.291386e-10	-8.832134e+00	1.220535e+01
2.570000e-06	-1.430818e-06	3.239824e-11	-9.906584e+00	-7.922740e-01
2.580000e-06	-1.585525e-06	-1.695964e-10	-1.097773e+01	-1.413944e+01
2.590000e-06	-1.739656e-06	-3.767018e-10	-1.204489e+01	-2.776569e+01
2.600000e-06	-1.893079e-06	-5.898771e-10	-1.310715e+01	-4.158561e+01
2.610000e-06	-2.045665e-06	-8.079906e-10	-1.416362e+01	-5.550266e+01
2.620000e-06	-2.197400e-06	-1.027924e-09	-1.521418e+01	-6.941399e+01
2.630000e-06	-2.348321e-06	-1.245313e-09	-1.625912e+01	-8.321566e+01
2.640000e-06	-2.498350e-06	-1.459632e-09	-1.729788e+01	-9.680779e+01
2.650000e-06	-2.647464e-06	-1.666411e-09	-1.833030e+01	-1.100994e+02
2.660000e-06	-2.795632e-06	-1.861721e-09	-1.935618e+01	-1.230122e+02
2.670000e-06	-2.942771e-06	-2.047317e-09	-2.037493e+01	-1.354834e+02
2.680000e-06	-3.088816e-06	-2.227165e-09	-2.138610e+01	-1.474671e+02
2.690000e-06	-3.233659e-06	-2.402004e-09	-2.238895e+01	-1.589342e+02
2.700000e-06	-3.377266e-06	-2.569354e-09	-2.338324e+01	-1.698716e+02
2.710000e-06	-3.519548e-06	-2.728749e-09	-2.436836e+01	-1.802800e+02
2.720000e-06	-3.660471e-06	-2.880071e-09	-2.534408e+01	-1.901710e+02
2.730000e-06	-3.800014e-06	-3.024393e-09	-2.631023e+01	-1.995641e+02
2.740000e-06	-3.938131e-06	-3.161048e-09	-2.726652e+01	-2.084838e+02
2.750000e-06	-4.074818e-06	-3.293284e-09	-2.821290e+01	-2.169565e+02
2.760000e-06	-4.209945e-06	-3.421656e-09	-2.914849e+01	-2.250086e+02
2.770000e-06	-4.343638e-06	-3.539664e-09	-3.007414e+01	-2.326651e+02
2.780000e-06	-4.475927e-06	-3.649247e-09	-3.099007e+01	-2.399486e+02
2.790000e-06	-4.606669e-06	-3.754177e-09	-3.189529e+01	-2.468791e+02
2.800000e-06	-4.735864e-06	-3.856199e-09	-3.278980e+01	-2.534748e+02
2.810000e-06	-4.863392e-06	-3.954163e-09	-3.367276e+01	-2.597522e+02
2.820000e-06	-4.989189e-06	-4.047380e-09	-3.454375e+01	-2.657276e+02
2.830000e-06	-5.113254e-06	-4.135593e-09	-3.540274e+01	-2.714172e+02
2.840000e-06	-5.235501e-06	-4.217976e-09	-3.624915e+01	-2.768380e+02
2.850000e-06	-5.355823e-06	-4.295101e-09	-3.708222e+01	-2.820079e+02
2.860000e-06	-5.474076e-06	-4.368754e-09	-3.790097e+01	-2.869455e+02
2.870000e-06	-5.590126e-06	-4.442313e-09	-3.870447e+01	-2.916694e+02
2.880000e-06	-5.703878e-06	-4.513793e-09	-3.949205e+01	-2.961976e+02
2.890000e-06	-5.815440e-06	-4.580463e-09	-4.026448e+01	-3.005466e+02
2.900000e-06	-5.924935e-06	-4.644410e-09	-4.102259e+01	-3.047306e+02
2.910000e-06	-6.032323e-06	-4.708424e-09	-4.176612e+01	-3.087607e+02
2.920000e-06	-6.137543e-06	-4.772711e-09	-4.249463e+01	-3.126444e+02
2.930000e-06	-6.240447e-06	-4.833092e-09	-4.320711e+01	-3.163858e+02
2.940000e-06	-6.340969e-06	-4.887213e-09	-4.390310e+01	-3.199859e+02
