# Temperatura_=_50.08
# Concentracion g/m^3_=_15000.0
# C_Vs_to_Am_M_A/Vsm_=_65563218390.804596
# pendiente_HvsI_1/m_=_3716.3
# ordenada_HvsI_A/m_=_1297.0
# frecuencia_Hz_=_301962.97143256996

Tiempo_(s)	Campo_(V.s)	Magnetizacion_(V.s)	Campo_(kA/m)	Magnetizacion_(A/m)
0.000000e+00	-6.915168e-06	-1.065352e-08	-4.747234e+01	-6.977278e+02
1.000000e-08	-6.911300e-06	-1.065149e-08	-4.744578e+01	-6.974359e+02
2.000000e-08	-6.905237e-06	-1.064413e-08	-4.740416e+01	-6.969763e+02
3.000000e-08	-6.897001e-06	-1.063762e-08	-4.734762e+01	-6.963563e+02
4.000000e-08	-6.886352e-06	-1.063029e-08	-4.727451e+01	-6.955904e+02
5.000000e-08	-6.873140e-06	-1.062001e-08	-4.718382e+01	-6.946988e+02
6.000000e-08	-6.857425e-06	-1.060315e-08	-4.707593e+01	-6.937053e+02
7.000000e-08	-6.839388e-06	-1.058799e-08	-4.695211e+01	-6.926349e+02
8.000000e-08	-6.819205e-06	-1.060315e-08	-4.681356e+01	-6.915107e+02
9.000000e-08	-6.796558e-06	-1.061097e-08	-4.665808e+01	-6.903513e+02
1.000000e-07	-6.771034e-06	-1.056028e-08	-4.648286e+01	-6.891689e+02
1.100000e-07	-6.742871e-06	-1.051520e-08	-4.628952e+01	-6.879678e+02
1.200000e-07	-6.712444e-06	-1.049323e-08	-4.608065e+01	-6.867437e+02
1.300000e-07	-6.680004e-06	-1.044231e-08	-4.585795e+01	-6.854845e+02
1.400000e-07	-6.645608e-06	-1.040194e-08	-4.562182e+01	-6.841714e+02
1.500000e-07	-6.609250e-06	-1.045097e-08	-4.537222e+01	-6.827810e+02
1.600000e-07	-6.570840e-06	-1.038955e-08	-4.510854e+01	-6.812873e+02
1.700000e-07	-6.530281e-06	-1.034331e-08	-4.483010e+01	-6.796647e+02
1.800000e-07	-6.487322e-06	-1.037649e-08	-4.453519e+01	-6.778899e+02
1.900000e-07	-6.441754e-06	-1.030031e-08	-4.422237e+01	-6.759437e+02
2.000000e-07	-6.393785e-06	-1.030247e-08	-4.389307e+01	-6.738126e+02
2.100000e-07	-6.343220e-06	-1.027555e-08	-4.354594e+01	-6.714889e+02
2.200000e-07	-6.290034e-06	-1.018830e-08	-4.318082e+01	-6.689707e+02
2.300000e-07	-6.234468e-06	-1.014636e-08	-4.279936e+01	-6.662616e+02
2.400000e-07	-6.176441e-06	-1.009095e-08	-4.240101e+01	-6.633691e+02
2.500000e-07	-6.116104e-06	-1.006601e-08	-4.198679e+01	-6.603032e+02
2.600000e-07	-6.053592e-06	-1.003799e-08	-4.155766e+01	-6.570754e+02
2.700000e-07	-5.988836e-06	-9.976024e-09	-4.111311e+01	-6.536969e+02
2.800000e-07	-5.921804e-06	-9.901743e-09	-4.065294e+01	-6.501779e+02
2.900000e-07	-5.852508e-06	-9.837657e-09	-4.017722e+01	-6.465264e+02
3.000000e-07	-5.781096e-06	-9.804016e-09	-3.968698e+01	-6.427481e+02
3.100000e-07	-5.707436e-06	-9.742056e-09	-3.918131e+01	-6.388463e+02
3.200000e-07	-5.631444e-06	-9.697196e-09	-3.865963e+01	-6.348216e+02
3.300000e-07	-5.553201e-06	-9.632476e-09	-3.812249e+01	-6.306729e+02
3.400000e-07	-5.472755e-06	-9.546134e-09	-3.757023e+01	-6.263973e+02
3.500000e-07	-5.390357e-06	-9.489311e-09	-3.700457e+01	-6.219907e+02
3.600000e-07	-5.306228e-06	-9.423446e-09	-3.642703e+01	-6.174483e+02
3.700000e-07	-5.220349e-06	-9.353269e-09	-3.583747e+01	-6.127649e+02
3.800000e-07	-5.132648e-06	-9.267352e-09	-3.523541e+01	-6.079352e+02
3.900000e-07	-5.043122e-06	-9.191636e-09	-3.462082e+01	-6.029539e+02
4.000000e-07	-4.951774e-06	-9.121767e-09	-3.399372e+01	-5.978160e+02
4.100000e-07	-4.858725e-06	-9.049642e-09	-3.335494e+01	-5.925172e+02
4.200000e-07	-4.764066e-06	-8.962666e-09	-3.270511e+01	-5.870535e+02
4.300000e-07	-4.667698e-06	-8.863752e-09	-3.204355e+01	-5.814219e+02
4.400000e-07	-4.569573e-06	-8.773884e-09	-3.136993e+01	-5.756199e+02
4.500000e-07	-4.469762e-06	-8.682433e-09	-3.068473e+01	-5.696459e+02
4.600000e-07	-4.368427e-06	-8.595463e-09	-2.998907e+01	-5.634988e+02
4.700000e-07	-4.265639e-06	-8.506861e-09	-2.928343e+01	-5.571781e+02
4.800000e-07	-4.161248e-06	-8.405171e-09	-2.856679e+01	-5.506831e+02
4.900000e-07	-4.055300e-06	-8.293379e-09	-2.783947e+01	-5.440130e+02
5.000000e-07	-3.947838e-06	-8.185596e-09	-2.710174e+01	-5.371661e+02
5.100000e-07	-3.838937e-06	-8.083764e-09	-2.635414e+01	-5.301395e+02
5.200000e-07	-3.728775e-06	-7.981220e-09	-2.559788e+01	-5.229289e+02
5.300000e-07	-3.617294e-06	-7.870033e-09	-2.483257e+01	-5.155285e+02
5.400000e-07	-3.504366e-06	-7.752337e-09	-2.405732e+01	-5.079307e+02
5.500000e-07	-3.389869e-06	-7.631777e-09	-2.327131e+01	-5.001271e+02
5.600000e-07	-3.273843e-06	-7.506198e-09	-2.247479e+01	-4.921083e+02
5.700000e-07	-3.156506e-06	-7.377793e-09	-2.166928e+01	-4.838651e+02
5.800000e-07	-3.038084e-06	-7.243631e-09	-2.085632e+01	-4.753888e+02
5.900000e-07	-2.918594e-06	-7.108110e-09	-2.003603e+01	-4.666718e+02
6.000000e-07	-2.797929e-06	-6.973958e-09	-1.920767e+01	-4.577083e+02
6.100000e-07	-2.676260e-06	-6.841869e-09	-1.837241e+01	-4.484943e+02
6.200000e-07	-2.553625e-06	-6.702347e-09	-1.753053e+01	-4.390270e+02
6.300000e-07	-2.429895e-06	-6.550368e-09	-1.668112e+01	-4.293049e+02
6.400000e-07	-2.305231e-06	-6.393459e-09	-1.582532e+01	-4.193264e+02
6.500000e-07	-2.179866e-06	-6.235726e-09	-1.496469e+01	-4.090894e+02
6.600000e-07	-2.053902e-06	-6.075698e-09	-1.409995e+01	-3.985899e+02
6.700000e-07	-1.927285e-06	-5.912477e-09	-1.323073e+01	-3.878212e+02
6.800000e-07	-1.799943e-06	-5.746211e-09	-1.235653e+01	-3.767740e+02
6.900000e-07	-1.671781e-06	-5.573195e-09	-1.147670e+01	-3.654356e+02
7.000000e-07	-1.542955e-06	-5.393088e-09	-1.059232e+01	-3.537909e+02
7.100000e-07	-1.413703e-06	-5.210239e-09	-9.705009e+00	-3.418228e+02
7.200000e-07	-1.284079e-06	-5.024400e-09	-8.815151e+00	-3.295139e+02
7.300000e-07	-1.154091e-06	-4.830754e-09	-7.922787e+00	-3.168475e+02
7.400000e-07	-1.023750e-06	-4.630122e-09	-7.028000e+00	-3.038091e+02
7.500000e-07	-8.930015e-07	-4.427115e-09	-6.130418e+00	-2.903867e+02
7.600000e-07	-7.618864e-07	-4.221207e-09	-5.230318e+00	-2.765719e+02
7.700000e-07	-6.305101e-07	-4.005041e-09	-4.328425e+00	-2.623585e+02
7.800000e-07	-4.988802e-07	-3.780193e-09	-3.424791e+00	-2.477422e+02
7.900000e-07	-3.670836e-07	-3.551564e-09	-2.520014e+00	-2.327180e+02
8.000000e-07	-2.351530e-07	-3.316158e-09	-1.614315e+00	-2.172783e+02
8.100000e-07	-1.030934e-07	-3.075809e-09	-7.077319e-01	-2.014102e+02
8.200000e-07	2.905873e-08	-2.830910e-09	1.994869e-01	-1.850931e+02
8.300000e-07	1.612510e-07	-2.576168e-09	1.106981e+00	-1.682980e+02
8.400000e-07	2.934440e-07	-2.309382e-09	2.014480e+00	-1.509863e+02
8.500000e-07	4.255641e-07	-2.034237e-09	2.921480e+00	-1.331117e+02
8.600000e-07	5.575040e-07	-1.753383e-09	3.827241e+00	-1.146224e+02
8.700000e-07	6.892167e-07	-1.460304e-09	4.731444e+00	-9.546602e+01
8.800000e-07	8.207259e-07	-1.153974e-09	5.634249e+00	-7.559462e+01
8.900000e-07	9.520012e-07	-8.383737e-10	6.535448e+00	-5.497158e+01
9.000000e-07	1.082930e-06	-5.149430e-10	7.434269e+00	-3.357815e+01
9.100000e-07	1.213434e-06	-1.809930e-10	8.330175e+00	-1.141966e+01
9.200000e-07	1.343550e-06	1.660915e-10	9.223411e+00	1.146949e+01
9.300000e-07	1.473269e-06	5.262357e-10	1.011393e+01	3.502271e+01
9.400000e-07	1.602449e-06	8.970277e-10	1.100075e+01	5.914051e+01
9.500000e-07	1.730993e-06	1.273348e-09	1.188319e+01	8.369239e+01
9.600000e-07	1.858798e-06	1.653467e-09	1.276057e+01	1.085214e+02
9.700000e-07	1.985797e-06	2.037298e-09	1.363241e+01	1.334512e+02
9.800000e-07	2.112060e-06	2.421841e-09	1.449920e+01	1.582944e+02
9.900000e-07	2.237677e-06	2.801633e-09	1.536156e+01	1.828631e+02
1.000000e-06	2.362580e-06	3.169646e-09	1.621901e+01	2.069780e+02
1.010000e-06	2.486665e-06	3.523543e-09	1.707085e+01	2.304785e+02
1.020000e-06	2.609796e-06	3.865561e-09	1.791614e+01	2.532298e+02
1.030000e-06	2.731962e-06	4.198164e-09	1.875480e+01	2.751287e+02
1.040000e-06	2.853178e-06	4.518331e-09	1.958695e+01	2.961064e+02
1.050000e-06	2.973217e-06	4.822303e-09	2.041101e+01	3.161284e+02
1.060000e-06	3.092112e-06	5.110481e-09	2.122722e+01	3.351922e+02
1.070000e-06	3.209949e-06	5.386797e-09	2.203616e+01	3.533220e+02
1.080000e-06	3.326585e-06	5.650632e-09	2.283686e+01	3.705629e+02
1.090000e-06	3.441959e-06	5.900331e-09	2.362891e+01	3.869731e+02
1.100000e-06	3.555983e-06	6.138030e-09	2.441167e+01	4.026174e+02
1.110000e-06	3.668504e-06	6.364809e-09	2.518412e+01	4.175598e+02
1.120000e-06	3.779656e-06	6.580812e-09	2.594718e+01	4.318592e+02
1.130000e-06	3.889628e-06	6.787854e-09	2.670213e+01	4.455653e+02
1.140000e-06	3.998374e-06	6.987484e-09	2.744867e+01	4.587174e+02
1.150000e-06	4.105774e-06	7.181018e-09	2.818597e+01	4.713441e+02
1.160000e-06	4.211723e-06	7.366370e-09	2.891330e+01	4.834649e+02
1.170000e-06	4.316066e-06	7.541336e-09	2.962961e+01	4.950929e+02
1.180000e-06	4.418830e-06	7.709497e-09	3.033508e+01	5.062375e+02
1.190000e-06	4.520128e-06	7.870189e-09	3.103049e+01	5.169073e+02
1.200000e-06	4.619885e-06	8.023160e-09	3.171532e+01	5.271124e+02
1.210000e-06	4.717929e-06	8.168959e-09	3.238839e+01	5.368660e+02
1.220000e-06	4.814117e-06	8.310043e-09	3.304871e+01	5.461848e+02
1.230000e-06	4.908537e-06	8.446234e-09	3.369690e+01	5.550885e+02
1.240000e-06	5.001313e-06	8.578014e-09	3.433380e+01	5.635987e+02
1.250000e-06	5.092390e-06	8.707554e-09	3.495905e+01	5.717374e+02
1.260000e-06	5.181619e-06	8.831592e-09	3.557160e+01	5.795250e+02
1.270000e-06	5.268880e-06	8.947809e-09	3.617064e+01	5.869789e+02
1.280000e-06	5.354216e-06	9.057806e-09	3.675646e+01	5.941127e+02
1.290000e-06	5.437753e-06	9.163252e-09	3.732994e+01	6.009361e+02
1.300000e-06	5.519350e-06	9.260932e-09	3.789010e+01	6.074549e+02
1.310000e-06	5.598876e-06	9.351911e-09	3.843605e+01	6.136730e+02
1.320000e-06	5.676351e-06	9.440227e-09	3.896791e+01	6.195934e+02
1.330000e-06	5.751681e-06	9.525853e-09	3.948504e+01	6.252205e+02
1.340000e-06	5.824779e-06	9.606189e-09	3.998686e+01	6.305612e+02
1.350000e-06	5.895700e-06	9.681580e-09	4.047373e+01	6.356263e+02
1.360000e-06	5.964567e-06	9.753583e-09	4.094650e+01	6.404310e+02
1.370000e-06	6.031406e-06	9.823092e-09	4.140534e+01	6.449940e+02
1.380000e-06	6.096055e-06	9.891881e-09	4.184916e+01	6.493368e+02
1.390000e-06	6.158519e-06	9.957504e-09	4.227797e+01	6.534815e+02
1.400000e-06	6.219001e-06	1.001837e-08	4.269318e+01	6.574488e+02
1.410000e-06	6.277352e-06	1.007689e-08	4.309376e+01	6.612557e+02
1.420000e-06	6.333337e-06	1.013285e-08	4.347809e+01	6.649138e+02
1.430000e-06	6.387009e-06	1.018643e-08	4.384655e+01	6.684280e+02
1.440000e-06	6.438201e-06	1.023760e-08	4.419797e+01	6.717961e+02
1.450000e-06	6.486748e-06	1.028515e-08	4.453125e+01	6.750096e+02
1.460000e-06	6.532921e-06	1.032996e-08	4.484823e+01	6.780550e+02
1.470000e-06	6.576934e-06	1.037317e-08	4.515037e+01	6.809160e+02
1.480000e-06	6.618582e-06	1.041506e-08	4.543628e+01	6.835764e+02
1.490000e-06	6.657713e-06	1.045276e-08	4.570492e+01	6.860224e+02
1.500000e-06	6.694623e-06	1.048478e-08	4.595831e+01	6.882451e+02
1.510000e-06	6.729275e-06	1.051359e-08	4.619619e+01	6.902419e+02
1.520000e-06	6.761426e-06	1.053988e-08	4.641690e+01	6.920177e+02
1.530000e-06	6.791233e-06	1.056392e-08	4.662153e+01	6.935839e+02
1.540000e-06	6.818778e-06	1.058485e-08	4.681062e+01	6.949580e+02
1.550000e-06	6.843759e-06	1.060343e-08	4.698211e+01	6.961608e+02
1.560000e-06	6.866175e-06	1.062175e-08	4.713600e+01	6.972141e+02
1.570000e-06	6.886352e-06	1.063843e-08	4.727451e+01	6.981381e+02
1.580000e-06	6.904101e-06	1.065353e-08	4.739636e+01	6.989489e+02
1.590000e-06	6.919219e-06	1.066465e-08	4.750015e+01	6.996565e+02
1.600000e-06	6.931769e-06	1.067223e-08	4.758630e+01	7.002643e+02
1.610000e-06	6.941543e-06	1.067776e-08	4.765340e+01	7.007685e+02
1.620000e-06	6.948636e-06	1.068144e-08	4.770209e+01	7.011595e+02
1.630000e-06	6.953396e-06	1.068298e-08	4.773477e+01	7.014241e+02
1.640000e-06	6.955724e-06	1.068343e-08	4.775075e+01	7.015473e+02
1.650000e-06	6.955530e-06	1.068443e-08	4.774942e+01	7.015155e+02
1.660000e-06	6.953066e-06	1.067982e-08	4.773250e+01	7.013190e+02
1.670000e-06	6.948414e-06	1.067518e-08	4.770057e+01	7.009538e+02
1.680000e-06	6.941360e-06	1.066781e-08	4.765214e+01	7.004231e+02
1.690000e-06	6.932019e-06	1.065734e-08	4.758802e+01	6.997375e+02
1.700000e-06	6.920481e-06	1.064681e-08	4.750881e+01	6.989139e+02
1.710000e-06	6.906482e-06	1.063479e-08	4.741271e+01	6.979746e+02
1.720000e-06	6.890161e-06	1.062174e-08	4.730066e+01	6.969441e+02
1.730000e-06	6.871777e-06	1.057081e-08	4.717446e+01	6.958470e+02
1.740000e-06	6.850774e-06	1.052180e-08	4.703027e+01	6.947047e+02
1.750000e-06	6.826410e-06	1.053850e-08	4.686301e+01	6.935335e+02
1.760000e-06	6.798963e-06	1.053450e-08	4.667459e+01	6.923420e+02
1.770000e-06	6.769070e-06	1.051515e-08	4.646938e+01	6.911311e+02
1.780000e-06	6.737285e-06	1.055316e-08	4.625118e+01	6.898928e+02
1.790000e-06	6.704164e-06	1.050286e-08	4.602380e+01	6.886122e+02
1.800000e-06	6.669308e-06	1.043660e-08	4.578452e+01	6.872680e+02
1.810000e-06	6.631803e-06	1.049321e-08	4.552705e+01	6.858354e+02
1.820000e-06	6.591945e-06	1.043725e-08	4.525342e+01	6.842886e+02
1.830000e-06	6.549981e-06	1.043260e-08	4.496535e+01	6.826024e+02
1.840000e-06	6.505737e-06	1.042003e-08	4.466161e+01	6.807552e+02
1.850000e-06	6.459221e-06	1.031384e-08	4.434228e+01	6.787301e+02
1.860000e-06	6.410206e-06	1.035913e-08	4.400580e+01	6.765160e+02
1.870000e-06	6.358858e-06	1.030345e-08	4.365329e+01	6.741078e+02
1.880000e-06	6.304953e-06	1.027759e-08	4.328323e+01	6.715061e+02
1.890000e-06	6.248357e-06	1.026692e-08	4.289471e+01	6.687163e+02
1.900000e-06	6.189503e-06	1.014469e-08	4.249067e+01	6.657471e+02
1.910000e-06	6.128265e-06	1.012066e-08	4.207028e+01	6.626094e+02
1.920000e-06	6.064690e-06	1.004212e-08	4.163384e+01	6.593147e+02
1.930000e-06	5.999008e-06	1.002499e-08	4.118294e+01	6.558738e+02
1.940000e-06	5.931168e-06	1.000268e-08	4.071722e+01	6.522962e+02
1.950000e-06	5.861004e-06	9.909059e-09	4.023554e+01	6.485888e+02
1.960000e-06	5.788415e-06	9.869009e-09	3.973722e+01	6.447563e+02
1.970000e-06	5.713728e-06	9.755905e-09	3.922450e+01	6.408008e+02
1.980000e-06	5.636807e-06	9.724478e-09	3.869644e+01	6.367222e+02
1.990000e-06	5.557529e-06	9.671899e-09	3.815220e+01	6.325185e+02
2.000000e-06	5.476298e-06	9.600117e-09	3.759455e+01	6.281863e+02
2.010000e-06	5.393323e-06	9.549725e-09	3.702493e+01	6.237212e+02
2.020000e-06	5.308534e-06	9.453076e-09	3.644286e+01	6.191180e+02
2.030000e-06	5.221640e-06	9.388546e-09	3.584634e+01	6.143716e+02
2.040000e-06	5.132778e-06	9.297633e-09	3.523630e+01	6.094765e+02
2.050000e-06	5.042309e-06	9.224948e-09	3.461524e+01	6.044276e+02
2.060000e-06	4.950238e-06	9.140806e-09	3.398318e+01	5.992203e+02
2.070000e-06	4.856384e-06	9.063668e-09	3.333887e+01	5.938503e+02
2.080000e-06	4.760716e-06	8.990660e-09	3.268211e+01	5.883139e+02
2.090000e-06	4.663417e-06	8.907970e-09	3.201416e+01	5.826085e+02
2.100000e-06	4.564566e-06	8.826683e-09	3.133555e+01	5.767319e+02
2.110000e-06	4.464161e-06	8.719069e-09	3.064627e+01	5.706828e+02
2.120000e-06	4.362109e-06	8.617306e-09	2.994569e+01	5.644604e+02
2.130000e-06	4.258389e-06	8.512320e-09	2.923366e+01	5.580641e+02
2.140000e-06	4.153141e-06	8.425493e-09	2.851114e+01	5.514932e+02
2.150000e-06	4.046525e-06	8.333061e-09	2.777922e+01	5.447466e+02
2.160000e-06	3.938488e-06	8.231437e-09	2.703755e+01	5.378221e+02
2.170000e-06	3.829028e-06	8.114925e-09	2.628612e+01	5.307162e+02
2.180000e-06	3.718152e-06	7.991003e-09	2.552496e+01	5.234241e+02
2.190000e-06	3.605790e-06	7.873861e-09	2.475360e+01	5.159390e+02
2.200000e-06	3.492060e-06	7.761710e-09	2.397284e+01	5.082532e+02
2.210000e-06	3.376917e-06	7.650284e-09	2.318239e+01	5.003575e+02
2.220000e-06	3.260386e-06	7.525343e-09	2.238241e+01	4.922426e+02
2.230000e-06	3.142496e-06	7.395324e-09	2.157310e+01	4.838995e+02
2.240000e-06	3.023291e-06	7.260001e-09	2.075477e+01	4.753198e+02
2.250000e-06	2.902908e-06	7.127988e-09	1.992834e+01	4.664968e+02
2.260000e-06	2.781526e-06	6.989783e-09	1.909506e+01	4.574254e+02
2.270000e-06	2.659289e-06	6.850349e-09	1.825590e+01	4.481020e+02
2.280000e-06	2.536162e-06	6.706229e-09	1.741064e+01	4.385247e+02
2.290000e-06	2.412031e-06	6.557558e-09	1.655849e+01	4.286919e+02
2.300000e-06	2.286925e-06	6.406505e-09	1.569964e+01	4.186020e+02
2.310000e-06	2.161128e-06	6.251613e-09	1.483605e+01	4.082521e+02
2.320000e-06	2.034635e-06	6.086856e-09	1.396769e+01	3.976372e+02
2.330000e-06	1.907348e-06	5.911146e-09	1.309386e+01	3.867495e+02
2.340000e-06	1.779337e-06	5.736104e-09	1.221507e+01	3.755782e+02
2.350000e-06	1.650668e-06	5.564680e-09	1.133176e+01	3.641095e+02
2.360000e-06	1.521481e-06	5.391803e-09	1.044491e+01	3.523272e+02
2.370000e-06	1.391912e-06	5.209654e-09	9.555415e+00	3.402142e+02
2.380000e-06	1.262002e-06	5.020305e-09	8.663588e+00	3.277531e+02
2.390000e-06	1.131732e-06	4.821595e-09	7.769295e+00	3.149279e+02
2.400000e-06	1.001081e-06	4.615393e-09	6.872380e+00	3.017252e+02
2.410000e-06	8.701364e-07	4.408130e-09	5.973450e+00	2.881345e+02
2.420000e-06	7.389739e-07	4.197262e-09	5.073025e+00	2.741484e+02
2.430000e-06	6.075681e-07	3.978445e-09	4.170929e+00	2.597618e+02
2.440000e-06	4.759071e-07	3.751371e-09	3.267082e+00	2.449704e+02
2.450000e-06	3.440236e-07	3.518570e-09	2.361708e+00	2.297684e+02
2.460000e-06	2.120065e-07	3.281922e-09	1.455416e+00	2.141460e+02
2.470000e-06	7.987389e-08	3.038172e-09	5.483309e-01	1.980875e+02
2.480000e-06	-5.225682e-08	2.786142e-09	-3.587409e-01	1.815686e+02
2.490000e-06	-1.843807e-07	2.527373e-09	-1.265766e+00	1.645563e+02
2.500000e-06	-3.165244e-07	2.256046e-09	-2.172927e+00	1.470085e+02
2.510000e-06	-4.485680e-07	1.972678e-09	-3.079400e+00	1.288759e+02
2.520000e-06	-5.804427e-07	1.684667e-09	-3.984714e+00	1.101060e+02
2.530000e-06	-7.120978e-07	1.388761e-09	-4.888521e+00	9.064754e+01
2.540000e-06	-8.435292e-07	1.079845e-09	-5.790792e+00	7.045659e+01
2.550000e-06	-9.746400e-07	7.608668e-10	-6.690863e+00	4.950340e+01
2.560000e-06	-1.105372e-06	4.338649e-10	-7.588332e+00	2.777882e+01
2.570000e-06	-1.235738e-06	9.572838e-11	-8.483286e+00	5.300140e+00
2.580000e-06	-1.365726e-06	-2.536925e-10	-9.375654e+00	-1.788471e+01
2.590000e-06	-1.495336e-06	-6.136693e-10	-1.026542e+01	-4.169496e+01
2.600000e-06	-1.624458e-06	-9.845924e-10	-1.115183e+01	-6.601746e+01
2.610000e-06	-1.752980e-06	-1.364405e-09	-1.203413e+01	-9.070966e+01
2.620000e-06	-1.880798e-06	-1.747393e-09	-1.291160e+01	-1.156053e+02
2.630000e-06	-2.007880e-06	-2.128205e-09	-1.378401e+01	-1.405222e+02
2.640000e-06	-2.134284e-06	-2.505405e-09	-1.465177e+01	-1.652715e+02
2.650000e-06	-2.259917e-06	-2.879546e-09	-1.551424e+01	-1.896678e+02
2.660000e-06	-2.384644e-06	-3.246405e-09	-1.637048e+01	-2.135388e+02
2.670000e-06	-2.508353e-06	-3.600814e-09	-1.721974e+01	-2.367339e+02
2.680000e-06	-2.630970e-06	-3.940489e-09	-1.806150e+01	-2.591316e+02
2.690000e-06	-2.752615e-06	-4.265704e-09	-1.889658e+01	-2.806431e+02
2.700000e-06	-2.873270e-06	-4.576258e-09	-1.972488e+01	-3.012145e+02
2.710000e-06	-2.992851e-06	-4.873291e-09	-2.054579e+01	-3.208254e+02
2.720000e-06	-3.111403e-06	-5.159226e-09	-2.135965e+01	-3.394856e+02
2.730000e-06	-3.228722e-06	-5.433764e-09	-2.216504e+01	-3.572290e+02
2.740000e-06	-3.344705e-06	-5.695623e-09	-2.296126e+01	-3.741072e+02
2.750000e-06	-3.459323e-06	-5.943451e-09	-2.374810e+01	-3.901822e+02
2.760000e-06	-3.572600e-06	-6.177358e-09	-2.452575e+01	-4.055190e+02
2.770000e-06	-3.684503e-06	-6.401158e-09	-2.529396e+01	-4.201801e+02
2.780000e-06	-3.794930e-06	-6.616211e-09	-2.605203e+01	-4.342207e+02
2.790000e-06	-3.904028e-06	-6.823043e-09	-2.680099e+01	-4.476863e+02
2.800000e-06	-4.011883e-06	-7.021562e-09	-2.754141e+01	-4.606113e+02
2.810000e-06	-4.118475e-06	-7.214266e-09	-2.827316e+01	-4.730202e+02
2.820000e-06	-4.223677e-06	-7.400169e-09	-2.899536e+01	-4.849295e+02
2.830000e-06	-4.327302e-06	-7.575090e-09	-2.970674e+01	-4.963503e+02
2.840000e-06	-4.429243e-06	-7.740280e-09	-3.040657e+01	-5.072914e+02
2.850000e-06	-4.529532e-06	-7.898582e-09	-3.109505e+01	-5.177616e+02
2.860000e-06	-4.628313e-06	-8.051200e-09	-3.177317e+01	-5.277724e+02
2.870000e-06	-4.725535e-06	-8.196970e-09	-3.244060e+01	-5.373384e+02
2.880000e-06	-4.821067e-06	-8.335115e-09	-3.309642e+01	-5.464778e+02
2.890000e-06	-4.914775e-06	-8.466817e-09	-3.373972e+01	-5.552111e+02
2.900000e-06	-5.006662e-06	-8.593715e-09	-3.437053e+01	-5.635605e+02
2.910000e-06	-5.096866e-06	-8.716755e-09	-3.498977e+01	-5.715474e+02
2.920000e-06	-5.185244e-06	-8.834646e-09	-3.559648e+01	-5.791910e+02
2.930000e-06	-5.271630e-06	-8.947270e-09	-3.618952e+01	-5.865074e+02
2.940000e-06	-5.356036e-06	-9.055557e-09	-3.676896e+01	-5.935082e+02
