# Temperatura_=_79.86
# Concentracion g/m^3_=_15000.0
# C_Vs_to_Am_M_A/Vsm_=_65563218390.804596
# pendiente_HvsI_1/m_=_3716.3
# ordenada_HvsI_A/m_=_1297.0
# frecuencia_Hz_=_301963.86515890143

Tiempo_(s)	Campo_(V.s)	Magnetizacion_(V.s)	Campo_(kA/m)	Magnetizacion_(A/m)
0.000000e+00	-6.877327e-06	-1.270664e-08	-4.748538e+01	-8.329114e+02
1.000000e-08	-6.875566e-06	-1.270982e-08	-4.747321e+01	-8.326697e+02
2.000000e-08	-6.871421e-06	-1.270340e-08	-4.744459e+01	-8.322248e+02
3.000000e-08	-6.865156e-06	-1.269269e-08	-4.740134e+01	-8.315764e+02
4.000000e-08	-6.856648e-06	-1.268577e-08	-4.734260e+01	-8.307322e+02
5.000000e-08	-6.845732e-06	-1.267478e-08	-4.726722e+01	-8.297083e+02
6.000000e-08	-6.832290e-06	-1.265944e-08	-4.717441e+01	-8.285271e+02
7.000000e-08	-6.816346e-06	-1.262980e-08	-4.706432e+01	-8.272158e+02
8.000000e-08	-6.798157e-06	-1.260521e-08	-4.693873e+01	-8.258030e+02
9.000000e-08	-6.777836e-06	-1.265664e-08	-4.679842e+01	-8.243155e+02
1.000000e-07	-6.754973e-06	-1.265172e-08	-4.664056e+01	-8.227753e+02
1.100000e-07	-6.729220e-06	-1.256369e-08	-4.646275e+01	-8.211972e+02
1.200000e-07	-6.700803e-06	-1.252194e-08	-4.626654e+01	-8.195869e+02
1.300000e-07	-6.670224e-06	-1.248990e-08	-4.605540e+01	-8.179400e+02
1.400000e-07	-6.637699e-06	-1.237436e-08	-4.583083e+01	-8.162430e+02
1.500000e-07	-6.603247e-06	-1.239959e-08	-4.559295e+01	-8.144742e+02
1.600000e-07	-6.566794e-06	-1.249352e-08	-4.534126e+01	-8.126060e+02
1.700000e-07	-6.528272e-06	-1.228808e-08	-4.507528e+01	-8.106075e+02
1.800000e-07	-6.487618e-06	-1.232379e-08	-4.479458e+01	-8.084475e+02
1.900000e-07	-6.444450e-06	-1.233502e-08	-4.449652e+01	-8.060972e+02
2.000000e-07	-6.398801e-06	-1.220160e-08	-4.418133e+01	-8.035321e+02
2.100000e-07	-6.350887e-06	-1.229303e-08	-4.385050e+01	-8.007342e+02
2.200000e-07	-6.300359e-06	-1.220479e-08	-4.350162e+01	-7.976926e+02
2.300000e-07	-6.247154e-06	-1.210057e-08	-4.313427e+01	-7.944033e+02
2.400000e-07	-6.191483e-06	-1.203638e-08	-4.274987e+01	-7.908693e+02
2.500000e-07	-6.133414e-06	-1.194728e-08	-4.234893e+01	-7.870989e+02
2.600000e-07	-6.073127e-06	-1.193473e-08	-4.193267e+01	-7.831042e+02
2.700000e-07	-6.010653e-06	-1.188251e-08	-4.150132e+01	-7.788999e+02
2.800000e-07	-5.945984e-06	-1.179896e-08	-4.105480e+01	-7.745012e+02
2.900000e-07	-5.879087e-06	-1.169833e-08	-4.059290e+01	-7.699226e+02
3.000000e-07	-5.809955e-06	-1.165244e-08	-4.011557e+01	-7.651765e+02
3.100000e-07	-5.738723e-06	-1.160391e-08	-3.962374e+01	-7.602729e+02
3.200000e-07	-5.665315e-06	-1.149649e-08	-3.911688e+01	-7.552182e+02
3.300000e-07	-5.589588e-06	-1.145415e-08	-3.859401e+01	-7.500157e+02
3.400000e-07	-5.511527e-06	-1.134733e-08	-3.805503e+01	-7.446655e+02
3.500000e-07	-5.431267e-06	-1.124530e-08	-3.750087e+01	-7.391647e+02
3.600000e-07	-5.349046e-06	-1.118842e-08	-3.693316e+01	-7.335082e+02
3.700000e-07	-5.265052e-06	-1.111293e-08	-3.635322e+01	-7.276888e+02
3.800000e-07	-5.179363e-06	-1.101777e-08	-3.576156e+01	-7.216986e+02
3.900000e-07	-5.091925e-06	-1.089099e-08	-3.515784e+01	-7.155287e+02
4.000000e-07	-5.002634e-06	-1.080051e-08	-3.454132e+01	-7.091705e+02
4.100000e-07	-4.911480e-06	-1.071310e-08	-3.391194e+01	-7.026162e+02
4.200000e-07	-4.818653e-06	-1.062598e-08	-3.327100e+01	-6.958590e+02
4.300000e-07	-4.724332e-06	-1.051200e-08	-3.261974e+01	-6.888937e+02
4.400000e-07	-4.628306e-06	-1.038559e-08	-3.195672e+01	-6.817172e+02
4.500000e-07	-4.530453e-06	-1.026920e-08	-3.128108e+01	-6.743281e+02
4.600000e-07	-4.430912e-06	-1.014717e-08	-3.059379e+01	-6.667267e+02
4.700000e-07	-4.329809e-06	-1.004583e-08	-2.989571e+01	-6.589149e+02
4.800000e-07	-4.227278e-06	-9.937376e-09	-2.918777e+01	-6.508949e+02
4.900000e-07	-4.123329e-06	-9.806971e-09	-2.847005e+01	-6.426692e+02
5.000000e-07	-4.017822e-06	-9.666552e-09	-2.774156e+01	-6.342393e+02
5.100000e-07	-3.910702e-06	-9.540106e-09	-2.700194e+01	-6.256051e+02
5.200000e-07	-3.802116e-06	-9.413230e-09	-2.625219e+01	-6.167642e+02
5.300000e-07	-3.692313e-06	-9.273114e-09	-2.549404e+01	-6.077117e+02
5.400000e-07	-3.581280e-06	-9.123327e-09	-2.472740e+01	-5.984400e+02
5.500000e-07	-3.468819e-06	-8.969923e-09	-2.395090e+01	-5.889395e+02
5.600000e-07	-3.354821e-06	-8.825018e-09	-2.316379e+01	-5.791991e+02
5.700000e-07	-3.239370e-06	-8.677671e-09	-2.236664e+01	-5.692071e+02
5.800000e-07	-3.122577e-06	-8.527253e-09	-2.156022e+01	-5.589526e+02
5.900000e-07	-3.004574e-06	-8.363641e-09	-2.074546e+01	-5.484267e+02
6.000000e-07	-2.885504e-06	-8.191207e-09	-1.992333e+01	-5.376228e+02
6.100000e-07	-2.765463e-06	-8.019920e-09	-1.909449e+01	-5.265373e+02
6.200000e-07	-2.644456e-06	-7.854525e-09	-1.825898e+01	-5.151699e+02
6.300000e-07	-2.522372e-06	-7.681673e-09	-1.741603e+01	-5.035224e+02
6.400000e-07	-2.399264e-06	-7.494547e-09	-1.656602e+01	-4.915979e+02
6.500000e-07	-2.275263e-06	-7.301514e-09	-1.570984e+01	-4.793995e+02
6.600000e-07	-2.150477e-06	-7.108240e-09	-1.484824e+01	-4.669281e+02
6.700000e-07	-2.025020e-06	-6.918292e-09	-1.398201e+01	-4.541814e+02
6.800000e-07	-1.898955e-06	-6.726274e-09	-1.311157e+01	-4.411527e+02
6.900000e-07	-1.772246e-06	-6.527405e-09	-1.223670e+01	-4.278297e+02
7.000000e-07	-1.644892e-06	-6.314944e-09	-1.135736e+01	-4.141951e+02
7.100000e-07	-1.516967e-06	-6.095337e-09	-1.047409e+01	-4.002273e+02
7.200000e-07	-1.388539e-06	-5.875002e-09	-9.587344e+00	-3.859017e+02
7.300000e-07	-1.259659e-06	-5.651771e-09	-8.697475e+00	-3.711925e+02
7.400000e-07	-1.130408e-06	-5.421581e-09	-7.805042e+00	-3.560750e+02
7.500000e-07	-1.000770e-06	-5.182221e-09	-6.909945e+00	-3.405273e+02
7.600000e-07	-8.707220e-07	-4.938636e-09	-6.012010e+00	-3.245311e+02
7.700000e-07	-7.403295e-07	-4.692516e-09	-5.111698e+00	-3.080727e+02
7.800000e-07	-6.096061e-07	-4.441791e-09	-4.209102e+00	-2.911420e+02
7.900000e-07	-4.785956e-07	-4.182843e-09	-3.304524e+00	-2.737306e+02
8.000000e-07	-3.474598e-07	-3.912892e-09	-2.399080e+00	-2.558296e+02
8.100000e-07	-2.162049e-07	-3.627709e-09	-1.492814e+00	-2.374260e+02
8.200000e-07	-8.477922e-08	-3.333531e-09	-5.853688e-01	-2.185000e+02
8.300000e-07	4.667740e-08	-3.035060e-09	3.222900e-01	-1.990222e+02
8.400000e-07	1.781889e-07	-2.725110e-09	1.230328e+00	-1.789519e+02
8.500000e-07	3.097276e-07	-2.404682e-09	2.138553e+00	-1.582378e+02
8.600000e-07	4.411230e-07	-2.075428e-09	3.045789e+00	-1.368196e+02
8.700000e-07	5.723989e-07	-1.737844e-09	3.952200e+00	-1.146326e+02
8.800000e-07	7.034898e-07	-1.387834e-09	4.857334e+00	-9.161373e+01
8.900000e-07	8.343316e-07	-1.024152e-09	5.760748e+00	-6.770947e+01
9.000000e-07	9.649124e-07	-6.470639e-10	6.662359e+00	-4.288410e+01
9.100000e-07	1.095114e-06	-2.562024e-10	7.561353e+00	-1.712817e+01
9.200000e-07	1.224843e-06	1.483027e-10	8.457083e+00	9.534102e+00
9.300000e-07	1.354051e-06	5.653017e-10	9.349217e+00	3.703950e+01
9.400000e-07	1.482787e-06	9.953933e-10	1.023809e+01	6.528324e+01
9.500000e-07	1.611042e-06	1.439347e-09	1.112364e+01	9.411975e+01
9.600000e-07	1.738705e-06	1.889416e-09	1.200511e+01	1.233669e+02
9.700000e-07	1.865714e-06	2.343331e-09	1.288206e+01	1.528137e+02
9.800000e-07	1.991959e-06	2.796930e-09	1.375373e+01	1.822306e+02
9.900000e-07	2.117442e-06	3.244204e-09	1.462015e+01	2.113819e+02
1.000000e-06	2.242283e-06	3.680312e-09	1.548212e+01	2.400391e+02
1.010000e-06	2.366480e-06	4.102253e-09	1.633966e+01	2.679931e+02
1.020000e-06	2.489886e-06	4.509534e-09	1.719174e+01	2.950657e+02
1.030000e-06	2.612273e-06	4.900308e-09	1.803677e+01	3.211180e+02
1.040000e-06	2.733553e-06	5.279079e-09	1.887416e+01	3.460552e+02
1.050000e-06	2.853755e-06	5.641740e-09	1.970411e+01	3.698281e+02
1.060000e-06	2.972922e-06	5.983769e-09	2.052691e+01	3.924304e+02
1.070000e-06	3.091052e-06	6.308247e-09	2.134256e+01	4.138933e+02
1.080000e-06	3.208098e-06	6.620510e-09	2.215072e+01	4.342766e+02
1.090000e-06	3.323999e-06	6.918288e-09	2.295097e+01	4.536597e+02
1.100000e-06	3.438438e-06	7.199621e-09	2.374113e+01	4.721306e+02
1.110000e-06	3.551420e-06	7.467168e-09	2.452122e+01	4.897772e+02
1.120000e-06	3.663123e-06	7.723470e-09	2.529250e+01	5.066790e+02
1.130000e-06	3.773497e-06	7.970029e-09	2.605459e+01	5.229020e+02
1.140000e-06	3.882641e-06	8.206401e-09	2.680819e+01	5.384959e+02
1.150000e-06	3.990639e-06	8.435895e-09	2.755387e+01	5.534939e+02
1.160000e-06	4.097287e-06	8.656568e-09	2.829024e+01	5.679154e+02
1.170000e-06	4.202382e-06	8.868853e-09	2.901588e+01	5.817695e+02
1.180000e-06	4.305886e-06	9.070802e-09	2.973053e+01	5.950602e+02
1.190000e-06	4.407839e-06	9.262592e-09	3.043448e+01	6.077914e+02
1.200000e-06	4.508398e-06	9.443282e-09	3.112880e+01	6.199708e+02
1.210000e-06	4.607319e-06	9.613413e-09	3.181182e+01	6.316131e+02
1.220000e-06	4.704361e-06	9.776254e-09	3.248185e+01	6.427412e+02
1.230000e-06	4.799746e-06	9.935362e-09	3.314045e+01	6.533854e+02
1.240000e-06	4.893471e-06	1.009310e-08	3.378759e+01	6.635818e+02
1.250000e-06	4.985537e-06	1.024817e-08	3.442327e+01	6.733684e+02
1.260000e-06	5.075747e-06	1.039939e-08	3.504614e+01	6.827819e+02
1.270000e-06	5.164016e-06	1.054303e-08	3.565560e+01	6.918539e+02
1.280000e-06	5.250533e-06	1.067904e-08	3.625297e+01	7.006079e+02
1.290000e-06	5.335248e-06	1.080796e-08	3.683789e+01	7.090574e+02
1.300000e-06	5.418044e-06	1.093078e-08	3.740957e+01	7.172061e+02
1.310000e-06	5.498762e-06	1.104612e-08	3.796689e+01	7.250487e+02
1.320000e-06	5.577511e-06	1.115614e-08	3.851063e+01	7.325735e+02
1.330000e-06	5.654324e-06	1.126658e-08	3.904099e+01	7.397663e+02
1.340000e-06	5.728965e-06	1.137529e-08	3.955636e+01	7.466134e+02
1.350000e-06	5.801364e-06	1.147594e-08	4.005625e+01	7.531060e+02
1.360000e-06	5.871657e-06	1.156798e-08	4.054160e+01	7.592425e+02
1.370000e-06	5.939934e-06	1.165531e-08	4.101302e+01	7.650303e+02
1.380000e-06	6.006059e-06	1.173877e-08	4.146959e+01	7.704859e+02
1.390000e-06	6.069922e-06	1.181792e-08	4.191054e+01	7.756341e+02
1.400000e-06	6.131722e-06	1.189227e-08	4.233725e+01	7.805050e+02
1.410000e-06	6.191578e-06	1.196308e-08	4.275053e+01	7.851308e+02
1.420000e-06	6.249246e-06	1.203230e-08	4.314871e+01	7.895426e+02
1.430000e-06	6.304639e-06	1.209928e-08	4.353118e+01	7.937662e+02
1.440000e-06	6.357739e-06	1.216340e-08	4.389781e+01	7.978197e+02
1.450000e-06	6.408223e-06	1.222301e-08	4.424638e+01	8.017119e+02
1.460000e-06	6.456076e-06	1.227955e-08	4.457679e+01	8.054418e+02
1.470000e-06	6.501642e-06	1.233401e-08	4.489141e+01	8.089997e+02
1.480000e-06	6.545045e-06	1.238471e-08	4.519109e+01	8.123693e+02
1.490000e-06	6.586090e-06	1.243265e-08	4.547449e+01	8.155310e+02
1.500000e-06	6.624768e-06	1.247711e-08	4.574155e+01	8.184652e+02
1.510000e-06	6.661285e-06	1.251644e-08	4.599369e+01	8.211558e+02
1.520000e-06	6.695412e-06	1.255116e-08	4.622932e+01	8.235928e+02
1.530000e-06	6.727006e-06	1.258291e-08	4.644746e+01	8.257737e+02
1.540000e-06	6.756345e-06	1.261368e-08	4.665004e+01	8.277047e+02
1.550000e-06	6.783408e-06	1.264238e-08	4.683689e+01	8.293994e+02
1.560000e-06	6.807927e-06	1.266737e-08	4.700619e+01	8.308769e+02
1.570000e-06	6.829974e-06	1.268840e-08	4.715842e+01	8.321593e+02
1.580000e-06	6.849697e-06	1.270532e-08	4.729460e+01	8.332686e+02
1.590000e-06	6.866843e-06	1.271892e-08	4.741298e+01	8.342237e+02
1.600000e-06	6.881396e-06	1.272801e-08	4.751347e+01	8.350375e+02
1.610000e-06	6.893447e-06	1.273498e-08	4.759668e+01	8.357164e+02
1.620000e-06	6.902750e-06	1.274152e-08	4.766091e+01	8.362586e+02
1.630000e-06	6.909410e-06	1.274623e-08	4.770689e+01	8.366561e+02
1.640000e-06	6.913788e-06	1.274882e-08	4.773712e+01	8.368955e+02
1.650000e-06	6.915762e-06	1.275126e-08	4.775075e+01	8.369615e+02
1.660000e-06	6.915238e-06	1.275124e-08	4.774713e+01	8.368392e+02
1.670000e-06	6.912507e-06	1.273977e-08	4.772828e+01	8.365177e+02
1.680000e-06	6.907533e-06	1.273137e-08	4.769393e+01	8.359919e+02
1.690000e-06	6.900217e-06	1.272049e-08	4.764342e+01	8.352646e+02
1.700000e-06	6.890680e-06	1.270687e-08	4.757757e+01	8.343469e+02
1.710000e-06	6.878866e-06	1.269498e-08	4.749600e+01	8.332576e+02
1.720000e-06	6.864595e-06	1.268973e-08	4.739746e+01	8.320214e+02
1.730000e-06	6.848046e-06	1.268467e-08	4.728320e+01	8.306662e+02
1.740000e-06	6.829444e-06	1.257428e-08	4.715476e+01	8.292205e+02
1.750000e-06	6.808141e-06	1.252486e-08	4.700767e+01	8.277094e+02
1.760000e-06	6.783472e-06	1.256444e-08	4.683734e+01	8.261525e+02
1.770000e-06	6.755861e-06	1.252700e-08	4.664670e+01	8.245611e+02
1.780000e-06	6.725895e-06	1.253485e-08	4.643979e+01	8.229368e+02
1.790000e-06	6.694098e-06	1.261225e-08	4.622025e+01	8.212718e+02
1.800000e-06	6.660962e-06	1.242706e-08	4.599145e+01	8.195490e+02
1.810000e-06	6.625913e-06	1.242246e-08	4.574946e+01	8.177441e+02
1.820000e-06	6.588225e-06	1.251194e-08	4.548923e+01	8.158279e+02
1.830000e-06	6.548269e-06	1.234937e-08	4.521335e+01	8.137691e+02
1.840000e-06	6.506178e-06	1.247052e-08	4.492273e+01	8.115370e+02
1.850000e-06	6.461867e-06	1.234814e-08	4.461678e+01	8.091043e+02
1.860000e-06	6.415331e-06	1.219860e-08	4.429546e+01	8.064490e+02
1.870000e-06	6.366280e-06	1.229982e-08	4.395678e+01	8.035557e+02
1.880000e-06	6.314929e-06	1.216938e-08	4.360222e+01	8.004162e+02
1.890000e-06	6.261038e-06	1.223831e-08	4.323013e+01	7.970296e+02
1.900000e-06	6.204443e-06	1.216915e-08	4.283936e+01	7.934009e+02
1.910000e-06	6.145603e-06	1.200860e-08	4.243309e+01	7.895401e+02
1.920000e-06	6.084370e-06	1.201371e-08	4.201030e+01	7.854607e+02
1.930000e-06	6.020842e-06	1.186791e-08	4.157166e+01	7.811777e+02
1.940000e-06	5.955198e-06	1.189807e-08	4.111842e+01	7.767061e+02
1.950000e-06	5.887412e-06	1.180920e-08	4.065038e+01	7.720598e+02
1.960000e-06	5.817421e-06	1.172436e-08	4.016712e+01	7.672503e+02
1.970000e-06	5.745012e-06	1.165902e-08	3.966716e+01	7.622861e+02
1.980000e-06	5.670469e-06	1.150960e-08	3.915247e+01	7.571726e+02
1.990000e-06	5.593660e-06	1.152748e-08	3.862213e+01	7.519117e+02
2.000000e-06	5.514545e-06	1.140446e-08	3.807587e+01	7.465022e+02
2.010000e-06	5.433493e-06	1.131903e-08	3.751624e+01	7.409404e+02
2.020000e-06	5.350684e-06	1.122364e-08	3.694447e+01	7.352202e+02
2.030000e-06	5.266073e-06	1.112182e-08	3.636026e+01	7.293342e+02
2.040000e-06	5.179373e-06	1.105597e-08	3.576164e+01	7.232738e+02
2.050000e-06	5.090736e-06	1.093926e-08	3.514963e+01	7.170304e+02
2.060000e-06	5.000455e-06	1.086745e-08	3.452627e+01	7.105955e+02
2.070000e-06	4.908656e-06	1.072465e-08	3.389244e+01	7.039616e+02
2.080000e-06	4.815136e-06	1.062411e-08	3.324672e+01	6.971226e+02
2.090000e-06	4.719725e-06	1.052695e-08	3.258794e+01	6.900741e+02
2.100000e-06	4.622693e-06	1.044695e-08	3.191797e+01	6.828135e+02
2.110000e-06	4.524224e-06	1.034540e-08	3.123808e+01	6.753403e+02
2.120000e-06	4.424262e-06	1.019543e-08	3.054788e+01	6.676555e+02
2.130000e-06	4.322621e-06	1.006683e-08	2.984608e+01	6.597610e+02
2.140000e-06	4.219247e-06	9.936871e-09	2.913232e+01	6.516593e+02
2.150000e-06	4.114304e-06	9.824972e-09	2.840773e+01	6.433528e+02
2.160000e-06	4.008019e-06	9.697152e-09	2.767387e+01	6.348422e+02
2.170000e-06	3.900379e-06	9.572636e-09	2.693066e+01	6.261266e+02
2.180000e-06	3.791392e-06	9.423845e-09	2.617814e+01	6.172027e+02
2.190000e-06	3.680974e-06	9.280508e-09	2.541575e+01	6.080646e+02
2.200000e-06	3.569052e-06	9.141726e-09	2.464297e+01	5.987037e+02
2.210000e-06	3.455834e-06	9.005208e-09	2.386124e+01	5.891097e+02
2.220000e-06	3.341338e-06	8.854581e-09	2.307069e+01	5.792712e+02
2.230000e-06	3.225434e-06	8.685837e-09	2.227041e+01	5.691768e+02
2.240000e-06	3.108090e-06	8.523995e-09	2.146020e+01	5.588161e+02
2.250000e-06	2.989483e-06	8.365942e-09	2.064127e+01	5.481810e+02
2.260000e-06	2.869691e-06	8.210217e-09	1.981415e+01	5.372661e+02
2.270000e-06	2.748849e-06	8.037789e-09	1.897977e+01	5.260692e+02
2.280000e-06	2.627133e-06	7.860925e-09	1.813937e+01	5.145909e+02
2.290000e-06	2.504541e-06	7.679384e-09	1.729292e+01	5.028336e+02
2.300000e-06	2.381032e-06	7.504658e-09	1.644014e+01	4.908007e+02
2.310000e-06	2.256697e-06	7.325111e-09	1.558165e+01	4.784944e+02
2.320000e-06	2.131693e-06	7.137356e-09	1.471854e+01	4.659148e+02
2.330000e-06	2.005970e-06	6.934312e-09	1.385048e+01	4.530579e+02
2.340000e-06	1.879364e-06	6.719242e-09	1.297631e+01	4.399147e+02
2.350000e-06	1.751957e-06	6.509113e-09	1.209661e+01	4.264711e+02
2.360000e-06	1.623984e-06	6.303305e-09	1.121300e+01	4.127078e+02
2.370000e-06	1.495490e-06	6.096485e-09	1.032580e+01	3.986019e+02
2.380000e-06	1.366495e-06	5.876675e-09	9.435135e+00	3.841281e+02
2.390000e-06	1.237129e-06	5.646580e-09	8.541915e+00	3.692608e+02
2.400000e-06	1.107437e-06	5.410865e-09	7.646439e+00	3.539761e+02
2.410000e-06	9.774552e-07	5.171484e-09	6.748963e+00	3.382536e+02
2.420000e-06	8.471909e-07	4.926532e-09	5.849537e+00	3.220767e+02
2.430000e-06	7.166325e-07	4.671861e-09	4.948080e+00	3.054332e+02
2.440000e-06	5.858554e-07	4.407866e-09	4.045112e+00	2.883141e+02
2.450000e-06	4.548938e-07	4.137883e-09	3.140872e+00	2.707110e+02
2.460000e-06	3.237984e-07	3.864724e-09	2.235707e+00	2.526138e+02
2.470000e-06	1.925306e-07	3.586302e-09	1.329352e+00	2.340072e+02
2.480000e-06	6.108401e-08	3.297323e-09	4.217623e-01	2.148680e+02
2.490000e-06	-7.037614e-08	2.993011e-09	-4.859209e-01	1.951623e+02
2.500000e-06	-2.017673e-07	2.674445e-09	-1.393128e+00	1.748453e+02
2.510000e-06	-3.330696e-07	2.350208e-09	-2.299721e+00	1.538615e+02
2.520000e-06	-4.642474e-07	2.019500e-09	-3.205455e+00	1.321485e+02
2.530000e-06	-5.953241e-07	1.676471e-09	-4.110490e+00	1.096413e+02
2.540000e-06	-7.262362e-07	1.320006e-09	-5.014389e+00	8.627960e+01
2.550000e-06	-8.569198e-07	9.514284e-10	-5.916711e+00	6.201589e+01
2.560000e-06	-9.873339e-07	5.739983e-10	-6.817172e+00	3.682377e+01
2.570000e-06	-1.117405e-06	1.836377e-10	-7.715266e+00	1.070626e+01
2.580000e-06	-1.247062e-06	-2.222337e-10	-8.610499e+00	-1.629762e+01
2.590000e-06	-1.376287e-06	-6.431303e-10	-9.502747e+00	-4.410846e+01
2.600000e-06	-1.505137e-06	-1.078884e-09	-1.039241e+01	-7.260516e+01
2.610000e-06	-1.633590e-06	-1.527004e-09	-1.127933e+01	-1.016271e+02
2.620000e-06	-1.761464e-06	-1.982381e-09	-1.216225e+01	-1.309797e+02
2.630000e-06	-1.888556e-06	-2.437976e-09	-1.303977e+01	-1.604433e+02
2.640000e-06	-2.014791e-06	-2.889380e-09	-1.391138e+01	-1.897844e+02
2.650000e-06	-2.140230e-06	-3.332568e-09	-1.477749e+01	-2.187687e+02
2.660000e-06	-2.264838e-06	-3.765430e-09	-1.563786e+01	-2.471736e+02
2.670000e-06	-2.388488e-06	-4.183781e-09	-1.649162e+01	-2.748012e+02
2.680000e-06	-2.511210e-06	-4.585466e-09	-1.733897e+01	-3.014877e+02
2.690000e-06	-2.632998e-06	-4.972486e-09	-1.817987e+01	-3.271113e+02
2.700000e-06	-2.753912e-06	-5.345759e-09	-1.901473e+01	-3.515950e+02
2.710000e-06	-2.873899e-06	-5.704374e-09	-1.984320e+01	-3.749071e+02
2.720000e-06	-2.992691e-06	-6.046226e-09	-2.066341e+01	-3.970569e+02
2.730000e-06	-3.110276e-06	-6.370865e-09	-2.147530e+01	-4.180877e+02
2.740000e-06	-3.226614e-06	-6.678673e-09	-2.227856e+01	-4.380685e+02
2.750000e-06	-3.341633e-06	-6.970075e-09	-2.307273e+01	-4.570831e+02
2.760000e-06	-3.455297e-06	-7.247417e-09	-2.385753e+01	-4.752206e+02
2.770000e-06	-3.567523e-06	-7.513104e-09	-2.463241e+01	-4.925664e+02
2.780000e-06	-3.678340e-06	-7.768495e-09	-2.539757e+01	-5.091951e+02
2.790000e-06	-3.787847e-06	-8.011703e-09	-2.615367e+01	-5.251665e+02
2.800000e-06	-3.896172e-06	-8.243574e-09	-2.690161e+01	-5.405237e+02
2.810000e-06	-4.003271e-06	-8.466694e-09	-2.764109e+01	-5.552942e+02
2.820000e-06	-4.109019e-06	-8.682765e-09	-2.837124e+01	-5.694926e+02
2.830000e-06	-4.213328e-06	-8.894013e-09	-2.909145e+01	-5.831256e+02
2.840000e-06	-4.316008e-06	-9.097765e-09	-2.980043e+01	-5.961965e+02
2.850000e-06	-4.416989e-06	-9.290683e-09	-3.049766e+01	-6.087102e+02
2.860000e-06	-4.516426e-06	-9.473683e-09	-3.118424e+01	-6.206770e+02
2.870000e-06	-4.614387e-06	-9.649003e-09	-3.186061e+01	-6.321147e+02
2.880000e-06	-4.710851e-06	-9.816225e-09	-3.252667e+01	-6.430493e+02
2.890000e-06	-4.805560e-06	-9.975942e-09	-3.318059e+01	-6.535136e+02
2.900000e-06	-4.898432e-06	-1.013012e-08	-3.382184e+01	-6.635450e+02
2.910000e-06	-4.989600e-06	-1.027792e-08	-3.445132e+01	-6.731815e+02
2.920000e-06	-5.079020e-06	-1.041998e-08	-3.506874e+01	-6.824580e+02
2.930000e-06	-5.166626e-06	-1.055614e-08	-3.567362e+01	-6.914034e+02
2.940000e-06	-5.252197e-06	-1.068842e-08	-3.626445e+01	-7.000373e+02
