# Temperatura_=_81.4
# Concentracion g/m^3_=_15000.0
# C_Vs_to_Am_M_A/Vsm_=_65563218390.804596
# pendiente_HvsI_1/m_=_3716.3
# ordenada_HvsI_A/m_=_1297.0
# frecuencia_Hz_=_301961.93895004963

Tiempo_(s)	Campo_(V.s)	Magnetizacion_(V.s)	Campo_(kA/m)	Magnetizacion_(A/m)
0.000000e+00	-6.861291e-06	-1.268695e-08	-4.748258e+01	-8.318541e+02
1.000000e-08	-6.859352e-06	-1.269328e-08	-4.746916e+01	-8.316257e+02
2.000000e-08	-6.855083e-06	-1.268924e-08	-4.743962e+01	-8.311928e+02
3.000000e-08	-6.848746e-06	-1.267969e-08	-4.739577e+01	-8.305559e+02
4.000000e-08	-6.840176e-06	-1.267219e-08	-4.733646e+01	-8.297234e+02
5.000000e-08	-6.829155e-06	-1.265932e-08	-4.726019e+01	-8.287116e+02
6.000000e-08	-6.815566e-06	-1.264319e-08	-4.716615e+01	-8.275431e+02
7.000000e-08	-6.799485e-06	-1.260950e-08	-4.705486e+01	-8.262440e+02
8.000000e-08	-6.781209e-06	-1.258070e-08	-4.692839e+01	-8.248416e+02
9.000000e-08	-6.760801e-06	-1.265040e-08	-4.678715e+01	-8.233608e+02
1.000000e-07	-6.737860e-06	-1.265729e-08	-4.662839e+01	-8.218211e+02
1.100000e-07	-6.712016e-06	-1.255226e-08	-4.644954e+01	-8.202349e+02
1.200000e-07	-6.683540e-06	-1.250676e-08	-4.625248e+01	-8.186056e+02
1.300000e-07	-6.652929e-06	-1.248175e-08	-4.604064e+01	-8.169271e+02
1.400000e-07	-6.620395e-06	-1.233804e-08	-4.581550e+01	-8.151849e+02
1.500000e-07	-6.585930e-06	-1.237180e-08	-4.557698e+01	-8.133573e+02
1.600000e-07	-6.549459e-06	-1.251692e-08	-4.532459e+01	-8.114177e+02
1.700000e-07	-6.510954e-06	-1.225807e-08	-4.505812e+01	-8.093373e+02
1.800000e-07	-6.470302e-06	-1.230723e-08	-4.477679e+01	-8.070876e+02
1.900000e-07	-6.427172e-06	-1.234310e-08	-4.447832e+01	-8.046429e+02
2.000000e-07	-6.381578e-06	-1.215875e-08	-4.416279e+01	-8.019824e+02
2.100000e-07	-6.333640e-06	-1.227165e-08	-4.383105e+01	-7.990912e+02
2.200000e-07	-6.283006e-06	-1.217776e-08	-4.348064e+01	-7.959611e+02
2.300000e-07	-6.229731e-06	-1.207545e-08	-4.311196e+01	-7.925902e+02
2.400000e-07	-6.174136e-06	-1.202775e-08	-4.272722e+01	-7.889824e+02
2.500000e-07	-6.116139e-06	-1.193665e-08	-4.232586e+01	-7.851462e+02
2.600000e-07	-6.055834e-06	-1.193040e-08	-4.190853e+01	-7.810930e+02
2.700000e-07	-5.993393e-06	-1.185842e-08	-4.147642e+01	-7.768360e+02
2.800000e-07	-5.928782e-06	-1.176912e-08	-4.102928e+01	-7.723886e+02
2.900000e-07	-5.861900e-06	-1.167068e-08	-4.056644e+01	-7.677632e+02
3.000000e-07	-5.792788e-06	-1.162516e-08	-4.008816e+01	-7.629707e+02
3.100000e-07	-5.721590e-06	-1.158581e-08	-3.959544e+01	-7.580195e+02
3.200000e-07	-5.648210e-06	-1.146971e-08	-3.908763e+01	-7.529155e+02
3.300000e-07	-5.572515e-06	-1.143265e-08	-3.856379e+01	-7.476620e+02
3.400000e-07	-5.494553e-06	-1.132141e-08	-3.802426e+01	-7.422597e+02
3.500000e-07	-5.414409e-06	-1.121455e-08	-3.746964e+01	-7.367069e+02
3.600000e-07	-5.332264e-06	-1.116016e-08	-3.690117e+01	-7.310003e+02
3.700000e-07	-5.248417e-06	-1.107993e-08	-3.632091e+01	-7.251344e+02
3.800000e-07	-5.162858e-06	-1.098467e-08	-3.572882e+01	-7.191027e+02
3.900000e-07	-5.075487e-06	-1.085105e-08	-3.512418e+01	-7.128980e+02
4.000000e-07	-4.986343e-06	-1.076491e-08	-3.450727e+01	-7.065124e+02
4.100000e-07	-4.895338e-06	-1.067463e-08	-3.387748e+01	-6.999385e+02
4.200000e-07	-4.802625e-06	-1.058494e-08	-3.323588e+01	-6.931691e+02
4.300000e-07	-4.708347e-06	-1.047751e-08	-3.258344e+01	-6.861987e+02
4.400000e-07	-4.612435e-06	-1.035485e-08	-3.191970e+01	-6.790229e+02
4.500000e-07	-4.514772e-06	-1.024089e-08	-3.124383e+01	-6.716394e+02
4.600000e-07	-4.415380e-06	-1.011219e-08	-3.055600e+01	-6.640473e+02
4.700000e-07	-4.314552e-06	-1.000386e-08	-2.985824e+01	-6.562476e+02
4.800000e-07	-4.212239e-06	-9.889229e-09	-2.915020e+01	-6.482423e+02
4.900000e-07	-4.108453e-06	-9.759515e-09	-2.843196e+01	-6.400335e+02
5.000000e-07	-4.003182e-06	-9.622150e-09	-2.770345e+01	-6.316231e+02
5.100000e-07	-3.896308e-06	-9.500230e-09	-2.696384e+01	-6.230115e+02
5.200000e-07	-3.787959e-06	-9.377042e-09	-2.621403e+01	-6.141973e+02
5.300000e-07	-3.678266e-06	-9.236407e-09	-2.545491e+01	-6.051762e+02
5.400000e-07	-3.567263e-06	-9.085394e-09	-2.468673e+01	-5.959415e+02
5.500000e-07	-3.454993e-06	-8.928722e-09	-2.390978e+01	-5.864839e+02
5.600000e-07	-3.341319e-06	-8.781327e-09	-2.312312e+01	-5.767925e+02
5.700000e-07	-3.226126e-06	-8.632383e-09	-2.232594e+01	-5.668552e+02
5.800000e-07	-3.109579e-06	-8.483549e-09	-2.151940e+01	-5.566603e+02
5.900000e-07	-2.991825e-06	-8.324482e-09	-2.070450e+01	-5.461977e+02
6.000000e-07	-2.872973e-06	-8.159805e-09	-1.988200e+01	-5.354593e+02
6.100000e-07	-2.753118e-06	-7.992057e-09	-1.905255e+01	-5.244399e+02
6.200000e-07	-2.632376e-06	-7.823834e-09	-1.821698e+01	-5.131375e+02
6.300000e-07	-2.510588e-06	-7.646917e-09	-1.737416e+01	-5.015522e+02
6.400000e-07	-2.387608e-06	-7.459488e-09	-1.652310e+01	-4.896860e+02
6.500000e-07	-2.263712e-06	-7.269934e-09	-1.566569e+01	-4.775406e+02
6.600000e-07	-2.139141e-06	-7.078607e-09	-1.480362e+01	-4.651165e+02
6.700000e-07	-2.013965e-06	-6.888286e-09	-1.393735e+01	-4.524108e+02
6.800000e-07	-1.888130e-06	-6.694240e-09	-1.306653e+01	-4.394167e+02
6.900000e-07	-1.761581e-06	-6.495216e-09	-1.219077e+01	-4.261222e+02
7.000000e-07	-1.634391e-06	-6.284922e-09	-1.131057e+01	-4.125105e+02
7.100000e-07	-1.506654e-06	-6.067861e-09	-1.042658e+01	-3.985604e+02
7.200000e-07	-1.378441e-06	-5.848979e-09	-9.539302e+00	-3.842480e+02
7.300000e-07	-1.249871e-06	-5.625417e-09	-8.649552e+00	-3.695483e+02
7.400000e-07	-1.120933e-06	-5.395217e-09	-7.757256e+00	-3.544372e+02
7.500000e-07	-9.916012e-07	-5.156157e-09	-6.862233e+00	-3.388933e+02
7.600000e-07	-8.619028e-07	-4.913132e-09	-5.964675e+00	-3.228992e+02
7.700000e-07	-7.318510e-07	-4.665935e-09	-5.064670e+00	-3.064416e+02
7.800000e-07	-6.015272e-07	-4.412851e-09	-4.162783e+00	-2.895109e+02
7.900000e-07	-4.709717e-07	-4.152432e-09	-3.259292e+00	-2.720992e+02
8.000000e-07	-3.401965e-07	-3.883105e-09	-2.354281e+00	-2.541977e+02
8.100000e-07	-2.092171e-07	-3.601049e-09	-1.447857e+00	-2.357939e+02
8.200000e-07	-7.809935e-08	-3.308534e-09	-5.404753e-01	-2.168681e+02
8.300000e-07	5.308593e-08	-3.009181e-09	3.673735e-01	-1.973907e+02
8.400000e-07	1.842834e-07	-2.698601e-09	1.275307e+00	-1.773213e+02
8.500000e-07	3.155045e-07	-2.378903e-09	2.183404e+00	-1.566085e+02
8.600000e-07	4.466465e-07	-2.050889e-09	3.090953e+00	-1.351919e+02
8.700000e-07	5.776270e-07	-1.713896e-09	3.997385e+00	-1.130071e+02
8.800000e-07	7.083921e-07	-1.362740e-09	4.902326e+00	-8.999119e+01
8.900000e-07	8.388044e-07	-9.992116e-10	5.804825e+00	-6.609113e+01
9.000000e-07	9.688923e-07	-6.240112e-10	6.705080e+00	-4.127182e+01
9.100000e-07	1.098649e-06	-2.351091e-10	7.603043e+00	-1.552468e+01
9.200000e-07	1.227982e-06	1.694103e-10	8.498074e+00	1.112507e+01
9.300000e-07	1.356885e-06	5.878001e-10	9.390131e+00	3.861314e+01
9.400000e-07	1.485322e-06	1.018153e-09	1.027896e+01	6.683371e+01
9.500000e-07	1.613240e-06	1.460982e-09	1.116419e+01	9.564024e+01
9.600000e-07	1.740568e-06	1.909927e-09	1.204535e+01	1.248499e+02
9.700000e-07	1.867209e-06	2.363808e-09	1.292175e+01	1.542515e+02
9.800000e-07	1.993166e-06	2.817372e-09	1.379342e+01	1.836153e+02
9.900000e-07	2.118486e-06	3.264624e-09	1.466068e+01	2.127064e+02
1.000000e-06	2.243137e-06	3.699575e-09	1.552331e+01	2.412969e+02
1.010000e-06	2.367014e-06	4.119257e-09	1.638058e+01	2.691789e+02
1.020000e-06	2.489980e-06	4.524985e-09	1.723155e+01	2.961756e+02
1.030000e-06	2.611913e-06	4.915993e-09	1.807537e+01	3.221492e+02
1.040000e-06	2.732842e-06	5.295384e-09	1.891224e+01	3.470060e+02
1.050000e-06	2.852754e-06	5.656805e-09	1.974207e+01	3.706974e+02
1.060000e-06	2.971603e-06	5.998221e-09	2.056455e+01	3.932177e+02
1.070000e-06	3.089411e-06	6.323239e-09	2.137983e+01	4.145976e+02
1.080000e-06	3.206146e-06	6.635359e-09	2.218768e+01	4.348965e+02
1.090000e-06	3.321613e-06	6.932790e-09	2.298674e+01	4.541926e+02
1.100000e-06	3.435657e-06	7.213852e-09	2.377597e+01	4.725732e+02
1.110000e-06	3.548297e-06	7.479669e-09	2.455548e+01	4.901249e+02
1.120000e-06	3.659613e-06	7.733550e-09	2.532583e+01	5.069266e+02
1.130000e-06	3.769723e-06	7.978241e-09	2.608783e+01	5.230443e+02
1.140000e-06	3.878675e-06	8.214108e-09	2.684182e+01	5.385280e+02
1.150000e-06	3.986419e-06	8.442983e-09	2.758744e+01	5.534125e+02
1.160000e-06	4.092744e-06	8.663054e-09	2.832325e+01	5.677188e+02
1.170000e-06	4.197507e-06	8.873143e-09	2.904824e+01	5.814588e+02
1.180000e-06	4.300677e-06	9.072342e-09	2.976222e+01	5.946393e+02
1.190000e-06	4.402286e-06	9.260804e-09	3.046539e+01	6.072670e+02
1.200000e-06	4.502500e-06	9.438882e-09	3.115890e+01	6.193523e+02
1.210000e-06	4.601161e-06	9.608604e-09	3.184167e+01	6.309119e+02
1.220000e-06	4.697995e-06	9.771182e-09	3.251180e+01	6.419696e+02
1.230000e-06	4.793024e-06	9.930193e-09	3.316943e+01	6.525560e+02
1.240000e-06	4.886364e-06	1.008710e-08	3.381538e+01	6.627059e+02
1.250000e-06	4.978061e-06	1.024377e-08	3.444996e+01	6.724553e+02
1.260000e-06	5.068025e-06	1.039576e-08	3.507254e+01	6.818383e+02
1.270000e-06	5.156111e-06	1.053843e-08	3.568213e+01	6.908831e+02
1.280000e-06	5.242295e-06	1.067181e-08	3.627855e+01	6.996099e+02
1.290000e-06	5.326705e-06	1.079769e-08	3.686270e+01	7.080294e+02
1.300000e-06	5.409261e-06	1.092036e-08	3.743402e+01	7.161430e+02
1.310000e-06	5.489820e-06	1.103591e-08	3.799151e+01	7.239444e+02
1.320000e-06	5.568394e-06	1.114521e-08	3.853527e+01	7.314220e+02
1.330000e-06	5.644885e-06	1.125432e-08	3.906462e+01	7.385628e+02
1.340000e-06	5.719192e-06	1.136281e-08	3.957885e+01	7.453555e+02
1.350000e-06	5.791278e-06	1.146532e-08	4.007771e+01	7.517944e+02
1.360000e-06	5.861281e-06	1.155796e-08	4.056215e+01	7.578813e+02
1.370000e-06	5.929334e-06	1.164337e-08	4.103311e+01	7.636270e+02
1.380000e-06	5.995218e-06	1.172414e-08	4.148905e+01	7.690513e+02
1.390000e-06	6.058887e-06	1.180058e-08	4.192966e+01	7.741807e+02
1.400000e-06	6.120530e-06	1.187184e-08	4.235625e+01	7.790464e+02
1.410000e-06	6.180166e-06	1.194294e-08	4.276895e+01	7.836804e+02
1.420000e-06	6.237577e-06	1.201546e-08	4.316626e+01	7.881121e+02
1.430000e-06	6.292673e-06	1.208319e-08	4.354754e+01	7.923648e+02
1.440000e-06	6.345496e-06	1.214580e-08	4.391309e+01	7.964534e+02
1.450000e-06	6.395778e-06	1.220510e-08	4.426106e+01	8.003830e+02
1.460000e-06	6.443476e-06	1.226270e-08	4.459115e+01	8.041490e+02
1.470000e-06	6.488897e-06	1.231745e-08	4.490548e+01	8.077388e+02
1.480000e-06	6.532157e-06	1.236691e-08	4.520485e+01	8.111338e+02
1.490000e-06	6.572994e-06	1.241255e-08	4.548746e+01	8.143132e+02
1.500000e-06	6.611419e-06	1.245497e-08	4.575337e+01	8.172575e+02
1.510000e-06	6.647752e-06	1.249451e-08	4.600481e+01	8.199513e+02
1.520000e-06	6.681715e-06	1.253197e-08	4.623985e+01	8.223863e+02
1.530000e-06	6.713173e-06	1.256603e-08	4.645755e+01	8.245624e+02
1.540000e-06	6.742397e-06	1.259594e-08	4.665979e+01	8.264881e+02
1.550000e-06	6.769278e-06	1.262285e-08	4.684582e+01	8.281792e+02
1.560000e-06	6.793536e-06	1.264639e-08	4.701369e+01	8.296567e+02
1.570000e-06	6.815285e-06	1.266577e-08	4.716420e+01	8.309438e+02
1.580000e-06	6.834821e-06	1.268214e-08	4.729939e+01	8.320627e+02
1.590000e-06	6.851891e-06	1.269592e-08	4.741753e+01	8.330320e+02
1.600000e-06	6.866390e-06	1.270607e-08	4.751786e+01	8.338637e+02
1.610000e-06	6.878333e-06	1.271409e-08	4.760051e+01	8.345627e+02
1.620000e-06	6.887492e-06	1.272187e-08	4.766390e+01	8.351258e+02
1.630000e-06	6.894024e-06	1.272888e-08	4.770910e+01	8.355436e+02
1.640000e-06	6.898249e-06	1.273397e-08	4.773835e+01	8.358018e+02
1.650000e-06	6.900042e-06	1.273814e-08	4.775075e+01	8.358844e+02
1.660000e-06	6.899386e-06	1.273834e-08	4.774621e+01	8.357767e+02
1.670000e-06	6.896539e-06	1.272441e-08	4.772651e+01	8.354679e+02
1.680000e-06	6.891419e-06	1.271573e-08	4.769108e+01	8.349539e+02
1.690000e-06	6.883936e-06	1.270360e-08	4.763929e+01	8.342381e+02
1.700000e-06	6.874259e-06	1.268798e-08	4.757233e+01	8.333324e+02
1.710000e-06	6.862413e-06	1.267582e-08	4.749035e+01	8.322556e+02
1.720000e-06	6.848083e-06	1.267458e-08	4.739118e+01	8.310320e+02
1.730000e-06	6.831446e-06	1.267785e-08	4.727604e+01	8.296887e+02
1.740000e-06	6.812777e-06	1.254917e-08	4.714685e+01	8.282522e+02
1.750000e-06	6.791371e-06	1.249293e-08	4.699871e+01	8.267458e+02
1.760000e-06	6.766564e-06	1.255395e-08	4.682703e+01	8.251864e+02
1.770000e-06	6.738851e-06	1.251320e-08	4.663525e+01	8.235828e+02
1.780000e-06	6.708887e-06	1.252070e-08	4.642789e+01	8.219348e+02
1.790000e-06	6.677110e-06	1.263341e-08	4.620798e+01	8.202330e+02
1.800000e-06	6.643957e-06	1.239388e-08	4.597855e+01	8.184597e+02
1.810000e-06	6.608863e-06	1.238627e-08	4.573568e+01	8.165909e+02
1.820000e-06	6.571031e-06	1.252799e-08	4.547388e+01	8.145990e+02
1.830000e-06	6.531026e-06	1.230753e-08	4.519702e+01	8.124549e+02
1.840000e-06	6.488980e-06	1.246789e-08	4.490605e+01	8.101309e+02
1.850000e-06	6.444693e-06	1.234026e-08	4.459957e+01	8.076031e+02
1.860000e-06	6.398211e-06	1.215938e-08	4.427790e+01	8.048529e+02
1.870000e-06	6.349189e-06	1.230831e-08	4.393865e+01	8.018680e+02
1.880000e-06	6.297880e-06	1.211764e-08	4.358357e+01	7.986426e+02
1.890000e-06	6.244001e-06	1.219492e-08	4.321071e+01	7.951774e+02
1.900000e-06	6.187431e-06	1.212668e-08	4.281923e+01	7.914782e+02
1.910000e-06	6.128643e-06	1.194518e-08	4.241239e+01	7.875548e+02
1.920000e-06	6.067524e-06	1.200768e-08	4.198943e+01	7.834194e+02
1.930000e-06	6.004125e-06	1.182849e-08	4.155068e+01	7.790855e+02
1.940000e-06	5.938558e-06	1.186760e-08	4.109694e+01	7.745662e+02
1.950000e-06	5.870900e-06	1.177227e-08	4.062872e+01	7.698735e+02
1.960000e-06	5.800959e-06	1.167270e-08	4.014471e+01	7.650173e+02
1.970000e-06	5.728541e-06	1.162232e-08	3.964354e+01	7.600050e+02
1.980000e-06	5.654077e-06	1.144103e-08	3.912823e+01	7.548416e+02
1.990000e-06	5.577451e-06	1.149154e-08	3.859795e+01	7.495291e+02
2.000000e-06	5.498481e-06	1.136053e-08	3.805145e+01	7.440675e+02
2.010000e-06	5.417563e-06	1.127076e-08	3.749146e+01	7.384543e+02
2.020000e-06	5.334829e-06	1.118048e-08	3.691892e+01	7.326853e+02
2.030000e-06	5.250258e-06	1.106399e-08	3.633365e+01	7.267546e+02
2.040000e-06	5.163614e-06	1.100639e-08	3.573405e+01	7.206554e+02
2.050000e-06	5.075050e-06	1.088025e-08	3.512115e+01	7.143801e+02
2.060000e-06	4.984881e-06	1.083035e-08	3.449716e+01	7.079209e+02
2.070000e-06	4.893145e-06	1.068324e-08	3.386231e+01	7.012704e+02
2.080000e-06	4.799749e-06	1.057594e-08	3.321597e+01	6.944222e+02
2.090000e-06	4.704459e-06	1.047322e-08	3.255654e+01	6.873710e+02
2.100000e-06	4.607512e-06	1.039151e-08	3.188563e+01	6.801133e+02
2.110000e-06	4.509094e-06	1.029491e-08	3.120454e+01	6.726473e+02
2.120000e-06	4.409203e-06	1.013653e-08	3.051326e+01	6.649730e+02
2.130000e-06	4.307764e-06	1.001976e-08	2.981126e+01	6.570917e+02
2.140000e-06	4.204570e-06	9.892488e-09	2.909712e+01	6.490057e+02
2.150000e-06	4.099767e-06	9.784301e-09	2.837185e+01	6.407170e+02
2.160000e-06	3.993603e-06	9.651575e-09	2.763716e+01	6.322271e+02
2.170000e-06	3.886093e-06	9.527491e-09	2.689315e+01	6.235358e+02
2.180000e-06	3.777337e-06	9.379461e-09	2.614052e+01	6.146404e+02
2.190000e-06	3.667163e-06	9.235521e-09	2.537808e+01	6.055359e+02
2.200000e-06	3.555494e-06	9.100454e-09	2.460528e+01	5.962143e+02
2.210000e-06	3.442559e-06	8.967388e-09	2.382373e+01	5.866658e+02
2.220000e-06	3.328240e-06	8.818914e-09	2.303261e+01	5.768787e+02
2.230000e-06	3.212528e-06	8.643320e-09	2.223184e+01	5.668410e+02
2.240000e-06	3.095495e-06	8.479116e-09	2.142193e+01	5.565416e+02
2.250000e-06	2.977173e-06	8.320694e-09	2.060310e+01	5.459709e+02
2.260000e-06	2.857625e-06	8.172138e-09	1.977578e+01	5.351221e+02
2.270000e-06	2.737050e-06	8.005604e-09	1.894136e+01	5.239911e+02
2.280000e-06	2.615548e-06	7.831664e-09	1.810052e+01	5.125769e+02
2.290000e-06	2.493103e-06	7.648878e-09	1.725316e+01	5.008805e+02
2.300000e-06	2.369760e-06	7.470291e-09	1.639958e+01	4.889040e+02
2.310000e-06	2.245609e-06	7.289520e-09	1.554042e+01	4.766487e+02
2.320000e-06	2.120850e-06	7.102572e-09	1.467704e+01	4.641139e+02
2.330000e-06	1.995464e-06	6.899793e-09	1.380932e+01	4.512956e+02
2.340000e-06	1.869267e-06	6.685579e-09	1.293599e+01	4.381847e+02
2.350000e-06	1.742178e-06	6.478339e-09	1.205649e+01	4.247673e+02
2.360000e-06	1.614371e-06	6.275792e-09	1.117202e+01	4.110249e+02
2.370000e-06	1.486037e-06	6.071203e-09	1.028390e+01	3.969349e+02
2.380000e-06	1.357300e-06	5.850224e-09	9.393000e+00	3.824728e+02
2.390000e-06	1.228218e-06	5.618324e-09	8.499704e+00	3.676137e+02
2.400000e-06	1.098784e-06	5.379952e-09	7.603978e+00	3.523344e+02
2.410000e-06	9.690299e-07	5.141821e-09	6.706033e+00	3.366150e+02
2.420000e-06	8.389300e-07	4.900442e-09	5.805695e+00	3.204397e+02
2.430000e-06	7.085906e-07	4.646900e-09	4.903699e+00	3.037968e+02
2.440000e-06	5.780986e-07	4.382081e-09	4.000648e+00	2.866775e+02
2.450000e-06	4.473726e-07	4.110018e-09	3.095978e+00	2.690741e+02
2.460000e-06	3.164488e-07	3.836226e-09	2.189938e+00	2.509766e+02
2.470000e-06	1.854029e-07	3.558509e-09	1.283054e+00	2.323700e+02
2.480000e-06	5.430081e-08	3.271626e-09	3.757810e-01	2.132311e+02
2.490000e-06	-7.682007e-08	2.971797e-09	-5.316223e-01	1.935262e+02
2.500000e-06	-2.079320e-07	2.655975e-09	-1.438963e+00	1.732102e+02
2.510000e-06	-3.389790e-07	2.329665e-09	-2.345855e+00	1.522279e+02
2.520000e-06	-4.699726e-07	1.995264e-09	-3.252378e+00	1.305168e+02
2.530000e-06	-6.008566e-07	1.649510e-09	-4.158142e+00	1.080121e+02
2.540000e-06	-7.314738e-07	1.292656e-09	-5.062059e+00	8.465387e+01
2.550000e-06	-8.618380e-07	9.248687e-10	-5.964226e+00	6.039507e+01
2.560000e-06	-9.919176e-07	5.485248e-10	-6.864423e+00	3.521005e+01
2.570000e-06	-1.121685e-06	1.599421e-10	-7.762460e+00	9.102734e+00
2.580000e-06	-1.251119e-06	-2.447546e-10	-8.658190e+00	-1.788681e+01
2.590000e-06	-1.380121e-06	-6.647344e-10	-9.550930e+00	-4.567808e+01
2.600000e-06	-1.508680e-06	-1.102101e-09	-1.044060e+01	-7.414896e+01
2.610000e-06	-1.636770e-06	-1.551592e-09	-1.132703e+01	-1.031380e+02
2.620000e-06	-1.764274e-06	-2.006361e-09	-1.220940e+01	-1.324500e+02
2.630000e-06	-1.890963e-06	-2.459535e-09	-1.308614e+01	-1.618652e+02
2.640000e-06	-2.016783e-06	-2.907648e-09	-1.395686e+01	-1.911503e+02
2.650000e-06	-2.141832e-06	-3.350520e-09	-1.482224e+01	-2.200716e+02
2.660000e-06	-2.266115e-06	-3.784101e-09	-1.568232e+01	-2.484076e+02
2.670000e-06	-2.389506e-06	-4.203665e-09	-1.653624e+01	-2.759613e+02
2.680000e-06	-2.511910e-06	-4.605540e-09	-1.738331e+01	-3.025706e+02
2.690000e-06	-2.633386e-06	-4.989867e-09	-1.822397e+01	-3.281146e+02
2.700000e-06	-2.753994e-06	-5.359752e-09	-1.905862e+01	-3.525174e+02
2.710000e-06	-2.873606e-06	-5.714883e-09	-1.988638e+01	-3.757478e+02
2.720000e-06	-2.992029e-06	-6.053907e-09	-2.070591e+01	-3.978151e+02
2.730000e-06	-3.109229e-06	-6.376238e-09	-2.151697e+01	-4.187625e+02
2.740000e-06	-3.225181e-06	-6.681288e-09	-2.231940e+01	-4.386579e+02
2.750000e-06	-3.339893e-06	-6.971741e-09	-2.311325e+01	-4.575843e+02
2.760000e-06	-3.453202e-06	-7.248819e-09	-2.389739e+01	-4.756297e+02
2.770000e-06	-3.565033e-06	-7.513429e-09	-2.467130e+01	-4.928785e+02
2.780000e-06	-3.675501e-06	-7.767532e-09	-2.543578e+01	-5.094050e+02
2.790000e-06	-3.784727e-06	-8.009500e-09	-2.619166e+01	-5.252690e+02
2.800000e-06	-3.892822e-06	-8.241326e-09	-2.693972e+01	-5.405145e+02
2.810000e-06	-3.999651e-06	-8.463326e-09	-2.767901e+01	-5.551704e+02
2.820000e-06	-4.105086e-06	-8.677306e-09	-2.840866e+01	-5.692537e+02
2.830000e-06	-4.209045e-06	-8.884275e-09	-2.912809e+01	-5.827737e+02
2.840000e-06	-4.311353e-06	-9.082558e-09	-2.983610e+01	-5.957366e+02
2.850000e-06	-4.411987e-06	-9.272954e-09	-3.053252e+01	-6.081502e+02
2.860000e-06	-4.511143e-06	-9.456481e-09	-3.121872e+01	-6.200271e+02
2.870000e-06	-4.608790e-06	-9.633220e-09	-3.189447e+01	-6.313867e+02
2.880000e-06	-4.704889e-06	-9.801741e-09	-3.255951e+01	-6.422559e+02
2.890000e-06	-4.799310e-06	-9.961614e-09	-3.321293e+01	-6.526669e+02
2.900000e-06	-4.891931e-06	-1.011408e-08	-3.385391e+01	-6.626557e+02
2.910000e-06	-4.982878e-06	-1.026073e-08	-3.448329e+01	-6.722579e+02
2.920000e-06	-5.072090e-06	-1.040199e-08	-3.510067e+01	-6.815056e+02
2.930000e-06	-5.159346e-06	-1.053684e-08	-3.570451e+01	-6.904240e+02
2.940000e-06	-5.244541e-06	-1.066644e-08	-3.629409e+01	-6.990298e+02
