# Temperatura_=_48.16
# Concentracion g/m^3_=_15000.0
# C_Vs_to_Am_M_A/Vsm_=_65563218390.804596
# pendiente_HvsI_1/m_=_3716.3
# ordenada_HvsI_A/m_=_1297.0
# frecuencia_Hz_=_301963.7759435248

Tiempo_(s)	Campo_(V.s)	Magnetizacion_(V.s)	Campo_(kA/m)	Magnetizacion_(A/m)
0.000000e+00	-6.889337e-06	-1.049976e-08	-4.747165e+01	-6.876913e+02
1.000000e-08	-6.885361e-06	-1.049719e-08	-4.744425e+01	-6.873991e+02
2.000000e-08	-6.879208e-06	-1.049076e-08	-4.740186e+01	-6.869522e+02
3.000000e-08	-6.870845e-06	-1.048281e-08	-4.734423e+01	-6.863573e+02
4.000000e-08	-6.860071e-06	-1.047462e-08	-4.726999e+01	-6.856265e+02
5.000000e-08	-6.846775e-06	-1.046528e-08	-4.717837e+01	-6.847768e+02
6.000000e-08	-6.830961e-06	-1.045337e-08	-4.706940e+01	-6.838280e+02
7.000000e-08	-6.812885e-06	-1.044661e-08	-4.694485e+01	-6.828009e+02
8.000000e-08	-6.792685e-06	-1.044340e-08	-4.680566e+01	-6.817147e+02
9.000000e-08	-6.769967e-06	-1.043799e-08	-4.664912e+01	-6.805852e+02
1.000000e-07	-6.744411e-06	-1.040691e-08	-4.647302e+01	-6.794226e+02
1.100000e-07	-6.716174e-06	-1.036949e-08	-4.627845e+01	-6.782312e+02
1.200000e-07	-6.685702e-06	-1.033369e-08	-4.606848e+01	-6.770079e+02
1.300000e-07	-6.653282e-06	-1.029712e-08	-4.584509e+01	-6.757436e+02
1.400000e-07	-6.618956e-06	-1.027619e-08	-4.560857e+01	-6.744235e+02
1.500000e-07	-6.582661e-06	-1.026533e-08	-4.535847e+01	-6.730289e+02
1.600000e-07	-6.544253e-06	-1.024700e-08	-4.509382e+01	-6.715390e+02
1.700000e-07	-6.503676e-06	-1.021237e-08	-4.481422e+01	-6.699325e+02
1.800000e-07	-6.460666e-06	-1.020416e-08	-4.451785e+01	-6.681900e+02
1.900000e-07	-6.415117e-06	-1.017683e-08	-4.420399e+01	-6.662945e+02
2.000000e-07	-6.367219e-06	-1.015674e-08	-4.387394e+01	-6.642334e+02
2.100000e-07	-6.316739e-06	-1.013766e-08	-4.352611e+01	-6.619981e+02
2.200000e-07	-6.263596e-06	-1.005612e-08	-4.315992e+01	-6.595849e+02
2.300000e-07	-6.207979e-06	-9.992124e-09	-4.277669e+01	-6.569938e+02
2.400000e-07	-6.149994e-06	-9.947959e-09	-4.237714e+01	-6.542282e+02
2.500000e-07	-6.089806e-06	-9.911235e-09	-4.196241e+01	-6.512942e+02
2.600000e-07	-6.027468e-06	-9.891981e-09	-4.153286e+01	-6.481990e+02
2.700000e-07	-5.962915e-06	-9.841171e-09	-4.108805e+01	-6.449507e+02
2.800000e-07	-5.896076e-06	-9.774912e-09	-4.062749e+01	-6.415568e+02
2.900000e-07	-5.826971e-06	-9.715819e-09	-4.015131e+01	-6.380244e+02
3.000000e-07	-5.755682e-06	-9.669477e-09	-3.966009e+01	-6.343589e+02
3.100000e-07	-5.682202e-06	-9.616917e-09	-3.915377e+01	-6.305644e+02
3.200000e-07	-5.606442e-06	-9.554028e-09	-3.863174e+01	-6.266433e+02
3.300000e-07	-5.528330e-06	-9.497400e-09	-3.809350e+01	-6.225964e+02
3.400000e-07	-5.448017e-06	-9.431110e-09	-3.754009e+01	-6.184229e+02
3.500000e-07	-5.365779e-06	-9.373233e-09	-3.697343e+01	-6.141206e+02
3.600000e-07	-5.281847e-06	-9.307553e-09	-3.639508e+01	-6.096861e+02
3.700000e-07	-5.196173e-06	-9.227213e-09	-3.580474e+01	-6.051149e+02
3.800000e-07	-5.108694e-06	-9.148002e-09	-3.520195e+01	-6.004016e+02
3.900000e-07	-5.019348e-06	-9.071649e-09	-3.458631e+01	-5.955404e+02
4.000000e-07	-4.928129e-06	-9.007813e-09	-3.395776e+01	-5.905255e+02
4.100000e-07	-4.835279e-06	-8.940310e-09	-3.331796e+01	-5.853510e+02
4.200000e-07	-4.740825e-06	-8.855096e-09	-3.266712e+01	-5.800117e+02
4.300000e-07	-4.644690e-06	-8.756609e-09	-3.200469e+01	-5.745032e+02
4.400000e-07	-4.546841e-06	-8.662649e-09	-3.133046e+01	-5.688222e+02
4.500000e-07	-4.447291e-06	-8.575264e-09	-3.064449e+01	-5.629667e+02
4.600000e-07	-4.346218e-06	-8.489399e-09	-2.994804e+01	-5.569356e+02
4.700000e-07	-4.243669e-06	-8.405904e-09	-2.924142e+01	-5.507284e+02
4.800000e-07	-4.139579e-06	-8.308318e-09	-2.852417e+01	-5.443454e+02
4.900000e-07	-4.033937e-06	-8.200341e-09	-2.779624e+01	-5.377863e+02
5.000000e-07	-3.926761e-06	-8.093832e-09	-2.705773e+01	-5.310501e+02
5.100000e-07	-3.818158e-06	-7.992583e-09	-2.630939e+01	-5.241348e+02
5.200000e-07	-3.708260e-06	-7.886010e-09	-2.555213e+01	-5.170364e+02
5.300000e-07	-3.597095e-06	-7.770630e-09	-2.478613e+01	-5.097494e+02
5.400000e-07	-3.484487e-06	-7.653902e-09	-2.401020e+01	-5.022662e+02
5.500000e-07	-3.370394e-06	-7.538902e-09	-2.322403e+01	-4.945784e+02
5.600000e-07	-3.254839e-06	-7.423224e-09	-2.242779e+01	-4.866765e+02
5.700000e-07	-3.137909e-06	-7.300002e-09	-2.162207e+01	-4.785512e+02
5.800000e-07	-3.019782e-06	-7.170936e-09	-2.080810e+01	-4.701942e+02
5.900000e-07	-2.900611e-06	-7.035759e-09	-1.998694e+01	-4.615983e+02
6.000000e-07	-2.780451e-06	-6.899205e-09	-1.915897e+01	-4.527584e+02
6.100000e-07	-2.659265e-06	-6.766671e-09	-1.832392e+01	-4.436715e+02
6.200000e-07	-2.537032e-06	-6.628693e-09	-1.748166e+01	-4.343360e+02
6.300000e-07	-2.413806e-06	-6.476975e-09	-1.663256e+01	-4.247516e+02
6.400000e-07	-2.289675e-06	-6.319561e-09	-1.577723e+01	-4.149181e+02
6.500000e-07	-2.164713e-06	-6.164658e-09	-1.491616e+01	-4.048341e+02
6.600000e-07	-2.039082e-06	-6.009361e-09	-1.405049e+01	-3.944965e+02
6.700000e-07	-1.912845e-06	-5.850910e-09	-1.318064e+01	-3.838990e+02
6.800000e-07	-1.785946e-06	-5.687735e-09	-1.230623e+01	-3.730320e+02
6.900000e-07	-1.658326e-06	-5.516721e-09	-1.142686e+01	-3.618824e+02
7.000000e-07	-1.530065e-06	-5.337540e-09	-1.054306e+01	-3.504342e+02
7.100000e-07	-1.401298e-06	-5.156062e-09	-9.655782e+00	-3.386693e+02
7.200000e-07	-1.272143e-06	-4.973270e-09	-8.765826e+00	-3.265689e+02
7.300000e-07	-1.142621e-06	-4.782055e-09	-7.873339e+00	-3.141149e+02
7.400000e-07	-1.012715e-06	-4.583155e-09	-6.978211e+00	-3.012913e+02
7.500000e-07	-8.824859e-07	-4.382527e-09	-6.080856e+00	-2.880850e+02
7.600000e-07	-7.518818e-07	-4.180094e-09	-5.180915e+00	-2.744864e+02
7.700000e-07	-6.209332e-07	-3.970049e-09	-4.278601e+00	-2.604886e+02
7.800000e-07	-4.897453e-07	-3.750740e-09	-3.374638e+00	-2.460867e+02
7.900000e-07	-3.583385e-07	-3.523421e-09	-2.469167e+00	-2.312756e+02
8.000000e-07	-2.267939e-07	-3.289842e-09	-1.562745e+00	-2.160476e+02
8.100000e-07	-9.513234e-08	-3.052892e-09	-6.555187e-01	-2.003903e+02
8.200000e-07	3.664510e-08	-2.811299e-09	2.525066e-01	-1.842838e+02
8.300000e-07	1.684657e-07	-2.557796e-09	1.160830e+00	-1.677002e+02
8.400000e-07	3.002041e-07	-2.292876e-09	2.068586e+00	-1.506023e+02
8.500000e-07	4.318363e-07	-2.022401e-09	2.975610e+00	-1.329454e+02
8.600000e-07	5.633768e-07	-1.746335e-09	3.882003e+00	-1.146798e+02
8.700000e-07	6.947265e-07	-1.458472e-09	4.787081e+00	-9.575492e+01
8.800000e-07	8.257901e-07	-1.156429e-09	5.690188e+00	-7.612479e+01
8.900000e-07	9.565431e-07	-8.448016e-10	6.591154e+00	-5.575451e+01
9.000000e-07	1.086946e-06	-5.228624e-10	7.489708e+00	-3.462656e+01
9.100000e-07	1.216903e-06	-1.896059e-10	8.385191e+00	-1.274682e+01
9.200000e-07	1.346367e-06	1.542918e-10	9.277275e+00	9.850555e+00
9.300000e-07	1.475374e-06	5.088311e-10	1.016621e+01	3.310025e+01
9.400000e-07	1.603897e-06	8.739904e-10	1.105181e+01	5.690506e+01
9.500000e-07	1.731859e-06	1.245654e-09	1.193355e+01	8.113776e+01
9.600000e-07	1.859178e-06	1.621926e-09	1.281085e+01	1.056455e+02
9.700000e-07	1.985800e-06	2.001551e-09	1.368335e+01	1.302566e+02
9.800000e-07	2.111721e-06	2.380021e-09	1.455102e+01	1.547888e+02
9.900000e-07	2.236880e-06	2.753284e-09	1.541344e+01	1.790587e+02
1.000000e-06	2.361328e-06	3.116161e-09	1.627096e+01	2.028914e+02
1.010000e-06	2.484997e-06	3.466635e-09	1.712311e+01	2.261296e+02
1.020000e-06	2.607658e-06	3.805048e-09	1.796833e+01	2.486404e+02
1.030000e-06	2.729240e-06	4.132931e-09	1.880610e+01	2.703215e+02
1.040000e-06	2.849757e-06	4.449907e-09	1.963653e+01	2.911032e+02
1.050000e-06	2.969206e-06	4.752603e-09	2.045961e+01	3.109491e+02
1.060000e-06	3.087577e-06	5.038944e-09	2.127525e+01	3.298533e+02
1.070000e-06	3.204904e-06	5.311647e-09	2.208370e+01	3.478364e+02
1.080000e-06	3.321110e-06	5.571628e-09	2.288443e+01	3.649392e+02
1.090000e-06	3.435913e-06	5.817850e-09	2.367549e+01	3.812162e+02
1.100000e-06	3.549240e-06	6.052200e-09	2.445638e+01	3.967287e+02
1.110000e-06	3.661219e-06	6.276103e-09	2.522799e+01	4.115385e+02
1.120000e-06	3.771954e-06	6.489997e-09	2.599102e+01	4.257034e+02
1.130000e-06	3.881522e-06	6.695590e-09	2.674601e+01	4.392729e+02
1.140000e-06	3.989890e-06	6.892827e-09	2.749273e+01	4.522875e+02
1.150000e-06	4.096921e-06	7.084203e-09	2.823024e+01	4.647774e+02
1.160000e-06	4.202364e-06	7.268790e-09	2.895680e+01	4.767648e+02
1.170000e-06	4.306178e-06	7.442361e-09	2.967214e+01	4.882650e+02
1.180000e-06	4.408481e-06	7.606985e-09	3.037707e+01	4.992894e+02
1.190000e-06	4.509332e-06	7.764417e-09	3.107199e+01	5.098482e+02
1.200000e-06	4.608609e-06	7.915444e-09	3.175607e+01	5.199521e+02
1.210000e-06	4.706076e-06	8.060735e-09	3.242768e+01	5.296139e+02
1.220000e-06	4.801742e-06	8.201401e-09	3.308688e+01	5.388488e+02
1.230000e-06	4.895676e-06	8.337884e-09	3.373414e+01	5.476749e+02
1.240000e-06	4.987987e-06	8.470855e-09	3.437022e+01	5.561111e+02
1.250000e-06	5.078642e-06	8.600837e-09	3.499488e+01	5.641771e+02
1.260000e-06	5.167355e-06	8.724052e-09	3.560616e+01	5.718910e+02
1.270000e-06	5.254091e-06	8.836923e-09	3.620383e+01	5.792686e+02
1.280000e-06	5.339035e-06	8.943932e-09	3.678914e+01	5.863227e+02
1.290000e-06	5.422258e-06	9.047791e-09	3.736260e+01	5.930629e+02
1.300000e-06	5.503525e-06	9.144258e-09	3.792257e+01	5.994960e+02
1.310000e-06	5.582664e-06	9.232300e-09	3.846790e+01	6.056271e+02
1.320000e-06	5.659762e-06	9.318103e-09	3.899914e+01	6.114613e+02
1.330000e-06	5.734732e-06	9.404437e-09	3.951573e+01	6.170044e+02
1.340000e-06	5.807450e-06	9.486346e-09	4.001680e+01	6.222651e+02
1.350000e-06	5.878023e-06	9.561416e-09	4.050309e+01	6.272550e+02
1.360000e-06	5.946579e-06	9.631212e-09	4.097549e+01	6.319895e+02
1.370000e-06	6.012999e-06	9.698988e-09	4.143316e+01	6.364866e+02
1.380000e-06	6.077209e-06	9.765693e-09	4.187560e+01	6.407665e+02
1.390000e-06	6.139327e-06	9.829426e-09	4.230363e+01	6.448493e+02
1.400000e-06	6.199438e-06	9.890765e-09	4.271784e+01	6.487538e+02
1.410000e-06	6.257422e-06	9.949923e-09	4.311738e+01	6.524949e+02
1.420000e-06	6.313111e-06	1.000450e-08	4.350111e+01	6.560828e+02
1.430000e-06	6.366494e-06	1.005545e-08	4.386895e+01	6.595214e+02
1.440000e-06	6.417289e-06	1.010501e-08	4.421896e+01	6.628087e+02
1.450000e-06	6.465409e-06	1.015241e-08	4.455053e+01	6.659372e+02
1.460000e-06	6.511247e-06	1.019663e-08	4.486638e+01	6.688951e+02
1.470000e-06	6.554996e-06	1.023848e-08	4.516784e+01	6.716686e+02
1.480000e-06	6.596319e-06	1.027821e-08	4.545258e+01	6.742441e+02
1.490000e-06	6.635101e-06	1.031550e-08	4.571982e+01	6.766103e+02
1.500000e-06	6.671683e-06	1.034684e-08	4.597189e+01	6.787602e+02
1.510000e-06	6.705970e-06	1.037282e-08	4.620814e+01	6.806927e+02
1.520000e-06	6.737848e-06	1.039620e-08	4.642780e+01	6.824129e+02
1.530000e-06	6.767488e-06	1.041787e-08	4.663204e+01	6.839318e+02
1.540000e-06	6.794807e-06	1.044001e-08	4.682028e+01	6.852651e+02
1.550000e-06	6.819561e-06	1.046105e-08	4.699085e+01	6.864316e+02
1.560000e-06	6.841781e-06	1.047825e-08	4.714396e+01	6.874509e+02
1.570000e-06	6.861673e-06	1.049190e-08	4.728103e+01	6.883409e+02
1.580000e-06	6.879179e-06	1.050318e-08	4.740166e+01	6.891160e+02
1.590000e-06	6.894130e-06	1.051266e-08	4.750468e+01	6.897855e+02
1.600000e-06	6.906476e-06	1.052047e-08	4.758975e+01	6.903529e+02
1.610000e-06	6.916067e-06	1.052672e-08	4.765584e+01	6.908155e+02
1.620000e-06	6.923042e-06	1.053101e-08	4.770390e+01	6.911662e+02
1.630000e-06	6.927677e-06	1.053228e-08	4.773584e+01	6.913943e+02
1.640000e-06	6.929841e-06	1.053272e-08	4.775075e+01	6.914880e+02
1.650000e-06	6.929517e-06	1.053280e-08	4.774852e+01	6.914365e+02
1.660000e-06	6.926957e-06	1.053022e-08	4.773088e+01	6.912322e+02
1.670000e-06	6.922229e-06	1.052468e-08	4.769830e+01	6.908723e+02
1.680000e-06	6.915093e-06	1.051475e-08	4.764913e+01	6.903598e+02
1.690000e-06	6.905620e-06	1.050373e-08	4.758385e+01	6.897037e+02
1.700000e-06	6.893923e-06	1.049396e-08	4.750325e+01	6.889186e+02
1.710000e-06	6.879825e-06	1.048372e-08	4.740611e+01	6.880228e+02
1.720000e-06	6.863438e-06	1.046206e-08	4.729319e+01	6.870369e+02
1.730000e-06	6.844916e-06	1.042951e-08	4.716556e+01	6.859813e+02
1.740000e-06	6.823789e-06	1.039369e-08	4.701998e+01	6.848738e+02
1.750000e-06	6.799368e-06	1.038863e-08	4.685171e+01	6.837282e+02
1.760000e-06	6.771903e-06	1.038711e-08	4.666246e+01	6.825521e+02
1.770000e-06	6.742091e-06	1.038490e-08	4.645704e+01	6.813467e+02
1.780000e-06	6.710415e-06	1.037377e-08	4.623877e+01	6.801063e+02
1.790000e-06	6.677292e-06	1.034959e-08	4.601054e+01	6.788191e+02
1.800000e-06	6.642344e-06	1.031498e-08	4.576972e+01	6.774685e+02
1.810000e-06	6.604826e-06	1.031869e-08	4.551120e+01	6.760346e+02
1.820000e-06	6.565000e-06	1.032549e-08	4.523677e+01	6.744962e+02
1.830000e-06	6.523028e-06	1.027500e-08	4.494756e+01	6.728326e+02
1.840000e-06	6.478760e-06	1.023496e-08	4.464253e+01	6.710253e+02
1.850000e-06	6.432277e-06	1.017344e-08	4.432223e+01	6.690591e+02
1.860000e-06	6.383354e-06	1.015581e-08	4.398513e+01	6.669231e+02
1.870000e-06	6.332082e-06	1.016650e-08	4.363183e+01	6.646108e+02
1.880000e-06	6.278317e-06	1.013444e-08	4.326136e+01	6.621200e+02
1.890000e-06	6.221860e-06	1.010783e-08	4.287233e+01	6.594525e+02
1.900000e-06	6.163050e-06	1.002853e-08	4.246710e+01	6.566129e+02
1.910000e-06	6.101914e-06	9.947641e-09	4.204584e+01	6.536077e+02
1.920000e-06	6.038500e-06	9.907182e-09	4.160888e+01	6.504449e+02
1.930000e-06	5.972926e-06	9.874459e-09	4.115703e+01	6.471322e+02
1.940000e-06	5.905196e-06	9.854490e-09	4.069033e+01	6.436772e+02
1.950000e-06	5.835248e-06	9.780176e-09	4.020834e+01	6.400861e+02
1.960000e-06	5.762904e-06	9.720149e-09	3.970986e+01	6.363638e+02
1.970000e-06	5.688344e-06	9.650402e-09	3.919609e+01	6.325138e+02
1.980000e-06	5.611560e-06	9.584842e-09	3.866700e+01	6.285378e+02
1.990000e-06	5.532555e-06	9.545924e-09	3.812261e+01	6.244357e+02
2.000000e-06	5.451565e-06	9.467520e-09	3.756454e+01	6.202063e+02
2.010000e-06	5.368723e-06	9.406487e-09	3.699371e+01	6.158468e+02
2.020000e-06	5.284064e-06	9.327603e-09	3.641036e+01	6.113533e+02
2.030000e-06	5.197364e-06	9.256927e-09	3.581294e+01	6.067208e+02
2.040000e-06	5.108764e-06	9.188954e-09	3.520244e+01	6.019438e+02
2.050000e-06	5.018550e-06	9.098290e-09	3.458081e+01	5.970165e+02
2.060000e-06	4.926690e-06	9.023055e-09	3.394784e+01	5.919328e+02
2.070000e-06	4.833067e-06	8.944368e-09	3.330272e+01	5.866871e+02
2.080000e-06	4.737600e-06	8.879190e-09	3.264490e+01	5.812747e+02
2.090000e-06	4.640495e-06	8.801296e-09	3.197579e+01	5.756916e+02
2.100000e-06	4.541905e-06	8.715583e-09	3.129644e+01	5.699350e+02
2.110000e-06	4.441803e-06	8.613630e-09	3.060668e+01	5.640033e+02
2.120000e-06	4.340072e-06	8.503121e-09	2.990569e+01	5.578956e+02
2.130000e-06	4.236676e-06	8.406493e-09	2.919323e+01	5.516121e+02
2.140000e-06	4.131737e-06	8.320266e-09	2.847014e+01	5.451526e+02
2.150000e-06	4.025378e-06	8.234595e-09	2.773726e+01	5.385167e+02
2.160000e-06	3.917691e-06	8.131377e-09	2.699524e+01	5.317031e+02
2.170000e-06	3.808639e-06	8.020076e-09	2.624380e+01	5.247089e+02
2.180000e-06	3.698147e-06	7.899100e-09	2.548245e+01	5.175293e+02
2.190000e-06	3.586176e-06	7.783335e-09	2.471090e+01	5.101582e+02
2.200000e-06	3.472859e-06	7.668467e-09	2.393007e+01	5.025874e+02
2.210000e-06	3.358167e-06	7.551724e-09	2.313978e+01	4.948079e+02
2.220000e-06	3.242037e-06	7.429334e-09	2.233957e+01	4.868103e+02
2.230000e-06	3.124514e-06	7.304302e-09	2.152977e+01	4.785857e+02
2.240000e-06	3.005717e-06	7.178514e-09	2.071119e+01	4.701260e+02
2.250000e-06	2.885807e-06	7.047488e-09	1.988493e+01	4.614250e+02
2.260000e-06	2.764829e-06	6.909803e-09	1.905132e+01	4.524784e+02
2.270000e-06	2.642868e-06	6.768106e-09	1.821094e+01	4.432840e+02
2.280000e-06	2.520040e-06	6.625911e-09	1.736458e+01	4.338408e+02
2.290000e-06	2.396326e-06	6.481316e-09	1.651212e+01	4.241487e+02
2.300000e-06	2.271717e-06	6.333958e-09	1.565349e+01	4.142070e+02
2.310000e-06	2.146323e-06	6.177533e-09	1.478945e+01	4.040138e+02
2.320000e-06	2.020205e-06	6.011673e-09	1.392042e+01	3.935647e+02
2.330000e-06	1.893346e-06	5.839008e-09	1.304628e+01	3.828521e+02
2.340000e-06	1.765764e-06	5.670924e-09	1.216717e+01	3.718647e+02
2.350000e-06	1.637576e-06	5.506821e-09	1.128388e+01	3.605882e+02
2.360000e-06	1.508874e-06	5.338386e-09	1.039704e+01	3.490055e+02
2.370000e-06	1.379735e-06	5.158993e-09	9.507196e+00	3.370981e+02
2.380000e-06	1.250176e-06	4.969982e-09	8.614457e+00	3.248472e+02
2.390000e-06	1.120275e-06	4.774383e-09	7.719364e+00	3.122355e+02
2.400000e-06	9.900345e-07	4.572094e-09	6.821929e+00	2.992483e+02
2.410000e-06	8.595242e-07	4.365869e-09	5.922635e+00	2.858738e+02
2.420000e-06	7.287749e-07	4.154165e-09	5.021695e+00	2.721037e+02
2.430000e-06	5.977221e-07	3.938289e-09	4.118663e+00	2.579323e+02
2.440000e-06	4.664600e-07	3.718475e-09	3.214188e+00	2.433547e+02
2.450000e-06	3.350389e-07	3.494278e-09	2.308618e+00	2.283651e+02
2.460000e-06	2.034815e-07	3.264104e-09	1.402109e+00	2.129539e+02
2.470000e-06	7.178619e-08	3.023334e-09	4.946497e-01	1.971059e+02
2.480000e-06	-5.995992e-08	2.771615e-09	-4.131597e-01	1.807979e+02
2.490000e-06	-1.916424e-07	2.512591e-09	-1.320530e+00	1.639978e+02
2.500000e-06	-3.232497e-07	2.244149e-09	-2.227384e+00	1.466652e+02
2.510000e-06	-4.547448e-07	1.965352e-09	-3.133464e+00	1.287526e+02
2.520000e-06	-5.861133e-07	1.678788e-09	-4.038671e+00	1.102095e+02
2.530000e-06	-7.173347e-07	1.384300e-09	-4.942865e+00	9.098640e+01
2.540000e-06	-8.483489e-07	1.081288e-09	-5.845631e+00	7.104142e+01
2.550000e-06	-9.790309e-07	7.701927e-10	-6.746108e+00	5.034628e+01
2.560000e-06	-1.109318e-06	4.500359e-10	-7.643864e+00	2.889281e+01
2.570000e-06	-1.239232e-06	1.169945e-10	-8.539046e+00	6.698510e+00
2.580000e-06	-1.368729e-06	-2.285420e-10	-9.431360e+00	-1.618935e+01
2.590000e-06	-1.497813e-06	-5.862547e-10	-1.032082e+01	-3.969173e+01
2.600000e-06	-1.626453e-06	-9.537263e-10	-1.120723e+01	-6.369817e+01
2.610000e-06	-1.754557e-06	-1.328113e-09	-1.208995e+01	-8.806980e+01
2.620000e-06	-1.881998e-06	-1.706128e-09	-1.296809e+01	-1.126448e+02
2.630000e-06	-2.008594e-06	-2.081682e-09	-1.384042e+01	-1.372457e+02
2.640000e-06	-2.134317e-06	-2.452225e-09	-1.470672e+01	-1.616887e+02
2.650000e-06	-2.259289e-06	-2.818848e-09	-1.556785e+01	-1.857929e+02
2.660000e-06	-2.383408e-06	-3.179491e-09	-1.642311e+01	-2.093898e+02
2.670000e-06	-2.506551e-06	-3.530224e-09	-1.727163e+01	-2.323319e+02
2.680000e-06	-2.628698e-06	-3.869424e-09	-1.811330e+01	-2.544988e+02
2.690000e-06	-2.749865e-06	-4.195218e-09	-1.894821e+01	-2.758021e+02
2.700000e-06	-2.870169e-06	-4.504687e-09	-1.977718e+01	-2.961864e+02
2.710000e-06	-2.989402e-06	-4.797877e-09	-2.059876e+01	-3.156288e+02
2.720000e-06	-3.107353e-06	-5.078783e-09	-2.141152e+01	-3.341354e+02
2.730000e-06	-3.224046e-06	-5.350838e-09	-2.221560e+01	-3.517363e+02
2.740000e-06	-3.339429e-06	-5.611224e-09	-2.301066e+01	-3.684790e+02
2.750000e-06	-3.453468e-06	-5.857555e-09	-2.379646e+01	-3.844218e+02
2.760000e-06	-3.566078e-06	-6.090898e-09	-2.457241e+01	-3.996268e+02
2.770000e-06	-3.677287e-06	-6.313669e-09	-2.533870e+01	-4.141546e+02
2.780000e-06	-3.787159e-06	-6.527870e-09	-2.609579e+01	-4.280598e+02
2.790000e-06	-3.895787e-06	-6.733118e-09	-2.684430e+01	-4.413882e+02
2.800000e-06	-4.003221e-06	-6.931319e-09	-2.758458e+01	-4.541758e+02
2.810000e-06	-4.109296e-06	-7.122437e-09	-2.831551e+01	-4.664491e+02
2.820000e-06	-4.213944e-06	-7.304407e-09	-2.903659e+01	-4.782271e+02
2.830000e-06	-4.316988e-06	-7.477697e-09	-2.974663e+01	-4.895232e+02
2.840000e-06	-4.418312e-06	-7.641455e-09	-3.044481e+01	-5.003479e+02
2.850000e-06	-4.518123e-06	-7.798011e-09	-3.113257e+01	-5.107114e+02
2.860000e-06	-4.616481e-06	-7.947271e-09	-3.181032e+01	-5.206252e+02
2.870000e-06	-4.713317e-06	-8.087427e-09	-3.247757e+01	-5.301030e+02
2.880000e-06	-4.808466e-06	-8.223490e-09	-3.313320e+01	-5.391615e+02
2.890000e-06	-4.901748e-06	-8.355972e-09	-3.377598e+01	-5.478191e+02
2.900000e-06	-4.993297e-06	-8.484917e-09	-3.440680e+01	-5.560954e+02
2.910000e-06	-5.083080e-06	-8.609139e-09	-3.502546e+01	-5.640094e+02
2.920000e-06	-5.170984e-06	-8.725194e-09	-3.563117e+01	-5.715784e+02
2.930000e-06	-5.256913e-06	-8.834625e-09	-3.622327e+01	-5.788171e+02
2.940000e-06	-5.340908e-06	-8.940005e-09	-3.680205e+01	-5.857367e+02
