# Temperatura_=_68.78
# Concentracion g/m^3_=_15000.0
# C_Vs_to_Am_M_A/Vsm_=_65563218390.804596
# pendiente_HvsI_1/m_=_3716.3
# ordenada_HvsI_A/m_=_1297.0
# frecuencia_Hz_=_301963.1794619754

Tiempo_(s)	Campo_(V.s)	Magnetizacion_(V.s)	Campo_(kA/m)	Magnetizacion_(A/m)
0.000000e+00	-6.888424e-06	-1.176028e-08	-4.748712e+01	-7.705924e+02
1.000000e-08	-6.886737e-06	-1.175813e-08	-4.747550e+01	-7.703853e+02
2.000000e-08	-6.882635e-06	-1.175193e-08	-4.744722e+01	-7.699950e+02
3.000000e-08	-6.876360e-06	-1.174415e-08	-4.740396e+01	-7.694225e+02
4.000000e-08	-6.867917e-06	-1.173600e-08	-4.734576e+01	-7.686768e+02
5.000000e-08	-6.857037e-06	-1.172510e-08	-4.727075e+01	-7.677734e+02
6.000000e-08	-6.843624e-06	-1.171233e-08	-4.717829e+01	-7.667334e+02
7.000000e-08	-6.827776e-06	-1.169439e-08	-4.706904e+01	-7.655807e+02
8.000000e-08	-6.809665e-06	-1.168302e-08	-4.694418e+01	-7.643393e+02
9.000000e-08	-6.789312e-06	-1.170101e-08	-4.680387e+01	-7.630305e+02
1.000000e-07	-6.766404e-06	-1.169062e-08	-4.664595e+01	-7.616704e+02
1.100000e-07	-6.740668e-06	-1.163554e-08	-4.646854e+01	-7.602678e+02
1.200000e-07	-6.712327e-06	-1.159322e-08	-4.627316e+01	-7.588231e+02
1.300000e-07	-6.681787e-06	-1.155250e-08	-4.606262e+01	-7.573286e+02
1.400000e-07	-6.649252e-06	-1.148735e-08	-4.583833e+01	-7.557693e+02
1.500000e-07	-6.614778e-06	-1.149130e-08	-4.560068e+01	-7.541243e+02
1.600000e-07	-6.578326e-06	-1.150419e-08	-4.534938e+01	-7.523696e+02
1.700000e-07	-6.539805e-06	-1.142388e-08	-4.508383e+01	-7.504802e+02
1.800000e-07	-6.499131e-06	-1.142053e-08	-4.480344e+01	-7.484327e+02
1.900000e-07	-6.455998e-06	-1.139786e-08	-4.450609e+01	-7.462071e+02
2.000000e-07	-6.410405e-06	-1.133297e-08	-4.419178e+01	-7.437887e+02
2.100000e-07	-6.362421e-06	-1.132894e-08	-4.386099e+01	-7.411683e+02
2.200000e-07	-6.311752e-06	-1.126769e-08	-4.351169e+01	-7.383426e+02
2.300000e-07	-6.258522e-06	-1.119559e-08	-4.314474e+01	-7.353134e+02
2.400000e-07	-6.202890e-06	-1.113928e-08	-4.276122e+01	-7.320862e+02
2.500000e-07	-6.144840e-06	-1.108886e-08	-4.236104e+01	-7.286694e+02
2.600000e-07	-6.084511e-06	-1.106319e-08	-4.194514e+01	-7.250721e+02
2.700000e-07	-6.021961e-06	-1.100579e-08	-4.151394e+01	-7.213036e+02
2.800000e-07	-5.957205e-06	-1.093379e-08	-4.106753e+01	-7.173718e+02
2.900000e-07	-5.890220e-06	-1.086169e-08	-4.060575e+01	-7.132825e+02
3.000000e-07	-5.821043e-06	-1.080213e-08	-4.012886e+01	-7.090399e+02
3.100000e-07	-5.749743e-06	-1.074555e-08	-3.963734e+01	-7.046460e+02
3.200000e-07	-5.676285e-06	-1.067893e-08	-3.913093e+01	-7.001012e+02
3.300000e-07	-5.600546e-06	-1.061975e-08	-3.860881e+01	-6.954048e+02
3.400000e-07	-5.522461e-06	-1.052664e-08	-3.807051e+01	-6.905556e+02
3.500000e-07	-5.442175e-06	-1.044129e-08	-3.751704e+01	-6.855520e+02
3.600000e-07	-5.359895e-06	-1.037561e-08	-3.694982e+01	-6.803924e+02
3.700000e-07	-5.275815e-06	-1.030074e-08	-3.637019e+01	-6.750753e+02
3.800000e-07	-5.189997e-06	-1.021457e-08	-3.577858e+01	-6.695988e+02
3.900000e-07	-5.102421e-06	-1.011989e-08	-3.517486e+01	-6.639610e+02
4.000000e-07	-5.013014e-06	-1.003415e-08	-3.455850e+01	-6.581592e+02
4.100000e-07	-4.921789e-06	-9.947366e-09	-3.392963e+01	-6.521901e+02
4.200000e-07	-4.828909e-06	-9.860747e-09	-3.328933e+01	-6.460495e+02
4.300000e-07	-4.734420e-06	-9.761372e-09	-3.263795e+01	-6.397327e+02
4.400000e-07	-4.638238e-06	-9.654063e-09	-3.197489e+01	-6.332346e+02
4.500000e-07	-4.540387e-06	-9.550314e-09	-3.130033e+01	-6.265500e+02
4.600000e-07	-4.440817e-06	-9.446850e-09	-3.061391e+01	-6.196742e+02
4.700000e-07	-4.339673e-06	-9.348115e-09	-2.991666e+01	-6.126031e+02
4.800000e-07	-4.237073e-06	-9.240201e-09	-2.920935e+01	-6.053335e+02
4.900000e-07	-4.132887e-06	-9.119862e-09	-2.849113e+01	-5.978630e+02
5.000000e-07	-4.027231e-06	-8.995522e-09	-2.776275e+01	-5.901900e+02
5.100000e-07	-3.920020e-06	-8.874394e-09	-2.702367e+01	-5.823132e+02
5.200000e-07	-3.811316e-06	-8.755930e-09	-2.627429e+01	-5.742310e+02
5.300000e-07	-3.701402e-06	-8.633056e-09	-2.551657e+01	-5.659415e+02
5.400000e-07	-3.590196e-06	-8.500948e-09	-2.474994e+01	-5.574416e+02
5.500000e-07	-3.477584e-06	-8.363031e-09	-2.397362e+01	-5.487267e+02
5.600000e-07	-3.363508e-06	-8.225873e-09	-2.318721e+01	-5.397912e+02
5.700000e-07	-3.247965e-06	-8.087735e-09	-2.239069e+01	-5.306282e+02
5.800000e-07	-3.131029e-06	-7.946308e-09	-2.158456e+01	-5.212302e+02
5.900000e-07	-3.012921e-06	-7.798645e-09	-2.077035e+01	-5.115894e+02
6.000000e-07	-2.893723e-06	-7.645311e-09	-1.994863e+01	-5.016987e+02
6.100000e-07	-2.773451e-06	-7.489739e-09	-1.911950e+01	-4.915518e+02
6.200000e-07	-2.652247e-06	-7.335019e-09	-1.828395e+01	-4.811434e+02
6.300000e-07	-2.530035e-06	-7.174671e-09	-1.744145e+01	-4.704698e+02
6.400000e-07	-2.406720e-06	-7.004037e-09	-1.659135e+01	-4.595281e+02
6.500000e-07	-2.282472e-06	-6.827342e-09	-1.573481e+01	-4.483154e+02
6.600000e-07	-2.157481e-06	-6.651126e-09	-1.487315e+01	-4.368288e+02
6.700000e-07	-2.031820e-06	-6.473921e-09	-1.400688e+01	-4.250636e+02
6.800000e-07	-1.905562e-06	-6.293587e-09	-1.313648e+01	-4.130132e+02
6.900000e-07	-1.778601e-06	-6.107678e-09	-1.226124e+01	-4.006684e+02
7.000000e-07	-1.650894e-06	-5.912435e-09	-1.138086e+01	-3.880172e+02
7.100000e-07	-1.522598e-06	-5.710061e-09	-1.049642e+01	-3.750451e+02
7.200000e-07	-1.393840e-06	-5.504738e-09	-9.608796e+00	-3.617359e+02
7.300000e-07	-1.264737e-06	-5.296843e-09	-8.718793e+00	-3.480725e+02
7.400000e-07	-1.135346e-06	-5.081452e-09	-7.826798e+00	-3.340382e+02
7.500000e-07	-1.005555e-06	-4.859770e-09	-6.932054e+00	-3.196178e+02
7.600000e-07	-8.753428e-07	-4.634586e-09	-6.034401e+00	-3.047977e+02
7.700000e-07	-7.447729e-07	-4.406321e-09	-5.134284e+00	-2.895667e+02
7.800000e-07	-6.138691e-07	-4.172473e-09	-4.231865e+00	-2.739149e+02
7.900000e-07	-4.827232e-07	-3.931039e-09	-3.327777e+00	-2.578325e+02
8.000000e-07	-3.513521e-07	-3.682388e-09	-2.422136e+00	-2.413079e+02
8.100000e-07	-2.198048e-07	-3.422385e-09	-1.515281e+00	-2.243256e+02
8.200000e-07	-8.814876e-08	-3.153759e-09	-6.076762e-01	-2.068634e+02
8.300000e-07	4.359865e-08	-2.877688e-09	3.005585e-01	-1.888915e+02
8.400000e-07	1.753612e-07	-2.589865e-09	1.208898e+00	-1.703708e+02
8.500000e-07	3.070775e-07	-2.292949e-09	2.116918e+00	-1.512537e+02
8.600000e-07	4.386914e-07	-1.990038e-09	3.024232e+00	-1.314860e+02
8.700000e-07	5.701565e-07	-1.679901e-09	3.930521e+00	-1.110107e+02
8.800000e-07	7.014646e-07	-1.357474e-09	4.835727e+00	-8.977293e+01
8.900000e-07	8.325328e-07	-1.023156e-09	5.739280e+00	-6.772675e+01
9.000000e-07	9.631462e-07	-6.770416e-10	6.639697e+00	-4.484182e+01
9.100000e-07	1.093319e-06	-3.150414e-10	7.537076e+00	-2.111069e+01
9.200000e-07	1.223102e-06	6.194157e-11	8.431772e+00	3.445176e+00
9.300000e-07	1.352418e-06	4.494476e-10	9.323243e+00	2.877077e+01
9.400000e-07	1.481357e-06	8.444016e-10	1.021212e+01	5.477531e+01
9.500000e-07	1.609871e-06	1.247164e-09	1.109806e+01	8.133271e+01
9.600000e-07	1.737829e-06	1.657137e-09	1.198017e+01	1.082850e+02
9.700000e-07	1.865122e-06	2.072216e-09	1.285770e+01	1.354485e+02
9.800000e-07	1.991633e-06	2.488304e-09	1.372983e+01	1.626224e+02
9.900000e-07	2.117418e-06	2.899992e-09	1.459697e+01	1.895993e+02
1.000000e-06	2.242596e-06	3.304143e-09	1.545992e+01	2.161759e+02
1.010000e-06	2.367111e-06	3.698190e-09	1.631829e+01	2.421642e+02
1.020000e-06	2.490700e-06	4.079330e-09	1.717028e+01	2.674007e+02
1.030000e-06	2.613208e-06	4.448326e-09	1.801482e+01	2.917544e+02
1.040000e-06	2.734693e-06	4.804840e-09	1.885231e+01	3.151309e+02
1.050000e-06	2.855183e-06	5.143599e-09	1.968294e+01	3.374749e+02
1.060000e-06	2.974616e-06	5.464847e-09	2.050628e+01	3.587678e+02
1.070000e-06	3.092899e-06	5.772124e-09	2.132170e+01	3.790241e+02
1.080000e-06	3.210090e-06	6.068346e-09	2.212959e+01	3.982848e+02
1.090000e-06	3.326057e-06	6.350127e-09	2.292904e+01	4.166093e+02
1.100000e-06	3.440605e-06	6.617222e-09	2.371870e+01	4.340676e+02
1.110000e-06	3.553864e-06	6.871445e-09	2.449948e+01	4.507322e+02
1.120000e-06	3.665829e-06	7.113150e-09	2.527134e+01	4.666715e+02
1.130000e-06	3.776440e-06	7.344246e-09	2.603386e+01	4.819450e+02
1.140000e-06	3.885851e-06	7.565614e-09	2.678812e+01	4.966006e+02
1.150000e-06	3.994104e-06	7.779846e-09	2.753439e+01	5.106742e+02
1.160000e-06	4.100952e-06	7.986731e-09	2.827097e+01	5.241908e+02
1.170000e-06	4.206311e-06	8.186695e-09	2.899729e+01	5.371668e+02
1.180000e-06	4.310120e-06	8.376345e-09	2.971292e+01	5.496143e+02
1.190000e-06	4.412330e-06	8.553751e-09	3.041754e+01	5.615437e+02
1.200000e-06	4.513013e-06	8.722485e-09	3.111162e+01	5.729673e+02
1.210000e-06	4.612068e-06	8.885505e-09	3.179448e+01	5.839014e+02
1.220000e-06	4.709447e-06	9.043332e-09	3.246579e+01	5.943668e+02
1.230000e-06	4.805041e-06	9.195350e-09	3.312479e+01	6.043888e+02
1.240000e-06	4.898877e-06	9.342622e-09	3.377168e+01	6.139952e+02
1.250000e-06	4.991084e-06	9.488286e-09	3.440733e+01	6.232146e+02
1.260000e-06	5.081512e-06	9.631634e-09	3.503071e+01	6.320734e+02
1.270000e-06	5.170036e-06	9.767592e-09	3.564098e+01	6.405934e+02
1.280000e-06	5.256702e-06	9.894086e-09	3.623843e+01	6.487902e+02
1.290000e-06	5.341573e-06	1.001411e-08	3.682351e+01	6.566723e+02
1.300000e-06	5.424576e-06	1.012922e-08	3.739571e+01	6.642414e+02
1.310000e-06	5.505610e-06	1.023879e-08	3.795434e+01	6.714936e+02
1.320000e-06	5.584589e-06	1.034064e-08	3.849880e+01	6.784223e+02
1.330000e-06	5.661509e-06	1.043781e-08	3.902907e+01	6.850203e+02
1.340000e-06	5.736282e-06	1.053459e-08	3.954454e+01	6.912829e+02
1.350000e-06	5.808796e-06	1.062677e-08	4.004444e+01	6.972109e+02
1.360000e-06	5.879218e-06	1.071205e-08	4.052990e+01	7.028113e+02
1.370000e-06	5.947614e-06	1.079163e-08	4.100141e+01	7.080991e+02
1.380000e-06	6.013851e-06	1.086688e-08	4.145803e+01	7.130958e+02
1.390000e-06	6.077880e-06	1.093790e-08	4.189944e+01	7.178280e+02
1.400000e-06	6.139908e-06	1.100536e-08	4.232704e+01	7.223251e+02
1.410000e-06	6.199916e-06	1.107137e-08	4.274072e+01	7.266159e+02
1.420000e-06	6.257704e-06	1.113651e-08	4.313910e+01	7.307254e+02
1.430000e-06	6.313221e-06	1.119846e-08	4.352182e+01	7.346723e+02
1.440000e-06	6.366402e-06	1.125620e-08	4.388843e+01	7.384672e+02
1.450000e-06	6.417070e-06	1.131250e-08	4.423773e+01	7.421115e+02
1.460000e-06	6.465112e-06	1.136790e-08	4.456892e+01	7.455979e+02
1.470000e-06	6.510819e-06	1.141890e-08	4.488401e+01	7.489124e+02
1.480000e-06	6.554373e-06	1.146413e-08	4.518426e+01	7.520366e+02
1.490000e-06	6.595533e-06	1.150546e-08	4.546801e+01	7.549508e+02
1.500000e-06	6.634299e-06	1.154530e-08	4.573525e+01	7.576374e+02
1.510000e-06	6.670839e-06	1.158220e-08	4.598715e+01	7.600837e+02
1.520000e-06	6.705012e-06	1.161497e-08	4.622273e+01	7.622840e+02
1.530000e-06	6.736762e-06	1.164362e-08	4.644161e+01	7.642409e+02
1.540000e-06	6.766261e-06	1.167008e-08	4.664497e+01	7.659648e+02
1.550000e-06	6.793378e-06	1.169526e-08	4.683190e+01	7.674727e+02
1.560000e-06	6.817883e-06	1.171645e-08	4.700084e+01	7.687863e+02
1.570000e-06	6.839926e-06	1.173398e-08	4.715280e+01	7.699287e+02
1.580000e-06	6.859675e-06	1.174768e-08	4.728894e+01	7.709214e+02
1.590000e-06	6.876970e-06	1.175971e-08	4.740817e+01	7.717822e+02
1.600000e-06	6.891723e-06	1.176958e-08	4.750987e+01	7.725221e+02
1.610000e-06	6.903903e-06	1.177704e-08	4.759384e+01	7.731453e+02
1.620000e-06	6.913350e-06	1.178420e-08	4.765896e+01	7.736484e+02
1.630000e-06	6.920213e-06	1.179005e-08	4.770627e+01	7.740220e+02
1.640000e-06	6.924693e-06	1.179352e-08	4.773716e+01	7.742526e+02
1.650000e-06	6.926665e-06	1.179490e-08	4.775075e+01	7.743253e+02
1.660000e-06	6.926196e-06	1.179302e-08	4.774752e+01	7.742267e+02
1.670000e-06	6.923488e-06	1.178632e-08	4.772885e+01	7.739475e+02
1.680000e-06	6.918541e-06	1.177635e-08	4.769474e+01	7.734846e+02
1.690000e-06	6.911277e-06	1.176262e-08	4.764467e+01	7.728422e+02
1.700000e-06	6.901750e-06	1.174905e-08	4.757900e+01	7.720319e+02
1.710000e-06	6.889969e-06	1.173766e-08	4.749778e+01	7.710716e+02
1.720000e-06	6.875757e-06	1.172902e-08	4.739981e+01	7.699839e+02
1.730000e-06	6.859298e-06	1.170979e-08	4.728634e+01	7.687931e+02
1.740000e-06	6.840698e-06	1.164739e-08	4.715811e+01	7.675225e+02
1.750000e-06	6.819371e-06	1.161286e-08	4.701109e+01	7.661916e+02
1.760000e-06	6.794741e-06	1.162176e-08	4.684130e+01	7.648137e+02
1.770000e-06	6.767187e-06	1.160376e-08	4.665135e+01	7.633945e+02
1.780000e-06	6.737273e-06	1.160804e-08	4.644513e+01	7.619312e+02
1.790000e-06	6.705484e-06	1.161182e-08	4.622598e+01	7.604129e+02
1.800000e-06	6.672319e-06	1.152987e-08	4.599735e+01	7.588222e+02
1.810000e-06	6.637260e-06	1.152947e-08	4.575567e+01	7.571366e+02
1.820000e-06	6.599586e-06	1.154933e-08	4.549595e+01	7.553315e+02
1.830000e-06	6.559657e-06	1.149147e-08	4.522069e+01	7.533821e+02
1.840000e-06	6.517618e-06	1.149553e-08	4.493088e+01	7.512663e+02
1.850000e-06	6.473307e-06	1.142230e-08	4.462541e+01	7.489660e+02
1.860000e-06	6.426701e-06	1.136400e-08	4.430412e+01	7.464685e+02
1.870000e-06	6.377587e-06	1.136778e-08	4.396554e+01	7.437672e+02
1.880000e-06	6.326159e-06	1.129804e-08	4.361101e+01	7.408606e+02
1.890000e-06	6.272249e-06	1.128875e-08	4.323937e+01	7.377523e+02
1.900000e-06	6.215687e-06	1.121878e-08	4.284944e+01	7.344491e+02
1.910000e-06	6.156802e-06	1.113380e-08	4.244350e+01	7.309598e+02
1.920000e-06	6.095549e-06	1.110249e-08	4.202124e+01	7.272938e+02
1.930000e-06	6.032064e-06	1.101429e-08	4.158359e+01	7.234598e+02
1.940000e-06	5.966472e-06	1.099808e-08	4.113141e+01	7.194650e+02
1.950000e-06	5.898706e-06	1.093661e-08	4.066425e+01	7.153147e+02
1.960000e-06	5.828674e-06	1.085472e-08	4.018147e+01	7.110121e+02
1.970000e-06	5.756222e-06	1.078301e-08	3.968200e+01	7.065584e+02
1.980000e-06	5.681589e-06	1.068761e-08	3.916750e+01	7.019537e+02
1.990000e-06	5.604741e-06	1.064779e-08	3.863773e+01	6.971970e+02
2.000000e-06	5.525659e-06	1.056513e-08	3.809256e+01	6.922869e+02
2.010000e-06	5.444629e-06	1.049280e-08	3.753396e+01	6.872217e+02
2.020000e-06	5.361768e-06	1.041268e-08	3.696273e+01	6.820000e+02
2.030000e-06	5.277057e-06	1.031737e-08	3.637875e+01	6.766200e+02
2.040000e-06	5.190297e-06	1.023915e-08	3.578065e+01	6.710800e+02
2.050000e-06	5.101613e-06	1.014870e-08	3.516928e+01	6.653776e+02
2.060000e-06	5.011302e-06	1.006487e-08	3.454670e+01	6.595101e+02
2.070000e-06	4.919391e-06	9.960917e-09	3.391309e+01	6.534736e+02
2.080000e-06	4.825754e-06	9.872360e-09	3.326758e+01	6.472640e+02
2.090000e-06	4.730280e-06	9.781141e-09	3.260940e+01	6.408761e+02
2.100000e-06	4.633179e-06	9.686509e-09	3.194002e+01	6.343049e+02
2.110000e-06	4.534594e-06	9.580701e-09	3.126039e+01	6.275453e+02
2.120000e-06	4.434412e-06	9.467886e-09	3.056976e+01	6.205927e+02
2.130000e-06	4.332605e-06	9.358745e-09	2.986793e+01	6.134435e+02
2.140000e-06	4.229106e-06	9.241577e-09	2.915443e+01	6.060948e+02
2.150000e-06	4.123994e-06	9.135364e-09	2.842982e+01	5.985444e+02
2.160000e-06	4.017565e-06	9.023505e-09	2.769612e+01	5.907910e+02
2.170000e-06	3.909789e-06	8.906030e-09	2.695314e+01	5.828333e+02
2.180000e-06	3.800651e-06	8.775152e-09	2.620077e+01	5.746695e+02
2.190000e-06	3.690047e-06	8.644002e-09	2.543829e+01	5.662973e+02
2.200000e-06	3.577948e-06	8.514280e-09	2.466551e+01	5.577131e+02
2.210000e-06	3.464570e-06	8.385361e-09	2.388391e+01	5.489118e+02
2.220000e-06	3.349865e-06	8.249684e-09	2.309316e+01	5.398873e+02
2.230000e-06	3.233722e-06	8.107319e-09	2.229250e+01	5.306325e+02
2.240000e-06	3.116249e-06	7.960028e-09	2.148267e+01	5.211396e+02
2.250000e-06	2.997533e-06	7.806595e-09	2.066427e+01	5.114010e+02
2.260000e-06	2.877593e-06	7.655477e-09	1.983743e+01	5.014098e+02
2.270000e-06	2.756615e-06	7.499782e-09	1.900344e+01	4.911602e+02
2.280000e-06	2.634736e-06	7.343720e-09	1.816323e+01	4.806476e+02
2.290000e-06	2.511961e-06	7.182440e-09	1.731685e+01	4.698686e+02
2.300000e-06	2.388235e-06	7.017344e-09	1.646392e+01	4.588203e+02
2.310000e-06	2.263607e-06	6.846864e-09	1.560476e+01	4.474999e+02
2.320000e-06	2.138312e-06	6.671138e-09	1.474100e+01	4.359040e+02
2.330000e-06	2.012362e-06	6.487182e-09	1.387273e+01	4.240273e+02
2.340000e-06	1.885591e-06	6.295662e-09	1.299881e+01	4.118620e+02
2.350000e-06	1.758003e-06	6.102631e-09	1.211925e+01	3.993980e+02
2.360000e-06	1.629756e-06	5.909889e-09	1.123514e+01	3.866221e+02
2.370000e-06	1.501024e-06	5.714898e-09	1.034769e+01	3.735191e+02
2.380000e-06	1.371908e-06	5.513393e-09	9.457602e+00	3.600723e+02
2.390000e-06	1.242421e-06	5.304760e-09	8.564947e+00	3.462647e+02
2.400000e-06	1.112614e-06	5.085937e-09	7.670092e+00	3.320800e+02
2.410000e-06	9.825150e-07	4.859765e-09	6.773221e+00	3.175036e+02
2.420000e-06	8.520820e-07	4.630528e-09	5.874047e+00	3.025229e+02
2.430000e-06	7.213609e-07	4.397035e-09	4.972887e+00	2.871272e+02
2.440000e-06	5.904156e-07	4.156750e-09	4.070182e+00	2.713070e+02
2.450000e-06	4.593005e-07	3.907793e-09	3.166307e+00	2.550520e+02
2.460000e-06	3.279516e-07	3.650994e-09	2.260819e+00	2.383493e+02
2.470000e-06	1.964032e-07	3.388432e-09	1.353956e+00	2.211810e+02
2.480000e-06	6.469445e-08	3.119708e-09	4.459879e-01	2.035222e+02
2.490000e-06	-6.708001e-08	2.845230e-09	-4.624334e-01	1.853394e+02
2.500000e-06	-1.987972e-07	2.563305e-09	-1.370460e+00	1.665900e+02
2.510000e-06	-3.303786e-07	2.267692e-09	-2.277550e+00	1.472236e+02
2.520000e-06	-4.617818e-07	1.957815e-09	-3.183412e+00	1.271842e+02
2.530000e-06	-5.930491e-07	1.637789e-09	-4.088337e+00	1.064151e+02
2.540000e-06	-7.241436e-07	1.307047e-09	-4.992070e+00	8.486412e+01
2.550000e-06	-8.549886e-07	9.661293e-10	-5.894085e+00	6.249047e+01
2.560000e-06	-9.855063e-07	6.143871e-10	-6.793842e+00	3.927206e+01
2.570000e-06	-1.115667e-06	2.520726e-10	-7.691137e+00	1.521212e+01
2.580000e-06	-1.245461e-06	-1.210527e-10	-8.585906e+00	-9.655109e+00
2.590000e-06	-1.374876e-06	-5.071881e-10	-9.478060e+00	-3.526071e+01
2.600000e-06	-1.503927e-06	-9.075494e-10	-1.036771e+01	-6.149982e+01
2.610000e-06	-1.632540e-06	-1.320243e-09	-1.125434e+01	-8.823324e+01
2.620000e-06	-1.760569e-06	-1.741347e-09	-1.213694e+01	-1.152920e+02
2.630000e-06	-1.887839e-06	-2.165067e-09	-1.301431e+01	-1.424846e+02
2.640000e-06	-2.014209e-06	-2.583682e-09	-1.388547e+01	-1.696064e+02
2.650000e-06	-2.139795e-06	-2.993851e-09	-1.475123e+01	-1.964501e+02
2.660000e-06	-2.264651e-06	-3.396286e-09	-1.561195e+01	-2.228173e+02
2.670000e-06	-2.388679e-06	-3.788899e-09	-1.646697e+01	-2.485285e+02
2.680000e-06	-2.511705e-06	-4.168756e-09	-1.731509e+01	-2.734323e+02
2.690000e-06	-2.633670e-06	-4.533584e-09	-1.815589e+01	-2.974117e+02
2.700000e-06	-2.754751e-06	-4.882336e-09	-1.899058e+01	-3.203876e+02
2.710000e-06	-2.874843e-06	-5.215748e-09	-1.981847e+01	-3.423193e+02
2.720000e-06	-2.993748e-06	-5.532162e-09	-2.063818e+01	-3.632021e+02
2.730000e-06	-3.111437e-06	-5.834028e-09	-2.144949e+01	-3.830616e+02
2.740000e-06	-3.227978e-06	-6.123343e-09	-2.225290e+01	-4.019471e+02
2.750000e-06	-3.343279e-06	-6.400585e-09	-2.304775e+01	-4.199232e+02
2.760000e-06	-3.457154e-06	-6.665225e-09	-2.383278e+01	-4.370616e+02
2.770000e-06	-3.569635e-06	-6.917235e-09	-2.460820e+01	-4.534339e+02
2.780000e-06	-3.680761e-06	-7.157927e-09	-2.537427e+01	-4.691056e+02
2.790000e-06	-3.790571e-06	-7.385622e-09	-2.613128e+01	-4.841318e+02
2.800000e-06	-3.899115e-06	-7.602464e-09	-2.687956e+01	-4.985556e+02
2.810000e-06	-4.006415e-06	-7.811170e-09	-2.761925e+01	-5.124084e+02
2.820000e-06	-4.112454e-06	-8.014674e-09	-2.835026e+01	-5.257114e+02
2.830000e-06	-4.217050e-06	-8.213054e-09	-2.907132e+01	-5.384790e+02
2.840000e-06	-4.319959e-06	-8.403753e-09	-2.978075e+01	-5.507221e+02
2.850000e-06	-4.421219e-06	-8.584179e-09	-3.047882e+01	-5.624516e+02
2.860000e-06	-4.520937e-06	-8.756264e-09	-3.116625e+01	-5.736812e+02
2.870000e-06	-4.619120e-06	-8.921369e-09	-3.184310e+01	-5.844289e+02
2.880000e-06	-4.715730e-06	-9.077420e-09	-3.250910e+01	-5.947173e+02
2.890000e-06	-4.810576e-06	-9.225569e-09	-3.316294e+01	-6.045731e+02
2.900000e-06	-4.903648e-06	-9.367667e-09	-3.380456e+01	-6.140246e+02
2.910000e-06	-4.994987e-06	-9.504657e-09	-3.443423e+01	-6.230999e+02
2.920000e-06	-5.084599e-06	-9.637405e-09	-3.505199e+01	-6.318237e+02
2.930000e-06	-5.172355e-06	-9.765236e-09	-3.565697e+01	-6.402157e+02
2.940000e-06	-5.258118e-06	-9.888485e-09	-3.624819e+01	-6.482888e+02
