# Temperatura_=_67.08
# Concentracion g/m^3_=_15000.0
# C_Vs_to_Am_M_A/Vsm_=_65563218390.804596
# pendiente_HvsI_1/m_=_3716.3
# ordenada_HvsI_A/m_=_1297.0
# frecuencia_Hz_=_301963.78690897714

Tiempo_(s)	Campo_(V.s)	Magnetizacion_(V.s)	Campo_(kA/m)	Magnetizacion_(A/m)
0.000000e+00	-6.906305e-06	-1.163543e-08	-4.746911e+01	-7.619797e+02
1.000000e-08	-6.902239e-06	-1.163296e-08	-4.744116e+01	-7.616158e+02
2.000000e-08	-6.895988e-06	-1.162625e-08	-4.739820e+01	-7.610706e+02
3.000000e-08	-6.887555e-06	-1.162015e-08	-4.734024e+01	-7.603545e+02
4.000000e-08	-6.876725e-06	-1.160967e-08	-4.726580e+01	-7.594846e+02
5.000000e-08	-6.863324e-06	-1.159548e-08	-4.717369e+01	-7.584832e+02
6.000000e-08	-6.847448e-06	-1.157012e-08	-4.706457e+01	-7.573755e+02
7.000000e-08	-6.829320e-06	-1.154903e-08	-4.693997e+01	-7.561862e+02
8.000000e-08	-6.809008e-06	-1.159806e-08	-4.680036e+01	-7.549368e+02
9.000000e-08	-6.786129e-06	-1.160331e-08	-4.664311e+01	-7.536432e+02
1.000000e-07	-6.760380e-06	-1.152186e-08	-4.646612e+01	-7.523133e+02
1.100000e-07	-6.731984e-06	-1.148007e-08	-4.627095e+01	-7.509465e+02
1.200000e-07	-6.701391e-06	-1.146025e-08	-4.606067e+01	-7.495333e+02
1.300000e-07	-6.668758e-06	-1.135582e-08	-4.583638e+01	-7.480568e+02
1.400000e-07	-6.634202e-06	-1.134117e-08	-4.559886e+01	-7.464941e+02
1.500000e-07	-6.597701e-06	-1.146013e-08	-4.534799e+01	-7.448189e+02
1.600000e-07	-6.559075e-06	-1.128606e-08	-4.508249e+01	-7.430043e+02
1.700000e-07	-6.518322e-06	-1.129941e-08	-4.480238e+01	-7.410250e+02
1.800000e-07	-6.475107e-06	-1.135185e-08	-4.450536e+01	-7.388599e+02
1.900000e-07	-6.429385e-06	-1.119159e-08	-4.419110e+01	-7.364934e+02
2.000000e-07	-6.381365e-06	-1.124591e-08	-4.386104e+01	-7.339161e+02
2.100000e-07	-6.330696e-06	-1.116756e-08	-4.351277e+01	-7.311251e+02
2.200000e-07	-6.277346e-06	-1.106574e-08	-4.314609e+01	-7.281234e+02
2.300000e-07	-6.221579e-06	-1.103746e-08	-4.276278e+01	-7.249183e+02
2.400000e-07	-6.163400e-06	-1.097603e-08	-4.236290e+01	-7.215203e+02
2.500000e-07	-6.102948e-06	-1.096286e-08	-4.194740e+01	-7.179414e+02
2.600000e-07	-6.040325e-06	-1.091263e-08	-4.151697e+01	-7.141936e+02
2.700000e-07	-5.975446e-06	-1.083610e-08	-4.107104e+01	-7.102874e+02
2.800000e-07	-5.908315e-06	-1.074347e-08	-4.060962e+01	-7.062314e+02
2.900000e-07	-5.838969e-06	-1.070051e-08	-4.013299e+01	-7.020317e+02
3.000000e-07	-5.767478e-06	-1.067057e-08	-3.964161e+01	-6.976918e+02
3.100000e-07	-5.693802e-06	-1.056232e-08	-3.913522e+01	-6.932128e+02
3.200000e-07	-5.617809e-06	-1.051991e-08	-3.861289e+01	-6.885941e+02
3.300000e-07	-5.539498e-06	-1.043243e-08	-3.807463e+01	-6.838334e+02
3.400000e-07	-5.459008e-06	-1.033299e-08	-3.752140e+01	-6.789279e+02
3.500000e-07	-5.376576e-06	-1.027793e-08	-3.695482e+01	-6.738741e+02
3.600000e-07	-5.292362e-06	-1.020697e-08	-3.637600e+01	-6.686680e+02
3.700000e-07	-5.206434e-06	-1.012630e-08	-3.578539e+01	-6.633059e+02
3.800000e-07	-5.118675e-06	-1.001725e-08	-3.518219e+01	-6.577836e+02
3.900000e-07	-5.029022e-06	-9.942095e-09	-3.456598e+01	-6.520968e+02
4.000000e-07	-4.937567e-06	-9.862930e-09	-3.393738e+01	-6.462413e+02
4.100000e-07	-4.844463e-06	-9.779550e-09	-3.329745e+01	-6.402126e+02
4.200000e-07	-4.749809e-06	-9.671828e-09	-3.264686e+01	-6.340062e+02
4.300000e-07	-4.653362e-06	-9.561654e-09	-3.198396e+01	-6.276178e+02
4.400000e-07	-4.555115e-06	-9.470621e-09	-3.130867e+01	-6.210438e+02
4.500000e-07	-4.455246e-06	-9.367937e-09	-3.062225e+01	-6.142808e+02
4.600000e-07	-4.353872e-06	-9.273126e-09	-2.992547e+01	-6.073262e+02
4.700000e-07	-4.251072e-06	-9.167616e-09	-2.921890e+01	-6.001781e+02
4.800000e-07	-4.146690e-06	-9.044701e-09	-2.850145e+01	-5.928352e+02
4.900000e-07	-4.040769e-06	-8.914639e-09	-2.777342e+01	-5.852960e+02
5.000000e-07	-3.933374e-06	-8.801904e-09	-2.703527e+01	-5.775593e+02
5.100000e-07	-3.824516e-06	-8.691372e-09	-2.628705e+01	-5.696228e+02
5.200000e-07	-3.714362e-06	-8.568823e-09	-2.552993e+01	-5.614833e+02
5.300000e-07	-3.602886e-06	-8.437463e-09	-2.476372e+01	-5.531366e+02
5.400000e-07	-3.489950e-06	-8.302716e-09	-2.398747e+01	-5.445768e+02
5.500000e-07	-3.375483e-06	-8.171911e-09	-2.320071e+01	-5.357971e+02
5.600000e-07	-3.259511e-06	-8.035794e-09	-2.240360e+01	-5.267899e+02
5.700000e-07	-3.142242e-06	-7.895000e-09	-2.159758e+01	-5.175473e+02
5.800000e-07	-3.023894e-06	-7.743526e-09	-2.078413e+01	-5.080619e+02
5.900000e-07	-2.904530e-06	-7.590717e-09	-1.996371e+01	-4.983270e+02
6.000000e-07	-2.784027e-06	-7.440223e-09	-1.913545e+01	-4.883374e+02
6.100000e-07	-2.662381e-06	-7.292713e-09	-1.829935e+01	-4.780892e+02
6.200000e-07	-2.539687e-06	-7.135340e-09	-1.745603e+01	-4.675794e+02
6.300000e-07	-2.416055e-06	-6.964352e-09	-1.660627e+01	-4.568058e+02
6.400000e-07	-2.291558e-06	-6.790894e-09	-1.575057e+01	-4.457660e+02
6.500000e-07	-2.166299e-06	-6.618263e-09	-1.488962e+01	-4.344563e+02
6.600000e-07	-2.040446e-06	-6.446220e-09	-1.402460e+01	-4.228711e+02
6.700000e-07	-1.913959e-06	-6.268770e-09	-1.315522e+01	-4.110020e+02
6.800000e-07	-1.786780e-06	-6.083597e-09	-1.228108e+01	-3.988374e+02
6.900000e-07	-1.658896e-06	-5.886908e-09	-1.140209e+01	-3.863627e+02
7.000000e-07	-1.530339e-06	-5.686443e-09	-1.051848e+01	-3.735612e+02
7.100000e-07	-1.401251e-06	-5.486239e-09	-9.631219e+00	-3.604144e+02
7.200000e-07	-1.271724e-06	-5.281893e-09	-8.740943e+00	-3.469038e+02
7.300000e-07	-1.141797e-06	-5.069292e-09	-7.847913e+00	-3.330122e+02
7.400000e-07	-1.011462e-06	-4.850083e-09	-6.952082e+00	-3.187248e+02
7.500000e-07	-8.807463e-07	-4.628733e-09	-6.053635e+00	-3.040297e+02
7.600000e-07	-7.497110e-07	-4.403513e-09	-5.152989e+00	-2.889179e+02
7.700000e-07	-6.183897e-07	-4.169601e-09	-4.250378e+00	-2.733829e+02
7.800000e-07	-4.868748e-07	-3.926394e-09	-3.346437e+00	-2.574185e+02
7.900000e-07	-3.552373e-07	-3.677134e-09	-2.441653e+00	-2.410168e+02
8.000000e-07	-2.234571e-07	-3.417969e-09	-1.535888e+00	-2.241658e+02
8.100000e-07	-9.150960e-08	-3.153208e-09	-6.289730e-01	-2.068463e+02
8.200000e-07	4.052844e-08	-2.883696e-09	2.785642e-01	-1.890304e+02
8.300000e-07	1.726200e-07	-2.601095e-09	1.186469e+00	-1.706799e+02
8.400000e-07	3.046833e-07	-2.306059e-09	2.094180e+00	-1.517473e+02
8.500000e-07	4.366123e-07	-2.003396e-09	3.000967e+00	-1.321771e+02
8.600000e-07	5.683960e-07	-1.695095e-09	3.906757e+00	-1.119103e+02
8.700000e-07	7.000671e-07	-1.374950e-09	4.811772e+00	-9.088950e+01
8.800000e-07	8.315779e-07	-1.042550e-09	5.715685e+00	-6.906568e+01
8.900000e-07	9.628115e-07	-6.981242e-10	6.617693e+00	-4.640558e+01
9.000000e-07	1.093637e-06	-3.402131e-10	7.516895e+00	-2.289895e+01
9.100000e-07	1.223969e-06	3.101061e-11	8.412709e+00	1.435022e+00
9.200000e-07	1.353825e-06	4.148348e-10	9.305243e+00	2.654308e+01
9.300000e-07	1.483220e-06	8.069658e-10	1.019462e+01	5.233555e+01
9.400000e-07	1.612102e-06	1.207573e-09	1.108046e+01	7.868687e+01
9.500000e-07	1.740371e-06	1.614302e-09	1.196210e+01	1.054391e+02
9.600000e-07	1.867908e-06	2.025709e-09	1.283870e+01	1.324083e+02
9.700000e-07	1.994699e-06	2.438968e-09	1.371017e+01	1.593933e+02
9.800000e-07	2.120813e-06	2.849910e-09	1.457698e+01	1.861862e+02
9.900000e-07	2.246247e-06	3.253677e-09	1.543913e+01	2.125834e+02
1.000000e-06	2.370952e-06	3.644473e-09	1.629626e+01	2.383967e+02
1.010000e-06	2.494900e-06	4.022151e-09	1.714820e+01	2.634628e+02
1.020000e-06	2.617990e-06	4.386256e-09	1.799423e+01	2.876509e+02
1.030000e-06	2.739973e-06	4.738932e-09	1.883266e+01	3.108670e+02
1.040000e-06	2.860828e-06	5.076556e-09	1.966333e+01	3.330559e+02
1.050000e-06	2.980606e-06	5.397626e-09	2.048660e+01	3.541993e+02
1.060000e-06	3.099306e-06	5.703947e-09	2.130246e+01	3.743116e+02
1.070000e-06	3.216973e-06	5.998197e-09	2.211123e+01	3.934334e+02
1.080000e-06	3.333490e-06	6.278150e-09	2.291208e+01	4.116236e+02
1.090000e-06	3.448607e-06	6.542592e-09	2.370331e+01	4.289512e+02
1.100000e-06	3.562190e-06	6.793407e-09	2.448400e+01	4.454876e+02
1.110000e-06	3.674383e-06	7.031670e-09	2.525514e+01	4.613003e+02
1.120000e-06	3.785328e-06	7.259812e-09	2.601769e+01	4.764477e+02
1.130000e-06	3.895043e-06	7.478213e-09	2.677180e+01	4.909771e+02
1.140000e-06	4.003590e-06	7.690872e-09	2.751788e+01	5.049239e+02
1.150000e-06	4.110868e-06	7.898004e-09	2.825523e+01	5.183128e+02
1.160000e-06	4.216544e-06	8.094915e-09	2.898157e+01	5.311606e+02
1.170000e-06	4.320548e-06	8.280216e-09	2.969642e+01	5.434798e+02
1.180000e-06	4.423068e-06	8.457497e-09	3.040108e+01	5.552814e+02
1.190000e-06	4.524119e-06	8.626773e-09	3.109563e+01	5.665785e+02
1.200000e-06	4.623623e-06	8.787368e-09	3.177955e+01	5.773879e+02
1.210000e-06	4.721343e-06	8.940574e-09	3.245121e+01	5.877310e+02
1.220000e-06	4.817139e-06	9.088934e-09	3.310964e+01	5.976332e+02
1.230000e-06	4.911226e-06	9.234098e-09	3.375633e+01	6.071224e+02
1.240000e-06	5.003729e-06	9.376826e-09	3.439213e+01	6.162269e+02
1.250000e-06	5.094528e-06	9.516978e-09	3.501622e+01	6.249727e+02
1.260000e-06	5.183401e-06	9.650706e-09	3.562707e+01	6.333812e+02
1.270000e-06	5.270386e-06	9.775664e-09	3.622495e+01	6.414678e+02
1.280000e-06	5.355564e-06	9.894415e-09	3.681040e+01	6.492409e+02
1.290000e-06	5.438851e-06	1.001108e-08	3.738286e+01	6.567025e+02
1.300000e-06	5.520116e-06	1.012034e-08	3.794142e+01	6.638497e+02
1.310000e-06	5.599318e-06	1.021929e-08	3.848580e+01	6.706766e+02
1.320000e-06	5.676561e-06	1.031477e-08	3.901671e+01	6.771775e+02
1.330000e-06	5.751653e-06	1.040899e-08	3.953284e+01	6.833495e+02
1.340000e-06	5.824483e-06	1.049761e-08	4.003343e+01	6.891946e+02
1.350000e-06	5.895202e-06	1.057990e-08	4.051950e+01	6.947216e+02
1.360000e-06	5.963909e-06	1.065878e-08	4.099174e+01	6.999463e+02
1.370000e-06	6.030491e-06	1.073472e-08	4.144938e+01	7.048908e+02
1.380000e-06	6.094800e-06	1.080767e-08	4.189139e+01	7.095817e+02
1.390000e-06	6.156993e-06	1.087672e-08	4.231886e+01	7.140476e+02
1.400000e-06	6.217253e-06	1.094266e-08	4.273305e+01	7.183162e+02
1.410000e-06	6.275312e-06	1.100693e-08	4.313211e+01	7.224108e+02
1.420000e-06	6.331051e-06	1.106874e-08	4.351521e+01	7.263483e+02
1.430000e-06	6.384535e-06	1.112835e-08	4.388283e+01	7.301370e+02
1.440000e-06	6.435394e-06	1.118471e-08	4.423240e+01	7.337768e+02
1.450000e-06	6.483579e-06	1.123688e-08	4.456359e+01	7.372589e+02
1.460000e-06	6.529401e-06	1.128576e-08	4.487854e+01	7.405685e+02
1.470000e-06	6.573100e-06	1.133116e-08	4.517890e+01	7.436867e+02
1.480000e-06	6.614444e-06	1.137525e-08	4.546307e+01	7.465942e+02
1.490000e-06	6.653281e-06	1.141698e-08	4.573000e+01	7.492742e+02
1.500000e-06	6.689930e-06	1.145333e-08	4.598190e+01	7.517150e+02
1.510000e-06	6.724279e-06	1.148575e-08	4.621799e+01	7.539124e+02
1.520000e-06	6.756155e-06	1.151589e-08	4.643709e+01	7.558701e+02
1.530000e-06	6.785700e-06	1.154357e-08	4.664016e+01	7.575996e+02
1.540000e-06	6.812981e-06	1.156737e-08	4.682767e+01	7.591188e+02
1.550000e-06	6.837712e-06	1.158835e-08	4.699765e+01	7.604494e+02
1.560000e-06	6.859859e-06	1.160756e-08	4.714987e+01	7.616140e+02
1.570000e-06	6.879741e-06	1.162425e-08	4.728653e+01	7.626336e+02
1.580000e-06	6.897199e-06	1.163785e-08	4.740653e+01	7.635245e+02
1.590000e-06	6.912049e-06	1.164674e-08	4.750859e+01	7.642963e+02
1.600000e-06	6.924288e-06	1.165360e-08	4.759272e+01	7.649516e+02
1.610000e-06	6.933733e-06	1.166047e-08	4.765763e+01	7.654856e+02
1.620000e-06	6.940556e-06	1.166557e-08	4.770453e+01	7.658879e+02
1.630000e-06	6.945125e-06	1.166862e-08	4.773593e+01	7.661443e+02
1.640000e-06	6.947281e-06	1.167156e-08	4.775075e+01	7.662399e+02
1.650000e-06	6.946902e-06	1.167420e-08	4.774815e+01	7.661618e+02
1.660000e-06	6.944275e-06	1.166581e-08	4.773009e+01	7.659018e+02
1.670000e-06	6.939386e-06	1.165974e-08	4.769649e+01	7.654581e+02
1.680000e-06	6.932141e-06	1.164873e-08	4.764669e+01	7.648366e+02
1.690000e-06	6.922682e-06	1.163398e-08	4.758167e+01	7.640508e+02
1.700000e-06	6.910878e-06	1.162256e-08	4.750054e+01	7.631202e+02
1.710000e-06	6.896599e-06	1.161681e-08	4.740240e+01	7.620688e+02
1.720000e-06	6.880093e-06	1.161389e-08	4.728895e+01	7.609219e+02
1.730000e-06	6.861541e-06	1.151732e-08	4.716143e+01	7.597031e+02
1.740000e-06	6.840312e-06	1.146639e-08	4.701552e+01	7.584319e+02
1.750000e-06	6.815658e-06	1.151015e-08	4.684607e+01	7.571209e+02
1.760000e-06	6.787973e-06	1.148562e-08	4.665578e+01	7.557745e+02
1.770000e-06	6.757905e-06	1.147547e-08	4.644911e+01	7.543881e+02
1.780000e-06	6.725990e-06	1.156984e-08	4.622975e+01	7.529489e+02
1.790000e-06	6.692760e-06	1.142019e-08	4.600135e+01	7.514372e+02
1.800000e-06	6.657706e-06	1.137575e-08	4.576042e+01	7.498283e+02
1.810000e-06	6.620002e-06	1.149294e-08	4.550126e+01	7.480952e+02
1.820000e-06	6.580033e-06	1.131728e-08	4.522655e+01	7.462116e+02
1.830000e-06	6.537928e-06	1.139472e-08	4.493715e+01	7.441537e+02
1.840000e-06	6.493435e-06	1.133932e-08	4.463133e+01	7.419024e+02
1.850000e-06	6.446689e-06	1.119810e-08	4.431003e+01	7.394450e+02
1.860000e-06	6.397539e-06	1.131857e-08	4.397221e+01	7.367748e+02
1.870000e-06	6.346095e-06	1.118292e-08	4.361862e+01	7.338915e+02
1.880000e-06	6.292092e-06	1.120000e-08	4.324744e+01	7.308001e+02
1.890000e-06	6.235408e-06	1.114068e-08	4.285783e+01	7.275096e+02
1.900000e-06	6.176457e-06	1.098574e-08	4.245265e+01	7.240313e+02
1.910000e-06	6.115087e-06	1.101863e-08	4.203083e+01	7.203773e+02
1.920000e-06	6.051397e-06	1.089196e-08	4.159307e+01	7.165590e+02
1.930000e-06	5.985621e-06	1.092012e-08	4.114097e+01	7.125863e+02
1.940000e-06	5.917695e-06	1.083873e-08	4.067410e+01	7.084668e+02
1.950000e-06	5.847495e-06	1.074147e-08	4.019159e+01	7.042054e+02
1.960000e-06	5.774881e-06	1.070860e-08	3.969249e+01	6.998046e+02
1.970000e-06	5.700091e-06	1.055608e-08	3.917844e+01	6.952645e+02
1.980000e-06	5.623044e-06	1.057308e-08	3.864887e+01	6.905840e+02
1.990000e-06	5.543745e-06	1.047373e-08	3.810382e+01	6.857603e+02
2.000000e-06	5.462510e-06	1.039423e-08	3.754548e+01	6.807904e+02
2.010000e-06	5.379473e-06	1.032029e-08	3.697473e+01	6.756704e+02
2.020000e-06	5.294481e-06	1.021976e-08	3.639056e+01	6.703966e+02
2.030000e-06	5.207387e-06	1.016349e-08	3.579194e+01	6.649650e+02
2.040000e-06	5.118513e-06	1.005370e-08	3.518108e+01	6.593714e+02
2.050000e-06	5.028055e-06	9.988664e-09	3.455933e+01	6.536115e+02
2.060000e-06	4.935968e-06	9.871109e-09	3.392640e+01	6.476810e+02
2.070000e-06	4.842057e-06	9.787852e-09	3.328092e+01	6.415753e+02
2.080000e-06	4.746270e-06	9.694188e-09	3.262254e+01	6.352901e+02
2.090000e-06	4.648857e-06	9.608343e-09	3.195299e+01	6.288213e+02
2.100000e-06	4.550030e-06	9.511434e-09	3.127372e+01	6.221653e+02
2.110000e-06	4.449635e-06	9.381100e-09	3.058368e+01	6.153191e+02
2.120000e-06	4.347489e-06	9.277359e-09	2.988160e+01	6.082804e+02
2.130000e-06	4.243729e-06	9.169336e-09	2.916842e+01	6.010477e+02
2.140000e-06	4.138437e-06	9.075443e-09	2.844472e+01	5.936195e+02
2.150000e-06	4.031795e-06	8.954899e-09	2.771174e+01	5.859945e+02
2.160000e-06	3.923794e-06	8.835428e-09	2.696942e+01	5.781711e+02
2.170000e-06	3.814311e-06	8.701477e-09	2.621691e+01	5.701467e+02
2.180000e-06	3.703400e-06	8.575137e-09	2.545458e+01	5.619177e+02
2.190000e-06	3.591063e-06	8.450658e-09	2.468246e+01	5.534791e+02
2.200000e-06	3.477360e-06	8.327416e-09	2.390094e+01	5.448246e+02
2.210000e-06	3.362279e-06	8.193153e-09	2.310996e+01	5.359470e+02
2.220000e-06	3.245715e-06	8.043953e-09	2.230877e+01	5.268386e+02
2.230000e-06	3.127722e-06	7.899112e-09	2.149777e+01	5.174914e+02
2.240000e-06	3.008549e-06	7.753883e-09	2.067866e+01	5.078985e+02
2.250000e-06	2.888307e-06	7.613521e-09	1.985220e+01	4.980537e+02
2.260000e-06	2.766981e-06	7.457982e-09	1.901829e+01	4.879524e+02
2.270000e-06	2.644710e-06	7.300540e-09	1.817789e+01	4.775910e+02
2.280000e-06	2.521571e-06	7.138613e-09	1.733152e+01	4.669671e+02
2.290000e-06	2.397496e-06	6.975815e-09	1.647871e+01	4.560784e+02
2.300000e-06	2.272501e-06	6.807654e-09	1.561959e+01	4.449222e+02
2.310000e-06	2.146740e-06	6.635364e-09	1.475519e+01	4.334939e+02
2.320000e-06	2.020321e-06	6.451466e-09	1.388627e+01	4.217869e+02
2.330000e-06	1.893124e-06	6.260752e-09	1.301201e+01	4.097913e+02
2.340000e-06	1.765161e-06	6.075061e-09	1.213249e+01	3.974945e+02
2.350000e-06	1.636663e-06	5.890169e-09	1.124928e+01	3.848806e+02
2.360000e-06	1.507676e-06	5.697230e-09	1.036271e+01	3.719320e+02
2.370000e-06	1.378207e-06	5.490837e-09	9.472830e+00	3.586302e+02
2.380000e-06	1.248358e-06	5.280714e-09	8.580342e+00	3.449570e+02
2.390000e-06	1.118135e-06	5.065858e-09	7.685276e+00	3.308961e+02
2.400000e-06	9.876128e-07	4.845364e-09	6.788160e+00	3.164339e+02
2.410000e-06	8.568236e-07	4.620142e-09	5.889206e+00	3.015598e+02
2.420000e-06	7.257075e-07	4.386417e-09	4.988006e+00	2.862660e+02
2.430000e-06	5.943602e-07	4.144737e-09	4.085216e+00	2.705464e+02
2.440000e-06	4.628779e-07	3.896670e-09	3.181499e+00	2.543944e+02
2.450000e-06	3.312492e-07	3.644637e-09	2.276775e+00	2.378006e+02
2.460000e-06	1.994430e-07	3.385755e-09	1.370832e+00	2.207503e+02
2.470000e-06	6.751114e-08	3.116975e-09	4.640244e-01	2.032208e+02
2.480000e-06	-6.448329e-08	2.842083e-09	-4.432130e-01	1.851797e+02
2.490000e-06	-1.964751e-07	2.560429e-09	-1.350433e+00	1.665847e+02
2.500000e-06	-3.283286e-07	2.269041e-09	-2.256701e+00	1.473846e+02
2.510000e-06	-4.600534e-07	1.964916e-09	-3.162085e+00	1.275218e+02
2.520000e-06	-5.916745e-07	1.649528e-09	-4.066757e+00	1.069372e+02
2.530000e-06	-7.231429e-07	1.322387e-09	-4.970379e+00	8.557620e+01
2.540000e-06	-8.543719e-07	9.841412e-10	-5.872355e+00	6.339552e+01
2.550000e-06	-9.852970e-07	6.359524e-10	-6.772242e+00	4.037096e+01
2.560000e-06	-1.115899e-06	2.759810e-10	-7.669907e+00	1.650416e+01
2.570000e-06	-1.246109e-06	-9.448588e-11	-8.564884e+00	-8.171521e+00
2.580000e-06	-1.375900e-06	-4.780398e-10	-9.456977e+00	-3.358735e+01
2.590000e-06	-1.505240e-06	-8.760083e-10	-1.034597e+01	-5.963805e+01
2.600000e-06	-1.634114e-06	-1.284186e-09	-1.123176e+01	-8.618356e+01
2.610000e-06	-1.762486e-06	-1.699588e-09	-1.211410e+01	-1.130539e+02
2.620000e-06	-1.890232e-06	-2.118501e-09	-1.299214e+01	-1.400565e+02
2.630000e-06	-2.017218e-06	-2.535140e-09	-1.386494e+01	-1.669859e+02
2.640000e-06	-2.143385e-06	-2.945611e-09	-1.473213e+01	-1.936348e+02
2.650000e-06	-2.268669e-06	-3.346790e-09	-1.559324e+01	-2.198049e+02
2.660000e-06	-2.393026e-06	-3.735323e-09	-1.644799e+01	-2.453176e+02
2.670000e-06	-2.516443e-06	-4.110696e-09	-1.729627e+01	-2.700227e+02
2.680000e-06	-2.638863e-06	-4.471108e-09	-1.813770e+01	-2.938048e+02
2.690000e-06	-2.760305e-06	-4.817123e-09	-1.897241e+01	-3.165865e+02
2.700000e-06	-2.880802e-06	-5.149361e-09	-1.980062e+01	-3.383289e+02
2.710000e-06	-3.000264e-06	-5.464336e-09	-2.062172e+01	-3.590283e+02
2.720000e-06	-3.118561e-06	-5.762665e-09	-2.143481e+01	-3.787112e+02
2.730000e-06	-3.235565e-06	-6.049054e-09	-2.223901e+01	-3.974271e+02
2.740000e-06	-3.351187e-06	-6.325188e-09	-2.303371e+01	-4.152402e+02
2.750000e-06	-3.465567e-06	-6.589435e-09	-2.381988e+01	-4.322214e+02
2.760000e-06	-3.578609e-06	-6.838918e-09	-2.459686e+01	-4.484412e+02
2.770000e-06	-3.690129e-06	-7.074725e-09	-2.536337e+01	-4.639635e+02
2.780000e-06	-3.800184e-06	-7.299920e-09	-2.611981e+01	-4.788424e+02
2.790000e-06	-3.908948e-06	-7.515843e-09	-2.686737e+01	-4.931198e+02
2.800000e-06	-4.016555e-06	-7.723213e-09	-2.760699e+01	-5.068263e+02
2.810000e-06	-4.122845e-06	-7.924905e-09	-2.833755e+01	-5.199829e+02
2.820000e-06	-4.227728e-06	-8.122491e-09	-2.905844e+01	-5.326041e+02
2.830000e-06	-4.331013e-06	-8.311443e-09	-2.976835e+01	-5.447014e+02
2.840000e-06	-4.432569e-06	-8.489837e-09	-3.046638e+01	-5.562863e+02
2.850000e-06	-4.532572e-06	-8.660321e-09	-3.115373e+01	-5.673735e+02
2.860000e-06	-4.631038e-06	-8.823316e-09	-3.183052e+01	-5.779815e+02
2.870000e-06	-4.727943e-06	-8.976626e-09	-3.249657e+01	-5.881337e+02
2.880000e-06	-4.823277e-06	-9.122327e-09	-3.315183e+01	-5.978567e+02
2.890000e-06	-4.916771e-06	-9.262193e-09	-3.379444e+01	-6.071790e+02
2.900000e-06	-5.008461e-06	-9.397562e-09	-3.442466e+01	-6.161281e+02
2.910000e-06	-5.098465e-06	-9.529282e-09	-3.504329e+01	-6.247284e+02
2.920000e-06	-5.186617e-06	-9.656646e-09	-3.564918e+01	-6.329988e+02
2.930000e-06	-5.272679e-06	-9.780020e-09	-3.624071e+01	-6.409517e+02
2.940000e-06	-5.356738e-06	-9.897100e-09	-3.681847e+01	-6.485928e+02
