# Temperatura_=_68.35
# Concentracion g/m^3_=_15000.0
# C_Vs_to_Am_M_A/Vsm_=_65563218390.804596
# pendiente_HvsI_1/m_=_3716.3
# ordenada_HvsI_A/m_=_1297.0
# frecuencia_Hz_=_301576.0501375768

Tiempo_(s)	Campo_(V.s)	Magnetizacion_(V.s)	Campo_(kA/m)	Magnetizacion_(A/m)
0.000000e+00	-5.381427e-06	-5.816663e-09	-3.834849e+01	-3.796566e+02
1.000000e-08	-5.378542e-06	-5.817018e-09	-3.832792e+01	-3.795047e+02
2.000000e-08	-5.373908e-06	-5.810698e-09	-3.829490e+01	-3.792748e+02
3.000000e-08	-5.367676e-06	-5.804341e-09	-3.825050e+01	-3.789647e+02
4.000000e-08	-5.359880e-06	-5.796114e-09	-3.819494e+01	-3.785721e+02
5.000000e-08	-5.350209e-06	-5.785386e-09	-3.812602e+01	-3.780944e+02
6.000000e-08	-5.338444e-06	-5.774775e-09	-3.804219e+01	-3.775301e+02
7.000000e-08	-5.324813e-06	-5.753994e-09	-3.794505e+01	-3.768782e+02
8.000000e-08	-5.309119e-06	-5.746175e-09	-3.783321e+01	-3.761396e+02
9.000000e-08	-5.291169e-06	-5.806644e-09	-3.770530e+01	-3.753162e+02
1.000000e-07	-5.271144e-06	-5.804302e-09	-3.756260e+01	-3.744116e+02
1.100000e-07	-5.249222e-06	-5.748801e-09	-3.740638e+01	-3.734299e+02
1.200000e-07	-5.225668e-06	-5.729579e-09	-3.723854e+01	-3.723759e+02
1.300000e-07	-5.200543e-06	-5.596681e-09	-3.705950e+01	-3.712537e+02
1.400000e-07	-5.173795e-06	-5.593975e-09	-3.686888e+01	-3.700667e+02
1.500000e-07	-5.145488e-06	-5.761700e-09	-3.666717e+01	-3.688166e+02
1.600000e-07	-5.115689e-06	-5.599147e-09	-3.645481e+01	-3.675031e+02
1.700000e-07	-5.084333e-06	-5.597917e-09	-3.623137e+01	-3.661238e+02
1.800000e-07	-5.050868e-06	-5.666531e-09	-3.599290e+01	-3.646744e+02
1.900000e-07	-5.015529e-06	-5.442017e-09	-3.574107e+01	-3.631487e+02
2.000000e-07	-4.978758e-06	-5.535137e-09	-3.547903e+01	-3.615397e+02
2.100000e-07	-4.940258e-06	-5.595357e-09	-3.520468e+01	-3.598399e+02
2.200000e-07	-4.899940e-06	-5.441052e-09	-3.491737e+01	-3.580424e+02
2.300000e-07	-4.857598e-06	-5.465365e-09	-3.461564e+01	-3.561416e+02
2.400000e-07	-4.813307e-06	-5.424511e-09	-3.430002e+01	-3.541339e+02
2.500000e-07	-4.767257e-06	-5.350368e-09	-3.397186e+01	-3.520177e+02
2.600000e-07	-4.719285e-06	-5.363366e-09	-3.363001e+01	-3.497938e+02
2.700000e-07	-4.669215e-06	-5.296093e-09	-3.327321e+01	-3.474654e+02
2.800000e-07	-4.617079e-06	-5.273850e-09	-3.290168e+01	-3.450372e+02
2.900000e-07	-4.563128e-06	-5.237760e-09	-3.251722e+01	-3.425150e+02
3.000000e-07	-4.507644e-06	-5.192370e-09	-3.212184e+01	-3.399049e+02
3.100000e-07	-4.450473e-06	-5.166263e-09	-3.171443e+01	-3.372125e+02
3.200000e-07	-4.391503e-06	-5.125686e-09	-3.129421e+01	-3.344426e+02
3.300000e-07	-4.330996e-06	-5.068770e-09	-3.086303e+01	-3.315983e+02
3.400000e-07	-4.269003e-06	-4.972312e-09	-3.042126e+01	-3.286807e+02
3.500000e-07	-4.205666e-06	-4.965087e-09	-2.996992e+01	-3.256896e+02
3.600000e-07	-4.140795e-06	-4.953136e-09	-2.950764e+01	-3.226232e+02
3.700000e-07	-4.074184e-06	-4.890789e-09	-2.903297e+01	-3.194788e+02
3.800000e-07	-4.006064e-06	-4.847473e-09	-2.854754e+01	-3.162532e+02
3.900000e-07	-3.936596e-06	-4.774179e-09	-2.805250e+01	-3.129437e+02
4.000000e-07	-3.865914e-06	-4.712119e-09	-2.754882e+01	-3.095482e+02
4.100000e-07	-3.794011e-06	-4.659616e-09	-2.703643e+01	-3.060659e+02
4.200000e-07	-3.720561e-06	-4.618163e-09	-2.651302e+01	-3.024973e+02
4.300000e-07	-3.645484e-06	-4.576992e-09	-2.597801e+01	-2.988441e+02
4.400000e-07	-3.568967e-06	-4.508551e-09	-2.543275e+01	-2.951090e+02
4.500000e-07	-3.491032e-06	-4.439528e-09	-2.487738e+01	-2.912951e+02
4.600000e-07	-3.411678e-06	-4.379124e-09	-2.431190e+01	-2.874052e+02
4.700000e-07	-3.331054e-06	-4.330178e-09	-2.373736e+01	-2.834418e+02
4.800000e-07	-3.249261e-06	-4.268467e-09	-2.315450e+01	-2.794058e+02
4.900000e-07	-3.166376e-06	-4.199439e-09	-2.256386e+01	-2.752967e+02
5.000000e-07	-3.082497e-06	-4.140809e-09	-2.196612e+01	-2.711122e+02
5.100000e-07	-2.997739e-06	-4.075841e-09	-2.136213e+01	-2.668484e+02
5.200000e-07	-2.912041e-06	-4.008581e-09	-2.075144e+01	-2.625003e+02
5.300000e-07	-2.825319e-06	-3.935235e-09	-2.013345e+01	-2.580621e+02
5.400000e-07	-2.737680e-06	-3.857058e-09	-1.950893e+01	-2.535278e+02
5.500000e-07	-2.648954e-06	-3.781660e-09	-1.887666e+01	-2.488923e+02
5.600000e-07	-2.559001e-06	-3.710189e-09	-1.823565e+01	-2.441512e+02
5.700000e-07	-2.468051e-06	-3.648692e-09	-1.758753e+01	-2.393022e+02
5.800000e-07	-2.376301e-06	-3.577628e-09	-1.693371e+01	-2.343444e+02
5.900000e-07	-2.283737e-06	-3.494503e-09	-1.627409e+01	-2.292786e+02
6.000000e-07	-2.190327e-06	-3.405723e-09	-1.560845e+01	-2.241074e+02
6.100000e-07	-2.096118e-06	-3.321073e-09	-1.493711e+01	-2.188341e+02
6.200000e-07	-2.001290e-06	-3.241624e-09	-1.426135e+01	-2.134623e+02
6.300000e-07	-1.905812e-06	-3.161361e-09	-1.358097e+01	-2.079953e+02
6.400000e-07	-1.809532e-06	-3.079228e-09	-1.289487e+01	-2.024356e+02
6.500000e-07	-1.712453e-06	-2.991204e-09	-1.220308e+01	-1.967843e+02
6.600000e-07	-1.614599e-06	-2.900775e-09	-1.150576e+01	-1.910406e+02
6.700000e-07	-1.516088e-06	-2.808708e-09	-1.080377e+01	-1.852021e+02
6.800000e-07	-1.417105e-06	-2.720377e-09	-1.009840e+01	-1.792650e+02
6.900000e-07	-1.317704e-06	-2.628880e-09	-9.390069e+00	-1.732241e+02
7.000000e-07	-1.217858e-06	-2.533230e-09	-8.678556e+00	-1.670738e+02
7.100000e-07	-1.117655e-06	-2.437605e-09	-7.964504e+00	-1.608082e+02
7.200000e-07	-1.017178e-06	-2.340227e-09	-7.248491e+00	-1.544220e+02
7.300000e-07	-9.163819e-07	-2.241118e-09	-6.530212e+00	-1.479107e+02
7.400000e-07	-8.152331e-07	-2.139399e-09	-5.809418e+00	-1.412708e+02
7.500000e-07	-7.137239e-07	-2.035598e-09	-5.086055e+00	-1.345001e+02
7.600000e-07	-6.119437e-07	-1.929031e-09	-4.360760e+00	-1.275969e+02
7.700000e-07	-5.100004e-07	-1.820947e-09	-3.634304e+00	-1.205601e+02
7.800000e-07	-4.079557e-07	-1.713976e-09	-2.907126e+00	-1.133884e+02
7.900000e-07	-3.057914e-07	-1.606732e-09	-2.179094e+00	-1.060795e+02
8.000000e-07	-2.034369e-07	-1.492137e-09	-1.449708e+00	-9.862993e+01
8.100000e-07	-1.009788e-07	-1.374914e-09	-7.195833e-01	-9.103405e+01
8.200000e-07	1.468812e-09	-1.259676e-09	1.046687e-02	-8.328418e+01
8.300000e-07	1.039184e-07	-1.140636e-09	7.405311e-01	-7.537042e+01
8.400000e-07	2.063734e-07	-1.018092e-09	1.470633e+00	-6.728099e+01
8.500000e-07	3.087891e-07	-8.931297e-10	2.200456e+00	-5.900278e+01
8.600000e-07	4.111518e-07	-7.639791e-10	2.929901e+00	-5.052215e+01
8.700000e-07	5.134240e-07	-6.271867e-10	3.658701e+00	-4.182594e+01
8.800000e-07	6.155493e-07	-4.893228e-10	4.386454e+00	-3.290253e+01
8.900000e-07	7.174298e-07	-3.515736e-10	5.112463e+00	-2.374295e+01
9.000000e-07	8.189673e-07	-2.101054e-10	5.836028e+00	-1.434185e+01
9.100000e-07	9.201989e-07	-6.413545e-11	6.557412e+00	-4.698385e+00
9.200000e-07	1.021133e-06	8.670944e-11	7.276678e+00	5.183195e+00
9.300000e-07	1.121728e-06	2.409280e-10	7.993526e+00	1.529316e+01
9.400000e-07	1.221984e-06	4.012192e-10	8.707955e+00	2.561618e+01
9.500000e-07	1.321893e-06	5.648377e-10	9.419915e+00	3.613149e+01
9.600000e-07	1.421343e-06	7.300546e-10	1.012861e+01	4.681328e+01
9.700000e-07	1.520222e-06	8.967794e-10	1.083322e+01	5.763120e+01
9.800000e-07	1.618441e-06	1.064478e-09	1.153314e+01	6.855113e+01
9.900000e-07	1.715962e-06	1.232873e-09	1.222809e+01	7.953593e+01
1.000000e-06	1.812784e-06	1.401034e-09	1.291804e+01	9.054634e+01
1.010000e-06	1.908819e-06	1.568328e-09	1.360240e+01	1.015418e+02
1.020000e-06	2.004056e-06	1.736164e-09	1.428107e+01	1.124815e+02
1.030000e-06	2.098582e-06	1.904364e-09	1.495467e+01	1.233249e+02
1.040000e-06	2.192349e-06	2.070740e-09	1.562286e+01	1.340331e+02
1.050000e-06	2.285347e-06	2.234334e-09	1.628557e+01	1.445689e+02
1.060000e-06	2.377661e-06	2.392792e-09	1.694340e+01	1.548983e+02
1.070000e-06	2.469266e-06	2.545151e-09	1.759619e+01	1.649905e+02
1.080000e-06	2.560046e-06	2.694622e-09	1.824310e+01	1.748187e+02
1.090000e-06	2.649781e-06	2.842092e-09	1.888256e+01	1.843606e+02
1.100000e-06	2.738432e-06	2.984473e-09	1.951429e+01	1.935987e+02
1.110000e-06	2.826052e-06	3.118863e-09	2.013868e+01	2.025200e+02
1.120000e-06	2.912745e-06	3.248063e-09	2.075646e+01	2.111166e+02
1.130000e-06	2.998528e-06	3.374865e-09	2.136775e+01	2.193850e+02
1.140000e-06	3.083346e-06	3.498685e-09	2.197218e+01	2.273262e+02
1.150000e-06	3.167200e-06	3.614995e-09	2.256973e+01	2.349447e+02
1.160000e-06	3.250034e-06	3.723378e-09	2.316001e+01	2.422485e+02
1.170000e-06	3.331712e-06	3.827027e-09	2.374205e+01	2.492481e+02
1.180000e-06	3.412064e-06	3.926228e-09	2.431465e+01	2.559558e+02
1.190000e-06	3.491166e-06	4.022593e-09	2.487834e+01	2.623853e+02
1.200000e-06	3.569090e-06	4.116153e-09	2.543363e+01	2.685512e+02
1.210000e-06	3.645783e-06	4.207450e-09	2.598015e+01	2.744680e+02
1.220000e-06	3.721120e-06	4.295644e-09	2.651701e+01	2.801499e+02
1.230000e-06	3.794860e-06	4.380194e-09	2.704248e+01	2.856109e+02
1.240000e-06	3.866997e-06	4.460785e-09	2.755654e+01	2.908636e+02
1.250000e-06	3.937769e-06	4.537373e-09	2.806086e+01	2.959199e+02
1.260000e-06	4.007184e-06	4.610734e-09	2.855552e+01	3.007901e+02
1.270000e-06	4.075172e-06	4.682294e-09	2.904001e+01	3.054834e+02
1.280000e-06	4.141696e-06	4.751062e-09	2.951406e+01	3.100073e+02
1.290000e-06	4.206577e-06	4.816122e-09	2.997641e+01	3.143680e+02
1.300000e-06	4.269875e-06	4.878239e-09	3.042747e+01	3.185699e+02
1.310000e-06	4.331752e-06	4.938281e-09	3.086842e+01	3.226162e+02
1.320000e-06	4.392255e-06	4.996447e-09	3.129956e+01	3.265086e+02
1.330000e-06	4.451390e-06	5.051904e-09	3.172096e+01	3.302476e+02
1.340000e-06	4.508825e-06	5.106028e-09	3.213026e+01	3.338329e+02
1.350000e-06	4.564449e-06	5.158181e-09	3.252663e+01	3.372633e+02
1.360000e-06	4.618479e-06	5.206074e-09	3.291166e+01	3.405379e+02
1.370000e-06	4.670830e-06	5.248958e-09	3.328472e+01	3.436557e+02
1.380000e-06	4.721212e-06	5.289047e-09	3.364374e+01	3.466165e+02
1.390000e-06	4.769545e-06	5.328459e-09	3.398816e+01	3.494210e+02
1.400000e-06	4.816102e-06	5.366723e-09	3.431994e+01	3.520714e+02
1.410000e-06	4.861079e-06	5.403392e-09	3.464044e+01	3.545711e+02
1.420000e-06	4.904469e-06	5.436810e-09	3.494964e+01	3.569252e+02
1.430000e-06	4.945982e-06	5.468174e-09	3.524547e+01	3.591396e+02
1.440000e-06	4.985632e-06	5.497342e-09	3.552802e+01	3.612215e+02
1.450000e-06	5.023675e-06	5.524073e-09	3.579912e+01	3.631781e+02
1.460000e-06	5.060130e-06	5.549426e-09	3.605890e+01	3.650169e+02
1.470000e-06	5.094904e-06	5.575051e-09	3.630670e+01	3.667444e+02
1.480000e-06	5.127710e-06	5.599658e-09	3.654048e+01	3.683662e+02
1.490000e-06	5.158637e-06	5.620855e-09	3.676087e+01	3.698865e+02
1.500000e-06	5.187883e-06	5.639396e-09	3.696928e+01	3.713077e+02
1.510000e-06	5.215490e-06	5.656380e-09	3.716601e+01	3.726310e+02
1.520000e-06	5.241073e-06	5.672475e-09	3.734831e+01	3.738560e+02
1.530000e-06	5.264504e-06	5.687645e-09	3.751528e+01	3.749813e+02
1.540000e-06	5.286150e-06	5.702854e-09	3.766953e+01	3.760053e+02
1.550000e-06	5.306117e-06	5.717587e-09	3.781182e+01	3.769263e+02
1.560000e-06	5.324239e-06	5.731034e-09	3.794096e+01	3.777430e+02
1.570000e-06	5.340335e-06	5.742762e-09	3.805566e+01	3.784555e+02
1.580000e-06	5.354485e-06	5.751998e-09	3.815650e+01	3.790647e+02
1.590000e-06	5.366656e-06	5.758692e-09	3.824323e+01	3.795730e+02
1.600000e-06	5.376616e-06	5.764473e-09	3.831420e+01	3.799838e+02
1.610000e-06	5.384422e-06	5.769114e-09	3.836983e+01	3.803013e+02
1.620000e-06	5.390365e-06	5.774065e-09	3.841218e+01	3.805300e+02
1.630000e-06	5.394554e-06	5.780056e-09	3.844203e+01	3.806744e+02
1.640000e-06	5.396832e-06	5.783929e-09	3.845826e+01	3.807379e+02
1.650000e-06	5.397076e-06	5.787101e-09	3.846000e+01	3.807233e+02
1.660000e-06	5.395512e-06	5.784059e-09	3.844885e+01	3.806316e+02
1.670000e-06	5.392310e-06	5.776670e-09	3.842604e+01	3.804629e+02
1.680000e-06	5.387460e-06	5.773954e-09	3.839148e+01	3.802157e+02
1.690000e-06	5.380694e-06	5.769319e-09	3.834327e+01	3.798879e+02
1.700000e-06	5.372089e-06	5.763975e-09	3.828194e+01	3.794770e+02
1.710000e-06	5.361962e-06	5.760110e-09	3.820978e+01	3.789807e+02
1.720000e-06	5.350163e-06	5.761436e-09	3.812570e+01	3.783974e+02
1.730000e-06	5.336423e-06	5.775234e-09	3.802779e+01	3.777266e+02
1.740000e-06	5.320609e-06	5.683358e-09	3.791509e+01	3.769693e+02
1.750000e-06	5.302398e-06	5.644112e-09	3.778532e+01	3.761280e+02
1.760000e-06	5.281451e-06	5.670409e-09	3.763605e+01	3.752062e+02
1.770000e-06	5.258184e-06	5.654442e-09	3.747024e+01	3.742084e+02
1.780000e-06	5.233681e-06	5.796347e-09	3.729564e+01	3.731392e+02
1.790000e-06	5.208538e-06	5.697743e-09	3.711647e+01	3.720027e+02
1.800000e-06	5.181939e-06	5.500366e-09	3.692692e+01	3.708018e+02
1.810000e-06	5.153087e-06	5.682771e-09	3.672131e+01	3.695380e+02
1.820000e-06	5.122494e-06	5.565076e-09	3.650331e+01	3.682105e+02
1.830000e-06	5.090238e-06	5.503403e-09	3.627345e+01	3.668164e+02
1.840000e-06	5.055957e-06	5.722926e-09	3.602916e+01	3.653509e+02
1.850000e-06	5.020109e-06	5.495036e-09	3.577371e+01	3.638078e+02
1.860000e-06	4.982477e-06	5.461599e-09	3.550554e+01	3.621797e+02
1.870000e-06	4.942892e-06	5.565595e-09	3.522345e+01	3.604592e+02
1.880000e-06	4.901690e-06	5.370082e-09	3.492984e+01	3.586398e+02
1.890000e-06	4.858641e-06	5.475510e-09	3.462307e+01	3.567161e+02
1.900000e-06	4.813953e-06	5.433472e-09	3.430462e+01	3.546849e+02
1.910000e-06	4.767461e-06	5.327685e-09	3.397331e+01	3.525452e+02
1.920000e-06	4.718896e-06	5.420620e-09	3.362723e+01	3.502985e+02
1.930000e-06	4.668752e-06	5.222322e-09	3.326991e+01	3.479480e+02
1.940000e-06	4.616890e-06	5.264143e-09	3.290033e+01	3.454989e+02
1.950000e-06	4.562980e-06	5.281336e-09	3.251617e+01	3.429571e+02
1.960000e-06	4.507155e-06	5.141115e-09	3.211835e+01	3.403286e+02
1.970000e-06	4.449604e-06	5.149865e-09	3.170824e+01	3.376191e+02
1.980000e-06	4.390613e-06	5.077946e-09	3.128786e+01	3.348328e+02
1.990000e-06	4.330161e-06	5.118633e-09	3.085708e+01	3.319725e+02
2.000000e-06	4.268003e-06	5.017641e-09	3.041414e+01	3.290390e+02
2.010000e-06	4.204203e-06	4.919705e-09	2.995949e+01	3.260318e+02
2.020000e-06	4.138902e-06	4.955722e-09	2.949415e+01	3.229487e+02
2.030000e-06	4.072183e-06	4.828251e-09	2.901871e+01	3.197868e+02
2.040000e-06	4.004141e-06	4.831125e-09	2.853384e+01	3.165432e+02
2.050000e-06	3.934648e-06	4.795957e-09	2.803862e+01	3.132152e+02
2.060000e-06	3.863552e-06	4.747263e-09	2.753199e+01	3.098009e+02
2.070000e-06	3.791008e-06	4.686788e-09	2.701503e+01	3.062998e+02
2.080000e-06	3.717202e-06	4.557450e-09	2.648909e+01	3.027127e+02
2.090000e-06	3.642040e-06	4.561295e-09	2.595347e+01	2.990414e+02
2.100000e-06	3.565436e-06	4.505027e-09	2.540758e+01	2.952889e+02
2.110000e-06	3.487254e-06	4.450183e-09	2.485045e+01	2.914582e+02
2.120000e-06	3.407704e-06	4.383181e-09	2.428357e+01	2.875522e+02
2.130000e-06	3.327055e-06	4.318572e-09	2.370886e+01	2.835730e+02
2.140000e-06	3.245267e-06	4.269420e-09	2.312604e+01	2.795212e+02
2.150000e-06	3.162416e-06	4.181189e-09	2.253563e+01	2.753959e+02
2.160000e-06	3.078587e-06	4.137454e-09	2.193826e+01	2.711946e+02
2.170000e-06	2.993724e-06	4.066324e-09	2.133352e+01	2.669130e+02
2.180000e-06	2.907501e-06	4.002620e-09	2.071909e+01	2.625458e+02
2.190000e-06	2.820006e-06	3.931657e-09	2.009559e+01	2.580872e+02
2.200000e-06	2.731556e-06	3.869167e-09	1.946529e+01	2.535315e+02
2.210000e-06	2.642190e-06	3.811290e-09	1.882846e+01	2.488734e+02
2.220000e-06	2.551880e-06	3.720778e-09	1.818491e+01	2.441091e+02
2.230000e-06	2.460675e-06	3.640789e-09	1.753497e+01	2.392365e+02
2.240000e-06	2.368772e-06	3.560995e-09	1.688006e+01	2.342552e+02
2.250000e-06	2.276120e-06	3.498043e-09	1.621982e+01	2.291664e+02
2.260000e-06	2.182567e-06	3.426388e-09	1.555315e+01	2.239728e+02
2.270000e-06	2.088006e-06	3.344972e-09	1.487930e+01	2.186778e+02
2.280000e-06	1.992458e-06	3.255714e-09	1.419842e+01	2.132851e+02
2.290000e-06	1.896134e-06	3.165769e-09	1.351200e+01	2.077978e+02
2.300000e-06	1.799248e-06	3.085266e-09	1.282158e+01	2.022183e+02
2.310000e-06	1.701971e-06	3.008910e-09	1.212838e+01	1.965470e+02
2.320000e-06	1.604188e-06	2.928347e-09	1.143158e+01	1.907830e+02
2.330000e-06	1.505805e-06	2.831347e-09	1.073049e+01	1.849236e+02
2.340000e-06	1.406867e-06	2.735338e-09	1.002545e+01	1.789644e+02
2.350000e-06	1.307457e-06	2.639407e-09	9.317046e+00	1.729004e+02
2.360000e-06	1.207765e-06	2.548223e-09	8.606633e+00	1.667256e+02
2.370000e-06	1.107885e-06	2.458295e-09	7.894880e+00	1.604343e+02
2.380000e-06	1.007708e-06	2.361131e-09	7.181012e+00	1.540214e+02
2.390000e-06	9.070944e-07	2.260884e-09	6.464028e+00	1.474826e+02
2.400000e-06	8.060557e-07	2.159783e-09	5.744018e+00	1.408146e+02
2.410000e-06	7.047079e-07	2.057924e-09	5.021806e+00	1.340153e+02
2.420000e-06	6.031277e-07	1.952886e-09	4.297937e+00	1.270834e+02
2.430000e-06	5.013226e-07	1.841727e-09	3.572466e+00	1.200176e+02
2.440000e-06	3.993220e-07	1.730186e-09	2.845601e+00	1.128165e+02
2.450000e-06	2.971897e-07	1.621800e-09	2.117798e+00	1.054776e+02
2.460000e-06	1.948850e-07	1.509856e-09	1.388766e+00	9.799693e+01
2.470000e-06	9.240449e-08	1.395436e-09	6.584819e-01	9.036854e+01
2.480000e-06	-1.023761e-08	1.273341e-09	-7.295402e-02	8.258422e+01
2.490000e-06	-1.128777e-07	1.144211e-09	-8.043758e-01	7.463363e+01
2.500000e-06	-2.154200e-07	1.016839e-09	-1.535101e+00	6.650464e+01
2.510000e-06	-3.178642e-07	8.942443e-10	-2.265126e+00	5.818397e+01
2.520000e-06	-4.201897e-07	7.716488e-10	-2.994306e+00	4.965798e+01
2.530000e-06	-5.223863e-07	6.393349e-10	-3.722567e+00	4.091375e+01
2.540000e-06	-6.242775e-07	4.999709e-10	-4.448652e+00	3.194014e+01
2.550000e-06	-7.258959e-07	3.590029e-10	-5.172793e+00	2.272888e+01
2.560000e-06	-8.272476e-07	2.157203e-10	-5.895034e+00	1.327552e+01
2.570000e-06	-9.282198e-07	6.733669e-11	-6.614570e+00	3.580250e+00
2.580000e-06	-1.028792e-06	-8.409152e-11	-7.331253e+00	-6.351515e+00
2.590000e-06	-1.128962e-06	-2.376290e-10	-8.045077e+00	-1.650885e+01
2.600000e-06	-1.228721e-06	-3.959094e-10	-8.755966e+00	-2.687524e+01
2.610000e-06	-1.328082e-06	-5.552821e-10	-9.464022e+00	-3.742880e+01
2.620000e-06	-1.427002e-06	-7.160138e-10	-1.016894e+01	-4.814269e+01
2.630000e-06	-1.525419e-06	-8.791304e-10	-1.087026e+01	-5.898570e+01
2.640000e-06	-1.623289e-06	-1.045799e-09	-1.156769e+01	-6.992297e+01
2.650000e-06	-1.720594e-06	-1.214732e-09	-1.226110e+01	-8.091686e+01
2.660000e-06	-1.817372e-06	-1.381651e-09	-1.295074e+01	-9.192774e+01
2.670000e-06	-1.913650e-06	-1.548259e-09	-1.363683e+01	-1.029149e+02
2.680000e-06	-2.009345e-06	-1.713360e-09	-1.431876e+01	-1.138376e+02
2.690000e-06	-2.104222e-06	-1.875852e-09	-1.499486e+01	-1.246555e+02
2.700000e-06	-2.198075e-06	-2.036888e-09	-1.566366e+01	-1.353300e+02
2.710000e-06	-2.290945e-06	-2.197847e-09	-1.632546e+01	-1.458246e+02
2.720000e-06	-2.383004e-06	-2.355805e-09	-1.698148e+01	-1.561058e+02
2.730000e-06	-2.474266e-06	-2.508399e-09	-1.763182e+01	-1.661438e+02
2.740000e-06	-2.564604e-06	-2.655984e-09	-1.827558e+01	-1.759126e+02
2.750000e-06	-2.654020e-06	-2.799015e-09	-1.891276e+01	-1.853910e+02
2.760000e-06	-2.742575e-06	-2.938108e-09	-1.954381e+01	-1.945623e+02
2.770000e-06	-2.830335e-06	-3.073089e-09	-2.016920e+01	-2.034148e+02
2.780000e-06	-2.917199e-06	-3.204589e-09	-2.078820e+01	-2.119415e+02
2.790000e-06	-3.002819e-06	-3.330827e-09	-2.139833e+01	-2.201398e+02
2.800000e-06	-3.087192e-06	-3.453163e-09	-2.199958e+01	-2.280116e+02
2.810000e-06	-3.170575e-06	-3.572435e-09	-2.259377e+01	-2.355621e+02
2.820000e-06	-3.252964e-06	-3.685185e-09	-2.318089e+01	-2.428000e+02
2.830000e-06	-3.334250e-06	-3.791691e-09	-2.376014e+01	-2.497362e+02
2.840000e-06	-3.414488e-06	-3.892446e-09	-2.433192e+01	-2.563833e+02
2.850000e-06	-3.493545e-06	-3.987427e-09	-2.489528e+01	-2.627554e+02
2.860000e-06	-3.571124e-06	-4.079861e-09	-2.544812e+01	-2.688669e+02
2.870000e-06	-3.647163e-06	-4.170239e-09	-2.598998e+01	-2.747323e+02
2.880000e-06	-3.721751e-06	-4.257094e-09	-2.652150e+01	-2.803661e+02
2.890000e-06	-3.795008e-06	-4.339149e-09	-2.704354e+01	-2.857816e+02
2.900000e-06	-3.867067e-06	-4.418182e-09	-2.755703e+01	-2.909915e+02
2.910000e-06	-3.937664e-06	-4.496148e-09	-2.806012e+01	-2.960073e+02
2.920000e-06	-4.006560e-06	-4.571469e-09	-2.855107e+01	-3.008392e+02
2.930000e-06	-4.074010e-06	-4.643325e-09	-2.903173e+01	-3.054958e+02
2.940000e-06	-4.140102e-06	-4.711555e-09	-2.950270e+01	-3.099845e+02
