# Temperatura_=_46.46
# Concentracion g/m^3_=_15000.0
# C_Vs_to_Am_M_A/Vsm_=_65563218390.804596
# pendiente_HvsI_1/m_=_3716.3
# ordenada_HvsI_A/m_=_1297.0
# frecuencia_Hz_=_301570.04212592135

Tiempo_(s)	Campo_(V.s)	Magnetizacion_(V.s)	Campo_(kA/m)	Magnetizacion_(A/m)
0.000000e+00	-5.385114e-06	-5.223711e-09	-3.835457e+01	-3.408145e+02
1.000000e-08	-5.383908e-06	-5.221774e-09	-3.834598e+01	-3.407506e+02
2.000000e-08	-5.380765e-06	-5.220221e-09	-3.832360e+01	-3.406140e+02
3.000000e-08	-5.375892e-06	-5.217318e-09	-3.828889e+01	-3.404007e+02
4.000000e-08	-5.369427e-06	-5.211593e-09	-3.824284e+01	-3.401071e+02
5.000000e-08	-5.361315e-06	-5.203433e-09	-3.818507e+01	-3.397307e+02
6.000000e-08	-5.351259e-06	-5.194425e-09	-3.811344e+01	-3.392713e+02
7.000000e-08	-5.339239e-06	-5.188223e-09	-3.802783e+01	-3.387311e+02
8.000000e-08	-5.325312e-06	-5.188959e-09	-3.792864e+01	-3.381151e+02
9.000000e-08	-5.309174e-06	-5.178267e-09	-3.781370e+01	-3.374311e+02
1.000000e-07	-5.290837e-06	-5.167413e-09	-3.768310e+01	-3.366884e+02
1.100000e-07	-5.270576e-06	-5.173139e-09	-3.753879e+01	-3.358976e+02
1.200000e-07	-5.248487e-06	-5.149167e-09	-3.738147e+01	-3.350685e+02
1.300000e-07	-5.224733e-06	-5.118763e-09	-3.721228e+01	-3.342096e+02
1.400000e-07	-5.199336e-06	-5.121176e-09	-3.703140e+01	-3.333262e+02
1.500000e-07	-5.172257e-06	-5.055300e-09	-3.683853e+01	-3.324198e+02
1.600000e-07	-5.143631e-06	-5.067256e-09	-3.663465e+01	-3.314877e+02
1.700000e-07	-5.113626e-06	-5.112377e-09	-3.642094e+01	-3.305225e+02
1.800000e-07	-5.081890e-06	-5.025186e-09	-3.619491e+01	-3.295128e+02
1.900000e-07	-5.047992e-06	-5.022784e-09	-3.595347e+01	-3.284447e+02
2.000000e-07	-5.012406e-06	-5.013267e-09	-3.570002e+01	-3.273022e+02
2.100000e-07	-4.975319e-06	-4.941314e-09	-3.543587e+01	-3.260698e+02
2.200000e-07	-4.936428e-06	-4.969550e-09	-3.515888e+01	-3.247334e+02
2.300000e-07	-4.895652e-06	-4.964164e-09	-3.486846e+01	-3.232820e+02
2.400000e-07	-4.852907e-06	-4.920419e-09	-3.456402e+01	-3.217091e+02
2.500000e-07	-4.808343e-06	-4.890698e-09	-3.424662e+01	-3.200127e+02
2.600000e-07	-4.762023e-06	-4.820865e-09	-3.391671e+01	-3.181957e+02
2.700000e-07	-4.713727e-06	-4.815128e-09	-3.357273e+01	-3.162653e+02
2.800000e-07	-4.663362e-06	-4.793630e-09	-3.321401e+01	-3.142319e+02
2.900000e-07	-4.610934e-06	-4.748299e-09	-3.284060e+01	-3.121078e+02
3.000000e-07	-4.556697e-06	-4.736564e-09	-3.245431e+01	-3.099058e+02
3.100000e-07	-4.500933e-06	-4.697880e-09	-3.205714e+01	-3.076372e+02
3.200000e-07	-4.443456e-06	-4.651826e-09	-3.164777e+01	-3.053112e+02
3.300000e-07	-4.384202e-06	-4.610110e-09	-3.122574e+01	-3.029334e+02
3.400000e-07	-4.323413e-06	-4.577695e-09	-3.079279e+01	-3.005057e+02
3.500000e-07	-4.261195e-06	-4.538252e-09	-3.034964e+01	-2.980263e+02
3.600000e-07	-4.197558e-06	-4.489370e-09	-2.989640e+01	-2.954901e+02
3.700000e-07	-4.132310e-06	-4.464367e-09	-2.943168e+01	-2.928901e+02
3.800000e-07	-4.065379e-06	-4.432238e-09	-2.895498e+01	-2.902181e+02
3.900000e-07	-3.997001e-06	-4.381970e-09	-2.846797e+01	-2.874661e+02
4.000000e-07	-3.927309e-06	-4.328586e-09	-2.797160e+01	-2.846276e+02
4.100000e-07	-3.856438e-06	-4.282620e-09	-2.746683e+01	-2.816982e+02
4.200000e-07	-3.784335e-06	-4.250614e-09	-2.695329e+01	-2.786762e+02
4.300000e-07	-3.710711e-06	-4.194288e-09	-2.642891e+01	-2.755627e+02
4.400000e-07	-3.635423e-06	-4.150803e-09	-2.589269e+01	-2.723609e+02
4.500000e-07	-3.558579e-06	-4.110104e-09	-2.534538e+01	-2.690760e+02
4.600000e-07	-3.480322e-06	-4.049989e-09	-2.478801e+01	-2.657136e+02
4.700000e-07	-3.400723e-06	-3.986290e-09	-2.422108e+01	-2.622790e+02
4.800000e-07	-3.319885e-06	-3.927856e-09	-2.364532e+01	-2.587764e+02
4.900000e-07	-3.237868e-06	-3.886085e-09	-2.306117e+01	-2.552078e+02
5.000000e-07	-3.154761e-06	-3.834537e-09	-2.246926e+01	-2.515729e+02
5.100000e-07	-3.070726e-06	-3.774375e-09	-2.187073e+01	-2.478693e+02
5.200000e-07	-2.985790e-06	-3.713730e-09	-2.126579e+01	-2.440920e+02
5.300000e-07	-2.899875e-06	-3.653090e-09	-2.065388e+01	-2.402350e+02
5.400000e-07	-2.812935e-06	-3.587528e-09	-2.003466e+01	-2.362915e+02
5.500000e-07	-2.725025e-06	-3.522003e-09	-1.940854e+01	-2.322551e+02
5.600000e-07	-2.636137e-06	-3.457709e-09	-1.877544e+01	-2.281205e+02
5.700000e-07	-2.546076e-06	-3.393679e-09	-1.813400e+01	-2.238843e+02
5.800000e-07	-2.454902e-06	-3.331227e-09	-1.748463e+01	-2.195452e+02
5.900000e-07	-2.362915e-06	-3.264757e-09	-1.682947e+01	-2.151042e+02
6.000000e-07	-2.270147e-06	-3.196728e-09	-1.616874e+01	-2.105639e+02
6.100000e-07	-2.176563e-06	-3.123457e-09	-1.550220e+01	-2.059284e+02
6.200000e-07	-2.082238e-06	-3.047750e-09	-1.483039e+01	-2.012026e+02
6.300000e-07	-1.987169e-06	-2.973853e-09	-1.415328e+01	-1.963906e+02
6.400000e-07	-1.891422e-06	-2.901656e-09	-1.347134e+01	-1.914958e+02
6.500000e-07	-1.794972e-06	-2.828367e-09	-1.278439e+01	-1.865198e+02
6.600000e-07	-1.697741e-06	-2.751523e-09	-1.209188e+01	-1.814623e+02
6.700000e-07	-1.599755e-06	-2.670261e-09	-1.139399e+01	-1.763209e+02
6.800000e-07	-1.501128e-06	-2.588699e-09	-1.069153e+01	-1.710911e+02
6.900000e-07	-1.401927e-06	-2.508177e-09	-9.984993e+00	-1.657674e+02
7.000000e-07	-1.302305e-06	-2.424714e-09	-9.275449e+00	-1.603435e+02
7.100000e-07	-1.202386e-06	-2.339537e-09	-8.563791e+00	-1.548132e+02
7.200000e-07	-1.102119e-06	-2.251778e-09	-7.849655e+00	-1.491709e+02
7.300000e-07	-1.001557e-06	-2.162322e-09	-7.133425e+00	-1.434123e+02
7.400000e-07	-9.006987e-07	-2.071472e-09	-6.415075e+00	-1.375348e+02
7.500000e-07	-7.994980e-07	-1.982037e-09	-5.694291e+00	-1.315372e+02
7.600000e-07	-6.979609e-07	-1.892612e-09	-4.971109e+00	-1.254195e+02
7.700000e-07	-5.961848e-07	-1.797847e-09	-4.246226e+00	-1.191827e+02
7.800000e-07	-4.942438e-07	-1.698760e-09	-3.520168e+00	-1.128277e+02
7.900000e-07	-3.921403e-07	-1.598985e-09	-2.792954e+00	-1.063550e+02
8.000000e-07	-2.898916e-07	-1.499159e-09	-2.064704e+00	-9.976368e+01
8.100000e-07	-1.875075e-07	-1.395751e-09	-1.335491e+00	-9.305079e+01
8.200000e-07	-8.505592e-08	-1.291732e-09	-6.057965e-01	-8.621129e+01
8.300000e-07	1.738231e-08	-1.188189e-09	1.238026e-01	-7.923774e+01
8.400000e-07	1.198265e-07	-1.082594e-09	8.534442e-01	-7.212055e+01
8.500000e-07	2.222701e-07	-9.723900e-10	1.583081e+00	-6.484846e+01
8.600000e-07	3.246600e-07	-8.576179e-10	2.312336e+00	-5.740920e+01
8.700000e-07	4.269590e-07	-7.405186e-10	3.040944e+00	-4.979030e+01
8.800000e-07	5.291601e-07	-6.205733e-10	3.768854e+00	-4.198005e+01
8.900000e-07	6.312137e-07	-4.994886e-10	4.495714e+00	-3.396833e+01
9.000000e-07	7.330903e-07	-3.780744e-10	5.221313e+00	-2.574743e+01
9.100000e-07	8.347321e-07	-2.539484e-10	5.945239e+00	-1.731276e+01
9.200000e-07	9.360132e-07	-1.232225e-10	6.666597e+00	-8.663365e+00
9.300000e-07	1.036910e-06	1.098799e-11	7.385220e+00	1.977523e-01
9.400000e-07	1.137453e-06	1.487111e-10	8.101315e+00	9.263394e+00
9.500000e-07	1.237684e-06	2.897283e-10	8.815198e+00	1.852212e+01
9.600000e-07	1.337549e-06	4.336450e-10	9.526468e+00	2.795827e+01
9.700000e-07	1.436966e-06	5.820584e-10	1.023455e+01	3.755214e+01
9.800000e-07	1.535806e-06	7.328344e-10	1.093852e+01	4.728012e+01
9.900000e-07	1.633927e-06	8.838461e-10	1.163737e+01	5.711503e+01
1.000000e-06	1.731333e-06	1.034389e-09	1.233113e+01	6.702641e+01
1.010000e-06	1.827994e-06	1.188121e-09	1.301958e+01	7.698100e+01
1.020000e-06	1.923883e-06	1.343512e-09	1.370254e+01	8.694327e+01
1.030000e-06	2.019044e-06	1.499005e-09	1.438030e+01	9.687609e+01
1.040000e-06	2.113465e-06	1.650897e-09	1.505280e+01	1.067415e+02
1.050000e-06	2.207137e-06	1.797689e-09	1.571996e+01	1.165017e+02
1.060000e-06	2.300113e-06	1.942580e-09	1.638217e+01	1.261199e+02
1.070000e-06	2.392421e-06	2.084203e-09	1.703961e+01	1.355615e+02
1.080000e-06	2.483992e-06	2.223400e-09	1.769182e+01	1.447947e+02
1.090000e-06	2.574710e-06	2.360000e-09	1.833794e+01	1.537919e+02
1.100000e-06	2.664411e-06	2.493628e-09	1.897682e+01	1.625300e+02
1.110000e-06	2.753008e-06	2.623214e-09	1.960784e+01	1.709911e+02
1.120000e-06	2.840512e-06	2.745588e-09	2.023107e+01	1.791624e+02
1.130000e-06	2.927048e-06	2.863741e-09	2.084741e+01	1.870365e+02
1.140000e-06	3.012668e-06	2.980154e-09	2.145723e+01	1.946110e+02
1.150000e-06	3.097352e-06	3.091814e-09	2.206037e+01	2.018875e+02
1.160000e-06	3.181119e-06	3.197344e-09	2.265699e+01	2.088717e+02
1.170000e-06	3.263819e-06	3.299218e-09	2.324601e+01	2.155720e+02
1.180000e-06	3.345324e-06	3.397048e-09	2.382651e+01	2.219988e+02
1.190000e-06	3.425595e-06	3.488352e-09	2.439823e+01	2.281638e+02
1.200000e-06	3.504583e-06	3.576497e-09	2.496081e+01	2.340796e+02
1.210000e-06	3.582308e-06	3.664104e-09	2.551439e+01	2.397588e+02
1.220000e-06	3.658768e-06	3.748443e-09	2.605896e+01	2.452137e+02
1.230000e-06	3.733855e-06	3.830458e-09	2.659376e+01	2.504562e+02
1.240000e-06	3.807446e-06	3.908720e-09	2.711790e+01	2.554978e+02
1.250000e-06	3.879459e-06	3.982659e-09	2.763080e+01	2.603489e+02
1.260000e-06	3.949979e-06	4.052223e-09	2.813306e+01	2.650193e+02
1.270000e-06	4.019130e-06	4.119424e-09	2.862558e+01	2.695178e+02
1.280000e-06	4.086949e-06	4.186187e-09	2.910861e+01	2.738524e+02
1.290000e-06	4.153300e-06	4.250288e-09	2.958118e+01	2.780296e+02
1.300000e-06	4.218005e-06	4.310316e-09	3.004204e+01	2.820545e+02
1.310000e-06	4.281129e-06	4.366103e-09	3.049163e+01	2.859311e+02
1.320000e-06	4.342804e-06	4.420933e-09	3.093089e+01	2.896612e+02
1.330000e-06	4.403131e-06	4.474144e-09	3.136056e+01	2.932457e+02
1.340000e-06	4.462017e-06	4.523610e-09	3.177997e+01	2.966837e+02
1.350000e-06	4.519196e-06	4.570355e-09	3.218722e+01	2.999734e+02
1.360000e-06	4.574639e-06	4.616905e-09	3.258210e+01	3.031125e+02
1.370000e-06	4.628433e-06	4.661473e-09	3.296524e+01	3.060987e+02
1.380000e-06	4.680473e-06	4.702267e-09	3.333588e+01	3.089304e+02
1.390000e-06	4.730552e-06	4.741298e-09	3.369256e+01	3.116069e+02
1.400000e-06	4.778653e-06	4.777554e-09	3.403516e+01	3.141295e+02
1.410000e-06	4.825010e-06	4.810515e-09	3.436532e+01	3.165011e+02
1.420000e-06	4.869810e-06	4.841008e-09	3.468440e+01	3.187270e+02
1.430000e-06	4.912967e-06	4.870407e-09	3.499178e+01	3.208139e+02
1.440000e-06	4.954233e-06	4.899335e-09	3.528570e+01	3.227700e+02
1.450000e-06	4.993658e-06	4.925705e-09	3.556649e+01	3.246043e+02
1.460000e-06	5.031486e-06	4.949193e-09	3.583592e+01	3.263257e+02
1.470000e-06	5.067794e-06	4.971575e-09	3.609451e+01	3.279426e+02
1.480000e-06	5.102356e-06	4.994468e-09	3.634068e+01	3.294619e+02
1.490000e-06	5.134944e-06	5.015502e-09	3.657278e+01	3.308886e+02
1.500000e-06	5.165629e-06	5.034245e-09	3.679132e+01	3.322259e+02
1.510000e-06	5.194607e-06	5.050928e-09	3.699771e+01	3.334749e+02
1.520000e-06	5.221967e-06	5.066313e-09	3.719258e+01	3.346349e+02
1.530000e-06	5.247354e-06	5.082074e-09	3.737340e+01	3.357042e+02
1.540000e-06	5.270596e-06	5.097760e-09	3.753894e+01	3.366806e+02
1.550000e-06	5.291985e-06	5.111706e-09	3.769128e+01	3.375622e+02
1.560000e-06	5.311679e-06	5.123170e-09	3.783154e+01	3.383479e+02
1.570000e-06	5.329501e-06	5.133923e-09	3.795848e+01	3.390382e+02
1.580000e-06	5.345290e-06	5.144554e-09	3.807093e+01	3.396348e+02
1.590000e-06	5.359127e-06	5.154131e-09	3.816948e+01	3.401412e+02
1.600000e-06	5.370993e-06	5.161442e-09	3.825400e+01	3.405621e+02
1.610000e-06	5.380739e-06	5.166608e-09	3.832341e+01	3.409027e+02
1.620000e-06	5.388356e-06	5.170738e-09	3.837766e+01	3.411682e+02
1.630000e-06	5.394034e-06	5.176431e-09	3.841810e+01	3.413629e+02
1.640000e-06	5.397932e-06	5.182159e-09	3.844586e+01	3.414899e+02
1.650000e-06	5.399917e-06	5.185073e-09	3.846000e+01	3.415503e+02
1.660000e-06	5.399914e-06	5.184934e-09	3.845998e+01	3.415434e+02
1.670000e-06	5.398096e-06	5.183603e-09	3.844704e+01	3.414668e+02
1.680000e-06	5.394656e-06	5.179963e-09	3.842253e+01	3.413168e+02
1.690000e-06	5.389552e-06	5.176663e-09	3.838618e+01	3.410894e+02
1.700000e-06	5.382523e-06	5.172856e-09	3.833612e+01	3.407811e+02
1.710000e-06	5.373718e-06	5.166874e-09	3.827341e+01	3.403899e+02
1.720000e-06	5.363361e-06	5.159301e-09	3.819964e+01	3.399158e+02
1.730000e-06	5.351311e-06	5.145206e-09	3.811381e+01	3.393616e+02
1.740000e-06	5.337301e-06	5.130690e-09	3.801403e+01	3.387328e+02
1.750000e-06	5.321097e-06	5.130457e-09	3.789862e+01	3.380375e+02
1.760000e-06	5.302389e-06	5.104910e-09	3.776538e+01	3.372855e+02
1.770000e-06	5.281001e-06	5.105747e-09	3.761305e+01	3.364871e+02
1.780000e-06	5.257517e-06	5.110319e-09	3.744578e+01	3.356521e+02
1.790000e-06	5.233004e-06	5.076502e-09	3.727119e+01	3.347885e+02
1.800000e-06	5.207716e-06	5.101676e-09	3.709108e+01	3.339010e+02
1.810000e-06	5.180734e-06	5.020726e-09	3.689891e+01	3.329904e+02
1.820000e-06	5.151640e-06	4.980766e-09	3.669169e+01	3.320530e+02
1.830000e-06	5.120856e-06	5.064889e-09	3.647244e+01	3.310808e+02
1.840000e-06	5.088234e-06	4.993983e-09	3.624009e+01	3.300618e+02
1.850000e-06	5.053668e-06	4.992692e-09	3.599391e+01	3.289815e+02
1.860000e-06	5.017526e-06	5.059741e-09	3.573649e+01	3.278241e+02
1.870000e-06	4.979567e-06	4.966983e-09	3.546613e+01	3.265740e+02
1.880000e-06	4.939772e-06	4.938076e-09	3.518270e+01	3.252178e+02
1.890000e-06	4.898262e-06	4.920497e-09	3.488705e+01	3.237451e+02
1.900000e-06	4.854873e-06	4.902020e-09	3.457802e+01	3.221501e+02
1.910000e-06	4.809874e-06	4.936320e-09	3.425752e+01	3.204318e+02
1.920000e-06	4.763035e-06	4.835713e-09	3.392392e+01	3.185939e+02
1.930000e-06	4.714199e-06	4.823910e-09	3.357609e+01	3.166442e+02
1.940000e-06	4.663793e-06	4.824022e-09	3.321709e+01	3.145937e+02
1.950000e-06	4.611591e-06	4.723314e-09	3.284528e+01	3.124548e+02
1.960000e-06	4.557297e-06	4.734561e-09	3.245858e+01	3.102400e+02
1.970000e-06	4.501086e-06	4.709314e-09	3.205823e+01	3.079606e+02
1.980000e-06	4.443248e-06	4.673688e-09	3.164629e+01	3.056250e+02
1.990000e-06	4.383996e-06	4.645049e-09	3.122427e+01	3.032383e+02
2.000000e-06	4.323242e-06	4.586974e-09	3.079157e+01	3.008016e+02
2.010000e-06	4.260843e-06	4.578643e-09	3.034714e+01	2.983125e+02
2.020000e-06	4.196801e-06	4.499139e-09	2.989101e+01	2.957655e+02
2.030000e-06	4.131209e-06	4.453395e-09	2.942385e+01	2.931532e+02
2.040000e-06	4.064202e-06	4.444141e-09	2.894660e+01	2.904674e+02
2.050000e-06	3.995911e-06	4.406193e-09	2.846020e+01	2.877004e+02
2.060000e-06	3.926189e-06	4.361765e-09	2.796362e+01	2.848459e+02
2.070000e-06	3.854840e-06	4.291433e-09	2.745545e+01	2.819000e+02
2.080000e-06	3.782074e-06	4.272145e-09	2.693719e+01	2.788615e+02
2.090000e-06	3.708034e-06	4.209987e-09	2.640985e+01	2.757319e+02
2.100000e-06	3.632641e-06	4.145556e-09	2.587288e+01	2.725149e+02
2.110000e-06	3.555745e-06	4.110408e-09	2.532520e+01	2.692157e+02
2.120000e-06	3.477238e-06	4.058539e-09	2.476604e+01	2.658400e+02
2.130000e-06	3.397413e-06	4.018648e-09	2.419750e+01	2.623930e+02
2.140000e-06	3.316449e-06	3.945924e-09	2.362085e+01	2.588785e+02
2.150000e-06	3.234328e-06	3.899851e-09	2.303596e+01	2.552981e+02
2.160000e-06	3.151181e-06	3.852538e-09	2.244376e+01	2.516512e+02
2.170000e-06	3.067052e-06	3.789994e-09	2.184456e+01	2.479348e+02
2.180000e-06	2.981828e-06	3.738128e-09	2.123757e+01	2.441438e+02
2.190000e-06	2.895288e-06	3.682375e-09	2.062120e+01	2.402718e+02
2.200000e-06	2.807497e-06	3.629504e-09	1.999593e+01	2.363121e+02
2.210000e-06	2.718757e-06	3.560757e-09	1.936389e+01	2.322585e+02
2.220000e-06	2.629146e-06	3.491294e-09	1.872565e+01	2.281060e+02
2.230000e-06	2.538629e-06	3.424323e-09	1.808096e+01	2.238514e+02
2.240000e-06	2.447266e-06	3.363858e-09	1.743024e+01	2.194940e+02
2.250000e-06	2.355148e-06	3.298001e-09	1.677415e+01	2.150349e+02
2.260000e-06	2.262308e-06	3.229110e-09	1.611291e+01	2.104773e+02
2.270000e-06	2.168654e-06	3.161540e-09	1.544588e+01	2.058254e+02
2.280000e-06	2.073882e-06	3.086556e-09	1.477088e+01	2.010838e+02
2.290000e-06	1.978047e-06	3.011383e-09	1.408831e+01	1.962568e+02
2.300000e-06	1.881559e-06	2.933832e-09	1.340109e+01	1.913475e+02
2.310000e-06	1.784658e-06	2.861083e-09	1.271093e+01	1.863570e+02
2.320000e-06	1.687246e-06	2.788613e-09	1.201713e+01	1.812848e+02
2.330000e-06	1.589215e-06	2.707424e-09	1.131892e+01	1.761279e+02
2.340000e-06	1.490664e-06	2.623530e-09	1.061700e+01	1.708817e+02
2.350000e-06	1.391627e-06	2.545770e-09	9.911633e+00	1.655406e+02
2.360000e-06	1.292152e-06	2.465741e-09	9.203135e+00	1.600982e+02
2.370000e-06	1.192341e-06	2.379948e-09	8.492252e+00	1.545482e+02
2.380000e-06	1.092302e-06	2.293264e-09	7.779740e+00	1.488854e+02
2.390000e-06	9.919468e-07	2.206146e-09	7.064975e+00	1.431058e+02
2.400000e-06	8.911724e-07	2.117414e-09	6.347226e+00	1.372068e+02
2.410000e-06	7.900017e-07	2.021738e-09	5.626654e+00	1.311877e+02
2.420000e-06	6.885407e-07	1.925611e-09	4.904016e+00	1.250486e+02
2.430000e-06	5.869229e-07	1.831353e-09	4.180260e+00	1.187906e+02
2.440000e-06	4.851380e-07	1.734917e-09	3.455314e+00	1.124147e+02
2.450000e-06	3.831242e-07	1.638752e-09	2.728738e+00	1.059209e+02
2.460000e-06	2.808815e-07	1.543846e-09	2.000531e+00	9.930807e+01
2.470000e-06	1.784903e-07	1.443051e-09	1.271267e+00	9.257300e+01
2.480000e-06	7.599378e-08	1.332778e-09	5.412530e-01	8.571016e+01
2.490000e-06	-2.659906e-08	1.218568e-09	-1.894474e-01	7.871171e+01
2.500000e-06	-1.291860e-07	1.106256e-09	-9.201057e-01	7.156771e+01
2.510000e-06	-2.316843e-07	9.955605e-10	-1.650133e+00	6.426667e+01
2.520000e-06	-3.341331e-07	8.828604e-10	-2.379807e+00	5.679622e+01
2.530000e-06	-4.364709e-07	7.675830e-10	-3.108691e+00	4.914396e+01
2.540000e-06	-5.385909e-07	6.474660e-10	-3.836023e+00	4.129840e+01
2.550000e-06	-6.404674e-07	5.223051e-10	-4.561621e+00	3.324979e+01
2.560000e-06	-7.420494e-07	3.951211e-10	-5.285122e+00	2.499095e+01
2.570000e-06	-8.432984e-07	2.653526e-10	-6.006252e+00	1.651788e+01
2.580000e-06	-9.441969e-07	1.299074e-10	-6.724884e+00	7.830325e+00
2.590000e-06	-1.044748e-06	-9.216675e-12	-7.441043e+00	-1.067979e+00
2.600000e-06	-1.144954e-06	-1.492233e-10	-8.154744e+00	-1.016907e+01
2.610000e-06	-1.244760e-06	-2.888073e-10	-8.865596e+00	-1.946076e+01
2.620000e-06	-1.344105e-06	-4.308672e-10	-9.573163e+00	-2.892665e+01
2.630000e-06	-1.443006e-06	-5.778135e-10	-1.027757e+01	-3.854632e+01
2.640000e-06	-1.541436e-06	-7.256857e-10	-1.097862e+01	-4.829551e+01
2.650000e-06	-1.639304e-06	-8.733278e-10	-1.167567e+01	-5.814640e+01
2.660000e-06	-1.736563e-06	-1.023002e-09	-1.236838e+01	-6.806803e+01
2.670000e-06	-1.833267e-06	-1.174816e-09	-1.305714e+01	-7.802666e+01
2.680000e-06	-1.929432e-06	-1.326820e-09	-1.374206e+01	-8.798645e+01
2.690000e-06	-2.024954e-06	-1.477910e-09	-1.442239e+01	-9.791004e+01
2.700000e-06	-2.119706e-06	-1.626857e-09	-1.509725e+01	-1.077595e+02
2.710000e-06	-2.213500e-06	-1.773844e-09	-1.576528e+01	-1.174970e+02
2.720000e-06	-2.306346e-06	-1.920526e-09	-1.642656e+01	-1.270861e+02
2.730000e-06	-2.398327e-06	-2.063545e-09	-1.708168e+01	-1.364927e+02
2.740000e-06	-2.489435e-06	-2.202041e-09	-1.773059e+01	-1.456857e+02
2.750000e-06	-2.579629e-06	-2.339154e-09	-1.837297e+01	-1.546382e+02
2.760000e-06	-2.668935e-06	-2.475889e-09	-1.900904e+01	-1.633280e+02
2.770000e-06	-2.757443e-06	-2.607038e-09	-1.963942e+01	-1.717381e+02
2.780000e-06	-2.845124e-06	-2.729918e-09	-2.026392e+01	-1.798568e+02
2.790000e-06	-2.931823e-06	-2.849245e-09	-2.088142e+01	-1.876775e+02
2.800000e-06	-3.017355e-06	-2.965605e-09	-2.149060e+01	-1.951985e+02
2.810000e-06	-3.101731e-06	-3.078116e-09	-2.209156e+01	-2.024223e+02
2.820000e-06	-3.185078e-06	-3.185806e-09	-2.268518e+01	-2.093552e+02
2.830000e-06	-3.267373e-06	-3.288244e-09	-2.327132e+01	-2.160058e+02
2.840000e-06	-3.348547e-06	-3.385839e-09	-2.384947e+01	-2.223849e+02
2.850000e-06	-3.428620e-06	-3.477605e-09	-2.441977e+01	-2.285046e+02
2.860000e-06	-3.507479e-06	-3.565694e-09	-2.498143e+01	-2.343772e+02
2.870000e-06	-3.584806e-06	-3.650990e-09	-2.553218e+01	-2.400154e+02
2.880000e-06	-3.660597e-06	-3.731766e-09	-2.607199e+01	-2.454316e+02
2.890000e-06	-3.735017e-06	-3.809781e-09	-2.660203e+01	-2.506374e+02
2.900000e-06	-3.808143e-06	-3.886745e-09	-2.712286e+01	-2.556442e+02
2.910000e-06	-3.879980e-06	-3.962829e-09	-2.763451e+01	-2.604624e+02
2.920000e-06	-3.950264e-06	-4.034282e-09	-2.813509e+01	-2.651015e+02
2.930000e-06	-4.018979e-06	-4.101987e-09	-2.862450e+01	-2.695703e+02
2.940000e-06	-4.086299e-06	-4.169364e-09	-2.910398e+01	-2.738763e+02
