# Temperatura_=_61.3
# Concentracion g/m^3_=_15000.0
# C_Vs_to_Am_M_A/Vsm_=_65563218390.804596
# pendiente_HvsI_1/m_=_3716.3
# ordenada_HvsI_A/m_=_1297.0
# frecuencia_Hz_=_301577.46431260265

Tiempo_(s)	Campo_(V.s)	Magnetizacion_(V.s)	Campo_(kA/m)	Magnetizacion_(A/m)
0.000000e+00	-5.398464e-06	-5.585870e-09	-3.834390e+01	-3.652007e+02
1.000000e-08	-5.395539e-06	-5.584573e-09	-3.832312e+01	-3.650213e+02
2.000000e-08	-5.390884e-06	-5.579269e-09	-3.829006e+01	-3.647652e+02
3.000000e-08	-5.384590e-06	-5.573270e-09	-3.824535e+01	-3.644329e+02
4.000000e-08	-5.376686e-06	-5.567255e-09	-3.818922e+01	-3.640255e+02
5.000000e-08	-5.366854e-06	-5.559655e-09	-3.811938e+01	-3.635438e+02
6.000000e-08	-5.354941e-06	-5.549950e-09	-3.803476e+01	-3.629894e+02
7.000000e-08	-5.341175e-06	-5.536767e-09	-3.793699e+01	-3.623637e+02
8.000000e-08	-5.325281e-06	-5.528933e-09	-3.782410e+01	-3.616687e+02
9.000000e-08	-5.307134e-06	-5.553237e-09	-3.769520e+01	-3.609062e+02
1.000000e-07	-5.286969e-06	-5.550590e-09	-3.755197e+01	-3.600781e+02
1.100000e-07	-5.264906e-06	-5.517505e-09	-3.739527e+01	-3.591861e+02
1.200000e-07	-5.241173e-06	-5.498277e-09	-3.722670e+01	-3.582312e+02
1.300000e-07	-5.215907e-06	-5.416477e-09	-3.704724e+01	-3.572140e+02
1.400000e-07	-5.189010e-06	-5.392555e-09	-3.685620e+01	-3.561341e+02
1.500000e-07	-5.160489e-06	-5.480665e-09	-3.665362e+01	-3.549904e+02
1.600000e-07	-5.130528e-06	-5.411844e-09	-3.644082e+01	-3.537806e+02
1.700000e-07	-5.098946e-06	-5.401114e-09	-3.621650e+01	-3.525017e+02
1.800000e-07	-5.065215e-06	-5.418033e-09	-3.597691e+01	-3.511501e+02
1.900000e-07	-5.029671e-06	-5.268377e-09	-3.572446e+01	-3.497216e+02
2.000000e-07	-4.992608e-06	-5.285601e-09	-3.546121e+01	-3.482120e+02
2.100000e-07	-4.953773e-06	-5.337127e-09	-3.518537e+01	-3.466169e+02
2.200000e-07	-4.913138e-06	-5.280789e-09	-3.489675e+01	-3.449329e+02
2.300000e-07	-4.870519e-06	-5.277476e-09	-3.459404e+01	-3.431571e+02
2.400000e-07	-4.826025e-06	-5.217662e-09	-3.427801e+01	-3.412874e+02
2.500000e-07	-4.779783e-06	-5.142368e-09	-3.394957e+01	-3.393232e+02
2.600000e-07	-4.731532e-06	-5.150888e-09	-3.360685e+01	-3.372648e+02
2.700000e-07	-4.681163e-06	-5.119878e-09	-3.324909e+01	-3.351134e+02
2.800000e-07	-4.628770e-06	-5.087533e-09	-3.287696e+01	-3.328713e+02
2.900000e-07	-4.574570e-06	-5.040941e-09	-3.249199e+01	-3.305412e+02
3.000000e-07	-4.518845e-06	-4.987133e-09	-3.209619e+01	-3.281260e+02
3.100000e-07	-4.461460e-06	-4.974904e-09	-3.168860e+01	-3.256287e+02
3.200000e-07	-4.402219e-06	-4.964462e-09	-3.126783e+01	-3.230518e+02
3.300000e-07	-4.341397e-06	-4.910376e-09	-3.083582e+01	-3.203969e+02
3.400000e-07	-4.279180e-06	-4.820000e-09	-3.039391e+01	-3.176653e+02
3.500000e-07	-4.215546e-06	-4.783284e-09	-2.994194e+01	-3.148570e+02
3.600000e-07	-4.150354e-06	-4.767324e-09	-2.947890e+01	-3.119715e+02
3.700000e-07	-4.083452e-06	-4.739771e-09	-2.900371e+01	-3.090073e+02
3.800000e-07	-4.015040e-06	-4.702828e-09	-2.851779e+01	-3.059628e+02
3.900000e-07	-3.945345e-06	-4.623279e-09	-2.802277e+01	-3.028362e+02
4.000000e-07	-3.874416e-06	-4.547160e-09	-2.751898e+01	-2.996255e+02
4.100000e-07	-3.802156e-06	-4.499663e-09	-2.700573e+01	-2.963296e+02
4.200000e-07	-3.728356e-06	-4.470725e-09	-2.648155e+01	-2.929476e+02
4.300000e-07	-3.653011e-06	-4.441957e-09	-2.594640e+01	-2.894793e+02
4.400000e-07	-3.576251e-06	-4.385222e-09	-2.540119e+01	-2.859254e+02
4.500000e-07	-3.498100e-06	-4.308072e-09	-2.484610e+01	-2.822869e+02
4.600000e-07	-3.418544e-06	-4.235004e-09	-2.428104e+01	-2.785652e+02
4.700000e-07	-3.337649e-06	-4.186755e-09	-2.370646e+01	-2.747618e+02
4.800000e-07	-3.255557e-06	-4.144569e-09	-2.312338e+01	-2.708780e+02
4.900000e-07	-3.172424e-06	-4.083186e-09	-2.253291e+01	-2.669144e+02
5.000000e-07	-3.088261e-06	-4.012914e-09	-2.193512e+01	-2.628711e+02
5.100000e-07	-3.003110e-06	-3.941886e-09	-2.133032e+01	-2.587470e+02
5.200000e-07	-2.917037e-06	-3.880295e-09	-2.071896e+01	-2.545401e+02
5.300000e-07	-2.830012e-06	-3.821811e-09	-2.010084e+01	-2.502478e+02
5.400000e-07	-2.741978e-06	-3.753132e-09	-1.947556e+01	-2.458665e+02
5.500000e-07	-2.652852e-06	-3.673165e-09	-1.884252e+01	-2.413924e+02
5.600000e-07	-2.562618e-06	-3.593206e-09	-1.820162e+01	-2.368217e+02
5.700000e-07	-2.471313e-06	-3.530926e-09	-1.755310e+01	-2.321508e+02
5.800000e-07	-2.379139e-06	-3.474234e-09	-1.689841e+01	-2.273768e+02
5.900000e-07	-2.286231e-06	-3.401700e-09	-1.623851e+01	-2.224980e+02
6.000000e-07	-2.192503e-06	-3.310884e-09	-1.557278e+01	-2.175134e+02
6.100000e-07	-2.098028e-06	-3.223003e-09	-1.490175e+01	-2.124234e+02
6.200000e-07	-2.002883e-06	-3.144616e-09	-1.422596e+01	-2.072294e+02
6.300000e-07	-1.906986e-06	-3.071190e-09	-1.354483e+01	-2.019334e+02
6.400000e-07	-1.810317e-06	-3.000638e-09	-1.285821e+01	-1.965380e+02
6.500000e-07	-1.712900e-06	-2.919607e-09	-1.216629e+01	-1.910458e+02
6.600000e-07	-1.614778e-06	-2.823450e-09	-1.146935e+01	-1.854589e+02
6.700000e-07	-1.516049e-06	-2.725402e-09	-1.076810e+01	-1.797789e+02
6.800000e-07	-1.416716e-06	-2.639540e-09	-1.006257e+01	-1.740062e+02
6.900000e-07	-1.316893e-06	-2.556359e-09	-9.353549e+00	-1.681403e+02
7.000000e-07	-1.216727e-06	-2.465359e-09	-8.642101e+00	-1.621791e+02
7.100000e-07	-1.116218e-06	-2.369085e-09	-7.928212e+00	-1.561198e+02
7.200000e-07	-1.015388e-06	-2.272698e-09	-7.212040e+00	-1.499584e+02
7.300000e-07	-9.142601e-07	-2.176516e-09	-6.493753e+00	-1.436901e+02
7.400000e-07	-8.127875e-07	-2.081682e-09	-5.773020e+00	-1.373101e+02
7.500000e-07	-7.109860e-07	-1.988108e-09	-5.049951e+00	-1.308130e+02
7.600000e-07	-6.089317e-07	-1.886187e-09	-4.325085e+00	-1.241938e+02
7.700000e-07	-5.066875e-07	-1.775488e-09	-3.598871e+00	-1.174474e+02
7.800000e-07	-4.043148e-07	-1.666642e-09	-2.871744e+00	-1.105690e+02
7.900000e-07	-3.018180e-07	-1.563795e-09	-2.143736e+00	-1.035538e+02
8.000000e-07	-1.992311e-07	-1.459648e-09	-1.415087e+00	-9.639675e+01
8.100000e-07	-9.660062e-08	-1.348973e-09	-6.861293e-01	-8.909223e+01
8.200000e-07	6.087988e-09	-1.235036e-09	4.324141e-02	-8.163395e+01
8.300000e-07	1.088288e-07	-1.120387e-09	7.729828e-01	-7.401458e+01
8.400000e-07	2.115681e-07	-1.005338e-09	1.502714e+00	-6.622570e+01
8.500000e-07	3.142420e-07	-8.879423e-10	2.231980e+00	-5.825785e+01
8.600000e-07	4.168617e-07	-7.631714e-10	2.960861e+00	-5.010078e+01
8.700000e-07	5.193649e-07	-6.291517e-10	3.688915e+00	-4.174396e+01
8.800000e-07	6.216897e-07	-4.943263e-10	4.415702e+00	-3.317725e+01
8.900000e-07	7.238829e-07	-3.614641e-10	5.141553e+00	-2.439174e+01
9.000000e-07	8.258436e-07	-2.278616e-10	5.865754e+00	-1.538074e+01
9.100000e-07	9.274809e-07	-9.164980e-11	6.587658e+00	-6.140710e+00
9.200000e-07	1.028732e-06	5.029127e-11	7.306816e+00	3.327718e+00
9.300000e-07	1.129587e-06	1.987064e-10	8.023167e+00	1.301900e+01
9.400000e-07	1.230069e-06	3.529784e-10	8.736866e+00	2.292208e+01
9.500000e-07	1.330148e-06	5.090599e-10	9.447697e+00	3.302008e+01
9.600000e-07	1.429840e-06	6.664379e-10	1.015578e+01	4.329027e+01
9.700000e-07	1.529094e-06	8.276678e-10	1.086076e+01	5.370447e+01
9.800000e-07	1.627772e-06	9.923933e-10	1.156165e+01	6.422959e+01
9.900000e-07	1.725722e-06	1.157005e-09	1.225736e+01	7.482860e+01
1.000000e-06	1.822796e-06	1.319954e-09	1.294685e+01	8.546158e+01
1.010000e-06	1.919030e-06	1.482018e-09	1.363038e+01	9.608694e+01
1.020000e-06	2.014496e-06	1.643894e-09	1.430845e+01	1.066627e+02
1.030000e-06	2.109279e-06	1.805200e-09	1.498167e+01	1.171477e+02
1.040000e-06	2.203358e-06	1.964985e-09	1.564988e+01	1.275027e+02
1.050000e-06	2.296640e-06	2.122260e-09	1.631244e+01	1.376913e+02
1.060000e-06	2.389174e-06	2.274154e-09	1.696968e+01	1.476806e+02
1.070000e-06	2.481012e-06	2.421341e-09	1.762199e+01	1.574421e+02
1.080000e-06	2.572105e-06	2.566425e-09	1.826900e+01	1.669513e+02
1.090000e-06	2.662250e-06	2.711518e-09	1.890928e+01	1.761884e+02
1.100000e-06	2.751169e-06	2.852295e-09	1.954085e+01	1.851382e+02
1.110000e-06	2.838931e-06	2.983366e-09	2.016419e+01	1.937895e+02
1.120000e-06	2.925804e-06	3.106227e-09	2.078123e+01	2.021355e+02
1.130000e-06	3.011768e-06	3.226265e-09	2.139181e+01	2.101726e+02
1.140000e-06	3.096752e-06	3.343990e-09	2.199543e+01	2.179012e+02
1.150000e-06	3.180783e-06	3.456920e-09	2.259228e+01	2.253242e+02
1.160000e-06	3.263864e-06	3.565404e-09	2.318238e+01	2.324476e+02
1.170000e-06	3.345772e-06	3.668665e-09	2.376416e+01	2.392795e+02
1.180000e-06	3.426338e-06	3.766798e-09	2.433640e+01	2.458301e+02
1.190000e-06	3.505661e-06	3.861921e-09	2.489981e+01	2.521112e+02
1.200000e-06	3.583779e-06	3.955604e-09	2.545466e+01	2.581358e+02
1.210000e-06	3.660643e-06	4.045586e-09	2.600061e+01	2.639176e+02
1.220000e-06	3.736198e-06	4.131335e-09	2.653725e+01	2.694706e+02
1.230000e-06	3.810162e-06	4.212534e-09	2.706260e+01	2.748084e+02
1.240000e-06	3.882449e-06	4.289888e-09	2.757604e+01	2.799442e+02
1.250000e-06	3.953322e-06	4.364291e-09	2.807943e+01	2.848897e+02
1.260000e-06	4.022847e-06	4.437833e-09	2.857325e+01	2.896554e+02
1.270000e-06	4.091069e-06	4.511029e-09	2.905781e+01	2.942497e+02
1.280000e-06	4.157933e-06	4.580085e-09	2.953272e+01	2.986793e+02
1.290000e-06	4.223085e-06	4.644053e-09	2.999548e+01	3.029487e+02
1.300000e-06	4.286574e-06	4.704660e-09	3.044643e+01	3.070608e+02
1.310000e-06	4.348610e-06	4.763709e-09	3.088706e+01	3.110166e+02
1.320000e-06	4.409220e-06	4.821012e-09	3.131755e+01	3.148162e+02
1.330000e-06	4.468471e-06	4.873380e-09	3.173840e+01	3.184586e+02
1.340000e-06	4.526042e-06	4.922542e-09	3.214731e+01	3.219426e+02
1.350000e-06	4.581753e-06	4.972035e-09	3.254301e+01	3.252673e+02
1.360000e-06	4.635846e-06	5.019551e-09	3.292722e+01	3.284320e+02
1.370000e-06	4.688295e-06	5.063279e-09	3.329975e+01	3.314373e+02
1.380000e-06	4.738752e-06	5.104835e-09	3.365814e+01	3.342844e+02
1.390000e-06	4.787164e-06	5.144782e-09	3.400199e+01	3.369763e+02
1.400000e-06	4.833800e-06	5.181912e-09	3.433323e+01	3.395166e+02
1.410000e-06	4.878808e-06	5.215327e-09	3.465291e+01	3.419102e+02
1.420000e-06	4.922304e-06	5.245767e-09	3.496186e+01	3.441627e+02
1.430000e-06	4.963949e-06	5.274661e-09	3.525765e+01	3.462802e+02
1.440000e-06	5.003691e-06	5.301647e-09	3.553993e+01	3.482690e+02
1.450000e-06	5.041838e-06	5.326831e-09	3.581087e+01	3.501348e+02
1.460000e-06	5.078339e-06	5.351671e-09	3.607013e+01	3.518834e+02
1.470000e-06	5.113079e-06	5.377572e-09	3.631688e+01	3.535196e+02
1.480000e-06	5.145853e-06	5.401218e-09	3.654967e+01	3.550474e+02
1.490000e-06	5.176793e-06	5.421043e-09	3.676942e+01	3.564702e+02
1.500000e-06	5.206070e-06	5.438807e-09	3.697738e+01	3.577903e+02
1.510000e-06	5.233706e-06	5.455524e-09	3.717367e+01	3.590097e+02
1.520000e-06	5.259325e-06	5.471165e-09	3.735563e+01	3.601296e+02
1.530000e-06	5.282819e-06	5.486648e-09	3.752250e+01	3.611513e+02
1.540000e-06	5.304503e-06	5.500833e-09	3.767651e+01	3.620758e+02
1.550000e-06	5.324438e-06	5.511888e-09	3.781811e+01	3.629040e+02
1.560000e-06	5.342505e-06	5.522125e-09	3.794644e+01	3.636372e+02
1.570000e-06	5.358585e-06	5.533224e-09	3.806064e+01	3.642769e+02
1.580000e-06	5.372697e-06	5.544452e-09	3.816088e+01	3.648250e+02
1.590000e-06	5.384805e-06	5.553215e-09	3.824688e+01	3.652832e+02
1.600000e-06	5.394686e-06	5.559555e-09	3.831707e+01	3.656537e+02
1.610000e-06	5.402407e-06	5.564108e-09	3.837190e+01	3.659385e+02
1.620000e-06	5.408302e-06	5.568385e-09	3.841377e+01	3.661396e+02
1.630000e-06	5.412471e-06	5.572104e-09	3.844338e+01	3.662587e+02
1.640000e-06	5.414671e-06	5.573660e-09	3.845901e+01	3.662975e+02
1.650000e-06	5.414810e-06	5.574572e-09	3.846000e+01	3.662570e+02
1.660000e-06	5.413217e-06	5.571453e-09	3.844869e+01	3.661382e+02
1.670000e-06	5.410023e-06	5.565516e-09	3.842600e+01	3.659421e+02
1.680000e-06	5.405148e-06	5.562811e-09	3.839137e+01	3.656693e+02
1.690000e-06	5.398301e-06	5.559325e-09	3.834274e+01	3.653205e+02
1.700000e-06	5.389610e-06	5.554469e-09	3.828101e+01	3.648967e+02
1.710000e-06	5.379361e-06	5.548832e-09	3.820822e+01	3.643991e+02
1.720000e-06	5.367437e-06	5.543942e-09	3.812352e+01	3.638289e+02
1.730000e-06	5.353563e-06	5.542768e-09	3.802498e+01	3.631879e+02
1.740000e-06	5.337502e-06	5.489147e-09	3.791090e+01	3.624779e+02
1.750000e-06	5.319016e-06	5.457512e-09	3.777960e+01	3.617009e+02
1.760000e-06	5.297824e-06	5.463593e-09	3.762908e+01	3.608587e+02
1.770000e-06	5.274425e-06	5.451607e-09	3.746288e+01	3.599528e+02
1.780000e-06	5.249916e-06	5.524455e-09	3.728880e+01	3.589843e+02
1.790000e-06	5.224723e-06	5.485020e-09	3.710986e+01	3.579534e+02
1.800000e-06	5.197950e-06	5.367541e-09	3.691970e+01	3.568597e+02
1.810000e-06	5.168860e-06	5.446515e-09	3.671308e+01	3.557017e+02
1.820000e-06	5.138022e-06	5.389702e-09	3.649404e+01	3.544771e+02
1.830000e-06	5.105478e-06	5.332526e-09	3.626289e+01	3.531827e+02
1.840000e-06	5.070958e-06	5.448826e-09	3.601771e+01	3.518146e+02
1.850000e-06	5.034899e-06	5.349036e-09	3.576159e+01	3.503688e+02
1.860000e-06	4.996986e-06	5.286449e-09	3.549231e+01	3.488408e+02
1.870000e-06	4.957131e-06	5.301885e-09	3.520922e+01	3.472267e+02
1.880000e-06	4.915679e-06	5.194436e-09	3.491480e+01	3.455230e+02
1.890000e-06	4.872412e-06	5.252791e-09	3.460748e+01	3.437268e+02
1.900000e-06	4.827553e-06	5.252737e-09	3.428886e+01	3.418367e+02
1.910000e-06	4.780902e-06	5.174965e-09	3.395751e+01	3.398519e+02
1.920000e-06	4.732182e-06	5.181295e-09	3.361147e+01	3.377731e+02
1.930000e-06	4.681826e-06	5.066146e-09	3.325380e+01	3.356017e+02
1.940000e-06	4.629744e-06	5.073233e-09	3.288388e+01	3.333402e+02
1.950000e-06	4.575618e-06	5.084667e-09	3.249943e+01	3.309913e+02
1.960000e-06	4.519514e-06	4.992735e-09	3.210094e+01	3.285580e+02
1.970000e-06	4.461688e-06	4.960829e-09	3.169022e+01	3.260432e+02
1.980000e-06	4.402443e-06	4.905793e-09	3.126942e+01	3.234491e+02
1.990000e-06	4.341708e-06	4.916483e-09	3.083803e+01	3.207774e+02
2.000000e-06	4.279252e-06	4.873881e-09	3.039442e+01	3.180291e+02
2.010000e-06	4.215181e-06	4.789666e-09	2.993935e+01	3.152040e+02
2.020000e-06	4.149644e-06	4.760607e-09	2.947385e+01	3.123014e+02
2.030000e-06	4.082681e-06	4.680327e-09	2.899823e+01	3.093199e+02
2.040000e-06	4.014297e-06	4.661205e-09	2.851251e+01	3.062577e+02
2.050000e-06	3.944458e-06	4.638416e-09	2.801647e+01	3.031128e+02
2.060000e-06	3.873026e-06	4.601551e-09	2.750911e+01	2.998837e+02
2.070000e-06	3.800247e-06	4.542963e-09	2.699218e+01	2.965691e+02
2.080000e-06	3.726280e-06	4.432162e-09	2.646680e+01	2.931683e+02
2.090000e-06	3.650849e-06	4.389590e-09	2.593104e+01	2.896813e+02
2.100000e-06	3.573850e-06	4.355832e-09	2.538414e+01	2.861088e+02
2.110000e-06	3.495296e-06	4.326632e-09	2.482619e+01	2.824520e+02
2.120000e-06	3.415441e-06	4.265760e-09	2.425899e+01	2.787124e+02
2.130000e-06	3.334471e-06	4.184063e-09	2.368389e+01	2.748914e+02
2.140000e-06	3.252394e-06	4.122806e-09	2.310091e+01	2.709901e+02
2.150000e-06	3.169259e-06	4.050443e-09	2.251043e+01	2.670092e+02
2.160000e-06	3.085072e-06	4.007702e-09	2.191247e+01	2.629484e+02
2.170000e-06	2.999771e-06	3.958062e-09	2.130660e+01	2.588064e+02
2.180000e-06	2.913174e-06	3.888799e-09	2.069152e+01	2.545812e+02
2.190000e-06	2.825318e-06	3.810933e-09	2.006750e+01	2.502698e+02
2.200000e-06	2.736474e-06	3.748013e-09	1.943647e+01	2.458687e+02
2.210000e-06	2.646736e-06	3.697612e-09	1.879908e+01	2.413739e+02
2.220000e-06	2.556098e-06	3.622093e-09	1.815530e+01	2.367817e+02
2.230000e-06	2.464596e-06	3.534906e-09	1.750539e+01	2.320886e+02
2.240000e-06	2.372231e-06	3.452644e-09	1.684935e+01	2.272919e+02
2.250000e-06	2.279065e-06	3.386503e-09	1.618761e+01	2.223901e+02
2.260000e-06	2.185166e-06	3.319814e-09	1.552067e+01	2.173826e+02
2.270000e-06	2.090273e-06	3.253905e-09	1.484667e+01	2.122699e+02
2.280000e-06	1.994325e-06	3.175536e-09	1.416518e+01	2.070536e+02
2.290000e-06	1.897693e-06	3.075498e-09	1.347882e+01	2.017358e+02
2.300000e-06	1.800531e-06	2.980464e-09	1.278871e+01	1.963191e+02
2.310000e-06	1.702851e-06	2.908653e-09	1.209491e+01	1.908061e+02
2.320000e-06	1.604708e-06	2.844153e-09	1.139783e+01	1.851988e+02
2.330000e-06	1.506118e-06	2.756174e-09	1.069757e+01	1.794987e+02
2.340000e-06	1.407041e-06	2.654349e-09	9.993847e+00	1.737058e+02
2.350000e-06	1.307438e-06	2.556268e-09	9.286395e+00	1.678193e+02
2.360000e-06	1.207416e-06	2.467972e-09	8.575965e+00	1.618372e+02
2.370000e-06	1.107157e-06	2.383788e-09	7.863853e+00	1.557560e+02
2.380000e-06	1.006588e-06	2.297528e-09	7.149533e+00	1.495718e+02
2.390000e-06	9.055064e-07	2.203047e-09	6.431578e+00	1.432797e+02
2.400000e-06	8.039945e-07	2.096775e-09	5.710566e+00	1.368747e+02
2.410000e-06	7.022258e-07	1.992252e-09	4.987729e+00	1.303516e+02
2.420000e-06	6.002942e-07	1.896660e-09	4.263735e+00	1.237052e+02
2.430000e-06	4.981516e-07	1.799993e-09	3.538242e+00	1.169306e+02
2.440000e-06	3.957840e-07	1.692725e-09	2.811152e+00	1.100231e+02
2.450000e-06	2.932110e-07	1.579901e-09	2.082602e+00	1.029776e+02
2.460000e-06	1.904341e-07	1.467941e-09	1.352604e+00	9.578909e+01
2.470000e-06	8.751513e-08	1.357941e-09	6.215974e-01	8.845188e+01
2.480000e-06	-1.547400e-08	1.245362e-09	-1.099078e-01	8.095942e+01
2.490000e-06	-1.184758e-07	1.125653e-09	-8.415032e-01	7.330417e+01
2.500000e-06	-2.213999e-07	1.001920e-09	-1.572546e+00	6.547746e+01
2.510000e-06	-3.242312e-07	8.773825e-10	-2.302930e+00	5.746964e+01
2.520000e-06	-4.269813e-07	7.557848e-10	-3.032738e+00	4.927034e+01
2.530000e-06	-5.295650e-07	6.337203e-10	-3.761363e+00	4.086907e+01
2.540000e-06	-6.319740e-07	5.059657e-10	-4.488748e+00	3.225586e+01
2.550000e-06	-7.340821e-07	3.688374e-10	-5.213996e+00	2.342219e+01
2.560000e-06	-8.357682e-07	2.216185e-10	-5.936246e+00	1.436197e+01
2.570000e-06	-9.370253e-07	7.273482e-11	-6.655449e+00	5.072487e+00
2.580000e-06	-1.037892e-06	-7.062414e-11	-7.371881e+00	-4.444649e+00
2.590000e-06	-1.138394e-06	-2.115734e-10	-8.085716e+00	-1.418275e+01
2.600000e-06	-1.238435e-06	-3.585822e-10	-8.796286e+00	-2.412953e+01
2.610000e-06	-1.338016e-06	-5.129957e-10	-9.503579e+00	-3.426684e+01
2.620000e-06	-1.437201e-06	-6.721220e-10	-1.020807e+01	-4.457075e+01
2.630000e-06	-1.535933e-06	-8.309280e-10	-1.090933e+01	-5.501195e+01
2.640000e-06	-1.634110e-06	-9.884852e-10	-1.160666e+01	-6.555645e+01
2.650000e-06	-1.731688e-06	-1.148344e-09	-1.229973e+01	-7.616648e+01
2.660000e-06	-1.828663e-06	-1.311807e-09	-1.298852e+01	-8.680166e+01
2.670000e-06	-1.925119e-06	-1.476596e-09	-1.367363e+01	-9.742023e+01
2.680000e-06	-2.021038e-06	-1.636327e-09	-1.435491e+01	-1.079803e+02
2.690000e-06	-2.116213e-06	-1.789788e-09	-1.503092e+01	-1.184409e+02
2.700000e-06	-2.210485e-06	-1.941568e-09	-1.570051e+01	-1.287635e+02
2.710000e-06	-2.303755e-06	-2.096993e-09	-1.636298e+01	-1.389124e+02
2.720000e-06	-2.396041e-06	-2.252465e-09	-1.701846e+01	-1.488554e+02
2.730000e-06	-2.487481e-06	-2.400943e-09	-1.766793e+01	-1.585650e+02
2.740000e-06	-2.578092e-06	-2.542552e-09	-1.831152e+01	-1.680177e+02
2.750000e-06	-2.667807e-06	-2.681810e-09	-1.894875e+01	-1.771948e+02
2.760000e-06	-2.756625e-06	-2.818308e-09	-1.957960e+01	-1.860817e+02
2.770000e-06	-2.844600e-06	-2.950669e-09	-2.020446e+01	-1.946684e+02
2.780000e-06	-2.931628e-06	-3.079395e-09	-2.082260e+01	-2.029486e+02
2.790000e-06	-3.017471e-06	-3.200276e-09	-2.143232e+01	-2.109198e+02
2.800000e-06	-3.102094e-06	-3.314572e-09	-2.203338e+01	-2.185828e+02
2.810000e-06	-3.185675e-06	-3.427103e-09	-2.262703e+01	-2.259414e+02
2.820000e-06	-3.268275e-06	-3.537956e-09	-2.321372e+01	-2.330018e+02
2.830000e-06	-3.349812e-06	-3.645173e-09	-2.379285e+01	-2.397728e+02
2.840000e-06	-3.430235e-06	-3.745681e-09	-2.436408e+01	-2.462650e+02
2.850000e-06	-3.509444e-06	-3.839002e-09	-2.492668e+01	-2.524903e+02
2.860000e-06	-3.587187e-06	-3.928744e-09	-2.547886e+01	-2.584620e+02
2.870000e-06	-3.663378e-06	-4.015983e-09	-2.602003e+01	-2.641939e+02
2.880000e-06	-3.738142e-06	-4.099868e-09	-2.655106e+01	-2.696999e+02
2.890000e-06	-3.811508e-06	-4.181144e-09	-2.707216e+01	-2.749937e+02
2.900000e-06	-3.883601e-06	-4.259194e-09	-2.758422e+01	-2.800881e+02
2.910000e-06	-3.954303e-06	-4.333135e-09	-2.808639e+01	-2.849946e+02
2.920000e-06	-4.023371e-06	-4.404380e-09	-2.857697e+01	-2.897232e+02
2.930000e-06	-4.090940e-06	-4.474265e-09	-2.905689e+01	-2.942820e+02
2.940000e-06	-4.157098e-06	-4.542229e-09	-2.952679e+01	-2.986773e+02
