# Temperatura_=_55.32
# Concentracion g/m^3_=_15000.0
# C_Vs_to_Am_M_A/Vsm_=_65563218390.804596
# pendiente_HvsI_1/m_=_3716.3
# ordenada_HvsI_A/m_=_1297.0
# frecuencia_Hz_=_301573.33190073137

Tiempo_(s)	Campo_(V.s)	Magnetizacion_(V.s)	Campo_(kA/m)	Magnetizacion_(A/m)
0.000000e+00	-5.396059e-06	-5.428150e-09	-3.833980e+01	-3.546418e+02
1.000000e-08	-5.393077e-06	-5.427310e-09	-3.831861e+01	-3.544820e+02
2.000000e-08	-5.388322e-06	-5.423081e-09	-3.828483e+01	-3.542482e+02
3.000000e-08	-5.381958e-06	-5.415651e-09	-3.823961e+01	-3.539394e+02
4.000000e-08	-5.373935e-06	-5.408461e-09	-3.818261e+01	-3.535548e+02
5.000000e-08	-5.363962e-06	-5.400389e-09	-3.811175e+01	-3.530936e+02
6.000000e-08	-5.352004e-06	-5.392623e-09	-3.802678e+01	-3.525560e+02
7.000000e-08	-5.338170e-06	-5.389495e-09	-3.792849e+01	-3.519430e+02
8.000000e-08	-5.322191e-06	-5.377258e-09	-3.781496e+01	-3.512570e+02
9.000000e-08	-5.304010e-06	-5.378391e-09	-3.768578e+01	-3.505009e+02
1.000000e-07	-5.283844e-06	-5.382944e-09	-3.754249e+01	-3.496785e+02
1.100000e-07	-5.261767e-06	-5.353080e-09	-3.738564e+01	-3.487939e+02
1.200000e-07	-5.237983e-06	-5.331739e-09	-3.721665e+01	-3.478506e+02
1.300000e-07	-5.212640e-06	-5.308586e-09	-3.703658e+01	-3.468512e+02
1.400000e-07	-5.185703e-06	-5.240594e-09	-3.684519e+01	-3.457970e+02
1.500000e-07	-5.157181e-06	-5.283568e-09	-3.664254e+01	-3.446874e+02
1.600000e-07	-5.127147e-06	-5.282408e-09	-3.642914e+01	-3.435198e+02
1.700000e-07	-5.095417e-06	-5.206699e-09	-3.620369e+01	-3.422899e+02
1.800000e-07	-5.061602e-06	-5.247634e-09	-3.596344e+01	-3.409919e+02
1.900000e-07	-5.026004e-06	-5.202856e-09	-3.571051e+01	-3.396189e+02
2.000000e-07	-4.988924e-06	-5.149759e-09	-3.544705e+01	-3.381639e+02
2.100000e-07	-4.950122e-06	-5.188454e-09	-3.517136e+01	-3.366206e+02
2.200000e-07	-4.909493e-06	-5.131249e-09	-3.488268e+01	-3.349838e+02
2.300000e-07	-4.866822e-06	-5.077650e-09	-3.457949e+01	-3.332500e+02
2.400000e-07	-4.822204e-06	-5.078005e-09	-3.426248e+01	-3.314180e+02
2.500000e-07	-4.775883e-06	-5.029692e-09	-3.393336e+01	-3.294889e+02
2.600000e-07	-4.727667e-06	-5.011236e-09	-3.359078e+01	-3.274659e+02
2.700000e-07	-4.677330e-06	-4.972130e-09	-3.323312e+01	-3.253536e+02
2.800000e-07	-4.624900e-06	-4.924643e-09	-3.286060e+01	-3.231578e+02
2.900000e-07	-4.570664e-06	-4.894483e-09	-3.247525e+01	-3.208846e+02
3.000000e-07	-4.514847e-06	-4.877804e-09	-3.207866e+01	-3.185394e+02
3.100000e-07	-4.457363e-06	-4.859632e-09	-3.167023e+01	-3.161265e+02
3.200000e-07	-4.398116e-06	-4.800098e-09	-3.124927e+01	-3.136488e+02
3.300000e-07	-4.337260e-06	-4.754211e-09	-3.081688e+01	-3.111069e+02
3.400000e-07	-4.274996e-06	-4.703644e-09	-3.037448e+01	-3.084999e+02
3.500000e-07	-4.211363e-06	-4.657299e-09	-2.992236e+01	-3.058250e+02
3.600000e-07	-4.146145e-06	-4.641495e-09	-2.945898e+01	-3.030784e+02
3.700000e-07	-4.079238e-06	-4.603017e-09	-2.898359e+01	-3.002558e+02
3.800000e-07	-4.010828e-06	-4.543915e-09	-2.849753e+01	-2.973530e+02
3.900000e-07	-3.941080e-06	-4.489115e-09	-2.800196e+01	-2.943664e+02
4.000000e-07	-3.870093e-06	-4.446242e-09	-2.749758e+01	-2.912937e+02
4.100000e-07	-3.797897e-06	-4.408496e-09	-2.698463e+01	-2.881339e+02
4.200000e-07	-3.724210e-06	-4.348688e-09	-2.646106e+01	-2.848875e+02
4.300000e-07	-3.648791e-06	-4.294611e-09	-2.592521e+01	-2.815563e+02
4.400000e-07	-3.571871e-06	-4.243855e-09	-2.537867e+01	-2.781428e+02
4.500000e-07	-3.493589e-06	-4.192998e-09	-2.482247e+01	-2.746501e+02
4.600000e-07	-3.413952e-06	-4.140498e-09	-2.425664e+01	-2.710806e+02
4.700000e-07	-3.333058e-06	-4.084594e-09	-2.368187e+01	-2.674365e+02
4.800000e-07	-3.250928e-06	-4.032030e-09	-2.309832e+01	-2.637185e+02
4.900000e-07	-3.167690e-06	-3.965573e-09	-2.250691e+01	-2.599259e+02
5.000000e-07	-3.083524e-06	-3.902868e-09	-2.190890e+01	-2.560569e+02
5.100000e-07	-2.998459e-06	-3.848791e-09	-2.130450e+01	-2.521081e+02
5.200000e-07	-2.912399e-06	-3.789999e-09	-2.069303e+01	-2.480756e+02
5.300000e-07	-2.825331e-06	-3.715289e-09	-2.007439e+01	-2.439551e+02
5.400000e-07	-2.737361e-06	-3.638494e-09	-1.944935e+01	-2.397425e+02
5.500000e-07	-2.648267e-06	-3.571001e-09	-1.881633e+01	-2.354341e+02
5.600000e-07	-2.557929e-06	-3.509245e-09	-1.817446e+01	-2.310277e+02
5.700000e-07	-2.466608e-06	-3.450587e-09	-1.752562e+01	-2.265221e+02
5.800000e-07	-2.374480e-06	-3.382091e-09	-1.687104e+01	-2.219173e+02
5.900000e-07	-2.281569e-06	-3.306032e-09	-1.621089e+01	-2.172146e+02
6.000000e-07	-2.187843e-06	-3.226781e-09	-1.554495e+01	-2.124159e+02
6.100000e-07	-2.093305e-06	-3.150847e-09	-1.487324e+01	-2.075233e+02
6.200000e-07	-1.998098e-06	-3.076671e-09	-1.419678e+01	-2.025389e+02
6.300000e-07	-1.902361e-06	-2.998109e-09	-1.351656e+01	-1.974636e+02
6.400000e-07	-1.805911e-06	-2.915874e-09	-1.283127e+01	-1.922979e+02
6.500000e-07	-1.708524e-06	-2.834783e-09	-1.213932e+01	-1.870404e+02
6.600000e-07	-1.610305e-06	-2.754797e-09	-1.144146e+01	-1.816888e+02
6.700000e-07	-1.511425e-06	-2.671736e-09	-1.073890e+01	-1.762397e+02
6.800000e-07	-1.412048e-06	-2.587404e-09	-1.003281e+01	-1.706889e+02
6.900000e-07	-1.312305e-06	-2.499359e-09	-9.324125e+00	-1.650318e+02
7.000000e-07	-1.212200e-06	-2.410193e-09	-8.612860e+00	-1.592641e+02
7.100000e-07	-1.111735e-06	-2.322065e-09	-7.899043e+00	-1.533821e+02
7.200000e-07	-1.010877e-06	-2.233093e-09	-7.182434e+00	-1.473830e+02
7.300000e-07	-9.096891e-07	-2.138986e-09	-6.463476e+00	-1.412649e+02
7.400000e-07	-8.082729e-07	-2.040121e-09	-5.742899e+00	-1.350271e+02
7.500000e-07	-7.065765e-07	-1.940438e-09	-5.020331e+00	-1.286694e+02
7.600000e-07	-6.045720e-07	-1.841187e-09	-4.295574e+00	-1.221922e+02
7.700000e-07	-5.023731e-07	-1.741649e-09	-3.569436e+00	-1.155952e+02
7.800000e-07	-4.000404e-07	-1.641131e-09	-2.842346e+00	-1.088776e+02
7.900000e-07	-2.975428e-07	-1.538460e-09	-2.114086e+00	-1.020371e+02
8.000000e-07	-1.949431e-07	-1.430889e-09	-1.385100e+00	-9.506921e+01
8.100000e-07	-9.228927e-08	-1.321869e-09	-6.557290e-01	-8.796768e+01
8.200000e-07	1.046741e-08	-1.213418e-09	7.437252e-02	-8.072383e+01
8.300000e-07	1.132877e-07	-1.103896e-09	8.049256e-01	-7.332703e+01
8.400000e-07	2.160858e-07	-9.910538e-10	1.535322e+00	-6.576507e+01
8.500000e-07	3.188262e-07	-8.734090e-10	2.265307e+00	-5.802486e+01
8.600000e-07	4.214519e-07	-7.514841e-10	2.994479e+00	-5.009318e+01
8.700000e-07	5.239731e-07	-6.260849e-10	3.722906e+00	-4.195765e+01
8.800000e-07	6.263743e-07	-5.002440e-10	4.450482e+00	-3.360758e+01
8.900000e-07	7.285528e-07	-3.713035e-10	5.176476e+00	-2.503493e+01
9.000000e-07	8.304259e-07	-2.370557e-10	5.900299e+00	-1.623499e+01
9.100000e-07	9.319613e-07	-9.860513e-11	6.621724e+00	-7.207081e+00
9.200000e-07	1.033170e-06	4.285201e-11	7.340826e+00	2.045020e+00
9.300000e-07	1.134007e-06	1.870169e-10	8.057288e+00	1.151282e+01
9.400000e-07	1.234473e-06	3.352253e-10	8.771113e+00	2.118299e+01
9.500000e-07	1.334564e-06	4.852277e-10	9.482272e+00	3.103748e+01
9.600000e-07	1.434244e-06	6.363641e-10	1.019052e+01	4.105368e+01
9.700000e-07	1.533434e-06	7.912233e-10	1.089528e+01	5.120481e+01
9.800000e-07	1.632002e-06	9.489677e-10	1.159562e+01	6.146037e+01
9.900000e-07	1.729796e-06	1.106995e-09	1.229046e+01	7.178665e+01
1.000000e-06	1.826674e-06	1.267105e-09	1.297879e+01	8.214744e+01
1.010000e-06	1.922748e-06	1.429053e-09	1.366141e+01	9.250469e+01
1.020000e-06	2.018137e-06	1.592085e-09	1.433917e+01	1.028193e+02
1.030000e-06	2.112796e-06	1.750773e-09	1.501173e+01	1.130521e+02
1.040000e-06	2.206738e-06	1.902848e-09	1.567920e+01	1.231646e+02
1.050000e-06	2.299915e-06	2.053014e-09	1.634124e+01	1.331198e+02
1.060000e-06	2.392344e-06	2.199880e-09	1.699796e+01	1.428835e+02
1.070000e-06	2.484143e-06	2.343197e-09	1.765021e+01	1.524247e+02
1.080000e-06	2.575175e-06	2.483474e-09	1.829700e+01	1.617166e+02
1.090000e-06	2.665110e-06	2.622294e-09	1.893600e+01	1.707367e+02
1.100000e-06	2.753847e-06	2.757480e-09	1.956649e+01	1.794679e+02
1.110000e-06	2.841561e-06	2.885055e-09	2.018971e+01	1.878981e+02
1.120000e-06	2.928397e-06	3.008314e-09	2.080669e+01	1.960202e+02
1.130000e-06	3.014285e-06	3.129159e-09	2.141694e+01	2.038319e+02
1.140000e-06	3.099137e-06	3.246001e-09	2.201983e+01	2.113354e+02
1.150000e-06	3.183081e-06	3.354109e-09	2.261626e+01	2.185363e+02
1.160000e-06	3.266053e-06	3.455419e-09	2.320580e+01	2.254434e+02
1.170000e-06	3.347799e-06	3.553259e-09	2.378661e+01	2.320677e+02
1.180000e-06	3.428274e-06	3.647734e-09	2.435839e+01	2.384215e+02
1.190000e-06	3.507521e-06	3.740611e-09	2.492146e+01	2.445183e+02
1.200000e-06	3.585528e-06	3.831888e-09	2.547571e+01	2.503716e+02
1.210000e-06	3.662307e-06	3.920475e-09	2.602124e+01	2.559947e+02
1.220000e-06	3.737767e-06	4.005255e-09	2.655739e+01	2.614004e+02
1.230000e-06	3.811618e-06	4.085036e-09	2.708211e+01	2.666007e+02
1.240000e-06	3.883851e-06	4.160471e-09	2.759534e+01	2.716068e+02
1.250000e-06	3.954677e-06	4.231665e-09	2.809857e+01	2.764284e+02
1.260000e-06	4.024118e-06	4.299585e-09	2.859196e+01	2.810745e+02
1.270000e-06	4.092195e-06	4.367812e-09	2.907566e+01	2.855524e+02
1.280000e-06	4.158828e-06	4.436104e-09	2.954909e+01	2.898683e+02
1.290000e-06	4.223807e-06	4.501243e-09	3.001078e+01	2.940271e+02
1.300000e-06	4.287223e-06	4.562249e-09	3.046135e+01	2.980320e+02
1.310000e-06	4.349198e-06	4.619483e-09	3.090170e+01	3.018850e+02
1.320000e-06	4.409781e-06	4.673461e-09	3.133215e+01	3.055867e+02
1.330000e-06	4.468963e-06	4.724868e-09	3.175265e+01	3.091368e+02
1.340000e-06	4.526462e-06	4.773636e-09	3.216118e+01	3.125338e+02
1.350000e-06	4.582150e-06	4.819840e-09	3.255685e+01	3.157760e+02
1.360000e-06	4.636169e-06	4.863237e-09	3.294067e+01	3.188616e+02
1.370000e-06	4.688494e-06	4.904941e-09	3.331245e+01	3.217893e+02
1.380000e-06	4.738847e-06	4.945993e-09	3.367021e+01	3.245587e+02
1.390000e-06	4.787203e-06	4.984824e-09	3.401379e+01	3.271708e+02
1.400000e-06	4.833811e-06	5.020139e-09	3.434494e+01	3.296280e+02
1.410000e-06	4.878827e-06	5.051251e-09	3.466479e+01	3.319348e+02
1.420000e-06	4.922269e-06	5.079757e-09	3.497346e+01	3.340971e+02
1.430000e-06	4.963886e-06	5.108174e-09	3.526915e+01	3.361222e+02
1.440000e-06	5.003637e-06	5.135665e-09	3.555159e+01	3.380184e+02
1.450000e-06	5.041668e-06	5.160899e-09	3.582180e+01	3.397947e+02
1.460000e-06	5.078055e-06	5.184447e-09	3.608034e+01	3.414595e+02
1.470000e-06	5.112730e-06	5.207683e-09	3.632671e+01	3.430209e+02
1.480000e-06	5.145437e-06	5.229839e-09	3.655910e+01	3.444853e+02
1.490000e-06	5.176319e-06	5.249606e-09	3.677852e+01	3.458579e+02
1.500000e-06	5.205546e-06	5.267198e-09	3.698618e+01	3.471417e+02
1.510000e-06	5.233034e-06	5.284448e-09	3.718148e+01	3.483384e+02
1.520000e-06	5.258520e-06	5.300398e-09	3.736257e+01	3.494476e+02
1.530000e-06	5.281939e-06	5.314388e-09	3.752896e+01	3.504683e+02
1.540000e-06	5.303542e-06	5.328133e-09	3.768246e+01	3.513986e+02
1.550000e-06	5.323430e-06	5.340815e-09	3.782376e+01	3.522366e+02
1.560000e-06	5.341382e-06	5.352378e-09	3.795131e+01	3.529808e+02
1.570000e-06	5.357248e-06	5.363485e-09	3.806404e+01	3.536306e+02
1.580000e-06	5.371170e-06	5.373304e-09	3.816296e+01	3.541863e+02
1.590000e-06	5.383166e-06	5.381109e-09	3.824820e+01	3.546496e+02
1.600000e-06	5.393004e-06	5.387706e-09	3.831809e+01	3.550230e+02
1.610000e-06	5.400717e-06	5.392558e-09	3.837290e+01	3.553096e+02
1.620000e-06	5.406533e-06	5.397535e-09	3.841422e+01	3.555129e+02
1.630000e-06	5.410615e-06	5.402329e-09	3.844322e+01	3.556364e+02
1.640000e-06	5.412825e-06	5.403744e-09	3.845893e+01	3.556830e+02
1.650000e-06	5.412976e-06	5.402637e-09	3.846000e+01	3.556546e+02
1.660000e-06	5.411290e-06	5.400153e-09	3.844802e+01	3.555524e+02
1.670000e-06	5.407929e-06	5.395990e-09	3.842414e+01	3.553766e+02
1.680000e-06	5.402864e-06	5.394436e-09	3.838815e+01	3.551265e+02
1.690000e-06	5.395929e-06	5.391448e-09	3.833888e+01	3.548013e+02
1.700000e-06	5.387229e-06	5.385138e-09	3.827706e+01	3.544000e+02
1.710000e-06	5.376925e-06	5.377745e-09	3.820385e+01	3.539221e+02
1.720000e-06	5.364846e-06	5.365473e-09	3.811803e+01	3.533680e+02
1.730000e-06	5.350806e-06	5.357304e-09	3.801827e+01	3.527389e+02
1.740000e-06	5.334699e-06	5.340089e-09	3.790383e+01	3.520373e+02
1.750000e-06	5.316187e-06	5.309930e-09	3.777230e+01	3.512664e+02
1.760000e-06	5.294961e-06	5.314466e-09	3.762149e+01	3.504301e+02
1.770000e-06	5.271524e-06	5.307434e-09	3.745496e+01	3.495323e+02
1.780000e-06	5.246959e-06	5.310915e-09	3.728042e+01	3.485765e+02
1.790000e-06	5.221658e-06	5.333278e-09	3.710066e+01	3.475651e+02
1.800000e-06	5.194782e-06	5.233085e-09	3.690970e+01	3.464989e+02
1.810000e-06	5.165723e-06	5.238517e-09	3.670323e+01	3.453769e+02
1.820000e-06	5.134865e-06	5.277008e-09	3.648398e+01	3.441961e+02
1.830000e-06	5.102265e-06	5.170270e-09	3.625235e+01	3.429519e+02
1.840000e-06	5.067742e-06	5.199513e-09	3.600706e+01	3.416381e+02
1.850000e-06	5.031600e-06	5.211981e-09	3.575026e+01	3.402479e+02
1.860000e-06	4.993646e-06	5.117385e-09	3.548060e+01	3.387742e+02
1.870000e-06	4.953820e-06	5.143404e-09	3.519763e+01	3.372110e+02
1.880000e-06	4.912349e-06	5.109915e-09	3.490297e+01	3.355533e+02
1.890000e-06	4.869085e-06	5.074046e-09	3.459557e+01	3.337983e+02
1.900000e-06	4.824177e-06	5.078118e-09	3.427649e+01	3.319451e+02
1.910000e-06	4.777349e-06	4.989328e-09	3.394377e+01	3.299953e+02
1.920000e-06	4.728478e-06	4.997752e-09	3.359654e+01	3.279524e+02
1.930000e-06	4.678057e-06	4.969297e-09	3.323829e+01	3.258214e+02
1.940000e-06	4.625859e-06	4.917133e-09	3.286741e+01	3.236083e+02
1.950000e-06	4.571590e-06	4.905315e-09	3.248183e+01	3.213189e+02
1.960000e-06	4.515438e-06	4.825175e-09	3.208286e+01	3.189586e+02
1.970000e-06	4.457594e-06	4.811094e-09	3.167187e+01	3.165315e+02
1.980000e-06	4.398310e-06	4.778652e-09	3.125065e+01	3.140397e+02
1.990000e-06	4.337513e-06	4.747737e-09	3.081867e+01	3.114838e+02
2.000000e-06	4.275015e-06	4.734832e-09	3.037461e+01	3.088622e+02
2.010000e-06	4.210909e-06	4.639092e-09	2.991914e+01	3.061720e+02
2.020000e-06	4.145311e-06	4.605708e-09	2.945305e+01	3.034093e+02
2.030000e-06	4.078350e-06	4.565436e-09	2.897729e+01	3.005696e+02
2.040000e-06	4.009978e-06	4.532515e-09	2.849149e+01	2.976488e+02
2.050000e-06	3.939987e-06	4.501830e-09	2.799419e+01	2.946436e+02
2.060000e-06	3.868442e-06	4.432811e-09	2.748586e+01	2.915520e+02
2.070000e-06	3.795593e-06	4.404339e-09	2.696825e+01	2.883733e+02
2.080000e-06	3.721477e-06	4.335734e-09	2.644165e+01	2.851083e+02
2.090000e-06	3.646001e-06	4.287783e-09	2.590538e+01	2.817590e+02
2.100000e-06	3.569021e-06	4.242346e-09	2.535842e+01	2.783280e+02
2.110000e-06	3.490422e-06	4.184404e-09	2.479997e+01	2.748183e+02
2.120000e-06	3.410583e-06	4.134185e-09	2.423270e+01	2.712325e+02
2.130000e-06	3.329671e-06	4.060033e-09	2.365781e+01	2.675723e+02
2.140000e-06	3.247508e-06	4.022108e-09	2.307403e+01	2.638381e+02
2.150000e-06	3.164295e-06	3.971655e-09	2.248278e+01	2.600291e+02
2.160000e-06	3.080121e-06	3.907880e-09	2.188472e+01	2.561430e+02
2.170000e-06	2.994687e-06	3.841973e-09	2.127769e+01	2.521764e+02
2.180000e-06	2.907916e-06	3.782270e-09	2.066118e+01	2.481252e+02
2.190000e-06	2.820086e-06	3.732155e-09	2.003713e+01	2.439850e+02
2.200000e-06	2.731320e-06	3.671768e-09	1.940644e+01	2.397518e+02
2.210000e-06	2.641603e-06	3.606316e-09	1.876898e+01	2.354224e+02
2.220000e-06	2.550938e-06	3.525824e-09	1.812480e+01	2.309945e+02
2.230000e-06	2.459458e-06	3.451812e-09	1.747481e+01	2.264673e+02
2.240000e-06	2.367299e-06	3.380959e-09	1.682001e+01	2.218411e+02
2.250000e-06	2.274298e-06	3.320347e-09	1.615923e+01	2.171174e+02
2.260000e-06	2.180283e-06	3.259620e-09	1.549124e+01	2.122982e+02
2.270000e-06	2.085279e-06	3.185056e-09	1.481622e+01	2.073855e+02
2.280000e-06	1.989412e-06	3.102564e-09	1.413507e+01	2.023812e+02
2.290000e-06	1.892842e-06	3.018385e-09	1.344893e+01	1.972864e+02
2.300000e-06	1.795709e-06	2.943185e-09	1.275878e+01	1.921008e+02
2.310000e-06	1.698088e-06	2.870155e-09	1.206517e+01	1.868232e+02
2.320000e-06	1.599917e-06	2.788965e-09	1.136765e+01	1.814508e+02
2.330000e-06	1.501179e-06	2.697550e-09	1.066610e+01	1.759800e+02
2.340000e-06	1.401968e-06	2.612602e-09	9.961194e+00	1.704065e+02
2.350000e-06	1.302384e-06	2.531144e-09	9.253631e+00	1.647258e+02
2.360000e-06	1.202512e-06	2.445821e-09	8.544028e+00	1.589336e+02
2.370000e-06	1.102418e-06	2.355148e-09	7.832847e+00	1.530265e+02
2.380000e-06	1.002017e-06	2.260178e-09	7.119478e+00	1.470017e+02
2.390000e-06	9.011494e-07	2.166477e-09	6.402801e+00	1.408577e+02
2.400000e-06	7.997841e-07	2.072082e-09	5.682585e+00	1.345939e+02
2.410000e-06	6.980331e-07	1.978403e-09	4.959629e+00	1.282104e+02
2.420000e-06	5.960789e-07	1.881757e-09	4.235229e+00	1.217072e+02
2.430000e-06	4.938463e-07	1.776492e-09	3.508851e+00	1.150843e+02
2.440000e-06	3.912756e-07	1.668163e-09	2.780071e+00	1.083403e+02
2.450000e-06	2.884963e-07	1.565474e-09	2.049809e+00	1.014727e+02
2.460000e-06	1.855670e-07	1.463566e-09	1.318481e+00	9.447653e+01
2.470000e-06	8.257150e-08	1.355567e-09	5.866828e-01	8.734504e+01
2.480000e-06	-2.045915e-08	1.239607e-09	-1.453653e-01	8.006911e+01
2.490000e-06	-1.234688e-07	1.119484e-09	-8.772645e-01	7.263772e+01
2.500000e-06	-2.264662e-07	1.001781e-09	-1.609076e+00	6.503842e+01
2.510000e-06	-3.294365e-07	8.871865e-10	-2.340696e+00	5.725801e+01
2.520000e-06	-4.322284e-07	7.715013e-10	-3.071047e+00	4.928339e+01
2.530000e-06	-5.348148e-07	6.482157e-10	-3.799939e+00	4.110244e+01
2.540000e-06	-6.372013e-07	5.179509e-10	-4.527410e+00	3.270499e+01
2.550000e-06	-7.392593e-07	3.846838e-10	-5.252547e+00	2.408363e+01
2.560000e-06	-8.408301e-07	2.481681e-10	-5.974223e+00	1.523449e+01
2.570000e-06	-9.419344e-07	1.080454e-10	-6.692584e+00	6.157804e+00
2.580000e-06	-1.042638e-06	-3.447404e-11	-7.408098e+00	-3.141660e+00
2.590000e-06	-1.142963e-06	-1.797916e-10	-8.120922e+00	-1.265437e+01
2.600000e-06	-1.242925e-06	-3.262085e-10	-8.831164e+00	-2.236599e+01
2.610000e-06	-1.342492e-06	-4.740697e-10	-9.538606e+00	-3.225744e+01
2.620000e-06	-1.441597e-06	-6.257002e-10	-1.024276e+01	-4.230521e+01
2.630000e-06	-1.540192e-06	-7.795844e-10	-1.094329e+01	-5.248167e+01
2.640000e-06	-1.638276e-06	-9.354101e-10	-1.164019e+01	-6.275557e+01
2.650000e-06	-1.735759e-06	-1.092556e-09	-1.233283e+01	-7.309264e+01
2.660000e-06	-1.832605e-06	-1.250023e-09	-1.302093e+01	-8.345619e+01
2.670000e-06	-1.928929e-06	-1.407211e-09	-1.370532e+01	-9.380788e+01
2.680000e-06	-2.024744e-06	-1.562980e-09	-1.438610e+01	-1.041085e+02
2.690000e-06	-2.119902e-06	-1.717005e-09	-1.506222e+01	-1.143190e+02
2.700000e-06	-2.214115e-06	-1.870510e-09	-1.573161e+01	-1.244011e+02
2.710000e-06	-2.307222e-06	-2.023379e-09	-1.639316e+01	-1.343183e+02
2.720000e-06	-2.399388e-06	-2.171836e-09	-1.704801e+01	-1.440371e+02
2.730000e-06	-2.490731e-06	-2.315053e-09	-1.769702e+01	-1.535272e+02
2.740000e-06	-2.581197e-06	-2.455364e-09	-1.833979e+01	-1.627628e+02
2.750000e-06	-2.670700e-06	-2.594013e-09	-1.897572e+01	-1.717226e+02
2.760000e-06	-2.759295e-06	-2.727533e-09	-1.960520e+01	-1.803904e+02
2.770000e-06	-2.847132e-06	-2.854109e-09	-2.022930e+01	-1.887553e+02
2.780000e-06	-2.934086e-06	-2.976072e-09	-2.084712e+01	-1.968111e+02
2.790000e-06	-3.019856e-06	-3.094868e-09	-2.145653e+01	-2.045568e+02
2.800000e-06	-3.104393e-06	-3.211176e-09	-2.205717e+01	-2.119951e+02
2.810000e-06	-3.187852e-06	-3.323433e-09	-2.265016e+01	-2.191325e+02
2.820000e-06	-3.270278e-06	-3.428626e-09	-2.323581e+01	-2.259782e+02
2.830000e-06	-3.351631e-06	-3.528467e-09	-2.381384e+01	-2.325437e+02
2.840000e-06	-3.432000e-06	-3.623581e-09	-2.438487e+01	-2.388416e+02
2.850000e-06	-3.511216e-06	-3.715256e-09	-2.494771e+01	-2.448853e+02
2.860000e-06	-3.588871e-06	-3.805800e-09	-2.549946e+01	-2.506884e+02
2.870000e-06	-3.664947e-06	-3.891820e-09	-2.603999e+01	-2.562641e+02
2.880000e-06	-3.739639e-06	-3.972764e-09	-2.657069e+01	-2.616251e+02
2.890000e-06	-3.812958e-06	-4.050840e-09	-2.709163e+01	-2.667832e+02
2.900000e-06	-3.884964e-06	-4.127763e-09	-2.760325e+01	-2.717492e+02
2.910000e-06	-3.955568e-06	-4.201578e-09	-2.810490e+01	-2.765328e+02
2.920000e-06	-4.024548e-06	-4.270948e-09	-2.859501e+01	-2.811425e+02
2.930000e-06	-4.092066e-06	-4.338600e-09	-2.907474e+01	-2.855855e+02
2.940000e-06	-4.158205e-06	-4.404014e-09	-2.954466e+01	-2.898677e+02
