# Temperatura_=_47.74
# Concentracion g/m^3_=_15000.0
# C_Vs_to_Am_M_A/Vsm_=_65563218390.804596
# pendiente_HvsI_1/m_=_3716.3
# ordenada_HvsI_A/m_=_1297.0
# frecuencia_Hz_=_301571.0052147607

Tiempo_(s)	Campo_(V.s)	Magnetizacion_(V.s)	Campo_(kA/m)	Magnetizacion_(A/m)
0.000000e+00	-5.379411e-06	-5.268029e-09	-3.834174e+01	-3.440650e+02
1.000000e-08	-5.376389e-06	-5.264878e-09	-3.832020e+01	-3.438867e+02
2.000000e-08	-5.371655e-06	-5.258324e-09	-3.828645e+01	-3.436372e+02
3.000000e-08	-5.365323e-06	-5.250746e-09	-3.824133e+01	-3.433172e+02
4.000000e-08	-5.357400e-06	-5.243227e-09	-3.818485e+01	-3.429276e+02
5.000000e-08	-5.347564e-06	-5.235738e-09	-3.811475e+01	-3.424696e+02
6.000000e-08	-5.335641e-06	-5.229682e-09	-3.802976e+01	-3.419444e+02
7.000000e-08	-5.321798e-06	-5.224845e-09	-3.793110e+01	-3.413535e+02
8.000000e-08	-5.305840e-06	-5.218932e-09	-3.781736e+01	-3.406985e+02
9.000000e-08	-5.287709e-06	-5.231845e-09	-3.768813e+01	-3.399809e+02
1.000000e-07	-5.267563e-06	-5.227700e-09	-3.754454e+01	-3.392021e+02
1.100000e-07	-5.245514e-06	-5.188476e-09	-3.738739e+01	-3.383632e+02
1.200000e-07	-5.221801e-06	-5.157342e-09	-3.721837e+01	-3.374645e+02
1.300000e-07	-5.196515e-06	-5.116411e-09	-3.703814e+01	-3.365058e+02
1.400000e-07	-5.169611e-06	-5.085257e-09	-3.684639e+01	-3.354863e+02
1.500000e-07	-5.141110e-06	-5.145950e-09	-3.664325e+01	-3.344043e+02
1.600000e-07	-5.111117e-06	-5.119025e-09	-3.642947e+01	-3.332572e+02
1.700000e-07	-5.079473e-06	-5.073317e-09	-3.620393e+01	-3.320422e+02
1.800000e-07	-5.045705e-06	-5.089147e-09	-3.596325e+01	-3.307558e+02
1.900000e-07	-5.010195e-06	-5.000894e-09	-3.571015e+01	-3.293948e+02
2.000000e-07	-4.973222e-06	-4.978878e-09	-3.544663e+01	-3.279559e+02
2.100000e-07	-4.934447e-06	-4.999335e-09	-3.517026e+01	-3.264363e+02
2.200000e-07	-4.893827e-06	-4.944419e-09	-3.488074e+01	-3.248340e+02
2.300000e-07	-4.851239e-06	-4.950215e-09	-3.457719e+01	-3.231478e+02
2.400000e-07	-4.806756e-06	-4.944703e-09	-3.426014e+01	-3.213777e+02
2.500000e-07	-4.760546e-06	-4.865970e-09	-3.393078e+01	-3.195245e+02
2.600000e-07	-4.712420e-06	-4.833714e-09	-3.358776e+01	-3.175900e+02
2.700000e-07	-4.662210e-06	-4.799176e-09	-3.322989e+01	-3.155765e+02
2.800000e-07	-4.609964e-06	-4.779508e-09	-3.285751e+01	-3.134870e+02
2.900000e-07	-4.555889e-06	-4.767018e-09	-3.247209e+01	-3.113246e+02
3.000000e-07	-4.500252e-06	-4.741967e-09	-3.207554e+01	-3.090920e+02
3.100000e-07	-4.442906e-06	-4.696980e-09	-3.166680e+01	-3.067917e+02
3.200000e-07	-4.383777e-06	-4.629507e-09	-3.124536e+01	-3.044253e+02
3.300000e-07	-4.323120e-06	-4.588282e-09	-3.081303e+01	-3.019935e+02
3.400000e-07	-4.261042e-06	-4.549314e-09	-3.037056e+01	-2.994961e+02
3.500000e-07	-4.197612e-06	-4.523532e-09	-2.991847e+01	-2.969319e+02
3.600000e-07	-4.132592e-06	-4.499988e-09	-2.945503e+01	-2.942989e+02
3.700000e-07	-4.065857e-06	-4.458209e-09	-2.897938e+01	-2.915946e+02
3.800000e-07	-3.997665e-06	-4.416004e-09	-2.849335e+01	-2.888161e+02
3.900000e-07	-3.928130e-06	-4.360830e-09	-2.799773e+01	-2.859605e+02
4.000000e-07	-3.857305e-06	-4.306251e-09	-2.749293e+01	-2.830253e+02
4.100000e-07	-3.785251e-06	-4.262535e-09	-2.697936e+01	-2.800085e+02
4.200000e-07	-3.711738e-06	-4.214143e-09	-2.645540e+01	-2.769087e+02
4.300000e-07	-3.636571e-06	-4.175949e-09	-2.591965e+01	-2.737255e+02
4.400000e-07	-3.559865e-06	-4.136615e-09	-2.537293e+01	-2.704589e+02
4.500000e-07	-3.481797e-06	-4.085204e-09	-2.481650e+01	-2.671100e+02
4.600000e-07	-3.402414e-06	-4.017570e-09	-2.425070e+01	-2.636798e+02
4.700000e-07	-3.321781e-06	-3.947578e-09	-2.367598e+01	-2.601699e+02
4.800000e-07	-3.239912e-06	-3.896581e-09	-2.309246e+01	-2.565815e+02
4.900000e-07	-3.156864e-06	-3.852877e-09	-2.250054e+01	-2.529155e+02
5.000000e-07	-3.072889e-06	-3.806531e-09	-2.190201e+01	-2.491723e+02
5.100000e-07	-2.988020e-06	-3.748067e-09	-2.129711e+01	-2.453513e+02
5.200000e-07	-2.902180e-06	-3.679425e-09	-2.068528e+01	-2.414513e+02
5.300000e-07	-2.815347e-06	-3.603422e-09	-2.006638e+01	-2.374703e+02
5.400000e-07	-2.727560e-06	-3.534997e-09	-1.944067e+01	-2.334056e+02
5.500000e-07	-2.638775e-06	-3.475932e-09	-1.880786e+01	-2.292542e+02
5.600000e-07	-2.548831e-06	-3.416719e-09	-1.816679e+01	-2.250130e+02
5.700000e-07	-2.457838e-06	-3.356272e-09	-1.751823e+01	-2.206790e+02
5.800000e-07	-2.365992e-06	-3.287860e-09	-1.686360e+01	-2.162496e+02
5.900000e-07	-2.273336e-06	-3.217271e-09	-1.620320e+01	-2.117226e+02
6.000000e-07	-2.179866e-06	-3.142749e-09	-1.553699e+01	-2.070967e+02
6.100000e-07	-2.085673e-06	-3.065890e-09	-1.486563e+01	-2.023712e+02
6.200000e-07	-1.990812e-06	-2.989872e-09	-1.418950e+01	-1.975462e+02
6.300000e-07	-1.895231e-06	-2.916239e-09	-1.350825e+01	-1.926219e+02
6.400000e-07	-1.798908e-06	-2.846146e-09	-1.282171e+01	-1.875991e+02
6.500000e-07	-1.701857e-06	-2.774234e-09	-1.212998e+01	-1.824784e+02
6.600000e-07	-1.604082e-06	-2.693685e-09	-1.143309e+01	-1.772605e+02
6.700000e-07	-1.505604e-06	-2.605314e-09	-1.073119e+01	-1.719453e+02
6.800000e-07	-1.406505e-06	-2.518314e-09	-1.002486e+01	-1.665327e+02
6.900000e-07	-1.306943e-06	-2.432508e-09	-9.315229e+00	-1.610215e+02
7.000000e-07	-1.207049e-06	-2.347860e-09	-8.603238e+00	-1.554104e+02
7.100000e-07	-1.106840e-06	-2.263545e-09	-7.889000e+00	-1.496974e+02
7.200000e-07	-1.006331e-06	-2.176234e-09	-7.172618e+00	-1.438802e+02
7.300000e-07	-9.055098e-07	-2.083141e-09	-6.454018e+00	-1.379565e+02
7.400000e-07	-8.043766e-07	-1.988471e-09	-5.733192e+00	-1.319237e+02
7.500000e-07	-7.029691e-07	-1.896558e-09	-5.010410e+00	-1.257793e+02
7.600000e-07	-6.013034e-07	-1.803594e-09	-4.285788e+00	-1.195209e+02
7.700000e-07	-4.994174e-07	-1.705469e-09	-3.559596e+00	-1.131459e+02
7.800000e-07	-3.973498e-07	-1.604808e-09	-2.832110e+00	-1.066513e+02
7.900000e-07	-2.951544e-07	-1.505058e-09	-2.103712e+00	-1.000338e+02
8.000000e-07	-1.928940e-07	-1.402253e-09	-1.374851e+00	-9.328927e+01
8.100000e-07	-9.054387e-08	-1.297653e-09	-6.453512e-01	-8.641244e+01
8.200000e-07	1.187013e-08	-1.192552e-09	8.460432e-02	-7.939680e+01
8.300000e-07	1.142467e-07	-1.084728e-09	8.142932e-01	-7.223449e+01
8.400000e-07	2.165888e-07	-9.731693e-10	1.543736e+00	-6.491629e+01
8.500000e-07	3.189373e-07	-8.604285e-10	2.273224e+00	-5.743190e+01
8.600000e-07	4.212223e-07	-7.458137e-10	3.002261e+00	-4.977031e+01
8.700000e-07	5.233804e-07	-6.258295e-10	3.730392e+00	-4.192040e+01
8.800000e-07	6.253879e-07	-5.035669e-10	4.457451e+00	-3.387171e+01
8.900000e-07	7.272140e-07	-3.794222e-10	5.183216e+00	-2.561526e+01
9.000000e-07	8.287913e-07	-2.530159e-10	5.907208e+00	-1.714444e+01
9.100000e-07	9.300010e-07	-1.218860e-10	6.628580e+00	-8.455934e+00
9.200000e-07	1.030835e-06	1.486191e-11	7.347273e+00	4.495704e-01
9.300000e-07	1.131348e-06	1.555261e-10	8.063677e+00	9.566705e+00
9.400000e-07	1.231523e-06	2.991369e-10	8.777680e+00	1.888503e+01
9.500000e-07	1.331347e-06	4.442465e-10	9.489170e+00	2.838885e+01
9.600000e-07	1.430727e-06	5.912296e-10	1.019750e+01	3.805733e+01
9.700000e-07	1.529533e-06	7.398745e-10	1.090174e+01	4.786479e+01
9.800000e-07	1.627620e-06	8.900133e-10	1.160086e+01	5.778130e+01
9.900000e-07	1.724910e-06	1.042392e-09	1.229429e+01	6.777345e+01
1.000000e-06	1.821469e-06	1.198755e-09	1.298251e+01	7.780516e+01
1.010000e-06	1.917314e-06	1.355901e-09	1.366565e+01	8.783874e+01
1.020000e-06	2.012416e-06	1.511487e-09	1.434349e+01	9.783577e+01
1.030000e-06	2.106815e-06	1.664467e-09	1.501632e+01	1.077581e+02
1.040000e-06	2.200529e-06	1.813813e-09	1.568426e+01	1.175688e+02
1.050000e-06	2.293459e-06	1.959382e-09	1.634662e+01	1.272328e+02
1.060000e-06	2.385647e-06	2.101334e-09	1.700369e+01	1.367176e+02
1.070000e-06	2.477185e-06	2.240411e-09	1.765613e+01	1.459939e+02
1.080000e-06	2.567949e-06	2.376288e-09	1.830305e+01	1.550361e+02
1.090000e-06	2.657657e-06	2.509322e-09	1.894244e+01	1.638223e+02
1.100000e-06	2.746170e-06	2.639193e-09	1.957332e+01	1.723350e+02
1.110000e-06	2.833687e-06	2.763254e-09	2.019710e+01	1.805610e+02
1.120000e-06	2.920299e-06	2.882635e-09	2.081442e+01	1.884912e+02
1.130000e-06	3.005964e-06	3.001409e-09	2.142500e+01	1.961211e+02
1.140000e-06	3.090649e-06	3.117396e-09	2.202859e+01	2.034504e+02
1.150000e-06	3.174393e-06	3.223936e-09	2.262548e+01	2.104827e+02
1.160000e-06	3.257098e-06	3.321759e-09	2.321496e+01	2.172251e+02
1.170000e-06	3.338515e-06	3.415572e-09	2.379526e+01	2.236881e+02
1.180000e-06	3.418723e-06	3.506308e-09	2.436694e+01	2.298845e+02
1.190000e-06	3.497690e-06	3.597211e-09	2.492978e+01	2.358291e+02
1.200000e-06	3.575391e-06	3.687044e-09	2.548359e+01	2.415379e+02
1.210000e-06	3.651907e-06	3.772337e-09	2.602896e+01	2.470270e+02
1.220000e-06	3.727052e-06	3.854636e-09	2.656455e+01	2.523121e+02
1.230000e-06	3.800597e-06	3.934190e-09	2.708874e+01	2.574076e+02
1.240000e-06	3.872548e-06	4.010747e-09	2.760157e+01	2.623262e+02
1.250000e-06	3.943091e-06	4.083270e-09	2.810437e+01	2.670780e+02
1.260000e-06	4.012300e-06	4.151694e-09	2.859766e+01	2.716707e+02
1.270000e-06	4.080198e-06	4.218362e-09	2.908160e+01	2.761090e+02
1.280000e-06	4.146677e-06	4.282202e-09	2.955543e+01	2.803952e+02
1.290000e-06	4.211489e-06	4.341607e-09	3.001738e+01	2.845293e+02
1.300000e-06	4.274724e-06	4.397675e-09	3.046808e+01	2.885097e+02
1.310000e-06	4.336556e-06	4.455096e-09	3.090879e+01	2.923334e+02
1.320000e-06	4.396988e-06	4.512984e-09	3.133952e+01	2.959974e+02
1.330000e-06	4.455990e-06	4.567051e-09	3.176006e+01	2.994985e+02
1.340000e-06	4.513270e-06	4.616960e-09	3.216832e+01	3.028347e+02
1.350000e-06	4.568734e-06	4.664346e-09	3.256364e+01	3.060053e+02
1.360000e-06	4.622575e-06	4.707403e-09	3.294739e+01	3.090111e+02
1.370000e-06	4.674677e-06	4.745396e-09	3.331875e+01	3.118551e+02
1.380000e-06	4.724760e-06	4.782020e-09	3.367571e+01	3.145417e+02
1.390000e-06	4.772871e-06	4.817073e-09	3.401863e+01	3.170771e+02
1.400000e-06	4.819279e-06	4.849808e-09	3.434940e+01	3.194683e+02
1.410000e-06	4.864107e-06	4.881455e-09	3.466891e+01	3.217234e+02
1.420000e-06	4.907350e-06	4.914219e-09	3.497712e+01	3.238504e+02
1.430000e-06	4.948742e-06	4.945475e-09	3.527215e+01	3.258570e+02
1.440000e-06	4.988259e-06	4.973277e-09	3.555380e+01	3.277503e+02
1.450000e-06	5.026120e-06	4.998380e-09	3.582366e+01	3.295360e+02
1.460000e-06	5.062394e-06	5.021402e-09	3.608220e+01	3.312188e+02
1.470000e-06	5.096954e-06	5.044087e-09	3.632852e+01	3.328017e+02
1.480000e-06	5.129556e-06	5.063763e-09	3.656090e+01	3.342868e+02
1.490000e-06	5.160308e-06	5.081049e-09	3.678008e+01	3.356749e+02
1.500000e-06	5.189392e-06	5.098125e-09	3.698738e+01	3.369658e+02
1.510000e-06	5.216765e-06	5.114982e-09	3.718248e+01	3.381593e+02
1.520000e-06	5.242168e-06	5.131328e-09	3.736354e+01	3.392547e+02
1.530000e-06	5.265529e-06	5.147199e-09	3.753004e+01	3.402517e+02
1.540000e-06	5.287066e-06	5.162334e-09	3.768355e+01	3.411502e+02
1.550000e-06	5.306869e-06	5.175613e-09	3.782469e+01	3.419510e+02
1.560000e-06	5.324783e-06	5.186865e-09	3.795238e+01	3.426554e+02
1.570000e-06	5.340656e-06	5.196737e-09	3.806551e+01	3.432652e+02
1.580000e-06	5.354614e-06	5.204714e-09	3.816499e+01	3.437831e+02
1.590000e-06	5.366644e-06	5.210061e-09	3.825074e+01	3.442118e+02
1.600000e-06	5.376425e-06	5.214250e-09	3.832045e+01	3.445544e+02
1.610000e-06	5.384064e-06	5.218736e-09	3.837490e+01	3.448138e+02
1.620000e-06	5.389871e-06	5.224797e-09	3.841629e+01	3.449929e+02
1.630000e-06	5.393919e-06	5.231617e-09	3.844514e+01	3.450940e+02
1.640000e-06	5.395990e-06	5.235560e-09	3.845990e+01	3.451193e+02
1.650000e-06	5.396004e-06	5.236233e-09	3.846000e+01	3.450703e+02
1.660000e-06	5.394257e-06	5.232946e-09	3.844755e+01	3.449484e+02
1.670000e-06	5.390898e-06	5.226233e-09	3.842361e+01	3.447544e+02
1.680000e-06	5.385832e-06	5.221914e-09	3.838750e+01	3.444894e+02
1.690000e-06	5.378862e-06	5.217663e-09	3.833782e+01	3.441541e+02
1.700000e-06	5.370171e-06	5.212385e-09	3.827588e+01	3.437495e+02
1.710000e-06	5.359922e-06	5.206673e-09	3.820283e+01	3.432766e+02
1.720000e-06	5.347956e-06	5.201320e-09	3.811754e+01	3.427369e+02
1.730000e-06	5.333990e-06	5.196451e-09	3.801800e+01	3.421318e+02
1.740000e-06	5.317832e-06	5.162826e-09	3.790283e+01	3.414630e+02
1.750000e-06	5.299259e-06	5.135489e-09	3.777045e+01	3.407319e+02
1.760000e-06	5.278015e-06	5.146130e-09	3.761903e+01	3.399398e+02
1.770000e-06	5.254604e-06	5.150725e-09	3.745217e+01	3.390877e+02
1.780000e-06	5.230090e-06	5.176095e-09	3.727745e+01	3.381759e+02
1.790000e-06	5.204893e-06	5.143507e-09	3.709786e+01	3.372040e+02
1.800000e-06	5.178096e-06	5.031732e-09	3.690687e+01	3.361710e+02
1.810000e-06	5.149025e-06	5.070574e-09	3.669966e+01	3.350749e+02
1.820000e-06	5.118254e-06	5.072389e-09	3.648034e+01	3.339132e+02
1.830000e-06	5.085772e-06	5.019991e-09	3.624882e+01	3.326828e+02
1.840000e-06	5.051305e-06	5.097443e-09	3.600316e+01	3.313805e+02
1.850000e-06	5.015253e-06	5.059187e-09	3.574620e+01	3.300027e+02
1.860000e-06	4.977381e-06	5.000312e-09	3.547627e+01	3.285464e+02
1.870000e-06	4.937605e-06	5.010970e-09	3.519276e+01	3.270089e+02
1.880000e-06	4.896227e-06	4.911648e-09	3.489784e+01	3.253883e+02
1.890000e-06	4.853070e-06	4.909296e-09	3.459024e+01	3.236839e+02
1.900000e-06	4.808270e-06	4.929724e-09	3.427093e+01	3.218956e+02
1.910000e-06	4.761590e-06	4.872285e-09	3.393822e+01	3.200244e+02
1.920000e-06	4.712877e-06	4.887280e-09	3.359102e+01	3.180724e+02
1.930000e-06	4.662603e-06	4.817968e-09	3.323269e+01	3.160421e+02
1.940000e-06	4.610569e-06	4.781689e-09	3.286181e+01	3.139364e+02
1.950000e-06	4.556495e-06	4.758921e-09	3.247640e+01	3.117584e+02
1.960000e-06	4.500487e-06	4.693964e-09	3.207721e+01	3.095108e+02
1.970000e-06	4.442739e-06	4.709838e-09	3.166561e+01	3.071959e+02
1.980000e-06	4.383621e-06	4.671622e-09	3.124425e+01	3.048152e+02
1.990000e-06	4.323026e-06	4.634884e-09	3.081236e+01	3.023691e+02
2.000000e-06	4.260696e-06	4.585583e-09	3.036810e+01	2.998572e+02
2.010000e-06	4.196781e-06	4.509571e-09	2.991254e+01	2.972781e+02
2.020000e-06	4.131382e-06	4.490948e-09	2.944642e+01	2.946297e+02
2.030000e-06	4.064565e-06	4.437538e-09	2.897017e+01	2.919094e+02
2.040000e-06	3.996366e-06	4.433394e-09	2.848408e+01	2.891143e+02
2.050000e-06	3.926724e-06	4.405572e-09	2.798771e+01	2.862416e+02
2.060000e-06	3.855503e-06	4.334679e-09	2.748008e+01	2.832888e+02
2.070000e-06	3.782915e-06	4.289265e-09	2.696271e+01	2.802539e+02
2.080000e-06	3.709071e-06	4.212642e-09	2.643639e+01	2.771360e+02
2.090000e-06	3.633812e-06	4.171848e-09	2.589998e+01	2.739345e+02
2.100000e-06	3.557072e-06	4.118395e-09	2.535302e+01	2.706499e+02
2.110000e-06	3.478719e-06	4.078878e-09	2.479456e+01	2.672831e+02
2.120000e-06	3.399033e-06	4.050295e-09	2.422660e+01	2.638354e+02
2.130000e-06	3.318250e-06	3.986397e-09	2.365082e+01	2.603082e+02
2.140000e-06	3.236311e-06	3.931822e-09	2.306680e+01	2.567029e+02
2.150000e-06	3.153266e-06	3.864123e-09	2.247489e+01	2.530200e+02
2.160000e-06	3.069239e-06	3.802851e-09	2.187600e+01	2.492599e+02
2.170000e-06	2.984122e-06	3.744038e-09	2.126932e+01	2.454218e+02
2.180000e-06	2.897637e-06	3.698074e-09	2.065290e+01	2.415043e+02
2.190000e-06	2.809941e-06	3.650359e-09	2.002785e+01	2.375053e+02
2.200000e-06	2.721332e-06	3.584897e-09	1.939629e+01	2.334220e+02
2.210000e-06	2.631851e-06	3.511852e-09	1.875851e+01	2.292513e+02
2.220000e-06	2.541445e-06	3.432094e-09	1.811414e+01	2.249902e+02
2.230000e-06	2.450191e-06	3.370835e-09	1.746373e+01	2.206356e+02
2.240000e-06	2.358185e-06	3.312156e-09	1.680796e+01	2.161850e+02
2.250000e-06	2.265388e-06	3.257069e-09	1.614654e+01	2.116366e+02
2.260000e-06	2.171823e-06	3.191884e-09	1.547966e+01	2.069892e+02
2.270000e-06	2.077314e-06	3.111311e-09	1.480605e+01	2.022420e+02
2.280000e-06	1.981725e-06	3.028284e-09	1.412474e+01	1.973953e+02
2.290000e-06	1.885373e-06	2.945321e-09	1.343799e+01	1.924496e+02
2.300000e-06	1.788550e-06	2.869385e-09	1.274789e+01	1.874054e+02
2.310000e-06	1.691244e-06	2.797960e-09	1.205434e+01	1.822636e+02
2.320000e-06	1.593336e-06	2.723117e-09	1.135650e+01	1.770245e+02
2.330000e-06	1.494882e-06	2.641785e-09	1.065477e+01	1.716882e+02
2.340000e-06	1.395960e-06	2.563587e-09	9.949703e+00	1.662542e+02
2.350000e-06	1.296572e-06	2.480695e-09	9.241310e+00	1.607214e+02
2.360000e-06	1.196865e-06	2.390894e-09	8.530654e+00	1.550883e+02
2.370000e-06	1.096876e-06	2.299478e-09	7.817981e+00	1.493529e+02
2.380000e-06	9.965374e-07	2.210284e-09	7.102818e+00	1.435128e+02
2.390000e-06	8.958347e-07	2.124802e-09	6.385059e+00	1.375656e+02
2.400000e-06	7.947751e-07	2.033126e-09	5.664757e+00	1.315088e+02
2.410000e-06	6.934715e-07	1.935516e-09	4.942716e+00	1.253399e+02
2.420000e-06	5.919723e-07	1.837122e-09	4.219281e+00	1.190564e+02
2.430000e-06	4.902519e-07	1.738657e-09	3.494269e+00	1.126556e+02
2.440000e-06	3.882676e-07	1.644630e-09	2.767376e+00	1.061347e+02
2.450000e-06	2.861107e-07	1.552276e-09	2.039253e+00	9.949009e+01
2.460000e-06	1.838421e-07	1.451083e-09	1.310334e+00	9.271737e+01
2.470000e-06	8.141027e-08	1.338400e-09	5.802515e-01	8.581107e+01
2.480000e-06	-2.108789e-08	1.220065e-09	-1.503039e-01	7.876440e+01
2.490000e-06	-1.235972e-07	1.104553e-09	-8.809388e-01	7.156918e+01
2.500000e-06	-2.260811e-07	9.922850e-10	-1.611393e+00	6.421596e+01
2.510000e-06	-3.284520e-07	8.806057e-10	-2.341041e+00	5.669422e+01
2.520000e-06	-4.306591e-07	7.676522e-10	-3.069521e+00	4.899288e+01
2.530000e-06	-5.326735e-07	6.501718e-10	-3.796629e+00	4.110091e+01
2.540000e-06	-6.345370e-07	5.266492e-10	-4.522661e+00	3.300808e+01
2.550000e-06	-7.361582e-07	3.982845e-10	-5.246965e+00	2.470583e+01
2.560000e-06	-8.373827e-07	2.643440e-10	-5.968443e+00	1.618821e+01
2.570000e-06	-9.382270e-07	1.247908e-10	-6.687210e+00	7.452672e+00
2.580000e-06	-1.038712e-06	-1.632115e-11	-7.403416e+00	-1.499116e+00
2.590000e-06	-1.138844e-06	-1.563848e-10	-8.117110e+00	-1.066073e+01
2.600000e-06	-1.238599e-06	-2.954356e-10	-8.828111e+00	-2.002062e+01
2.610000e-06	-1.337926e-06	-4.373491e-10	-9.536064e+00	-2.956197e+01
2.620000e-06	-1.436786e-06	-5.850983e-10	-1.024069e+01	-3.926286e+01
2.630000e-06	-1.535102e-06	-7.341782e-10	-1.094143e+01	-4.909665e+01
2.640000e-06	-1.632875e-06	-8.820810e-10	-1.163831e+01	-5.903261e+01
2.650000e-06	-1.730089e-06	-1.030858e-09	-1.233120e+01	-6.903665e+01
2.660000e-06	-1.826759e-06	-1.182478e-09	-1.302022e+01	-7.907230e+01
2.670000e-06	-1.922909e-06	-1.338208e-09	-1.370553e+01	-8.910159e+01
2.680000e-06	-2.018447e-06	-1.493990e-09	-1.438648e+01	-9.908612e+01
2.690000e-06	-2.113178e-06	-1.644951e-09	-1.506167e+01	-1.089879e+02
2.700000e-06	-2.206955e-06	-1.791450e-09	-1.573007e+01	-1.187703e+02
2.710000e-06	-2.299774e-06	-1.936409e-09	-1.639163e+01	-1.283989e+02
2.720000e-06	-2.391722e-06	-2.080971e-09	-1.704699e+01	-1.378416e+02
2.730000e-06	-2.482838e-06	-2.222559e-09	-1.769642e+01	-1.470701e+02
2.740000e-06	-2.573072e-06	-2.360128e-09	-1.833956e+01	-1.560595e+02
2.750000e-06	-2.662404e-06	-2.496513e-09	-1.897628e+01	-1.647888e+02
2.760000e-06	-2.750879e-06	-2.627837e-09	-1.960688e+01	-1.732413e+02
2.770000e-06	-2.838560e-06	-2.752562e-09	-2.023183e+01	-1.814048e+02
2.780000e-06	-2.925315e-06	-2.871769e-09	-2.085018e+01	-1.892712e+02
2.790000e-06	-3.010872e-06	-2.985731e-09	-2.145998e+01	-1.968370e+02
2.800000e-06	-3.095210e-06	-3.097608e-09	-2.206110e+01	-2.041025e+02
2.810000e-06	-3.178515e-06	-3.206098e-09	-2.265486e+01	-2.110722e+02
2.820000e-06	-3.260806e-06	-3.309577e-09	-2.324139e+01	-2.177541e+02
2.830000e-06	-3.341981e-06	-3.409260e-09	-2.381996e+01	-2.241591e+02
2.840000e-06	-3.422055e-06	-3.504596e-09	-2.439069e+01	-2.303006e+02
2.850000e-06	-3.500950e-06	-3.593190e-09	-2.495301e+01	-2.361936e+02
2.860000e-06	-3.578374e-06	-3.676673e-09	-2.550485e+01	-2.418543e+02
2.870000e-06	-3.654236e-06	-3.756579e-09	-2.604556e+01	-2.472987e+02
2.880000e-06	-3.728659e-06	-3.834484e-09	-2.657601e+01	-2.525423e+02
2.890000e-06	-3.801756e-06	-3.911816e-09	-2.709700e+01	-2.575993e+02
2.900000e-06	-3.873568e-06	-3.989317e-09	-2.760884e+01	-2.624817e+02
2.910000e-06	-3.943915e-06	-4.063630e-09	-2.811025e+01	-2.671992e+02
2.920000e-06	-4.012647e-06	-4.133347e-09	-2.860013e+01	-2.717587e+02
2.930000e-06	-4.079938e-06	-4.201215e-09	-2.907975e+01	-2.761646e+02
2.940000e-06	-4.145880e-06	-4.267081e-09	-2.954975e+01	-2.804187e+02
