# Temperatura_=_79.29
# Concentracion g/m^3_=_15000.0
# C_Vs_to_Am_M_A/Vsm_=_65563218390.804596
# pendiente_HvsI_1/m_=_3716.3
# ordenada_HvsI_A/m_=_1297.0
# frecuencia_Hz_=_301582.17554059025

Tiempo_(s)	Campo_(V.s)	Magnetizacion_(V.s)	Campo_(kA/m)	Magnetizacion_(A/m)
0.000000e+00	-5.383377e-06	-6.981566e-09	-3.834376e+01	-4.564416e+02
1.000000e-08	-5.380428e-06	-6.981089e-09	-3.832276e+01	-4.562843e+02
2.000000e-08	-5.375739e-06	-6.977448e-09	-3.828936e+01	-4.560302e+02
3.000000e-08	-5.369432e-06	-6.970314e-09	-3.824444e+01	-4.556736e+02
4.000000e-08	-5.361558e-06	-6.962320e-09	-3.818836e+01	-4.552099e+02
5.000000e-08	-5.351888e-06	-6.953263e-09	-3.811948e+01	-4.546369e+02
6.000000e-08	-5.340159e-06	-6.945765e-09	-3.803594e+01	-4.539552e+02
7.000000e-08	-5.326461e-06	-6.940254e-09	-3.793837e+01	-4.531685e+02
8.000000e-08	-5.310659e-06	-6.908831e-09	-3.782582e+01	-4.522836e+02
9.000000e-08	-5.292639e-06	-6.908004e-09	-3.769747e+01	-4.513094e+02
1.000000e-07	-5.272582e-06	-6.933123e-09	-3.755461e+01	-4.502559e+02
1.100000e-07	-5.250637e-06	-6.902480e-09	-3.739830e+01	-4.491327e+02
1.200000e-07	-5.227025e-06	-6.886000e-09	-3.723013e+01	-4.479482e+02
1.300000e-07	-5.201874e-06	-6.852744e-09	-3.705099e+01	-4.467076e+02
1.400000e-07	-5.175085e-06	-6.718777e-09	-3.686018e+01	-4.454126e+02
1.500000e-07	-5.146706e-06	-6.805983e-09	-3.665805e+01	-4.440607e+02
1.600000e-07	-5.116861e-06	-6.827479e-09	-3.644547e+01	-4.426453e+02
1.700000e-07	-5.085389e-06	-6.684604e-09	-3.622131e+01	-4.411561e+02
1.800000e-07	-5.051878e-06	-6.768315e-09	-3.598262e+01	-4.395804e+02
1.900000e-07	-5.016518e-06	-6.699123e-09	-3.573077e+01	-4.379044e+02
2.000000e-07	-4.979636e-06	-6.590438e-09	-3.546807e+01	-4.361143e+02
2.100000e-07	-4.940964e-06	-6.694776e-09	-3.519263e+01	-4.341982e+02
2.200000e-07	-4.900434e-06	-6.639123e-09	-3.490395e+01	-4.321467e+02
2.300000e-07	-4.857997e-06	-6.555923e-09	-3.460168e+01	-4.299545e+02
2.400000e-07	-4.813667e-06	-6.558628e-09	-3.428593e+01	-4.276200e+02
2.500000e-07	-4.767557e-06	-6.467684e-09	-3.395751e+01	-4.251456e+02
2.600000e-07	-4.719533e-06	-6.450845e-09	-3.361545e+01	-4.225373e+02
2.700000e-07	-4.669446e-06	-6.411615e-09	-3.325870e+01	-4.198033e+02
2.800000e-07	-4.617316e-06	-6.361503e-09	-3.288740e+01	-4.169531e+02
2.900000e-07	-4.563398e-06	-6.336580e-09	-3.250336e+01	-4.139966e+02
3.000000e-07	-4.507820e-06	-6.279166e-09	-3.210750e+01	-4.109423e+02
3.100000e-07	-4.450523e-06	-6.228476e-09	-3.169940e+01	-4.077973e+02
3.200000e-07	-4.391501e-06	-6.169075e-09	-3.127900e+01	-4.045659e+02
3.300000e-07	-4.330924e-06	-6.139080e-09	-3.084754e+01	-4.012500e+02
3.400000e-07	-4.268899e-06	-6.074244e-09	-3.040576e+01	-3.978489e+02
3.500000e-07	-4.205478e-06	-5.999088e-09	-2.995403e+01	-3.943602e+02
3.600000e-07	-4.140545e-06	-5.978112e-09	-2.949154e+01	-3.907798e+02
3.700000e-07	-4.073894e-06	-5.925633e-09	-2.901681e+01	-3.871034e+02
3.800000e-07	-4.005695e-06	-5.853064e-09	-2.853105e+01	-3.833266e+02
3.900000e-07	-3.936172e-06	-5.785957e-09	-2.803587e+01	-3.794462e+02
4.000000e-07	-3.865431e-06	-5.721735e-09	-2.753201e+01	-3.754599e+02
4.100000e-07	-3.793522e-06	-5.666185e-09	-2.701982e+01	-3.713673e+02
4.200000e-07	-3.720153e-06	-5.588781e-09	-2.649725e+01	-3.671690e+02
4.300000e-07	-3.645089e-06	-5.537901e-09	-2.596260e+01	-3.628669e+02
4.400000e-07	-3.568498e-06	-5.480466e-09	-2.541707e+01	-3.584637e+02
4.500000e-07	-3.490548e-06	-5.403688e-09	-2.486185e+01	-3.539621e+02
4.600000e-07	-3.411214e-06	-5.322747e-09	-2.429679e+01	-3.493646e+02
4.700000e-07	-3.330541e-06	-5.245054e-09	-2.372219e+01	-3.446729e+02
4.800000e-07	-3.248705e-06	-5.187048e-09	-2.313930e+01	-3.398877e+02
4.900000e-07	-3.165751e-06	-5.108302e-09	-2.254845e+01	-3.350084e+02
5.000000e-07	-3.081805e-06	-5.027646e-09	-2.195053e+01	-3.300331e+02
5.100000e-07	-2.996986e-06	-4.952459e-09	-2.134640e+01	-3.249591e+02
5.200000e-07	-2.911194e-06	-4.874490e-09	-2.073534e+01	-3.197827e+02
5.300000e-07	-2.824363e-06	-4.784987e-09	-2.011687e+01	-3.144999e+02
5.400000e-07	-2.736585e-06	-4.696130e-09	-1.949166e+01	-3.091065e+02
5.500000e-07	-2.647931e-06	-4.613915e-09	-1.886022e+01	-3.035986e+02
5.600000e-07	-2.558091e-06	-4.526849e-09	-1.822032e+01	-2.979726e+02
5.700000e-07	-2.467017e-06	-4.440683e-09	-1.757163e+01	-2.922258e+02
5.800000e-07	-2.375087e-06	-4.350214e-09	-1.691685e+01	-2.863560e+02
5.900000e-07	-2.282391e-06	-4.260213e-09	-1.625661e+01	-2.803619e+02
6.000000e-07	-2.188920e-06	-4.163042e-09	-1.559085e+01	-2.742430e+02
6.100000e-07	-2.094700e-06	-4.062227e-09	-1.491976e+01	-2.679994e+02
6.200000e-07	-1.999760e-06	-3.965458e-09	-1.424354e+01	-2.616316e+02
6.300000e-07	-1.904137e-06	-3.869118e-09	-1.356245e+01	-2.551407e+02
6.400000e-07	-1.807830e-06	-3.769707e-09	-1.287649e+01	-2.485279e+02
6.500000e-07	-1.710772e-06	-3.669117e-09	-1.218518e+01	-2.417941e+02
6.600000e-07	-1.612959e-06	-3.565381e-09	-1.148850e+01	-2.349404e+02
6.700000e-07	-1.514461e-06	-3.454607e-09	-1.078693e+01	-2.279668e+02
6.800000e-07	-1.415376e-06	-3.343636e-09	-1.008119e+01	-2.208727e+02
6.900000e-07	-1.315834e-06	-3.232286e-09	-9.372189e+00	-2.136563e+02
7.000000e-07	-1.215878e-06	-3.121263e-09	-8.660241e+00	-2.063143e+02
7.100000e-07	-1.115588e-06	-3.009599e-09	-7.945914e+00	-1.988418e+02
7.200000e-07	-1.015022e-06	-2.896313e-09	-7.229616e+00	-1.912318e+02
7.300000e-07	-9.141823e-07	-2.776995e-09	-6.511376e+00	-1.834762e+02
7.400000e-07	-8.130349e-07	-2.652044e-09	-5.790941e+00	-1.755648e+02
7.500000e-07	-7.115651e-07	-2.525762e-09	-5.068210e+00	-1.674865e+02
7.600000e-07	-6.098152e-07	-2.399253e-09	-4.343483e+00	-1.592295e+02
7.700000e-07	-5.078216e-07	-2.269340e-09	-3.617022e+00	-1.507819e+02
7.800000e-07	-4.056860e-07	-2.136010e-09	-2.889549e+00	-1.421322e+02
7.900000e-07	-3.034531e-07	-2.002051e-09	-2.161382e+00	-1.332700e+02
8.000000e-07	-2.010956e-07	-1.863165e-09	-1.432328e+00	-1.241864e+02
8.100000e-07	-9.861710e-08	-1.721483e-09	-7.024124e-01	-1.148741e+02
8.200000e-07	3.875305e-09	-1.577115e-09	2.760234e-02	-1.053276e+02
8.300000e-07	1.063583e-07	-1.429135e-09	7.575498e-01	-9.554258e+01
8.400000e-07	2.088425e-07	-1.276123e-09	1.487506e+00	-8.551599e+01
8.500000e-07	3.113411e-07	-1.118029e-09	2.217565e+00	-7.524507e+01
8.600000e-07	4.137906e-07	-9.569353e-10	2.947274e+00	-6.472695e+01
8.700000e-07	5.160819e-07	-7.899273e-10	3.675856e+00	-5.395807e+01
8.800000e-07	6.181737e-07	-6.193314e-10	4.403018e+00	-4.293404e+01
8.900000e-07	7.200499e-07	-4.465114e-10	5.128644e+00	-3.164966e+01
9.000000e-07	8.216578e-07	-2.710395e-10	5.852359e+00	-2.009945e+01
9.100000e-07	9.229753e-07	-9.056408e-11	6.574005e+00	-8.278655e+00
9.200000e-07	1.023981e-06	9.263216e-11	7.293427e+00	3.815470e+00
9.300000e-07	1.124583e-06	2.774351e-10	8.009983e+00	1.618200e+01
9.400000e-07	1.224845e-06	4.674811e-10	8.724107e+00	2.881461e+01
9.500000e-07	1.324725e-06	6.627971e-10	9.435515e+00	4.169988e+01
9.600000e-07	1.424186e-06	8.621805e-10	1.014394e+01	5.481596e+01
9.700000e-07	1.523205e-06	1.064719e-09	1.084921e+01	6.813172e+01
9.800000e-07	1.621595e-06	1.270617e-09	1.155001e+01	8.160654e+01
9.900000e-07	1.719117e-06	1.476091e-09	1.224462e+01	9.519091e+01
1.000000e-06	1.815791e-06	1.681229e-09	1.293319e+01	1.088278e+02
1.010000e-06	1.911737e-06	1.887004e-09	1.361658e+01	1.224548e+02
1.020000e-06	2.006987e-06	2.092696e-09	1.429501e+01	1.360067e+02
1.030000e-06	2.101552e-06	2.295843e-09	1.496857e+01	1.494183e+02
1.040000e-06	2.195381e-06	2.494309e-09	1.563687e+01	1.626280e+02
1.050000e-06	2.288451e-06	2.688632e-09	1.629977e+01	1.755796e+02
1.060000e-06	2.380791e-06	2.878668e-09	1.695748e+01	1.882256e+02
1.070000e-06	2.472448e-06	3.065692e-09	1.761031e+01	2.005280e+02
1.080000e-06	2.563333e-06	3.247906e-09	1.825766e+01	2.124592e+02
1.090000e-06	2.653092e-06	3.425781e-09	1.889697e+01	2.240019e+02
1.100000e-06	2.741597e-06	3.598026e-09	1.952737e+01	2.351481e+02
1.110000e-06	2.829118e-06	3.762125e-09	2.015074e+01	2.458974e+02
1.120000e-06	2.915766e-06	3.920801e-09	2.076790e+01	2.562549e+02
1.130000e-06	3.001534e-06	4.074955e-09	2.137879e+01	2.662292e+02
1.140000e-06	3.086353e-06	4.223044e-09	2.198293e+01	2.758301e+02
1.150000e-06	3.170219e-06	4.363206e-09	2.258027e+01	2.850672e+02
1.160000e-06	3.253078e-06	4.496331e-09	2.317045e+01	2.939486e+02
1.170000e-06	3.334692e-06	4.624538e-09	2.375175e+01	3.024804e+02
1.180000e-06	3.415009e-06	4.748715e-09	2.432382e+01	3.106672e+02
1.190000e-06	3.494146e-06	4.868955e-09	2.488749e+01	3.185124e+02
1.200000e-06	3.572091e-06	4.984106e-09	2.544265e+01	3.260196e+02
1.210000e-06	3.648785e-06	5.092151e-09	2.598892e+01	3.331936e+02
1.220000e-06	3.724198e-06	5.194780e-09	2.652606e+01	3.400418e+02
1.230000e-06	3.798031e-06	5.291873e-09	2.705194e+01	3.465748e+02
1.240000e-06	3.870151e-06	5.383224e-09	2.756562e+01	3.528070e+02
1.250000e-06	3.940862e-06	5.469575e-09	2.806927e+01	3.587561e+02
1.260000e-06	4.010246e-06	5.555016e-09	2.856347e+01	3.644428e+02
1.270000e-06	4.078302e-06	5.642765e-09	2.904820e+01	3.698891e+02
1.280000e-06	4.144944e-06	5.727447e-09	2.952287e+01	3.751170e+02
1.290000e-06	4.209891e-06	5.807000e-09	2.998547e+01	3.801469e+02
1.300000e-06	4.273215e-06	5.882862e-09	3.043650e+01	3.849957e+02
1.310000e-06	4.335101e-06	5.954749e-09	3.087729e+01	3.896763e+02
1.320000e-06	4.395598e-06	6.021749e-09	3.130819e+01	3.941963e+02
1.330000e-06	4.454691e-06	6.085010e-09	3.172908e+01	3.985582e+02
1.340000e-06	4.512078e-06	6.146677e-09	3.213783e+01	4.027601e+02
1.350000e-06	4.567649e-06	6.207636e-09	3.253364e+01	4.067965e+02
1.360000e-06	4.621575e-06	6.266617e-09	3.291774e+01	4.106600e+02
1.370000e-06	4.673806e-06	6.322526e-09	3.328976e+01	4.143430e+02
1.380000e-06	4.724053e-06	6.377217e-09	3.364765e+01	4.178391e+02
1.390000e-06	4.772328e-06	6.429574e-09	3.399149e+01	4.211447e+02
1.400000e-06	4.818894e-06	6.475419e-09	3.432317e+01	4.242599e+02
1.410000e-06	4.863874e-06	6.515078e-09	3.464354e+01	4.271886e+02
1.420000e-06	4.907326e-06	6.553490e-09	3.495304e+01	4.299386e+02
1.430000e-06	4.948917e-06	6.590538e-09	3.524927e+01	4.325204e+02
1.440000e-06	4.988610e-06	6.624911e-09	3.553199e+01	4.349466e+02
1.450000e-06	5.026687e-06	6.658412e-09	3.580320e+01	4.372299e+02
1.460000e-06	5.063157e-06	6.691597e-09	3.606296e+01	4.393821e+02
1.470000e-06	5.097817e-06	6.723828e-09	3.630983e+01	4.414126e+02
1.480000e-06	5.130506e-06	6.752596e-09	3.654266e+01	4.433279e+02
1.490000e-06	5.161445e-06	6.777592e-09	3.676302e+01	4.451306e+02
1.500000e-06	5.190725e-06	6.799503e-09	3.697158e+01	4.468204e+02
1.510000e-06	5.218324e-06	6.819682e-09	3.716815e+01	4.483940e+02
1.520000e-06	5.243959e-06	6.839017e-09	3.735074e+01	4.498466e+02
1.530000e-06	5.267461e-06	6.857659e-09	3.751814e+01	4.511729e+02
1.540000e-06	5.289108e-06	6.875686e-09	3.767232e+01	4.523684e+02
1.550000e-06	5.309051e-06	6.892644e-09	3.781437e+01	4.534306e+02
1.560000e-06	5.327116e-06	6.908175e-09	3.794304e+01	4.543594e+02
1.570000e-06	5.343170e-06	6.921899e-09	3.805738e+01	4.551578e+02
1.580000e-06	5.357281e-06	6.933284e-09	3.815789e+01	4.558314e+02
1.590000e-06	5.369408e-06	6.942011e-09	3.824427e+01	4.563879e+02
1.600000e-06	5.379325e-06	6.948591e-09	3.831491e+01	4.568362e+02
1.610000e-06	5.387125e-06	6.952875e-09	3.837046e+01	4.571848e+02
1.620000e-06	5.393060e-06	6.956977e-09	3.841274e+01	4.574415e+02
1.630000e-06	5.397192e-06	6.962695e-09	3.844216e+01	4.576116e+02
1.640000e-06	5.399439e-06	6.966456e-09	3.845816e+01	4.576976e+02
1.650000e-06	5.399696e-06	6.968273e-09	3.846000e+01	4.576994e+02
1.660000e-06	5.398129e-06	6.969134e-09	3.844883e+01	4.576138e+02
1.670000e-06	5.394908e-06	6.963588e-09	3.842590e+01	4.574361e+02
1.680000e-06	5.389940e-06	6.959804e-09	3.839051e+01	4.571602e+02
1.690000e-06	5.383026e-06	6.955411e-09	3.834126e+01	4.567807e+02
1.700000e-06	5.374404e-06	6.948020e-09	3.827986e+01	4.562935e+02
1.710000e-06	5.364271e-06	6.938473e-09	3.820768e+01	4.556968e+02
1.720000e-06	5.352348e-06	6.921739e-09	3.812275e+01	4.549920e+02
1.730000e-06	5.338402e-06	6.924671e-09	3.802343e+01	4.541834e+02
1.740000e-06	5.322400e-06	6.913013e-09	3.790945e+01	4.532784e+02
1.750000e-06	5.304015e-06	6.850709e-09	3.777850e+01	4.522861e+02
1.760000e-06	5.282993e-06	6.845188e-09	3.762877e+01	4.512166e+02
1.770000e-06	5.259779e-06	6.823575e-09	3.746342e+01	4.500795e+02
1.780000e-06	5.235284e-06	6.843566e-09	3.728895e+01	4.488824e+02
1.790000e-06	5.210048e-06	6.922006e-09	3.710920e+01	4.476299e+02
1.800000e-06	5.183356e-06	6.735568e-09	3.691909e+01	4.463229e+02
1.810000e-06	5.154476e-06	6.738035e-09	3.671339e+01	4.449578e+02
1.820000e-06	5.123773e-06	6.835642e-09	3.649470e+01	4.435273e+02
1.830000e-06	5.091349e-06	6.645839e-09	3.626376e+01	4.420205e+02
1.840000e-06	5.057063e-06	6.720272e-09	3.601955e+01	4.404244e+02
1.850000e-06	5.021210e-06	6.774025e-09	3.576418e+01	4.387248e+02
1.860000e-06	4.983529e-06	6.580499e-09	3.549580e+01	4.369084e+02
1.870000e-06	4.943931e-06	6.641157e-09	3.521376e+01	4.349637e+02
1.880000e-06	4.902688e-06	6.597130e-09	3.491999e+01	4.328822e+02
1.890000e-06	4.859673e-06	6.523985e-09	3.461362e+01	4.306592e+02
1.900000e-06	4.814976e-06	6.581206e-09	3.429526e+01	4.282942e+02
1.910000e-06	4.768426e-06	6.434025e-09	3.396370e+01	4.257903e+02
1.920000e-06	4.719888e-06	6.461974e-09	3.361798e+01	4.231541e+02
1.930000e-06	4.669708e-06	6.425981e-09	3.326057e+01	4.203942e+02
1.940000e-06	4.617774e-06	6.301914e-09	3.289066e+01	4.175202e+02
1.950000e-06	4.563860e-06	6.344277e-09	3.250666e+01	4.145418e+02
1.960000e-06	4.507997e-06	6.260264e-09	3.210876e+01	4.114673e+02
1.970000e-06	4.450387e-06	6.229889e-09	3.169843e+01	4.083033e+02
1.980000e-06	4.391342e-06	6.166080e-09	3.127787e+01	4.050535e+02
1.990000e-06	4.330868e-06	6.104198e-09	3.084714e+01	4.017193e+02
2.000000e-06	4.268682e-06	6.119869e-09	3.040421e+01	3.982995e+02
2.010000e-06	4.204820e-06	5.978412e-09	2.994935e+01	3.947913e+02
2.020000e-06	4.139456e-06	5.955915e-09	2.948378e+01	3.911905e+02
2.030000e-06	4.072646e-06	5.920659e-09	2.900792e+01	3.874926e+02
2.040000e-06	4.004426e-06	5.845061e-09	2.852202e+01	3.836937e+02
2.050000e-06	3.934738e-06	5.797864e-09	2.802565e+01	3.797905e+02
2.060000e-06	3.863558e-06	5.703230e-09	2.751867e+01	3.757812e+02
2.070000e-06	3.790969e-06	5.693541e-09	2.700165e+01	3.716656e+02
2.080000e-06	3.717116e-06	5.592868e-09	2.647561e+01	3.674446e+02
2.090000e-06	3.641910e-06	5.515648e-09	2.593995e+01	3.631204e+02
2.100000e-06	3.565302e-06	5.471282e-09	2.539430e+01	3.586957e+02
2.110000e-06	3.487205e-06	5.404060e-09	2.483804e+01	3.541732e+02
2.120000e-06	3.407653e-06	5.351284e-09	2.427143e+01	3.495552e+02
2.130000e-06	3.326918e-06	5.240887e-09	2.369638e+01	3.448432e+02
2.140000e-06	3.245056e-06	5.191859e-09	2.311331e+01	3.400377e+02
2.150000e-06	3.162119e-06	5.116704e-09	2.252258e+01	3.351377e+02
2.160000e-06	3.078189e-06	5.023537e-09	2.192478e+01	3.301414e+02
2.170000e-06	2.993166e-06	4.952273e-09	2.131919e+01	3.250455e+02
2.180000e-06	2.906796e-06	4.886061e-09	2.070401e+01	3.198465e+02
2.190000e-06	2.819199e-06	4.818983e-09	2.008009e+01	3.145401e+02
2.200000e-06	2.730649e-06	4.720046e-09	1.944938e+01	3.091223e+02
2.210000e-06	2.641143e-06	4.636652e-09	1.881186e+01	3.035891e+02
2.220000e-06	2.550733e-06	4.548429e-09	1.816791e+01	2.979372e+02
2.230000e-06	2.459479e-06	4.462212e-09	1.751794e+01	2.921640e+02
2.240000e-06	2.367447e-06	4.367450e-09	1.686244e+01	2.862674e+02
2.250000e-06	2.274724e-06	4.282506e-09	1.620200e+01	2.802464e+02
2.260000e-06	2.181143e-06	4.199703e-09	1.553546e+01	2.741005e+02
2.270000e-06	2.086502e-06	4.098295e-09	1.486137e+01	2.678300e+02
2.280000e-06	1.990894e-06	3.999876e-09	1.418039e+01	2.614356e+02
2.290000e-06	1.894618e-06	3.900564e-09	1.349465e+01	2.549182e+02
2.300000e-06	1.797844e-06	3.801537e-09	1.280537e+01	2.482791e+02
2.310000e-06	1.700569e-06	3.696694e-09	1.211251e+01	2.415194e+02
2.320000e-06	1.602677e-06	3.591545e-09	1.141526e+01	2.346398e+02
2.330000e-06	1.504154e-06	3.484490e-09	1.071352e+01	2.276402e+02
2.340000e-06	1.405203e-06	3.380020e-09	1.000873e+01	2.205200e+02
2.350000e-06	1.305881e-06	3.269803e-09	9.301301e+00	2.132768e+02
2.360000e-06	1.206253e-06	3.153726e-09	8.591688e+00	2.059071e+02
2.370000e-06	1.106387e-06	3.038594e-09	7.880374e+00	1.984054e+02
2.380000e-06	1.006202e-06	2.922639e-09	7.166798e+00	1.907648e+02
2.390000e-06	9.056230e-07	2.809205e-09	6.450411e+00	1.829765e+02
2.400000e-06	8.045966e-07	2.690099e-09	5.730838e+00	1.750300e+02
2.410000e-06	7.031676e-07	2.566361e-09	5.008397e+00	1.669143e+02
2.420000e-06	6.014546e-07	2.438839e-09	4.283935e+00	1.586172e+02
2.430000e-06	4.995544e-07	2.306932e-09	3.558137e+00	1.501270e+02
2.440000e-06	3.974613e-07	2.174702e-09	2.830967e+00	1.414324e+02
2.450000e-06	2.952274e-07	2.044886e-09	2.102793e+00	1.325233e+02
2.460000e-06	1.927509e-07	1.908087e-09	1.372892e+00	1.233910e+02
2.470000e-06	9.003105e-08	1.762608e-09	6.412572e-01	1.140287e+02
2.480000e-06	-1.273471e-08	1.614465e-09	-9.070455e-02	1.044311e+02
2.490000e-06	-1.155024e-07	1.465865e-09	-8.226799e-01	9.459440e+01
2.500000e-06	-2.182204e-07	1.314929e-09	-1.554302e+00	8.451546e+01
2.510000e-06	-3.207821e-07	1.157458e-09	-2.284810e+00	7.419161e+01
2.520000e-06	-4.231931e-07	9.979854e-10	-3.014245e+00	6.361986e+01
2.530000e-06	-5.255246e-07	8.341151e-10	-3.743114e+00	5.279649e+01
2.540000e-06	-6.276202e-07	6.648831e-10	-4.470302e+00	4.171691e+01
2.550000e-06	-7.293595e-07	4.932243e-10	-5.194953e+00	3.037580e+01
2.560000e-06	-8.307048e-07	3.178557e-10	-5.916797e+00	1.876775e+01
2.570000e-06	-9.316594e-07	1.349195e-10	-6.635859e+00	6.888293e+00
2.580000e-06	-1.032225e-06	-5.535389e-11	-7.352146e+00	-5.264659e+00
2.590000e-06	-1.132382e-06	-2.467708e-10	-8.065529e+00	-1.768918e+01
2.600000e-06	-1.232136e-06	-4.388476e-10	-8.776037e+00	-3.037754e+01
2.610000e-06	-1.331517e-06	-6.349963e-10	-9.483897e+00	-4.331463e+01
2.620000e-06	-1.430564e-06	-8.376529e-10	-1.018937e+01	-5.647667e+01
2.630000e-06	-1.529056e-06	-1.043474e-09	-1.089089e+01	-6.983047e+01
2.640000e-06	-1.626916e-06	-1.249470e-09	-1.158791e+01	-8.333343e+01
2.650000e-06	-1.724194e-06	-1.458745e-09	-1.228078e+01	-9.693430e+01
2.660000e-06	-1.820902e-06	-1.671519e-09	-1.296960e+01	-1.105747e+02
2.670000e-06	-1.917106e-06	-1.883844e-09	-1.365483e+01	-1.241913e+02
2.680000e-06	-2.012759e-06	-2.095056e-09	-1.433613e+01	-1.377188e+02
2.690000e-06	-2.107751e-06	-2.301343e-09	-1.501271e+01	-1.510924e+02
2.700000e-06	-2.201821e-06	-2.502603e-09	-1.568274e+01	-1.642514e+02
2.710000e-06	-2.294764e-06	-2.700651e-09	-1.634474e+01	-1.771415e+02
2.720000e-06	-2.386716e-06	-2.894224e-09	-1.699968e+01	-1.897170e+02
2.730000e-06	-2.477898e-06	-3.081685e-09	-1.764913e+01	-2.019419e+02
2.740000e-06	-2.568270e-06	-3.262161e-09	-1.829282e+01	-2.137912e+02
2.750000e-06	-2.657731e-06	-3.438279e-09	-1.893001e+01	-2.252496e+02
2.760000e-06	-2.746270e-06	-3.607148e-09	-1.956065e+01	-2.363108e+02
2.770000e-06	-2.833988e-06	-3.767631e-09	-2.018543e+01	-2.469758e+02
2.780000e-06	-2.920871e-06	-3.923297e-09	-2.080426e+01	-2.572506e+02
2.790000e-06	-3.006546e-06	-4.074257e-09	-2.141449e+01	-2.671443e+02
2.800000e-06	-3.090901e-06	-4.218794e-09	-2.201532e+01	-2.766667e+02
2.810000e-06	-3.174247e-06	-4.358136e-09	-2.260897e+01	-2.858271e+02
2.820000e-06	-3.256649e-06	-4.493917e-09	-2.319588e+01	-2.946334e+02
2.830000e-06	-3.337962e-06	-4.625992e-09	-2.377504e+01	-3.030912e+02
2.840000e-06	-3.418193e-06	-4.752431e-09	-2.434650e+01	-3.112047e+02
2.850000e-06	-3.497270e-06	-4.873242e-09	-2.490974e+01	-3.189773e+02
2.860000e-06	-3.574862e-06	-4.989673e-09	-2.546240e+01	-3.264129e+02
2.870000e-06	-3.650882e-06	-5.099335e-09	-2.600386e+01	-3.335165e+02
2.880000e-06	-3.725482e-06	-5.201650e-09	-2.653520e+01	-3.402964e+02
2.890000e-06	-3.798711e-06	-5.298184e-09	-2.705679e+01	-3.467638e+02
2.900000e-06	-3.870672e-06	-5.391965e-09	-2.756934e+01	-3.529340e+02
2.910000e-06	-3.941205e-06	-5.484355e-09	-2.807172e+01	-3.588253e+02
2.920000e-06	-4.010108e-06	-5.571854e-09	-2.856249e+01	-3.644588e+02
2.930000e-06	-4.077533e-06	-5.654905e-09	-2.904273e+01	-3.698567e+02
2.940000e-06	-4.143634e-06	-5.735411e-09	-2.951354e+01	-3.750408e+02
