# Temperatura_=_61.18
# Concentracion g/m^3_=_15000.0
# C_Vs_to_Am_M_A/Vsm_=_65563218390.804596
# pendiente_HvsI_1/m_=_3716.3
# ordenada_HvsI_A/m_=_1297.0
# frecuencia_Hz_=_301572.4356461461

Tiempo_(s)	Campo_(V.s)	Magnetizacion_(V.s)	Campo_(kA/m)	Magnetizacion_(A/m)
0.000000e+00	-5.367166e-06	-5.563668e-09	-3.834509e+01	-3.628834e+02
1.000000e-08	-5.364586e-06	-5.566618e-09	-3.832665e+01	-3.626913e+02
2.000000e-08	-5.360178e-06	-5.559962e-09	-3.829516e+01	-3.624146e+02
3.000000e-08	-5.354134e-06	-5.553435e-09	-3.825198e+01	-3.620538e+02
4.000000e-08	-5.346514e-06	-5.546954e-09	-3.819754e+01	-3.616105e+02
5.000000e-08	-5.337036e-06	-5.535589e-09	-3.812983e+01	-3.610877e+02
6.000000e-08	-5.325457e-06	-5.521521e-09	-3.804710e+01	-3.604893e+02
7.000000e-08	-5.312036e-06	-5.498185e-09	-3.795122e+01	-3.598205e+02
8.000000e-08	-5.296632e-06	-5.489269e-09	-3.784117e+01	-3.590868e+02
9.000000e-08	-5.279002e-06	-5.561723e-09	-3.771521e+01	-3.582941e+02
1.000000e-07	-5.259257e-06	-5.555810e-09	-3.757414e+01	-3.574475e+02
1.100000e-07	-5.237585e-06	-5.491623e-09	-3.741931e+01	-3.565511e+02
1.200000e-07	-5.214258e-06	-5.475093e-09	-3.725265e+01	-3.556073e+02
1.300000e-07	-5.189414e-06	-5.318694e-09	-3.707516e+01	-3.546164e+02
1.400000e-07	-5.162912e-06	-5.339780e-09	-3.688582e+01	-3.535764e+02
1.500000e-07	-5.134757e-06	-5.536113e-09	-3.668467e+01	-3.524829e+02
1.600000e-07	-5.105175e-06	-5.329934e-09	-3.647333e+01	-3.513299e+02
1.700000e-07	-5.074042e-06	-5.374068e-09	-3.625090e+01	-3.501096e+02
1.800000e-07	-5.040806e-06	-5.451449e-09	-3.601345e+01	-3.488136e+02
1.900000e-07	-5.005669e-06	-5.153322e-09	-3.576242e+01	-3.474334e+02
2.000000e-07	-4.969139e-06	-5.282382e-09	-3.550143e+01	-3.459614e+02
2.100000e-07	-4.930871e-06	-5.352793e-09	-3.522803e+01	-3.443911e+02
2.200000e-07	-4.890790e-06	-5.175781e-09	-3.494167e+01	-3.427185e+02
2.300000e-07	-4.848783e-06	-5.240167e-09	-3.464156e+01	-3.409416e+02
2.400000e-07	-4.804792e-06	-5.197024e-09	-3.432727e+01	-3.390610e+02
2.500000e-07	-4.759072e-06	-5.113551e-09	-3.400063e+01	-3.370793e+02
2.600000e-07	-4.711456e-06	-5.141791e-09	-3.366044e+01	-3.350012e+02
2.700000e-07	-4.661795e-06	-5.057906e-09	-3.330564e+01	-3.328325e+02
2.800000e-07	-4.610076e-06	-5.053594e-09	-3.293614e+01	-3.305795e+02
2.900000e-07	-4.556490e-06	-5.023307e-09	-3.255330e+01	-3.282485e+02
3.000000e-07	-4.501331e-06	-4.951170e-09	-3.215923e+01	-3.258448e+02
3.100000e-07	-4.444564e-06	-4.941871e-09	-3.175367e+01	-3.233725e+02
3.200000e-07	-4.385961e-06	-4.936442e-09	-3.133499e+01	-3.208340e+02
3.300000e-07	-4.325717e-06	-4.869896e-09	-3.090458e+01	-3.182300e+02
3.400000e-07	-4.263986e-06	-4.749798e-09	-3.046355e+01	-3.155594e+02
3.500000e-07	-4.200802e-06	-4.759842e-09	-3.001214e+01	-3.128200e+02
3.600000e-07	-4.136209e-06	-4.755246e-09	-2.955066e+01	-3.100085e+02
3.700000e-07	-4.069942e-06	-4.690080e-09	-2.907722e+01	-3.071215e+02
3.800000e-07	-4.002077e-06	-4.666981e-09	-2.859237e+01	-3.041554e+02
3.900000e-07	-3.932930e-06	-4.599720e-09	-2.809836e+01	-3.011077e+02
4.000000e-07	-3.862542e-06	-4.524901e-09	-2.759548e+01	-2.979763e+02
4.100000e-07	-3.790898e-06	-4.464749e-09	-2.708362e+01	-2.947605e+02
4.200000e-07	-3.717883e-06	-4.440913e-09	-2.656198e+01	-2.914606e+02
4.300000e-07	-3.643276e-06	-4.421664e-09	-2.602896e+01	-2.880778e+02
4.400000e-07	-3.567080e-06	-4.352844e-09	-2.548458e+01	-2.846138e+02
4.500000e-07	-3.489512e-06	-4.279287e-09	-2.493041e+01	-2.810702e+02
4.600000e-07	-3.410669e-06	-4.217420e-09	-2.436712e+01	-2.774486e+02
4.700000e-07	-3.330473e-06	-4.173450e-09	-2.379417e+01	-2.737497e+02
4.800000e-07	-3.249023e-06	-4.118488e-09	-2.321226e+01	-2.699732e+02
4.900000e-07	-3.166417e-06	-4.052428e-09	-2.262209e+01	-2.661178e+02
5.000000e-07	-3.082729e-06	-4.002991e-09	-2.202419e+01	-2.621809e+02
5.100000e-07	-2.998172e-06	-3.938152e-09	-2.142009e+01	-2.581587e+02
5.200000e-07	-2.912730e-06	-3.868746e-09	-2.080966e+01	-2.540471e+02
5.300000e-07	-2.826251e-06	-3.804415e-09	-2.019182e+01	-2.498414e+02
5.400000e-07	-2.738835e-06	-3.736963e-09	-1.956729e+01	-2.455370e+02
5.500000e-07	-2.650600e-06	-3.665464e-09	-1.893690e+01	-2.411300e+02
5.600000e-07	-2.561205e-06	-3.588238e-09	-1.829823e+01	-2.366171e+02
5.700000e-07	-2.470536e-06	-3.525975e-09	-1.765045e+01	-2.319964e+02
5.800000e-07	-2.378990e-06	-3.466465e-09	-1.699641e+01	-2.272671e+02
5.900000e-07	-2.286750e-06	-3.393713e-09	-1.633742e+01	-2.224296e+02
6.000000e-07	-2.193676e-06	-3.303414e-09	-1.567246e+01	-2.174852e+02
6.100000e-07	-2.099807e-06	-3.219398e-09	-1.500183e+01	-2.124362e+02
6.200000e-07	-2.005278e-06	-3.144380e-09	-1.432647e+01	-2.072850e+02
6.300000e-07	-1.910035e-06	-3.067237e-09	-1.364602e+01	-2.020340e+02
6.400000e-07	-1.814107e-06	-2.994400e-09	-1.296068e+01	-1.966854e+02
6.500000e-07	-1.717551e-06	-2.916004e-09	-1.227084e+01	-1.912405e+02
6.600000e-07	-1.620293e-06	-2.826840e-09	-1.157599e+01	-1.856999e+02
6.700000e-07	-1.522217e-06	-2.727753e-09	-1.087530e+01	-1.800633e+02
6.800000e-07	-1.423395e-06	-2.637183e-09	-1.016928e+01	-1.743293e+02
6.900000e-07	-1.324111e-06	-2.554834e-09	-9.459953e+00	-1.684959e+02
7.000000e-07	-1.224505e-06	-2.468011e-09	-8.748330e+00	-1.625606e+02
7.100000e-07	-1.124606e-06	-2.374261e-09	-8.034614e+00	-1.565204e+02
7.200000e-07	-1.024446e-06	-2.277244e-09	-7.319034e+00	-1.503723e+02
7.300000e-07	-9.239640e-07	-2.180572e-09	-6.601152e+00	-1.441136e+02
7.400000e-07	-8.231477e-07	-2.083246e-09	-5.880882e+00	-1.377415e+02
7.500000e-07	-7.220422e-07	-1.986606e-09	-5.158545e+00	-1.312537e+02
7.600000e-07	-6.206577e-07	-1.885688e-09	-4.434216e+00	-1.246478e+02
7.700000e-07	-5.190116e-07	-1.779234e-09	-3.708017e+00	-1.179215e+02
7.800000e-07	-4.172079e-07	-1.671156e-09	-2.980692e+00	-1.110719e+02
7.900000e-07	-3.153433e-07	-1.565998e-09	-2.252933e+00	-1.040958e+02
8.000000e-07	-2.134407e-07	-1.461044e-09	-1.524902e+00	-9.698847e+01
8.100000e-07	-1.114328e-07	-1.352607e-09	-7.961184e-01	-8.974437e+01
8.200000e-07	-9.271973e-09	-1.240310e-09	-6.624252e-02	-8.235631e+01
8.300000e-07	9.295713e-08	-1.125470e-09	6.641213e-01	-7.481567e+01
8.400000e-07	1.951182e-07	-1.011309e-09	1.393999e+00	-6.711249e+01
8.500000e-07	2.971898e-07	-8.962890e-10	2.123237e+00	-5.923576e+01
8.600000e-07	3.991905e-07	-7.755739e-10	2.851970e+00	-5.117388e+01
8.700000e-07	5.011333e-07	-6.440590e-10	3.580288e+00	-4.291531e+01
8.800000e-07	6.030081e-07	-5.102893e-10	4.308120e+00	-3.444933e+01
8.900000e-07	7.046891e-07	-3.789339e-10	5.034568e+00	-2.576683e+01
9.000000e-07	8.060293e-07	-2.467164e-10	5.758582e+00	-1.686123e+01
9.100000e-07	9.070730e-07	-1.121060e-10	6.480477e+00	-7.729286e+00
9.200000e-07	1.007832e-06	2.884112e-11	7.200337e+00	1.628147e+00
9.300000e-07	1.108218e-06	1.768853e-10	7.917532e+00	1.120550e+01
9.400000e-07	1.208268e-06	3.317212e-10	8.632328e+00	2.099206e+01
9.500000e-07	1.307987e-06	4.872045e-10	9.344759e+00	3.097173e+01
9.600000e-07	1.407313e-06	6.417540e-10	1.005439e+01	4.112309e+01
9.700000e-07	1.506085e-06	7.977829e-10	1.076005e+01	5.141964e+01
9.800000e-07	1.604086e-06	9.577464e-10	1.146020e+01	6.183027e+01
9.900000e-07	1.701263e-06	1.119957e-09	1.215447e+01	7.232004e+01
1.000000e-06	1.797721e-06	1.282413e-09	1.284360e+01	8.285100e+01
1.010000e-06	1.893490e-06	1.444011e-09	1.352781e+01	9.338321e+01
1.020000e-06	1.988539e-06	1.604172e-09	1.420688e+01	1.038759e+02
1.030000e-06	2.082898e-06	1.765380e-09	1.488102e+01	1.142883e+02
1.040000e-06	2.176556e-06	1.924058e-09	1.555015e+01	1.245812e+02
1.050000e-06	2.269449e-06	2.078675e-09	1.621381e+01	1.347175e+02
1.060000e-06	2.361634e-06	2.227970e-09	1.687242e+01	1.446630e+02
1.070000e-06	2.453156e-06	2.372749e-09	1.752629e+01	1.543875e+02
1.080000e-06	2.543904e-06	2.517105e-09	1.817462e+01	1.638650e+02
1.090000e-06	2.633576e-06	2.659839e-09	1.881527e+01	1.730739e+02
1.100000e-06	2.722038e-06	2.799494e-09	1.944728e+01	1.819975e+02
1.110000e-06	2.809496e-06	2.928335e-09	2.007211e+01	1.906236e+02
1.120000e-06	2.896060e-06	3.048928e-09	2.069056e+01	1.989447e+02
1.130000e-06	2.981694e-06	3.166815e-09	2.130236e+01	2.069574e+02
1.140000e-06	3.066331e-06	3.286013e-09	2.190704e+01	2.146620e+02
1.150000e-06	3.150047e-06	3.401880e-09	2.250514e+01	2.220623e+02
1.160000e-06	3.232803e-06	3.509597e-09	2.309638e+01	2.291651e+02
1.170000e-06	3.314303e-06	3.610459e-09	2.367865e+01	2.359793e+02
1.180000e-06	3.394495e-06	3.706186e-09	2.425157e+01	2.425161e+02
1.190000e-06	3.473504e-06	3.801221e-09	2.481604e+01	2.487877e+02
1.200000e-06	3.551306e-06	3.893645e-09	2.537189e+01	2.548076e+02
1.210000e-06	3.627905e-06	3.982625e-09	2.591914e+01	2.605893e+02
1.220000e-06	3.703278e-06	4.067204e-09	2.645764e+01	2.661466e+02
1.230000e-06	3.777075e-06	4.148647e-09	2.698487e+01	2.714925e+02
1.240000e-06	3.849179e-06	4.226760e-09	2.750000e+01	2.766394e+02
1.250000e-06	3.919865e-06	4.302881e-09	2.800502e+01	2.815982e+02
1.260000e-06	3.989186e-06	4.376201e-09	2.850027e+01	2.863784e+02
1.270000e-06	4.057166e-06	4.447031e-09	2.898594e+01	2.909878e+02
1.280000e-06	4.123726e-06	4.514248e-09	2.946148e+01	2.954323e+02
1.290000e-06	4.188605e-06	4.578876e-09	2.992499e+01	2.997161e+02
1.300000e-06	4.251943e-06	4.639791e-09	3.037751e+01	3.038417e+02
1.310000e-06	4.313891e-06	4.697780e-09	3.082008e+01	3.078103e+02
1.320000e-06	4.374429e-06	4.753965e-09	3.125259e+01	3.116221e+02
1.330000e-06	4.433605e-06	4.805504e-09	3.167537e+01	3.152766e+02
1.340000e-06	4.491100e-06	4.855511e-09	3.208614e+01	3.187732e+02
1.350000e-06	4.546745e-06	4.905625e-09	3.248369e+01	3.221115e+02
1.360000e-06	4.600708e-06	4.954984e-09	3.286922e+01	3.252920e+02
1.370000e-06	4.653036e-06	5.001027e-09	3.324307e+01	3.283159e+02
1.380000e-06	4.703473e-06	5.042029e-09	3.360341e+01	3.311854e+02
1.390000e-06	4.751858e-06	5.079408e-09	3.394909e+01	3.339041e+02
1.400000e-06	4.798505e-06	5.113176e-09	3.428235e+01	3.364765e+02
1.410000e-06	4.843584e-06	5.145002e-09	3.460441e+01	3.389077e+02
1.420000e-06	4.887092e-06	5.176263e-09	3.491525e+01	3.412036e+02
1.430000e-06	4.928721e-06	5.207597e-09	3.521267e+01	3.433700e+02
1.440000e-06	4.968436e-06	5.237594e-09	3.549641e+01	3.454123e+02
1.450000e-06	5.006539e-06	5.265144e-09	3.576863e+01	3.473356e+02
1.460000e-06	5.043077e-06	5.291309e-09	3.602967e+01	3.491440e+02
1.470000e-06	5.078012e-06	5.315708e-09	3.627926e+01	3.508406e+02
1.480000e-06	5.110960e-06	5.337977e-09	3.651465e+01	3.524277e+02
1.490000e-06	5.141974e-06	5.357958e-09	3.673623e+01	3.539065e+02
1.500000e-06	5.171311e-06	5.377127e-09	3.694582e+01	3.552778e+02
1.510000e-06	5.198981e-06	5.394919e-09	3.714351e+01	3.565421e+02
1.520000e-06	5.224747e-06	5.411040e-09	3.732759e+01	3.576997e+02
1.530000e-06	5.248434e-06	5.426596e-09	3.749682e+01	3.587515e+02
1.540000e-06	5.270238e-06	5.440709e-09	3.765260e+01	3.596987e+02
1.550000e-06	5.290330e-06	5.452229e-09	3.779614e+01	3.605430e+02
1.560000e-06	5.308585e-06	5.462477e-09	3.792656e+01	3.612871e+02
1.570000e-06	5.324820e-06	5.473377e-09	3.804255e+01	3.619340e+02
1.580000e-06	5.339132e-06	5.484081e-09	3.814480e+01	3.624868e+02
1.590000e-06	5.351506e-06	5.492418e-09	3.823321e+01	3.629490e+02
1.600000e-06	5.361675e-06	5.497776e-09	3.830586e+01	3.633236e+02
1.610000e-06	5.369642e-06	5.501367e-09	3.836277e+01	3.636130e+02
1.620000e-06	5.375723e-06	5.505664e-09	3.840622e+01	3.638188e+02
1.630000e-06	5.380105e-06	5.510269e-09	3.843753e+01	3.639421e+02
1.640000e-06	5.382706e-06	5.513040e-09	3.845611e+01	3.639828e+02
1.650000e-06	5.383250e-06	5.515576e-09	3.846000e+01	3.639405e+02
1.660000e-06	5.381879e-06	5.509213e-09	3.845020e+01	3.638144e+02
1.670000e-06	5.378832e-06	5.497899e-09	3.842843e+01	3.636038e+02
1.680000e-06	5.374155e-06	5.495832e-09	3.839502e+01	3.633087e+02
1.690000e-06	5.367588e-06	5.491942e-09	3.834810e+01	3.629297e+02
1.700000e-06	5.359134e-06	5.485860e-09	3.828770e+01	3.624688e+02
1.710000e-06	5.349129e-06	5.482876e-09	3.821623e+01	3.619291e+02
1.720000e-06	5.337526e-06	5.488133e-09	3.813332e+01	3.613148e+02
1.730000e-06	5.324084e-06	5.509025e-09	3.803729e+01	3.606313e+02
1.740000e-06	5.308554e-06	5.399000e-09	3.792634e+01	3.598841e+02
1.750000e-06	5.290596e-06	5.354678e-09	3.779804e+01	3.590792e+02
1.760000e-06	5.269930e-06	5.393373e-09	3.765039e+01	3.582213e+02
1.770000e-06	5.246855e-06	5.374575e-09	3.748554e+01	3.573143e+02
1.780000e-06	5.222474e-06	5.544888e-09	3.731135e+01	3.563601e+02
1.790000e-06	5.197534e-06	5.427065e-09	3.713317e+01	3.553586e+02
1.800000e-06	5.171258e-06	5.209555e-09	3.694544e+01	3.543072e+02
1.810000e-06	5.142813e-06	5.447300e-09	3.674222e+01	3.532013e+02
1.820000e-06	5.112607e-06	5.283496e-09	3.652642e+01	3.520342e+02
1.830000e-06	5.080646e-06	5.219247e-09	3.629808e+01	3.507981e+02
1.840000e-06	5.046579e-06	5.533683e-09	3.605469e+01	3.494844e+02
1.850000e-06	5.010950e-06	5.264897e-09	3.580014e+01	3.480848e+02
1.860000e-06	4.973595e-06	5.223263e-09	3.553327e+01	3.465919e+02
1.870000e-06	4.934206e-06	5.378857e-09	3.525185e+01	3.449996e+02
1.880000e-06	4.893249e-06	5.124616e-09	3.495924e+01	3.433044e+02
1.890000e-06	4.850509e-06	5.229848e-09	3.465389e+01	3.415049e+02
1.900000e-06	4.806094e-06	5.207177e-09	3.433657e+01	3.396019e+02
1.910000e-06	4.759972e-06	5.107231e-09	3.400706e+01	3.375988e+02
1.920000e-06	4.711737e-06	5.239463e-09	3.366245e+01	3.355005e+02
1.930000e-06	4.661874e-06	4.983466e-09	3.330621e+01	3.333128e+02
1.940000e-06	4.610419e-06	5.047157e-09	3.293860e+01	3.310423e+02
1.950000e-06	4.556948e-06	5.113161e-09	3.255658e+01	3.286950e+02
1.960000e-06	4.501430e-06	4.925204e-09	3.215993e+01	3.262760e+02
1.970000e-06	4.444199e-06	4.935809e-09	3.175106e+01	3.237891e+02
1.980000e-06	4.385520e-06	4.871860e-09	3.133183e+01	3.212362e+02
1.990000e-06	4.325349e-06	4.938658e-09	3.090195e+01	3.186177e+02
2.000000e-06	4.263520e-06	4.842685e-09	3.046022e+01	3.159323e+02
2.010000e-06	4.200020e-06	4.726005e-09	3.000655e+01	3.131774e+02
2.020000e-06	4.135023e-06	4.793160e-09	2.954219e+01	3.103497e+02
2.030000e-06	4.068591e-06	4.638149e-09	2.906757e+01	3.074457e+02
2.040000e-06	4.000763e-06	4.631689e-09	2.858298e+01	3.044620e+02
2.050000e-06	3.931570e-06	4.631744e-09	2.808864e+01	3.013961e+02
2.060000e-06	3.860824e-06	4.605938e-09	2.758320e+01	2.982463e+02
2.070000e-06	3.788599e-06	4.545723e-09	2.706720e+01	2.950122e+02
2.080000e-06	3.715093e-06	4.383098e-09	2.654205e+01	2.916941e+02
2.090000e-06	3.640236e-06	4.397761e-09	2.600724e+01	2.882934e+02
2.100000e-06	3.564049e-06	4.354989e-09	2.546293e+01	2.848118e+02
2.110000e-06	3.486346e-06	4.314477e-09	2.490779e+01	2.812511e+02
2.120000e-06	3.407114e-06	4.252737e-09	2.434173e+01	2.776125e+02
2.130000e-06	3.326688e-06	4.187928e-09	2.376713e+01	2.738968e+02
2.140000e-06	3.245169e-06	4.148740e-09	2.318473e+01	2.701032e+02
2.150000e-06	3.162545e-06	4.038524e-09	2.259443e+01	2.662303e+02
2.160000e-06	3.078812e-06	4.010119e-09	2.199621e+01	2.622751e+02
2.170000e-06	2.994086e-06	3.960166e-09	2.139089e+01	2.582338e+02
2.180000e-06	2.908209e-06	3.895397e-09	2.077736e+01	2.541021e+02
2.190000e-06	2.821010e-06	3.817515e-09	2.015437e+01	2.498753e+02
2.200000e-06	2.732757e-06	3.754012e-09	1.952386e+01	2.455489e+02
2.210000e-06	2.643649e-06	3.717932e-09	1.888724e+01	2.411191e+02
2.220000e-06	2.553631e-06	3.631289e-09	1.824412e+01	2.365829e+02
2.230000e-06	2.462667e-06	3.543438e-09	1.759423e+01	2.319386e+02
2.240000e-06	2.370914e-06	3.465573e-09	1.693871e+01	2.271857e+02
2.250000e-06	2.278445e-06	3.415077e-09	1.627808e+01	2.223249e+02
2.260000e-06	2.185264e-06	3.344596e-09	1.561236e+01	2.173576e+02
2.270000e-06	2.091187e-06	3.268079e-09	1.494024e+01	2.122861e+02
2.280000e-06	1.995984e-06	3.188753e-09	1.426007e+01	2.071130e+02
2.290000e-06	1.899894e-06	3.092258e-09	1.357357e+01	2.018406e+02
2.300000e-06	1.803266e-06	3.000686e-09	1.288322e+01	1.964709e+02
2.310000e-06	1.706214e-06	2.924958e-09	1.218984e+01	1.910052e+02
2.320000e-06	1.608676e-06	2.866042e-09	1.149300e+01	1.854438e+02
2.330000e-06	1.510585e-06	2.781938e-09	1.079220e+01	1.797861e+02
2.340000e-06	1.411988e-06	2.680511e-09	1.008778e+01	1.740307e+02
2.350000e-06	1.312898e-06	2.580294e-09	9.379847e+00	1.681754e+02
2.360000e-06	1.213354e-06	2.493487e-09	8.668662e+00	1.622175e+02
2.370000e-06	1.113556e-06	2.408633e-09	7.955667e+00	1.561541e+02
2.380000e-06	1.013563e-06	2.317899e-09	7.241280e+00	1.499822e+02
2.390000e-06	9.132193e-07	2.224010e-09	6.524388e+00	1.436991e+02
2.400000e-06	8.124759e-07	2.123898e-09	5.804638e+00	1.373021e+02
2.410000e-06	7.114611e-07	2.024219e-09	5.082950e+00	1.307888e+02
2.420000e-06	6.103029e-07	1.923906e-09	4.360238e+00	1.241570e+02
2.430000e-06	5.089491e-07	1.822782e-09	3.636127e+00	1.174042e+02
2.440000e-06	4.073712e-07	1.717260e-09	2.910416e+00	1.105275e+02
2.450000e-06	3.056430e-07	1.607382e-09	2.183631e+00	1.035233e+02
2.460000e-06	2.037767e-07	1.495885e-09	1.455858e+00	9.638695e+01
2.470000e-06	1.017391e-07	1.387967e-09	7.268628e-01	8.911232e+01
2.480000e-06	-3.960962e-10	1.276513e-09	-2.829862e-03	8.169202e+01
2.490000e-06	-1.025093e-07	1.154806e-09	-7.323658e-01	7.411710e+01
2.500000e-06	-2.046353e-07	1.029393e-09	-1.461993e+00	6.637737e+01
2.510000e-06	-3.067176e-07	9.077977e-10	-2.191308e+00	5.846162e+01
2.520000e-06	-4.086532e-07	7.913838e-10	-2.919575e+00	5.035822e+01
2.530000e-06	-5.103910e-07	6.684249e-10	-3.646429e+00	4.205574e+01
2.540000e-06	-6.119111e-07	5.383667e-10	-4.371727e+00	3.354373e+01
2.550000e-06	-7.132371e-07	4.046154e-10	-5.095638e+00	2.481355e+01
2.560000e-06	-8.142486e-07	2.634479e-10	-5.817303e+00	1.585927e+01
2.570000e-06	-9.149310e-07	1.166674e-10	-6.536617e+00	6.678459e+00
2.580000e-06	-1.015281e-06	-2.690194e-11	-7.253559e+00	-2.727063e+00
2.590000e-06	-1.115254e-06	-1.669184e-10	-7.967800e+00	-1.235065e+01
2.600000e-06	-1.214840e-06	-3.128493e-10	-8.679279e+00	-2.218045e+01
2.610000e-06	-1.314010e-06	-4.655558e-10	-9.387790e+00	-3.219923e+01
2.620000e-06	-1.412779e-06	-6.217574e-10	-1.009343e+01	-4.238442e+01
2.630000e-06	-1.511053e-06	-7.788579e-10	-1.079554e+01	-5.270850e+01
2.640000e-06	-1.608696e-06	-9.369065e-10	-1.149314e+01	-6.313948e+01
2.650000e-06	-1.705774e-06	-1.095341e-09	-1.218670e+01	-7.364168e+01
2.660000e-06	-1.802417e-06	-1.254500e-09	-1.287716e+01	-8.417663e+01
2.670000e-06	-1.898608e-06	-1.416209e-09	-1.356438e+01	-9.470414e+01
2.680000e-06	-1.994179e-06	-1.576990e-09	-1.424718e+01	-1.051833e+02
2.690000e-06	-2.088828e-06	-1.732022e-09	-1.492338e+01	-1.155737e+02
2.700000e-06	-2.182445e-06	-1.883940e-09	-1.559222e+01	-1.258364e+02
2.710000e-06	-2.275164e-06	-2.038066e-09	-1.625464e+01	-1.359349e+02
2.720000e-06	-2.367081e-06	-2.192647e-09	-1.691133e+01	-1.458358e+02
2.730000e-06	-2.458238e-06	-2.343496e-09	-1.756259e+01	-1.555097e+02
2.740000e-06	-2.548484e-06	-2.488146e-09	-1.820734e+01	-1.649316e+02
2.750000e-06	-2.637748e-06	-2.627404e-09	-1.884508e+01	-1.740809e+02
2.760000e-06	-2.726186e-06	-2.762793e-09	-1.947691e+01	-1.829420e+02
2.770000e-06	-2.813864e-06	-2.894025e-09	-2.010332e+01	-1.915036e+02
2.780000e-06	-2.900569e-06	-3.020256e-09	-2.072277e+01	-1.997591e+02
2.790000e-06	-2.986051e-06	-3.139944e-09	-2.133349e+01	-2.077059e+02
2.800000e-06	-3.070395e-06	-3.254481e-09	-2.193608e+01	-2.153452e+02
2.810000e-06	-3.153748e-06	-3.367323e-09	-2.253158e+01	-2.226814e+02
2.820000e-06	-3.236073e-06	-3.478624e-09	-2.311974e+01	-2.297219e+02
2.830000e-06	-3.317334e-06	-3.586352e-09	-2.370030e+01	-2.364760e+02
2.840000e-06	-3.397526e-06	-3.688731e-09	-2.427322e+01	-2.429552e+02
2.850000e-06	-3.476463e-06	-3.783814e-09	-2.483718e+01	-2.491721e+02
2.860000e-06	-3.553855e-06	-3.872181e-09	-2.539010e+01	-2.551401e+02
2.870000e-06	-3.629724e-06	-3.957284e-09	-2.593213e+01	-2.608729e+02
2.880000e-06	-3.704201e-06	-4.041233e-09	-2.646423e+01	-2.663841e+02
2.890000e-06	-3.777364e-06	-4.122085e-09	-2.698693e+01	-2.716867e+02
2.900000e-06	-3.849368e-06	-4.200065e-09	-2.750136e+01	-2.767927e+02
2.910000e-06	-3.919914e-06	-4.275647e-09	-2.800537e+01	-2.817128e+02
2.920000e-06	-3.988783e-06	-4.348803e-09	-2.849739e+01	-2.864562e+02
2.930000e-06	-4.056250e-06	-4.420267e-09	-2.897940e+01	-2.910301e+02
2.940000e-06	-4.122322e-06	-4.489008e-09	-2.945144e+01	-2.954402e+02
