# Temperatura_=_24.44
# Concentracion g/m^3_=_15000.0
# C_Vs_to_Am_M_A/Vsm_=_65563218390.804596
# pendiente_HvsI_1/m_=_3716.3
# ordenada_HvsI_A/m_=_1297.0
# frecuencia_Hz_=_301576.7056565857

Tiempo_(s)	Campo_(V.s)	Magnetizacion_(V.s)	Campo_(kA/m)	Magnetizacion_(A/m)
0.000000e+00	-5.380833e-06	-4.471359e-09	-3.834292e+01	-2.907901e+02
1.000000e-08	-5.377968e-06	-4.472945e-09	-3.832251e+01	-2.906352e+02
2.000000e-08	-5.373360e-06	-4.466647e-09	-3.828967e+01	-2.904200e+02
3.000000e-08	-5.367123e-06	-4.459844e-09	-3.824523e+01	-2.901504e+02
4.000000e-08	-5.359320e-06	-4.453632e-09	-3.818963e+01	-2.898323e+02
5.000000e-08	-5.349688e-06	-4.445558e-09	-3.812099e+01	-2.894710e+02
6.000000e-08	-5.337957e-06	-4.436723e-09	-3.803740e+01	-2.890702e+02
7.000000e-08	-5.324334e-06	-4.422202e-09	-3.794033e+01	-2.886324e+02
8.000000e-08	-5.308594e-06	-4.421346e-09	-3.782816e+01	-2.881574e+02
9.000000e-08	-5.290579e-06	-4.474058e-09	-3.769979e+01	-2.876435e+02
1.000000e-07	-5.270522e-06	-4.461143e-09	-3.755687e+01	-2.870864e+02
1.100000e-07	-5.248595e-06	-4.407720e-09	-3.740062e+01	-2.864808e+02
1.200000e-07	-5.224995e-06	-4.389852e-09	-3.723245e+01	-2.858202e+02
1.300000e-07	-5.199921e-06	-4.276611e-09	-3.705377e+01	-2.850982e+02
1.400000e-07	-5.173217e-06	-4.288110e-09	-3.686349e+01	-2.843088e+02
1.500000e-07	-5.144808e-06	-4.419802e-09	-3.666105e+01	-2.834477e+02
1.600000e-07	-5.114992e-06	-4.294480e-09	-3.644859e+01	-2.825120e+02
1.700000e-07	-5.083616e-06	-4.352481e-09	-3.622501e+01	-2.815015e+02
1.800000e-07	-5.050039e-06	-4.381252e-09	-3.598574e+01	-2.804177e+02
1.900000e-07	-5.014629e-06	-4.130439e-09	-3.573342e+01	-2.792644e+02
2.000000e-07	-4.977788e-06	-4.204373e-09	-3.547089e+01	-2.780466e+02
2.100000e-07	-4.939163e-06	-4.263935e-09	-3.519566e+01	-2.767704e+02
2.200000e-07	-4.898739e-06	-4.193230e-09	-3.490760e+01	-2.754416e+02
2.300000e-07	-4.856358e-06	-4.240497e-09	-3.460560e+01	-2.740655e+02
2.400000e-07	-4.812071e-06	-4.149375e-09	-3.429002e+01	-2.726462e+02
2.500000e-07	-4.766085e-06	-4.075874e-09	-3.396233e+01	-2.711858e+02
2.600000e-07	-4.718159e-06	-4.128510e-09	-3.362082e+01	-2.696847e+02
2.700000e-07	-4.668109e-06	-4.117112e-09	-3.326417e+01	-2.681412e+02
2.800000e-07	-4.616011e-06	-4.118762e-09	-3.289293e+01	-2.665521e+02
2.900000e-07	-4.562071e-06	-4.035952e-09	-3.250856e+01	-2.649131e+02
3.000000e-07	-4.506591e-06	-3.950971e-09	-3.211322e+01	-2.632191e+02
3.100000e-07	-4.449417e-06	-3.976246e-09	-3.170581e+01	-2.614653e+02
3.200000e-07	-4.390397e-06	-4.010531e-09	-3.128524e+01	-2.596475e+02
3.300000e-07	-4.329833e-06	-3.970389e-09	-3.085367e+01	-2.577626e+02
3.400000e-07	-4.267864e-06	-3.865145e-09	-3.041209e+01	-2.558087e+02
3.500000e-07	-4.204541e-06	-3.837464e-09	-2.996086e+01	-2.537856e+02
3.600000e-07	-4.139675e-06	-3.819130e-09	-2.949864e+01	-2.516942e+02
3.700000e-07	-4.073074e-06	-3.811822e-09	-2.902405e+01	-2.495366e+02
3.800000e-07	-4.004905e-06	-3.822674e-09	-2.853829e+01	-2.473153e+02
3.900000e-07	-3.935419e-06	-3.753243e-09	-2.804315e+01	-2.450331e+02
4.000000e-07	-3.864679e-06	-3.672551e-09	-2.753907e+01	-2.426924e+02
4.100000e-07	-3.792703e-06	-3.615682e-09	-2.702618e+01	-2.402950e+02
4.200000e-07	-3.719347e-06	-3.608659e-09	-2.650345e+01	-2.378417e+02
4.300000e-07	-3.644407e-06	-3.614566e-09	-2.596944e+01	-2.353324e+02
4.400000e-07	-3.567990e-06	-3.570413e-09	-2.542491e+01	-2.327660e+02
4.500000e-07	-3.490156e-06	-3.495054e-09	-2.487028e+01	-2.301404e+02
4.600000e-07	-3.410868e-06	-3.426395e-09	-2.430528e+01	-2.274533e+02
4.700000e-07	-3.330258e-06	-3.402776e-09	-2.373086e+01	-2.247020e+02
4.800000e-07	-3.248481e-06	-3.389734e-09	-2.314814e+01	-2.218835e+02
4.900000e-07	-3.165572e-06	-3.346907e-09	-2.255735e+01	-2.189954e+02
5.000000e-07	-3.081673e-06	-3.285601e-09	-2.195949e+01	-2.160352e+02
5.100000e-07	-2.996864e-06	-3.216797e-09	-2.135516e+01	-2.130012e+02
5.200000e-07	-2.911076e-06	-3.167951e-09	-2.074384e+01	-2.098914e+02
5.300000e-07	-2.824283e-06	-3.140324e-09	-2.012537e+01	-2.067042e+02
5.400000e-07	-2.736606e-06	-3.105746e-09	-1.950060e+01	-2.034381e+02
5.500000e-07	-2.647963e-06	-3.041353e-09	-1.886895e+01	-2.000912e+02
5.600000e-07	-2.558006e-06	-2.957027e-09	-1.822793e+01	-1.966614e+02
5.700000e-07	-2.466897e-06	-2.899391e-09	-1.757870e+01	-1.931466e+02
5.800000e-07	-2.375030e-06	-2.867560e-09	-1.692407e+01	-1.895444e+02
5.900000e-07	-2.282472e-06	-2.826644e-09	-1.626452e+01	-1.858524e+02
6.000000e-07	-2.189139e-06	-2.756565e-09	-1.559944e+01	-1.820686e+02
6.100000e-07	-2.094961e-06	-2.682388e-09	-1.492835e+01	-1.781917e+02
6.200000e-07	-2.000070e-06	-2.616326e-09	-1.425217e+01	-1.742207e+02
6.300000e-07	-1.904592e-06	-2.555741e-09	-1.357181e+01	-1.701560e+02
6.400000e-07	-1.808393e-06	-2.506867e-09	-1.288631e+01	-1.659985e+02
6.500000e-07	-1.711386e-06	-2.452998e-09	-1.219506e+01	-1.617499e+02
6.600000e-07	-1.613558e-06	-2.379537e-09	-1.149795e+01	-1.574127e+02
6.700000e-07	-1.515010e-06	-2.293104e-09	-1.079571e+01	-1.529893e+02
6.800000e-07	-1.415949e-06	-2.220615e-09	-1.008982e+01	-1.484819e+02
6.900000e-07	-1.316475e-06	-2.161656e-09	-9.380984e+00	-1.438922e+02
7.000000e-07	-1.216597e-06	-2.096407e-09	-8.669266e+00	-1.392207e+02
7.100000e-07	-1.116389e-06	-2.017931e-09	-7.955200e+00	-1.344667e+02
7.200000e-07	-1.015902e-06	-1.935819e-09	-7.239152e+00	-1.296281e+02
7.300000e-07	-9.151241e-07	-1.858273e-09	-6.521023e+00	-1.247014e+02
7.400000e-07	-8.140359e-07	-1.785929e-09	-5.800685e+00	-1.196820e+02
7.500000e-07	-7.126271e-07	-1.716210e-09	-5.078062e+00	-1.145645e+02
7.600000e-07	-6.109539e-07	-1.637527e-09	-4.353556e+00	-1.093432e+02
7.700000e-07	-5.090393e-07	-1.546628e-09	-3.627330e+00	-1.040127e+02
7.800000e-07	-4.069857e-07	-1.452728e-09	-2.900113e+00	-9.856817e+01
7.900000e-07	-3.048230e-07	-1.366688e-09	-2.172118e+00	-9.300564e+01
8.000000e-07	-2.025047e-07	-1.285432e-09	-1.443015e+00	-8.732240e+01
8.100000e-07	-1.000355e-07	-1.199757e-09	-7.128363e-01	-8.151680e+01
8.200000e-07	2.513852e-09	-1.108971e-09	1.791329e-02	-7.558809e+01
8.300000e-07	1.050310e-07	-1.015155e-09	7.484333e-01	-6.953605e+01
8.400000e-07	2.074954e-07	-9.216292e-10	1.478578e+00	-6.336051e+01
8.500000e-07	3.098963e-07	-8.295392e-10	2.208270e+00	-5.706083e+01
8.600000e-07	4.122401e-07	-7.355553e-10	2.937555e+00	-5.063545e+01
8.700000e-07	5.144977e-07	-6.345451e-10	3.666225e+00	-4.408151e+01
8.800000e-07	6.166005e-07	-5.285990e-10	4.393793e+00	-3.739476e+01
8.900000e-07	7.184887e-07	-4.227179e-10	5.119831e+00	-3.056969e+01
9.000000e-07	8.200377e-07	-3.185923e-10	5.843453e+00	-2.359982e+01
9.100000e-07	9.212509e-07	-2.155981e-10	6.564682e+00	-1.647841e+01
9.200000e-07	1.022152e-06	-1.101929e-10	7.283689e+00	-9.199248e+00
9.300000e-07	1.122689e-06	1.759291e-12	8.000095e+00	-1.757571e+00
9.400000e-07	1.222942e-06	1.217803e-10	8.714483e+00	5.848905e+00
9.500000e-07	1.322846e-06	2.410314e-10	9.426379e+00	1.361908e+01
9.600000e-07	1.422270e-06	3.570323e-10	1.013486e+01	2.154770e+01
9.700000e-07	1.521161e-06	4.750433e-10	1.083954e+01	2.962479e+01
9.800000e-07	1.619371e-06	5.990788e-10	1.153937e+01	3.783542e+01
9.900000e-07	1.716794e-06	7.270111e-10	1.223359e+01	4.615972e+01
1.000000e-06	1.813403e-06	8.561664e-10	1.292201e+01	5.457327e+01
1.010000e-06	1.909273e-06	9.840400e-10	1.360516e+01	6.304769e+01
1.020000e-06	2.004490e-06	1.109217e-09	1.428367e+01	7.155152e+01
1.030000e-06	2.099047e-06	1.235609e-09	1.495746e+01	8.005122e+01
1.040000e-06	2.192847e-06	1.363773e-09	1.562586e+01	8.851226e+01
1.050000e-06	2.285887e-06	1.491470e-09	1.628885e+01	9.690021e+01
1.060000e-06	2.378226e-06	1.616557e-09	1.694684e+01	1.051818e+02
1.070000e-06	2.469861e-06	1.736502e-09	1.759982e+01	1.133259e+02
1.080000e-06	2.560682e-06	1.853972e-09	1.824700e+01	1.213043e+02
1.090000e-06	2.650432e-06	1.971534e-09	1.888654e+01	1.290922e+02
1.100000e-06	2.738967e-06	2.090122e-09	1.951742e+01	1.366688e+02
1.110000e-06	2.826467e-06	2.203714e-09	2.014094e+01	1.440178e+02
1.120000e-06	2.913101e-06	2.309506e-09	2.075828e+01	1.511271e+02
1.130000e-06	2.998772e-06	2.410560e-09	2.136875e+01	1.579892e+02
1.140000e-06	3.083466e-06	2.512051e-09	2.197227e+01	1.646005e+02
1.150000e-06	3.167275e-06	2.611684e-09	2.256947e+01	1.709616e+02
1.160000e-06	3.250125e-06	2.706372e-09	2.315985e+01	1.770765e+02
1.170000e-06	3.331706e-06	2.795821e-09	2.374118e+01	1.829522e+02
1.180000e-06	3.412005e-06	2.878230e-09	2.431338e+01	1.885979e+02
1.190000e-06	3.491153e-06	2.958790e-09	2.487738e+01	1.940244e+02
1.200000e-06	3.569056e-06	3.039632e-09	2.543250e+01	1.992434e+02
1.210000e-06	3.645684e-06	3.120010e-09	2.597854e+01	2.042667e+02
1.220000e-06	3.721028e-06	3.196352e-09	2.651543e+01	2.091055e+02
1.230000e-06	3.794834e-06	3.266096e-09	2.704136e+01	2.137696e+02
1.240000e-06	3.866993e-06	3.330962e-09	2.755555e+01	2.182673e+02
1.250000e-06	3.937715e-06	3.395622e-09	2.805951e+01	2.226049e+02
1.260000e-06	4.007098e-06	3.461731e-09	2.855392e+01	2.267863e+02
1.270000e-06	4.075125e-06	3.525645e-09	2.903867e+01	2.308139e+02
1.280000e-06	4.141733e-06	3.581763e-09	2.951331e+01	2.346881e+02
1.290000e-06	4.206665e-06	3.633653e-09	2.997600e+01	2.384081e+02
1.300000e-06	4.269971e-06	3.683615e-09	3.042710e+01	2.419727e+02
1.310000e-06	4.331868e-06	3.733696e-09	3.086817e+01	2.453804e+02
1.320000e-06	4.392326e-06	3.783567e-09	3.129899e+01	2.486303e+02
1.330000e-06	4.451433e-06	3.828038e-09	3.172017e+01	2.517227e+02
1.340000e-06	4.508903e-06	3.868046e-09	3.212969e+01	2.546590e+02
1.350000e-06	4.564533e-06	3.907745e-09	3.252611e+01	2.574423e+02
1.360000e-06	4.618516e-06	3.949246e-09	3.291078e+01	2.600769e+02
1.370000e-06	4.670793e-06	3.988193e-09	3.328330e+01	2.625685e+02
1.380000e-06	4.721094e-06	4.022040e-09	3.364173e+01	2.649236e+02
1.390000e-06	4.769394e-06	4.050864e-09	3.398591e+01	2.671491e+02
1.400000e-06	4.815967e-06	4.076990e-09	3.431778e+01	2.692517e+02
1.410000e-06	4.860953e-06	4.103755e-09	3.463834e+01	2.712379e+02
1.420000e-06	4.904408e-06	4.130830e-09	3.494800e+01	2.731130e+02
1.430000e-06	4.945995e-06	4.157685e-09	3.524434e+01	2.748818e+02
1.440000e-06	4.985662e-06	4.181525e-09	3.552700e+01	2.765476e+02
1.450000e-06	5.023715e-06	4.202814e-09	3.579816e+01	2.781132e+02
1.460000e-06	5.060184e-06	4.223752e-09	3.605803e+01	2.795805e+02
1.470000e-06	5.094950e-06	4.246084e-09	3.630577e+01	2.809512e+02
1.480000e-06	5.127740e-06	4.267470e-09	3.653943e+01	2.822270e+02
1.490000e-06	5.158680e-06	4.284720e-09	3.675990e+01	2.834097e+02
1.500000e-06	5.187949e-06	4.299052e-09	3.696847e+01	2.845018e+02
1.510000e-06	5.215570e-06	4.311996e-09	3.716529e+01	2.855061e+02
1.520000e-06	5.241190e-06	4.323318e-09	3.734785e+01	2.864260e+02
1.530000e-06	5.264676e-06	4.334819e-09	3.751521e+01	2.872649e+02
1.540000e-06	5.286372e-06	4.348254e-09	3.766981e+01	2.880263e+02
1.550000e-06	5.306365e-06	4.360845e-09	3.781228e+01	2.887132e+02
1.560000e-06	5.324547e-06	4.372084e-09	3.794184e+01	2.893281e+02
1.570000e-06	5.340704e-06	4.383603e-09	3.805697e+01	2.898724e+02
1.580000e-06	5.354824e-06	4.394827e-09	3.815759e+01	2.903465e+02
1.590000e-06	5.366933e-06	4.402410e-09	3.824388e+01	2.907503e+02
1.600000e-06	5.376822e-06	4.405271e-09	3.831434e+01	2.910825e+02
1.610000e-06	5.384571e-06	4.406344e-09	3.836956e+01	2.913419e+02
1.620000e-06	5.390501e-06	4.409041e-09	3.841182e+01	2.915275e+02
1.630000e-06	5.394706e-06	4.413793e-09	3.844178e+01	2.916385e+02
1.640000e-06	5.396997e-06	4.418722e-09	3.845811e+01	2.916756e+02
1.650000e-06	5.397263e-06	4.423666e-09	3.846000e+01	2.916405e+02
1.660000e-06	5.395695e-06	4.421094e-09	3.844883e+01	2.915364e+02
1.670000e-06	5.392449e-06	4.413682e-09	3.842570e+01	2.913678e+02
1.680000e-06	5.387563e-06	4.412912e-09	3.839089e+01	2.911402e+02
1.690000e-06	5.380779e-06	4.411514e-09	3.834254e+01	2.908595e+02
1.700000e-06	5.372189e-06	4.408874e-09	3.828133e+01	2.905314e+02
1.710000e-06	5.362076e-06	4.407474e-09	3.820926e+01	2.901611e+02
1.720000e-06	5.350256e-06	4.409251e-09	3.812504e+01	2.897520e+02
1.730000e-06	5.336448e-06	4.419737e-09	3.802665e+01	2.893060e+02
1.740000e-06	5.320546e-06	4.333748e-09	3.791333e+01	2.888227e+02
1.750000e-06	5.302247e-06	4.314353e-09	3.778294e+01	2.882996e+02
1.760000e-06	5.281215e-06	4.352402e-09	3.763307e+01	2.877323e+02
1.770000e-06	5.257911e-06	4.342163e-09	3.746700e+01	2.871152e+02
1.780000e-06	5.233392e-06	4.463143e-09	3.729229e+01	2.864417e+02
1.790000e-06	5.208281e-06	4.373145e-09	3.711335e+01	2.857055e+02
1.800000e-06	5.181729e-06	4.240753e-09	3.692414e+01	2.849008e+02
1.810000e-06	5.152895e-06	4.400587e-09	3.671868e+01	2.840236e+02
1.820000e-06	5.122317e-06	4.251423e-09	3.650079e+01	2.830716e+02
1.830000e-06	5.090030e-06	4.220471e-09	3.627071e+01	2.820449e+02
1.840000e-06	5.055689e-06	4.446948e-09	3.602600e+01	2.809455e+02
1.850000e-06	5.019795e-06	4.258206e-09	3.577023e+01	2.797777e+02
1.860000e-06	4.982151e-06	4.238779e-09	3.550198e+01	2.785466e+02
1.870000e-06	4.942565e-06	4.266512e-09	3.521990e+01	2.772583e+02
1.880000e-06	4.901349e-06	4.066891e-09	3.492620e+01	2.759187e+02
1.890000e-06	4.858275e-06	4.216387e-09	3.461926e+01	2.745328e+02
1.900000e-06	4.813629e-06	4.205547e-09	3.430112e+01	2.731043e+02
1.910000e-06	4.767198e-06	4.126409e-09	3.397027e+01	2.716349e+02
1.920000e-06	4.718590e-06	4.177476e-09	3.362389e+01	2.701247e+02
1.930000e-06	4.668386e-06	3.969928e-09	3.326615e+01	2.685715e+02
1.940000e-06	4.616542e-06	4.067295e-09	3.289672e+01	2.669718e+02
1.950000e-06	4.562586e-06	4.131714e-09	3.251223e+01	2.653212e+02
1.960000e-06	4.506679e-06	4.007592e-09	3.211385e+01	2.636145e+02
1.970000e-06	4.449105e-06	3.986666e-09	3.170359e+01	2.618471e+02
1.980000e-06	4.390074e-06	3.895786e-09	3.128294e+01	2.600148e+02
1.990000e-06	4.329611e-06	3.954924e-09	3.085210e+01	2.581149e+02
2.000000e-06	4.267490e-06	3.917985e-09	3.040943e+01	2.561459e+02
2.010000e-06	4.203694e-06	3.876121e-09	2.995483e+01	2.541078e+02
2.020000e-06	4.138377e-06	3.891891e-09	2.948939e+01	2.520017e+02
2.030000e-06	4.071630e-06	3.744902e-09	2.901376e+01	2.498300e+02
2.040000e-06	4.003496e-06	3.737287e-09	2.852825e+01	2.475951e+02
2.050000e-06	3.934006e-06	3.735781e-09	2.803307e+01	2.452999e+02
2.060000e-06	3.862947e-06	3.767574e-09	2.752672e+01	2.429467e+02
2.070000e-06	3.790429e-06	3.733279e-09	2.700997e+01	2.405370e+02
2.080000e-06	3.716685e-06	3.587342e-09	2.648448e+01	2.380715e+02
2.090000e-06	3.641541e-06	3.566793e-09	2.594902e+01	2.355498e+02
2.100000e-06	3.564927e-06	3.536614e-09	2.540308e+01	2.329706e+02
2.110000e-06	3.486665e-06	3.548028e-09	2.484540e+01	2.303319e+02
2.120000e-06	3.407022e-06	3.504436e-09	2.427788e+01	2.276310e+02
2.130000e-06	3.326361e-06	3.441976e-09	2.370310e+01	2.248652e+02
2.140000e-06	3.244536e-06	3.393430e-09	2.312003e+01	2.220317e+02
2.150000e-06	3.161577e-06	3.313639e-09	2.252887e+01	2.191281e+02
2.160000e-06	3.077668e-06	3.313652e-09	2.193095e+01	2.161520e+02
2.170000e-06	2.992815e-06	3.295118e-09	2.132630e+01	2.131015e+02
2.180000e-06	2.906598e-06	3.238771e-09	2.071194e+01	2.099750e+02
2.190000e-06	2.819008e-06	3.142334e-09	2.008778e+01	2.067709e+02
2.200000e-06	2.730466e-06	3.085924e-09	1.945685e+01	2.034873e+02
2.210000e-06	2.641066e-06	3.082500e-09	1.881980e+01	2.001226e+02
2.220000e-06	2.550776e-06	3.046874e-09	1.817641e+01	1.966745e+02
2.230000e-06	2.459620e-06	2.981224e-09	1.752684e+01	1.931409e+02
2.240000e-06	2.367760e-06	2.904497e-09	1.687226e+01	1.895193e+02
2.250000e-06	2.275200e-06	2.850557e-09	1.621270e+01	1.858075e+02
2.260000e-06	2.181746e-06	2.790161e-09	1.554676e+01	1.820036e+02
2.270000e-06	2.087172e-06	2.750569e-09	1.487284e+01	1.781063e+02
2.280000e-06	1.991557e-06	2.709404e-09	1.419151e+01	1.741150e+02
2.290000e-06	1.895277e-06	2.627622e-09	1.350543e+01	1.700300e+02
2.300000e-06	1.798440e-06	2.531093e-09	1.281539e+01	1.658525e+02
2.310000e-06	1.701077e-06	2.463968e-09	1.212160e+01	1.615845e+02
2.320000e-06	1.603201e-06	2.432798e-09	1.142414e+01	1.572283e+02
2.330000e-06	1.504803e-06	2.383104e-09	1.072298e+01	1.527864e+02
2.340000e-06	1.405901e-06	2.304586e-09	1.001821e+01	1.482610e+02
2.350000e-06	1.306526e-06	2.217386e-09	9.310092e+00	1.436535e+02
2.360000e-06	1.206793e-06	2.144336e-09	8.599404e+00	1.389642e+02
2.370000e-06	1.106801e-06	2.077632e-09	7.886878e+00	1.341921e+02
2.380000e-06	1.006608e-06	2.013992e-09	7.172922e+00	1.293347e+02
2.390000e-06	9.060618e-07	1.942530e-09	6.456446e+00	1.243882e+02
2.400000e-06	8.050288e-07	1.850227e-09	5.736502e+00	1.193480e+02
2.410000e-06	7.036221e-07	1.758607e-09	5.013894e+00	1.142084e+02
2.420000e-06	6.020552e-07	1.685670e-09	4.290145e+00	1.089639e+02
2.430000e-06	5.002934e-07	1.625774e-09	3.565008e+00	1.036091e+02
2.440000e-06	3.982366e-07	1.553999e-09	2.837768e+00	9.813929e+01
2.450000e-06	2.959393e-07	1.460664e-09	2.108814e+00	9.255083e+01
2.460000e-06	1.935100e-07	1.358562e-09	1.378920e+00	8.684120e+01
2.470000e-06	9.105644e-08	1.266059e-09	6.488531e-01	8.100898e+01
2.480000e-06	-1.155962e-08	1.180928e-09	-8.237192e-02	7.505358e+01
2.490000e-06	-1.142600e-07	1.091433e-09	-8.141978e-01	6.897483e+01
2.500000e-06	-2.168848e-07	9.942781e-10	-1.545485e+00	6.277250e+01
2.510000e-06	-3.194273e-07	8.928258e-10	-2.276186e+00	5.644579e+01
2.520000e-06	-4.217956e-07	7.941817e-10	-3.005645e+00	4.999287e+01
2.530000e-06	-5.239701e-07	6.986985e-10	-3.733724e+00	4.341060e+01
2.540000e-06	-6.259365e-07	6.048767e-10	-4.460320e+00	3.669445e+01
2.550000e-06	-7.275853e-07	5.021046e-10	-5.184653e+00	2.983864e+01
2.560000e-06	-8.288413e-07	3.829444e-10	-5.906186e+00	2.283660e+01
2.570000e-06	-9.296632e-07	2.593999e-10	-6.624626e+00	1.568161e+01
2.580000e-06	-1.030058e-06	1.468248e-10	-7.340026e+00	8.367677e+00
2.590000e-06	-1.130123e-06	4.048393e-11	-8.053070e+00	8.905061e-01
2.600000e-06	-1.229883e-06	-7.392062e-11	-8.763946e+00	-6.751543e+00
2.610000e-06	-1.329297e-06	-1.980612e-10	-9.472350e+00	-1.455654e+01
2.620000e-06	-1.428271e-06	-3.261332e-10	-1.017762e+01	-2.251825e+01
2.630000e-06	-1.526709e-06	-4.522982e-10	-1.087908e+01	-3.062565e+01
2.640000e-06	-1.624545e-06	-5.747636e-10	-1.157624e+01	-3.886275e+01
2.650000e-06	-1.721784e-06	-6.974033e-10	-1.226915e+01	-4.720865e+01
2.660000e-06	-1.818453e-06	-8.266627e-10	-1.295800e+01	-5.563802e+01
2.670000e-06	-1.914591e-06	-9.648159e-10	-1.364306e+01	-6.412175e+01
2.680000e-06	-2.010255e-06	-1.102512e-09	-1.432474e+01	-7.262783e+01
2.690000e-06	-2.105260e-06	-1.230868e-09	-1.500174e+01	-8.112244e+01
2.700000e-06	-2.199259e-06	-1.355069e-09	-1.567156e+01	-8.957096e+01
2.710000e-06	-2.292193e-06	-1.484297e-09	-1.633378e+01	-9.793914e+01
2.720000e-06	-2.384214e-06	-1.616628e-09	-1.698951e+01	-1.061941e+02
2.730000e-06	-2.475426e-06	-1.744250e-09	-1.763948e+01	-1.143052e+02
2.740000e-06	-2.565744e-06	-1.864785e-09	-1.828307e+01	-1.222450e+02
2.750000e-06	-2.655111e-06	-1.980391e-09	-1.891988e+01	-1.299895e+02
2.760000e-06	-2.743605e-06	-2.093642e-09	-1.955048e+01	-1.375188e+02
2.770000e-06	-2.831341e-06	-2.205173e-09	-2.017567e+01	-1.448176e+02
2.780000e-06	-2.918211e-06	-2.316130e-09	-2.079469e+01	-1.518747e+02
2.790000e-06	-3.003846e-06	-2.422178e-09	-2.140491e+01	-1.586834e+02
2.800000e-06	-3.088263e-06	-2.521169e-09	-2.200645e+01	-1.652412e+02
2.810000e-06	-3.171657e-06	-2.615145e-09	-2.260070e+01	-1.715494e+02
2.820000e-06	-3.254095e-06	-2.706736e-09	-2.318814e+01	-1.776127e+02
2.830000e-06	-3.335462e-06	-2.798287e-09	-2.376795e+01	-1.834385e+02
2.840000e-06	-3.415698e-06	-2.885198e-09	-2.433970e+01	-1.890365e+02
2.850000e-06	-3.494695e-06	-2.966621e-09	-2.490262e+01	-1.944178e+02
2.860000e-06	-3.572192e-06	-3.044657e-09	-2.545485e+01	-1.995942e+02
2.870000e-06	-3.648193e-06	-3.118480e-09	-2.599642e+01	-2.045774e+02
2.880000e-06	-3.722808e-06	-3.191652e-09	-2.652811e+01	-2.093782e+02
2.890000e-06	-3.796057e-06	-3.263297e-09	-2.705007e+01	-2.140063e+02
2.900000e-06	-3.868026e-06	-3.332006e-09	-2.756292e+01	-2.184695e+02
2.910000e-06	-3.938577e-06	-3.397416e-09	-2.806565e+01	-2.227736e+02
2.920000e-06	-4.007503e-06	-3.461124e-09	-2.855680e+01	-2.269222e+02
2.930000e-06	-4.074948e-06	-3.524452e-09	-2.903741e+01	-2.309172e+02
2.940000e-06	-4.140997e-06	-3.585840e-09	-2.950806e+01	-2.347587e+02
