# Temperatura_=_57.34
# Concentracion g/m^3_=_15000.0
# C_Vs_to_Am_M_A/Vsm_=_65563218390.804596
# pendiente_HvsI_1/m_=_3716.3
# ordenada_HvsI_A/m_=_1297.0
# frecuencia_Hz_=_301575.0155733041

Tiempo_(s)	Campo_(V.s)	Magnetizacion_(V.s)	Campo_(kA/m)	Magnetizacion_(A/m)
0.000000e+00	-5.381222e-06	-5.496814e-09	-3.834120e+01	-3.592830e+02
1.000000e-08	-5.378501e-06	-5.496484e-09	-3.832182e+01	-3.591744e+02
2.000000e-08	-5.373963e-06	-5.491580e-09	-3.828948e+01	-3.589910e+02
3.000000e-08	-5.367791e-06	-5.485928e-09	-3.824550e+01	-3.587305e+02
4.000000e-08	-5.360042e-06	-5.479068e-09	-3.819029e+01	-3.583905e+02
5.000000e-08	-5.350456e-06	-5.469550e-09	-3.812199e+01	-3.579686e+02
6.000000e-08	-5.338844e-06	-5.459812e-09	-3.803926e+01	-3.574628e+02
7.000000e-08	-5.325337e-06	-5.446443e-09	-3.794302e+01	-3.568722e+02
8.000000e-08	-5.309746e-06	-5.440017e-09	-3.783193e+01	-3.561963e+02
9.000000e-08	-5.291916e-06	-5.474506e-09	-3.770490e+01	-3.554361e+02
1.000000e-07	-5.272022e-06	-5.469443e-09	-3.756315e+01	-3.545934e+02
1.100000e-07	-5.250230e-06	-5.427992e-09	-3.740788e+01	-3.536708e+02
1.200000e-07	-5.226793e-06	-5.404047e-09	-3.724089e+01	-3.526715e+02
1.300000e-07	-5.201787e-06	-5.312356e-09	-3.706273e+01	-3.515985e+02
1.400000e-07	-5.175122e-06	-5.311795e-09	-3.687274e+01	-3.504549e+02
1.500000e-07	-5.146847e-06	-5.406621e-09	-3.667128e+01	-3.492426e+02
1.600000e-07	-5.117096e-06	-5.299583e-09	-3.645931e+01	-3.479631e+02
1.700000e-07	-5.085718e-06	-5.303945e-09	-3.623574e+01	-3.466163e+02
1.800000e-07	-5.052211e-06	-5.331411e-09	-3.599700e+01	-3.452012e+02
1.900000e-07	-5.016902e-06	-5.185533e-09	-3.574542e+01	-3.437154e+02
2.000000e-07	-4.980140e-06	-5.244291e-09	-3.548350e+01	-3.421562e+02
2.100000e-07	-4.941598e-06	-5.258828e-09	-3.520888e+01	-3.405201e+02
2.200000e-07	-4.901234e-06	-5.152939e-09	-3.492129e+01	-3.388037e+02
2.300000e-07	-4.858886e-06	-5.163001e-09	-3.461956e+01	-3.370040e+02
2.400000e-07	-4.814650e-06	-5.112673e-09	-3.430437e+01	-3.351189e+02
2.500000e-07	-4.768706e-06	-5.070424e-09	-3.397702e+01	-3.331471e+02
2.600000e-07	-4.720829e-06	-5.089180e-09	-3.363590e+01	-3.310886e+02
2.700000e-07	-4.670890e-06	-5.015119e-09	-3.328009e+01	-3.289445e+02
2.800000e-07	-4.618904e-06	-4.983492e-09	-3.290968e+01	-3.267167e+02
2.900000e-07	-4.565056e-06	-4.964766e-09	-3.252602e+01	-3.244079e+02
3.000000e-07	-4.509592e-06	-4.916215e-09	-3.213084e+01	-3.220210e+02
3.100000e-07	-4.452416e-06	-4.896875e-09	-3.172346e+01	-3.195586e+02
3.200000e-07	-4.393439e-06	-4.872936e-09	-3.130325e+01	-3.170231e+02
3.300000e-07	-4.332916e-06	-4.801452e-09	-3.087202e+01	-3.144159e+02
3.400000e-07	-4.270951e-06	-4.718795e-09	-3.043052e+01	-3.117374e+02
3.500000e-07	-4.207611e-06	-4.714774e-09	-2.997923e+01	-3.089874e+02
3.600000e-07	-4.142828e-06	-4.694858e-09	-2.951764e+01	-3.061645e+02
3.700000e-07	-4.076373e-06	-4.642327e-09	-2.904415e+01	-3.032670e+02
3.800000e-07	-4.008315e-06	-4.605845e-09	-2.855924e+01	-3.002929e+02
3.900000e-07	-3.938888e-06	-4.539263e-09	-2.806457e+01	-2.972402e+02
4.000000e-07	-3.868225e-06	-4.480382e-09	-2.756110e+01	-2.941075e+02
4.100000e-07	-3.796329e-06	-4.434118e-09	-2.704884e+01	-2.908939e+02
4.200000e-07	-3.723063e-06	-4.391482e-09	-2.652682e+01	-2.875995e+02
4.300000e-07	-3.648255e-06	-4.347142e-09	-2.599381e+01	-2.842253e+02
4.400000e-07	-3.571858e-06	-4.286037e-09	-2.544948e+01	-2.807727e+02
4.500000e-07	-3.494021e-06	-4.226943e-09	-2.489489e+01	-2.772439e+02
4.600000e-07	-3.414855e-06	-4.178528e-09	-2.433084e+01	-2.736408e+02
4.700000e-07	-3.334361e-06	-4.129158e-09	-2.375732e+01	-2.699654e+02
4.800000e-07	-3.252631e-06	-4.062354e-09	-2.317499e+01	-2.662187e+02
4.900000e-07	-3.169738e-06	-3.996098e-09	-2.258438e+01	-2.624009e+02
5.000000e-07	-3.085821e-06	-3.942089e-09	-2.198647e+01	-2.585112e+02
5.100000e-07	-3.001010e-06	-3.882892e-09	-2.138220e+01	-2.545474e+02
5.200000e-07	-2.915241e-06	-3.824104e-09	-2.077109e+01	-2.505066e+02
5.300000e-07	-2.828487e-06	-3.759262e-09	-2.015297e+01	-2.463848e+02
5.400000e-07	-2.740787e-06	-3.684024e-09	-1.952810e+01	-2.421779e+02
5.500000e-07	-2.652156e-06	-3.611573e-09	-1.889661e+01	-2.378815e+02
5.600000e-07	-2.562462e-06	-3.546008e-09	-1.825754e+01	-2.334917e+02
5.700000e-07	-2.471573e-06	-3.488639e-09	-1.760996e+01	-2.290052e+02
5.800000e-07	-2.379791e-06	-3.422453e-09	-1.695601e+01	-2.244198e+02
5.900000e-07	-2.287304e-06	-3.343441e-09	-1.629704e+01	-2.197341e+02
6.000000e-07	-2.193937e-06	-3.261763e-09	-1.563180e+01	-2.149478e+02
6.100000e-07	-2.099774e-06	-3.186475e-09	-1.496089e+01	-2.100611e+02
6.200000e-07	-2.004916e-06	-3.113843e-09	-1.428503e+01	-2.050748e+02
6.300000e-07	-1.909366e-06	-3.039242e-09	-1.360423e+01	-1.999898e+02
6.400000e-07	-1.813117e-06	-2.964666e-09	-1.291846e+01	-1.948067e+02
6.500000e-07	-1.716186e-06	-2.885499e-09	-1.222782e+01	-1.895253e+02
6.600000e-07	-1.618593e-06	-2.801689e-09	-1.153248e+01	-1.841448e+02
6.700000e-07	-1.520251e-06	-2.715353e-09	-1.083179e+01	-1.786634e+02
6.800000e-07	-1.421159e-06	-2.629253e-09	-1.012576e+01	-1.730786e+02
6.900000e-07	-1.321539e-06	-2.539621e-09	-9.415964e+00	-1.673868e+02
7.000000e-07	-1.221602e-06	-2.447593e-09	-8.703912e+00	-1.615843e+02
7.100000e-07	-1.121411e-06	-2.357243e-09	-7.990049e+00	-1.556673e+02
7.200000e-07	-1.020977e-06	-2.268650e-09	-7.274463e+00	-1.496320e+02
7.300000e-07	-9.202262e-07	-2.177113e-09	-6.556611e+00	-1.434754e+02
7.400000e-07	-8.191210e-07	-2.081726e-09	-5.836237e+00	-1.371947e+02
7.500000e-07	-7.176778e-07	-1.985664e-09	-5.113453e+00	-1.307882e+02
7.600000e-07	-6.159529e-07	-1.885989e-09	-4.388664e+00	-1.242543e+02
7.700000e-07	-5.140482e-07	-1.783054e-09	-3.662593e+00	-1.175919e+02
7.800000e-07	-4.120310e-07	-1.678249e-09	-2.935721e+00	-1.107994e+02
7.900000e-07	-3.099153e-07	-1.572771e-09	-2.208146e+00	-1.038746e+02
8.000000e-07	-2.076773e-07	-1.463968e-09	-1.479700e+00	-9.681429e+01
8.100000e-07	-1.053898e-07	-1.353564e-09	-7.509022e-01	-8.961339e+01
8.200000e-07	-3.078916e-09	-1.244787e-09	-2.193727e-02	-8.226519e+01
8.300000e-07	9.927718e-08	-1.134608e-09	7.073498e-01	-7.476101e+01
8.400000e-07	2.016388e-07	-1.021429e-09	1.436677e+00	-6.709048e+01
8.500000e-07	3.039660e-07	-9.032070e-10	2.165757e+00	-5.924188e+01
8.600000e-07	4.062096e-07	-7.801476e-10	2.894243e+00	-5.120284e+01
8.700000e-07	5.083802e-07	-6.515602e-10	3.622209e+00	-4.296114e+01
8.800000e-07	6.104352e-07	-5.209810e-10	4.349350e+00	-3.450566e+01
8.900000e-07	7.123058e-07	-3.891210e-10	5.075178e+00	-2.582740e+01
9.000000e-07	8.139258e-07	-2.532121e-10	5.799221e+00	-1.692048e+01
9.100000e-07	9.152305e-07	-1.152882e-10	6.521016e+00	-7.782969e+00
9.200000e-07	1.016178e-06	2.493427e-11	7.240264e+00	1.582335e+00
9.300000e-07	1.116727e-06	1.698170e-10	7.956678e+00	1.116747e+01
9.400000e-07	1.216919e-06	3.207404e-10	8.670549e+00	2.095907e+01
9.500000e-07	1.316847e-06	4.753595e-10	9.382533e+00	3.093837e+01
9.600000e-07	1.416453e-06	6.327296e-10	1.009222e+01	4.108151e+01
9.700000e-07	1.515509e-06	7.919865e-10	1.079800e+01	5.136004e+01
9.800000e-07	1.613842e-06	9.523524e-10	1.149863e+01	6.174160e+01
9.900000e-07	1.711362e-06	1.113680e-09	1.219345e+01	7.219073e+01
1.000000e-06	1.808035e-06	1.275622e-09	1.288224e+01	8.266978e+01
1.010000e-06	1.904000e-06	1.436631e-09	1.356600e+01	9.313985e+01
1.020000e-06	1.999306e-06	1.596594e-09	1.424506e+01	1.035617e+02
1.030000e-06	2.093887e-06	1.755622e-09	1.491894e+01	1.138965e+02
1.040000e-06	2.187739e-06	1.913246e-09	1.558764e+01	1.241071e+02
1.050000e-06	2.280823e-06	2.068467e-09	1.625086e+01	1.341580e+02
1.060000e-06	2.373180e-06	2.220255e-09	1.690891e+01	1.440166e+02
1.070000e-06	2.464876e-06	2.367571e-09	1.756224e+01	1.536537e+02
1.080000e-06	2.555782e-06	2.510695e-09	1.820994e+01	1.630435e+02
1.090000e-06	2.645577e-06	2.651432e-09	1.884974e+01	1.721645e+02
1.100000e-06	2.734157e-06	2.789434e-09	1.948087e+01	1.809993e+02
1.110000e-06	2.821761e-06	2.918786e-09	2.010505e+01	1.895350e+02
1.120000e-06	2.908491e-06	3.039513e-09	2.072299e+01	1.977631e+02
1.130000e-06	2.994283e-06	3.156181e-09	2.133426e+01	2.056795e+02
1.140000e-06	3.079099e-06	3.273709e-09	2.193858e+01	2.132841e+02
1.150000e-06	3.163018e-06	3.388465e-09	2.253650e+01	2.205807e+02
1.160000e-06	3.245984e-06	3.496039e-09	2.312764e+01	2.275763e+02
1.170000e-06	3.327677e-06	3.597429e-09	2.370970e+01	2.342807e+02
1.180000e-06	3.408089e-06	3.693222e-09	2.428263e+01	2.407059e+02
1.190000e-06	3.487296e-06	3.787349e-09	2.484698e+01	2.468655e+02
1.200000e-06	3.565247e-06	3.879392e-09	2.540238e+01	2.527738e+02
1.210000e-06	3.642010e-06	3.967710e-09	2.594932e+01	2.584454e+02
1.220000e-06	3.717486e-06	4.050852e-09	2.648708e+01	2.638944e+02
1.230000e-06	3.791353e-06	4.130084e-09	2.701339e+01	2.691342e+02
1.240000e-06	3.863550e-06	4.207422e-09	2.752779e+01	2.741768e+02
1.250000e-06	3.934339e-06	4.282685e-09	2.803216e+01	2.790326e+02
1.260000e-06	4.003781e-06	4.354787e-09	2.852694e+01	2.837104e+02
1.270000e-06	4.071868e-06	4.424214e-09	2.901206e+01	2.882173e+02
1.280000e-06	4.138587e-06	4.490279e-09	2.948743e+01	2.925587e+02
1.290000e-06	4.203637e-06	4.553374e-09	2.995091e+01	2.967384e+02
1.300000e-06	4.267067e-06	4.612529e-09	3.040285e+01	3.007593e+02
1.310000e-06	4.329067e-06	4.669086e-09	3.084460e+01	3.046231e+02
1.320000e-06	4.389672e-06	4.724009e-09	3.127641e+01	3.083311e+02
1.330000e-06	4.448910e-06	4.774590e-09	3.169848e+01	3.118842e+02
1.340000e-06	4.506471e-06	4.822355e-09	3.210860e+01	3.152833e+02
1.350000e-06	4.562205e-06	4.871206e-09	3.250571e+01	3.185296e+02
1.360000e-06	4.616291e-06	4.918884e-09	3.289107e+01	3.216248e+02
1.370000e-06	4.668720e-06	4.961651e-09	3.326462e+01	3.245711e+02
1.380000e-06	4.719200e-06	5.000701e-09	3.362430e+01	3.273716e+02
1.390000e-06	4.767629e-06	5.038409e-09	3.396935e+01	3.300297e+02
1.400000e-06	4.814272e-06	5.074429e-09	3.430168e+01	3.325497e+02
1.410000e-06	4.859295e-06	5.107817e-09	3.462248e+01	3.349361e+02
1.420000e-06	4.902783e-06	5.140546e-09	3.493232e+01	3.371939e+02
1.430000e-06	4.944445e-06	5.172047e-09	3.522917e+01	3.393279e+02
1.440000e-06	4.984193e-06	5.201943e-09	3.551237e+01	3.413431e+02
1.450000e-06	5.022320e-06	5.229652e-09	3.578402e+01	3.432437e+02
1.460000e-06	5.058858e-06	5.254778e-09	3.604436e+01	3.450337e+02
1.470000e-06	5.093686e-06	5.279133e-09	3.629251e+01	3.467162e+02
1.480000e-06	5.126571e-06	5.301984e-09	3.652681e+01	3.482937e+02
1.490000e-06	5.157632e-06	5.323739e-09	3.674812e+01	3.497679e+02
1.500000e-06	5.186989e-06	5.344174e-09	3.695729e+01	3.511399e+02
1.510000e-06	5.214664e-06	5.362106e-09	3.715447e+01	3.524103e+02
1.520000e-06	5.240394e-06	5.377927e-09	3.733780e+01	3.535795e+02
1.530000e-06	5.264011e-06	5.392833e-09	3.750607e+01	3.546476e+02
1.540000e-06	5.285764e-06	5.407029e-09	3.766106e+01	3.556153e+02
1.550000e-06	5.305801e-06	5.418804e-09	3.780383e+01	3.564834e+02
1.560000e-06	5.324004e-06	5.429279e-09	3.793352e+01	3.572534e+02
1.570000e-06	5.340215e-06	5.441539e-09	3.804902e+01	3.579276e+02
1.580000e-06	5.354455e-06	5.453442e-09	3.815049e+01	3.585088e+02
1.590000e-06	5.366724e-06	5.461949e-09	3.823790e+01	3.590002e+02
1.600000e-06	5.376800e-06	5.467859e-09	3.830969e+01	3.594056e+02
1.610000e-06	5.384723e-06	5.473663e-09	3.836614e+01	3.597286e+02
1.620000e-06	5.390792e-06	5.479907e-09	3.840939e+01	3.599727e+02
1.630000e-06	5.395121e-06	5.485713e-09	3.844023e+01	3.601409e+02
1.640000e-06	5.397545e-06	5.487983e-09	3.845751e+01	3.602352e+02
1.650000e-06	5.397896e-06	5.489105e-09	3.846000e+01	3.602567e+02
1.660000e-06	5.396410e-06	5.485962e-09	3.844942e+01	3.602057e+02
1.670000e-06	5.393277e-06	5.479972e-09	3.842709e+01	3.600810e+02
1.680000e-06	5.388471e-06	5.480250e-09	3.839285e+01	3.598811e+02
1.690000e-06	5.381765e-06	5.480713e-09	3.834507e+01	3.596037e+02
1.700000e-06	5.373235e-06	5.478702e-09	3.828430e+01	3.592462e+02
1.710000e-06	5.363160e-06	5.473997e-09	3.821251e+01	3.588063e+02
1.720000e-06	5.351394e-06	5.470265e-09	3.812868e+01	3.582823e+02
1.730000e-06	5.337653e-06	5.476581e-09	3.803077e+01	3.576732e+02
1.740000e-06	5.321813e-06	5.412279e-09	3.791791e+01	3.569791e+02
1.750000e-06	5.303603e-06	5.381259e-09	3.778816e+01	3.562009e+02
1.760000e-06	5.282702e-06	5.396849e-09	3.763924e+01	3.553407e+02
1.770000e-06	5.259519e-06	5.384466e-09	3.747407e+01	3.544013e+02
1.780000e-06	5.235122e-06	5.475907e-09	3.730024e+01	3.533858e+02
1.790000e-06	5.210078e-06	5.411102e-09	3.712180e+01	3.522973e+02
1.800000e-06	5.183597e-06	5.279941e-09	3.693312e+01	3.511386e+02
1.810000e-06	5.154865e-06	5.388081e-09	3.672841e+01	3.499118e+02
1.820000e-06	5.124379e-06	5.291904e-09	3.651119e+01	3.486178e+02
1.830000e-06	5.092215e-06	5.226430e-09	3.628203e+01	3.472563e+02
1.840000e-06	5.058021e-06	5.360289e-09	3.603839e+01	3.458261e+02
1.850000e-06	5.022205e-06	5.217482e-09	3.578320e+01	3.443248e+02
1.860000e-06	4.984558e-06	5.193554e-09	3.551497e+01	3.427493e+02
1.870000e-06	4.945002e-06	5.251585e-09	3.523313e+01	3.410961e+02
1.880000e-06	4.903857e-06	5.113491e-09	3.493997e+01	3.393619e+02
1.890000e-06	4.860862e-06	5.176811e-09	3.463364e+01	3.375440e+02
1.900000e-06	4.816209e-06	5.123357e-09	3.431548e+01	3.356402e+02
1.910000e-06	4.769843e-06	5.026289e-09	3.398512e+01	3.336497e+02
1.920000e-06	4.721443e-06	5.100356e-09	3.364028e+01	3.315726e+02
1.930000e-06	4.671334e-06	4.967066e-09	3.328325e+01	3.294102e+02
1.940000e-06	4.619515e-06	4.973015e-09	3.291404e+01	3.271647e+02
1.950000e-06	4.565724e-06	4.992670e-09	3.253078e+01	3.248388e+02
1.960000e-06	4.509973e-06	4.875903e-09	3.213355e+01	3.224354e+02
1.970000e-06	4.452456e-06	4.854926e-09	3.172374e+01	3.199570e+02
1.980000e-06	4.393515e-06	4.818280e-09	3.130379e+01	3.174059e+02
1.990000e-06	4.333107e-06	4.838471e-09	3.087338e+01	3.147832e+02
2.000000e-06	4.271037e-06	4.758027e-09	3.043114e+01	3.120894e+02
2.010000e-06	4.207352e-06	4.673631e-09	2.997738e+01	3.093238e+02
2.020000e-06	4.142137e-06	4.679565e-09	2.951272e+01	3.064849e+02
2.030000e-06	4.075476e-06	4.582119e-09	2.903776e+01	3.035711e+02
2.040000e-06	4.007368e-06	4.568589e-09	2.855250e+01	3.005801e+02
2.050000e-06	3.937847e-06	4.544540e-09	2.805716e+01	2.975102e+02
2.060000e-06	3.866830e-06	4.501101e-09	2.755116e+01	2.943601e+02
2.070000e-06	3.794365e-06	4.443946e-09	2.703485e+01	2.911290e+02
2.080000e-06	3.720604e-06	4.340678e-09	2.650930e+01	2.878173e+02
2.090000e-06	3.645461e-06	4.331138e-09	2.597391e+01	2.844260e+02
2.100000e-06	3.568940e-06	4.283510e-09	2.542870e+01	2.809568e+02
2.110000e-06	3.490874e-06	4.220342e-09	2.487247e+01	2.774118e+02
2.120000e-06	3.411282e-06	4.160017e-09	2.430538e+01	2.737929e+02
2.130000e-06	3.330549e-06	4.106808e-09	2.373016e+01	2.701020e+02
2.140000e-06	3.248739e-06	4.059536e-09	2.314726e+01	2.663400e+02
2.150000e-06	3.165869e-06	3.986289e-09	2.255681e+01	2.625068e+02
2.160000e-06	3.081945e-06	3.945988e-09	2.195885e+01	2.586012e+02
2.170000e-06	2.996930e-06	3.880251e-09	2.135312e+01	2.546211e+02
2.180000e-06	2.910743e-06	3.811214e-09	2.073904e+01	2.505632e+02
2.190000e-06	2.823282e-06	3.749936e-09	2.011588e+01	2.464234e+02
2.200000e-06	2.734745e-06	3.696881e-09	1.948506e+01	2.421975e+02
2.210000e-06	2.645322e-06	3.639786e-09	1.884792e+01	2.378812e+02
2.220000e-06	2.554993e-06	3.553177e-09	1.820432e+01	2.334708e+02
2.230000e-06	2.463770e-06	3.478420e-09	1.755436e+01	2.289632e+02
2.240000e-06	2.371763e-06	3.412443e-09	1.689881e+01	2.243563e+02
2.250000e-06	2.278996e-06	3.354419e-09	1.623784e+01	2.196489e+02
2.260000e-06	2.185556e-06	3.288341e-09	1.557208e+01	2.148409e+02
2.270000e-06	2.091207e-06	3.216178e-09	1.489985e+01	2.099326e+02
2.280000e-06	1.995697e-06	3.132461e-09	1.421934e+01	2.049250e+02
2.290000e-06	1.899362e-06	3.040986e-09	1.353295e+01	1.998188e+02
2.300000e-06	1.802568e-06	2.962056e-09	1.284329e+01	1.946145e+02
2.310000e-06	1.705285e-06	2.891278e-09	1.215015e+01	1.893118e+02
2.320000e-06	1.607400e-06	2.815991e-09	1.145272e+01	1.839098e+02
2.330000e-06	1.509012e-06	2.725087e-09	1.075171e+01	1.784064e+02
2.340000e-06	1.410170e-06	2.636539e-09	1.004746e+01	1.727988e+02
2.350000e-06	1.310767e-06	2.553014e-09	9.339212e+00	1.670835e+02
2.360000e-06	1.210915e-06	2.469955e-09	8.627768e+00	1.612566e+02
2.370000e-06	1.110878e-06	2.382271e-09	7.915003e+00	1.553144e+02
2.380000e-06	1.010567e-06	2.287041e-09	7.200290e+00	1.492533e+02
2.390000e-06	9.098516e-07	2.188559e-09	6.482692e+00	1.430701e+02
2.400000e-06	8.088281e-07	2.089770e-09	5.762899e+00	1.367625e+02
2.410000e-06	7.075852e-07	1.994066e-09	5.041543e+00	1.303287e+02
2.420000e-06	6.061920e-07	1.895515e-09	4.319117e+00	1.237672e+02
2.430000e-06	5.045837e-07	1.790379e-09	3.595158e+00	1.170769e+02
2.440000e-06	4.027381e-07	1.684332e-09	2.869509e+00	1.102562e+02
2.450000e-06	3.006696e-07	1.583133e-09	2.142270e+00	1.033026e+02
2.460000e-06	1.983805e-07	1.480328e-09	1.413461e+00	9.621245e+01
2.470000e-06	9.593604e-08	1.370786e-09	6.835442e-01	8.898049e+01
2.480000e-06	-6.561472e-09	1.252836e-09	-4.675048e-02	8.159952e+01
2.490000e-06	-1.090837e-07	1.128608e-09	-7.772212e-01	7.406049e+01
2.500000e-06	-2.115952e-07	1.006172e-09	-1.507615e+00	6.635269e+01
2.510000e-06	-3.140154e-07	8.886588e-10	-2.237359e+00	5.846420e+01
2.520000e-06	-4.162876e-07	7.713772e-10	-2.966048e+00	5.038261e+01
2.530000e-06	-5.183285e-07	6.466795e-10	-3.693090e+00	4.209585e+01
2.540000e-06	-6.201380e-07	5.161482e-10	-4.418482e+00	3.359316e+01
2.550000e-06	-7.216594e-07	3.836020e-10	-5.141823e+00	2.486615e+01
2.560000e-06	-8.228609e-07	2.460154e-10	-5.862883e+00	1.590969e+01
2.570000e-06	-9.237792e-07	1.024158e-10	-6.581926e+00	6.722834e+00
2.580000e-06	-1.024343e-06	-4.339401e-11	-7.298444e+00	-2.690562e+00
2.590000e-06	-1.124565e-06	-1.897209e-10	-8.012525e+00	-1.232138e+01
2.600000e-06	-1.224447e-06	-3.377829e-10	-8.724183e+00	-2.215509e+01
2.610000e-06	-1.323857e-06	-4.877511e-10	-9.432479e+00	-3.217181e+01
2.620000e-06	-1.422811e-06	-6.408761e-10	-1.013753e+01	-4.234663e+01
2.630000e-06	-1.521274e-06	-7.980638e-10	-1.083908e+01	-5.265021e+01
2.640000e-06	-1.619203e-06	-9.570207e-10	-1.153682e+01	-6.304945e+01
2.650000e-06	-1.716568e-06	-1.114613e-09	-1.223054e+01	-7.350835e+01
2.660000e-06	-1.813319e-06	-1.270971e-09	-1.291990e+01	-8.398891e+01
2.670000e-06	-1.909580e-06	-1.428339e-09	-1.360576e+01	-9.445207e+01
2.680000e-06	-2.005335e-06	-1.586015e-09	-1.428801e+01	-1.048586e+02
2.690000e-06	-2.100278e-06	-1.742284e-09	-1.496448e+01	-1.151701e+02
2.700000e-06	-2.194157e-06	-1.896861e-09	-1.563337e+01	-1.253494e+02
2.710000e-06	-2.287044e-06	-2.050179e-09	-1.629519e+01	-1.353619e+02
2.720000e-06	-2.379147e-06	-2.200170e-09	-1.695142e+01	-1.451755e+02
2.730000e-06	-2.470438e-06	-2.346153e-09	-1.760187e+01	-1.547618e+02
2.740000e-06	-2.560783e-06	-2.488945e-09	-1.824557e+01	-1.640958e+02
2.750000e-06	-2.650181e-06	-2.629165e-09	-1.888254e+01	-1.731569e+02
2.760000e-06	-2.738759e-06	-2.764910e-09	-1.951366e+01	-1.819287e+02
2.770000e-06	-2.826598e-06	-2.894737e-09	-2.013951e+01	-1.903992e+02
2.780000e-06	-2.913513e-06	-3.018651e-09	-2.075878e+01	-1.985608e+02
2.790000e-06	-2.999163e-06	-3.136533e-09	-2.136904e+01	-2.064104e+02
2.800000e-06	-3.083616e-06	-3.251764e-09	-2.197076e+01	-2.139487e+02
2.810000e-06	-3.167088e-06	-3.364822e-09	-2.256550e+01	-2.211802e+02
2.820000e-06	-3.249563e-06	-3.471363e-09	-2.315314e+01	-2.281126e+02
2.830000e-06	-3.330975e-06	-3.571561e-09	-2.373320e+01	-2.347562e+02
2.840000e-06	-3.411317e-06	-3.668751e-09	-2.430563e+01	-2.411235e+02
2.850000e-06	-3.490452e-06	-3.762715e-09	-2.486947e+01	-2.472282e+02
2.860000e-06	-3.568023e-06	-3.853511e-09	-2.542216e+01	-2.530847e+02
2.870000e-06	-3.644069e-06	-3.938314e-09	-2.596399e+01	-2.587075e+02
2.880000e-06	-3.718742e-06	-4.018031e-09	-2.649603e+01	-2.641108e+02
2.890000e-06	-3.792004e-06	-4.095585e-09	-2.701802e+01	-2.693075e+02
2.900000e-06	-3.864000e-06	-4.170952e-09	-2.753099e+01	-2.743093e+02
2.910000e-06	-3.934662e-06	-4.244533e-09	-2.803446e+01	-2.791264e+02
2.920000e-06	-4.003711e-06	-4.315420e-09	-2.852643e+01	-2.837672e+02
2.930000e-06	-4.071255e-06	-4.385098e-09	-2.900769e+01	-2.882384e+02
2.940000e-06	-4.137428e-06	-4.452124e-09	-2.947917e+01	-2.925449e+02
