# Temperatura_=_48.11
# Concentracion g/m^3_=_15000.0
# C_Vs_to_Am_M_A/Vsm_=_65563218390.804596
# pendiente_HvsI_1/m_=_3716.3
# ordenada_HvsI_A/m_=_1297.0
# frecuencia_Hz_=_301566.27922919864

Tiempo_(s)	Campo_(V.s)	Magnetizacion_(V.s)	Campo_(kA/m)	Magnetizacion_(A/m)
0.000000e+00	-5.382544e-06	-5.275650e-09	-3.835118e+01	-3.442955e+02
1.000000e-08	-5.381209e-06	-5.273520e-09	-3.834167e+01	-3.441881e+02
2.000000e-08	-5.377988e-06	-5.271614e-09	-3.831872e+01	-3.440084e+02
3.000000e-08	-5.373027e-06	-5.264934e-09	-3.828338e+01	-3.437550e+02
4.000000e-08	-5.366476e-06	-5.256250e-09	-3.823670e+01	-3.434267e+02
5.000000e-08	-5.358342e-06	-5.248537e-09	-3.817874e+01	-3.430222e+02
6.000000e-08	-5.348244e-06	-5.239946e-09	-3.810679e+01	-3.425418e+02
7.000000e-08	-5.336081e-06	-5.234178e-09	-3.802013e+01	-3.419866e+02
8.000000e-08	-5.322019e-06	-5.231827e-09	-3.791994e+01	-3.413599e+02
9.000000e-08	-5.305784e-06	-5.211082e-09	-3.780426e+01	-3.406661e+02
1.000000e-07	-5.287340e-06	-5.219013e-09	-3.767285e+01	-3.399110e+02
1.100000e-07	-5.266933e-06	-5.227936e-09	-3.752744e+01	-3.391007e+02
1.200000e-07	-5.244682e-06	-5.186738e-09	-3.736890e+01	-3.382414e+02
1.300000e-07	-5.220813e-06	-5.177944e-09	-3.719883e+01	-3.373380e+02
1.400000e-07	-5.195398e-06	-5.143140e-09	-3.701775e+01	-3.363935e+02
1.500000e-07	-5.168359e-06	-5.063499e-09	-3.682509e+01	-3.354086e+02
1.600000e-07	-5.139788e-06	-5.150879e-09	-3.662152e+01	-3.343810e+02
1.700000e-07	-5.109709e-06	-5.127572e-09	-3.640720e+01	-3.333057e+02
1.800000e-07	-5.077869e-06	-5.036569e-09	-3.618034e+01	-3.321749e+02
1.900000e-07	-5.043872e-06	-5.094116e-09	-3.593811e+01	-3.309792e+02
2.000000e-07	-5.008158e-06	-5.008599e-09	-3.568364e+01	-3.297081e+02
2.100000e-07	-4.971037e-06	-4.968896e-09	-3.541916e+01	-3.283513e+02
2.200000e-07	-4.932075e-06	-5.034108e-09	-3.514155e+01	-3.268999e+02
2.300000e-07	-4.891258e-06	-4.977108e-09	-3.485072e+01	-3.253469e+02
2.400000e-07	-4.848490e-06	-4.939653e-09	-3.454600e+01	-3.236886e+02
2.500000e-07	-4.803825e-06	-4.919845e-09	-3.422775e+01	-3.219243e+02
2.600000e-07	-4.757385e-06	-4.854236e-09	-3.389686e+01	-3.200569e+02
2.700000e-07	-4.708974e-06	-4.849547e-09	-3.355193e+01	-3.180920e+02
2.800000e-07	-4.658495e-06	-4.817473e-09	-3.319226e+01	-3.160375e+02
2.900000e-07	-4.606006e-06	-4.787832e-09	-3.281827e+01	-3.139023e+02
3.000000e-07	-4.551748e-06	-4.756916e-09	-3.243168e+01	-3.116957e+02
3.100000e-07	-4.495942e-06	-4.719238e-09	-3.203406e+01	-3.094255e+02
3.200000e-07	-4.438406e-06	-4.689278e-09	-3.162410e+01	-3.070980e+02
3.300000e-07	-4.379020e-06	-4.640607e-09	-3.120097e+01	-3.047166e+02
3.400000e-07	-4.318090e-06	-4.616404e-09	-3.076684e+01	-3.022819e+02
3.500000e-07	-4.255780e-06	-4.565100e-09	-3.032287e+01	-2.997919e+02
3.600000e-07	-4.192086e-06	-4.518982e-09	-2.986905e+01	-2.972420e+02
3.700000e-07	-4.126816e-06	-4.499859e-09	-2.940399e+01	-2.946262e+02
3.800000e-07	-4.059851e-06	-4.461125e-09	-2.892686e+01	-2.919376e+02
3.900000e-07	-3.991413e-06	-4.414044e-09	-2.843923e+01	-2.891699e+02
4.000000e-07	-3.921696e-06	-4.358019e-09	-2.794249e+01	-2.863175e+02
4.100000e-07	-3.850760e-06	-4.314648e-09	-2.743706e+01	-2.833770e+02
4.200000e-07	-3.778594e-06	-4.273900e-09	-2.692287e+01	-2.803468e+02
4.300000e-07	-3.704904e-06	-4.220232e-09	-2.639783e+01	-2.772277e+02
4.400000e-07	-3.629518e-06	-4.180408e-09	-2.586069e+01	-2.740223e+02
4.500000e-07	-3.552662e-06	-4.134591e-09	-2.531308e+01	-2.707347e+02
4.600000e-07	-3.474460e-06	-4.077465e-09	-2.475588e+01	-2.673694e+02
4.700000e-07	-3.394880e-06	-4.014060e-09	-2.418887e+01	-2.639309e+02
4.800000e-07	-3.314012e-06	-3.958514e-09	-2.361268e+01	-2.604227e+02
4.900000e-07	-3.231964e-06	-3.916307e-09	-2.302808e+01	-2.568466e+02
5.000000e-07	-3.148826e-06	-3.859950e-09	-2.243571e+01	-2.532028e+02
5.100000e-07	-3.064768e-06	-3.799943e-09	-2.183679e+01	-2.494892e+02
5.200000e-07	-2.979827e-06	-3.743580e-09	-2.123157e+01	-2.457020e+02
5.300000e-07	-2.893870e-06	-3.685188e-09	-2.061913e+01	-2.418362e+02
5.400000e-07	-2.806892e-06	-3.616849e-09	-1.999940e+01	-2.378858e+02
5.500000e-07	-2.719028e-06	-3.547854e-09	-1.937336e+01	-2.338451e+02
5.600000e-07	-2.630164e-06	-3.483901e-09	-1.874019e+01	-2.297087e+02
5.700000e-07	-2.540053e-06	-3.419958e-09	-1.809814e+01	-2.254727e+02
5.800000e-07	-2.448802e-06	-3.359765e-09	-1.744797e+01	-2.211346e+02
5.900000e-07	-2.356755e-06	-3.295261e-09	-1.679213e+01	-2.166935e+02
6.000000e-07	-2.264006e-06	-3.228723e-09	-1.613128e+01	-2.121500e+02
6.100000e-07	-2.170398e-06	-3.154554e-09	-1.546431e+01	-2.075060e+02
6.200000e-07	-2.075989e-06	-3.076326e-09	-1.479164e+01	-2.027639e+02
6.300000e-07	-1.980981e-06	-3.001650e-09	-1.411470e+01	-1.979259e+02
6.400000e-07	-1.885328e-06	-2.926887e-09	-1.343315e+01	-1.929941e+02
6.500000e-07	-1.788957e-06	-2.850864e-09	-1.274650e+01	-1.879694e+02
6.600000e-07	-1.691810e-06	-2.773586e-09	-1.205432e+01	-1.828513e+02
6.700000e-07	-1.593882e-06	-2.695127e-09	-1.135657e+01	-1.776381e+02
6.800000e-07	-1.495277e-06	-2.613221e-09	-1.065401e+01	-1.723270e+02
6.900000e-07	-1.396108e-06	-2.530991e-09	-9.947412e+00	-1.669141e+02
7.000000e-07	-1.296531e-06	-2.445295e-09	-9.237916e+00	-1.613955e+02
7.100000e-07	-1.196586e-06	-2.357551e-09	-8.525798e+00	-1.557669e+02
7.200000e-07	-1.096312e-06	-2.269665e-09	-7.811340e+00	-1.500249e+02
7.300000e-07	-9.957990e-07	-2.181336e-09	-7.095171e+00	-1.441670e+02
7.400000e-07	-8.950067e-07	-2.091019e-09	-6.377015e+00	-1.381916e+02
7.500000e-07	-7.938689e-07	-1.997148e-09	-5.656398e+00	-1.320985e+02
7.600000e-07	-6.924119e-07	-1.901854e-09	-4.933507e+00	-1.258879e+02
7.700000e-07	-5.906242e-07	-1.804798e-09	-4.208258e+00	-1.195605e+02
7.800000e-07	-4.886301e-07	-1.706430e-09	-3.481540e+00	-1.131167e+02
7.900000e-07	-3.865408e-07	-1.607164e-09	-2.754143e+00	-1.065563e+02
8.000000e-07	-2.843197e-07	-1.507946e-09	-2.025807e+00	-9.987745e+01
8.100000e-07	-1.819909e-07	-1.404761e-09	-1.296704e+00	-9.307639e+01
8.200000e-07	-7.957743e-08	-1.298384e-09	-5.669975e-01	-8.614734e+01
8.300000e-07	2.288159e-08	-1.191139e-09	1.630337e-01	-7.908231e+01
8.400000e-07	1.253684e-07	-1.081484e-09	8.932628e-01	-7.187132e+01
8.500000e-07	2.278744e-07	-9.689830e-10	1.623629e+00	-6.450295e+01
8.600000e-07	3.303241e-07	-8.535335e-10	2.353594e+00	-5.696490e+01
8.700000e-07	4.326493e-07	-7.367249e-10	3.082671e+00	-4.924487e+01
8.800000e-07	5.348529e-07	-6.173173e-10	3.810883e+00	-4.133138e+01
8.900000e-07	6.368807e-07	-4.962485e-10	4.537841e+00	-3.321470e+01
9.000000e-07	7.386678e-07	-3.727929e-10	5.263085e+00	-2.488757e+01
9.100000e-07	8.402008e-07	-2.447479e-10	5.986518e+00	-1.634595e+01
9.200000e-07	9.414366e-07	-1.109434e-10	6.707833e+00	-7.589531e+00
9.300000e-07	1.042325e-06	2.659804e-11	7.426675e+00	1.377937e+00
9.400000e-07	1.142892e-06	1.661541e-10	8.143226e+00	1.054841e+01
9.500000e-07	1.243134e-06	3.107236e-10	8.857459e+00	1.990952e+01
9.600000e-07	1.342964e-06	4.580737e-10	9.568759e+00	2.944466e+01
9.700000e-07	1.442346e-06	6.060345e-10	1.027686e+01	3.913315e+01
9.800000e-07	1.541204e-06	7.547675e-10	1.098124e+01	4.895051e+01
9.900000e-07	1.639378e-06	9.052497e-10	1.168074e+01	5.886881e+01
1.000000e-06	1.736729e-06	1.056673e-09	1.237438e+01	6.885702e+01
1.010000e-06	1.833246e-06	1.210590e-09	1.306207e+01	7.888155e+01
1.020000e-06	1.929020e-06	1.366927e-09	1.374446e+01	8.890675e+01
1.030000e-06	2.024128e-06	1.523023e-09	1.442212e+01	9.889560e+01
1.040000e-06	2.118528e-06	1.676178e-09	1.509473e+01	1.088104e+02
1.050000e-06	2.212170e-06	1.824931e-09	1.576194e+01	1.186138e+02
1.060000e-06	2.305113e-06	1.971194e-09	1.642417e+01	1.282693e+02
1.070000e-06	2.397308e-06	2.114255e-09	1.708107e+01	1.377425e+02
1.080000e-06	2.488806e-06	2.253083e-09	1.773300e+01	1.470022e+02
1.090000e-06	2.579517e-06	2.389345e-09	1.837933e+01	1.560205e+02
1.100000e-06	2.669100e-06	2.523077e-09	1.901761e+01	1.647744e+02
1.110000e-06	2.757493e-06	2.653268e-09	1.964743e+01	1.732457e+02
1.120000e-06	2.844888e-06	2.777208e-09	2.027012e+01	1.814217e+02
1.130000e-06	2.931386e-06	2.897270e-09	2.088643e+01	1.892948e+02
1.140000e-06	3.016954e-06	3.014834e-09	2.149611e+01	1.968629e+02
1.150000e-06	3.101593e-06	3.127897e-09	2.209917e+01	2.041282e+02
1.160000e-06	3.185289e-06	3.232297e-09	2.269551e+01	2.110973e+02
1.170000e-06	3.267897e-06	3.330356e-09	2.328411e+01	2.177800e+02
1.180000e-06	3.349217e-06	3.425813e-09	2.386352e+01	2.241886e+02
1.190000e-06	3.429256e-06	3.517787e-09	2.443381e+01	2.303368e+02
1.200000e-06	3.508118e-06	3.608483e-09	2.499570e+01	2.362393e+02
1.210000e-06	3.585782e-06	3.697307e-09	2.554907e+01	2.419107e+02
1.220000e-06	3.662182e-06	3.784096e-09	2.609342e+01	2.473650e+02
1.230000e-06	3.737178e-06	3.867833e-09	2.662778e+01	2.526153e+02
1.240000e-06	3.810581e-06	3.947251e-09	2.715078e+01	2.576734e+02
1.250000e-06	3.882384e-06	4.021271e-09	2.766239e+01	2.625495e+02
1.260000e-06	3.952773e-06	4.090920e-09	2.816392e+01	2.672523e+02
1.270000e-06	4.021836e-06	4.157411e-09	2.865600e+01	2.717889e+02
1.280000e-06	4.089586e-06	4.222285e-09	2.913872e+01	2.761648e+02
1.290000e-06	4.155864e-06	4.284983e-09	2.961096e+01	2.803842e+02
1.300000e-06	4.220438e-06	4.344960e-09	3.007106e+01	2.844498e+02
1.310000e-06	4.283497e-06	4.403133e-09	3.052036e+01	2.883632e+02
1.320000e-06	4.345161e-06	4.461184e-09	3.095972e+01	2.921250e+02
1.330000e-06	4.405411e-06	4.517059e-09	3.138901e+01	2.957349e+02
1.340000e-06	4.464219e-06	4.568638e-09	3.180802e+01	2.991925e+02
1.350000e-06	4.521257e-06	4.617085e-09	3.221443e+01	3.024968e+02
1.360000e-06	4.576550e-06	4.663139e-09	3.260840e+01	3.056471e+02
1.370000e-06	4.630245e-06	4.706502e-09	3.299097e+01	3.086434e+02
1.380000e-06	4.682146e-06	4.746230e-09	3.336077e+01	3.114866e+02
1.390000e-06	4.732051e-06	4.783820e-09	3.371635e+01	3.141785e+02
1.400000e-06	4.779995e-06	4.819953e-09	3.405796e+01	3.167226e+02
1.410000e-06	4.826242e-06	4.853523e-09	3.438747e+01	3.191236e+02
1.420000e-06	4.870940e-06	4.885443e-09	3.470595e+01	3.213876e+02
1.430000e-06	4.914029e-06	4.916828e-09	3.501297e+01	3.235217e+02
1.440000e-06	4.955217e-06	4.947122e-09	3.530643e+01	3.255334e+02
1.450000e-06	4.994534e-06	4.974689e-09	3.558657e+01	3.274307e+02
1.460000e-06	5.032256e-06	4.999504e-09	3.585534e+01	3.292208e+02
1.470000e-06	5.068400e-06	5.023584e-09	3.611287e+01	3.309102e+02
1.480000e-06	5.102754e-06	5.047308e-09	3.635765e+01	3.325038e+02
1.490000e-06	5.135143e-06	5.068369e-09	3.658842e+01	3.340049e+02
1.500000e-06	5.165716e-06	5.087738e-09	3.680626e+01	3.354149e+02
1.510000e-06	5.194616e-06	5.106350e-09	3.701217e+01	3.367336e+02
1.520000e-06	5.221748e-06	5.123825e-09	3.720549e+01	3.379595e+02
1.530000e-06	5.246856e-06	5.139118e-09	3.738439e+01	3.390901e+02
1.540000e-06	5.269977e-06	5.154690e-09	3.754913e+01	3.401225e+02
1.550000e-06	5.291322e-06	5.169576e-09	3.770122e+01	3.410542e+02
1.560000e-06	5.310918e-06	5.181353e-09	3.784084e+01	3.418836e+02
1.570000e-06	5.328551e-06	5.192102e-09	3.796648e+01	3.426103e+02
1.580000e-06	5.344130e-06	5.203105e-09	3.807748e+01	3.432353e+02
1.590000e-06	5.357829e-06	5.214513e-09	3.817509e+01	3.437611e+02
1.600000e-06	5.369524e-06	5.222685e-09	3.825842e+01	3.441917e+02
1.610000e-06	5.378979e-06	5.227550e-09	3.832578e+01	3.445317e+02
1.620000e-06	5.386406e-06	5.231510e-09	3.837870e+01	3.447861e+02
1.630000e-06	5.392045e-06	5.235606e-09	3.841888e+01	3.449598e+02
1.640000e-06	5.395903e-06	5.240208e-09	3.844637e+01	3.450569e+02
1.650000e-06	5.397816e-06	5.241996e-09	3.846000e+01	3.450804e+02
1.660000e-06	5.397717e-06	5.241303e-09	3.845929e+01	3.450318e+02
1.670000e-06	5.395812e-06	5.238430e-09	3.844572e+01	3.449114e+02
1.680000e-06	5.392304e-06	5.232414e-09	3.842073e+01	3.447186e+02
1.690000e-06	5.387103e-06	5.230598e-09	3.838367e+01	3.444519e+02
1.700000e-06	5.379964e-06	5.228868e-09	3.833280e+01	3.441098e+02
1.710000e-06	5.371039e-06	5.223561e-09	3.826921e+01	3.436917e+02
1.720000e-06	5.360571e-06	5.214649e-09	3.819462e+01	3.431976e+02
1.730000e-06	5.348355e-06	5.195915e-09	3.810758e+01	3.426293e+02
1.740000e-06	5.334130e-06	5.203749e-09	3.800623e+01	3.419902e+02
1.750000e-06	5.317765e-06	5.181761e-09	3.788963e+01	3.412849e+02
1.760000e-06	5.298932e-06	5.147003e-09	3.775544e+01	3.405193e+02
1.770000e-06	5.277444e-06	5.164908e-09	3.760234e+01	3.396998e+02
1.780000e-06	5.253907e-06	5.133153e-09	3.743463e+01	3.388322e+02
1.790000e-06	5.229300e-06	5.154728e-09	3.725931e+01	3.379211e+02
1.800000e-06	5.203879e-06	5.179314e-09	3.707818e+01	3.369694e+02
1.810000e-06	5.176816e-06	5.029993e-09	3.688535e+01	3.359770e+02
1.820000e-06	5.147555e-06	5.073945e-09	3.667686e+01	3.349412e+02
1.830000e-06	5.116557e-06	5.123259e-09	3.645600e+01	3.338565e+02
1.840000e-06	5.083811e-06	5.008128e-09	3.622268e+01	3.327147e+02
1.850000e-06	5.049159e-06	5.094508e-09	3.597578e+01	3.315062e+02
1.860000e-06	5.012942e-06	5.079983e-09	3.571773e+01	3.302205e+02
1.870000e-06	4.974865e-06	4.968294e-09	3.544643e+01	3.288473e+02
1.880000e-06	4.934910e-06	5.010235e-09	3.516174e+01	3.273781e+02
1.890000e-06	4.893324e-06	4.939966e-09	3.486544e+01	3.258064e+02
1.900000e-06	4.849959e-06	4.939778e-09	3.455646e+01	3.241290e+02
1.910000e-06	4.804963e-06	4.954543e-09	3.423586e+01	3.223459e+02
1.920000e-06	4.758040e-06	4.849128e-09	3.390153e+01	3.204604e+02
1.930000e-06	4.709152e-06	4.889448e-09	3.355320e+01	3.184788e+02
1.940000e-06	4.658698e-06	4.822033e-09	3.319370e+01	3.164091e+02
1.950000e-06	4.606399e-06	4.774156e-09	3.282107e+01	3.142605e+02
1.960000e-06	4.552002e-06	4.783775e-09	3.243349e+01	3.120418e+02
1.970000e-06	4.495736e-06	4.706035e-09	3.203259e+01	3.097609e+02
1.980000e-06	4.437838e-06	4.706513e-09	3.162005e+01	3.074235e+02
1.990000e-06	4.378555e-06	4.641942e-09	3.119766e+01	3.050325e+02
2.000000e-06	4.317779e-06	4.619839e-09	3.076462e+01	3.025881e+02
2.010000e-06	4.255251e-06	4.604617e-09	3.031910e+01	3.000877e+02
2.020000e-06	4.191128e-06	4.507309e-09	2.986222e+01	2.975264e+02
2.030000e-06	4.125535e-06	4.503143e-09	2.939486e+01	2.948979e+02
2.040000e-06	4.058506e-06	4.456497e-09	2.891728e+01	2.921956e+02
2.050000e-06	3.990120e-06	4.428914e-09	2.843002e+01	2.894130e+02
2.060000e-06	3.920274e-06	4.381055e-09	2.793236e+01	2.865450e+02
2.070000e-06	3.848880e-06	4.317535e-09	2.742367e+01	2.835884e+02
2.080000e-06	3.776121e-06	4.302910e-09	2.690526e+01	2.805421e+02
2.090000e-06	3.702067e-06	4.220450e-09	2.637761e+01	2.774073e+02
2.100000e-06	3.626645e-06	4.178062e-09	2.584022e+01	2.741868e+02
2.110000e-06	3.549709e-06	4.128108e-09	2.529204e+01	2.708848e+02
2.120000e-06	3.471144e-06	4.084346e-09	2.473226e+01	2.675060e+02
2.130000e-06	3.391289e-06	4.039469e-09	2.416328e+01	2.640548e+02
2.140000e-06	3.310383e-06	3.966164e-09	2.358682e+01	2.605342e+02
2.150000e-06	3.228317e-06	3.933747e-09	2.300210e+01	2.569460e+02
2.160000e-06	3.145176e-06	3.873576e-09	2.240970e+01	2.532898e+02
2.170000e-06	3.061080e-06	3.812090e-09	2.181051e+01	2.495633e+02
2.180000e-06	2.975821e-06	3.753210e-09	2.120303e+01	2.457624e+02
2.190000e-06	2.889175e-06	3.703556e-09	2.058567e+01	2.418818e+02
2.200000e-06	2.801362e-06	3.649430e-09	1.995999e+01	2.379156e+02
2.210000e-06	2.712666e-06	3.579553e-09	1.932803e+01	2.338581e+02
2.220000e-06	2.623067e-06	3.516688e-09	1.868962e+01	2.297041e+02
2.230000e-06	2.532517e-06	3.446777e-09	1.804445e+01	2.254499e+02
2.240000e-06	2.441151e-06	3.382732e-09	1.739346e+01	2.210932e+02
2.250000e-06	2.349071e-06	3.310122e-09	1.673737e+01	2.166337e+02
2.260000e-06	2.256222e-06	3.246932e-09	1.607581e+01	2.120720e+02
2.270000e-06	2.162458e-06	3.182745e-09	1.540774e+01	2.074102e+02
2.280000e-06	2.067673e-06	3.108998e-09	1.473238e+01	2.026506e+02
2.290000e-06	1.971940e-06	3.034967e-09	1.405028e+01	1.977957e+02
2.300000e-06	1.875503e-06	2.957733e-09	1.336315e+01	1.928472e+02
2.310000e-06	1.778605e-06	2.882275e-09	1.267274e+01	1.878057e+02
2.320000e-06	1.681181e-06	2.803552e-09	1.197859e+01	1.826707e+02
2.330000e-06	1.583081e-06	2.721419e-09	1.127962e+01	1.774402e+02
2.340000e-06	1.484457e-06	2.636947e-09	1.057691e+01	1.721111e+02
2.350000e-06	1.385429e-06	2.557797e-09	9.871326e+00	1.666796e+02
2.360000e-06	1.286043e-06	2.475807e-09	9.163192e+00	1.611414e+02
2.370000e-06	1.186401e-06	2.389232e-09	8.453228e+00	1.554927e+02
2.380000e-06	1.086467e-06	2.300206e-09	7.741192e+00	1.497301e+02
2.390000e-06	9.861662e-07	2.209762e-09	7.026536e+00	1.438512e+02
2.400000e-06	8.854577e-07	2.121019e-09	6.308978e+00	1.378547e+02
2.410000e-06	7.843744e-07	2.027946e-09	5.588749e+00	1.317404e+02
2.420000e-06	6.829508e-07	1.932700e-09	4.866095e+00	1.255088e+02
2.430000e-06	5.813272e-07	1.836993e-09	4.142017e+00	1.191605e+02
2.440000e-06	4.795290e-07	1.737306e-09	3.416693e+00	1.126959e+02
2.450000e-06	3.774096e-07	1.636719e-09	2.689082e+00	1.061144e+02
2.460000e-06	2.750478e-07	1.537479e-09	1.959744e+00	9.941393e+01
2.470000e-06	1.725807e-07	1.432809e-09	1.229655e+00	9.259040e+01
2.480000e-06	6.998558e-08	1.322659e-09	4.986545e-01	8.563761e+01
2.490000e-06	-3.271452e-08	1.209853e-09	-2.330943e-01	7.854719e+01
2.500000e-06	-1.353284e-07	1.097803e-09	-9.642291e-01	7.130887e+01
2.510000e-06	-2.378590e-07	9.865626e-10	-1.694770e+00	6.391100e+01
2.520000e-06	-3.403290e-07	8.723837e-10	-2.424879e+00	5.634124e+01
2.530000e-06	-4.426544e-07	7.553503e-10	-3.153958e+00	4.858736e+01
2.540000e-06	-5.447800e-07	6.330286e-10	-3.881614e+00	4.063814e+01
2.550000e-06	-6.466612e-07	5.065209e-10	-4.607528e+00	3.248422e+01
2.560000e-06	-7.482541e-07	3.791302e-10	-5.331388e+00	2.411888e+01
2.570000e-06	-8.494464e-07	2.483930e-10	-6.052394e+00	1.553871e+01
2.580000e-06	-9.502359e-07	1.112265e-10	-6.770529e+00	6.744101e+00
2.590000e-06	-1.050644e-06	-3.041457e-11	-7.485951e+00	-2.260437e+00
2.600000e-06	-1.150722e-06	-1.725531e-10	-8.199017e+00	-1.146609e+01
2.610000e-06	-1.250467e-06	-3.141652e-10	-8.909707e+00	-2.085972e+01
2.620000e-06	-1.349773e-06	-4.583450e-10	-9.617275e+00	-3.042397e+01
2.630000e-06	-1.448607e-06	-6.058761e-10	-1.032148e+01	-4.013748e+01
2.640000e-06	-1.546926e-06	-7.534883e-10	-1.102201e+01	-4.997512e+01
2.650000e-06	-1.644708e-06	-9.020027e-10	-1.171871e+01	-5.990836e+01
2.660000e-06	-1.741911e-06	-1.053600e-09	-1.241130e+01	-6.990569e+01
2.670000e-06	-1.838530e-06	-1.206397e-09	-1.309972e+01	-7.993311e+01
2.680000e-06	-1.934633e-06	-1.359989e-09	-1.378446e+01	-8.995467e+01
2.690000e-06	-2.030123e-06	-1.512867e-09	-1.446484e+01	-9.993318e+01
2.700000e-06	-2.124799e-06	-1.662714e-09	-1.513941e+01	-1.098309e+02
2.710000e-06	-2.218521e-06	-1.810336e-09	-1.580719e+01	-1.196106e+02
2.720000e-06	-2.311250e-06	-1.957758e-09	-1.646789e+01	-1.292361e+02
2.730000e-06	-2.403084e-06	-2.102859e-09	-1.712222e+01	-1.386735e+02
2.740000e-06	-2.494119e-06	-2.242607e-09	-1.777086e+01	-1.478921e+02
2.750000e-06	-2.584309e-06	-2.378600e-09	-1.841347e+01	-1.568648e+02
2.760000e-06	-2.673586e-06	-2.513421e-09	-1.904957e+01	-1.655696e+02
2.770000e-06	-2.761997e-06	-2.643146e-09	-1.967951e+01	-1.739891e+02
2.780000e-06	-2.849574e-06	-2.765450e-09	-2.030351e+01	-1.821114e+02
2.790000e-06	-2.936153e-06	-2.884124e-09	-2.092040e+01	-1.899302e+02
2.800000e-06	-3.021486e-06	-3.000492e-09	-2.152840e+01	-1.974440e+02
2.810000e-06	-3.105650e-06	-3.112892e-09	-2.212808e+01	-2.046560e+02
2.820000e-06	-3.188834e-06	-3.219952e-09	-2.272077e+01	-2.115732e+02
2.830000e-06	-3.270972e-06	-3.321648e-09	-2.330601e+01	-2.182062e+02
2.840000e-06	-3.352053e-06	-3.417465e-09	-2.388372e+01	-2.245673e+02
2.850000e-06	-3.432097e-06	-3.508766e-09	-2.445404e+01	-2.306707e+02
2.860000e-06	-3.510934e-06	-3.597421e-09	-2.501577e+01	-2.365309e+02
2.870000e-06	-3.588230e-06	-3.682844e-09	-2.556651e+01	-2.421626e+02
2.880000e-06	-3.663917e-06	-3.763166e-09	-2.610579e+01	-2.475797e+02
2.890000e-06	-3.738205e-06	-3.840818e-09	-2.663510e+01	-2.527949e+02
2.900000e-06	-3.811178e-06	-3.918137e-09	-2.715504e+01	-2.578199e+02
2.910000e-06	-3.882862e-06	-3.994386e-09	-2.766579e+01	-2.626646e+02
2.920000e-06	-3.953059e-06	-4.066639e-09	-2.816596e+01	-2.673374e+02
2.930000e-06	-4.021660e-06	-4.135055e-09	-2.865475e+01	-2.718450e+02
2.940000e-06	-4.088846e-06	-4.202272e-09	-2.913345e+01	-2.761928e+02
