# Temperatura_=_79.95
# Concentracion g/m^3_=_15000.0
# C_Vs_to_Am_M_A/Vsm_=_65563218390.804596
# pendiente_HvsI_1/m_=_3716.3
# ordenada_HvsI_A/m_=_1297.0
# frecuencia_Hz_=_301576.36096788285

Tiempo_(s)	Campo_(V.s)	Magnetizacion_(V.s)	Campo_(kA/m)	Magnetizacion_(A/m)
0.000000e+00	-5.379201e-06	-6.993632e-09	-3.834022e+01	-4.567508e+02
1.000000e-08	-5.376124e-06	-6.990512e-09	-3.831828e+01	-4.565592e+02
2.000000e-08	-5.371312e-06	-6.985226e-09	-3.828399e+01	-4.562605e+02
3.000000e-08	-5.364877e-06	-6.976931e-09	-3.823812e+01	-4.558509e+02
4.000000e-08	-5.356884e-06	-6.966774e-09	-3.818115e+01	-4.553290e+02
5.000000e-08	-5.347083e-06	-6.955583e-09	-3.811129e+01	-4.546965e+02
6.000000e-08	-5.335192e-06	-6.946432e-09	-3.802654e+01	-4.539585e+02
7.000000e-08	-5.321383e-06	-6.940029e-09	-3.792812e+01	-4.531231e+02
8.000000e-08	-5.305450e-06	-6.913960e-09	-3.781455e+01	-4.522008e+02
9.000000e-08	-5.287247e-06	-6.903495e-09	-3.768481e+01	-4.512027e+02
1.000000e-07	-5.267046e-06	-6.922548e-09	-3.754083e+01	-4.501398e+02
1.100000e-07	-5.244979e-06	-6.903423e-09	-3.738354e+01	-4.490214e+02
1.200000e-07	-5.221265e-06	-6.884223e-09	-3.721453e+01	-4.478532e+02
1.300000e-07	-5.196008e-06	-6.865053e-09	-3.703451e+01	-4.466373e+02
1.400000e-07	-5.169085e-06	-6.738778e-09	-3.684261e+01	-4.453711e+02
1.500000e-07	-5.140561e-06	-6.770110e-09	-3.663931e+01	-4.440473e+02
1.600000e-07	-5.110601e-06	-6.811976e-09	-3.642577e+01	-4.426552e+02
1.700000e-07	-5.078981e-06	-6.697948e-09	-3.620040e+01	-4.411812e+02
1.800000e-07	-5.045240e-06	-6.753055e-09	-3.595991e+01	-4.396102e+02
1.900000e-07	-5.009695e-06	-6.724319e-09	-3.570656e+01	-4.379277e+02
2.000000e-07	-4.972685e-06	-6.601894e-09	-3.544277e+01	-4.361207e+02
2.100000e-07	-4.933954e-06	-6.642157e-09	-3.516672e+01	-4.341794e+02
2.200000e-07	-4.893409e-06	-6.607223e-09	-3.487774e+01	-4.320978e+02
2.300000e-07	-4.850894e-06	-6.541210e-09	-3.457471e+01	-4.298742e+02
2.400000e-07	-4.806455e-06	-6.531205e-09	-3.425797e+01	-4.275112e+02
2.500000e-07	-4.760206e-06	-6.463520e-09	-3.392833e+01	-4.250150e+02
2.600000e-07	-4.711993e-06	-6.459978e-09	-3.358470e+01	-4.223941e+02
2.700000e-07	-4.661683e-06	-6.409120e-09	-3.322611e+01	-4.196587e+02
2.800000e-07	-4.609358e-06	-6.336217e-09	-3.285316e+01	-4.168191e+02
2.900000e-07	-4.555263e-06	-6.317852e-09	-3.246760e+01	-4.138841e+02
3.000000e-07	-4.499645e-06	-6.263307e-09	-3.207119e+01	-4.108611e+02
3.100000e-07	-4.442331e-06	-6.205465e-09	-3.166268e+01	-4.077544e+02
3.200000e-07	-4.383185e-06	-6.161204e-09	-3.124112e+01	-4.045657e+02
3.300000e-07	-4.322478e-06	-6.129835e-09	-3.080843e+01	-4.012940e+02
3.400000e-07	-4.260350e-06	-6.067223e-09	-3.036561e+01	-3.979362e+02
3.500000e-07	-4.196868e-06	-5.994243e-09	-2.991315e+01	-3.944878e+02
3.600000e-07	-4.131851e-06	-5.960621e-09	-2.944974e+01	-3.909437e+02
3.700000e-07	-4.065177e-06	-5.906809e-09	-2.897452e+01	-3.872990e+02
3.800000e-07	-3.996963e-06	-5.837817e-09	-2.848832e+01	-3.835497e+02
3.900000e-07	-3.927359e-06	-5.779468e-09	-2.799222e+01	-3.796932e+02
4.000000e-07	-3.856503e-06	-5.725865e-09	-2.748719e+01	-3.757283e+02
4.100000e-07	-3.784422e-06	-5.671828e-09	-2.697344e+01	-3.716554e+02
4.200000e-07	-3.710910e-06	-5.585284e-09	-2.644949e+01	-3.674762e+02
4.300000e-07	-3.635780e-06	-5.522015e-09	-2.591400e+01	-3.631928e+02
4.400000e-07	-3.559159e-06	-5.465345e-09	-2.536788e+01	-3.588080e+02
4.500000e-07	-3.481123e-06	-5.395749e-09	-2.481168e+01	-3.543241e+02
4.600000e-07	-3.401752e-06	-5.325662e-09	-2.424596e+01	-3.497428e+02
4.700000e-07	-3.321147e-06	-5.252144e-09	-2.367145e+01	-3.450648e+02
4.800000e-07	-3.239287e-06	-5.186839e-09	-2.308799e+01	-3.402898e+02
4.900000e-07	-3.156291e-06	-5.108610e-09	-2.249644e+01	-3.354166e+02
5.000000e-07	-3.072292e-06	-5.027994e-09	-2.189774e+01	-3.304428e+02
5.100000e-07	-2.987417e-06	-4.950188e-09	-2.129279e+01	-3.253656e+02
5.200000e-07	-2.901600e-06	-4.872396e-09	-2.068113e+01	-3.201818e+02
5.300000e-07	-2.814700e-06	-4.785317e-09	-2.006176e+01	-3.148880e+02
5.400000e-07	-2.726905e-06	-4.697895e-09	-1.943599e+01	-3.094808e+02
5.500000e-07	-2.638143e-06	-4.616569e-09	-1.880334e+01	-3.039573e+02
5.600000e-07	-2.548204e-06	-4.533949e-09	-1.816231e+01	-2.983147e+02
5.700000e-07	-2.457192e-06	-4.444861e-09	-1.751362e+01	-2.925504e+02
5.800000e-07	-2.365307e-06	-4.346142e-09	-1.685871e+01	-2.866625e+02
5.900000e-07	-2.272698e-06	-4.252558e-09	-1.619863e+01	-2.806489e+02
6.000000e-07	-2.179341e-06	-4.161881e-09	-1.553323e+01	-2.745082e+02
6.100000e-07	-2.085135e-06	-4.069372e-09	-1.486178e+01	-2.682389e+02
6.200000e-07	-1.990198e-06	-3.973375e-09	-1.418512e+01	-2.618402e+02
6.300000e-07	-1.894635e-06	-3.873332e-09	-1.350400e+01	-2.553114e+02
6.400000e-07	-1.798317e-06	-3.769575e-09	-1.281749e+01	-2.486524e+02
6.500000e-07	-1.701246e-06	-3.664218e-09	-1.212562e+01	-2.418635e+02
6.600000e-07	-1.603494e-06	-3.558499e-09	-1.142889e+01	-2.349451e+02
6.700000e-07	-1.505063e-06	-3.450868e-09	-1.072733e+01	-2.278978e+02
6.800000e-07	-1.406063e-06	-3.341852e-09	-1.002171e+01	-2.207220e+02
6.900000e-07	-1.306577e-06	-3.228042e-09	-9.312618e+00	-2.134174e+02
7.000000e-07	-1.206650e-06	-3.113844e-09	-8.600385e+00	-2.059826e+02
7.100000e-07	-1.106393e-06	-3.000999e-09	-7.885810e+00	-1.984150e+02
7.200000e-07	-1.005869e-06	-2.886958e-09	-7.169320e+00	-1.907101e+02
7.300000e-07	-9.051010e-07	-2.766655e-09	-6.451100e+00	-1.828616e+02
7.400000e-07	-8.040288e-07	-2.641050e-09	-5.730709e+00	-1.748614e+02
7.500000e-07	-7.025534e-07	-2.515003e-09	-5.007444e+00	-1.666997e+02
7.600000e-07	-6.007443e-07	-2.388237e-09	-4.281801e+00	-1.583659e+02
7.700000e-07	-4.987927e-07	-2.258395e-09	-3.555141e+00	-1.498485e+02
7.800000e-07	-3.967364e-07	-2.124630e-09	-2.827736e+00	-1.411363e+02
7.900000e-07	-2.945121e-07	-1.986812e-09	-2.099133e+00	-1.322187e+02
8.000000e-07	-1.921601e-07	-1.844647e-09	-1.369620e+00	-1.230865e+02
8.100000e-07	-8.977530e-08	-1.704140e-09	-6.398728e-01	-1.137321e+02
8.200000e-07	1.265331e-08	-1.562608e-09	9.018636e-02	-1.041492e+02
8.300000e-07	1.151130e-07	-1.414243e-09	8.204669e-01	-9.433335e+01
8.400000e-07	2.175584e-07	-1.257987e-09	1.550646e+00	-8.428084e+01
8.500000e-07	3.199945e-07	-1.096749e-09	2.280758e+00	-7.398843e+01
8.600000e-07	4.223370e-07	-9.341570e-10	3.010204e+00	-6.345271e+01
8.700000e-07	5.245349e-07	-7.667234e-10	3.738619e+00	-5.266958e+01
8.800000e-07	6.265966e-07	-5.954348e-10	4.466062e+00	-4.163398e+01
8.900000e-07	7.284677e-07	-4.223712e-10	5.192148e+00	-3.034006e+01
9.000000e-07	8.300364e-07	-2.487855e-10	5.916078e+00	-1.878172e+01
9.100000e-07	9.312378e-07	-7.096223e-11	6.637390e+00	-6.953632e+00
9.200000e-07	1.032088e-06	1.115614e-10	7.356202e+00	5.147293e+00
9.300000e-07	1.132633e-06	2.977166e-10	8.072834e+00	1.752022e+01
9.400000e-07	1.232886e-06	4.896740e-10	8.787384e+00	3.015856e+01
9.500000e-07	1.332763e-06	6.877986e-10	9.499255e+00	4.304828e+01
9.600000e-07	1.432143e-06	8.892538e-10	1.020758e+01	5.616651e+01
9.700000e-07	1.530999e-06	1.089876e-09	1.091218e+01	6.948083e+01
9.800000e-07	1.629210e-06	1.292514e-09	1.161218e+01	8.294916e+01
9.900000e-07	1.726612e-06	1.496408e-09	1.230641e+01	9.652051e+01
1.000000e-06	1.823240e-06	1.699725e-09	1.299513e+01	1.101366e+02
1.010000e-06	1.919104e-06	1.901920e-09	1.367840e+01	1.237340e+02
1.020000e-06	2.014218e-06	2.104914e-09	1.435632e+01	1.372470e+02
1.030000e-06	2.108655e-06	2.306816e-09	1.502943e+01	1.506109e+02
1.040000e-06	2.202379e-06	2.504636e-09	1.569744e+01	1.637645e+02
1.050000e-06	2.295358e-06	2.699433e-09	1.636015e+01	1.766534e+02
1.060000e-06	2.387662e-06	2.889495e-09	1.701804e+01	1.892317e+02
1.070000e-06	2.479297e-06	3.074736e-09	1.767117e+01	2.014637e+02
1.080000e-06	2.570003e-06	3.254335e-09	1.831768e+01	2.133241e+02
1.090000e-06	2.659536e-06	3.430540e-09	1.895582e+01	2.247976e+02
1.100000e-06	2.747930e-06	3.600592e-09	1.958585e+01	2.358780e+02
1.110000e-06	2.835357e-06	3.762336e-09	2.020898e+01	2.465660e+02
1.120000e-06	2.921923e-06	3.917537e-09	2.082598e+01	2.568676e+02
1.130000e-06	3.007519e-06	4.069531e-09	2.143607e+01	2.667912e+02
1.140000e-06	3.092160e-06	4.218481e-09	2.203935e+01	2.763464e+02
1.150000e-06	3.175932e-06	4.361149e-09	2.263643e+01	2.855419e+02
1.160000e-06	3.258657e-06	4.495740e-09	2.322605e+01	2.943851e+02
1.170000e-06	3.340096e-06	4.623342e-09	2.380651e+01	3.028813e+02
1.180000e-06	3.420216e-06	4.745121e-09	2.437756e+01	3.110343e+02
1.190000e-06	3.499127e-06	4.861549e-09	2.494000e+01	3.188474e+02
1.200000e-06	3.576859e-06	4.975075e-09	2.549404e+01	3.263243e+02
1.210000e-06	3.653384e-06	5.084038e-09	2.603947e+01	3.334705e+02
1.220000e-06	3.728546e-06	5.187886e-09	2.657518e+01	3.402941e+02
1.230000e-06	3.802171e-06	5.286424e-09	2.709994e+01	3.468068e+02
1.240000e-06	3.874222e-06	5.380567e-09	2.761349e+01	3.530236e+02
1.250000e-06	3.944793e-06	5.469500e-09	2.811648e+01	3.589632e+02
1.260000e-06	4.013976e-06	5.556261e-09	2.860959e+01	3.646463e+02
1.270000e-06	4.081854e-06	5.641677e-09	2.909338e+01	3.700946e+02
1.280000e-06	4.148315e-06	5.722613e-09	2.956708e+01	3.753295e+02
1.290000e-06	4.213089e-06	5.800237e-09	3.002876e+01	3.803701e+02
1.300000e-06	4.276254e-06	5.875332e-09	3.047897e+01	3.852323e+02
1.310000e-06	4.337952e-06	5.947067e-09	3.091872e+01	3.899274e+02
1.320000e-06	4.398291e-06	6.015129e-09	3.134878e+01	3.944618e+02
1.330000e-06	4.457224e-06	6.079795e-09	3.176883e+01	3.988374e+02
1.340000e-06	4.514485e-06	6.143532e-09	3.217696e+01	4.030519e+02
1.350000e-06	4.569983e-06	6.206302e-09	3.257252e+01	4.071004e+02
1.360000e-06	4.623811e-06	6.265398e-09	3.295618e+01	4.109764e+02
1.370000e-06	4.675894e-06	6.320538e-09	3.332740e+01	4.146735e+02
1.380000e-06	4.725969e-06	6.372703e-09	3.368431e+01	4.181871e+02
1.390000e-06	4.774081e-06	6.421351e-09	3.402722e+01	4.215149e+02
1.400000e-06	4.820490e-06	6.467150e-09	3.435801e+01	4.246580e+02
1.410000e-06	4.865326e-06	6.510202e-09	3.467758e+01	4.276205e+02
1.420000e-06	4.908524e-06	6.550551e-09	3.498547e+01	4.304097e+02
1.430000e-06	4.949829e-06	6.588128e-09	3.527987e+01	4.330348e+02
1.440000e-06	4.989305e-06	6.623830e-09	3.556123e+01	4.355057e+02
1.450000e-06	5.027168e-06	6.658235e-09	3.583110e+01	4.378323e+02
1.460000e-06	5.063465e-06	6.691020e-09	3.608981e+01	4.400231e+02
1.470000e-06	5.098036e-06	6.722486e-09	3.633621e+01	4.420841e+02
1.480000e-06	5.130609e-06	6.749780e-09	3.656838e+01	4.440190e+02
1.490000e-06	5.161331e-06	6.774010e-09	3.678735e+01	4.458286e+02
1.500000e-06	5.190402e-06	6.796064e-09	3.699455e+01	4.475116e+02
1.510000e-06	5.217731e-06	6.816857e-09	3.718934e+01	4.490653e+02
1.520000e-06	5.242982e-06	6.835600e-09	3.736931e+01	4.504868e+02
1.530000e-06	5.266178e-06	6.853000e-09	3.753464e+01	4.517736e+02
1.540000e-06	5.287662e-06	6.871163e-09	3.768777e+01	4.529248e+02
1.550000e-06	5.307442e-06	6.888339e-09	3.782875e+01	4.539418e+02
1.560000e-06	5.325285e-06	6.903746e-09	3.795593e+01	4.548284e+02
1.570000e-06	5.341142e-06	6.917274e-09	3.806895e+01	4.555905e+02
1.580000e-06	5.355065e-06	6.928389e-09	3.816819e+01	4.562359e+02
1.590000e-06	5.366921e-06	6.936409e-09	3.825269e+01	4.567727e+02
1.600000e-06	5.376597e-06	6.942483e-09	3.832166e+01	4.572092e+02
1.610000e-06	5.384189e-06	6.947275e-09	3.837577e+01	4.575519e+02
1.620000e-06	5.389899e-06	6.952495e-09	3.841646e+01	4.578053e+02
1.630000e-06	5.393888e-06	6.958169e-09	3.844489e+01	4.579713e+02
1.640000e-06	5.395963e-06	6.961145e-09	3.845968e+01	4.580488e+02
1.650000e-06	5.396007e-06	6.960768e-09	3.846000e+01	4.580344e+02
1.660000e-06	5.394307e-06	6.959159e-09	3.844788e+01	4.579228e+02
1.670000e-06	5.391001e-06	6.954852e-09	3.842432e+01	4.577084e+02
1.680000e-06	5.385926e-06	6.951033e-09	3.838815e+01	4.573860e+02
1.690000e-06	5.378945e-06	6.946375e-09	3.833839e+01	4.569520e+02
1.700000e-06	5.370254e-06	6.939238e-09	3.827645e+01	4.564059e+02
1.710000e-06	5.359965e-06	6.929345e-09	3.820311e+01	4.557499e+02
1.720000e-06	5.347893e-06	6.913689e-09	3.811707e+01	4.549900e+02
1.730000e-06	5.333835e-06	6.908314e-09	3.801687e+01	4.541348e+02
1.740000e-06	5.317661e-06	6.905341e-09	3.790159e+01	4.531950e+02
1.750000e-06	5.299066e-06	6.857034e-09	3.776905e+01	4.521819e+02
1.760000e-06	5.277831e-06	6.841551e-09	3.761770e+01	4.511061e+02
1.770000e-06	5.254477e-06	6.820728e-09	3.745124e+01	4.499764e+02
1.780000e-06	5.229963e-06	6.808278e-09	3.727652e+01	4.487977e+02
1.790000e-06	5.204645e-06	6.873631e-09	3.709607e+01	4.475711e+02
1.800000e-06	5.177786e-06	6.755906e-09	3.690463e+01	4.462930e+02
1.810000e-06	5.148770e-06	6.738390e-09	3.669782e+01	4.449553e+02
1.820000e-06	5.117974e-06	6.826587e-09	3.647832e+01	4.435466e+02
1.830000e-06	5.085429e-06	6.679126e-09	3.624636e+01	4.420528e+02
1.840000e-06	5.050963e-06	6.705245e-09	3.600070e+01	4.404588e+02
1.850000e-06	5.014917e-06	6.779411e-09	3.574378e+01	4.387503e+02
1.860000e-06	4.977087e-06	6.636788e-09	3.547415e+01	4.369150e+02
1.870000e-06	4.937352e-06	6.639595e-09	3.519094e+01	4.349437e+02
1.880000e-06	4.895927e-06	6.607782e-09	3.489568e+01	4.328313e+02
1.890000e-06	4.852737e-06	6.548483e-09	3.458784e+01	4.305773e+02
1.900000e-06	4.807926e-06	6.560762e-09	3.426845e+01	4.281848e+02
1.910000e-06	4.761227e-06	6.429205e-09	3.393561e+01	4.256608e+02
1.920000e-06	4.712509e-06	6.462239e-09	3.358837e+01	4.230142e+02
1.930000e-06	4.662199e-06	6.449681e-09	3.322979e+01	4.202554e+02
1.940000e-06	4.610090e-06	6.318509e-09	3.285838e+01	4.173943e+02
1.950000e-06	4.555924e-06	6.351702e-09	3.247231e+01	4.144397e+02
1.960000e-06	4.499864e-06	6.292377e-09	3.207275e+01	4.113982e+02
1.970000e-06	4.442187e-06	6.229674e-09	3.166165e+01	4.082736e+02
1.980000e-06	4.383131e-06	6.176412e-09	3.124073e+01	4.050670e+02
1.990000e-06	4.322487e-06	6.111743e-09	3.080849e+01	4.017769e+02
2.000000e-06	4.260076e-06	6.111784e-09	3.036366e+01	3.983998e+02
2.010000e-06	4.196119e-06	6.006608e-09	2.990781e+01	3.949310e+02
2.020000e-06	4.130718e-06	5.966232e-09	2.944166e+01	3.913655e+02
2.030000e-06	4.063871e-06	5.934445e-09	2.896521e+01	3.876984e+02
2.040000e-06	3.995637e-06	5.860561e-09	2.847887e+01	3.839260e+02
2.050000e-06	3.925893e-06	5.802005e-09	2.798177e+01	3.800460e+02
2.060000e-06	3.854579e-06	5.719186e-09	2.747348e+01	3.760576e+02
2.070000e-06	3.781945e-06	5.701650e-09	2.695579e+01	3.719615e+02
2.080000e-06	3.708050e-06	5.619150e-09	2.642910e+01	3.677594e+02
2.090000e-06	3.632772e-06	5.541632e-09	2.589256e+01	3.634538e+02
2.100000e-06	3.555974e-06	5.484449e-09	2.534518e+01	3.590473e+02
2.110000e-06	3.477619e-06	5.404464e-09	2.478670e+01	3.545421e+02
2.120000e-06	3.397975e-06	5.347627e-09	2.421904e+01	3.499397e+02
2.130000e-06	3.317181e-06	5.251115e-09	2.364318e+01	3.452408e+02
2.140000e-06	3.235199e-06	5.195567e-09	2.305885e+01	3.404446e+02
2.150000e-06	3.152193e-06	5.134661e-09	2.246723e+01	3.355497e+02
2.160000e-06	3.068226e-06	5.052064e-09	2.186876e+01	3.305538e+02
2.170000e-06	2.983067e-06	4.971268e-09	2.126179e+01	3.254538e+02
2.180000e-06	2.896579e-06	4.891492e-09	2.064534e+01	3.202464e+02
2.190000e-06	2.808931e-06	4.821429e-09	2.002063e+01	3.149282e+02
2.200000e-06	2.720357e-06	4.729095e-09	1.938933e+01	3.094961e+02
2.210000e-06	2.630909e-06	4.640547e-09	1.875179e+01	3.039470e+02
2.220000e-06	2.540517e-06	4.556087e-09	1.810751e+01	2.982782e+02
2.230000e-06	2.449235e-06	4.477161e-09	1.745690e+01	2.924874e+02
2.240000e-06	2.357197e-06	4.382635e-09	1.680091e+01	2.865724e+02
2.250000e-06	2.264388e-06	4.288620e-09	1.613941e+01	2.805314e+02
2.260000e-06	2.170747e-06	4.202861e-09	1.547198e+01	2.743629e+02
2.270000e-06	2.076149e-06	4.104906e-09	1.479774e+01	2.680657e+02
2.280000e-06	1.980570e-06	4.003828e-09	1.411650e+01	2.616388e+02
2.290000e-06	1.884238e-06	3.903139e-09	1.342989e+01	2.550818e+02
2.300000e-06	1.787415e-06	3.807462e-09	1.273978e+01	2.483947e+02
2.310000e-06	1.690115e-06	3.704693e-09	1.204628e+01	2.415777e+02
2.320000e-06	1.592247e-06	3.592496e-09	1.134873e+01	2.346314e+02
2.330000e-06	1.493794e-06	3.480222e-09	1.064700e+01	2.275562e+02
2.340000e-06	1.394853e-06	3.375170e-09	9.941807e+00	2.203526e+02
2.350000e-06	1.295571e-06	3.266876e-09	9.234175e+00	2.130199e+02
2.360000e-06	1.196004e-06	3.154056e-09	8.524507e+00	2.055567e+02
2.370000e-06	1.096157e-06	3.039389e-09	7.812853e+00	1.979598e+02
2.380000e-06	9.959600e-07	2.919161e-09	7.098697e+00	1.902245e+02
2.390000e-06	8.953065e-07	2.797913e-09	6.381290e+00	1.823439e+02
2.400000e-06	7.942337e-07	2.673879e-09	5.660895e+00	1.743097e+02
2.410000e-06	6.928260e-07	2.550527e-09	4.938112e+00	1.661118e+02
2.420000e-06	5.911786e-07	2.424598e-09	4.213621e+00	1.577393e+02
2.430000e-06	4.893039e-07	2.292179e-09	3.487510e+00	1.491808e+02
2.440000e-06	3.872094e-07	2.158624e-09	2.759832e+00	1.404251e+02
2.450000e-06	2.849460e-07	2.027419e-09	2.030950e+00	1.314620e+02
2.460000e-06	1.825614e-07	1.891242e-09	1.301205e+00	1.222825e+02
2.470000e-06	8.013628e-08	1.745439e-09	5.711707e-01	1.128793e+02
2.480000e-06	-2.243551e-08	1.593825e-09	-1.599090e-01	1.032466e+02
2.490000e-06	-1.250914e-07	1.442179e-09	-8.915882e-01	9.338001e+01
2.500000e-06	-2.276287e-07	1.291752e-09	-1.622422e+00	8.327607e+01
2.510000e-06	-3.300473e-07	1.137630e-09	-2.352410e+00	7.293155e+01
2.520000e-06	-4.323647e-07	9.806232e-10	-3.081676e+00	6.234290e+01
2.530000e-06	-5.344760e-07	8.179873e-10	-3.809473e+00	5.150584e+01
2.540000e-06	-6.363469e-07	6.467862e-10	-4.535558e+00	4.041512e+01
2.550000e-06	-7.379457e-07	4.724407e-10	-5.259702e+00	2.906475e+01
2.560000e-06	-8.392087e-07	2.966025e-10	-5.981454e+00	1.744872e+01
2.570000e-06	-9.401142e-07	1.160124e-10	-6.700657e+00	5.562041e+00
2.580000e-06	-1.040568e-06	-7.085234e-11	-7.416639e+00	-6.597695e+00
2.590000e-06	-1.140560e-06	-2.622038e-10	-8.129335e+00	-1.902857e+01
2.600000e-06	-1.240160e-06	-4.546451e-10	-8.839229e+00	-3.172253e+01
2.610000e-06	-1.339388e-06	-6.504431e-10	-9.546477e+00	-4.466373e+01
2.620000e-06	-1.438258e-06	-8.551887e-10	-1.025117e+01	-5.782733e+01
2.630000e-06	-1.536656e-06	-1.064700e-09	-1.095250e+01	-7.117881e+01
2.640000e-06	-1.634473e-06	-1.273811e-09	-1.164969e+01	-8.467407e+01
2.650000e-06	-1.731741e-06	-1.483729e-09	-1.234297e+01	-9.826041e+01
2.660000e-06	-1.828424e-06	-1.693292e-09	-1.303208e+01	-1.118782e+02
2.670000e-06	-1.924541e-06	-1.902311e-09	-1.371715e+01	-1.254634e+02
2.680000e-06	-2.020077e-06	-2.111276e-09	-1.439808e+01	-1.389501e+02
2.690000e-06	-2.114829e-06	-2.317456e-09	-1.507343e+01	-1.522742e+02
2.700000e-06	-2.208665e-06	-2.520240e-09	-1.574224e+01	-1.653757e+02
2.710000e-06	-2.301513e-06	-2.719293e-09	-1.640401e+01	-1.782018e+02
2.720000e-06	-2.393417e-06	-2.912960e-09	-1.705906e+01	-1.907089e+02
2.730000e-06	-2.484504e-06	-3.099383e-09	-1.770828e+01	-2.028633e+02
2.740000e-06	-2.574705e-06	-3.278915e-09	-1.835119e+01	-2.146420e+02
2.750000e-06	-2.663937e-06	-3.452920e-09	-1.898719e+01	-2.260318e+02
2.760000e-06	-2.752372e-06	-3.618640e-09	-1.961751e+01	-2.370281e+02
2.770000e-06	-2.840023e-06	-3.777202e-09	-2.024224e+01	-2.476330e+02
2.780000e-06	-2.926716e-06	-3.931205e-09	-2.086015e+01	-2.578531e+02
2.790000e-06	-3.012268e-06	-4.080945e-09	-2.146991e+01	-2.676972e+02
2.800000e-06	-3.096604e-06	-4.225991e-09	-2.207102e+01	-2.771750e+02
2.810000e-06	-3.179891e-06	-4.366491e-09	-2.266465e+01	-2.862947e+02
2.820000e-06	-3.262126e-06	-4.502053e-09	-2.325078e+01	-2.950634e+02
2.830000e-06	-3.343256e-06	-4.631971e-09	-2.382903e+01	-3.034861e+02
2.840000e-06	-3.423322e-06	-4.756805e-09	-2.439970e+01	-3.115663e+02
2.850000e-06	-3.502139e-06	-4.876922e-09	-2.496147e+01	-3.193073e+02
2.860000e-06	-3.579488e-06	-4.992016e-09	-2.551277e+01	-3.267131e+02
2.870000e-06	-3.655349e-06	-5.099464e-09	-2.605347e+01	-3.337896e+02
2.880000e-06	-3.729757e-06	-5.199872e-09	-2.658382e+01	-3.405458e+02
2.890000e-06	-3.802797e-06	-5.296869e-09	-2.710441e+01	-3.469939e+02
2.900000e-06	-3.874546e-06	-5.393158e-09	-2.761580e+01	-3.531500e+02
2.910000e-06	-3.944893e-06	-5.485996e-09	-2.811720e+01	-3.590331e+02
2.920000e-06	-4.013674e-06	-5.572509e-09	-2.860743e+01	-3.646643e+02
2.930000e-06	-4.081014e-06	-5.655461e-09	-2.908740e+01	-3.700654e+02
2.940000e-06	-4.146999e-06	-5.735528e-09	-2.955770e+01	-3.752575e+02
