# Temperatura_=_79.09
# Concentracion g/m^3_=_15000.0
# C_Vs_to_Am_M_A/Vsm_=_65563218390.804596
# pendiente_HvsI_1/m_=_3716.3
# ordenada_HvsI_A/m_=_1297.0
# frecuencia_Hz_=_301580.3260356088

Tiempo_(s)	Campo_(V.s)	Magnetizacion_(V.s)	Campo_(kA/m)	Magnetizacion_(A/m)
0.000000e+00	-5.376367e-06	-7.006806e-09	-3.834116e+01	-4.579816e+02
1.000000e-08	-5.373649e-06	-7.005127e-09	-3.832178e+01	-4.578015e+02
2.000000e-08	-5.369122e-06	-7.000328e-09	-3.828950e+01	-4.575095e+02
3.000000e-08	-5.362963e-06	-6.993337e-09	-3.824557e+01	-4.571020e+02
4.000000e-08	-5.355225e-06	-6.985432e-09	-3.819039e+01	-4.565781e+02
5.000000e-08	-5.345646e-06	-6.976274e-09	-3.812208e+01	-4.559402e+02
6.000000e-08	-5.333976e-06	-6.967109e-09	-3.803885e+01	-4.551947e+02
7.000000e-08	-5.320411e-06	-6.953811e-09	-3.794212e+01	-4.543516e+02
8.000000e-08	-5.304796e-06	-6.930209e-09	-3.783076e+01	-4.534235e+02
9.000000e-08	-5.286982e-06	-6.949469e-09	-3.770372e+01	-4.524242e+02
1.000000e-07	-5.267131e-06	-6.968946e-09	-3.756216e+01	-4.513675e+02
1.100000e-07	-5.245405e-06	-6.931714e-09	-3.740721e+01	-4.502652e+02
1.200000e-07	-5.222037e-06	-6.907051e-09	-3.724057e+01	-4.491256e+02
1.300000e-07	-5.197044e-06	-6.846959e-09	-3.706233e+01	-4.479523e+02
1.400000e-07	-5.170360e-06	-6.744826e-09	-3.687204e+01	-4.467432e+02
1.500000e-07	-5.142114e-06	-6.850755e-09	-3.667061e+01	-4.454909e+02
1.600000e-07	-5.112456e-06	-6.836425e-09	-3.645910e+01	-4.441827e+02
1.700000e-07	-5.081225e-06	-6.734609e-09	-3.623638e+01	-4.428020e+02
1.800000e-07	-5.047903e-06	-6.813156e-09	-3.599875e+01	-4.413300e+02
1.900000e-07	-5.012697e-06	-6.705873e-09	-3.574768e+01	-4.397471e+02
2.000000e-07	-4.976007e-06	-6.646333e-09	-3.548603e+01	-4.380357e+02
2.100000e-07	-4.937582e-06	-6.718787e-09	-3.521200e+01	-4.361810e+02
2.200000e-07	-4.897348e-06	-6.622258e-09	-3.492508e+01	-4.341729e+02
2.300000e-07	-4.855181e-06	-6.585873e-09	-3.462436e+01	-4.320068e+02
2.400000e-07	-4.811055e-06	-6.581259e-09	-3.430968e+01	-4.296833e+02
2.500000e-07	-4.765141e-06	-6.492149e-09	-3.398225e+01	-4.272083e+02
2.600000e-07	-4.717357e-06	-6.506339e-09	-3.364148e+01	-4.245918e+02
2.700000e-07	-4.667482e-06	-6.443448e-09	-3.328580e+01	-4.218464e+02
2.800000e-07	-4.615491e-06	-6.371896e-09	-3.291503e+01	-4.189856e+02
2.900000e-07	-4.561646e-06	-6.356736e-09	-3.253104e+01	-4.160226e+02
3.000000e-07	-4.506279e-06	-6.306806e-09	-3.213620e+01	-4.129685e+02
3.100000e-07	-4.449277e-06	-6.253304e-09	-3.172969e+01	-4.098314e+02
3.200000e-07	-4.390452e-06	-6.206245e-09	-3.131019e+01	-4.066157e+02
3.300000e-07	-4.330039e-06	-6.166842e-09	-3.087935e+01	-4.033222e+02
3.400000e-07	-4.268171e-06	-6.086774e-09	-3.043815e+01	-3.999486e+02
3.500000e-07	-4.204970e-06	-6.037546e-09	-2.998743e+01	-3.964898e+02
3.600000e-07	-4.140312e-06	-6.016731e-09	-2.952633e+01	-3.929394e+02
3.700000e-07	-4.073915e-06	-5.949121e-09	-2.905283e+01	-3.892904e+02
3.800000e-07	-4.005948e-06	-5.886787e-09	-2.856812e+01	-3.855369e+02
3.900000e-07	-3.936634e-06	-5.825866e-09	-2.807381e+01	-3.816743e+02
4.000000e-07	-3.866071e-06	-5.761705e-09	-2.757060e+01	-3.776999e+02
4.100000e-07	-3.794303e-06	-5.705245e-09	-2.705879e+01	-3.736135e+02
4.200000e-07	-3.721127e-06	-5.627735e-09	-2.653694e+01	-3.694169e+02
4.300000e-07	-3.646351e-06	-5.572799e-09	-2.600368e+01	-3.651135e+02
4.400000e-07	-3.570060e-06	-5.509518e-09	-2.545962e+01	-3.607073e+02
4.500000e-07	-3.492286e-06	-5.435026e-09	-2.490498e+01	-3.562027e+02
4.600000e-07	-3.413065e-06	-5.365705e-09	-2.434002e+01	-3.516034e+02
4.700000e-07	-3.332581e-06	-5.295929e-09	-2.376605e+01	-3.469116e+02
4.800000e-07	-3.250868e-06	-5.223737e-09	-2.318332e+01	-3.421281e+02
4.900000e-07	-3.168024e-06	-5.139492e-09	-2.259253e+01	-3.372515e+02
5.000000e-07	-3.084203e-06	-5.068246e-09	-2.199477e+01	-3.322788e+02
5.100000e-07	-2.999488e-06	-4.992301e-09	-2.139063e+01	-3.272054e+02
5.200000e-07	-2.913827e-06	-4.912822e-09	-2.077974e+01	-3.220257e+02
5.300000e-07	-2.827217e-06	-4.826400e-09	-2.016209e+01	-3.167339e+02
5.400000e-07	-2.739706e-06	-4.738118e-09	-1.953801e+01	-3.113240e+02
5.500000e-07	-2.651172e-06	-4.654046e-09	-1.890664e+01	-3.057910e+02
5.600000e-07	-2.561475e-06	-4.569945e-09	-1.826697e+01	-3.001308e+02
5.700000e-07	-2.470697e-06	-4.486624e-09	-1.761960e+01	-2.943407e+02
5.800000e-07	-2.379000e-06	-4.390548e-09	-1.696566e+01	-2.884193e+02
5.900000e-07	-2.286485e-06	-4.291793e-09	-1.630590e+01	-2.823666e+02
6.000000e-07	-2.193211e-06	-4.195166e-09	-1.564072e+01	-2.761837e+02
6.100000e-07	-2.099158e-06	-4.100541e-09	-1.496999e+01	-2.698725e+02
6.200000e-07	-2.004469e-06	-4.002789e-09	-1.429472e+01	-2.634352e+02
6.300000e-07	-1.909105e-06	-3.903076e-09	-1.361464e+01	-2.568744e+02
6.400000e-07	-1.812963e-06	-3.803575e-09	-1.292901e+01	-2.501923e+02
6.500000e-07	-1.716044e-06	-3.701996e-09	-1.223784e+01	-2.433904e+02
6.600000e-07	-1.618396e-06	-3.597608e-09	-1.154147e+01	-2.364698e+02
6.700000e-07	-1.520105e-06	-3.488047e-09	-1.084052e+01	-2.294302e+02
6.800000e-07	-1.421205e-06	-3.375195e-09	-1.013522e+01	-2.222704e+02
6.900000e-07	-1.321765e-06	-3.256852e-09	-9.426066e+00	-2.149877e+02
7.000000e-07	-1.221906e-06	-3.141755e-09	-8.713934e+00	-2.075781e+02
7.100000e-07	-1.121753e-06	-3.029569e-09	-7.999699e+00	-2.000363e+02
7.200000e-07	-1.021363e-06	-2.915531e-09	-7.283773e+00	-1.923555e+02
7.300000e-07	-9.207276e-07	-2.796699e-09	-6.566100e+00	-1.845278e+02
7.400000e-07	-8.197893e-07	-2.673338e-09	-5.846267e+00	-1.765445e+02
7.500000e-07	-7.185574e-07	-2.549172e-09	-5.124339e+00	-1.683959e+02
7.600000e-07	-6.170257e-07	-2.424123e-09	-4.400273e+00	-1.600722e+02
7.700000e-07	-5.152092e-07	-2.294694e-09	-3.674176e+00	-1.515636e+02
7.800000e-07	-4.132023e-07	-2.158735e-09	-2.946722e+00	-1.428608e+02
7.900000e-07	-3.111027e-07	-2.019182e-09	-2.218606e+00	-1.339554e+02
8.000000e-07	-2.088791e-07	-1.876007e-09	-1.489606e+00	-1.248398e+02
8.100000e-07	-1.065493e-07	-1.733769e-09	-7.598484e-01	-1.155075e+02
8.200000e-07	-4.189362e-09	-1.591581e-09	-2.987612e-02	-1.059532e+02
8.300000e-07	9.819983e-08	-1.444252e-09	7.003048e-01	-9.617224e+01
8.400000e-07	2.005845e-07	-1.290338e-09	1.430454e+00	-8.616018e+01
8.500000e-07	3.029068e-07	-1.133790e-09	2.160157e+00	-7.591266e+01
8.600000e-07	4.051389e-07	-9.740112e-10	2.889218e+00	-6.542477e+01
8.700000e-07	5.072825e-07	-8.078950e-10	3.617648e+00	-5.469084e+01
8.800000e-07	6.092650e-07	-6.381958e-10	4.344928e+00	-4.370439e+01
8.900000e-07	7.110667e-07	-4.648212e-10	5.070920e+00	-3.245838e+01
9.000000e-07	8.126560e-07	-2.903644e-10	5.795396e+00	-2.094593e+01
9.100000e-07	9.139094e-07	-1.118013e-10	6.517477e+00	-9.161259e+00
9.200000e-07	1.014794e-06	7.137412e-11	7.236929e+00	2.898913e+00
9.300000e-07	1.115347e-06	2.574093e-10	7.954018e+00	1.523381e+01
9.400000e-07	1.215594e-06	4.486967e-10	8.668921e+00	2.783697e+01
9.500000e-07	1.315445e-06	6.436366e-10	9.381002e+00	4.069472e+01
9.600000e-07	1.414807e-06	8.416121e-10	1.008959e+01	5.378494e+01
9.700000e-07	1.513640e-06	1.041433e-09	1.079441e+01	6.707643e+01
9.800000e-07	1.611829e-06	1.243610e-09	1.149464e+01	8.052873e+01
9.900000e-07	1.709317e-06	1.447886e-09	1.218987e+01	9.409287e+01
1.000000e-06	1.806066e-06	1.653520e-09	1.287982e+01	1.077127e+02
1.010000e-06	1.901972e-06	1.860418e-09	1.356377e+01	1.213268e+02
1.020000e-06	1.997131e-06	2.066027e-09	1.424239e+01	1.348713e+02
1.030000e-06	2.091638e-06	2.268249e-09	1.491636e+01	1.482825e+02
1.040000e-06	2.185393e-06	2.465911e-09	1.558497e+01	1.614995e+02
1.050000e-06	2.278391e-06	2.658598e-09	1.624817e+01	1.744675e+02
1.060000e-06	2.370711e-06	2.847614e-09	1.690655e+01	1.871391e+02
1.070000e-06	2.462344e-06	3.034620e-09	1.756003e+01	1.994763e+02
1.080000e-06	2.553103e-06	3.217646e-09	1.820727e+01	2.114509e+02
1.090000e-06	2.642793e-06	3.396265e-09	1.884688e+01	2.230448e+02
1.100000e-06	2.731404e-06	3.569097e-09	1.947880e+01	2.342484e+02
1.110000e-06	2.819007e-06	3.734135e-09	2.010354e+01	2.450597e+02
1.120000e-06	2.905657e-06	3.892659e-09	2.072147e+01	2.554823e+02
1.130000e-06	2.991391e-06	4.046903e-09	2.133288e+01	2.655231e+02
1.140000e-06	3.076168e-06	4.196694e-09	2.193747e+01	2.751909e+02
1.150000e-06	3.159974e-06	4.339096e-09	2.253512e+01	2.844944e+02
1.160000e-06	3.242769e-06	4.473363e-09	2.312557e+01	2.934415e+02
1.170000e-06	3.324398e-06	4.601032e-09	2.370770e+01	3.020386e+02
1.180000e-06	3.404757e-06	4.724742e-09	2.428078e+01	3.102907e+02
1.190000e-06	3.483935e-06	4.844545e-09	2.484542e+01	3.182023e+02
1.200000e-06	3.561906e-06	4.960086e-09	2.540147e+01	3.257778e+02
1.210000e-06	3.638570e-06	5.069804e-09	2.594819e+01	3.330232e+02
1.220000e-06	3.713881e-06	5.173885e-09	2.648527e+01	3.399464e+02
1.230000e-06	3.787671e-06	5.272450e-09	2.701149e+01	3.465585e+02
1.240000e-06	3.859852e-06	5.366337e-09	2.752625e+01	3.528735e+02
1.250000e-06	3.930581e-06	5.455564e-09	2.803065e+01	3.589087e+02
1.260000e-06	3.999966e-06	5.541476e-09	2.852546e+01	3.646833e+02
1.270000e-06	4.068032e-06	5.626660e-09	2.901087e+01	3.702180e+02
1.280000e-06	4.134697e-06	5.710199e-09	2.948629e+01	3.755330e+02
1.290000e-06	4.199735e-06	5.789496e-09	2.995010e+01	3.806469e+02
1.300000e-06	4.263163e-06	5.863646e-09	3.040243e+01	3.855753e+02
1.310000e-06	4.325118e-06	5.935896e-09	3.084426e+01	3.903297e+02
1.320000e-06	4.385740e-06	6.006311e-09	3.127658e+01	3.949173e+02
1.330000e-06	4.444968e-06	6.073734e-09	3.169896e+01	3.993404e+02
1.340000e-06	4.502491e-06	6.138318e-09	3.210918e+01	4.035978e+02
1.350000e-06	4.558208e-06	6.199997e-09	3.250652e+01	4.076848e+02
1.360000e-06	4.612236e-06	6.258062e-09	3.289182e+01	4.115955e+02
1.370000e-06	4.664517e-06	6.312393e-09	3.326466e+01	4.153238e+02
1.380000e-06	4.714904e-06	6.364844e-09	3.362399e+01	4.188646e+02
1.390000e-06	4.763337e-06	6.415560e-09	3.396938e+01	4.222155e+02
1.400000e-06	4.809948e-06	6.462970e-09	3.430179e+01	4.253770e+02
1.410000e-06	4.854949e-06	6.505645e-09	3.462271e+01	4.283531e+02
1.420000e-06	4.898337e-06	6.545806e-09	3.493213e+01	4.311508e+02
1.430000e-06	4.939924e-06	6.584586e-09	3.522870e+01	4.337797e+02
1.440000e-06	4.979688e-06	6.620076e-09	3.551228e+01	4.362503e+02
1.450000e-06	5.017815e-06	6.652990e-09	3.578417e+01	4.385737e+02
1.460000e-06	5.054368e-06	6.683441e-09	3.604485e+01	4.407596e+02
1.470000e-06	5.089179e-06	6.713927e-09	3.629311e+01	4.428161e+02
1.480000e-06	5.122002e-06	6.743219e-09	3.652717e+01	4.447485e+02
1.490000e-06	5.153006e-06	6.769083e-09	3.674828e+01	4.465594e+02
1.500000e-06	5.182401e-06	6.792339e-09	3.695791e+01	4.482489e+02
1.510000e-06	5.210043e-06	6.812357e-09	3.715503e+01	4.498155e+02
1.520000e-06	5.235696e-06	6.830434e-09	3.733798e+01	4.512564e+02
1.530000e-06	5.259274e-06	6.847801e-09	3.750613e+01	4.525693e+02
1.540000e-06	5.280991e-06	6.864364e-09	3.766099e+01	4.537527e+02
1.550000e-06	5.301010e-06	6.880645e-09	3.780376e+01	4.548068e+02
1.560000e-06	5.319207e-06	6.896384e-09	3.793353e+01	4.557340e+02
1.570000e-06	5.335412e-06	6.910838e-09	3.804909e+01	4.565389e+02
1.580000e-06	5.349617e-06	6.923575e-09	3.815039e+01	4.572273e+02
1.590000e-06	5.361825e-06	6.934258e-09	3.823746e+01	4.578064e+02
1.600000e-06	5.371867e-06	6.941443e-09	3.830907e+01	4.582829e+02
1.610000e-06	5.379790e-06	6.944933e-09	3.836558e+01	4.586627e+02
1.620000e-06	5.385857e-06	6.947965e-09	3.840884e+01	4.589495e+02
1.630000e-06	5.390188e-06	6.952420e-09	3.843972e+01	4.591447e+02
1.640000e-06	5.392631e-06	6.956136e-09	3.845715e+01	4.592470e+02
1.650000e-06	5.393031e-06	6.956032e-09	3.846000e+01	4.592526e+02
1.660000e-06	5.391564e-06	6.952646e-09	3.844954e+01	4.591564e+02
1.670000e-06	5.388466e-06	6.945534e-09	3.842745e+01	4.589525e+02
1.680000e-06	5.383738e-06	6.942538e-09	3.839373e+01	4.586358e+02
1.690000e-06	5.377093e-06	6.937760e-09	3.834634e+01	4.582031e+02
1.700000e-06	5.368597e-06	6.929016e-09	3.828575e+01	4.576541e+02
1.710000e-06	5.358535e-06	6.919995e-09	3.821399e+01	4.569923e+02
1.720000e-06	5.346744e-06	6.912053e-09	3.812991e+01	4.562247e+02
1.730000e-06	5.333005e-06	6.914987e-09	3.803193e+01	4.553620e+02
1.740000e-06	5.317186e-06	6.878818e-09	3.791912e+01	4.544172e+02
1.750000e-06	5.299023e-06	6.817675e-09	3.778959e+01	4.534042e+02
1.760000e-06	5.278201e-06	6.816887e-09	3.764110e+01	4.523366e+02
1.770000e-06	5.255040e-06	6.803095e-09	3.747593e+01	4.512255e+02
1.780000e-06	5.230632e-06	6.845945e-09	3.730186e+01	4.500783e+02
1.790000e-06	5.205497e-06	6.870754e-09	3.712262e+01	4.488975e+02
1.800000e-06	5.178960e-06	6.681893e-09	3.693337e+01	4.476798e+02
1.810000e-06	5.150308e-06	6.736683e-09	3.672904e+01	4.464165e+02
1.820000e-06	5.119794e-06	6.787727e-09	3.651143e+01	4.450940e+02
1.830000e-06	5.087557e-06	6.649702e-09	3.628154e+01	4.436951e+02
1.840000e-06	5.053398e-06	6.793526e-09	3.603794e+01	4.422006e+02
1.850000e-06	5.017635e-06	6.782284e-09	3.578289e+01	4.405914e+02
1.860000e-06	4.980115e-06	6.639825e-09	3.551532e+01	4.388501e+02
1.870000e-06	4.940671e-06	6.717994e-09	3.523403e+01	4.369630e+02
1.880000e-06	4.899559e-06	6.619670e-09	3.494084e+01	4.349210e+02
1.890000e-06	4.856649e-06	6.608822e-09	3.463483e+01	4.327206e+02
1.900000e-06	4.812078e-06	6.633592e-09	3.431698e+01	4.303638e+02
1.910000e-06	4.765739e-06	6.466876e-09	3.398652e+01	4.278573e+02
1.920000e-06	4.717396e-06	6.539209e-09	3.364176e+01	4.252119e+02
1.930000e-06	4.667443e-06	6.472999e-09	3.328553e+01	4.224403e+02
1.940000e-06	4.615833e-06	6.372354e-09	3.291747e+01	4.195563e+02
1.950000e-06	4.562138e-06	6.422521e-09	3.253455e+01	4.165727e+02
1.960000e-06	4.506407e-06	6.316852e-09	3.213711e+01	4.135000e+02
1.970000e-06	4.448950e-06	6.277483e-09	3.172736e+01	4.103455e+02
1.980000e-06	4.390030e-06	6.223804e-09	3.130717e+01	4.071130e+02
1.990000e-06	4.329690e-06	6.193522e-09	3.087687e+01	4.038024e+02
2.000000e-06	4.267684e-06	6.167776e-09	3.043467e+01	4.004108e+02
2.010000e-06	4.204037e-06	6.035983e-09	2.998078e+01	3.969327e+02
2.020000e-06	4.138878e-06	6.031327e-09	2.951610e+01	3.933614e+02
2.030000e-06	4.072264e-06	5.958832e-09	2.904105e+01	3.896903e+02
2.040000e-06	4.004274e-06	5.899420e-09	2.855619e+01	3.859135e+02
2.050000e-06	3.934839e-06	5.863852e-09	2.806101e+01	3.820268e+02
2.060000e-06	3.863877e-06	5.781622e-09	2.755495e+01	3.780281e+02
2.070000e-06	3.791502e-06	5.753078e-09	2.703881e+01	3.739177e+02
2.080000e-06	3.717867e-06	5.638563e-09	2.651369e+01	3.696976e+02
2.090000e-06	3.642896e-06	5.585606e-09	2.597904e+01	3.653715e+02
2.100000e-06	3.566470e-06	5.534102e-09	2.543402e+01	3.609437e+02
2.110000e-06	3.488469e-06	5.451532e-09	2.487776e+01	3.564183e+02
2.120000e-06	3.409045e-06	5.392486e-09	2.431135e+01	3.517987e+02
2.130000e-06	3.328463e-06	5.305479e-09	2.373669e+01	3.470871e+02
2.140000e-06	3.246748e-06	5.254988e-09	2.315395e+01	3.422835e+02
2.150000e-06	3.163964e-06	5.173013e-09	2.256357e+01	3.373864e+02
2.160000e-06	3.080195e-06	5.098897e-09	2.196618e+01	3.323923e+02
2.170000e-06	2.995361e-06	5.016920e-09	2.136120e+01	3.272963e+02
2.180000e-06	2.909230e-06	4.930926e-09	2.074696e+01	3.220929e+02
2.190000e-06	2.821802e-06	4.858718e-09	2.012347e+01	3.167760e+02
2.200000e-06	2.733372e-06	4.774003e-09	1.949284e+01	3.113399e+02
2.210000e-06	2.644098e-06	4.696677e-09	1.885619e+01	3.057797e+02
2.220000e-06	2.553924e-06	4.603839e-09	1.821312e+01	3.000917e+02
2.230000e-06	2.462842e-06	4.519909e-09	1.756357e+01	2.942732e+02
2.240000e-06	2.370985e-06	4.427378e-09	1.690851e+01	2.883234e+02
2.250000e-06	2.278363e-06	4.336629e-09	1.624798e+01	2.822425e+02
2.260000e-06	2.184989e-06	4.248131e-09	1.558209e+01	2.760316e+02
2.270000e-06	2.090684e-06	4.149771e-09	1.490956e+01	2.696929e+02
2.280000e-06	1.995252e-06	4.046157e-09	1.422899e+01	2.632287e+02
2.290000e-06	1.898986e-06	3.940711e-09	1.354248e+01	2.566415e+02
2.300000e-06	1.802247e-06	3.844945e-09	1.285259e+01	2.499333e+02
2.310000e-06	1.705099e-06	3.746709e-09	1.215978e+01	2.431058e+02
2.320000e-06	1.607356e-06	3.640606e-09	1.146274e+01	2.361595e+02
2.330000e-06	1.508985e-06	3.527269e-09	1.076121e+01	2.290940e+02
2.340000e-06	1.410168e-06	3.420399e-09	1.005651e+01	2.219079e+02
2.350000e-06	1.310967e-06	3.310618e-09	9.349063e+00	2.145981e+02
2.360000e-06	1.211431e-06	3.197517e-09	8.639234e+00	2.071604e+02
2.370000e-06	1.111637e-06	3.084092e-09	7.927556e+00	1.995892e+02
2.380000e-06	1.011467e-06	2.962920e-09	7.213199e+00	1.918774e+02
2.390000e-06	9.108755e-07	2.839241e-09	6.495841e+00	1.840169e+02
2.400000e-06	8.099645e-07	2.717118e-09	5.776202e+00	1.759987e+02
2.410000e-06	7.087422e-07	2.597984e-09	5.054343e+00	1.678132e+02
2.420000e-06	6.072181e-07	2.473659e-09	4.330331e+00	1.594504e+02
2.430000e-06	5.054622e-07	2.340558e-09	3.604666e+00	1.509008e+02
2.440000e-06	4.035869e-07	2.206528e-09	2.878150e+00	1.421550e+02
2.450000e-06	3.015863e-07	2.075674e-09	2.150741e+00	1.332049e+02
2.460000e-06	1.993850e-07	1.938674e-09	1.421899e+00	1.240431e+02
2.470000e-06	9.703936e-08	1.794255e-09	6.920290e-01	1.146635e+02
2.480000e-06	-5.368720e-09	1.644247e-09	-3.828663e-02	1.050607e+02
2.490000e-06	-1.078043e-07	1.491273e-09	-7.687984e-01	9.523031e+01
2.500000e-06	-2.101461e-07	1.337861e-09	-1.498641e+00	8.516794e+01
2.510000e-06	-3.123982e-07	1.183328e-09	-2.227844e+00	7.486910e+01
2.520000e-06	-4.146548e-07	1.027795e-09	-2.957080e+00	6.432875e+01
2.530000e-06	-5.167671e-07	8.659897e-10	-3.685286e+00	5.354103e+01
2.540000e-06	-6.186808e-07	6.976735e-10	-4.412076e+00	4.249931e+01
2.550000e-06	-7.203143e-07	5.256446e-10	-5.136868e+00	3.119653e+01
2.560000e-06	-8.216012e-07	3.504024e-10	-5.859188e+00	1.962592e+01
2.570000e-06	-9.225595e-07	1.668363e-10	-6.579165e+00	7.782131e+00
2.580000e-06	-1.023077e-06	-2.237641e-11	-7.295997e+00	-4.337392e+00
2.590000e-06	-1.123156e-06	-2.123811e-10	-8.009705e+00	-1.673079e+01
2.600000e-06	-1.222835e-06	-4.039684e-10	-8.720555e+00	-2.939017e+01
2.610000e-06	-1.322122e-06	-5.988520e-10	-9.428616e+00	-4.230014e+01
2.620000e-06	-1.421018e-06	-8.013727e-10	-1.013388e+01	-5.543669e+01
2.630000e-06	-1.519433e-06	-1.007858e-09	-1.083572e+01	-6.876659e+01
2.640000e-06	-1.617289e-06	-1.214950e-09	-1.153358e+01	-8.224750e+01
2.650000e-06	-1.714583e-06	-1.424204e-09	-1.222742e+01	-9.582875e+01
2.660000e-06	-1.811344e-06	-1.635702e-09	-1.291746e+01	-1.094529e+02
2.670000e-06	-1.907544e-06	-1.846492e-09	-1.360351e+01	-1.230577e+02
2.680000e-06	-2.003093e-06	-2.056380e-09	-1.428491e+01	-1.365792e+02
2.690000e-06	-2.097861e-06	-2.264475e-09	-1.496074e+01	-1.499540e+02
2.700000e-06	-2.191753e-06	-2.468208e-09	-1.563032e+01	-1.631223e+02
2.710000e-06	-2.284699e-06	-2.667684e-09	-1.629316e+01	-1.760307e+02
2.720000e-06	-2.376721e-06	-2.859924e-09	-1.694941e+01	-1.886337e+02
2.730000e-06	-2.467965e-06	-3.046618e-09	-1.760011e+01	-2.008955e+02
2.740000e-06	-2.558346e-06	-3.229105e-09	-1.824466e+01	-2.127900e+02
2.750000e-06	-2.647815e-06	-3.406053e-09	-1.888270e+01	-2.243010e+02
2.760000e-06	-2.736417e-06	-3.576189e-09	-1.951455e+01	-2.354208e+02
2.770000e-06	-2.824107e-06	-3.738822e-09	-2.013991e+01	-2.461486e+02
2.780000e-06	-2.910869e-06	-3.894448e-09	-2.075865e+01	-2.564889e+02
2.790000e-06	-2.996534e-06	-4.043680e-09	-2.136956e+01	-2.664493e+02
2.800000e-06	-3.080980e-06	-4.187157e-09	-2.197178e+01	-2.760386e+02
2.810000e-06	-3.164355e-06	-4.328144e-09	-2.256636e+01	-2.852654e+02
2.820000e-06	-3.246719e-06	-4.466762e-09	-2.315373e+01	-2.941372e+02
2.830000e-06	-3.328000e-06	-4.600779e-09	-2.373339e+01	-3.026602e+02
2.840000e-06	-3.408167e-06	-4.729392e-09	-2.430509e+01	-3.108392e+02
2.850000e-06	-3.487126e-06	-4.850841e-09	-2.486818e+01	-3.186786e+02
2.860000e-06	-3.564624e-06	-4.965969e-09	-2.542085e+01	-3.261831e+02
2.870000e-06	-3.640573e-06	-5.074508e-09	-2.596248e+01	-3.333589e+02
2.880000e-06	-3.715142e-06	-5.178331e-09	-2.649426e+01	-3.402147e+02
2.890000e-06	-3.788387e-06	-5.278606e-09	-2.701660e+01	-3.467621e+02
2.900000e-06	-3.860313e-06	-5.375865e-09	-2.752954e+01	-3.530158e+02
2.910000e-06	-3.930814e-06	-5.470177e-09	-2.803231e+01	-3.589937e+02
2.920000e-06	-3.999735e-06	-5.559477e-09	-2.852382e+01	-3.647154e+02
2.930000e-06	-4.067226e-06	-5.643122e-09	-2.900512e+01	-3.702016e+02
2.940000e-06	-4.133391e-06	-5.723286e-09	-2.947697e+01	-3.754723e+02
