# Temperatura_=_49.58
# Concentracion g/m^3_=_15000.0
# C_Vs_to_Am_M_A/Vsm_=_65563218390.804596
# pendiente_HvsI_1/m_=_3716.3
# ordenada_HvsI_A/m_=_1297.0
# frecuencia_Hz_=_301571.79909068556

Tiempo_(s)	Campo_(V.s)	Magnetizacion_(V.s)	Campo_(kA/m)	Magnetizacion_(A/m)
0.000000e+00	-5.390641e-06	-5.312562e-09	-3.834084e+01	-3.460317e+02
1.000000e-08	-5.387713e-06	-5.310461e-09	-3.832001e+01	-3.459055e+02
2.000000e-08	-5.383066e-06	-5.305685e-09	-3.828696e+01	-3.457068e+02
3.000000e-08	-5.376830e-06	-5.298188e-09	-3.824261e+01	-3.454308e+02
4.000000e-08	-5.369018e-06	-5.290005e-09	-3.818704e+01	-3.450731e+02
5.000000e-08	-5.359284e-06	-5.281155e-09	-3.811781e+01	-3.446306e+02
6.000000e-08	-5.347470e-06	-5.273406e-09	-3.803379e+01	-3.441026e+02
7.000000e-08	-5.333776e-06	-5.266963e-09	-3.793638e+01	-3.434907e+02
8.000000e-08	-5.317943e-06	-5.260683e-09	-3.782377e+01	-3.427996e+02
9.000000e-08	-5.299894e-06	-5.264656e-09	-3.769540e+01	-3.420362e+02
1.000000e-07	-5.279878e-06	-5.262430e-09	-3.755303e+01	-3.412094e+02
1.100000e-07	-5.257988e-06	-5.236711e-09	-3.739735e+01	-3.403285e+02
1.200000e-07	-5.234390e-06	-5.208238e-09	-3.722950e+01	-3.394024e+02
1.300000e-07	-5.209201e-06	-5.171582e-09	-3.705035e+01	-3.384383e+02
1.400000e-07	-5.182398e-06	-5.149719e-09	-3.685971e+01	-3.374405e+02
1.500000e-07	-5.154015e-06	-5.173248e-09	-3.665784e+01	-3.364098e+02
1.600000e-07	-5.124227e-06	-5.146801e-09	-3.644597e+01	-3.353427e+02
1.700000e-07	-5.092803e-06	-5.100863e-09	-3.622247e+01	-3.342321e+02
1.800000e-07	-5.059220e-06	-5.098393e-09	-3.598361e+01	-3.330675e+02
1.900000e-07	-5.023834e-06	-5.074106e-09	-3.573193e+01	-3.318363e+02
2.000000e-07	-4.986962e-06	-5.076876e-09	-3.546967e+01	-3.305248e+02
2.100000e-07	-4.948315e-06	-5.078391e-09	-3.519480e+01	-3.291200e+02
2.200000e-07	-4.907846e-06	-5.018280e-09	-3.490696e+01	-3.276107e+02
2.300000e-07	-4.865389e-06	-4.974613e-09	-3.460499e+01	-3.259892e+02
2.400000e-07	-4.821024e-06	-4.945327e-09	-3.428945e+01	-3.242514e+02
2.500000e-07	-4.774901e-06	-4.912038e-09	-3.396140e+01	-3.223979e+02
2.600000e-07	-4.726827e-06	-4.899443e-09	-3.361947e+01	-3.204333e+02
2.700000e-07	-4.676683e-06	-4.862151e-09	-3.326282e+01	-3.183657e+02
2.800000e-07	-4.624479e-06	-4.813929e-09	-3.289152e+01	-3.162057e+02
2.900000e-07	-4.570458e-06	-4.790099e-09	-3.250730e+01	-3.139648e+02
3.000000e-07	-4.514868e-06	-4.770822e-09	-3.211191e+01	-3.116543e+02
3.100000e-07	-4.457538e-06	-4.736769e-09	-3.170416e+01	-3.092838e+02
3.200000e-07	-4.398409e-06	-4.684962e-09	-3.128360e+01	-3.068602e+02
3.300000e-07	-4.337757e-06	-4.631590e-09	-3.085222e+01	-3.043869e+02
3.400000e-07	-4.275667e-06	-4.586385e-09	-3.041060e+01	-3.018640e+02
3.500000e-07	-4.212190e-06	-4.563297e-09	-2.995912e+01	-2.992881e+02
3.600000e-07	-4.147173e-06	-4.539715e-09	-2.949669e+01	-2.966531e+02
3.700000e-07	-4.080458e-06	-4.492248e-09	-2.902218e+01	-2.939516e+02
3.800000e-07	-4.012228e-06	-4.436373e-09	-2.853690e+01	-2.911754e+02
3.900000e-07	-3.942629e-06	-4.383600e-09	-2.804188e+01	-2.883171e+02
4.000000e-07	-3.871759e-06	-4.347602e-09	-2.753781e+01	-2.853711e+02
4.100000e-07	-3.799676e-06	-4.315501e-09	-2.702513e+01	-2.823338e+02
4.200000e-07	-3.726149e-06	-4.261875e-09	-2.650217e+01	-2.792045e+02
4.300000e-07	-3.650940e-06	-4.199746e-09	-2.596724e+01	-2.759849e+02
4.400000e-07	-3.574227e-06	-4.141237e-09	-2.542162e+01	-2.726788e+02
4.500000e-07	-3.496176e-06	-4.088302e-09	-2.486649e+01	-2.692914e+02
4.600000e-07	-3.416754e-06	-4.041694e-09	-2.430160e+01	-2.658280e+02
4.700000e-07	-3.336029e-06	-3.991369e-09	-2.372745e+01	-2.622935e+02
4.800000e-07	-3.254062e-06	-3.936028e-09	-2.314446e+01	-2.586914e+02
4.900000e-07	-3.170940e-06	-3.881318e-09	-2.255325e+01	-2.550233e+02
5.000000e-07	-3.086864e-06	-3.827602e-09	-2.195526e+01	-2.512882e+02
5.100000e-07	-3.001884e-06	-3.773197e-09	-2.135085e+01	-2.474832e+02
5.200000e-07	-2.915925e-06	-3.710832e-09	-2.073946e+01	-2.436032e+02
5.300000e-07	-2.828938e-06	-3.636455e-09	-2.012077e+01	-2.396423e+02
5.400000e-07	-2.740989e-06	-3.561925e-09	-1.949524e+01	-2.355938e+02
5.500000e-07	-2.652069e-06	-3.497791e-09	-1.886279e+01	-2.314517e+02
5.600000e-07	-2.562015e-06	-3.443623e-09	-1.822228e+01	-2.272109e+02
5.700000e-07	-2.470868e-06	-3.387837e-09	-1.757401e+01	-2.228682e+02
5.800000e-07	-2.378894e-06	-3.317202e-09	-1.691984e+01	-2.184223e+02
5.900000e-07	-2.286173e-06	-3.237986e-09	-1.626036e+01	-2.138737e+02
6.000000e-07	-2.192603e-06	-3.162990e-09	-1.559485e+01	-2.092247e+02
6.100000e-07	-2.098244e-06	-3.093959e-09	-1.492372e+01	-2.044785e+02
6.200000e-07	-2.003235e-06	-3.023497e-09	-1.424798e+01	-1.996386e+02
6.300000e-07	-1.907564e-06	-2.946842e-09	-1.356752e+01	-1.947082e+02
6.400000e-07	-1.811136e-06	-2.866779e-09	-1.288167e+01	-1.896893e+02
6.500000e-07	-1.713902e-06	-2.788680e-09	-1.219010e+01	-1.845823e+02
6.600000e-07	-1.615880e-06	-2.711960e-09	-1.149292e+01	-1.793860e+02
6.700000e-07	-1.517202e-06	-2.633936e-09	-1.079107e+01	-1.740972e+02
6.800000e-07	-1.417988e-06	-2.552654e-09	-1.008542e+01	-1.687112e+02
6.900000e-07	-1.318299e-06	-2.463552e-09	-9.376374e+00	-1.632225e+02
7.000000e-07	-1.218264e-06	-2.373374e-09	-8.664879e+00	-1.576251e+02
7.100000e-07	-1.117964e-06	-2.288272e-09	-7.951499e+00	-1.519133e+02
7.200000e-07	-1.017361e-06	-2.202540e-09	-7.235958e+00	-1.460822e+02
7.300000e-07	-9.163918e-07	-2.109927e-09	-6.517820e+00	-1.401284e+02
7.400000e-07	-8.150362e-07	-2.013026e-09	-5.796930e+00	-1.340499e+02
7.500000e-07	-7.133713e-07	-1.917402e-09	-5.073840e+00	-1.278461e+02
7.600000e-07	-6.114588e-07	-1.822626e-09	-4.348990e+00	-1.215175e+02
7.700000e-07	-5.093445e-07	-1.726715e-09	-3.622704e+00	-1.150652e+02
7.800000e-07	-4.070919e-07	-1.629083e-09	-2.895434e+00	-1.084901e+02
7.900000e-07	-3.046937e-07	-1.527265e-09	-2.167128e+00	-1.017923e+02
8.000000e-07	-2.021656e-07	-1.420220e-09	-1.437899e+00	-9.497018e+01
8.100000e-07	-9.955723e-08	-1.313215e-09	-7.080990e-01	-8.802023e+01
8.200000e-07	3.042199e-09	-1.208622e-09	2.163759e-02	-8.093641e+01
8.300000e-07	1.056529e-07	-1.101465e-09	7.514546e-01	-7.371027e+01
8.400000e-07	2.082743e-07	-9.879996e-10	1.481347e+00	-6.633119e+01
8.500000e-07	3.108022e-07	-8.704281e-10	2.210575e+00	-5.878692e+01
8.600000e-07	4.132559e-07	-7.520683e-10	2.939275e+00	-5.106433e+01
8.700000e-07	5.156349e-07	-6.327847e-10	3.667444e+00	-4.315032e+01
8.800000e-07	6.178691e-07	-5.108451e-10	4.394583e+00	-3.503292e+01
8.900000e-07	7.199116e-07	-3.851436e-10	5.120358e+00	-2.670219e+01
9.000000e-07	8.217320e-07	-2.548570e-10	5.844554e+00	-1.815126e+01
9.100000e-07	9.232196e-07	-1.212458e-10	6.566383e+00	-9.377061e+00
9.200000e-07	1.024313e-06	1.487659e-11	7.285408e+00	-3.809918e-01
9.300000e-07	1.125096e-06	1.539671e-10	8.002227e+00	8.830690e+00
9.400000e-07	1.225551e-06	2.976747e-10	8.716711e+00	1.824665e+01
9.500000e-07	1.325626e-06	4.473851e-10	9.428489e+00	2.785050e+01
9.600000e-07	1.425281e-06	5.995719e-10	1.013729e+01	3.762095e+01
9.700000e-07	1.524408e-06	7.518649e-10	1.084232e+01	4.753217e+01
9.800000e-07	1.622869e-06	9.047043e-10	1.154263e+01	5.755428e+01
9.900000e-07	1.720534e-06	1.059498e-09	1.223727e+01	6.765394e+01
1.000000e-06	1.817381e-06	1.218079e-09	1.292609e+01	7.779506e+01
1.010000e-06	1.913539e-06	1.376598e-09	1.361001e+01	8.793959e+01
1.020000e-06	2.008986e-06	1.532708e-09	1.428888e+01	9.804835e+01
1.030000e-06	2.103648e-06	1.686855e-09	1.496216e+01	1.080820e+02
1.040000e-06	2.197572e-06	1.838673e-09	1.563019e+01	1.180018e+02
1.050000e-06	2.290746e-06	1.987318e-09	1.629289e+01	1.277708e+02
1.060000e-06	2.383221e-06	2.132425e-09	1.695062e+01	1.373547e+02
1.070000e-06	2.475053e-06	2.274447e-09	1.760377e+01	1.467224e+02
1.080000e-06	2.566108e-06	2.412669e-09	1.825140e+01	1.558471e+02
1.090000e-06	2.656027e-06	2.548029e-09	1.889094e+01	1.647065e+02
1.100000e-06	2.744719e-06	2.680079e-09	1.952176e+01	1.732834e+02
1.110000e-06	2.832361e-06	2.806359e-09	2.014511e+01	1.815656e+02
1.120000e-06	2.919113e-06	2.926632e-09	2.076214e+01	1.895462e+02
1.130000e-06	3.005005e-06	3.043171e-09	2.137305e+01	1.972227e+02
1.140000e-06	3.089872e-06	3.157672e-09	2.197666e+01	2.045971e+02
1.150000e-06	3.173781e-06	3.267003e-09	2.257346e+01	2.116750e+02
1.160000e-06	3.256812e-06	3.369452e-09	2.316402e+01	2.184649e+02
1.170000e-06	3.338616e-06	3.467502e-09	2.374585e+01	2.249774e+02
1.180000e-06	3.419042e-06	3.561978e-09	2.431787e+01	2.312250e+02
1.190000e-06	3.498265e-06	3.653392e-09	2.488135e+01	2.372206e+02
1.200000e-06	3.576309e-06	3.742189e-09	2.543643e+01	2.429777e+02
1.210000e-06	3.653138e-06	3.828062e-09	2.598288e+01	2.485096e+02
1.220000e-06	3.728637e-06	3.910837e-09	2.651987e+01	2.538290e+02
1.230000e-06	3.802550e-06	3.988174e-09	2.704557e+01	2.589481e+02
1.240000e-06	3.874849e-06	4.061898e-09	2.755979e+01	2.638779e+02
1.250000e-06	3.945725e-06	4.134701e-09	2.806390e+01	2.686282e+02
1.260000e-06	4.015219e-06	4.205957e-09	2.855817e+01	2.732079e+02
1.270000e-06	4.083422e-06	4.274951e-09	2.904326e+01	2.776241e+02
1.280000e-06	4.150188e-06	4.339504e-09	2.951813e+01	2.818827e+02
1.290000e-06	4.215213e-06	4.399589e-09	2.998062e+01	2.859878e+02
1.300000e-06	4.278640e-06	4.456857e-09	3.043175e+01	2.899421e+02
1.310000e-06	4.340637e-06	4.512335e-09	3.087270e+01	2.937465e+02
1.320000e-06	4.401279e-06	4.565540e-09	3.130402e+01	2.974009e+02
1.330000e-06	4.460506e-06	4.616833e-09	3.172526e+01	3.009040e+02
1.340000e-06	4.517959e-06	4.667047e-09	3.213390e+01	3.042538e+02
1.350000e-06	4.573617e-06	4.715711e-09	3.252977e+01	3.074481e+02
1.360000e-06	4.627663e-06	4.760963e-09	3.291417e+01	3.104854e+02
1.370000e-06	4.680011e-06	4.802397e-09	3.328649e+01	3.133648e+02
1.380000e-06	4.730418e-06	4.840807e-09	3.364501e+01	3.160869e+02
1.390000e-06	4.778835e-06	4.876871e-09	3.398938e+01	3.186544e+02
1.400000e-06	4.825511e-06	4.911611e-09	3.432136e+01	3.210714e+02
1.410000e-06	4.870592e-06	4.944001e-09	3.464200e+01	3.233442e+02
1.420000e-06	4.914067e-06	4.973787e-09	3.495121e+01	3.254806e+02
1.430000e-06	4.955686e-06	5.000970e-09	3.524722e+01	3.274894e+02
1.440000e-06	4.995426e-06	5.026804e-09	3.552988e+01	3.293798e+02
1.450000e-06	5.033543e-06	5.053154e-09	3.580098e+01	3.311606e+02
1.460000e-06	5.070084e-06	5.078713e-09	3.606088e+01	3.328398e+02
1.470000e-06	5.104862e-06	5.103659e-09	3.630824e+01	3.344234e+02
1.480000e-06	5.137732e-06	5.127797e-09	3.654203e+01	3.359155e+02
1.490000e-06	5.168757e-06	5.148316e-09	3.676269e+01	3.373180e+02
1.500000e-06	5.198003e-06	5.165231e-09	3.697070e+01	3.386306e+02
1.510000e-06	5.225582e-06	5.180697e-09	3.716686e+01	3.398511e+02
1.520000e-06	5.251215e-06	5.194334e-09	3.734917e+01	3.409766e+02
1.530000e-06	5.274736e-06	5.206755e-09	3.751647e+01	3.420034e+02
1.540000e-06	5.296425e-06	5.219660e-09	3.767072e+01	3.429287e+02
1.550000e-06	5.316404e-06	5.234012e-09	3.781283e+01	3.437504e+02
1.560000e-06	5.334546e-06	5.249171e-09	3.794186e+01	3.444687e+02
1.570000e-06	5.350646e-06	5.262375e-09	3.805637e+01	3.450852e+02
1.580000e-06	5.364773e-06	5.273318e-09	3.815685e+01	3.456039e+02
1.590000e-06	5.376923e-06	5.281052e-09	3.824327e+01	3.460303e+02
1.600000e-06	5.386865e-06	5.285269e-09	3.831398e+01	3.463710e+02
1.610000e-06	5.394670e-06	5.286253e-09	3.836949e+01	3.466329e+02
1.620000e-06	5.400609e-06	5.286891e-09	3.841174e+01	3.468221e+02
1.630000e-06	5.404825e-06	5.289270e-09	3.844172e+01	3.469436e+02
1.640000e-06	5.407137e-06	5.292446e-09	3.845816e+01	3.470004e+02
1.650000e-06	5.407395e-06	5.296203e-09	3.846000e+01	3.469932e+02
1.660000e-06	5.405818e-06	5.297346e-09	3.844879e+01	3.469205e+02
1.670000e-06	5.402590e-06	5.295952e-09	3.842582e+01	3.467789e+02
1.680000e-06	5.397659e-06	5.293620e-09	3.839075e+01	3.465639e+02
1.690000e-06	5.390828e-06	5.290010e-09	3.834216e+01	3.462706e+02
1.700000e-06	5.382178e-06	5.284040e-09	3.828064e+01	3.458947e+02
1.710000e-06	5.371921e-06	5.275498e-09	3.820769e+01	3.454337e+02
1.720000e-06	5.359998e-06	5.264764e-09	3.812289e+01	3.448872e+02
1.730000e-06	5.346188e-06	5.257353e-09	3.802467e+01	3.442577e+02
1.740000e-06	5.330264e-06	5.234259e-09	3.791141e+01	3.435503e+02
1.750000e-06	5.311910e-06	5.215816e-09	3.778087e+01	3.427724e+02
1.760000e-06	5.290872e-06	5.218803e-09	3.763123e+01	3.419330e+02
1.770000e-06	5.267605e-06	5.218339e-09	3.746575e+01	3.410415e+02
1.780000e-06	5.243170e-06	5.236647e-09	3.729195e+01	3.401065e+02
1.790000e-06	5.218010e-06	5.211259e-09	3.711300e+01	3.391348e+02
1.800000e-06	5.191330e-06	5.140587e-09	3.692324e+01	3.381298e+02
1.810000e-06	5.162410e-06	5.143323e-09	3.671755e+01	3.370915e+02
1.820000e-06	5.131661e-06	5.130906e-09	3.649885e+01	3.360156e+02
1.830000e-06	5.099205e-06	5.079093e-09	3.626800e+01	3.348943e+02
1.840000e-06	5.064845e-06	5.071896e-09	3.602362e+01	3.337164e+02
1.850000e-06	5.028908e-06	5.030215e-09	3.576802e+01	3.324689e+02
1.860000e-06	4.991178e-06	4.998265e-09	3.549966e+01	3.311383e+02
1.870000e-06	4.951567e-06	5.003695e-09	3.521793e+01	3.297118e+02
1.880000e-06	4.910267e-06	4.977327e-09	3.492418e+01	3.281788e+02
1.890000e-06	4.867136e-06	4.976985e-09	3.461742e+01	3.265323e+02
1.900000e-06	4.822370e-06	4.933847e-09	3.429902e+01	3.247694e+02
1.910000e-06	4.775761e-06	4.860526e-09	3.396751e+01	3.228913e+02
1.920000e-06	4.727186e-06	4.855253e-09	3.362202e+01	3.209037e+02
1.930000e-06	4.676998e-06	4.827554e-09	3.326507e+01	3.188152e+02
1.940000e-06	4.624965e-06	4.801114e-09	3.289498e+01	3.166366e+02
1.950000e-06	4.570867e-06	4.774295e-09	3.251021e+01	3.143797e+02
1.960000e-06	4.514867e-06	4.723517e-09	3.211191e+01	3.120555e+02
1.970000e-06	4.457194e-06	4.696257e-09	3.170171e+01	3.096729e+02
1.980000e-06	4.398084e-06	4.668247e-09	3.128129e+01	3.072383e+02
1.990000e-06	4.337471e-06	4.642021e-09	3.085019e+01	3.047544e+02
2.000000e-06	4.275179e-06	4.585443e-09	3.040714e+01	3.022203e+02
2.010000e-06	4.211283e-06	4.520100e-09	2.995267e+01	2.996321e+02
2.020000e-06	4.145893e-06	4.488384e-09	2.948759e+01	2.969834e+02
2.030000e-06	4.079028e-06	4.458616e-09	2.901201e+01	2.942663e+02
2.040000e-06	4.010737e-06	4.438899e-09	2.852630e+01	2.914729e+02
2.050000e-06	3.941035e-06	4.388858e-09	2.803054e+01	2.885961e+02
2.060000e-06	3.869790e-06	4.327675e-09	2.752381e+01	2.856305e+02
2.070000e-06	3.797080e-06	4.283362e-09	2.700666e+01	2.825733e+02
2.080000e-06	3.723049e-06	4.231594e-09	2.648012e+01	2.794242e+02
2.090000e-06	3.647669e-06	4.198394e-09	2.594398e+01	2.761856e+02
2.100000e-06	3.570860e-06	4.153609e-09	2.539768e+01	2.728614e+02
2.110000e-06	3.492513e-06	4.091647e-09	2.484044e+01	2.694570e+02
2.120000e-06	3.412816e-06	4.030587e-09	2.427359e+01	2.659778e+02
2.130000e-06	3.331978e-06	3.972406e-09	2.369863e+01	2.624284e+02
2.140000e-06	3.250001e-06	3.926371e-09	2.311557e+01	2.588120e+02
2.150000e-06	3.166962e-06	3.878732e-09	2.252496e+01	2.551295e+02
2.160000e-06	3.082908e-06	3.821172e-09	2.192713e+01	2.513795e+02
2.170000e-06	2.997745e-06	3.758921e-09	2.132141e+01	2.475587e+02
2.180000e-06	2.911299e-06	3.702610e-09	2.070656e+01	2.436618e+02
2.190000e-06	2.823614e-06	3.649056e-09	2.008290e+01	2.396825e+02
2.200000e-06	2.734938e-06	3.591054e-09	1.945220e+01	2.356142e+02
2.210000e-06	2.645370e-06	3.519694e-09	1.881515e+01	2.314511e+02
2.220000e-06	2.554874e-06	3.441569e-09	1.817150e+01	2.271885e+02
2.230000e-06	2.463527e-06	3.376314e-09	1.752179e+01	2.228236e+02
2.240000e-06	2.371400e-06	3.319074e-09	1.686654e+01	2.183553e+02
2.250000e-06	2.278474e-06	3.261072e-09	1.620561e+01	2.137848e+02
2.260000e-06	2.184710e-06	3.193813e-09	1.553871e+01	2.091145e+02
2.270000e-06	2.089944e-06	3.114770e-09	1.486469e+01	2.043478e+02
2.280000e-06	1.994219e-06	3.033427e-09	1.418384e+01	1.994881e+02
2.290000e-06	1.897798e-06	2.956162e-09	1.349805e+01	1.945384e+02
2.300000e-06	1.800848e-06	2.885570e-09	1.280850e+01	1.895004e+02
2.310000e-06	1.703360e-06	2.815066e-09	1.211512e+01	1.843743e+02
2.320000e-06	1.605306e-06	2.731992e-09	1.141771e+01	1.791583e+02
2.330000e-06	1.506732e-06	2.641493e-09	1.071660e+01	1.738489e+02
2.340000e-06	1.407684e-06	2.559823e-09	1.001213e+01	1.684412e+02
2.350000e-06	1.308177e-06	2.484099e-09	9.304386e+00	1.629296e+02
2.360000e-06	1.208349e-06	2.404324e-09	8.594362e+00	1.573079e+02
2.370000e-06	1.108322e-06	2.316571e-09	7.882920e+00	1.515707e+02
2.380000e-06	1.007915e-06	2.223111e-09	7.168779e+00	1.457134e+02
2.390000e-06	9.070754e-07	2.131664e-09	6.451558e+00	1.397328e+02
2.400000e-06	8.058332e-07	2.039379e-09	5.731474e+00	1.336273e+02
2.410000e-06	7.042442e-07	1.943667e-09	5.008924e+00	1.273965e+02
2.420000e-06	6.024315e-07	1.844779e-09	4.284783e+00	1.210411e+02
2.430000e-06	5.004025e-07	1.740428e-09	3.559104e+00	1.145622e+02
2.440000e-06	3.981294e-07	1.639628e-09	2.831688e+00	1.079607e+02
2.450000e-06	2.956044e-07	1.546220e-09	2.102481e+00	1.012362e+02
2.460000e-06	1.929721e-07	1.449412e-09	1.372511e+00	9.438691e+01
2.470000e-06	9.029916e-08	1.341635e-09	6.422512e-01	8.740868e+01
2.480000e-06	-1.246673e-08	1.224278e-09	-8.866937e-02	8.029496e+01
2.490000e-06	-1.153296e-07	1.104633e-09	-8.202797e-01	7.303683e+01
2.500000e-06	-2.181811e-07	9.900668e-10	-1.551809e+00	6.562324e+01
2.510000e-06	-3.208884e-07	8.784841e-10	-2.282313e+00	5.804169e+01
2.520000e-06	-4.234428e-07	7.631816e-10	-3.011729e+00	5.027897e+01
2.530000e-06	-5.258272e-07	6.411085e-10	-3.739936e+00	4.232215e+01
2.540000e-06	-6.280080e-07	5.141852e-10	-4.466695e+00	3.415960e+01
2.550000e-06	-7.298746e-07	3.872792e-10	-5.191220e+00	2.578196e+01
2.560000e-06	-8.313814e-07	2.589251e-10	-5.913185e+00	1.718311e+01
2.570000e-06	-9.324725e-07	1.239801e-10	-6.632194e+00	8.360903e+00
2.580000e-06	-1.033091e-06	-1.666236e-11	-7.347840e+00	-6.822537e-01
2.590000e-06	-1.133371e-06	-1.603555e-10	-8.061081e+00	-9.939024e+00
2.600000e-06	-1.233295e-06	-3.049815e-10	-8.771787e+00	-1.939699e+01
2.610000e-06	-1.332766e-06	-4.499268e-10	-9.479275e+00	-2.903867e+01
2.620000e-06	-1.431798e-06	-5.978789e-10	-1.018363e+01	-3.884179e+01
2.630000e-06	-1.530399e-06	-7.479378e-10	-1.088493e+01	-4.877960e+01
2.640000e-06	-1.628453e-06	-8.985793e-10	-1.158234e+01	-5.882143e+01
2.650000e-06	-1.725849e-06	-1.050214e-09	-1.227507e+01	-6.893328e+01
2.660000e-06	-1.822684e-06	-1.202698e-09	-1.296381e+01	-7.907857e+01
2.670000e-06	-1.919030e-06	-1.355768e-09	-1.364907e+01	-8.921894e+01
2.680000e-06	-2.014826e-06	-1.508422e-09	-1.433041e+01	-9.931508e+01
2.690000e-06	-2.109905e-06	-1.660415e-09	-1.500666e+01	-1.093277e+02
2.700000e-06	-2.204045e-06	-1.812091e-09	-1.567623e+01	-1.192184e+02
2.710000e-06	-2.297160e-06	-1.963009e-09	-1.633851e+01	-1.289508e+02
2.720000e-06	-2.389345e-06	-2.110000e-09	-1.699417e+01	-1.384910e+02
2.730000e-06	-2.480686e-06	-2.251797e-09	-1.764383e+01	-1.478090e+02
2.740000e-06	-2.571153e-06	-2.390023e-09	-1.828728e+01	-1.568787e+02
2.750000e-06	-2.660694e-06	-2.524584e-09	-1.892414e+01	-1.656790e+02
2.760000e-06	-2.749321e-06	-2.654191e-09	-1.955450e+01	-1.741938e+02
2.770000e-06	-2.837192e-06	-2.777421e-09	-2.017948e+01	-1.824120e+02
2.780000e-06	-2.924223e-06	-2.895745e-09	-2.079849e+01	-1.903276e+02
2.790000e-06	-3.010002e-06	-3.012637e-09	-2.140858e+01	-1.979393e+02
2.800000e-06	-3.094528e-06	-3.128639e-09	-2.200977e+01	-2.052498e+02
2.810000e-06	-3.178025e-06	-3.240986e-09	-2.260365e+01	-2.122653e+02
2.820000e-06	-3.260498e-06	-3.344226e-09	-2.319023e+01	-2.189950e+02
2.830000e-06	-3.341886e-06	-3.440346e-09	-2.376910e+01	-2.254499e+02
2.840000e-06	-3.422226e-06	-3.533028e-09	-2.434052e+01	-2.316425e+02
2.850000e-06	-3.501378e-06	-3.622238e-09	-2.490349e+01	-2.375861e+02
2.860000e-06	-3.579031e-06	-3.707453e-09	-2.545579e+01	-2.432940e+02
2.870000e-06	-3.655190e-06	-3.790003e-09	-2.599748e+01	-2.487795e+02
2.880000e-06	-3.729903e-06	-3.869997e-09	-2.652886e+01	-2.540552e+02
2.890000e-06	-3.803227e-06	-3.947337e-09	-2.705038e+01	-2.591330e+02
2.900000e-06	-3.875298e-06	-4.023342e-09	-2.756298e+01	-2.640237e+02
2.910000e-06	-3.945970e-06	-4.096946e-09	-2.806564e+01	-2.687370e+02
2.920000e-06	-4.015040e-06	-4.168032e-09	-2.855690e+01	-2.732813e+02
2.930000e-06	-4.082622e-06	-4.236350e-09	-2.903757e+01	-2.776635e+02
2.940000e-06	-4.148862e-06	-4.301216e-09	-2.950870e+01	-2.818890e+02
