# Temperatura_=_75.62
# Concentracion g/m^3_=_15000.0
# C_Vs_to_Am_M_A/Vsm_=_65563218390.804596
# pendiente_HvsI_1/m_=_3716.3
# ordenada_HvsI_A/m_=_1297.0
# frecuencia_Hz_=_301575.1712454073

Tiempo_(s)	Campo_(V.s)	Magnetizacion_(V.s)	Campo_(kA/m)	Magnetizacion_(A/m)
0.000000e+00	-5.377594e-06	-6.659040e-09	-3.834242e+01	-4.349766e+02
1.000000e-08	-5.374934e-06	-6.661903e-09	-3.832345e+01	-4.347929e+02
2.000000e-08	-5.370478e-06	-6.655788e-09	-3.829168e+01	-4.345100e+02
3.000000e-08	-5.364411e-06	-6.647670e-09	-3.824842e+01	-4.341243e+02
4.000000e-08	-5.356761e-06	-6.637141e-09	-3.819388e+01	-4.336338e+02
5.000000e-08	-5.347264e-06	-6.623377e-09	-3.812617e+01	-4.330388e+02
6.000000e-08	-5.335719e-06	-6.610070e-09	-3.804385e+01	-4.323429e+02
7.000000e-08	-5.322323e-06	-6.586915e-09	-3.794834e+01	-4.315523e+02
8.000000e-08	-5.306819e-06	-6.569511e-09	-3.783779e+01	-4.306759e+02
9.000000e-08	-5.289045e-06	-6.641094e-09	-3.771106e+01	-4.297244e+02
1.000000e-07	-5.269299e-06	-6.647513e-09	-3.757027e+01	-4.287087e+02
1.100000e-07	-5.247657e-06	-6.580544e-09	-3.741596e+01	-4.276391e+02
1.200000e-07	-5.224279e-06	-6.567754e-09	-3.724928e+01	-4.265238e+02
1.300000e-07	-5.199361e-06	-6.427801e-09	-3.707162e+01	-4.253676e+02
1.400000e-07	-5.172780e-06	-6.394290e-09	-3.688209e+01	-4.241712e+02
1.500000e-07	-5.144566e-06	-6.601912e-09	-3.668092e+01	-4.229308e+02
1.600000e-07	-5.114931e-06	-6.418522e-09	-3.646962e+01	-4.216385e+02
1.700000e-07	-5.083758e-06	-6.390731e-09	-3.624736e+01	-4.202825e+02
1.800000e-07	-5.050420e-06	-6.511699e-09	-3.600966e+01	-4.188485e+02
1.900000e-07	-5.015143e-06	-6.253943e-09	-3.575813e+01	-4.173210e+02
2.000000e-07	-4.978467e-06	-6.351495e-09	-3.549663e+01	-4.156847e+02
2.100000e-07	-4.940074e-06	-6.445766e-09	-3.522289e+01	-4.139263e+02
2.200000e-07	-4.899871e-06	-6.252846e-09	-3.493624e+01	-4.120354e+02
2.300000e-07	-4.857674e-06	-6.277465e-09	-3.463538e+01	-4.100053e+02
2.400000e-07	-4.813528e-06	-6.235425e-09	-3.432061e+01	-4.078340e+02
2.500000e-07	-4.767698e-06	-6.141695e-09	-3.399384e+01	-4.055236e+02
2.600000e-07	-4.720016e-06	-6.188600e-09	-3.365387e+01	-4.030801e+02
2.700000e-07	-4.670286e-06	-6.099457e-09	-3.329929e+01	-4.005122e+02
2.800000e-07	-4.618412e-06	-6.060650e-09	-3.292943e+01	-3.978305e+02
2.900000e-07	-4.564587e-06	-6.030839e-09	-3.254565e+01	-3.950460e+02
3.000000e-07	-4.509221e-06	-5.973439e-09	-3.215089e+01	-3.921690e+02
3.100000e-07	-4.452218e-06	-5.949148e-09	-3.174446e+01	-3.892079e+02
3.200000e-07	-4.393339e-06	-5.918462e-09	-3.132465e+01	-3.861685e+02
3.300000e-07	-4.332846e-06	-5.867738e-09	-3.089333e+01	-3.830540e+02
3.400000e-07	-4.270952e-06	-5.750070e-09	-3.045203e+01	-3.798645e+02
3.500000e-07	-4.207795e-06	-5.738811e-09	-3.000172e+01	-3.765976e+02
3.600000e-07	-4.143161e-06	-5.728136e-09	-2.954087e+01	-3.732489e+02
3.700000e-07	-4.076696e-06	-5.646465e-09	-2.906697e+01	-3.698131e+02
3.800000e-07	-4.008695e-06	-5.600693e-09	-2.858213e+01	-3.662845e+02
3.900000e-07	-3.939433e-06	-5.528652e-09	-2.808829e+01	-3.626580e+02
4.000000e-07	-3.868885e-06	-5.465831e-09	-2.758528e+01	-3.589293e+02
4.100000e-07	-3.797171e-06	-5.411245e-09	-2.707395e+01	-3.550961e+02
4.200000e-07	-3.724103e-06	-5.359612e-09	-2.655297e+01	-3.511575e+02
4.300000e-07	-3.649354e-06	-5.315547e-09	-2.602001e+01	-3.471141e+02
4.400000e-07	-3.573021e-06	-5.233616e-09	-2.547575e+01	-3.429680e+02
4.500000e-07	-3.495293e-06	-5.154548e-09	-2.492155e+01	-3.387218e+02
4.600000e-07	-3.416124e-06	-5.094174e-09	-2.435707e+01	-3.343784e+02
4.700000e-07	-3.335619e-06	-5.043761e-09	-2.378307e+01	-3.299403e+02
4.800000e-07	-3.253964e-06	-4.972086e-09	-2.320087e+01	-3.254093e+02
4.900000e-07	-3.171158e-06	-4.886104e-09	-2.261046e+01	-3.207858e+02
5.000000e-07	-3.087345e-06	-4.821975e-09	-2.201287e+01	-3.160690e+02
5.100000e-07	-3.002655e-06	-4.748209e-09	-2.140903e+01	-3.112566e+02
5.200000e-07	-2.917005e-06	-4.676791e-09	-2.079834e+01	-3.063453e+02
5.300000e-07	-2.830347e-06	-4.599020e-09	-2.018046e+01	-3.013306e+02
5.400000e-07	-2.742794e-06	-4.509549e-09	-1.955621e+01	-2.962077e+02
5.500000e-07	-2.654272e-06	-4.422511e-09	-1.892505e+01	-2.909716e+02
5.600000e-07	-2.564523e-06	-4.337795e-09	-1.828513e+01	-2.856177e+02
5.700000e-07	-2.473644e-06	-4.266133e-09	-1.763716e+01	-2.801420e+02
5.800000e-07	-2.381903e-06	-4.183804e-09	-1.698305e+01	-2.745416e+02
5.900000e-07	-2.289446e-06	-4.093077e-09	-1.632383e+01	-2.688146e+02
6.000000e-07	-2.196240e-06	-3.996979e-09	-1.565927e+01	-2.629606e+02
6.100000e-07	-2.102213e-06	-3.904460e-09	-1.498885e+01	-2.569802e+02
6.200000e-07	-2.007470e-06	-3.815091e-09	-1.431332e+01	-2.508749e+02
6.300000e-07	-1.912077e-06	-3.721089e-09	-1.363317e+01	-2.446472e+02
6.400000e-07	-1.816055e-06	-3.623505e-09	-1.294853e+01	-2.382999e+02
6.500000e-07	-1.719271e-06	-3.519353e-09	-1.225846e+01	-2.318356e+02
6.600000e-07	-1.621619e-06	-3.417009e-09	-1.156220e+01	-2.252566e+02
6.700000e-07	-1.523261e-06	-3.315283e-09	-1.086090e+01	-2.185644e+02
6.800000e-07	-1.424372e-06	-3.217264e-09	-1.015582e+01	-2.117592e+02
6.900000e-07	-1.325019e-06	-3.113552e-09	-9.447427e+00	-2.048396e+02
7.000000e-07	-1.225283e-06	-3.003571e-09	-8.736308e+00	-1.978025e+02
7.100000e-07	-1.125187e-06	-2.891348e-09	-8.022617e+00	-1.906430e+02
7.200000e-07	-1.024782e-06	-2.777905e-09	-7.306731e+00	-1.833544e+02
7.300000e-07	-9.241231e-07	-2.666391e-09	-6.589028e+00	-1.759285e+02
7.400000e-07	-8.231457e-07	-2.552115e-09	-5.869055e+00	-1.683559e+02
7.500000e-07	-7.218349e-07	-2.432016e-09	-5.146707e+00	-1.606264e+02
7.600000e-07	-6.202273e-07	-2.308143e-09	-4.422241e+00	-1.527298e+02
7.700000e-07	-5.184280e-07	-2.185231e-09	-3.696408e+00	-1.446558e+02
7.800000e-07	-4.164490e-07	-2.062307e-09	-2.969295e+00	-1.363953e+02
7.900000e-07	-3.142670e-07	-1.936109e-09	-2.240734e+00	-1.279400e+02
8.000000e-07	-2.119579e-07	-1.800085e-09	-1.511266e+00	-1.192833e+02
8.100000e-07	-1.095913e-07	-1.661545e-09	-7.813894e-01	-1.104196e+02
8.200000e-07	-7.205241e-09	-1.524577e-09	-5.137360e-02	-1.013447e+02
8.300000e-07	9.523405e-08	-1.383127e-09	6.790218e-01	-9.205522e+01
8.400000e-07	1.976960e-07	-1.240227e-09	1.409579e+00	-8.254803e+01
8.500000e-07	3.001023e-07	-1.092896e-09	2.139739e+00	-7.281990e+01
8.600000e-07	4.024039e-07	-9.376756e-10	2.869153e+00	-6.286695e+01
8.700000e-07	5.045756e-07	-7.757175e-10	3.597641e+00	-5.268441e+01
8.800000e-07	6.066117e-07	-6.140559e-10	4.325161e+00	-4.226653e+01
8.900000e-07	7.084608e-07	-4.529805e-10	5.051349e+00	-3.160691e+01
9.000000e-07	8.100263e-07	-2.868535e-10	5.775514e+00	-2.069915e+01
9.100000e-07	9.112571e-07	-1.144011e-10	6.497292e+00	-9.537841e+00
9.200000e-07	1.012169e-06	6.097942e-11	7.216801e+00	1.880115e+00
9.300000e-07	1.112801e-06	2.368592e-10	7.934307e+00	1.355405e+01
9.400000e-07	1.213157e-06	4.171932e-10	8.649850e+00	2.547800e+01
9.500000e-07	1.313082e-06	6.010804e-10	9.362315e+00	3.763934e+01
9.600000e-07	1.412446e-06	7.890928e-10	1.007078e+01	5.001774e+01
9.700000e-07	1.511264e-06	9.802694e-10	1.077536e+01	6.258451e+01
9.800000e-07	1.609461e-06	1.173332e-09	1.147551e+01	7.530265e+01
9.900000e-07	1.706959e-06	1.366339e-09	1.217068e+01	8.812744e+01
1.000000e-06	1.803738e-06	1.559758e-09	1.286071e+01	1.010077e+02
1.010000e-06	1.899677e-06	1.754798e-09	1.354476e+01	1.138876e+02
1.020000e-06	1.994847e-06	1.951053e-09	1.422333e+01	1.267091e+02
1.030000e-06	2.089398e-06	2.144983e-09	1.489748e+01	1.394138e+02
1.040000e-06	2.183274e-06	2.331918e-09	1.556681e+01	1.519463e+02
1.050000e-06	2.276371e-06	2.514310e-09	1.623060e+01	1.642557e+02
1.060000e-06	2.368726e-06	2.694628e-09	1.688909e+01	1.762977e+02
1.070000e-06	2.460376e-06	2.872813e-09	1.754256e+01	1.880359e+02
1.080000e-06	2.551148e-06	3.049228e-09	1.818977e+01	1.994425e+02
1.090000e-06	2.640890e-06	3.221792e-09	1.882963e+01	2.104979e+02
1.100000e-06	2.729565e-06	3.388826e-09	1.946189e+01	2.211902e+02
1.110000e-06	2.817173e-06	3.546839e-09	2.008654e+01	2.315140e+02
1.120000e-06	2.903853e-06	3.699510e-09	2.070457e+01	2.414693e+02
1.130000e-06	2.989592e-06	3.846637e-09	2.131589e+01	2.510591e+02
1.140000e-06	3.074343e-06	3.987028e-09	2.192017e+01	2.602889e+02
1.150000e-06	3.158160e-06	4.119342e-09	2.251778e+01	2.691648e+02
1.160000e-06	3.240972e-06	4.244606e-09	2.310824e+01	2.776930e+02
1.170000e-06	3.322665e-06	4.368415e-09	2.369071e+01	2.858795e+02
1.180000e-06	3.403122e-06	4.489138e-09	2.426437e+01	2.937299e+02
1.190000e-06	3.482356e-06	4.603762e-09	2.482931e+01	3.012503e+02
1.200000e-06	3.560330e-06	4.711629e-09	2.538527e+01	3.084474e+02
1.210000e-06	3.637055e-06	4.815376e-09	2.593232e+01	3.153295e+02
1.220000e-06	3.712419e-06	4.913822e-09	2.646967e+01	3.219074e+02
1.230000e-06	3.786214e-06	5.007571e-09	2.699583e+01	3.281940e+02
1.240000e-06	3.858433e-06	5.097125e-09	2.751075e+01	3.342050e+02
1.250000e-06	3.929205e-06	5.183845e-09	2.801536e+01	3.399582e+02
1.260000e-06	3.998632e-06	5.266993e-09	2.851038e+01	3.454726e+02
1.270000e-06	4.066686e-06	5.348887e-09	2.899560e+01	3.507677e+02
1.280000e-06	4.133350e-06	5.429415e-09	2.947092e+01	3.558619e+02
1.290000e-06	4.198410e-06	5.505827e-09	2.993480e+01	3.607716e+02
1.300000e-06	4.261842e-06	5.576622e-09	3.038707e+01	3.655096e+02
1.310000e-06	4.323820e-06	5.642967e-09	3.082898e+01	3.700852e+02
1.320000e-06	4.384401e-06	5.709467e-09	3.126092e+01	3.745030e+02
1.330000e-06	4.443552e-06	5.774965e-09	3.168267e+01	3.787639e+02
1.340000e-06	4.501041e-06	5.837369e-09	3.209257e+01	3.828650e+02
1.350000e-06	4.556785e-06	5.897443e-09	3.249003e+01	3.868012e+02
1.360000e-06	4.610884e-06	5.954525e-09	3.287575e+01	3.905664e+02
1.370000e-06	4.663239e-06	6.007822e-09	3.324905e+01	3.941542e+02
1.380000e-06	4.713629e-06	6.057927e-09	3.360833e+01	3.975603e+02
1.390000e-06	4.762034e-06	6.105770e-09	3.395346e+01	4.007824e+02
1.400000e-06	4.808667e-06	6.150677e-09	3.428595e+01	4.038216e+02
1.410000e-06	4.853740e-06	6.191065e-09	3.460732e+01	4.066821e+02
1.420000e-06	4.897299e-06	6.228510e-09	3.491790e+01	4.093709e+02
1.430000e-06	4.939038e-06	6.264703e-09	3.521550e+01	4.118976e+02
1.440000e-06	4.978854e-06	6.299647e-09	3.549939e+01	4.142725e+02
1.450000e-06	5.016999e-06	6.332548e-09	3.577136e+01	4.165065e+02
1.460000e-06	5.053568e-06	6.364115e-09	3.603211e+01	4.186091e+02
1.470000e-06	5.088468e-06	6.394527e-09	3.628094e+01	4.205881e+02
1.480000e-06	5.121441e-06	6.422790e-09	3.651604e+01	4.224486e+02
1.490000e-06	5.152558e-06	6.447780e-09	3.673790e+01	4.241932e+02
1.500000e-06	5.181987e-06	6.469502e-09	3.694773e+01	4.258218e+02
1.510000e-06	5.209696e-06	6.489221e-09	3.714530e+01	4.273325e+02
1.520000e-06	5.235487e-06	6.507139e-09	3.732919e+01	4.287222e+02
1.530000e-06	5.259217e-06	6.524644e-09	3.749839e+01	4.299879e+02
1.540000e-06	5.281045e-06	6.541481e-09	3.765403e+01	4.311272e+02
1.550000e-06	5.301159e-06	6.557598e-09	3.779743e+01	4.321395e+02
1.560000e-06	5.319458e-06	6.573289e-09	3.792791e+01	4.330260e+02
1.570000e-06	5.335717e-06	6.587561e-09	3.804384e+01	4.337903e+02
1.580000e-06	5.349993e-06	6.599619e-09	3.814562e+01	4.344376e+02
1.590000e-06	5.362325e-06	6.608065e-09	3.823355e+01	4.349747e+02
1.600000e-06	5.372525e-06	6.612856e-09	3.830628e+01	4.354084e+02
1.610000e-06	5.380603e-06	6.615760e-09	3.836388e+01	4.357456e+02
1.620000e-06	5.386759e-06	6.618555e-09	3.840777e+01	4.359914e+02
1.630000e-06	5.391128e-06	6.622044e-09	3.843891e+01	4.361491e+02
1.640000e-06	5.393620e-06	6.624610e-09	3.845669e+01	4.362198e+02
1.650000e-06	5.394085e-06	6.628715e-09	3.846000e+01	4.362021e+02
1.660000e-06	5.392681e-06	6.627832e-09	3.844999e+01	4.360930e+02
1.670000e-06	5.389607e-06	6.620348e-09	3.842807e+01	4.358881e+02
1.680000e-06	5.384915e-06	6.617395e-09	3.839462e+01	4.355832e+02
1.690000e-06	5.378275e-06	6.610407e-09	3.834727e+01	4.351749e+02
1.700000e-06	5.369762e-06	6.601414e-09	3.828658e+01	4.346615e+02
1.710000e-06	5.359765e-06	6.594481e-09	3.821530e+01	4.340443e+02
1.720000e-06	5.348110e-06	6.594633e-09	3.813220e+01	4.333271e+02
1.730000e-06	5.334449e-06	6.617080e-09	3.803480e+01	4.325171e+02
1.740000e-06	5.318689e-06	6.512777e-09	3.792243e+01	4.316234e+02
1.750000e-06	5.300654e-06	6.457407e-09	3.779384e+01	4.306569e+02
1.760000e-06	5.279947e-06	6.495498e-09	3.764620e+01	4.296286e+02
1.770000e-06	5.256832e-06	6.469132e-09	3.748138e+01	4.285483e+02
1.780000e-06	5.232392e-06	6.624948e-09	3.730712e+01	4.274237e+02
1.790000e-06	5.207322e-06	6.544219e-09	3.712837e+01	4.262587e+02
1.800000e-06	5.180917e-06	6.286877e-09	3.694011e+01	4.250530e+02
1.810000e-06	5.152295e-06	6.516283e-09	3.673603e+01	4.238021e+02
1.820000e-06	5.121831e-06	6.409130e-09	3.651882e+01	4.224969e+02
1.830000e-06	5.089748e-06	6.282699e-09	3.629007e+01	4.211252e+02
1.840000e-06	5.055638e-06	6.578438e-09	3.604686e+01	4.196722e+02
1.850000e-06	5.019884e-06	6.337047e-09	3.579194e+01	4.181223e+02
1.860000e-06	4.982371e-06	6.256786e-09	3.552447e+01	4.164607e+02
1.870000e-06	4.942854e-06	6.426640e-09	3.524271e+01	4.146744e+02
1.880000e-06	4.901762e-06	6.195886e-09	3.494973e+01	4.127537e+02
1.890000e-06	4.858875e-06	6.311139e-09	3.464394e+01	4.106931e+02
1.900000e-06	4.814369e-06	6.278466e-09	3.432661e+01	4.084914e+02
1.910000e-06	4.768175e-06	6.103141e-09	3.399724e+01	4.061516e+02
1.920000e-06	4.719857e-06	6.261181e-09	3.365274e+01	4.036803e+02
1.930000e-06	4.669891e-06	6.035541e-09	3.329648e+01	4.010869e+02
1.940000e-06	4.618258e-06	6.063361e-09	3.292833e+01	3.983820e+02
1.950000e-06	4.564516e-06	6.130844e-09	3.254515e+01	3.955766e+02
1.960000e-06	4.508804e-06	5.938917e-09	3.214792e+01	3.926806e+02
1.970000e-06	4.451409e-06	5.947234e-09	3.173869e+01	3.897020e+02
1.980000e-06	4.392572e-06	5.858835e-09	3.131918e+01	3.866461e+02
1.990000e-06	4.332309e-06	5.908365e-09	3.088950e+01	3.835154e+02
2.000000e-06	4.270314e-06	5.817707e-09	3.044748e+01	3.803092e+02
2.010000e-06	4.206667e-06	5.685788e-09	2.999367e+01	3.770249e+02
2.020000e-06	4.141540e-06	5.759793e-09	2.952931e+01	3.736578e+02
2.030000e-06	4.074969e-06	5.598251e-09	2.905466e+01	3.702023e+02
2.040000e-06	4.007090e-06	5.585179e-09	2.857068e+01	3.666529e+02
2.050000e-06	3.937787e-06	5.558877e-09	2.807655e+01	3.630044e+02
2.060000e-06	3.866836e-06	5.496551e-09	2.757067e+01	3.592532e+02
2.070000e-06	3.794454e-06	5.450843e-09	2.705458e+01	3.553972e+02
2.080000e-06	3.720858e-06	5.293376e-09	2.652984e+01	3.514357e+02
2.090000e-06	3.645918e-06	5.313449e-09	2.599551e+01	3.473699e+02
2.100000e-06	3.569572e-06	5.254129e-09	2.545116e+01	3.432018e+02
2.110000e-06	3.491584e-06	5.176724e-09	2.489511e+01	3.389342e+02
2.120000e-06	3.412098e-06	5.101259e-09	2.432837e+01	3.345701e+02
2.130000e-06	3.331571e-06	5.022354e-09	2.375421e+01	3.301117e+02
2.140000e-06	3.249946e-06	4.979426e-09	2.317222e+01	3.255606e+02
2.150000e-06	3.167180e-06	4.878000e-09	2.258210e+01	3.209169e+02
2.160000e-06	3.083437e-06	4.842052e-09	2.198500e+01	3.161796e+02
2.170000e-06	2.998679e-06	4.758935e-09	2.138068e+01	3.113460e+02
2.180000e-06	2.912562e-06	4.676972e-09	2.076666e+01	3.064127e+02
2.190000e-06	2.825125e-06	4.598661e-09	2.014323e+01	3.013749e+02
2.200000e-06	2.736754e-06	4.523803e-09	1.951314e+01	2.962279e+02
2.210000e-06	2.647471e-06	4.465148e-09	1.887655e+01	2.909667e+02
2.220000e-06	2.557219e-06	4.363103e-09	1.823306e+01	2.855867e+02
2.230000e-06	2.466059e-06	4.276741e-09	1.758308e+01	2.800842e+02
2.240000e-06	2.374197e-06	4.183468e-09	1.692810e+01	2.744565e+02
2.250000e-06	2.281675e-06	4.108912e-09	1.626842e+01	2.687021e+02
2.260000e-06	2.188342e-06	4.030318e-09	1.560295e+01	2.628206e+02
2.270000e-06	2.093991e-06	3.940073e-09	1.493022e+01	2.568129e+02
2.280000e-06	1.998548e-06	3.838274e-09	1.424971e+01	2.506809e+02
2.290000e-06	1.902308e-06	3.734863e-09	1.356352e+01	2.444271e+02
2.300000e-06	1.805549e-06	3.644929e-09	1.287362e+01	2.380542e+02
2.310000e-06	1.708373e-06	3.553877e-09	1.218075e+01	2.315648e+02
2.320000e-06	1.610686e-06	3.459183e-09	1.148424e+01	2.249613e+02
2.330000e-06	1.512438e-06	3.347479e-09	1.078373e+01	2.182446e+02
2.340000e-06	1.413686e-06	3.240344e-09	1.007962e+01	2.114148e+02
2.350000e-06	1.314481e-06	3.132769e-09	9.372289e+00	2.044700e+02
2.360000e-06	1.214935e-06	3.030310e-09	8.662528e+00	1.974069e+02
2.370000e-06	1.115137e-06	2.929293e-09	7.950962e+00	1.902201e+02
2.380000e-06	1.014999e-06	2.814626e-09	7.236977e+00	1.829025e+02
2.390000e-06	9.144909e-07	2.693259e-09	6.520349e+00	1.754457e+02
2.400000e-06	8.136274e-07	2.575906e-09	5.801190e+00	1.678401e+02
2.410000e-06	7.124154e-07	2.464392e-09	5.079545e+00	1.600754e+02
2.420000e-06	6.109730e-07	2.347653e-09	4.356257e+00	1.521413e+02
2.430000e-06	5.092506e-07	2.221635e-09	3.630973e+00	1.440278e+02
2.440000e-06	4.072618e-07	2.092033e-09	2.903789e+00	1.357259e+02
2.450000e-06	3.051420e-07	1.964665e-09	2.175672e+00	1.272278e+02
2.460000e-06	2.029044e-07	1.831889e-09	1.446715e+00	1.185268e+02
2.470000e-06	1.004988e-07	1.698173e-09	7.165600e-01	1.096179e+02
2.480000e-06	-1.999901e-09	1.560600e-09	-1.425936e-02	1.004970e+02
2.490000e-06	-1.044794e-07	1.414208e-09	-7.449415e-01	9.116084e+01
2.500000e-06	-2.069037e-07	1.265793e-09	-1.475230e+00	8.160631e+01
2.510000e-06	-3.092320e-07	1.120472e-09	-2.204834e+00	7.183008e+01
2.520000e-06	-4.114461e-07	9.763274e-10	-2.933624e+00	6.182809e+01
2.530000e-06	-5.135716e-07	8.237022e-10	-3.661782e+00	5.159535e+01
2.540000e-06	-6.155631e-07	6.624432e-10	-4.388985e+00	4.112594e+01
2.550000e-06	-7.172954e-07	4.978341e-10	-5.114340e+00	3.041339e+01
2.560000e-06	-8.186910e-07	3.315800e-10	-5.837294e+00	1.945142e+01
2.570000e-06	-9.196527e-07	1.606420e-10	-6.557154e+00	8.234993e+00
2.580000e-06	-1.020137e-06	-1.390295e-11	-7.273611e+00	-3.238309e+00
2.590000e-06	-1.120186e-06	-1.923364e-10	-7.986965e+00	-1.496681e+01
2.600000e-06	-1.219848e-06	-3.771713e-10	-8.697553e+00	-2.694322e+01
2.610000e-06	-1.319150e-06	-5.633221e-10	-9.405584e+00	-3.915334e+01
2.620000e-06	-1.418066e-06	-7.504101e-10	-1.011086e+01	-5.157509e+01
2.630000e-06	-1.516493e-06	-9.421328e-10	-1.081265e+01	-6.417797e+01
2.640000e-06	-1.614327e-06	-1.140160e-09	-1.151021e+01	-7.692325e+01
2.650000e-06	-1.711588e-06	-1.341568e-09	-1.220368e+01	-8.976470e+01
2.660000e-06	-1.808394e-06	-1.541354e-09	-1.289390e+01	-1.026500e+02
2.670000e-06	-1.904683e-06	-1.739882e-09	-1.358045e+01	-1.155226e+02
2.680000e-06	-2.000309e-06	-1.937150e-09	-1.426227e+01	-1.283242e+02
2.690000e-06	-2.095143e-06	-2.132258e-09	-1.493844e+01	-1.409968e+02
2.700000e-06	-2.189089e-06	-2.325263e-09	-1.560827e+01	-1.534858e+02
2.710000e-06	-2.282082e-06	-2.515497e-09	-1.627132e+01	-1.657417e+02
2.720000e-06	-2.374128e-06	-2.698889e-09	-1.692761e+01	-1.777216e+02
2.730000e-06	-2.465349e-06	-2.874899e-09	-1.757802e+01	-1.893912e+02
2.740000e-06	-2.555715e-06	-3.045960e-09	-1.822233e+01	-2.007241e+02
2.750000e-06	-2.645165e-06	-3.212919e-09	-1.886012e+01	-2.117027e+02
2.760000e-06	-2.733757e-06	-3.374554e-09	-1.949177e+01	-2.223166e+02
2.770000e-06	-2.821467e-06	-3.529541e-09	-2.011715e+01	-2.325617e+02
2.780000e-06	-2.908220e-06	-3.678504e-09	-2.073570e+01	-2.424385e+02
2.790000e-06	-2.993914e-06	-3.821872e-09	-2.134670e+01	-2.519510e+02
2.800000e-06	-3.078425e-06	-3.961846e-09	-2.194927e+01	-2.611047e+02
2.810000e-06	-3.161859e-06	-4.099535e-09	-2.254416e+01	-2.699058e+02
2.820000e-06	-3.244306e-06	-4.232277e-09	-2.313200e+01	-2.783606e+02
2.830000e-06	-3.325668e-06	-4.358688e-09	-2.371212e+01	-2.864749e+02
2.840000e-06	-3.405914e-06	-4.480067e-09	-2.428428e+01	-2.942544e+02
2.850000e-06	-3.484967e-06	-4.595615e-09	-2.484793e+01	-3.017051e+02
2.860000e-06	-3.562575e-06	-4.704356e-09	-2.540128e+01	-3.088342e+02
2.870000e-06	-3.638646e-06	-4.807310e-09	-2.594367e+01	-3.156505e+02
2.880000e-06	-3.713330e-06	-4.905926e-09	-2.647616e+01	-3.221650e+02
2.890000e-06	-3.786710e-06	-5.000435e-09	-2.699937e+01	-3.283914e+02
2.900000e-06	-3.858749e-06	-5.092428e-09	-2.751301e+01	-3.343459e+02
2.910000e-06	-3.929353e-06	-5.183547e-09	-2.801641e+01	-3.400466e+02
2.920000e-06	-3.998377e-06	-5.270175e-09	-2.850856e+01	-3.455127e+02
2.930000e-06	-4.065871e-06	-5.350000e-09	-2.898979e+01	-3.507635e+02
2.940000e-06	-4.131989e-06	-5.426986e-09	-2.946122e+01	-3.558172e+02
