# Temperatura_=_36.45
# Concentracion g/m^3_=_15000.0
# C_Vs_to_Am_M_A/Vsm_=_65563218390.804596
# pendiente_HvsI_1/m_=_3716.3
# ordenada_HvsI_A/m_=_1297.0
# frecuencia_Hz_=_301576.5038820175

Tiempo_(s)	Campo_(V.s)	Magnetizacion_(V.s)	Campo_(kA/m)	Magnetizacion_(A/m)
0.000000e+00	-5.382683e-06	-4.825326e-09	-3.833934e+01	-3.146758e+02
1.000000e-08	-5.379766e-06	-4.821183e-09	-3.831856e+01	-3.145597e+02
2.000000e-08	-5.375046e-06	-4.818009e-09	-3.828494e+01	-3.143714e+02
3.000000e-08	-5.368701e-06	-4.814042e-09	-3.823975e+01	-3.141080e+02
4.000000e-08	-5.360825e-06	-4.808045e-09	-3.818365e+01	-3.137681e+02
5.000000e-08	-5.351080e-06	-4.800971e-09	-3.811424e+01	-3.133528e+02
6.000000e-08	-5.339273e-06	-4.796146e-09	-3.803014e+01	-3.128653e+02
7.000000e-08	-5.325564e-06	-4.795896e-09	-3.793249e+01	-3.123115e+02
8.000000e-08	-5.309711e-06	-4.785751e-09	-3.781958e+01	-3.116991e+02
9.000000e-08	-5.291608e-06	-4.777367e-09	-3.769064e+01	-3.110369e+02
1.000000e-07	-5.271476e-06	-4.781791e-09	-3.754725e+01	-3.103339e+02
1.100000e-07	-5.249443e-06	-4.758968e-09	-3.739031e+01	-3.095980e+02
1.200000e-07	-5.225724e-06	-4.725237e-09	-3.722136e+01	-3.088353e+02
1.300000e-07	-5.200486e-06	-4.723839e-09	-3.704160e+01	-3.080488e+02
1.400000e-07	-5.173661e-06	-4.672581e-09	-3.685054e+01	-3.072379e+02
1.500000e-07	-5.145208e-06	-4.682383e-09	-3.664787e+01	-3.063984e+02
1.600000e-07	-5.115310e-06	-4.719825e-09	-3.643492e+01	-3.055227e+02
1.700000e-07	-5.083755e-06	-4.646457e-09	-3.621016e+01	-3.046004e+02
1.800000e-07	-5.050068e-06	-4.639004e-09	-3.597021e+01	-3.036196e+02
1.900000e-07	-5.014608e-06	-4.638590e-09	-3.571765e+01	-3.025678e+02
2.000000e-07	-4.977651e-06	-4.587321e-09	-3.545441e+01	-3.014335e+02
2.100000e-07	-4.938929e-06	-4.587249e-09	-3.517860e+01	-3.002073e+02
2.200000e-07	-4.898371e-06	-4.562095e-09	-3.488972e+01	-2.988828e+02
2.300000e-07	-4.855861e-06	-4.541111e-09	-3.458694e+01	-2.974575e+02
2.400000e-07	-4.811485e-06	-4.530010e-09	-3.427086e+01	-2.959325e+02
2.500000e-07	-4.765364e-06	-4.477967e-09	-3.394235e+01	-2.943125e+02
2.600000e-07	-4.717308e-06	-4.469476e-09	-3.360006e+01	-2.926052e+02
2.700000e-07	-4.667138e-06	-4.420856e-09	-3.324271e+01	-2.908198e+02
2.800000e-07	-4.614876e-06	-4.379173e-09	-3.287046e+01	-2.889661e+02
2.900000e-07	-4.560772e-06	-4.391369e-09	-3.248509e+01	-2.870535e+02
3.000000e-07	-4.505149e-06	-4.361349e-09	-3.208891e+01	-2.850893e+02
3.100000e-07	-4.447853e-06	-4.318083e-09	-3.168081e+01	-2.830783e+02
3.200000e-07	-4.388715e-06	-4.280195e-09	-3.125958e+01	-2.810225e+02
3.300000e-07	-4.328023e-06	-4.248204e-09	-3.082729e+01	-2.789207e+02
3.400000e-07	-4.265918e-06	-4.217747e-09	-3.038494e+01	-2.767689e+02
3.500000e-07	-4.202432e-06	-4.181596e-09	-2.993274e+01	-2.745613e+02
3.600000e-07	-4.137378e-06	-4.151688e-09	-2.946938e+01	-2.722908e+02
3.700000e-07	-4.070600e-06	-4.112274e-09	-2.899374e+01	-2.699504e+02
3.800000e-07	-4.002327e-06	-4.075033e-09	-2.850745e+01	-2.675337e+02
3.900000e-07	-3.932765e-06	-4.036230e-09	-2.801198e+01	-2.650362e+02
4.000000e-07	-3.861975e-06	-3.994492e-09	-2.750776e+01	-2.624552e+02
4.100000e-07	-3.789929e-06	-3.959739e-09	-2.699460e+01	-2.597905e+02
4.200000e-07	-3.716390e-06	-3.900165e-09	-2.647080e+01	-2.570438e+02
4.300000e-07	-3.641196e-06	-3.858805e-09	-2.593522e+01	-2.542184e+02
4.400000e-07	-3.564531e-06	-3.827115e-09	-2.538915e+01	-2.513186e+02
4.500000e-07	-3.486478e-06	-3.784137e-09	-2.483320e+01	-2.483487e+02
4.600000e-07	-3.406977e-06	-3.733495e-09	-2.426694e+01	-2.453125e+02
4.700000e-07	-3.326237e-06	-3.675304e-09	-2.369185e+01	-2.422122e+02
4.800000e-07	-3.244344e-06	-3.630189e-09	-2.310855e+01	-2.390487e+02
4.900000e-07	-3.161324e-06	-3.587409e-09	-2.251722e+01	-2.358206e+02
5.000000e-07	-3.077370e-06	-3.540397e-09	-2.191924e+01	-2.325248e+02
5.100000e-07	-2.992482e-06	-3.484932e-09	-2.131461e+01	-2.291569e+02
5.200000e-07	-2.906546e-06	-3.427654e-09	-2.070251e+01	-2.257115e+02
5.300000e-07	-2.819597e-06	-3.365150e-09	-2.008320e+01	-2.221830e+02
5.400000e-07	-2.731824e-06	-3.305713e-09	-1.945802e+01	-2.185662e+02
5.500000e-07	-2.643064e-06	-3.253667e-09	-1.882580e+01	-2.148568e+02
5.600000e-07	-2.553049e-06	-3.200212e-09	-1.818465e+01	-2.110519e+02
5.700000e-07	-2.461973e-06	-3.140459e-09	-1.753594e+01	-2.071501e+02
5.800000e-07	-2.370051e-06	-3.074262e-09	-1.688120e+01	-2.031517e+02
5.900000e-07	-2.277305e-06	-3.013004e-09	-1.622061e+01	-1.990579e+02
6.000000e-07	-2.183757e-06	-2.951985e-09	-1.555429e+01	-1.948708e+02
6.100000e-07	-2.089458e-06	-2.884547e-09	-1.488262e+01	-1.905930e+02
6.200000e-07	-1.994526e-06	-2.812700e-09	-1.420645e+01	-1.862266e+02
6.300000e-07	-1.898975e-06	-2.743377e-09	-1.352587e+01	-1.817733e+02
6.400000e-07	-1.802648e-06	-2.675677e-09	-1.283976e+01	-1.772337e+02
6.500000e-07	-1.705519e-06	-2.607037e-09	-1.214793e+01	-1.726074e+02
6.600000e-07	-1.607645e-06	-2.536531e-09	-1.145081e+01	-1.678928e+02
6.700000e-07	-1.509089e-06	-2.462080e-09	-1.074882e+01	-1.630875e+02
6.800000e-07	-1.409989e-06	-2.384247e-09	-1.004296e+01	-1.581885e+02
6.900000e-07	-1.310494e-06	-2.304631e-09	-9.334280e+00	-1.531927e+02
7.000000e-07	-1.210618e-06	-2.228634e-09	-8.622891e+00	-1.480970e+02
7.100000e-07	-1.110342e-06	-2.151360e-09	-7.908657e+00	-1.428988e+02
7.200000e-07	-1.009761e-06	-2.067745e-09	-7.192246e+00	-1.375959e+02
7.300000e-07	-9.089274e-07	-1.980391e-09	-6.474035e+00	-1.321872e+02
7.400000e-07	-8.077685e-07	-1.896439e-09	-5.753508e+00	-1.266716e+02
7.500000e-07	-7.062144e-07	-1.813946e-09	-5.030166e+00	-1.210487e+02
7.600000e-07	-6.043970e-07	-1.727244e-09	-4.304950e+00	-1.153179e+02
7.700000e-07	-5.024191e-07	-1.635617e-09	-3.578590e+00	-1.094783e+02
7.800000e-07	-4.002980e-07	-1.541005e-09	-2.851210e+00	-1.035283e+02
7.900000e-07	-2.980417e-07	-1.447912e-09	-2.122867e+00	-9.746513e+01
8.000000e-07	-1.957124e-07	-1.354831e-09	-1.394004e+00	-9.128498e+01
8.100000e-07	-9.334161e-08	-1.260734e-09	-6.648460e-01	-8.498273e+01
8.200000e-07	9.101388e-09	-1.165360e-09	6.482663e-02	-7.855201e+01
8.300000e-07	1.115665e-07	-1.067899e-09	7.946570e-01	-7.198544e+01
8.400000e-07	2.140402e-07	-9.664660e-10	1.524548e+00	-6.527484e+01
8.500000e-07	3.164827e-07	-8.616542e-10	2.254218e+00	-5.841158e+01
8.600000e-07	4.188026e-07	-7.542353e-10	2.983013e+00	-5.138697e+01
8.700000e-07	5.210106e-07	-6.440355e-10	3.711012e+00	-4.419261e+01
8.800000e-07	6.230925e-07	-5.330230e-10	4.438113e+00	-3.682081e+01
8.900000e-07	7.249941e-07	-4.209068e-10	5.163930e+00	-2.926498e+01
9.000000e-07	8.266403e-07	-3.062758e-10	5.887926e+00	-2.151999e+01
9.100000e-07	9.279122e-07	-1.869809e-10	6.609258e+00	-1.358261e+01
9.200000e-07	1.028808e-06	-6.441616e-11	7.327911e+00	-5.451909e+00
9.300000e-07	1.129410e-06	6.283754e-11	8.044469e+00	2.870311e+00
9.400000e-07	1.229683e-06	1.938035e-10	8.758687e+00	1.137903e+01
9.500000e-07	1.329595e-06	3.253038e-10	9.470329e+00	2.006558e+01
9.600000e-07	1.429125e-06	4.582580e-10	1.017925e+01	2.891722e+01
9.700000e-07	1.528072e-06	5.930912e-10	1.088403e+01	3.791684e+01
9.800000e-07	1.626340e-06	7.310172e-10	1.158396e+01	4.704278e+01
9.900000e-07	1.723859e-06	8.711048e-10	1.227856e+01	5.626885e+01
1.000000e-06	1.820582e-06	1.014792e-09	1.296749e+01	6.556457e+01
1.010000e-06	1.916548e-06	1.160529e-09	1.365103e+01	7.489575e+01
1.020000e-06	2.011785e-06	1.306222e-09	1.432938e+01	8.422525e+01
1.030000e-06	2.106327e-06	1.449565e-09	1.500278e+01	9.351403e+01
1.040000e-06	2.200147e-06	1.589402e-09	1.567103e+01	1.027224e+02
1.050000e-06	2.293214e-06	1.724633e-09	1.633392e+01	1.118113e+02
1.060000e-06	2.385524e-06	1.855070e-09	1.699142e+01	1.207438e+02
1.070000e-06	2.477138e-06	1.984216e-09	1.764396e+01	1.294861e+02
1.080000e-06	2.567965e-06	2.111788e-09	1.829090e+01	1.380090e+02
1.090000e-06	2.657712e-06	2.237923e-09	1.893014e+01	1.462881e+02
1.100000e-06	2.746318e-06	2.361930e-09	1.956125e+01	1.543052e+02
1.110000e-06	2.833906e-06	2.480066e-09	2.018512e+01	1.620474e+02
1.120000e-06	2.920528e-06	2.591925e-09	2.080210e+01	1.695079e+02
1.130000e-06	3.006206e-06	2.701149e-09	2.141236e+01	1.766848e+02
1.140000e-06	3.090968e-06	2.808084e-09	2.201609e+01	1.835807e+02
1.150000e-06	3.174787e-06	2.907830e-09	2.261312e+01	1.902018e+02
1.160000e-06	3.257532e-06	3.002235e-09	2.320248e+01	1.965567e+02
1.170000e-06	3.339083e-06	3.093308e-09	2.378335e+01	2.026562e+02
1.180000e-06	3.419391e-06	3.180459e-09	2.435536e+01	2.085118e+02
1.190000e-06	3.498429e-06	3.266301e-09	2.491833e+01	2.141352e+02
1.200000e-06	3.576213e-06	3.349989e-09	2.547236e+01	2.195381e+02
1.210000e-06	3.652757e-06	3.430774e-09	2.601757e+01	2.247316e+02
1.220000e-06	3.727936e-06	3.508671e-09	2.655304e+01	2.297261e+02
1.230000e-06	3.801488e-06	3.581462e-09	2.707693e+01	2.345311e+02
1.240000e-06	3.873508e-06	3.650773e-09	2.758991e+01	2.391552e+02
1.250000e-06	3.944183e-06	3.717171e-09	2.809330e+01	2.436064e+02
1.260000e-06	4.013491e-06	3.780337e-09	2.858697e+01	2.478913e+02
1.270000e-06	4.081534e-06	3.843635e-09	2.907162e+01	2.520160e+02
1.280000e-06	4.148101e-06	3.905591e-09	2.954576e+01	2.559851e+02
1.290000e-06	4.212939e-06	3.963461e-09	3.000758e+01	2.598025e+02
1.300000e-06	4.276160e-06	4.016619e-09	3.045789e+01	2.634706e+02
1.310000e-06	4.337945e-06	4.068557e-09	3.089796e+01	2.669910e+02
1.320000e-06	4.398417e-06	4.119264e-09	3.132869e+01	2.703644e+02
1.330000e-06	4.457463e-06	4.165596e-09	3.174926e+01	2.735904e+02
1.340000e-06	4.514773e-06	4.209920e-09	3.215746e+01	2.766686e+02
1.350000e-06	4.570330e-06	4.252773e-09	3.255318e+01	2.795986e+02
1.360000e-06	4.624296e-06	4.294057e-09	3.293756e+01	2.823804e+02
1.370000e-06	4.676469e-06	4.331738e-09	3.330917e+01	2.850148e+02
1.380000e-06	4.726549e-06	4.365719e-09	3.366588e+01	2.875041e+02
1.390000e-06	4.774694e-06	4.398868e-09	3.400880e+01	2.898518e+02
1.400000e-06	4.821179e-06	4.430154e-09	3.433990e+01	2.920630e+02
1.410000e-06	4.866090e-06	4.458960e-09	3.465979e+01	2.941438e+02
1.420000e-06	4.909390e-06	4.486373e-09	3.496821e+01	2.961015e+02
1.430000e-06	4.950831e-06	4.512754e-09	3.526338e+01	2.979437e+02
1.440000e-06	4.990439e-06	4.538219e-09	3.554550e+01	2.996779e+02
1.450000e-06	5.028402e-06	4.561783e-09	3.581590e+01	3.013108e+02
1.460000e-06	5.064746e-06	4.583633e-09	3.607477e+01	3.028480e+02
1.470000e-06	5.099339e-06	4.605924e-09	3.632116e+01	3.042934e+02
1.480000e-06	5.132000e-06	4.626415e-09	3.655379e+01	3.056494e+02
1.490000e-06	5.162834e-06	4.643688e-09	3.677341e+01	3.069167e+02
1.500000e-06	5.192025e-06	4.659558e-09	3.698133e+01	3.080946e+02
1.510000e-06	5.219487e-06	4.675006e-09	3.717694e+01	3.091818e+02
1.520000e-06	5.244956e-06	4.689637e-09	3.735835e+01	3.101766e+02
1.530000e-06	5.268407e-06	4.702934e-09	3.752538e+01	3.110780e+02
1.540000e-06	5.290003e-06	4.714732e-09	3.767921e+01	3.118856e+02
1.550000e-06	5.309864e-06	4.725727e-09	3.782067e+01	3.126005e+02
1.560000e-06	5.327861e-06	4.735932e-09	3.794885e+01	3.132254e+02
1.570000e-06	5.343832e-06	4.745635e-09	3.806262e+01	3.137642e+02
1.580000e-06	5.357850e-06	4.754820e-09	3.816246e+01	3.142220e+02
1.590000e-06	5.369834e-06	4.762599e-09	3.824782e+01	3.146045e+02
1.600000e-06	5.379627e-06	4.768848e-09	3.831757e+01	3.149172e+02
1.610000e-06	5.387363e-06	4.772747e-09	3.837267e+01	3.151648e+02
1.620000e-06	5.393250e-06	4.776053e-09	3.841461e+01	3.153507e+02
1.630000e-06	5.397343e-06	4.779798e-09	3.844375e+01	3.154765e+02
1.640000e-06	5.399501e-06	4.781275e-09	3.845913e+01	3.155421e+02
1.650000e-06	5.399623e-06	4.779754e-09	3.846000e+01	3.155455e+02
1.660000e-06	5.397944e-06	4.777029e-09	3.844803e+01	3.154834e+02
1.670000e-06	5.394686e-06	4.773768e-09	3.842483e+01	3.153520e+02
1.680000e-06	5.389729e-06	4.773594e-09	3.838952e+01	3.151477e+02
1.690000e-06	5.382807e-06	4.772992e-09	3.834022e+01	3.148677e+02
1.700000e-06	5.374080e-06	4.769332e-09	3.827806e+01	3.145114e+02
1.710000e-06	5.363805e-06	4.762099e-09	3.820487e+01	3.140801e+02
1.720000e-06	5.351827e-06	4.750889e-09	3.811956e+01	3.135777e+02
1.730000e-06	5.337839e-06	4.737938e-09	3.801993e+01	3.130105e+02
1.740000e-06	5.321672e-06	4.732641e-09	3.790478e+01	3.123864e+02
1.750000e-06	5.303130e-06	4.706736e-09	3.777270e+01	3.117146e+02
1.760000e-06	5.281974e-06	4.707731e-09	3.762202e+01	3.110037e+02
1.770000e-06	5.258644e-06	4.720698e-09	3.745584e+01	3.102616e+02
1.780000e-06	5.234202e-06	4.696162e-09	3.728175e+01	3.094935e+02
1.790000e-06	5.209038e-06	4.707779e-09	3.710251e+01	3.087017e+02
1.800000e-06	5.182323e-06	4.638764e-09	3.691223e+01	3.078850e+02
1.810000e-06	5.153473e-06	4.609688e-09	3.670674e+01	3.070383e+02
1.820000e-06	5.122852e-06	4.673080e-09	3.648864e+01	3.061534e+02
1.830000e-06	5.090408e-06	4.610697e-09	3.625754e+01	3.052195e+02
1.840000e-06	5.055982e-06	4.605756e-09	3.601234e+01	3.042244e+02
1.850000e-06	5.019980e-06	4.653798e-09	3.575591e+01	3.031557e+02
1.860000e-06	4.982168e-06	4.592012e-09	3.548658e+01	3.020022e+02
1.870000e-06	4.942441e-06	4.578377e-09	3.520362e+01	3.007552e+02
1.880000e-06	4.901017e-06	4.549832e-09	3.490857e+01	2.994090e+02
1.890000e-06	4.857837e-06	4.532202e-09	3.460100e+01	2.979619e+02
1.900000e-06	4.813074e-06	4.545125e-09	3.428217e+01	2.964159e+02
1.910000e-06	4.766459e-06	4.459228e-09	3.395015e+01	2.947764e+02
1.920000e-06	4.717812e-06	4.482249e-09	3.360365e+01	2.930513e+02
1.930000e-06	4.667529e-06	4.475743e-09	3.324550e+01	2.912503e+02
1.940000e-06	4.615503e-06	4.376260e-09	3.287493e+01	2.893831e+02
1.950000e-06	4.561434e-06	4.379549e-09	3.248981e+01	2.874587e+02
1.960000e-06	4.505428e-06	4.345202e-09	3.209090e+01	2.854840e+02
1.970000e-06	4.447751e-06	4.328648e-09	3.168008e+01	2.834633e+02
1.980000e-06	4.388646e-06	4.312155e-09	3.125909e+01	2.813977e+02
1.990000e-06	4.328055e-06	4.257848e-09	3.082752e+01	2.792854e+02
2.000000e-06	4.265772e-06	4.247175e-09	3.038390e+01	2.771220e+02
2.010000e-06	4.201831e-06	4.180635e-09	2.992846e+01	2.749014e+02
2.020000e-06	4.136406e-06	4.146603e-09	2.946246e+01	2.726163e+02
2.030000e-06	4.069525e-06	4.126185e-09	2.898608e+01	2.702599e+02
2.040000e-06	4.001226e-06	4.097726e-09	2.849961e+01	2.678260e+02
2.050000e-06	3.931486e-06	4.065884e-09	2.800287e+01	2.653106e+02
2.060000e-06	3.860200e-06	3.998411e-09	2.749512e+01	2.627115e+02
2.070000e-06	3.787521e-06	3.986476e-09	2.697745e+01	2.600289e+02
2.080000e-06	3.713574e-06	3.936474e-09	2.645075e+01	2.572648e+02
2.090000e-06	3.638275e-06	3.883076e-09	2.591441e+01	2.544229e+02
2.100000e-06	3.561516e-06	3.839911e-09	2.536768e+01	2.515076e+02
2.110000e-06	3.483200e-06	3.787439e-09	2.480986e+01	2.485230e+02
2.120000e-06	3.403523e-06	3.762493e-09	2.424233e+01	2.454728e+02
2.130000e-06	3.322704e-06	3.700139e-09	2.366669e+01	2.423588e+02
2.140000e-06	3.240723e-06	3.655906e-09	2.308276e+01	2.391815e+02
2.150000e-06	3.157669e-06	3.611900e-09	2.249119e+01	2.359390e+02
2.160000e-06	3.073642e-06	3.556821e-09	2.189269e+01	2.326281e+02
2.170000e-06	2.988549e-06	3.504456e-09	2.128659e+01	2.292439e+02
2.180000e-06	2.902100e-06	3.456672e-09	2.067084e+01	2.257810e+02
2.190000e-06	2.814402e-06	3.417316e-09	2.004620e+01	2.222338e+02
2.200000e-06	2.725781e-06	3.354459e-09	1.941497e+01	2.185973e+02
2.210000e-06	2.636304e-06	3.287248e-09	1.877765e+01	2.148674e+02
2.220000e-06	2.545912e-06	3.225650e-09	1.813382e+01	2.110417e+02
2.230000e-06	2.454599e-06	3.175619e-09	1.748342e+01	2.071190e+02
2.240000e-06	2.362493e-06	3.115397e-09	1.682737e+01	2.030998e+02
2.250000e-06	2.269630e-06	3.052058e-09	1.616593e+01	1.989857e+02
2.260000e-06	2.175970e-06	2.994550e-09	1.549882e+01	1.947788e+02
2.270000e-06	2.081273e-06	2.928228e-09	1.482432e+01	1.904817e+02
2.280000e-06	1.985529e-06	2.858809e-09	1.414237e+01	1.860964e+02
2.290000e-06	1.889135e-06	2.791354e-09	1.345578e+01	1.816245e+02
2.300000e-06	1.792313e-06	2.728285e-09	1.276614e+01	1.770662e+02
2.310000e-06	1.694976e-06	2.657512e-09	1.207284e+01	1.724209e+02
2.320000e-06	1.597014e-06	2.578592e-09	1.137508e+01	1.676870e+02
2.330000e-06	1.498499e-06	2.504075e-09	1.067339e+01	1.628617e+02
2.340000e-06	1.399468e-06	2.436647e-09	9.968017e+00	1.579421e+02
2.350000e-06	1.300011e-06	2.361243e-09	9.259615e+00	1.529250e+02
2.360000e-06	1.200280e-06	2.281122e-09	8.549258e+00	1.478073e+02
2.370000e-06	1.100284e-06	2.203896e-09	7.837012e+00	1.425867e+02
2.380000e-06	9.999835e-07	2.123615e-09	7.122601e+00	1.372611e+02
2.390000e-06	8.993194e-07	2.041255e-09	6.405600e+00	1.318293e+02
2.400000e-06	7.982445e-07	1.956350e-09	5.685672e+00	1.262906e+02
2.410000e-06	6.968653e-07	1.870038e-09	4.963576e+00	1.206445e+02
2.420000e-06	5.953001e-07	1.781343e-09	4.240155e+00	1.148904e+02
2.430000e-06	4.934537e-07	1.689707e-09	3.514732e+00	1.090271e+02
2.440000e-06	3.912585e-07	1.602772e-09	2.786825e+00	1.030529e+02
2.450000e-06	2.888479e-07	1.518861e-09	2.057382e+00	9.696491e+01
2.460000e-06	1.863347e-07	1.424952e-09	1.327210e+00	9.075892e+01
2.470000e-06	8.372039e-08	1.322086e-09	5.963168e-01	8.442955e+01
2.480000e-06	-1.895362e-08	1.216303e-09	-1.350013e-01	7.797022e+01
2.490000e-06	-1.215855e-07	1.111986e-09	-8.660194e-01	7.137333e+01
2.500000e-06	-2.241567e-07	1.011351e-09	-1.596605e+00	6.463059e+01
2.510000e-06	-3.266530e-07	9.090435e-10	-2.326658e+00	5.773333e+01
2.520000e-06	-4.290183e-07	8.036680e-10	-3.055777e+00	5.067287e+01
2.530000e-06	-5.311955e-07	6.906822e-10	-3.783556e+00	4.344095e+01
2.540000e-06	-6.331476e-07	5.731075e-10	-4.509732e+00	3.603007e+01
2.550000e-06	-7.347954e-07	4.562977e-10	-5.233741e+00	2.843392e+01
2.560000e-06	-8.360848e-07	3.373546e-10	-5.955197e+00	2.064775e+01
2.570000e-06	-9.370257e-07	2.130724e-10	-6.674171e+00	1.266877e+01
2.580000e-06	-1.037572e-06	8.402010e-11	-7.390336e+00	4.496616e+00
2.590000e-06	-1.137699e-06	-4.622007e-11	-8.103510e+00	-3.866266e+00
2.600000e-06	-1.237441e-06	-1.757803e-10	-8.813945e+00	-1.241411e+01
2.610000e-06	-1.336773e-06	-3.073473e-10	-9.521455e+00	-2.113741e+01
2.620000e-06	-1.435650e-06	-4.441895e-10	-1.022573e+01	-3.002252e+01
2.630000e-06	-1.534080e-06	-5.833848e-10	-1.092682e+01	-3.905135e+01
2.640000e-06	-1.631976e-06	-7.213378e-10	-1.162411e+01	-4.820126e+01
2.650000e-06	-1.729255e-06	-8.598459e-10	-1.231700e+01	-5.744511e+01
2.660000e-06	-1.825982e-06	-1.001249e-09	-1.300595e+01	-6.675158e+01
2.670000e-06	-1.922206e-06	-1.144437e-09	-1.369134e+01	-7.608576e+01
2.680000e-06	-2.017838e-06	-1.288523e-09	-1.437249e+01	-8.541003e+01
2.690000e-06	-2.112638e-06	-1.430549e-09	-1.504773e+01	-9.468508e+01
2.700000e-06	-2.206471e-06	-1.570138e-09	-1.571607e+01	-1.038713e+02
2.710000e-06	-2.299394e-06	-1.708761e-09	-1.637794e+01	-1.129298e+02
2.720000e-06	-2.391450e-06	-1.845537e-09	-1.703362e+01	-1.218244e+02
2.730000e-06	-2.482665e-06	-1.980528e-09	-1.768332e+01	-1.305222e+02
2.740000e-06	-2.572955e-06	-2.112138e-09	-1.832644e+01	-1.389948e+02
2.750000e-06	-2.662280e-06	-2.239736e-09	-1.896267e+01	-1.472193e+02
2.760000e-06	-2.750785e-06	-2.360739e-09	-1.959307e+01	-1.551785e+02
2.770000e-06	-2.838498e-06	-2.474487e-09	-2.021782e+01	-1.628609e+02
2.780000e-06	-2.925239e-06	-2.585772e-09	-2.083566e+01	-1.702608e+02
2.790000e-06	-3.010843e-06	-2.696078e-09	-2.144539e+01	-1.773773e+02
2.800000e-06	-3.095292e-06	-2.804241e-09	-2.204690e+01	-1.842138e+02
2.810000e-06	-3.178656e-06	-2.907808e-09	-2.264068e+01	-1.907772e+02
2.820000e-06	-3.260930e-06	-3.005152e-09	-2.322669e+01	-1.970767e+02
2.830000e-06	-3.342160e-06	-3.097960e-09	-2.380527e+01	-2.031231e+02
2.840000e-06	-3.422386e-06	-3.185807e-09	-2.437669e+01	-2.089280e+02
2.850000e-06	-3.501336e-06	-3.268697e-09	-2.493903e+01	-2.145034e+02
2.860000e-06	-3.578776e-06	-3.348040e-09	-2.549062e+01	-2.198607e+02
2.870000e-06	-3.654689e-06	-3.424072e-09	-2.603132e+01	-2.250108e+02
2.880000e-06	-3.729207e-06	-3.499060e-09	-2.656209e+01	-2.299641e+02
2.890000e-06	-3.802440e-06	-3.573194e-09	-2.708371e+01	-2.347298e+02
2.900000e-06	-3.874401e-06	-3.646040e-09	-2.759627e+01	-2.393164e+02
2.910000e-06	-3.944884e-06	-3.714742e-09	-2.809830e+01	-2.437316e+02
2.920000e-06	-4.013783e-06	-3.778188e-09	-2.858905e+01	-2.479819e+02
2.930000e-06	-4.081253e-06	-3.841482e-09	-2.906962e+01	-2.520730e+02
2.940000e-06	-4.147289e-06	-3.903296e-09	-2.953997e+01	-2.560095e+02
