# Temperatura_=_56.49
# Concentracion g/m^3_=_15000.0
# C_Vs_to_Am_M_A/Vsm_=_65563218390.804596
# pendiente_HvsI_1/m_=_3716.3
# ordenada_HvsI_A/m_=_1297.0
# frecuencia_Hz_=_301575.45988012844

Tiempo_(s)	Campo_(V.s)	Magnetizacion_(V.s)	Campo_(kA/m)	Magnetizacion_(A/m)
0.000000e+00	-5.400328e-06	-5.470829e-09	-3.834437e+01	-3.573913e+02
1.000000e-08	-5.397515e-06	-5.473961e-09	-3.832440e+01	-3.572599e+02
2.000000e-08	-5.392941e-06	-5.469470e-09	-3.829192e+01	-3.570507e+02
3.000000e-08	-5.386719e-06	-5.465264e-09	-3.824774e+01	-3.567594e+02
4.000000e-08	-5.378939e-06	-5.459836e-09	-3.819250e+01	-3.563825e+02
5.000000e-08	-5.369245e-06	-5.449985e-09	-3.812367e+01	-3.559175e+02
6.000000e-08	-5.357469e-06	-5.438659e-09	-3.804006e+01	-3.553637e+02
7.000000e-08	-5.343876e-06	-5.417037e-09	-3.794354e+01	-3.547227e+02
8.000000e-08	-5.328212e-06	-5.415224e-09	-3.783232e+01	-3.539986e+02
9.000000e-08	-5.310241e-06	-5.481609e-09	-3.770472e+01	-3.531974e+02
1.000000e-07	-5.290215e-06	-5.465954e-09	-3.756253e+01	-3.523267e+02
1.100000e-07	-5.268359e-06	-5.405430e-09	-3.740734e+01	-3.513949e+02
1.200000e-07	-5.244790e-06	-5.389801e-09	-3.723999e+01	-3.504102e+02
1.300000e-07	-5.219617e-06	-5.250045e-09	-3.706125e+01	-3.493793e+02
1.400000e-07	-5.192778e-06	-5.277733e-09	-3.687068e+01	-3.483069e+02
1.500000e-07	-5.164364e-06	-5.446599e-09	-3.666894e+01	-3.471946e+02
1.600000e-07	-5.134531e-06	-5.253678e-09	-3.645711e+01	-3.460407e+02
1.700000e-07	-5.103084e-06	-5.283071e-09	-3.623382e+01	-3.448400e+02
1.800000e-07	-5.069446e-06	-5.339301e-09	-3.599498e+01	-3.435842e+02
1.900000e-07	-5.033954e-06	-5.104801e-09	-3.574297e+01	-3.422629e+02
2.000000e-07	-4.997070e-06	-5.240937e-09	-3.548108e+01	-3.408644e+02
2.100000e-07	-4.958375e-06	-5.286123e-09	-3.520633e+01	-3.393770e+02
2.200000e-07	-4.917807e-06	-5.130419e-09	-3.491829e+01	-3.377902e+02
2.300000e-07	-4.875306e-06	-5.165279e-09	-3.461652e+01	-3.360959e+02
2.400000e-07	-4.830909e-06	-5.100063e-09	-3.430128e+01	-3.342890e+02
2.500000e-07	-4.784716e-06	-5.044369e-09	-3.397329e+01	-3.323681e+02
2.600000e-07	-4.736557e-06	-5.071627e-09	-3.363134e+01	-3.303355e+02
2.700000e-07	-4.686355e-06	-4.999674e-09	-3.327489e+01	-3.281967e+02
2.800000e-07	-4.634102e-06	-4.987310e-09	-3.290387e+01	-3.259596e+02
2.900000e-07	-4.579983e-06	-4.938077e-09	-3.251961e+01	-3.236339e+02
3.000000e-07	-4.524379e-06	-4.881721e-09	-3.212480e+01	-3.212292e+02
3.100000e-07	-4.467097e-06	-4.879720e-09	-3.171808e+01	-3.187547e+02
3.200000e-07	-4.407950e-06	-4.865448e-09	-3.129811e+01	-3.162174e+02
3.300000e-07	-4.347247e-06	-4.800053e-09	-3.086710e+01	-3.136221e+02
3.400000e-07	-4.285065e-06	-4.699307e-09	-3.042558e+01	-3.109705e+02
3.500000e-07	-4.221565e-06	-4.704531e-09	-2.997470e+01	-3.082616e+02
3.600000e-07	-4.156531e-06	-4.686326e-09	-2.951294e+01	-3.054920e+02
3.700000e-07	-4.089718e-06	-4.628257e-09	-2.903854e+01	-3.026563e+02
3.800000e-07	-4.021402e-06	-4.596021e-09	-2.855347e+01	-2.997485e+02
3.900000e-07	-3.951756e-06	-4.523462e-09	-2.805896e+01	-2.967626e+02
4.000000e-07	-3.880872e-06	-4.465493e-09	-2.755566e+01	-2.936935e+02
4.100000e-07	-3.808774e-06	-4.419279e-09	-2.704374e+01	-2.905377e+02
4.200000e-07	-3.735209e-06	-4.392715e-09	-2.652139e+01	-2.872935e+02
4.300000e-07	-3.659986e-06	-4.353965e-09	-2.598728e+01	-2.839615e+02
4.400000e-07	-3.583275e-06	-4.278293e-09	-2.544261e+01	-2.805438e+02
4.500000e-07	-3.505145e-06	-4.209174e-09	-2.488785e+01	-2.770437e+02
4.600000e-07	-3.425602e-06	-4.158450e-09	-2.432307e+01	-2.734653e+02
4.700000e-07	-3.344844e-06	-4.122643e-09	-2.374966e+01	-2.698121e+02
4.800000e-07	-3.262884e-06	-4.066586e-09	-2.316771e+01	-2.660869e+02
4.900000e-07	-3.179751e-06	-4.000745e-09	-2.257743e+01	-2.622908e+02
5.000000e-07	-3.095594e-06	-3.940681e-09	-2.197989e+01	-2.584231e+02
5.100000e-07	-3.010521e-06	-3.874096e-09	-2.137584e+01	-2.544811e+02
5.200000e-07	-2.924528e-06	-3.813801e-09	-2.076525e+01	-2.504607e+02
5.300000e-07	-2.837517e-06	-3.753018e-09	-2.014744e+01	-2.463565e+02
5.400000e-07	-2.749541e-06	-3.683702e-09	-1.952278e+01	-2.421624e+02
5.500000e-07	-2.660526e-06	-3.610878e-09	-1.889074e+01	-2.378728e+02
5.600000e-07	-2.570294e-06	-3.539733e-09	-1.825006e+01	-2.334828e+02
5.700000e-07	-2.478994e-06	-3.482947e-09	-1.760180e+01	-2.289889e+02
5.800000e-07	-2.386898e-06	-3.423668e-09	-1.694788e+01	-2.243895e+02
5.900000e-07	-2.294045e-06	-3.350189e-09	-1.628858e+01	-2.196844e+02
6.000000e-07	-2.200365e-06	-3.265599e-09	-1.562342e+01	-2.148753e+02
6.100000e-07	-2.105887e-06	-3.185236e-09	-1.495259e+01	-2.099649e+02
6.200000e-07	-2.010721e-06	-3.111875e-09	-1.427688e+01	-2.049562e+02
6.300000e-07	-1.914841e-06	-3.038657e-09	-1.359610e+01	-1.998524e+02
6.400000e-07	-1.818196e-06	-2.963377e-09	-1.290988e+01	-1.946557e+02
6.500000e-07	-1.720755e-06	-2.878589e-09	-1.221801e+01	-1.893670e+02
6.600000e-07	-1.622524e-06	-2.788949e-09	-1.152054e+01	-1.839856e+02
6.700000e-07	-1.523630e-06	-2.700080e-09	-1.081835e+01	-1.785093e+02
6.800000e-07	-1.424251e-06	-2.619507e-09	-1.011272e+01	-1.729343e+02
6.900000e-07	-1.324465e-06	-2.539205e-09	-9.404204e+00	-1.672557e+02
7.000000e-07	-1.224322e-06	-2.450982e-09	-8.693151e+00	-1.614680e+02
7.100000e-07	-1.123820e-06	-2.357465e-09	-7.979547e+00	-1.555657e+02
7.200000e-07	-1.023003e-06	-2.262478e-09	-7.263710e+00	-1.495442e+02
7.300000e-07	-9.218771e-07	-2.168073e-09	-6.545675e+00	-1.433996e+02
7.400000e-07	-8.203958e-07	-2.072893e-09	-5.825120e+00	-1.371294e+02
7.500000e-07	-7.186276e-07	-1.976118e-09	-5.102528e+00	-1.307323e+02
7.600000e-07	-6.165919e-07	-1.874267e-09	-4.378036e+00	-1.242082e+02
7.700000e-07	-5.143512e-07	-1.770152e-09	-3.652088e+00	-1.175572e+02
7.800000e-07	-4.119480e-07	-1.668897e-09	-2.924986e+00	-1.107796e+02
7.900000e-07	-3.094178e-07	-1.569132e-09	-2.196983e+00	-1.038747e+02
8.000000e-07	-2.067987e-07	-1.463236e-09	-1.468349e+00	-9.684023e+01
8.100000e-07	-1.041358e-07	-1.351414e-09	-7.394039e-01	-8.967203e+01
8.200000e-07	-1.410628e-09	-1.239458e-09	-1.001599e-02	-8.236342e+01
8.300000e-07	1.013728e-07	-1.126629e-09	7.197852e-01	-7.490531e+01
8.400000e-07	2.041453e-07	-1.011910e-09	1.449509e+00	-6.728638e+01
8.500000e-07	3.068683e-07	-8.943830e-10	2.178881e+00	-5.949366e+01
8.600000e-07	4.094904e-07	-7.729001e-10	2.907536e+00	-5.151334e+01
8.700000e-07	5.120265e-07	-6.463316e-10	3.635582e+00	-4.333175e+01
8.800000e-07	6.144630e-07	-5.193859e-10	4.362919e+00	-3.493650e+01
8.900000e-07	7.167413e-07	-3.924015e-10	5.089134e+00	-2.631759e+01
9.000000e-07	8.187539e-07	-2.598343e-10	5.813462e+00	-1.746844e+01
9.100000e-07	9.204268e-07	-1.208521e-10	6.535378e+00	-8.386806e+00
9.200000e-07	1.021747e-06	2.364051e-11	7.254789e+00	9.246377e-01
9.300000e-07	1.122672e-06	1.727055e-10	7.971393e+00	1.045785e+01
9.400000e-07	1.223233e-06	3.251943e-10	8.685420e+00	2.019932e+01
9.500000e-07	1.323448e-06	4.775789e-10	9.396984e+00	3.013022e+01
9.600000e-07	1.423214e-06	6.296271e-10	1.010536e+01	4.022674e+01
9.700000e-07	1.522478e-06	7.837525e-10	1.081017e+01	5.046064e+01
9.800000e-07	1.621217e-06	9.414578e-10	1.151125e+01	6.079993e+01
9.900000e-07	1.719284e-06	1.101150e-09	1.220757e+01	7.120965e+01
1.000000e-06	1.816480e-06	1.262947e-09	1.289769e+01	8.165262e+01
1.010000e-06	1.912847e-06	1.427204e-09	1.358194e+01	9.209034e+01
1.020000e-06	2.008453e-06	1.591057e-09	1.426077e+01	1.024838e+02
1.030000e-06	2.103341e-06	1.752749e-09	1.493452e+01	1.127941e+02
1.040000e-06	2.197550e-06	1.909287e-09	1.560343e+01	1.229836e+02
1.050000e-06	2.290957e-06	2.061249e-09	1.626666e+01	1.330162e+02
1.060000e-06	2.383595e-06	2.209915e-09	1.692443e+01	1.428585e+02
1.070000e-06	2.475499e-06	2.353140e-09	1.757698e+01	1.524799e+02
1.080000e-06	2.566623e-06	2.495347e-09	1.822399e+01	1.618536e+02
1.090000e-06	2.656772e-06	2.636217e-09	1.886408e+01	1.709572e+02
1.100000e-06	2.745758e-06	2.773987e-09	1.949592e+01	1.797722e+02
1.110000e-06	2.833655e-06	2.904189e-09	2.012002e+01	1.882854e+02
1.120000e-06	2.920644e-06	3.028179e-09	2.073767e+01	1.964882e+02
1.130000e-06	3.006714e-06	3.149538e-09	2.134880e+01	2.043764e+02
1.140000e-06	3.091784e-06	3.266945e-09	2.195283e+01	2.119507e+02
1.150000e-06	3.175908e-06	3.377155e-09	2.255014e+01	2.192155e+02
1.160000e-06	3.259090e-06	3.479712e-09	2.314077e+01	2.261787e+02
1.170000e-06	3.341081e-06	3.577727e-09	2.372294e+01	2.328511e+02
1.180000e-06	3.421662e-06	3.672320e-09	2.429509e+01	2.392455e+02
1.190000e-06	3.501100e-06	3.765985e-09	2.485913e+01	2.453761e+02
1.200000e-06	3.579401e-06	3.857307e-09	2.541510e+01	2.512581e+02
1.210000e-06	3.656384e-06	3.946712e-09	2.596171e+01	2.569063e+02
1.220000e-06	3.732057e-06	4.032528e-09	2.649901e+01	2.623354e+02
1.230000e-06	3.806233e-06	4.113002e-09	2.702569e+01	2.675589e+02
1.240000e-06	3.878737e-06	4.189208e-09	2.754050e+01	2.725892e+02
1.250000e-06	3.949712e-06	4.261759e-09	2.804445e+01	2.774372e+02
1.260000e-06	4.019357e-06	4.331126e-09	2.853895e+01	2.821120e+02
1.270000e-06	4.087675e-06	4.399488e-09	2.902404e+01	2.866210e+02
1.280000e-06	4.154597e-06	4.463762e-09	2.949921e+01	2.909701e+02
1.290000e-06	4.219846e-06	4.525645e-09	2.996250e+01	2.951632e+02
1.300000e-06	4.283429e-06	4.586581e-09	3.041396e+01	2.992032e+02
1.310000e-06	4.345579e-06	4.647225e-09	3.085525e+01	3.030914e+02
1.320000e-06	4.406374e-06	4.705622e-09	3.128692e+01	3.068282e+02
1.330000e-06	4.465804e-06	4.756712e-09	3.170890e+01	3.104133e+02
1.340000e-06	4.523517e-06	4.805280e-09	3.211868e+01	3.138461e+02
1.350000e-06	4.579377e-06	4.854416e-09	3.251531e+01	3.171259e+02
1.360000e-06	4.633592e-06	4.901434e-09	3.290025e+01	3.202524e+02
1.370000e-06	4.686154e-06	4.943715e-09	3.327346e+01	3.232260e+02
1.380000e-06	4.736694e-06	4.981971e-09	3.363232e+01	3.260480e+02
1.390000e-06	4.785139e-06	5.019919e-09	3.397630e+01	3.287207e+02
1.400000e-06	4.831902e-06	5.055401e-09	3.430833e+01	3.312479e+02
1.410000e-06	4.877072e-06	5.089437e-09	3.462906e+01	3.336341e+02
1.420000e-06	4.920664e-06	5.123249e-09	3.493858e+01	3.358849e+02
1.430000e-06	4.962433e-06	5.153294e-09	3.523515e+01	3.380064e+02
1.440000e-06	5.002270e-06	5.180019e-09	3.551800e+01	3.400050e+02
1.450000e-06	5.040457e-06	5.205720e-09	3.578915e+01	3.418869e+02
1.460000e-06	5.077050e-06	5.232826e-09	3.604897e+01	3.436573e+02
1.470000e-06	5.111959e-06	5.259599e-09	3.629684e+01	3.453207e+02
1.480000e-06	5.144894e-06	5.282916e-09	3.653069e+01	3.468804e+02
1.490000e-06	5.175965e-06	5.301271e-09	3.675130e+01	3.483381e+02
1.500000e-06	5.205376e-06	5.317233e-09	3.696014e+01	3.496945e+02
1.510000e-06	5.233132e-06	5.333778e-09	3.715721e+01	3.509493e+02
1.520000e-06	5.258930e-06	5.350587e-09	3.734039e+01	3.521016e+02
1.530000e-06	5.282581e-06	5.366947e-09	3.750832e+01	3.531505e+02
1.540000e-06	5.304359e-06	5.381450e-09	3.766295e+01	3.540953e+02
1.550000e-06	5.324474e-06	5.393562e-09	3.780578e+01	3.549364e+02
1.560000e-06	5.342787e-06	5.405635e-09	3.793580e+01	3.556752e+02
1.570000e-06	5.359002e-06	5.417968e-09	3.805094e+01	3.563143e+02
1.580000e-06	5.373239e-06	5.428240e-09	3.815202e+01	3.568577e+02
1.590000e-06	5.385548e-06	5.434631e-09	3.823942e+01	3.573102e+02
1.600000e-06	5.395637e-06	5.438961e-09	3.831106e+01	3.576772e+02
1.610000e-06	5.403559e-06	5.443834e-09	3.836731e+01	3.579640e+02
1.620000e-06	5.409629e-06	5.449469e-09	3.841041e+01	3.581752e+02
1.630000e-06	5.413955e-06	5.454119e-09	3.844113e+01	3.583143e+02
1.640000e-06	5.416311e-06	5.456243e-09	3.845785e+01	3.583832e+02
1.650000e-06	5.416613e-06	5.458361e-09	3.846000e+01	3.583819e+02
1.660000e-06	5.415105e-06	5.453852e-09	3.844929e+01	3.583089e+02
1.670000e-06	5.411945e-06	5.446232e-09	3.842686e+01	3.581610e+02
1.680000e-06	5.407181e-06	5.445005e-09	3.839303e+01	3.579343e+02
1.690000e-06	5.400461e-06	5.441733e-09	3.834531e+01	3.576248e+02
1.700000e-06	5.391882e-06	5.436075e-09	3.828440e+01	3.572290e+02
1.710000e-06	5.381775e-06	5.431860e-09	3.821264e+01	3.567447e+02
1.720000e-06	5.369998e-06	5.435985e-09	3.812901e+01	3.561719e+02
1.730000e-06	5.356220e-06	5.448433e-09	3.803119e+01	3.555125e+02
1.740000e-06	5.340299e-06	5.343192e-09	3.791814e+01	3.547711e+02
1.750000e-06	5.322040e-06	5.315326e-09	3.778850e+01	3.539541e+02
1.760000e-06	5.301110e-06	5.351973e-09	3.763988e+01	3.530694e+02
1.770000e-06	5.277870e-06	5.334286e-09	3.747487e+01	3.521254e+02
1.780000e-06	5.253332e-06	5.482563e-09	3.730064e+01	3.511301e+02
1.790000e-06	5.228170e-06	5.352628e-09	3.712198e+01	3.500899e+02
1.800000e-06	5.201590e-06	5.172951e-09	3.693326e+01	3.490087e+02
1.810000e-06	5.172713e-06	5.381992e-09	3.672822e+01	3.478876e+02
1.820000e-06	5.142059e-06	5.223967e-09	3.651056e+01	3.467240e+02
1.830000e-06	5.109705e-06	5.188320e-09	3.628084e+01	3.455121e+02
1.840000e-06	5.075275e-06	5.409147e-09	3.603637e+01	3.442430e+02
1.850000e-06	5.039352e-06	5.130492e-09	3.578130e+01	3.429060e+02
1.860000e-06	5.001694e-06	5.132883e-09	3.551392e+01	3.414892e+02
1.870000e-06	4.962051e-06	5.240709e-09	3.523244e+01	3.399812e+02
1.880000e-06	4.920779e-06	5.047396e-09	3.493939e+01	3.383717e+02
1.890000e-06	4.877646e-06	5.185050e-09	3.463313e+01	3.366534e+02
1.900000e-06	4.832911e-06	5.112674e-09	3.431550e+01	3.348219e+02
1.910000e-06	4.786380e-06	5.026754e-09	3.398511e+01	3.328765e+02
1.920000e-06	4.737660e-06	5.109591e-09	3.363918e+01	3.308204e+02
1.930000e-06	4.687366e-06	4.885560e-09	3.328207e+01	3.286596e+02
1.940000e-06	4.635390e-06	4.987147e-09	3.291302e+01	3.264026e+02
1.950000e-06	4.581361e-06	5.001682e-09	3.252939e+01	3.240589e+02
1.960000e-06	4.525454e-06	4.841989e-09	3.213243e+01	3.216384e+02
1.970000e-06	4.467739e-06	4.846334e-09	3.172264e+01	3.191497e+02
1.980000e-06	4.408578e-06	4.777598e-09	3.130257e+01	3.165995e+02
1.990000e-06	4.347947e-06	4.837332e-09	3.087206e+01	3.139919e+02
2.000000e-06	4.285564e-06	4.726153e-09	3.042912e+01	3.113280e+02
2.010000e-06	4.221577e-06	4.655527e-09	2.997479e+01	3.086063e+02
2.020000e-06	4.156067e-06	4.695957e-09	2.950964e+01	3.058228e+02
2.030000e-06	4.089158e-06	4.552481e-09	2.903457e+01	3.029720e+02
2.040000e-06	4.020911e-06	4.560957e-09	2.854998e+01	3.000478e+02
2.050000e-06	3.951102e-06	4.529426e-09	2.805431e+01	2.970442e+02
2.060000e-06	3.879725e-06	4.500455e-09	2.754752e+01	2.939566e+02
2.070000e-06	3.806984e-06	4.427172e-09	2.703102e+01	2.907817e+02
2.080000e-06	3.732947e-06	4.305637e-09	2.650533e+01	2.875184e+02
2.090000e-06	3.657535e-06	4.330121e-09	2.596988e+01	2.841676e+02
2.100000e-06	3.580648e-06	4.280250e-09	2.542396e+01	2.807317e+02
2.110000e-06	3.502157e-06	4.235098e-09	2.486664e+01	2.772144e+02
2.120000e-06	3.422361e-06	4.158278e-09	2.430005e+01	2.736194e+02
2.130000e-06	3.341480e-06	4.099791e-09	2.372577e+01	2.699505e+02
2.140000e-06	3.259414e-06	4.050975e-09	2.314307e+01	2.662098e+02
2.150000e-06	3.176314e-06	3.971371e-09	2.255303e+01	2.623983e+02
2.160000e-06	3.092250e-06	3.949334e-09	2.195614e+01	2.585148e+02
2.170000e-06	3.007038e-06	3.886203e-09	2.135110e+01	2.545563e+02
2.180000e-06	2.920398e-06	3.818395e-09	2.073593e+01	2.505182e+02
2.190000e-06	2.832560e-06	3.738986e-09	2.011225e+01	2.463950e+02
2.200000e-06	2.743801e-06	3.686513e-09	1.948203e+01	2.421807e+02
2.210000e-06	2.654110e-06	3.641434e-09	1.884519e+01	2.378698e+02
2.220000e-06	2.563537e-06	3.558039e-09	1.820208e+01	2.334576e+02
2.230000e-06	2.472118e-06	3.479063e-09	1.755297e+01	2.289410e+02
2.240000e-06	2.379912e-06	3.404759e-09	1.689827e+01	2.243187e+02
2.250000e-06	2.286837e-06	3.347599e-09	1.623741e+01	2.195910e+02
2.260000e-06	2.192838e-06	3.278829e-09	1.556997e+01	2.147597e+02
2.270000e-06	2.097888e-06	3.208617e-09	1.489580e+01	2.098277e+02
2.280000e-06	2.002021e-06	3.127933e-09	1.421510e+01	2.047983e+02
2.290000e-06	1.905438e-06	3.039686e-09	1.352933e+01	1.996742e+02
2.300000e-06	1.808307e-06	2.958770e-09	1.283966e+01	1.944576e+02
2.310000e-06	1.710679e-06	2.889771e-09	1.214647e+01	1.891489e+02
2.320000e-06	1.612500e-06	2.819763e-09	1.144936e+01	1.837473e+02
2.330000e-06	1.513783e-06	2.727244e-09	1.074843e+01	1.782500e+02
2.340000e-06	1.414592e-06	2.632103e-09	1.004414e+01	1.726531e+02
2.350000e-06	1.314992e-06	2.541984e-09	9.336943e+00	1.669513e+02
2.360000e-06	1.215049e-06	2.461116e-09	8.627307e+00	1.611393e+02
2.370000e-06	1.114879e-06	2.378979e-09	7.916059e+00	1.552117e+02
2.380000e-06	1.014337e-06	2.287678e-09	7.202174e+00	1.491639e+02
2.390000e-06	9.132556e-07	2.189280e-09	6.484460e+00	1.429924e+02
2.400000e-06	8.117764e-07	2.088503e-09	5.763919e+00	1.366948e+02
2.410000e-06	7.099230e-07	1.992546e-09	5.040722e+00	1.302704e+02
2.420000e-06	6.078878e-07	1.898637e-09	4.316233e+00	1.237188e+02
2.430000e-06	5.056639e-07	1.798923e-09	3.590405e+00	1.170406e+02
2.440000e-06	4.031389e-07	1.692325e-09	2.862438e+00	1.102356e+02
2.450000e-06	3.004571e-07	1.583663e-09	2.133359e+00	1.033029e+02
2.460000e-06	1.976672e-07	1.474292e-09	1.403512e+00	9.624008e+01
2.470000e-06	9.471304e-08	1.367290e-09	6.724983e-01	8.904225e+01
2.480000e-06	-8.387548e-09	1.256640e-09	-5.955476e-02	8.170226e+01
2.490000e-06	-1.114516e-07	1.136089e-09	-7.913484e-01	7.421052e+01
2.500000e-06	-2.144209e-07	1.014149e-09	-1.522470e+00	6.655530e+01
2.510000e-06	-3.173454e-07	8.979764e-10	-2.253272e+00	5.872337e+01
2.520000e-06	-4.201075e-07	7.832129e-10	-2.982922e+00	5.070086e+01
2.530000e-06	-5.226532e-07	6.596809e-10	-3.711035e+00	4.247427e+01
2.540000e-06	-6.250782e-07	5.272241e-10	-4.438292e+00	3.403165e+01
2.550000e-06	-7.272176e-07	3.918148e-10	-5.163520e+00	2.536363e+01
2.560000e-06	-8.289060e-07	2.535267e-10	-5.885546e+00	1.646451e+01
2.570000e-06	-9.302079e-07	1.132997e-10	-6.604827e+00	7.333039e+00
2.580000e-06	-1.031081e-06	-2.700400e-11	-7.321064e+00	-2.026976e+00
2.590000e-06	-1.131530e-06	-1.707376e-10	-8.034292e+00	-1.160632e+01
2.600000e-06	-1.231583e-06	-3.214116e-10	-8.744708e+00	-2.139034e+01
2.610000e-06	-1.331204e-06	-4.745741e-10	-9.452054e+00	-3.135908e+01
2.620000e-06	-1.430427e-06	-6.266989e-10	-1.015657e+01	-4.148774e+01
2.630000e-06	-1.529243e-06	-7.788106e-10	-1.085820e+01	-5.174722e+01
2.640000e-06	-1.627555e-06	-9.335554e-10	-1.155625e+01	-6.210482e+01
2.650000e-06	-1.725239e-06	-1.092157e-09	-1.224985e+01	-7.252503e+01
2.660000e-06	-1.822312e-06	-1.251719e-09	-1.293910e+01	-8.297034e+01
2.670000e-06	-1.918803e-06	-1.411246e-09	-1.362423e+01	-9.340205e+01
2.680000e-06	-2.014698e-06	-1.568108e-09	-1.430512e+01	-1.037811e+02
2.690000e-06	-2.109938e-06	-1.720775e-09	-1.498136e+01	-1.140689e+02
2.700000e-06	-2.204308e-06	-1.873567e-09	-1.565142e+01	-1.242279e+02
2.710000e-06	-2.297657e-06	-2.027917e-09	-1.631423e+01	-1.342226e+02
2.720000e-06	-2.390047e-06	-2.178819e-09	-1.697023e+01	-1.440202e+02
2.730000e-06	-2.481575e-06	-2.322908e-09	-1.762012e+01	-1.535908e+02
2.740000e-06	-2.572228e-06	-2.462622e-09	-1.826379e+01	-1.629086e+02
2.750000e-06	-2.661976e-06	-2.600769e-09	-1.890104e+01	-1.719519e+02
2.760000e-06	-2.750822e-06	-2.736391e-09	-1.953188e+01	-1.807034e+02
2.770000e-06	-2.838804e-06	-2.866157e-09	-2.015658e+01	-1.891509e+02
2.780000e-06	-2.925931e-06	-2.989148e-09	-2.077522e+01	-1.972866e+02
2.790000e-06	-3.012011e-06	-3.107050e-09	-2.138641e+01	-2.051076e+02
2.800000e-06	-3.096852e-06	-3.222969e-09	-2.198882e+01	-2.126152e+02
2.810000e-06	-3.180545e-06	-3.337273e-09	-2.258307e+01	-2.198148e+02
2.820000e-06	-3.263215e-06	-3.446203e-09	-2.317006e+01	-2.267148e+02
2.830000e-06	-3.344818e-06	-3.547316e-09	-2.374947e+01	-2.333267e+02
2.840000e-06	-3.425306e-06	-3.642052e-09	-2.432097e+01	-2.396635e+02
2.850000e-06	-3.504668e-06	-3.732292e-09	-2.488447e+01	-2.457398e+02
2.860000e-06	-3.582599e-06	-3.820667e-09	-2.543780e+01	-2.515706e+02
2.870000e-06	-3.658946e-06	-3.907605e-09	-2.597990e+01	-2.571709e+02
2.880000e-06	-3.733872e-06	-3.990847e-09	-2.651190e+01	-2.625550e+02
2.890000e-06	-3.807357e-06	-4.069727e-09	-2.703367e+01	-2.677363e+02
2.900000e-06	-3.879511e-06	-4.145646e-09	-2.754600e+01	-2.727269e+02
2.910000e-06	-3.950351e-06	-4.219432e-09	-2.804899e+01	-2.775372e+02
2.920000e-06	-4.019631e-06	-4.290365e-09	-2.854090e+01	-2.821761e+02
2.930000e-06	-4.087388e-06	-4.358307e-09	-2.902200e+01	-2.866506e+02
2.940000e-06	-4.153752e-06	-4.424326e-09	-2.949321e+01	-2.909661e+02
