# Temperatura_=_33.59
# Concentracion g/m^3_=_15000.0
# C_Vs_to_Am_M_A/Vsm_=_65563218390.804596
# pendiente_HvsI_1/m_=_3716.3
# ordenada_HvsI_A/m_=_1297.0
# frecuencia_Hz_=_301574.25037436496

Tiempo_(s)	Campo_(V.s)	Magnetizacion_(V.s)	Campo_(kA/m)	Magnetizacion_(A/m)
0.000000e+00	-5.360257e-06	-4.763370e-09	-3.834424e+01	-3.099539e+02
1.000000e-08	-5.357896e-06	-4.764466e-09	-3.832735e+01	-3.098407e+02
2.000000e-08	-5.353729e-06	-4.758970e-09	-3.829754e+01	-3.096688e+02
3.000000e-08	-5.347950e-06	-4.753391e-09	-3.825620e+01	-3.094355e+02
4.000000e-08	-5.340563e-06	-4.745141e-09	-3.820335e+01	-3.091380e+02
5.000000e-08	-5.331384e-06	-4.732865e-09	-3.813769e+01	-3.087739e+02
6.000000e-08	-5.320121e-06	-4.721402e-09	-3.805713e+01	-3.083422e+02
7.000000e-08	-5.306948e-06	-4.703919e-09	-3.796290e+01	-3.078438e+02
8.000000e-08	-5.291806e-06	-4.702171e-09	-3.785458e+01	-3.072816e+02
9.000000e-08	-5.274418e-06	-4.766511e-09	-3.773019e+01	-3.066603e+02
1.000000e-07	-5.254940e-06	-4.762732e-09	-3.759086e+01	-3.059867e+02
1.100000e-07	-5.233591e-06	-4.704483e-09	-3.743814e+01	-3.052680e+02
1.200000e-07	-5.210500e-06	-4.679209e-09	-3.727296e+01	-3.045118e+02
1.300000e-07	-5.185861e-06	-4.557754e-09	-3.709671e+01	-3.037245e+02
1.400000e-07	-5.159632e-06	-4.596046e-09	-3.690908e+01	-3.029104e+02
1.500000e-07	-5.131703e-06	-4.751494e-09	-3.670929e+01	-3.020710e+02
1.600000e-07	-5.102282e-06	-4.568230e-09	-3.649883e+01	-3.012048e+02
1.700000e-07	-5.071377e-06	-4.582295e-09	-3.627775e+01	-3.003067e+02
1.800000e-07	-5.038427e-06	-4.642172e-09	-3.604205e+01	-2.993685e+02
1.900000e-07	-5.003520e-06	-4.450207e-09	-3.579234e+01	-2.983797e+02
2.000000e-07	-4.967163e-06	-4.596119e-09	-3.553227e+01	-2.973287e+02
2.100000e-07	-4.929084e-06	-4.634830e-09	-3.525987e+01	-2.962036e+02
2.200000e-07	-4.889225e-06	-4.454116e-09	-3.497474e+01	-2.949938e+02
2.300000e-07	-4.847452e-06	-4.497498e-09	-3.467592e+01	-2.936909e+02
2.400000e-07	-4.803714e-06	-4.470209e-09	-3.436305e+01	-2.922898e+02
2.500000e-07	-4.758238e-06	-4.425950e-09	-3.403774e+01	-2.907888e+02
2.600000e-07	-4.710970e-06	-4.453381e-09	-3.369961e+01	-2.891900e+02
2.700000e-07	-4.661683e-06	-4.350018e-09	-3.334704e+01	-2.874986e+02
2.800000e-07	-4.610230e-06	-4.326591e-09	-3.297897e+01	-2.857223e+02
2.900000e-07	-4.556857e-06	-4.331488e-09	-3.259717e+01	-2.838699e+02
3.000000e-07	-4.501885e-06	-4.307598e-09	-3.220393e+01	-2.819505e+02
3.100000e-07	-4.445333e-06	-4.301985e-09	-3.179939e+01	-2.799722e+02
3.200000e-07	-4.386972e-06	-4.273480e-09	-3.138191e+01	-2.779409e+02
3.300000e-07	-4.326944e-06	-4.202923e-09	-3.095251e+01	-2.758601e+02
3.400000e-07	-4.265461e-06	-4.120939e-09	-3.051269e+01	-2.737301e+02
3.500000e-07	-4.202590e-06	-4.148848e-09	-3.006294e+01	-2.715486e+02
3.600000e-07	-4.138366e-06	-4.141975e-09	-2.960352e+01	-2.693109e+02
3.700000e-07	-4.072472e-06	-4.067200e-09	-2.913215e+01	-2.670108e+02
3.800000e-07	-4.004872e-06	-4.037510e-09	-2.864858e+01	-2.646417e+02
3.900000e-07	-3.935875e-06	-3.993511e-09	-2.815502e+01	-2.621975e+02
4.000000e-07	-3.865618e-06	-3.953982e-09	-2.765244e+01	-2.596733e+02
4.100000e-07	-3.794249e-06	-3.915769e-09	-2.714191e+01	-2.570664e+02
4.200000e-07	-3.721635e-06	-3.881085e-09	-2.662247e+01	-2.543762e+02
4.300000e-07	-3.647365e-06	-3.841056e-09	-2.609118e+01	-2.516043e+02
4.400000e-07	-3.571438e-06	-3.775492e-09	-2.554804e+01	-2.487541e+02
4.500000e-07	-3.494186e-06	-3.729608e-09	-2.499543e+01	-2.458302e+02
4.600000e-07	-3.415583e-06	-3.700304e-09	-2.443314e+01	-2.428375e+02
4.700000e-07	-3.335537e-06	-3.662057e-09	-2.386054e+01	-2.397802e+02
4.800000e-07	-3.254250e-06	-3.595232e-09	-2.327906e+01	-2.366613e+02
4.900000e-07	-3.171814e-06	-3.538053e-09	-2.268936e+01	-2.334818e+02
5.000000e-07	-3.088372e-06	-3.508436e-09	-2.209246e+01	-2.302408e+02
5.100000e-07	-3.004133e-06	-3.460483e-09	-2.148986e+01	-2.269350e+02
5.200000e-07	-2.918919e-06	-3.404748e-09	-2.088029e+01	-2.235597e+02
5.300000e-07	-2.832591e-06	-3.343410e-09	-2.026275e+01	-2.201087e+02
5.400000e-07	-2.745305e-06	-3.273240e-09	-1.963835e+01	-2.165758e+02
5.500000e-07	-2.657207e-06	-3.213268e-09	-1.900815e+01	-2.129550e+02
5.600000e-07	-2.568040e-06	-3.163144e-09	-1.837030e+01	-2.092417e+02
5.700000e-07	-2.477569e-06	-3.117229e-09	-1.772312e+01	-2.054326e+02
5.800000e-07	-2.386182e-06	-3.056329e-09	-1.706939e+01	-2.015268e+02
5.900000e-07	-2.294077e-06	-2.988931e-09	-1.641053e+01	-1.975249e+02
6.000000e-07	-2.201120e-06	-2.925486e-09	-1.574556e+01	-1.934293e+02
6.100000e-07	-2.107435e-06	-2.863515e-09	-1.507540e+01	-1.892435e+02
6.200000e-07	-2.013066e-06	-2.798113e-09	-1.440033e+01	-1.849713e+02
6.300000e-07	-1.917979e-06	-2.729676e-09	-1.372014e+01	-1.806163e+02
6.400000e-07	-1.822289e-06	-2.660813e-09	-1.303562e+01	-1.761809e+02
6.500000e-07	-1.725985e-06	-2.588073e-09	-1.234671e+01	-1.716664e+02
6.600000e-07	-1.628940e-06	-2.518926e-09	-1.165251e+01	-1.670721e+02
6.700000e-07	-1.531036e-06	-2.448636e-09	-1.095216e+01	-1.623957e+02
6.800000e-07	-1.432365e-06	-2.373381e-09	-1.024633e+01	-1.576332e+02
6.900000e-07	-1.333209e-06	-2.293527e-09	-9.537020e+00	-1.527799e+02
7.000000e-07	-1.233704e-06	-2.215842e-09	-8.825216e+00	-1.478301e+02
7.100000e-07	-1.133912e-06	-2.141315e-09	-8.111361e+00	-1.427786e+02
7.200000e-07	-1.033885e-06	-2.062884e-09	-7.395826e+00	-1.376205e+02
7.300000e-07	-9.335463e-07	-1.982007e-09	-6.678061e+00	-1.323522e+02
7.400000e-07	-8.328954e-07	-1.899628e-09	-5.958061e+00	-1.269711e+02
7.500000e-07	-7.319580e-07	-1.813802e-09	-5.236012e+00	-1.214759e+02
7.600000e-07	-6.307044e-07	-1.725078e-09	-4.511701e+00	-1.158663e+02
7.700000e-07	-5.292384e-07	-1.636739e-09	-3.785871e+00	-1.101425e+02
7.800000e-07	-4.276123e-07	-1.547774e-09	-3.058896e+00	-1.043048e+02
7.900000e-07	-3.258192e-07	-1.456603e-09	-2.330726e+00	-9.835281e+01
8.000000e-07	-2.238847e-07	-1.362756e-09	-1.601544e+00	-9.228539e+01
8.100000e-07	-1.218735e-07	-1.269524e-09	-8.718141e-01	-8.609981e+01
8.200000e-07	-1.985577e-08	-1.176658e-09	-1.420369e-01	-7.979176e+01
8.300000e-07	8.220128e-08	-1.079658e-09	5.880213e-01	-7.335528e+01
8.400000e-07	1.842466e-07	-9.803766e-10	1.317996e+00	-6.678296e+01
8.500000e-07	2.862157e-07	-8.789459e-10	2.047424e+00	-6.006629e+01
8.600000e-07	3.881159e-07	-7.735358e-10	2.776361e+00	-5.319616e+01
8.700000e-07	4.899501e-07	-6.627320e-10	3.504825e+00	-4.616340e+01
8.800000e-07	5.916648e-07	-5.515284e-10	4.232434e+00	-3.895942e+01
8.900000e-07	6.931944e-07	-4.413258e-10	4.958720e+00	-3.157674e+01
9.000000e-07	7.945314e-07	-3.287349e-10	5.683627e+00	-2.400952e+01
9.100000e-07	8.955260e-07	-2.126497e-10	6.406085e+00	-1.625402e+01
9.200000e-07	9.960862e-07	-9.408901e-11	7.125436e+00	-8.308944e+00
9.300000e-07	1.096328e-06	2.546951e-11	7.842507e+00	-1.757506e-01
9.400000e-07	1.196292e-06	1.513821e-10	8.557592e+00	8.141053e+00
9.500000e-07	1.295982e-06	2.817819e-10	9.270720e+00	1.663368e+01
9.600000e-07	1.395336e-06	4.153598e-10	9.981439e+00	2.529082e+01
9.700000e-07	1.494130e-06	5.498320e-10	1.068816e+01	3.409743e+01
9.800000e-07	1.592157e-06	6.834693e-10	1.138939e+01	4.303457e+01
9.900000e-07	1.689301e-06	8.188677e-10	1.208430e+01	5.207930e+01
1.000000e-06	1.785615e-06	9.590109e-10	1.277328e+01	6.120470e+01
1.010000e-06	1.881289e-06	1.102664e-09	1.345768e+01	7.038012e+01
1.020000e-06	1.976354e-06	1.245844e-09	1.413771e+01	7.957161e+01
1.030000e-06	2.070720e-06	1.386917e-09	1.481276e+01	8.874256e+01
1.040000e-06	2.164329e-06	1.524330e-09	1.548238e+01	9.785469e+01
1.050000e-06	2.257193e-06	1.658980e-09	1.614668e+01	1.068692e+02
1.060000e-06	2.349376e-06	1.792547e-09	1.680610e+01	1.157479e+02
1.070000e-06	2.440916e-06	1.923981e-09	1.746092e+01	1.244549e+02
1.080000e-06	2.531676e-06	2.051587e-09	1.811017e+01	1.329578e+02
1.090000e-06	2.621248e-06	2.175857e-09	1.875092e+01	1.412287e+02
1.100000e-06	2.709645e-06	2.300693e-09	1.938327e+01	1.492454e+02
1.110000e-06	2.797168e-06	2.420230e-09	2.000935e+01	1.569919e+02
1.120000e-06	2.883794e-06	2.531576e-09	2.062903e+01	1.644585e+02
1.130000e-06	2.969422e-06	2.639500e-09	2.124156e+01	1.716417e+02
1.140000e-06	3.054040e-06	2.747518e-09	2.184687e+01	1.785436e+02
1.150000e-06	3.137809e-06	2.851052e-09	2.244610e+01	1.851709e+02
1.160000e-06	3.220603e-06	2.946992e-09	2.303837e+01	1.915338e+02
1.170000e-06	3.302103e-06	3.038768e-09	2.362137e+01	1.976448e+02
1.180000e-06	3.382347e-06	3.126765e-09	2.419539e+01	2.035174e+02
1.190000e-06	3.461377e-06	3.211987e-09	2.476073e+01	2.091650e+02
1.200000e-06	3.539209e-06	3.295576e-09	2.531749e+01	2.146002e+02
1.210000e-06	3.615842e-06	3.378211e-09	2.586568e+01	2.198340e+02
1.220000e-06	3.691172e-06	3.456450e-09	2.640455e+01	2.248755e+02
1.230000e-06	3.764924e-06	3.529904e-09	2.693213e+01	2.297322e+02
1.240000e-06	3.837035e-06	3.600991e-09	2.744797e+01	2.344096e+02
1.250000e-06	3.907774e-06	3.671117e-09	2.795399e+01	2.389123e+02
1.260000e-06	3.977171e-06	3.736704e-09	2.845042e+01	2.432436e+02
1.270000e-06	4.045301e-06	3.799086e-09	2.893779e+01	2.474065e+02
1.280000e-06	4.112034e-06	3.859815e-09	2.941516e+01	2.514037e+02
1.290000e-06	4.177043e-06	3.918016e-09	2.988020e+01	2.552379e+02
1.300000e-06	4.240446e-06	3.972090e-09	3.033375e+01	2.589119e+02
1.310000e-06	4.302445e-06	4.023673e-09	3.077725e+01	2.624286e+02
1.320000e-06	4.363061e-06	4.073628e-09	3.121087e+01	2.657909e+02
1.330000e-06	4.422267e-06	4.120543e-09	3.163439e+01	2.690012e+02
1.340000e-06	4.479809e-06	4.164768e-09	3.204601e+01	2.720621e+02
1.350000e-06	4.535600e-06	4.206722e-09	3.244511e+01	2.749756e+02
1.360000e-06	4.589809e-06	4.247536e-09	3.283289e+01	2.777435e+02
1.370000e-06	4.642315e-06	4.284387e-09	3.320849e+01	2.803677e+02
1.380000e-06	4.692795e-06	4.317578e-09	3.356960e+01	2.828502e+02
1.390000e-06	4.741253e-06	4.350807e-09	3.391623e+01	2.851935e+02
1.400000e-06	4.787943e-06	4.383558e-09	3.425023e+01	2.874009e+02
1.410000e-06	4.833050e-06	4.412921e-09	3.457290e+01	2.894768e+02
1.420000e-06	4.876674e-06	4.439951e-09	3.488496e+01	2.914263e+02
1.430000e-06	4.918509e-06	4.466777e-09	3.518422e+01	2.932558e+02
1.440000e-06	4.958430e-06	4.492130e-09	3.546980e+01	2.949722e+02
1.450000e-06	4.996704e-06	4.515450e-09	3.574359e+01	2.965828e+02
1.460000e-06	5.033405e-06	4.537087e-09	3.600612e+01	2.980948e+02
1.470000e-06	5.068387e-06	4.558273e-09	3.625637e+01	2.995146e+02
1.480000e-06	5.101441e-06	4.578229e-09	3.649282e+01	3.008474e+02
1.490000e-06	5.132608e-06	4.595611e-09	3.671577e+01	3.020968e+02
1.500000e-06	5.162074e-06	4.610913e-09	3.692655e+01	3.032651e+02
1.510000e-06	5.189933e-06	4.624788e-09	3.712584e+01	3.043523e+02
1.520000e-06	5.215866e-06	4.638695e-09	3.731135e+01	3.053576e+02
1.530000e-06	5.239689e-06	4.652718e-09	3.748176e+01	3.062789e+02
1.540000e-06	5.261618e-06	4.666474e-09	3.763863e+01	3.071138e+02
1.550000e-06	5.281820e-06	4.678812e-09	3.778315e+01	3.078602e+02
1.560000e-06	5.300232e-06	4.689863e-09	3.791485e+01	3.085169e+02
1.570000e-06	5.316655e-06	4.700423e-09	3.803233e+01	3.090840e+02
1.580000e-06	5.331129e-06	4.708645e-09	3.813588e+01	3.095631e+02
1.590000e-06	5.343662e-06	4.714109e-09	3.822552e+01	3.099574e+02
1.600000e-06	5.354036e-06	4.718815e-09	3.829974e+01	3.102714e+02
1.610000e-06	5.362261e-06	4.723586e-09	3.835857e+01	3.105105e+02
1.620000e-06	5.368528e-06	4.728812e-09	3.840340e+01	3.106801e+02
1.630000e-06	5.373049e-06	4.733767e-09	3.843574e+01	3.107856e+02
1.640000e-06	5.375765e-06	4.737183e-09	3.845517e+01	3.108310e+02
1.650000e-06	5.376440e-06	4.740058e-09	3.846000e+01	3.108190e+02
1.660000e-06	5.375262e-06	4.736166e-09	3.845158e+01	3.107504e+02
1.670000e-06	5.372413e-06	4.729392e-09	3.843119e+01	3.106246e+02
1.680000e-06	5.367907e-06	4.729171e-09	3.839896e+01	3.104397e+02
1.690000e-06	5.361528e-06	4.727841e-09	3.835333e+01	3.101926e+02
1.700000e-06	5.353266e-06	4.725040e-09	3.829423e+01	3.098808e+02
1.710000e-06	5.343433e-06	4.722395e-09	3.822389e+01	3.095021e+02
1.720000e-06	5.331996e-06	4.725894e-09	3.814208e+01	3.090558e+02
1.730000e-06	5.318712e-06	4.740572e-09	3.804705e+01	3.085432e+02
1.740000e-06	5.303344e-06	4.651570e-09	3.793712e+01	3.079677e+02
1.750000e-06	5.285610e-06	4.619303e-09	3.781026e+01	3.073345e+02
1.760000e-06	5.265284e-06	4.658852e-09	3.766486e+01	3.066503e+02
1.770000e-06	5.242499e-06	4.662834e-09	3.750186e+01	3.059229e+02
1.780000e-06	5.218260e-06	4.792657e-09	3.732847e+01	3.051593e+02
1.790000e-06	5.193437e-06	4.670515e-09	3.715091e+01	3.043658e+02
1.800000e-06	5.167338e-06	4.511012e-09	3.696420e+01	3.035461e+02
1.810000e-06	5.139076e-06	4.705273e-09	3.676203e+01	3.027011e+02
1.820000e-06	5.109018e-06	4.559904e-09	3.654701e+01	3.018284e+02
1.830000e-06	5.077277e-06	4.509540e-09	3.631996e+01	3.009222e+02
1.840000e-06	5.043511e-06	4.710960e-09	3.607841e+01	2.999739e+02
1.850000e-06	5.008137e-06	4.452927e-09	3.582537e+01	2.989727e+02
1.860000e-06	4.971079e-06	4.451757e-09	3.556028e+01	2.979066e+02
1.870000e-06	4.932002e-06	4.588931e-09	3.528075e+01	2.967640e+02
1.880000e-06	4.891248e-06	4.401681e-09	3.498921e+01	2.955347e+02
1.890000e-06	4.848720e-06	4.514267e-09	3.468499e+01	2.942109e+02
1.900000e-06	4.804542e-06	4.451275e-09	3.436897e+01	2.927882e+02
1.910000e-06	4.758721e-06	4.346511e-09	3.404119e+01	2.912658e+02
1.920000e-06	4.710787e-06	4.487333e-09	3.369830e+01	2.896465e+02
1.930000e-06	4.661159e-06	4.299097e-09	3.334328e+01	2.879360e+02
1.940000e-06	4.609967e-06	4.342425e-09	3.297709e+01	2.861424e+02
1.950000e-06	4.556755e-06	4.375603e-09	3.259644e+01	2.842747e+02
1.960000e-06	4.501499e-06	4.213748e-09	3.220117e+01	2.823419e+02
1.970000e-06	4.444468e-06	4.241585e-09	3.179320e+01	2.803516e+02
1.980000e-06	4.385969e-06	4.215116e-09	3.137474e+01	2.783094e+02
1.990000e-06	4.326059e-06	4.260649e-09	3.094617e+01	2.762179e+02
2.000000e-06	4.264538e-06	4.155751e-09	3.050609e+01	2.740770e+02
2.010000e-06	4.201349e-06	4.068897e-09	3.005407e+01	2.718837e+02
2.020000e-06	4.136585e-06	4.133036e-09	2.959078e+01	2.696330e+02
2.030000e-06	4.070360e-06	4.002938e-09	2.911705e+01	2.673185e+02
2.040000e-06	4.002786e-06	4.011606e-09	2.863366e+01	2.649337e+02
2.050000e-06	3.933879e-06	4.009467e-09	2.814074e+01	2.624725e+02
2.060000e-06	3.863404e-06	3.963709e-09	2.763660e+01	2.599306e+02
2.070000e-06	3.791425e-06	3.912104e-09	2.712170e+01	2.573056e+02
2.080000e-06	3.718184e-06	3.810123e-09	2.659778e+01	2.545975e+02
2.090000e-06	3.643581e-06	3.847716e-09	2.606411e+01	2.518083e+02
2.100000e-06	3.567629e-06	3.798123e-09	2.552079e+01	2.489417e+02
2.110000e-06	3.490126e-06	3.731678e-09	2.496638e+01	2.460025e+02
2.120000e-06	3.411025e-06	3.681213e-09	2.440054e+01	2.429954e+02
2.130000e-06	3.330772e-06	3.641925e-09	2.382645e+01	2.399245e+02
2.140000e-06	3.249451e-06	3.607741e-09	2.324473e+01	2.367925e+02
2.150000e-06	3.167034e-06	3.529711e-09	2.265516e+01	2.335998e+02
2.160000e-06	3.083627e-06	3.510895e-09	2.205852e+01	2.303451e+02
2.170000e-06	2.999248e-06	3.449343e-09	2.145492e+01	2.270247e+02
2.180000e-06	2.913599e-06	3.395834e-09	2.084223e+01	2.236335e+02
2.190000e-06	2.826543e-06	3.355936e-09	2.021948e+01	2.201653e+02
2.200000e-06	2.738488e-06	3.310155e-09	1.958959e+01	2.166138e+02
2.210000e-06	2.649592e-06	3.259854e-09	1.895367e+01	2.129734e+02
2.220000e-06	2.559778e-06	3.176541e-09	1.831120e+01	2.092396e+02
2.230000e-06	2.469066e-06	3.113775e-09	1.766229e+01	2.054097e+02
2.240000e-06	2.377550e-06	3.054055e-09	1.700764e+01	2.014829e+02
2.250000e-06	2.285442e-06	3.007179e-09	1.634876e+01	1.974605e+02
2.260000e-06	2.192681e-06	2.954482e-09	1.568519e+01	1.933451e+02
2.270000e-06	2.098909e-06	2.890785e-09	1.501440e+01	1.891403e+02
2.280000e-06	2.003895e-06	2.815244e-09	1.433473e+01	1.848499e+02
2.290000e-06	1.907972e-06	2.745590e-09	1.364855e+01	1.804773e+02
2.300000e-06	1.811583e-06	2.689114e-09	1.295904e+01	1.760248e+02
2.310000e-06	1.714734e-06	2.624427e-09	1.226623e+01	1.714931e+02
2.320000e-06	1.617317e-06	2.554865e-09	1.156937e+01	1.668813e+02
2.330000e-06	1.519346e-06	2.477443e-09	1.086854e+01	1.621866e+02
2.340000e-06	1.420829e-06	2.404506e-09	1.016381e+01	1.574050e+02
2.350000e-06	1.321789e-06	2.329175e-09	9.455325e+00	1.525312e+02
2.360000e-06	1.222365e-06	2.257830e-09	8.744104e+00	1.475599e+02
2.370000e-06	1.122657e-06	2.187309e-09	8.030852e+00	1.424857e+02
2.380000e-06	1.022788e-06	2.106267e-09	7.316444e+00	1.373042e+02
2.390000e-06	9.227096e-07	2.022195e-09	6.600541e+00	1.320117e+02
2.400000e-06	8.222979e-07	1.945270e-09	5.882252e+00	1.266060e+02
2.410000e-06	7.215999e-07	1.869457e-09	5.161917e+00	1.210862e+02
2.420000e-06	6.207268e-07	1.780898e-09	4.440327e+00	1.154519e+02
2.430000e-06	5.195849e-07	1.685764e-09	3.716816e+00	1.097035e+02
2.440000e-06	4.180771e-07	1.593645e-09	2.990686e+00	1.038411e+02
2.450000e-06	3.163370e-07	1.508395e-09	2.262895e+00	9.786440e+01
2.460000e-06	2.145261e-07	1.420519e-09	1.534598e+00	9.177176e+01
2.470000e-06	1.125890e-07	1.327892e-09	8.053975e-01	8.556018e+01
2.480000e-06	1.047122e-08	1.228845e-09	7.490513e-02	7.922498e+01
2.490000e-06	-9.161763e-08	1.121363e-09	-6.553805e-01	7.275989e+01
2.500000e-06	-1.936228e-07	1.017251e-09	-1.385067e+00	6.615721e+01
2.510000e-06	-2.956359e-07	9.200093e-10	-2.114811e+00	5.940825e+01
2.520000e-06	-3.975263e-07	8.223441e-10	-2.843678e+00	5.250386e+01
2.530000e-06	-4.991643e-07	7.144052e-10	-3.570738e+00	4.543493e+01
2.540000e-06	-6.005554e-07	5.983226e-10	-4.296033e+00	3.819305e+01
2.550000e-06	-7.016598e-07	4.817746e-10	-5.019276e+00	3.077108e+01
2.560000e-06	-8.024372e-07	3.653842e-10	-5.740181e+00	2.316358e+01
2.570000e-06	-9.029052e-07	2.454860e-10	-6.458872e+00	1.536730e+01
2.580000e-06	-1.003104e-06	1.227140e-10	-7.175636e+00	7.381511e+00
2.590000e-06	-1.103045e-06	-2.489604e-12	-7.890559e+00	-7.916909e-01
2.600000e-06	-1.202699e-06	-1.312718e-10	-8.603426e+00	-9.147119e+00
2.610000e-06	-1.301913e-06	-2.604829e-10	-9.313147e+00	-1.767625e+01
2.620000e-06	-1.400579e-06	-3.928472e-10	-1.001895e+01	-2.636699e+01
2.630000e-06	-1.498750e-06	-5.292808e-10	-1.072121e+01	-3.520349e+01
2.640000e-06	-1.596400e-06	-6.678269e-10	-1.141974e+01	-4.416593e+01
2.650000e-06	-1.693442e-06	-8.073861e-10	-1.211392e+01	-5.323051e+01
2.660000e-06	-1.789924e-06	-9.467348e-10	-1.280410e+01	-6.236951e+01
2.670000e-06	-1.885998e-06	-1.086183e-09	-1.349136e+01	-7.155151e+01
2.680000e-06	-1.981617e-06	-1.224590e-09	-1.417536e+01	-8.074193e+01
2.690000e-06	-2.076368e-06	-1.363912e-09	-1.485316e+01	-8.990371e+01
2.700000e-06	-2.169970e-06	-1.503605e-09	-1.552274e+01	-9.899836e+01
2.710000e-06	-2.262584e-06	-1.641209e-09	-1.618524e+01	-1.079871e+02
2.720000e-06	-2.354448e-06	-1.776765e-09	-1.684239e+01	-1.168321e+02
2.730000e-06	-2.445525e-06	-1.909837e-09	-1.749390e+01	-1.254982e+02
2.740000e-06	-2.535718e-06	-2.040682e-09	-1.813909e+01	-1.339537e+02
2.750000e-06	-2.624976e-06	-2.168043e-09	-1.877759e+01	-1.421719e+02
2.760000e-06	-2.713382e-06	-2.290630e-09	-1.940999e+01	-1.501320e+02
2.770000e-06	-2.801064e-06	-2.407262e-09	-2.003722e+01	-1.578193e+02
2.780000e-06	-2.887820e-06	-2.517033e-09	-2.065783e+01	-1.652255e+02
2.790000e-06	-2.973301e-06	-2.622630e-09	-2.126931e+01	-1.723482e+02
2.800000e-06	-3.057616e-06	-2.729137e-09	-2.187245e+01	-1.791908e+02
2.810000e-06	-3.140972e-06	-2.835039e-09	-2.246873e+01	-1.857607e+02
2.820000e-06	-3.223317e-06	-2.933705e-09	-2.305778e+01	-1.920687e+02
2.830000e-06	-3.304590e-06	-3.024447e-09	-2.363916e+01	-1.981276e+02
2.840000e-06	-3.384783e-06	-3.112766e-09	-2.421282e+01	-2.039510e+02
2.850000e-06	-3.463779e-06	-3.197639e-09	-2.477791e+01	-2.095523e+02
2.860000e-06	-3.541317e-06	-3.278278e-09	-2.533258e+01	-2.149436e+02
2.870000e-06	-3.617314e-06	-3.356485e-09	-2.587621e+01	-2.201356e+02
2.880000e-06	-3.691869e-06	-3.431975e-09	-2.640954e+01	-2.251372e+02
2.890000e-06	-3.765060e-06	-3.505264e-09	-2.693310e+01	-2.299552e+02
2.900000e-06	-3.837035e-06	-3.576665e-09	-2.744797e+01	-2.345951e+02
2.910000e-06	-3.907659e-06	-3.645911e-09	-2.795318e+01	-2.390609e+02
2.920000e-06	-3.976654e-06	-3.712212e-09	-2.844672e+01	-2.433561e+02
2.930000e-06	-4.044178e-06	-3.775734e-09	-2.892976e+01	-2.474834e+02
2.940000e-06	-4.110315e-06	-3.837074e-09	-2.940286e+01	-2.514456e+02
