# Temperatura_=_41.44
# Concentracion g/m^3_=_15000.0
# C_Vs_to_Am_M_A/Vsm_=_65563218390.804596
# pendiente_HvsI_1/m_=_3716.3
# ordenada_HvsI_A/m_=_1297.0
# frecuencia_Hz_=_301580.83144993556

Tiempo_(s)	Campo_(V.s)	Magnetizacion_(V.s)	Campo_(kA/m)	Magnetizacion_(A/m)
0.000000e+00	-5.411589e-06	-5.031208e-09	-3.833991e+01	-3.292484e+02
1.000000e-08	-5.408851e-06	-5.032890e-09	-3.832051e+01	-3.291458e+02
2.000000e-08	-5.404306e-06	-5.031141e-09	-3.828831e+01	-3.289783e+02
3.000000e-08	-5.398118e-06	-5.025119e-09	-3.824447e+01	-3.287469e+02
4.000000e-08	-5.390329e-06	-5.019801e-09	-3.818928e+01	-3.284521e+02
5.000000e-08	-5.380782e-06	-5.014916e-09	-3.812164e+01	-3.280936e+02
6.000000e-08	-5.369170e-06	-5.013814e-09	-3.803938e+01	-3.276705e+02
7.000000e-08	-5.355560e-06	-5.021630e-09	-3.794295e+01	-3.271816e+02
8.000000e-08	-5.339892e-06	-4.987890e-09	-3.783195e+01	-3.266256e+02
9.000000e-08	-5.321965e-06	-4.982973e-09	-3.770494e+01	-3.260011e+02
1.000000e-07	-5.301964e-06	-5.005287e-09	-3.756324e+01	-3.253068e+02
1.100000e-07	-5.280065e-06	-4.959354e-09	-3.740809e+01	-3.245422e+02
1.200000e-07	-5.256470e-06	-4.963374e-09	-3.724093e+01	-3.237070e+02
1.300000e-07	-5.231281e-06	-4.969282e-09	-3.706246e+01	-3.228016e+02
1.400000e-07	-5.204418e-06	-4.814106e-09	-3.687215e+01	-3.218272e+02
1.500000e-07	-5.175983e-06	-4.925323e-09	-3.667069e+01	-3.207849e+02
1.600000e-07	-5.146093e-06	-4.962121e-09	-3.645893e+01	-3.196764e+02
1.700000e-07	-5.114586e-06	-4.804579e-09	-3.623571e+01	-3.185033e+02
1.800000e-07	-5.081020e-06	-4.927201e-09	-3.599790e+01	-3.172669e+02
1.900000e-07	-5.045553e-06	-4.854072e-09	-3.574662e+01	-3.159683e+02
2.000000e-07	-5.008623e-06	-4.722894e-09	-3.548498e+01	-3.146077e+02
2.100000e-07	-4.969978e-06	-4.827007e-09	-3.521119e+01	-3.131849e+02
2.200000e-07	-4.929424e-06	-4.778765e-09	-3.492388e+01	-3.116990e+02
2.300000e-07	-4.886901e-06	-4.727306e-09	-3.462261e+01	-3.101487e+02
2.400000e-07	-4.842429e-06	-4.764218e-09	-3.430753e+01	-3.085319e+02
2.500000e-07	-4.796162e-06	-4.687921e-09	-3.397975e+01	-3.068467e+02
2.600000e-07	-4.747971e-06	-4.684130e-09	-3.363832e+01	-3.050910e+02
2.700000e-07	-4.697661e-06	-4.636765e-09	-3.328189e+01	-3.032628e+02
2.800000e-07	-4.645303e-06	-4.605610e-09	-3.291094e+01	-3.013607e+02
2.900000e-07	-4.591170e-06	-4.601430e-09	-3.252742e+01	-2.993833e+02
3.000000e-07	-4.535432e-06	-4.559746e-09	-3.213253e+01	-2.973300e+02
3.100000e-07	-4.478026e-06	-4.531449e-09	-3.172582e+01	-2.952007e+02
3.200000e-07	-4.418860e-06	-4.471081e-09	-3.130664e+01	-2.929955e+02
3.300000e-07	-4.358066e-06	-4.449784e-09	-3.087593e+01	-2.907149e+02
3.400000e-07	-4.295867e-06	-4.408840e-09	-3.043526e+01	-2.883596e+02
3.500000e-07	-4.232283e-06	-4.358517e-09	-2.998479e+01	-2.859304e+02
3.600000e-07	-4.167073e-06	-4.350958e-09	-2.952279e+01	-2.834281e+02
3.700000e-07	-4.100168e-06	-4.309737e-09	-2.904878e+01	-2.808535e+02
3.800000e-07	-4.031767e-06	-4.259247e-09	-2.856418e+01	-2.782072e+02
3.900000e-07	-3.961996e-06	-4.212304e-09	-2.806986e+01	-2.754897e+02
4.000000e-07	-3.890955e-06	-4.164654e-09	-2.756656e+01	-2.727016e+02
4.100000e-07	-3.818644e-06	-4.125645e-09	-2.705424e+01	-2.698431e+02
4.200000e-07	-3.744821e-06	-4.064331e-09	-2.653123e+01	-2.669147e+02
4.300000e-07	-3.669387e-06	-4.033325e-09	-2.599679e+01	-2.639165e+02
4.400000e-07	-3.592469e-06	-4.000976e-09	-2.545185e+01	-2.608486e+02
4.500000e-07	-3.514083e-06	-3.954852e-09	-2.489650e+01	-2.577110e+02
4.600000e-07	-3.434300e-06	-3.896637e-09	-2.433126e+01	-2.545032e+02
4.700000e-07	-3.353314e-06	-3.828721e-09	-2.375749e+01	-2.512247e+02
4.800000e-07	-3.271161e-06	-3.784588e-09	-2.317545e+01	-2.478742e+02
4.900000e-07	-3.187892e-06	-3.730070e-09	-2.258551e+01	-2.444502e+02
5.000000e-07	-3.103615e-06	-3.678483e-09	-2.198843e+01	-2.409506e+02
5.100000e-07	-3.018389e-06	-3.626901e-09	-2.138462e+01	-2.373732e+02
5.200000e-07	-2.932189e-06	-3.572338e-09	-2.077391e+01	-2.337152e+02
5.300000e-07	-2.845017e-06	-3.505730e-09	-2.015631e+01	-2.299738e+02
5.400000e-07	-2.756859e-06	-3.437966e-09	-1.953173e+01	-2.261465e+02
5.500000e-07	-2.667622e-06	-3.382346e-09	-1.889951e+01	-2.222308e+02
5.600000e-07	-2.577264e-06	-3.323640e-09	-1.825934e+01	-2.182250e+02
5.700000e-07	-2.485869e-06	-3.264197e-09	-1.761183e+01	-2.141277e+02
5.800000e-07	-2.393585e-06	-3.196111e-09	-1.695802e+01	-2.099384e+02
5.900000e-07	-2.300474e-06	-3.129861e-09	-1.629835e+01	-2.056572e+02
6.000000e-07	-2.206544e-06	-3.059462e-09	-1.563288e+01	-2.012847e+02
6.100000e-07	-2.111859e-06	-2.985645e-09	-1.496205e+01	-1.968219e+02
6.200000e-07	-2.016555e-06	-2.914682e-09	-1.428684e+01	-1.922698e+02
6.300000e-07	-1.920568e-06	-2.845969e-09	-1.360680e+01	-1.876294e+02
6.400000e-07	-1.823686e-06	-2.777369e-09	-1.292041e+01	-1.829011e+02
6.500000e-07	-1.725983e-06	-2.706318e-09	-1.222820e+01	-1.780848e+02
6.600000e-07	-1.627651e-06	-2.633208e-09	-1.153155e+01	-1.731794e+02
6.700000e-07	-1.528727e-06	-2.551093e-09	-1.083069e+01	-1.681830e+02
6.800000e-07	-1.429240e-06	-2.467099e-09	-1.012585e+01	-1.630932e+02
6.900000e-07	-1.329279e-06	-2.382277e-09	-9.417646e+00	-1.579064e+02
7.000000e-07	-1.228930e-06	-2.300380e-09	-8.706697e+00	-1.526192e+02
7.100000e-07	-1.128262e-06	-2.220258e-09	-7.993487e+00	-1.472277e+02
7.200000e-07	-1.027256e-06	-2.138574e-09	-7.277878e+00	-1.417281e+02
7.300000e-07	-9.259010e-07	-2.052826e-09	-6.559803e+00	-1.361174e+02
7.400000e-07	-8.242553e-07	-1.964349e-09	-5.839666e+00	-1.303926e+02
7.500000e-07	-7.223311e-07	-1.876408e-09	-5.117556e+00	-1.245517e+02
7.600000e-07	-6.200869e-07	-1.785785e-09	-4.393178e+00	-1.185931e+02
7.700000e-07	-5.175721e-07	-1.691277e-09	-3.666884e+00	-1.125153e+02
7.800000e-07	-4.149271e-07	-1.593747e-09	-2.939667e+00	-1.063170e+02
7.900000e-07	-3.122134e-07	-1.497591e-09	-2.211963e+00	-9.999624e+01
8.000000e-07	-2.094016e-07	-1.399464e-09	-1.483564e+00	-9.355047e+01
8.100000e-07	-1.064731e-07	-1.300839e-09	-7.543381e-01	-8.697579e+01
8.200000e-07	-3.490339e-09	-1.202484e-09	-2.472828e-02	-8.026689e+01
8.300000e-07	9.949379e-08	-1.100981e-09	7.048914e-01	-7.341684e+01
8.400000e-07	2.024597e-07	-9.952606e-10	1.434382e+00	-6.641713e+01
8.500000e-07	3.054048e-07	-8.861076e-10	2.163726e+00	-5.925796e+01
8.600000e-07	4.082596e-07	-7.755593e-10	2.892429e+00	-5.192864e+01
8.700000e-07	5.110071e-07	-6.602820e-10	3.620372e+00	-4.441822e+01
8.800000e-07	6.136307e-07	-5.415988e-10	4.347437e+00	-3.671623e+01
8.900000e-07	7.160302e-07	-4.222658e-10	5.072915e+00	-2.881351e+01
9.000000e-07	8.181583e-07	-3.018674e-10	5.796470e+00	-2.070309e+01
9.100000e-07	9.199687e-07	-1.773083e-10	6.517774e+00	-1.238096e+01
9.200000e-07	1.021456e-06	-5.007048e-11	7.236790e+00	-3.846825e+00
9.300000e-07	1.122595e-06	8.054527e-11	7.953336e+00	4.895335e+00
9.400000e-07	1.223356e-06	2.178553e-10	8.667206e+00	1.383690e+01
9.500000e-07	1.323675e-06	3.583771e-10	9.377945e+00	2.296442e+01
9.600000e-07	1.423532e-06	4.994221e-10	1.008541e+01	3.225965e+01
9.700000e-07	1.522948e-06	6.423421e-10	1.078975e+01	4.169975e+01
9.800000e-07	1.621833e-06	7.892124e-10	1.149033e+01	5.125774e+01
9.900000e-07	1.720030e-06	9.381265e-10	1.218603e+01	6.090304e+01
1.000000e-06	1.817427e-06	1.088736e-09	1.287606e+01	7.060216e+01
1.010000e-06	1.913989e-06	1.239638e-09	1.356019e+01	8.031944e+01
1.020000e-06	2.009798e-06	1.390470e-09	1.423897e+01	9.001792e+01
1.030000e-06	2.104891e-06	1.537878e-09	1.491269e+01	9.966018e+01
1.040000e-06	2.199213e-06	1.680991e-09	1.558093e+01	1.092092e+02
1.050000e-06	2.292785e-06	1.822471e-09	1.624387e+01	1.186291e+02
1.060000e-06	2.385584e-06	1.960552e-09	1.690133e+01	1.278863e+02
1.070000e-06	2.477662e-06	2.097111e-09	1.755369e+01	1.369496e+02
1.080000e-06	2.569038e-06	2.232636e-09	1.820107e+01	1.457915e+02
1.090000e-06	2.659495e-06	2.367463e-09	1.884193e+01	1.543885e+02
1.100000e-06	2.748755e-06	2.498730e-09	1.947432e+01	1.627214e+02
1.110000e-06	2.836918e-06	2.621221e-09	2.009894e+01	1.707757e+02
1.120000e-06	2.924170e-06	2.736284e-09	2.071710e+01	1.785417e+02
1.130000e-06	3.010457e-06	2.848521e-09	2.132842e+01	1.860145e+02
1.140000e-06	3.095760e-06	2.959285e-09	2.193277e+01	1.931937e+02
1.150000e-06	3.180093e-06	3.064103e-09	2.253025e+01	2.000828e+02
1.160000e-06	3.263458e-06	3.163589e-09	2.312088e+01	2.066891e+02
1.170000e-06	3.345632e-06	3.259008e-09	2.370306e+01	2.130225e+02
1.180000e-06	3.426525e-06	3.350729e-09	2.427617e+01	2.190951e+02
1.190000e-06	3.506198e-06	3.439985e-09	2.484063e+01	2.249204e+02
1.200000e-06	3.584626e-06	3.528561e-09	2.539628e+01	2.305121e+02
1.210000e-06	3.661795e-06	3.615380e-09	2.594301e+01	2.358840e+02
1.220000e-06	3.737654e-06	3.697418e-09	2.648045e+01	2.410490e+02
1.230000e-06	3.812022e-06	3.773686e-09	2.700733e+01	2.460185e+02
1.240000e-06	3.884686e-06	3.844746e-09	2.752214e+01	2.508026e+02
1.250000e-06	3.955827e-06	3.912075e-09	2.802616e+01	2.554097e+02
1.260000e-06	4.025632e-06	3.977299e-09	2.852071e+01	2.598463e+02
1.270000e-06	4.094092e-06	4.043157e-09	2.900573e+01	2.641173e+02
1.280000e-06	4.161183e-06	4.107833e-09	2.948106e+01	2.682265e+02
1.290000e-06	4.226667e-06	4.169100e-09	2.994500e+01	2.721763e+02
1.300000e-06	4.290495e-06	4.226043e-09	3.039720e+01	2.759685e+02
1.310000e-06	4.352847e-06	4.280326e-09	3.083896e+01	2.796044e+02
1.320000e-06	4.413763e-06	4.332396e-09	3.127053e+01	2.830851e+02
1.330000e-06	4.473266e-06	4.380593e-09	3.169210e+01	2.864117e+02
1.340000e-06	4.531176e-06	4.425071e-09	3.210238e+01	2.895855e+02
1.350000e-06	4.587324e-06	4.468404e-09	3.250017e+01	2.926080e+02
1.360000e-06	4.641751e-06	4.511006e-09	3.288578e+01	2.954811e+02
1.370000e-06	4.694482e-06	4.550818e-09	3.325936e+01	2.982071e+02
1.380000e-06	4.745350e-06	4.588280e-09	3.361975e+01	3.007885e+02
1.390000e-06	4.794151e-06	4.623669e-09	3.396550e+01	3.032285e+02
1.400000e-06	4.841104e-06	4.656460e-09	3.429815e+01	3.055303e+02
1.410000e-06	4.886401e-06	4.686030e-09	3.461907e+01	3.076979e+02
1.420000e-06	4.930119e-06	4.713565e-09	3.492880e+01	3.097354e+02
1.430000e-06	4.972133e-06	4.741015e-09	3.522646e+01	3.116474e+02
1.440000e-06	5.012253e-06	4.767813e-09	3.551070e+01	3.134389e+02
1.450000e-06	5.050624e-06	4.791712e-09	3.578255e+01	3.151152e+02
1.460000e-06	5.087371e-06	4.813141e-09	3.604289e+01	3.166817e+02
1.470000e-06	5.122412e-06	4.834322e-09	3.629116e+01	3.181438e+02
1.480000e-06	5.155567e-06	4.854867e-09	3.652605e+01	3.195070e+02
1.490000e-06	5.186869e-06	4.874954e-09	3.674781e+01	3.207762e+02
1.500000e-06	5.216397e-06	4.893044e-09	3.695701e+01	3.219560e+02
1.510000e-06	5.244158e-06	4.908566e-09	3.715370e+01	3.230503e+02
1.520000e-06	5.270021e-06	4.922842e-09	3.733693e+01	3.240623e+02
1.530000e-06	5.293832e-06	4.936299e-09	3.750563e+01	3.249943e+02
1.540000e-06	5.315772e-06	4.948277e-09	3.766107e+01	3.258476e+02
1.550000e-06	5.335958e-06	4.958758e-09	3.780408e+01	3.266232e+02
1.560000e-06	5.354219e-06	4.968729e-09	3.793345e+01	3.273213e+02
1.570000e-06	5.370499e-06	4.979456e-09	3.804879e+01	3.279418e+02
1.580000e-06	5.384819e-06	4.989892e-09	3.815025e+01	3.284844e+02
1.590000e-06	5.397140e-06	4.998751e-09	3.823754e+01	3.289491e+02
1.600000e-06	5.407275e-06	5.006458e-09	3.830934e+01	3.293361e+02
1.610000e-06	5.415279e-06	5.011403e-09	3.836605e+01	3.296460e+02
1.620000e-06	5.421437e-06	5.015187e-09	3.840968e+01	3.298801e+02
1.630000e-06	5.425763e-06	5.019536e-09	3.844032e+01	3.300399e+02
1.640000e-06	5.428145e-06	5.021881e-09	3.845720e+01	3.301273e+02
1.650000e-06	5.428540e-06	5.023272e-09	3.846000e+01	3.301447e+02
1.660000e-06	5.427121e-06	5.024346e-09	3.844995e+01	3.300940e+02
1.670000e-06	5.424066e-06	5.017184e-09	3.842830e+01	3.299772e+02
1.680000e-06	5.419308e-06	5.014456e-09	3.839460e+01	3.297959e+02
1.690000e-06	5.412645e-06	5.014097e-09	3.834739e+01	3.295508e+02
1.700000e-06	5.404156e-06	5.010047e-09	3.828725e+01	3.292422e+02
1.710000e-06	5.394038e-06	5.002534e-09	3.821556e+01	3.288698e+02
1.720000e-06	5.382197e-06	4.978912e-09	3.813167e+01	3.284326e+02
1.730000e-06	5.368429e-06	4.989748e-09	3.803413e+01	3.279293e+02
1.740000e-06	5.352556e-06	4.989324e-09	3.792167e+01	3.273586e+02
1.750000e-06	5.334248e-06	4.940009e-09	3.779196e+01	3.267191e+02
1.760000e-06	5.313272e-06	4.963659e-09	3.764336e+01	3.260097e+02
1.770000e-06	5.290075e-06	4.922910e-09	3.747901e+01	3.252297e+02
1.780000e-06	5.265575e-06	4.927529e-09	3.730543e+01	3.243793e+02
1.790000e-06	5.240249e-06	5.041853e-09	3.712600e+01	3.234589e+02
1.800000e-06	5.213552e-06	4.829457e-09	3.693686e+01	3.224697e+02
1.810000e-06	5.184725e-06	4.847796e-09	3.673263e+01	3.214129e+02
1.820000e-06	5.153979e-06	4.971793e-09	3.651479e+01	3.202903e+02
1.830000e-06	5.121560e-06	4.740493e-09	3.628512e+01	3.191034e+02
1.840000e-06	5.087241e-06	4.841580e-09	3.604197e+01	3.178535e+02
1.850000e-06	5.051201e-06	4.920349e-09	3.578664e+01	3.165415e+02
1.860000e-06	5.013428e-06	4.726206e-09	3.551902e+01	3.151675e+02
1.870000e-06	4.973791e-06	4.810977e-09	3.523820e+01	3.137311e+02
1.880000e-06	4.932453e-06	4.737287e-09	3.494533e+01	3.122315e+02
1.890000e-06	4.889328e-06	4.672630e-09	3.463980e+01	3.106669e+02
1.900000e-06	4.844508e-06	4.758464e-09	3.432227e+01	3.090355e+02
1.910000e-06	4.797864e-06	4.608429e-09	3.399180e+01	3.073352e+02
1.920000e-06	4.749153e-06	4.690335e-09	3.364669e+01	3.055640e+02
1.930000e-06	4.698816e-06	4.644374e-09	3.329007e+01	3.037200e+02
1.940000e-06	4.646693e-06	4.517570e-09	3.292079e+01	3.018017e+02
1.950000e-06	4.592461e-06	4.587241e-09	3.253657e+01	2.998079e+02
1.960000e-06	4.536400e-06	4.495871e-09	3.213938e+01	2.977383e+02
1.970000e-06	4.478641e-06	4.508415e-09	3.173018e+01	2.955925e+02
1.980000e-06	4.419392e-06	4.466746e-09	3.131041e+01	2.933710e+02
1.990000e-06	4.358630e-06	4.415937e-09	3.087993e+01	2.910742e+02
2.000000e-06	4.296138e-06	4.444464e-09	3.043719e+01	2.887028e+02
2.010000e-06	4.232047e-06	4.302464e-09	2.998311e+01	2.862578e+02
2.020000e-06	4.166486e-06	4.313732e-09	2.951863e+01	2.837398e+02
2.030000e-06	4.099457e-06	4.282603e-09	2.904375e+01	2.811496e+02
2.040000e-06	4.030963e-06	4.230415e-09	2.855848e+01	2.784879e+02
2.050000e-06	3.960930e-06	4.218204e-09	2.806231e+01	2.757551e+02
2.060000e-06	3.889420e-06	4.136283e-09	2.755568e+01	2.729518e+02
2.070000e-06	3.816562e-06	4.145778e-09	2.703949e+01	2.700782e+02
2.080000e-06	3.742447e-06	4.056705e-09	2.651440e+01	2.671346e+02
2.090000e-06	3.666968e-06	4.003385e-09	2.597965e+01	2.641214e+02
2.100000e-06	3.589884e-06	3.966952e-09	2.543353e+01	2.610384e+02
2.110000e-06	3.511236e-06	3.914853e-09	2.487633e+01	2.578857e+02
2.120000e-06	3.431342e-06	3.899268e-09	2.431030e+01	2.546627e+02
2.130000e-06	3.350284e-06	3.821183e-09	2.373602e+01	2.513687e+02
2.140000e-06	3.268045e-06	3.791034e-09	2.315337e+01	2.480024e+02
2.150000e-06	3.184768e-06	3.727386e-09	2.256338e+01	2.445623e+02
2.160000e-06	3.100429e-06	3.663641e-09	2.196585e+01	2.410462e+02
2.170000e-06	3.014875e-06	3.610035e-09	2.135972e+01	2.374515e+02
2.180000e-06	2.928082e-06	3.563720e-09	2.074481e+01	2.337758e+02
2.190000e-06	2.840167e-06	3.528666e-09	2.012195e+01	2.300161e+02
2.200000e-06	2.751275e-06	3.457356e-09	1.949217e+01	2.261699e+02
2.210000e-06	2.661500e-06	3.395943e-09	1.885614e+01	2.222349e+02
2.220000e-06	2.570774e-06	3.325750e-09	1.821336e+01	2.182094e+02
2.230000e-06	2.479208e-06	3.267858e-09	1.756464e+01	2.140923e+02
2.240000e-06	2.386936e-06	3.201685e-09	1.691091e+01	2.098832e+02
2.250000e-06	2.293769e-06	3.140891e-09	1.625085e+01	2.055822e+02
2.260000e-06	2.199587e-06	3.084498e-09	1.558359e+01	2.011901e+02
2.270000e-06	2.104491e-06	3.014854e-09	1.490985e+01	1.967080e+02
2.280000e-06	2.008512e-06	2.941539e-09	1.422986e+01	1.921368e+02
2.290000e-06	1.911783e-06	2.865890e-09	1.354456e+01	1.874774e+02
2.300000e-06	1.814516e-06	2.797105e-09	1.285544e+01	1.827301e+02
2.310000e-06	1.716750e-06	2.724679e-09	1.216279e+01	1.778947e+02
2.320000e-06	1.618377e-06	2.652945e-09	1.146584e+01	1.729698e+02
2.330000e-06	1.519413e-06	2.577721e-09	1.076471e+01	1.679536e+02
2.340000e-06	1.420064e-06	2.505321e-09	1.006084e+01	1.628431e+02
2.350000e-06	1.320368e-06	2.426915e-09	9.354514e+00	1.576350e+02
2.360000e-06	1.220313e-06	2.342020e-09	8.645649e+00	1.523256e+02
2.370000e-06	1.119919e-06	2.258423e-09	7.934376e+00	1.469111e+02
2.380000e-06	1.019141e-06	2.175139e-09	7.220386e+00	1.413879e+02
2.390000e-06	9.178436e-07	2.094852e-09	6.502718e+00	1.357527e+02
2.400000e-06	8.159571e-07	2.008913e-09	5.780875e+00	1.300031e+02
2.410000e-06	7.137413e-07	1.918775e-09	5.056699e+00	1.241370e+02
2.420000e-06	6.114200e-07	1.825262e-09	4.331775e+00	1.181528e+02
2.430000e-06	5.088474e-07	1.729263e-09	3.605071e+00	1.120492e+02
2.440000e-06	4.060108e-07	1.633867e-09	2.876496e+00	1.058247e+02
2.450000e-06	3.030385e-07	1.543185e-09	2.146961e+00	9.947730e+01
2.460000e-06	2.000231e-07	1.448733e-09	1.417120e+00	9.300415e+01
2.470000e-06	9.689999e-08	1.344440e-09	6.865150e-01	8.640108e+01
2.480000e-06	-6.308153e-09	1.235234e-09	-4.469187e-02	7.966244e+01
2.490000e-06	-1.094542e-07	1.125498e-09	-7.754589e-01	7.278095e+01
2.500000e-06	-2.125445e-07	1.018050e-09	-1.505830e+00	6.574780e+01
2.510000e-06	-3.155811e-07	9.108648e-10	-2.235822e+00	5.855296e+01
2.520000e-06	-4.185813e-07	8.026864e-10	-2.965556e+00	5.118562e+01
2.530000e-06	-5.214741e-07	6.885148e-10	-3.694528e+00	4.363487e+01
2.540000e-06	-6.241798e-07	5.677191e-10	-4.422175e+00	3.589044e+01
2.550000e-06	-7.266658e-07	4.453101e-10	-5.148266e+00	2.794358e+01
2.560000e-06	-8.288458e-07	3.194037e-10	-5.872188e+00	1.978788e+01
2.570000e-06	-9.306208e-07	1.871578e-10	-6.593242e+00	1.142008e+01
2.580000e-06	-1.031896e-06	5.174466e-11	-7.310755e+00	2.840750e+00
2.590000e-06	-1.132614e-06	-8.318862e-11	-8.024318e+00	-5.945160e+00
2.600000e-06	-1.232845e-06	-2.182482e-10	-8.734436e+00	-1.492800e+01
2.610000e-06	-1.332688e-06	-3.565174e-10	-9.441799e+00	-2.409329e+01
2.620000e-06	-1.432116e-06	-4.983317e-10	-1.014623e+01	-3.342176e+01
2.630000e-06	-1.531025e-06	-6.420857e-10	-1.084698e+01	-4.288966e+01
2.640000e-06	-1.629403e-06	-7.865782e-10	-1.154396e+01	-5.246918e+01
2.650000e-06	-1.727244e-06	-9.320868e-10	-1.223714e+01	-6.212905e+01
2.660000e-06	-1.824475e-06	-1.079635e-09	-1.292600e+01	-7.183525e+01
2.670000e-06	-1.921073e-06	-1.229241e-09	-1.361037e+01	-8.155177e+01
2.680000e-06	-2.017056e-06	-1.378960e-09	-1.429040e+01	-9.124149e+01
2.690000e-06	-2.112449e-06	-1.524922e-09	-1.496623e+01	-1.008670e+02
2.700000e-06	-2.207103e-06	-1.667974e-09	-1.563684e+01	-1.103914e+02
2.710000e-06	-2.300774e-06	-1.811043e-09	-1.630047e+01	-1.197794e+02
2.720000e-06	-2.393406e-06	-1.951371e-09	-1.695675e+01	-1.289976e+02
2.730000e-06	-2.485138e-06	-2.087924e-09	-1.760665e+01	-1.380158e+02
2.740000e-06	-2.576029e-06	-2.222415e-09	-1.825059e+01	-1.468072e+02
2.750000e-06	-2.665975e-06	-2.354774e-09	-1.888784e+01	-1.553492e+02
2.760000e-06	-2.754952e-06	-2.482003e-09	-1.951822e+01	-1.636236e+02
2.770000e-06	-2.843097e-06	-2.603222e-09	-2.014271e+01	-1.716169e+02
2.780000e-06	-2.930456e-06	-2.721343e-09	-2.076163e+01	-1.793205e+02
2.790000e-06	-3.016719e-06	-2.836001e-09	-2.137278e+01	-1.867304e+02
2.800000e-06	-3.101675e-06	-2.945751e-09	-2.197468e+01	-1.938471e+02
2.810000e-06	-3.185486e-06	-3.052297e-09	-2.256846e+01	-2.006750e+02
2.820000e-06	-3.268300e-06	-3.154013e-09	-2.315518e+01	-2.072220e+02
2.830000e-06	-3.350077e-06	-3.247831e-09	-2.373456e+01	-2.134986e+02
2.840000e-06	-3.430755e-06	-3.335585e-09	-2.430614e+01	-2.195172e+02
2.850000e-06	-3.510228e-06	-3.420644e-09	-2.486918e+01	-2.252914e+02
2.860000e-06	-3.588261e-06	-3.504629e-09	-2.542203e+01	-2.308350e+02
2.870000e-06	-3.664784e-06	-3.585676e-09	-2.596418e+01	-2.361617e+02
2.880000e-06	-3.739884e-06	-3.664344e-09	-2.649625e+01	-2.412839e+02
2.890000e-06	-3.813568e-06	-3.742655e-09	-2.701828e+01	-2.462131e+02
2.900000e-06	-3.885916e-06	-3.818041e-09	-2.753086e+01	-2.509588e+02
2.910000e-06	-3.956916e-06	-3.886968e-09	-2.803387e+01	-2.555290e+02
2.920000e-06	-4.026379e-06	-3.951365e-09	-2.852600e+01	-2.599298e+02
2.930000e-06	-4.094290e-06	-4.013369e-09	-2.900714e+01	-2.641660e+02
2.940000e-06	-4.160760e-06	-4.074841e-09	-2.947806e+01	-2.682410e+02
