# Temperatura_=_25.53
# Concentracion g/m^3_=_15000.0
# C_Vs_to_Am_M_A/Vsm_=_65563218390.804596
# pendiente_HvsI_1/m_=_3716.3
# ordenada_HvsI_A/m_=_1297.0
# frecuencia_Hz_=_301576.2234360172

Tiempo_(s)	Campo_(V.s)	Magnetizacion_(V.s)	Campo_(kA/m)	Magnetizacion_(A/m)
0.000000e+00	-5.379914e-06	-4.528331e-09	-3.834134e+01	-2.958166e+02
1.000000e-08	-5.377077e-06	-4.531229e-09	-3.832112e+01	-2.957038e+02
2.000000e-08	-5.372433e-06	-4.529710e-09	-3.828803e+01	-2.955391e+02
3.000000e-08	-5.366215e-06	-4.525675e-09	-3.824371e+01	-2.953234e+02
4.000000e-08	-5.358413e-06	-4.520410e-09	-3.818811e+01	-2.950571e+02
5.000000e-08	-5.348718e-06	-4.512584e-09	-3.811902e+01	-2.947392e+02
6.000000e-08	-5.336918e-06	-4.506076e-09	-3.803492e+01	-2.943686e+02
7.000000e-08	-5.323219e-06	-4.503647e-09	-3.793729e+01	-2.939431e+02
8.000000e-08	-5.307386e-06	-4.486127e-09	-3.782446e+01	-2.934605e+02
9.000000e-08	-5.289293e-06	-4.497383e-09	-3.769551e+01	-2.929186e+02
1.000000e-07	-5.269237e-06	-4.507525e-09	-3.755258e+01	-2.923152e+02
1.100000e-07	-5.247305e-06	-4.468570e-09	-3.739627e+01	-2.916486e+02
1.200000e-07	-5.223695e-06	-4.453407e-09	-3.722800e+01	-2.909175e+02
1.300000e-07	-5.198551e-06	-4.442322e-09	-3.704881e+01	-2.901216e+02
1.400000e-07	-5.171737e-06	-4.371746e-09	-3.685772e+01	-2.892610e+02
1.500000e-07	-5.143319e-06	-4.444656e-09	-3.665519e+01	-2.883362e+02
1.600000e-07	-5.113462e-06	-4.439361e-09	-3.644240e+01	-2.873486e+02
1.700000e-07	-5.081989e-06	-4.360480e-09	-3.621811e+01	-2.862993e+02
1.800000e-07	-5.048468e-06	-4.413390e-09	-3.597921e+01	-2.851900e+02
1.900000e-07	-5.013113e-06	-4.323737e-09	-3.572724e+01	-2.840220e+02
2.000000e-07	-4.976252e-06	-4.281014e-09	-3.546454e+01	-2.827962e+02
2.100000e-07	-4.937667e-06	-4.352856e-09	-3.518955e+01	-2.815135e+02
2.200000e-07	-4.897251e-06	-4.308993e-09	-3.490152e+01	-2.801741e+02
2.300000e-07	-4.854862e-06	-4.296401e-09	-3.459943e+01	-2.787781e+02
2.400000e-07	-4.810587e-06	-4.280602e-09	-3.428389e+01	-2.773251e+02
2.500000e-07	-4.764530e-06	-4.190014e-09	-3.395565e+01	-2.758145e+02
2.600000e-07	-4.716530e-06	-4.209342e-09	-3.361357e+01	-2.742459e+02
2.700000e-07	-4.666442e-06	-4.187986e-09	-3.325660e+01	-2.726187e+02
2.800000e-07	-4.614290e-06	-4.157647e-09	-3.288492e+01	-2.709323e+02
2.900000e-07	-4.560323e-06	-4.139950e-09	-3.250032e+01	-2.691865e+02
3.000000e-07	-4.504827e-06	-4.094299e-09	-3.210481e+01	-2.673811e+02
3.100000e-07	-4.447700e-06	-4.068700e-09	-3.169768e+01	-2.655162e+02
3.200000e-07	-4.388721e-06	-4.039766e-09	-3.127735e+01	-2.635917e+02
3.300000e-07	-4.328133e-06	-4.021438e-09	-3.084555e+01	-2.616077e+02
3.400000e-07	-4.266156e-06	-3.966682e-09	-3.040386e+01	-2.595640e+02
3.500000e-07	-4.202844e-06	-3.922122e-09	-2.995265e+01	-2.574605e+02
3.600000e-07	-4.137973e-06	-3.914690e-09	-2.949033e+01	-2.552967e+02
3.700000e-07	-4.071353e-06	-3.885743e-09	-2.901555e+01	-2.530721e+02
3.800000e-07	-4.003199e-06	-3.848152e-09	-2.852983e+01	-2.507861e+02
3.900000e-07	-3.933712e-06	-3.798192e-09	-2.803461e+01	-2.484379e+02
4.000000e-07	-3.863009e-06	-3.749527e-09	-2.753073e+01	-2.460271e+02
4.100000e-07	-3.791067e-06	-3.717509e-09	-2.701802e+01	-2.435532e+02
4.200000e-07	-3.717651e-06	-3.676774e-09	-2.649480e+01	-2.410161e+02
4.300000e-07	-3.642602e-06	-3.657474e-09	-2.595994e+01	-2.384159e+02
4.400000e-07	-3.566038e-06	-3.622347e-09	-2.541429e+01	-2.357530e+02
4.500000e-07	-3.488133e-06	-3.562350e-09	-2.485908e+01	-2.330278e+02
4.600000e-07	-3.408857e-06	-3.503673e-09	-2.429409e+01	-2.302408e+02
4.700000e-07	-3.328222e-06	-3.460897e-09	-2.371943e+01	-2.273922e+02
4.800000e-07	-3.246356e-06	-3.433375e-09	-2.313599e+01	-2.244820e+02
4.900000e-07	-3.163394e-06	-3.384838e-09	-2.254474e+01	-2.215096e+02
5.000000e-07	-3.079459e-06	-3.334509e-09	-2.194656e+01	-2.184738e+02
5.100000e-07	-2.994580e-06	-3.281641e-09	-2.134164e+01	-2.153725e+02
5.200000e-07	-2.908762e-06	-3.230543e-09	-2.073004e+01	-2.122031e+02
5.300000e-07	-2.821984e-06	-3.180102e-09	-2.011160e+01	-2.089623e+02
5.400000e-07	-2.734328e-06	-3.130436e-09	-1.948689e+01	-2.056465e+02
5.500000e-07	-2.645657e-06	-3.077815e-09	-1.885495e+01	-2.022518e+02
5.600000e-07	-2.555721e-06	-3.015897e-09	-1.821401e+01	-1.987745e+02
5.700000e-07	-2.464698e-06	-2.963193e-09	-1.756531e+01	-1.952112e+02
5.800000e-07	-2.372802e-06	-2.911927e-09	-1.691039e+01	-1.915593e+02
5.900000e-07	-2.280164e-06	-2.856076e-09	-1.625017e+01	-1.878169e+02
6.000000e-07	-2.186764e-06	-2.790227e-09	-1.558453e+01	-1.839829e+02
6.100000e-07	-2.092552e-06	-2.724975e-09	-1.491311e+01	-1.800575e+02
6.200000e-07	-1.997712e-06	-2.664478e-09	-1.423721e+01	-1.760413e+02
6.300000e-07	-1.902257e-06	-2.606543e-09	-1.355692e+01	-1.719358e+02
6.400000e-07	-1.805990e-06	-2.549198e-09	-1.287086e+01	-1.677425e+02
6.500000e-07	-1.708891e-06	-2.484932e-09	-1.217885e+01	-1.634630e+02
6.600000e-07	-1.611121e-06	-2.412634e-09	-1.148207e+01	-1.590988e+02
6.700000e-07	-1.512733e-06	-2.336004e-09	-1.078088e+01	-1.546504e+02
6.800000e-07	-1.413767e-06	-2.265421e-09	-1.007557e+01	-1.501177e+02
6.900000e-07	-1.314325e-06	-2.196509e-09	-9.366873e+00	-1.454996e+02
7.000000e-07	-1.214434e-06	-2.127018e-09	-8.654973e+00	-1.407939e+02
7.100000e-07	-1.114205e-06	-2.053676e-09	-7.940667e+00	-1.359975e+02
7.200000e-07	-1.013690e-06	-1.976281e-09	-7.224324e+00	-1.311068e+02
7.300000e-07	-9.128643e-07	-1.899025e-09	-6.505763e+00	-1.261174e+02
7.400000e-07	-8.117360e-07	-1.824747e-09	-5.785046e+00	-1.210249e+02
7.500000e-07	-7.102986e-07	-1.749131e-09	-5.062126e+00	-1.158248e+02
7.600000e-07	-6.086047e-07	-1.665332e-09	-4.337378e+00	-1.105131e+02
7.700000e-07	-5.066811e-07	-1.576987e-09	-3.610993e+00	-1.050861e+02
7.800000e-07	-4.045936e-07	-1.490079e-09	-2.883441e+00	-9.954067e+01
7.900000e-07	-3.024122e-07	-1.406386e-09	-2.155219e+00	-9.387436e+01
8.000000e-07	-2.001149e-07	-1.319363e-09	-1.426170e+00	-8.808501e+01
8.100000e-07	-9.771523e-08	-1.229644e-09	-6.963928e-01	-8.217075e+01
8.200000e-07	4.799113e-09	-1.139454e-09	3.420212e-02	-7.612967e+01
8.300000e-07	1.073521e-07	-1.047358e-09	7.650725e-01	-6.995963e+01
8.400000e-07	2.098275e-07	-9.522129e-10	1.495390e+00	-6.365796e+01
8.500000e-07	3.122167e-07	-8.549237e-10	2.225093e+00	-5.722128e+01
8.600000e-07	4.145216e-07	-7.556602e-10	2.954195e+00	-5.064544e+01
8.700000e-07	5.167374e-07	-6.510977e-10	3.682662e+00	-4.392547e+01
8.800000e-07	6.187818e-07	-5.449524e-10	4.409908e+00	-3.705582e+01
8.900000e-07	7.206397e-07	-4.401734e-10	5.135824e+00	-3.003057e+01
9.000000e-07	8.222652e-07	-3.356747e-10	5.860085e+00	-2.284394e+01
9.100000e-07	9.235124e-07	-2.261147e-10	6.581649e+00	-1.549073e+01
9.200000e-07	1.024342e-06	-1.118017e-10	7.300239e+00	-7.967031e+00
9.300000e-07	1.124826e-06	4.322801e-12	8.016362e+00	-2.708711e-01
9.400000e-07	1.225026e-06	1.233947e-10	8.730464e+00	7.597121e+00
9.500000e-07	1.324887e-06	2.458769e-10	9.442146e+00	1.563306e+01
9.600000e-07	1.424339e-06	3.695014e-10	1.015092e+01	2.382926e+01
9.700000e-07	1.523234e-06	4.942503e-10	1.085572e+01	3.217382e+01
9.800000e-07	1.621366e-06	6.224130e-10	1.155508e+01	4.065036e+01
9.900000e-07	1.718744e-06	7.520617e-10	1.224907e+01	4.923799e+01
1.000000e-06	1.815419e-06	8.835969e-10	1.293805e+01	5.791148e+01
1.010000e-06	1.911360e-06	1.014529e-09	1.362180e+01	6.664166e+01
1.020000e-06	2.006580e-06	1.147698e-09	1.430041e+01	7.539604e+01
1.030000e-06	2.101123e-06	1.282267e-09	1.497419e+01	8.413968e+01
1.040000e-06	2.194914e-06	1.413792e-09	1.564262e+01	9.283613e+01
1.050000e-06	2.287913e-06	1.541593e-09	1.630540e+01	1.014486e+02
1.060000e-06	2.380244e-06	1.667384e-09	1.696342e+01	1.099411e+02
1.070000e-06	2.471917e-06	1.794007e-09	1.761675e+01	1.182798e+02
1.080000e-06	2.562686e-06	1.918004e-09	1.826364e+01	1.264337e+02
1.090000e-06	2.652290e-06	2.038908e-09	1.890223e+01	1.343761e+02
1.100000e-06	2.740782e-06	2.158497e-09	1.953289e+01	1.420851e+02
1.110000e-06	2.828368e-06	2.270864e-09	2.015710e+01	1.495442e+02
1.120000e-06	2.915042e-06	2.377401e-09	2.077480e+01	1.567423e+02
1.130000e-06	3.000750e-06	2.482448e-09	2.138561e+01	1.636739e+02
1.140000e-06	3.085484e-06	2.588966e-09	2.198950e+01	1.703387e+02
1.150000e-06	3.169333e-06	2.690675e-09	2.258706e+01	1.767409e+02
1.160000e-06	3.252163e-06	2.784713e-09	2.317737e+01	1.828882e+02
1.170000e-06	3.333748e-06	2.874332e-09	2.375882e+01	1.887912e+02
1.180000e-06	3.414084e-06	2.958627e-09	2.433135e+01	1.944620e+02
1.190000e-06	3.493185e-06	3.040103e-09	2.489508e+01	1.999136e+02
1.200000e-06	3.571072e-06	3.120518e-09	2.545017e+01	2.051584e+02
1.210000e-06	3.647707e-06	3.200442e-09	2.599632e+01	2.102079e+02
1.220000e-06	3.722956e-06	3.276337e-09	2.653260e+01	2.150719e+02
1.230000e-06	3.796597e-06	3.346648e-09	2.705743e+01	2.197582e+02
1.240000e-06	3.868658e-06	3.413723e-09	2.757099e+01	2.242726e+02
1.250000e-06	3.939280e-06	3.479522e-09	2.807430e+01	2.286187e+02
1.260000e-06	4.008536e-06	3.542421e-09	2.856786e+01	2.327987e+02
1.270000e-06	4.076536e-06	3.603304e-09	2.905248e+01	2.368132e+02
1.280000e-06	4.143092e-06	3.661610e-09	2.952681e+01	2.406623e+02
1.290000e-06	4.207974e-06	3.716481e-09	2.998921e+01	2.443459e+02
1.300000e-06	4.271268e-06	3.765918e-09	3.044029e+01	2.478639e+02
1.310000e-06	4.333109e-06	3.813159e-09	3.088102e+01	2.512172e+02
1.320000e-06	4.393630e-06	3.859811e-09	3.131234e+01	2.544073e+02
1.330000e-06	4.452712e-06	3.903990e-09	3.173340e+01	2.574371e+02
1.340000e-06	4.510016e-06	3.944545e-09	3.214179e+01	2.603104e+02
1.350000e-06	4.565543e-06	3.982337e-09	3.253752e+01	2.630320e+02
1.360000e-06	4.619471e-06	4.020085e-09	3.292185e+01	2.656076e+02
1.370000e-06	4.671671e-06	4.056176e-09	3.329386e+01	2.680435e+02
1.380000e-06	4.721865e-06	4.089871e-09	3.365159e+01	2.703462e+02
1.390000e-06	4.770090e-06	4.120670e-09	3.399527e+01	2.725221e+02
1.400000e-06	4.816560e-06	4.148562e-09	3.432646e+01	2.745776e+02
1.410000e-06	4.861451e-06	4.175038e-09	3.464639e+01	2.765187e+02
1.420000e-06	4.904865e-06	4.200013e-09	3.495578e+01	2.783508e+02
1.430000e-06	4.946425e-06	4.223431e-09	3.525197e+01	2.800788e+02
1.440000e-06	4.986087e-06	4.245101e-09	3.553463e+01	2.817071e+02
1.450000e-06	5.024127e-06	4.265308e-09	3.580574e+01	2.832396e+02
1.460000e-06	5.060541e-06	4.285530e-09	3.606525e+01	2.846794e+02
1.470000e-06	5.095203e-06	4.306695e-09	3.631228e+01	2.860295e+02
1.480000e-06	5.127921e-06	4.326436e-09	3.654545e+01	2.872922e+02
1.490000e-06	5.158828e-06	4.343570e-09	3.676572e+01	2.884696e+02
1.500000e-06	5.188074e-06	4.357846e-09	3.697415e+01	2.895633e+02
1.510000e-06	5.215608e-06	4.371021e-09	3.717037e+01	2.905747e+02
1.520000e-06	5.241143e-06	4.383797e-09	3.735235e+01	2.915048e+02
1.530000e-06	5.264595e-06	4.395083e-09	3.751949e+01	2.923544e+02
1.540000e-06	5.286229e-06	4.405705e-09	3.767367e+01	2.931242e+02
1.550000e-06	5.306152e-06	4.415489e-09	3.781566e+01	2.938147e+02
1.560000e-06	5.324213e-06	4.424579e-09	3.794438e+01	2.944265e+02
1.570000e-06	5.340283e-06	4.433944e-09	3.805890e+01	2.949604e+02
1.580000e-06	5.354398e-06	4.444036e-09	3.815950e+01	2.954176e+02
1.590000e-06	5.366502e-06	4.452299e-09	3.824576e+01	2.957995e+02
1.600000e-06	5.376419e-06	4.457116e-09	3.831644e+01	2.961081e+02
1.610000e-06	5.384211e-06	4.459427e-09	3.837197e+01	2.963457e+02
1.620000e-06	5.390135e-06	4.461514e-09	3.841419e+01	2.965154e+02
1.630000e-06	5.394249e-06	4.464142e-09	3.844350e+01	2.966201e+02
1.640000e-06	5.396406e-06	4.465737e-09	3.845887e+01	2.966632e+02
1.650000e-06	5.396564e-06	4.466253e-09	3.846000e+01	2.966478e+02
1.660000e-06	5.394916e-06	4.465641e-09	3.844826e+01	2.965769e+02
1.670000e-06	5.391644e-06	4.460455e-09	3.842494e+01	2.964526e+02
1.680000e-06	5.386716e-06	4.460599e-09	3.838982e+01	2.962767e+02
1.690000e-06	5.379884e-06	4.462019e-09	3.834113e+01	2.960501e+02
1.700000e-06	5.371228e-06	4.459125e-09	3.827944e+01	2.957726e+02
1.710000e-06	5.361065e-06	4.454430e-09	3.820701e+01	2.954434e+02
1.720000e-06	5.349243e-06	4.443342e-09	3.812276e+01	2.950609e+02
1.730000e-06	5.335417e-06	4.443139e-09	3.802422e+01	2.946232e+02
1.740000e-06	5.319443e-06	4.418484e-09	3.791038e+01	2.941280e+02
1.750000e-06	5.301064e-06	4.383096e-09	3.777939e+01	2.935729e+02
1.760000e-06	5.279999e-06	4.406519e-09	3.762927e+01	2.929559e+02
1.770000e-06	5.256684e-06	4.401535e-09	3.746311e+01	2.922753e+02
1.780000e-06	5.232206e-06	4.414635e-09	3.728867e+01	2.915302e+02
1.790000e-06	5.207059e-06	4.432994e-09	3.710945e+01	2.907202e+02
1.800000e-06	5.180373e-06	4.289079e-09	3.691926e+01	2.898456e+02
1.810000e-06	5.151473e-06	4.348228e-09	3.671330e+01	2.889071e+02
1.820000e-06	5.120813e-06	4.415175e-09	3.649479e+01	2.879059e+02
1.830000e-06	5.088472e-06	4.301469e-09	3.626431e+01	2.868435e+02
1.840000e-06	5.054212e-06	4.413396e-09	3.602015e+01	2.857213e+02
1.850000e-06	5.018306e-06	4.419931e-09	3.576425e+01	2.845406e+02
1.860000e-06	4.980570e-06	4.292187e-09	3.549531e+01	2.833024e+02
1.870000e-06	4.940926e-06	4.330837e-09	3.521278e+01	2.820073e+02
1.880000e-06	4.899625e-06	4.240819e-09	3.491844e+01	2.806557e+02
1.890000e-06	4.856524e-06	4.251843e-09	3.461127e+01	2.792473e+02
1.900000e-06	4.811831e-06	4.317936e-09	3.429275e+01	2.777818e+02
1.910000e-06	4.765338e-06	4.194391e-09	3.396140e+01	2.762587e+02
1.920000e-06	4.716782e-06	4.238423e-09	3.361536e+01	2.746774e+02
1.930000e-06	4.666629e-06	4.168449e-09	3.325793e+01	2.730373e+02
1.940000e-06	4.614764e-06	4.101506e-09	3.288830e+01	2.713380e+02
1.950000e-06	4.560854e-06	4.156730e-09	3.250410e+01	2.695793e+02
1.960000e-06	4.504965e-06	4.088609e-09	3.210579e+01	2.677610e+02
1.970000e-06	4.447343e-06	4.089993e-09	3.169514e+01	2.658831e+02
1.980000e-06	4.388326e-06	4.031962e-09	3.127454e+01	2.639457e+02
1.990000e-06	4.327838e-06	4.010447e-09	3.084345e+01	2.619487e+02
2.000000e-06	4.265603e-06	4.023238e-09	3.039992e+01	2.598921e+02
2.010000e-06	4.201737e-06	3.915411e-09	2.994476e+01	2.577755e+02
2.020000e-06	4.136448e-06	3.922555e-09	2.947946e+01	2.555985e+02
2.030000e-06	4.069716e-06	3.880122e-09	2.900388e+01	2.533606e+02
2.040000e-06	4.001540e-06	3.847555e-09	2.851801e+01	2.510611e+02
2.050000e-06	3.931899e-06	3.831817e-09	2.802169e+01	2.486994e+02
2.060000e-06	3.860705e-06	3.776674e-09	2.751431e+01	2.462749e+02
2.070000e-06	3.788125e-06	3.774625e-09	2.699705e+01	2.437873e+02
2.080000e-06	3.714281e-06	3.678101e-09	2.647078e+01	2.412365e+02
2.090000e-06	3.639089e-06	3.638662e-09	2.593491e+01	2.386226e+02
2.100000e-06	3.562459e-06	3.622785e-09	2.538878e+01	2.359461e+02
2.110000e-06	3.484245e-06	3.593994e-09	2.483137e+01	2.332075e+02
2.120000e-06	3.404656e-06	3.562655e-09	2.426416e+01	2.304070e+02
2.130000e-06	3.323937e-06	3.487631e-09	2.368889e+01	2.275451e+02
2.140000e-06	3.242061e-06	3.459031e-09	2.310538e+01	2.246215e+02
2.150000e-06	3.159084e-06	3.398694e-09	2.251403e+01	2.216354e+02
2.160000e-06	3.075116e-06	3.357433e-09	2.191560e+01	2.185856e+02
2.170000e-06	2.990092e-06	3.323688e-09	2.130966e+01	2.154698e+02
2.180000e-06	2.903763e-06	3.276734e-09	2.069442e+01	2.122852e+02
2.190000e-06	2.816201e-06	3.223637e-09	2.007038e+01	2.090285e+02
2.200000e-06	2.727684e-06	3.160957e-09	1.943954e+01	2.056959e+02
2.210000e-06	2.638208e-06	3.124601e-09	1.880187e+01	2.022836e+02
2.220000e-06	2.547748e-06	3.072344e-09	1.815718e+01	1.987880e+02
2.230000e-06	2.456480e-06	3.017368e-09	1.750674e+01	1.952057e+02
2.240000e-06	2.364532e-06	2.955059e-09	1.685145e+01	1.915343e+02
2.250000e-06	2.271877e-06	2.901953e-09	1.619112e+01	1.877722e+02
2.260000e-06	2.178394e-06	2.850576e-09	1.552489e+01	1.839184e+02
2.270000e-06	2.083848e-06	2.792011e-09	1.485108e+01	1.799733e+02
2.280000e-06	1.988259e-06	2.729446e-09	1.416984e+01	1.759376e+02
2.290000e-06	1.891944e-06	2.658024e-09	1.348343e+01	1.718129e+02
2.300000e-06	1.795103e-06	2.591122e-09	1.279327e+01	1.676008e+02
2.310000e-06	1.697742e-06	2.528911e-09	1.209939e+01	1.633030e+02
2.320000e-06	1.599793e-06	2.472021e-09	1.140134e+01	1.589205e+02
2.330000e-06	1.501328e-06	2.406484e-09	1.069960e+01	1.544539e+02
2.340000e-06	1.402429e-06	2.336582e-09	9.994768e+00	1.499028e+02
2.350000e-06	1.303095e-06	2.260923e-09	9.286843e+00	1.452660e+02
2.360000e-06	1.203391e-06	2.188323e-09	8.576276e+00	1.405409e+02
2.370000e-06	1.103450e-06	2.122756e-09	7.864023e+00	1.357245e+02
2.380000e-06	1.003247e-06	2.051365e-09	7.149896e+00	1.308128e+02
2.390000e-06	9.026412e-07	1.971453e-09	6.432905e+00	1.258015e+02
2.400000e-06	8.015966e-07	1.886790e-09	5.712784e+00	1.206861e+02
2.410000e-06	7.001834e-07	1.804843e-09	4.990037e+00	1.154623e+02
2.420000e-06	5.986067e-07	1.726034e-09	4.266125e+00	1.101259e+02
2.430000e-06	4.968334e-07	1.647992e-09	3.540811e+00	1.046736e+02
2.440000e-06	3.947802e-07	1.566782e-09	2.813503e+00	9.910234e+01
2.450000e-06	2.925535e-07	1.482902e-09	2.084958e+00	9.340965e+01
2.460000e-06	1.901577e-07	1.391204e-09	1.355207e+00	8.759350e+01
2.470000e-06	8.763133e-08	1.296725e-09	6.245272e-01	8.165205e+01
2.480000e-06	-1.488690e-08	1.204324e-09	-1.060954e-01	7.558335e+01
2.490000e-06	-1.174189e-07	1.109377e-09	-8.368157e-01	6.938516e+01
2.500000e-06	-2.199187e-07	1.011182e-09	-1.567307e+00	6.305469e+01
2.510000e-06	-3.222860e-07	9.117525e-10	-2.296854e+00	5.658838e+01
2.520000e-06	-4.245311e-07	8.134400e-10	-3.025530e+00	4.998191e+01
2.530000e-06	-5.265740e-07	7.111265e-10	-3.752765e+00	4.323017e+01
2.540000e-06	-6.283881e-07	6.037421e-10	-4.478370e+00	3.632749e+01
2.550000e-06	-7.299474e-07	4.950621e-10	-5.202158e+00	2.926796e+01
2.560000e-06	-8.311807e-07	3.836666e-10	-5.923624e+00	2.204584e+01
2.570000e-06	-9.320693e-07	2.683453e-10	-6.642632e+00	1.465619e+01
2.580000e-06	-1.032611e-06	1.525334e-10	-7.359171e+00	7.095443e+00
2.590000e-06	-1.132812e-06	3.458128e-11	-8.073274e+00	-6.378766e-01
2.600000e-06	-1.232605e-06	-8.798271e-11	-8.784478e+00	-8.542490e+00
2.610000e-06	-1.331891e-06	-2.137216e-10	-9.492061e+00	-1.661374e+01
2.620000e-06	-1.430708e-06	-3.426105e-10	-1.019631e+01	-2.484307e+01
2.630000e-06	-1.529065e-06	-4.716779e-10	-1.089728e+01	-3.321763e+01
2.640000e-06	-1.626858e-06	-6.007839e-10	-1.159422e+01	-4.172007e+01
2.650000e-06	-1.724014e-06	-7.309111e-10	-1.228663e+01	-5.032855e+01
2.660000e-06	-1.820638e-06	-8.645428e-10	-1.297525e+01	-5.901695e+01
2.670000e-06	-1.916841e-06	-1.001723e-09	-1.366086e+01	-6.775533e+01
2.680000e-06	-2.012438e-06	-1.137814e-09	-1.434215e+01	-7.651060e+01
2.690000e-06	-2.107182e-06	-1.270922e-09	-1.501738e+01	-8.524741e+01
2.700000e-06	-2.200972e-06	-1.402156e-09	-1.568579e+01	-9.392914e+01
2.710000e-06	-2.293848e-06	-1.535343e-09	-1.634770e+01	-1.025191e+02
2.720000e-06	-2.385922e-06	-1.668502e-09	-1.700389e+01	-1.109816e+02
2.730000e-06	-2.477129e-06	-1.797271e-09	-1.765390e+01	-1.192833e+02
2.740000e-06	-2.567387e-06	-1.921170e-09	-1.829714e+01	-1.273942e+02
2.750000e-06	-2.656701e-06	-2.041236e-09	-1.893366e+01	-1.352884e+02
2.760000e-06	-2.745206e-06	-2.156473e-09	-1.956442e+01	-1.429453e+02
2.770000e-06	-2.832977e-06	-2.267703e-09	-2.018994e+01	-1.503493e+02
2.780000e-06	-2.919741e-06	-2.375947e-09	-2.080829e+01	-1.574908e+02
2.790000e-06	-3.005288e-06	-2.481203e-09	-2.141796e+01	-1.643653e+02
2.800000e-06	-3.089686e-06	-2.582202e-09	-2.201945e+01	-1.709735e+02
2.810000e-06	-3.173049e-06	-2.679701e-09	-2.261355e+01	-1.773205e+02
2.820000e-06	-3.255403e-06	-2.774064e-09	-2.320047e+01	-1.834147e+02
2.830000e-06	-3.336704e-06	-2.864401e-09	-2.377988e+01	-1.892670e+02
2.840000e-06	-3.416913e-06	-2.950499e-09	-2.435151e+01	-1.948900e+02
2.850000e-06	-3.495827e-06	-3.031045e-09	-2.491391e+01	-2.002964e+02
2.860000e-06	-3.573253e-06	-3.108687e-09	-2.546570e+01	-2.054986e+02
2.870000e-06	-3.649198e-06	-3.183501e-09	-2.600695e+01	-2.105078e+02
2.880000e-06	-3.723700e-06	-3.256697e-09	-2.653791e+01	-2.153333e+02
2.890000e-06	-3.796860e-06	-3.329617e-09	-2.705930e+01	-2.199826e+02
2.900000e-06	-3.868757e-06	-3.401238e-09	-2.757169e+01	-2.244608e+02
2.910000e-06	-3.939181e-06	-3.469282e-09	-2.807359e+01	-2.287714e+02
2.920000e-06	-4.008004e-06	-3.532973e-09	-2.856407e+01	-2.329161e+02
2.930000e-06	-4.075372e-06	-3.594162e-09	-2.904419e+01	-2.368953e+02
2.940000e-06	-4.141385e-06	-3.652533e-09	-2.951464e+01	-2.407092e+02
