# Temperatura_=_38.25
# Concentracion g/m^3_=_15000.0
# C_Vs_to_Am_M_A/Vsm_=_65563218390.804596
# pendiente_HvsI_1/m_=_3716.3
# ordenada_HvsI_A/m_=_1297.0
# frecuencia_Hz_=_301578.1416202844

Tiempo_(s)	Campo_(V.s)	Magnetizacion_(V.s)	Campo_(kA/m)	Magnetizacion_(A/m)
0.000000e+00	-5.385807e-06	-4.934361e-09	-3.833946e+01	-3.217599e+02
1.000000e-08	-5.382932e-06	-4.932663e-09	-3.831899e+01	-3.216784e+02
2.000000e-08	-5.378328e-06	-4.926841e-09	-3.828622e+01	-3.215368e+02
3.000000e-08	-5.372131e-06	-4.920287e-09	-3.824211e+01	-3.213332e+02
4.000000e-08	-5.364310e-06	-4.913665e-09	-3.818643e+01	-3.210653e+02
5.000000e-08	-5.354599e-06	-4.905672e-09	-3.811730e+01	-3.207311e+02
6.000000e-08	-5.342887e-06	-4.898766e-09	-3.803393e+01	-3.203289e+02
7.000000e-08	-5.329359e-06	-4.890999e-09	-3.793763e+01	-3.198580e+02
8.000000e-08	-5.313706e-06	-4.896043e-09	-3.782620e+01	-3.193184e+02
9.000000e-08	-5.295722e-06	-4.922014e-09	-3.769818e+01	-3.187114e+02
1.000000e-07	-5.275690e-06	-4.909353e-09	-3.755558e+01	-3.180386e+02
1.100000e-07	-5.253779e-06	-4.869375e-09	-3.739960e+01	-3.173025e+02
1.200000e-07	-5.230145e-06	-4.831388e-09	-3.723136e+01	-3.165053e+02
1.300000e-07	-5.204923e-06	-4.775828e-09	-3.705182e+01	-3.156492e+02
1.400000e-07	-5.178110e-06	-4.801043e-09	-3.686095e+01	-3.147357e+02
1.500000e-07	-5.149759e-06	-4.839785e-09	-3.665912e+01	-3.137650e+02
1.600000e-07	-5.119988e-06	-4.779644e-09	-3.644720e+01	-3.127365e+02
1.700000e-07	-5.088582e-06	-4.788290e-09	-3.622363e+01	-3.116482e+02
1.800000e-07	-5.055018e-06	-4.768650e-09	-3.598470e+01	-3.104970e+02
1.900000e-07	-5.019649e-06	-4.685017e-09	-3.573292e+01	-3.092792e+02
2.000000e-07	-4.982859e-06	-4.720922e-09	-3.547103e+01	-3.079906e+02
2.100000e-07	-4.944275e-06	-4.697601e-09	-3.519636e+01	-3.066272e+02
2.200000e-07	-4.903826e-06	-4.638197e-09	-3.490842e+01	-3.051855e+02
2.300000e-07	-4.861393e-06	-4.670522e-09	-3.460636e+01	-3.036630e+02
2.400000e-07	-4.817090e-06	-4.637303e-09	-3.429098e+01	-3.020586e+02
2.500000e-07	-4.771090e-06	-4.584800e-09	-3.396353e+01	-3.003722e+02
2.600000e-07	-4.723177e-06	-4.558105e-09	-3.362245e+01	-2.986052e+02
2.700000e-07	-4.673144e-06	-4.513875e-09	-3.326629e+01	-2.967601e+02
2.800000e-07	-4.621018e-06	-4.500428e-09	-3.289522e+01	-2.948398e+02
2.900000e-07	-4.567107e-06	-4.486339e-09	-3.251146e+01	-2.928478e+02
3.000000e-07	-4.511625e-06	-4.463247e-09	-3.211650e+01	-2.907873e+02
3.100000e-07	-4.454366e-06	-4.425365e-09	-3.170889e+01	-2.886608e+02
3.200000e-07	-4.395287e-06	-4.372983e-09	-3.128833e+01	-2.864700e+02
3.300000e-07	-4.334707e-06	-4.329647e-09	-3.085709e+01	-2.842155e+02
3.400000e-07	-4.272678e-06	-4.290868e-09	-3.041553e+01	-2.818968e+02
3.500000e-07	-4.209289e-06	-4.271815e-09	-2.996429e+01	-2.795128e+02
3.600000e-07	-4.144378e-06	-4.233174e-09	-2.950221e+01	-2.770613e+02
3.700000e-07	-4.077675e-06	-4.189243e-09	-2.902738e+01	-2.745402e+02
3.800000e-07	-4.009459e-06	-4.164183e-09	-2.854177e+01	-2.719475e+02
3.900000e-07	-3.939957e-06	-4.113790e-09	-2.804702e+01	-2.692817e+02
4.000000e-07	-3.869224e-06	-4.062771e-09	-2.754350e+01	-2.665422e+02
4.100000e-07	-3.797347e-06	-4.017244e-09	-2.703183e+01	-2.637293e+02
4.200000e-07	-3.723958e-06	-3.971732e-09	-2.650940e+01	-2.608441e+02
4.300000e-07	-3.648779e-06	-3.929195e-09	-2.597423e+01	-2.578886e+02
4.400000e-07	-3.572146e-06	-3.889616e-09	-2.542871e+01	-2.548652e+02
4.500000e-07	-3.494200e-06	-3.847458e-09	-2.487385e+01	-2.517763e+02
4.600000e-07	-3.414808e-06	-3.789309e-09	-2.430868e+01	-2.486239e+02
4.700000e-07	-3.334067e-06	-3.727963e-09	-2.373392e+01	-2.454093e+02
4.800000e-07	-3.252125e-06	-3.675140e-09	-2.315061e+01	-2.421327e+02
4.900000e-07	-3.169084e-06	-3.635111e-09	-2.255947e+01	-2.387928e+02
5.000000e-07	-3.085124e-06	-3.589560e-09	-2.196179e+01	-2.353874e+02
5.100000e-07	-3.000232e-06	-3.530891e-09	-2.135748e+01	-2.319129e+02
5.200000e-07	-2.914309e-06	-3.469578e-09	-2.074583e+01	-2.283650e+02
5.300000e-07	-2.827382e-06	-3.404996e-09	-2.012703e+01	-2.247390e+02
5.400000e-07	-2.739550e-06	-3.346461e-09	-1.950178e+01	-2.210303e+02
5.500000e-07	-2.650721e-06	-3.293118e-09	-1.886945e+01	-2.172349e+02
5.600000e-07	-2.560681e-06	-3.236060e-09	-1.822849e+01	-2.133495e+02
5.700000e-07	-2.469548e-06	-3.175492e-09	-1.757975e+01	-2.093721e+02
5.800000e-07	-2.377614e-06	-3.111372e-09	-1.692530e+01	-2.053019e+02
5.900000e-07	-2.284947e-06	-3.047067e-09	-1.626565e+01	-2.011391e+02
6.000000e-07	-2.191447e-06	-2.980601e-09	-1.560006e+01	-1.968850e+02
6.100000e-07	-2.097198e-06	-2.909697e-09	-1.492913e+01	-1.925413e+02
6.200000e-07	-2.002327e-06	-2.838723e-09	-1.425379e+01	-1.881099e+02
6.300000e-07	-1.906767e-06	-2.770746e-09	-1.357353e+01	-1.835925e+02
6.400000e-07	-1.810453e-06	-2.704738e-09	-1.288791e+01	-1.789897e+02
6.500000e-07	-1.713389e-06	-2.637977e-09	-1.219695e+01	-1.743017e+02
6.600000e-07	-1.615559e-06	-2.565175e-09	-1.150054e+01	-1.695272e+02
6.700000e-07	-1.517004e-06	-2.485926e-09	-1.079896e+01	-1.646641e+02
6.800000e-07	-1.417849e-06	-2.406116e-09	-1.009312e+01	-1.597091e+02
6.900000e-07	-1.318235e-06	-2.327997e-09	-9.384000e+00	-1.546585e+02
7.000000e-07	-1.218282e-06	-2.250719e-09	-8.672472e+00	-1.495083e+02
7.100000e-07	-1.118052e-06	-2.170627e-09	-7.958975e+00	-1.442548e+02
7.200000e-07	-1.017513e-06	-2.086051e-09	-7.243281e+00	-1.388943e+02
7.300000e-07	-9.166272e-07	-1.999473e-09	-6.525112e+00	-1.334242e+02
7.400000e-07	-8.153901e-07	-1.913960e-09	-5.804444e+00	-1.278425e+02
7.500000e-07	-7.137995e-07	-1.829719e-09	-5.081260e+00	-1.221479e+02
7.600000e-07	-6.119376e-07	-1.743670e-09	-4.356145e+00	-1.163395e+02
7.700000e-07	-5.099322e-07	-1.651265e-09	-3.630009e+00	-1.104168e+02
7.800000e-07	-4.077977e-07	-1.555973e-09	-2.902953e+00	-1.043788e+02
7.900000e-07	-3.055245e-07	-1.462468e-09	-2.174910e+00	-9.822384e+01
8.000000e-07	-2.031611e-07	-1.368147e-09	-1.446224e+00	-9.194891e+01
8.100000e-07	-1.007622e-07	-1.272269e-09	-7.172869e-01	-8.554962e+01
8.200000e-07	1.676791e-09	-1.174441e-09	1.193642e-02	-7.901981e+01
8.300000e-07	1.041757e-07	-1.073640e-09	7.415859e-01	-7.235152e+01
8.400000e-07	2.066244e-07	-9.703297e-10	1.470878e+00	-6.553524e+01
8.500000e-07	3.089987e-07	-8.657000e-10	2.199641e+00	-5.856022e+01
8.600000e-07	4.112994e-07	-7.583912e-10	2.927880e+00	-5.141505e+01
8.700000e-07	5.135056e-07	-6.460560e-10	3.655446e+00	-4.408831e+01
8.800000e-07	6.156046e-07	-5.310934e-10	4.382249e+00	-3.656935e+01
8.900000e-07	7.175141e-07	-4.161442e-10	5.107703e+00	-2.884910e+01
9.000000e-07	8.191720e-07	-2.992358e-10	5.831366e+00	-2.092081e+01
9.100000e-07	9.205236e-07	-1.774643e-10	6.552848e+00	-1.278080e+01
9.200000e-07	1.021535e-06	-5.118782e-11	7.271911e+00	-4.429049e+00
9.300000e-07	1.122213e-06	7.785699e-11	7.988594e+00	4.130364e+00
9.400000e-07	1.222607e-06	2.105487e-10	8.703259e+00	1.288892e+01
9.500000e-07	1.322702e-06	3.468867e-10	9.415798e+00	2.183351e+01
9.600000e-07	1.422332e-06	4.858362e-10	1.012502e+01	3.094649e+01
9.700000e-07	1.521336e-06	6.266034e-10	1.082980e+01	4.020578e+01
9.800000e-07	1.619582e-06	7.688367e-10	1.152917e+01	4.958525e+01
9.900000e-07	1.717068e-06	9.130059e-10	1.222314e+01	5.905510e+01
1.000000e-06	1.813904e-06	1.059889e-09	1.291247e+01	6.858248e+01
1.010000e-06	1.910034e-06	1.208117e-09	1.359678e+01	7.813212e+01
1.020000e-06	2.005408e-06	1.355562e-09	1.427571e+01	8.766712e+01
1.030000e-06	2.100060e-06	1.500720e-09	1.494951e+01	9.714978e+01
1.040000e-06	2.193953e-06	1.644062e-09	1.561790e+01	1.065425e+02
1.050000e-06	2.287079e-06	1.783497e-09	1.628082e+01	1.158087e+02
1.060000e-06	2.379553e-06	1.919081e-09	1.693911e+01	1.249138e+02
1.070000e-06	2.471354e-06	2.052328e-09	1.759260e+01	1.338259e+02
1.080000e-06	2.562281e-06	2.183493e-09	1.823988e+01	1.425167e+02
1.090000e-06	2.652098e-06	2.312584e-09	1.887925e+01	1.509624e+02
1.100000e-06	2.740869e-06	2.439782e-09	1.951117e+01	1.591436e+02
1.110000e-06	2.828651e-06	2.560492e-09	2.013606e+01	1.670461e+02
1.120000e-06	2.915394e-06	2.673720e-09	2.075355e+01	1.746610e+02
1.130000e-06	3.001169e-06	2.784238e-09	2.136415e+01	1.819842e+02
1.140000e-06	3.086003e-06	2.893908e-09	2.196805e+01	1.890162e+02
1.150000e-06	3.169965e-06	2.998061e-09	2.256574e+01	1.957620e+02
1.160000e-06	3.252919e-06	3.094609e-09	2.315626e+01	2.022296e+02
1.170000e-06	3.334652e-06	3.187648e-09	2.373808e+01	2.084301e+02
1.180000e-06	3.415156e-06	3.276791e-09	2.431116e+01	2.143761e+02
1.190000e-06	3.494377e-06	3.363541e-09	2.487511e+01	2.200813e+02
1.200000e-06	3.572315e-06	3.448377e-09	2.542992e+01	2.255598e+02
1.210000e-06	3.649015e-06	3.530218e-09	2.597591e+01	2.308249e+02
1.220000e-06	3.724344e-06	3.608881e-09	2.651215e+01	2.358892e+02
1.230000e-06	3.798100e-06	3.684642e-09	2.703719e+01	2.407637e+02
1.240000e-06	3.870358e-06	3.756745e-09	2.755157e+01	2.454576e+02
1.250000e-06	3.941213e-06	3.825304e-09	2.805596e+01	2.499785e+02
1.260000e-06	4.010625e-06	3.892025e-09	2.855007e+01	2.543321e+02
1.270000e-06	4.078754e-06	3.956531e-09	2.903506e+01	2.585223e+02
1.280000e-06	4.145420e-06	4.016909e-09	2.950963e+01	2.625520e+02
1.290000e-06	4.210424e-06	4.074234e-09	2.997237e+01	2.664224e+02
1.300000e-06	4.273892e-06	4.128398e-09	3.042417e+01	2.701343e+02
1.310000e-06	4.335867e-06	4.180517e-09	3.086535e+01	2.736878e+02
1.320000e-06	4.396447e-06	4.230954e-09	3.129659e+01	2.770830e+02
1.330000e-06	4.455608e-06	4.279202e-09	3.171773e+01	2.803202e+02
1.340000e-06	4.513045e-06	4.325087e-09	3.212660e+01	2.834000e+02
1.350000e-06	4.568731e-06	4.367431e-09	3.252301e+01	2.863239e+02
1.360000e-06	4.622829e-06	4.406636e-09	3.290811e+01	2.890943e+02
1.370000e-06	4.675228e-06	4.443928e-09	3.328113e+01	2.917145e+02
1.380000e-06	4.725627e-06	4.479402e-09	3.363990e+01	2.941888e+02
1.390000e-06	4.774042e-06	4.512390e-09	3.398454e+01	2.965227e+02
1.400000e-06	4.820677e-06	4.542352e-09	3.431652e+01	2.987223e+02
1.410000e-06	4.865666e-06	4.570581e-09	3.463678e+01	3.007944e+02
1.420000e-06	4.909107e-06	4.597822e-09	3.494601e+01	3.027463e+02
1.430000e-06	4.950745e-06	4.624192e-09	3.524242e+01	3.045851e+02
1.440000e-06	4.990524e-06	4.648878e-09	3.552559e+01	3.063178e+02
1.450000e-06	5.028598e-06	4.671998e-09	3.579663e+01	3.079504e+02
1.460000e-06	5.065080e-06	4.693652e-09	3.605633e+01	3.094883e+02
1.470000e-06	5.099867e-06	4.715051e-09	3.630397e+01	3.109357e+02
1.480000e-06	5.132739e-06	4.736624e-09	3.653796e+01	3.122954e+02
1.490000e-06	5.163768e-06	4.755596e-09	3.675885e+01	3.135691e+02
1.500000e-06	5.193105e-06	4.771598e-09	3.696769e+01	3.147573e+02
1.510000e-06	5.220789e-06	4.786599e-09	3.716476e+01	3.158598e+02
1.520000e-06	5.246487e-06	4.800665e-09	3.734769e+01	3.168758e+02
1.530000e-06	5.270049e-06	4.814637e-09	3.751543e+01	3.178044e+02
1.540000e-06	5.291766e-06	4.827486e-09	3.767002e+01	3.186450e+02
1.550000e-06	5.311778e-06	4.838681e-09	3.781247e+01	3.193974e+02
1.560000e-06	5.329856e-06	4.849658e-09	3.794117e+01	3.200626e+02
1.570000e-06	5.345891e-06	4.859308e-09	3.805532e+01	3.206422e+02
1.580000e-06	5.359997e-06	4.868177e-09	3.815573e+01	3.211390e+02
1.590000e-06	5.372142e-06	4.875537e-09	3.824219e+01	3.215566e+02
1.600000e-06	5.382097e-06	4.881193e-09	3.831305e+01	3.218990e+02
1.610000e-06	5.389914e-06	4.885883e-09	3.836870e+01	3.221706e+02
1.620000e-06	5.395870e-06	4.891253e-09	3.841110e+01	3.223757e+02
1.630000e-06	5.400092e-06	4.897311e-09	3.844115e+01	3.225176e+02
1.640000e-06	5.402441e-06	4.901346e-09	3.845787e+01	3.225992e+02
1.650000e-06	5.402740e-06	4.903978e-09	3.846000e+01	3.226221e+02
1.660000e-06	5.401199e-06	4.901029e-09	3.844903e+01	3.225867e+02
1.670000e-06	5.398022e-06	4.895913e-09	3.842641e+01	3.224924e+02
1.680000e-06	5.393158e-06	4.894978e-09	3.839179e+01	3.223376e+02
1.690000e-06	5.386391e-06	4.893492e-09	3.834362e+01	3.221203e+02
1.700000e-06	5.377783e-06	4.891283e-09	3.828234e+01	3.218383e+02
1.710000e-06	5.367597e-06	4.889447e-09	3.820983e+01	3.214895e+02
1.720000e-06	5.355728e-06	4.889755e-09	3.812534e+01	3.210725e+02
1.730000e-06	5.341871e-06	4.884698e-09	3.802670e+01	3.205868e+02
1.740000e-06	5.325942e-06	4.833325e-09	3.791330e+01	3.200326e+02
1.750000e-06	5.307611e-06	4.818536e-09	3.778281e+01	3.194112e+02
1.760000e-06	5.286561e-06	4.837336e-09	3.763297e+01	3.187246e+02
1.770000e-06	5.263278e-06	4.853617e-09	3.746722e+01	3.179750e+02
1.780000e-06	5.238857e-06	4.896919e-09	3.729338e+01	3.171650e+02
1.790000e-06	5.213783e-06	4.815251e-09	3.711488e+01	3.162964e+02
1.800000e-06	5.187143e-06	4.749193e-09	3.692525e+01	3.153706e+02
1.810000e-06	5.158345e-06	4.800883e-09	3.672024e+01	3.143875e+02
1.820000e-06	5.127842e-06	4.739579e-09	3.650310e+01	3.133463e+02
1.830000e-06	5.095516e-06	4.744428e-09	3.627299e+01	3.122447e+02
1.840000e-06	5.061205e-06	4.796001e-09	3.602875e+01	3.110795e+02
1.850000e-06	5.025330e-06	4.691403e-09	3.577336e+01	3.098468e+02
1.860000e-06	4.987611e-06	4.711625e-09	3.550486e+01	3.085424e+02
1.870000e-06	4.947950e-06	4.704119e-09	3.522252e+01	3.071623e+02
1.880000e-06	4.906638e-06	4.585504e-09	3.492844e+01	3.057034e+02
1.890000e-06	4.863538e-06	4.633753e-09	3.462163e+01	3.041634e+02
1.900000e-06	4.818905e-06	4.600354e-09	3.430390e+01	3.025413e+02
1.910000e-06	4.772393e-06	4.564650e-09	3.397281e+01	3.008374e+02
1.920000e-06	4.723740e-06	4.582710e-09	3.362646e+01	2.990533e+02
1.930000e-06	4.673564e-06	4.488419e-09	3.326928e+01	2.971917e+02
1.940000e-06	4.621685e-06	4.501874e-09	3.289998e+01	2.952557e+02
1.950000e-06	4.567674e-06	4.457911e-09	3.251549e+01	2.932487e+02
1.960000e-06	4.511664e-06	4.395709e-09	3.211678e+01	2.911737e+02
1.970000e-06	4.453991e-06	4.416257e-09	3.170623e+01	2.890332e+02
1.980000e-06	4.394926e-06	4.369055e-09	3.128576e+01	2.868286e+02
1.990000e-06	4.334422e-06	4.356884e-09	3.085506e+01	2.845604e+02
2.000000e-06	4.272212e-06	4.284403e-09	3.041221e+01	2.822278e+02
2.010000e-06	4.208339e-06	4.243085e-09	2.995752e+01	2.798293e+02
2.020000e-06	4.142956e-06	4.228245e-09	2.949208e+01	2.773630e+02
2.030000e-06	4.076130e-06	4.148200e-09	2.901638e+01	2.748267e+02
2.040000e-06	4.007948e-06	4.163115e-09	2.853102e+01	2.722183e+02
2.050000e-06	3.938333e-06	4.125345e-09	2.803545e+01	2.695367e+02
2.060000e-06	3.867072e-06	4.071123e-09	2.752817e+01	2.667813e+02
2.070000e-06	3.794444e-06	4.025794e-09	2.701117e+01	2.639527e+02
2.080000e-06	3.720596e-06	3.960748e-09	2.648547e+01	2.610521e+02
2.090000e-06	3.645308e-06	3.937549e-09	2.594953e+01	2.580818e+02
2.100000e-06	3.568649e-06	3.874360e-09	2.540382e+01	2.550440e+02
2.110000e-06	3.490417e-06	3.836577e-09	2.484691e+01	2.519413e+02
2.120000e-06	3.410727e-06	3.799976e-09	2.427963e+01	2.487754e+02
2.130000e-06	3.329989e-06	3.752634e-09	2.370489e+01	2.455475e+02
2.140000e-06	3.248123e-06	3.702104e-09	2.312212e+01	2.422574e+02
2.150000e-06	3.165044e-06	3.642580e-09	2.253071e+01	2.389036e+02
2.160000e-06	3.080951e-06	3.598912e-09	2.193209e+01	2.354836e+02
2.170000e-06	2.995898e-06	3.538855e-09	2.132663e+01	2.319936e+02
2.180000e-06	2.909479e-06	3.494232e-09	2.071145e+01	2.284293e+02
2.190000e-06	2.821729e-06	3.440605e-09	2.008679e+01	2.247859e+02
2.200000e-06	2.733092e-06	3.382513e-09	1.945582e+01	2.210589e+02
2.210000e-06	2.643577e-06	3.321162e-09	1.881859e+01	2.172443e+02
2.220000e-06	2.553120e-06	3.253114e-09	1.817466e+01	2.133392e+02
2.230000e-06	2.461861e-06	3.199985e-09	1.752503e+01	2.093419e+02
2.240000e-06	2.369843e-06	3.143054e-09	1.686999e+01	2.052516e+02
2.250000e-06	2.277025e-06	3.088395e-09	1.620925e+01	2.010691e+02
2.260000e-06	2.183449e-06	3.025184e-09	1.554312e+01	1.967955e+02
2.270000e-06	2.088882e-06	2.954816e-09	1.486994e+01	1.924328e+02
2.280000e-06	1.993171e-06	2.881647e-09	1.418860e+01	1.879828e+02
2.290000e-06	1.896676e-06	2.809141e-09	1.350170e+01	1.834469e+02
2.300000e-06	1.799714e-06	2.738029e-09	1.281146e+01	1.788259e+02
2.310000e-06	1.702316e-06	2.669981e-09	1.211813e+01	1.741194e+02
2.320000e-06	1.604341e-06	2.601509e-09	1.142067e+01	1.693260e+02
2.330000e-06	1.505794e-06	2.527034e-09	1.071916e+01	1.644434e+02
2.340000e-06	1.406806e-06	2.456553e-09	1.001450e+01	1.594681e+02
2.350000e-06	1.307316e-06	2.382761e-09	9.306270e+00	1.543965e+02
2.360000e-06	1.207409e-06	2.304385e-09	8.595077e+00	1.492244e+02
2.370000e-06	1.107260e-06	2.222659e-09	7.882153e+00	1.439481e+02
2.380000e-06	1.006820e-06	2.137638e-09	7.167161e+00	1.385642e+02
2.390000e-06	9.060199e-07	2.053683e-09	6.449602e+00	1.330703e+02
2.400000e-06	8.049346e-07	1.967774e-09	5.730016e+00	1.274644e+02
2.410000e-06	7.035845e-07	1.878980e-09	5.008544e+00	1.217453e+02
2.420000e-06	6.020629e-07	1.790588e-09	4.285851e+00	1.159125e+02
2.430000e-06	5.003440e-07	1.701179e-09	3.561754e+00	1.099651e+02
2.440000e-06	3.982835e-07	1.615146e-09	2.835225e+00	1.039021e+02
2.450000e-06	2.960067e-07	1.528879e-09	2.107156e+00	9.772157e+01
2.460000e-06	1.936077e-07	1.433088e-09	1.378218e+00	9.142034e+01
2.470000e-06	9.106806e-08	1.330279e-09	6.482780e-01	8.499357e+01
2.480000e-06	-1.151454e-08	1.221296e-09	-8.196752e-02	7.843472e+01
2.490000e-06	-1.140736e-07	1.111798e-09	-8.120457e-01	7.173548e+01
2.500000e-06	-2.165169e-07	1.006804e-09	-1.541300e+00	6.488603e+01
2.510000e-06	-3.188137e-07	9.044288e-10	-2.269510e+00	5.787543e+01
2.520000e-06	-4.210246e-07	8.005657e-10	-2.997110e+00	5.069220e+01
2.530000e-06	-5.231080e-07	6.898127e-10	-3.723802e+00	4.332504e+01
2.540000e-06	-6.249905e-07	5.739481e-10	-4.449063e+00	3.576355e+01
2.550000e-06	-7.265773e-07	4.541984e-10	-5.172220e+00	2.799910e+01
2.560000e-06	-8.279000e-07	3.282375e-10	-5.893497e+00	2.002555e+01
2.570000e-06	-9.289820e-07	1.966765e-10	-6.613060e+00	1.183995e+01
2.580000e-06	-1.029745e-06	6.373004e-11	-7.330353e+00	3.443111e+00
2.590000e-06	-1.130138e-06	-6.980680e-11	-8.045013e+00	-5.159938e+00
2.600000e-06	-1.230076e-06	-2.040973e-10	-8.756433e+00	-1.395971e+01
2.610000e-06	-1.329538e-06	-3.383617e-10	-9.464460e+00	-2.294211e+01
2.620000e-06	-1.428533e-06	-4.760230e-10	-1.016917e+01	-3.208854e+01
2.630000e-06	-1.527035e-06	-6.169594e-10	-1.087037e+01	-4.137600e+01
2.640000e-06	-1.625029e-06	-7.589582e-10	-1.156795e+01	-5.077755e+01
2.650000e-06	-1.722448e-06	-9.017584e-10	-1.226144e+01	-6.026268e+01
2.660000e-06	-1.819315e-06	-1.046616e-09	-1.295099e+01	-6.979796e+01
2.670000e-06	-1.915680e-06	-1.194522e-09	-1.363698e+01	-7.934770e+01
2.680000e-06	-2.011429e-06	-1.342625e-09	-1.431858e+01	-8.887476e+01
2.690000e-06	-2.106313e-06	-1.488452e-09	-1.499402e+01	-9.834139e+01
2.700000e-06	-2.200208e-06	-1.632892e-09	-1.566242e+01	-1.077101e+02
2.710000e-06	-2.293258e-06	-1.775079e-09	-1.632481e+01	-1.169447e+02
2.720000e-06	-2.385523e-06	-1.912970e-09	-1.698161e+01	-1.260111e+02
2.730000e-06	-2.476878e-06	-2.046443e-09	-1.763193e+01	-1.348781e+02
2.740000e-06	-2.567330e-06	-2.177314e-09	-1.827582e+01	-1.435184e+02
2.750000e-06	-2.656863e-06	-2.306215e-09	-1.891317e+01	-1.519089e+02
2.760000e-06	-2.745533e-06	-2.431255e-09	-1.954438e+01	-1.600315e+02
2.770000e-06	-2.833369e-06	-2.552302e-09	-2.016965e+01	-1.678731e+02
2.780000e-06	-2.920192e-06	-2.668803e-09	-2.078771e+01	-1.754257e+02
2.790000e-06	-3.005898e-06	-2.781432e-09	-2.139782e+01	-1.826864e+02
2.800000e-06	-3.090508e-06	-2.891040e-09	-2.200012e+01	-1.896567e+02
2.810000e-06	-3.174016e-06	-2.996743e-09	-2.259458e+01	-1.963421e+02
2.820000e-06	-3.256442e-06	-3.094099e-09	-2.318134e+01	-2.027516e+02
2.830000e-06	-3.337850e-06	-3.185130e-09	-2.376085e+01	-2.088965e+02
2.840000e-06	-3.418242e-06	-3.272651e-09	-2.433313e+01	-2.147898e+02
2.850000e-06	-3.497406e-06	-3.357107e-09	-2.489667e+01	-2.204454e+02
2.860000e-06	-3.575043e-06	-3.440204e-09	-2.544934e+01	-2.258771e+02
2.870000e-06	-3.651140e-06	-3.520027e-09	-2.599104e+01	-2.310983e+02
2.880000e-06	-3.725816e-06	-3.596742e-09	-2.652263e+01	-2.361211e+02
2.890000e-06	-3.799172e-06	-3.671139e-09	-2.704482e+01	-2.409563e+02
2.900000e-06	-3.871213e-06	-3.744123e-09	-2.755766e+01	-2.456127e+02
2.910000e-06	-3.941764e-06	-3.813945e-09	-2.805988e+01	-2.500974e+02
2.920000e-06	-4.010796e-06	-3.879016e-09	-2.855129e+01	-2.544158e+02
2.930000e-06	-4.078365e-06	-3.941564e-09	-2.903229e+01	-2.585715e+02
2.940000e-06	-4.144448e-06	-4.001894e-09	-2.950271e+01	-2.625670e+02
