# Temperatura_=_80.15
# Concentracion g/m^3_=_15000.0
# C_Vs_to_Am_M_A/Vsm_=_65563218390.804596
# pendiente_HvsI_1/m_=_3716.3
# ordenada_HvsI_A/m_=_1297.0
# frecuencia_Hz_=_301577.9014460455

Tiempo_(s)	Campo_(V.s)	Magnetizacion_(V.s)	Campo_(kA/m)	Magnetizacion_(A/m)
0.000000e+00	-5.380141e-06	-7.025551e-09	-3.833914e+01	-4.583575e+02
1.000000e-08	-5.377119e-06	-7.022451e-09	-3.831760e+01	-4.581493e+02
2.000000e-08	-5.372373e-06	-7.015359e-09	-3.828378e+01	-4.578350e+02
3.000000e-08	-5.366023e-06	-7.008597e-09	-3.823853e+01	-4.574123e+02
4.000000e-08	-5.358077e-06	-6.997927e-09	-3.818191e+01	-4.568807e+02
5.000000e-08	-5.348216e-06	-6.985007e-09	-3.811164e+01	-4.562421e+02
6.000000e-08	-5.336296e-06	-6.973307e-09	-3.802670e+01	-4.555014e+02
7.000000e-08	-5.322514e-06	-6.951702e-09	-3.792849e+01	-4.546654e+02
8.000000e-08	-5.306553e-06	-6.940544e-09	-3.781475e+01	-4.537427e+02
9.000000e-08	-5.288365e-06	-6.981155e-09	-3.768514e+01	-4.527426e+02
1.000000e-07	-5.268218e-06	-6.974312e-09	-3.754157e+01	-4.516737e+02
1.100000e-07	-5.246216e-06	-6.930719e-09	-3.738479e+01	-4.505429e+02
1.200000e-07	-5.222550e-06	-6.915878e-09	-3.721614e+01	-4.493545e+02
1.300000e-07	-5.197293e-06	-6.788464e-09	-3.703616e+01	-4.481094e+02
1.400000e-07	-5.170400e-06	-6.772057e-09	-3.684452e+01	-4.468046e+02
1.500000e-07	-5.141912e-06	-6.903633e-09	-3.664151e+01	-4.454340e+02
1.600000e-07	-5.111990e-06	-6.760445e-09	-3.642828e+01	-4.439882e+02
1.700000e-07	-5.080482e-06	-6.769379e-09	-3.620375e+01	-4.424563e+02
1.800000e-07	-5.046767e-06	-6.837135e-09	-3.596351e+01	-4.408265e+02
1.900000e-07	-5.011252e-06	-6.633407e-09	-3.571042e+01	-4.390874e+02
2.000000e-07	-4.974313e-06	-6.665249e-09	-3.544719e+01	-4.372298e+02
2.100000e-07	-4.935590e-06	-6.686075e-09	-3.517125e+01	-4.352467e+02
2.200000e-07	-4.895008e-06	-6.558606e-09	-3.488206e+01	-4.331348e+02
2.300000e-07	-4.852457e-06	-6.590998e-09	-3.457884e+01	-4.308940e+02
2.400000e-07	-4.808055e-06	-6.566506e-09	-3.426243e+01	-4.285274e+02
2.500000e-07	-4.761912e-06	-6.503130e-09	-3.393361e+01	-4.260405e+02
2.600000e-07	-4.713783e-06	-6.493178e-09	-3.359064e+01	-4.234405e+02
2.700000e-07	-4.663586e-06	-6.404095e-09	-3.323294e+01	-4.207349e+02
2.800000e-07	-4.611400e-06	-6.367654e-09	-3.286105e+01	-4.179308e+02
2.900000e-07	-4.557347e-06	-6.347605e-09	-3.247587e+01	-4.150338e+02
3.000000e-07	-4.501724e-06	-6.295079e-09	-3.207950e+01	-4.120476e+02
3.100000e-07	-4.444440e-06	-6.241220e-09	-3.167129e+01	-4.089731e+02
3.200000e-07	-4.385347e-06	-6.201896e-09	-3.125020e+01	-4.058095e+02
3.300000e-07	-4.324673e-06	-6.150826e-09	-3.081782e+01	-4.025536e+02
3.400000e-07	-4.262554e-06	-6.058715e-09	-3.037516e+01	-3.992012e+02
3.500000e-07	-4.199090e-06	-6.035670e-09	-2.992291e+01	-3.957476e+02
3.600000e-07	-4.134072e-06	-5.999560e-09	-2.945959e+01	-3.921883e+02
3.700000e-07	-4.067328e-06	-5.922279e-09	-2.898397e+01	-3.885197e+02
3.800000e-07	-3.999070e-06	-5.873508e-09	-2.849756e+01	-3.847399e+02
3.900000e-07	-3.929462e-06	-5.808521e-09	-2.800153e+01	-3.808483e+02
4.000000e-07	-3.858599e-06	-5.744669e-09	-2.749656e+01	-3.768464e+02
4.100000e-07	-3.786479e-06	-5.671961e-09	-2.698263e+01	-3.727364e+02
4.200000e-07	-3.712975e-06	-5.605427e-09	-2.645884e+01	-3.685220e+02
4.300000e-07	-3.637920e-06	-5.554798e-09	-2.592399e+01	-3.642067e+02
4.400000e-07	-3.561380e-06	-5.492023e-09	-2.537856e+01	-3.597937e+02
4.500000e-07	-3.483407e-06	-5.423834e-09	-2.482293e+01	-3.552854e+02
4.600000e-07	-3.403997e-06	-5.351212e-09	-2.425704e+01	-3.506829e+02
4.700000e-07	-3.323320e-06	-5.273931e-09	-2.368214e+01	-3.459858e+02
4.800000e-07	-3.241453e-06	-5.189274e-09	-2.309875e+01	-3.411923e+02
4.900000e-07	-3.158472e-06	-5.113009e-09	-2.250742e+01	-3.362993e+02
5.000000e-07	-3.074500e-06	-5.046660e-09	-2.190903e+01	-3.313028e+02
5.100000e-07	-2.989571e-06	-4.972516e-09	-2.130383e+01	-3.261986e+02
5.200000e-07	-2.903670e-06	-4.892528e-09	-2.069169e+01	-3.209821e+02
5.300000e-07	-2.816773e-06	-4.803771e-09	-2.007246e+01	-3.156494e+02
5.400000e-07	-2.728973e-06	-4.712139e-09	-1.944679e+01	-3.101970e+02
5.500000e-07	-2.640230e-06	-4.626561e-09	-1.881440e+01	-3.046225e+02
5.600000e-07	-2.550369e-06	-4.541817e-09	-1.817405e+01	-2.989241e+02
5.700000e-07	-2.459425e-06	-4.453801e-09	-1.752598e+01	-2.931009e+02
5.800000e-07	-2.367558e-06	-4.356937e-09	-1.687133e+01	-2.871527e+02
5.900000e-07	-2.274903e-06	-4.264566e-09	-1.621107e+01	-2.810797e+02
6.000000e-07	-2.181443e-06	-4.173356e-09	-1.554507e+01	-2.748823e+02
6.100000e-07	-2.087247e-06	-4.075077e-09	-1.487382e+01	-2.685611e+02
6.200000e-07	-1.992392e-06	-3.973222e-09	-1.419788e+01	-2.621166e+02
6.300000e-07	-1.896819e-06	-3.871058e-09	-1.351682e+01	-2.555492e+02
6.400000e-07	-1.800509e-06	-3.771551e-09	-1.283051e+01	-2.488591e+02
6.500000e-07	-1.703484e-06	-3.671325e-09	-1.213911e+01	-2.420464e+02
6.600000e-07	-1.605733e-06	-3.567654e-09	-1.144253e+01	-2.351108e+02
6.700000e-07	-1.507282e-06	-3.455679e-09	-1.074096e+01	-2.280516e+02
6.800000e-07	-1.408210e-06	-3.339959e-09	-1.003498e+01	-2.208677e+02
6.900000e-07	-1.308654e-06	-3.223644e-09	-9.325530e+00	-2.135570e+02
7.000000e-07	-1.208734e-06	-3.111132e-09	-8.613495e+00	-2.061164e+02
7.100000e-07	-1.108512e-06	-3.001212e-09	-7.899310e+00	-1.985415e+02
7.200000e-07	-1.007992e-06	-2.884961e-09	-7.182998e+00	-1.908267e+02
7.300000e-07	-9.071796e-07	-2.763081e-09	-6.464605e+00	-1.829646e+02
7.400000e-07	-8.060858e-07	-2.637205e-09	-5.744206e+00	-1.749467e+02
7.500000e-07	-7.046485e-07	-2.512060e-09	-5.021359e+00	-1.667634e+02
7.600000e-07	-6.029477e-07	-2.386301e-09	-4.296634e+00	-1.584041e+02
7.700000e-07	-5.010848e-07	-2.255190e-09	-3.570754e+00	-1.498583e+02
7.800000e-07	-3.990641e-07	-2.119547e-09	-2.843750e+00	-1.411157e+02
7.900000e-07	-2.968432e-07	-1.979607e-09	-2.115319e+00	-1.321667e+02
8.000000e-07	-1.944665e-07	-1.837018e-09	-1.385778e+00	-1.230031e+02
8.100000e-07	-9.206054e-08	-1.695343e-09	-6.560278e-01	-1.136179e+02
8.200000e-07	1.034566e-08	-1.551580e-09	7.372366e-02	-1.040058e+02
8.300000e-07	1.127763e-07	-1.399887e-09	8.036493e-01	-9.416247e+01
8.400000e-07	2.152153e-07	-1.243778e-09	1.533634e+00	-8.408436e+01
8.500000e-07	3.176040e-07	-1.086748e-09	2.263261e+00	-7.376820e+01
8.600000e-07	4.198796e-07	-9.260420e-10	2.992082e+00	-6.321041e+01
8.700000e-07	5.220418e-07	-7.570978e-10	3.720095e+00	-5.240663e+01
8.800000e-07	6.240586e-07	-5.836475e-10	4.447071e+00	-4.135164e+01
8.900000e-07	7.258610e-07	-4.090028e-10	5.172520e+00	-3.003945e+01
9.000000e-07	8.274016e-07	-2.331042e-10	5.896103e+00	-1.846396e+01
9.100000e-07	9.286104e-07	-5.372435e-11	6.617322e+00	-6.619944e+00
9.200000e-07	1.029512e-06	1.280914e-10	7.336349e+00	5.495550e+00
9.300000e-07	1.130105e-06	3.133197e-10	8.053181e+00	1.788154e+01
9.400000e-07	1.230350e-06	5.062831e-10	8.767530e+00	3.053138e+01
9.500000e-07	1.330260e-06	7.036151e-10	9.479497e+00	4.343115e+01
9.600000e-07	1.429739e-06	9.028108e-10	1.018839e+01	5.655840e+01
9.700000e-07	1.528643e-06	1.103698e-09	1.089318e+01	6.988134e+01
9.800000e-07	1.626847e-06	1.307986e-09	1.159299e+01	8.335887e+01
9.900000e-07	1.724217e-06	1.512739e-09	1.228686e+01	9.694119e+01
1.000000e-06	1.820828e-06	1.715471e-09	1.297531e+01	1.105714e+02
1.010000e-06	1.916757e-06	1.918352e-09	1.365890e+01	1.241874e+02
1.020000e-06	2.011930e-06	2.122527e-09	1.433711e+01	1.377249e+02
1.030000e-06	2.106401e-06	2.326915e-09	1.501031e+01	1.511200e+02
1.040000e-06	2.200168e-06	2.528023e-09	1.567850e+01	1.643123e+02
1.050000e-06	2.293129e-06	2.723771e-09	1.634095e+01	1.772473e+02
1.060000e-06	2.385393e-06	2.911897e-09	1.699842e+01	1.898789e+02
1.070000e-06	2.476999e-06	3.095740e-09	1.765121e+01	2.021702e+02
1.080000e-06	2.567736e-06	3.277890e-09	1.829781e+01	2.140945e+02
1.090000e-06	2.657367e-06	3.457125e-09	1.893652e+01	2.256348e+02
1.100000e-06	2.745860e-06	3.630532e-09	1.956713e+01	2.367830e+02
1.110000e-06	2.833333e-06	3.793762e-09	2.019047e+01	2.475380e+02
1.120000e-06	2.919883e-06	3.949479e-09	2.080723e+01	2.579038e+02
1.130000e-06	3.005486e-06	4.102759e-09	2.141724e+01	2.678879e+02
1.140000e-06	3.090111e-06	4.253838e-09	2.202028e+01	2.774989e+02
1.150000e-06	3.173889e-06	4.398903e-09	2.261729e+01	2.867455e+02
1.160000e-06	3.256637e-06	4.533311e-09	2.320695e+01	2.956352e+02
1.170000e-06	3.338100e-06	4.659462e-09	2.378746e+01	3.041742e+02
1.180000e-06	3.418330e-06	4.780970e-09	2.435918e+01	3.123675e+02
1.190000e-06	3.497386e-06	4.899009e-09	2.492254e+01	3.202196e+02
1.200000e-06	3.575217e-06	5.012712e-09	2.547717e+01	3.277356e+02
1.210000e-06	3.651785e-06	5.118983e-09	2.602280e+01	3.349220e+02
1.220000e-06	3.727039e-06	5.220450e-09	2.655906e+01	3.417878e+02
1.230000e-06	3.800647e-06	5.319080e-09	2.708359e+01	3.483448e+02
1.240000e-06	3.872620e-06	5.416168e-09	2.759648e+01	3.546082e+02
1.250000e-06	3.943221e-06	5.507744e-09	2.809958e+01	3.605957e+02
1.260000e-06	4.012449e-06	5.592067e-09	2.859290e+01	3.663273e+02
1.270000e-06	4.080407e-06	5.673502e-09	2.907718e+01	3.718236e+02
1.280000e-06	4.146959e-06	5.754054e-09	2.955143e+01	3.771044e+02
1.290000e-06	4.211786e-06	5.833881e-09	3.001339e+01	3.821878e+02
1.300000e-06	4.274996e-06	5.910686e-09	3.046383e+01	3.870884e+02
1.310000e-06	4.336804e-06	5.983727e-09	3.090427e+01	3.918166e+02
1.320000e-06	4.397217e-06	6.052919e-09	3.133478e+01	3.963785e+02
1.330000e-06	4.456186e-06	6.118191e-09	3.175499e+01	4.007755e+02
1.340000e-06	4.513393e-06	6.183074e-09	3.216266e+01	4.050055e+02
1.350000e-06	4.568794e-06	6.246410e-09	3.255744e+01	4.090637e+02
1.360000e-06	4.622640e-06	6.304887e-09	3.294115e+01	4.129440e+02
1.370000e-06	4.674832e-06	6.357868e-09	3.331307e+01	4.166404e+02
1.380000e-06	4.724996e-06	6.409499e-09	3.367055e+01	4.201486e+02
1.390000e-06	4.773153e-06	6.461708e-09	3.401371e+01	4.234666e+02
1.400000e-06	4.819597e-06	6.508029e-09	3.434468e+01	4.265955e+02
1.410000e-06	4.864452e-06	6.547688e-09	3.466431e+01	4.295398e+02
1.420000e-06	4.907783e-06	6.585965e-09	3.497309e+01	4.323068e+02
1.430000e-06	4.949187e-06	6.624346e-09	3.526814e+01	4.349058e+02
1.440000e-06	4.988700e-06	6.662661e-09	3.554971e+01	4.373475e+02
1.450000e-06	5.026615e-06	6.698183e-09	3.581990e+01	4.396422e+02
1.460000e-06	5.062940e-06	6.729287e-09	3.607875e+01	4.417994e+02
1.470000e-06	5.097545e-06	6.758525e-09	3.632535e+01	4.438264e+02
1.480000e-06	5.130158e-06	6.786322e-09	3.655775e+01	4.457282e+02
1.490000e-06	5.160935e-06	6.812342e-09	3.677707e+01	4.475073e+02
1.500000e-06	5.190061e-06	6.834934e-09	3.698462e+01	4.491638e+02
1.510000e-06	5.217548e-06	6.853112e-09	3.718050e+01	4.506964e+02
1.520000e-06	5.243009e-06	6.869311e-09	3.736193e+01	4.521028e+02
1.530000e-06	5.266386e-06	6.887559e-09	3.752851e+01	4.533810e+02
1.540000e-06	5.287981e-06	6.906316e-09	3.768241e+01	4.545302e+02
1.550000e-06	5.307883e-06	6.922927e-09	3.782423e+01	4.555508e+02
1.560000e-06	5.325902e-06	6.937888e-09	3.795263e+01	4.564454e+02
1.570000e-06	5.341804e-06	6.951996e-09	3.806595e+01	4.572183e+02
1.580000e-06	5.355732e-06	6.964901e-09	3.816520e+01	4.578751e+02
1.590000e-06	5.367666e-06	6.974448e-09	3.825024e+01	4.584224e+02
1.600000e-06	5.377376e-06	6.980115e-09	3.831944e+01	4.588665e+02
1.610000e-06	5.384987e-06	6.982851e-09	3.837367e+01	4.592126e+02
1.620000e-06	5.390759e-06	6.985321e-09	3.841480e+01	4.594646e+02
1.630000e-06	5.394853e-06	6.990063e-09	3.844398e+01	4.596240e+02
1.640000e-06	5.397018e-06	6.994642e-09	3.845940e+01	4.596905e+02
1.650000e-06	5.397101e-06	6.997674e-09	3.846000e+01	4.596617e+02
1.660000e-06	5.395404e-06	6.993722e-09	3.844791e+01	4.595338e+02
1.670000e-06	5.392080e-06	6.986787e-09	3.842422e+01	4.593028e+02
1.680000e-06	5.387113e-06	6.984110e-09	3.838882e+01	4.589651e+02
1.690000e-06	5.380201e-06	6.979710e-09	3.833957e+01	4.585187e+02
1.700000e-06	5.371468e-06	6.973567e-09	3.827734e+01	4.579635e+02
1.710000e-06	5.361210e-06	6.967359e-09	3.820424e+01	4.573023e+02
1.720000e-06	5.349223e-06	6.967088e-09	3.811881e+01	4.565401e+02
1.730000e-06	5.335234e-06	6.975760e-09	3.801913e+01	4.556845e+02
1.740000e-06	5.319173e-06	6.898320e-09	3.790468e+01	4.547441e+02
1.750000e-06	5.300714e-06	6.856746e-09	3.777314e+01	4.537283e+02
1.760000e-06	5.279508e-06	6.861024e-09	3.762203e+01	4.526452e+02
1.770000e-06	5.256089e-06	6.836561e-09	3.745514e+01	4.515015e+02
1.780000e-06	5.231490e-06	6.959126e-09	3.727985e+01	4.503007e+02
1.790000e-06	5.206219e-06	6.882157e-09	3.709976e+01	4.490428e+02
1.800000e-06	5.179464e-06	6.719668e-09	3.690911e+01	4.477242e+02
1.810000e-06	5.150354e-06	6.862320e-09	3.670166e+01	4.463380e+02
1.820000e-06	5.119484e-06	6.744237e-09	3.648169e+01	4.448745e+02
1.830000e-06	5.086954e-06	6.670468e-09	3.624988e+01	4.433222e+02
1.840000e-06	5.052440e-06	6.849381e-09	3.600393e+01	4.416696e+02
1.850000e-06	5.016445e-06	6.683430e-09	3.574742e+01	4.399055e+02
1.860000e-06	4.978653e-06	6.655789e-09	3.547812e+01	4.380211e+02
1.870000e-06	4.938938e-06	6.720337e-09	3.519511e+01	4.360103e+02
1.880000e-06	4.897637e-06	6.535479e-09	3.490080e+01	4.338703e+02
1.890000e-06	4.854480e-06	6.578687e-09	3.459326e+01	4.316019e+02
1.900000e-06	4.809708e-06	6.522043e-09	3.427421e+01	4.292086e+02
1.910000e-06	4.763111e-06	6.441151e-09	3.394216e+01	4.266965e+02
1.920000e-06	4.714436e-06	6.528207e-09	3.359529e+01	4.240729e+02
1.930000e-06	4.664229e-06	6.370179e-09	3.323752e+01	4.213453e+02
1.940000e-06	4.612225e-06	6.363057e-09	3.286694e+01	4.185206e+02
1.950000e-06	4.558109e-06	6.359686e-09	3.248130e+01	4.156040e+02
1.960000e-06	4.502069e-06	6.249653e-09	3.208196e+01	4.125985e+02
1.970000e-06	4.444320e-06	6.234879e-09	3.167043e+01	4.095047e+02
1.980000e-06	4.385218e-06	6.167713e-09	3.124927e+01	4.063213e+02
1.990000e-06	4.324629e-06	6.182299e-09	3.081751e+01	4.030448e+02
2.000000e-06	4.262348e-06	6.084593e-09	3.037369e+01	3.996708e+02
2.010000e-06	4.198521e-06	6.001507e-09	2.991886e+01	3.961946e+02
2.020000e-06	4.133128e-06	6.008658e-09	2.945287e+01	3.926118e+02
2.030000e-06	4.066266e-06	5.885551e-09	2.897641e+01	3.889191e+02
2.040000e-06	3.998003e-06	5.865089e-09	2.848996e+01	3.851150e+02
2.050000e-06	3.928223e-06	5.816526e-09	2.799270e+01	3.811993e+02
2.060000e-06	3.856963e-06	5.763667e-09	2.748490e+01	3.771736e+02
2.070000e-06	3.784363e-06	5.707289e-09	2.696755e+01	3.730407e+02
2.080000e-06	3.710477e-06	5.589383e-09	2.644104e+01	3.688040e+02
2.090000e-06	3.635266e-06	5.557963e-09	2.590508e+01	3.644671e+02
2.100000e-06	3.558586e-06	5.475554e-09	2.535865e+01	3.600332e+02
2.110000e-06	3.480234e-06	5.407075e-09	2.480032e+01	3.555044e+02
2.120000e-06	3.400533e-06	5.345297e-09	2.423236e+01	3.508814e+02
2.130000e-06	3.319766e-06	5.277948e-09	2.365681e+01	3.461635e+02
2.140000e-06	3.237861e-06	5.217151e-09	2.307315e+01	3.413486e+02
2.150000e-06	3.154898e-06	5.125802e-09	2.248196e+01	3.364335e+02
2.160000e-06	3.070896e-06	5.056286e-09	2.188335e+01	3.314140e+02
2.170000e-06	2.985769e-06	4.966579e-09	2.127673e+01	3.262858e+02
2.180000e-06	2.899325e-06	4.895810e-09	2.066073e+01	3.210444e+02
2.190000e-06	2.811695e-06	4.822505e-09	2.003627e+01	3.156859e+02
2.200000e-06	2.723140e-06	4.740060e-09	1.940523e+01	3.102072e+02
2.210000e-06	2.633636e-06	4.655591e-09	1.876741e+01	3.046059e+02
2.220000e-06	2.543206e-06	4.558127e-09	1.812301e+01	2.988805e+02
2.230000e-06	2.451956e-06	4.472527e-09	1.747276e+01	2.930302e+02
2.240000e-06	2.359930e-06	4.376524e-09	1.681697e+01	2.870549e+02
2.250000e-06	2.267071e-06	4.292482e-09	1.615525e+01	2.809549e+02
2.260000e-06	2.173393e-06	4.208675e-09	1.548770e+01	2.747306e+02
2.270000e-06	2.078776e-06	4.111092e-09	1.481346e+01	2.683826e+02
2.280000e-06	1.983159e-06	4.005547e-09	1.413208e+01	2.619114e+02
2.290000e-06	1.886789e-06	3.900105e-09	1.344535e+01	2.553173e+02
2.300000e-06	1.789935e-06	3.798699e-09	1.275516e+01	2.486006e+02
2.310000e-06	1.692625e-06	3.696320e-09	1.206173e+01	2.417613e+02
2.320000e-06	1.594742e-06	3.591121e-09	1.136421e+01	2.347990e+02
2.330000e-06	1.496331e-06	3.482561e-09	1.066292e+01	2.277129e+02
2.340000e-06	1.397441e-06	3.379617e-09	9.958230e+00	2.205017e+02
2.350000e-06	1.298159e-06	3.269163e-09	9.250742e+00	2.131631e+02
2.360000e-06	1.198582e-06	3.154382e-09	8.541150e+00	2.056938e+02
2.370000e-06	1.098654e-06	3.036757e-09	7.829061e+00	1.980892e+02
2.380000e-06	9.983494e-07	2.913383e-09	7.114286e+00	1.903431e+02
2.390000e-06	8.976676e-07	2.793296e-09	6.396822e+00	1.824481e+02
2.400000e-06	7.965644e-07	2.674305e-09	5.676356e+00	1.743953e+02
2.410000e-06	6.951312e-07	2.553394e-09	4.953538e+00	1.661748e+02
2.420000e-06	5.934977e-07	2.425494e-09	4.229293e+00	1.577761e+02
2.430000e-06	4.916885e-07	2.290357e-09	3.503795e+00	1.491887e+02
2.440000e-06	3.897165e-07	2.157637e-09	2.777139e+00	1.404022e+02
2.450000e-06	2.876020e-07	2.027079e-09	2.049466e+00	1.314076e+02
2.460000e-06	1.852852e-07	1.889624e-09	1.320351e+00	1.221967e+02
2.470000e-06	8.274893e-08	1.745317e-09	5.896728e-01	1.127630e+02
2.480000e-06	-1.982266e-08	1.596175e-09	-1.412572e-01	1.031013e+02
2.490000e-06	-1.224112e-07	1.443100e-09	-8.723079e-01	9.320763e+01
2.500000e-06	-2.250080e-07	1.289585e-09	-1.603418e+00	8.307846e+01
2.510000e-06	-3.274482e-07	1.134605e-09	-2.333411e+00	7.271052e+01
2.520000e-06	-4.296760e-07	9.758743e-10	-3.061892e+00	6.210008e+01
2.530000e-06	-5.317600e-07	8.118730e-10	-3.789347e+00	5.124262e+01
2.540000e-06	-6.336743e-07	6.425484e-10	-4.515593e+00	4.013270e+01
2.550000e-06	-7.353250e-07	4.718696e-10	-5.239961e+00	2.876427e+01
2.560000e-06	-8.366668e-07	2.980602e-10	-5.962127e+00	1.713129e+01
2.570000e-06	-9.376623e-07	1.145794e-10	-6.681826e+00	5.228916e+00
2.580000e-06	-1.038264e-06	-7.573008e-11	-7.398722e+00	-6.945118e+00
2.590000e-06	-1.138435e-06	-2.672407e-10	-8.112543e+00	-1.938876e+01
2.600000e-06	-1.238180e-06	-4.609361e-10	-8.823327e+00	-3.209393e+01
2.610000e-06	-1.337476e-06	-6.572737e-10	-9.530916e+00	-4.504498e+01
2.620000e-06	-1.436351e-06	-8.598131e-10	-1.023551e+01	-5.821748e+01
2.630000e-06	-1.534760e-06	-1.067383e-09	-1.093677e+01	-7.157765e+01
2.640000e-06	-1.632566e-06	-1.276257e-09	-1.163375e+01	-8.508243e+01
2.650000e-06	-1.729753e-06	-1.486371e-09	-1.232630e+01	-9.868033e+01
2.660000e-06	-1.826415e-06	-1.696208e-09	-1.301512e+01	-1.123131e+02
2.670000e-06	-1.922596e-06	-1.905710e-09	-1.370051e+01	-1.259181e+02
2.680000e-06	-2.018205e-06	-2.114792e-09	-1.438183e+01	-1.394307e+02
2.690000e-06	-2.113026e-06	-2.321807e-09	-1.505752e+01	-1.527876e+02
2.700000e-06	-2.206868e-06	-2.525287e-09	-1.572625e+01	-1.659294e+02
2.710000e-06	-2.299752e-06	-2.725093e-09	-1.638814e+01	-1.788034e+02
2.720000e-06	-2.391701e-06	-2.919261e-09	-1.704338e+01	-1.913651e+02
2.730000e-06	-2.482792e-06	-3.105802e-09	-1.769250e+01	-2.035800e+02
2.740000e-06	-2.573059e-06	-3.285693e-09	-1.833574e+01	-2.154234e+02
2.750000e-06	-2.662390e-06	-3.459836e-09	-1.897232e+01	-2.268805e+02
2.760000e-06	-2.750865e-06	-3.627409e-09	-1.960280e+01	-2.379446e+02
2.770000e-06	-2.838560e-06	-3.787593e-09	-2.022771e+01	-2.486161e+02
2.780000e-06	-2.925247e-06	-3.942129e-09	-2.084545e+01	-2.588997e+02
2.790000e-06	-3.010697e-06	-4.092510e-09	-2.145437e+01	-2.688035e+02
2.800000e-06	-3.095023e-06	-4.238142e-09	-2.205528e+01	-2.783360e+02
2.810000e-06	-3.178330e-06	-4.379370e-09	-2.264893e+01	-2.875059e+02
2.820000e-06	-3.260549e-06	-4.516299e-09	-2.323483e+01	-2.963203e+02
2.830000e-06	-3.341702e-06	-4.649823e-09	-2.381313e+01	-3.047851e+02
2.840000e-06	-3.421818e-06	-4.777801e-09	-2.438404e+01	-3.129052e+02
2.850000e-06	-3.500694e-06	-4.897520e-09	-2.494611e+01	-3.206852e+02
2.860000e-06	-3.578080e-06	-5.010499e-09	-2.549757e+01	-3.281303e+02
2.870000e-06	-3.653947e-06	-5.118819e-09	-2.603820e+01	-3.352475e+02
2.880000e-06	-3.728364e-06	-5.221284e-09	-2.656850e+01	-3.420463e+02
2.890000e-06	-3.801477e-06	-5.319398e-09	-2.708951e+01	-3.485393e+02
2.900000e-06	-3.873372e-06	-5.419902e-09	-2.760183e+01	-3.547423e+02
2.910000e-06	-3.943802e-06	-5.518828e-09	-2.810372e+01	-3.606737e+02
2.920000e-06	-4.012578e-06	-5.608809e-09	-2.859382e+01	-3.663534e+02
2.930000e-06	-4.079955e-06	-5.690799e-09	-2.907395e+01	-3.718022e+02
2.940000e-06	-4.145913e-06	-5.768617e-09	-2.954397e+01	-3.770397e+02
