# Temperatura_=_24.2
# Concentracion g/m^3_=_15000.0
# C_Vs_to_Am_M_A/Vsm_=_65563218390.804596
# pendiente_HvsI_1/m_=_3716.3
# ordenada_HvsI_A/m_=_1297.0
# frecuencia_Hz_=_301577.54086261115

Tiempo_(s)	Campo_(V.s)	Magnetizacion_(V.s)	Campo_(kA/m)	Magnetizacion_(A/m)
0.000000e+00	-5.377279e-06	-4.430337e-09	-3.834319e+01	-2.883710e+02
1.000000e-08	-5.374785e-06	-4.432694e-09	-3.832540e+01	-2.882934e+02
2.000000e-08	-5.370489e-06	-4.429496e-09	-3.829477e+01	-2.881556e+02
3.000000e-08	-5.364532e-06	-4.426958e-09	-3.825229e+01	-2.879591e+02
4.000000e-08	-5.356970e-06	-4.422582e-09	-3.819837e+01	-2.877061e+02
5.000000e-08	-5.347646e-06	-4.412758e-09	-3.813189e+01	-2.873992e+02
6.000000e-08	-5.336309e-06	-4.402004e-09	-3.805105e+01	-2.870410e+02
7.000000e-08	-5.323143e-06	-4.385068e-09	-3.795716e+01	-2.866347e+02
8.000000e-08	-5.307905e-06	-4.377308e-09	-3.784851e+01	-2.861827e+02
9.000000e-08	-5.290310e-06	-4.439561e-09	-3.772305e+01	-2.856869e+02
1.000000e-07	-5.270622e-06	-4.438752e-09	-3.758266e+01	-2.851483e+02
1.100000e-07	-5.249076e-06	-4.379563e-09	-3.742903e+01	-2.845665e+02
1.200000e-07	-5.225821e-06	-4.370939e-09	-3.726320e+01	-2.839398e+02
1.300000e-07	-5.201035e-06	-4.262352e-09	-3.708646e+01	-2.832652e+02
1.400000e-07	-5.174637e-06	-4.268293e-09	-3.689823e+01	-2.825385e+02
1.500000e-07	-5.146621e-06	-4.438252e-09	-3.669846e+01	-2.817548e+02
1.600000e-07	-5.117187e-06	-4.260572e-09	-3.648858e+01	-2.809090e+02
1.700000e-07	-5.086223e-06	-4.272970e-09	-3.626779e+01	-2.799963e+02
1.800000e-07	-5.053117e-06	-4.383150e-09	-3.603172e+01	-2.790127e+02
1.900000e-07	-5.018032e-06	-4.160904e-09	-3.578155e+01	-2.779554e+02
2.000000e-07	-4.981579e-06	-4.253119e-09	-3.552161e+01	-2.768232e+02
2.100000e-07	-4.943424e-06	-4.291475e-09	-3.524954e+01	-2.756166e+02
2.200000e-07	-4.903430e-06	-4.103285e-09	-3.496436e+01	-2.743375e+02
2.300000e-07	-4.861483e-06	-4.162431e-09	-3.466525e+01	-2.729891e+02
2.400000e-07	-4.817609e-06	-4.174514e-09	-3.435241e+01	-2.715756e+02
2.500000e-07	-4.772025e-06	-4.130267e-09	-3.402737e+01	-2.701014e+02
2.600000e-07	-4.724498e-06	-4.164040e-09	-3.368847e+01	-2.685704e+02
2.700000e-07	-4.674976e-06	-4.056637e-09	-3.333535e+01	-2.669861e+02
2.800000e-07	-4.623434e-06	-4.024805e-09	-3.296783e+01	-2.653506e+02
2.900000e-07	-4.569914e-06	-4.032752e-09	-3.258620e+01	-2.636646e+02
3.000000e-07	-4.514783e-06	-4.006550e-09	-3.219308e+01	-2.619275e+02
3.100000e-07	-4.458019e-06	-3.992509e-09	-3.178832e+01	-2.601375e+02
3.200000e-07	-4.399399e-06	-3.969680e-09	-3.137032e+01	-2.582917e+02
3.300000e-07	-4.339162e-06	-3.919774e-09	-3.094080e+01	-2.563871e+02
3.400000e-07	-4.277474e-06	-3.832207e-09	-3.050092e+01	-2.544203e+02
3.500000e-07	-4.214452e-06	-3.853426e-09	-3.005154e+01	-2.523888e+02
3.600000e-07	-4.150049e-06	-3.849914e-09	-2.959231e+01	-2.502907e+02
3.700000e-07	-4.083892e-06	-3.772252e-09	-2.912057e+01	-2.481253e+02
3.800000e-07	-4.016066e-06	-3.748111e-09	-2.863693e+01	-2.458930e+02
3.900000e-07	-3.946874e-06	-3.722179e-09	-2.814355e+01	-2.435952e+02
4.000000e-07	-3.876452e-06	-3.687539e-09	-2.764140e+01	-2.412340e+02
4.100000e-07	-3.804873e-06	-3.638196e-09	-2.713100e+01	-2.388119e+02
4.200000e-07	-3.731939e-06	-3.596965e-09	-2.661094e+01	-2.363313e+02
4.300000e-07	-3.657352e-06	-3.565081e-09	-2.607909e+01	-2.337940e+02
4.400000e-07	-3.581119e-06	-3.509860e-09	-2.553550e+01	-2.312012e+02
4.500000e-07	-3.503456e-06	-3.475777e-09	-2.498172e+01	-2.285527e+02
4.600000e-07	-3.424416e-06	-3.454726e-09	-2.441812e+01	-2.258475e+02
4.700000e-07	-3.344046e-06	-3.418014e-09	-2.384503e+01	-2.230834e+02
4.800000e-07	-3.262467e-06	-3.348260e-09	-2.326333e+01	-2.202577e+02
4.900000e-07	-3.179746e-06	-3.283732e-09	-2.267347e+01	-2.173670e+02
5.000000e-07	-3.096067e-06	-3.258758e-09	-2.207680e+01	-2.144080e+02
5.100000e-07	-3.011562e-06	-3.218849e-09	-2.147423e+01	-2.113778e+02
5.200000e-07	-2.926129e-06	-3.168760e-09	-2.086504e+01	-2.082737e+02
5.300000e-07	-2.839633e-06	-3.117153e-09	-2.024827e+01	-2.050942e+02
5.400000e-07	-2.752158e-06	-3.059011e-09	-1.962452e+01	-2.018381e+02
5.500000e-07	-2.663759e-06	-3.005580e-09	-1.899418e+01	-1.985052e+02
5.600000e-07	-2.574199e-06	-2.956980e-09	-1.835557e+01	-1.950956e+02
5.700000e-07	-2.483486e-06	-2.909902e-09	-1.770873e+01	-1.916095e+02
5.800000e-07	-2.391909e-06	-2.847409e-09	-1.705573e+01	-1.880469e+02
5.900000e-07	-2.299505e-06	-2.785205e-09	-1.639684e+01	-1.844075e+02
6.000000e-07	-2.206230e-06	-2.730755e-09	-1.573173e+01	-1.806904e+02
6.100000e-07	-2.112173e-06	-2.682713e-09	-1.506105e+01	-1.768939e+02
6.200000e-07	-2.017453e-06	-2.623801e-09	-1.438564e+01	-1.730158e+02
6.300000e-07	-1.922110e-06	-2.553801e-09	-1.370578e+01	-1.690536e+02
6.400000e-07	-1.826100e-06	-2.490196e-09	-1.302117e+01	-1.650043e+02
6.500000e-07	-1.729322e-06	-2.427959e-09	-1.233109e+01	-1.608655e+02
6.600000e-07	-1.631766e-06	-2.368923e-09	-1.163546e+01	-1.566348e+02
6.700000e-07	-1.533537e-06	-2.305686e-09	-1.093503e+01	-1.523108e+02
6.800000e-07	-1.434665e-06	-2.234981e-09	-1.023001e+01	-1.478926e+02
6.900000e-07	-1.335312e-06	-2.156961e-09	-9.521569e+00	-1.433802e+02
7.000000e-07	-1.235588e-06	-2.081480e-09	-8.810473e+00	-1.387742e+02
7.100000e-07	-1.135531e-06	-2.011194e-09	-8.097008e+00	-1.340755e+02
7.200000e-07	-1.035181e-06	-1.939835e-09	-7.381453e+00	-1.292849e+02
7.300000e-07	-9.345198e-07	-1.864464e-09	-6.663681e+00	-1.244030e+02
7.400000e-07	-8.335514e-07	-1.788076e-09	-5.943716e+00	-1.194295e+02
7.500000e-07	-7.322648e-07	-1.713797e-09	-5.221482e+00	-1.143633e+02
7.600000e-07	-6.306802e-07	-1.636932e-09	-4.497124e+00	-1.092021e+02
7.700000e-07	-5.288273e-07	-1.555748e-09	-3.770853e+00	-1.039425e+02
7.800000e-07	-4.267827e-07	-1.468349e-09	-3.043214e+00	-9.858036e+01
7.900000e-07	-3.246477e-07	-1.380571e-09	-2.314930e+00	-9.311091e+01
8.000000e-07	-2.224764e-07	-1.294437e-09	-1.586389e+00	-8.752918e+01
8.100000e-07	-1.202246e-07	-1.210445e-09	-8.572725e-01	-8.183044e+01
8.200000e-07	-1.781886e-08	-1.126393e-09	-1.270591e-01	-7.601047e+01
8.300000e-07	8.463204e-08	-1.037467e-09	6.034766e-01	-7.006588e+01
8.400000e-07	1.870609e-07	-9.456197e-10	1.333855e+00	-6.399416e+01
8.500000e-07	2.894393e-07	-8.510515e-10	2.063874e+00	-5.779367e+01
8.600000e-07	3.916524e-07	-7.537952e-10	2.792714e+00	-5.146337e+01
8.700000e-07	4.937643e-07	-6.525664e-10	3.520832e+00	-4.500258e+01
8.800000e-07	5.957685e-07	-5.504588e-10	4.248182e+00	-3.841054e+01
8.900000e-07	6.975870e-07	-4.495138e-10	4.974209e+00	-3.168617e+01
9.000000e-07	7.991624e-07	-3.477691e-10	5.698502e+00	-2.482777e+01
9.100000e-07	9.004310e-07	-2.444461e-10	6.420607e+00	-1.783300e+01
9.200000e-07	1.001326e-06	-1.385762e-10	7.140046e+00	-1.069906e+01
9.300000e-07	1.101866e-06	-2.875732e-11	7.856958e+00	-3.423100e+00
9.400000e-07	1.202134e-06	8.495168e-11	8.571925e+00	3.997140e+00
9.500000e-07	1.302079e-06	1.997727e-10	9.284596e+00	1.156249e+01
9.600000e-07	1.401599e-06	3.164017e-10	9.994231e+00	1.927144e+01
9.700000e-07	1.500585e-06	4.343213e-10	1.070006e+01	2.711920e+01
9.800000e-07	1.598883e-06	5.543053e-10	1.140098e+01	3.509693e+01
9.900000e-07	1.696390e-06	6.753429e-10	1.209627e+01	4.319109e+01
1.000000e-06	1.793140e-06	7.987865e-10	1.278615e+01	5.138321e+01
1.010000e-06	1.889170e-06	9.243338e-10	1.347090e+01	5.964994e+01
1.020000e-06	1.984418e-06	1.049614e-09	1.415008e+01	6.796348e+01
1.030000e-06	2.078942e-06	1.176999e-09	1.482409e+01	7.629244e+01
1.040000e-06	2.172816e-06	1.303734e-09	1.549347e+01	8.460293e+01
1.050000e-06	2.265989e-06	1.428077e-09	1.615784e+01	9.285986e+01
1.060000e-06	2.358464e-06	1.549562e-09	1.681725e+01	1.010284e+02
1.070000e-06	2.450199e-06	1.668753e-09	1.747137e+01	1.090754e+02
1.080000e-06	2.541094e-06	1.787595e-09	1.811951e+01	1.169706e+02
1.090000e-06	2.630942e-06	1.905367e-09	1.876017e+01	1.246875e+02
1.100000e-06	2.719651e-06	2.022293e-09	1.939273e+01	1.322046e+02
1.110000e-06	2.807359e-06	2.134243e-09	2.001814e+01	1.395051e+02
1.120000e-06	2.894190e-06	2.240495e-09	2.063729e+01	1.465773e+02
1.130000e-06	2.980083e-06	2.343420e-09	2.124976e+01	1.534145e+02
1.140000e-06	3.064950e-06	2.446712e-09	2.185491e+01	1.600142e+02
1.150000e-06	3.148935e-06	2.546251e-09	2.245377e+01	1.663775e+02
1.160000e-06	3.231985e-06	2.639270e-09	2.304597e+01	1.725083e+02
1.170000e-06	3.313838e-06	2.728224e-09	2.362963e+01	1.784126e+02
1.180000e-06	3.394398e-06	2.814027e-09	2.420407e+01	1.840978e+02
1.190000e-06	3.473693e-06	2.898349e-09	2.476949e+01	1.895719e+02
1.200000e-06	3.551743e-06	2.979494e-09	2.532603e+01	1.948432e+02
1.210000e-06	3.628580e-06	3.057039e-09	2.587392e+01	1.999197e+02
1.220000e-06	3.704113e-06	3.132336e-09	2.641252e+01	2.048090e+02
1.230000e-06	3.778119e-06	3.205563e-09	2.694023e+01	2.095178e+02
1.240000e-06	3.850568e-06	3.275171e-09	2.745683e+01	2.140526e+02
1.250000e-06	3.921568e-06	3.341644e-09	2.796311e+01	2.184185e+02
1.260000e-06	3.991140e-06	3.404371e-09	2.845919e+01	2.226204e+02
1.270000e-06	4.059333e-06	3.464308e-09	2.894545e+01	2.266620e+02
1.280000e-06	4.126147e-06	3.521844e-09	2.942188e+01	2.305463e+02
1.290000e-06	4.191359e-06	3.578174e-09	2.988688e+01	2.342757e+02
1.300000e-06	4.254949e-06	3.631856e-09	3.034031e+01	2.378519e+02
1.310000e-06	4.317078e-06	3.681450e-09	3.078333e+01	2.412762e+02
1.320000e-06	4.377820e-06	3.728417e-09	3.121645e+01	2.445493e+02
1.330000e-06	4.437171e-06	3.772917e-09	3.163966e+01	2.476721e+02
1.340000e-06	4.494850e-06	3.814388e-09	3.205095e+01	2.506457e+02
1.350000e-06	4.550720e-06	3.853935e-09	3.244933e+01	2.534716e+02
1.360000e-06	4.605000e-06	3.892091e-09	3.283638e+01	2.561518e+02
1.370000e-06	4.657607e-06	3.928496e-09	3.321150e+01	2.586895e+02
1.380000e-06	4.708256e-06	3.962673e-09	3.357266e+01	2.610888e+02
1.390000e-06	4.756891e-06	3.994114e-09	3.391945e+01	2.633546e+02
1.400000e-06	4.803740e-06	4.023542e-09	3.425351e+01	2.654931e+02
1.410000e-06	4.849034e-06	4.051142e-09	3.457649e+01	2.675106e+02
1.420000e-06	4.892779e-06	4.077267e-09	3.488842e+01	2.694142e+02
1.430000e-06	4.934700e-06	4.101504e-09	3.518734e+01	2.712106e+02
1.440000e-06	4.974705e-06	4.124127e-09	3.547259e+01	2.729062e+02
1.450000e-06	5.013005e-06	4.146651e-09	3.574570e+01	2.745067e+02
1.460000e-06	5.049715e-06	4.169117e-09	3.600746e+01	2.760165e+02
1.470000e-06	5.084816e-06	4.191563e-09	3.625776e+01	2.774391e+02
1.480000e-06	5.117990e-06	4.211617e-09	3.649430e+01	2.787766e+02
1.490000e-06	5.149245e-06	4.228484e-09	3.671717e+01	2.800300e+02
1.500000e-06	5.178854e-06	4.243767e-09	3.692830e+01	2.811997e+02
1.510000e-06	5.206812e-06	4.258346e-09	3.712766e+01	2.822853e+02
1.520000e-06	5.232785e-06	4.272336e-09	3.731286e+01	2.832864e+02
1.530000e-06	5.256659e-06	4.286010e-09	3.748309e+01	2.842028e+02
1.540000e-06	5.278700e-06	4.299061e-09	3.764026e+01	2.850347e+02
1.550000e-06	5.299030e-06	4.310092e-09	3.778523e+01	2.857827e+02
1.560000e-06	5.317547e-06	4.320181e-09	3.791726e+01	2.864484e+02
1.570000e-06	5.334056e-06	4.331073e-09	3.803498e+01	2.870340e+02
1.580000e-06	5.348564e-06	4.342154e-09	3.813843e+01	2.875419e+02
1.590000e-06	5.361082e-06	4.350291e-09	3.822770e+01	2.879751e+02
1.600000e-06	5.371402e-06	4.354707e-09	3.830128e+01	2.883364e+02
1.610000e-06	5.379560e-06	4.357491e-09	3.835945e+01	2.886283e+02
1.620000e-06	5.385831e-06	4.360809e-09	3.840417e+01	2.888532e+02
1.630000e-06	5.390326e-06	4.364752e-09	3.843622e+01	2.890127e+02
1.640000e-06	5.392987e-06	4.367332e-09	3.845519e+01	2.891083e+02
1.650000e-06	5.393661e-06	4.371313e-09	3.846000e+01	2.891409e+02
1.660000e-06	5.392447e-06	4.370986e-09	3.845135e+01	2.891113e+02
1.670000e-06	5.389520e-06	4.364775e-09	3.843047e+01	2.890206e+02
1.680000e-06	5.384934e-06	4.364918e-09	3.839777e+01	2.888700e+02
1.690000e-06	5.378504e-06	4.363618e-09	3.835192e+01	2.886612e+02
1.700000e-06	5.370235e-06	4.361186e-09	3.829296e+01	2.883963e+02
1.710000e-06	5.360395e-06	4.361085e-09	3.822279e+01	2.880781e+02
1.720000e-06	5.348930e-06	4.366456e-09	3.814105e+01	2.877093e+02
1.730000e-06	5.335576e-06	4.387307e-09	3.804582e+01	2.872929e+02
1.740000e-06	5.320128e-06	4.301757e-09	3.793567e+01	2.868313e+02
1.750000e-06	5.302302e-06	4.264108e-09	3.780856e+01	2.863262e+02
1.760000e-06	5.281814e-06	4.310709e-09	3.766247e+01	2.857784e+02
1.770000e-06	5.258942e-06	4.301039e-09	3.749938e+01	2.851871e+02
1.780000e-06	5.234692e-06	4.430765e-09	3.732646e+01	2.845503e+02
1.790000e-06	5.209769e-06	4.346915e-09	3.714875e+01	2.838648e+02
1.800000e-06	5.183518e-06	4.150472e-09	3.696156e+01	2.831262e+02
1.810000e-06	5.155145e-06	4.360975e-09	3.675924e+01	2.823296e+02
1.820000e-06	5.124950e-06	4.247159e-09	3.654393e+01	2.814698e+02
1.830000e-06	5.093072e-06	4.149169e-09	3.631663e+01	2.805421e+02
1.840000e-06	5.059131e-06	4.411192e-09	3.607460e+01	2.795428e+02
1.850000e-06	5.023506e-06	4.201987e-09	3.582058e+01	2.784695e+02
1.860000e-06	4.986195e-06	4.165765e-09	3.555453e+01	2.773212e+02
1.870000e-06	4.946916e-06	4.343087e-09	3.527444e+01	2.760987e+02
1.880000e-06	4.906029e-06	4.133541e-09	3.498289e+01	2.748044e+02
1.890000e-06	4.863371e-06	4.184734e-09	3.467872e+01	2.734416e+02
1.900000e-06	4.819077e-06	4.139583e-09	3.436287e+01	2.720147e+02
1.910000e-06	4.773138e-06	4.032460e-09	3.403531e+01	2.705279e+02
1.920000e-06	4.725089e-06	4.203460e-09	3.369269e+01	2.689852e+02
1.930000e-06	4.675336e-06	4.028010e-09	3.333792e+01	2.673897e+02
1.940000e-06	4.623938e-06	4.055703e-09	3.297142e+01	2.657432e+02
1.950000e-06	4.570479e-06	4.105138e-09	3.259023e+01	2.640463e+02
1.960000e-06	4.515035e-06	3.936537e-09	3.219488e+01	2.622980e+02
1.970000e-06	4.457843e-06	3.959346e-09	3.178706e+01	2.604962e+02
1.980000e-06	4.399160e-06	3.924320e-09	3.136862e+01	2.586380e+02
1.990000e-06	4.339088e-06	3.981844e-09	3.094027e+01	2.567203e+02
2.000000e-06	4.277378e-06	3.900910e-09	3.050024e+01	2.547398e+02
2.010000e-06	4.213930e-06	3.801003e-09	3.004782e+01	2.526940e+02
2.020000e-06	4.148943e-06	3.886001e-09	2.958442e+01	2.505814e+02
2.030000e-06	4.082521e-06	3.755637e-09	2.911080e+01	2.484015e+02
2.040000e-06	4.014743e-06	3.734778e-09	2.862750e+01	2.461550e+02
2.050000e-06	3.945539e-06	3.740607e-09	2.813403e+01	2.438433e+02
2.060000e-06	3.874714e-06	3.715763e-09	2.762901e+01	2.414687e+02
2.070000e-06	3.802439e-06	3.679342e-09	2.711364e+01	2.390339e+02
2.080000e-06	3.728932e-06	3.570585e-09	2.658949e+01	2.365409e+02
2.090000e-06	3.654096e-06	3.604115e-09	2.605587e+01	2.339916e+02
2.100000e-06	3.577859e-06	3.549560e-09	2.551226e+01	2.313868e+02
2.110000e-06	3.500003e-06	3.481377e-09	2.495710e+01	2.287262e+02
2.120000e-06	3.420655e-06	3.435458e-09	2.439130e+01	2.260085e+02
2.130000e-06	3.340208e-06	3.409192e-09	2.381766e+01	2.232314e+02
2.140000e-06	3.258634e-06	3.400669e-09	2.323599e+01	2.203920e+02
2.150000e-06	3.175942e-06	3.320706e-09	2.264635e+01	2.174869e+02
2.160000e-06	3.092289e-06	3.301881e-09	2.204985e+01	2.145128e+02
2.170000e-06	3.007618e-06	3.244169e-09	2.144610e+01	2.114668e+02
2.180000e-06	2.921635e-06	3.180892e-09	2.083299e+01	2.083466e+02
2.190000e-06	2.834345e-06	3.139106e-09	2.021056e+01	2.051507e+02
2.200000e-06	2.746061e-06	3.099644e-09	1.958104e+01	2.018781e+02
2.210000e-06	2.656887e-06	3.064400e-09	1.894518e+01	1.985287e+02
2.220000e-06	2.566783e-06	2.994323e-09	1.830268e+01	1.951026e+02
2.230000e-06	2.475773e-06	2.937616e-09	1.765373e+01	1.916000e+02
2.240000e-06	2.384019e-06	2.882365e-09	1.699947e+01	1.880209e+02
2.250000e-06	2.291569e-06	2.838752e-09	1.634025e+01	1.843649e+02
2.260000e-06	2.198353e-06	2.784776e-09	1.567556e+01	1.806308e+02
2.270000e-06	2.104077e-06	2.728398e-09	1.500332e+01	1.768170e+02
2.280000e-06	2.008686e-06	2.663814e-09	1.432312e+01	1.729210e+02
2.290000e-06	1.912568e-06	2.595049e-09	1.363774e+01	1.689403e+02
2.300000e-06	1.815838e-06	2.539523e-09	1.294800e+01	1.648720e+02
2.310000e-06	1.718579e-06	2.477858e-09	1.225449e+01	1.607136e+02
2.320000e-06	1.620821e-06	2.415408e-09	1.155741e+01	1.564629e+02
2.330000e-06	1.522488e-06	2.345990e-09	1.085624e+01	1.521187e+02
2.340000e-06	1.423632e-06	2.280794e-09	1.015134e+01	1.476802e+02
2.350000e-06	1.324380e-06	2.217899e-09	9.443613e+00	1.431476e+02
2.360000e-06	1.224831e-06	2.155839e-09	8.733774e+00	1.385216e+02
2.370000e-06	1.125033e-06	2.086883e-09	8.022150e+00	1.338030e+02
2.380000e-06	1.024969e-06	2.007304e-09	7.308635e+00	1.289928e+02
2.390000e-06	9.245587e-07	1.924605e-09	6.592652e+00	1.240912e+02
2.400000e-06	8.237262e-07	1.847744e-09	5.873656e+00	1.190979e+02
2.410000e-06	7.225207e-07	1.776738e-09	5.152001e+00	1.140115e+02
2.420000e-06	6.210855e-07	1.699363e-09	4.428708e+00	1.088294e+02
2.430000e-06	5.194087e-07	1.617428e-09	3.703692e+00	1.035482e+02
2.440000e-06	4.175014e-07	1.534841e-09	2.977033e+00	9.816339e+01
2.450000e-06	3.153372e-07	1.455161e-09	2.248541e+00	9.267022e+01
2.460000e-06	2.130103e-07	1.374387e-09	1.518890e+00	8.706373e+01
2.470000e-06	1.106123e-07	1.289205e-09	7.887311e-01	8.133926e+01
2.480000e-06	8.145907e-09	1.195965e-09	5.808515e-02	7.549276e+01
2.490000e-06	-9.434310e-08	1.096280e-09	-6.727222e-01	6.952103e+01
2.500000e-06	-1.967801e-07	1.000440e-09	-1.403159e+00	6.342176e+01
2.510000e-06	-2.991402e-07	9.107607e-10	-2.133047e+00	5.719345e+01
2.520000e-06	-4.013966e-07	8.193931e-10	-2.862196e+00	5.083516e+01
2.530000e-06	-5.034442e-07	7.183480e-10	-3.589856e+00	4.434624e+01
2.540000e-06	-6.053329e-07	6.133563e-10	-4.316382e+00	3.772588e+01
2.550000e-06	-7.069486e-07	5.107418e-10	-5.040963e+00	3.097288e+01
2.560000e-06	-8.081766e-07	4.075279e-10	-5.762779e+00	2.408540e+01
2.570000e-06	-9.090778e-07	3.006539e-10	-6.482264e+00	1.706098e+01
2.580000e-06	-1.009660e-06	1.899940e-10	-7.199476e+00	9.896756e+00
2.590000e-06	-1.109824e-06	7.412520e-11	-7.913701e+00	2.589955e+00
2.600000e-06	-1.209506e-06	-4.403592e-11	-8.624492e+00	-4.861453e+00
2.610000e-06	-1.308807e-06	-1.584003e-10	-9.332572e+00	-1.245788e+01
2.620000e-06	-1.407782e-06	-2.740221e-10	-1.003832e+01	-2.019718e+01
2.630000e-06	-1.506294e-06	-3.968110e-10	-1.074077e+01	-2.807376e+01
2.640000e-06	-1.604191e-06	-5.242917e-10	-1.143883e+01	-3.607782e+01
2.650000e-06	-1.701497e-06	-6.509048e-10	-1.213268e+01	-4.419478e+01
2.660000e-06	-1.798293e-06	-7.763969e-10	-1.282290e+01	-5.240509e+01
2.670000e-06	-1.894603e-06	-9.037248e-10	-1.350964e+01	-6.068440e+01
2.680000e-06	-1.990290e-06	-1.032036e-09	-1.419195e+01	-6.900407e+01
2.690000e-06	-2.085132e-06	-1.160375e-09	-1.486823e+01	-7.733206e+01
2.700000e-06	-2.179071e-06	-1.288083e-09	-1.553807e+01	-8.563412e+01
2.710000e-06	-2.272121e-06	-1.415051e-09	-1.620157e+01	-9.387508e+01
2.720000e-06	-2.364292e-06	-1.540186e-09	-1.685880e+01	-1.020204e+02
2.730000e-06	-2.455599e-06	-1.664003e-09	-1.750987e+01	-1.100374e+02
2.740000e-06	-2.546041e-06	-1.787247e-09	-1.815478e+01	-1.178965e+02
2.750000e-06	-2.635583e-06	-1.907303e-09	-1.879327e+01	-1.255723e+02
2.760000e-06	-2.724288e-06	-2.022214e-09	-1.942579e+01	-1.330443e+02
2.770000e-06	-2.812213e-06	-2.131270e-09	-2.005274e+01	-1.402967e+02
2.780000e-06	-2.899168e-06	-2.236765e-09	-2.067279e+01	-1.473191e+02
2.790000e-06	-2.984984e-06	-2.340111e-09	-2.128470e+01	-1.541056e+02
2.800000e-06	-3.069594e-06	-2.441626e-09	-2.188803e+01	-1.606545e+02
2.810000e-06	-3.153122e-06	-2.540401e-09	-2.248363e+01	-1.669676e+02
2.820000e-06	-3.235696e-06	-2.632782e-09	-2.307243e+01	-1.730494e+02
2.830000e-06	-3.317212e-06	-2.720222e-09	-2.365369e+01	-1.789061e+02
2.840000e-06	-3.397610e-06	-2.806187e-09	-2.422697e+01	-1.845455e+02
2.850000e-06	-3.476765e-06	-2.889141e-09	-2.479139e+01	-1.899756e+02
2.860000e-06	-3.554509e-06	-2.968213e-09	-2.534576e+01	-1.952046e+02
2.870000e-06	-3.630788e-06	-3.042925e-09	-2.588967e+01	-2.002404e+02
2.880000e-06	-3.705607e-06	-3.114752e-09	-2.642318e+01	-2.050905e+02
2.890000e-06	-3.779040e-06	-3.186697e-09	-2.694680e+01	-2.097616e+02
2.900000e-06	-3.851227e-06	-3.257539e-09	-2.746153e+01	-2.142598e+02
2.910000e-06	-3.922043e-06	-3.325610e-09	-2.796649e+01	-2.185904e+02
2.920000e-06	-3.991229e-06	-3.390059e-09	-2.845983e+01	-2.227577e+02
2.930000e-06	-4.058925e-06	-3.451639e-09	-2.894254e+01	-2.267654e+02
2.940000e-06	-4.125255e-06	-3.511218e-09	-2.941552e+01	-2.306164e+02
