# Temperatura_=_74.46
# Concentracion g/m^3_=_15000.0
# C_Vs_to_Am_M_A/Vsm_=_65563218390.804596
# pendiente_HvsI_1/m_=_3716.3
# ordenada_HvsI_A/m_=_1297.0
# frecuencia_Hz_=_301577.8096559437

Tiempo_(s)	Campo_(V.s)	Magnetizacion_(V.s)	Campo_(kA/m)	Magnetizacion_(A/m)
0.000000e+00	-5.393207e-06	-6.310317e-09	-3.834826e+01	-4.123698e+02
1.000000e-08	-5.390695e-06	-6.312258e-09	-3.833040e+01	-4.122371e+02
2.000000e-08	-5.386379e-06	-6.306073e-09	-3.829971e+01	-4.120171e+02
3.000000e-08	-5.380453e-06	-6.298527e-09	-3.825757e+01	-4.117032e+02
4.000000e-08	-5.372940e-06	-6.290259e-09	-3.820415e+01	-4.112892e+02
5.000000e-08	-5.363589e-06	-6.279289e-09	-3.813767e+01	-4.107707e+02
6.000000e-08	-5.352154e-06	-6.267873e-09	-3.805635e+01	-4.101464e+02
7.000000e-08	-5.338825e-06	-6.244761e-09	-3.796158e+01	-4.094180e+02
8.000000e-08	-5.323493e-06	-6.229611e-09	-3.785256e+01	-4.085906e+02
9.000000e-08	-5.305960e-06	-6.297305e-09	-3.772790e+01	-4.076722e+02
1.000000e-07	-5.286352e-06	-6.303828e-09	-3.758848e+01	-4.066729e+02
1.100000e-07	-5.264802e-06	-6.240403e-09	-3.743525e+01	-4.056036e+02
1.200000e-07	-5.241429e-06	-6.226816e-09	-3.726905e+01	-4.044747e+02
1.300000e-07	-5.216491e-06	-6.084465e-09	-3.709173e+01	-4.032948e+02
1.400000e-07	-5.190039e-06	-6.046797e-09	-3.690364e+01	-4.020692e+02
1.500000e-07	-5.161968e-06	-6.253210e-09	-3.670405e+01	-4.007996e+02
1.600000e-07	-5.132378e-06	-6.085440e-09	-3.649365e+01	-3.994831e+02
1.700000e-07	-5.101265e-06	-6.047677e-09	-3.627242e+01	-3.981130e+02
1.800000e-07	-5.068097e-06	-6.172682e-09	-3.603657e+01	-3.966789e+02
1.900000e-07	-5.032969e-06	-5.939210e-09	-3.578680e+01	-3.951680e+02
2.000000e-07	-4.996396e-06	-6.014201e-09	-3.552675e+01	-3.935665e+02
2.100000e-07	-4.958077e-06	-6.109044e-09	-3.525428e+01	-3.918613e+02
2.200000e-07	-4.917891e-06	-5.917730e-09	-3.496854e+01	-3.900406e+02
2.300000e-07	-4.875795e-06	-5.920739e-09	-3.466922e+01	-3.880962e+02
2.400000e-07	-4.831785e-06	-5.907731e-09	-3.435628e+01	-3.860231e+02
2.500000e-07	-4.786016e-06	-5.836334e-09	-3.403084e+01	-3.838208e+02
2.600000e-07	-4.738329e-06	-5.861397e-09	-3.369177e+01	-3.814925e+02
2.700000e-07	-4.688496e-06	-5.774955e-09	-3.333743e+01	-3.790445e+02
2.800000e-07	-4.636561e-06	-5.734917e-09	-3.296815e+01	-3.764854e+02
2.900000e-07	-4.582779e-06	-5.709771e-09	-3.258574e+01	-3.738250e+02
3.000000e-07	-4.527419e-06	-5.670364e-09	-3.219210e+01	-3.710725e+02
3.100000e-07	-4.470419e-06	-5.644652e-09	-3.178680e+01	-3.682362e+02
3.200000e-07	-4.411633e-06	-5.600539e-09	-3.136881e+01	-3.653218e+02
3.300000e-07	-4.351264e-06	-5.546159e-09	-3.093955e+01	-3.623326e+02
3.400000e-07	-4.289452e-06	-5.439540e-09	-3.050004e+01	-3.592691e+02
3.500000e-07	-4.226329e-06	-5.430101e-09	-3.005121e+01	-3.561292e+02
3.600000e-07	-4.161725e-06	-5.427215e-09	-2.959184e+01	-3.529090e+02
3.700000e-07	-4.095351e-06	-5.349801e-09	-2.911989e+01	-3.496037e+02
3.800000e-07	-4.027364e-06	-5.297819e-09	-2.863647e+01	-3.462082e+02
3.900000e-07	-3.957987e-06	-5.234740e-09	-2.814317e+01	-3.427180e+02
4.000000e-07	-3.887400e-06	-5.177035e-09	-2.764126e+01	-3.391304e+02
4.100000e-07	-3.815622e-06	-5.122002e-09	-2.713089e+01	-3.354440e+02
4.200000e-07	-3.742354e-06	-5.068809e-09	-2.660992e+01	-3.316594e+02
4.300000e-07	-3.667463e-06	-5.017858e-09	-2.607740e+01	-3.277788e+02
4.400000e-07	-3.591058e-06	-4.941013e-09	-2.553413e+01	-3.238054e+02
4.500000e-07	-3.513212e-06	-4.874115e-09	-2.498061e+01	-3.197430e+02
4.600000e-07	-3.433944e-06	-4.821689e-09	-2.441697e+01	-3.155947e+02
4.700000e-07	-3.353416e-06	-4.769888e-09	-2.384438e+01	-3.113629e+02
4.800000e-07	-3.271688e-06	-4.694426e-09	-2.326325e+01	-3.070482e+02
4.900000e-07	-3.188806e-06	-4.608946e-09	-2.267392e+01	-3.026494e+02
5.000000e-07	-3.104922e-06	-4.549942e-09	-2.207747e+01	-2.981634e+02
5.100000e-07	-3.020113e-06	-4.487072e-09	-2.147443e+01	-2.935855e+02
5.200000e-07	-2.934398e-06	-4.417653e-09	-2.086496e+01	-2.889099e+02
5.300000e-07	-2.847699e-06	-4.337010e-09	-2.024849e+01	-2.841302e+02
5.400000e-07	-2.760055e-06	-4.248227e-09	-1.962530e+01	-2.792404e+02
5.500000e-07	-2.671422e-06	-4.167866e-09	-1.899508e+01	-2.742352e+02
5.600000e-07	-2.581609e-06	-4.093167e-09	-1.835646e+01	-2.691109e+02
5.700000e-07	-2.490727e-06	-4.024671e-09	-1.771025e+01	-2.638658e+02
5.800000e-07	-2.398971e-06	-3.942734e-09	-1.705782e+01	-2.584999e+02
5.900000e-07	-2.306330e-06	-3.852314e-09	-1.639910e+01	-2.530149e+02
6.000000e-07	-2.212861e-06	-3.759788e-09	-1.573449e+01	-2.474142e+02
6.100000e-07	-2.118637e-06	-3.671777e-09	-1.506451e+01	-2.417019e+02
6.200000e-07	-2.023720e-06	-3.585671e-09	-1.438961e+01	-2.358822e+02
6.300000e-07	-1.928135e-06	-3.496299e-09	-1.370996e+01	-2.299590e+02
6.400000e-07	-1.831819e-06	-3.404304e-09	-1.302510e+01	-2.239351e+02
6.500000e-07	-1.734695e-06	-3.308858e-09	-1.233451e+01	-2.178118e+02
6.600000e-07	-1.636742e-06	-3.216320e-09	-1.163801e+01	-2.115888e+02
6.700000e-07	-1.538110e-06	-3.121378e-09	-1.093669e+01	-2.052640e+02
6.800000e-07	-1.438973e-06	-3.023878e-09	-1.023178e+01	-1.988336e+02
6.900000e-07	-1.339435e-06	-2.920535e-09	-9.524018e+00	-1.922925e+02
7.000000e-07	-1.239534e-06	-2.814851e-09	-8.813679e+00	-1.856349e+02
7.100000e-07	-1.139247e-06	-2.710830e-09	-8.100587e+00	-1.788543e+02
7.200000e-07	-1.038589e-06	-2.606331e-09	-7.384861e+00	-1.719443e+02
7.300000e-07	-9.376208e-07	-2.500645e-09	-6.666929e+00	-1.648988e+02
7.400000e-07	-8.363173e-07	-2.389673e-09	-5.946613e+00	-1.577122e+02
7.500000e-07	-7.346979e-07	-2.274630e-09	-5.224051e+00	-1.503794e+02
7.600000e-07	-6.328151e-07	-2.158696e-09	-4.499616e+00	-1.428958e+02
7.700000e-07	-5.307173e-07	-2.043576e-09	-3.773652e+00	-1.352573e+02
7.800000e-07	-4.284544e-07	-1.928442e-09	-3.046514e+00	-1.274598e+02
7.900000e-07	-3.260522e-07	-1.810121e-09	-2.318386e+00	-1.194989e+02
8.000000e-07	-2.235081e-07	-1.683329e-09	-1.589249e+00	-1.113694e+02
8.100000e-07	-1.209103e-07	-1.552926e-09	-8.597296e-01	-1.030655e+02
8.200000e-07	-1.831062e-08	-1.424746e-09	-1.301972e-01	-9.458027e+01
8.300000e-07	8.432273e-08	-1.292766e-09	5.995746e-01	-8.590558e+01
8.400000e-07	1.869667e-07	-1.156382e-09	1.329422e+00	-7.703226e+01
8.500000e-07	2.896010e-07	-1.016478e-09	2.059201e+00	-6.795031e+01
8.600000e-07	3.921481e-07	-8.734202e-10	2.788359e+00	-5.864926e+01
8.700000e-07	4.945569e-07	-7.269824e-10	3.516534e+00	-4.911868e+01
8.800000e-07	5.968551e-07	-5.786320e-10	4.243923e+00	-3.934889e+01
8.900000e-07	6.990013e-07	-4.263664e-10	4.970231e+00	-2.933166e+01
9.000000e-07	8.008850e-07	-2.684091e-10	5.694673e+00	-1.906108e+01
9.100000e-07	9.024632e-07	-1.045061e-10	6.416942e+00	-8.534426e+00
9.200000e-07	1.003695e-06	6.285008e-11	7.136750e+00	2.246951e+00
9.300000e-07	1.104543e-06	2.305302e-10	7.853827e+00	1.327684e+01
9.400000e-07	1.205014e-06	4.015660e-10	8.568222e+00	2.454349e+01
9.500000e-07	1.305128e-06	5.768483e-10	9.280080e+00	3.602909e+01
9.600000e-07	1.404849e-06	7.561755e-10	9.989141e+00	4.770953e+01
9.700000e-07	1.504076e-06	9.364999e-10	1.069469e+01	5.955442e+01
9.800000e-07	1.602740e-06	1.117441e-09	1.139624e+01	7.152750e+01
9.900000e-07	1.700699e-06	1.298989e-09	1.209278e+01	8.358728e+01
1.000000e-06	1.797819e-06	1.483142e-09	1.278334e+01	9.568811e+01
1.010000e-06	1.894182e-06	1.668687e-09	1.346854e+01	1.077815e+02
1.020000e-06	1.989827e-06	1.853014e-09	1.414862e+01	1.198176e+02
1.030000e-06	2.084718e-06	2.034596e-09	1.482334e+01	1.317470e+02
1.040000e-06	2.178853e-06	2.212366e-09	1.549268e+01	1.435220e+02
1.050000e-06	2.272244e-06	2.387634e-09	1.615673e+01	1.550986e+02
1.060000e-06	2.364863e-06	2.559191e-09	1.681530e+01	1.664375e+02
1.070000e-06	2.456782e-06	2.726453e-09	1.746889e+01	1.775053e+02
1.080000e-06	2.547998e-06	2.890899e-09	1.811747e+01	1.882747e+02
1.090000e-06	2.638306e-06	3.053580e-09	1.875961e+01	1.987252e+02
1.100000e-06	2.727417e-06	3.213039e-09	1.939323e+01	2.088424e+02
1.110000e-06	2.815354e-06	3.364243e-09	2.001850e+01	2.186177e+02
1.120000e-06	2.902365e-06	3.508884e-09	2.063719e+01	2.280475e+02
1.130000e-06	2.988428e-06	3.648371e-09	2.124914e+01	2.371319e+02
1.140000e-06	3.073528e-06	3.783296e-09	2.185424e+01	2.458742e+02
1.150000e-06	3.157686e-06	3.911651e-09	2.245265e+01	2.542795e+02
1.160000e-06	3.240943e-06	4.031571e-09	2.304464e+01	2.623543e+02
1.170000e-06	3.323060e-06	4.145787e-09	2.362853e+01	2.701058e+02
1.180000e-06	3.403833e-06	4.255971e-09	2.420287e+01	2.775418e+02
1.190000e-06	3.483381e-06	4.363310e-09	2.476849e+01	2.846707e+02
1.200000e-06	3.561716e-06	4.467639e-09	2.532549e+01	2.915014e+02
1.210000e-06	3.638765e-06	4.568641e-09	2.587335e+01	2.980438e+02
1.220000e-06	3.714534e-06	4.665229e-09	2.641210e+01	3.043092e+02
1.230000e-06	3.788817e-06	4.758010e-09	2.694029e+01	3.103099e+02
1.240000e-06	3.861424e-06	4.845931e-09	2.745656e+01	3.160598e+02
1.250000e-06	3.932568e-06	4.929050e-09	2.796243e+01	3.215736e+02
1.260000e-06	4.002322e-06	5.007757e-09	2.845841e+01	3.268667e+02
1.270000e-06	4.070716e-06	5.085629e-09	2.894472e+01	3.319540e+02
1.280000e-06	4.137777e-06	5.161057e-09	2.942156e+01	3.368499e+02
1.290000e-06	4.203151e-06	5.233072e-09	2.988640e+01	3.415668e+02
1.300000e-06	4.266841e-06	5.302499e-09	3.033927e+01	3.461145e+02
1.310000e-06	4.329120e-06	5.369110e-09	3.078210e+01	3.505001e+02
1.320000e-06	4.389948e-06	5.434445e-09	3.121462e+01	3.547273e+02
1.330000e-06	4.449453e-06	5.497497e-09	3.163773e+01	3.587969e+02
1.340000e-06	4.507411e-06	5.556746e-09	3.204983e+01	3.627069e+02
1.350000e-06	4.563525e-06	5.611481e-09	3.244883e+01	3.664538e+02
1.360000e-06	4.617982e-06	5.662459e-09	3.283604e+01	3.700331e+02
1.370000e-06	4.670772e-06	5.709685e-09	3.321141e+01	3.734406e+02
1.380000e-06	4.721598e-06	5.755226e-09	3.357280e+01	3.766734e+02
1.390000e-06	4.770341e-06	5.800427e-09	3.391939e+01	3.797308e+02
1.400000e-06	4.817283e-06	5.843892e-09	3.425317e+01	3.826145e+02
1.410000e-06	4.862645e-06	5.884425e-09	3.457572e+01	3.853292e+02
1.420000e-06	4.906512e-06	5.922012e-09	3.488763e+01	3.878820e+02
1.430000e-06	4.948582e-06	5.957261e-09	3.518676e+01	3.902821e+02
1.440000e-06	4.988709e-06	5.989287e-09	3.547209e+01	3.925397e+02
1.450000e-06	5.027159e-06	6.019498e-09	3.574548e+01	3.946650e+02
1.460000e-06	5.063964e-06	6.049075e-09	3.600719e+01	3.966674e+02
1.470000e-06	5.099095e-06	6.077114e-09	3.625699e+01	3.985541e+02
1.480000e-06	5.132316e-06	6.102877e-09	3.649320e+01	4.003302e+02
1.490000e-06	5.163681e-06	6.126194e-09	3.671623e+01	4.019980e+02
1.500000e-06	5.193362e-06	6.148134e-09	3.692727e+01	4.035570e+02
1.510000e-06	5.221372e-06	6.168605e-09	3.712644e+01	4.050048e+02
1.520000e-06	5.247440e-06	6.185889e-09	3.731179e+01	4.063378e+02
1.530000e-06	5.271384e-06	6.202110e-09	3.748204e+01	4.075519e+02
1.540000e-06	5.293454e-06	6.217700e-09	3.763897e+01	4.086439e+02
1.550000e-06	5.313794e-06	6.231910e-09	3.778360e+01	4.096121e+02
1.560000e-06	5.332357e-06	6.245075e-09	3.791559e+01	4.104573e+02
1.570000e-06	5.348866e-06	6.257398e-09	3.803298e+01	4.111825e+02
1.580000e-06	5.363383e-06	6.269568e-09	3.813620e+01	4.117933e+02
1.590000e-06	5.376035e-06	6.279488e-09	3.822616e+01	4.122972e+02
1.600000e-06	5.386500e-06	6.285363e-09	3.830058e+01	4.127026e+02
1.610000e-06	5.394736e-06	6.289145e-09	3.835914e+01	4.130181e+02
1.620000e-06	5.401017e-06	6.293758e-09	3.840380e+01	4.132512e+02
1.630000e-06	5.405547e-06	6.299136e-09	3.843600e+01	4.134074e+02
1.640000e-06	5.408254e-06	6.303392e-09	3.845525e+01	4.134896e+02
1.650000e-06	5.408921e-06	6.307883e-09	3.846000e+01	4.134977e+02
1.660000e-06	5.407714e-06	6.305049e-09	3.845141e+01	4.134289e+02
1.670000e-06	5.404837e-06	6.295328e-09	3.843096e+01	4.132779e+02
1.680000e-06	5.400302e-06	6.292372e-09	3.839871e+01	4.130382e+02
1.690000e-06	5.393881e-06	6.288722e-09	3.835306e+01	4.127031e+02
1.700000e-06	5.385592e-06	6.283055e-09	3.829412e+01	4.122668e+02
1.710000e-06	5.375727e-06	6.278167e-09	3.822397e+01	4.117256e+02
1.720000e-06	5.364237e-06	6.279057e-09	3.814227e+01	4.110785e+02
1.730000e-06	5.350843e-06	6.299322e-09	3.804703e+01	4.103282e+02
1.740000e-06	5.335435e-06	6.204789e-09	3.793747e+01	4.094803e+02
1.750000e-06	5.317746e-06	6.148294e-09	3.781170e+01	4.085435e+02
1.760000e-06	5.297372e-06	6.178828e-09	3.766683e+01	4.075281e+02
1.770000e-06	5.274484e-06	6.153053e-09	3.750409e+01	4.064450e+02
1.780000e-06	5.250094e-06	6.306918e-09	3.733066e+01	4.053044e+02
1.790000e-06	5.225072e-06	6.245193e-09	3.715274e+01	4.041142e+02
1.800000e-06	5.198859e-06	5.999534e-09	3.696635e+01	4.028790e+02
1.810000e-06	5.170437e-06	6.196357e-09	3.676426e+01	4.015995e+02
1.820000e-06	5.140033e-06	6.089143e-09	3.654808e+01	4.002721e+02
1.830000e-06	5.108010e-06	5.948791e-09	3.632038e+01	3.988891e+02
1.840000e-06	5.074054e-06	6.202032e-09	3.607893e+01	3.974394e+02
1.850000e-06	5.038418e-06	5.983384e-09	3.582554e+01	3.959101e+02
1.860000e-06	5.001060e-06	5.902128e-09	3.555991e+01	3.942874e+02
1.870000e-06	4.961739e-06	6.069607e-09	3.528032e+01	3.925581e+02
1.880000e-06	4.920759e-06	5.875774e-09	3.498894e+01	3.907113e+02
1.890000e-06	4.877990e-06	5.948712e-09	3.468483e+01	3.887394e+02
1.900000e-06	4.833544e-06	5.914116e-09	3.436879e+01	3.866384e+02
1.910000e-06	4.787414e-06	5.769227e-09	3.404078e+01	3.844085e+02
1.920000e-06	4.739201e-06	5.898198e-09	3.369797e+01	3.820537e+02
1.930000e-06	4.689346e-06	5.703968e-09	3.334348e+01	3.795810e+02
1.940000e-06	4.637836e-06	5.721791e-09	3.297722e+01	3.769992e+02
1.950000e-06	4.584165e-06	5.767718e-09	3.259559e+01	3.743181e+02
1.960000e-06	4.528497e-06	5.595837e-09	3.219977e+01	3.715468e+02
1.970000e-06	4.471100e-06	5.598985e-09	3.179164e+01	3.686932e+02
1.980000e-06	4.412264e-06	5.531576e-09	3.137329e+01	3.657624e+02
1.990000e-06	4.351974e-06	5.574942e-09	3.094460e+01	3.627572e+02
2.000000e-06	4.289972e-06	5.483998e-09	3.050374e+01	3.596774e+02
2.010000e-06	4.226364e-06	5.355587e-09	3.005145e+01	3.565205e+02
2.020000e-06	4.161211e-06	5.412748e-09	2.958818e+01	3.532824e+02
2.030000e-06	4.094613e-06	5.275638e-09	2.911464e+01	3.499579e+02
2.040000e-06	4.026663e-06	5.255277e-09	2.863149e+01	3.465423e+02
2.050000e-06	3.957227e-06	5.235728e-09	2.813776e+01	3.430313e+02
2.060000e-06	3.886197e-06	5.177826e-09	2.763271e+01	3.394223e+02
2.070000e-06	3.813735e-06	5.124659e-09	2.711746e+01	3.357146e+02
2.080000e-06	3.739992e-06	4.986785e-09	2.659312e+01	3.319090e+02
2.090000e-06	3.664913e-06	4.991086e-09	2.605927e+01	3.280081e+02
2.100000e-06	3.588411e-06	4.935265e-09	2.551530e+01	3.240151e+02
2.110000e-06	3.510309e-06	4.860792e-09	2.495996e+01	3.199339e+02
2.120000e-06	3.430791e-06	4.790425e-09	2.439456e+01	3.157674e+02
2.130000e-06	3.350134e-06	4.724725e-09	2.382105e+01	3.115176e+02
2.140000e-06	3.268323e-06	4.686997e-09	2.323933e+01	3.071849e+02
2.150000e-06	3.185440e-06	4.597255e-09	2.264999e+01	3.027675e+02
2.160000e-06	3.101576e-06	4.547448e-09	2.205367e+01	2.982621e+02
2.170000e-06	3.016626e-06	4.463368e-09	2.144964e+01	2.936637e+02
2.180000e-06	2.930400e-06	4.388882e-09	2.083654e+01	2.889661e+02
2.190000e-06	2.842913e-06	4.322710e-09	2.021446e+01	2.841632e+02
2.200000e-06	2.754444e-06	4.256304e-09	1.958541e+01	2.792488e+02
2.210000e-06	2.665119e-06	4.197169e-09	1.895026e+01	2.742182e+02
2.220000e-06	2.574798e-06	4.098458e-09	1.830804e+01	2.690679e+02
2.230000e-06	2.483563e-06	4.008119e-09	1.765931e+01	2.637967e+02
2.240000e-06	2.391622e-06	3.919670e-09	1.700557e+01	2.584048e+02
2.250000e-06	2.298912e-06	3.852135e-09	1.634635e+01	2.528946e+02
2.260000e-06	2.205278e-06	3.781198e-09	1.568057e+01	2.472694e+02
2.270000e-06	2.110697e-06	3.693880e-09	1.500805e+01	2.415336e+02
2.280000e-06	2.015171e-06	3.594866e-09	1.432882e+01	2.356912e+02
2.290000e-06	1.918833e-06	3.497392e-09	1.364381e+01	2.297461e+02
2.300000e-06	1.821908e-06	3.409626e-09	1.295463e+01	2.237007e+02
2.310000e-06	1.724542e-06	3.321486e-09	1.226231e+01	2.175560e+02
2.320000e-06	1.626634e-06	3.231475e-09	1.156614e+01	2.113112e+02
2.330000e-06	1.528113e-06	3.127016e-09	1.086561e+01	2.049639e+02
2.340000e-06	1.429109e-06	3.025803e-09	1.016164e+01	1.985101e+02
2.350000e-06	1.329703e-06	2.927996e-09	9.454818e+00	1.919444e+02
2.360000e-06	1.229968e-06	2.833706e-09	8.745653e+00	1.852608e+02
2.370000e-06	1.129993e-06	2.734565e-09	8.034787e+00	1.784528e+02
2.380000e-06	1.029644e-06	2.619845e-09	7.321256e+00	1.715141e+02
2.390000e-06	9.288660e-07	2.502648e-09	6.604679e+00	1.644387e+02
2.400000e-06	8.276502e-07	2.394355e-09	5.884986e+00	1.572209e+02
2.410000e-06	7.260101e-07	2.291326e-09	5.162277e+00	1.498560e+02
2.420000e-06	6.241628e-07	2.181501e-09	4.438094e+00	1.423394e+02
2.430000e-06	5.220760e-07	2.061134e-09	3.712208e+00	1.346671e+02
2.440000e-06	4.197704e-07	1.937878e-09	2.984767e+00	1.268347e+02
2.450000e-06	3.173614e-07	1.820088e-09	2.256590e+00	1.188379e+02
2.460000e-06	2.147324e-07	1.700249e-09	1.526849e+00	1.106714e+02
2.470000e-06	1.118936e-07	1.575454e-09	7.956166e-01	1.023291e+02
2.480000e-06	9.016518e-09	1.443179e-09	6.411172e-02	9.380384e+01
2.490000e-06	-9.388302e-08	1.301769e-09	-6.675528e-01	8.508721e+01
2.500000e-06	-1.967640e-07	1.160617e-09	-1.399086e+00	7.616988e+01
2.510000e-06	-2.995371e-07	1.025995e-09	-2.129851e+00	6.704169e+01
2.520000e-06	-4.021689e-07	8.929531e-10	-2.859612e+00	5.769214e+01
2.530000e-06	-5.046290e-07	7.502221e-10	-3.588151e+00	4.811091e+01
2.540000e-06	-6.069146e-07	5.994874e-10	-4.315451e+00	3.828855e+01
2.550000e-06	-7.089324e-07	4.469488e-10	-5.040846e+00	2.821726e+01
2.560000e-06	-8.105472e-07	2.928290e-10	-5.763376e+00	1.789173e+01
2.570000e-06	-9.117211e-07	1.318457e-10	-6.482770e+00	7.310051e+00
2.580000e-06	-1.012494e-06	-3.580036e-11	-7.199316e+00	-3.525457e+00
2.590000e-06	-1.112907e-06	-2.060333e-10	-7.913294e+00	-1.460745e+01
2.600000e-06	-1.212934e-06	-3.800765e-10	-8.624534e+00	-2.592290e+01
2.610000e-06	-1.312556e-06	-5.537347e-10	-9.332897e+00	-3.745267e+01
2.620000e-06	-1.411760e-06	-7.274041e-10	-1.003829e+01	-4.917129e+01
2.630000e-06	-1.510509e-06	-9.060523e-10	-1.074043e+01	-6.104708e+01
2.640000e-06	-1.608682e-06	-1.091807e-09	-1.143849e+01	-7.304256e+01
2.650000e-06	-1.706256e-06	-1.281685e-09	-1.213229e+01	-8.511527e+01
2.660000e-06	-1.803281e-06	-1.469411e-09	-1.282218e+01	-9.721884e+01
2.670000e-06	-1.899791e-06	-1.654908e-09	-1.350841e+01	-1.093043e+02
2.680000e-06	-1.995778e-06	-1.838572e-09	-1.419093e+01	-1.213219e+02
2.690000e-06	-2.091088e-06	-2.021762e-09	-1.486863e+01	-1.332222e+02
2.700000e-06	-2.185476e-06	-2.204612e-09	-1.553977e+01	-1.449585e+02
2.710000e-06	-2.278801e-06	-2.381966e-09	-1.620336e+01	-1.564874e+02
2.720000e-06	-2.371212e-06	-2.551342e-09	-1.686044e+01	-1.677711e+02
2.730000e-06	-2.462827e-06	-2.714313e-09	-1.751187e+01	-1.787771e+02
2.740000e-06	-2.553546e-06	-2.874324e-09	-1.815692e+01	-1.894799e+02
2.750000e-06	-2.643301e-06	-3.032702e-09	-1.879513e+01	-1.998601e+02
2.760000e-06	-2.732099e-06	-3.186123e-09	-1.942652e+01	-2.099048e+02
2.770000e-06	-2.820128e-06	-3.333111e-09	-2.005245e+01	-2.196064e+02
2.780000e-06	-2.907389e-06	-3.474779e-09	-2.067292e+01	-2.289622e+02
2.790000e-06	-2.993456e-06	-3.611508e-09	-2.128490e+01	-2.379732e+02
2.800000e-06	-3.078241e-06	-3.745367e-09	-2.188775e+01	-2.466429e+02
2.810000e-06	-3.161979e-06	-3.876963e-09	-2.248317e+01	-2.549770e+02
2.820000e-06	-3.244724e-06	-4.001622e-09	-2.307153e+01	-2.629821e+02
2.830000e-06	-3.326374e-06	-4.117180e-09	-2.365210e+01	-2.706655e+02
2.840000e-06	-3.406966e-06	-4.228726e-09	-2.422515e+01	-2.780351e+02
2.850000e-06	-3.486494e-06	-4.338117e-09	-2.479062e+01	-2.850995e+02
2.860000e-06	-3.564605e-06	-4.443657e-09	-2.534603e+01	-2.918677e+02
2.870000e-06	-3.641126e-06	-4.544293e-09	-2.589014e+01	-2.983500e+02
2.880000e-06	-3.716170e-06	-4.638414e-09	-2.642374e+01	-3.045577e+02
2.890000e-06	-3.789827e-06	-4.728578e-09	-2.694747e+01	-3.105037e+02
2.900000e-06	-3.862238e-06	-4.816974e-09	-2.746235e+01	-3.162019e+02
2.910000e-06	-3.933263e-06	-4.903031e-09	-2.796737e+01	-3.216673e+02
2.920000e-06	-4.002631e-06	-4.983887e-09	-2.846060e+01	-3.269152e+02
2.930000e-06	-4.070462e-06	-5.058453e-09	-2.894292e+01	-3.319605e+02
2.940000e-06	-4.136913e-06	-5.130340e-09	-2.941541e+01	-3.368173e+02
