# Temperatura_=_67.81
# Concentracion g/m^3_=_15000.0
# C_Vs_to_Am_M_A/Vsm_=_65563218390.804596
# pendiente_HvsI_1/m_=_3716.3
# ordenada_HvsI_A/m_=_1297.0
# frecuencia_Hz_=_301575.86538288597

Tiempo_(s)	Campo_(V.s)	Magnetizacion_(V.s)	Campo_(kA/m)	Magnetizacion_(A/m)
0.000000e+00	-5.384871e-06	-5.814370e-09	-3.834223e+01	-3.796954e+02
1.000000e-08	-5.382122e-06	-5.812532e-09	-3.832266e+01	-3.795133e+02
2.000000e-08	-5.377592e-06	-5.806527e-09	-3.829041e+01	-3.792509e+02
3.000000e-08	-5.371397e-06	-5.800201e-09	-3.824629e+01	-3.789083e+02
4.000000e-08	-5.363621e-06	-5.792592e-09	-3.819092e+01	-3.784848e+02
5.000000e-08	-5.354047e-06	-5.781899e-09	-3.812276e+01	-3.779801e+02
6.000000e-08	-5.342412e-06	-5.770985e-09	-3.803991e+01	-3.773937e+02
7.000000e-08	-5.328874e-06	-5.754028e-09	-3.794351e+01	-3.767256e+02
8.000000e-08	-5.313263e-06	-5.748071e-09	-3.783236e+01	-3.759764e+02
9.000000e-08	-5.295383e-06	-5.786909e-09	-3.770505e+01	-3.751474e+02
1.000000e-07	-5.275425e-06	-5.785857e-09	-3.756294e+01	-3.742401e+02
1.100000e-07	-5.253560e-06	-5.745230e-09	-3.740725e+01	-3.732570e+02
1.200000e-07	-5.230034e-06	-5.717122e-09	-3.723974e+01	-3.722002e+02
1.300000e-07	-5.204999e-06	-5.613270e-09	-3.706148e+01	-3.710722e+02
1.400000e-07	-5.178330e-06	-5.597925e-09	-3.687159e+01	-3.698749e+02
1.500000e-07	-5.150059e-06	-5.700080e-09	-3.667029e+01	-3.686094e+02
1.600000e-07	-5.120342e-06	-5.608641e-09	-3.645869e+01	-3.672759e+02
1.700000e-07	-5.089045e-06	-5.608028e-09	-3.623584e+01	-3.658733e+02
1.800000e-07	-5.055618e-06	-5.634186e-09	-3.599783e+01	-3.643995e+02
1.900000e-07	-5.020303e-06	-5.479829e-09	-3.574638e+01	-3.628509e+02
2.000000e-07	-4.983516e-06	-5.517128e-09	-3.548444e+01	-3.612234e+02
2.100000e-07	-4.944989e-06	-5.531191e-09	-3.521011e+01	-3.595121e+02
2.200000e-07	-4.904647e-06	-5.431237e-09	-3.492287e+01	-3.577119e+02
2.300000e-07	-4.862331e-06	-5.446564e-09	-3.462156e+01	-3.558182e+02
2.400000e-07	-4.818086e-06	-5.401731e-09	-3.430652e+01	-3.538272e+02
2.500000e-07	-4.772062e-06	-5.356865e-09	-3.397881e+01	-3.517361e+02
2.600000e-07	-4.724090e-06	-5.373621e-09	-3.363723e+01	-3.495438e+02
2.700000e-07	-4.674042e-06	-5.297760e-09	-3.328087e+01	-3.472505e+02
2.800000e-07	-4.621955e-06	-5.255266e-09	-3.290999e+01	-3.448583e+02
2.900000e-07	-4.568033e-06	-5.226236e-09	-3.252605e+01	-3.423701e+02
3.000000e-07	-4.512590e-06	-5.171135e-09	-3.213127e+01	-3.397902e+02
3.100000e-07	-4.455433e-06	-5.150904e-09	-3.172430e+01	-3.371231e+02
3.200000e-07	-4.396426e-06	-5.137858e-09	-3.130414e+01	-3.343735e+02
3.300000e-07	-4.335908e-06	-5.069403e-09	-3.087323e+01	-3.315453e+02
3.400000e-07	-4.273937e-06	-4.971753e-09	-3.043198e+01	-3.286418e+02
3.500000e-07	-4.210619e-06	-4.955058e-09	-2.998113e+01	-3.256652e+02
3.600000e-07	-4.145781e-06	-4.936504e-09	-2.951946e+01	-3.226162e+02
3.700000e-07	-4.079167e-06	-4.886192e-09	-2.904515e+01	-3.194944e+02
3.800000e-07	-4.010991e-06	-4.846357e-09	-2.855971e+01	-3.162984e+02
3.900000e-07	-3.941480e-06	-4.776207e-09	-2.806477e+01	-3.130261e+02
4.000000e-07	-3.870729e-06	-4.710459e-09	-2.756100e+01	-3.096751e+02
4.100000e-07	-3.798787e-06	-4.655957e-09	-2.704874e+01	-3.062431e+02
4.200000e-07	-3.725472e-06	-4.610785e-09	-2.652671e+01	-3.027281e+02
4.300000e-07	-3.650546e-06	-4.569630e-09	-2.599321e+01	-2.991291e+02
4.400000e-07	-3.574078e-06	-4.509757e-09	-2.544873e+01	-2.954455e+02
4.500000e-07	-3.496163e-06	-4.443690e-09	-2.489395e+01	-2.916780e+02
4.600000e-07	-3.416834e-06	-4.385265e-09	-2.432910e+01	-2.878274e+02
4.700000e-07	-3.336232e-06	-4.335414e-09	-2.375518e+01	-2.838950e+02
4.800000e-07	-3.254372e-06	-4.269836e-09	-2.317231e+01	-2.798821e+02
4.900000e-07	-3.171396e-06	-4.195313e-09	-2.258149e+01	-2.757894e+02
5.000000e-07	-3.087469e-06	-4.131629e-09	-2.198390e+01	-2.716167e+02
5.100000e-07	-3.002565e-06	-4.068819e-09	-2.137935e+01	-2.673628e+02
5.200000e-07	-2.916737e-06	-4.008650e-09	-2.076823e+01	-2.630254e+02
5.300000e-07	-2.829944e-06	-3.943010e-09	-2.015023e+01	-2.586011e+02
5.400000e-07	-2.742257e-06	-3.867088e-09	-1.952587e+01	-2.540856e+02
5.500000e-07	-2.653534e-06	-3.786907e-09	-1.889413e+01	-2.494742e+02
5.600000e-07	-2.563570e-06	-3.709523e-09	-1.825355e+01	-2.447622e+02
5.700000e-07	-2.472552e-06	-3.644006e-09	-1.760546e+01	-2.399453e+02
5.800000e-07	-2.380701e-06	-3.577651e-09	-1.695145e+01	-2.350201e+02
5.900000e-07	-2.288098e-06	-3.499812e-09	-1.629209e+01	-2.299846e+02
6.000000e-07	-2.194677e-06	-3.411346e-09	-1.562690e+01	-2.248380e+02
6.100000e-07	-2.100448e-06	-3.327851e-09	-1.495595e+01	-2.195810e+02
6.200000e-07	-2.005477e-06	-3.248079e-09	-1.427972e+01	-2.142155e+02
6.300000e-07	-1.909856e-06	-3.165395e-09	-1.359887e+01	-2.087440e+02
6.400000e-07	-1.813554e-06	-3.085206e-09	-1.291316e+01	-2.031696e+02
6.500000e-07	-1.716424e-06	-3.003130e-09	-1.222156e+01	-1.974950e+02
6.600000e-07	-1.618534e-06	-2.914341e-09	-1.152455e+01	-1.917221e+02
6.700000e-07	-1.520011e-06	-2.820429e-09	-1.082303e+01	-1.858516e+02
6.800000e-07	-1.420970e-06	-2.727992e-09	-1.011782e+01	-1.798828e+02
6.900000e-07	-1.321477e-06	-2.634417e-09	-9.409394e+00	-1.738132e+02
7.000000e-07	-1.221582e-06	-2.537436e-09	-8.698105e+00	-1.676392e+02
7.100000e-07	-1.121384e-06	-2.439211e-09	-7.984662e+00	-1.613555e+02
7.200000e-07	-1.020859e-06	-2.342694e-09	-7.268889e+00	-1.549564e+02
7.300000e-07	-9.200105e-07	-2.246566e-09	-6.550808e+00	-1.484357e+02
7.400000e-07	-8.188545e-07	-2.147481e-09	-5.830541e+00	-1.417874e+02
7.500000e-07	-7.173727e-07	-2.045747e-09	-5.107953e+00	-1.350061e+02
7.600000e-07	-6.156032e-07	-1.938405e-09	-4.383318e+00	-1.280874e+02
7.700000e-07	-5.136321e-07	-1.825521e-09	-3.657247e+00	-1.210276e+02
7.800000e-07	-4.114846e-07	-1.713518e-09	-2.929920e+00	-1.138238e+02
7.900000e-07	-3.091943e-07	-1.604098e-09	-2.201576e+00	-1.064735e+02
8.000000e-07	-2.068023e-07	-1.491555e-09	-1.472508e+00	-9.897417e+01
8.100000e-07	-1.043189e-07	-1.375959e-09	-7.427883e-01	-9.132261e+01
8.200000e-07	-1.780594e-09	-1.258037e-09	-1.267847e-02	-8.351443e+01
8.300000e-07	1.007921e-07	-1.136224e-09	7.176765e-01	-7.554364e+01
8.400000e-07	2.033370e-07	-1.013072e-09	1.447833e+00	-6.740241e+01
8.500000e-07	3.058254e-07	-8.889672e-10	2.177588e+00	-5.908115e+01
8.600000e-07	4.081674e-07	-7.617142e-10	2.906300e+00	-5.056885e+01
8.700000e-07	5.103948e-07	-6.255762e-10	3.634196e+00	-4.185374e+01
8.800000e-07	6.125494e-07	-4.853291e-10	4.361574e+00	-3.292428e+01
8.900000e-07	7.145113e-07	-3.452309e-10	5.087580e+00	-2.377023e+01
9.000000e-07	8.162022e-07	-2.018887e-10	5.811656e+00	-1.438399e+01
9.100000e-07	9.175626e-07	-5.532366e-11	6.533379e+00	-4.761757e+00
9.200000e-07	1.018587e-06	9.564848e-11	7.252710e+00	5.095352e+00
9.300000e-07	1.119274e-06	2.506382e-10	7.969638e+00	1.518043e+01
9.400000e-07	1.219609e-06	4.089529e-10	8.684059e+00	2.548029e+01
9.500000e-07	1.319616e-06	5.701628e-10	9.396141e+00	3.597528e+01
9.600000e-07	1.419231e-06	7.339224e-10	1.010544e+01	4.663959e+01
9.700000e-07	1.518240e-06	8.996719e-10	1.081042e+01	5.744182e+01
9.800000e-07	1.616548e-06	1.067840e-09	1.151040e+01	6.834603e+01
9.900000e-07	1.714167e-06	1.238020e-09	1.220549e+01	7.931280e+01
1.000000e-06	1.811012e-06	1.408710e-09	1.289506e+01	9.030066e+01
1.010000e-06	1.907035e-06	1.577853e-09	1.357878e+01	1.012674e+02
1.020000e-06	2.002366e-06	1.745268e-09	1.425757e+01	1.121711e+02
1.030000e-06	2.097031e-06	1.910396e-09	1.493162e+01	1.229718e+02
1.040000e-06	2.190950e-06	2.072795e-09	1.560035e+01	1.336317e+02
1.050000e-06	2.284117e-06	2.232798e-09	1.626374e+01	1.441163e+02
1.060000e-06	2.376606e-06	2.389002e-09	1.692230e+01	1.543947e+02
1.070000e-06	2.468393e-06	2.539709e-09	1.757585e+01	1.644395e+02
1.080000e-06	2.559300e-06	2.688698e-09	1.822314e+01	1.742275e+02
1.090000e-06	2.649150e-06	2.838552e-09	1.886291e+01	1.837390e+02
1.100000e-06	2.737902e-06	2.983383e-09	1.949485e+01	1.929579e+02
1.110000e-06	2.825612e-06	3.119074e-09	2.011938e+01	2.018718e+02
1.120000e-06	2.912377e-06	3.246577e-09	2.073718e+01	2.104716e+02
1.130000e-06	2.998214e-06	3.370787e-09	2.134837e+01	2.187516e+02
1.140000e-06	3.083113e-06	3.493000e-09	2.195288e+01	2.267095e+02
1.150000e-06	3.167120e-06	3.609602e-09	2.255104e+01	2.343463e+02
1.160000e-06	3.250087e-06	3.719232e-09	2.314180e+01	2.416664e+02
1.170000e-06	3.331826e-06	3.823109e-09	2.372381e+01	2.486774e+02
1.180000e-06	3.412261e-06	3.922233e-09	2.429653e+01	2.553897e+02
1.190000e-06	3.491467e-06	4.019143e-09	2.486051e+01	2.618165e+02
1.200000e-06	3.569503e-06	4.116019e-09	2.541616e+01	2.679731e+02
1.210000e-06	3.646317e-06	4.209594e-09	2.596310e+01	2.738762e+02
1.220000e-06	3.721770e-06	4.296916e-09	2.650035e+01	2.795433e+02
1.230000e-06	3.795672e-06	4.377999e-09	2.702656e+01	2.849918e+02
1.240000e-06	3.867933e-06	4.455856e-09	2.754109e+01	2.902382e+02
1.250000e-06	3.938738e-06	4.533147e-09	2.804525e+01	2.952976e+02
1.260000e-06	4.008219e-06	4.609054e-09	2.853997e+01	3.001826e+02
1.270000e-06	4.076358e-06	4.682474e-09	2.902514e+01	3.049032e+02
1.280000e-06	4.143044e-06	4.751328e-09	2.949997e+01	3.094665e+02
1.290000e-06	4.208062e-06	4.817118e-09	2.996292e+01	3.138769e+02
1.300000e-06	4.271458e-06	4.881371e-09	3.041433e+01	3.181358e+02
1.310000e-06	4.333423e-06	4.944209e-09	3.085554e+01	3.222428e+02
1.320000e-06	4.394016e-06	5.004705e-09	3.128698e+01	3.261957e+02
1.330000e-06	4.453188e-06	5.060212e-09	3.170831e+01	3.299913e+02
1.340000e-06	4.510694e-06	5.112241e-09	3.211778e+01	3.336265e+02
1.350000e-06	4.566438e-06	5.164068e-09	3.251469e+01	3.370985e+02
1.360000e-06	4.620535e-06	5.216449e-09	3.289988e+01	3.404055e+02
1.370000e-06	4.672902e-06	5.264015e-09	3.327276e+01	3.435473e+02
1.380000e-06	4.723305e-06	5.305188e-09	3.363164e+01	3.465253e+02
1.390000e-06	4.771717e-06	5.344158e-09	3.397635e+01	3.493426e+02
1.400000e-06	4.818371e-06	5.382212e-09	3.430855e+01	3.520041e+02
1.410000e-06	4.863423e-06	5.418991e-09	3.462934e+01	3.545157e+02
1.420000e-06	4.906903e-06	5.453471e-09	3.493893e+01	3.568844e+02
1.430000e-06	4.948609e-06	5.484346e-09	3.523589e+01	3.591176e+02
1.440000e-06	4.988455e-06	5.512699e-09	3.551961e+01	3.612226e+02
1.450000e-06	5.026628e-06	5.540291e-09	3.579141e+01	3.632062e+02
1.460000e-06	5.063184e-06	5.567798e-09	3.605170e+01	3.650742e+02
1.470000e-06	5.098003e-06	5.595065e-09	3.629963e+01	3.668315e+02
1.480000e-06	5.130954e-06	5.619110e-09	3.653425e+01	3.684814e+02
1.490000e-06	5.162001e-06	5.639315e-09	3.675532e+01	3.700263e+02
1.500000e-06	5.191299e-06	5.657886e-09	3.696393e+01	3.714672e+02
1.510000e-06	5.218945e-06	5.676174e-09	3.716078e+01	3.728042e+02
1.520000e-06	5.244627e-06	5.693311e-09	3.734365e+01	3.740369e+02
1.530000e-06	5.268237e-06	5.708550e-09	3.751176e+01	3.751646e+02
1.540000e-06	5.289978e-06	5.723070e-09	3.766656e+01	3.761867e+02
1.550000e-06	5.310057e-06	5.737221e-09	3.780953e+01	3.771026e+02
1.560000e-06	5.328301e-06	5.751154e-09	3.793944e+01	3.779128e+02
1.570000e-06	5.344373e-06	5.764158e-09	3.805387e+01	3.786182e+02
1.580000e-06	5.358476e-06	5.775849e-09	3.815429e+01	3.792204e+02
1.590000e-06	5.370688e-06	5.785217e-09	3.824124e+01	3.797218e+02
1.600000e-06	5.380696e-06	5.791704e-09	3.831251e+01	3.801255e+02
1.610000e-06	5.388541e-06	5.796353e-09	3.836837e+01	3.804346e+02
1.620000e-06	5.394521e-06	5.799705e-09	3.841094e+01	3.806525e+02
1.630000e-06	5.398760e-06	5.802733e-09	3.844113e+01	3.807826e+02
1.640000e-06	5.401094e-06	5.805865e-09	3.845775e+01	3.808275e+02
1.650000e-06	5.401410e-06	5.809392e-09	3.846000e+01	3.807895e+02
1.660000e-06	5.399952e-06	5.807773e-09	3.844962e+01	3.806702e+02
1.670000e-06	5.396865e-06	5.801888e-09	3.842764e+01	3.804706e+02
1.680000e-06	5.392081e-06	5.799375e-09	3.839357e+01	3.801907e+02
1.690000e-06	5.385355e-06	5.796229e-09	3.834568e+01	3.798305e+02
1.700000e-06	5.376784e-06	5.790388e-09	3.828465e+01	3.793894e+02
1.710000e-06	5.366659e-06	5.783895e-09	3.821256e+01	3.788668e+02
1.720000e-06	5.354865e-06	5.781990e-09	3.812858e+01	3.782626e+02
1.730000e-06	5.341122e-06	5.785988e-09	3.803073e+01	3.775768e+02
1.740000e-06	5.325291e-06	5.719771e-09	3.791800e+01	3.768101e+02
1.750000e-06	5.307064e-06	5.685071e-09	3.778822e+01	3.759638e+02
1.760000e-06	5.286128e-06	5.696859e-09	3.763915e+01	3.750398e+02
1.770000e-06	5.262948e-06	5.686396e-09	3.747410e+01	3.740403e+02
1.780000e-06	5.238492e-06	5.780085e-09	3.729996e+01	3.729678e+02
1.790000e-06	5.213390e-06	5.720488e-09	3.712122e+01	3.718245e+02
1.800000e-06	5.186901e-06	5.585345e-09	3.693262e+01	3.706122e+02
1.810000e-06	5.158118e-06	5.681929e-09	3.672767e+01	3.693318e+02
1.820000e-06	5.127538e-06	5.585274e-09	3.650993e+01	3.679833e+02
1.830000e-06	5.095237e-06	5.518580e-09	3.627994e+01	3.665654e+02
1.840000e-06	5.060934e-06	5.652950e-09	3.603568e+01	3.650756e+02
1.850000e-06	5.025079e-06	5.512477e-09	3.578038e+01	3.635102e+02
1.860000e-06	4.987458e-06	5.479050e-09	3.551251e+01	3.618649e+02
1.870000e-06	4.947969e-06	5.527916e-09	3.523134e+01	3.601346e+02
1.880000e-06	4.906844e-06	5.388340e-09	3.493851e+01	3.583144e+02
1.890000e-06	4.863815e-06	5.443626e-09	3.463213e+01	3.563999e+02
1.900000e-06	4.819146e-06	5.390902e-09	3.431407e+01	3.543872e+02
1.910000e-06	4.772732e-06	5.304115e-09	3.398358e+01	3.522742e+02
1.920000e-06	4.724274e-06	5.371822e-09	3.363855e+01	3.500599e+02
1.930000e-06	4.674239e-06	5.238406e-09	3.328227e+01	3.477449e+02
1.940000e-06	4.622507e-06	5.245767e-09	3.291392e+01	3.453315e+02
1.950000e-06	4.568629e-06	5.262221e-09	3.253030e+01	3.428230e+02
1.960000e-06	4.512801e-06	5.147754e-09	3.213278e+01	3.402237e+02
1.970000e-06	4.455281e-06	5.109333e-09	3.172322e+01	3.375383e+02
1.980000e-06	4.396308e-06	5.057319e-09	3.130331e+01	3.347711e+02
1.990000e-06	4.335897e-06	5.089241e-09	3.087316e+01	3.319263e+02
2.000000e-06	4.273795e-06	5.019497e-09	3.043097e+01	3.290067e+02
2.010000e-06	4.210035e-06	4.928000e-09	2.997697e+01	3.260142e+02
2.020000e-06	4.144723e-06	4.919944e-09	2.951193e+01	3.229494e+02
2.030000e-06	4.077990e-06	4.822849e-09	2.903676e+01	3.198115e+02
2.040000e-06	4.009896e-06	4.799827e-09	2.855192e+01	3.165991e+02
2.050000e-06	3.940311e-06	4.765539e-09	2.805644e+01	3.133099e+02
2.060000e-06	3.869150e-06	4.737431e-09	2.754975e+01	3.099414e+02
2.070000e-06	3.796578e-06	4.685126e-09	2.703301e+01	3.064914e+02
2.080000e-06	3.722740e-06	4.567392e-09	2.650726e+01	3.029582e+02
2.090000e-06	3.647513e-06	4.538341e-09	2.597161e+01	2.993407e+02
2.100000e-06	3.570851e-06	4.492952e-09	2.542575e+01	2.956388e+02
2.110000e-06	3.492635e-06	4.442951e-09	2.486882e+01	2.918530e+02
2.120000e-06	3.412987e-06	4.371111e-09	2.430171e+01	2.879845e+02
2.130000e-06	3.332238e-06	4.307443e-09	2.372674e+01	2.840345e+02
2.140000e-06	3.250372e-06	4.260902e-09	2.314383e+01	2.800041e+02
2.150000e-06	3.167413e-06	4.182150e-09	2.255313e+01	2.758940e+02
2.160000e-06	3.083474e-06	4.132026e-09	2.195545e+01	2.717037e+02
2.170000e-06	2.998428e-06	4.067327e-09	2.134989e+01	2.674318e+02
2.180000e-06	2.912035e-06	3.994817e-09	2.073475e+01	2.630758e+02
2.190000e-06	2.824453e-06	3.918038e-09	2.011113e+01	2.586321e+02
2.200000e-06	2.735922e-06	3.859963e-09	1.948076e+01	2.540961e+02
2.210000e-06	2.646493e-06	3.812249e-09	1.884399e+01	2.494633e+02
2.220000e-06	2.556133e-06	3.730997e-09	1.820060e+01	2.447288e+02
2.230000e-06	2.464924e-06	3.640415e-09	1.755115e+01	2.398887e+02
2.240000e-06	2.373029e-06	3.557742e-09	1.689683e+01	2.349397e+02
2.250000e-06	2.280409e-06	3.492088e-09	1.623734e+01	2.298801e+02
2.260000e-06	2.186896e-06	3.420321e-09	1.557149e+01	2.247094e+02
2.270000e-06	2.092286e-06	3.347276e-09	1.489784e+01	2.194286e+02
2.280000e-06	1.996688e-06	3.265960e-09	1.421714e+01	2.140398e+02
2.290000e-06	1.900361e-06	3.169158e-09	1.353126e+01	2.085458e+02
2.300000e-06	1.803480e-06	3.074084e-09	1.284143e+01	2.029494e+02
2.310000e-06	1.706133e-06	2.993231e-09	1.214828e+01	1.972533e+02
2.320000e-06	1.608210e-06	2.918713e-09	1.145104e+01	1.914591e+02
2.330000e-06	1.509704e-06	2.827586e-09	1.074964e+01	1.855673e+02
2.340000e-06	1.410732e-06	2.729788e-09	1.004492e+01	1.795769e+02
2.350000e-06	1.311364e-06	2.635699e-09	9.337389e+00	1.734850e+02
2.360000e-06	1.211727e-06	2.547526e-09	8.627934e+00	1.672876e+02
2.370000e-06	1.111864e-06	2.455711e-09	7.916872e+00	1.609794e+02
2.380000e-06	1.011701e-06	2.355009e-09	7.203676e+00	1.545544e+02
2.390000e-06	9.111521e-07	2.250433e-09	6.487733e+00	1.480066e+02
2.400000e-06	8.101241e-07	2.144907e-09	5.768377e+00	1.413299e+02
2.410000e-06	7.086796e-07	2.044195e-09	5.046056e+00	1.345192e+02
2.420000e-06	6.069112e-07	1.945716e-09	4.321428e+00	1.275703e+02
2.430000e-06	5.049188e-07	1.840839e-09	3.595205e+00	1.204795e+02
2.440000e-06	4.027450e-07	1.727674e-09	2.867691e+00	1.132442e+02
2.450000e-06	3.003910e-07	1.610487e-09	2.138893e+00	1.058619e+02
2.460000e-06	1.978561e-07	1.492763e-09	1.408807e+00	9.832995e+01
2.470000e-06	9.513013e-08	1.377621e-09	6.773610e-01	9.064494e+01
2.480000e-06	-7.621937e-09	1.259107e-09	-5.427096e-02	8.280217e+01
2.490000e-06	-1.103684e-07	1.133052e-09	-7.858630e-01	7.479527e+01
2.500000e-06	-2.130860e-07	1.003766e-09	-1.517250e+00	6.661602e+01
2.510000e-06	-3.156893e-07	8.773823e-10	-2.247822e+00	5.825448e+01
2.520000e-06	-4.182137e-07	7.531691e-10	-2.977833e+00	4.969941e+01
2.530000e-06	-5.205488e-07	6.222470e-10	-3.706496e+00	4.093901e+01
2.540000e-06	-6.227049e-07	4.840100e-10	-4.433884e+00	3.196190e+01
2.550000e-06	-7.245710e-07	3.422524e-10	-5.159208e+00	2.275832e+01
2.560000e-06	-8.259610e-07	1.958510e-10	-5.881142e+00	1.332137e+01
2.570000e-06	-9.269336e-07	4.537477e-11	-6.600103e+00	3.648217e+00
2.580000e-06	-1.027503e-06	-1.046036e-10	-7.316196e+00	-6.258841e+00
2.590000e-06	-1.127672e-06	-2.542160e-10	-8.029432e+00	-1.639159e+01
2.600000e-06	-1.227446e-06	-4.086143e-10	-8.739862e+00	-2.673544e+01
2.610000e-06	-1.326867e-06	-5.679363e-10	-9.447772e+00	-3.726939e+01
2.620000e-06	-1.425885e-06	-7.298918e-10	-1.015282e+01	-4.796637e+01
2.630000e-06	-1.524378e-06	-8.924457e-10	-1.085413e+01	-5.879393e+01
2.640000e-06	-1.622332e-06	-1.056342e-09	-1.155159e+01	-6.971526e+01
2.650000e-06	-1.719741e-06	-1.223099e-09	-1.224518e+01	-8.069040e+01
2.660000e-06	-1.816599e-06	-1.391828e-09	-1.293484e+01	-9.167759e+01
2.670000e-06	-1.912858e-06	-1.560555e-09	-1.362024e+01	-1.026346e+02
2.680000e-06	-2.008482e-06	-1.726106e-09	-1.430112e+01	-1.135199e+02
2.690000e-06	-2.103451e-06	-1.887413e-09	-1.497733e+01	-1.242938e+02
2.700000e-06	-2.197563e-06	-2.046112e-09	-1.564744e+01	-1.349192e+02
2.710000e-06	-2.290645e-06	-2.205743e-09	-1.631022e+01	-1.453624e+02
2.720000e-06	-2.382716e-06	-2.363295e-09	-1.696580e+01	-1.555932e+02
2.730000e-06	-2.473966e-06	-2.515120e-09	-1.761553e+01	-1.655852e+02
2.740000e-06	-2.564388e-06	-2.662229e-09	-1.825937e+01	-1.753158e+02
2.750000e-06	-2.653881e-06	-2.806420e-09	-1.889659e+01	-1.847661e+02
2.760000e-06	-2.742486e-06	-2.946652e-09	-1.952750e+01	-1.939209e+02
2.770000e-06	-2.830254e-06	-3.081893e-09	-2.015243e+01	-2.027684e+02
2.780000e-06	-2.917163e-06	-3.212819e-09	-2.077126e+01	-2.113003e+02
2.790000e-06	-3.002941e-06	-3.337953e-09	-2.138203e+01	-2.195117e+02
2.800000e-06	-3.087466e-06	-3.459043e-09	-2.198388e+01	-2.274009e+02
2.810000e-06	-3.170943e-06	-3.577164e-09	-2.257826e+01	-2.349697e+02
2.820000e-06	-3.253431e-06	-3.689984e-09	-2.316561e+01	-2.422231e+02
2.830000e-06	-3.334837e-06	-3.797334e-09	-2.374525e+01	-2.491694e+02
2.840000e-06	-3.415162e-06	-3.899117e-09	-2.431719e+01	-2.558197e+02
2.850000e-06	-3.494322e-06	-3.995152e-09	-2.488084e+01	-2.621875e+02
2.860000e-06	-3.572034e-06	-4.087119e-09	-2.543418e+01	-2.682886e+02
2.870000e-06	-3.648181e-06	-4.174859e-09	-2.597637e+01	-2.741400e+02
2.880000e-06	-3.722864e-06	-4.259960e-09	-2.650814e+01	-2.797591e+02
2.890000e-06	-3.796172e-06	-4.343606e-09	-2.703012e+01	-2.851633e+02
2.900000e-06	-3.868218e-06	-4.424600e-09	-2.754312e+01	-2.903688e+02
2.910000e-06	-3.938885e-06	-4.501997e-09	-2.804629e+01	-2.953901e+02
2.920000e-06	-4.007938e-06	-4.575896e-09	-2.853797e+01	-3.002394e+02
2.930000e-06	-4.075482e-06	-4.647399e-09	-2.901891e+01	-3.049261e+02
2.940000e-06	-4.141690e-06	-4.715346e-09	-2.949034e+01	-3.094567e+02
