# Temperatura_=_32.91
# Concentracion g/m^3_=_15000.0
# C_Vs_to_Am_M_A/Vsm_=_65563218390.804596
# pendiente_HvsI_1/m_=_3716.3
# ordenada_HvsI_A/m_=_1297.0
# frecuencia_Hz_=_301577.5495590751

Tiempo_(s)	Campo_(V.s)	Magnetizacion_(V.s)	Campo_(kA/m)	Magnetizacion_(A/m)
0.000000e+00	-5.384963e-06	-4.773583e-09	-3.834087e+01	-3.113254e+02
1.000000e-08	-5.382098e-06	-4.776347e-09	-3.832047e+01	-3.112123e+02
2.000000e-08	-5.377516e-06	-4.774988e-09	-3.828785e+01	-3.110328e+02
3.000000e-08	-5.371316e-06	-4.768601e-09	-3.824370e+01	-3.107863e+02
4.000000e-08	-5.363518e-06	-4.760539e-09	-3.818818e+01	-3.104732e+02
5.000000e-08	-5.353863e-06	-4.751441e-09	-3.811944e+01	-3.100947e+02
6.000000e-08	-5.342174e-06	-4.745628e-09	-3.803621e+01	-3.096528e+02
7.000000e-08	-5.328596e-06	-4.744063e-09	-3.793954e+01	-3.091507e+02
8.000000e-08	-5.312906e-06	-4.735225e-09	-3.782783e+01	-3.085925e+02
9.000000e-08	-5.294970e-06	-4.747225e-09	-3.770012e+01	-3.079828e+02
1.000000e-07	-5.274964e-06	-4.750038e-09	-3.755768e+01	-3.073262e+02
1.100000e-07	-5.252998e-06	-4.713523e-09	-3.740128e+01	-3.066269e+02
1.200000e-07	-5.229327e-06	-4.692335e-09	-3.723274e+01	-3.058881e+02
1.300000e-07	-5.204178e-06	-4.665926e-09	-3.705368e+01	-3.051116e+02
1.400000e-07	-5.177396e-06	-4.616551e-09	-3.686300e+01	-3.042971e+02
1.500000e-07	-5.149021e-06	-4.679666e-09	-3.666097e+01	-3.034425e+02
1.600000e-07	-5.119253e-06	-4.670732e-09	-3.644902e+01	-3.025437e+02
1.700000e-07	-5.087804e-06	-4.613432e-09	-3.622511e+01	-3.015946e+02
1.800000e-07	-5.054246e-06	-4.642616e-09	-3.598617e+01	-3.005881e+02
1.900000e-07	-5.018903e-06	-4.564124e-09	-3.573453e+01	-2.995163e+02
2.000000e-07	-4.982096e-06	-4.530010e-09	-3.547247e+01	-2.983715e+02
2.100000e-07	-4.943535e-06	-4.563944e-09	-3.519791e+01	-2.971466e+02
2.200000e-07	-4.903164e-06	-4.523367e-09	-3.491047e+01	-2.958360e+02
2.300000e-07	-4.860802e-06	-4.528082e-09	-3.460885e+01	-2.944361e+02
2.400000e-07	-4.816506e-06	-4.513934e-09	-3.429346e+01	-2.929452e+02
2.500000e-07	-4.770505e-06	-4.438764e-09	-3.396594e+01	-2.913641e+02
2.600000e-07	-4.722570e-06	-4.430542e-09	-3.362464e+01	-2.896956e+02
2.700000e-07	-4.672572e-06	-4.392695e-09	-3.326865e+01	-2.879443e+02
2.800000e-07	-4.620489e-06	-4.374287e-09	-3.289782e+01	-2.861158e+02
2.900000e-07	-4.566489e-06	-4.371487e-09	-3.251335e+01	-2.842163e+02
3.000000e-07	-4.510935e-06	-4.328179e-09	-3.211780e+01	-2.822518e+02
3.100000e-07	-4.453784e-06	-4.284068e-09	-3.171089e+01	-2.802277e+02
3.200000e-07	-4.394814e-06	-4.244422e-09	-3.129102e+01	-2.781478e+02
3.300000e-07	-4.334253e-06	-4.221336e-09	-3.085983e+01	-2.760149e+02
3.400000e-07	-4.272237e-06	-4.182218e-09	-3.041827e+01	-2.738298e+02
3.500000e-07	-4.208808e-06	-4.149093e-09	-2.996666e+01	-2.715917e+02
3.600000e-07	-4.143855e-06	-4.123934e-09	-2.950419e+01	-2.692987e+02
3.700000e-07	-4.077136e-06	-4.086018e-09	-2.902916e+01	-2.669478e+02
3.800000e-07	-4.008904e-06	-4.055095e-09	-2.854335e+01	-2.645355e+02
3.900000e-07	-3.939369e-06	-4.008223e-09	-2.804826e+01	-2.620583e+02
4.000000e-07	-3.868626e-06	-3.958293e-09	-2.754457e+01	-2.595127e+02
4.100000e-07	-3.796709e-06	-3.919803e-09	-2.703252e+01	-2.568962e+02
4.200000e-07	-3.723306e-06	-3.873812e-09	-2.650990e+01	-2.542069e+02
4.300000e-07	-3.648205e-06	-3.845859e-09	-2.597518e+01	-2.514436e+02
4.400000e-07	-3.571549e-06	-3.814081e-09	-2.542938e+01	-2.486060e+02
4.500000e-07	-3.493480e-06	-3.764307e-09	-2.487354e+01	-2.456943e+02
4.600000e-07	-3.413980e-06	-3.702943e-09	-2.430750e+01	-2.427091e+02
4.700000e-07	-3.333221e-06	-3.645508e-09	-2.373250e+01	-2.396510e+02
4.800000e-07	-3.251309e-06	-3.606225e-09	-2.314928e+01	-2.365204e+02
4.900000e-07	-3.168269e-06	-3.564950e-09	-2.255804e+01	-2.333173e+02
5.000000e-07	-3.084285e-06	-3.518009e-09	-2.196007e+01	-2.300413e+02
5.100000e-07	-2.999427e-06	-3.458641e-09	-2.135588e+01	-2.266914e+02
5.200000e-07	-2.913585e-06	-3.397289e-09	-2.074469e+01	-2.232663e+02
5.300000e-07	-2.826731e-06	-3.337057e-09	-2.012629e+01	-2.197642e+02
5.400000e-07	-2.738919e-06	-3.283112e-09	-1.950107e+01	-2.161833e+02
5.500000e-07	-2.650130e-06	-3.233597e-09	-1.886890e+01	-2.125216e+02
5.600000e-07	-2.560184e-06	-3.175388e-09	-1.822848e+01	-2.087775e+02
5.700000e-07	-2.469112e-06	-3.113020e-09	-1.758004e+01	-2.049496e+02
5.800000e-07	-2.377195e-06	-3.049182e-09	-1.692560e+01	-2.010367e+02
5.900000e-07	-2.284514e-06	-2.990723e-09	-1.626571e+01	-1.970381e+02
6.000000e-07	-2.191029e-06	-2.929200e-09	-1.560010e+01	-1.929532e+02
6.100000e-07	-2.096734e-06	-2.862046e-09	-1.492872e+01	-1.887818e+02
6.200000e-07	-2.001756e-06	-2.794105e-09	-1.425248e+01	-1.845235e+02
6.300000e-07	-1.906188e-06	-2.729393e-09	-1.357203e+01	-1.801777e+02
6.400000e-07	-1.809948e-06	-2.667065e-09	-1.288681e+01	-1.757438e+02
6.500000e-07	-1.712921e-06	-2.601124e-09	-1.219597e+01	-1.712206e+02
6.600000e-07	-1.615094e-06	-2.527978e-09	-1.149945e+01	-1.666066e+02
6.700000e-07	-1.516523e-06	-2.447654e-09	-1.079762e+01	-1.619000e+02
6.800000e-07	-1.417396e-06	-2.368859e-09	-1.009184e+01	-1.570985e+02
6.900000e-07	-1.317846e-06	-2.293315e-09	-9.383047e+00	-1.521998e+02
7.000000e-07	-1.217883e-06	-2.219812e-09	-8.671313e+00	-1.472012e+02
7.100000e-07	-1.117580e-06	-2.143149e-09	-7.957157e+00	-1.421002e+02
7.200000e-07	-1.017038e-06	-2.061102e-09	-7.241298e+00	-1.368943e+02
7.300000e-07	-9.162581e-07	-1.976667e-09	-6.523747e+00	-1.315812e+02
7.400000e-07	-8.151368e-07	-1.896197e-09	-5.803764e+00	-1.261589e+02
7.500000e-07	-7.136520e-07	-1.816783e-09	-5.081193e+00	-1.206254e+02
7.600000e-07	-6.118453e-07	-1.732007e-09	-4.356331e+00	-1.149789e+02
7.700000e-07	-5.097793e-07	-1.640221e-09	-3.629623e+00	-1.092177e+02
7.800000e-07	-4.075788e-07	-1.544084e-09	-2.901956e+00	-1.033400e+02
7.900000e-07	-3.052914e-07	-1.451108e-09	-2.173671e+00	-9.734357e+01
8.000000e-07	-2.028854e-07	-1.358698e-09	-1.444541e+00	-9.122589e+01
8.100000e-07	-1.004051e-07	-1.265125e-09	-7.148834e-01	-8.498375e+01
8.200000e-07	2.087473e-09	-1.169869e-09	1.486278e-02	-7.861325e+01
8.300000e-07	1.046173e-07	-1.072205e-09	7.448738e-01	-7.210960e+01
8.400000e-07	2.071761e-07	-9.733229e-10	1.475091e+00	-6.546715e+01
8.500000e-07	3.096532e-07	-8.720686e-10	2.204727e+00	-5.867935e+01
8.600000e-07	4.120331e-07	-7.672996e-10	2.933670e+00	-5.173892e+01
8.700000e-07	5.142899e-07	-6.572811e-10	3.661738e+00	-4.463800e+01
8.800000e-07	6.164165e-07	-5.446012e-10	4.388878e+00	-3.736853e+01
8.900000e-07	7.183909e-07	-4.324119e-10	5.114934e+00	-2.992266e+01
9.000000e-07	8.200643e-07	-3.201441e-10	5.838848e+00	-2.229327e+01
9.100000e-07	9.213886e-07	-2.040005e-10	6.560276e+00	-1.447466e+01
9.200000e-07	1.022373e-06	-8.328764e-11	7.279285e+00	-6.463198e+00
9.300000e-07	1.123018e-06	4.130019e-11	7.995875e+00	1.741884e+00
9.400000e-07	1.223337e-06	1.696704e-10	8.710143e+00	1.013780e+01
9.500000e-07	1.323300e-06	2.992148e-10	9.421877e+00	1.871753e+01
9.600000e-07	1.422843e-06	4.313544e-10	1.013063e+01	2.746932e+01
9.700000e-07	1.521826e-06	5.675084e-10	1.083538e+01	3.637632e+01
9.800000e-07	1.620151e-06	7.063285e-10	1.153546e+01	4.541646e+01
9.900000e-07	1.717777e-06	8.462926e-10	1.223055e+01	5.456266e+01
1.000000e-06	1.814571e-06	9.877910e-10	1.291972e+01	6.378325e+01
1.010000e-06	1.910531e-06	1.130294e-09	1.360296e+01	7.304272e+01
1.020000e-06	2.005764e-06	1.272585e-09	1.428102e+01	8.230274e+01
1.030000e-06	2.100330e-06	1.413009e-09	1.495433e+01	9.152330e+01
1.040000e-06	2.194159e-06	1.550791e-09	1.562239e+01	1.006641e+02
1.050000e-06	2.287293e-06	1.686119e-09	1.628550e+01	1.096860e+02
1.060000e-06	2.379778e-06	1.819210e-09	1.694399e+01	1.185521e+02
1.070000e-06	2.471501e-06	1.949537e-09	1.759705e+01	1.272293e+02
1.080000e-06	2.562381e-06	2.076135e-09	1.824412e+01	1.356888e+02
1.090000e-06	2.652275e-06	2.199531e-09	1.888417e+01	1.439073e+02
1.100000e-06	2.741039e-06	2.321592e-09	1.951616e+01	1.518671e+02
1.110000e-06	2.828715e-06	2.438714e-09	2.014042e+01	1.595562e+02
1.120000e-06	2.915423e-06	2.549394e-09	2.075778e+01	1.669680e+02
1.130000e-06	3.001176e-06	2.657111e-09	2.136834e+01	1.741010e+02
1.140000e-06	3.086011e-06	2.763579e-09	2.197236e+01	1.809577e+02
1.150000e-06	3.169903e-06	2.865469e-09	2.256967e+01	1.875442e+02
1.160000e-06	3.252744e-06	2.960395e-09	2.315949e+01	1.938690e+02
1.170000e-06	3.334402e-06	3.051456e-09	2.374090e+01	1.999423e+02
1.180000e-06	3.414821e-06	3.139169e-09	2.431348e+01	2.057751e+02
1.190000e-06	3.494010e-06	3.224917e-09	2.487731e+01	2.113788e+02
1.200000e-06	3.571917e-06	3.309571e-09	2.543201e+01	2.167643e+02
1.210000e-06	3.648588e-06	3.390650e-09	2.597790e+01	2.219419e+02
1.220000e-06	3.723897e-06	3.467634e-09	2.651410e+01	2.269212e+02
1.230000e-06	3.797663e-06	3.540951e-09	2.703931e+01	2.317107e+02
1.240000e-06	3.869921e-06	3.610758e-09	2.755379e+01	2.363181e+02
1.250000e-06	3.940739e-06	3.677521e-09	2.805802e+01	2.407500e+02
1.260000e-06	4.010173e-06	3.741733e-09	2.855238e+01	2.450125e+02
1.270000e-06	4.078246e-06	3.805316e-09	2.903706e+01	2.491104e+02
1.280000e-06	4.144884e-06	3.865252e-09	2.951152e+01	2.530483e+02
1.290000e-06	4.209867e-06	3.920103e-09	2.997420e+01	2.568296e+02
1.300000e-06	4.273250e-06	3.971706e-09	3.042549e+01	2.604573e+02
1.310000e-06	4.335202e-06	4.022293e-09	3.086659e+01	2.639337e+02
1.320000e-06	4.395750e-06	4.071348e-09	3.129769e+01	2.672606e+02
1.330000e-06	4.454886e-06	4.117038e-09	3.171874e+01	2.704393e+02
1.340000e-06	4.512401e-06	4.160242e-09	3.212824e+01	2.734711e+02
1.350000e-06	4.568126e-06	4.202979e-09	3.252500e+01	2.763571e+02
1.360000e-06	4.622125e-06	4.244432e-09	3.290947e+01	2.790986e+02
1.370000e-06	4.674400e-06	4.280559e-09	3.328167e+01	2.816977e+02
1.380000e-06	4.724719e-06	4.313744e-09	3.363994e+01	2.841568e+02
1.390000e-06	4.773057e-06	4.346088e-09	3.398411e+01	2.864792e+02
1.400000e-06	4.819656e-06	4.376961e-09	3.431589e+01	2.886693e+02
1.410000e-06	4.864697e-06	4.405144e-09	3.463659e+01	2.907320e+02
1.420000e-06	4.908153e-06	4.431797e-09	3.494599e+01	2.926731e+02
1.430000e-06	4.949783e-06	4.457497e-09	3.524239e+01	2.944987e+02
1.440000e-06	4.989555e-06	4.481993e-09	3.552557e+01	2.962149e+02
1.450000e-06	5.027653e-06	4.505433e-09	3.579683e+01	2.978277e+02
1.460000e-06	5.064154e-06	4.527823e-09	3.605672e+01	2.993426e+02
1.470000e-06	5.098942e-06	4.550117e-09	3.630440e+01	3.007642e+02
1.480000e-06	5.131818e-06	4.570470e-09	3.653848e+01	3.020961e+02
1.490000e-06	5.162782e-06	4.587705e-09	3.675894e+01	3.033408e+02
1.500000e-06	5.192029e-06	4.602559e-09	3.696718e+01	3.045000e+02
1.510000e-06	5.219609e-06	4.617307e-09	3.716356e+01	3.055744e+02
1.520000e-06	5.245173e-06	4.631250e-09	3.734557e+01	3.065642e+02
1.530000e-06	5.268650e-06	4.644911e-09	3.751273e+01	3.074694e+02
1.540000e-06	5.290347e-06	4.657579e-09	3.766721e+01	3.082901e+02
1.550000e-06	5.310360e-06	4.668683e-09	3.780970e+01	3.090267e+02
1.560000e-06	5.328518e-06	4.679407e-09	3.793898e+01	3.096803e+02
1.570000e-06	5.344670e-06	4.689241e-09	3.805398e+01	3.102524e+02
1.580000e-06	5.358856e-06	4.699259e-09	3.815499e+01	3.107451e+02
1.590000e-06	5.371043e-06	4.707800e-09	3.824176e+01	3.111612e+02
1.600000e-06	5.381080e-06	4.713599e-09	3.831322e+01	3.115034e+02
1.610000e-06	5.388988e-06	4.717690e-09	3.836953e+01	3.117744e+02
1.620000e-06	5.394953e-06	4.721120e-09	3.841200e+01	3.119767e+02
1.630000e-06	5.399114e-06	4.725084e-09	3.844163e+01	3.121121e+02
1.640000e-06	5.401411e-06	4.727486e-09	3.845798e+01	3.121817e+02
1.650000e-06	5.401695e-06	4.728921e-09	3.846000e+01	3.121860e+02
1.660000e-06	5.400100e-06	4.727906e-09	3.844865e+01	3.121246e+02
1.670000e-06	5.396868e-06	4.722978e-09	3.842564e+01	3.119972e+02
1.680000e-06	5.391988e-06	4.721191e-09	3.839089e+01	3.118032e+02
1.690000e-06	5.385201e-06	4.718646e-09	3.834257e+01	3.115422e+02
1.700000e-06	5.376623e-06	4.714512e-09	3.828149e+01	3.112149e+02
1.710000e-06	5.366449e-06	4.709470e-09	3.820905e+01	3.108224e+02
1.720000e-06	5.354594e-06	4.699940e-09	3.812464e+01	3.103671e+02
1.730000e-06	5.340767e-06	4.697384e-09	3.802620e+01	3.098525e+02
1.740000e-06	5.324826e-06	4.670582e-09	3.791269e+01	3.092827e+02
1.750000e-06	5.306557e-06	4.643733e-09	3.778262e+01	3.086624e+02
1.760000e-06	5.285580e-06	4.663804e-09	3.763326e+01	3.079961e+02
1.770000e-06	5.262340e-06	4.664481e-09	3.746780e+01	3.072880e+02
1.780000e-06	5.237911e-06	4.680677e-09	3.729386e+01	3.065409e+02
1.790000e-06	5.212772e-06	4.673184e-09	3.711488e+01	3.057561e+02
1.800000e-06	5.186135e-06	4.555419e-09	3.692522e+01	3.049332e+02
1.810000e-06	5.157340e-06	4.584862e-09	3.672020e+01	3.040694e+02
1.820000e-06	5.126762e-06	4.611489e-09	3.650248e+01	3.031601e+02
1.830000e-06	5.094421e-06	4.547076e-09	3.627221e+01	3.021992e+02
1.840000e-06	5.060120e-06	4.625972e-09	3.602799e+01	3.011792e+02
1.850000e-06	5.024201e-06	4.608942e-09	3.577225e+01	3.000923e+02
1.860000e-06	4.986480e-06	4.541044e-09	3.550368e+01	2.989307e+02
1.870000e-06	4.946845e-06	4.557087e-09	3.522148e+01	2.976877e+02
1.880000e-06	4.905572e-06	4.466702e-09	3.492761e+01	2.963581e+02
1.890000e-06	4.862542e-06	4.481216e-09	3.462124e+01	2.949385e+02
1.900000e-06	4.817869e-06	4.503905e-09	3.430317e+01	2.934280e+02
1.910000e-06	4.771385e-06	4.419447e-09	3.397221e+01	2.918277e+02
1.920000e-06	4.722881e-06	4.460045e-09	3.362685e+01	2.901409e+02
1.930000e-06	4.672737e-06	4.391210e-09	3.326983e+01	2.883724e+02
1.940000e-06	4.620831e-06	4.337883e-09	3.290026e+01	2.865280e+02
1.950000e-06	4.566854e-06	4.353570e-09	3.251594e+01	2.846140e+02
1.960000e-06	4.510958e-06	4.293921e-09	3.211796e+01	2.826361e+02
1.970000e-06	4.453347e-06	4.300894e-09	3.170778e+01	2.805996e+02
1.980000e-06	4.394237e-06	4.255570e-09	3.128691e+01	2.785081e+02
1.990000e-06	4.333679e-06	4.223949e-09	3.085574e+01	2.763638e+02
2.000000e-06	4.271506e-06	4.200893e-09	3.041307e+01	2.741672e+02
2.010000e-06	4.207655e-06	4.122981e-09	2.995845e+01	2.719174e+02
2.020000e-06	4.142216e-06	4.115475e-09	2.949253e+01	2.696122e+02
2.030000e-06	4.075363e-06	4.069860e-09	2.901654e+01	2.672483e+02
2.040000e-06	4.007226e-06	4.054933e-09	2.853140e+01	2.648222e+02
2.050000e-06	3.937722e-06	4.021054e-09	2.803653e+01	2.623304e+02
2.060000e-06	3.866601e-06	3.959346e-09	2.753015e+01	2.597697e+02
2.070000e-06	3.793980e-06	3.945577e-09	2.701309e+01	2.571375e+02
2.080000e-06	3.720113e-06	3.874332e-09	2.648716e+01	2.544322e+02
2.090000e-06	3.644908e-06	3.834365e-09	2.595170e+01	2.516529e+02
2.100000e-06	3.568269e-06	3.794809e-09	2.540603e+01	2.487992e+02
2.110000e-06	3.490063e-06	3.758956e-09	2.484921e+01	2.458716e+02
2.120000e-06	3.410470e-06	3.728574e-09	2.428251e+01	2.428706e+02
2.130000e-06	3.329773e-06	3.664262e-09	2.370794e+01	2.397967e+02
2.140000e-06	3.247931e-06	3.622728e-09	2.312523e+01	2.366504e+02
2.150000e-06	3.164939e-06	3.566497e-09	2.253433e+01	2.334316e+02
2.160000e-06	3.080968e-06	3.518756e-09	2.193646e+01	2.301397e+02
2.170000e-06	2.995929e-06	3.473450e-09	2.133097e+01	2.267737e+02
2.180000e-06	2.909524e-06	3.434507e-09	2.071578e+01	2.233321e+02
2.190000e-06	2.821883e-06	3.386571e-09	2.009177e+01	2.198131e+02
2.200000e-06	2.733304e-06	3.318469e-09	1.946109e+01	2.162149e+02
2.210000e-06	2.643840e-06	3.258967e-09	1.882411e+01	2.125355e+02
2.220000e-06	2.553440e-06	3.198622e-09	1.818046e+01	2.087734e+02
2.230000e-06	2.462169e-06	3.147822e-09	1.753062e+01	2.049272e+02
2.240000e-06	2.370156e-06	3.089870e-09	1.687548e+01	2.009958e+02
2.250000e-06	2.277379e-06	3.034316e-09	1.621491e+01	1.969786e+02
2.260000e-06	2.183767e-06	2.975507e-09	1.554840e+01	1.928751e+02
2.270000e-06	2.089103e-06	2.906660e-09	1.487439e+01	1.886849e+02
2.280000e-06	1.993426e-06	2.838157e-09	1.419317e+01	1.844077e+02
2.290000e-06	1.897063e-06	2.771913e-09	1.350706e+01	1.800430e+02
2.300000e-06	1.800162e-06	2.705192e-09	1.281713e+01	1.755899e+02
2.310000e-06	1.702770e-06	2.635713e-09	1.212370e+01	1.710472e+02
2.320000e-06	1.604767e-06	2.567998e-09	1.142592e+01	1.664134e+02
2.330000e-06	1.506172e-06	2.499546e-09	1.072393e+01	1.616865e+02
2.340000e-06	1.407097e-06	2.431078e-09	1.001851e+01	1.568642e+02
2.350000e-06	1.307653e-06	2.353684e-09	9.310470e+00	1.519442e+02
2.360000e-06	1.207929e-06	2.273999e-09	8.600436e+00	1.469237e+02
2.370000e-06	1.107963e-06	2.198089e-09	7.888681e+00	1.418002e+02
2.380000e-06	1.007735e-06	2.122157e-09	7.175063e+00	1.365714e+02
2.390000e-06	9.071023e-07	2.044861e-09	6.458557e+00	1.312349e+02
2.400000e-06	8.059411e-07	1.960826e-09	5.738290e+00	1.257888e+02
2.410000e-06	7.044289e-07	1.871889e-09	5.015525e+00	1.202310e+02
2.420000e-06	6.027555e-07	1.781356e-09	4.291612e+00	1.145600e+02
2.430000e-06	5.008485e-07	1.693323e-09	3.566035e+00	1.087738e+02
2.440000e-06	3.986529e-07	1.610320e-09	2.838404e+00	1.028707e+02
2.450000e-06	2.962383e-07	1.527499e-09	2.109213e+00	9.684838e+01
2.460000e-06	1.937613e-07	1.435505e-09	1.379578e+00	9.070416e+01
2.470000e-06	9.120674e-08	1.335107e-09	6.493909e-01	8.443472e+01
2.480000e-06	-1.143879e-08	1.231204e-09	-8.144405e-02	7.803596e+01
2.490000e-06	-1.141167e-07	1.126791e-09	-8.125092e-01	7.150292e+01
2.500000e-06	-2.167755e-07	1.024898e-09	-1.543439e+00	6.482974e+01
2.510000e-06	-3.193243e-07	9.230729e-10	-2.273585e+00	5.800971e+01
2.520000e-06	-4.217177e-07	8.190276e-10	-3.002625e+00	5.103540e+01
2.530000e-06	-5.239415e-07	7.091146e-10	-3.730457e+00	4.389889e+01
2.540000e-06	-6.259935e-07	5.954917e-10	-4.457066e+00	3.659211e+01
2.550000e-06	-7.277312e-07	4.821218e-10	-5.181437e+00	2.910731e+01
2.560000e-06	-8.290756e-07	3.637054e-10	-5.903008e+00	2.143764e+01
2.570000e-06	-9.300625e-07	2.401225e-10	-6.622034e+00	1.357776e+01
2.580000e-06	-1.030662e-06	1.143620e-10	-7.338302e+00	5.524609e+00
2.590000e-06	-1.130892e-06	-1.127185e-11	-8.051939e+00	-2.721892e+00
2.600000e-06	-1.230720e-06	-1.386102e-10	-8.762709e+00	-1.115810e+01
2.610000e-06	-1.330125e-06	-2.714821e-10	-9.470471e+00	-1.977602e+01
2.620000e-06	-1.429132e-06	-4.093186e-10	-1.017540e+01	-2.856282e+01
2.630000e-06	-1.527619e-06	-5.483983e-10	-1.087663e+01	-3.750054e+01
2.640000e-06	-1.625547e-06	-6.839268e-10	-1.157387e+01	-4.656601e+01
2.650000e-06	-1.722955e-06	-8.195920e-10	-1.226742e+01	-5.573112e+01
2.660000e-06	-1.819799e-06	-9.591061e-10	-1.295695e+01	-6.496330e+01
2.670000e-06	-1.916083e-06	-1.102686e-09	-1.364249e+01	-7.422635e+01
2.680000e-06	-2.011757e-06	-1.245609e-09	-1.432369e+01	-8.348147e+01
2.690000e-06	-2.106614e-06	-1.385125e-09	-1.499907e+01	-9.268849e+01
2.700000e-06	-2.200591e-06	-1.523219e-09	-1.566818e+01	-1.018072e+02
2.710000e-06	-2.293677e-06	-1.661180e-09	-1.633095e+01	-1.107989e+02
2.720000e-06	-2.385851e-06	-1.797810e-09	-1.698723e+01	-1.196273e+02
2.730000e-06	-2.477165e-06	-1.931214e-09	-1.763738e+01	-1.282602e+02
2.740000e-06	-2.567610e-06	-2.062138e-09	-1.828135e+01	-1.366700e+02
2.750000e-06	-2.657140e-06	-2.189947e-09	-1.891880e+01	-1.448346e+02
2.760000e-06	-2.745775e-06	-2.312730e-09	-1.954989e+01	-1.527374e+02
2.770000e-06	-2.833607e-06	-2.430091e-09	-2.017525e+01	-1.603676e+02
2.780000e-06	-2.920521e-06	-2.542684e-09	-2.079407e+01	-1.677198e+02
2.790000e-06	-3.006268e-06	-2.649057e-09	-2.140459e+01	-1.747933e+02
2.800000e-06	-3.090801e-06	-2.750855e-09	-2.200647e+01	-1.815917e+02
2.810000e-06	-3.174286e-06	-2.850529e-09	-2.260088e+01	-1.881214e+02
2.820000e-06	-3.256775e-06	-2.947332e-09	-2.318820e+01	-1.943916e+02
2.830000e-06	-3.338177e-06	-3.041544e-09	-2.376778e+01	-2.004126e+02
2.840000e-06	-3.418446e-06	-3.131301e-09	-2.433929e+01	-2.061956e+02
2.850000e-06	-3.497500e-06	-3.215572e-09	-2.490216e+01	-2.117517e+02
2.860000e-06	-3.575123e-06	-3.296147e-09	-2.545483e+01	-2.170920e+02
2.870000e-06	-3.651251e-06	-3.372626e-09	-2.599686e+01	-2.222265e+02
2.880000e-06	-3.725919e-06	-3.445400e-09	-2.652850e+01	-2.271646e+02
2.890000e-06	-3.799208e-06	-3.517329e-09	-2.705032e+01	-2.319146e+02
2.900000e-06	-3.871204e-06	-3.589595e-09	-2.756293e+01	-2.364840e+02
2.910000e-06	-3.941754e-06	-3.658898e-09	-2.806524e+01	-2.408793e+02
2.920000e-06	-4.010739e-06	-3.723336e-09	-2.855641e+01	-2.451063e+02
2.930000e-06	-4.078255e-06	-3.786446e-09	-2.903713e+01	-2.491697e+02
2.940000e-06	-4.144365e-06	-3.848709e-09	-2.950783e+01	-2.530739e+02
