# Temperatura_=_68.54
# Concentracion g/m^3_=_15000.0
# C_Vs_to_Am_M_A/Vsm_=_65563218390.804596
# pendiente_HvsI_1/m_=_3716.3
# ordenada_HvsI_A/m_=_1297.0
# frecuencia_Hz_=_301572.79529913166

Tiempo_(s)	Campo_(V.s)	Magnetizacion_(V.s)	Campo_(kA/m)	Magnetizacion_(A/m)
0.000000e+00	-5.371388e-06	-5.812103e-09	-3.834498e+01	-3.799609e+02
1.000000e-08	-5.368532e-06	-5.810210e-09	-3.832460e+01	-3.797823e+02
2.000000e-08	-5.363904e-06	-5.804335e-09	-3.829156e+01	-3.795241e+02
3.000000e-08	-5.357684e-06	-5.797922e-09	-3.824716e+01	-3.791847e+02
4.000000e-08	-5.349883e-06	-5.790129e-09	-3.819146e+01	-3.787624e+02
5.000000e-08	-5.340230e-06	-5.779803e-09	-3.812256e+01	-3.782554e+02
6.000000e-08	-5.328535e-06	-5.769619e-09	-3.803907e+01	-3.776624e+02
7.000000e-08	-5.314946e-06	-5.753529e-09	-3.794206e+01	-3.769832e+02
8.000000e-08	-5.299266e-06	-5.745967e-09	-3.783013e+01	-3.762187e+02
9.000000e-08	-5.281313e-06	-5.773295e-09	-3.770196e+01	-3.753707e+02
1.000000e-07	-5.261286e-06	-5.771872e-09	-3.755899e+01	-3.744422e+02
1.100000e-07	-5.239392e-06	-5.739339e-09	-3.740270e+01	-3.734367e+02
1.200000e-07	-5.215835e-06	-5.710125e-09	-3.723453e+01	-3.723581e+02
1.300000e-07	-5.190699e-06	-5.618132e-09	-3.705509e+01	-3.712098e+02
1.400000e-07	-5.163953e-06	-5.613114e-09	-3.686416e+01	-3.699944e+02
1.500000e-07	-5.135638e-06	-5.690362e-09	-3.666203e+01	-3.687134e+02
1.600000e-07	-5.105909e-06	-5.607291e-09	-3.644980e+01	-3.673667e+02
1.700000e-07	-5.074590e-06	-5.597987e-09	-3.622622e+01	-3.659525e+02
1.800000e-07	-5.041162e-06	-5.605787e-09	-3.598758e+01	-3.644678e+02
1.900000e-07	-5.005935e-06	-5.478375e-09	-3.573611e+01	-3.629082e+02
2.000000e-07	-4.969247e-06	-5.514636e-09	-3.547420e+01	-3.612688e+02
2.100000e-07	-4.930773e-06	-5.543971e-09	-3.519954e+01	-3.595441e+02
2.200000e-07	-4.890416e-06	-5.456452e-09	-3.491144e+01	-3.577295e+02
2.300000e-07	-4.848112e-06	-5.447607e-09	-3.460945e+01	-3.558209e+02
2.400000e-07	-4.803938e-06	-5.410780e-09	-3.429410e+01	-3.538157e+02
2.500000e-07	-4.758034e-06	-5.356401e-09	-3.396641e+01	-3.517127e+02
2.600000e-07	-4.710221e-06	-5.344670e-09	-3.362508e+01	-3.495122e+02
2.700000e-07	-4.660338e-06	-5.301296e-09	-3.326898e+01	-3.472162e+02
2.800000e-07	-4.608381e-06	-5.266750e-09	-3.289807e+01	-3.448275e+02
2.900000e-07	-4.554527e-06	-5.224801e-09	-3.251362e+01	-3.423496e+02
3.000000e-07	-4.499121e-06	-5.184491e-09	-3.211809e+01	-3.397864e+02
3.100000e-07	-4.442101e-06	-5.155816e-09	-3.171104e+01	-3.371412e+02
3.200000e-07	-4.383301e-06	-5.116583e-09	-3.129128e+01	-3.344167e+02
3.300000e-07	-4.322915e-06	-5.062730e-09	-3.086020e+01	-3.316148e+02
3.400000e-07	-4.261035e-06	-4.993408e-09	-3.041846e+01	-3.287362e+02
3.500000e-07	-4.197776e-06	-4.965215e-09	-2.996686e+01	-3.257805e+02
3.600000e-07	-4.133051e-06	-4.937579e-09	-2.950481e+01	-3.227466e+02
3.700000e-07	-4.066667e-06	-4.887254e-09	-2.903091e+01	-3.196328e+02
3.800000e-07	-3.998702e-06	-4.842779e-09	-2.854573e+01	-3.164372e+02
3.900000e-07	-3.929370e-06	-4.777666e-09	-2.805078e+01	-3.131581e+02
4.000000e-07	-3.858804e-06	-4.715878e-09	-2.754703e+01	-3.097941e+02
4.100000e-07	-3.787002e-06	-4.664287e-09	-2.703445e+01	-3.063446e+02
4.200000e-07	-3.713779e-06	-4.615952e-09	-2.651173e+01	-3.028098e+02
4.300000e-07	-3.638922e-06	-4.566677e-09	-2.597735e+01	-2.991903e+02
4.400000e-07	-3.562528e-06	-4.508371e-09	-2.543199e+01	-2.954871e+02
4.500000e-07	-3.484753e-06	-4.448676e-09	-2.487677e+01	-2.917016e+02
4.600000e-07	-3.405603e-06	-4.388159e-09	-2.431174e+01	-2.878348e+02
4.700000e-07	-3.325126e-06	-4.327474e-09	-2.373724e+01	-2.838871e+02
4.800000e-07	-3.243443e-06	-4.264648e-09	-2.315412e+01	-2.798583e+02
4.900000e-07	-3.160652e-06	-4.202208e-09	-2.256310e+01	-2.757473e+02
5.000000e-07	-3.076866e-06	-4.138568e-09	-2.196497e+01	-2.715518e+02
5.100000e-07	-2.992182e-06	-4.073441e-09	-2.136043e+01	-2.672689e+02
5.200000e-07	-2.906543e-06	-4.008119e-09	-2.074908e+01	-2.628950e+02
5.300000e-07	-2.819886e-06	-3.936422e-09	-2.013046e+01	-2.584265e+02
5.400000e-07	-2.732320e-06	-3.861400e-09	-1.950535e+01	-2.538595e+02
5.500000e-07	-2.643802e-06	-3.786857e-09	-1.887344e+01	-2.491909e+02
5.600000e-07	-2.554134e-06	-3.713743e-09	-1.823332e+01	-2.444183e+02
5.700000e-07	-2.463322e-06	-3.645237e-09	-1.758504e+01	-2.395403e+02
5.800000e-07	-2.371615e-06	-3.572395e-09	-1.693036e+01	-2.345567e+02
5.900000e-07	-2.279177e-06	-3.494915e-09	-1.627047e+01	-2.294681e+02
6.000000e-07	-2.185955e-06	-3.413414e-09	-1.560498e+01	-2.242760e+02
6.100000e-07	-2.091925e-06	-3.328723e-09	-1.493373e+01	-2.189824e+02
6.200000e-07	-1.997193e-06	-3.245808e-09	-1.425746e+01	-2.135893e+02
6.300000e-07	-1.901799e-06	-3.162200e-09	-1.357647e+01	-2.080986e+02
6.400000e-07	-1.805719e-06	-3.077829e-09	-1.289057e+01	-2.025113e+02
6.500000e-07	-1.708959e-06	-2.993784e-09	-1.219983e+01	-1.968277e+02
6.600000e-07	-1.611495e-06	-2.906182e-09	-1.150405e+01	-1.910470e+02
6.700000e-07	-1.513317e-06	-2.814512e-09	-1.080319e+01	-1.851674e+02
6.800000e-07	-1.414480e-06	-2.722869e-09	-1.009762e+01	-1.791860e+02
6.900000e-07	-1.315123e-06	-2.628013e-09	-9.388332e+00	-1.730994e+02
7.000000e-07	-1.215383e-06	-2.532140e-09	-8.676314e+00	-1.669035e+02
7.100000e-07	-1.115358e-06	-2.437652e-09	-7.962258e+00	-1.605942e+02
7.200000e-07	-1.015076e-06	-2.341375e-09	-7.246372e+00	-1.541677e+02
7.300000e-07	-9.145182e-07	-2.241801e-09	-6.528514e+00	-1.476203e+02
7.400000e-07	-8.136237e-07	-2.139473e-09	-5.808254e+00	-1.409488e+02
7.500000e-07	-7.124031e-07	-2.037162e-09	-5.085666e+00	-1.341506e+02
7.600000e-07	-6.109424e-07	-1.931726e-09	-4.361364e+00	-1.272232e+02
7.700000e-07	-5.092078e-07	-1.820348e-09	-3.635106e+00	-1.201642e+02
7.800000e-07	-4.073112e-07	-1.707973e-09	-2.907692e+00	-1.129709e+02
7.900000e-07	-3.052834e-07	-1.597391e-09	-2.179341e+00	-1.056399e+02
8.000000e-07	-2.031295e-07	-1.485195e-09	-1.450090e+00	-9.816649e+01
8.100000e-07	-1.009263e-07	-1.370611e-09	-7.204872e-01	-9.054486e+01
8.200000e-07	1.361694e-09	-1.255669e-09	9.720791e-03	-8.276755e+01
8.300000e-07	1.036840e-07	-1.136730e-09	7.401740e-01	-7.482563e+01
8.400000e-07	2.059813e-07	-1.014257e-09	1.470448e+00	-6.670883e+01
8.500000e-07	3.082086e-07	-8.883243e-10	2.200223e+00	-5.840596e+01
8.600000e-07	4.103576e-07	-7.559502e-10	2.929439e+00	-4.990545e+01
8.700000e-07	5.124030e-07	-6.190231e-10	3.657916e+00	-4.119610e+01
8.800000e-07	6.143111e-07	-4.810167e-10	4.385412e+00	-3.226791e+01
8.900000e-07	7.160536e-07	-3.428453e-10	5.111726e+00	-2.311293e+01
9.000000e-07	8.175221e-07	-2.008780e-10	5.836084e+00	-1.372620e+01
9.100000e-07	9.186103e-07	-5.407987e-11	6.557727e+00	-4.106508e+00
9.200000e-07	1.019347e-06	9.583038e-11	7.276858e+00	5.742866e+00
9.300000e-07	1.119774e-06	2.497085e-10	7.993786e+00	1.581365e+01
9.400000e-07	1.219865e-06	4.083448e-10	8.708312e+00	2.609226e+01
9.500000e-07	1.319577e-06	5.693916e-10	9.420125e+00	3.655968e+01
9.600000e-07	1.418860e-06	7.329866e-10	1.012888e+01	4.719168e+01
9.700000e-07	1.517613e-06	8.997076e-10	1.083386e+01	5.795914e+01
9.800000e-07	1.615690e-06	1.067283e-09	1.153401e+01	6.882867e+01
9.900000e-07	1.712970e-06	1.233856e-09	1.222846e+01	7.976346e+01
1.000000e-06	1.809386e-06	1.400943e-09	1.291675e+01	9.072414e+01
1.010000e-06	1.905022e-06	1.569588e-09	1.359947e+01	1.016699e+02
1.020000e-06	2.000061e-06	1.738954e-09	1.427793e+01	1.125594e+02
1.030000e-06	2.094493e-06	1.904782e-09	1.495206e+01	1.233522e+02
1.040000e-06	2.188174e-06	2.066389e-09	1.562082e+01	1.340094e+02
1.050000e-06	2.281070e-06	2.225968e-09	1.628399e+01	1.444946e+02
1.060000e-06	2.373254e-06	2.382953e-09	1.694206e+01	1.547749e+02
1.070000e-06	2.464749e-06	2.536516e-09	1.759522e+01	1.648213e+02
1.080000e-06	2.555457e-06	2.688028e-09	1.824276e+01	1.746088e+02
1.090000e-06	2.645050e-06	2.836466e-09	1.888234e+01	1.841174e+02
1.100000e-06	2.733380e-06	2.978175e-09	1.951291e+01	1.933313e+02
1.110000e-06	2.820754e-06	3.111722e-09	2.013665e+01	2.022390e+02
1.120000e-06	2.907316e-06	3.239211e-09	2.075459e+01	2.108334e+02
1.130000e-06	2.992919e-06	3.364472e-09	2.136569e+01	2.191110e+02
1.140000e-06	3.077539e-06	3.486946e-09	2.196978e+01	2.270718e+02
1.150000e-06	3.161296e-06	3.603501e-09	2.256769e+01	2.347187e+02
1.160000e-06	3.244086e-06	3.713936e-09	2.315871e+01	2.420572e+02
1.170000e-06	3.325550e-06	3.820018e-09	2.374026e+01	2.490950e+02
1.180000e-06	3.405691e-06	3.922188e-09	2.431237e+01	2.558417e+02
1.190000e-06	3.484672e-06	4.021351e-09	2.487619e+01	2.623085e+02
1.200000e-06	3.562411e-06	4.117177e-09	2.543116e+01	2.685077e+02
1.210000e-06	3.638903e-06	4.208854e-09	2.597721e+01	2.744527e+02
1.220000e-06	3.714122e-06	4.296393e-09	2.651418e+01	2.801575e+02
1.230000e-06	3.787722e-06	4.380540e-09	2.703959e+01	2.856365e+02
1.240000e-06	3.859661e-06	4.461216e-09	2.755315e+01	2.909037e+02
1.250000e-06	3.930257e-06	4.537527e-09	2.805712e+01	2.959728e+02
1.260000e-06	3.999513e-06	4.611479e-09	2.855151e+01	3.008567e+02
1.270000e-06	4.067432e-06	4.685261e-09	2.903637e+01	3.055664e+02
1.280000e-06	4.133889e-06	4.755648e-09	2.951079e+01	3.101116e+02
1.290000e-06	4.198617e-06	4.820802e-09	2.997287e+01	3.144994e+02
1.300000e-06	4.261805e-06	4.883242e-09	3.042395e+01	3.187351e+02
1.310000e-06	4.323625e-06	4.945698e-09	3.086527e+01	3.228212e+02
1.320000e-06	4.384032e-06	5.005759e-09	3.129650e+01	3.267583e+02
1.330000e-06	4.443110e-06	5.061622e-09	3.171824e+01	3.305451e+02
1.340000e-06	4.500547e-06	5.115189e-09	3.212827e+01	3.341788e+02
1.350000e-06	4.556171e-06	5.167244e-09	3.252536e+01	3.376561e+02
1.360000e-06	4.610150e-06	5.217017e-09	3.291070e+01	3.409736e+02
1.370000e-06	4.662376e-06	5.262373e-09	3.328352e+01	3.441284e+02
1.380000e-06	4.712577e-06	5.305651e-09	3.364190e+01	3.471190e+02
1.390000e-06	4.760756e-06	5.347746e-09	3.398583e+01	3.499454e+02
1.400000e-06	4.807229e-06	5.385370e-09	3.431760e+01	3.526099e+02
1.410000e-06	4.852143e-06	5.418907e-09	3.463823e+01	3.551167e+02
1.420000e-06	4.895499e-06	5.451257e-09	3.494774e+01	3.574719e+02
1.430000e-06	4.936983e-06	5.482990e-09	3.524388e+01	3.596831e+02
1.440000e-06	4.976594e-06	5.513497e-09	3.552665e+01	3.617590e+02
1.450000e-06	5.014634e-06	5.542184e-09	3.579821e+01	3.637083e+02
1.460000e-06	5.051099e-06	5.569247e-09	3.605852e+01	3.655396e+02
1.470000e-06	5.085823e-06	5.595830e-09	3.630641e+01	3.672604e+02
1.480000e-06	5.118577e-06	5.620170e-09	3.654023e+01	3.688767e+02
1.490000e-06	5.149491e-06	5.641557e-09	3.676092e+01	3.703926e+02
1.500000e-06	5.178726e-06	5.660764e-09	3.696962e+01	3.718105e+02
1.510000e-06	5.206292e-06	5.677968e-09	3.716641e+01	3.731309e+02
1.520000e-06	5.231848e-06	5.693961e-09	3.734885e+01	3.743528e+02
1.530000e-06	5.255297e-06	5.709984e-09	3.751624e+01	3.754745e+02
1.540000e-06	5.276928e-06	5.725587e-09	3.767066e+01	3.764936e+02
1.550000e-06	5.296884e-06	5.740405e-09	3.781312e+01	3.774083e+02
1.560000e-06	5.314985e-06	5.753935e-09	3.794234e+01	3.782172e+02
1.570000e-06	5.331002e-06	5.766331e-09	3.805668e+01	3.789202e+02
1.580000e-06	5.345054e-06	5.777490e-09	3.815700e+01	3.795184e+02
1.590000e-06	5.357144e-06	5.786500e-09	3.824330e+01	3.800141e+02
1.600000e-06	5.367052e-06	5.793337e-09	3.831403e+01	3.804107e+02
1.610000e-06	5.374861e-06	5.797439e-09	3.836978e+01	3.807126e+02
1.620000e-06	5.380831e-06	5.800854e-09	3.841240e+01	3.809239e+02
1.630000e-06	5.385023e-06	5.804869e-09	3.844232e+01	3.810491e+02
1.640000e-06	5.387260e-06	5.808245e-09	3.845829e+01	3.810914e+02
1.650000e-06	5.387499e-06	5.810652e-09	3.846000e+01	3.810535e+02
1.660000e-06	5.385947e-06	5.808578e-09	3.844892e+01	3.809365e+02
1.670000e-06	5.382740e-06	5.803859e-09	3.842602e+01	3.807406e+02
1.680000e-06	5.377868e-06	5.801145e-09	3.839124e+01	3.804649e+02
1.690000e-06	5.371091e-06	5.797692e-09	3.834286e+01	3.801076e+02
1.700000e-06	5.362527e-06	5.792219e-09	3.828172e+01	3.796670e+02
1.710000e-06	5.352397e-06	5.785170e-09	3.820941e+01	3.791413e+02
1.720000e-06	5.340568e-06	5.782058e-09	3.812497e+01	3.785295e+02
1.730000e-06	5.326815e-06	5.782518e-09	3.802679e+01	3.778317e+02
1.740000e-06	5.310970e-06	5.726228e-09	3.791368e+01	3.770487e+02
1.750000e-06	5.292716e-06	5.691926e-09	3.778337e+01	3.761829e+02
1.760000e-06	5.271780e-06	5.692512e-09	3.763391e+01	3.752373e+02
1.770000e-06	5.248645e-06	5.689085e-09	3.746875e+01	3.742156e+02
1.780000e-06	5.224293e-06	5.770317e-09	3.729491e+01	3.731214e+02
1.790000e-06	5.199200e-06	5.707316e-09	3.711578e+01	3.719583e+02
1.800000e-06	5.172622e-06	5.589187e-09	3.692605e+01	3.707285e+02
1.810000e-06	5.143849e-06	5.656366e-09	3.672064e+01	3.694331e+02
1.820000e-06	5.113339e-06	5.586948e-09	3.650284e+01	3.680718e+02
1.830000e-06	5.081111e-06	5.549990e-09	3.627277e+01	3.666426e+02
1.840000e-06	5.046896e-06	5.643341e-09	3.602852e+01	3.651419e+02
1.850000e-06	5.011105e-06	5.526699e-09	3.577301e+01	3.635654e+02
1.860000e-06	4.973555e-06	5.497327e-09	3.550496e+01	3.619078e+02
1.870000e-06	4.934086e-06	5.519270e-09	3.522320e+01	3.601639e+02
1.880000e-06	4.892912e-06	5.403093e-09	3.492927e+01	3.583292e+02
1.890000e-06	4.849906e-06	5.439757e-09	3.462225e+01	3.563997e+02
1.900000e-06	4.805302e-06	5.405907e-09	3.430384e+01	3.543733e+02
1.910000e-06	4.758929e-06	5.339141e-09	3.397279e+01	3.522490e+02
1.920000e-06	4.710512e-06	5.356657e-09	3.362715e+01	3.500276e+02
1.930000e-06	4.660469e-06	5.250297e-09	3.326991e+01	3.477111e+02
1.940000e-06	4.608743e-06	5.258665e-09	3.290065e+01	3.453027e+02
1.950000e-06	4.555048e-06	5.244578e-09	3.251734e+01	3.428059e+02
1.960000e-06	4.499400e-06	5.152830e-09	3.212008e+01	3.402245e+02
1.970000e-06	4.441957e-06	5.138391e-09	3.171001e+01	3.375618e+02
1.980000e-06	4.383036e-06	5.089519e-09	3.128939e+01	3.348204e+02
1.990000e-06	4.322659e-06	5.079787e-09	3.085837e+01	3.320017e+02
2.000000e-06	4.260600e-06	5.010856e-09	3.041535e+01	3.291063e+02
2.010000e-06	4.196909e-06	4.945951e-09	2.996068e+01	3.261337e+02
2.020000e-06	4.131717e-06	4.925313e-09	2.949529e+01	3.230826e+02
2.030000e-06	4.065096e-06	4.833321e-09	2.901969e+01	3.199511e+02
2.040000e-06	3.997062e-06	4.820599e-09	2.853402e+01	3.167374e+02
2.050000e-06	3.927576e-06	4.787290e-09	2.803797e+01	3.134399e+02
2.060000e-06	3.856555e-06	4.732658e-09	2.753097e+01	3.100573e+02
2.070000e-06	3.784140e-06	4.678571e-09	2.701402e+01	3.065892e+02
2.080000e-06	3.710492e-06	4.591833e-09	2.648827e+01	3.030359e+02
2.090000e-06	3.635485e-06	4.558228e-09	2.595281e+01	2.993980e+02
2.100000e-06	3.559029e-06	4.493636e-09	2.540701e+01	2.956768e+02
2.110000e-06	3.481026e-06	4.438324e-09	2.485017e+01	2.918735e+02
2.120000e-06	3.401631e-06	4.388824e-09	2.428339e+01	2.879890e+02
2.130000e-06	3.321058e-06	4.323456e-09	2.370820e+01	2.840237e+02
2.140000e-06	3.239363e-06	4.264569e-09	2.312500e+01	2.799771e+02
2.150000e-06	3.156631e-06	4.197544e-09	2.253439e+01	2.758479e+02
2.160000e-06	3.072877e-06	4.140971e-09	2.193650e+01	2.716336e+02
2.170000e-06	2.988040e-06	4.067409e-09	2.133086e+01	2.673313e+02
2.180000e-06	2.901933e-06	4.000287e-09	2.071616e+01	2.629372e+02
2.190000e-06	2.814561e-06	3.933931e-09	2.009244e+01	2.584475e+02
2.200000e-06	2.726146e-06	3.870578e-09	1.946127e+01	2.538587e+02
2.210000e-06	2.636796e-06	3.804808e-09	1.882342e+01	2.491676e+02
2.220000e-06	2.546535e-06	3.722200e-09	1.817907e+01	2.443722e+02
2.230000e-06	2.455395e-06	3.645104e-09	1.752845e+01	2.394713e+02
2.240000e-06	2.363504e-06	3.563803e-09	1.687246e+01	2.344648e+02
2.250000e-06	2.270941e-06	3.491701e-09	1.621168e+01	2.293536e+02
2.260000e-06	2.177602e-06	3.421414e-09	1.554535e+01	2.241393e+02
2.270000e-06	2.083268e-06	3.341901e-09	1.487192e+01	2.188239e+02
2.280000e-06	1.987897e-06	3.254789e-09	1.419110e+01	2.134095e+02
2.290000e-06	1.891742e-06	3.164786e-09	1.350467e+01	2.078977e+02
2.300000e-06	1.795076e-06	3.079734e-09	1.281460e+01	2.022894e+02
2.310000e-06	1.697909e-06	2.999196e-09	1.212095e+01	1.965848e+02
2.320000e-06	1.600201e-06	2.913560e-09	1.142343e+01	1.907828e+02
2.330000e-06	1.501994e-06	2.818470e-09	1.072235e+01	1.848814e+02
2.340000e-06	1.403268e-06	2.727183e-09	1.001758e+01	1.788775e+02
2.350000e-06	1.304087e-06	2.634968e-09	9.309545e+00	1.727675e+02
2.360000e-06	1.204560e-06	2.541317e-09	8.599052e+00	1.665473e+02
2.370000e-06	1.104768e-06	2.445784e-09	7.886660e+00	1.602130e+02
2.380000e-06	1.004707e-06	2.345877e-09	7.172353e+00	1.537605e+02
2.390000e-06	9.042742e-07	2.245480e-09	6.455385e+00	1.471864e+02
2.400000e-06	8.035052e-07	2.141985e-09	5.736021e+00	1.404877e+02
2.410000e-06	7.024682e-07	2.038313e-09	5.014743e+00	1.336617e+02
2.420000e-06	6.011593e-07	1.934480e-09	4.291525e+00	1.267060e+02
2.430000e-06	4.996217e-07	1.825295e-09	3.566673e+00	1.196182e+02
2.440000e-06	3.978300e-07	1.714610e-09	2.840008e+00	1.123955e+02
2.450000e-06	2.958387e-07	1.604903e-09	2.111918e+00	1.050340e+02
2.460000e-06	1.937394e-07	1.491252e-09	1.383057e+00	9.752912e+01
2.470000e-06	9.147195e-08	1.373121e-09	6.529952e-01	8.987450e+01
2.480000e-06	-1.089355e-08	1.251072e-09	-7.776631e-02	8.206242e+01
2.490000e-06	-1.132131e-07	1.125322e-09	-8.082000e-01	7.408363e+01
2.500000e-06	-2.155153e-07	1.000164e-09	-1.538510e+00	6.592762e+01
2.510000e-06	-3.177559e-07	8.749198e-10	-2.268379e+00	5.758307e+01
2.520000e-06	-4.198593e-07	7.463988e-10	-2.997270e+00	4.903842e+01
2.530000e-06	-5.217909e-07	6.132549e-10	-3.724934e+00	4.028266e+01
2.540000e-06	-6.234894e-07	4.771716e-10	-4.450933e+00	3.130615e+01
2.550000e-06	-7.248939e-07	3.395012e-10	-5.174835e+00	2.210151e+01
2.560000e-06	-8.259368e-07	1.960677e-10	-5.896154e+00	1.266451e+01
2.570000e-06	-9.266363e-07	4.695221e-11	-6.615023e+00	2.994865e+00
2.580000e-06	-1.026968e-06	-1.049204e-10	-7.331266e+00	-6.903131e+00
2.590000e-06	-1.126913e-06	-2.586058e-10	-8.044744e+00	-1.702008e+01
2.600000e-06	-1.226498e-06	-4.155523e-10	-8.755660e+00	-2.734123e+01
2.610000e-06	-1.325724e-06	-5.747407e-10	-9.464011e+00	-3.784644e+01
2.620000e-06	-1.424497e-06	-7.367220e-10	-1.016912e+01	-4.851037e+01
2.630000e-06	-1.522698e-06	-9.012374e-10	-1.087016e+01	-5.930294e+01
2.640000e-06	-1.620367e-06	-1.064902e-09	-1.156739e+01	-7.018996e+01
2.650000e-06	-1.717508e-06	-1.228138e-09	-1.226086e+01	-8.113398e+01
2.660000e-06	-1.814073e-06	-1.392768e-09	-1.295021e+01	-9.209522e+01
2.670000e-06	-1.910124e-06	-1.560644e-09	-1.363589e+01	-1.030327e+02
2.680000e-06	-2.005652e-06	-1.728721e-09	-1.431784e+01	-1.139052e+02
2.690000e-06	-2.100430e-06	-1.893287e-09	-1.499444e+01	-1.246724e+02
2.700000e-06	-2.194164e-06	-2.053881e-09	-1.566359e+01	-1.352960e+02
2.710000e-06	-2.286807e-06	-2.212931e-09	-1.632494e+01	-1.457403e+02
2.720000e-06	-2.378618e-06	-2.368662e-09	-1.698035e+01	-1.559730e+02
2.730000e-06	-2.469695e-06	-2.519158e-09	-1.763053e+01	-1.659662e+02
2.740000e-06	-2.559911e-06	-2.666245e-09	-1.827456e+01	-1.756958e+02
2.750000e-06	-2.649169e-06	-2.810420e-09	-1.891175e+01	-1.851427e+02
2.760000e-06	-2.737557e-06	-2.950240e-09	-1.954273e+01	-1.942921e+02
2.770000e-06	-2.825237e-06	-3.085019e-09	-2.016865e+01	-2.031334e+02
2.780000e-06	-2.911976e-06	-3.216275e-09	-2.078786e+01	-2.116604e+02
2.790000e-06	-2.997454e-06	-3.343237e-09	-2.139807e+01	-2.198703e+02
2.800000e-06	-3.081720e-06	-3.465044e-09	-2.199962e+01	-2.277638e+02
2.810000e-06	-3.164988e-06	-3.581609e-09	-2.259405e+01	-2.353444e+02
2.820000e-06	-3.247246e-06	-3.692642e-09	-2.318127e+01	-2.426180e+02
2.830000e-06	-3.328412e-06	-3.799442e-09	-2.376070e+01	-2.495929e+02
2.840000e-06	-3.408561e-06	-3.903168e-09	-2.433286e+01	-2.562790e+02
2.850000e-06	-3.487523e-06	-4.001740e-09	-2.489655e+01	-2.626876e+02
2.860000e-06	-3.564869e-06	-4.094163e-09	-2.544870e+01	-2.688315e+02
2.870000e-06	-3.640685e-06	-4.182004e-09	-2.598993e+01	-2.747242e+02
2.880000e-06	-3.715176e-06	-4.266431e-09	-2.652171e+01	-2.803797e+02
2.890000e-06	-3.788289e-06	-4.348768e-09	-2.704364e+01	-2.858123e+02
2.900000e-06	-3.860171e-06	-4.429514e-09	-2.755679e+01	-2.910363e+02
2.910000e-06	-3.930554e-06	-4.506735e-09	-2.805924e+01	-2.960650e+02
2.920000e-06	-3.999266e-06	-4.579604e-09	-2.854975e+01	-3.009109e+02
2.930000e-06	-4.066616e-06	-4.649927e-09	-2.903055e+01	-3.055850e+02
2.940000e-06	-4.132606e-06	-4.718922e-09	-2.950163e+01	-3.100962e+02
