# Temperatura_=_47.98
# Concentracion g/m^3_=_15000.0
# C_Vs_to_Am_M_A/Vsm_=_65563218390.804596
# pendiente_HvsI_1/m_=_3716.3
# ordenada_HvsI_A/m_=_1297.0
# frecuencia_Hz_=_301592.71236269665

Tiempo_(s)	Campo_(V.s)	Magnetizacion_(V.s)	Campo_(kA/m)	Magnetizacion_(A/m)
0.000000e+00	-5.363291e-06	-6.173915e-09	-3.834034e+01	-4.035152e+02
1.000000e-08	-5.360605e-06	-6.170371e-09	-3.832114e+01	-4.033789e+02
2.000000e-08	-5.356162e-06	-6.164684e-09	-3.828938e+01	-4.031504e+02
3.000000e-08	-5.350057e-06	-6.159372e-09	-3.824574e+01	-4.028261e+02
4.000000e-08	-5.342366e-06	-6.152363e-09	-3.819076e+01	-4.024051e+02
5.000000e-08	-5.332823e-06	-6.144268e-09	-3.812254e+01	-4.018893e+02
6.000000e-08	-5.321171e-06	-6.134226e-09	-3.803925e+01	-4.012842e+02
7.000000e-08	-5.307723e-06	-6.117932e-09	-3.794311e+01	-4.005979e+02
8.000000e-08	-5.292227e-06	-6.112172e-09	-3.783233e+01	-3.998411e+02
9.000000e-08	-5.274421e-06	-6.138882e-09	-3.770504e+01	-3.990256e+02
1.000000e-07	-5.254613e-06	-6.132960e-09	-3.756344e+01	-3.981629e+02
1.100000e-07	-5.232906e-06	-6.089617e-09	-3.740827e+01	-3.972630e+02
1.200000e-07	-5.209516e-06	-6.055762e-09	-3.724106e+01	-3.963329e+02
1.300000e-07	-5.184601e-06	-5.989165e-09	-3.706295e+01	-3.953758e+02
1.400000e-07	-5.158076e-06	-5.995969e-09	-3.687334e+01	-3.943904e+02
1.500000e-07	-5.129966e-06	-6.063961e-09	-3.667238e+01	-3.933709e+02
1.600000e-07	-5.100372e-06	-5.984379e-09	-3.646083e+01	-3.923078e+02
1.700000e-07	-5.069238e-06	-5.966503e-09	-3.623826e+01	-3.911883e+02
1.800000e-07	-5.035974e-06	-5.992211e-09	-3.600047e+01	-3.899984e+02
1.900000e-07	-5.000771e-06	-5.898449e-09	-3.574881e+01	-3.887236e+02
2.000000e-07	-4.964184e-06	-5.904225e-09	-3.548727e+01	-3.873509e+02
2.100000e-07	-4.925897e-06	-5.892397e-09	-3.521356e+01	-3.858701e+02
2.200000e-07	-4.885815e-06	-5.806644e-09	-3.492703e+01	-3.842742e+02
2.300000e-07	-4.843796e-06	-5.817837e-09	-3.462665e+01	-3.825605e+02
2.400000e-07	-4.799820e-06	-5.816058e-09	-3.431228e+01	-3.807300e+02
2.500000e-07	-4.754116e-06	-5.791451e-09	-3.398556e+01	-3.787872e+02
2.600000e-07	-4.706598e-06	-5.747508e-09	-3.364587e+01	-3.767391e+02
2.700000e-07	-4.657064e-06	-5.662273e-09	-3.329177e+01	-3.745939e+02
2.800000e-07	-4.605334e-06	-5.659808e-09	-3.292197e+01	-3.723602e+02
2.900000e-07	-4.551668e-06	-5.651138e-09	-3.253833e+01	-3.700455e+02
3.000000e-07	-4.496452e-06	-5.614376e-09	-3.214361e+01	-3.676553e+02
3.100000e-07	-4.439614e-06	-5.591516e-09	-3.173729e+01	-3.651929e+02
3.200000e-07	-4.380930e-06	-5.531066e-09	-3.131778e+01	-3.626589e+02
3.300000e-07	-4.320606e-06	-5.466667e-09	-3.088655e+01	-3.600514e+02
3.400000e-07	-4.258865e-06	-5.428801e-09	-3.044518e+01	-3.573670e+02
3.500000e-07	-4.195777e-06	-5.417786e-09	-2.999418e+01	-3.546008e+02
3.600000e-07	-4.131326e-06	-5.377673e-09	-2.953344e+01	-3.517480e+02
3.700000e-07	-4.065151e-06	-5.312017e-09	-2.906038e+01	-3.488043e+02
3.800000e-07	-3.997320e-06	-5.270633e-09	-2.857548e+01	-3.457663e+02
3.900000e-07	-3.928162e-06	-5.223288e-09	-2.808110e+01	-3.426325e+02
4.000000e-07	-3.857712e-06	-5.171285e-09	-2.757747e+01	-3.394030e+02
4.100000e-07	-3.786123e-06	-5.115539e-09	-2.706571e+01	-3.360791e+02
4.200000e-07	-3.713233e-06	-5.062187e-09	-2.654464e+01	-3.326633e+02
4.300000e-07	-3.638655e-06	-5.014294e-09	-2.601151e+01	-3.291586e+02
4.400000e-07	-3.562461e-06	-4.963437e-09	-2.546682e+01	-3.255675e+02
4.500000e-07	-3.484919e-06	-4.923859e-09	-2.491251e+01	-3.218918e+02
4.600000e-07	-3.406035e-06	-4.872098e-09	-2.434858e+01	-3.181320e+02
4.700000e-07	-3.325737e-06	-4.792990e-09	-2.377456e+01	-3.142869e+02
4.800000e-07	-3.244209e-06	-4.713385e-09	-2.319175e+01	-3.103540e+02
4.900000e-07	-3.161589e-06	-4.656356e-09	-2.260113e+01	-3.063290e+02
5.000000e-07	-3.077962e-06	-4.607693e-09	-2.200331e+01	-3.022071e+02
5.100000e-07	-2.993521e-06	-4.548052e-09	-2.139966e+01	-2.979829e+02
5.200000e-07	-2.908131e-06	-4.480463e-09	-2.078924e+01	-2.936511e+02
5.300000e-07	-2.821595e-06	-4.400146e-09	-2.017063e+01	-2.892071e+02
5.400000e-07	-2.734174e-06	-4.321540e-09	-1.954568e+01	-2.846474e+02
5.500000e-07	-2.645985e-06	-4.256441e-09	-1.891525e+01	-2.799699e+02
5.600000e-07	-2.556570e-06	-4.190987e-09	-1.827605e+01	-2.751736e+02
5.700000e-07	-2.465863e-06	-4.115234e-09	-1.762762e+01	-2.702588e+02
5.800000e-07	-2.374321e-06	-4.030927e-09	-1.697321e+01	-2.652265e+02
5.900000e-07	-2.282056e-06	-3.952794e-09	-1.631365e+01	-2.600783e+02
6.000000e-07	-2.188997e-06	-3.877863e-09	-1.564840e+01	-2.548157e+02
6.100000e-07	-2.095194e-06	-3.795659e-09	-1.497783e+01	-2.494400e+02
6.200000e-07	-2.000670e-06	-3.709402e-09	-1.430211e+01	-2.439519e+02
6.300000e-07	-1.905456e-06	-3.621022e-09	-1.362146e+01	-2.383510e+02
6.400000e-07	-1.809633e-06	-3.531925e-09	-1.293645e+01	-2.326364e+02
6.500000e-07	-1.713165e-06	-3.448069e-09	-1.224683e+01	-2.268062e+02
6.600000e-07	-1.615877e-06	-3.363649e-09	-1.155136e+01	-2.208580e+02
6.700000e-07	-1.517745e-06	-3.265221e-09	-1.084984e+01	-2.147888e+02
6.800000e-07	-1.418969e-06	-3.158240e-09	-1.014373e+01	-2.085955e+02
6.900000e-07	-1.319744e-06	-3.057114e-09	-9.434400e+00	-2.022747e+02
7.000000e-07	-1.220165e-06	-2.964166e-09	-8.722545e+00	-1.958230e+02
7.100000e-07	-1.120270e-06	-2.870189e-09	-8.008432e+00	-1.892369e+02
7.200000e-07	-1.020102e-06	-2.769334e-09	-7.292362e+00	-1.825128e+02
7.300000e-07	-9.196364e-07	-2.662233e-09	-6.574168e+00	-1.756469e+02
7.400000e-07	-8.188601e-07	-2.550449e-09	-5.853752e+00	-1.686347e+02
7.500000e-07	-7.177693e-07	-2.439815e-09	-5.131089e+00	-1.614715e+02
7.600000e-07	-6.163897e-07	-2.332912e-09	-4.406361e+00	-1.541522e+02
7.700000e-07	-5.148340e-07	-2.220997e-09	-3.680373e+00	-1.466709e+02
7.800000e-07	-4.131060e-07	-2.100828e-09	-2.953155e+00	-1.390216e+02
7.900000e-07	-3.112092e-07	-1.978080e-09	-2.224729e+00	-1.311978e+02
8.000000e-07	-2.091963e-07	-1.856539e-09	-1.495473e+00	-1.231931e+02
8.100000e-07	-1.070476e-07	-1.734809e-09	-7.652469e-01	-1.150011e+02
8.200000e-07	-4.856264e-09	-1.608330e-09	-3.471578e-02	-1.066153e+02
8.300000e-07	9.734368e-08	-1.475182e-09	6.958769e-01	-9.802941e+01
8.400000e-07	1.995702e-07	-1.338980e-09	1.426659e+00	-8.923730e+01
8.500000e-07	3.017223e-07	-1.202743e-09	2.156911e+00	-8.023263e+01
8.600000e-07	4.037730e-07	-1.065044e-09	2.886436e+00	-7.100894e+01
8.700000e-07	5.056784e-07	-9.220330e-10	3.614923e+00	-6.155951e+01
8.800000e-07	6.073787e-07	-7.705749e-10	4.341944e+00	-5.187752e+01
8.900000e-07	7.088587e-07	-6.142403e-10	5.067390e+00	-4.195622e+01
9.000000e-07	8.100903e-07	-4.575858e-10	5.791060e+00	-3.178948e+01
9.100000e-07	9.110426e-07	-2.994867e-10	6.512734e+00	-2.137249e+01
9.200000e-07	1.011693e-06	-1.385482e-10	7.232253e+00	-1.070276e+01
9.300000e-07	1.112009e-06	2.754203e-11	7.949371e+00	2.188397e-01
9.400000e-07	1.212006e-06	1.988827e-10	8.664222e+00	1.138685e+01
9.500000e-07	1.311659e-06	3.738820e-10	9.376603e+00	2.279013e+01
9.600000e-07	1.410792e-06	5.507953e-10	1.008527e+01	3.441097e+01
9.700000e-07	1.509383e-06	7.290803e-10	1.079006e+01	4.622453e+01
9.800000e-07	1.607376e-06	9.095470e-10	1.149059e+01	5.819871e+01
9.900000e-07	1.704532e-06	1.093167e-09	1.218512e+01	7.029455e+01
1.000000e-06	1.800844e-06	1.277297e-09	1.287362e+01	8.246716e+01
1.010000e-06	1.896451e-06	1.460579e-09	1.355709e+01	9.466711e+01
1.020000e-06	1.991428e-06	1.644488e-09	1.423605e+01	1.068422e+02
1.030000e-06	2.085771e-06	1.827884e-09	1.491047e+01	1.189396e+02
1.040000e-06	2.179345e-06	2.010811e-09	1.557940e+01	1.309077e+02
1.050000e-06	2.272184e-06	2.191038e-09	1.624307e+01	1.426981e+02
1.060000e-06	2.364318e-06	2.367610e-09	1.690171e+01	1.542675e+02
1.070000e-06	2.455725e-06	2.539829e-09	1.755515e+01	1.655786e+02
1.080000e-06	2.546295e-06	2.706850e-09	1.820259e+01	1.766006e+02
1.090000e-06	2.635739e-06	2.870073e-09	1.884200e+01	1.873099e+02
1.100000e-06	2.724036e-06	3.028870e-09	1.947321e+01	1.976893e+02
1.110000e-06	2.811367e-06	3.182144e-09	2.009751e+01	2.077271e+02
1.120000e-06	2.897861e-06	3.328946e-09	2.071582e+01	2.174165e+02
1.130000e-06	2.983444e-06	3.469456e-09	2.132762e+01	2.267545e+02
1.140000e-06	3.068070e-06	3.606197e-09	2.193259e+01	2.357403e+02
1.150000e-06	3.151775e-06	3.739323e-09	2.253097e+01	2.443752e+02
1.160000e-06	3.234515e-06	3.865878e-09	2.312245e+01	2.526618e+02
1.170000e-06	3.316052e-06	3.984855e-09	2.370533e+01	2.606038e+02
1.180000e-06	3.396256e-06	4.098466e-09	2.427868e+01	2.682064e+02
1.190000e-06	3.475267e-06	4.206262e-09	2.484350e+01	2.754760e+02
1.200000e-06	3.553059e-06	4.309436e-09	2.539961e+01	2.824217e+02
1.210000e-06	3.629580e-06	4.410381e-09	2.594663e+01	2.890546e+02
1.220000e-06	3.704772e-06	4.506159e-09	2.648415e+01	2.953889e+02
1.230000e-06	3.778422e-06	4.595185e-09	2.701066e+01	3.014413e+02
1.240000e-06	3.850461e-06	4.679870e-09	2.752564e+01	3.072305e+02
1.250000e-06	3.921044e-06	4.763749e-09	2.803021e+01	3.127771e+02
1.260000e-06	3.990270e-06	4.847347e-09	2.852508e+01	3.181017e+02
1.270000e-06	4.058191e-06	4.926595e-09	2.901063e+01	3.232240e+02
1.280000e-06	4.124637e-06	5.001616e-09	2.948563e+01	3.281617e+02
1.290000e-06	4.189331e-06	5.074482e-09	2.994811e+01	3.329290e+02
1.300000e-06	4.252479e-06	5.144508e-09	3.039953e+01	3.375359e+02
1.310000e-06	4.314282e-06	5.211405e-09	3.084134e+01	3.419877e+02
1.320000e-06	4.374715e-06	5.276051e-09	3.127335e+01	3.462853e+02
1.330000e-06	4.433749e-06	5.337380e-09	3.169537e+01	3.504253e+02
1.340000e-06	4.491092e-06	5.394766e-09	3.210529e+01	3.544017e+02
1.350000e-06	4.546677e-06	5.449370e-09	3.250265e+01	3.582067e+02
1.360000e-06	4.600627e-06	5.502063e-09	3.288832e+01	3.618321e+02
1.370000e-06	4.652796e-06	5.552695e-09	3.326126e+01	3.652716e+02
1.380000e-06	4.702975e-06	5.600229e-09	3.361997e+01	3.685210e+02
1.390000e-06	4.751170e-06	5.646157e-09	3.396450e+01	3.715796e+02
1.400000e-06	4.797634e-06	5.690199e-09	3.429666e+01	3.744507e+02
1.410000e-06	4.842583e-06	5.729884e-09	3.461798e+01	3.771411e+02
1.420000e-06	4.885999e-06	5.766354e-09	3.492834e+01	3.796607e+02
1.430000e-06	4.927549e-06	5.799335e-09	3.522537e+01	3.820211e+02
1.440000e-06	4.967230e-06	5.829053e-09	3.550904e+01	3.842352e+02
1.450000e-06	5.005288e-06	5.856462e-09	3.578110e+01	3.863148e+02
1.460000e-06	5.041774e-06	5.883076e-09	3.604193e+01	3.882704e+02
1.470000e-06	5.076518e-06	5.910645e-09	3.629030e+01	3.901097e+02
1.480000e-06	5.109365e-06	5.937207e-09	3.652511e+01	3.918376e+02
1.490000e-06	5.140427e-06	5.961858e-09	3.674716e+01	3.934560e+02
1.500000e-06	5.169780e-06	5.983553e-09	3.695700e+01	3.949641e+02
1.510000e-06	5.197421e-06	6.002560e-09	3.715460e+01	3.963597e+02
1.520000e-06	5.223032e-06	6.020130e-09	3.733768e+01	3.976396e+02
1.530000e-06	5.246560e-06	6.036555e-09	3.750588e+01	3.988011e+02
1.540000e-06	5.268260e-06	6.052513e-09	3.766100e+01	3.998431e+02
1.550000e-06	5.288278e-06	6.066878e-09	3.780410e+01	4.007660e+02
1.560000e-06	5.306481e-06	6.080490e-09	3.793423e+01	4.015729e+02
1.570000e-06	5.322650e-06	6.092058e-09	3.804982e+01	4.022689e+02
1.580000e-06	5.336845e-06	6.100802e-09	3.815129e+01	4.028609e+02
1.590000e-06	5.349053e-06	6.109503e-09	3.823856e+01	4.033565e+02
1.600000e-06	5.359072e-06	6.116914e-09	3.831019e+01	4.037635e+02
1.610000e-06	5.366980e-06	6.121933e-09	3.836672e+01	4.040882e+02
1.620000e-06	5.373027e-06	6.126442e-09	3.840994e+01	4.043352e+02
1.630000e-06	5.377328e-06	6.130493e-09	3.844069e+01	4.045066e+02
1.640000e-06	5.379697e-06	6.133774e-09	3.845763e+01	4.046018e+02
1.650000e-06	5.380029e-06	6.137380e-09	3.846000e+01	4.046181e+02
1.660000e-06	5.378614e-06	6.137865e-09	3.844989e+01	4.045509e+02
1.670000e-06	5.375569e-06	6.134081e-09	3.842812e+01	4.043950e+02
1.680000e-06	5.370810e-06	6.130182e-09	3.839409e+01	4.041460e+02
1.690000e-06	5.364123e-06	6.126756e-09	3.834629e+01	4.038008e+02
1.700000e-06	5.355652e-06	6.123470e-09	3.828574e+01	4.033591e+02
1.710000e-06	5.345649e-06	6.121025e-09	3.821423e+01	4.028234e+02
1.720000e-06	5.334000e-06	6.119856e-09	3.813096e+01	4.021999e+02
1.730000e-06	5.320388e-06	6.117142e-09	3.803365e+01	4.014974e+02
1.740000e-06	5.304654e-06	6.060515e-09	3.792117e+01	4.007268e+02
1.750000e-06	5.286578e-06	6.031164e-09	3.779195e+01	3.999001e+02
1.760000e-06	5.265818e-06	6.044812e-09	3.764354e+01	3.990285e+02
1.770000e-06	5.242753e-06	6.046605e-09	3.747866e+01	3.981215e+02
1.780000e-06	5.218404e-06	6.098559e-09	3.730460e+01	3.971853e+02
1.790000e-06	5.193377e-06	6.023734e-09	3.712569e+01	3.962222e+02
1.800000e-06	5.166974e-06	5.924760e-09	3.693694e+01	3.952300e+02
1.810000e-06	5.138336e-06	5.995312e-09	3.673222e+01	3.942019e+02
1.820000e-06	5.107872e-06	5.927689e-09	3.651444e+01	3.931277e+02
1.830000e-06	5.075745e-06	5.903565e-09	3.628477e+01	3.919942e+02
1.840000e-06	5.041614e-06	6.007477e-09	3.604079e+01	3.907871e+02
1.850000e-06	5.005911e-06	5.911091e-09	3.578555e+01	3.894921e+02
1.860000e-06	4.968446e-06	5.914584e-09	3.551773e+01	3.880969e+02
1.870000e-06	4.929093e-06	5.962198e-09	3.523641e+01	3.865917e+02
1.880000e-06	4.888179e-06	5.841545e-09	3.494393e+01	3.849705e+02
1.890000e-06	4.845417e-06	5.845110e-09	3.463824e+01	3.832314e+02
1.900000e-06	4.801051e-06	5.790612e-09	3.432108e+01	3.813762e+02
1.910000e-06	4.754938e-06	5.765240e-09	3.399144e+01	3.794100e+02
1.920000e-06	4.706688e-06	5.831000e-09	3.364651e+01	3.773402e+02
1.930000e-06	4.656805e-06	5.701937e-09	3.328991e+01	3.751752e+02
1.940000e-06	4.605259e-06	5.694340e-09	3.292144e+01	3.729234e+02
1.950000e-06	4.551658e-06	5.675347e-09	3.253826e+01	3.705919e+02
1.960000e-06	4.496072e-06	5.566962e-09	3.214089e+01	3.681859e+02
1.970000e-06	4.438751e-06	5.579050e-09	3.173112e+01	3.657080e+02
1.980000e-06	4.380033e-06	5.550183e-09	3.131136e+01	3.631583e+02
1.990000e-06	4.319919e-06	5.539522e-09	3.088163e+01	3.605345e+02
2.000000e-06	4.258110e-06	5.458708e-09	3.043978e+01	3.578328e+02
2.010000e-06	4.194596e-06	5.390930e-09	2.998574e+01	3.550483e+02
2.020000e-06	4.129558e-06	5.400161e-09	2.952081e+01	3.521762e+02
2.030000e-06	4.063093e-06	5.304458e-09	2.904567e+01	3.492123e+02
2.040000e-06	3.995301e-06	5.283271e-09	2.856105e+01	3.461537e+02
2.050000e-06	3.926145e-06	5.252826e-09	2.806667e+01	3.429992e+02
2.060000e-06	3.855378e-06	5.192756e-09	2.756079e+01	3.397490e+02
2.070000e-06	3.783153e-06	5.141532e-09	2.704447e+01	3.364051e+02
2.080000e-06	3.709695e-06	5.059019e-09	2.651935e+01	3.329698e+02
2.090000e-06	3.634864e-06	5.037985e-09	2.598441e+01	3.294462e+02
2.100000e-06	3.558622e-06	4.965731e-09	2.543938e+01	3.258367e+02
2.110000e-06	3.480740e-06	4.897931e-09	2.488263e+01	3.221428e+02
2.120000e-06	3.401397e-06	4.861826e-09	2.431543e+01	3.183648e+02
2.130000e-06	3.320977e-06	4.811417e-09	2.374054e+01	3.145010e+02
2.140000e-06	3.239432e-06	4.757685e-09	2.315760e+01	3.105485e+02
2.150000e-06	3.156809e-06	4.681750e-09	2.256696e+01	3.065031e+02
2.160000e-06	3.073211e-06	4.616698e-09	2.196934e+01	3.023595e+02
2.170000e-06	2.988656e-06	4.541160e-09	2.136489e+01	2.981125e+02
2.180000e-06	2.902794e-06	4.485304e-09	2.075108e+01	2.937568e+02
2.190000e-06	2.815572e-06	4.430147e-09	2.012757e+01	2.892881e+02
2.200000e-06	2.727370e-06	4.360529e-09	1.949704e+01	2.847032e+02
2.210000e-06	2.638240e-06	4.285123e-09	1.885988e+01	2.800001e+02
2.220000e-06	2.548146e-06	4.200037e-09	1.821583e+01	2.751782e+02
2.230000e-06	2.457183e-06	4.128082e-09	1.756557e+01	2.702379e+02
2.240000e-06	2.365527e-06	4.051842e-09	1.691035e+01	2.651804e+02
2.250000e-06	2.273256e-06	3.983356e-09	1.625074e+01	2.600074e+02
2.260000e-06	2.180238e-06	3.907772e-09	1.558578e+01	2.547203e+02
2.270000e-06	2.086127e-06	3.816130e-09	1.491301e+01	2.493203e+02
2.280000e-06	1.990843e-06	3.725088e-09	1.423186e+01	2.438079e+02
2.290000e-06	1.894783e-06	3.641337e-09	1.354516e+01	2.381826e+02
2.300000e-06	1.798255e-06	3.557046e-09	1.285512e+01	2.324432e+02
2.310000e-06	1.701289e-06	3.465464e-09	1.216194e+01	2.265878e+02
2.320000e-06	1.603817e-06	3.375308e-09	1.146514e+01	2.206137e+02
2.330000e-06	1.505785e-06	3.288367e-09	1.076435e+01	2.145181e+02
2.340000e-06	1.407148e-06	3.199941e-09	1.005922e+01	2.082975e+02
2.350000e-06	1.308054e-06	3.101695e-09	9.350830e+00	2.019488e+02
2.360000e-06	1.208636e-06	3.000045e-09	8.640127e+00	1.954685e+02
2.370000e-06	1.108989e-06	2.893801e-09	7.927787e+00	1.888530e+02
2.380000e-06	1.009153e-06	2.787502e-09	7.214095e+00	1.820987e+02
2.390000e-06	9.090164e-07	2.689662e-09	6.498249e+00	1.752015e+02
2.400000e-06	8.085214e-07	2.591566e-09	5.779845e+00	1.681573e+02
2.410000e-06	7.077214e-07	2.482315e-09	5.059260e+00	1.609609e+02
2.420000e-06	6.066925e-07	2.360857e-09	4.337039e+00	1.536072e+02
2.430000e-06	5.053990e-07	2.238531e-09	3.612926e+00	1.460903e+02
2.440000e-06	4.038498e-07	2.123184e-09	2.886985e+00	1.384040e+02
2.450000e-06	3.021117e-07	2.009497e-09	2.159694e+00	1.305418e+02
2.460000e-06	2.001674e-07	1.889778e-09	1.430929e+00	1.224973e+02
2.470000e-06	9.803476e-08	1.764248e-09	7.008172e-01	1.142641e+02
2.480000e-06	-4.223249e-09	1.632403e-09	-3.019057e-02	1.058358e+02
2.490000e-06	-1.065211e-07	1.498638e-09	-7.614835e-01	9.720609e+01
2.500000e-06	-2.087620e-07	1.365328e-09	-1.492368e+00	8.836879e+01
2.510000e-06	-3.108871e-07	1.229878e-09	-2.222426e+00	7.931757e+01
2.520000e-06	-4.128708e-07	1.090394e-09	-2.951473e+00	7.004590e+01
2.530000e-06	-5.146910e-07	9.436692e-10	-3.679351e+00	6.054705e+01
2.540000e-06	-6.162398e-07	7.950780e-10	-4.405289e+00	5.081416e+01
2.550000e-06	-7.174220e-07	6.472032e-10	-5.128606e+00	4.084058e+01
2.560000e-06	-8.182180e-07	4.942164e-10	-5.849162e+00	3.062038e+01
2.570000e-06	-9.187018e-07	3.335320e-10	-6.567487e+00	2.014918e+01
2.580000e-06	-1.018905e-06	1.680329e-10	-7.283808e+00	9.425094e+00
2.590000e-06	-1.118742e-06	1.855694e-12	-7.997503e+00	-1.550115e+00
2.600000e-06	-1.218227e-06	-1.654257e-10	-8.708690e+00	-1.276986e+01
2.610000e-06	-1.317392e-06	-3.362862e-10	-9.417588e+00	-2.422166e+01
2.620000e-06	-1.416150e-06	-5.127234e-10	-1.012357e+01	-3.588631e+01
2.630000e-06	-1.514354e-06	-6.977174e-10	-1.082560e+01	-4.773741e+01
2.640000e-06	-1.611954e-06	-8.871035e-10	-1.152331e+01	-5.974133e+01
2.650000e-06	-1.709011e-06	-1.074536e-09	-1.221714e+01	-7.185775e+01
2.660000e-06	-1.805575e-06	-1.259107e-09	-1.290744e+01	-8.404067e+01
2.670000e-06	-1.901641e-06	-1.444496e-09	-1.359419e+01	-9.623991e+01
2.680000e-06	-1.997076e-06	-1.633877e-09	-1.427642e+01	-1.084030e+02
2.690000e-06	-2.091745e-06	-1.822394e-09	-1.495317e+01	-1.204771e+02
2.700000e-06	-2.185476e-06	-2.005655e-09	-1.562323e+01	-1.324112e+02
2.710000e-06	-2.278183e-06	-2.181362e-09	-1.628595e+01	-1.441579e+02
2.720000e-06	-2.369983e-06	-2.354469e-09	-1.694220e+01	-1.556750e+02
2.730000e-06	-2.460998e-06	-2.526263e-09	-1.759284e+01	-1.669267e+02
2.740000e-06	-2.551104e-06	-2.691321e-09	-1.823698e+01	-1.778836e+02
2.750000e-06	-2.640252e-06	-2.850897e-09	-1.887427e+01	-1.885237e+02
2.760000e-06	-2.728647e-06	-3.007613e-09	-1.950617e+01	-1.988308e+02
2.770000e-06	-2.816319e-06	-3.162386e-09	-2.013291e+01	-2.087945e+02
2.780000e-06	-2.902971e-06	-3.312584e-09	-2.075235e+01	-2.184090e+02
2.790000e-06	-2.988330e-06	-3.454429e-09	-2.136256e+01	-2.276716e+02
2.800000e-06	-3.072529e-06	-3.589240e-09	-2.196446e+01	-2.365823e+02
2.810000e-06	-3.155785e-06	-3.718705e-09	-2.255963e+01	-2.451425e+02
2.820000e-06	-3.238018e-06	-3.843088e-09	-2.314749e+01	-2.533551e+02
2.830000e-06	-3.319142e-06	-3.963611e-09	-2.372742e+01	-2.612240e+02
2.840000e-06	-3.399181e-06	-4.081975e-09	-2.429959e+01	-2.687548e+02
2.850000e-06	-3.477999e-06	-4.195614e-09	-2.486303e+01	-2.759544e+02
2.860000e-06	-3.555347e-06	-4.302152e-09	-2.541597e+01	-2.828321e+02
2.870000e-06	-3.631160e-06	-4.402868e-09	-2.595793e+01	-2.894000e+02
2.880000e-06	-3.705562e-06	-4.499644e-09	-2.648981e+01	-2.956725e+02
2.890000e-06	-3.778634e-06	-4.591549e-09	-2.701217e+01	-3.016670e+02
2.900000e-06	-3.850440e-06	-4.678242e-09	-2.752549e+01	-3.074027e+02
2.910000e-06	-3.920807e-06	-4.762295e-09	-2.802851e+01	-3.129001e+02
2.920000e-06	-3.989585e-06	-4.842370e-09	-2.852019e+01	-3.181799e+02
2.930000e-06	-4.056939e-06	-4.918973e-09	-2.900168e+01	-3.232615e+02
2.940000e-06	-4.122933e-06	-4.994139e-09	-2.947345e+01	-3.281618e+02
