# Temperatura_=_48.88
# Concentracion g/m^3_=_15000.0
# C_Vs_to_Am_M_A/Vsm_=_65563218390.804596
# pendiente_HvsI_1/m_=_3716.3
# ordenada_HvsI_A/m_=_1297.0
# frecuencia_Hz_=_301594.797391265

Tiempo_(s)	Campo_(V.s)	Magnetizacion_(V.s)	Campo_(kA/m)	Magnetizacion_(A/m)
0.000000e+00	-5.373884e-06	-6.190033e-09	-3.833734e+01	-4.049937e+02
1.000000e-08	-5.371498e-06	-6.187709e-09	-3.832032e+01	-4.048734e+02
2.000000e-08	-5.367345e-06	-6.182970e-09	-3.829069e+01	-4.046607e+02
3.000000e-08	-5.361608e-06	-6.175780e-09	-3.824976e+01	-4.043517e+02
4.000000e-08	-5.354262e-06	-6.167233e-09	-3.819735e+01	-4.039449e+02
5.000000e-08	-5.345165e-06	-6.157064e-09	-3.813246e+01	-4.034414e+02
6.000000e-08	-5.333990e-06	-6.146914e-09	-3.805274e+01	-4.028456e+02
7.000000e-08	-5.320775e-06	-6.139281e-09	-3.795846e+01	-4.021648e+02
8.000000e-08	-5.305605e-06	-6.120843e-09	-3.785024e+01	-4.014085e+02
9.000000e-08	-5.288256e-06	-6.133983e-09	-3.772646e+01	-4.005877e+02
1.000000e-07	-5.268786e-06	-6.154564e-09	-3.758757e+01	-3.997135e+02
1.100000e-07	-5.247402e-06	-6.114029e-09	-3.743501e+01	-3.987958e+02
1.200000e-07	-5.224271e-06	-6.080052e-09	-3.727000e+01	-3.978417e+02
1.300000e-07	-5.199574e-06	-6.049568e-09	-3.709381e+01	-3.968553e+02
1.400000e-07	-5.173259e-06	-5.968203e-09	-3.690608e+01	-3.958362e+02
1.500000e-07	-5.145350e-06	-6.050859e-09	-3.670698e+01	-3.947801e+02
1.600000e-07	-5.115947e-06	-6.057898e-09	-3.649721e+01	-3.936787e+02
1.700000e-07	-5.084958e-06	-5.946248e-09	-3.627614e+01	-3.925212e+02
1.800000e-07	-5.052060e-06	-6.023282e-09	-3.604145e+01	-3.912947e+02
1.900000e-07	-5.017200e-06	-5.965648e-09	-3.579275e+01	-3.899864e+02
2.000000e-07	-4.980785e-06	-5.881512e-09	-3.553297e+01	-3.885845e+02
2.100000e-07	-4.942694e-06	-5.943328e-09	-3.526122e+01	-3.870796e+02
2.200000e-07	-4.902795e-06	-5.845381e-09	-3.497659e+01	-3.854658e+02
2.300000e-07	-4.861005e-06	-5.790878e-09	-3.467846e+01	-3.837405e+02
2.400000e-07	-4.817248e-06	-5.844376e-09	-3.436629e+01	-3.819053e+02
2.500000e-07	-4.771712e-06	-5.803159e-09	-3.404144e+01	-3.799647e+02
2.600000e-07	-4.724309e-06	-5.795811e-09	-3.370327e+01	-3.779255e+02
2.700000e-07	-4.674951e-06	-5.720500e-09	-3.335114e+01	-3.757957e+02
2.800000e-07	-4.623527e-06	-5.658845e-09	-3.298428e+01	-3.735832e+02
2.900000e-07	-4.570170e-06	-5.668403e-09	-3.260363e+01	-3.712945e+02
3.000000e-07	-4.515199e-06	-5.640346e-09	-3.221147e+01	-3.689342e+02
3.100000e-07	-4.458612e-06	-5.605703e-09	-3.180778e+01	-3.665040e+02
3.200000e-07	-4.400223e-06	-5.551855e-09	-3.139123e+01	-3.640029e+02
3.300000e-07	-4.340094e-06	-5.505645e-09	-3.096227e+01	-3.614272e+02
3.400000e-07	-4.278514e-06	-5.455864e-09	-3.052296e+01	-3.587714e+02
3.500000e-07	-4.215565e-06	-5.420605e-09	-3.007388e+01	-3.560290e+02
3.600000e-07	-4.151157e-06	-5.407823e-09	-2.961439e+01	-3.531933e+02
3.700000e-07	-4.085101e-06	-5.335394e-09	-2.914315e+01	-3.502588e+02
3.800000e-07	-4.017420e-06	-5.272612e-09	-2.866031e+01	-3.472215e+02
3.900000e-07	-3.948321e-06	-5.243880e-09	-2.816736e+01	-3.440796e+02
4.000000e-07	-3.877980e-06	-5.198653e-09	-2.766555e+01	-3.408336e+02
4.100000e-07	-3.806485e-06	-5.152103e-09	-2.715550e+01	-3.374863e+02
4.200000e-07	-3.733652e-06	-5.082415e-09	-2.663590e+01	-3.340418e+02
4.300000e-07	-3.659209e-06	-5.032926e-09	-2.610483e+01	-3.305052e+02
4.400000e-07	-3.583146e-06	-4.984456e-09	-2.556220e+01	-3.268815e+02
4.500000e-07	-3.505658e-06	-4.938208e-09	-2.500939e+01	-3.231749e+02
4.600000e-07	-3.426809e-06	-4.892073e-09	-2.444689e+01	-3.193878e+02
4.700000e-07	-3.346602e-06	-4.822933e-09	-2.387469e+01	-3.155209e+02
4.800000e-07	-3.265134e-06	-4.749313e-09	-2.329349e+01	-3.115726e+02
4.900000e-07	-3.182533e-06	-4.675590e-09	-2.270422e+01	-3.075390e+02
5.000000e-07	-3.098906e-06	-4.626392e-09	-2.210762e+01	-3.034150e+02
5.100000e-07	-3.014382e-06	-4.571778e-09	-2.150463e+01	-2.991942e+02
5.200000e-07	-2.928977e-06	-4.503293e-09	-2.089535e+01	-2.948702e+02
5.300000e-07	-2.842574e-06	-4.424371e-09	-2.027895e+01	-2.904367e+02
5.400000e-07	-2.755162e-06	-4.346521e-09	-1.965535e+01	-2.858887e+02
5.500000e-07	-2.666822e-06	-4.283201e-09	-1.902514e+01	-2.812227e+02
5.600000e-07	-2.577441e-06	-4.221461e-09	-1.838749e+01	-2.764367e+02
5.700000e-07	-2.486889e-06	-4.150137e-09	-1.774149e+01	-2.715305e+02
5.800000e-07	-2.395332e-06	-4.062930e-09	-1.708832e+01	-2.665052e+02
5.900000e-07	-2.302961e-06	-3.976913e-09	-1.642935e+01	-2.613629e+02
6.000000e-07	-2.209879e-06	-3.899443e-09	-1.576530e+01	-2.561057e+02
6.100000e-07	-2.116038e-06	-3.824619e-09	-1.509583e+01	-2.507360e+02
6.200000e-07	-2.021452e-06	-3.743764e-09	-1.442106e+01	-2.452553e+02
6.300000e-07	-1.926229e-06	-3.655305e-09	-1.374173e+01	-2.396641e+02
6.400000e-07	-1.830287e-06	-3.564501e-09	-1.305728e+01	-2.339618e+02
6.500000e-07	-1.733571e-06	-3.479061e-09	-1.236731e+01	-2.281466e+02
6.600000e-07	-1.636158e-06	-3.396210e-09	-1.167237e+01	-2.222157e+02
6.700000e-07	-1.538113e-06	-3.304223e-09	-1.097292e+01	-2.161654e+02
6.800000e-07	-1.439457e-06	-3.201403e-09	-1.026910e+01	-2.099917e+02
6.900000e-07	-1.340245e-06	-3.096999e-09	-9.561317e+00	-2.036905e+02
7.000000e-07	-1.240562e-06	-3.002186e-09	-8.850177e+00	-1.972575e+02
7.100000e-07	-1.140494e-06	-2.910651e-09	-8.136293e+00	-1.906889e+02
7.200000e-07	-1.040097e-06	-2.811562e-09	-7.420059e+00	-1.839812e+02
7.300000e-07	-9.394186e-07	-2.701881e-09	-6.701821e+00	-1.771309e+02
7.400000e-07	-8.384789e-07	-2.589755e-09	-5.981716e+00	-1.701346e+02
7.500000e-07	-7.372831e-07	-2.480288e-09	-5.259784e+00	-1.629887e+02
7.600000e-07	-6.358441e-07	-2.373238e-09	-4.536118e+00	-1.556892e+02
7.700000e-07	-5.341278e-07	-2.263121e-09	-3.810472e+00	-1.482315e+02
7.800000e-07	-4.321461e-07	-2.143827e-09	-3.082934e+00	-1.406101e+02
7.900000e-07	-3.299889e-07	-2.020467e-09	-2.354144e+00	-1.328189e+02
8.000000e-07	-2.277865e-07	-1.896873e-09	-1.625031e+00	-1.248510e+02
8.100000e-07	-1.255417e-07	-1.776173e-09	-8.956154e-01	-1.166986e+02
8.200000e-07	-2.317071e-08	-1.653333e-09	-1.653001e-01	-1.083538e+02
8.300000e-07	7.924465e-08	-1.522590e-09	5.653321e-01	-9.980817e+01
8.400000e-07	1.815813e-07	-1.385271e-09	1.295402e+00	-9.105310e+01
8.500000e-07	2.838614e-07	-1.246998e-09	2.025070e+00	-8.208014e+01
8.600000e-07	3.860670e-07	-1.108552e-09	2.754206e+00	-7.288106e+01
8.700000e-07	4.881858e-07	-9.648646e-10	3.482722e+00	-6.344805e+01
8.800000e-07	5.902184e-07	-8.139309e-10	4.210624e+00	-5.377393e+01
8.900000e-07	6.920120e-07	-6.585179e-10	4.936820e+00	-4.385252e+01
9.000000e-07	7.935038e-07	-5.018819e-10	5.660863e+00	-3.367897e+01
9.100000e-07	8.946777e-07	-3.419791e-10	6.382639e+00	-2.325039e+01
9.200000e-07	9.955287e-07	-1.799808e-10	7.102111e+00	-1.256646e+01
9.300000e-07	1.096133e-06	-1.391489e-11	7.819824e+00	-1.630188e+00
9.400000e-07	1.196446e-06	1.572356e-10	8.535456e+00	9.551218e+00
9.500000e-07	1.296402e-06	3.317491e-10	9.248545e+00	2.096561e+01
9.600000e-07	1.395872e-06	5.079785e-10	9.958161e+00	3.259520e+01
9.700000e-07	1.494684e-06	6.854480e-10	1.066309e+01	4.441612e+01
9.800000e-07	1.592860e-06	8.673714e-10	1.136348e+01	5.639826e+01
9.900000e-07	1.690437e-06	1.053078e-09	1.205959e+01	6.850546e+01
1.000000e-06	1.787262e-06	1.239814e-09	1.275034e+01	8.069617e+01
1.010000e-06	1.883264e-06	1.425004e-09	1.343522e+01	9.292443e+01
1.020000e-06	1.978504e-06	1.608175e-09	1.411467e+01	1.051412e+02
1.030000e-06	2.073054e-06	1.790541e-09	1.478919e+01	1.172961e+02
1.040000e-06	2.166902e-06	1.973589e-09	1.545870e+01	1.293389e+02
1.050000e-06	2.259994e-06	2.155733e-09	1.612282e+01	1.412213e+02
1.060000e-06	2.352412e-06	2.334848e-09	1.678213e+01	1.528987e+02
1.070000e-06	2.444189e-06	2.508776e-09	1.743687e+01	1.643312e+02
1.080000e-06	2.535072e-06	2.677682e-09	1.808523e+01	1.754847e+02
1.090000e-06	2.624861e-06	2.843554e-09	1.872578e+01	1.863310e+02
1.100000e-06	2.713544e-06	3.005804e-09	1.935844e+01	1.968485e+02
1.110000e-06	2.801198e-06	3.162095e-09	1.998378e+01	2.070212e+02
1.120000e-06	2.887959e-06	3.311371e-09	2.060273e+01	2.168387e+02
1.130000e-06	2.973796e-06	3.454180e-09	2.121509e+01	2.262950e+02
1.140000e-06	3.058689e-06	3.592636e-09	2.182072e+01	2.353879e+02
1.150000e-06	3.142702e-06	3.726856e-09	2.242007e+01	2.441183e+02
1.160000e-06	3.225741e-06	3.855259e-09	2.301247e+01	2.524896e+02
1.170000e-06	3.307599e-06	3.975875e-09	2.359644e+01	2.605072e+02
1.180000e-06	3.388159e-06	4.090677e-09	2.417115e+01	2.681785e+02
1.190000e-06	3.467482e-06	4.199914e-09	2.473705e+01	2.755127e+02
1.200000e-06	3.545651e-06	4.304657e-09	2.529471e+01	2.825210e+02
1.210000e-06	3.622608e-06	4.406938e-09	2.584372e+01	2.892169e+02
1.220000e-06	3.698236e-06	4.504196e-09	2.638325e+01	2.956156e+02
1.230000e-06	3.772290e-06	4.595258e-09	2.691155e+01	3.017345e+02
1.240000e-06	3.844746e-06	4.680598e-09	2.742846e+01	3.075921e+02
1.250000e-06	3.915784e-06	4.765630e-09	2.793524e+01	3.132079e+02
1.260000e-06	3.985406e-06	4.850573e-09	2.843192e+01	3.186012e+02
1.270000e-06	4.053692e-06	4.932398e-09	2.891907e+01	3.237900e+02
1.280000e-06	4.120610e-06	5.010094e-09	2.939647e+01	3.287905e+02
1.290000e-06	4.185861e-06	5.083867e-09	2.986197e+01	3.336156e+02
1.300000e-06	4.249482e-06	5.154398e-09	3.031585e+01	3.382744e+02
1.310000e-06	4.311688e-06	5.221706e-09	3.075962e+01	3.427722e+02
1.320000e-06	4.372505e-06	5.286532e-09	3.119349e+01	3.471100e+02
1.330000e-06	4.431913e-06	5.349724e-09	3.161731e+01	3.512856e+02
1.340000e-06	4.489691e-06	5.410021e-09	3.202950e+01	3.552939e+02
1.350000e-06	4.545677e-06	5.467425e-09	3.242890e+01	3.591284e+02
1.360000e-06	4.600006e-06	5.522757e-09	3.281648e+01	3.627826e+02
1.370000e-06	4.652710e-06	5.574804e-09	3.319248e+01	3.662507e+02
1.380000e-06	4.703488e-06	5.623639e-09	3.355473e+01	3.695294e+02
1.390000e-06	4.752215e-06	5.669845e-09	3.390235e+01	3.726181e+02
1.400000e-06	4.799135e-06	5.712481e-09	3.423707e+01	3.755197e+02
1.410000e-06	4.844449e-06	5.751385e-09	3.456034e+01	3.782403e+02
1.420000e-06	4.888213e-06	5.787885e-09	3.487255e+01	3.807889e+02
1.430000e-06	4.930191e-06	5.822975e-09	3.517203e+01	3.831763e+02
1.440000e-06	4.970269e-06	5.855931e-09	3.545794e+01	3.854140e+02
1.450000e-06	5.008639e-06	5.886509e-09	3.573168e+01	3.875137e+02
1.460000e-06	5.045406e-06	5.914755e-09	3.599398e+01	3.894853e+02
1.470000e-06	5.080517e-06	5.941960e-09	3.624446e+01	3.913369e+02
1.480000e-06	5.113734e-06	5.968478e-09	3.648143e+01	3.930738e+02
1.490000e-06	5.145075e-06	5.991729e-09	3.670501e+01	3.946988e+02
1.500000e-06	5.174751e-06	6.010982e-09	3.691672e+01	3.962123e+02
1.510000e-06	5.202730e-06	6.028356e-09	3.711633e+01	3.976132e+02
1.520000e-06	5.228794e-06	6.046301e-09	3.730227e+01	3.988993e+02
1.530000e-06	5.252803e-06	6.064233e-09	3.747355e+01	4.000690e+02
1.540000e-06	5.274895e-06	6.080675e-09	3.763115e+01	4.011213e+02
1.550000e-06	5.295261e-06	6.095631e-09	3.777644e+01	4.020570e+02
1.560000e-06	5.313895e-06	6.109423e-09	3.790938e+01	4.028790e+02
1.570000e-06	5.330552e-06	6.121498e-09	3.802821e+01	4.035920e+02
1.580000e-06	5.345151e-06	6.131188e-09	3.813235e+01	4.042023e+02
1.590000e-06	5.357737e-06	6.139996e-09	3.822215e+01	4.047169e+02
1.600000e-06	5.368197e-06	6.147842e-09	3.829677e+01	4.051428e+02
1.610000e-06	5.376521e-06	6.153754e-09	3.835615e+01	4.054860e+02
1.620000e-06	5.382895e-06	6.158723e-09	3.840162e+01	4.057510e+02
1.630000e-06	5.387548e-06	6.163965e-09	3.843482e+01	4.059397e+02
1.640000e-06	5.390353e-06	6.167962e-09	3.845483e+01	4.060516e+02
1.650000e-06	5.391078e-06	6.171228e-09	3.846000e+01	4.060842e+02
1.660000e-06	5.389936e-06	6.174128e-09	3.845185e+01	4.060331e+02
1.670000e-06	5.387157e-06	6.170291e-09	3.843203e+01	4.058934e+02
1.680000e-06	5.382713e-06	6.166944e-09	3.840032e+01	4.056601e+02
1.690000e-06	5.376404e-06	6.162405e-09	3.835531e+01	4.053301e+02
1.700000e-06	5.368236e-06	6.156821e-09	3.829705e+01	4.049022e+02
1.710000e-06	5.358439e-06	6.152272e-09	3.822715e+01	4.043784e+02
1.720000e-06	5.347023e-06	6.145257e-09	3.814571e+01	4.037635e+02
1.730000e-06	5.333714e-06	6.142885e-09	3.805076e+01	4.030655e+02
1.740000e-06	5.318291e-06	6.116448e-09	3.794074e+01	4.022943e+02
1.750000e-06	5.300591e-06	6.059446e-09	3.781446e+01	4.014611e+02
1.760000e-06	5.280347e-06	6.069696e-09	3.767005e+01	4.005766e+02
1.770000e-06	5.257693e-06	6.073520e-09	3.750843e+01	3.996505e+02
1.780000e-06	5.233522e-06	6.088098e-09	3.733599e+01	3.986892e+02
1.790000e-06	5.208533e-06	6.120114e-09	3.715773e+01	3.976958e+02
1.800000e-06	5.182282e-06	5.959266e-09	3.697045e+01	3.966691e+02
1.810000e-06	5.153951e-06	5.985573e-09	3.676833e+01	3.956040e+02
1.820000e-06	5.123671e-06	6.050653e-09	3.655231e+01	3.944915e+02
1.830000e-06	5.091812e-06	5.901034e-09	3.632504e+01	3.933201e+02
1.840000e-06	5.058069e-06	6.002690e-09	3.608431e+01	3.920770e+02
1.850000e-06	5.022568e-06	6.027503e-09	3.583105e+01	3.907495e+02
1.860000e-06	4.985423e-06	5.889951e-09	3.556605e+01	3.893261e+02
1.870000e-06	4.946330e-06	5.999931e-09	3.528716e+01	3.877981e+02
1.880000e-06	4.905501e-06	5.932069e-09	3.499589e+01	3.861603e+02
1.890000e-06	4.862975e-06	5.837902e-09	3.469251e+01	3.844112e+02
1.900000e-06	4.818738e-06	5.872986e-09	3.437692e+01	3.825528e+02
1.910000e-06	4.772774e-06	5.753698e-09	3.404901e+01	3.805903e+02
1.920000e-06	4.724789e-06	5.828057e-09	3.370669e+01	3.785308e+02
1.930000e-06	4.675062e-06	5.794351e-09	3.335194e+01	3.763825e+02
1.940000e-06	4.623738e-06	5.678088e-09	3.298579e+01	3.741530e+02
1.950000e-06	4.570451e-06	5.732072e-09	3.260564e+01	3.718486e+02
1.960000e-06	4.515145e-06	5.627128e-09	3.221109e+01	3.694731e+02
1.970000e-06	4.458045e-06	5.603130e-09	3.180373e+01	3.670278e+02
1.980000e-06	4.399393e-06	5.590470e-09	3.138531e+01	3.645109e+02
1.990000e-06	4.339299e-06	5.548846e-09	3.095660e+01	3.619184e+02
2.000000e-06	4.277592e-06	5.544021e-09	3.051638e+01	3.592445e+02
2.010000e-06	4.214247e-06	5.412541e-09	3.006448e+01	3.564825e+02
2.020000e-06	4.149396e-06	5.427380e-09	2.960183e+01	3.536260e+02
2.030000e-06	4.083106e-06	5.382814e-09	2.912892e+01	3.506696e+02
2.040000e-06	4.015406e-06	5.300830e-09	2.864594e+01	3.476098e+02
2.050000e-06	3.946223e-06	5.297003e-09	2.815239e+01	3.444453e+02
2.060000e-06	3.875533e-06	5.216209e-09	2.764809e+01	3.411772e+02
2.070000e-06	3.803431e-06	5.197704e-09	2.713371e+01	3.378086e+02
2.080000e-06	3.730036e-06	5.112502e-09	2.661011e+01	3.343438e+02
2.090000e-06	3.655296e-06	5.061983e-09	2.607691e+01	3.307880e+02
2.100000e-06	3.579133e-06	5.023786e-09	2.553357e+01	3.271461e+02
2.110000e-06	3.501466e-06	4.931104e-09	2.497949e+01	3.234219e+02
2.120000e-06	3.422370e-06	4.890647e-09	2.441522e+01	3.196177e+02
2.130000e-06	3.342091e-06	4.826775e-09	2.384251e+01	3.157334e+02
2.140000e-06	3.260654e-06	4.794407e-09	2.326153e+01	3.117670e+02
2.150000e-06	3.178071e-06	4.721794e-09	2.267239e+01	3.077145e+02
2.160000e-06	3.094441e-06	4.644349e-09	2.207577e+01	3.035701e+02
2.170000e-06	3.009715e-06	4.579902e-09	2.147133e+01	2.993277e+02
2.180000e-06	2.923806e-06	4.511479e-09	2.085846e+01	2.949805e+02
2.190000e-06	2.836700e-06	4.460154e-09	2.023704e+01	2.905227e+02
2.200000e-06	2.748534e-06	4.382636e-09	1.960806e+01	2.859496e+02
2.210000e-06	2.659446e-06	4.313050e-09	1.897251e+01	2.812578e+02
2.220000e-06	2.569430e-06	4.231591e-09	1.833034e+01	2.764459e+02
2.230000e-06	2.478575e-06	4.156606e-09	1.768218e+01	2.715140e+02
2.240000e-06	2.386942e-06	4.082484e-09	1.702847e+01	2.664633e+02
2.250000e-06	2.294489e-06	4.008825e-09	1.636891e+01	2.612960e+02
2.260000e-06	2.201229e-06	3.933967e-09	1.570359e+01	2.560144e+02
2.270000e-06	2.107078e-06	3.842067e-09	1.503192e+01	2.506207e+02
2.280000e-06	2.011920e-06	3.751228e-09	1.435306e+01	2.451162e+02
2.290000e-06	1.915890e-06	3.665720e-09	1.366798e+01	2.395012e+02
2.300000e-06	1.819271e-06	3.583558e-09	1.297870e+01	2.337747e+02
2.310000e-06	1.722215e-06	3.489638e-09	1.228630e+01	2.279349e+02
2.320000e-06	1.624672e-06	3.394103e-09	1.159043e+01	2.219785e+02
2.330000e-06	1.526535e-06	3.302248e-09	1.089032e+01	2.159020e+02
2.340000e-06	1.427845e-06	3.213260e-09	1.018626e+01	2.097012e+02
2.350000e-06	1.328725e-06	3.119233e-09	9.479140e+00	2.033719e+02
2.360000e-06	1.229293e-06	3.019761e-09	8.769789e+00	1.969101e+02
2.370000e-06	1.129594e-06	2.918138e-09	8.058531e+00	1.903119e+02
2.380000e-06	1.029536e-06	2.810570e-09	7.344723e+00	1.835738e+02
2.390000e-06	9.290641e-07	2.705927e-09	6.627952e+00	1.766923e+02
2.400000e-06	8.281747e-07	2.604007e-09	5.908206e+00	1.696641e+02
2.410000e-06	7.269366e-07	2.497851e-09	5.185972e+00	1.624856e+02
2.420000e-06	6.254818e-07	2.381169e-09	4.462193e+00	1.551525e+02
2.430000e-06	5.238312e-07	2.259352e-09	3.737017e+00	1.476600e+02
2.440000e-06	4.220249e-07	2.142272e-09	3.010730e+00	1.400027e+02
2.450000e-06	3.200845e-07	2.030244e-09	2.283485e+00	1.321741e+02
2.460000e-06	2.179660e-07	1.910881e-09	1.554971e+00	1.241672e+02
2.470000e-06	1.157052e-07	1.782009e-09	8.254417e-01	1.159742e+02
2.480000e-06	1.342482e-08	1.649195e-09	9.577280e-02	1.075869e+02
2.490000e-06	-8.882791e-08	1.516634e-09	-6.336991e-01	9.899695e+01
2.500000e-06	-1.911106e-07	1.384824e-09	-1.363385e+00	9.019577e+01
2.510000e-06	-2.933977e-07	1.250820e-09	-2.093102e+00	8.117491e+01
2.520000e-06	-3.955962e-07	1.113182e-09	-2.822187e+00	7.192621e+01
2.530000e-06	-4.976231e-07	9.663653e-10	-3.550048e+00	6.244198e+01
2.540000e-06	-5.995197e-07	8.142900e-10	-4.276979e+00	5.271522e+01
2.550000e-06	-7.012000e-07	6.644977e-10	-5.002367e+00	4.274000e+01
2.560000e-06	-8.025132e-07	5.137999e-10	-5.725136e+00	3.251184e+01
2.570000e-06	-9.034199e-07	3.563796e-10	-6.445006e+00	2.202834e+01
2.580000e-06	-1.003970e-06	1.920427e-10	-7.162328e+00	1.128982e+01
2.590000e-06	-1.104125e-06	2.345876e-11	-7.876838e+00	3.001292e-01
2.600000e-06	-1.203813e-06	-1.464888e-10	-8.588014e+00	-1.093254e+01
2.610000e-06	-1.303072e-06	-3.192720e-10	-9.296126e+00	-2.239487e+01
2.620000e-06	-1.401938e-06	-4.962747e-10	-1.000144e+01	-3.406781e+01
2.630000e-06	-1.500390e-06	-6.794225e-10	-1.070379e+01	-4.592616e+01
2.640000e-06	-1.598288e-06	-8.672837e-10	-1.140220e+01	-5.793846e+01
2.650000e-06	-1.695537e-06	-1.053292e-09	-1.209598e+01	-7.006735e+01
2.660000e-06	-1.792270e-06	-1.236203e-09	-1.278607e+01	-8.227024e+01
2.670000e-06	-1.888573e-06	-1.420935e-09	-1.347310e+01	-9.450038e+01
2.680000e-06	-1.984289e-06	-1.610107e-09	-1.415593e+01	-1.067083e+02
2.690000e-06	-2.079203e-06	-1.800790e-09	-1.483306e+01	-1.188435e+02
2.700000e-06	-2.173201e-06	-1.989374e-09	-1.550364e+01	-1.308559e+02
2.710000e-06	-2.266314e-06	-2.169993e-09	-1.616791e+01	-1.426982e+02
2.720000e-06	-2.358547e-06	-2.344013e-09	-1.682589e+01	-1.543264e+02
2.730000e-06	-2.449868e-06	-2.515359e-09	-1.747738e+01	-1.657019e+02
2.740000e-06	-2.540309e-06	-2.682846e-09	-1.812259e+01	-1.767919e+02
2.750000e-06	-2.629850e-06	-2.844876e-09	-1.876137e+01	-1.875695e+02
2.760000e-06	-2.718499e-06	-3.001594e-09	-1.939379e+01	-1.980144e+02
2.770000e-06	-2.806352e-06	-3.155591e-09	-2.002054e+01	-2.081118e+02
2.780000e-06	-2.893290e-06	-3.306961e-09	-2.064076e+01	-2.178524e+02
2.790000e-06	-2.979083e-06	-3.452286e-09	-2.125281e+01	-2.272310e+02
2.800000e-06	-3.063703e-06	-3.590084e-09	-2.185649e+01	-2.362462e+02
2.810000e-06	-3.147224e-06	-3.721949e-09	-2.245232e+01	-2.448995e+02
2.820000e-06	-3.229724e-06	-3.848113e-09	-2.304088e+01	-2.531946e+02
2.830000e-06	-3.311185e-06	-3.969169e-09	-2.362202e+01	-2.611374e+02
2.840000e-06	-3.391581e-06	-4.087116e-09	-2.419557e+01	-2.687357e+02
2.850000e-06	-3.470795e-06	-4.200819e-09	-2.476068e+01	-2.759992e+02
2.860000e-06	-3.548623e-06	-4.308320e-09	-2.531591e+01	-2.829395e+02
2.870000e-06	-3.624901e-06	-4.409897e-09	-2.586008e+01	-2.895705e+02
2.880000e-06	-3.699667e-06	-4.507537e-09	-2.639346e+01	-2.959079e+02
2.890000e-06	-3.773132e-06	-4.601405e-09	-2.691756e+01	-3.019693e+02
2.900000e-06	-3.845360e-06	-4.690536e-09	-2.743283e+01	-3.077735e+02
2.910000e-06	-3.916173e-06	-4.775652e-09	-2.793802e+01	-3.133402e+02
2.920000e-06	-3.985364e-06	-4.857032e-09	-2.843162e+01	-3.186883e+02
2.930000e-06	-4.053042e-06	-4.935090e-09	-2.891444e+01	-3.238357e+02
2.940000e-06	-4.119318e-06	-5.010010e-09	-2.938725e+01	-3.287977e+02
