# Temperatura_=_77.41
# Concentracion g/m^3_=_15000.0
# C_Vs_to_Am_M_A/Vsm_=_65563218390.804596
# pendiente_HvsI_1/m_=_3716.3
# ordenada_HvsI_A/m_=_1297.0
# frecuencia_Hz_=_301589.5685858316

Tiempo_(s)	Campo_(V.s)	Magnetizacion_(V.s)	Campo_(kA/m)	Magnetizacion_(A/m)
0.000000e+00	-5.402009e-06	-7.621790e-09	-3.833862e+01	-4.986650e+02
1.000000e-08	-5.399201e-06	-7.618345e-09	-3.831869e+01	-4.984883e+02
2.000000e-08	-5.394560e-06	-7.611278e-09	-3.828575e+01	-4.981955e+02
3.000000e-08	-5.388276e-06	-7.603235e-09	-3.824115e+01	-4.977823e+02
4.000000e-08	-5.380525e-06	-7.594712e-09	-3.818614e+01	-4.972465e+02
5.000000e-08	-5.370996e-06	-7.585656e-09	-3.811851e+01	-4.965890e+02
6.000000e-08	-5.359298e-06	-7.575938e-09	-3.803549e+01	-4.958142e+02
7.000000e-08	-5.345683e-06	-7.564998e-09	-3.793886e+01	-4.949293e+02
8.000000e-08	-5.329968e-06	-7.555300e-09	-3.782733e+01	-4.939442e+02
9.000000e-08	-5.311978e-06	-7.573967e-09	-3.769966e+01	-4.928701e+02
1.000000e-07	-5.291968e-06	-7.557883e-09	-3.755764e+01	-4.917182e+02
1.100000e-07	-5.270054e-06	-7.504037e-09	-3.740212e+01	-4.904980e+02
1.200000e-07	-5.246421e-06	-7.475842e-09	-3.723439e+01	-4.892164e+02
1.300000e-07	-5.221277e-06	-7.410146e-09	-3.705594e+01	-4.878763e+02
1.400000e-07	-5.194562e-06	-7.377878e-09	-3.686634e+01	-4.864762e+02
1.500000e-07	-5.166193e-06	-7.453808e-09	-3.666500e+01	-4.850104e+02
1.600000e-07	-5.136319e-06	-7.381809e-09	-3.645299e+01	-4.834690e+02
1.700000e-07	-5.104876e-06	-7.357511e-09	-3.622983e+01	-4.818395e+02
1.800000e-07	-5.071323e-06	-7.397478e-09	-3.599170e+01	-4.801078e+02
1.900000e-07	-5.035860e-06	-7.252029e-09	-3.574002e+01	-4.782601e+02
2.000000e-07	-4.998940e-06	-7.230229e-09	-3.547799e+01	-4.762840e+02
2.100000e-07	-4.960293e-06	-7.257041e-09	-3.520371e+01	-4.741699e+02
2.200000e-07	-4.919819e-06	-7.181262e-09	-3.491646e+01	-4.719121e+02
2.300000e-07	-4.877433e-06	-7.166338e-09	-3.461564e+01	-4.695090e+02
2.400000e-07	-4.833149e-06	-7.117687e-09	-3.430136e+01	-4.669632e+02
2.500000e-07	-4.787094e-06	-7.044661e-09	-3.397450e+01	-4.642805e+02
2.600000e-07	-4.739076e-06	-7.046178e-09	-3.363371e+01	-4.614693e+02
2.700000e-07	-4.688917e-06	-7.005333e-09	-3.327772e+01	-4.585392e+02
2.800000e-07	-4.636711e-06	-6.965723e-09	-3.290722e+01	-4.554998e+02
2.900000e-07	-4.582691e-06	-6.896970e-09	-3.252383e+01	-4.523593e+02
3.000000e-07	-4.527098e-06	-6.814806e-09	-3.212928e+01	-4.491240e+02
3.100000e-07	-4.469819e-06	-6.785757e-09	-3.172276e+01	-4.457974e+02
3.200000e-07	-4.410678e-06	-6.764103e-09	-3.130303e+01	-4.423804e+02
3.300000e-07	-4.349921e-06	-6.717623e-09	-3.087184e+01	-4.388711e+02
3.400000e-07	-4.287696e-06	-6.627157e-09	-3.043022e+01	-4.352659e+02
3.500000e-07	-4.224117e-06	-6.562059e-09	-2.997899e+01	-4.315599e+02
3.600000e-07	-4.159027e-06	-6.515776e-09	-2.951705e+01	-4.277482e+02
3.700000e-07	-4.092216e-06	-6.465124e-09	-2.904288e+01	-4.238262e+02
3.800000e-07	-4.023874e-06	-6.416656e-09	-2.855785e+01	-4.197907e+02
3.900000e-07	-3.954193e-06	-6.337754e-09	-2.806331e+01	-4.156401e+02
4.000000e-07	-3.883316e-06	-6.253038e-09	-2.756030e+01	-4.113743e+02
4.100000e-07	-3.811199e-06	-6.181279e-09	-2.704847e+01	-4.069948e+02
4.200000e-07	-3.737604e-06	-6.122990e-09	-2.652616e+01	-4.025041e+02
4.300000e-07	-3.662406e-06	-6.073246e-09	-2.599248e+01	-3.979052e+02
4.400000e-07	-3.585688e-06	-6.006124e-09	-2.544800e+01	-3.932007e+02
4.500000e-07	-3.507496e-06	-5.922899e-09	-2.489306e+01	-3.883924e+02
4.600000e-07	-3.427842e-06	-5.835020e-09	-2.432775e+01	-3.834811e+02
4.700000e-07	-3.346900e-06	-5.765558e-09	-2.375329e+01	-3.784659e+02
4.800000e-07	-3.264776e-06	-5.702865e-09	-2.317045e+01	-3.733444e+02
4.900000e-07	-3.181590e-06	-5.614451e-09	-2.258007e+01	-3.681131e+02
5.000000e-07	-3.097425e-06	-5.519190e-09	-2.198275e+01	-3.627675e+02
5.100000e-07	-3.012314e-06	-5.428553e-09	-2.137870e+01	-3.573027e+02
5.200000e-07	-2.926235e-06	-5.347809e-09	-2.076779e+01	-3.517140e+02
5.300000e-07	-2.839186e-06	-5.271723e-09	-2.015000e+01	-3.459970e+02
5.400000e-07	-2.751221e-06	-5.190840e-09	-1.952570e+01	-3.401482e+02
5.500000e-07	-2.662170e-06	-5.095887e-09	-1.889370e+01	-3.341652e+02
5.600000e-07	-2.571959e-06	-4.984446e-09	-1.825346e+01	-3.280464e+02
5.700000e-07	-2.480744e-06	-4.882239e-09	-1.760609e+01	-3.217911e+02
5.800000e-07	-2.388608e-06	-4.796466e-09	-1.695220e+01	-3.153992e+02
5.900000e-07	-2.295691e-06	-4.707469e-09	-1.629275e+01	-3.088709e+02
6.000000e-07	-2.202049e-06	-4.598633e-09	-1.562817e+01	-3.022064e+02
6.100000e-07	-2.107575e-06	-4.488297e-09	-1.495768e+01	-2.954057e+02
6.200000e-07	-2.012477e-06	-4.384954e-09	-1.428275e+01	-2.884681e+02
6.300000e-07	-1.916765e-06	-4.278730e-09	-1.360348e+01	-2.813929e+02
6.400000e-07	-1.820220e-06	-4.171819e-09	-1.291829e+01	-2.741784e+02
6.500000e-07	-1.722792e-06	-4.063144e-09	-1.222683e+01	-2.668227e+02
6.600000e-07	-1.624565e-06	-3.945681e-09	-1.152971e+01	-2.593233e+02
6.700000e-07	-1.525768e-06	-3.818805e-09	-1.082853e+01	-2.516774e+02
6.800000e-07	-1.426524e-06	-3.696701e-09	-1.012418e+01	-2.438817e+02
6.900000e-07	-1.326780e-06	-3.581721e-09	-9.416296e+00	-2.359326e+02
7.000000e-07	-1.226519e-06	-3.462451e-09	-8.704729e+00	-2.278256e+02
7.100000e-07	-1.125909e-06	-3.332753e-09	-7.990689e+00	-2.195558e+02
7.200000e-07	-1.025039e-06	-3.198887e-09	-7.274804e+00	-2.111175e+02
7.300000e-07	-9.238549e-07	-3.067753e-09	-6.556693e+00	-2.025041e+02
7.400000e-07	-8.222988e-07	-2.937721e-09	-5.835939e+00	-1.937084e+02
7.500000e-07	-7.204466e-07	-2.805984e-09	-5.113084e+00	-1.847229e+02
7.600000e-07	-6.183319e-07	-2.666665e-09	-4.388365e+00	-1.755395e+02
7.700000e-07	-5.159303e-07	-2.517638e-09	-3.661611e+00	-1.661505e+02
7.800000e-07	-4.133819e-07	-2.363381e-09	-2.933814e+00	-1.565490e+02
7.900000e-07	-3.107474e-07	-2.210655e-09	-2.205406e+00	-1.467287e+02
8.000000e-07	-2.080888e-07	-2.058483e-09	-1.476828e+00	-1.366843e+02
8.100000e-07	-1.053525e-07	-1.902769e-09	-7.476974e-01	-1.264120e+02
8.200000e-07	-2.495271e-09	-1.739830e-09	-1.770920e-02	-1.159085e+02
8.300000e-07	1.003804e-07	-1.571947e-09	7.124098e-01	-1.051713e+02
8.400000e-07	2.032215e-07	-1.403354e-09	1.442284e+00	-9.419759e+01
8.500000e-07	3.060079e-07	-1.234481e-09	2.171769e+00	-8.298393e+01
8.600000e-07	4.087169e-07	-1.062804e-09	2.900706e+00	-7.152545e+01
8.700000e-07	5.113232e-07	-8.830626e-10	3.628913e+00	-5.981550e+01
8.800000e-07	6.138118e-07	-6.970104e-10	4.356286e+00	-4.784556e+01
8.900000e-07	7.160979e-07	-5.079405e-10	5.082220e+00	-3.560561e+01
9.000000e-07	8.181659e-07	-3.170768e-10	5.806608e+00	-2.308501e+01
9.100000e-07	9.199277e-07	-1.241690e-10	6.528822e+00	-1.027386e+01
9.200000e-07	1.021278e-06	7.049564e-11	7.248118e+00	2.835121e+00
9.300000e-07	1.122264e-06	2.695590e-10	7.964824e+00	1.624454e+01
9.400000e-07	1.222898e-06	4.760950e-10	8.679035e+00	2.995010e+01
9.500000e-07	1.323134e-06	6.870499e-10	9.390418e+00	4.393858e+01
9.600000e-07	1.422925e-06	8.994837e-10	1.009865e+01	5.818629e+01
9.700000e-07	1.522245e-06	1.115951e-09	1.080353e+01	7.265814e+01
9.800000e-07	1.620912e-06	1.339627e-09	1.150378e+01	8.730762e+01
9.900000e-07	1.718838e-06	1.568748e-09	1.219877e+01	1.020777e+02
1.000000e-06	1.816032e-06	1.796708e-09	1.288856e+01	1.169026e+02
1.010000e-06	1.912394e-06	2.020810e-09	1.357246e+01	1.317108e+02
1.020000e-06	2.007982e-06	2.241885e-09	1.425085e+01	1.464279e+02
1.030000e-06	2.102932e-06	2.460143e-09	1.492472e+01	1.609807e+02
1.040000e-06	2.197205e-06	2.676042e-09	1.559379e+01	1.753004e+02
1.050000e-06	2.290685e-06	2.887074e-09	1.625722e+01	1.893262e+02
1.060000e-06	2.383388e-06	3.092328e-09	1.691515e+01	2.030077e+02
1.070000e-06	2.475366e-06	3.291697e-09	1.756792e+01	2.163063e+02
1.080000e-06	2.566564e-06	3.485786e-09	1.821517e+01	2.291961e+02
1.090000e-06	2.656790e-06	3.676059e-09	1.885551e+01	2.416634e+02
1.100000e-06	2.745825e-06	3.861484e-09	1.948740e+01	2.537046e+02
1.110000e-06	2.833744e-06	4.040101e-09	2.011137e+01	2.653250e+02
1.120000e-06	2.920779e-06	4.210483e-09	2.072907e+01	2.765350e+02
1.130000e-06	3.006923e-06	4.373126e-09	2.134045e+01	2.873483e+02
1.140000e-06	3.092066e-06	4.530649e-09	2.194471e+01	2.977787e+02
1.150000e-06	3.176261e-06	4.685497e-09	2.254225e+01	3.078383e+02
1.160000e-06	3.259474e-06	4.835811e-09	2.313282e+01	3.175361e+02
1.170000e-06	3.341543e-06	4.978033e-09	2.371528e+01	3.268779e+02
1.180000e-06	3.422292e-06	5.113733e-09	2.428836e+01	3.358661e+02
1.190000e-06	3.501795e-06	5.244939e-09	2.485260e+01	3.445010e+02
1.200000e-06	3.580120e-06	5.371144e-09	2.540848e+01	3.527822e+02
1.210000e-06	3.657156e-06	5.493171e-09	2.595521e+01	3.607107e+02
1.220000e-06	3.732873e-06	5.607160e-09	2.649259e+01	3.682898e+02
1.230000e-06	3.807134e-06	5.712543e-09	2.701962e+01	3.755268e+02
1.240000e-06	3.879730e-06	5.812405e-09	2.753484e+01	3.824337e+02
1.250000e-06	3.950813e-06	5.912176e-09	2.803932e+01	3.890269e+02
1.260000e-06	4.020558e-06	6.011560e-09	2.853432e+01	3.953268e+02
1.270000e-06	4.088917e-06	6.105104e-09	2.901947e+01	4.013565e+02
1.280000e-06	4.155862e-06	6.192419e-09	2.949458e+01	4.071398e+02
1.290000e-06	4.221145e-06	6.276099e-09	2.995790e+01	4.126999e+02
1.300000e-06	4.284783e-06	6.357958e-09	3.040955e+01	4.180570e+02
1.310000e-06	4.347003e-06	6.437717e-09	3.085112e+01	4.232276e+02
1.320000e-06	4.407811e-06	6.514726e-09	3.128269e+01	4.282226e+02
1.330000e-06	4.467218e-06	6.587736e-09	3.170431e+01	4.330481e+02
1.340000e-06	4.524922e-06	6.657033e-09	3.211384e+01	4.377049e+02
1.350000e-06	4.580800e-06	6.724432e-09	3.251041e+01	4.421899e+02
1.360000e-06	4.635089e-06	6.791026e-09	3.289570e+01	4.464974e+02
1.370000e-06	4.687685e-06	6.853992e-09	3.326898e+01	4.506206e+02
1.380000e-06	4.738271e-06	6.912452e-09	3.362800e+01	4.545532e+02
1.390000e-06	4.786806e-06	6.968079e-09	3.397245e+01	4.582911e+02
1.400000e-06	4.833578e-06	7.021034e-09	3.430440e+01	4.618326e+02
1.410000e-06	4.878783e-06	7.071053e-09	3.462523e+01	4.651798e+02
1.420000e-06	4.922454e-06	7.118582e-09	3.493516e+01	4.683376e+02
1.430000e-06	4.964297e-06	7.163214e-09	3.523213e+01	4.713136e+02
1.440000e-06	5.004247e-06	7.205116e-09	3.551565e+01	4.741169e+02
1.450000e-06	5.042546e-06	7.243735e-09	3.578747e+01	4.767570e+02
1.460000e-06	5.079246e-06	7.279942e-09	3.604793e+01	4.792426e+02
1.470000e-06	5.114184e-06	7.316614e-09	3.629589e+01	4.815806e+02
1.480000e-06	5.147149e-06	7.350177e-09	3.652985e+01	4.837755e+02
1.490000e-06	5.178285e-06	7.378988e-09	3.675082e+01	4.858293e+02
1.500000e-06	5.207761e-06	7.405533e-09	3.696002e+01	4.877416e+02
1.510000e-06	5.235560e-06	7.430559e-09	3.715731e+01	4.895104e+02
1.520000e-06	5.261331e-06	7.455855e-09	3.734021e+01	4.911331e+02
1.530000e-06	5.284981e-06	7.478848e-09	3.750805e+01	4.926074e+02
1.540000e-06	5.306837e-06	7.497363e-09	3.766317e+01	4.939321e+02
1.550000e-06	5.327041e-06	7.514002e-09	3.780656e+01	4.951085e+02
1.560000e-06	5.345397e-06	7.529929e-09	3.793683e+01	4.961398e+02
1.570000e-06	5.361616e-06	7.544893e-09	3.805194e+01	4.970319e+02
1.580000e-06	5.375851e-06	7.557814e-09	3.815296e+01	4.977923e+02
1.590000e-06	5.388138e-06	7.569402e-09	3.824017e+01	4.984298e+02
1.600000e-06	5.398175e-06	7.578598e-09	3.831140e+01	4.989529e+02
1.610000e-06	5.406093e-06	7.585779e-09	3.836760e+01	4.993692e+02
1.620000e-06	5.412164e-06	7.592113e-09	3.841069e+01	4.996840e+02
1.630000e-06	5.416463e-06	7.597444e-09	3.844120e+01	4.999004e+02
1.640000e-06	5.418839e-06	7.601325e-09	3.845806e+01	5.000181e+02
1.650000e-06	5.419113e-06	7.603750e-09	3.846000e+01	5.000344e+02
1.660000e-06	5.417529e-06	7.602153e-09	3.844876e+01	4.999448e+02
1.670000e-06	5.414368e-06	7.596517e-09	3.842633e+01	4.997434e+02
1.680000e-06	5.409533e-06	7.593446e-09	3.839202e+01	4.994249e+02
1.690000e-06	5.402754e-06	7.589307e-09	3.834390e+01	4.989852e+02
1.700000e-06	5.394221e-06	7.582498e-09	3.828334e+01	4.984229e+02
1.710000e-06	5.384152e-06	7.575192e-09	3.821188e+01	4.977396e+02
1.720000e-06	5.372319e-06	7.566608e-09	3.812790e+01	4.969402e+02
1.730000e-06	5.358499e-06	7.560193e-09	3.802982e+01	4.960327e+02
1.740000e-06	5.342607e-06	7.499789e-09	3.791703e+01	4.950274e+02
1.750000e-06	5.324370e-06	7.468397e-09	3.778760e+01	4.939355e+02
1.760000e-06	5.303424e-06	7.487956e-09	3.763894e+01	4.927680e+02
1.770000e-06	5.280146e-06	7.468869e-09	3.747374e+01	4.915340e+02
1.780000e-06	5.255561e-06	7.515803e-09	3.729926e+01	4.902395e+02
1.790000e-06	5.230260e-06	7.470553e-09	3.711969e+01	4.888866e+02
1.800000e-06	5.203629e-06	7.331493e-09	3.693069e+01	4.874728e+02
1.810000e-06	5.174775e-06	7.410314e-09	3.672591e+01	4.859915e+02
1.820000e-06	5.144057e-06	7.362153e-09	3.650790e+01	4.844321e+02
1.830000e-06	5.111705e-06	7.277319e-09	3.627830e+01	4.827817e+02
1.840000e-06	5.077369e-06	7.407392e-09	3.603461e+01	4.810261e+02
1.850000e-06	5.041426e-06	7.336056e-09	3.577952e+01	4.791516e+02
1.860000e-06	5.003778e-06	7.276381e-09	3.551233e+01	4.771463e+02
1.870000e-06	4.964192e-06	7.295840e-09	3.523138e+01	4.750015e+02
1.880000e-06	4.922890e-06	7.158399e-09	3.493826e+01	4.727124e+02
1.890000e-06	4.879775e-06	7.187638e-09	3.463226e+01	4.702782e+02
1.900000e-06	4.835069e-06	7.168096e-09	3.431498e+01	4.677022e+02
1.910000e-06	4.788579e-06	7.068155e-09	3.398504e+01	4.649910e+02
1.920000e-06	4.739981e-06	7.096091e-09	3.364014e+01	4.621533e+02
1.930000e-06	4.689800e-06	6.966860e-09	3.328399e+01	4.591987e+02
1.940000e-06	4.637868e-06	6.953128e-09	3.291542e+01	4.561367e+02
1.950000e-06	4.583734e-06	6.973405e-09	3.253123e+01	4.529752e+02
1.960000e-06	4.527652e-06	6.868556e-09	3.213321e+01	4.497200e+02
1.970000e-06	4.469914e-06	6.814929e-09	3.172344e+01	4.463738e+02
1.980000e-06	4.410787e-06	6.715226e-09	3.130381e+01	4.429370e+02
1.990000e-06	4.350120e-06	6.712712e-09	3.087325e+01	4.394073e+02
2.000000e-06	4.287713e-06	6.687234e-09	3.043034e+01	4.357807e+02
2.010000e-06	4.223687e-06	6.597387e-09	2.997594e+01	4.320523e+02
2.020000e-06	4.158202e-06	6.569647e-09	2.951119e+01	4.282170e+02
2.030000e-06	4.091393e-06	6.463449e-09	2.903704e+01	4.242707e+02
2.040000e-06	4.023089e-06	6.402246e-09	2.855228e+01	4.202104e+02
2.050000e-06	3.953179e-06	6.348183e-09	2.805612e+01	4.160348e+02
2.060000e-06	3.881816e-06	6.302616e-09	2.754965e+01	4.117442e+02
2.070000e-06	3.809129e-06	6.259834e-09	2.703378e+01	4.073405e+02
2.080000e-06	3.735097e-06	6.135674e-09	2.650837e+01	4.028261e+02
2.090000e-06	3.659631e-06	6.064548e-09	2.597278e+01	3.982041e+02
2.100000e-06	3.582654e-06	6.003754e-09	2.542647e+01	3.934770e+02
2.110000e-06	3.504134e-06	5.952047e-09	2.486920e+01	3.886465e+02
2.120000e-06	3.424294e-06	5.875567e-09	2.430257e+01	3.837128e+02
2.130000e-06	3.343353e-06	5.782296e-09	2.372812e+01	3.786748e+02
2.140000e-06	3.261256e-06	5.715002e-09	2.314547e+01	3.735299e+02
2.150000e-06	3.178136e-06	5.619862e-09	2.255556e+01	3.682742e+02
2.160000e-06	3.094016e-06	5.549811e-09	2.195855e+01	3.629033e+02
2.170000e-06	3.008615e-06	5.479097e-09	2.135245e+01	3.574121e+02
2.180000e-06	2.921914e-06	5.387185e-09	2.073712e+01	3.517960e+02
2.190000e-06	2.834105e-06	5.274875e-09	2.011393e+01	3.460508e+02
2.200000e-06	2.745310e-06	5.179447e-09	1.948374e+01	3.401732e+02
2.210000e-06	2.655579e-06	5.122327e-09	1.884692e+01	3.341610e+02
2.220000e-06	2.564978e-06	5.043106e-09	1.820391e+01	3.280127e+02
2.230000e-06	2.473606e-06	4.934759e-09	1.755544e+01	3.217279e+02
2.240000e-06	2.381423e-06	4.820006e-09	1.690120e+01	3.153066e+02
2.250000e-06	2.288317e-06	4.719402e-09	1.624042e+01	3.087489e+02
2.260000e-06	2.194239e-06	4.617309e-09	1.557274e+01	3.020550e+02
2.270000e-06	2.099265e-06	4.521359e-09	1.489870e+01	2.952247e+02
2.280000e-06	2.003460e-06	4.427171e-09	1.421876e+01	2.882575e+02
2.290000e-06	1.906889e-06	4.313898e-09	1.353338e+01	2.811524e+02
2.300000e-06	1.809782e-06	4.189173e-09	1.284421e+01	2.739076e+02
2.310000e-06	1.712213e-06	4.073277e-09	1.215175e+01	2.665210e+02
2.320000e-06	1.614099e-06	3.974397e-09	1.145543e+01	2.589903e+02
2.330000e-06	1.515414e-06	3.866061e-09	1.075505e+01	2.513124e+02
2.340000e-06	1.416272e-06	3.738897e-09	1.005143e+01	2.434839e+02
2.350000e-06	1.316766e-06	3.604430e-09	9.345225e+00	2.355011e+02
2.360000e-06	1.216896e-06	3.479124e-09	8.636433e+00	2.273595e+02
2.370000e-06	1.116667e-06	3.361540e-09	7.925102e+00	2.190538e+02
2.380000e-06	1.016066e-06	3.242554e-09	7.211128e+00	2.105783e+02
2.390000e-06	9.150140e-07	3.113436e-09	6.493948e+00	2.019263e+02
2.400000e-06	8.134946e-07	2.970596e-09	5.773455e+00	1.930904e+02
2.410000e-06	7.116138e-07	2.826246e-09	5.050396e+00	1.840628e+02
2.420000e-06	6.094473e-07	2.687778e-09	4.325310e+00	1.748358e+02
2.430000e-06	5.070383e-07	2.554029e-09	3.598503e+00	1.654017e+02
2.440000e-06	4.044466e-07	2.413536e-09	2.870399e+00	1.557535e+02
2.450000e-06	3.016732e-07	2.258086e-09	2.141006e+00	1.458853e+02
2.460000e-06	1.987396e-07	2.094674e-09	1.410475e+00	1.357922e+02
2.470000e-06	9.571198e-08	1.936782e-09	6.792778e-01	1.254703e+02
2.480000e-06	-7.358633e-09	1.786085e-09	-5.222497e-02	1.149167e+02
2.490000e-06	-1.103793e-07	1.631101e-09	-7.833735e-01	1.041289e+02
2.500000e-06	-2.133885e-07	1.462753e-09	-1.514440e+00	9.310387e+01
2.510000e-06	-3.164098e-07	1.286107e-09	-2.245593e+00	8.183799e+01
2.520000e-06	-4.192640e-07	1.111011e-09	-2.975560e+00	7.032602e+01
2.530000e-06	-5.219815e-07	9.357411e-10	-3.704556e+00	5.856090e+01
2.540000e-06	-6.245799e-07	7.552520e-10	-4.432708e+00	4.653375e+01
2.550000e-06	-7.268635e-07	5.666667e-10	-5.158625e+00	3.423433e+01
2.560000e-06	-8.288214e-07	3.666943e-10	-5.882231e+00	2.165202e+01
2.570000e-06	-9.303848e-07	1.609833e-10	-6.603037e+00	8.777306e+00
2.580000e-06	-1.031454e-06	-4.292731e-11	-7.320333e+00	-4.396271e+00
2.590000e-06	-1.132027e-06	-2.451008e-10	-8.034113e+00	-1.787001e+01
2.600000e-06	-1.232113e-06	-4.529055e-10	-8.744435e+00	-3.163788e+01
2.610000e-06	-1.331776e-06	-6.719129e-10	-9.451752e+00	-4.568451e+01
2.620000e-06	-1.431026e-06	-8.958922e-10	-1.015614e+01	-5.998383e+01
2.630000e-06	-1.529842e-06	-1.118362e-09	-1.085744e+01	-7.449827e+01
2.640000e-06	-1.628138e-06	-1.338805e-09	-1.155507e+01	-8.917894e+01
2.650000e-06	-1.725826e-06	-1.561913e-09	-1.224837e+01	-1.039668e+02
2.660000e-06	-1.822889e-06	-1.791292e-09	-1.293723e+01	-1.187945e+02
2.670000e-06	-1.919295e-06	-2.024797e-09	-1.362144e+01	-1.335897e+02
2.680000e-06	-2.015112e-06	-2.256052e-09	-1.430145e+01	-1.482779e+02
2.690000e-06	-2.110371e-06	-2.478852e-09	-1.497752e+01	-1.627865e+02
2.700000e-06	-2.204857e-06	-2.694346e-09	-1.564810e+01	-1.770483e+02
2.710000e-06	-2.298309e-06	-2.906747e-09	-1.631134e+01	-1.910044e+02
2.720000e-06	-2.390698e-06	-3.117151e-09	-1.696703e+01	-2.046069e+02
2.730000e-06	-2.482210e-06	-3.320916e-09	-1.761650e+01	-2.178199e+02
2.740000e-06	-2.572870e-06	-3.515319e-09	-1.825992e+01	-2.306202e+02
2.750000e-06	-2.662582e-06	-3.703348e-09	-1.889662e+01	-2.429963e+02
2.760000e-06	-2.751376e-06	-3.888235e-09	-1.952680e+01	-2.549469e+02
2.770000e-06	-2.839379e-06	-4.069520e-09	-2.015136e+01	-2.664785e+02
2.780000e-06	-2.926620e-06	-4.244015e-09	-2.077052e+01	-2.776026e+02
2.790000e-06	-3.012801e-06	-4.407904e-09	-2.138216e+01	-2.883329e+02
2.800000e-06	-3.097647e-06	-4.560694e-09	-2.198432e+01	-2.986832e+02
2.810000e-06	-3.181322e-06	-4.706630e-09	-2.257817e+01	-3.086648e+02
2.820000e-06	-3.263974e-06	-4.849391e-09	-2.316476e+01	-3.182863e+02
2.830000e-06	-3.345574e-06	-4.991665e-09	-2.374388e+01	-3.275524e+02
2.840000e-06	-3.426072e-06	-5.130937e-09	-2.431518e+01	-3.364651e+02
2.850000e-06	-3.505415e-06	-5.264279e-09	-2.487829e+01	-3.450244e+02
2.860000e-06	-3.583315e-06	-5.391593e-09	-2.543115e+01	-3.532302e+02
2.870000e-06	-3.659589e-06	-5.512901e-09	-2.597248e+01	-3.610836e+02
2.880000e-06	-3.734458e-06	-5.629399e-09	-2.650383e+01	-3.685889e+02
2.890000e-06	-3.808015e-06	-5.738989e-09	-2.702587e+01	-3.757542e+02
2.900000e-06	-3.880297e-06	-5.841894e-09	-2.753886e+01	-3.825926e+02
2.910000e-06	-3.951214e-06	-5.940649e-09	-2.804218e+01	-3.891213e+02
2.920000e-06	-4.020507e-06	-6.036128e-09	-2.853395e+01	-3.953616e+02
2.930000e-06	-4.088221e-06	-6.127720e-09	-2.901453e+01	-4.013366e+02
2.940000e-06	-4.154552e-06	-6.214882e-09	-2.948528e+01	-4.070705e+02
