# Temperatura_=_64.83
# Concentracion g/m^3_=_15000.0
# C_Vs_to_Am_M_A/Vsm_=_65563218390.804596
# pendiente_HvsI_1/m_=_3716.3
# ordenada_HvsI_A/m_=_1297.0
# frecuencia_Hz_=_301590.32765303476

Tiempo_(s)	Campo_(V.s)	Magnetizacion_(V.s)	Campo_(kA/m)	Magnetizacion_(A/m)
0.000000e+00	-5.376375e-06	-6.860647e-09	-3.834128e+01	-4.481621e+02
1.000000e-08	-5.375054e-06	-6.858453e-09	-3.833186e+01	-4.480926e+02
2.000000e-08	-5.371741e-06	-6.852131e-09	-3.830823e+01	-4.479210e+02
3.000000e-08	-5.366696e-06	-6.846556e-09	-3.827225e+01	-4.476409e+02
4.000000e-08	-5.360058e-06	-6.840549e-09	-3.822491e+01	-4.472477e+02
5.000000e-08	-5.351913e-06	-6.831042e-09	-3.816683e+01	-4.467405e+02
6.000000e-08	-5.341913e-06	-6.820419e-09	-3.809551e+01	-4.461218e+02
7.000000e-08	-5.329774e-06	-6.805307e-09	-3.800894e+01	-4.453981e+02
8.000000e-08	-5.315723e-06	-6.787671e-09	-3.790874e+01	-4.445797e+02
9.000000e-08	-5.299590e-06	-6.819670e-09	-3.779369e+01	-4.436789e+02
1.000000e-07	-5.281162e-06	-6.831612e-09	-3.766227e+01	-4.427093e+02
1.100000e-07	-5.260686e-06	-6.785724e-09	-3.751625e+01	-4.416838e+02
1.200000e-07	-5.238370e-06	-6.759964e-09	-3.735710e+01	-4.406130e+02
1.300000e-07	-5.214439e-06	-6.684521e-09	-3.718644e+01	-4.395038e+02
1.400000e-07	-5.189047e-06	-6.628472e-09	-3.700536e+01	-4.383582e+02
1.500000e-07	-5.162011e-06	-6.743740e-09	-3.681255e+01	-4.371732e+02
1.600000e-07	-5.133339e-06	-6.668226e-09	-3.660808e+01	-4.359405e+02
1.700000e-07	-5.103210e-06	-6.603269e-09	-3.639322e+01	-4.346480e+02
1.800000e-07	-5.071385e-06	-6.687272e-09	-3.616626e+01	-4.332802e+02
1.900000e-07	-5.037417e-06	-6.553524e-09	-3.592402e+01	-4.318206e+02
2.000000e-07	-5.001704e-06	-6.553356e-09	-3.566934e+01	-4.302533e+02
2.100000e-07	-4.964539e-06	-6.610058e-09	-3.540429e+01	-4.285645e+02
2.200000e-07	-4.925630e-06	-6.460398e-09	-3.512682e+01	-4.267439e+02
2.300000e-07	-4.884888e-06	-6.444931e-09	-3.483627e+01	-4.247858e+02
2.400000e-07	-4.842163e-06	-6.461035e-09	-3.453158e+01	-4.226893e+02
2.500000e-07	-4.797570e-06	-6.386203e-09	-3.421357e+01	-4.204579e+02
2.600000e-07	-4.751221e-06	-6.406193e-09	-3.388303e+01	-4.180990e+02
2.700000e-07	-4.702984e-06	-6.343353e-09	-3.353903e+01	-4.156222e+02
2.800000e-07	-4.652743e-06	-6.271335e-09	-3.318074e+01	-4.130386e+02
2.900000e-07	-4.600385e-06	-6.255913e-09	-3.280736e+01	-4.103585e+02
3.000000e-07	-4.546149e-06	-6.216073e-09	-3.242057e+01	-4.075906e+02
3.100000e-07	-4.490387e-06	-6.168525e-09	-3.202291e+01	-4.047412e+02
3.200000e-07	-4.432949e-06	-6.138426e-09	-3.161329e+01	-4.018130e+02
3.300000e-07	-4.373689e-06	-6.099163e-09	-3.119069e+01	-3.988057e+02
3.400000e-07	-4.312874e-06	-6.007028e-09	-3.075698e+01	-3.957161e+02
3.500000e-07	-4.250647e-06	-5.977356e-09	-3.031322e+01	-3.925388e+02
3.600000e-07	-4.187012e-06	-5.961366e-09	-2.985941e+01	-3.892673e+02
3.700000e-07	-4.121835e-06	-5.875546e-09	-2.939460e+01	-3.858950e+02
3.800000e-07	-4.054970e-06	-5.818021e-09	-2.891776e+01	-3.824161e+02
3.900000e-07	-3.986560e-06	-5.773617e-09	-2.842990e+01	-3.788265e+02
4.000000e-07	-3.916820e-06	-5.711410e-09	-2.793256e+01	-3.751241e+02
4.100000e-07	-3.845850e-06	-5.656798e-09	-2.742644e+01	-3.713090e+02
4.200000e-07	-3.773691e-06	-5.599279e-09	-2.691184e+01	-3.673833e+02
4.300000e-07	-3.700151e-06	-5.542163e-09	-2.638739e+01	-3.633504e+02
4.400000e-07	-3.624973e-06	-5.467467e-09	-2.585126e+01	-3.592145e+02
4.500000e-07	-3.548262e-06	-5.400779e-09	-2.530421e+01	-3.549798e+02
4.600000e-07	-3.470131e-06	-5.347598e-09	-2.474702e+01	-3.506497e+02
4.700000e-07	-3.390588e-06	-5.291942e-09	-2.417976e+01	-3.462264e+02
4.800000e-07	-3.309762e-06	-5.212407e-09	-2.360336e+01	-3.417104e+02
4.900000e-07	-3.227746e-06	-5.123308e-09	-2.301847e+01	-3.371008e+02
5.000000e-07	-3.144596e-06	-5.064012e-09	-2.242549e+01	-3.323949e+02
5.100000e-07	-3.060465e-06	-4.991997e-09	-2.182551e+01	-3.275887e+02
5.200000e-07	-2.975460e-06	-4.911432e-09	-2.121931e+01	-3.226778e+02
5.300000e-07	-2.889461e-06	-4.835002e-09	-2.060601e+01	-3.176572e+02
5.400000e-07	-2.802407e-06	-4.752643e-09	-1.998519e+01	-3.125221e+02
5.500000e-07	-2.714506e-06	-4.669456e-09	-1.935832e+01	-3.072685e+02
5.600000e-07	-2.625728e-06	-4.589105e-09	-1.872522e+01	-3.018930e+02
5.700000e-07	-2.535803e-06	-4.512237e-09	-1.808392e+01	-2.963931e+02
5.800000e-07	-2.444732e-06	-4.424288e-09	-1.743445e+01	-2.907670e+02
5.900000e-07	-2.352738e-06	-4.330431e-09	-1.677840e+01	-2.850137e+02
6.000000e-07	-2.260033e-06	-4.239326e-09	-1.611729e+01	-2.791326e+02
6.100000e-07	-2.166605e-06	-4.152125e-09	-1.545101e+01	-2.731236e+02
6.200000e-07	-2.072381e-06	-4.059437e-09	-1.477906e+01	-2.669863e+02
6.300000e-07	-1.977416e-06	-3.962492e-09	-1.410182e+01	-2.607208e+02
6.400000e-07	-1.881772e-06	-3.864487e-09	-1.341974e+01	-2.543268e+02
6.500000e-07	-1.785455e-06	-3.763635e-09	-1.273286e+01	-2.478042e+02
6.600000e-07	-1.688495e-06	-3.663535e-09	-1.204140e+01	-2.411527e+02
6.700000e-07	-1.590866e-06	-3.560806e-09	-1.134516e+01	-2.343720e+02
6.800000e-07	-1.492544e-06	-3.453186e-09	-1.064398e+01	-2.274617e+02
6.900000e-07	-1.393551e-06	-3.339207e-09	-9.938017e+00	-2.204208e+02
7.000000e-07	-1.293975e-06	-3.227243e-09	-9.227898e+00	-2.132480e+02
7.100000e-07	-1.193965e-06	-3.119796e-09	-8.514689e+00	-2.059412e+02
7.200000e-07	-1.093640e-06	-3.010593e-09	-7.799221e+00	-1.984971e+02
7.300000e-07	-9.931030e-07	-2.895286e-09	-7.082251e+00	-1.909113e+02
7.400000e-07	-8.923134e-07	-2.776567e-09	-6.363477e+00	-1.831780e+02
7.500000e-07	-7.912186e-07	-2.653322e-09	-5.642525e+00	-1.752897e+02
7.600000e-07	-6.898619e-07	-2.527320e-09	-4.919706e+00	-1.672383e+02
7.700000e-07	-5.882491e-07	-2.402155e-09	-4.195061e+00	-1.590143e+02
7.800000e-07	-4.864151e-07	-2.274888e-09	-3.468838e+00	-1.506084e+02
7.900000e-07	-3.844128e-07	-2.144022e-09	-2.741416e+00	-1.420112e+02
8.000000e-07	-2.822685e-07	-2.006896e-09	-2.012980e+00	-1.332141e+02
8.100000e-07	-1.800222e-07	-1.868138e-09	-1.283817e+00	-1.242099e+02
8.200000e-07	-7.768085e-08	-1.728391e-09	-5.539760e-01	-1.149924e+02
8.300000e-07	2.473559e-08	-1.584045e-09	1.764003e-01	-1.055574e+02
8.400000e-07	1.271636e-07	-1.434881e-09	9.068590e-01	-9.590144e+01
8.500000e-07	2.295659e-07	-1.281528e-09	1.637135e+00	-8.602221e+01
8.600000e-07	3.319063e-07	-1.125831e-09	2.366969e+00	-7.591743e+01
8.700000e-07	4.341271e-07	-9.677261e-10	3.095950e+00	-6.558443e+01
8.800000e-07	5.362380e-07	-8.062196e-10	3.824147e+00	-5.501962e+01
8.900000e-07	6.382176e-07	-6.406864e-10	4.551409e+00	-4.421820e+01
9.000000e-07	7.399227e-07	-4.707247e-10	5.276712e+00	-3.317426e+01
9.100000e-07	8.413156e-07	-2.959431e-10	5.999789e+00	-2.188127e+01
9.200000e-07	9.424285e-07	-1.180509e-10	6.720869e+00	-1.033314e+01
9.300000e-07	1.043249e-06	6.139953e-11	7.439864e+00	1.474461e+00
9.400000e-07	1.143782e-06	2.435961e-10	8.156810e+00	1.354238e+01
9.500000e-07	1.243964e-06	4.289124e-10	8.871252e+00	2.586614e+01
9.600000e-07	1.343738e-06	6.172470e-10	9.582782e+00	3.843426e+01
9.700000e-07	1.443003e-06	8.073537e-10	1.029068e+01	5.122684e+01
9.800000e-07	1.541620e-06	1.000655e-09	1.099396e+01	6.421469e+01
9.900000e-07	1.639503e-06	1.197249e-09	1.169201e+01	7.735922e+01
1.000000e-06	1.736685e-06	1.397786e-09	1.238506e+01	9.061299e+01
1.010000e-06	1.833130e-06	1.599318e-09	1.307285e+01	1.039212e+02
1.020000e-06	1.928775e-06	1.800543e-09	1.375494e+01	1.172240e+02
1.030000e-06	2.023777e-06	2.001168e-09	1.443243e+01	1.304587e+02
1.040000e-06	2.118154e-06	2.198983e-09	1.510548e+01	1.435632e+02
1.050000e-06	2.211751e-06	2.394311e-09	1.577297e+01	1.564786e+02
1.060000e-06	2.304638e-06	2.584822e-09	1.643538e+01	1.691522e+02
1.070000e-06	2.396885e-06	2.770412e-09	1.709324e+01	1.815390e+02
1.080000e-06	2.488327e-06	2.951718e-09	1.774535e+01	1.936038e+02
1.090000e-06	2.578750e-06	3.128211e-09	1.839019e+01	2.053208e+02
1.100000e-06	2.668024e-06	3.302428e-09	1.902685e+01	2.166740e+02
1.110000e-06	2.756226e-06	3.471938e-09	1.965585e+01	2.276555e+02
1.120000e-06	2.843527e-06	3.636561e-09	2.027843e+01	2.382643e+02
1.130000e-06	2.929940e-06	3.794531e-09	2.089468e+01	2.485036e+02
1.140000e-06	3.015405e-06	3.945830e-09	2.150417e+01	2.583796e+02
1.150000e-06	3.099940e-06	4.091619e-09	2.210702e+01	2.678989e+02
1.160000e-06	3.183507e-06	4.231056e-09	2.270298e+01	2.770677e+02
1.170000e-06	3.265987e-06	4.364071e-09	2.329118e+01	2.858908e+02
1.180000e-06	3.347215e-06	4.491212e-09	2.387045e+01	2.943714e+02
1.190000e-06	3.427218e-06	4.614113e-09	2.444099e+01	3.025118e+02
1.200000e-06	3.506012e-06	4.731798e-09	2.500290e+01	3.103140e+02
1.210000e-06	3.583589e-06	4.845305e-09	2.555614e+01	3.177812e+02
1.220000e-06	3.659937e-06	4.953911e-09	2.610061e+01	3.249189e+02
1.230000e-06	3.734824e-06	5.058061e-09	2.663466e+01	3.317355e+02
1.240000e-06	3.808084e-06	5.155845e-09	2.715711e+01	3.382437e+02
1.250000e-06	3.879857e-06	5.247993e-09	2.766895e+01	3.444595e+02
1.260000e-06	3.950309e-06	5.337107e-09	2.817138e+01	3.504024e+02
1.270000e-06	4.019431e-06	5.424921e-09	2.866431e+01	3.560943e+02
1.280000e-06	4.087164e-06	5.509623e-09	2.914735e+01	3.615574e+02
1.290000e-06	4.153285e-06	5.589508e-09	2.961889e+01	3.668133e+02
1.300000e-06	4.217747e-06	5.665019e-09	3.007860e+01	3.718807e+02
1.310000e-06	4.280758e-06	5.738699e-09	3.052795e+01	3.767746e+02
1.320000e-06	4.342378e-06	5.811828e-09	3.096739e+01	3.815047e+02
1.330000e-06	4.402618e-06	5.882442e-09	3.139699e+01	3.860758e+02
1.340000e-06	4.461283e-06	5.949989e-09	3.181536e+01	3.904876e+02
1.350000e-06	4.518126e-06	6.014771e-09	3.222073e+01	3.947357e+02
1.360000e-06	4.573298e-06	6.075570e-09	3.261419e+01	3.988128e+02
1.370000e-06	4.626902e-06	6.131950e-09	3.299646e+01	4.027108e+02
1.380000e-06	4.678629e-06	6.184480e-09	3.336535e+01	4.064218e+02
1.390000e-06	4.728260e-06	6.234937e-09	3.371929e+01	4.099402e+02
1.400000e-06	4.776061e-06	6.285116e-09	3.406018e+01	4.132634e+02
1.410000e-06	4.822269e-06	6.333133e-09	3.438971e+01	4.163927e+02
1.420000e-06	4.866946e-06	6.378456e-09	3.470832e+01	4.193329e+02
1.430000e-06	4.909996e-06	6.422258e-09	3.501533e+01	4.220922e+02
1.440000e-06	4.951138e-06	6.461244e-09	3.530873e+01	4.246810e+02
1.450000e-06	4.990470e-06	6.496456e-09	3.558922e+01	4.271109e+02
1.460000e-06	5.028198e-06	6.529651e-09	3.585827e+01	4.293928e+02
1.470000e-06	5.064341e-06	6.559830e-09	3.611603e+01	4.315365e+02
1.480000e-06	5.098617e-06	6.587940e-09	3.636047e+01	4.335489e+02
1.490000e-06	5.130898e-06	6.613343e-09	3.659067e+01	4.354345e+02
1.500000e-06	5.161417e-06	6.637597e-09	3.680832e+01	4.371947e+02
1.510000e-06	5.190269e-06	6.661503e-09	3.701407e+01	4.388288e+02
1.520000e-06	5.217344e-06	6.684636e-09	3.720716e+01	4.403347e+02
1.530000e-06	5.242366e-06	6.706408e-09	3.738560e+01	4.417098e+02
1.540000e-06	5.265424e-06	6.724861e-09	3.755004e+01	4.429524e+02
1.550000e-06	5.286744e-06	6.740968e-09	3.770208e+01	4.440626e+02
1.560000e-06	5.306310e-06	6.754989e-09	3.784161e+01	4.450426e+02
1.570000e-06	5.323964e-06	6.767087e-09	3.796751e+01	4.458972e+02
1.580000e-06	5.339624e-06	6.777460e-09	3.807919e+01	4.466336e+02
1.590000e-06	5.353343e-06	6.787319e-09	3.817702e+01	4.472601e+02
1.600000e-06	5.364979e-06	6.798155e-09	3.826000e+01	4.477857e+02
1.610000e-06	5.374394e-06	6.807642e-09	3.832715e+01	4.482188e+02
1.620000e-06	5.381780e-06	6.814816e-09	3.837982e+01	4.485656e+02
1.630000e-06	5.387365e-06	6.819823e-09	3.841965e+01	4.488301e+02
1.640000e-06	5.391185e-06	6.822917e-09	3.844689e+01	4.490128e+02
1.650000e-06	5.393023e-06	6.826489e-09	3.846000e+01	4.491112e+02
1.660000e-06	5.392861e-06	6.827813e-09	3.845885e+01	4.491203e+02
1.670000e-06	5.390962e-06	6.823176e-09	3.844531e+01	4.490331e+02
1.680000e-06	5.387454e-06	6.819858e-09	3.842029e+01	4.488426e+02
1.690000e-06	5.382087e-06	6.814200e-09	3.838201e+01	4.485425e+02
1.700000e-06	5.374786e-06	6.809064e-09	3.832994e+01	4.481290e+02
1.710000e-06	5.365884e-06	6.805286e-09	3.826646e+01	4.476016e+02
1.720000e-06	5.355387e-06	6.802607e-09	3.819160e+01	4.469636e+02
1.730000e-06	5.342980e-06	6.811201e-09	3.810313e+01	4.462222e+02
1.740000e-06	5.328541e-06	6.761438e-09	3.800015e+01	4.453881e+02
1.750000e-06	5.312108e-06	6.707725e-09	3.788296e+01	4.444740e+02
1.760000e-06	5.293287e-06	6.721778e-09	3.774874e+01	4.434936e+02
1.770000e-06	5.271774e-06	6.708443e-09	3.759532e+01	4.424593e+02
1.780000e-06	5.248189e-06	6.766258e-09	3.742713e+01	4.413813e+02
1.790000e-06	5.223541e-06	6.754027e-09	3.725135e+01	4.402656e+02
1.800000e-06	5.198118e-06	6.584650e-09	3.707005e+01	4.391134e+02
1.810000e-06	5.170967e-06	6.668289e-09	3.687642e+01	4.379206e+02
1.820000e-06	5.141504e-06	6.646335e-09	3.666631e+01	4.366783e+02
1.830000e-06	5.110384e-06	6.537955e-09	3.644438e+01	4.353735e+02
1.840000e-06	5.077593e-06	6.691806e-09	3.621053e+01	4.339906e+02
1.850000e-06	5.042993e-06	6.597973e-09	3.596378e+01	4.325129e+02
1.860000e-06	5.006867e-06	6.516896e-09	3.570615e+01	4.309249e+02
1.870000e-06	4.968832e-06	6.653603e-09	3.543491e+01	4.292132e+02
1.880000e-06	4.928970e-06	6.505286e-09	3.515064e+01	4.273683e+02
1.890000e-06	4.887460e-06	6.472193e-09	3.485461e+01	4.253855e+02
1.900000e-06	4.844102e-06	6.489221e-09	3.454540e+01	4.232645e+02
1.910000e-06	4.799111e-06	6.343285e-09	3.422456e+01	4.210098e+02
1.920000e-06	4.752194e-06	6.423272e-09	3.388997e+01	4.186291e+02
1.930000e-06	4.703358e-06	6.350297e-09	3.354170e+01	4.161324e+02
1.940000e-06	4.653011e-06	6.285421e-09	3.318265e+01	4.135309e+02
1.950000e-06	4.600749e-06	6.326756e-09	3.280995e+01	4.108345e+02
1.960000e-06	4.546399e-06	6.212221e-09	3.242236e+01	4.080518e+02
1.970000e-06	4.490193e-06	6.169621e-09	3.202153e+01	4.051882e+02
1.980000e-06	4.432354e-06	6.112920e-09	3.160905e+01	4.022460e+02
1.990000e-06	4.373133e-06	6.107387e-09	3.118672e+01	3.992243e+02
2.000000e-06	4.312294e-06	6.063107e-09	3.075285e+01	3.961195e+02
2.010000e-06	4.249749e-06	5.949814e-09	3.030681e+01	3.929259e+02
2.020000e-06	4.185658e-06	5.983961e-09	2.984976e+01	3.896369e+02
2.030000e-06	4.120084e-06	5.893334e-09	2.938212e+01	3.862460e+02
2.040000e-06	4.053123e-06	5.823011e-09	2.890459e+01	3.827475e+02
2.050000e-06	3.984619e-06	5.806690e-09	2.841606e+01	3.791379e+02
2.060000e-06	3.914558e-06	5.734697e-09	2.791642e+01	3.754154e+02
2.070000e-06	3.843142e-06	5.687315e-09	2.740712e+01	3.715804e+02
2.080000e-06	3.770468e-06	5.584250e-09	2.688885e+01	3.676353e+02
2.090000e-06	3.696470e-06	5.551973e-09	2.636114e+01	3.635837e+02
2.100000e-06	3.621030e-06	5.503977e-09	2.582315e+01	3.594299e+02
2.110000e-06	3.544034e-06	5.411084e-09	2.527406e+01	3.551779e+02
2.120000e-06	3.465529e-06	5.337959e-09	2.471420e+01	3.508310e+02
2.130000e-06	3.385797e-06	5.280821e-09	2.414560e+01	3.463912e+02
2.140000e-06	3.304903e-06	5.235932e-09	2.356871e+01	3.418587e+02
2.150000e-06	3.222902e-06	5.146096e-09	2.298392e+01	3.372322e+02
2.160000e-06	3.139899e-06	5.091744e-09	2.239199e+01	3.325087e+02
2.170000e-06	3.055827e-06	5.018012e-09	2.179244e+01	3.276842e+02
2.180000e-06	2.970517e-06	4.926021e-09	2.118405e+01	3.227540e+02
2.190000e-06	2.883890e-06	4.846675e-09	2.056628e+01	3.177133e+02
2.200000e-06	2.796174e-06	4.768961e-09	1.994074e+01	3.125574e+02
2.210000e-06	2.707555e-06	4.703295e-09	1.930876e+01	3.072823e+02
2.220000e-06	2.618038e-06	4.613495e-09	1.867037e+01	3.018848e+02
2.230000e-06	2.527622e-06	4.531575e-09	1.802557e+01	2.963624e+02
2.240000e-06	2.436384e-06	4.450402e-09	1.737492e+01	2.907137e+02
2.250000e-06	2.344389e-06	4.365711e-09	1.671886e+01	2.849376e+02
2.260000e-06	2.251589e-06	4.276159e-09	1.605706e+01	2.790337e+02
2.270000e-06	2.157870e-06	4.182286e-09	1.538871e+01	2.730018e+02
2.280000e-06	2.063111e-06	4.082726e-09	1.471295e+01	2.668417e+02
2.290000e-06	1.967438e-06	3.980872e-09	1.403066e+01	2.605532e+02
2.300000e-06	1.871154e-06	3.886790e-09	1.334401e+01	2.541363e+02
2.310000e-06	1.774407e-06	3.790568e-09	1.265407e+01	2.475908e+02
2.320000e-06	1.677169e-06	3.691901e-09	1.196063e+01	2.409163e+02
2.330000e-06	1.579339e-06	3.586483e-09	1.126296e+01	2.341125e+02
2.340000e-06	1.480954e-06	3.484704e-09	1.056133e+01	2.271789e+02
2.350000e-06	1.382106e-06	3.379561e-09	9.856402e+00	2.201146e+02
2.360000e-06	1.282858e-06	3.269006e-09	9.148621e+00	2.129181e+02
2.370000e-06	1.183255e-06	3.158567e-09	8.438310e+00	2.055870e+02
2.380000e-06	1.083338e-06	3.040926e-09	7.725756e+00	1.981181e+02
2.390000e-06	9.831494e-07	2.917897e-09	7.011268e+00	1.905064e+02
2.400000e-06	8.825931e-07	2.800175e-09	6.294157e+00	1.827460e+02
2.410000e-06	7.816138e-07	2.687203e-09	5.574030e+00	1.748293e+02
2.420000e-06	6.803242e-07	2.569143e-09	4.851689e+00	1.667477e+02
2.430000e-06	5.787866e-07	2.441218e-09	4.127580e+00	1.584920e+02
2.440000e-06	4.770091e-07	2.310275e-09	3.401760e+00	1.500526e+02
2.450000e-06	3.749653e-07	2.182949e-09	2.674041e+00	1.414204e+02
2.460000e-06	2.726888e-07	2.048605e-09	1.944663e+00	1.325868e+02
2.470000e-06	1.702529e-07	1.909131e-09	1.214148e+00	1.235449e+02
2.480000e-06	6.770125e-08	1.768267e-09	4.828072e-01	1.142889e+02
2.490000e-06	-3.492879e-08	1.622837e-09	-2.490924e-01	1.048146e+02
2.500000e-06	-1.375528e-07	1.475567e-09	-9.809492e-01	9.511902e+01
2.510000e-06	-2.400753e-07	1.326875e-09	-1.712081e+00	8.519971e+01
2.520000e-06	-3.424614e-07	1.176522e-09	-2.442242e+00	7.505441e+01
2.530000e-06	-4.447088e-07	1.022165e-09	-3.171413e+00	6.468033e+01
2.540000e-06	-5.468028e-07	8.613515e-10	-3.899489e+00	5.407368e+01
2.550000e-06	-6.486459e-07	6.967432e-10	-4.625777e+00	4.322943e+01
2.560000e-06	-7.501519e-07	5.299466e-10	-5.349661e+00	3.214152e+01
2.570000e-06	-8.512770e-07	3.561708e-10	-6.070828e+00	2.080342e+01
2.580000e-06	-9.519916e-07	1.766914e-10	-6.789068e+00	9.209212e+00
2.590000e-06	-1.052321e-06	-6.950112e-12	-7.504560e+00	-2.644922e+00
2.600000e-06	-1.152290e-06	-1.947941e-10	-8.217483e+00	-1.475901e+01
2.610000e-06	-1.251818e-06	-3.844978e-10	-8.927258e+00	-2.712745e+01
2.620000e-06	-1.350875e-06	-5.766551e-10	-9.633678e+00	-3.973735e+01
2.630000e-06	-1.449477e-06	-7.729140e-10	-1.033685e+01	-5.256720e+01
2.640000e-06	-1.547638e-06	-9.746212e-10	-1.103688e+01	-6.558611e+01
2.650000e-06	-1.645284e-06	-1.178755e-09	-1.173324e+01	-7.875383e+01
2.660000e-06	-1.742285e-06	-1.383925e-09	-1.242500e+01	-9.202151e+01
2.670000e-06	-1.838726e-06	-1.591437e-09	-1.311276e+01	-1.053333e+02
2.680000e-06	-1.934680e-06	-1.799546e-09	-1.379705e+01	-1.186285e+02
2.690000e-06	-2.030042e-06	-2.005976e-09	-1.447712e+01	-1.318444e+02
2.700000e-06	-2.124636e-06	-2.209864e-09	-1.515170e+01	-1.449192e+02
2.710000e-06	-2.218316e-06	-2.409071e-09	-1.581978e+01	-1.577951e+02
2.720000e-06	-2.311032e-06	-2.601438e-09	-1.648098e+01	-1.704205e+02
2.730000e-06	-2.402784e-06	-2.788786e-09	-1.713530e+01	-1.827521e+02
2.740000e-06	-2.493675e-06	-2.969965e-09	-1.778349e+01	-1.947564e+02
2.750000e-06	-2.583722e-06	-3.144389e-09	-1.842565e+01	-2.064093e+02
2.760000e-06	-2.672840e-06	-3.315008e-09	-1.906119e+01	-2.176965e+02
2.770000e-06	-2.761113e-06	-3.483119e-09	-1.969070e+01	-2.286114e+02
2.780000e-06	-2.848591e-06	-3.647131e-09	-2.031455e+01	-2.391538e+02
2.790000e-06	-2.935116e-06	-3.804940e-09	-2.093160e+01	-2.493277e+02
2.800000e-06	-3.020450e-06	-3.954917e-09	-2.154015e+01	-2.591395e+02
2.810000e-06	-3.104527e-06	-4.097502e-09	-2.213974e+01	-2.685958e+02
2.820000e-06	-3.187537e-06	-4.233727e-09	-2.273171e+01	-2.777025e+02
2.830000e-06	-3.269536e-06	-4.364340e-09	-2.331649e+01	-2.864642e+02
2.840000e-06	-3.350487e-06	-4.493047e-09	-2.389379e+01	-2.948839e+02
2.850000e-06	-3.430334e-06	-4.620142e-09	-2.446321e+01	-3.029637e+02
2.860000e-06	-3.508973e-06	-4.742906e-09	-2.502402e+01	-3.107058e+02
2.870000e-06	-3.586157e-06	-4.857694e-09	-2.557445e+01	-3.181137e+02
2.880000e-06	-3.661791e-06	-4.964990e-09	-2.611383e+01	-3.251932e+02
2.890000e-06	-3.736026e-06	-5.068369e-09	-2.664323e+01	-3.319538e+02
2.900000e-06	-3.808909e-06	-5.166484e-09	-2.716300e+01	-3.384084e+02
2.910000e-06	-3.880508e-06	-5.260197e-09	-2.767360e+01	-3.445739e+02
2.920000e-06	-3.950632e-06	-5.350477e-09	-2.817368e+01	-3.504704e+02
2.930000e-06	-4.019073e-06	-5.436282e-09	-2.866176e+01	-3.561198e+02
2.940000e-06	-4.086079e-06	-5.519136e-09	-2.913961e+01	-3.615443e+02
