# Temperatura_=_37.44
# Concentracion g/m^3_=_15000.0
# C_Vs_to_Am_M_A/Vsm_=_65563218390.804596
# pendiente_HvsI_1/m_=_3716.3
# ordenada_HvsI_A/m_=_1297.0
# frecuencia_Hz_=_301594.96339684987

Tiempo_(s)	Campo_(V.s)	Magnetizacion_(V.s)	Campo_(kA/m)	Magnetizacion_(A/m)
0.000000e+00	-5.377457e-06	-5.787166e-09	-3.833177e+01	-3.782780e+02
1.000000e-08	-5.374735e-06	-5.787092e-09	-3.831237e+01	-3.782041e+02
2.000000e-08	-5.370206e-06	-5.781198e-09	-3.828008e+01	-3.780487e+02
3.000000e-08	-5.364075e-06	-5.774788e-09	-3.823638e+01	-3.778084e+02
4.000000e-08	-5.356335e-06	-5.770134e-09	-3.818120e+01	-3.774817e+02
5.000000e-08	-5.346804e-06	-5.764168e-09	-3.811326e+01	-3.770698e+02
6.000000e-08	-5.335237e-06	-5.755102e-09	-3.803082e+01	-3.765766e+02
7.000000e-08	-5.321815e-06	-5.742286e-09	-3.793514e+01	-3.760089e+02
8.000000e-08	-5.306375e-06	-5.732800e-09	-3.782508e+01	-3.753749e+02
9.000000e-08	-5.288599e-06	-5.760021e-09	-3.769837e+01	-3.746845e+02
1.000000e-07	-5.268714e-06	-5.760826e-09	-3.755662e+01	-3.739471e+02
1.100000e-07	-5.246956e-06	-5.717684e-09	-3.740152e+01	-3.731710e+02
1.200000e-07	-5.223512e-06	-5.696615e-09	-3.723441e+01	-3.723623e+02
1.300000e-07	-5.198604e-06	-5.643799e-09	-3.705686e+01	-3.715236e+02
1.400000e-07	-5.172076e-06	-5.615791e-09	-3.686777e+01	-3.706543e+02
1.500000e-07	-5.143866e-06	-5.691924e-09	-3.666668e+01	-3.697498e+02
1.600000e-07	-5.114216e-06	-5.628726e-09	-3.645533e+01	-3.688022e+02
1.700000e-07	-5.082994e-06	-5.593668e-09	-3.623277e+01	-3.678015e+02
1.800000e-07	-5.049652e-06	-5.642891e-09	-3.599510e+01	-3.667359e+02
1.900000e-07	-5.014346e-06	-5.532111e-09	-3.574343e+01	-3.655939e+02
2.000000e-07	-4.977630e-06	-5.520360e-09	-3.548171e+01	-3.643650e+02
2.100000e-07	-4.939228e-06	-5.571349e-09	-3.520797e+01	-3.630407e+02
2.200000e-07	-4.899055e-06	-5.523238e-09	-3.492161e+01	-3.616156e+02
2.300000e-07	-4.856990e-06	-5.507477e-09	-3.462176e+01	-3.600877e+02
2.400000e-07	-4.812932e-06	-5.453881e-09	-3.430771e+01	-3.584580e+02
2.500000e-07	-4.767114e-06	-5.396543e-09	-3.398110e+01	-3.567304e+02
2.600000e-07	-4.719448e-06	-5.412479e-09	-3.364132e+01	-3.549105e+02
2.700000e-07	-4.669784e-06	-5.374254e-09	-3.328731e+01	-3.530052e+02
2.800000e-07	-4.617983e-06	-5.362210e-09	-3.291806e+01	-3.510209e+02
2.900000e-07	-4.564218e-06	-5.318322e-09	-3.253481e+01	-3.489633e+02
3.000000e-07	-4.508907e-06	-5.239399e-09	-3.214054e+01	-3.468359e+02
3.100000e-07	-4.451970e-06	-5.247434e-09	-3.173468e+01	-3.446401e+02
3.200000e-07	-4.393132e-06	-5.260386e-09	-3.131527e+01	-3.423749e+02
3.300000e-07	-4.332724e-06	-5.215509e-09	-3.088467e+01	-3.400373e+02
3.400000e-07	-4.270901e-06	-5.134402e-09	-3.044398e+01	-3.376227e+02
3.500000e-07	-4.207680e-06	-5.085946e-09	-2.999333e+01	-3.351259e+02
3.600000e-07	-4.143067e-06	-5.061258e-09	-2.953275e+01	-3.325418e+02
3.700000e-07	-4.076767e-06	-5.034240e-09	-2.906015e+01	-3.298660e+02
3.800000e-07	-4.008786e-06	-5.007949e-09	-2.857556e+01	-3.270958e+02
3.900000e-07	-3.939423e-06	-4.946996e-09	-2.808113e+01	-3.242304e+02
4.000000e-07	-3.868817e-06	-4.877603e-09	-2.757783e+01	-3.212707e+02
4.100000e-07	-3.796998e-06	-4.827152e-09	-2.706589e+01	-3.182194e+02
4.200000e-07	-3.723847e-06	-4.794816e-09	-2.654445e+01	-3.150802e+02
4.300000e-07	-3.649133e-06	-4.770137e-09	-2.601187e+01	-3.118575e+02
4.400000e-07	-3.572889e-06	-4.714170e-09	-2.546839e+01	-3.085551e+02
4.500000e-07	-3.495225e-06	-4.642853e-09	-2.491478e+01	-3.051762e+02
4.600000e-07	-3.416158e-06	-4.580617e-09	-2.435117e+01	-3.017222e+02
4.700000e-07	-3.335691e-06	-4.540020e-09	-2.377758e+01	-2.981928e+02
4.800000e-07	-3.253959e-06	-4.505723e-09	-2.319498e+01	-2.945858e+02
4.900000e-07	-3.171110e-06	-4.445157e-09	-2.260441e+01	-2.908976e+02
5.000000e-07	-3.087231e-06	-4.373279e-09	-2.200650e+01	-2.871230e+02
5.100000e-07	-3.002448e-06	-4.301108e-09	-2.140215e+01	-2.832565e+02
5.200000e-07	-2.916753e-06	-4.243716e-09	-2.079130e+01	-2.792925e+02
5.300000e-07	-2.830096e-06	-4.193082e-09	-2.017359e+01	-2.752260e+02
5.400000e-07	-2.742539e-06	-4.132540e-09	-1.954946e+01	-2.710532e+02
5.500000e-07	-2.654066e-06	-4.056816e-09	-1.891880e+01	-2.667715e+02
5.600000e-07	-2.564405e-06	-3.971631e-09	-1.827967e+01	-2.623799e+02
5.700000e-07	-2.473543e-06	-3.905228e-09	-1.763199e+01	-2.578785e+02
5.800000e-07	-2.381782e-06	-3.858117e-09	-1.697790e+01	-2.532684e+02
5.900000e-07	-2.289302e-06	-3.803424e-09	-1.631868e+01	-2.485511e+02
6.000000e-07	-2.196071e-06	-3.722541e-09	-1.565411e+01	-2.437279e+02
6.100000e-07	-2.102013e-06	-3.633357e-09	-1.498364e+01	-2.387996e+02
6.200000e-07	-2.007198e-06	-3.550592e-09	-1.430778e+01	-2.337661e+02
6.300000e-07	-1.911780e-06	-3.472958e-09	-1.362761e+01	-2.286261e+02
6.400000e-07	-1.815754e-06	-3.397847e-09	-1.294312e+01	-2.233774e+02
6.500000e-07	-1.718972e-06	-3.319332e-09	-1.225323e+01	-2.180164e+02
6.600000e-07	-1.621389e-06	-3.232199e-09	-1.155764e+01	-2.125395e+02
6.700000e-07	-1.523037e-06	-3.137155e-09	-1.085656e+01	-2.069423e+02
6.800000e-07	-1.424080e-06	-3.049309e-09	-1.015118e+01	-2.012210e+02
6.900000e-07	-1.324619e-06	-2.969434e-09	-9.442190e+00	-1.953720e+02
7.000000e-07	-1.224706e-06	-2.884487e-09	-8.729987e+00	-1.893929e+02
7.100000e-07	-1.124478e-06	-2.786050e-09	-8.015543e+00	-1.832817e+02
7.200000e-07	-1.023993e-06	-2.682459e-09	-7.299259e+00	-1.770372e+02
7.300000e-07	-9.232562e-07	-2.584291e-09	-6.581185e+00	-1.706589e+02
7.400000e-07	-8.222517e-07	-2.489890e-09	-5.861202e+00	-1.641460e+02
7.500000e-07	-7.209657e-07	-2.393348e-09	-5.139212e+00	-1.574973e+02
7.600000e-07	-6.193500e-07	-2.287785e-09	-4.414871e+00	-1.507108e+02
7.700000e-07	-5.174084e-07	-2.175339e-09	-3.688208e+00	-1.437831e+02
7.800000e-07	-4.152642e-07	-2.063657e-09	-2.960100e+00	-1.367094e+02
7.900000e-07	-3.130253e-07	-1.957479e-09	-2.231317e+00	-1.294829e+02
8.000000e-07	-2.107232e-07	-1.852862e-09	-1.502084e+00	-1.220954e+02
8.100000e-07	-1.083592e-07	-1.742388e-09	-7.724099e-01	-1.145372e+02
8.200000e-07	-5.922034e-09	-1.621206e-09	-4.221364e-02	-1.067975e+02
8.300000e-07	9.659035e-08	-1.493875e-09	6.885186e-01	-9.886514e+01
8.400000e-07	1.990675e-07	-1.368529e-09	1.418999e+00	-9.072851e+01
8.500000e-07	3.014268e-07	-1.247583e-09	2.148640e+00	-8.237655e+01
8.600000e-07	4.037128e-07	-1.124543e-09	2.877759e+00	-7.379900e+01
8.700000e-07	5.059491e-07	-9.905479e-10	3.606523e+00	-6.498684e+01
8.800000e-07	6.080667e-07	-8.484433e-10	4.334441e+00	-5.593265e+01
8.900000e-07	7.100226e-07	-7.036471e-10	5.061207e+00	-4.663090e+01
9.000000e-07	8.117170e-07	-5.559373e-10	5.786109e+00	-3.707827e+01
9.100000e-07	9.130243e-07	-4.041997e-10	6.508250e+00	-2.727396e+01
9.200000e-07	1.013951e-06	-2.498055e-10	7.227676e+00	-1.722002e+01
9.300000e-07	1.114516e-06	-9.244511e-11	7.944534e+00	-6.921710e+00
9.400000e-07	1.214758e-06	6.946611e-11	8.659080e+00	3.612063e+00
9.500000e-07	1.314690e-06	2.334497e-10	9.371420e+00	1.436835e+01
9.600000e-07	1.414253e-06	3.963995e-10	1.008112e+01	2.532977e+01
9.700000e-07	1.513208e-06	5.625045e-10	1.078650e+01	3.647427e+01
9.800000e-07	1.611332e-06	7.362929e-10	1.148595e+01	4.777497e+01
9.900000e-07	1.708619e-06	9.157741e-10	1.217943e+01	5.920026e+01
1.000000e-06	1.805158e-06	1.094205e-09	1.286759e+01	7.071416e+01
1.010000e-06	1.901017e-06	1.269760e-09	1.355089e+01	8.227690e+01
1.020000e-06	1.996250e-06	1.445039e-09	1.422974e+01	9.384578e+01
1.030000e-06	2.090824e-06	1.620996e-09	1.490388e+01	1.053763e+02
1.040000e-06	2.184639e-06	1.797706e-09	1.557261e+01	1.168232e+02
1.050000e-06	2.277715e-06	1.972654e-09	1.623608e+01	1.281419e+02
1.060000e-06	2.370109e-06	2.143407e-09	1.689469e+01	1.392899e+02
1.070000e-06	2.461863e-06	2.307444e-09	1.754874e+01	1.502275e+02
1.080000e-06	2.552732e-06	2.467387e-09	1.819647e+01	1.609191e+02
1.090000e-06	2.642425e-06	2.627067e-09	1.883582e+01	1.713336e+02
1.100000e-06	2.730952e-06	2.784578e-09	1.946687e+01	1.814452e+02
1.110000e-06	2.818529e-06	2.935187e-09	2.009113e+01	1.912332e+02
1.120000e-06	2.905279e-06	3.079071e-09	2.070951e+01	2.006823e+02
1.130000e-06	2.991054e-06	3.217027e-09	2.132093e+01	2.097818e+02
1.140000e-06	3.075830e-06	3.350976e-09	2.192524e+01	2.185260e+02
1.150000e-06	3.159728e-06	3.479869e-09	2.252328e+01	2.269129e+02
1.160000e-06	3.242675e-06	3.601652e-09	2.311454e+01	2.349447e+02
1.170000e-06	3.324374e-06	3.715061e-09	2.369691e+01	2.426267e+02
1.180000e-06	3.404779e-06	3.821687e-09	2.427006e+01	2.499673e+02
1.190000e-06	3.483971e-06	3.925358e-09	2.483456e+01	2.569775e+02
1.200000e-06	3.561927e-06	4.026762e-09	2.539025e+01	2.636709e+02
1.210000e-06	3.638699e-06	4.127016e-09	2.593749e+01	2.700628e+02
1.220000e-06	3.714128e-06	4.221601e-09	2.647517e+01	2.761704e+02
1.230000e-06	3.787931e-06	4.308492e-09	2.700126e+01	2.820117e+02
1.240000e-06	3.860151e-06	4.390461e-09	2.751606e+01	2.876054e+02
1.250000e-06	3.930964e-06	4.472337e-09	2.802083e+01	2.929697e+02
1.260000e-06	4.000404e-06	4.554602e-09	2.851582e+01	2.981214e+02
1.270000e-06	4.068562e-06	4.632524e-09	2.900166e+01	3.030759e+02
1.280000e-06	4.135316e-06	4.703850e-09	2.947749e+01	3.078455e+02
1.290000e-06	4.200322e-06	4.771038e-09	2.994088e+01	3.124397e+02
1.300000e-06	4.263725e-06	4.836572e-09	3.039282e+01	3.168642e+02
1.310000e-06	4.325740e-06	4.901784e-09	3.083489e+01	3.211217e+02
1.320000e-06	4.386382e-06	4.965740e-09	3.126716e+01	3.252116e+02
1.330000e-06	4.445603e-06	5.025925e-09	3.168929e+01	3.291311e+02
1.340000e-06	4.503067e-06	5.081353e-09	3.209891e+01	3.328758e+02
1.350000e-06	4.558819e-06	5.133611e-09	3.249632e+01	3.364409e+02
1.360000e-06	4.612982e-06	5.183446e-09	3.288241e+01	3.398224e+02
1.370000e-06	4.665328e-06	5.229211e-09	3.325555e+01	3.430175e+02
1.380000e-06	4.715672e-06	5.270852e-09	3.361441e+01	3.460262e+02
1.390000e-06	4.764055e-06	5.309655e-09	3.395930e+01	3.488511e+02
1.400000e-06	4.810718e-06	5.347655e-09	3.429192e+01	3.514975e+02
1.410000e-06	4.855806e-06	5.385030e-09	3.461332e+01	3.539738e+02
1.420000e-06	4.899384e-06	5.421202e-09	3.492395e+01	3.562899e+02
1.430000e-06	4.941178e-06	5.454486e-09	3.522187e+01	3.584573e+02
1.440000e-06	4.981107e-06	5.482881e-09	3.550649e+01	3.604873e+02
1.450000e-06	5.019333e-06	5.508406e-09	3.577897e+01	3.623908e+02
1.460000e-06	5.055918e-06	5.533509e-09	3.603976e+01	3.641768e+02
1.470000e-06	5.090782e-06	5.558355e-09	3.628828e+01	3.658523e+02
1.480000e-06	5.123660e-06	5.581392e-09	3.652265e+01	3.674220e+02
1.490000e-06	5.154719e-06	5.601418e-09	3.674404e+01	3.688880e+02
1.500000e-06	5.184115e-06	5.620322e-09	3.695358e+01	3.702509e+02
1.510000e-06	5.211840e-06	5.638558e-09	3.715121e+01	3.715097e+02
1.520000e-06	5.237572e-06	5.655987e-09	3.733464e+01	3.726633e+02
1.530000e-06	5.261168e-06	5.672408e-09	3.750283e+01	3.737108e+02
1.540000e-06	5.282981e-06	5.686796e-09	3.765832e+01	3.746525e+02
1.550000e-06	5.303117e-06	5.698779e-09	3.780186e+01	3.754902e+02
1.560000e-06	5.321367e-06	5.709440e-09	3.793195e+01	3.762277e+02
1.570000e-06	5.337613e-06	5.719382e-09	3.804775e+01	3.768700e+02
1.580000e-06	5.351895e-06	5.729281e-09	3.814956e+01	3.774237e+02
1.590000e-06	5.364164e-06	5.738908e-09	3.823701e+01	3.778955e+02
1.600000e-06	5.374255e-06	5.745870e-09	3.830895e+01	3.782919e+02
1.610000e-06	5.382211e-06	5.751474e-09	3.836566e+01	3.786183e+02
1.620000e-06	5.388267e-06	5.756897e-09	3.840883e+01	3.788783e+02
1.630000e-06	5.392601e-06	5.761519e-09	3.843972e+01	3.790733e+02
1.640000e-06	5.395041e-06	5.763876e-09	3.845711e+01	3.792023e+02
1.650000e-06	5.395446e-06	5.767035e-09	3.846000e+01	3.792624e+02
1.660000e-06	5.394055e-06	5.767816e-09	3.845008e+01	3.792493e+02
1.670000e-06	5.391002e-06	5.763754e-09	3.842832e+01	3.791583e+02
1.680000e-06	5.386221e-06	5.761441e-09	3.839424e+01	3.789849e+02
1.690000e-06	5.379506e-06	5.758646e-09	3.834638e+01	3.787261e+02
1.700000e-06	5.371010e-06	5.755210e-09	3.828581e+01	3.783809e+02
1.710000e-06	5.360974e-06	5.751887e-09	3.821427e+01	3.779511e+02
1.720000e-06	5.349217e-06	5.748973e-09	3.813046e+01	3.774413e+02
1.730000e-06	5.335443e-06	5.752444e-09	3.803228e+01	3.768586e+02
1.740000e-06	5.319646e-06	5.702241e-09	3.791968e+01	3.762117e+02
1.750000e-06	5.301580e-06	5.669382e-09	3.779090e+01	3.755103e+02
1.760000e-06	5.280802e-06	5.692944e-09	3.764279e+01	3.747640e+02
1.770000e-06	5.257677e-06	5.683746e-09	3.747795e+01	3.739805e+02
1.780000e-06	5.233226e-06	5.729926e-09	3.730366e+01	3.731652e+02
1.790000e-06	5.208099e-06	5.695455e-09	3.712454e+01	3.723201e+02
1.800000e-06	5.181630e-06	5.568712e-09	3.693587e+01	3.714437e+02
1.810000e-06	5.152865e-06	5.658495e-09	3.673083e+01	3.705307e+02
1.820000e-06	5.122216e-06	5.625858e-09	3.651235e+01	3.695726e+02
1.830000e-06	5.090009e-06	5.536722e-09	3.628277e+01	3.685590e+02
1.840000e-06	5.055864e-06	5.676127e-09	3.603938e+01	3.674780e+02
1.850000e-06	5.020151e-06	5.611630e-09	3.578481e+01	3.663182e+02
1.860000e-06	4.982716e-06	5.535065e-09	3.551797e+01	3.650693e+02
1.870000e-06	4.943337e-06	5.577000e-09	3.523726e+01	3.637238e+02
1.880000e-06	4.902337e-06	5.472607e-09	3.494500e+01	3.622767e+02
1.890000e-06	4.859476e-06	5.516100e-09	3.463948e+01	3.607268e+02
1.900000e-06	4.814933e-06	5.510555e-09	3.432196e+01	3.590756e+02
1.910000e-06	4.768664e-06	5.429038e-09	3.399215e+01	3.573276e+02
1.920000e-06	4.720330e-06	5.489081e-09	3.364761e+01	3.554889e+02
1.930000e-06	4.670364e-06	5.345444e-09	3.329145e+01	3.535661e+02
1.940000e-06	4.618707e-06	5.333972e-09	3.292322e+01	3.515657e+02
1.950000e-06	4.564872e-06	5.411651e-09	3.253948e+01	3.494928e+02
1.960000e-06	4.509105e-06	5.299102e-09	3.214195e+01	3.473507e+02
1.970000e-06	4.451713e-06	5.253738e-09	3.173285e+01	3.451401e+02
1.980000e-06	4.392874e-06	5.191407e-09	3.131343e+01	3.428597e+02
1.990000e-06	4.332534e-06	5.197990e-09	3.088332e+01	3.405060e+02
2.000000e-06	4.270447e-06	5.189707e-09	3.044074e+01	3.380742e+02
2.010000e-06	4.206758e-06	5.108500e-09	2.998676e+01	3.355591e+02
2.020000e-06	4.141589e-06	5.114083e-09	2.952222e+01	3.329556e+02
2.030000e-06	4.074992e-06	5.026008e-09	2.904749e+01	3.302597e+02
2.040000e-06	4.007025e-06	4.970069e-09	2.856301e+01	3.274691e+02
2.050000e-06	3.937543e-06	4.952098e-09	2.806773e+01	3.245833e+02
2.060000e-06	3.866493e-06	4.929237e-09	2.756126e+01	3.216037e+02
2.070000e-06	3.794062e-06	4.903473e-09	2.704496e+01	3.185332e+02
2.080000e-06	3.720384e-06	4.787643e-09	2.651976e+01	3.153757e+02
2.090000e-06	3.645343e-06	4.743759e-09	2.598486e+01	3.121356e+02
2.100000e-06	3.568842e-06	4.714336e-09	2.543954e+01	3.088166e+02
2.110000e-06	3.490781e-06	4.679223e-09	2.488310e+01	3.054214e+02
2.120000e-06	3.411336e-06	4.629965e-09	2.431680e+01	3.019513e+02
2.130000e-06	3.330759e-06	4.552991e-09	2.374243e+01	2.984055e+02
2.140000e-06	3.249083e-06	4.502551e-09	2.316022e+01	2.947815e+02
2.150000e-06	3.166370e-06	4.428103e-09	2.257062e+01	2.910752e+02
2.160000e-06	3.082619e-06	4.388447e-09	2.197363e+01	2.872814e+02
2.170000e-06	2.997743e-06	4.348276e-09	2.136861e+01	2.833944e+02
2.180000e-06	2.911531e-06	4.281847e-09	2.075407e+01	2.794088e+02
2.190000e-06	2.824060e-06	4.196938e-09	2.013056e+01	2.753198e+02
2.200000e-06	2.735667e-06	4.122683e-09	1.950047e+01	2.711237e+02
2.210000e-06	2.646384e-06	4.089370e-09	1.886404e+01	2.668185e+02
2.220000e-06	2.556156e-06	4.033933e-09	1.822088e+01	2.624033e+02
2.230000e-06	2.465074e-06	3.949068e-09	1.757162e+01	2.578785e+02
2.240000e-06	2.373218e-06	3.854953e-09	1.691685e+01	2.532452e+02
2.250000e-06	2.280580e-06	3.779618e-09	1.625651e+01	2.485051e+02
2.260000e-06	2.187128e-06	3.711175e-09	1.559036e+01	2.436593e+02
2.270000e-06	2.092655e-06	3.649319e-09	1.491694e+01	2.387084e+02
2.280000e-06	1.997157e-06	3.586017e-09	1.423620e+01	2.336523e+02
2.290000e-06	1.900946e-06	3.500269e-09	1.355039e+01	2.284892e+02
2.300000e-06	1.804192e-06	3.401548e-09	1.286070e+01	2.232167e+02
2.310000e-06	1.706962e-06	3.311367e-09	1.216762e+01	2.178312e+02
2.320000e-06	1.609174e-06	3.245338e-09	1.147057e+01	2.123288e+02
2.330000e-06	1.510862e-06	3.173853e-09	1.076977e+01	2.067053e+02
2.340000e-06	1.412108e-06	3.079449e-09	1.006583e+01	2.009568e+02
2.350000e-06	1.312880e-06	2.974456e-09	9.358514e+00	1.950802e+02
2.360000e-06	1.213269e-06	2.880580e-09	8.648463e+00	1.890728e+02
2.370000e-06	1.113428e-06	2.796161e-09	7.936777e+00	1.829331e+02
2.380000e-06	1.013327e-06	2.708783e-09	7.223229e+00	1.766600e+02
2.390000e-06	9.128238e-07	2.611990e-09	6.506821e+00	1.702528e+02
2.400000e-06	8.119116e-07	2.504760e-09	5.787495e+00	1.637109e+02
2.410000e-06	7.106000e-07	2.398541e-09	5.065322e+00	1.570329e+02
2.420000e-06	6.090813e-07	2.297852e-09	4.341673e+00	1.502164e+02
2.430000e-06	5.073547e-07	2.200556e-09	3.616543e+00	1.432579e+02
2.440000e-06	4.053181e-07	2.095172e-09	2.889202e+00	1.361520e+02
2.450000e-06	3.031429e-07	1.974539e-09	2.160874e+00	1.288917e+02
2.460000e-06	2.007811e-07	1.848674e-09	1.431215e+00	1.214684e+02
2.470000e-06	9.818430e-08	1.733448e-09	6.998806e-01	1.138723e+02
2.480000e-06	-4.480537e-09	1.625665e-09	-3.193831e-02	1.060923e+02
2.490000e-06	-1.070815e-07	1.509873e-09	-7.633022e-01	9.811706e+01
2.500000e-06	-2.096596e-07	1.378720e-09	-1.494503e+00	8.993516e+01
2.510000e-06	-3.121405e-07	1.240081e-09	-2.225010e+00	8.153566e+01
2.520000e-06	-4.144758e-07	1.106261e-09	-2.954480e+00	7.290851e+01
2.530000e-06	-5.166420e-07	9.750447e-10	-3.682745e+00	6.404502e+01
2.540000e-06	-6.185518e-07	8.434803e-10	-4.409182e+00	5.493814e+01
2.550000e-06	-7.202266e-07	7.064154e-10	-5.133944e+00	4.558280e+01
2.560000e-06	-8.215808e-07	5.579160e-10	-5.856420e+00	3.597619e+01
2.570000e-06	-9.225222e-07	4.026510e-10	-6.575954e+00	2.611808e+01
2.580000e-06	-1.023035e-06	2.487725e-10	-7.292431e+00	1.601118e+01
2.590000e-06	-1.123116e-06	9.687331e-11	-8.005836e+00	5.661498e+00
2.600000e-06	-1.222801e-06	-6.337959e-11	-8.716409e+00	-4.921223e+00
2.610000e-06	-1.322061e-06	-2.342069e-10	-9.423962e+00	-1.572312e+01
2.620000e-06	-1.420893e-06	-4.044180e-10	-1.012845e+01	-2.672582e+01
2.630000e-06	-1.519306e-06	-5.704805e-10	-1.082997e+01	-3.790625e+01
2.640000e-06	-1.617180e-06	-7.366068e-10	-1.152763e+01	-4.923650e+01
2.650000e-06	-1.714416e-06	-9.073307e-10	-1.222076e+01	-6.068398e+01
2.660000e-06	-1.811062e-06	-1.085097e-09	-1.290967e+01	-7.221183e+01
2.670000e-06	-1.907187e-06	-1.267197e-09	-1.359487e+01	-8.377960e+01
2.680000e-06	-2.002769e-06	-1.447092e-09	-1.427621e+01	-9.534408e+01
2.690000e-06	-2.097672e-06	-1.620313e-09	-1.495270e+01	-1.068605e+02
2.700000e-06	-2.191675e-06	-1.791478e-09	-1.562277e+01	-1.182837e+02
2.710000e-06	-2.284638e-06	-1.963925e-09	-1.628543e+01	-1.295694e+02
2.720000e-06	-2.376665e-06	-2.135814e-09	-1.694143e+01	-1.406755e+02
2.730000e-06	-2.467917e-06	-2.300893e-09	-1.759189e+01	-1.515633e+02
2.740000e-06	-2.558338e-06	-2.458030e-09	-1.823643e+01	-1.621979e+02
2.750000e-06	-2.647795e-06	-2.611184e-09	-1.887410e+01	-1.725496e+02
2.760000e-06	-2.736298e-06	-2.762922e-09	-1.950497e+01	-1.825934e+02
2.770000e-06	-2.823985e-06	-2.915010e-09	-2.013002e+01	-1.923100e+02
2.780000e-06	-2.910836e-06	-3.063793e-09	-2.074912e+01	-2.016849e+02
2.790000e-06	-2.996547e-06	-3.203231e-09	-2.136009e+01	-2.107087e+02
2.800000e-06	-3.080965e-06	-3.331751e-09	-2.196184e+01	-2.193763e+02
2.810000e-06	-3.164328e-06	-3.455587e-09	-2.255607e+01	-2.276869e+02
2.820000e-06	-3.246709e-06	-3.578790e-09	-2.314330e+01	-2.356432e+02
2.830000e-06	-3.327973e-06	-3.699162e-09	-2.372257e+01	-2.432513e+02
2.840000e-06	-3.408143e-06	-3.814390e-09	-2.429404e+01	-2.505201e+02
2.850000e-06	-3.487189e-06	-3.922482e-09	-2.485750e+01	-2.574612e+02
2.860000e-06	-3.564785e-06	-4.023926e-09	-2.541062e+01	-2.640887e+02
2.870000e-06	-3.640839e-06	-4.120670e-09	-2.595275e+01	-2.704182e+02
2.880000e-06	-3.715488e-06	-4.215170e-09	-2.648487e+01	-2.764672e+02
2.890000e-06	-3.788762e-06	-4.304878e-09	-2.700718e+01	-2.822540e+02
2.900000e-06	-3.860745e-06	-4.387202e-09	-2.752029e+01	-2.877970e+02
2.910000e-06	-3.931333e-06	-4.464315e-09	-2.802346e+01	-2.931144e+02
2.920000e-06	-4.000291e-06	-4.540800e-09	-2.851500e+01	-2.982227e+02
2.930000e-06	-4.067751e-06	-4.618054e-09	-2.899588e+01	-3.031367e+02
2.940000e-06	-4.133908e-06	-4.692983e-09	-2.946746e+01	-3.078680e+02
