# Temperatura_=_54.26
# Concentracion g/m^3_=_15000.0
# C_Vs_to_Am_M_A/Vsm_=_65563218390.804596
# pendiente_HvsI_1/m_=_3716.3
# ordenada_HvsI_A/m_=_1297.0
# frecuencia_Hz_=_301599.90864753583

Tiempo_(s)	Campo_(V.s)	Magnetizacion_(V.s)	Campo_(kA/m)	Magnetizacion_(A/m)
0.000000e+00	-5.374566e-06	-6.437415e-09	-3.833489e+01	-4.209521e+02
1.000000e-08	-5.371922e-06	-6.431871e-09	-3.831603e+01	-4.208335e+02
2.000000e-08	-5.367456e-06	-6.426541e-09	-3.828418e+01	-4.206189e+02
3.000000e-08	-5.361336e-06	-6.420435e-09	-3.824053e+01	-4.203035e+02
4.000000e-08	-5.353639e-06	-6.413508e-09	-3.818562e+01	-4.198848e+02
5.000000e-08	-5.344176e-06	-6.406519e-09	-3.811813e+01	-4.193631e+02
6.000000e-08	-5.332651e-06	-6.399357e-09	-3.803592e+01	-4.187419e+02
7.000000e-08	-5.319202e-06	-6.396065e-09	-3.794000e+01	-4.180282e+02
8.000000e-08	-5.303753e-06	-6.387008e-09	-3.782981e+01	-4.172318e+02
9.000000e-08	-5.286018e-06	-6.373272e-09	-3.770331e+01	-4.163642e+02
1.000000e-07	-5.266204e-06	-6.370212e-09	-3.756198e+01	-4.154376e+02
1.100000e-07	-5.244514e-06	-6.342225e-09	-3.740728e+01	-4.144631e+02
1.200000e-07	-5.221066e-06	-6.302568e-09	-3.724003e+01	-4.134496e+02
1.300000e-07	-5.196125e-06	-6.308359e-09	-3.706214e+01	-4.124024e+02
1.400000e-07	-5.169617e-06	-6.268894e-09	-3.687306e+01	-4.113225e+02
1.500000e-07	-5.141401e-06	-6.249640e-09	-3.667181e+01	-4.102063e+02
1.600000e-07	-5.111682e-06	-6.284604e-09	-3.645983e+01	-4.090459e+02
1.700000e-07	-5.080464e-06	-6.212927e-09	-3.623716e+01	-4.078297e+02
1.800000e-07	-5.047203e-06	-6.195197e-09	-3.599992e+01	-4.065437e+02
1.900000e-07	-5.011985e-06	-6.218159e-09	-3.574873e+01	-4.051730e+02
2.000000e-07	-4.975279e-06	-6.147817e-09	-3.548692e+01	-4.037032e+02
2.100000e-07	-4.936861e-06	-6.133682e-09	-3.521289e+01	-4.021222e+02
2.200000e-07	-4.896632e-06	-6.115247e-09	-3.492596e+01	-4.004207e+02
2.300000e-07	-4.854470e-06	-6.057553e-09	-3.462523e+01	-3.985939e+02
2.400000e-07	-4.810409e-06	-6.042326e-09	-3.431096e+01	-3.966408e+02
2.500000e-07	-4.764652e-06	-6.011627e-09	-3.398459e+01	-3.945648e+02
2.600000e-07	-4.717037e-06	-5.979293e-09	-3.364497e+01	-3.923724e+02
2.700000e-07	-4.667368e-06	-5.941861e-09	-3.329070e+01	-3.900724e+02
2.800000e-07	-4.615530e-06	-5.906975e-09	-3.292096e+01	-3.876747e+02
2.900000e-07	-4.561761e-06	-5.886257e-09	-3.253744e+01	-3.851892e+02
3.000000e-07	-4.506434e-06	-5.842623e-09	-3.214281e+01	-3.826240e+02
3.100000e-07	-4.449513e-06	-5.800098e-09	-3.173682e+01	-3.799853e+02
3.200000e-07	-4.390759e-06	-5.743510e-09	-3.131774e+01	-3.772764e+02
3.300000e-07	-4.330335e-06	-5.696612e-09	-3.088676e+01	-3.744976e+02
3.400000e-07	-4.268486e-06	-5.672907e-09	-3.044561e+01	-3.716468e+02
3.500000e-07	-4.205308e-06	-5.627497e-09	-2.999499e+01	-3.687194e+02
3.600000e-07	-4.140674e-06	-5.587711e-09	-2.953397e+01	-3.657097e+02
3.700000e-07	-4.074306e-06	-5.539857e-09	-2.906060e+01	-3.626113e+02
3.800000e-07	-4.006343e-06	-5.476436e-09	-2.857583e+01	-3.594181e+02
3.900000e-07	-3.937021e-06	-5.423424e-09	-2.808139e+01	-3.561250e+02
4.000000e-07	-3.866450e-06	-5.375287e-09	-2.757803e+01	-3.527281e+02
4.100000e-07	-3.794713e-06	-5.332775e-09	-2.706636e+01	-3.492252e+02
4.200000e-07	-3.721689e-06	-5.271504e-09	-2.654550e+01	-3.456154e+02
4.300000e-07	-3.647079e-06	-5.214392e-09	-2.601333e+01	-3.418991e+02
4.400000e-07	-3.570813e-06	-5.164231e-09	-2.546935e+01	-3.380774e+02
4.500000e-07	-3.493081e-06	-5.107094e-09	-2.491492e+01	-3.341520e+02
4.600000e-07	-3.413908e-06	-5.043740e-09	-2.435021e+01	-3.301240e+02
4.700000e-07	-3.333452e-06	-4.970810e-09	-2.377634e+01	-3.259944e+02
4.800000e-07	-3.251845e-06	-4.906119e-09	-2.319427e+01	-3.217631e+02
4.900000e-07	-3.169081e-06	-4.843134e-09	-2.260394e+01	-3.174297e+02
5.000000e-07	-3.085316e-06	-4.775808e-09	-2.200648e+01	-3.129928e+02
5.100000e-07	-3.000686e-06	-4.708812e-09	-2.140284e+01	-3.084506e+02
5.200000e-07	-2.915090e-06	-4.637814e-09	-2.079231e+01	-3.038014e+02
5.300000e-07	-2.828450e-06	-4.556916e-09	-2.017434e+01	-2.990432e+02
5.400000e-07	-2.740885e-06	-4.478360e-09	-1.954977e+01	-2.941747e+02
5.500000e-07	-2.652448e-06	-4.405334e-09	-1.891898e+01	-2.891950e+02
5.600000e-07	-2.562972e-06	-4.330502e-09	-1.828078e+01	-2.841037e+02
5.700000e-07	-2.472301e-06	-4.249689e-09	-1.763405e+01	-2.789009e+02
5.800000e-07	-2.380611e-06	-4.164967e-09	-1.698006e+01	-2.735869e+02
5.900000e-07	-2.288154e-06	-4.080857e-09	-1.632060e+01	-2.681621e+02
6.000000e-07	-2.194955e-06	-3.997166e-09	-1.565584e+01	-2.626268e+02
6.100000e-07	-2.100945e-06	-3.912216e-09	-1.498530e+01	-2.569804e+02
6.200000e-07	-2.006160e-06	-3.826531e-09	-1.430923e+01	-2.512222e+02
6.300000e-07	-1.910709e-06	-3.736844e-09	-1.362841e+01	-2.453506e+02
6.400000e-07	-1.814619e-06	-3.640131e-09	-1.294304e+01	-2.393632e+02
6.500000e-07	-1.717876e-06	-3.545272e-09	-1.225300e+01	-2.332573e+02
6.600000e-07	-1.620433e-06	-3.451489e-09	-1.155798e+01	-2.270295e+02
6.700000e-07	-1.522255e-06	-3.351841e-09	-1.085771e+01	-2.206763e+02
6.800000e-07	-1.423367e-06	-3.247872e-09	-1.015237e+01	-2.141940e+02
6.900000e-07	-1.323880e-06	-3.145945e-09	-9.442768e+00	-2.075788e+02
7.000000e-07	-1.223990e-06	-3.047874e-09	-8.730292e+00	-2.008270e+02
7.100000e-07	-1.123834e-06	-2.947484e-09	-8.015913e+00	-1.939349e+02
7.200000e-07	-1.023442e-06	-2.840368e-09	-7.299851e+00	-1.868984e+02
7.300000e-07	-9.227776e-07	-2.728415e-09	-6.581849e+00	-1.797135e+02
7.400000e-07	-8.217894e-07	-2.613529e-09	-5.861535e+00	-1.723756e+02
7.500000e-07	-7.204370e-07	-2.497411e-09	-5.138624e+00	-1.648799e+02
7.600000e-07	-6.188313e-07	-2.383150e-09	-4.413906e+00	-1.572210e+02
7.700000e-07	-5.170891e-07	-2.266351e-09	-3.688215e+00	-1.493934e+02
7.800000e-07	-4.151741e-07	-2.142185e-09	-2.961291e+00	-1.413909e+02
7.900000e-07	-3.130871e-07	-2.013039e-09	-2.233140e+00	-1.332076e+02
8.000000e-07	-2.108730e-07	-1.884268e-09	-1.504083e+00	-1.248375e+02
8.100000e-07	-1.085810e-07	-1.756547e-09	-7.744705e-01	-1.162746e+02
8.200000e-07	-6.236009e-09	-1.624037e-09	-4.447926e-02	-1.075132e+02
8.300000e-07	9.611780e-08	-1.485094e-09	6.855745e-01	-9.854769e+01
8.400000e-07	1.984634e-07	-1.340977e-09	1.415570e+00	-8.937246e+01
8.500000e-07	3.008104e-07	-1.195258e-09	2.145575e+00	-7.998179e+01
8.600000e-07	4.030722e-07	-1.047717e-09	2.874972e+00	-7.036959e+01
8.700000e-07	5.051760e-07	-8.963926e-10	3.603243e+00	-6.052938e+01
8.800000e-07	6.071191e-07	-7.407695e-10	4.330367e+00	-5.045425e+01
8.900000e-07	7.088711e-07	-5.814837e-10	5.056128e+00	-4.013716e+01
9.000000e-07	8.103227e-07	-4.190645e-10	5.779747e+00	-2.957138e+01
9.100000e-07	9.114970e-07	-2.519785e-10	6.501388e+00	-1.875131e+01
9.200000e-07	1.012358e-06	-8.204970e-11	7.220794e+00	-7.673496e+00
9.300000e-07	1.112872e-06	9.040755e-11	7.937724e+00	3.662150e+00
9.400000e-07	1.213149e-06	2.663115e-10	8.652968e+00	1.525103e+01
9.500000e-07	1.313103e-06	4.468549e-10	9.365901e+00	2.708258e+01
9.600000e-07	1.412594e-06	6.302686e-10	1.007553e+01	3.913923e+01
9.700000e-07	1.511444e-06	8.144390e-10	1.078060e+01	5.139566e+01
9.800000e-07	1.609490e-06	1.000878e-09	1.147992e+01	6.381860e+01
9.900000e-07	1.706779e-06	1.191246e-09	1.217385e+01	7.636713e+01
1.000000e-06	1.803410e-06	1.382111e-09	1.286309e+01	8.899363e+01
1.010000e-06	1.899354e-06	1.572760e-09	1.354742e+01	1.016453e+02
1.020000e-06	1.994516e-06	1.762412e-09	1.422618e+01	1.142660e+02
1.030000e-06	2.088950e-06	1.950322e-09	1.489975e+01	1.267988e+02
1.040000e-06	2.182700e-06	2.138881e-09	1.556843e+01	1.391880e+02
1.050000e-06	2.275747e-06	2.325478e-09	1.623211e+01	1.513814e+02
1.060000e-06	2.368160e-06	2.507922e-09	1.689125e+01	1.633328e+02
1.070000e-06	2.459903e-06	2.684775e-09	1.754563e+01	1.750028e+02
1.080000e-06	2.550657e-06	2.854837e-09	1.819294e+01	1.863600e+02
1.090000e-06	2.640208e-06	3.021951e-09	1.883168e+01	1.973812e+02
1.100000e-06	2.728731e-06	3.186520e-09	1.946308e+01	2.080511e+02
1.110000e-06	2.816311e-06	3.345261e-09	2.008776e+01	2.183612e+02
1.120000e-06	2.902936e-06	3.497466e-09	2.070562e+01	2.283087e+02
1.130000e-06	2.988664e-06	3.644012e-09	2.131709e+01	2.378949e+02
1.140000e-06	3.073498e-06	3.785566e-09	2.192218e+01	2.471238e+02
1.150000e-06	3.157420e-06	3.921287e-09	2.252077e+01	2.560011e+02
1.160000e-06	3.240281e-06	4.051802e-09	2.311178e+01	2.645329e+02
1.170000e-06	3.321922e-06	4.175382e-09	2.369410e+01	2.727253e+02
1.180000e-06	3.402358e-06	4.293126e-09	2.426782e+01	2.805844e+02
1.190000e-06	3.481574e-06	4.405816e-09	2.483284e+01	2.881167e+02
1.200000e-06	3.559566e-06	4.513783e-09	2.538914e+01	2.953291e+02
1.210000e-06	3.636292e-06	4.618724e-09	2.593640e+01	3.022302e+02
1.220000e-06	3.711639e-06	4.718596e-09	2.647382e+01	3.088302e+02
1.230000e-06	3.785419e-06	4.812311e-09	2.700006e+01	3.151419e+02
1.240000e-06	3.857601e-06	4.901859e-09	2.751491e+01	3.211801e+02
1.250000e-06	3.928391e-06	4.990120e-09	2.801983e+01	3.269617e+02
1.260000e-06	3.997809e-06	5.077062e-09	2.851497e+01	3.325048e+02
1.270000e-06	4.065949e-06	5.159830e-09	2.900099e+01	3.378278e+02
1.280000e-06	4.132700e-06	5.237876e-09	2.947710e+01	3.429482e+02
1.290000e-06	4.197750e-06	5.313161e-09	2.994108e+01	3.478812e+02
1.300000e-06	4.261165e-06	5.384868e-09	3.039339e+01	3.526390e+02
1.310000e-06	4.323089e-06	5.454158e-09	3.083507e+01	3.572300e+02
1.320000e-06	4.383673e-06	5.522631e-09	3.126720e+01	3.616581e+02
1.330000e-06	4.442863e-06	5.588640e-09	3.168938e+01	3.659234e+02
1.340000e-06	4.500343e-06	5.650362e-09	3.209937e+01	3.700225e+02
1.350000e-06	4.556050e-06	5.709144e-09	3.249670e+01	3.739498e+02
1.360000e-06	4.610152e-06	5.765845e-09	3.288259e+01	3.776984e+02
1.370000e-06	4.662587e-06	5.818297e-09	3.325660e+01	3.812617e+02
1.380000e-06	4.713013e-06	5.867071e-09	3.361626e+01	3.846349e+02
1.390000e-06	4.761403e-06	5.913607e-09	3.396141e+01	3.878156e+02
1.400000e-06	4.808053e-06	5.958062e-09	3.429415e+01	3.908049e+02
1.410000e-06	4.853157e-06	6.000380e-09	3.461586e+01	3.936071e+02
1.420000e-06	4.896679e-06	6.039516e-09	3.492629e+01	3.962298e+02
1.430000e-06	4.938326e-06	6.075074e-09	3.522334e+01	3.986832e+02
1.440000e-06	4.978086e-06	6.108893e-09	3.550693e+01	4.009786e+02
1.450000e-06	5.016229e-06	6.140512e-09	3.577900e+01	4.031278e+02
1.460000e-06	5.052812e-06	6.169591e-09	3.603993e+01	4.051417e+02
1.470000e-06	5.087615e-06	6.197277e-09	3.628817e+01	4.070294e+02
1.480000e-06	5.120456e-06	6.222191e-09	3.652242e+01	4.087974e+02
1.490000e-06	5.151490e-06	6.244925e-09	3.674377e+01	4.104499e+02
1.500000e-06	5.180894e-06	6.265773e-09	3.695350e+01	4.119883e+02
1.510000e-06	5.208602e-06	6.285112e-09	3.715113e+01	4.134123e+02
1.520000e-06	5.234300e-06	6.304406e-09	3.733442e+01	4.147204e+02
1.530000e-06	5.257930e-06	6.323363e-09	3.750297e+01	4.159111e+02
1.540000e-06	5.279730e-06	6.341284e-09	3.765846e+01	4.169835e+02
1.550000e-06	5.299859e-06	6.356519e-09	3.780203e+01	4.179384e+02
1.560000e-06	5.318171e-06	6.369309e-09	3.793265e+01	4.187784e+02
1.570000e-06	5.334405e-06	6.380502e-09	3.804843e+01	4.195078e+02
1.580000e-06	5.348617e-06	6.390455e-09	3.814980e+01	4.201330e+02
1.590000e-06	5.360856e-06	6.399386e-09	3.823710e+01	4.206608e+02
1.600000e-06	5.370932e-06	6.405963e-09	3.830897e+01	4.210985e+02
1.610000e-06	5.378866e-06	6.411406e-09	3.836556e+01	4.214522e+02
1.620000e-06	5.384940e-06	6.417394e-09	3.840889e+01	4.217263e+02
1.630000e-06	5.389303e-06	6.423095e-09	3.844000e+01	4.219231e+02
1.640000e-06	5.391719e-06	6.424902e-09	3.845724e+01	4.220420e+02
1.650000e-06	5.392106e-06	6.424793e-09	3.846000e+01	4.220801e+02
1.660000e-06	5.390719e-06	6.426713e-09	3.845011e+01	4.220327e+02
1.670000e-06	5.387708e-06	6.425841e-09	3.842862e+01	4.218938e+02
1.680000e-06	5.382957e-06	6.422063e-09	3.839474e+01	4.216578e+02
1.690000e-06	5.376265e-06	6.417865e-09	3.834701e+01	4.213203e+02
1.700000e-06	5.367801e-06	6.412782e-09	3.828664e+01	4.208793e+02
1.710000e-06	5.357797e-06	6.405579e-09	3.821528e+01	4.203357e+02
1.720000e-06	5.346100e-06	6.393661e-09	3.813186e+01	4.196939e+02
1.730000e-06	5.332388e-06	6.376781e-09	3.803405e+01	4.189614e+02
1.740000e-06	5.316593e-06	6.367907e-09	3.792139e+01	4.181487e+02
1.750000e-06	5.298521e-06	6.340034e-09	3.779249e+01	4.172673e+02
1.760000e-06	5.277779e-06	6.336286e-09	3.764454e+01	4.163295e+02
1.770000e-06	5.254693e-06	6.344575e-09	3.747988e+01	4.153459e+02
1.780000e-06	5.230298e-06	6.312489e-09	3.730588e+01	4.143247e+02
1.790000e-06	5.205175e-06	6.322082e-09	3.712668e+01	4.132704e+02
1.800000e-06	5.178711e-06	6.265573e-09	3.693792e+01	4.121831e+02
1.810000e-06	5.150018e-06	6.216332e-09	3.673327e+01	4.110581e+02
1.820000e-06	5.119423e-06	6.270712e-09	3.651505e+01	4.098867e+02
1.830000e-06	5.087250e-06	6.206994e-09	3.628557e+01	4.086566e+02
1.840000e-06	5.053160e-06	6.167886e-09	3.604242e+01	4.073536e+02
1.850000e-06	5.017420e-06	6.216346e-09	3.578750e+01	4.059627e+02
1.860000e-06	4.979905e-06	6.156614e-09	3.551991e+01	4.044699e+02
1.870000e-06	4.940477e-06	6.133261e-09	3.523869e+01	4.028636e+02
1.880000e-06	4.899468e-06	6.123407e-09	3.494618e+01	4.011354e+02
1.890000e-06	4.856696e-06	6.069082e-09	3.464110e+01	3.992813e+02
1.900000e-06	4.812224e-06	6.056482e-09	3.432390e+01	3.973014e+02
1.910000e-06	4.765936e-06	5.993443e-09	3.399375e+01	3.951997e+02
1.920000e-06	4.717606e-06	5.982362e-09	3.364903e+01	3.929833e+02
1.930000e-06	4.667668e-06	5.971549e-09	3.329284e+01	3.906614e+02
1.940000e-06	4.616024e-06	5.886935e-09	3.292448e+01	3.882440e+02
1.950000e-06	4.562288e-06	5.880074e-09	3.254119e+01	3.857406e+02
1.960000e-06	4.506611e-06	5.839489e-09	3.214407e+01	3.831592e+02
1.970000e-06	4.449234e-06	5.796309e-09	3.173482e+01	3.805051e+02
1.980000e-06	4.390463e-06	5.764363e-09	3.131563e+01	3.777812e+02
1.990000e-06	4.330212e-06	5.702940e-09	3.088588e+01	3.749871e+02
2.000000e-06	4.268227e-06	5.681131e-09	3.044376e+01	3.721202e+02
2.010000e-06	4.204591e-06	5.604576e-09	2.998987e+01	3.691755e+02
2.020000e-06	4.139471e-06	5.562413e-09	2.952540e+01	3.661472e+02
2.030000e-06	4.072962e-06	5.544491e-09	2.905100e+01	3.630289e+02
2.040000e-06	4.005031e-06	5.486250e-09	2.856648e+01	3.598146e+02
2.050000e-06	3.935586e-06	5.432452e-09	2.807115e+01	3.564994e+02
2.060000e-06	3.864574e-06	5.356916e-09	2.756465e+01	3.530798e+02
2.070000e-06	3.792192e-06	5.324206e-09	2.704837e+01	3.495539e+02
2.080000e-06	3.718518e-06	5.268033e-09	2.652288e+01	3.459211e+02
2.090000e-06	3.643496e-06	5.202459e-09	2.598777e+01	3.421820e+02
2.100000e-06	3.567033e-06	5.157664e-09	2.544239e+01	3.383379e+02
2.110000e-06	3.488923e-06	5.088644e-09	2.488526e+01	3.343902e+02
2.120000e-06	3.409450e-06	5.036240e-09	2.431841e+01	3.303403e+02
2.130000e-06	3.328941e-06	4.963300e-09	2.374417e+01	3.261888e+02
2.140000e-06	3.247294e-06	4.905436e-09	2.316181e+01	3.219356e+02
2.150000e-06	3.164576e-06	4.844370e-09	2.257181e+01	3.175800e+02
2.160000e-06	3.080890e-06	4.761401e-09	2.197490e+01	3.131206e+02
2.170000e-06	2.996068e-06	4.693865e-09	2.136990e+01	3.085555e+02
2.180000e-06	2.909900e-06	4.628868e-09	2.075529e+01	3.038829e+02
2.190000e-06	2.822491e-06	4.562228e-09	2.013184e+01	2.991011e+02
2.200000e-06	2.734102e-06	4.482136e-09	1.950139e+01	2.942087e+02
2.210000e-06	2.644813e-06	4.404809e-09	1.886452e+01	2.892049e+02
2.220000e-06	2.554645e-06	4.330000e-09	1.822138e+01	2.840896e+02
2.230000e-06	2.463656e-06	4.253835e-09	1.757239e+01	2.788628e+02
2.240000e-06	2.371929e-06	4.174700e-09	1.691814e+01	2.735250e+02
2.250000e-06	2.279458e-06	4.093313e-09	1.625857e+01	2.680764e+02
2.260000e-06	2.186094e-06	4.008180e-09	1.559264e+01	2.625171e+02
2.270000e-06	2.091662e-06	3.913561e-09	1.491909e+01	2.568468e+02
2.280000e-06	1.996208e-06	3.824669e-09	1.423825e+01	2.510644e+02
2.290000e-06	1.900056e-06	3.740447e-09	1.355243e+01	2.451680e+02
2.300000e-06	1.803417e-06	3.653237e-09	1.286314e+01	2.391554e+02
2.310000e-06	1.706306e-06	3.557457e-09	1.217048e+01	2.330235e+02
2.320000e-06	1.608630e-06	3.458122e-09	1.147379e+01	2.267690e+02
2.330000e-06	1.510399e-06	3.364753e-09	1.077314e+01	2.203883e+02
2.340000e-06	1.411691e-06	3.270740e-09	1.006909e+01	2.138777e+02
2.350000e-06	1.312509e-06	3.169593e-09	9.361666e+00	2.072335e+02
2.360000e-06	1.212953e-06	3.064420e-09	8.651568e+00	2.004519e+02
2.370000e-06	1.113146e-06	2.956998e-09	7.939680e+00	1.935290e+02
2.380000e-06	1.013046e-06	2.847810e-09	7.225700e+00	1.864610e+02
2.390000e-06	9.125498e-07	2.739724e-09	6.508897e+00	1.792436e+02
2.400000e-06	8.116681e-07	2.630162e-09	5.789343e+00	1.718722e+02
2.410000e-06	7.104822e-07	2.515515e-09	5.067620e+00	1.643418e+02
2.420000e-06	6.090939e-07	2.393525e-09	4.344453e+00	1.566471e+02
2.430000e-06	5.074870e-07	2.269874e-09	3.619727e+00	1.487824e+02
2.440000e-06	4.056618e-07	2.150519e-09	2.893443e+00	1.407416e+02
2.450000e-06	3.035732e-07	2.029361e-09	2.165281e+00	1.325186e+02
2.460000e-06	2.012930e-07	1.899757e-09	1.435753e+00	1.241076e+02
2.470000e-06	9.891197e-08	1.765175e-09	7.055043e-01	1.155025e+02
2.480000e-06	-3.569481e-09	1.629623e-09	-2.545985e-02	1.066977e+02
2.490000e-06	-1.061055e-07	1.495819e-09	-7.568135e-01	9.768762e+01
2.500000e-06	-2.085752e-07	1.360648e-09	-1.487694e+00	8.846660e+01
2.510000e-06	-3.109012e-07	1.220503e-09	-2.217549e+00	7.902886e+01
2.520000e-06	-4.131611e-07	1.076045e-09	-2.946933e+00	6.936825e+01
2.530000e-06	-5.153104e-07	9.238273e-10	-3.675528e+00	5.947817e+01
2.540000e-06	-6.171584e-07	7.670870e-10	-4.401974e+00	4.935166e+01
2.550000e-06	-7.186143e-07	6.110955e-10	-5.125623e+00	3.898170e+01
2.560000e-06	-8.197645e-07	4.525184e-10	-5.847092e+00	2.836172e+01
2.570000e-06	-9.205944e-07	2.873921e-10	-6.566277e+00	1.748650e+01
2.580000e-06	-1.021088e-06	1.168439e-10	-7.283065e+00	6.353183e+00
2.590000e-06	-1.121263e-06	-5.597059e-11	-7.997576e+00	-5.037419e+00
2.600000e-06	-1.221010e-06	-2.306817e-10	-8.709033e+00	-1.667953e+01
2.610000e-06	-1.320254e-06	-4.109592e-10	-9.416904e+00	-2.856117e+01
2.620000e-06	-1.419030e-06	-5.963190e-10	-1.012144e+01	-4.066316e+01
2.630000e-06	-1.517365e-06	-7.860625e-10	-1.082283e+01	-5.295846e+01
2.640000e-06	-1.615209e-06	-9.793702e-10	-1.152072e+01	-6.541212e+01
2.650000e-06	-1.712444e-06	-1.172424e-09	-1.221426e+01	-7.798169e+01
2.660000e-06	-1.809113e-06	-1.366118e-09	-1.290377e+01	-9.061829e+01
2.670000e-06	-1.905297e-06	-1.560929e-09	-1.358982e+01	-1.032682e+02
2.680000e-06	-2.000894e-06	-1.758073e-09	-1.427167e+01	-1.158750e+02
2.690000e-06	-2.095716e-06	-1.953715e-09	-1.494801e+01	-1.283818e+02
2.700000e-06	-2.189607e-06	-2.144382e-09	-1.561770e+01	-1.407333e+02
2.710000e-06	-2.282576e-06	-2.329506e-09	-1.628081e+01	-1.528787e+02
2.720000e-06	-2.374671e-06	-2.510237e-09	-1.693770e+01	-1.647730e+02
2.730000e-06	-2.465870e-06	-2.685863e-09	-1.758818e+01	-1.763784e+02
2.740000e-06	-2.556149e-06	-2.854529e-09	-1.823211e+01	-1.876654e+02
2.750000e-06	-2.645505e-06	-3.019064e-09	-1.886946e+01	-1.986125e+02
2.760000e-06	-2.734017e-06	-3.179994e-09	-1.950078e+01	-2.092059e+02
2.770000e-06	-2.821713e-06	-3.336785e-09	-2.012629e+01	-2.194385e+02
2.780000e-06	-2.908445e-06	-3.488767e-09	-2.074491e+01	-2.293084e+02
2.790000e-06	-2.994037e-06	-3.634409e-09	-2.135541e+01	-2.388178e+02
2.800000e-06	-3.078482e-06	-3.773625e-09	-2.195773e+01	-2.479710e+02
2.810000e-06	-3.161854e-06	-3.906817e-09	-2.255239e+01	-2.567739e+02
2.820000e-06	-3.244173e-06	-4.034673e-09	-2.313955e+01	-2.652325e+02
2.830000e-06	-3.325454e-06	-4.159971e-09	-2.371929e+01	-2.733531e+02
2.840000e-06	-3.405621e-06	-4.282764e-09	-2.429110e+01	-2.811418e+02
2.850000e-06	-3.484562e-06	-4.400736e-09	-2.485416e+01	-2.886050e+02
2.860000e-06	-3.562106e-06	-4.511840e-09	-2.540725e+01	-2.957500e+02
2.870000e-06	-3.638129e-06	-4.614945e-09	-2.594949e+01	-3.025858e+02
2.880000e-06	-3.712746e-06	-4.714031e-09	-2.648171e+01	-3.091230e+02
2.890000e-06	-3.786051e-06	-4.810724e-09	-2.700457e+01	-3.153748e+02
2.900000e-06	-3.858052e-06	-4.903677e-09	-2.751813e+01	-3.213567e+02
2.910000e-06	-3.928665e-06	-4.992719e-09	-2.802179e+01	-3.270858e+02
2.920000e-06	-3.997739e-06	-5.076786e-09	-2.851447e+01	-3.325803e+02
2.930000e-06	-4.065262e-06	-5.156811e-09	-2.899609e+01	-3.378586e+02
2.940000e-06	-4.131338e-06	-5.233064e-09	-2.946738e+01	-3.429377e+02
