# Temperatura_=_57.44
# Concentracion g/m^3_=_15000.0
# C_Vs_to_Am_M_A/Vsm_=_65563218390.804596
# pendiente_HvsI_1/m_=_3716.3
# ordenada_HvsI_A/m_=_1297.0
# frecuencia_Hz_=_301594.467840895

Tiempo_(s)	Campo_(V.s)	Magnetizacion_(V.s)	Campo_(kA/m)	Magnetizacion_(A/m)
0.000000e+00	-5.372091e-06	-6.524169e-09	-3.833380e+01	-4.260931e+02
1.000000e-08	-5.369160e-06	-6.518670e-09	-3.831289e+01	-4.259184e+02
2.000000e-08	-5.364503e-06	-6.512045e-09	-3.827966e+01	-4.256390e+02
3.000000e-08	-5.358221e-06	-6.504280e-09	-3.823483e+01	-4.252532e+02
4.000000e-08	-5.350405e-06	-6.495312e-09	-3.817905e+01	-4.247619e+02
5.000000e-08	-5.340704e-06	-6.486301e-09	-3.810984e+01	-4.241699e+02
6.000000e-08	-5.328891e-06	-6.475017e-09	-3.802554e+01	-4.234852e+02
7.000000e-08	-5.315271e-06	-6.462808e-09	-3.792835e+01	-4.227184e+02
8.000000e-08	-5.299572e-06	-6.467665e-09	-3.781632e+01	-4.218817e+02
9.000000e-08	-5.281562e-06	-6.468846e-09	-3.768781e+01	-4.209871e+02
1.000000e-07	-5.261489e-06	-6.449305e-09	-3.754457e+01	-4.200456e+02
1.100000e-07	-5.239514e-06	-6.426843e-09	-3.738777e+01	-4.190651e+02
1.200000e-07	-5.215956e-06	-6.386997e-09	-3.721966e+01	-4.180498e+02
1.300000e-07	-5.190931e-06	-6.342504e-09	-3.704109e+01	-4.169994e+02
1.400000e-07	-5.164232e-06	-6.353875e-09	-3.685058e+01	-4.159089e+02
1.500000e-07	-5.135852e-06	-6.319116e-09	-3.664806e+01	-4.147694e+02
1.600000e-07	-5.106006e-06	-6.301238e-09	-3.643509e+01	-4.135688e+02
1.700000e-07	-5.074604e-06	-6.335279e-09	-3.621102e+01	-4.122932e+02
1.800000e-07	-5.041046e-06	-6.281040e-09	-3.597155e+01	-4.109284e+02
1.900000e-07	-5.005642e-06	-6.232951e-09	-3.571892e+01	-4.094615e+02
2.000000e-07	-4.968828e-06	-6.203721e-09	-3.545623e+01	-4.078821e+02
2.100000e-07	-4.930221e-06	-6.143499e-09	-3.518074e+01	-4.061834e+02
2.200000e-07	-4.889846e-06	-6.142072e-09	-3.489263e+01	-4.043625e+02
2.300000e-07	-4.847554e-06	-6.134509e-09	-3.459085e+01	-4.024205e+02
2.400000e-07	-4.803282e-06	-6.069935e-09	-3.427493e+01	-4.003617e+02
2.500000e-07	-4.757277e-06	-6.053036e-09	-3.394665e+01	-3.981932e+02
2.600000e-07	-4.709438e-06	-6.027930e-09	-3.360528e+01	-3.959234e+02
2.700000e-07	-4.659540e-06	-5.999177e-09	-3.324923e+01	-3.935607e+02
2.800000e-07	-4.607535e-06	-5.972909e-09	-3.287813e+01	-3.911126e+02
2.900000e-07	-4.553632e-06	-5.909583e-09	-3.249350e+01	-3.885848e+02
3.000000e-07	-4.498158e-06	-5.850585e-09	-3.209765e+01	-3.859805e+02
3.100000e-07	-4.440990e-06	-5.842159e-09	-3.168971e+01	-3.833004e+02
3.200000e-07	-4.381979e-06	-5.824887e-09	-3.126863e+01	-3.805430e+02
3.300000e-07	-4.321440e-06	-5.755212e-09	-3.083664e+01	-3.777048e+02
3.400000e-07	-4.259462e-06	-5.696158e-09	-3.039438e+01	-3.747815e+02
3.500000e-07	-4.196132e-06	-5.648535e-09	-2.994247e+01	-3.717684e+02
3.600000e-07	-4.131323e-06	-5.600517e-09	-2.948001e+01	-3.686614e+02
3.700000e-07	-4.064791e-06	-5.577245e-09	-2.900526e+01	-3.654576e+02
3.800000e-07	-3.996685e-06	-5.538535e-09	-2.851927e+01	-3.621554e+02
3.900000e-07	-3.927240e-06	-5.460004e-09	-2.802373e+01	-3.587546e+02
4.000000e-07	-3.856571e-06	-5.381755e-09	-2.751946e+01	-3.552563e+02
4.100000e-07	-3.784748e-06	-5.325560e-09	-2.700694e+01	-3.516624e+02
4.200000e-07	-3.711518e-06	-5.289747e-09	-2.648440e+01	-3.479746e+02
4.300000e-07	-3.636664e-06	-5.245711e-09	-2.595026e+01	-3.441946e+02
4.400000e-07	-3.560339e-06	-5.192568e-09	-2.540563e+01	-3.403228e+02
4.500000e-07	-3.482575e-06	-5.125933e-09	-2.485072e+01	-3.363585e+02
4.600000e-07	-3.403296e-06	-5.052076e-09	-2.428501e+01	-3.322997e+02
4.700000e-07	-3.322703e-06	-4.990556e-09	-2.370992e+01	-3.281431e+02
4.800000e-07	-3.241011e-06	-4.933575e-09	-2.312699e+01	-3.238846e+02
4.900000e-07	-3.158157e-06	-4.867400e-09	-2.253576e+01	-3.195196e+02
5.000000e-07	-3.074258e-06	-4.784018e-09	-2.193708e+01	-3.150439e+02
5.100000e-07	-2.989518e-06	-4.705809e-09	-2.133240e+01	-3.104537e+02
5.200000e-07	-2.903841e-06	-4.641494e-09	-2.072103e+01	-3.057465e+02
5.300000e-07	-2.817130e-06	-4.578866e-09	-2.010229e+01	-3.009209e+02
5.400000e-07	-2.729573e-06	-4.505609e-09	-1.947750e+01	-2.959767e+02
5.500000e-07	-2.641098e-06	-4.418760e-09	-1.884617e+01	-2.909148e+02
5.600000e-07	-2.551344e-06	-4.327948e-09	-1.820571e+01	-2.857368e+02
5.700000e-07	-2.460435e-06	-4.248433e-09	-1.755701e+01	-2.804443e+02
5.800000e-07	-2.368763e-06	-4.184324e-09	-1.690286e+01	-2.750388e+02
5.900000e-07	-2.276360e-06	-4.106806e-09	-1.624349e+01	-2.695209e+02
6.000000e-07	-2.183116e-06	-4.008956e-09	-1.557813e+01	-2.638902e+02
6.100000e-07	-2.089048e-06	-3.910480e-09	-1.490688e+01	-2.581456e+02
6.200000e-07	-1.994256e-06	-3.818328e-09	-1.423048e+01	-2.522845e+02
6.300000e-07	-1.898838e-06	-3.730502e-09	-1.354960e+01	-2.463039e+02
6.400000e-07	-1.802813e-06	-3.647317e-09	-1.286439e+01	-2.402004e+02
6.500000e-07	-1.706108e-06	-3.560896e-09	-1.217433e+01	-2.339707e+02
6.600000e-07	-1.608557e-06	-3.459529e-09	-1.147823e+01	-2.276115e+02
6.700000e-07	-1.510155e-06	-3.349176e-09	-1.077606e+01	-2.211203e+02
6.800000e-07	-1.411161e-06	-3.243424e-09	-1.006967e+01	-2.144954e+02
6.900000e-07	-1.311744e-06	-3.145114e-09	-9.360251e+00	-2.077353e+02
7.000000e-07	-1.211961e-06	-3.043540e-09	-8.648229e+00	-2.008389e+02
7.100000e-07	-1.111886e-06	-2.933988e-09	-7.934119e+00	-1.938047e+02
7.200000e-07	-1.011537e-06	-2.821417e-09	-7.218054e+00	-1.866310e+02
7.300000e-07	-9.109082e-07	-2.709783e-09	-6.499997e+00	-1.793148e+02
7.400000e-07	-8.099759e-07	-2.597872e-09	-5.779771e+00	-1.718520e+02
7.500000e-07	-7.087049e-07	-2.484207e-09	-5.057128e+00	-1.642369e+02
7.600000e-07	-6.071437e-07	-2.365415e-09	-4.332414e+00	-1.564627e+02
7.700000e-07	-5.053875e-07	-2.239681e-09	-3.606310e+00	-1.485216e+02
7.800000e-07	-4.034912e-07	-2.113650e-09	-2.879205e+00	-1.404051e+02
7.900000e-07	-3.014610e-07	-1.989391e-09	-2.151145e+00	-1.321044e+02
8.000000e-07	-1.992720e-07	-1.864575e-09	-1.421951e+00	-1.236114e+02
8.100000e-07	-9.698908e-08	-1.732391e-09	-6.920881e-01	-1.149185e+02
8.200000e-07	5.328586e-09	-1.592128e-09	3.802336e-02	-1.060192e+02
8.300000e-07	1.076509e-07	-1.448117e-09	7.681681e-01	-9.690778e+01
8.400000e-07	2.099717e-07	-1.303286e-09	1.498302e+00	-8.757953e+01
8.500000e-07	3.122645e-07	-1.159585e-09	2.228236e+00	-7.803003e+01
8.600000e-07	4.144521e-07	-1.012445e-09	2.957419e+00	-6.825495e+01
8.700000e-07	5.164963e-07	-8.578997e-10	3.685579e+00	-5.824960e+01
8.800000e-07	6.184052e-07	-6.956316e-10	4.412774e+00	-4.800877e+01
8.900000e-07	7.201395e-07	-5.308051e-10	5.138722e+00	-3.752675e+01
9.000000e-07	8.216149e-07	-3.653546e-10	5.862824e+00	-2.679774e+01
9.100000e-07	9.227799e-07	-1.983154e-10	6.584710e+00	-1.581669e+01
9.200000e-07	1.023601e-06	-2.752867e-11	7.304144e+00	-4.580404e+00
9.300000e-07	1.124048e-06	1.494520e-10	8.020903e+00	6.911049e+00
9.400000e-07	1.224181e-06	3.305125e-10	8.735425e+00	1.865280e+01
9.500000e-07	1.324067e-06	5.118869e-10	9.448186e+00	3.063370e+01
9.600000e-07	1.423493e-06	6.924514e-10	1.015766e+01	4.283517e+01
9.700000e-07	1.522226e-06	8.763302e-10	1.086219e+01	5.523036e+01
9.800000e-07	1.620174e-06	1.066685e-09	1.156113e+01	6.778403e+01
9.900000e-07	1.717307e-06	1.261493e-09	1.225425e+01	8.045302e+01
1.000000e-06	1.813715e-06	1.453513e-09	1.294219e+01	9.318744e+01
1.010000e-06	1.909513e-06	1.641971e-09	1.362577e+01	1.059324e+02
1.020000e-06	2.004621e-06	1.830788e-09	1.430444e+01	1.186305e+02
1.030000e-06	2.098996e-06	2.020212e-09	1.497788e+01	1.312239e+02
1.040000e-06	2.192675e-06	2.209127e-09	1.564634e+01	1.436571e+02
1.050000e-06	2.285648e-06	2.394526e-09	1.630977e+01	1.558796e+02
1.060000e-06	2.377951e-06	2.575530e-09	1.696842e+01	1.678469e+02
1.070000e-06	2.469565e-06	2.751855e-09	1.762216e+01	1.795227e+02
1.080000e-06	2.560262e-06	2.924217e-09	1.826934e+01	1.908786e+02
1.090000e-06	2.649742e-06	3.093924e-09	1.890785e+01	2.018947e+02
1.100000e-06	2.738081e-06	3.258266e-09	1.953821e+01	2.125584e+02
1.110000e-06	2.825476e-06	3.415097e-09	2.016184e+01	2.228633e+02
1.120000e-06	2.911970e-06	3.564367e-09	2.077904e+01	2.328079e+02
1.130000e-06	2.997533e-06	3.708988e-09	2.138959e+01	2.423937e+02
1.140000e-06	3.082150e-06	3.850946e-09	2.199339e+01	2.516244e+02
1.150000e-06	3.165939e-06	3.988418e-09	2.259130e+01	2.605041e+02
1.160000e-06	3.248696e-06	4.118828e-09	2.318182e+01	2.690376e+02
1.170000e-06	3.330115e-06	4.240556e-09	2.376281e+01	2.772295e+02
1.180000e-06	3.410347e-06	4.356810e-09	2.433532e+01	2.850846e+02
1.190000e-06	3.489440e-06	4.470938e-09	2.489971e+01	2.926089e+02
1.200000e-06	3.567300e-06	4.581464e-09	2.545529e+01	2.998095e+02
1.210000e-06	3.643930e-06	4.688067e-09	2.600211e+01	3.066961e+02
1.220000e-06	3.719169e-06	4.787829e-09	2.653899e+01	3.132807e+02
1.230000e-06	3.792760e-06	4.879029e-09	2.706412e+01	3.195780e+02
1.240000e-06	3.864781e-06	4.965872e-09	2.757804e+01	3.256053e+02
1.250000e-06	3.935406e-06	5.053585e-09	2.808200e+01	3.313813e+02
1.260000e-06	4.004635e-06	5.142816e-09	2.857600e+01	3.369257e+02
1.270000e-06	4.072544e-06	5.228319e-09	2.906058e+01	3.422574e+02
1.280000e-06	4.138953e-06	5.307617e-09	2.953446e+01	3.473933e+02
1.290000e-06	4.203658e-06	5.381879e-09	2.999618e+01	3.523475e+02
1.300000e-06	4.266840e-06	5.452999e-09	3.044703e+01	3.571302e+02
1.310000e-06	4.328558e-06	5.522501e-09	3.088743e+01	3.617474e+02
1.320000e-06	4.388897e-06	5.589863e-09	3.131799e+01	3.662006e+02
1.330000e-06	4.447894e-06	5.653710e-09	3.173898e+01	3.704881e+02
1.340000e-06	4.505213e-06	5.715268e-09	3.214800e+01	3.746054e+02
1.350000e-06	4.560735e-06	5.776056e-09	3.254418e+01	3.785468e+02
1.360000e-06	4.614589e-06	5.835055e-09	3.292847e+01	3.823065e+02
1.370000e-06	4.666727e-06	5.888465e-09	3.330051e+01	3.858803e+02
1.380000e-06	4.716777e-06	5.935488e-09	3.365766e+01	3.892660e+02
1.390000e-06	4.764818e-06	5.980043e-09	3.400047e+01	3.924648e+02
1.400000e-06	4.811225e-06	6.025060e-09	3.433161e+01	3.954806e+02
1.410000e-06	4.856123e-06	6.069263e-09	3.465199e+01	3.983205e+02
1.420000e-06	4.899455e-06	6.111854e-09	3.496120e+01	4.009934e+02
1.430000e-06	4.940878e-06	6.150365e-09	3.525678e+01	4.035094e+02
1.440000e-06	4.980443e-06	6.183738e-09	3.553911e+01	4.058784e+02
1.450000e-06	5.018376e-06	6.214807e-09	3.580979e+01	4.081093e+02
1.460000e-06	5.054765e-06	6.245553e-09	3.606945e+01	4.102088e+02
1.470000e-06	5.089382e-06	6.276171e-09	3.631646e+01	4.121814e+02
1.480000e-06	5.122028e-06	6.303666e-09	3.654942e+01	4.140288e+02
1.490000e-06	5.152865e-06	6.328529e-09	3.676946e+01	4.157507e+02
1.500000e-06	5.182008e-06	6.351952e-09	3.697742e+01	4.173451e+02
1.510000e-06	5.209454e-06	6.373259e-09	3.717327e+01	4.188098e+02
1.520000e-06	5.234885e-06	6.393026e-09	3.735474e+01	4.201428e+02
1.530000e-06	5.258263e-06	6.410615e-09	3.752155e+01	4.213436e+02
1.540000e-06	5.279853e-06	6.425829e-09	3.767561e+01	4.224137e+02
1.550000e-06	5.299729e-06	6.439229e-09	3.781745e+01	4.233570e+02
1.560000e-06	5.317733e-06	6.452675e-09	3.794592e+01	4.241795e+02
1.570000e-06	5.333748e-06	6.466214e-09	3.806020e+01	4.248891e+02
1.580000e-06	5.347800e-06	6.478265e-09	3.816047e+01	4.254944e+02
1.590000e-06	5.359842e-06	6.488029e-09	3.824639e+01	4.260038e+02
1.600000e-06	5.369704e-06	6.494706e-09	3.831677e+01	4.264246e+02
1.610000e-06	5.377466e-06	6.499851e-09	3.837216e+01	4.267618e+02
1.620000e-06	5.383347e-06	6.504178e-09	3.841412e+01	4.270179e+02
1.630000e-06	5.387456e-06	6.507770e-09	3.844344e+01	4.271923e+02
1.640000e-06	5.389628e-06	6.510903e-09	3.845894e+01	4.272820e+02
1.650000e-06	5.389776e-06	6.512125e-09	3.846000e+01	4.272819e+02
1.660000e-06	5.388178e-06	6.510689e-09	3.844859e+01	4.271861e+02
1.670000e-06	5.384980e-06	6.509205e-09	3.842578e+01	4.269890e+02
1.680000e-06	5.380044e-06	6.505445e-09	3.839055e+01	4.266866e+02
1.690000e-06	5.373137e-06	6.501272e-09	3.834126e+01	4.262777e+02
1.700000e-06	5.364417e-06	6.495354e-09	3.827904e+01	4.257641e+02
1.710000e-06	5.354167e-06	6.489004e-09	3.820590e+01	4.251512e+02
1.720000e-06	5.342243e-06	6.485489e-09	3.812081e+01	4.244477e+02
1.730000e-06	5.328294e-06	6.464233e-09	3.802127e+01	4.236647e+02
1.740000e-06	5.312308e-06	6.431047e-09	3.790720e+01	4.228143e+02
1.750000e-06	5.294044e-06	6.423442e-09	3.777688e+01	4.219086e+02
1.760000e-06	5.273016e-06	6.415345e-09	3.762683e+01	4.209579e+02
1.770000e-06	5.249707e-06	6.420651e-09	3.746050e+01	4.199695e+02
1.780000e-06	5.225231e-06	6.414398e-09	3.728585e+01	4.189467e+02
1.790000e-06	5.200037e-06	6.353893e-09	3.710607e+01	4.178880e+02
1.800000e-06	5.173345e-06	6.370847e-09	3.691561e+01	4.167876e+02
1.810000e-06	5.144387e-06	6.346478e-09	3.670897e+01	4.156359e+02
1.820000e-06	5.113660e-06	6.266047e-09	3.648971e+01	4.144202e+02
1.830000e-06	5.081249e-06	6.281549e-09	3.625843e+01	4.131264e+02
1.840000e-06	5.046880e-06	6.270671e-09	3.601318e+01	4.117404e+02
1.850000e-06	5.010983e-06	6.256995e-09	3.575703e+01	4.102500e+02
1.860000e-06	4.973241e-06	6.287164e-09	3.548772e+01	4.086452e+02
1.870000e-06	4.933619e-06	6.195157e-09	3.520498e+01	4.069202e+02
1.880000e-06	4.892429e-06	6.139247e-09	3.491106e+01	4.050729e+02
1.890000e-06	4.849388e-06	6.149452e-09	3.460393e+01	4.031051e+02
1.900000e-06	4.804737e-06	6.083857e-09	3.428532e+01	4.010219e+02
1.910000e-06	4.758297e-06	6.087421e-09	3.395393e+01	3.988308e+02
1.920000e-06	4.709770e-06	6.042371e-09	3.360765e+01	3.965401e+02
1.930000e-06	4.659645e-06	5.970169e-09	3.324998e+01	3.941582e+02
1.940000e-06	4.607801e-06	5.976748e-09	3.288003e+01	3.916924e+02
1.950000e-06	4.553846e-06	5.940893e-09	3.249503e+01	3.891478e+02
1.960000e-06	4.497955e-06	5.893389e-09	3.209620e+01	3.865270e+02
1.970000e-06	4.440378e-06	5.830102e-09	3.168535e+01	3.838304e+02
1.980000e-06	4.381398e-06	5.778426e-09	3.126448e+01	3.810557e+02
1.990000e-06	4.320924e-06	5.758827e-09	3.083296e+01	3.781994e+02
2.000000e-06	4.258706e-06	5.716181e-09	3.038899e+01	3.752570e+02
2.010000e-06	4.194845e-06	5.686606e-09	2.993329e+01	3.722238e+02
2.020000e-06	4.129534e-06	5.612199e-09	2.946725e+01	3.690961e+02
2.030000e-06	4.062855e-06	5.546893e-09	2.899145e+01	3.658710e+02
2.040000e-06	3.994809e-06	5.512328e-09	2.850588e+01	3.625474e+02
2.050000e-06	3.925219e-06	5.468733e-09	2.800931e+01	3.591254e+02
2.060000e-06	3.854042e-06	5.443285e-09	2.750141e+01	3.556062e+02
2.070000e-06	3.781573e-06	5.375729e-09	2.698429e+01	3.519918e+02
2.080000e-06	3.707864e-06	5.296758e-09	2.645832e+01	3.482839e+02
2.090000e-06	3.632757e-06	5.220510e-09	2.592238e+01	3.444839e+02
2.100000e-06	3.556166e-06	5.166844e-09	2.537584e+01	3.405922e+02
2.110000e-06	3.478003e-06	5.136514e-09	2.481810e+01	3.366076e+02
2.120000e-06	3.398530e-06	5.076274e-09	2.425100e+01	3.325279e+02
2.130000e-06	3.317958e-06	5.006941e-09	2.367606e+01	3.283496e+02
2.140000e-06	3.236233e-06	4.927577e-09	2.309289e+01	3.240684e+02
2.150000e-06	3.153387e-06	4.860159e-09	2.250173e+01	3.196798e+02
2.160000e-06	3.069562e-06	4.803896e-09	2.190357e+01	3.151796e+02
2.170000e-06	2.984639e-06	4.742352e-09	2.129758e+01	3.105643e+02
2.180000e-06	2.898297e-06	4.663739e-09	2.068147e+01	3.058315e+02
2.190000e-06	2.810777e-06	4.570390e-09	2.005695e+01	3.009802e+02
2.200000e-06	2.722352e-06	4.498938e-09	1.942597e+01	2.960104e+02
2.210000e-06	2.632998e-06	4.441863e-09	1.878837e+01	2.909233e+02
2.220000e-06	2.542745e-06	4.370992e-09	1.814435e+01	2.857204e+02
2.230000e-06	2.451689e-06	4.275057e-09	1.749460e+01	2.804033e+02
2.240000e-06	2.359946e-06	4.182274e-09	1.683994e+01	2.749734e+02
2.250000e-06	2.267413e-06	4.096845e-09	1.617965e+01	2.694312e+02
2.260000e-06	2.173959e-06	4.013161e-09	1.551279e+01	2.637760e+02
2.270000e-06	2.079450e-06	3.939451e-09	1.483840e+01	2.580064e+02
2.280000e-06	1.983932e-06	3.857254e-09	1.415681e+01	2.521197e+02
2.290000e-06	1.887747e-06	3.751346e-09	1.347046e+01	2.461129e+02
2.300000e-06	1.791062e-06	3.638082e-09	1.278054e+01	2.399824e+02
2.310000e-06	1.693852e-06	3.544355e-09	1.208687e+01	2.337248e+02
2.320000e-06	1.596145e-06	3.466691e-09	1.138966e+01	2.273373e+02
2.330000e-06	1.497910e-06	3.378704e-09	1.068868e+01	2.208174e+02
2.340000e-06	1.399089e-06	3.268467e-09	9.983522e+00	2.141634e+02
2.350000e-06	1.299824e-06	3.154455e-09	9.275193e+00	2.073739e+02
2.360000e-06	1.200210e-06	3.046849e-09	8.564377e+00	2.004479e+02
2.370000e-06	1.100380e-06	2.943293e-09	7.852019e+00	1.933838e+02
2.380000e-06	1.000368e-06	2.842187e-09	7.138357e+00	1.861796e+02
2.390000e-06	9.000037e-07	2.732343e-09	6.422185e+00	1.788321e+02
2.400000e-06	7.992694e-07	2.611338e-09	5.703372e+00	1.713369e+02
2.410000e-06	6.982486e-07	2.488339e-09	4.982515e+00	1.636881e+02
2.420000e-06	5.969608e-07	2.371369e-09	4.259752e+00	1.558786e+02
2.430000e-06	4.953776e-07	2.258442e-09	3.534882e+00	1.479004e+02
2.440000e-06	3.935164e-07	2.134825e-09	2.808028e+00	1.397448e+02
2.450000e-06	2.914288e-07	1.997605e-09	2.079558e+00	1.314034e+02
2.460000e-06	1.891808e-07	1.861080e-09	1.349944e+00	1.228679e+02
2.470000e-06	8.683271e-08	1.732070e-09	6.196149e-01	1.141311e+02
2.480000e-06	-1.555277e-08	1.604859e-09	-1.109804e-01	1.051865e+02
2.490000e-06	-1.179511e-07	1.472364e-09	-8.416676e-01	9.602877e+01
2.500000e-06	-2.203389e-07	1.328299e-09	-1.572280e+00	8.665322e+01
2.510000e-06	-3.226255e-07	1.175758e-09	-2.302169e+00	7.705550e+01
2.520000e-06	-4.247946e-07	1.024772e-09	-3.031221e+00	6.723125e+01
2.530000e-06	-5.268499e-07	8.777392e-10	-3.759460e+00	5.717566e+01
2.540000e-06	-6.285838e-07	7.291491e-10	-4.485405e+00	4.688339e+01
2.550000e-06	-7.299045e-07	5.708447e-10	-5.208403e+00	3.634867e+01
2.560000e-06	-8.308927e-07	4.011793e-10	-5.929028e+00	2.556579e+01
2.570000e-06	-9.315214e-07	2.295035e-10	-6.647087e+00	1.452999e+01
2.580000e-06	-1.031823e-06	6.186721e-11	-7.362809e+00	3.238629e+00
2.590000e-06	-1.131812e-06	-1.068640e-10	-8.076309e+00	-8.307306e+00
2.600000e-06	-1.231463e-06	-2.850919e-10	-8.787392e+00	-2.010172e+01
2.610000e-06	-1.330664e-06	-4.739422e-10	-9.495259e+00	-3.213197e+01
2.620000e-06	-1.429354e-06	-6.661915e-10	-1.019949e+01	-4.437774e+01
2.630000e-06	-1.527591e-06	-8.569250e-10	-1.090048e+01	-5.681039e+01
2.640000e-06	-1.625298e-06	-1.046430e-09	-1.159769e+01	-6.939290e+01
2.650000e-06	-1.722355e-06	-1.240165e-09	-1.229026e+01	-8.208055e+01
2.660000e-06	-1.818835e-06	-1.441820e-09	-1.297872e+01	-9.482223e+01
2.670000e-06	-1.914892e-06	-1.646381e-09	-1.366415e+01	-1.075623e+02
2.680000e-06	-2.010440e-06	-1.845239e-09	-1.434596e+01	-1.202430e+02
2.690000e-06	-2.105186e-06	-2.034709e-09	-1.502204e+01	-1.328068e+02
2.700000e-06	-2.198927e-06	-2.219867e-09	-1.569096e+01	-1.451993e+02
2.710000e-06	-2.291714e-06	-2.404749e-09	-1.635305e+01	-1.573708e+02
2.720000e-06	-2.383650e-06	-2.589877e-09	-1.700909e+01	-1.692787e+02
2.730000e-06	-2.474752e-06	-2.767854e-09	-1.765917e+01	-1.808882e+02
2.740000e-06	-2.564959e-06	-2.935164e-09	-1.830286e+01	-1.921730e+02
2.750000e-06	-2.654253e-06	-3.096645e-09	-1.894004e+01	-2.031146e+02
2.760000e-06	-2.742707e-06	-3.256303e-09	-1.957122e+01	-2.137020e+02
2.770000e-06	-2.830358e-06	-3.417272e-09	-2.019667e+01	-2.239300e+02
2.780000e-06	-2.916980e-06	-3.573998e-09	-2.081479e+01	-2.337977e+02
2.790000e-06	-3.002350e-06	-3.720558e-09	-2.142396e+01	-2.433073e+02
2.800000e-06	-3.086595e-06	-3.856236e-09	-2.202511e+01	-2.524627e+02
2.810000e-06	-3.169851e-06	-3.987344e-09	-2.261921e+01	-2.612681e+02
2.820000e-06	-3.252069e-06	-4.117520e-09	-2.320589e+01	-2.697282e+02
2.830000e-06	-3.333161e-06	-4.244888e-09	-2.378454e+01	-2.778477e+02
2.840000e-06	-3.413214e-06	-4.366063e-09	-2.435578e+01	-2.856317e+02
2.850000e-06	-3.492112e-06	-4.479646e-09	-2.491878e+01	-2.930862e+02
2.860000e-06	-3.569482e-06	-4.586525e-09	-2.547087e+01	-3.002189e+02
2.870000e-06	-3.645315e-06	-4.690461e-09	-2.601199e+01	-3.070399e+02
2.880000e-06	-3.719741e-06	-4.793952e-09	-2.654307e+01	-3.135618e+02
2.890000e-06	-3.792850e-06	-4.892707e-09	-2.706476e+01	-3.198000e+02
2.900000e-06	-3.864680e-06	-4.983632e-09	-2.757732e+01	-3.257720e+02
2.910000e-06	-3.935040e-06	-5.067794e-09	-2.807939e+01	-3.314971e+02
2.920000e-06	-4.003776e-06	-5.150427e-09	-2.856987e+01	-3.369946e+02
2.930000e-06	-4.071045e-06	-5.232090e-09	-2.904989e+01	-3.422832e+02
2.940000e-06	-4.136958e-06	-5.310676e-09	-2.952022e+01	-3.473793e+02
