# Temperatura_=_74.58
# Concentracion g/m^3_=_15000.0
# C_Vs_to_Am_M_A/Vsm_=_65563218390.804596
# pendiente_HvsI_1/m_=_3716.3
# ordenada_HvsI_A/m_=_1297.0
# frecuencia_Hz_=_301585.70281822514

Tiempo_(s)	Campo_(V.s)	Magnetizacion_(V.s)	Campo_(kA/m)	Magnetizacion_(A/m)
0.000000e+00	-5.378627e-06	-7.414769e-09	-3.833694e+01	-4.845354e+02
1.000000e-08	-5.375723e-06	-7.410360e-09	-3.831624e+01	-4.843529e+02
2.000000e-08	-5.371056e-06	-7.403732e-09	-3.828298e+01	-4.840514e+02
3.000000e-08	-5.364794e-06	-7.395243e-09	-3.823834e+01	-4.836268e+02
4.000000e-08	-5.356910e-06	-7.386204e-09	-3.818214e+01	-4.830783e+02
5.000000e-08	-5.347171e-06	-7.375846e-09	-3.811273e+01	-4.824086e+02
6.000000e-08	-5.335419e-06	-7.365028e-09	-3.802897e+01	-4.816247e+02
7.000000e-08	-5.321739e-06	-7.363482e-09	-3.793146e+01	-4.807368e+02
8.000000e-08	-5.305943e-06	-7.344498e-09	-3.781887e+01	-4.797580e+02
9.000000e-08	-5.287946e-06	-7.327223e-09	-3.769060e+01	-4.787026e+02
1.000000e-07	-5.267893e-06	-7.328695e-09	-3.754767e+01	-4.775848e+02
1.100000e-07	-5.245935e-06	-7.293484e-09	-3.739116e+01	-4.764164e+02
1.200000e-07	-5.222323e-06	-7.257610e-09	-3.722286e+01	-4.752061e+02
1.300000e-07	-5.197200e-06	-7.266371e-09	-3.704379e+01	-4.739574e+02
1.400000e-07	-5.170448e-06	-7.180409e-09	-3.685311e+01	-4.726689e+02
1.500000e-07	-5.142104e-06	-7.174811e-09	-3.665109e+01	-4.713333e+02
1.600000e-07	-5.112332e-06	-7.227662e-09	-3.643888e+01	-4.699389e+02
1.700000e-07	-5.080940e-06	-7.140567e-09	-3.621513e+01	-4.684702e+02
1.800000e-07	-5.047469e-06	-7.143377e-09	-3.597656e+01	-4.669096e+02
1.900000e-07	-5.012110e-06	-7.115202e-09	-3.572453e+01	-4.652394e+02
2.000000e-07	-4.975302e-06	-6.995556e-09	-3.546218e+01	-4.634433e+02
2.100000e-07	-4.936735e-06	-7.013474e-09	-3.518729e+01	-4.615082e+02
2.200000e-07	-4.896249e-06	-7.015620e-09	-3.489872e+01	-4.594250e+02
2.300000e-07	-4.853856e-06	-6.959035e-09	-3.459656e+01	-4.571897e+02
2.400000e-07	-4.809616e-06	-6.922357e-09	-3.428123e+01	-4.548031e+02
2.500000e-07	-4.763646e-06	-6.855245e-09	-3.395357e+01	-4.522702e+02
2.600000e-07	-4.715753e-06	-6.843469e-09	-3.361221e+01	-4.495994e+02
2.700000e-07	-4.665706e-06	-6.802095e-09	-3.325549e+01	-4.468012e+02
2.800000e-07	-4.613558e-06	-6.762564e-09	-3.288380e+01	-4.438865e+02
2.900000e-07	-4.559641e-06	-6.723605e-09	-3.249950e+01	-4.408655e+02
3.000000e-07	-4.504155e-06	-6.635427e-09	-3.210401e+01	-4.377466e+02
3.100000e-07	-4.447018e-06	-6.606092e-09	-3.169676e+01	-4.345354e+02
3.200000e-07	-4.388084e-06	-6.577638e-09	-3.127670e+01	-4.312343e+02
3.300000e-07	-4.327524e-06	-6.524288e-09	-3.084505e+01	-4.278430e+02
3.400000e-07	-4.265552e-06	-6.464901e-09	-3.040333e+01	-4.243586e+02
3.500000e-07	-4.202148e-06	-6.387689e-09	-2.995141e+01	-4.207765e+02
3.600000e-07	-4.137259e-06	-6.340182e-09	-2.948891e+01	-4.170910e+02
3.700000e-07	-4.070728e-06	-6.300673e-09	-2.901470e+01	-4.132967e+02
3.800000e-07	-4.002631e-06	-6.245887e-09	-2.852933e+01	-4.093886e+02
3.900000e-07	-3.933178e-06	-6.172992e-09	-2.803430e+01	-4.053633e+02
4.000000e-07	-3.862460e-06	-6.089902e-09	-2.753024e+01	-4.012188e+02
4.100000e-07	-3.790504e-06	-6.028712e-09	-2.701736e+01	-3.969546e+02
4.200000e-07	-3.717161e-06	-5.962173e-09	-2.649460e+01	-3.925715e+02
4.300000e-07	-3.642241e-06	-5.914596e-09	-2.596059e+01	-3.880711e+02
4.400000e-07	-3.565766e-06	-5.855711e-09	-2.541551e+01	-3.834556e+02
4.500000e-07	-3.487877e-06	-5.771212e-09	-2.486034e+01	-3.787267e+02
4.600000e-07	-3.408554e-06	-5.681309e-09	-2.429496e+01	-3.738859e+02
4.700000e-07	-3.327911e-06	-5.600880e-09	-2.372017e+01	-3.689336e+02
4.800000e-07	-3.246136e-06	-5.543518e-09	-2.313730e+01	-3.638694e+02
4.900000e-07	-3.163212e-06	-5.466510e-09	-2.254625e+01	-3.586922e+02
5.000000e-07	-3.079241e-06	-5.376619e-09	-2.194773e+01	-3.534003e+02
5.100000e-07	-2.994387e-06	-5.284224e-09	-2.134292e+01	-3.479917e+02
5.200000e-07	-2.908589e-06	-5.201740e-09	-2.073138e+01	-3.424643e+02
5.300000e-07	-2.821832e-06	-5.121055e-09	-2.011302e+01	-3.368163e+02
5.400000e-07	-2.734175e-06	-5.035565e-09	-1.948822e+01	-3.310464e+02
5.500000e-07	-2.645596e-06	-4.942687e-09	-1.885687e+01	-3.251536e+02
5.600000e-07	-2.555878e-06	-4.838296e-09	-1.821739e+01	-3.191374e+02
5.700000e-07	-2.464957e-06	-4.742594e-09	-1.756934e+01	-3.129973e+02
5.800000e-07	-2.373101e-06	-4.658993e-09	-1.691462e+01	-3.067332e+02
5.900000e-07	-2.280529e-06	-4.571906e-09	-1.625480e+01	-3.003444e+02
6.000000e-07	-2.187148e-06	-4.466116e-09	-1.558921e+01	-2.938299e+02
6.100000e-07	-2.092943e-06	-4.355842e-09	-1.491776e+01	-2.871885e+02
6.200000e-07	-1.998114e-06	-4.249552e-09	-1.424184e+01	-2.804184e+02
6.300000e-07	-1.902648e-06	-4.146073e-09	-1.356140e+01	-2.735174e+02
6.400000e-07	-1.806535e-06	-4.045463e-09	-1.287634e+01	-2.664831e+02
6.500000e-07	-1.709718e-06	-3.941807e-09	-1.218626e+01	-2.593131e+02
6.600000e-07	-1.612089e-06	-3.826914e-09	-1.149039e+01	-2.520049e+02
6.700000e-07	-1.513727e-06	-3.701929e-09	-1.078931e+01	-2.445562e+02
6.800000e-07	-1.414735e-06	-3.581357e-09	-1.008373e+01	-2.369645e+02
6.900000e-07	-1.315192e-06	-3.468734e-09	-9.374223e+00	-2.292271e+02
7.000000e-07	-1.215249e-06	-3.355919e-09	-8.661862e+00	-2.213411e+02
7.100000e-07	-1.115014e-06	-3.233792e-09	-7.947426e+00	-2.133025e+02
7.200000e-07	-1.014514e-06	-3.105112e-09	-7.231098e+00	-2.051066e+02
7.300000e-07	-9.137367e-07	-2.974372e-09	-6.512790e+00	-1.967477e+02
7.400000e-07	-8.126438e-07	-2.844990e-09	-5.792236e+00	-1.882187e+02
7.500000e-07	-7.112170e-07	-2.714866e-09	-5.069302e+00	-1.795117e+02
7.600000e-07	-6.095362e-07	-2.579058e-09	-4.344557e+00	-1.706182e+02
7.700000e-07	-5.076745e-07	-2.436074e-09	-3.618523e+00	-1.615294e+02
7.800000e-07	-4.056704e-07	-2.288770e-09	-2.891474e+00	-1.522370e+02
7.900000e-07	-3.035114e-07	-2.144334e-09	-2.163322e+00	-1.427334e+02
8.000000e-07	-2.011663e-07	-2.000011e-09	-1.433842e+00	-1.330124e+02
8.100000e-07	-9.873613e-08	-1.850589e-09	-7.037560e-01	-1.230691e+02
8.200000e-07	3.724716e-09	-1.692910e-09	2.654845e-02	-1.129000e+02
8.300000e-07	1.062066e-07	-1.528166e-09	7.570032e-01	-1.025028e+02
8.400000e-07	2.086275e-07	-1.360787e-09	1.487023e+00	-9.187542e+01
8.500000e-07	3.110240e-07	-1.195379e-09	2.216868e+00	-8.101581e+01
8.600000e-07	4.134155e-07	-1.029890e-09	2.946679e+00	-6.992084e+01
8.700000e-07	5.156725e-07	-8.571951e-10	3.675530e+00	-5.858582e+01
8.800000e-07	6.177115e-07	-6.763865e-10	4.402828e+00	-4.700412e+01
8.900000e-07	7.195566e-07	-4.934141e-10	5.128744e+00	-3.516733e+01
9.000000e-07	8.211614e-07	-3.105299e-10	5.852946e+00	-2.306584e+01
9.100000e-07	9.224326e-07	-1.251968e-10	6.574771e+00	-1.069002e+01
9.200000e-07	1.023350e-06	6.241044e-11	7.294077e+00	1.968094e+00
9.300000e-07	1.123963e-06	2.571123e-10	8.011208e+00	1.491275e+01
9.400000e-07	1.224248e-06	4.597547e-10	8.726001e+00	2.814227e+01
9.500000e-07	1.324116e-06	6.637277e-10	9.437828e+00	4.164693e+01
9.600000e-07	1.423530e-06	8.669421e-10	1.014642e+01	5.540715e+01
9.700000e-07	1.522432e-06	1.073521e-09	1.085135e+01	6.939236e+01
9.800000e-07	1.620673e-06	1.287366e-09	1.155158e+01	8.356069e+01
9.900000e-07	1.718065e-06	1.505946e-09	1.224576e+01	9.785953e+01
1.000000e-06	1.814589e-06	1.723767e-09	1.293374e+01	1.122272e+02
1.010000e-06	1.910381e-06	1.940086e-09	1.361652e+01	1.265952e+02
1.020000e-06	2.005571e-06	2.154868e-09	1.429499e+01	1.408920e+02
1.030000e-06	2.100099e-06	2.368315e-09	1.496876e+01	1.550456e+02
1.040000e-06	2.193868e-06	2.580924e-09	1.563711e+01	1.689882e+02
1.050000e-06	2.286880e-06	2.788429e-09	1.630006e+01	1.826589e+02
1.060000e-06	2.379137e-06	2.989086e-09	1.695764e+01	1.960064e+02
1.070000e-06	2.470765e-06	3.181276e-09	1.761073e+01	2.089912e+02
1.080000e-06	2.561655e-06	3.368113e-09	1.825856e+01	2.215859e+02
1.090000e-06	2.651353e-06	3.551851e-09	1.889790e+01	2.337754e+02
1.100000e-06	2.739746e-06	3.732273e-09	1.952794e+01	2.455548e+02
1.110000e-06	2.827179e-06	3.906399e-09	2.015113e+01	2.569280e+02
1.120000e-06	2.913805e-06	4.073728e-09	2.076857e+01	2.679047e+02
1.130000e-06	2.999477e-06	4.235879e-09	2.137920e+01	2.784977e+02
1.140000e-06	3.084165e-06	4.393790e-09	2.198283e+01	2.887203e+02
1.150000e-06	3.167913e-06	4.546784e-09	2.257976e+01	2.985841e+02
1.160000e-06	3.250676e-06	4.692997e-09	2.316966e+01	3.080979e+02
1.170000e-06	3.332249e-06	4.832010e-09	2.375109e+01	3.172665e+02
1.180000e-06	3.412572e-06	4.964938e-09	2.432360e+01	3.260918e+02
1.190000e-06	3.491685e-06	5.091773e-09	2.488749e+01	3.345730e+02
1.200000e-06	3.569560e-06	5.213168e-09	2.544256e+01	3.427089e+02
1.210000e-06	3.646213e-06	5.332190e-09	2.598891e+01	3.504987e+02
1.220000e-06	3.721544e-06	5.445079e-09	2.652584e+01	3.579447e+02
1.230000e-06	3.795330e-06	5.550175e-09	2.705176e+01	3.650529e+02
1.240000e-06	3.867493e-06	5.650166e-09	2.756611e+01	3.718338e+02
1.250000e-06	3.938195e-06	5.750296e-09	2.807005e+01	3.783031e+02
1.260000e-06	4.007547e-06	5.847502e-09	2.856437e+01	3.844805e+02
1.270000e-06	4.075613e-06	5.937882e-09	2.904952e+01	3.903887e+02
1.280000e-06	4.142239e-06	6.022357e-09	2.952441e+01	3.960517e+02
1.290000e-06	4.207129e-06	6.103922e-09	2.998692e+01	4.014930e+02
1.300000e-06	4.270470e-06	6.184149e-09	3.043839e+01	4.067334e+02
1.310000e-06	4.332401e-06	6.262116e-09	3.087981e+01	4.117899e+02
1.320000e-06	4.392902e-06	6.337553e-09	3.131104e+01	4.166743e+02
1.330000e-06	4.452017e-06	6.409778e-09	3.173240e+01	4.213930e+02
1.340000e-06	4.509427e-06	6.478831e-09	3.214159e+01	4.259470e+02
1.350000e-06	4.565030e-06	6.545787e-09	3.253791e+01	4.303332e+02
1.360000e-06	4.618996e-06	6.610597e-09	3.292256e+01	4.345452e+02
1.370000e-06	4.671179e-06	6.671395e-09	3.329450e+01	4.385755e+02
1.380000e-06	4.721359e-06	6.727287e-09	3.365216e+01	4.424167e+02
1.390000e-06	4.769573e-06	6.780434e-09	3.399582e+01	4.460630e+02
1.400000e-06	4.816075e-06	6.832176e-09	3.432727e+01	4.495117e+02
1.410000e-06	4.861048e-06	6.881174e-09	3.464782e+01	4.527632e+02
1.420000e-06	4.904401e-06	6.927946e-09	3.495683e+01	4.558213e+02
1.430000e-06	4.945832e-06	6.971687e-09	3.525213e+01	4.586929e+02
1.440000e-06	4.985462e-06	7.011633e-09	3.553460e+01	4.613867e+02
1.450000e-06	5.023512e-06	7.048198e-09	3.580581e+01	4.639122e+02
1.460000e-06	5.059903e-06	7.082192e-09	3.606519e+01	4.662788e+02
1.470000e-06	5.094516e-06	7.116399e-09	3.631189e+01	4.684947e+02
1.480000e-06	5.127194e-06	7.147551e-09	3.654482e+01	4.705659e+02
1.490000e-06	5.158094e-06	7.173530e-09	3.676506e+01	4.724964e+02
1.500000e-06	5.187338e-06	7.197109e-09	3.697350e+01	4.742880e+02
1.510000e-06	5.214848e-06	7.220432e-09	3.716958e+01	4.759411e+02
1.520000e-06	5.240355e-06	7.244029e-09	3.735139e+01	4.774552e+02
1.530000e-06	5.263811e-06	7.265934e-09	3.751857e+01	4.788299e+02
1.540000e-06	5.285472e-06	7.285196e-09	3.767296e+01	4.800660e+02
1.550000e-06	5.305449e-06	7.301986e-09	3.781535e+01	4.811656e+02
1.560000e-06	5.323543e-06	7.316253e-09	3.794432e+01	4.821329e+02
1.570000e-06	5.339579e-06	7.328744e-09	3.805862e+01	4.829736e+02
1.580000e-06	5.353647e-06	7.340528e-09	3.815889e+01	4.836950e+02
1.590000e-06	5.365731e-06	7.351442e-09	3.824502e+01	4.843046e+02
1.600000e-06	5.375633e-06	7.360606e-09	3.831560e+01	4.848094e+02
1.610000e-06	5.383418e-06	7.368122e-09	3.837108e+01	4.852150e+02
1.620000e-06	5.389370e-06	7.374663e-09	3.841351e+01	4.855248e+02
1.630000e-06	5.393507e-06	7.378464e-09	3.844300e+01	4.857393e+02
1.640000e-06	5.395673e-06	7.379418e-09	3.845844e+01	4.858564e+02
1.650000e-06	5.395892e-06	7.380254e-09	3.846000e+01	4.858714e+02
1.660000e-06	5.394312e-06	7.382376e-09	3.844874e+01	4.857783e+02
1.670000e-06	5.391054e-06	7.377856e-09	3.842552e+01	4.855705e+02
1.680000e-06	5.386077e-06	7.372166e-09	3.839004e+01	4.852426e+02
1.690000e-06	5.379161e-06	7.367680e-09	3.834075e+01	4.847912e+02
1.700000e-06	5.370497e-06	7.361963e-09	3.827899e+01	4.842161e+02
1.710000e-06	5.360337e-06	7.352800e-09	3.820657e+01	4.835210e+02
1.720000e-06	5.348466e-06	7.334384e-09	3.812196e+01	4.827136e+02
1.730000e-06	5.334575e-06	7.322925e-09	3.802295e+01	4.818048e+02
1.740000e-06	5.318558e-06	7.314388e-09	3.790879e+01	4.808081e+02
1.750000e-06	5.300243e-06	7.274079e-09	3.777824e+01	4.797380e+02
1.760000e-06	5.279366e-06	7.272941e-09	3.762944e+01	4.786082e+02
1.770000e-06	5.256198e-06	7.261361e-09	3.746431e+01	4.774301e+02
1.780000e-06	5.231715e-06	7.226717e-09	3.728980e+01	4.762111e+02
1.790000e-06	5.206540e-06	7.272617e-09	3.711036e+01	4.749540e+02
1.800000e-06	5.179910e-06	7.167630e-09	3.692056e+01	4.736559e+02
1.810000e-06	5.151072e-06	7.136416e-09	3.671501e+01	4.723086e+02
1.820000e-06	5.120395e-06	7.207389e-09	3.649636e+01	4.708995e+02
1.830000e-06	5.088023e-06	7.076710e-09	3.626561e+01	4.694123e+02
1.840000e-06	5.053766e-06	7.122854e-09	3.602145e+01	4.678295e+02
1.850000e-06	5.017865e-06	7.213373e-09	3.576556e+01	4.661334e+02
1.860000e-06	4.980176e-06	7.073901e-09	3.549692e+01	4.643082e+02
1.870000e-06	4.940573e-06	7.062388e-09	3.521464e+01	4.623417e+02
1.880000e-06	4.899343e-06	7.013689e-09	3.492077e+01	4.602259e+02
1.890000e-06	4.856301e-06	6.961210e-09	3.461398e+01	4.579577e+02
1.900000e-06	4.811575e-06	7.002821e-09	3.429519e+01	4.555390e+02
1.910000e-06	4.765114e-06	6.888663e-09	3.396404e+01	4.529755e+02
1.920000e-06	4.716648e-06	6.906401e-09	3.361859e+01	4.502763e+02
1.930000e-06	4.666512e-06	6.853071e-09	3.326124e+01	4.474519e+02
1.940000e-06	4.614599e-06	6.731047e-09	3.289122e+01	4.445134e+02
1.950000e-06	4.560629e-06	6.788927e-09	3.250654e+01	4.414706e+02
1.960000e-06	4.504741e-06	6.706704e-09	3.210819e+01	4.383313e+02
1.970000e-06	4.447149e-06	6.644492e-09	3.169769e+01	4.351004e+02
1.980000e-06	4.388102e-06	6.586632e-09	3.127683e+01	4.317799e+02
1.990000e-06	4.327649e-06	6.519630e-09	3.084594e+01	4.283687e+02
2.000000e-06	4.265517e-06	6.542980e-09	3.040309e+01	4.248636e+02
2.010000e-06	4.201707e-06	6.422999e-09	2.994828e+01	4.212596e+02
2.020000e-06	4.136403e-06	6.376266e-09	2.948281e+01	4.175510e+02
2.030000e-06	4.069666e-06	6.329743e-09	2.900713e+01	4.137324e+02
2.040000e-06	4.001537e-06	6.240775e-09	2.852153e+01	4.097993e+02
2.050000e-06	3.931939e-06	6.207465e-09	2.802546e+01	4.057483e+02
2.060000e-06	3.860745e-06	6.138217e-09	2.751801e+01	4.015779e+02
2.070000e-06	3.788182e-06	6.115908e-09	2.700081e+01	3.972878e+02
2.080000e-06	3.714338e-06	6.000708e-09	2.647448e+01	3.928792e+02
2.090000e-06	3.639111e-06	5.902305e-09	2.593829e+01	3.883538e+02
2.100000e-06	3.562495e-06	5.858084e-09	2.539219e+01	3.837136e+02
2.110000e-06	3.484314e-06	5.795758e-09	2.483495e+01	3.789604e+02
2.120000e-06	3.404773e-06	5.743916e-09	2.426801e+01	3.740954e+02
2.130000e-06	3.324132e-06	5.638962e-09	2.369323e+01	3.691189e+02
2.140000e-06	3.242355e-06	5.572121e-09	2.311035e+01	3.640304e+02
2.150000e-06	3.159540e-06	5.483570e-09	2.252008e+01	3.588286e+02
2.160000e-06	3.075651e-06	5.403332e-09	2.192215e+01	3.535116e+02
2.170000e-06	2.990660e-06	5.338518e-09	2.131636e+01	3.480775e+02
2.180000e-06	2.904405e-06	5.247690e-09	2.070156e+01	3.425241e+02
2.190000e-06	2.816824e-06	5.153738e-09	2.007732e+01	3.368499e+02
2.200000e-06	2.728305e-06	5.050653e-09	1.944639e+01	3.310534e+02
2.210000e-06	2.638892e-06	4.980911e-09	1.880908e+01	3.251340e+02
2.220000e-06	2.548562e-06	4.897584e-09	1.816525e+01	3.190910e+02
2.230000e-06	2.457411e-06	4.797534e-09	1.751555e+01	3.129242e+02
2.240000e-06	2.365473e-06	4.693111e-09	1.686025e+01	3.066332e+02
2.250000e-06	2.272747e-06	4.592428e-09	1.619933e+01	3.002173e+02
2.260000e-06	2.179173e-06	4.495199e-09	1.553237e+01	2.936755e+02
2.270000e-06	2.084597e-06	4.399522e-09	1.485827e+01	2.870065e+02
2.280000e-06	1.989027e-06	4.303221e-09	1.417708e+01	2.802082e+02
2.290000e-06	1.892742e-06	4.187777e-09	1.349079e+01	2.732786e+02
2.300000e-06	1.795939e-06	4.067589e-09	1.280081e+01	2.662152e+02
2.310000e-06	1.698619e-06	3.954275e-09	1.210715e+01	2.590156e+02
2.320000e-06	1.600752e-06	3.858369e-09	1.140959e+01	2.516773e+02
2.330000e-06	1.502367e-06	3.758101e-09	1.070834e+01	2.441979e+02
2.340000e-06	1.403522e-06	3.639600e-09	1.000380e+01	2.365750e+02
2.350000e-06	1.304258e-06	3.510595e-09	9.296285e+00	2.288058e+02
2.360000e-06	1.204630e-06	3.384058e-09	8.586172e+00	2.208871e+02
2.370000e-06	1.104727e-06	3.265224e-09	7.874100e+00	2.128150e+02
2.380000e-06	1.004512e-06	3.148083e-09	7.159807e+00	2.045845e+02
2.390000e-06	9.039694e-07	3.023963e-09	6.443172e+00	1.961895e+02
2.400000e-06	8.030579e-07	2.886398e-09	5.723911e+00	1.876228e+02
2.410000e-06	7.017735e-07	2.745675e-09	5.001991e+00	1.788764e+02
2.420000e-06	6.002249e-07	2.607787e-09	4.278190e+00	1.699415e+02
2.430000e-06	4.984090e-07	2.476427e-09	3.552482e+00	1.608096e+02
2.440000e-06	3.963481e-07	2.340634e-09	2.825028e+00	1.514723e+02
2.450000e-06	2.940487e-07	2.193024e-09	2.095874e+00	1.419224e+02
2.460000e-06	1.915623e-07	2.038616e-09	1.365388e+00	1.321539e+02
2.470000e-06	8.894433e-08	1.886662e-09	6.339635e-01	1.221622e+02
2.480000e-06	-1.374341e-08	1.739859e-09	-9.795814e-02	1.119441e+02
2.490000e-06	-1.164125e-07	1.588958e-09	-8.297472e-01	1.014975e+02
2.500000e-06	-2.190538e-07	1.424997e-09	-1.561338e+00	9.082032e+01
2.510000e-06	-3.217027e-07	1.251473e-09	-2.292982e+00	7.991035e+01
2.520000e-06	-4.242712e-07	1.080028e-09	-3.024054e+00	6.876417e+01
2.530000e-06	-5.265833e-07	9.097666e-10	-3.753299e+00	5.737667e+01
2.540000e-06	-6.286168e-07	7.369595e-10	-4.480557e+00	4.574084e+01
2.550000e-06	-7.303627e-07	5.564263e-10	-5.205765e+00	3.384792e+01
2.560000e-06	-8.316979e-07	3.664521e-10	-5.928046e+00	2.168819e+01
2.570000e-06	-9.325334e-07	1.722193e-10	-6.646766e+00	9.252213e+00
2.580000e-06	-1.032878e-06	-2.187960e-11	-7.361983e+00	-3.467349e+00
2.590000e-06	-1.132800e-06	-2.169860e-10	-8.074197e+00	-1.647367e+01
2.600000e-06	-1.232435e-06	-4.187187e-10	-8.784359e+00	-2.976352e+01
2.610000e-06	-1.331764e-06	-6.324702e-10	-9.492339e+00	-4.332518e+01
2.620000e-06	-1.430656e-06	-8.524128e-10	-1.019721e+01	-5.713681e+01
2.630000e-06	-1.528995e-06	-1.070010e-09	-1.089813e+01	-7.116541e+01
2.640000e-06	-1.626755e-06	-1.285085e-09	-1.159493e+01	-8.536671e+01
2.650000e-06	-1.724001e-06	-1.502119e-09	-1.228807e+01	-9.968599e+01
2.660000e-06	-1.820657e-06	-1.724346e-09	-1.297699e+01	-1.140599e+02
2.670000e-06	-1.916684e-06	-1.948065e-09	-1.366144e+01	-1.284190e+02
2.680000e-06	-2.012226e-06	-2.169888e-09	-1.434243e+01	-1.426913e+02
2.690000e-06	-2.107161e-06	-2.387393e-09	-1.501909e+01	-1.568055e+02
2.700000e-06	-2.201148e-06	-2.600244e-09	-1.568900e+01	-1.706949e+02
2.710000e-06	-2.294009e-06	-2.810158e-09	-1.635088e+01	-1.843005e+02
2.720000e-06	-2.385920e-06	-3.017488e-09	-1.700599e+01	-1.975734e+02
2.730000e-06	-2.477046e-06	-3.218553e-09	-1.765550e+01	-2.104767e+02
2.740000e-06	-2.567344e-06	-3.407207e-09	-1.829911e+01	-2.229858e+02
2.750000e-06	-2.656736e-06	-3.587105e-09	-1.893627e+01	-2.350876e+02
2.760000e-06	-2.745174e-06	-3.765615e-09	-1.956662e+01	-2.467796e+02
2.770000e-06	-2.832857e-06	-3.942474e-09	-2.019160e+01	-2.580672e+02
2.780000e-06	-2.919728e-06	-4.113223e-09	-2.081078e+01	-2.689607e+02
2.790000e-06	-3.005325e-06	-4.273548e-09	-2.142088e+01	-2.794735e+02
2.800000e-06	-3.089613e-06	-4.424310e-09	-2.202167e+01	-2.896186e+02
2.810000e-06	-3.172871e-06	-4.570330e-09	-2.261509e+01	-2.994071e+02
2.820000e-06	-3.255110e-06	-4.714138e-09	-2.320127e+01	-3.088468e+02
2.830000e-06	-3.336292e-06	-4.854942e-09	-2.377990e+01	-3.179420e+02
2.840000e-06	-3.416470e-06	-4.990714e-09	-2.435138e+01	-3.266939e+02
2.850000e-06	-3.495496e-06	-5.119364e-09	-2.491465e+01	-3.351015e+02
2.860000e-06	-3.572948e-06	-5.241364e-09	-2.546670e+01	-3.431634e+02
2.870000e-06	-3.648788e-06	-5.359475e-09	-2.600726e+01	-3.508796e+02
2.880000e-06	-3.723264e-06	-5.476398e-09	-2.653810e+01	-3.582528e+02
2.890000e-06	-3.796408e-06	-5.587196e-09	-2.705945e+01	-3.652899e+02
2.900000e-06	-3.868293e-06	-5.688222e-09	-2.757182e+01	-3.720029e+02
2.910000e-06	-3.938794e-06	-5.784956e-09	-2.807432e+01	-3.784080e+02
2.920000e-06	-4.007632e-06	-5.879902e-09	-2.856498e+01	-3.845260e+02
2.930000e-06	-4.075029e-06	-5.971575e-09	-2.904536e+01	-3.903799e+02
2.940000e-06	-4.141089e-06	-6.057706e-09	-2.951621e+01	-3.959937e+02
