# Temperatura_=_66.56
# Concentracion g/m^3_=_15000.0
# C_Vs_to_Am_M_A/Vsm_=_65563218390.804596
# pendiente_HvsI_1/m_=_3716.3
# ordenada_HvsI_A/m_=_1297.0
# frecuencia_Hz_=_301588.38632526196

Tiempo_(s)	Campo_(V.s)	Magnetizacion_(V.s)	Campo_(kA/m)	Magnetizacion_(A/m)
0.000000e+00	-5.371047e-06	-6.885733e-09	-3.833360e+01	-4.503107e+02
1.000000e-08	-5.367987e-06	-6.879813e-09	-3.831177e+01	-4.501210e+02
2.000000e-08	-5.363183e-06	-6.874906e-09	-3.827747e+01	-4.498298e+02
3.000000e-08	-5.356695e-06	-6.868333e-09	-3.823117e+01	-4.494323e+02
4.000000e-08	-5.348696e-06	-6.858059e-09	-3.817408e+01	-4.489265e+02
5.000000e-08	-5.338911e-06	-6.847783e-09	-3.810424e+01	-4.483129e+02
6.000000e-08	-5.327012e-06	-6.835973e-09	-3.801932e+01	-4.475958e+02
7.000000e-08	-5.313214e-06	-6.825293e-09	-3.792085e+01	-4.467825e+02
8.000000e-08	-5.297246e-06	-6.839003e-09	-3.780687e+01	-4.458827e+02
9.000000e-08	-5.278996e-06	-6.824882e-09	-3.767662e+01	-4.449079e+02
1.000000e-07	-5.258803e-06	-6.793467e-09	-3.753251e+01	-4.438690e+02
1.100000e-07	-5.236727e-06	-6.774398e-09	-3.737495e+01	-4.427760e+02
1.200000e-07	-5.212986e-06	-6.715510e-09	-3.720551e+01	-4.416359e+02
1.300000e-07	-5.187794e-06	-6.700253e-09	-3.702571e+01	-4.404518e+02
1.400000e-07	-5.160967e-06	-6.751930e-09	-3.683424e+01	-4.392226e+02
1.500000e-07	-5.132494e-06	-6.666147e-09	-3.663103e+01	-4.379426e+02
1.600000e-07	-5.102561e-06	-6.666256e-09	-3.641740e+01	-4.366023e+02
1.700000e-07	-5.070943e-06	-6.687627e-09	-3.619173e+01	-4.351893e+02
1.800000e-07	-5.037149e-06	-6.578071e-09	-3.595055e+01	-4.336895e+02
1.900000e-07	-5.001559e-06	-6.613128e-09	-3.569654e+01	-4.320888e+02
2.000000e-07	-4.964512e-06	-6.590355e-09	-3.543213e+01	-4.303745e+02
2.100000e-07	-4.925735e-06	-6.483781e-09	-3.515537e+01	-4.285367e+02
2.200000e-07	-4.885186e-06	-6.495410e-09	-3.486598e+01	-4.265692e+02
2.300000e-07	-4.842689e-06	-6.475536e-09	-3.456267e+01	-4.244698e+02
2.400000e-07	-4.798308e-06	-6.433948e-09	-3.424592e+01	-4.222403e+02
2.500000e-07	-4.752153e-06	-6.430573e-09	-3.391650e+01	-4.198862e+02
2.600000e-07	-4.704063e-06	-6.353118e-09	-3.357328e+01	-4.174153e+02
2.700000e-07	-4.653959e-06	-6.317314e-09	-3.321568e+01	-4.148368e+02
2.800000e-07	-4.601804e-06	-6.296011e-09	-3.284345e+01	-4.121599e+02
2.900000e-07	-4.547751e-06	-6.255359e-09	-3.245767e+01	-4.093928e+02
3.000000e-07	-4.492080e-06	-6.208087e-09	-3.206034e+01	-4.065417e+02
3.100000e-07	-4.434755e-06	-6.152758e-09	-3.165121e+01	-4.036099e+02
3.200000e-07	-4.375633e-06	-6.102385e-09	-3.122925e+01	-4.005980e+02
3.300000e-07	-4.314924e-06	-6.046534e-09	-3.079597e+01	-3.975042e+02
3.400000e-07	-4.252816e-06	-6.033568e-09	-3.035269e+01	-3.943242e+02
3.500000e-07	-4.189373e-06	-5.990671e-09	-2.989990e+01	-3.910527e+02
3.600000e-07	-4.124433e-06	-5.912485e-09	-2.943641e+01	-3.876840e+02
3.700000e-07	-4.057811e-06	-5.859738e-09	-2.896093e+01	-3.842127e+02
3.800000e-07	-3.989621e-06	-5.803049e-09	-2.847425e+01	-3.806346e+02
3.900000e-07	-3.920055e-06	-5.745383e-09	-2.797775e+01	-3.769469e+02
4.000000e-07	-3.849259e-06	-5.690596e-09	-2.747248e+01	-3.731488e+02
4.100000e-07	-3.777249e-06	-5.633816e-09	-2.695854e+01	-3.692408e+02
4.200000e-07	-3.703871e-06	-5.571256e-09	-2.643483e+01	-3.652246e+02
4.300000e-07	-3.628914e-06	-5.501933e-09	-2.589985e+01	-3.611027e+02
4.400000e-07	-3.552374e-06	-5.450578e-09	-2.535359e+01	-3.568776e+02
4.500000e-07	-3.474418e-06	-5.395564e-09	-2.479720e+01	-3.525512e+02
4.600000e-07	-3.395039e-06	-5.322538e-09	-2.423067e+01	-3.481244e+02
4.700000e-07	-3.314368e-06	-5.235906e-09	-2.365491e+01	-3.435969e+02
4.800000e-07	-3.232515e-06	-5.158403e-09	-2.307073e+01	-3.389671e+02
4.900000e-07	-3.149508e-06	-5.099462e-09	-2.247829e+01	-3.342321e+02
5.000000e-07	-3.065508e-06	-5.025841e-09	-2.187878e+01	-3.293882e+02
5.100000e-07	-2.980626e-06	-4.948338e-09	-2.127297e+01	-3.244313e+02
5.200000e-07	-2.894819e-06	-4.865038e-09	-2.066056e+01	-3.193574e+02
5.300000e-07	-2.807974e-06	-4.777534e-09	-2.004074e+01	-3.141626e+02
5.400000e-07	-2.720201e-06	-4.700115e-09	-1.941429e+01	-3.088442e+02
5.500000e-07	-2.631565e-06	-4.625555e-09	-1.878169e+01	-3.034002e+02
5.600000e-07	-2.541800e-06	-4.542704e-09	-1.814103e+01	-2.978297e+02
5.700000e-07	-2.450859e-06	-4.445491e-09	-1.749198e+01	-2.921325e+02
5.800000e-07	-2.359039e-06	-4.348639e-09	-1.683665e+01	-2.863094e+02
5.900000e-07	-2.266467e-06	-4.256667e-09	-1.617596e+01	-2.803615e+02
6.000000e-07	-2.173122e-06	-4.168286e-09	-1.550975e+01	-2.742899e+02
6.100000e-07	-2.079015e-06	-4.075400e-09	-1.483810e+01	-2.680959e+02
6.200000e-07	-1.984186e-06	-3.979427e-09	-1.416130e+01	-2.617801e+02
6.300000e-07	-1.888696e-06	-3.880351e-09	-1.347978e+01	-2.553429e+02
6.400000e-07	-1.792592e-06	-3.779796e-09	-1.279388e+01	-2.487842e+02
6.500000e-07	-1.695809e-06	-3.681483e-09	-1.210313e+01	-2.421032e+02
6.600000e-07	-1.598282e-06	-3.577765e-09	-1.140707e+01	-2.352986e+02
6.700000e-07	-1.500078e-06	-3.466041e-09	-1.070618e+01	-2.283686e+02
6.800000e-07	-1.401264e-06	-3.349412e-09	-1.000093e+01	-2.213108e+02
6.900000e-07	-1.301890e-06	-3.238951e-09	-9.291694e+00	-2.141220e+02
7.000000e-07	-1.202047e-06	-3.132501e-09	-8.579110e+00	-2.067985e+02
7.100000e-07	-1.101791e-06	-3.022323e-09	-7.863572e+00	-1.993355e+02
7.200000e-07	-1.001241e-06	-2.905381e-09	-7.145942e+00	-1.917274e+02
7.300000e-07	-9.004958e-07	-2.784600e-09	-6.426912e+00	-1.839679e+02
7.400000e-07	-7.995073e-07	-2.661133e-09	-5.706149e+00	-1.760495e+02
7.500000e-07	-6.982449e-07	-2.538743e-09	-4.983431e+00	-1.679644e+02
7.600000e-07	-5.967430e-07	-2.415795e-09	-4.259004e+00	-1.597044e+02
7.700000e-07	-4.949928e-07	-2.285782e-09	-3.532804e+00	-1.512613e+02
7.800000e-07	-3.930436e-07	-2.149662e-09	-2.805184e+00	-1.426273e+02
7.900000e-07	-2.910035e-07	-2.008679e-09	-2.076916e+00	-1.337955e+02
8.000000e-07	-1.888444e-07	-1.870031e-09	-1.347798e+00	-1.247600e+02
8.100000e-07	-8.655126e-08	-1.731603e-09	-6.177234e-01	-1.155159e+02
8.200000e-07	1.578626e-08	-1.588196e-09	1.126679e-01	-1.060595e+02
8.300000e-07	1.181225e-07	-1.439232e-09	8.430500e-01	-9.638766e+01
8.400000e-07	2.204692e-07	-1.283980e-09	1.573506e+00	-8.649746e+01
8.500000e-07	3.227472e-07	-1.126576e-09	2.303473e+00	-7.638577e+01
8.600000e-07	4.249124e-07	-9.681958e-10	3.032635e+00	-6.604860e+01
8.700000e-07	5.269266e-07	-8.065414e-10	3.760718e+00	-5.548078e+01
8.800000e-07	6.287676e-07	-6.394991e-10	4.487566e+00	-4.467582e+01
8.900000e-07	7.303793e-07	-4.686318e-10	5.212777e+00	-3.362616e+01
9.000000e-07	8.317340e-07	-2.952547e-10	5.936153e+00	-2.232384e+01
9.100000e-07	9.328097e-07	-1.187137e-10	6.657539e+00	-1.076158e+01
9.200000e-07	1.033548e-06	6.029432e-11	7.376517e+00	1.065720e+00
9.300000e-07	1.133996e-06	2.426614e-10	8.093421e+00	1.315930e+01
9.400000e-07	1.234148e-06	4.290134e-10	8.808218e+00	2.551473e+01
9.500000e-07	1.333940e-06	6.202413e-10	9.520437e+00	3.812023e+01
9.600000e-07	1.433243e-06	8.131068e-10	1.022917e+01	5.095537e+01
9.700000e-07	1.531898e-06	1.007503e-09	1.093328e+01	6.399030e+01
9.800000e-07	1.629789e-06	1.205343e-09	1.163194e+01	7.718568e+01
9.900000e-07	1.726831e-06	1.406965e-09	1.232453e+01	9.049337e+01
1.000000e-06	1.823125e-06	1.608459e-09	1.301179e+01	1.038580e+02
1.010000e-06	1.918828e-06	1.808267e-09	1.369483e+01	1.172190e+02
1.020000e-06	2.013873e-06	2.007351e-09	1.437318e+01	1.305134e+02
1.030000e-06	2.108207e-06	2.204930e-09	1.504645e+01	1.436788e+02
1.040000e-06	2.201814e-06	2.401001e-09	1.571452e+01	1.566563e+02
1.050000e-06	2.294667e-06	2.594293e-09	1.637723e+01	1.693930e+02
1.060000e-06	2.386829e-06	2.783366e-09	1.703500e+01	1.818440e+02
1.070000e-06	2.478247e-06	2.965896e-09	1.768745e+01	1.939741e+02
1.080000e-06	2.568640e-06	3.142086e-09	1.833260e+01	2.057579e+02
1.090000e-06	2.657911e-06	3.315746e-09	1.896973e+01	2.171793e+02
1.100000e-06	2.746154e-06	3.485760e-09	1.959953e+01	2.282310e+02
1.110000e-06	2.833485e-06	3.650337e-09	2.022281e+01	2.389118e+02
1.120000e-06	2.919939e-06	3.808166e-09	2.083985e+01	2.492256e+02
1.130000e-06	3.005455e-06	3.960434e-09	2.145018e+01	2.591785e+02
1.140000e-06	3.090062e-06	4.107518e-09	2.205402e+01	2.687773e+02
1.150000e-06	3.173773e-06	4.249051e-09	2.265147e+01	2.780283e+02
1.160000e-06	3.256405e-06	4.383459e-09	2.324123e+01	2.869358e+02
1.170000e-06	3.337725e-06	4.511690e-09	2.382162e+01	2.955028e+02
1.180000e-06	3.417763e-06	4.635421e-09	2.439285e+01	3.037307e+02
1.190000e-06	3.496633e-06	4.753675e-09	2.495576e+01	3.116206e+02
1.200000e-06	3.574275e-06	4.868212e-09	2.550990e+01	3.191747e+02
1.210000e-06	3.650633e-06	4.979223e-09	2.605486e+01	3.263971e+02
1.220000e-06	3.725669e-06	5.083850e-09	2.659040e+01	3.332953e+02
1.230000e-06	3.799115e-06	5.180814e-09	2.711460e+01	3.398806e+02
1.240000e-06	3.870971e-06	5.273058e-09	2.762744e+01	3.461684e+02
1.250000e-06	3.941450e-06	5.362396e-09	2.813045e+01	3.521779e+02
1.260000e-06	4.010560e-06	5.450712e-09	2.862370e+01	3.579307e+02
1.270000e-06	4.078358e-06	5.535823e-09	2.910758e+01	3.634498e+02
1.280000e-06	4.144590e-06	5.617587e-09	2.958028e+01	3.687575e+02
1.290000e-06	4.209084e-06	5.696738e-09	3.004058e+01	3.738741e+02
1.300000e-06	4.272106e-06	5.773837e-09	3.049037e+01	3.788159e+02
1.310000e-06	4.333759e-06	5.848404e-09	3.093039e+01	3.835943e+02
1.320000e-06	4.394084e-06	5.918624e-09	3.136093e+01	3.882155e+02
1.330000e-06	4.452951e-06	5.984721e-09	3.178107e+01	3.926802e+02
1.340000e-06	4.510026e-06	6.048956e-09	3.218842e+01	3.969846e+02
1.350000e-06	4.565355e-06	6.111324e-09	3.258331e+01	4.011215e+02
1.360000e-06	4.619025e-06	6.170508e-09	3.296636e+01	4.050820e+02
1.370000e-06	4.670876e-06	6.226048e-09	3.333643e+01	4.088570e+02
1.380000e-06	4.720682e-06	6.279477e-09	3.369189e+01	4.124390e+02
1.390000e-06	4.768543e-06	6.330960e-09	3.403348e+01	4.158236e+02
1.400000e-06	4.814802e-06	6.379640e-09	3.436364e+01	4.190097e+02
1.410000e-06	4.859568e-06	6.425290e-09	3.468313e+01	4.220005e+02
1.420000e-06	4.902721e-06	6.467778e-09	3.499112e+01	4.248025e+02
1.430000e-06	4.943938e-06	6.505861e-09	3.528529e+01	4.274251e+02
1.440000e-06	4.983301e-06	6.539651e-09	3.556623e+01	4.298796e+02
1.450000e-06	5.021092e-06	6.571827e-09	3.583594e+01	4.321773e+02
1.460000e-06	5.057316e-06	6.603678e-09	3.609448e+01	4.343288e+02
1.470000e-06	5.091631e-06	6.634508e-09	3.633938e+01	4.363427e+02
1.480000e-06	5.124016e-06	6.662392e-09	3.657052e+01	4.382251e+02
1.490000e-06	5.154723e-06	6.686567e-09	3.678968e+01	4.399790e+02
1.500000e-06	5.183736e-06	6.708844e-09	3.699675e+01	4.416054e+02
1.510000e-06	5.210953e-06	6.730234e-09	3.719100e+01	4.431031e+02
1.520000e-06	5.236140e-06	6.750381e-09	3.737076e+01	4.444703e+02
1.530000e-06	5.259346e-06	6.768452e-09	3.753638e+01	4.457051e+02
1.540000e-06	5.280779e-06	6.785305e-09	3.768935e+01	4.468072e+02
1.550000e-06	5.300522e-06	6.801067e-09	3.783026e+01	4.477779e+02
1.560000e-06	5.318338e-06	6.814823e-09	3.795741e+01	4.486209e+02
1.570000e-06	5.334081e-06	6.826951e-09	3.806977e+01	4.493420e+02
1.580000e-06	5.347925e-06	6.837259e-09	3.816858e+01	4.499488e+02
1.590000e-06	5.359794e-06	6.846612e-09	3.825329e+01	4.504498e+02
1.600000e-06	5.369449e-06	6.854086e-09	3.832220e+01	4.508535e+02
1.610000e-06	5.377014e-06	6.859982e-09	3.837619e+01	4.511670e+02
1.620000e-06	5.382777e-06	6.865113e-09	3.841732e+01	4.513954e+02
1.630000e-06	5.386769e-06	6.868826e-09	3.844581e+01	4.515413e+02
1.640000e-06	5.388746e-06	6.870884e-09	3.845992e+01	4.516042e+02
1.650000e-06	5.388757e-06	6.870409e-09	3.846000e+01	4.515810e+02
1.660000e-06	5.387030e-06	6.867793e-09	3.844768e+01	4.514667e+02
1.670000e-06	5.383687e-06	6.865748e-09	3.842382e+01	4.512554e+02
1.680000e-06	5.378541e-06	6.860476e-09	3.838709e+01	4.509414e+02
1.690000e-06	5.371446e-06	6.855130e-09	3.833645e+01	4.505205e+02
1.700000e-06	5.362688e-06	6.850821e-09	3.827394e+01	4.499911e+02
1.710000e-06	5.352362e-06	6.847037e-09	3.820025e+01	4.493546e+02
1.720000e-06	5.340271e-06	6.844019e-09	3.811395e+01	4.486159e+02
1.730000e-06	5.326159e-06	6.801772e-09	3.801323e+01	4.477829e+02
1.740000e-06	5.309981e-06	6.779459e-09	3.789777e+01	4.468658e+02
1.750000e-06	5.291382e-06	6.782691e-09	3.776503e+01	4.458760e+02
1.760000e-06	5.270014e-06	6.767930e-09	3.761252e+01	4.448245e+02
1.770000e-06	5.246565e-06	6.804494e-09	3.744517e+01	4.437206e+02
1.780000e-06	5.222101e-06	6.757436e-09	3.727056e+01	4.425706e+02
1.790000e-06	5.196923e-06	6.666012e-09	3.709087e+01	4.413768e+02
1.800000e-06	5.170060e-06	6.719496e-09	3.689914e+01	4.401371e+02
1.810000e-06	5.140816e-06	6.639396e-09	3.669042e+01	4.388448e+02
1.820000e-06	5.109887e-06	6.609389e-09	3.646968e+01	4.374898e+02
1.830000e-06	5.077303e-06	6.692404e-09	3.623713e+01	4.360591e+02
1.840000e-06	5.042873e-06	6.573161e-09	3.599139e+01	4.345385e+02
1.850000e-06	5.006961e-06	6.584059e-09	3.573509e+01	4.329142e+02
1.860000e-06	4.969182e-06	6.647110e-09	3.546546e+01	4.311739e+02
1.870000e-06	4.929561e-06	6.513245e-09	3.518268e+01	4.293084e+02
1.880000e-06	4.888294e-06	6.517861e-09	3.488816e+01	4.273123e+02
1.890000e-06	4.845139e-06	6.483911e-09	3.458015e+01	4.251845e+02
1.900000e-06	4.800284e-06	6.399882e-09	3.426002e+01	4.229275e+02
1.910000e-06	4.753518e-06	6.436250e-09	3.392624e+01	4.205473e+02
1.920000e-06	4.704835e-06	6.339332e-09	3.357879e+01	4.180522e+02
1.930000e-06	4.654617e-06	6.331965e-09	3.322038e+01	4.154516e+02
1.940000e-06	4.602517e-06	6.307032e-09	3.284854e+01	4.127545e+02
1.950000e-06	4.548326e-06	6.210857e-09	3.246177e+01	4.099687e+02
1.960000e-06	4.492276e-06	6.216615e-09	3.206174e+01	4.070998e+02
1.970000e-06	4.434583e-06	6.157906e-09	3.164998e+01	4.041505e+02
1.980000e-06	4.375534e-06	6.128343e-09	3.122855e+01	4.011211e+02
1.990000e-06	4.314906e-06	6.054664e-09	3.079584e+01	3.980088e+02
2.000000e-06	4.252540e-06	5.980688e-09	3.035072e+01	3.948094e+02
2.010000e-06	4.188618e-06	5.984682e-09	2.989451e+01	3.915173e+02
2.020000e-06	4.123214e-06	5.893918e-09	2.942772e+01	3.881267e+02
2.030000e-06	4.056422e-06	5.868064e-09	2.895102e+01	3.846326e+02
2.040000e-06	3.988209e-06	5.830130e-09	2.846418e+01	3.810309e+02
2.050000e-06	3.918460e-06	5.745340e-09	2.796637e+01	3.773193e+02
2.060000e-06	3.847174e-06	5.680052e-09	2.745760e+01	3.734972e+02
2.070000e-06	3.774576e-06	5.607958e-09	2.693946e+01	3.695656e+02
2.080000e-06	3.700706e-06	5.583309e-09	2.641224e+01	3.655262e+02
2.090000e-06	3.625433e-06	5.506754e-09	2.587501e+01	3.613817e+02
2.100000e-06	3.548637e-06	5.431770e-09	2.532691e+01	3.571345e+02
2.110000e-06	3.470334e-06	5.367391e-09	2.476806e+01	3.527862e+02
2.120000e-06	3.390772e-06	5.308071e-09	2.420022e+01	3.483376e+02
2.130000e-06	3.310088e-06	5.247895e-09	2.362437e+01	3.437881e+02
2.140000e-06	3.228256e-06	5.163720e-09	2.304033e+01	3.391357e+02
2.150000e-06	3.145360e-06	5.105877e-09	2.244869e+01	3.343774e+02
2.160000e-06	3.061474e-06	5.017003e-09	2.184999e+01	3.295094e+02
2.170000e-06	2.976324e-06	4.943567e-09	2.124227e+01	3.245275e+02
2.180000e-06	2.889819e-06	4.878051e-09	2.062488e+01	3.194276e+02
2.190000e-06	2.802284e-06	4.798770e-09	2.000013e+01	3.142063e+02
2.200000e-06	2.713850e-06	4.715828e-09	1.936897e+01	3.088608e+02
2.210000e-06	2.624481e-06	4.620483e-09	1.873114e+01	3.033895e+02
2.220000e-06	2.534215e-06	4.542951e-09	1.808690e+01	2.977915e+02
2.230000e-06	2.443139e-06	4.462924e-09	1.743688e+01	2.920670e+02
2.240000e-06	2.351249e-06	4.380042e-09	1.678106e+01	2.862167e+02
2.250000e-06	2.258475e-06	4.287672e-09	1.611892e+01	2.802419e+02
2.260000e-06	2.164823e-06	4.187723e-09	1.545052e+01	2.741437e+02
2.270000e-06	2.070209e-06	4.082254e-09	1.477525e+01	2.679232e+02
2.280000e-06	1.974658e-06	3.988006e-09	1.409329e+01	2.615811e+02
2.290000e-06	1.878456e-06	3.900891e-09	1.340669e+01	2.551177e+02
2.300000e-06	1.781730e-06	3.802134e-09	1.271635e+01	2.485325e+02
2.310000e-06	1.684468e-06	3.697045e-09	1.202218e+01	2.418249e+02
2.320000e-06	1.586706e-06	3.587647e-09	1.132445e+01	2.349933e+02
2.330000e-06	1.488416e-06	3.487208e-09	1.062294e+01	2.280358e+02
2.340000e-06	1.389673e-06	3.383874e-09	9.918212e+00	2.209499e+02
2.350000e-06	1.290557e-06	3.274272e-09	9.210812e+00	2.137324e+02
2.360000e-06	1.191094e-06	3.159720e-09	8.500938e+00	2.063791e+02
2.370000e-06	1.091352e-06	3.040480e-09	7.789069e+00	1.988852e+02
2.380000e-06	9.912848e-07	2.923560e-09	7.074881e+00	1.912450e+02
2.390000e-06	8.907914e-07	2.811268e-09	6.357651e+00	1.834517e+02
2.400000e-06	7.899319e-07	2.695566e-09	5.637808e+00	1.754980e+02
2.410000e-06	6.887624e-07	2.569363e-09	4.915754e+00	1.673758e+02
2.420000e-06	5.872666e-07	2.436261e-09	4.191370e+00	1.590770e+02
2.430000e-06	4.855408e-07	2.306424e-09	3.465344e+00	1.505933e+02
2.440000e-06	3.836329e-07	2.184219e-09	2.738020e+00	1.419172e+02
2.450000e-06	2.814872e-07	2.053761e-09	2.008997e+00	1.330419e+02
2.460000e-06	1.791026e-07	1.912374e-09	1.278270e+00	1.239618e+02
2.470000e-06	7.665288e-08	1.766400e-09	5.470779e-01	1.146722e+02
2.480000e-06	-2.580868e-08	1.619857e-09	-1.841987e-01	1.051696e+02
2.490000e-06	-1.282698e-07	1.476208e-09	-9.154718e-01	9.545090e+01
2.500000e-06	-2.306512e-07	1.331426e-09	-1.646176e+00	8.551323e+01
2.510000e-06	-3.329890e-07	1.181367e-09	-2.376570e+00	7.535329e+01
2.520000e-06	-4.351932e-07	1.024860e-09	-3.106009e+00	6.496689e+01
2.530000e-06	-5.372219e-07	8.617208e-10	-3.834196e+00	5.434855e+01
2.540000e-06	-6.390182e-07	6.971512e-10	-4.560725e+00	4.349153e+01
2.550000e-06	-7.404887e-07	5.327214e-10	-5.284929e+00	3.238810e+01
2.560000e-06	-8.416106e-07	3.592406e-10	-6.006644e+00	2.103035e+01
2.570000e-06	-9.423533e-07	1.768291e-10	-6.725653e+00	9.411332e+00
2.580000e-06	-1.042696e-06	-8.306972e-12	-7.441808e+00	-2.473385e+00
2.590000e-06	-1.142620e-06	-1.931208e-10	-8.154971e+00	-1.462397e+01
2.600000e-06	-1.242156e-06	-3.786075e-10	-8.865367e+00	-2.703455e+01
2.610000e-06	-1.341298e-06	-5.692922e-10	-9.572952e+00	-3.969158e+01
2.620000e-06	-1.440001e-06	-7.669529e-10	-1.027741e+01	-5.257267e+01
2.630000e-06	-1.538150e-06	-9.729839e-10	-1.097790e+01	-6.564590e+01
2.640000e-06	-1.635743e-06	-1.179985e-09	-1.167443e+01	-7.886996e+01
2.650000e-06	-1.732783e-06	-1.384271e-09	-1.236701e+01	-9.219501e+01
2.660000e-06	-1.829233e-06	-1.589321e-09	-1.305538e+01	-1.055644e+02
2.670000e-06	-1.925155e-06	-1.797950e-09	-1.373999e+01	-1.189167e+02
2.680000e-06	-2.020570e-06	-2.007792e-09	-1.442097e+01	-1.321890e+02
2.690000e-06	-2.115270e-06	-2.211623e-09	-1.509685e+01	-1.453192e+02
2.700000e-06	-2.208934e-06	-2.408685e-09	-1.576534e+01	-1.582496e+02
2.710000e-06	-2.301539e-06	-2.600555e-09	-1.642627e+01	-1.709288e+02
2.720000e-06	-2.393275e-06	-2.789309e-09	-1.708100e+01	-1.833140e+02
2.730000e-06	-2.484253e-06	-2.973786e-09	-1.773031e+01	-1.953720e+02
2.740000e-06	-2.574327e-06	-3.152295e-09	-1.837318e+01	-2.070794e+02
2.750000e-06	-2.663403e-06	-3.324535e-09	-1.900892e+01	-2.184223e+02
2.760000e-06	-2.751643e-06	-3.491243e-09	-1.963870e+01	-2.293947e+02
2.770000e-06	-2.839138e-06	-3.654298e-09	-2.026316e+01	-2.399967e+02
2.780000e-06	-2.925721e-06	-3.813232e-09	-2.088111e+01	-2.502329e+02
2.790000e-06	-3.011072e-06	-3.965107e-09	-2.149027e+01	-2.601096e+02
2.800000e-06	-3.095157e-06	-4.108681e-09	-2.209039e+01	-2.696338e+02
2.810000e-06	-3.178229e-06	-4.245001e-09	-2.268328e+01	-2.788111e+02
2.820000e-06	-3.260246e-06	-4.378368e-09	-2.326864e+01	-2.876458e+02
2.830000e-06	-3.341131e-06	-4.509550e-09	-2.384592e+01	-2.961403e+02
2.840000e-06	-3.420997e-06	-4.636582e-09	-2.441593e+01	-3.042959e+02
2.850000e-06	-3.499690e-06	-4.760097e-09	-2.497757e+01	-3.121140e+02
2.860000e-06	-3.576860e-06	-4.877667e-09	-2.552834e+01	-3.195968e+02
2.870000e-06	-3.652521e-06	-4.989008e-09	-2.606834e+01	-3.267493e+02
2.880000e-06	-3.726819e-06	-5.094419e-09	-2.659861e+01	-3.335796e+02
2.890000e-06	-3.799722e-06	-5.194289e-09	-2.711892e+01	-3.401000e+02
2.900000e-06	-3.871326e-06	-5.289654e-09	-2.762997e+01	-3.463268e+02
2.910000e-06	-3.941523e-06	-5.379728e-09	-2.813097e+01	-3.522796e+02
2.920000e-06	-4.010074e-06	-5.466019e-09	-2.862022e+01	-3.579807e+02
2.930000e-06	-4.077117e-06	-5.550084e-09	-2.909872e+01	-3.634530e+02
2.940000e-06	-4.142805e-06	-5.631336e-09	-2.956754e+01	-3.687185e+02
