# Temperatura_=_34.14
# Concentracion g/m^3_=_15000.0
# C_Vs_to_Am_M_A/Vsm_=_65563218390.804596
# pendiente_HvsI_1/m_=_3716.3
# ordenada_HvsI_A/m_=_1297.0
# frecuencia_Hz_=_301597.59337850055

Tiempo_(s)	Campo_(V.s)	Magnetizacion_(V.s)	Campo_(kA/m)	Magnetizacion_(A/m)
0.000000e+00	-5.380979e-06	-5.799442e-09	-3.833809e+01	-3.790816e+02
1.000000e-08	-5.378333e-06	-5.794710e-09	-3.831923e+01	-3.789216e+02
2.000000e-08	-5.373892e-06	-5.789514e-09	-3.828759e+01	-3.786763e+02
3.000000e-08	-5.367862e-06	-5.781979e-09	-3.824463e+01	-3.783463e+02
4.000000e-08	-5.360249e-06	-5.774126e-09	-3.819039e+01	-3.779335e+02
5.000000e-08	-5.350835e-06	-5.766938e-09	-3.812332e+01	-3.774424e+02
6.000000e-08	-5.339412e-06	-5.759279e-09	-3.804193e+01	-3.768787e+02
7.000000e-08	-5.326050e-06	-5.755617e-09	-3.794673e+01	-3.762499e+02
8.000000e-08	-5.310615e-06	-5.744623e-09	-3.783676e+01	-3.755642e+02
9.000000e-08	-5.292933e-06	-5.733052e-09	-3.771078e+01	-3.748296e+02
1.000000e-07	-5.273163e-06	-5.738858e-09	-3.756992e+01	-3.740531e+02
1.100000e-07	-5.251531e-06	-5.716545e-09	-3.741580e+01	-3.732398e+02
1.200000e-07	-5.228184e-06	-5.679495e-09	-3.724946e+01	-3.723923e+02
1.300000e-07	-5.203254e-06	-5.679717e-09	-3.707184e+01	-3.715103e+02
1.400000e-07	-5.176729e-06	-5.626514e-09	-3.688286e+01	-3.705904e+02
1.500000e-07	-5.148615e-06	-5.618998e-09	-3.668255e+01	-3.696266e+02
1.600000e-07	-5.119018e-06	-5.672747e-09	-3.647168e+01	-3.686108e+02
1.700000e-07	-5.087831e-06	-5.609163e-09	-3.624948e+01	-3.675338e+02
1.800000e-07	-5.054598e-06	-5.607665e-09	-3.601271e+01	-3.663861e+02
1.900000e-07	-5.019429e-06	-5.617819e-09	-3.576213e+01	-3.651590e+02
2.000000e-07	-4.982773e-06	-5.518196e-09	-3.550097e+01	-3.638456e+02
2.100000e-07	-4.944425e-06	-5.497785e-09	-3.522775e+01	-3.624410e+02
2.200000e-07	-4.904275e-06	-5.472829e-09	-3.494169e+01	-3.609433e+02
2.300000e-07	-4.862207e-06	-5.437375e-09	-3.464197e+01	-3.593529e+02
2.400000e-07	-4.818175e-06	-5.469431e-09	-3.432825e+01	-3.576728e+02
2.500000e-07	-4.772388e-06	-5.450830e-09	-3.400203e+01	-3.559075e+02
2.600000e-07	-4.724707e-06	-5.412390e-09	-3.366231e+01	-3.540623e+02
2.700000e-07	-4.674922e-06	-5.361563e-09	-3.330761e+01	-3.521429e+02
2.800000e-07	-4.623066e-06	-5.324849e-09	-3.293815e+01	-3.501538e+02
2.900000e-07	-4.569352e-06	-5.324382e-09	-3.255545e+01	-3.480985e+02
3.000000e-07	-4.514018e-06	-5.292202e-09	-3.216121e+01	-3.459786e+02
3.100000e-07	-4.457056e-06	-5.249026e-09	-3.175537e+01	-3.437938e+02
3.200000e-07	-4.398271e-06	-5.193168e-09	-3.133655e+01	-3.415421e+02
3.300000e-07	-4.337825e-06	-5.152886e-09	-3.090588e+01	-3.392201e+02
3.400000e-07	-4.275938e-06	-5.139411e-09	-3.046496e+01	-3.368239e+02
3.500000e-07	-4.212723e-06	-5.103564e-09	-3.001456e+01	-3.343493e+02
3.600000e-07	-4.148119e-06	-5.063494e-09	-2.955427e+01	-3.317925e+02
3.700000e-07	-4.081819e-06	-5.008414e-09	-2.908190e+01	-3.291507e+02
3.800000e-07	-4.013859e-06	-4.960792e-09	-2.859771e+01	-3.264225e+02
3.900000e-07	-3.944496e-06	-4.933612e-09	-2.810352e+01	-3.236075e+02
4.000000e-07	-3.873893e-06	-4.891000e-09	-2.760049e+01	-3.207064e+02
4.100000e-07	-3.802077e-06	-4.843722e-09	-2.708881e+01	-3.177209e+02
4.200000e-07	-3.728891e-06	-4.779180e-09	-2.656739e+01	-3.146526e+02
4.300000e-07	-3.654126e-06	-4.730560e-09	-2.603470e+01	-3.115030e+02
4.400000e-07	-3.577790e-06	-4.700746e-09	-2.549083e+01	-3.082728e+02
4.500000e-07	-3.500034e-06	-4.671491e-09	-2.493683e+01	-3.049616e+02
4.600000e-07	-3.420878e-06	-4.623109e-09	-2.437287e+01	-3.015676e+02
4.700000e-07	-3.340430e-06	-4.544220e-09	-2.379970e+01	-2.980880e+02
4.800000e-07	-3.258769e-06	-4.474425e-09	-2.321789e+01	-2.945189e+02
4.900000e-07	-3.175927e-06	-4.421006e-09	-2.262766e+01	-2.908558e+02
5.000000e-07	-3.092093e-06	-4.373521e-09	-2.203036e+01	-2.870939e+02
5.100000e-07	-3.007383e-06	-4.319295e-09	-2.142683e+01	-2.832291e+02
5.200000e-07	-2.921713e-06	-4.255682e-09	-2.081645e+01	-2.792580e+02
5.300000e-07	-2.835042e-06	-4.183967e-09	-2.019894e+01	-2.751781e+02
5.400000e-07	-2.747462e-06	-4.117770e-09	-1.957496e+01	-2.709886e+02
5.500000e-07	-2.658918e-06	-4.062130e-09	-1.894410e+01	-2.666895e+02
5.600000e-07	-2.569213e-06	-4.002405e-09	-1.830498e+01	-2.622820e+02
5.700000e-07	-2.478393e-06	-3.927291e-09	-1.765791e+01	-2.577678e+02
5.800000e-07	-2.386657e-06	-3.845175e-09	-1.700432e+01	-2.531486e+02
5.900000e-07	-2.294079e-06	-3.772108e-09	-1.634472e+01	-2.484260e+02
6.000000e-07	-2.200700e-06	-3.704930e-09	-1.567942e+01	-2.436005e+02
6.100000e-07	-2.106582e-06	-3.632067e-09	-1.500885e+01	-2.386717e+02
6.200000e-07	-2.011803e-06	-3.551989e-09	-1.433358e+01	-2.336379e+02
6.300000e-07	-1.916398e-06	-3.469665e-09	-1.365384e+01	-2.284964e+02
6.400000e-07	-1.820301e-06	-3.388218e-09	-1.296917e+01	-2.232433e+02
6.500000e-07	-1.723410e-06	-3.313844e-09	-1.227885e+01	-2.178744e+02
6.600000e-07	-1.625703e-06	-3.239292e-09	-1.158271e+01	-2.123851e+02
6.700000e-07	-1.527309e-06	-3.151916e-09	-1.088168e+01	-2.067711e+02
6.800000e-07	-1.428369e-06	-3.053347e-09	-1.017676e+01	-2.010284e+02
6.900000e-07	-1.328925e-06	-2.955594e-09	-9.468247e+00	-1.951542e+02
7.000000e-07	-1.229035e-06	-2.866893e-09	-8.756555e+00	-1.891463e+02
7.100000e-07	-1.128812e-06	-2.779663e-09	-8.042497e+00	-1.830033e+02
7.200000e-07	-1.028289e-06	-2.685010e-09	-7.326291e+00	-1.767243e+02
7.300000e-07	-9.274627e-07	-2.583050e-09	-6.607932e+00	-1.703088e+02
7.400000e-07	-8.263410e-07	-2.479734e-09	-5.887466e+00	-1.637560e+02
7.500000e-07	-7.249383e-07	-2.380202e-09	-5.164998e+00	-1.570648e+02
7.600000e-07	-6.233045e-07	-2.283156e-09	-4.440883e+00	-1.502331e+02
7.700000e-07	-5.214211e-07	-2.180172e-09	-3.714990e+00	-1.432577e+02
7.800000e-07	-4.193292e-07	-2.066717e-09	-2.987612e+00	-1.361343e+02
7.900000e-07	-3.171450e-07	-1.948637e-09	-2.259576e+00	-1.288574e+02
8.000000e-07	-2.148718e-07	-1.833350e-09	-1.530906e+00	-1.214204e+02
8.100000e-07	-1.124647e-07	-1.720533e-09	-8.012821e-01	-1.138159e+02
8.200000e-07	-9.960548e-09	-1.605416e-09	-7.096633e-02	-1.060357e+02
8.300000e-07	9.257294e-08	-1.484008e-09	6.595583e-01	-9.807123e+01
8.400000e-07	1.950693e-07	-1.355104e-09	1.389818e+00	-8.991388e+01
8.500000e-07	2.974672e-07	-1.226445e-09	2.119377e+00	-8.155492e+01
8.600000e-07	3.997933e-07	-1.101194e-09	2.848424e+00	-7.298589e+01
8.700000e-07	5.020112e-07	-9.717290e-10	3.576700e+00	-6.419869e+01
8.800000e-07	6.040771e-07	-8.314828e-10	4.303893e+00	-5.518584e+01
8.900000e-07	7.059822e-07	-6.842678e-10	5.029941e+00	-4.594072e+01
9.000000e-07	8.075952e-07	-5.353475e-10	5.753907e+00	-3.645798e+01
9.100000e-07	9.088684e-07	-3.861437e-10	6.475452e+00	-2.673400e+01
9.200000e-07	1.009827e-06	-2.368091e-10	7.194757e+00	-1.676751e+01
9.300000e-07	1.110440e-06	-8.339930e-11	7.911595e+00	-6.560321e+00
9.400000e-07	1.210720e-06	7.650487e-11	8.626067e+00	3.881976e+00
9.500000e-07	1.310682e-06	2.408281e-10	9.338273e+00	1.454924e+01
9.600000e-07	1.410216e-06	4.058993e-10	1.004742e+01	2.542620e+01
9.700000e-07	1.509143e-06	5.724588e-10	1.075225e+01	3.649200e+01
9.800000e-07	1.607330e-06	7.432309e-10	1.145181e+01	4.772008e+01
9.900000e-07	1.704769e-06	9.188386e-10	1.214604e+01	5.907832e+01
1.000000e-06	1.801487e-06	1.095760e-09	1.283513e+01	7.052959e+01
1.010000e-06	1.897535e-06	1.271464e-09	1.351945e+01	8.203258e+01
1.020000e-06	1.992872e-06	1.445413e-09	1.419869e+01	9.354299e+01
1.030000e-06	2.087474e-06	1.618681e-09	1.487271e+01	1.050148e+02
1.040000e-06	2.181394e-06	1.793087e-09	1.554187e+01	1.164020e+02
1.050000e-06	2.274559e-06	1.965817e-09	1.620564e+01	1.276596e+02
1.060000e-06	2.367012e-06	2.136401e-09	1.686435e+01	1.387453e+02
1.070000e-06	2.458792e-06	2.303053e-09	1.751825e+01	1.496207e+02
1.080000e-06	2.549688e-06	2.464962e-09	1.816587e+01	1.602516e+02
1.090000e-06	2.639462e-06	2.623963e-09	1.880549e+01	1.706092e+02
1.100000e-06	2.728138e-06	2.779077e-09	1.943728e+01	1.806698e+02
1.110000e-06	2.815897e-06	2.926089e-09	2.006254e+01	1.904147e+02
1.120000e-06	2.902729e-06	3.067967e-09	2.068119e+01	1.998302e+02
1.130000e-06	2.988578e-06	3.205635e-09	2.129285e+01	2.089070e+02
1.140000e-06	3.073500e-06	3.338945e-09	2.189789e+01	2.176396e+02
1.150000e-06	3.157533e-06	3.466649e-09	2.249660e+01	2.260261e+02
1.160000e-06	3.240539e-06	3.588263e-09	2.308801e+01	2.340676e+02
1.170000e-06	3.322340e-06	3.703361e-09	2.367081e+01	2.417679e+02
1.180000e-06	3.402880e-06	3.812771e-09	2.424464e+01	2.491337e+02
1.190000e-06	3.482221e-06	3.918179e-09	2.480993e+01	2.561739e+02
1.200000e-06	3.560367e-06	4.018629e-09	2.536670e+01	2.629002e+02
1.210000e-06	3.637225e-06	4.117521e-09	2.591429e+01	2.693263e+02
1.220000e-06	3.712746e-06	4.211005e-09	2.645236e+01	2.754679e+02
1.230000e-06	3.786698e-06	4.297758e-09	2.697925e+01	2.813422e+02
1.240000e-06	3.859068e-06	4.381144e-09	2.749486e+01	2.869676e+02
1.250000e-06	3.930020e-06	4.464105e-09	2.800037e+01	2.923625e+02
1.260000e-06	3.999529e-06	4.545629e-09	2.849561e+01	2.975445e+02
1.270000e-06	4.067753e-06	4.621983e-09	2.898169e+01	3.025299e+02
1.280000e-06	4.134544e-06	4.695070e-09	2.945756e+01	3.073324e+02
1.290000e-06	4.199613e-06	4.766072e-09	2.992116e+01	3.119627e+02
1.300000e-06	4.263125e-06	4.833081e-09	3.037366e+01	3.164283e+02
1.310000e-06	4.325223e-06	4.896026e-09	3.081609e+01	3.207327e+02
1.320000e-06	4.385952e-06	4.955471e-09	3.124877e+01	3.248766e+02
1.330000e-06	4.445275e-06	5.014603e-09	3.167144e+01	3.288577e+02
1.340000e-06	4.502888e-06	5.071924e-09	3.208191e+01	3.326719e+02
1.350000e-06	4.558726e-06	5.126544e-09	3.247974e+01	3.363142e+02
1.360000e-06	4.612959e-06	5.178431e-09	3.286614e+01	3.397798e+02
1.370000e-06	4.665479e-06	5.226611e-09	3.324033e+01	3.430650e+02
1.380000e-06	4.716004e-06	5.272221e-09	3.360031e+01	3.461681e+02
1.390000e-06	4.764527e-06	5.314847e-09	3.394602e+01	3.490898e+02
1.400000e-06	4.811296e-06	5.355091e-09	3.427924e+01	3.518336e+02
1.410000e-06	4.856453e-06	5.392142e-09	3.460097e+01	3.544054e+02
1.420000e-06	4.900055e-06	5.425712e-09	3.491162e+01	3.568131e+02
1.430000e-06	4.941898e-06	5.457862e-09	3.520974e+01	3.590661e+02
1.440000e-06	4.981891e-06	5.489729e-09	3.549469e+01	3.611743e+02
1.450000e-06	5.020175e-06	5.519316e-09	3.576745e+01	3.631472e+02
1.460000e-06	5.056805e-06	5.545960e-09	3.602842e+01	3.649934e+02
1.470000e-06	5.091720e-06	5.571033e-09	3.627719e+01	3.667199e+02
1.480000e-06	5.124761e-06	5.595084e-09	3.651260e+01	3.683318e+02
1.490000e-06	5.155944e-06	5.617080e-09	3.673476e+01	3.698327e+02
1.500000e-06	5.185419e-06	5.636012e-09	3.694477e+01	3.712243e+02
1.510000e-06	5.213222e-06	5.652890e-09	3.714286e+01	3.725075e+02
1.520000e-06	5.239012e-06	5.669506e-09	3.732661e+01	3.736826e+02
1.530000e-06	5.262746e-06	5.685463e-09	3.749570e+01	3.747500e+02
1.540000e-06	5.284673e-06	5.700215e-09	3.765193e+01	3.757108e+02
1.550000e-06	5.304874e-06	5.714599e-09	3.779586e+01	3.765669e+02
1.560000e-06	5.323188e-06	5.727627e-09	3.792633e+01	3.773213e+02
1.570000e-06	5.339453e-06	5.738417e-09	3.804222e+01	3.779778e+02
1.580000e-06	5.353763e-06	5.746611e-09	3.814418e+01	3.785408e+02
1.590000e-06	5.366113e-06	5.754218e-09	3.823217e+01	3.790149e+02
1.600000e-06	5.376403e-06	5.761936e-09	3.830548e+01	3.794042e+02
1.610000e-06	5.384561e-06	5.767678e-09	3.836361e+01	3.797120e+02
1.620000e-06	5.390734e-06	5.770807e-09	3.840758e+01	3.799402e+02
1.630000e-06	5.395105e-06	5.773111e-09	3.843873e+01	3.800896e+02
1.640000e-06	5.397607e-06	5.775303e-09	3.845655e+01	3.801595e+02
1.650000e-06	5.398091e-06	5.777434e-09	3.846000e+01	3.801484e+02
1.660000e-06	5.396702e-06	5.780308e-09	3.845011e+01	3.800545e+02
1.670000e-06	5.393693e-06	5.778259e-09	3.842867e+01	3.798760e+02
1.680000e-06	5.389005e-06	5.774415e-09	3.839527e+01	3.796122e+02
1.690000e-06	5.382410e-06	5.771722e-09	3.834828e+01	3.792639e+02
1.700000e-06	5.373994e-06	5.768508e-09	3.828832e+01	3.788338e+02
1.710000e-06	5.364007e-06	5.763218e-09	3.821717e+01	3.783262e+02
1.720000e-06	5.352359e-06	5.751767e-09	3.813417e+01	3.777477e+02
1.730000e-06	5.338802e-06	5.735739e-09	3.803759e+01	3.771058e+02
1.740000e-06	5.323167e-06	5.730652e-09	3.792619e+01	3.764088e+02
1.750000e-06	5.305156e-06	5.697142e-09	3.779786e+01	3.756644e+02
1.760000e-06	5.284526e-06	5.691559e-09	3.765088e+01	3.748794e+02
1.770000e-06	5.261560e-06	5.702163e-09	3.748725e+01	3.740584e+02
1.780000e-06	5.237208e-06	5.679017e-09	3.731375e+01	3.732034e+02
1.790000e-06	5.212126e-06	5.710305e-09	3.713505e+01	3.723134e+02
1.800000e-06	5.185695e-06	5.639323e-09	3.694674e+01	3.713844e+02
1.810000e-06	5.157133e-06	5.581971e-09	3.674324e+01	3.704100e+02
1.820000e-06	5.126699e-06	5.647434e-09	3.652640e+01	3.693816e+02
1.830000e-06	5.094615e-06	5.575513e-09	3.629781e+01	3.682900e+02
1.840000e-06	5.060617e-06	5.568691e-09	3.605559e+01	3.671258e+02
1.850000e-06	5.024898e-06	5.648704e-09	3.580110e+01	3.658805e+02
1.860000e-06	4.987440e-06	5.578412e-09	3.553422e+01	3.645476e+02
1.870000e-06	4.948089e-06	5.576559e-09	3.525385e+01	3.631229e+02
1.880000e-06	4.907087e-06	5.539446e-09	3.496173e+01	3.616049e+02
1.890000e-06	4.864339e-06	5.436980e-09	3.465716e+01	3.599948e+02
1.900000e-06	4.819895e-06	5.450999e-09	3.434051e+01	3.582957e+02
1.910000e-06	4.773621e-06	5.401701e-09	3.401081e+01	3.565126e+02
1.920000e-06	4.725276e-06	5.414363e-09	3.366637e+01	3.546508e+02
1.930000e-06	4.675290e-06	5.416969e-09	3.331023e+01	3.527158e+02
1.940000e-06	4.623647e-06	5.312588e-09	3.294229e+01	3.507121e+02
1.950000e-06	4.569960e-06	5.311810e-09	3.255978e+01	3.486427e+02
1.960000e-06	4.514299e-06	5.266152e-09	3.216321e+01	3.465087e+02
1.970000e-06	4.456928e-06	5.239848e-09	3.175446e+01	3.443095e+02
1.980000e-06	4.398128e-06	5.230835e-09	3.133553e+01	3.420428e+02
1.990000e-06	4.337814e-06	5.166902e-09	3.090580e+01	3.397051e+02
2.000000e-06	4.275784e-06	5.159497e-09	3.046386e+01	3.372922e+02
2.010000e-06	4.212147e-06	5.090710e-09	3.001046e+01	3.348000e+02
2.020000e-06	4.147032e-06	5.062692e-09	2.954653e+01	3.322249e+02
2.030000e-06	4.080526e-06	5.037608e-09	2.907270e+01	3.295645e+02
2.040000e-06	4.012570e-06	4.976811e-09	2.858852e+01	3.268174e+02
2.050000e-06	3.943079e-06	4.951077e-09	2.809342e+01	3.239836e+02
2.060000e-06	3.872035e-06	4.879485e-09	2.758725e+01	3.210641e+02
2.070000e-06	3.799591e-06	4.863072e-09	2.707111e+01	3.180604e+02
2.080000e-06	3.725890e-06	4.819447e-09	2.654600e+01	3.149744e+02
2.090000e-06	3.650891e-06	4.751208e-09	2.601166e+01	3.118072e+02
2.100000e-06	3.574478e-06	4.694613e-09	2.546723e+01	3.085595e+02
2.110000e-06	3.496516e-06	4.624459e-09	2.491177e+01	3.052305e+02
2.120000e-06	3.417146e-06	4.603033e-09	2.434628e+01	3.018182e+02
2.130000e-06	3.336562e-06	4.552321e-09	2.377214e+01	2.983196e+02
2.140000e-06	3.254811e-06	4.509507e-09	2.318969e+01	2.947305e+02
2.150000e-06	3.172003e-06	4.455314e-09	2.259970e+01	2.910463e+02
2.160000e-06	3.088167e-06	4.379197e-09	2.200239e+01	2.872625e+02
2.170000e-06	3.003208e-06	4.315161e-09	2.139708e+01	2.833749e+02
2.180000e-06	2.916983e-06	4.257116e-09	2.078275e+01	2.793803e+02
2.190000e-06	2.829569e-06	4.210164e-09	2.015995e+01	2.752768e+02
2.200000e-06	2.741182e-06	4.137304e-09	1.953021e+01	2.710635e+02
2.210000e-06	2.651896e-06	4.063860e-09	1.889407e+01	2.667408e+02
2.220000e-06	2.561712e-06	3.997376e-09	1.825154e+01	2.623100e+02
2.230000e-06	2.470649e-06	3.938861e-09	1.760274e+01	2.577729e+02
2.240000e-06	2.378797e-06	3.876033e-09	1.694831e+01	2.531313e+02
2.250000e-06	2.286130e-06	3.804053e-09	1.628808e+01	2.483864e+02
2.260000e-06	2.192619e-06	3.729298e-09	1.562185e+01	2.435386e+02
2.270000e-06	2.098144e-06	3.644377e-09	1.494874e+01	2.385872e+02
2.280000e-06	2.002690e-06	3.565198e-09	1.426865e+01	2.335304e+02
2.290000e-06	1.906498e-06	3.489749e-09	1.358330e+01	2.283651e+02
2.300000e-06	1.809784e-06	3.411045e-09	1.289424e+01	2.230873e+02
2.310000e-06	1.712638e-06	3.322006e-09	1.220211e+01	2.176928e+02
2.320000e-06	1.614893e-06	3.232569e-09	1.150569e+01	2.121768e+02
2.330000e-06	1.516506e-06	3.151951e-09	1.080471e+01	2.065352e+02
2.340000e-06	1.417596e-06	3.074303e-09	1.010001e+01	2.007644e+02
2.350000e-06	1.318323e-06	2.988764e-09	9.392710e+00	1.948615e+02
2.360000e-06	1.218768e-06	2.893148e-09	8.683404e+00	1.888244e+02
2.370000e-06	1.118943e-06	2.792481e-09	7.972182e+00	1.826521e+02
2.380000e-06	1.018838e-06	2.693163e-09	7.258955e+00	1.763436e+02
2.390000e-06	9.182905e-07	2.600811e-09	6.542582e+00	1.698985e+02
2.400000e-06	8.172666e-07	2.505887e-09	5.822813e+00	1.633160e+02
2.410000e-06	7.158959e-07	2.402940e-09	5.100573e+00	1.565947e+02
2.420000e-06	6.142773e-07	2.291443e-09	4.376567e+00	1.497322e+02
2.430000e-06	5.124152e-07	2.178922e-09	3.650826e+00	1.427252e+02
2.440000e-06	4.103318e-07	2.071931e-09	2.923508e+00	1.355692e+02
2.450000e-06	3.080234e-07	1.967749e-09	2.194587e+00	1.282584e+02
2.460000e-06	2.055884e-07	1.856314e-09	1.464764e+00	1.207859e+02
2.470000e-06	1.030734e-07	1.735231e-09	7.343710e-01	1.131442e+02
2.480000e-06	4.385563e-10	1.611107e-09	3.124600e-03	1.053250e+02
2.490000e-06	-1.021863e-07	1.490554e-09	-7.280509e-01	9.731971e+01
2.500000e-06	-2.047344e-07	1.370950e-09	-1.458680e+00	8.911965e+01
2.510000e-06	-3.072212e-07	1.245156e-09	-2.188872e+00	8.071614e+01
2.520000e-06	-4.096290e-07	1.112965e-09	-2.918501e+00	7.210078e+01
2.530000e-06	-5.118729e-07	9.751225e-10	-3.646962e+00	6.326559e+01
2.540000e-06	-6.138378e-07	8.359948e-10	-4.373436e+00	5.420324e+01
2.550000e-06	-7.155349e-07	6.980374e-10	-5.098001e+00	4.490737e+01
2.560000e-06	-8.168917e-07	5.560448e-10	-5.820142e+00	3.537292e+01
2.570000e-06	-9.178344e-07	4.054355e-10	-6.539333e+00	2.559675e+01
2.580000e-06	-1.018372e-06	2.490801e-10	-7.255639e+00	1.557817e+01
2.590000e-06	-1.118513e-06	9.194131e-11	-7.969112e+00	5.319742e+00
2.600000e-06	-1.218313e-06	-6.410132e-11	-8.680163e+00	-5.172025e+00
2.610000e-06	-1.317728e-06	-2.234625e-10	-9.388475e+00	-1.588594e+01
2.620000e-06	-1.416651e-06	-3.889892e-10	-1.009327e+01	-2.680555e+01
2.630000e-06	-1.515078e-06	-5.600949e-10	-1.079454e+01	-3.790880e+01
2.640000e-06	-1.613017e-06	-7.341508e-10	-1.149233e+01	-4.916789e+01
2.650000e-06	-1.710347e-06	-9.073951e-10	-1.218578e+01	-6.054959e+01
2.660000e-06	-1.807058e-06	-1.079413e-09	-1.287482e+01	-7.201579e+01
2.670000e-06	-1.903291e-06	-1.253290e-09	-1.356045e+01	-8.352442e+01
2.680000e-06	-1.999040e-06	-1.432454e-09	-1.424265e+01	-9.503071e+01
2.690000e-06	-2.094077e-06	-1.611391e-09	-1.491976e+01	-1.064885e+02
2.700000e-06	-2.188158e-06	-1.785467e-09	-1.559006e+01	-1.178519e+02
2.710000e-06	-2.281241e-06	-1.954988e-09	-1.625325e+01	-1.290763e+02
2.720000e-06	-2.373442e-06	-2.121629e-09	-1.691016e+01	-1.401203e+02
2.730000e-06	-2.464806e-06	-2.285808e-09	-1.756110e+01	-1.509462e+02
2.740000e-06	-2.555280e-06	-2.445218e-09	-1.820571e+01	-1.615211e+02
2.750000e-06	-2.644825e-06	-2.599988e-09	-1.884369e+01	-1.718171e+02
2.760000e-06	-2.733486e-06	-2.750988e-09	-1.947538e+01	-1.818116e+02
2.770000e-06	-2.821372e-06	-2.899821e-09	-2.010154e+01	-1.914872e+02
2.780000e-06	-2.908325e-06	-3.046516e-09	-2.072107e+01	-2.008310e+02
2.790000e-06	-2.994067e-06	-3.188060e-09	-2.133195e+01	-2.098347e+02
2.800000e-06	-3.078612e-06	-3.321790e-09	-2.193431e+01	-2.184934e+02
2.810000e-06	-3.162120e-06	-3.447996e-09	-2.252929e+01	-2.268060e+02
2.820000e-06	-3.244609e-06	-3.568194e-09	-2.311700e+01	-2.347742e+02
2.830000e-06	-3.325998e-06	-3.684292e-09	-2.369687e+01	-2.424024e+02
2.840000e-06	-3.406364e-06	-3.797823e-09	-2.426946e+01	-2.496978e+02
2.850000e-06	-3.485599e-06	-3.908157e-09	-2.483399e+01	-2.566700e+02
2.860000e-06	-3.563404e-06	-4.012092e-09	-2.538833e+01	-2.633310e+02
2.870000e-06	-3.639644e-06	-4.108941e-09	-2.593153e+01	-2.696949e+02
2.880000e-06	-3.714395e-06	-4.201843e-09	-2.646410e+01	-2.757780e+02
2.890000e-06	-3.787817e-06	-4.291860e-09	-2.698722e+01	-2.815977e+02
2.900000e-06	-3.859963e-06	-4.377890e-09	-2.750124e+01	-2.871724e+02
2.910000e-06	-3.930701e-06	-4.457920e-09	-2.800523e+01	-2.925205e+02
2.920000e-06	-3.999837e-06	-4.534953e-09	-2.849781e+01	-2.976593e+02
2.930000e-06	-4.067463e-06	-4.611809e-09	-2.897962e+01	-3.026046e+02
2.940000e-06	-4.133680e-06	-4.685677e-09	-2.945140e+01	-3.073697e+02
