# Temperatura_=_83.06
# Concentracion g/m^3_=_15000.0
# C_Vs_to_Am_M_A/Vsm_=_65563218390.804596
# pendiente_HvsI_1/m_=_3716.3
# ordenada_HvsI_A/m_=_1297.0
# frecuencia_Hz_=_301584.92542872066

Tiempo_(s)	Campo_(V.s)	Magnetizacion_(V.s)	Campo_(kA/m)	Magnetizacion_(A/m)
0.000000e+00	-5.377814e-06	-7.952458e-09	-3.833969e+01	-5.194487e+02
1.000000e-08	-5.375030e-06	-7.948207e-09	-3.831984e+01	-5.192451e+02
2.000000e-08	-5.370484e-06	-7.938849e-09	-3.828743e+01	-5.189119e+02
3.000000e-08	-5.364281e-06	-7.928870e-09	-3.824321e+01	-5.184448e+02
4.000000e-08	-5.356560e-06	-7.919107e-09	-3.818816e+01	-5.178427e+02
5.000000e-08	-5.347074e-06	-7.908415e-09	-3.812054e+01	-5.171083e+02
6.000000e-08	-5.335483e-06	-7.895841e-09	-3.803790e+01	-5.162481e+02
7.000000e-08	-5.321990e-06	-7.881619e-09	-3.794171e+01	-5.152724e+02
8.000000e-08	-5.306454e-06	-7.874167e-09	-3.783094e+01	-5.141942e+02
9.000000e-08	-5.288653e-06	-7.876079e-09	-3.770404e+01	-5.130280e+02
1.000000e-07	-5.268761e-06	-7.863472e-09	-3.756223e+01	-5.117880e+02
1.100000e-07	-5.246892e-06	-7.826775e-09	-3.740631e+01	-5.104866e+02
1.200000e-07	-5.223342e-06	-7.781008e-09	-3.723842e+01	-5.091322e+02
1.300000e-07	-5.198362e-06	-7.733944e-09	-3.706034e+01	-5.077290e+02
1.400000e-07	-5.171798e-06	-7.713720e-09	-3.687095e+01	-5.062751e+02
1.500000e-07	-5.143588e-06	-7.719532e-09	-3.666984e+01	-5.047634e+02
1.600000e-07	-5.113895e-06	-7.699549e-09	-3.645815e+01	-5.031818e+02
1.700000e-07	-5.082608e-06	-7.681061e-09	-3.623510e+01	-5.015145e+02
1.800000e-07	-5.049226e-06	-7.655591e-09	-3.599711e+01	-4.997438e+02
1.900000e-07	-5.013939e-06	-7.582371e-09	-3.574554e+01	-4.978516e+02
2.000000e-07	-4.977191e-06	-7.542906e-09	-3.548356e+01	-4.958220e+02
2.100000e-07	-4.938759e-06	-7.521021e-09	-3.520956e+01	-4.936423e+02
2.200000e-07	-4.898551e-06	-7.474306e-09	-3.492291e+01	-4.913046e+02
2.300000e-07	-4.856388e-06	-7.450353e-09	-3.462232e+01	-4.888063e+02
2.400000e-07	-4.812236e-06	-7.390649e-09	-3.430755e+01	-4.861503e+02
2.500000e-07	-4.766346e-06	-7.330358e-09	-3.398039e+01	-4.833439e+02
2.600000e-07	-4.718574e-06	-7.329892e-09	-3.363981e+01	-4.803979e+02
2.700000e-07	-4.668748e-06	-7.293859e-09	-3.328459e+01	-4.773253e+02
2.800000e-07	-4.616868e-06	-7.238280e-09	-3.291472e+01	-4.741390e+02
2.900000e-07	-4.563141e-06	-7.179356e-09	-3.253169e+01	-4.708509e+02
3.000000e-07	-4.507823e-06	-7.093010e-09	-3.213732e+01	-4.674698e+02
3.100000e-07	-4.450839e-06	-7.047351e-09	-3.173107e+01	-4.640014e+02
3.200000e-07	-4.392017e-06	-7.030399e-09	-3.131171e+01	-4.604472e+02
3.300000e-07	-4.331596e-06	-6.975218e-09	-3.088096e+01	-4.568050e+02
3.400000e-07	-4.269739e-06	-6.898177e-09	-3.043996e+01	-4.530696e+02
3.500000e-07	-4.206449e-06	-6.835128e-09	-2.998876e+01	-4.492339e+02
3.600000e-07	-4.141704e-06	-6.781436e-09	-2.952717e+01	-4.452896e+02
3.700000e-07	-4.075321e-06	-6.728265e-09	-2.905391e+01	-4.412290e+02
3.800000e-07	-4.007368e-06	-6.672035e-09	-2.856946e+01	-4.370459e+02
3.900000e-07	-3.938029e-06	-6.591868e-09	-2.807513e+01	-4.327359e+02
4.000000e-07	-3.867420e-06	-6.505695e-09	-2.757174e+01	-4.282974e+02
4.100000e-07	-3.795579e-06	-6.440070e-09	-2.705957e+01	-4.237311e+02
4.200000e-07	-3.722362e-06	-6.380000e-09	-2.653759e+01	-4.190396e+02
4.300000e-07	-3.647591e-06	-6.321387e-09	-2.600453e+01	-4.142270e+02
4.400000e-07	-3.571266e-06	-6.248539e-09	-2.546039e+01	-4.092977e+02
4.500000e-07	-3.493456e-06	-6.154263e-09	-2.490566e+01	-4.042558e+02
4.600000e-07	-3.414226e-06	-6.061294e-09	-2.434081e+01	-3.991040e+02
4.700000e-07	-3.333691e-06	-5.988932e-09	-2.376666e+01	-3.938435e+02
4.800000e-07	-3.251998e-06	-5.922935e-09	-2.318425e+01	-3.884734e+02
4.900000e-07	-3.169196e-06	-5.838060e-09	-2.259394e+01	-3.829911e+02
5.000000e-07	-3.085345e-06	-5.740696e-09	-2.199614e+01	-3.773923e+02
5.100000e-07	-3.000618e-06	-5.641888e-09	-2.139211e+01	-3.716719e+02
5.200000e-07	-2.914942e-06	-5.551695e-09	-2.078130e+01	-3.658242e+02
5.300000e-07	-2.828255e-06	-5.469205e-09	-2.016329e+01	-3.598442e+02
5.400000e-07	-2.740658e-06	-5.384376e-09	-1.953879e+01	-3.537273e+02
5.500000e-07	-2.652125e-06	-5.286280e-09	-1.890761e+01	-3.474707e+02
5.600000e-07	-2.562441e-06	-5.176479e-09	-1.826824e+01	-3.410724e+02
5.700000e-07	-2.471533e-06	-5.072009e-09	-1.762014e+01	-3.345319e+02
5.800000e-07	-2.379738e-06	-4.979408e-09	-1.696571e+01	-3.278496e+02
5.900000e-07	-2.287221e-06	-4.880250e-09	-1.630613e+01	-3.210266e+02
6.000000e-07	-2.193948e-06	-4.765057e-09	-1.564116e+01	-3.140638e+02
6.100000e-07	-2.099932e-06	-4.650676e-09	-1.497091e+01	-3.069617e+02
6.200000e-07	-2.005137e-06	-4.542584e-09	-1.429509e+01	-2.997202e+02
6.300000e-07	-1.909656e-06	-4.434574e-09	-1.361438e+01	-2.923378e+02
6.400000e-07	-1.813568e-06	-4.324779e-09	-1.292935e+01	-2.848123e+02
6.500000e-07	-1.716799e-06	-4.210714e-09	-1.223946e+01	-2.771400e+02
6.600000e-07	-1.619247e-06	-4.086571e-09	-1.154399e+01	-2.693167e+02
6.700000e-07	-1.520893e-06	-3.955857e-09	-1.084280e+01	-2.613373e+02
6.800000e-07	-1.421905e-06	-3.829183e-09	-1.013709e+01	-2.531968e+02
6.900000e-07	-1.322450e-06	-3.707394e-09	-9.428051e+00	-2.448897e+02
7.000000e-07	-1.222617e-06	-3.582296e-09	-8.716318e+00	-2.364110e+02
7.100000e-07	-1.122462e-06	-3.447867e-09	-8.002289e+00	-2.277558e+02
7.200000e-07	-1.021978e-06	-3.307918e-09	-7.285922e+00	-2.189194e+02
7.300000e-07	-9.212200e-07	-3.167505e-09	-6.567592e+00	-2.098973e+02
7.400000e-07	-8.201552e-07	-3.029721e-09	-5.847077e+00	-2.006851e+02
7.500000e-07	-7.188060e-07	-2.892667e-09	-5.124535e+00	-1.912784e+02
7.600000e-07	-6.171898e-07	-2.748075e-09	-4.400090e+00	-1.816727e+02
7.700000e-07	-5.153356e-07	-2.594376e-09	-3.673948e+00	-1.718632e+02
7.800000e-07	-4.133847e-07	-2.436423e-09	-2.947116e+00	-1.618450e+02
7.900000e-07	-3.112895e-07	-2.277852e-09	-2.219255e+00	-1.516134e+02
8.000000e-07	-2.090091e-07	-2.117457e-09	-1.490074e+00	-1.411634e+02
8.100000e-07	-1.066239e-07	-1.952817e-09	-7.601465e-01	-1.304899e+02
8.200000e-07	-4.224034e-09	-1.784236e-09	-3.011412e-02	-1.195878e+02
8.300000e-07	9.819058e-08	-1.612262e-09	7.000235e-01	-1.084517e+02
8.400000e-07	2.006660e-07	-1.437677e-09	1.430595e+00	-9.707565e+01
8.500000e-07	3.030993e-07	-1.262223e-09	2.160866e+00	-8.545306e+01
8.600000e-07	4.054273e-07	-1.084353e-09	2.890386e+00	-7.357625e+01
8.700000e-07	5.076351e-07	-8.995513e-10	3.619049e+00	-6.143649e+01
8.800000e-07	6.096975e-07	-7.073061e-10	4.346676e+00	-4.902411e+01
8.900000e-07	7.115133e-07	-5.133525e-10	5.072544e+00	-3.632887e+01
9.000000e-07	8.130234e-07	-3.180164e-10	5.796233e+00	-2.334079e+01
9.100000e-07	9.142551e-07	-1.185944e-10	6.517937e+00	-1.005129e+01
9.200000e-07	1.015181e-06	8.498533e-11	7.237463e+00	3.545281e+00
9.300000e-07	1.115812e-06	2.944286e-10	7.954882e+00	1.744991e+01
9.400000e-07	1.216124e-06	5.092688e-10	8.670031e+00	3.165703e+01
9.500000e-07	1.316060e-06	7.275297e-10	9.382499e+00	4.615279e+01
9.600000e-07	1.415525e-06	9.483740e-10	1.009161e+01	6.091359e+01
9.700000e-07	1.514449e-06	1.175035e-09	1.079686e+01	7.590518e+01
9.800000e-07	1.612737e-06	1.408415e-09	1.149758e+01	9.108245e+01
9.900000e-07	1.710242e-06	1.646001e-09	1.219271e+01	1.063900e+02
1.000000e-06	1.806921e-06	1.882570e-09	1.288196e+01	1.217637e+02
1.010000e-06	1.902816e-06	2.117049e-09	1.356562e+01	1.371328e+02
1.020000e-06	1.998015e-06	2.348995e-09	1.424431e+01	1.524231e+02
1.030000e-06	2.092584e-06	2.576832e-09	1.491852e+01	1.675600e+02
1.040000e-06	2.186426e-06	2.801145e-09	1.558754e+01	1.824721e+02
1.050000e-06	2.279476e-06	3.021090e-09	1.625092e+01	1.970944e+02
1.060000e-06	2.371842e-06	3.236285e-09	1.690941e+01	2.113714e+02
1.070000e-06	2.463517e-06	3.443442e-09	1.756299e+01	2.252584e+02
1.080000e-06	2.554302e-06	3.645061e-09	1.821021e+01	2.387232e+02
1.090000e-06	2.644035e-06	3.843298e-09	1.884994e+01	2.517461e+02
1.100000e-06	2.732689e-06	4.036055e-09	1.948198e+01	2.643184e+02
1.110000e-06	2.820288e-06	4.220171e-09	2.010649e+01	2.764416e+02
1.120000e-06	2.906967e-06	4.396445e-09	2.072444e+01	2.881241e+02
1.130000e-06	2.992758e-06	4.567852e-09	2.133607e+01	2.993794e+02
1.140000e-06	3.077596e-06	4.733824e-09	2.194090e+01	3.102227e+02
1.150000e-06	3.161481e-06	4.894742e-09	2.253893e+01	3.206693e+02
1.160000e-06	3.244306e-06	5.049654e-09	2.312941e+01	3.307325e+02
1.170000e-06	3.325868e-06	5.197548e-09	2.371089e+01	3.404227e+02
1.180000e-06	3.406146e-06	5.339015e-09	2.428321e+01	3.497468e+02
1.190000e-06	3.485257e-06	5.475198e-09	2.484721e+01	3.587094e+02
1.200000e-06	3.563179e-06	5.606869e-09	2.540274e+01	3.673130e+02
1.210000e-06	3.639938e-06	5.734340e-09	2.594997e+01	3.755600e+02
1.220000e-06	3.715393e-06	5.854217e-09	2.648790e+01	3.834540e+02
1.230000e-06	3.789233e-06	5.964967e-09	2.701432e+01	3.910012e+02
1.240000e-06	3.861447e-06	6.071041e-09	2.752915e+01	3.982110e+02
1.250000e-06	3.932269e-06	6.175712e-09	2.803406e+01	4.050971e+02
1.260000e-06	4.001723e-06	6.278063e-09	2.852921e+01	4.116767e+02
1.270000e-06	4.069792e-06	6.374007e-09	2.901450e+01	4.179701e+02
1.280000e-06	4.136431e-06	6.464001e-09	2.948958e+01	4.239993e+02
1.290000e-06	4.201426e-06	6.550934e-09	2.995294e+01	4.297865e+02
1.300000e-06	4.264857e-06	6.635594e-09	3.040516e+01	4.353526e+02
1.310000e-06	4.326822e-06	6.717773e-09	3.084692e+01	4.407155e+02
1.320000e-06	4.387395e-06	6.797431e-09	3.127876e+01	4.458894e+02
1.330000e-06	4.446627e-06	6.875174e-09	3.170104e+01	4.508838e+02
1.340000e-06	4.504175e-06	6.947661e-09	3.211131e+01	4.557033e+02
1.350000e-06	4.559916e-06	7.015887e-09	3.250870e+01	4.603489e+02
1.360000e-06	4.614008e-06	7.082892e-09	3.289434e+01	4.648179e+02
1.370000e-06	4.666328e-06	7.147542e-09	3.326734e+01	4.691060e+02
1.380000e-06	4.716577e-06	7.208493e-09	3.362557e+01	4.732079e+02
1.390000e-06	4.764878e-06	7.267378e-09	3.396993e+01	4.771194e+02
1.400000e-06	4.811561e-06	7.326275e-09	3.430274e+01	4.808376e+02
1.410000e-06	4.856642e-06	7.380897e-09	3.462413e+01	4.843620e+02
1.420000e-06	4.900086e-06	7.429382e-09	3.493386e+01	4.876946e+02
1.430000e-06	4.941720e-06	7.474342e-09	3.523067e+01	4.908397e+02
1.440000e-06	4.981523e-06	7.516396e-09	3.551444e+01	4.938030e+02
1.450000e-06	5.019644e-06	7.556031e-09	3.578621e+01	4.965912e+02
1.460000e-06	5.056148e-06	7.594195e-09	3.604645e+01	4.992107e+02
1.470000e-06	5.090915e-06	7.631710e-09	3.629432e+01	5.016672e+02
1.480000e-06	5.123732e-06	7.667291e-09	3.652828e+01	5.039650e+02
1.490000e-06	5.154743e-06	7.699320e-09	3.674936e+01	5.061066e+02
1.500000e-06	5.184087e-06	7.728318e-09	3.695856e+01	5.080931e+02
1.510000e-06	5.211704e-06	7.754235e-09	3.715545e+01	5.099246e+02
1.520000e-06	5.237362e-06	7.778328e-09	3.733837e+01	5.116008e+02
1.530000e-06	5.260989e-06	7.801229e-09	3.750681e+01	5.131218e+02
1.540000e-06	5.282807e-06	7.822800e-09	3.766236e+01	5.144888e+02
1.550000e-06	5.302886e-06	7.842103e-09	3.780551e+01	5.157047e+02
1.560000e-06	5.321081e-06	7.857951e-09	3.793522e+01	5.167742e+02
1.570000e-06	5.337244e-06	7.870806e-09	3.805046e+01	5.177039e+02
1.580000e-06	5.351436e-06	7.883131e-09	3.815163e+01	5.185015e+02
1.590000e-06	5.363642e-06	7.894973e-09	3.823865e+01	5.191748e+02
1.600000e-06	5.373687e-06	7.904608e-09	3.831027e+01	5.197316e+02
1.610000e-06	5.381645e-06	7.912501e-09	3.836700e+01	5.201776e+02
1.620000e-06	5.387700e-06	7.919605e-09	3.841017e+01	5.205167e+02
1.630000e-06	5.391975e-06	7.925628e-09	3.844064e+01	5.207497e+02
1.640000e-06	5.394337e-06	7.929622e-09	3.845749e+01	5.208747e+02
1.650000e-06	5.394690e-06	7.931117e-09	3.846000e+01	5.208871e+02
1.660000e-06	5.393255e-06	7.929678e-09	3.844977e+01	5.207810e+02
1.670000e-06	5.390194e-06	7.925435e-09	3.842794e+01	5.205498e+02
1.680000e-06	5.385443e-06	7.919686e-09	3.839408e+01	5.201879e+02
1.690000e-06	5.378792e-06	7.914207e-09	3.834666e+01	5.196916e+02
1.700000e-06	5.370319e-06	7.908036e-09	3.828625e+01	5.190605e+02
1.710000e-06	5.360187e-06	7.899678e-09	3.821402e+01	5.182982e+02
1.720000e-06	5.348315e-06	7.889947e-09	3.812938e+01	5.174120e+02
1.730000e-06	5.334552e-06	7.870943e-09	3.803126e+01	5.164129e+02
1.740000e-06	5.318743e-06	7.831887e-09	3.791856e+01	5.153143e+02
1.750000e-06	5.300607e-06	7.804862e-09	3.778926e+01	5.141309e+02
1.760000e-06	5.279755e-06	7.806417e-09	3.764061e+01	5.128765e+02
1.770000e-06	5.256556e-06	7.808327e-09	3.747521e+01	5.115629e+02
1.780000e-06	5.232125e-06	7.806587e-09	3.730104e+01	5.101977e+02
1.790000e-06	5.206963e-06	7.758179e-09	3.712165e+01	5.087836e+02
1.800000e-06	5.180393e-06	7.697237e-09	3.693223e+01	5.073178e+02
1.810000e-06	5.151652e-06	7.706972e-09	3.672733e+01	5.057921e+02
1.820000e-06	5.121082e-06	7.664714e-09	3.650938e+01	5.041933e+02
1.830000e-06	5.088822e-06	7.611216e-09	3.627940e+01	5.025051e+02
1.840000e-06	5.054651e-06	7.648235e-09	3.603578e+01	5.007095e+02
1.850000e-06	5.018900e-06	7.622865e-09	3.578090e+01	4.987889e+02
1.860000e-06	4.981365e-06	7.585557e-09	3.551331e+01	4.967278e+02
1.870000e-06	4.941884e-06	7.554826e-09	3.523184e+01	4.945144e+02
1.880000e-06	4.900773e-06	7.463910e-09	3.493875e+01	4.921421e+02
1.890000e-06	4.857925e-06	7.464336e-09	3.463328e+01	4.896094e+02
1.900000e-06	4.813434e-06	7.435083e-09	3.431609e+01	4.869201e+02
1.910000e-06	4.767195e-06	7.346434e-09	3.398644e+01	4.840824e+02
1.920000e-06	4.718896e-06	7.338627e-09	3.364211e+01	4.811080e+02
1.930000e-06	4.668910e-06	7.268319e-09	3.328575e+01	4.780097e+02
1.940000e-06	4.617241e-06	7.215375e-09	3.291739e+01	4.748004e+02
1.950000e-06	4.563523e-06	7.224491e-09	3.253442e+01	4.714914e+02
1.960000e-06	4.507820e-06	7.160571e-09	3.213730e+01	4.680910e+02
1.970000e-06	4.450407e-06	7.077024e-09	3.172798e+01	4.646039e+02
1.980000e-06	4.391526e-06	6.998412e-09	3.130821e+01	4.610309e+02
1.990000e-06	4.331102e-06	6.962942e-09	3.087744e+01	4.573690e+02
2.000000e-06	4.269000e-06	6.928150e-09	3.043469e+01	4.536125e+02
2.010000e-06	4.205307e-06	6.854564e-09	2.998061e+01	4.497539e+02
2.020000e-06	4.140138e-06	6.804200e-09	2.951601e+01	4.457850e+02
2.030000e-06	4.073544e-06	6.729579e-09	2.904125e+01	4.416984e+02
2.040000e-06	4.005494e-06	6.660389e-09	2.855610e+01	4.374881e+02
2.050000e-06	3.935962e-06	6.598779e-09	2.806039e+01	4.331504e+02
2.060000e-06	3.864938e-06	6.541547e-09	2.755404e+01	4.286841e+02
2.070000e-06	3.792527e-06	6.488863e-09	2.703781e+01	4.240903e+02
2.080000e-06	3.718868e-06	6.382058e-09	2.651268e+01	4.193723e+02
2.090000e-06	3.643827e-06	6.297759e-09	2.597769e+01	4.145340e+02
2.100000e-06	3.567296e-06	6.244323e-09	2.543208e+01	4.095800e+02
2.110000e-06	3.489175e-06	6.183240e-09	2.487514e+01	4.045141e+02
2.120000e-06	3.409664e-06	6.103354e-09	2.430829e+01	3.993387e+02
2.130000e-06	3.329073e-06	6.008905e-09	2.373374e+01	3.940546e+02
2.140000e-06	3.247363e-06	5.927648e-09	2.315121e+01	3.886605e+02
2.150000e-06	3.164595e-06	5.837179e-09	2.256114e+01	3.831534e+02
2.160000e-06	3.080802e-06	5.763493e-09	2.196376e+01	3.775287e+02
2.170000e-06	2.995876e-06	5.694297e-09	2.135830e+01	3.717812e+02
2.180000e-06	2.909604e-06	5.597394e-09	2.074324e+01	3.659053e+02
2.190000e-06	2.822086e-06	5.483277e-09	2.011931e+01	3.598960e+02
2.200000e-06	2.733653e-06	5.381496e-09	1.948885e+01	3.537492e+02
2.210000e-06	2.644339e-06	5.309214e-09	1.885211e+01	3.474620e+02
2.220000e-06	2.554124e-06	5.225853e-09	1.820895e+01	3.410329e+02
2.230000e-06	2.463056e-06	5.120014e-09	1.755970e+01	3.344617e+02
2.240000e-06	2.371199e-06	5.010289e-09	1.690483e+01	3.277489e+02
2.250000e-06	2.278551e-06	4.903043e-09	1.624432e+01	3.208956e+02
2.260000e-06	2.185060e-06	4.792752e-09	1.557780e+01	3.139026e+02
2.270000e-06	2.090628e-06	4.687607e-09	1.490457e+01	3.067705e+02
2.280000e-06	1.995203e-06	4.585476e-09	1.422427e+01	2.994986e+02
2.290000e-06	1.899031e-06	4.466569e-09	1.353863e+01	2.920856e+02
2.300000e-06	1.802340e-06	4.340079e-09	1.284930e+01	2.845287e+02
2.310000e-06	1.705118e-06	4.223840e-09	1.215618e+01	2.768241e+02
2.320000e-06	1.607370e-06	4.118501e-09	1.145931e+01	2.689675e+02
2.330000e-06	1.509144e-06	4.005759e-09	1.075904e+01	2.609538e+02
2.340000e-06	1.410415e-06	3.875530e-09	1.005518e+01	2.527778e+02
2.350000e-06	1.311251e-06	3.737223e-09	9.348214e+00	2.444341e+02
2.360000e-06	1.211749e-06	3.602585e-09	8.638841e+00	2.359177e+02
2.370000e-06	1.111939e-06	3.474769e-09	7.927274e+00	2.272237e+02
2.380000e-06	1.011826e-06	3.348487e-09	7.213545e+00	2.183476e+02
2.390000e-06	9.113533e-07	3.213722e-09	6.497250e+00	2.092849e+02
2.400000e-06	8.105285e-07	3.066636e-09	5.778446e+00	2.000312e+02
2.410000e-06	7.093957e-07	2.916324e-09	5.057447e+00	1.905820e+02
2.420000e-06	6.079414e-07	2.770668e-09	4.334156e+00	1.809327e+02
2.430000e-06	5.061936e-07	2.629392e-09	3.608772e+00	1.710786e+02
2.440000e-06	4.042366e-07	2.483397e-09	2.881897e+00	1.610149e+02
2.450000e-06	3.021144e-07	2.324568e-09	2.153844e+00	1.507366e+02
2.460000e-06	1.997882e-07	2.156656e-09	1.424337e+00	1.402388e+02
2.470000e-06	9.730821e-08	1.990629e-09	6.937329e-01	1.295165e+02
2.480000e-06	-5.193842e-09	1.830133e-09	-3.702811e-02	1.185644e+02
2.490000e-06	-1.076955e-07	1.667036e-09	-7.677861e-01	1.073772e+02
2.500000e-06	-2.101790e-07	1.492415e-09	-1.498415e+00	9.594865e+01
2.510000e-06	-3.126291e-07	1.309961e-09	-2.228805e+00	8.427199e+01
2.520000e-06	-4.149660e-07	1.127615e-09	-2.958389e+00	7.233933e+01
2.530000e-06	-5.171443e-07	9.447020e-10	-3.686842e+00	6.014173e+01
2.540000e-06	-6.191591e-07	7.572488e-10	-4.414129e+00	4.766933e+01
2.550000e-06	-7.208820e-07	5.609705e-10	-5.139335e+00	3.491188e+01
2.560000e-06	-8.222180e-07	3.544732e-10	-5.861783e+00	2.185959e+01
2.570000e-06	-9.231034e-07	1.413692e-10	-6.581019e+00	8.504362e+00
2.580000e-06	-1.023557e-06	-6.955873e-11	-7.297176e+00	-5.158607e+00
2.590000e-06	-1.123628e-06	-2.791430e-10	-8.010607e+00	-1.912905e+01
2.600000e-06	-1.223319e-06	-4.939061e-10	-8.721329e+00	-3.339977e+01
2.610000e-06	-1.322607e-06	-7.191555e-10	-9.429172e+00	-4.795494e+01
2.620000e-06	-1.421529e-06	-9.515248e-10	-1.013441e+01	-6.276872e+01
2.630000e-06	-1.519981e-06	-1.181395e-09	-1.083630e+01	-7.780453e+01
2.640000e-06	-1.617788e-06	-1.409885e-09	-1.153359e+01	-9.301498e+01
2.650000e-06	-1.714990e-06	-1.640398e-09	-1.222657e+01	-1.083426e+02
2.660000e-06	-1.811679e-06	-1.877439e-09	-1.291588e+01	-1.237218e+02
2.670000e-06	-1.907882e-06	-2.118193e-09	-1.360174e+01	-1.390806e+02
2.680000e-06	-2.003498e-06	-2.355524e-09	-1.428340e+01	-1.543445e+02
2.690000e-06	-2.098383e-06	-2.585720e-09	-1.495986e+01	-1.694393e+02
2.700000e-06	-2.192426e-06	-2.808635e-09	-1.563032e+01	-1.842947e+02
2.710000e-06	-2.285494e-06	-3.028674e-09	-1.629382e+01	-1.988477e+02
2.720000e-06	-2.377570e-06	-3.247659e-09	-1.695025e+01	-2.130447e+02
2.730000e-06	-2.468719e-06	-3.462469e-09	-1.760007e+01	-2.268438e+02
2.740000e-06	-2.558970e-06	-3.668872e-09	-1.824349e+01	-2.402155e+02
2.750000e-06	-2.648307e-06	-3.866797e-09	-1.888040e+01	-2.531424e+02
2.760000e-06	-2.736800e-06	-4.059972e-09	-1.951129e+01	-2.656184e+02
2.770000e-06	-2.824515e-06	-4.247577e-09	-2.013662e+01	-2.776465e+02
2.780000e-06	-2.911348e-06	-4.427696e-09	-2.075568e+01	-2.892365e+02
2.790000e-06	-2.997041e-06	-4.597675e-09	-2.136661e+01	-3.004024e+02
2.800000e-06	-3.081483e-06	-4.757578e-09	-2.196861e+01	-3.111597e+02
2.810000e-06	-3.164835e-06	-4.911598e-09	-2.256285e+01	-3.215234e+02
2.820000e-06	-3.247226e-06	-5.062100e-09	-2.315023e+01	-3.315062e+02
2.830000e-06	-3.328528e-06	-5.209973e-09	-2.372985e+01	-3.411177e+02
2.840000e-06	-3.408677e-06	-5.352622e-09	-2.430125e+01	-3.503644e+02
2.850000e-06	-3.487661e-06	-5.488870e-09	-2.486435e+01	-3.592501e+02
2.860000e-06	-3.565232e-06	-5.619020e-09	-2.541737e+01	-3.677773e+02
2.870000e-06	-3.641314e-06	-5.743093e-09	-2.595978e+01	-3.759486e+02
2.880000e-06	-3.715951e-06	-5.863581e-09	-2.649188e+01	-3.837680e+02
2.890000e-06	-3.789182e-06	-5.979987e-09	-2.701396e+01	-3.912422e+02
2.900000e-06	-3.861192e-06	-6.090298e-09	-2.752734e+01	-3.983816e+02
2.910000e-06	-3.931870e-06	-6.195531e-09	-2.803122e+01	-4.052007e+02
2.920000e-06	-4.000936e-06	-6.296813e-09	-2.852360e+01	-4.117175e+02
2.930000e-06	-4.068472e-06	-6.393620e-09	-2.900509e+01	-4.179526e+02
2.940000e-06	-4.134566e-06	-6.485158e-09	-2.947628e+01	-4.239284e+02
