# Temperatura_=_36.37
# Concentracion g/m^3_=_15000.0
# C_Vs_to_Am_M_A/Vsm_=_65563218390.804596
# pendiente_HvsI_1/m_=_3716.3
# ordenada_HvsI_A/m_=_1297.0
# frecuencia_Hz_=_301596.6602448934

Tiempo_(s)	Campo_(V.s)	Magnetizacion_(V.s)	Campo_(kA/m)	Magnetizacion_(A/m)
0.000000e+00	-5.379096e-06	-5.850257e-09	-3.833483e+01	-3.818327e+02
1.000000e-08	-5.376457e-06	-5.848664e-09	-3.831602e+01	-3.817063e+02
2.000000e-08	-5.372000e-06	-5.842483e-09	-3.828426e+01	-3.814995e+02
3.000000e-08	-5.365906e-06	-5.836177e-09	-3.824082e+01	-3.812099e+02
4.000000e-08	-5.358214e-06	-5.830042e-09	-3.818600e+01	-3.808369e+02
5.000000e-08	-5.348803e-06	-5.821658e-09	-3.811893e+01	-3.803824e+02
6.000000e-08	-5.337342e-06	-5.812446e-09	-3.803726e+01	-3.798507e+02
7.000000e-08	-5.323964e-06	-5.802605e-09	-3.794192e+01	-3.792487e+02
8.000000e-08	-5.308529e-06	-5.787877e-09	-3.783192e+01	-3.785849e+02
9.000000e-08	-5.290765e-06	-5.817491e-09	-3.770532e+01	-3.778689e+02
1.000000e-07	-5.270904e-06	-5.820054e-09	-3.756378e+01	-3.771097e+02
1.100000e-07	-5.249190e-06	-5.766253e-09	-3.740904e+01	-3.763151e+02
1.200000e-07	-5.225785e-06	-5.748326e-09	-3.724224e+01	-3.754903e+02
1.300000e-07	-5.200940e-06	-5.690545e-09	-3.706518e+01	-3.746371e+02
1.400000e-07	-5.174490e-06	-5.635804e-09	-3.687667e+01	-3.737539e+02
1.500000e-07	-5.146279e-06	-5.756202e-09	-3.667562e+01	-3.728351e+02
1.600000e-07	-5.116621e-06	-5.695458e-09	-3.646426e+01	-3.718722e+02
1.700000e-07	-5.085495e-06	-5.641254e-09	-3.624244e+01	-3.708544e+02
1.800000e-07	-5.052264e-06	-5.725990e-09	-3.600561e+01	-3.697696e+02
1.900000e-07	-5.017026e-06	-5.575877e-09	-3.575449e+01	-3.686061e+02
2.000000e-07	-4.980385e-06	-5.547417e-09	-3.549336e+01	-3.673534e+02
2.100000e-07	-4.942056e-06	-5.614980e-09	-3.522020e+01	-3.660039e+02
2.200000e-07	-4.901904e-06	-5.533577e-09	-3.493406e+01	-3.645527e+02
2.300000e-07	-4.859835e-06	-5.531675e-09	-3.463425e+01	-3.629987e+02
2.400000e-07	-4.815815e-06	-5.511762e-09	-3.432053e+01	-3.613440e+02
2.500000e-07	-4.770017e-06	-5.437832e-09	-3.399415e+01	-3.595935e+02
2.600000e-07	-4.722381e-06	-5.467232e-09	-3.365466e+01	-3.577541e+02
2.700000e-07	-4.672767e-06	-5.428388e-09	-3.330108e+01	-3.558332e+02
2.800000e-07	-4.621029e-06	-5.409096e-09	-3.293236e+01	-3.538380e+02
2.900000e-07	-4.567331e-06	-5.383317e-09	-3.254967e+01	-3.517744e+02
3.000000e-07	-4.512075e-06	-5.303584e-09	-3.215589e+01	-3.496460e+02
3.100000e-07	-4.455240e-06	-5.274334e-09	-3.175085e+01	-3.474539e+02
3.200000e-07	-4.396543e-06	-5.270016e-09	-3.133253e+01	-3.451967e+02
3.300000e-07	-4.336211e-06	-5.245406e-09	-3.090257e+01	-3.428704e+02
3.400000e-07	-4.274417e-06	-5.168661e-09	-3.046219e+01	-3.404697e+02
3.500000e-07	-4.211192e-06	-5.132043e-09	-3.001161e+01	-3.379883e+02
3.600000e-07	-4.146485e-06	-5.117016e-09	-2.955046e+01	-3.354198e+02
3.700000e-07	-4.080139e-06	-5.069879e-09	-2.907764e+01	-3.327590e+02
3.800000e-07	-4.012216e-06	-5.031936e-09	-2.859358e+01	-3.300021e+02
3.900000e-07	-3.942901e-06	-4.977263e-09	-2.809959e+01	-3.271471e+02
4.000000e-07	-3.872307e-06	-4.915205e-09	-2.759650e+01	-3.241943e+02
4.100000e-07	-3.800535e-06	-4.867081e-09	-2.708501e+01	-3.211455e+02
4.200000e-07	-3.727390e-06	-4.828533e-09	-2.656373e+01	-3.180038e+02
4.300000e-07	-3.652636e-06	-4.804139e-09	-2.603098e+01	-3.147728e+02
4.400000e-07	-3.576361e-06	-4.754811e-09	-2.548740e+01	-3.114562e+02
4.500000e-07	-3.498664e-06	-4.686469e-09	-2.493368e+01	-3.080566e+02
4.600000e-07	-3.419575e-06	-4.619534e-09	-2.437004e+01	-3.045752e+02
4.700000e-07	-3.339152e-06	-4.572032e-09	-2.379690e+01	-3.010118e+02
4.800000e-07	-3.257491e-06	-4.531132e-09	-2.321493e+01	-2.973640e+02
4.900000e-07	-3.174666e-06	-4.466238e-09	-2.262467e+01	-2.936284e+02
5.000000e-07	-3.090824e-06	-4.402539e-09	-2.202716e+01	-2.898000e+02
5.100000e-07	-3.006102e-06	-4.335366e-09	-2.142337e+01	-2.858738e+02
5.200000e-07	-2.920463e-06	-4.272086e-09	-2.081306e+01	-2.818445e+02
5.300000e-07	-2.833796e-06	-4.216142e-09	-2.019541e+01	-2.777077e+02
5.400000e-07	-2.746210e-06	-4.159267e-09	-1.957122e+01	-2.734601e+02
5.500000e-07	-2.657729e-06	-4.092937e-09	-1.894065e+01	-2.690997e+02
5.600000e-07	-2.568083e-06	-4.011296e-09	-1.830178e+01	-2.646262e+02
5.700000e-07	-2.477300e-06	-3.938511e-09	-1.765480e+01	-2.600402e+02
5.800000e-07	-2.385628e-06	-3.877406e-09	-1.700148e+01	-2.553435e+02
5.900000e-07	-2.293147e-06	-3.810734e-09	-1.634241e+01	-2.505380e+02
6.000000e-07	-2.199877e-06	-3.724719e-09	-1.567771e+01	-2.456258e+02
6.100000e-07	-2.105789e-06	-3.639913e-09	-1.500718e+01	-2.406082e+02
6.200000e-07	-2.010971e-06	-3.565393e-09	-1.433144e+01	-2.354857e+02
6.300000e-07	-1.915539e-06	-3.490346e-09	-1.365134e+01	-2.302577e+02
6.400000e-07	-1.819463e-06	-3.413703e-09	-1.296664e+01	-2.249225e+02
6.500000e-07	-1.722627e-06	-3.333287e-09	-1.227653e+01	-2.194773e+02
6.600000e-07	-1.625087e-06	-3.245979e-09	-1.158139e+01	-2.139186e+02
6.700000e-07	-1.526887e-06	-3.149277e-09	-1.088156e+01	-2.082426e+02
6.800000e-07	-1.428017e-06	-3.056795e-09	-1.017695e+01	-2.024455e+02
6.900000e-07	-1.328561e-06	-2.970339e-09	-9.468164e+00	-1.965238e+02
7.000000e-07	-1.228660e-06	-2.881222e-09	-8.756202e+00	-1.904744e+02
7.100000e-07	-1.128433e-06	-2.783366e-09	-8.041927e+00	-1.842949e+02
7.200000e-07	-1.027871e-06	-2.681983e-09	-7.325259e+00	-1.779833e+02
7.300000e-07	-9.270297e-07	-2.584272e-09	-6.606598e+00	-1.715381e+02
7.400000e-07	-8.259641e-07	-2.487993e-09	-5.886341e+00	-1.649575e+02
7.500000e-07	-7.246471e-07	-2.391267e-09	-5.164292e+00	-1.582394e+02
7.600000e-07	-6.230130e-07	-2.288694e-09	-4.439983e+00	-1.513810e+02
7.700000e-07	-5.211345e-07	-2.178500e-09	-3.713933e+00	-1.443787e+02
7.800000e-07	-4.191075e-07	-2.063613e-09	-2.986824e+00	-1.372275e+02
7.900000e-07	-3.169251e-07	-1.949506e-09	-2.258608e+00	-1.299213e+02
8.000000e-07	-2.146343e-07	-1.837582e-09	-1.529619e+00	-1.224527e+02
8.100000e-07	-1.122443e-07	-1.725720e-09	-7.999238e-01	-1.148136e+02
8.200000e-07	-9.767313e-09	-1.608252e-09	-6.960802e-02	-1.069947e+02
8.300000e-07	9.273346e-08	-1.484679e-09	6.608770e-01	-9.898672e+01
8.400000e-07	1.952282e-07	-1.358888e-09	1.391319e+00	-9.077976e+01
8.500000e-07	2.976847e-07	-1.232650e-09	2.121489e+00	-8.236419e+01
8.600000e-07	4.000097e-07	-1.102585e-09	2.850721e+00	-7.373069e+01
8.700000e-07	5.022071e-07	-9.641126e-10	3.579044e+00	-6.487052e+01
8.800000e-07	6.042937e-07	-8.203731e-10	4.306577e+00	-5.577581e+01
8.900000e-07	7.061448e-07	-6.753387e-10	5.032432e+00	-4.643984e+01
9.000000e-07	8.076881e-07	-5.305416e-10	5.756094e+00	-3.685742e+01
9.100000e-07	9.089823e-07	-3.828572e-10	6.477980e+00	-2.702539e+01
9.200000e-07	1.009985e-06	-2.311183e-10	7.197786e+00	-1.694314e+01
9.300000e-07	1.110686e-06	-7.424484e-11	7.915446e+00	-6.613325e+00
9.400000e-07	1.211088e-06	8.848044e-11	8.630972e+00	3.957485e+00
9.500000e-07	1.311055e-06	2.546174e-10	9.343407e+00	1.475809e+01
9.600000e-07	1.410502e-06	4.219216e-10	1.005213e+01	2.577208e+01
9.700000e-07	1.509349e-06	5.914776e-10	1.075657e+01	3.697741e+01
9.800000e-07	1.607546e-06	7.661688e-10	1.145638e+01	4.834630e+01
9.900000e-07	1.705065e-06	9.437992e-10	1.215137e+01	5.984532e+01
1.000000e-06	1.801812e-06	1.120821e-09	1.284085e+01	7.143599e+01
1.010000e-06	1.897783e-06	1.297250e-09	1.352480e+01	8.307563e+01
1.020000e-06	1.993064e-06	1.473349e-09	1.420383e+01	9.471853e+01
1.030000e-06	2.087668e-06	1.648064e-09	1.487803e+01	1.063174e+02
1.040000e-06	2.181564e-06	1.823437e-09	1.554720e+01	1.178248e+02
1.050000e-06	2.274745e-06	1.998993e-09	1.621127e+01	1.291949e+02
1.060000e-06	2.367223e-06	2.171899e-09	1.687032e+01	1.403848e+02
1.070000e-06	2.458958e-06	2.338721e-09	1.752409e+01	1.513555e+02
1.080000e-06	2.549831e-06	2.500889e-09	1.817170e+01	1.620733e+02
1.090000e-06	2.639632e-06	2.661982e-09	1.881168e+01	1.725097e+02
1.100000e-06	2.728284e-06	2.818022e-09	1.944347e+01	1.826421e+02
1.110000e-06	2.815966e-06	2.966420e-09	2.006835e+01	1.924532e+02
1.120000e-06	2.902790e-06	3.109678e-09	2.068711e+01	2.019311e+02
1.130000e-06	2.988706e-06	3.247298e-09	2.129940e+01	2.110681e+02
1.140000e-06	3.073642e-06	3.380320e-09	2.190471e+01	2.198605e+02
1.150000e-06	3.157597e-06	3.508808e-09	2.250303e+01	2.283075e+02
1.160000e-06	3.240532e-06	3.632218e-09	2.309407e+01	2.364116e+02
1.170000e-06	3.322256e-06	3.749647e-09	2.367649e+01	2.441771e+02
1.180000e-06	3.402702e-06	3.860557e-09	2.424980e+01	2.516106e+02
1.190000e-06	3.481998e-06	3.966965e-09	2.481491e+01	2.587210e+02
1.200000e-06	3.560124e-06	4.068980e-09	2.537168e+01	2.655188e+02
1.210000e-06	3.636977e-06	4.168940e-09	2.591939e+01	2.720165e+02
1.220000e-06	3.712435e-06	4.264425e-09	2.645715e+01	2.782287e+02
1.230000e-06	3.786298e-06	4.353085e-09	2.698354e+01	2.841711e+02
1.240000e-06	3.858575e-06	4.437427e-09	2.749864e+01	2.898607e+02
1.250000e-06	3.929459e-06	4.520545e-09	2.800380e+01	2.953147e+02
1.260000e-06	3.998979e-06	4.603741e-09	2.849924e+01	3.005501e+02
1.270000e-06	4.067145e-06	4.682710e-09	2.898503e+01	3.055823e+02
1.280000e-06	4.133923e-06	4.755322e-09	2.946094e+01	3.104248e+02
1.290000e-06	4.199022e-06	4.824423e-09	2.992488e+01	3.150882e+02
1.300000e-06	4.262500e-06	4.891365e-09	3.037726e+01	3.195796e+02
1.310000e-06	4.324602e-06	4.956866e-09	3.081984e+01	3.239028e+02
1.320000e-06	4.385310e-06	5.020381e-09	3.125248e+01	3.280583e+02
1.330000e-06	4.444554e-06	5.080846e-09	3.167469e+01	3.320438e+02
1.340000e-06	4.502096e-06	5.137356e-09	3.208477e+01	3.358551e+02
1.350000e-06	4.557883e-06	5.190236e-09	3.248235e+01	3.394872e+02
1.360000e-06	4.612094e-06	5.240738e-09	3.286869e+01	3.429356e+02
1.370000e-06	4.664597e-06	5.287104e-09	3.324285e+01	3.461970e+02
1.380000e-06	4.715009e-06	5.330038e-09	3.360212e+01	3.492704e+02
1.390000e-06	4.763392e-06	5.372261e-09	3.394693e+01	3.521577e+02
1.400000e-06	4.810103e-06	5.413058e-09	3.427982e+01	3.548639e+02
1.410000e-06	4.855239e-06	5.451203e-09	3.460149e+01	3.573967e+02
1.420000e-06	4.898860e-06	5.487023e-09	3.491236e+01	3.597662e+02
1.430000e-06	4.940651e-06	5.520223e-09	3.521019e+01	3.619838e+02
1.440000e-06	4.980544e-06	5.549559e-09	3.549449e+01	3.640612e+02
1.450000e-06	5.018820e-06	5.575965e-09	3.576727e+01	3.660096e+02
1.460000e-06	5.055509e-06	5.601696e-09	3.602874e+01	3.678383e+02
1.470000e-06	5.090496e-06	5.627795e-09	3.627808e+01	3.695547e+02
1.480000e-06	5.123486e-06	5.652029e-09	3.651319e+01	3.711634e+02
1.490000e-06	5.154589e-06	5.673032e-09	3.673485e+01	3.726663e+02
1.500000e-06	5.184087e-06	5.692406e-09	3.694507e+01	3.740634e+02
1.510000e-06	5.211953e-06	5.711122e-09	3.714366e+01	3.753533e+02
1.520000e-06	5.237779e-06	5.728753e-09	3.732771e+01	3.765337e+02
1.530000e-06	5.261471e-06	5.744547e-09	3.749655e+01	3.776029e+02
1.540000e-06	5.283377e-06	5.759521e-09	3.765267e+01	3.785604e+02
1.550000e-06	5.303589e-06	5.772903e-09	3.779672e+01	3.794069e+02
1.560000e-06	5.321913e-06	5.784100e-09	3.792730e+01	3.801457e+02
1.570000e-06	5.338197e-06	5.794845e-09	3.804335e+01	3.807813e+02
1.580000e-06	5.352533e-06	5.805052e-09	3.814552e+01	3.813203e+02
1.590000e-06	5.364924e-06	5.813636e-09	3.823382e+01	3.817695e+02
1.600000e-06	5.375116e-06	5.819184e-09	3.830646e+01	3.821360e+02
1.610000e-06	5.383153e-06	5.823299e-09	3.836374e+01	3.824259e+02
1.620000e-06	5.389316e-06	5.827712e-09	3.840766e+01	3.826438e+02
1.630000e-06	5.393732e-06	5.832157e-09	3.843913e+01	3.827920e+02
1.640000e-06	5.396216e-06	5.834348e-09	3.845683e+01	3.828711e+02
1.650000e-06	5.396660e-06	5.836912e-09	3.846000e+01	3.828791e+02
1.660000e-06	5.395333e-06	5.839338e-09	3.845054e+01	3.828133e+02
1.670000e-06	5.392320e-06	5.835234e-09	3.842907e+01	3.826697e+02
1.680000e-06	5.387641e-06	5.833365e-09	3.839572e+01	3.824452e+02
1.690000e-06	5.381073e-06	5.831491e-09	3.834891e+01	3.821375e+02
1.700000e-06	5.372644e-06	5.827048e-09	3.828884e+01	3.817466e+02
1.710000e-06	5.362661e-06	5.823370e-09	3.821770e+01	3.812749e+02
1.720000e-06	5.350995e-06	5.818192e-09	3.813456e+01	3.807274e+02
1.730000e-06	5.337325e-06	5.827079e-09	3.803714e+01	3.801112e+02
1.740000e-06	5.321609e-06	5.770719e-09	3.792514e+01	3.794353e+02
1.750000e-06	5.303647e-06	5.726968e-09	3.779712e+01	3.787091e+02
1.760000e-06	5.282972e-06	5.757061e-09	3.764979e+01	3.779416e+02
1.770000e-06	5.259953e-06	5.740685e-09	3.748574e+01	3.771400e+02
1.780000e-06	5.235573e-06	5.810632e-09	3.731199e+01	3.763089e+02
1.790000e-06	5.210473e-06	5.806729e-09	3.713311e+01	3.754494e+02
1.800000e-06	5.184122e-06	5.625878e-09	3.694532e+01	3.745589e+02
1.810000e-06	5.155493e-06	5.723796e-09	3.674129e+01	3.736314e+02
1.820000e-06	5.124917e-06	5.698252e-09	3.652338e+01	3.726575e+02
1.830000e-06	5.092830e-06	5.558126e-09	3.629471e+01	3.716262e+02
1.840000e-06	5.058847e-06	5.731076e-09	3.605253e+01	3.705253e+02
1.850000e-06	5.023218e-06	5.659775e-09	3.579862e+01	3.693433e+02
1.860000e-06	4.985809e-06	5.554834e-09	3.553201e+01	3.680703e+02
1.870000e-06	4.946420e-06	5.645475e-09	3.525130e+01	3.666991e+02
1.880000e-06	4.905434e-06	5.505812e-09	3.495921e+01	3.652256e+02
1.890000e-06	4.862676e-06	5.524733e-09	3.465449e+01	3.636496e+02
1.900000e-06	4.818163e-06	5.543014e-09	3.433726e+01	3.619737e+02
1.910000e-06	4.771858e-06	5.422543e-09	3.400726e+01	3.602034e+02
1.920000e-06	4.723566e-06	5.509340e-09	3.366311e+01	3.583457e+02
1.930000e-06	4.673657e-06	5.378716e-09	3.330742e+01	3.564082e+02
1.940000e-06	4.622036e-06	5.337099e-09	3.293954e+01	3.543977e+02
1.950000e-06	4.568325e-06	5.422185e-09	3.255676e+01	3.523198e+02
1.960000e-06	4.512668e-06	5.324803e-09	3.216012e+01	3.501776e+02
1.970000e-06	4.455262e-06	5.290891e-09	3.175100e+01	3.479716e+02
1.980000e-06	4.396409e-06	5.218325e-09	3.133158e+01	3.456998e+02
1.990000e-06	4.336117e-06	5.232134e-09	3.090190e+01	3.433579e+02
2.000000e-06	4.274120e-06	5.218062e-09	3.046007e+01	3.409403e+02
2.010000e-06	4.210457e-06	5.108860e-09	3.000637e+01	3.384406e+02
2.020000e-06	4.145286e-06	5.139540e-09	2.954192e+01	3.358526e+02
2.030000e-06	4.078735e-06	5.065879e-09	2.906763e+01	3.331712e+02
2.040000e-06	4.010746e-06	5.008870e-09	2.858310e+01	3.303932e+02
2.050000e-06	3.941191e-06	4.981499e-09	2.808741e+01	3.275171e+02
2.060000e-06	3.870174e-06	4.945911e-09	2.758130e+01	3.245433e+02
2.070000e-06	3.797828e-06	4.930982e-09	2.706572e+01	3.214741e+02
2.080000e-06	3.724209e-06	4.812863e-09	2.654106e+01	3.183128e+02
2.090000e-06	3.649229e-06	4.773930e-09	2.600670e+01	3.150630e+02
2.100000e-06	3.572756e-06	4.751757e-09	2.546171e+01	3.117283e+02
2.110000e-06	3.494746e-06	4.709363e-09	2.490576e+01	3.083109e+02
2.120000e-06	3.415388e-06	4.649643e-09	2.434020e+01	3.048119e+02
2.130000e-06	3.334883e-06	4.577880e-09	2.376648e+01	3.012304e+02
2.140000e-06	3.253213e-06	4.542945e-09	2.318445e+01	2.975640e+02
2.150000e-06	3.170483e-06	4.461362e-09	2.259486e+01	2.938088e+02
2.160000e-06	3.086774e-06	4.412971e-09	2.199829e+01	2.899598e+02
2.170000e-06	3.001907e-06	4.373329e-09	2.139348e+01	2.860117e+02
2.180000e-06	2.915733e-06	4.309988e-09	2.077935e+01	2.819595e+02
2.190000e-06	2.828375e-06	4.225676e-09	2.015678e+01	2.777990e+02
2.200000e-06	2.739993e-06	4.145035e-09	1.952692e+01	2.735272e+02
2.210000e-06	2.650671e-06	4.104794e-09	1.889035e+01	2.691424e+02
2.220000e-06	2.560505e-06	4.045315e-09	1.824777e+01	2.646445e+02
2.230000e-06	2.469504e-06	3.966485e-09	1.759924e+01	2.600345e+02
2.240000e-06	2.377671e-06	3.886203e-09	1.694478e+01	2.553141e+02
2.250000e-06	2.284995e-06	3.819643e-09	1.628432e+01	2.504854e+02
2.260000e-06	2.191488e-06	3.742425e-09	1.561792e+01	2.455503e+02
2.270000e-06	2.097069e-06	3.662314e-09	1.494503e+01	2.405101e+02
2.280000e-06	2.001669e-06	3.587330e-09	1.426515e+01	2.353649e+02
2.290000e-06	1.905467e-06	3.503622e-09	1.357956e+01	2.301140e+02
2.300000e-06	1.808695e-06	3.414248e-09	1.288990e+01	2.247553e+02
2.310000e-06	1.711435e-06	3.327269e-09	1.219676e+01	2.192859e+02
2.320000e-06	1.613653e-06	3.257601e-09	1.149991e+01	2.137023e+02
2.330000e-06	1.515361e-06	3.181930e-09	1.079942e+01	2.080005e+02
2.340000e-06	1.416565e-06	3.088230e-09	1.009534e+01	2.021768e+02
2.350000e-06	1.317320e-06	2.986058e-09	9.388053e+00	1.962277e+02
2.360000e-06	1.217744e-06	2.892268e-09	8.678412e+00	1.901505e+02
2.370000e-06	1.117950e-06	2.805230e-09	7.967218e+00	1.839427e+02
2.380000e-06	1.017856e-06	2.714737e-09	7.253885e+00	1.776025e+02
2.390000e-06	9.172484e-07	2.616582e-09	6.536890e+00	1.711282e+02
2.400000e-06	8.161049e-07	2.509856e-09	5.816078e+00	1.645181e+02
2.410000e-06	7.145969e-07	2.401484e-09	5.092667e+00	1.577701e+02
2.420000e-06	6.129374e-07	2.294178e-09	4.368178e+00	1.508810e+02
2.430000e-06	5.111381e-07	2.191888e-09	3.642692e+00	1.438471e+02
2.440000e-06	4.091045e-07	2.087603e-09	2.915536e+00	1.366631e+02
2.450000e-06	3.068639e-07	1.972314e-09	2.186906e+00	1.293225e+02
2.460000e-06	2.045261e-07	1.848189e-09	1.457582e+00	1.218180e+02
2.470000e-06	1.020938e-07	1.728061e-09	7.275848e-01	1.141409e+02
2.480000e-06	-4.478359e-10	1.613979e-09	-3.191561e-03	1.062822e+02
2.490000e-06	-1.029794e-07	1.495792e-09	-7.338961e-01	9.823224e+01
2.500000e-06	-2.054821e-07	1.368514e-09	-1.464395e+00	8.998121e+01
2.510000e-06	-3.079790e-07	1.237063e-09	-2.194852e+00	8.151954e+01
2.520000e-06	-4.103302e-07	1.106202e-09	-2.924272e+00	7.283801e+01
2.530000e-06	-5.124815e-07	9.711372e-10	-3.652266e+00	6.392804e+01
2.540000e-06	-6.144934e-07	8.328295e-10	-4.379267e+00	5.478198e+01
2.550000e-06	-7.162923e-07	6.918290e-10	-5.104750e+00	4.539341e+01
2.560000e-06	-8.177533e-07	5.425636e-10	-5.827825e+00	3.575753e+01
2.570000e-06	-9.187956e-07	3.863014e-10	-6.547916e+00	2.587166e+01
2.580000e-06	-1.019395e-06	2.317407e-10	-7.264852e+00	1.573585e+01
2.590000e-06	-1.119545e-06	8.089967e-11	-7.978585e+00	5.353519e+00
2.600000e-06	-1.219246e-06	-7.655772e-11	-8.689111e+00	-5.267814e+00
2.610000e-06	-1.318517e-06	-2.448758e-10	-9.396582e+00	-1.611588e+01
2.620000e-06	-1.417374e-06	-4.153976e-10	-1.010110e+01	-2.717309e+01
2.630000e-06	-1.515813e-06	-5.850623e-10	-1.080264e+01	-3.841618e+01
2.640000e-06	-1.613798e-06	-7.568116e-10	-1.150094e+01	-4.981611e+01
2.650000e-06	-1.711153e-06	-9.315976e-10	-1.219475e+01	-6.133834e+01
2.660000e-06	-1.807872e-06	-1.109363e-09	-1.288404e+01	-7.294339e+01
2.670000e-06	-1.904041e-06	-1.289683e-09	-1.356939e+01	-8.458782e+01
2.680000e-06	-1.999629e-06	-1.471496e-09	-1.425061e+01	-9.622546e+01
2.690000e-06	-2.094565e-06	-1.649268e-09	-1.492719e+01	-1.078088e+02
2.700000e-06	-2.188664e-06	-1.820671e-09	-1.559779e+01	-1.192908e+02
2.710000e-06	-2.281755e-06	-1.990696e-09	-1.626122e+01	-1.306259e+02
2.720000e-06	-2.373837e-06	-2.162375e-09	-1.691746e+01	-1.417721e+02
2.730000e-06	-2.465017e-06	-2.329784e-09	-1.756727e+01	-1.526915e+02
2.740000e-06	-2.555425e-06	-2.489294e-09	-1.821157e+01	-1.633513e+02
2.750000e-06	-2.644988e-06	-2.643994e-09	-1.884985e+01	-1.737245e+02
2.760000e-06	-2.733616e-06	-2.795808e-09	-1.948147e+01	-1.837895e+02
2.770000e-06	-2.821357e-06	-2.946453e-09	-2.010677e+01	-1.935303e+02
2.780000e-06	-2.908194e-06	-3.095264e-09	-2.072562e+01	-2.029358e+02
2.790000e-06	-2.993987e-06	-3.236069e-09	-2.133703e+01	-2.119993e+02
2.800000e-06	-3.078604e-06	-3.367684e-09	-2.194007e+01	-2.207177e+02
2.810000e-06	-3.162081e-06	-3.493744e-09	-2.253498e+01	-2.290912e+02
2.820000e-06	-3.244490e-06	-3.616284e-09	-2.312228e+01	-2.371224e+02
2.830000e-06	-3.325828e-06	-3.736190e-09	-2.370195e+01	-2.448163e+02
2.840000e-06	-3.406045e-06	-3.851964e-09	-2.427362e+01	-2.521800e+02
2.850000e-06	-3.485179e-06	-3.962197e-09	-2.483758e+01	-2.592226e+02
2.860000e-06	-3.562976e-06	-4.065172e-09	-2.539201e+01	-2.659551e+02
2.870000e-06	-3.639208e-06	-4.162415e-09	-2.593529e+01	-2.723906e+02
2.880000e-06	-3.713944e-06	-4.257359e-09	-2.646790e+01	-2.785437e+02
2.890000e-06	-3.787246e-06	-4.349052e-09	-2.699030e+01	-2.844307e+02
2.900000e-06	-3.859222e-06	-4.434516e-09	-2.750325e+01	-2.900685e+02
2.910000e-06	-3.929875e-06	-4.514463e-09	-2.800676e+01	-2.954745e+02
2.920000e-06	-3.998987e-06	-4.592518e-09	-2.849930e+01	-3.006652e+02
2.930000e-06	-4.066572e-06	-4.669386e-09	-2.898096e+01	-3.056559e+02
2.940000e-06	-4.132791e-06	-4.744206e-09	-2.945287e+01	-3.104594e+02
