# Temperatura_=_44.82
# Concentracion g/m^3_=_15000.0
# C_Vs_to_Am_M_A/Vsm_=_65563218390.804596
# pendiente_HvsI_1/m_=_3716.3
# ordenada_HvsI_A/m_=_1297.0
# frecuencia_Hz_=_301591.2020668235

Tiempo_(s)	Campo_(V.s)	Magnetizacion_(V.s)	Campo_(kA/m)	Magnetizacion_(A/m)
0.000000e+00	-5.352742e-06	-6.054779e-09	-3.833600e+01	-3.953296e+02
1.000000e-08	-5.349694e-06	-6.050025e-09	-3.831417e+01	-3.951755e+02
2.000000e-08	-5.344920e-06	-6.044886e-09	-3.827997e+01	-3.949294e+02
3.000000e-08	-5.338580e-06	-6.039541e-09	-3.823457e+01	-3.945920e+02
4.000000e-08	-5.330702e-06	-6.034264e-09	-3.817815e+01	-3.941660e+02
5.000000e-08	-5.320994e-06	-6.028309e-09	-3.810862e+01	-3.936563e+02
6.000000e-08	-5.309237e-06	-6.018693e-09	-3.802442e+01	-3.930698e+02
7.000000e-08	-5.295604e-06	-6.009068e-09	-3.792678e+01	-3.924145e+02
8.000000e-08	-5.279885e-06	-6.009696e-09	-3.781420e+01	-3.916991e+02
9.000000e-08	-5.261896e-06	-6.009563e-09	-3.768536e+01	-3.909318e+02
1.000000e-07	-5.241856e-06	-5.999371e-09	-3.754184e+01	-3.901194e+02
1.100000e-07	-5.219901e-06	-5.976553e-09	-3.738460e+01	-3.892665e+02
1.200000e-07	-5.196342e-06	-5.931420e-09	-3.721587e+01	-3.883747e+02
1.300000e-07	-5.171392e-06	-5.907379e-09	-3.703718e+01	-3.874425e+02
1.400000e-07	-5.144751e-06	-5.912754e-09	-3.684638e+01	-3.864653e+02
1.500000e-07	-5.116410e-06	-5.887838e-09	-3.664340e+01	-3.854360e+02
1.600000e-07	-5.086671e-06	-5.896817e-09	-3.643041e+01	-3.843454e+02
1.700000e-07	-5.055299e-06	-5.896072e-09	-3.620573e+01	-3.831835e+02
1.800000e-07	-5.021753e-06	-5.841316e-09	-3.596547e+01	-3.819402e+02
1.900000e-07	-4.986371e-06	-5.804943e-09	-3.571207e+01	-3.806069e+02
2.000000e-07	-4.949591e-06	-5.758054e-09	-3.544865e+01	-3.791768e+02
2.100000e-07	-4.911096e-06	-5.731727e-09	-3.517296e+01	-3.776457e+02
2.200000e-07	-4.870787e-06	-5.744368e-09	-3.488427e+01	-3.760120e+02
2.300000e-07	-4.828533e-06	-5.727621e-09	-3.458165e+01	-3.742771e+02
2.400000e-07	-4.784404e-06	-5.683405e-09	-3.426560e+01	-3.724445e+02
2.500000e-07	-4.738528e-06	-5.652058e-09	-3.393703e+01	-3.705190e+02
2.600000e-07	-4.690794e-06	-5.611007e-09	-3.359517e+01	-3.685066e+02
2.700000e-07	-4.641064e-06	-5.585962e-09	-3.323900e+01	-3.664128e+02
2.800000e-07	-4.589170e-06	-5.581784e-09	-3.286734e+01	-3.642424e+02
2.900000e-07	-4.535367e-06	-5.527693e-09	-3.248201e+01	-3.619991e+02
3.000000e-07	-4.480018e-06	-5.460966e-09	-3.208561e+01	-3.596843e+02
3.100000e-07	-4.423030e-06	-5.454868e-09	-3.167746e+01	-3.572981e+02
3.200000e-07	-4.364234e-06	-5.431022e-09	-3.125636e+01	-3.548389e+02
3.300000e-07	-4.303873e-06	-5.376429e-09	-3.082406e+01	-3.523041e+02
3.400000e-07	-4.242081e-06	-5.342484e-09	-3.038152e+01	-3.496903e+02
3.500000e-07	-4.178894e-06	-5.291250e-09	-2.992897e+01	-3.469943e+02
3.600000e-07	-4.114267e-06	-5.239701e-09	-2.946612e+01	-3.442130e+02
3.700000e-07	-4.047947e-06	-5.213099e-09	-2.899114e+01	-3.413445e+02
3.800000e-07	-3.980057e-06	-5.178358e-09	-2.850492e+01	-3.383875e+02
3.900000e-07	-3.910819e-06	-5.115681e-09	-2.800904e+01	-3.353421e+02
4.000000e-07	-3.840354e-06	-5.045506e-09	-2.750437e+01	-3.322087e+02
4.100000e-07	-3.768758e-06	-4.996563e-09	-2.699161e+01	-3.289885e+02
4.200000e-07	-3.695838e-06	-4.961924e-09	-2.646936e+01	-3.256824e+02
4.300000e-07	-3.621271e-06	-4.927265e-09	-2.593531e+01	-3.222913e+02
4.400000e-07	-3.545072e-06	-4.883788e-09	-2.538958e+01	-3.188152e+02
4.500000e-07	-3.467492e-06	-4.826304e-09	-2.483395e+01	-3.152534e+02
4.600000e-07	-3.388532e-06	-4.753824e-09	-2.426845e+01	-3.116043e+02
4.700000e-07	-3.308253e-06	-4.685983e-09	-2.369350e+01	-3.078655e+02
4.800000e-07	-3.226774e-06	-4.637411e-09	-2.310995e+01	-3.040341e+02
4.900000e-07	-3.144105e-06	-4.582982e-09	-2.251788e+01	-3.001071e+02
5.000000e-07	-3.060392e-06	-4.511466e-09	-2.191833e+01	-2.960817e+02
5.100000e-07	-2.975884e-06	-4.441026e-09	-2.131309e+01	-2.919551e+02
5.200000e-07	-2.890461e-06	-4.379695e-09	-2.070130e+01	-2.877257e+02
5.300000e-07	-2.803968e-06	-4.320255e-09	-2.008184e+01	-2.833921e+02
5.400000e-07	-2.716547e-06	-4.259792e-09	-1.945573e+01	-2.789536e+02
5.500000e-07	-2.628279e-06	-4.189182e-09	-1.882356e+01	-2.744102e+02
5.600000e-07	-2.539034e-06	-4.106442e-09	-1.818440e+01	-2.697617e+02
5.700000e-07	-2.448570e-06	-4.027300e-09	-1.753650e+01	-2.650079e+02
5.800000e-07	-2.357027e-06	-3.961486e-09	-1.688088e+01	-2.601481e+02
5.900000e-07	-2.264773e-06	-3.891878e-09	-1.622016e+01	-2.551810e+02
6.000000e-07	-2.171838e-06	-3.806786e-09	-1.555456e+01	-2.501048e+02
6.100000e-07	-2.078069e-06	-3.720212e-09	-1.488300e+01	-2.449169e+02
6.200000e-07	-1.983531e-06	-3.639142e-09	-1.420592e+01	-2.396141e+02
6.300000e-07	-1.888351e-06	-3.559548e-09	-1.352425e+01	-2.341932e+02
6.400000e-07	-1.792535e-06	-3.481980e-09	-1.283802e+01	-2.286511e+02
6.500000e-07	-1.696118e-06	-3.403345e-09	-1.214749e+01	-2.229851e+02
6.600000e-07	-1.599095e-06	-3.312710e-09	-1.145261e+01	-2.171928e+02
6.700000e-07	-1.501335e-06	-3.210109e-09	-1.075247e+01	-2.112728e+02
6.800000e-07	-1.402825e-06	-3.110902e-09	-1.004695e+01	-2.052241e+02
6.900000e-07	-1.303691e-06	-3.021725e-09	-9.336950e+00	-1.990460e+02
7.000000e-07	-1.204058e-06	-2.929958e-09	-8.623387e+00	-1.927382e+02
7.100000e-07	-1.104115e-06	-2.829503e-09	-7.907600e+00	-1.862996e+02
7.200000e-07	-1.003958e-06	-2.727064e-09	-7.190281e+00	-1.797288e+02
7.300000e-07	-9.036240e-07	-2.625181e-09	-6.471697e+00	-1.730231e+02
7.400000e-07	-8.030781e-07	-2.523945e-09	-5.751594e+00	-1.661784e+02
7.500000e-07	-7.022509e-07	-2.421642e-09	-5.029476e+00	-1.591896e+02
7.600000e-07	-6.011467e-07	-2.315623e-09	-4.305375e+00	-1.520500e+02
7.700000e-07	-4.997915e-07	-2.201411e-09	-3.579475e+00	-1.447520e+02
7.800000e-07	-3.982524e-07	-2.081574e-09	-2.852258e+00	-1.372873e+02
7.900000e-07	-2.965504e-07	-1.964004e-09	-2.123875e+00	-1.296475e+02
8.000000e-07	-1.947292e-07	-1.849682e-09	-1.394638e+00	-1.218244e+02
8.100000e-07	-9.283305e-08	-1.732270e-09	-6.648643e-01	-1.138101e+02
8.200000e-07	9.113305e-09	-1.605188e-09	6.526890e-02	-1.055976e+02
8.300000e-07	1.110985e-07	-1.473186e-09	7.956805e-01	-9.718063e+01
8.400000e-07	2.130797e-07	-1.342596e-09	1.526063e+00	-8.855352e+01
8.500000e-07	3.149563e-07	-1.213327e-09	2.255697e+00	-7.971100e+01
8.600000e-07	4.167116e-07	-1.077628e-09	2.984462e+00	-7.064791e+01
8.700000e-07	5.183570e-07	-9.315352e-10	3.712440e+00	-6.135900e+01
8.800000e-07	6.198603e-07	-7.797969e-10	4.439400e+00	-5.183882e+01
8.900000e-07	7.211517e-07	-6.270949e-10	5.164842e+00	-4.208182e+01
9.000000e-07	8.221586e-07	-4.732307e-10	5.888247e+00	-3.208281e+01
9.100000e-07	9.228344e-07	-3.181346e-10	6.609281e+00	-2.183759e+01
9.200000e-07	1.023224e-06	-1.604777e-10	7.328268e+00	-1.134393e+01
9.300000e-07	1.123375e-06	3.319087e-12	8.045541e+00	-6.027567e-01
9.400000e-07	1.223262e-06	1.722995e-10	8.760924e+00	1.038067e+01
9.500000e-07	1.322816e-06	3.440225e-10	9.473924e+00	2.159558e+01
9.600000e-07	1.421835e-06	5.167553e-10	1.018309e+01	3.302470e+01
9.700000e-07	1.520116e-06	6.928582e-10	1.088697e+01	4.464375e+01
9.800000e-07	1.617648e-06	8.735591e-10	1.158549e+01	5.642121e+01
9.900000e-07	1.714443e-06	1.057274e-09	1.227873e+01	6.831880e+01
1.000000e-06	1.810513e-06	1.239899e-09	1.296678e+01	8.029239e+01
1.010000e-06	1.905916e-06	1.420364e-09	1.365005e+01	9.229337e+01
1.020000e-06	2.000685e-06	1.599625e-09	1.432878e+01	1.042705e+02
1.030000e-06	2.094759e-06	1.777880e-09	1.500253e+01	1.161717e+02
1.040000e-06	2.188088e-06	1.956232e-09	1.567095e+01	1.279465e+02
1.050000e-06	2.280711e-06	2.133314e-09	1.633431e+01	1.395474e+02
1.060000e-06	2.372685e-06	2.307401e-09	1.699302e+01	1.509315e+02
1.070000e-06	2.463911e-06	2.476920e-09	1.764637e+01	1.620621e+02
1.080000e-06	2.554073e-06	2.643166e-09	1.829211e+01	1.729088e+02
1.090000e-06	2.643057e-06	2.807560e-09	1.892940e+01	1.834476e+02
1.100000e-06	2.731059e-06	2.966017e-09	1.955967e+01	1.936609e+02
1.110000e-06	2.818179e-06	3.114874e-09	2.018362e+01	2.035368e+02
1.120000e-06	2.904360e-06	3.256755e-09	2.080084e+01	2.130676e+02
1.130000e-06	2.989592e-06	3.394657e-09	2.141127e+01	2.222497e+02
1.140000e-06	3.073955e-06	3.527387e-09	2.201547e+01	2.310822e+02
1.150000e-06	3.157462e-06	3.654573e-09	2.261354e+01	2.395661e+02
1.160000e-06	3.239845e-06	3.777952e-09	2.320357e+01	2.477043e+02
1.170000e-06	3.320897e-06	3.896226e-09	2.378405e+01	2.555012e+02
1.180000e-06	3.400732e-06	4.007826e-09	2.435582e+01	2.629626e+02
1.190000e-06	3.479437e-06	4.114356e-09	2.491950e+01	2.700962e+02
1.200000e-06	3.556922e-06	4.218413e-09	2.547445e+01	2.769119e+02
1.210000e-06	3.633137e-06	4.319298e-09	2.602029e+01	2.834218e+02
1.220000e-06	3.707905e-06	4.412709e-09	2.655578e+01	2.896402e+02
1.230000e-06	3.780998e-06	4.498649e-09	2.707926e+01	2.955836e+02
1.240000e-06	3.852595e-06	4.580917e-09	2.759204e+01	3.012701e+02
1.250000e-06	3.922909e-06	4.664157e-09	2.809562e+01	3.067186e+02
1.260000e-06	3.991893e-06	4.747510e-09	2.858968e+01	3.119478e+02
1.270000e-06	4.059584e-06	4.826130e-09	2.907448e+01	3.169752e+02
1.280000e-06	4.125722e-06	4.899793e-09	2.954815e+01	3.218161e+02
1.290000e-06	4.190113e-06	4.969903e-09	3.000932e+01	3.264825e+02
1.300000e-06	4.253019e-06	5.037353e-09	3.045985e+01	3.309832e+02
1.310000e-06	4.314586e-06	5.102904e-09	3.090079e+01	3.353225e+02
1.320000e-06	4.374843e-06	5.167543e-09	3.133234e+01	3.395017e+02
1.330000e-06	4.433525e-06	5.228305e-09	3.175263e+01	3.435187e+02
1.340000e-06	4.490374e-06	5.283287e-09	3.215977e+01	3.473692e+02
1.350000e-06	4.545587e-06	5.336846e-09	3.255520e+01	3.510484e+02
1.360000e-06	4.599223e-06	5.389378e-09	3.293934e+01	3.545511e+02
1.370000e-06	4.651091e-06	5.437569e-09	3.331082e+01	3.578739e+02
1.380000e-06	4.700924e-06	5.480798e-09	3.366772e+01	3.610152e+02
1.390000e-06	4.748799e-06	5.522412e-09	3.401059e+01	3.639765e+02
1.400000e-06	4.795008e-06	5.563242e-09	3.434154e+01	3.667617e+02
1.410000e-06	4.839693e-06	5.601909e-09	3.466158e+01	3.693778e+02
1.420000e-06	4.882783e-06	5.638486e-09	3.497018e+01	3.718333e+02
1.430000e-06	4.923980e-06	5.671960e-09	3.526523e+01	3.741384e+02
1.440000e-06	4.963380e-06	5.702923e-09	3.554741e+01	3.763032e+02
1.450000e-06	5.001132e-06	5.731103e-09	3.581779e+01	3.783375e+02
1.460000e-06	5.037329e-06	5.757836e-09	3.607703e+01	3.802494e+02
1.470000e-06	5.071785e-06	5.784677e-09	3.632380e+01	3.820452e+02
1.480000e-06	5.104249e-06	5.808897e-09	3.655631e+01	3.837292e+02
1.490000e-06	5.134940e-06	5.829504e-09	3.677611e+01	3.853034e+02
1.500000e-06	5.164020e-06	5.849401e-09	3.698438e+01	3.867686e+02
1.510000e-06	5.191350e-06	5.868551e-09	3.718012e+01	3.881243e+02
1.520000e-06	5.216615e-06	5.886786e-09	3.736106e+01	3.893698e+02
1.530000e-06	5.239881e-06	5.904450e-09	3.752770e+01	3.905048e+02
1.540000e-06	5.261382e-06	5.920494e-09	3.768168e+01	3.915298e+02
1.550000e-06	5.281186e-06	5.934547e-09	3.782352e+01	3.924465e+02
1.560000e-06	5.299080e-06	5.946908e-09	3.795167e+01	3.932578e+02
1.570000e-06	5.314917e-06	5.957536e-09	3.806510e+01	3.939679e+02
1.580000e-06	5.328834e-06	5.967248e-09	3.816477e+01	3.945810e+02
1.590000e-06	5.340688e-06	5.976690e-09	3.824967e+01	3.951020e+02
1.600000e-06	5.350319e-06	5.983555e-09	3.831864e+01	3.955346e+02
1.610000e-06	5.357932e-06	5.988656e-09	3.837317e+01	3.958819e+02
1.620000e-06	5.363754e-06	5.994123e-09	3.841486e+01	3.961453e+02
1.630000e-06	5.367833e-06	5.997983e-09	3.844408e+01	3.963248e+02
1.640000e-06	5.369962e-06	5.999657e-09	3.845932e+01	3.964192e+02
1.650000e-06	5.370056e-06	6.000973e-09	3.846000e+01	3.964263e+02
1.660000e-06	5.368408e-06	6.001321e-09	3.844819e+01	3.963438e+02
1.670000e-06	5.365124e-06	5.998487e-09	3.842468e+01	3.961699e+02
1.680000e-06	5.360085e-06	5.993270e-09	3.838859e+01	3.959039e+02
1.690000e-06	5.353142e-06	5.989491e-09	3.833886e+01	3.955469e+02
1.700000e-06	5.344478e-06	5.985892e-09	3.827681e+01	3.951023e+02
1.710000e-06	5.334284e-06	5.980523e-09	3.820380e+01	3.945753e+02
1.720000e-06	5.322345e-06	5.976285e-09	3.811829e+01	3.939731e+02
1.730000e-06	5.308419e-06	5.957337e-09	3.801855e+01	3.933040e+02
1.740000e-06	5.292434e-06	5.929531e-09	3.790408e+01	3.925767e+02
1.750000e-06	5.274066e-06	5.910139e-09	3.777252e+01	3.917990e+02
1.760000e-06	5.252980e-06	5.904351e-09	3.762151e+01	3.909774e+02
1.770000e-06	5.229678e-06	5.922057e-09	3.745462e+01	3.901159e+02
1.780000e-06	5.205203e-06	5.910873e-09	3.727933e+01	3.892154e+02
1.790000e-06	5.180097e-06	5.869217e-09	3.709953e+01	3.882739e+02
1.800000e-06	5.153472e-06	5.853616e-09	3.690884e+01	3.872860e+02
1.810000e-06	5.124557e-06	5.835431e-09	3.670175e+01	3.862442e+02
1.820000e-06	5.093903e-06	5.820949e-09	3.648221e+01	3.851389e+02
1.830000e-06	5.061578e-06	5.834077e-09	3.625070e+01	3.839601e+02
1.840000e-06	5.027323e-06	5.855427e-09	3.600537e+01	3.826981e+02
1.850000e-06	4.991480e-06	5.866132e-09	3.574866e+01	3.813443e+02
1.860000e-06	4.953843e-06	5.842840e-09	3.547910e+01	3.798926e+02
1.870000e-06	4.914316e-06	5.783861e-09	3.519602e+01	3.783393e+02
1.880000e-06	4.873180e-06	5.737049e-09	3.490141e+01	3.766836e+02
1.890000e-06	4.830251e-06	5.726383e-09	3.459395e+01	3.749272e+02
1.900000e-06	4.785735e-06	5.714699e-09	3.427513e+01	3.730739e+02
1.910000e-06	4.739430e-06	5.707516e-09	3.394350e+01	3.711291e+02
1.920000e-06	4.691047e-06	5.674611e-09	3.359698e+01	3.690986e+02
1.930000e-06	4.641068e-06	5.599565e-09	3.323903e+01	3.669878e+02
1.940000e-06	4.589338e-06	5.583037e-09	3.286854e+01	3.648014e+02
1.950000e-06	4.535480e-06	5.578035e-09	3.248282e+01	3.625424e+02
1.960000e-06	4.479690e-06	5.513302e-09	3.208325e+01	3.602122e+02
1.970000e-06	4.422286e-06	5.474932e-09	3.167213e+01	3.578103e+02
1.980000e-06	4.363503e-06	5.434641e-09	3.125113e+01	3.553350e+02
1.990000e-06	4.303263e-06	5.398057e-09	3.081970e+01	3.527833e+02
2.000000e-06	4.241248e-06	5.383732e-09	3.037555e+01	3.501520e+02
2.010000e-06	4.177521e-06	5.334225e-09	2.991914e+01	3.474377e+02
2.020000e-06	4.112375e-06	5.285218e-09	2.945257e+01	3.446376e+02
2.030000e-06	4.045864e-06	5.231008e-09	2.897622e+01	3.417500e+02
2.040000e-06	3.977990e-06	5.188184e-09	2.849011e+01	3.387739e+02
2.050000e-06	3.908688e-06	5.157447e-09	2.799377e+01	3.357093e+02
2.060000e-06	3.837829e-06	5.112317e-09	2.748629e+01	3.325570e+02
2.070000e-06	3.765593e-06	5.067206e-09	2.696893e+01	3.293181e+02
2.080000e-06	3.692093e-06	4.989869e-09	2.644253e+01	3.259935e+02
2.090000e-06	3.617240e-06	4.921411e-09	2.590644e+01	3.225840e+02
2.100000e-06	3.540993e-06	4.876742e-09	2.536037e+01	3.190895e+02
2.110000e-06	3.463108e-06	4.843901e-09	2.480256e+01	3.155089e+02
2.120000e-06	3.383753e-06	4.801754e-09	2.423422e+01	3.118405e+02
2.130000e-06	3.303346e-06	4.728487e-09	2.365836e+01	3.080819e+02
2.140000e-06	3.221852e-06	4.666070e-09	2.307470e+01	3.042301e+02
2.150000e-06	3.139276e-06	4.599561e-09	2.248329e+01	3.002821e+02
2.160000e-06	3.055709e-06	4.540529e-09	2.188479e+01	2.962349e+02
2.170000e-06	2.971073e-06	4.489202e-09	2.127863e+01	2.920863e+02
2.180000e-06	2.885117e-06	4.423368e-09	2.066302e+01	2.878344e+02
2.190000e-06	2.797836e-06	4.344375e-09	2.003792e+01	2.834781e+02
2.200000e-06	2.709589e-06	4.269986e-09	1.940590e+01	2.790170e+02
2.210000e-06	2.620479e-06	4.218347e-09	1.876770e+01	2.744508e+02
2.220000e-06	2.530429e-06	4.156955e-09	1.812277e+01	2.697796e+02
2.230000e-06	2.439532e-06	4.076446e-09	1.747177e+01	2.650029e+02
2.240000e-06	2.347928e-06	3.995926e-09	1.681571e+01	2.601201e+02
2.250000e-06	2.255646e-06	3.920758e-09	1.615479e+01	2.551296e+02
2.260000e-06	2.162610e-06	3.842378e-09	1.548847e+01	2.500295e+02
2.270000e-06	2.068560e-06	3.765925e-09	1.481490e+01	2.448169e+02
2.280000e-06	1.973377e-06	3.689676e-09	1.413320e+01	2.394889e+02
2.290000e-06	1.877435e-06	3.599703e-09	1.344607e+01	2.340421e+02
2.300000e-06	1.781049e-06	3.502231e-09	1.275576e+01	2.284735e+02
2.310000e-06	1.684184e-06	3.414568e-09	1.206202e+01	2.227803e+02
2.320000e-06	1.586704e-06	3.342025e-09	1.136387e+01	2.169606e+02
2.330000e-06	1.488682e-06	3.261693e-09	1.066184e+01	2.110129e+02
2.340000e-06	1.390233e-06	3.163413e-09	9.956760e+00	2.049362e+02
2.350000e-06	1.291306e-06	3.058678e-09	9.248248e+00	1.987302e+02
2.360000e-06	1.191983e-06	2.958030e-09	8.536905e+00	1.923942e+02
2.370000e-06	1.092443e-06	2.862417e-09	7.824004e+00	1.859273e+02
2.380000e-06	9.926669e-07	2.768385e-09	7.109417e+00	1.793276e+02
2.390000e-06	8.925577e-07	2.669666e-09	6.392441e+00	1.725923e+02
2.400000e-06	7.920959e-07	2.560911e-09	5.672940e+00	1.657170e+02
2.410000e-06	6.913491e-07	2.448429e-09	4.951398e+00	1.586963e+02
2.420000e-06	5.904443e-07	2.337897e-09	4.228725e+00	1.515232e+02
2.430000e-06	4.893382e-07	2.231721e-09	3.504609e+00	1.441899e+02
2.440000e-06	3.880670e-07	2.120801e-09	2.779311e+00	1.366882e+02
2.450000e-06	2.866193e-07	1.998012e-09	2.052749e+00	1.290096e+02
2.460000e-06	1.849245e-07	1.869700e-09	1.324418e+00	1.211460e+02
2.470000e-06	8.308758e-08	1.745190e-09	5.950679e-01	1.130895e+02
2.480000e-06	-1.884027e-08	1.623074e-09	-1.349328e-01	1.048335e+02
2.490000e-06	-1.207797e-07	1.496883e-09	-8.650164e-01	9.637180e+01
2.500000e-06	-2.226319e-07	1.363224e-09	-1.594475e+00	8.769875e+01
2.510000e-06	-3.243466e-07	1.224831e-09	-2.322949e+00	7.880919e+01
2.520000e-06	-4.259238e-07	1.087743e-09	-3.050439e+00	6.969794e+01
2.530000e-06	-5.273792e-07	9.492673e-10	-3.777056e+00	6.035973e+01
2.540000e-06	-6.285840e-07	8.078262e-10	-4.501879e+00	5.078905e+01
2.550000e-06	-7.294828e-07	6.592541e-10	-5.224509e+00	4.098040e+01
2.560000e-06	-8.301605e-07	5.006805e-10	-5.945557e+00	3.092872e+01
2.570000e-06	-9.305346e-07	3.387239e-10	-6.664429e+00	2.063015e+01
2.580000e-06	-1.030542e-06	1.780839e-10	-7.380678e+00	1.008304e+01
2.590000e-06	-1.130233e-06	1.816338e-11	-8.094654e+00	-7.108779e-01
2.600000e-06	-1.229552e-06	-1.459931e-10	-8.805973e+00	-1.174524e+01
2.610000e-06	-1.328387e-06	-3.176750e-10	-9.513823e+00	-2.300794e+01
2.620000e-06	-1.426769e-06	-4.921537e-10	-1.021843e+01	-3.448027e+01
2.630000e-06	-1.524734e-06	-6.685447e-10	-1.092005e+01	-4.613637e+01
2.640000e-06	-1.622148e-06	-8.473212e-10	-1.161772e+01	-5.794322e+01
2.650000e-06	-1.718910e-06	-1.029651e-09	-1.231072e+01	-6.986121e+01
2.660000e-06	-1.815151e-06	-1.216490e-09	-1.299999e+01	-8.184508e+01
2.670000e-06	-1.911001e-06	-1.405731e-09	-1.368647e+01	-9.384553e+01
2.680000e-06	-2.006238e-06	-1.593696e-09	-1.436855e+01	-1.058110e+02
2.690000e-06	-2.100549e-06	-1.774985e-09	-1.504400e+01	-1.176895e+02
2.700000e-06	-2.193828e-06	-1.951871e-09	-1.571205e+01	-1.294311e+02
2.710000e-06	-2.286195e-06	-2.126766e-09	-1.637358e+01	-1.409891e+02
2.720000e-06	-2.377719e-06	-2.300126e-09	-1.702907e+01	-1.523221e+02
2.730000e-06	-2.468373e-06	-2.468715e-09	-1.767833e+01	-1.633944e+02
2.740000e-06	-2.558139e-06	-2.629607e-09	-1.832123e+01	-1.741770e+02
2.750000e-06	-2.647046e-06	-2.785806e-09	-1.895797e+01	-1.846476e+02
2.760000e-06	-2.735225e-06	-2.940224e-09	-1.958951e+01	-1.947897e+02
2.770000e-06	-2.822659e-06	-3.094437e-09	-2.021570e+01	-2.045923e+02
2.780000e-06	-2.909002e-06	-3.245379e-09	-2.083408e+01	-2.140488e+02
2.790000e-06	-2.994041e-06	-3.385617e-09	-2.144313e+01	-2.231562e+02
2.800000e-06	-3.077974e-06	-3.515852e-09	-2.204425e+01	-2.319141e+02
2.810000e-06	-3.160897e-06	-3.642480e-09	-2.263814e+01	-2.403238e+02
2.820000e-06	-3.242750e-06	-3.767272e-09	-2.322437e+01	-2.483887e+02
2.830000e-06	-3.323541e-06	-3.888925e-09	-2.380299e+01	-2.561133e+02
2.840000e-06	-3.403357e-06	-4.003909e-09	-2.437463e+01	-2.635039e+02
2.850000e-06	-3.481932e-06	-4.112985e-09	-2.493737e+01	-2.705688e+02
2.860000e-06	-3.558909e-06	-4.217535e-09	-2.548868e+01	-2.773180e+02
2.870000e-06	-3.634409e-06	-4.316947e-09	-2.602940e+01	-2.837644e+02
2.880000e-06	-3.708547e-06	-4.412125e-09	-2.656037e+01	-2.899226e+02
2.890000e-06	-3.781366e-06	-4.502896e-09	-2.708190e+01	-2.958096e+02
2.900000e-06	-3.852946e-06	-4.587486e-09	-2.759456e+01	-3.014438e+02
2.910000e-06	-3.922995e-06	-4.667079e-09	-2.809624e+01	-3.068439e+02
2.920000e-06	-3.991435e-06	-4.745281e-09	-2.858640e+01	-3.120287e+02
2.930000e-06	-4.058531e-06	-4.823132e-09	-2.906694e+01	-3.170151e+02
2.940000e-06	-4.124185e-06	-4.898182e-09	-2.953715e+01	-3.218179e+02
