# Temperatura_=_65.45
# Concentracion g/m^3_=_15000.0
# C_Vs_to_Am_M_A/Vsm_=_65563218390.804596
# pendiente_HvsI_1/m_=_3716.3
# ordenada_HvsI_A/m_=_1297.0
# frecuencia_Hz_=_301591.0314064801

Tiempo_(s)	Campo_(V.s)	Magnetizacion_(V.s)	Campo_(kA/m)	Magnetizacion_(A/m)
0.000000e+00	-5.384838e-06	-6.882189e-09	-3.833101e+01	-4.499971e+02
1.000000e-08	-5.382032e-06	-6.876710e-09	-3.831103e+01	-4.498357e+02
2.000000e-08	-5.377393e-06	-6.870149e-09	-3.827801e+01	-4.495699e+02
3.000000e-08	-5.371171e-06	-6.863529e-09	-3.823372e+01	-4.491966e+02
4.000000e-08	-5.363388e-06	-6.855958e-09	-3.817832e+01	-4.487145e+02
5.000000e-08	-5.353861e-06	-6.847049e-09	-3.811050e+01	-4.481254e+02
6.000000e-08	-5.342273e-06	-6.836841e-09	-3.802802e+01	-4.474340e+02
7.000000e-08	-5.328710e-06	-6.825993e-09	-3.793147e+01	-4.466474e+02
8.000000e-08	-5.313035e-06	-6.815251e-09	-3.781989e+01	-4.457747e+02
9.000000e-08	-5.295023e-06	-6.834873e-09	-3.769168e+01	-4.448258e+02
1.000000e-07	-5.274963e-06	-6.827374e-09	-3.754888e+01	-4.438099e+02
1.100000e-07	-5.253078e-06	-6.777084e-09	-3.739310e+01	-4.427352e+02
1.200000e-07	-5.229502e-06	-6.747695e-09	-3.722528e+01	-4.416066e+02
1.300000e-07	-5.204463e-06	-6.689126e-09	-3.704704e+01	-4.404261e+02
1.400000e-07	-5.177835e-06	-6.664711e-09	-3.685750e+01	-4.391917e+02
1.500000e-07	-5.149516e-06	-6.740581e-09	-3.665591e+01	-4.378980e+02
1.600000e-07	-5.119679e-06	-6.666731e-09	-3.644352e+01	-4.365367e+02
1.700000e-07	-5.088216e-06	-6.631001e-09	-3.621956e+01	-4.350970e+02
1.800000e-07	-5.054641e-06	-6.681722e-09	-3.598056e+01	-4.335677e+02
1.900000e-07	-5.019172e-06	-6.580455e-09	-3.572808e+01	-4.319376e+02
2.000000e-07	-4.982291e-06	-6.563172e-09	-3.546555e+01	-4.301970e+02
2.100000e-07	-4.943696e-06	-6.546839e-09	-3.519082e+01	-4.283385e+02
2.200000e-07	-4.903362e-06	-6.437251e-09	-3.490371e+01	-4.263578e+02
2.300000e-07	-4.861119e-06	-6.435482e-09	-3.460301e+01	-4.242537e+02
2.400000e-07	-4.816905e-06	-6.449641e-09	-3.428828e+01	-4.220279e+02
2.500000e-07	-4.770944e-06	-6.428931e-09	-3.396111e+01	-4.196846e+02
2.600000e-07	-4.723081e-06	-6.403667e-09	-3.362041e+01	-4.172297e+02
2.700000e-07	-4.673149e-06	-6.302661e-09	-3.326498e+01	-4.146697e+02
2.800000e-07	-4.621087e-06	-6.266722e-09	-3.289439e+01	-4.120112e+02
2.900000e-07	-4.567123e-06	-6.262462e-09	-3.251025e+01	-4.092597e+02
3.000000e-07	-4.511577e-06	-6.218915e-09	-3.211485e+01	-4.064194e+02
3.100000e-07	-4.454465e-06	-6.169742e-09	-3.170831e+01	-4.034925e+02
3.200000e-07	-4.395547e-06	-6.105693e-09	-3.128891e+01	-4.004798e+02
3.300000e-07	-4.334925e-06	-6.047982e-09	-3.085739e+01	-3.973801e+02
3.400000e-07	-4.272855e-06	-5.994864e-09	-3.041555e+01	-3.941914e+02
3.500000e-07	-4.209446e-06	-5.976648e-09	-2.996419e+01	-3.909107e+02
3.600000e-07	-4.144662e-06	-5.934431e-09	-2.950304e+01	-3.875352e+02
3.700000e-07	-4.078190e-06	-5.848097e-09	-2.902986e+01	-3.840620e+02
3.800000e-07	-4.010060e-06	-5.792014e-09	-2.854490e+01	-3.804888e+02
3.900000e-07	-3.940566e-06	-5.748605e-09	-2.805022e+01	-3.768141e+02
4.000000e-07	-3.869855e-06	-5.698113e-09	-2.754687e+01	-3.730369e+02
4.100000e-07	-3.797924e-06	-5.630752e-09	-2.703484e+01	-3.691569e+02
4.200000e-07	-3.724586e-06	-5.553704e-09	-2.651280e+01	-3.651736e+02
4.300000e-07	-3.649711e-06	-5.491664e-09	-2.597981e+01	-3.610871e+02
4.400000e-07	-3.573277e-06	-5.439036e-09	-2.543573e+01	-3.568969e+02
4.500000e-07	-3.495388e-06	-5.394267e-09	-2.488130e+01	-3.526022e+02
4.600000e-07	-3.416077e-06	-5.337121e-09	-2.431674e+01	-3.482022e+02
4.700000e-07	-3.335413e-06	-5.249925e-09	-2.374254e+01	-3.436953e+02
4.800000e-07	-3.253541e-06	-5.155045e-09	-2.315975e+01	-3.390803e+02
4.900000e-07	-3.170519e-06	-5.079980e-09	-2.256877e+01	-3.343557e+02
5.000000e-07	-3.086472e-06	-5.023232e-09	-2.197050e+01	-3.295203e+02
5.100000e-07	-3.001575e-06	-4.954769e-09	-2.136618e+01	-3.245733e+02
5.200000e-07	-2.915783e-06	-4.872034e-09	-2.075548e+01	-3.195141e+02
5.300000e-07	-2.828940e-06	-4.780141e-09	-2.013730e+01	-3.143426e+02
5.400000e-07	-2.741167e-06	-4.693632e-09	-1.951251e+01	-3.090586e+02
5.500000e-07	-2.652528e-06	-4.621792e-09	-1.888154e+01	-3.036617e+02
5.600000e-07	-2.562794e-06	-4.545184e-09	-1.824279e+01	-2.981513e+02
5.700000e-07	-2.471856e-06	-4.454307e-09	-1.759546e+01	-2.925262e+02
5.800000e-07	-2.379942e-06	-4.351832e-09	-1.694119e+01	-2.867844e+02
5.900000e-07	-2.287273e-06	-4.258514e-09	-1.628154e+01	-2.809234e+02
6.000000e-07	-2.193811e-06	-4.174575e-09	-1.561625e+01	-2.749401e+02
6.100000e-07	-2.099572e-06	-4.086308e-09	-1.494543e+01	-2.688312e+02
6.200000e-07	-2.004618e-06	-3.989183e-09	-1.426952e+01	-2.625936e+02
6.300000e-07	-1.909030e-06	-3.884478e-09	-1.358909e+01	-2.562247e+02
6.400000e-07	-1.812813e-06	-3.782692e-09	-1.290418e+01	-2.497225e+02
6.500000e-07	-1.715818e-06	-3.689527e-09	-1.221375e+01	-2.430862e+02
6.600000e-07	-1.617999e-06	-3.596717e-09	-1.151743e+01	-2.363159e+02
6.700000e-07	-1.519493e-06	-3.487699e-09	-1.081624e+01	-2.294123e+02
6.800000e-07	-1.420410e-06	-3.366212e-09	-1.011094e+01	-2.223765e+02
6.900000e-07	-1.320790e-06	-3.247176e-09	-9.401808e+00	-2.152095e+02
7.000000e-07	-1.220786e-06	-3.140321e-09	-8.689947e+00	-2.079111e+02
7.100000e-07	-1.120482e-06	-3.036399e-09	-7.975948e+00	-2.004798e+02
7.200000e-07	-1.019834e-06	-2.923494e-09	-7.259503e+00	-1.929119e+02
7.300000e-07	-9.188679e-07	-2.802619e-09	-6.540797e+00	-1.852017e+02
7.400000e-07	-8.176701e-07	-2.676328e-09	-5.820439e+00	-1.773409e+02
7.500000e-07	-7.162328e-07	-2.552334e-09	-5.098376e+00	-1.693197e+02
7.600000e-07	-6.145279e-07	-2.431939e-09	-4.374407e+00	-1.611264e+02
7.700000e-07	-5.125752e-07	-2.307683e-09	-3.648675e+00	-1.527494e+02
7.800000e-07	-4.104252e-07	-2.173027e-09	-2.921538e+00	-1.441769e+02
7.900000e-07	-3.081059e-07	-2.032400e-09	-2.193197e+00	-1.353989e+02
8.000000e-07	-2.056460e-07	-1.892674e-09	-1.463854e+00	-1.264070e+02
8.100000e-07	-1.030914e-07	-1.755299e-09	-7.338377e-01	-1.171953e+02
8.200000e-07	-5.048595e-10	-1.613191e-09	-3.593752e-03	-1.077604e+02
8.300000e-07	1.021346e-07	-1.461906e-09	7.270270e-01	-9.810091e+01
8.400000e-07	2.047628e-07	-1.305984e-09	1.457567e+00	-8.821677e+01
8.500000e-07	3.073067e-07	-1.150036e-09	2.187508e+00	-7.810849e+01
8.600000e-07	4.097319e-07	-9.958258e-10	2.916603e+00	-6.777601e+01
8.700000e-07	5.120475e-07	-8.370962e-10	3.644919e+00	-5.721784e+01
8.800000e-07	6.142504e-07	-6.691757e-10	4.372432e+00	-4.643044e+01
8.900000e-07	7.162220e-07	-4.946600e-10	5.098298e+00	-3.540810e+01
9.000000e-07	8.179081e-07	-3.180314e-10	5.822133e+00	-2.414332e+01
9.100000e-07	9.192614e-07	-1.415769e-10	6.543598e+00	-1.262789e+01
9.200000e-07	1.020305e-06	3.467409e-11	7.262861e+00	-8.543789e-01
9.300000e-07	1.121037e-06	2.147840e-10	7.979898e+00	1.118181e+01
9.400000e-07	1.221449e-06	4.018119e-10	8.694668e+00	2.348031e+01
9.500000e-07	1.321521e-06	5.930441e-10	9.407009e+00	3.603364e+01
9.600000e-07	1.421156e-06	7.854608e-10	1.011624e+01	4.882544e+01
9.700000e-07	1.520204e-06	9.794922e-10	1.082130e+01	6.182925e+01
9.800000e-07	1.618488e-06	1.176771e-09	1.152092e+01	7.500815e+01
9.900000e-07	1.715936e-06	1.377466e-09	1.221458e+01	8.831524e+01
1.000000e-06	1.812630e-06	1.578983e-09	1.290288e+01	1.016951e+02
1.010000e-06	1.908615e-06	1.782244e-09	1.358614e+01	1.150859e+02
1.020000e-06	2.003904e-06	1.984345e-09	1.426444e+01	1.284227e+02
1.030000e-06	2.098514e-06	2.182118e-09	1.493790e+01	1.416401e+02
1.040000e-06	2.192473e-06	2.378024e-09	1.560673e+01	1.546758e+02
1.050000e-06	2.285741e-06	2.570340e-09	1.627064e+01	1.674738e+02
1.060000e-06	2.378263e-06	2.758268e-09	1.692924e+01	1.799863e+02
1.070000e-06	2.470072e-06	2.940248e-09	1.758277e+01	1.921753e+02
1.080000e-06	2.561016e-06	3.118044e-09	1.823013e+01	2.040136e+02
1.090000e-06	2.650768e-06	3.293397e-09	1.886902e+01	2.154841e+02
1.100000e-06	2.739330e-06	3.465419e-09	1.949943e+01	2.265787e+02
1.110000e-06	2.826986e-06	3.631023e-09	2.012339e+01	2.372967e+02
1.120000e-06	2.913781e-06	3.789936e-09	2.074123e+01	2.476422e+02
1.130000e-06	2.999583e-06	3.943431e-09	2.135200e+01	2.576224e+02
1.140000e-06	3.084447e-06	4.090935e-09	2.195609e+01	2.672451e+02
1.150000e-06	3.168493e-06	4.231967e-09	2.255435e+01	2.765176e+02
1.160000e-06	3.251470e-06	4.367075e-09	2.314501e+01	2.854453e+02
1.170000e-06	3.333103e-06	4.497097e-09	2.372610e+01	2.940319e+02
1.180000e-06	3.413503e-06	4.622736e-09	2.429841e+01	3.022795e+02
1.190000e-06	3.492769e-06	4.742714e-09	2.486265e+01	3.101898e+02
1.200000e-06	3.570833e-06	4.856640e-09	2.541834e+01	3.177651e+02
1.210000e-06	3.647679e-06	4.967372e-09	2.596535e+01	3.250094e+02
1.220000e-06	3.723142e-06	5.072353e-09	2.650252e+01	3.319301e+02
1.230000e-06	3.796914e-06	5.170912e-09	2.702766e+01	3.385381e+02
1.240000e-06	3.869102e-06	5.264663e-09	2.754151e+01	3.448483e+02
1.250000e-06	3.939930e-06	5.355868e-09	2.804569e+01	3.508791e+02
1.260000e-06	4.009397e-06	5.444652e-09	2.854018e+01	3.566513e+02
1.270000e-06	4.077559e-06	5.529743e-09	2.902538e+01	3.621872e+02
1.280000e-06	4.144281e-06	5.611110e-09	2.950033e+01	3.675081e+02
1.290000e-06	4.209333e-06	5.690665e-09	2.996339e+01	3.726336e+02
1.300000e-06	4.272797e-06	5.767586e-09	3.041514e+01	3.775796e+02
1.310000e-06	4.334853e-06	5.840786e-09	3.085688e+01	3.823574e+02
1.320000e-06	4.395556e-06	5.911442e-09	3.128898e+01	3.869732e+02
1.330000e-06	4.454850e-06	5.979878e-09	3.171106e+01	3.914284e+02
1.340000e-06	4.512368e-06	6.044567e-09	3.212049e+01	3.957203e+02
1.350000e-06	4.568072e-06	6.105953e-09	3.251700e+01	3.998429e+02
1.360000e-06	4.622215e-06	6.165113e-09	3.290241e+01	4.037890e+02
1.370000e-06	4.674642e-06	6.220268e-09	3.327560e+01	4.075514e+02
1.380000e-06	4.725028e-06	6.273252e-09	3.363427e+01	4.111244e+02
1.390000e-06	4.773425e-06	6.324974e-09	3.397878e+01	4.145048e+02
1.400000e-06	4.820097e-06	6.373001e-09	3.431100e+01	4.176930e+02
1.410000e-06	4.865181e-06	6.417073e-09	3.463192e+01	4.206927e+02
1.420000e-06	4.908714e-06	6.458522e-09	3.494180e+01	4.235105e+02
1.430000e-06	4.950328e-06	6.498146e-09	3.523802e+01	4.261556e+02
1.440000e-06	4.990024e-06	6.536577e-09	3.552060e+01	4.286382e+02
1.450000e-06	5.028130e-06	6.571988e-09	3.579185e+01	4.309686e+02
1.460000e-06	5.064678e-06	6.604118e-09	3.605200e+01	4.331561e+02
1.470000e-06	5.099472e-06	6.634545e-09	3.629968e+01	4.352078e+02
1.480000e-06	5.132310e-06	6.663233e-09	3.653343e+01	4.371288e+02
1.490000e-06	5.163354e-06	6.688954e-09	3.675441e+01	4.389216e+02
1.500000e-06	5.192753e-06	6.712101e-09	3.696368e+01	4.405864e+02
1.510000e-06	5.220487e-06	6.733772e-09	3.716111e+01	4.421224e+02
1.520000e-06	5.246155e-06	6.753994e-09	3.734382e+01	4.435281e+02
1.530000e-06	5.269741e-06	6.773604e-09	3.751171e+01	4.448025e+02
1.540000e-06	5.291531e-06	6.790876e-09	3.766682e+01	4.459458e+02
1.550000e-06	5.311603e-06	6.806155e-09	3.780970e+01	4.469600e+02
1.560000e-06	5.329845e-06	6.819054e-09	3.793955e+01	4.478492e+02
1.570000e-06	5.346002e-06	6.830144e-09	3.805456e+01	4.486191e+02
1.580000e-06	5.360151e-06	6.841309e-09	3.815528e+01	4.492770e+02
1.590000e-06	5.372333e-06	6.852519e-09	3.824199e+01	4.498305e+02
1.600000e-06	5.382327e-06	6.862844e-09	3.831313e+01	4.502866e+02
1.610000e-06	5.390164e-06	6.870372e-09	3.836892e+01	4.506513e+02
1.620000e-06	5.396159e-06	6.875286e-09	3.841160e+01	4.509284e+02
1.630000e-06	5.400430e-06	6.878796e-09	3.844200e+01	4.511192e+02
1.640000e-06	5.402706e-06	6.880626e-09	3.845819e+01	4.512224e+02
1.650000e-06	5.402959e-06	6.883060e-09	3.846000e+01	4.512349e+02
1.660000e-06	5.401484e-06	6.883966e-09	3.844950e+01	4.511519e+02
1.670000e-06	5.398351e-06	6.879801e-09	3.842720e+01	4.509683e+02
1.680000e-06	5.393474e-06	6.874932e-09	3.839248e+01	4.506795e+02
1.690000e-06	5.386646e-06	6.870179e-09	3.834388e+01	4.502826e+02
1.700000e-06	5.378078e-06	6.865731e-09	3.828288e+01	4.497772e+02
1.710000e-06	5.367949e-06	6.860659e-09	3.821079e+01	4.491655e+02
1.720000e-06	5.355996e-06	6.851612e-09	3.812570e+01	4.484528e+02
1.730000e-06	5.342018e-06	6.849393e-09	3.802620e+01	4.476467e+02
1.740000e-06	5.326102e-06	6.798020e-09	3.791291e+01	4.467566e+02
1.750000e-06	5.307945e-06	6.768118e-09	3.778366e+01	4.457924e+02
1.760000e-06	5.287034e-06	6.785418e-09	3.763480e+01	4.447631e+02
1.770000e-06	5.263814e-06	6.771320e-09	3.746952e+01	4.436763e+02
1.780000e-06	5.239291e-06	6.820194e-09	3.729495e+01	4.425363e+02
1.790000e-06	5.214070e-06	6.777363e-09	3.711543e+01	4.413443e+02
1.800000e-06	5.187462e-06	6.641453e-09	3.692602e+01	4.400976e+02
1.810000e-06	5.158403e-06	6.705244e-09	3.671917e+01	4.387900e+02
1.820000e-06	5.127491e-06	6.662267e-09	3.649913e+01	4.374126e+02
1.830000e-06	5.095128e-06	6.574551e-09	3.626876e+01	4.359545e+02
1.840000e-06	5.060875e-06	6.662709e-09	3.602493e+01	4.344043e+02
1.850000e-06	5.025047e-06	6.583772e-09	3.576990e+01	4.327511e+02
1.860000e-06	4.987406e-06	6.550284e-09	3.550196e+01	4.309855e+02
1.870000e-06	4.947861e-06	6.609577e-09	3.522046e+01	4.291009e+02
1.880000e-06	4.906737e-06	6.490015e-09	3.492773e+01	4.270935e+02
1.890000e-06	4.863726e-06	6.456415e-09	3.462156e+01	4.249629e+02
1.900000e-06	4.819016e-06	6.388239e-09	3.430331e+01	4.227113e+02
1.910000e-06	4.772540e-06	6.326706e-09	3.397247e+01	4.203433e+02
1.920000e-06	4.724031e-06	6.414096e-09	3.362717e+01	4.178651e+02
1.930000e-06	4.673913e-06	6.307029e-09	3.327041e+01	4.152833e+02
1.940000e-06	4.621975e-06	6.270429e-09	3.290070e+01	4.126042e+02
1.950000e-06	4.567954e-06	6.261515e-09	3.251617e+01	4.098332e+02
1.960000e-06	4.512111e-06	6.147808e-09	3.211866e+01	4.069739e+02
1.970000e-06	4.454549e-06	6.135957e-09	3.170891e+01	4.040285e+02
1.980000e-06	4.395555e-06	6.094636e-09	3.128898e+01	4.009970e+02
1.990000e-06	4.335018e-06	6.077313e-09	3.085805e+01	3.978783e+02
2.000000e-06	4.272764e-06	5.999727e-09	3.041491e+01	3.946699e+02
2.010000e-06	4.208984e-06	5.911136e-09	2.996090e+01	3.913689e+02
2.020000e-06	4.143698e-06	5.924812e-09	2.949618e+01	3.879725e+02
2.030000e-06	4.076989e-06	5.837529e-09	2.902132e+01	3.844778e+02
2.040000e-06	4.008745e-06	5.791573e-09	2.853553e+01	3.808828e+02
2.050000e-06	3.938949e-06	5.746534e-09	2.803870e+01	3.771860e+02
2.060000e-06	3.867734e-06	5.677222e-09	2.753177e+01	3.733866e+02
2.070000e-06	3.795151e-06	5.632377e-09	2.701510e+01	3.694842e+02
2.080000e-06	3.721291e-06	5.545380e-09	2.648935e+01	3.654786e+02
2.090000e-06	3.646032e-06	5.508768e-09	2.595363e+01	3.613697e+02
2.100000e-06	3.569265e-06	5.427733e-09	2.540718e+01	3.571570e+02
2.110000e-06	3.490987e-06	5.335400e-09	2.484997e+01	3.528396e+02
2.120000e-06	3.411397e-06	5.283207e-09	2.428342e+01	3.484166e+02
2.130000e-06	3.330703e-06	5.231949e-09	2.370902e+01	3.438865e+02
2.140000e-06	3.248884e-06	5.183794e-09	2.312660e+01	3.392478e+02
2.150000e-06	3.166053e-06	5.101711e-09	2.253699e+01	3.344994e+02
2.160000e-06	3.082193e-06	5.020004e-09	2.194004e+01	3.296399e+02
2.170000e-06	2.997082e-06	4.927112e-09	2.133419e+01	3.246687e+02
2.180000e-06	2.910617e-06	4.853504e-09	2.071871e+01	3.195853e+02
2.190000e-06	2.823029e-06	4.788226e-09	2.009523e+01	3.143894e+02
2.200000e-06	2.734542e-06	4.707350e-09	1.946535e+01	3.090810e+02
2.210000e-06	2.645095e-06	4.624318e-09	1.882863e+01	3.036597e+02
2.220000e-06	2.554761e-06	4.532462e-09	1.818561e+01	2.981247e+02
2.230000e-06	2.463630e-06	4.453679e-09	1.753691e+01	2.924745e+02
2.240000e-06	2.371696e-06	4.370129e-09	1.688249e+01	2.867072e+02
2.250000e-06	2.278855e-06	4.288442e-09	1.622162e+01	2.808201e+02
2.260000e-06	2.185106e-06	4.198069e-09	1.555429e+01	2.748099e+02
2.270000e-06	2.090422e-06	4.093979e-09	1.488030e+01	2.686735e+02
2.280000e-06	1.994803e-06	3.992734e-09	1.419965e+01	2.624077e+02
2.290000e-06	1.898479e-06	3.900130e-09	1.351399e+01	2.560101e+02
2.300000e-06	1.801673e-06	3.805945e-09	1.282489e+01	2.494790e+02
2.310000e-06	1.704375e-06	3.698223e-09	1.213229e+01	2.428138e+02
2.320000e-06	1.606461e-06	3.589587e-09	1.143530e+01	2.360146e+02
2.330000e-06	1.508024e-06	3.488837e-09	1.073460e+01	2.290824e+02
2.340000e-06	1.409168e-06	3.394412e-09	1.003091e+01	2.220182e+02
2.350000e-06	1.309934e-06	3.290559e-09	9.324534e+00	2.148229e+02
2.360000e-06	1.210383e-06	3.177560e-09	8.615893e+00	2.074960e+02
2.370000e-06	1.110511e-06	3.056047e-09	7.904972e+00	2.000356e+02
2.380000e-06	1.010215e-06	2.930638e-09	7.191039e+00	1.924376e+02
2.390000e-06	9.094578e-07	2.813781e-09	6.473813e+00	1.846956e+02
2.400000e-06	8.083154e-07	2.702221e-09	5.753849e+00	1.768012e+02
2.410000e-06	7.068392e-07	2.584331e-09	5.031509e+00	1.687438e+02
2.420000e-06	6.050825e-07	2.452116e-09	4.307172e+00	1.605120e+02
2.430000e-06	5.030781e-07	2.317717e-09	3.581071e+00	1.520938e+02
2.440000e-06	4.008767e-07	2.191740e-09	2.853569e+00	1.434779e+02
2.450000e-06	2.985278e-07	2.067237e-09	2.125017e+00	1.346544e+02
2.460000e-06	1.960255e-07	1.932719e-09	1.395372e+00	1.256156e+02
2.470000e-06	9.337192e-08	1.788682e-09	6.646513e-01	1.163561e+02
2.480000e-06	-9.398922e-09	1.640281e-09	-6.690455e-02	1.068730e+02
2.490000e-06	-1.122004e-07	1.491224e-09	-7.986788e-01	9.716506e+01
2.500000e-06	-2.149675e-07	1.344509e-09	-1.530207e+00	8.723264e+01
2.510000e-06	-3.176371e-07	1.195962e-09	-2.261043e+00	7.707615e+01
2.520000e-06	-4.201453e-07	1.040667e-09	-2.990729e+00	6.669528e+01
2.530000e-06	-5.225344e-07	8.758285e-10	-3.719568e+00	5.608815e+01
2.540000e-06	-6.246772e-07	7.086110e-10	-4.446653e+00	4.525074e+01
2.550000e-06	-7.264746e-07	5.455597e-10	-5.171279e+00	3.417691e+01
2.560000e-06	-8.279683e-07	3.787600e-10	-5.893744e+00	2.285891e+01
2.570000e-06	-9.291099e-07	2.019592e-10	-6.613703e+00	1.128852e+01
2.580000e-06	-1.029801e-06	1.768079e-11	-7.330454e+00	-5.412388e-01
2.590000e-06	-1.130019e-06	-1.707092e-10	-8.043842e+00	-1.263409e+01
2.600000e-06	-1.229795e-06	-3.604106e-10	-8.754073e+00	-2.498832e+01
2.610000e-06	-1.329149e-06	-5.508721e-10	-9.461307e+00	-3.759467e+01
2.620000e-06	-1.428103e-06	-7.450183e-10	-1.016570e+01	-5.043469e+01
2.630000e-06	-1.526586e-06	-9.474270e-10	-1.086673e+01	-6.347970e+01
2.640000e-06	-1.624539e-06	-1.155495e-09	-1.156399e+01	-7.669055e+01
2.650000e-06	-1.721861e-06	-1.362034e-09	-1.225676e+01	-9.001836e+01
2.660000e-06	-1.818564e-06	-1.566703e-09	-1.294512e+01	-1.034061e+02
2.670000e-06	-1.914727e-06	-1.773023e-09	-1.362964e+01	-1.167911e+02
2.680000e-06	-2.010375e-06	-1.982372e-09	-1.431049e+01	-1.301080e+02
2.690000e-06	-2.105397e-06	-2.189874e-09	-1.498690e+01	-1.432917e+02
2.700000e-06	-2.199562e-06	-2.392237e-09	-1.565719e+01	-1.562812e+02
2.710000e-06	-2.292710e-06	-2.587426e-09	-1.632025e+01	-1.690219e+02
2.720000e-06	-2.384834e-06	-2.775683e-09	-1.697602e+01	-1.814681e+02
2.730000e-06	-2.476089e-06	-2.959995e-09	-1.762560e+01	-1.935841e+02
2.740000e-06	-2.566568e-06	-3.139104e-09	-1.826966e+01	-2.053449e+02
2.750000e-06	-2.656130e-06	-3.311526e-09	-1.890719e+01	-2.167355e+02
2.760000e-06	-2.744708e-06	-3.479196e-09	-1.953771e+01	-2.277495e+02
2.770000e-06	-2.832489e-06	-3.642656e-09	-2.016256e+01	-2.383873e+02
2.780000e-06	-2.919455e-06	-3.801392e-09	-2.078162e+01	-2.486542e+02
2.790000e-06	-3.005260e-06	-3.953645e-09	-2.139240e+01	-2.585573e+02
2.800000e-06	-3.089776e-06	-4.098489e-09	-2.199402e+01	-2.681046e+02
2.810000e-06	-3.173208e-06	-4.236586e-09	-2.258791e+01	-2.773030e+02
2.820000e-06	-3.255609e-06	-4.367947e-09	-2.317447e+01	-2.861576e+02
2.830000e-06	-3.336920e-06	-4.495971e-09	-2.375327e+01	-2.946716e+02
2.840000e-06	-3.417198e-06	-4.623655e-09	-2.432472e+01	-3.028471e+02
2.850000e-06	-3.496363e-06	-4.747692e-09	-2.488824e+01	-3.106856e+02
2.860000e-06	-3.574112e-06	-4.864692e-09	-2.544168e+01	-3.181897e+02
2.870000e-06	-3.650307e-06	-4.974681e-09	-2.598406e+01	-3.253641e+02
2.880000e-06	-3.725020e-06	-5.079593e-09	-2.651589e+01	-3.322170e+02
2.890000e-06	-3.798324e-06	-5.179110e-09	-2.703769e+01	-3.387600e+02
2.900000e-06	-3.870325e-06	-5.274145e-09	-2.755022e+01	-3.450088e+02
2.910000e-06	-3.941003e-06	-5.367175e-09	-2.805333e+01	-3.509826e+02
2.920000e-06	-4.010091e-06	-5.455094e-09	-2.854511e+01	-3.567026e+02
2.930000e-06	-4.077617e-06	-5.538868e-09	-2.902579e+01	-3.621908e+02
2.940000e-06	-4.143713e-06	-5.619125e-09	-2.949628e+01	-3.674685e+02
