# Temperatura_=_79.9
# Concentracion g/m^3_=_15000.0
# C_Vs_to_Am_M_A/Vsm_=_65563218390.804596
# pendiente_HvsI_1/m_=_3716.3
# ordenada_HvsI_A/m_=_1297.0
# frecuencia_Hz_=_301581.36730183236

Tiempo_(s)	Campo_(V.s)	Magnetizacion_(V.s)	Campo_(kA/m)	Magnetizacion_(A/m)
0.000000e+00	-5.364193e-06	-7.850610e-09	-3.833896e+01	-5.133224e+02
1.000000e-08	-5.361458e-06	-7.844269e-09	-3.831941e+01	-5.131139e+02
2.000000e-08	-5.356941e-06	-7.837279e-09	-3.828712e+01	-5.127775e+02
3.000000e-08	-5.350766e-06	-7.829504e-09	-3.824299e+01	-5.123121e+02
4.000000e-08	-5.342994e-06	-7.821030e-09	-3.818745e+01	-5.117196e+02
5.000000e-08	-5.333413e-06	-7.810970e-09	-3.811897e+01	-5.110055e+02
6.000000e-08	-5.321847e-06	-7.800397e-09	-3.803630e+01	-5.101786e+02
7.000000e-08	-5.308391e-06	-7.793320e-09	-3.794013e+01	-5.092503e+02
8.000000e-08	-5.292811e-06	-7.776915e-09	-3.782878e+01	-5.082332e+02
9.000000e-08	-5.274976e-06	-7.770126e-09	-3.770131e+01	-5.071401e+02
1.000000e-07	-5.255081e-06	-7.766989e-09	-3.755911e+01	-5.059822e+02
1.100000e-07	-5.233308e-06	-7.728406e-09	-3.740349e+01	-5.047674e+02
1.200000e-07	-5.209891e-06	-7.691321e-09	-3.723613e+01	-5.034999e+02
1.300000e-07	-5.184945e-06	-7.676618e-09	-3.705784e+01	-5.021786e+02
1.400000e-07	-5.158347e-06	-7.620334e-09	-3.686774e+01	-5.007977e+02
1.500000e-07	-5.130114e-06	-7.632472e-09	-3.666595e+01	-4.993467e+02
1.600000e-07	-5.100409e-06	-7.643460e-09	-3.645364e+01	-4.978117e+02
1.700000e-07	-5.069172e-06	-7.587321e-09	-3.623039e+01	-4.961767e+02
1.800000e-07	-5.035909e-06	-7.591575e-09	-3.599265e+01	-4.944253e+02
1.900000e-07	-5.000718e-06	-7.528364e-09	-3.574113e+01	-4.925425e+02
2.000000e-07	-4.964010e-06	-7.432015e-09	-3.547877e+01	-4.905160e+02
2.100000e-07	-4.925582e-06	-7.417244e-09	-3.520412e+01	-4.883376e+02
2.200000e-07	-4.885374e-06	-7.386260e-09	-3.491674e+01	-4.860039e+02
2.300000e-07	-4.843304e-06	-7.371284e-09	-3.461606e+01	-4.835160e+02
2.400000e-07	-4.799270e-06	-7.356107e-09	-3.430134e+01	-4.808794e+02
2.500000e-07	-4.753433e-06	-7.281750e-09	-3.397373e+01	-4.781026e+02
2.600000e-07	-4.705740e-06	-7.250824e-09	-3.363286e+01	-4.751965e+02
2.700000e-07	-4.656003e-06	-7.201863e-09	-3.327738e+01	-4.721722e+02
2.800000e-07	-4.604208e-06	-7.157035e-09	-3.290719e+01	-4.690401e+02
2.900000e-07	-4.550468e-06	-7.124983e-09	-3.252311e+01	-4.658085e+02
3.000000e-07	-4.495107e-06	-7.056063e-09	-3.212743e+01	-4.624828e+02
3.100000e-07	-4.438159e-06	-6.992037e-09	-3.172041e+01	-4.590653e+02
3.200000e-07	-4.379438e-06	-6.931914e-09	-3.130072e+01	-4.555550e+02
3.300000e-07	-4.319094e-06	-6.888572e-09	-3.086943e+01	-4.519484e+02
3.400000e-07	-4.257320e-06	-6.838946e-09	-3.042792e+01	-4.482401e+02
3.500000e-07	-4.194180e-06	-6.772705e-09	-2.997664e+01	-4.444238e+02
3.600000e-07	-4.129545e-06	-6.715996e-09	-2.951468e+01	-4.404933e+02
3.700000e-07	-4.063282e-06	-6.652980e-09	-2.904109e+01	-4.364436e+02
3.800000e-07	-3.995421e-06	-6.591720e-09	-2.855607e+01	-4.322711e+02
3.900000e-07	-3.926143e-06	-6.525659e-09	-2.806092e+01	-4.279742e+02
4.000000e-07	-3.855675e-06	-6.449645e-09	-2.755728e+01	-4.235533e+02
4.100000e-07	-3.784004e-06	-6.381465e-09	-2.704503e+01	-4.190104e+02
4.200000e-07	-3.710959e-06	-6.303527e-09	-2.652296e+01	-4.143482e+02
4.300000e-07	-3.636338e-06	-6.244094e-09	-2.598964e+01	-4.095701e+02
4.400000e-07	-3.560146e-06	-6.188002e-09	-2.544508e+01	-4.046791e+02
4.500000e-07	-3.482535e-06	-6.111396e-09	-2.489037e+01	-3.996771e+02
4.600000e-07	-3.403554e-06	-6.018996e-09	-2.432588e+01	-3.945650e+02
4.700000e-07	-3.323191e-06	-5.922117e-09	-2.375151e+01	-3.893421e+02
4.800000e-07	-3.241598e-06	-5.843148e-09	-2.316835e+01	-3.840062e+02
4.900000e-07	-3.158943e-06	-5.766195e-09	-2.257760e+01	-3.785542e+02
5.000000e-07	-3.075218e-06	-5.684702e-09	-2.197920e+01	-3.729822e+02
5.100000e-07	-2.990581e-06	-5.594527e-09	-2.137428e+01	-3.672864e+02
5.200000e-07	-2.905077e-06	-5.501369e-09	-2.076317e+01	-3.614628e+02
5.300000e-07	-2.818558e-06	-5.407897e-09	-2.014479e+01	-3.555083e+02
5.400000e-07	-2.731098e-06	-5.319151e-09	-1.951970e+01	-3.494207e+02
5.500000e-07	-2.642770e-06	-5.230563e-09	-1.888841e+01	-3.431986e+02
5.600000e-07	-2.553361e-06	-5.129384e-09	-1.824938e+01	-3.368412e+02
5.700000e-07	-2.462797e-06	-5.023622e-09	-1.760211e+01	-3.303484e+02
5.800000e-07	-2.371267e-06	-4.918381e-09	-1.694792e+01	-3.237201e+02
5.900000e-07	-2.278977e-06	-4.816819e-09	-1.628831e+01	-3.169563e+02
6.000000e-07	-2.185960e-06	-4.712438e-09	-1.562350e+01	-3.100564e+02
6.100000e-07	-2.092127e-06	-4.603283e-09	-1.495285e+01	-3.030194e+02
6.200000e-07	-1.997536e-06	-4.493690e-09	-1.427679e+01	-2.958436e+02
6.300000e-07	-1.902299e-06	-4.383721e-09	-1.359611e+01	-2.885270e+02
6.400000e-07	-1.806419e-06	-4.274398e-09	-1.291084e+01	-2.810671e+02
6.500000e-07	-1.709845e-06	-4.164613e-09	-1.222060e+01	-2.734612e+02
6.600000e-07	-1.612508e-06	-4.046172e-09	-1.152492e+01	-2.657068e+02
6.700000e-07	-1.514451e-06	-3.915116e-09	-1.082408e+01	-2.578013e+02
6.800000e-07	-1.415797e-06	-3.782596e-09	-1.011898e+01	-2.497424e+02
6.900000e-07	-1.316600e-06	-3.655938e-09	-9.410001e+00	-2.415276e+02
7.000000e-07	-1.216974e-06	-3.533872e-09	-8.697959e+00	-2.331544e+02
7.100000e-07	-1.116992e-06	-3.406961e-09	-7.983365e+00	-2.246196e+02
7.200000e-07	-1.016659e-06	-3.271450e-09	-7.266264e+00	-2.159193e+02
7.300000e-07	-9.160594e-07	-3.132341e-09	-6.547260e+00	-2.070486e+02
7.400000e-07	-8.152268e-07	-2.994472e-09	-5.826589e+00	-1.980017e+02
7.500000e-07	-7.141430e-07	-2.859128e-09	-5.104123e+00	-1.887714e+02
7.600000e-07	-6.128062e-07	-2.719094e-09	-4.379848e+00	-1.793501e+02
7.700000e-07	-5.112037e-07	-2.568866e-09	-3.653675e+00	-1.697295e+02
7.800000e-07	-4.093422e-07	-2.411515e-09	-2.925651e+00	-1.599013e+02
7.900000e-07	-3.073543e-07	-2.253308e-09	-2.196722e+00	-1.498574e+02
8.000000e-07	-2.053322e-07	-2.095461e-09	-1.467550e+00	-1.395907e+02
8.100000e-07	-1.032053e-07	-1.936973e-09	-7.376291e-01	-1.290950e+02
8.200000e-07	-9.805273e-10	-1.773971e-09	-7.008025e-03	-1.183647e+02
8.300000e-07	1.012673e-07	-1.605186e-09	7.237779e-01	-1.073953e+02
8.400000e-07	2.034695e-07	-1.431000e-09	1.454237e+00	-9.618232e+01
8.500000e-07	3.056180e-07	-1.255824e-09	2.184313e+00	-8.472103e+01
8.600000e-07	4.076675e-07	-1.080248e-09	2.913681e+00	-7.300591e+01
8.700000e-07	5.095337e-07	-8.981092e-10	3.641739e+00	-6.103015e+01
8.800000e-07	6.111874e-07	-7.091719e-10	4.368279e+00	-4.878559e+01
8.900000e-07	7.126408e-07	-5.174494e-10	5.093386e+00	-3.626289e+01
9.000000e-07	8.138705e-07	-3.253315e-10	5.816895e+00	-2.345232e+01
9.100000e-07	9.148915e-07	-1.296605e-10	6.538913e+00	-1.034495e+01
9.200000e-07	1.015670e-06	7.042471e-11	7.259198e+00	3.065690e+00
9.300000e-07	1.116069e-06	2.756516e-10	7.976770e+00	1.678165e+01
9.400000e-07	1.216105e-06	4.873272e-10	8.691747e+00	3.079847e+01
9.500000e-07	1.315755e-06	7.033567e-10	9.403967e+00	4.510325e+01
9.600000e-07	1.414955e-06	9.231637e-10	1.011297e+01	5.967307e+01
9.700000e-07	1.513578e-06	1.147322e-09	1.081784e+01	7.447402e+01
9.800000e-07	1.611471e-06	1.376058e-09	1.151750e+01	8.946104e+01
9.900000e-07	1.708585e-06	1.608635e-09	1.221160e+01	1.045787e+02
1.000000e-06	1.804862e-06	1.841258e-09	1.289971e+01	1.197628e+02
1.010000e-06	1.900427e-06	2.071367e-09	1.358273e+01	1.349429e+02
1.020000e-06	1.995363e-06	2.298357e-09	1.426126e+01	1.500455e+02
1.030000e-06	2.089648e-06	2.523038e-09	1.493513e+01	1.649973e+02
1.040000e-06	2.183249e-06	2.745870e-09	1.560412e+01	1.797290e+02
1.050000e-06	2.276119e-06	2.964690e-09	1.626788e+01	1.941781e+02
1.060000e-06	2.368288e-06	3.178471e-09	1.692663e+01	2.082918e+02
1.070000e-06	2.459709e-06	3.384969e-09	1.758003e+01	2.220287e+02
1.080000e-06	2.550215e-06	3.584424e-09	1.822690e+01	2.353592e+02
1.090000e-06	2.639629e-06	3.779172e-09	1.886596e+01	2.482656e+02
1.100000e-06	2.727911e-06	3.969245e-09	1.949692e+01	2.607407e+02
1.110000e-06	2.815224e-06	4.151075e-09	2.012097e+01	2.727858e+02
1.120000e-06	2.901613e-06	4.324604e-09	2.073840e+01	2.844084e+02
1.130000e-06	2.987096e-06	4.493487e-09	2.134937e+01	2.956196e+02
1.140000e-06	3.071721e-06	4.659666e-09	2.195420e+01	3.064314e+02
1.150000e-06	3.155428e-06	4.821371e-09	2.255248e+01	3.168554e+02
1.160000e-06	3.238054e-06	4.975937e-09	2.314302e+01	3.269006e+02
1.170000e-06	3.319394e-06	5.122666e-09	2.372437e+01	3.365734e+02
1.180000e-06	3.399496e-06	5.262209e-09	2.429688e+01	3.458776e+02
1.190000e-06	3.478424e-06	5.395900e-09	2.486099e+01	3.548152e+02
1.200000e-06	3.556166e-06	5.525187e-09	2.541663e+01	3.633874e+02
1.210000e-06	3.632691e-06	5.652109e-09	2.596357e+01	3.715964e+02
1.220000e-06	3.707858e-06	5.771710e-09	2.650080e+01	3.794466e+02
1.230000e-06	3.781399e-06	5.882068e-09	2.702641e+01	3.869458e+02
1.240000e-06	3.853335e-06	5.986395e-09	2.754055e+01	3.941056e+02
1.250000e-06	3.923928e-06	6.088832e-09	2.804510e+01	4.009418e+02
1.260000e-06	3.993174e-06	6.190387e-09	2.854001e+01	4.074735e+02
1.270000e-06	4.061114e-06	6.287233e-09	2.902559e+01	4.137224e+02
1.280000e-06	4.127586e-06	6.378064e-09	2.950068e+01	4.197111e+02
1.290000e-06	4.192349e-06	6.465276e-09	2.996355e+01	4.254614e+02
1.300000e-06	4.255547e-06	6.548507e-09	3.041525e+01	4.309932e+02
1.310000e-06	4.317313e-06	6.628476e-09	3.085670e+01	4.363227e+02
1.320000e-06	4.377728e-06	6.706339e-09	3.128849e+01	4.414620e+02
1.330000e-06	4.436739e-06	6.781447e-09	3.171026e+01	4.464183e+02
1.340000e-06	4.493992e-06	6.852967e-09	3.211946e+01	4.511946e+02
1.350000e-06	4.549447e-06	6.921182e-09	3.251580e+01	4.557904e+02
1.360000e-06	4.603325e-06	6.987884e-09	3.290089e+01	4.602022e+02
1.370000e-06	4.655452e-06	7.051152e-09	3.327344e+01	4.644255e+02
1.380000e-06	4.705549e-06	7.112118e-09	3.363150e+01	4.684560e+02
1.390000e-06	4.753735e-06	7.171383e-09	3.397590e+01	4.722902e+02
1.400000e-06	4.800261e-06	7.226856e-09	3.430842e+01	4.759269e+02
1.410000e-06	4.845227e-06	7.277902e-09	3.462980e+01	4.793671e+02
1.420000e-06	4.888623e-06	7.325793e-09	3.493996e+01	4.826142e+02
1.430000e-06	4.930119e-06	7.371286e-09	3.523655e+01	4.856734e+02
1.440000e-06	4.969724e-06	7.413402e-09	3.551961e+01	4.885514e+02
1.450000e-06	5.007688e-06	7.452052e-09	3.579095e+01	4.912553e+02
1.460000e-06	5.044081e-06	7.488700e-09	3.605105e+01	4.937916e+02
1.470000e-06	5.078777e-06	7.525136e-09	3.629903e+01	4.961662e+02
1.480000e-06	5.111546e-06	7.560063e-09	3.653324e+01	4.983832e+02
1.490000e-06	5.142494e-06	7.591143e-09	3.675443e+01	5.004456e+02
1.500000e-06	5.171766e-06	7.617584e-09	3.696365e+01	5.023552e+02
1.510000e-06	5.199354e-06	7.640295e-09	3.716082e+01	5.041130e+02
1.520000e-06	5.224897e-06	7.663193e-09	3.734338e+01	5.057201e+02
1.530000e-06	5.248338e-06	7.685862e-09	3.751092e+01	5.071782e+02
1.540000e-06	5.269994e-06	7.706088e-09	3.766570e+01	5.084899e+02
1.550000e-06	5.289953e-06	7.724037e-09	3.780835e+01	5.096595e+02
1.560000e-06	5.308078e-06	7.740174e-09	3.793789e+01	5.106926e+02
1.570000e-06	5.324200e-06	7.754102e-09	3.805312e+01	5.115958e+02
1.580000e-06	5.338404e-06	7.765066e-09	3.815464e+01	5.123761e+02
1.590000e-06	5.350549e-06	7.775117e-09	3.824144e+01	5.130402e+02
1.600000e-06	5.360444e-06	7.783975e-09	3.831216e+01	5.135937e+02
1.610000e-06	5.368259e-06	7.791721e-09	3.836802e+01	5.140403e+02
1.620000e-06	5.374166e-06	7.799305e-09	3.841024e+01	5.143813e+02
1.630000e-06	5.378358e-06	7.805997e-09	3.844020e+01	5.146157e+02
1.640000e-06	5.380749e-06	7.811384e-09	3.845729e+01	5.147401e+02
1.650000e-06	5.381128e-06	7.813066e-09	3.846000e+01	5.147496e+02
1.660000e-06	5.379659e-06	7.812138e-09	3.844950e+01	5.146388e+02
1.670000e-06	5.376514e-06	7.806500e-09	3.842702e+01	5.144029e+02
1.680000e-06	5.371647e-06	7.799995e-09	3.839223e+01	5.140386e+02
1.690000e-06	5.364852e-06	7.794090e-09	3.834367e+01	5.135453e+02
1.700000e-06	5.356321e-06	7.786849e-09	3.828270e+01	5.129259e+02
1.710000e-06	5.346277e-06	7.778896e-09	3.821091e+01	5.121865e+02
1.720000e-06	5.334482e-06	7.765812e-09	3.812661e+01	5.113366e+02
1.730000e-06	5.320679e-06	7.753338e-09	3.802796e+01	5.103879e+02
1.740000e-06	5.304816e-06	7.728874e-09	3.791458e+01	5.093532e+02
1.750000e-06	5.286680e-06	7.691387e-09	3.778496e+01	5.082451e+02
1.760000e-06	5.265961e-06	7.690755e-09	3.763687e+01	5.070741e+02
1.770000e-06	5.242931e-06	7.682236e-09	3.747228e+01	5.058476e+02
1.780000e-06	5.218577e-06	7.668926e-09	3.729821e+01	5.045685e+02
1.790000e-06	5.193503e-06	7.669612e-09	3.711900e+01	5.032349e+02
1.800000e-06	5.167023e-06	7.567154e-09	3.692975e+01	5.018397e+02
1.810000e-06	5.138396e-06	7.557425e-09	3.672514e+01	5.003717e+02
1.820000e-06	5.107880e-06	7.587699e-09	3.650704e+01	4.988163e+02
1.830000e-06	5.075651e-06	7.505595e-09	3.627669e+01	4.971574e+02
1.840000e-06	5.041534e-06	7.556300e-09	3.603285e+01	4.953788e+02
1.850000e-06	5.005766e-06	7.601292e-09	3.577721e+01	4.934658e+02
1.860000e-06	4.968275e-06	7.528967e-09	3.550926e+01	4.914070e+02
1.870000e-06	4.928949e-06	7.508037e-09	3.522818e+01	4.891952e+02
1.880000e-06	4.887984e-06	7.411564e-09	3.493539e+01	4.868279e+02
1.890000e-06	4.845230e-06	7.362923e-09	3.462983e+01	4.843073e+02
1.900000e-06	4.800779e-06	7.373747e-09	3.431213e+01	4.816395e+02
1.910000e-06	4.754476e-06	7.282981e-09	3.398119e+01	4.788338e+02
1.920000e-06	4.706137e-06	7.297608e-09	3.363570e+01	4.759011e+02
1.930000e-06	4.656165e-06	7.241453e-09	3.327854e+01	4.728526e+02
1.940000e-06	4.604490e-06	7.139816e-09	3.290921e+01	4.696983e+02
1.950000e-06	4.550818e-06	7.146392e-09	3.252560e+01	4.664459e+02
1.960000e-06	4.495184e-06	7.083862e-09	3.212798e+01	4.631002e+02
1.970000e-06	4.437834e-06	7.037520e-09	3.171809e+01	4.596627e+02
1.980000e-06	4.379003e-06	6.969057e-09	3.129761e+01	4.561319e+02
1.990000e-06	4.318655e-06	6.905595e-09	3.086629e+01	4.525037e+02
2.000000e-06	4.256714e-06	6.884116e-09	3.042358e+01	4.487725e+02
2.010000e-06	4.193229e-06	6.788505e-09	2.996984e+01	4.449319e+02
2.020000e-06	4.128236e-06	6.750801e-09	2.950533e+01	4.409760e+02
2.030000e-06	4.061778e-06	6.689585e-09	2.903034e+01	4.368999e+02
2.040000e-06	3.993832e-06	6.616074e-09	2.854471e+01	4.327005e+02
2.050000e-06	3.924387e-06	6.557985e-09	2.804838e+01	4.283767e+02
2.060000e-06	3.853441e-06	6.473937e-09	2.754131e+01	4.239292e+02
2.070000e-06	3.781119e-06	6.441719e-09	2.702441e+01	4.193601e+02
2.080000e-06	3.707595e-06	6.343554e-09	2.649892e+01	4.146726e+02
2.090000e-06	3.632725e-06	6.254123e-09	2.596381e+01	4.098698e+02
2.100000e-06	3.556454e-06	6.188144e-09	2.541869e+01	4.049546e+02
2.110000e-06	3.478639e-06	6.111787e-09	2.486253e+01	3.999287e+02
2.120000e-06	3.399357e-06	6.057322e-09	2.429588e+01	3.947927e+02
2.130000e-06	3.318968e-06	5.965696e-09	2.372133e+01	3.895455e+02
2.140000e-06	3.237437e-06	5.891411e-09	2.313861e+01	3.841847e+02
2.150000e-06	3.154795e-06	5.801419e-09	2.254795e+01	3.787070e+02
2.160000e-06	3.071127e-06	5.708299e-09	2.194996e+01	3.731086e+02
2.170000e-06	2.986395e-06	5.628592e-09	2.134436e+01	3.673854e+02
2.180000e-06	2.900412e-06	5.542552e-09	2.072982e+01	3.615337e+02
2.190000e-06	2.813145e-06	5.450834e-09	2.010611e+01	3.555506e+02
2.200000e-06	2.724884e-06	5.346252e-09	1.947529e+01	3.494340e+02
2.210000e-06	2.635731e-06	5.258075e-09	1.883810e+01	3.431826e+02
2.220000e-06	2.545664e-06	5.168075e-09	1.819437e+01	3.367959e+02
2.230000e-06	2.454776e-06	5.076121e-09	1.754477e+01	3.302738e+02
2.240000e-06	2.363085e-06	4.973393e-09	1.688944e+01	3.236162e+02
2.250000e-06	2.270557e-06	4.865672e-09	1.622812e+01	3.168230e+02
2.260000e-06	2.177266e-06	4.756927e-09	1.556135e+01	3.098936e+02
2.270000e-06	2.083079e-06	4.644506e-09	1.488818e+01	3.028267e+02
2.280000e-06	1.987840e-06	4.537814e-09	1.420749e+01	2.956207e+02
2.290000e-06	1.891774e-06	4.425370e-09	1.352088e+01	2.882733e+02
2.300000e-06	1.795233e-06	4.308391e-09	1.283089e+01	2.807820e+02
2.310000e-06	1.698304e-06	4.189944e-09	1.213812e+01	2.731442e+02
2.320000e-06	1.600794e-06	4.074825e-09	1.144120e+01	2.653573e+02
2.330000e-06	1.502708e-06	3.962277e-09	1.074016e+01	2.574189e+02
2.340000e-06	1.404140e-06	3.844769e-09	1.003567e+01	2.493265e+02
2.350000e-06	1.305154e-06	3.715796e-09	9.328199e+00	2.410777e+02
2.360000e-06	1.205857e-06	3.581340e-09	8.618502e+00	2.326699e+02
2.370000e-06	1.106277e-06	3.448270e-09	7.906781e+00	2.240997e+02
2.380000e-06	1.006366e-06	3.318273e-09	7.192700e+00	2.153631e+02
2.390000e-06	9.061146e-07	3.187893e-09	6.476182e+00	2.064549e+02
2.400000e-06	8.055484e-07	3.048844e-09	5.757415e+00	1.973690e+02
2.410000e-06	7.045923e-07	2.904379e-09	5.035862e+00	1.880982e+02
2.420000e-06	6.032945e-07	2.757013e-09	4.311866e+00	1.786346e+02
2.430000e-06	5.017755e-07	2.612422e-09	3.586290e+00	1.689699e+02
2.440000e-06	4.000611e-07	2.470591e-09	2.859317e+00	1.590958e+02
2.450000e-06	2.981655e-07	2.322081e-09	2.131048e+00	1.490045e+02
2.460000e-06	1.961050e-07	2.161564e-09	1.401601e+00	1.386889e+02
2.470000e-06	9.390372e-08	1.995544e-09	6.711486e-01	1.281431e+02
2.480000e-06	-8.332960e-09	1.830990e-09	-5.955733e-02	1.173617e+02
2.490000e-06	-1.105684e-07	1.668208e-09	-7.902544e-01	1.063402e+02
2.500000e-06	-2.128044e-07	1.501805e-09	-1.520955e+00	9.507410e+01
2.510000e-06	-3.149748e-07	1.327070e-09	-2.251188e+00	8.355864e+01
2.520000e-06	-4.170359e-07	1.148528e-09	-2.980639e+00	7.178800e+01
2.530000e-06	-5.189536e-07	9.639276e-10	-3.709065e+00	5.975509e+01
2.540000e-06	-6.206160e-07	7.733022e-10	-4.435666e+00	4.745146e+01
2.550000e-06	-7.219458e-07	5.801590e-10	-5.159891e+00	3.486760e+01
2.560000e-06	-8.229572e-07	3.806297e-10	-5.881840e+00	2.199385e+01
2.570000e-06	-9.236156e-07	1.738380e-10	-6.601265e+00	8.821634e+00
2.580000e-06	-1.023849e-06	-3.617871e-11	-7.317653e+00	-4.654732e+00
2.590000e-06	-1.123651e-06	-2.464594e-10	-8.030959e+00	-1.843608e+01
2.600000e-06	-1.223111e-06	-4.574910e-10	-8.741820e+00	-3.251630e+01
2.610000e-06	-1.322209e-06	-6.767006e-10	-9.450092e+00	-4.688045e+01
2.620000e-06	-1.420883e-06	-9.040322e-10	-1.015534e+01	-6.150332e+01
2.630000e-06	-1.519040e-06	-1.133817e-09	-1.085688e+01	-7.634859e+01
2.640000e-06	-1.616578e-06	-1.363038e-09	-1.155401e+01	-9.136888e+01
2.650000e-06	-1.713547e-06	-1.591840e-09	-1.224706e+01	-1.065067e+02
2.660000e-06	-1.810048e-06	-1.824213e-09	-1.293678e+01	-1.216963e+02
2.670000e-06	-1.906027e-06	-2.059215e-09	-1.362276e+01	-1.368663e+02
2.680000e-06	-2.001379e-06	-2.293819e-09	-1.430426e+01	-1.519430e+02
2.690000e-06	-2.096014e-06	-2.523946e-09	-1.498063e+01	-1.668536e+02
2.700000e-06	-2.189708e-06	-2.748166e-09	-1.565028e+01	-1.815299e+02
2.710000e-06	-2.282375e-06	-2.967446e-09	-1.631259e+01	-1.959115e+02
2.720000e-06	-2.374138e-06	-3.181954e-09	-1.696844e+01	-2.099479e+02
2.730000e-06	-2.465069e-06	-3.391953e-09	-1.761834e+01	-2.236000e+02
2.740000e-06	-2.555101e-06	-3.595851e-09	-1.826182e+01	-2.368411e+02
2.750000e-06	-2.644257e-06	-3.792964e-09	-1.889903e+01	-2.496556e+02
2.760000e-06	-2.732604e-06	-3.985174e-09	-1.953046e+01	-2.620385e+02
2.770000e-06	-2.820081e-06	-4.172559e-09	-2.015568e+01	-2.739925e+02
2.780000e-06	-2.906640e-06	-4.354059e-09	-2.077434e+01	-2.855263e+02
2.790000e-06	-2.992046e-06	-4.525887e-09	-2.138475e+01	-2.966511e+02
2.800000e-06	-3.076244e-06	-4.687315e-09	-2.198653e+01	-3.073793e+02
2.810000e-06	-3.159371e-06	-4.841555e-09	-2.258065e+01	-3.177216e+02
2.820000e-06	-3.241445e-06	-4.990059e-09	-2.316726e+01	-3.276869e+02
2.830000e-06	-3.322509e-06	-5.134620e-09	-2.374664e+01	-3.372808e+02
2.840000e-06	-3.402534e-06	-5.276543e-09	-2.431859e+01	-3.465066e+02
2.850000e-06	-3.481360e-06	-5.415200e-09	-2.488198e+01	-3.553660e+02
2.860000e-06	-3.558703e-06	-5.546640e-09	-2.543476e+01	-3.638604e+02
2.870000e-06	-3.634502e-06	-5.670985e-09	-2.597651e+01	-3.719924e+02
2.880000e-06	-3.708894e-06	-5.792957e-09	-2.650820e+01	-3.797669e+02
2.890000e-06	-3.781946e-06	-5.909706e-09	-2.703032e+01	-3.871925e+02
2.900000e-06	-3.853715e-06	-6.019011e-09	-2.754327e+01	-3.942818e+02
2.910000e-06	-3.924064e-06	-6.121942e-09	-2.804607e+01	-4.010513e+02
2.920000e-06	-3.992783e-06	-6.221189e-09	-2.853722e+01	-4.075208e+02
2.930000e-06	-4.060028e-06	-6.318016e-09	-2.901783e+01	-4.137124e+02
2.940000e-06	-4.125962e-06	-6.408857e-09	-2.948907e+01	-4.196484e+02
