# Temperatura_=_72.88
# Concentracion g/m^3_=_15000.0
# C_Vs_to_Am_M_A/Vsm_=_65563218390.804596
# pendiente_HvsI_1/m_=_3716.3
# ordenada_HvsI_A/m_=_1297.0
# frecuencia_Hz_=_301579.72253249685

Tiempo_(s)	Campo_(V.s)	Magnetizacion_(V.s)	Campo_(kA/m)	Magnetizacion_(A/m)
0.000000e+00	-5.363745e-06	-7.148357e-09	-3.834368e+01	-4.670280e+02
1.000000e-08	-5.361085e-06	-7.144141e-09	-3.832466e+01	-4.668555e+02
2.000000e-08	-5.356577e-06	-7.137589e-09	-3.829243e+01	-4.665676e+02
3.000000e-08	-5.350440e-06	-7.130828e-09	-3.824856e+01	-4.661584e+02
4.000000e-08	-5.342776e-06	-7.123139e-09	-3.819378e+01	-4.656256e+02
5.000000e-08	-5.333341e-06	-7.112851e-09	-3.812633e+01	-4.649717e+02
6.000000e-08	-5.321787e-06	-7.099646e-09	-3.804373e+01	-4.642041e+02
7.000000e-08	-5.308257e-06	-7.083351e-09	-3.794701e+01	-4.633346e+02
8.000000e-08	-5.292664e-06	-7.075173e-09	-3.783554e+01	-4.623785e+02
9.000000e-08	-5.274862e-06	-7.096135e-09	-3.770828e+01	-4.613530e+02
1.000000e-07	-5.255025e-06	-7.083527e-09	-3.756647e+01	-4.602746e+02
1.100000e-07	-5.233285e-06	-7.036092e-09	-3.741106e+01	-4.591576e+02
1.200000e-07	-5.209858e-06	-6.998899e-09	-3.724359e+01	-4.580117e+02
1.300000e-07	-5.184898e-06	-6.941594e-09	-3.706516e+01	-4.568411e+02
1.400000e-07	-5.158319e-06	-6.943807e-09	-3.687516e+01	-4.556429e+02
1.500000e-07	-5.130142e-06	-6.993782e-09	-3.667372e+01	-4.544080e+02
1.600000e-07	-5.100506e-06	-6.908548e-09	-3.646187e+01	-4.531212e+02
1.700000e-07	-5.069357e-06	-6.891851e-09	-3.623919e+01	-4.517632e+02
1.800000e-07	-5.036137e-06	-6.915047e-09	-3.600171e+01	-4.503124e+02
1.900000e-07	-5.000944e-06	-6.830940e-09	-3.575013e+01	-4.487475e+02
2.000000e-07	-4.964309e-06	-6.848671e-09	-3.548824e+01	-4.470492e+02
2.100000e-07	-4.926005e-06	-6.811610e-09	-3.521442e+01	-4.452026e+02
2.200000e-07	-4.885869e-06	-6.693677e-09	-3.492749e+01	-4.431985e+02
2.300000e-07	-4.843779e-06	-6.694816e-09	-3.462661e+01	-4.410341e+02
2.400000e-07	-4.799748e-06	-6.682886e-09	-3.431185e+01	-4.387124e+02
2.500000e-07	-4.753954e-06	-6.659028e-09	-3.398448e+01	-4.362421e+02
2.600000e-07	-4.706300e-06	-6.651567e-09	-3.364382e+01	-4.336358e+02
2.700000e-07	-4.656684e-06	-6.549879e-09	-3.328912e+01	-4.309081e+02
2.800000e-07	-4.604966e-06	-6.499683e-09	-3.291941e+01	-4.280738e+02
2.900000e-07	-4.551255e-06	-6.491567e-09	-3.253545e+01	-4.251463e+02
3.000000e-07	-4.495949e-06	-6.445715e-09	-3.214008e+01	-4.221358e+02
3.100000e-07	-4.439026e-06	-6.399095e-09	-3.173316e+01	-4.190486e+02
3.200000e-07	-4.380316e-06	-6.347471e-09	-3.131346e+01	-4.158867e+02
3.300000e-07	-4.320010e-06	-6.279122e-09	-3.088235e+01	-4.126479e+02
3.400000e-07	-4.258235e-06	-6.218493e-09	-3.044074e+01	-4.093269e+02
3.500000e-07	-4.195133e-06	-6.206386e-09	-2.998965e+01	-4.059162e+02
3.600000e-07	-4.130597e-06	-6.161666e-09	-2.952830e+01	-4.024075e+02
3.700000e-07	-4.064424e-06	-6.069317e-09	-2.905525e+01	-3.987927e+02
3.800000e-07	-3.996690e-06	-6.008052e-09	-2.857104e+01	-3.950654e+02
3.900000e-07	-3.927559e-06	-5.959784e-09	-2.807685e+01	-3.912212e+02
4.000000e-07	-3.857130e-06	-5.908287e-09	-2.757337e+01	-3.872585e+02
4.100000e-07	-3.785491e-06	-5.846623e-09	-2.706125e+01	-3.831777e+02
4.200000e-07	-3.712557e-06	-5.772242e-09	-2.653987e+01	-3.789815e+02
4.300000e-07	-3.638007e-06	-5.702001e-09	-2.600693e+01	-3.746736e+02
4.400000e-07	-3.561853e-06	-5.632946e-09	-2.546253e+01	-3.702581e+02
4.500000e-07	-3.484255e-06	-5.579209e-09	-2.490781e+01	-3.657387e+02
4.600000e-07	-3.405272e-06	-5.531500e-09	-2.434319e+01	-3.611178e+02
4.700000e-07	-3.324979e-06	-5.454740e-09	-2.376920e+01	-3.563963e+02
4.800000e-07	-3.243439e-06	-5.352505e-09	-2.318630e+01	-3.515733e+02
4.900000e-07	-3.160757e-06	-5.267157e-09	-2.259523e+01	-3.466463e+02
5.000000e-07	-3.077094e-06	-5.206472e-09	-2.199715e+01	-3.416112e+02
5.100000e-07	-2.992521e-06	-5.133573e-09	-2.139256e+01	-3.364635e+02
5.200000e-07	-2.906959e-06	-5.049719e-09	-2.078091e+01	-3.311983e+02
5.300000e-07	-2.820341e-06	-4.957845e-09	-2.016171e+01	-3.258109e+02
5.400000e-07	-2.732900e-06	-4.864067e-09	-1.953662e+01	-3.202975e+02
5.500000e-07	-2.644599e-06	-4.782193e-09	-1.890538e+01	-3.146552e+02
5.600000e-07	-2.555161e-06	-4.705930e-09	-1.826602e+01	-3.088821e+02
5.700000e-07	-2.464690e-06	-4.618860e-09	-1.761927e+01	-3.029772e+02
5.800000e-07	-2.373333e-06	-4.512412e-09	-1.696619e+01	-2.969403e+02
5.900000e-07	-2.281120e-06	-4.409572e-09	-1.630699e+01	-2.907718e+02
6.000000e-07	-2.188087e-06	-4.319002e-09	-1.564193e+01	-2.844721e+02
6.100000e-07	-2.094285e-06	-4.229353e-09	-1.497136e+01	-2.780417e+02
6.200000e-07	-1.999729e-06	-4.129687e-09	-1.429542e+01	-2.714809e+02
6.300000e-07	-1.904520e-06	-4.021048e-09	-1.361480e+01	-2.647899e+02
6.400000e-07	-1.808731e-06	-3.912611e-09	-1.293003e+01	-2.579689e+02
6.500000e-07	-1.712225e-06	-3.808185e-09	-1.224015e+01	-2.510178e+02
6.600000e-07	-1.614956e-06	-3.706623e-09	-1.154480e+01	-2.439367e+02
6.700000e-07	-1.517007e-06	-3.597519e-09	-1.084459e+01	-2.367256e+02
6.800000e-07	-1.418436e-06	-3.475243e-09	-1.013994e+01	-2.293840e+02
6.900000e-07	-1.319376e-06	-3.349809e-09	-9.431791e+00	-2.219113e+02
7.000000e-07	-1.219905e-06	-3.236043e-09	-8.720706e+00	-2.143058e+02
7.100000e-07	-1.119985e-06	-3.127938e-09	-8.006412e+00	-2.065648e+02
7.200000e-07	-1.019701e-06	-3.011501e-09	-7.289516e+00	-1.986839e+02
7.300000e-07	-9.191448e-07	-2.886257e-09	-6.570668e+00	-1.906569e+02
7.400000e-07	-8.183234e-07	-2.756285e-09	-5.849929e+00	-1.824760e+02
7.500000e-07	-7.172612e-07	-2.625264e-09	-5.127468e+00	-1.741314e+02
7.600000e-07	-6.159610e-07	-2.496969e-09	-4.403306e+00	-1.656123e+02
7.700000e-07	-5.144598e-07	-2.368758e-09	-3.677707e+00	-1.569073e+02
7.800000e-07	-4.128204e-07	-2.232107e-09	-2.951120e+00	-1.480051e+02
7.900000e-07	-3.110026e-07	-2.086278e-09	-2.223257e+00	-1.388953e+02
8.000000e-07	-2.090453e-07	-1.938999e-09	-1.494397e+00	-1.295690e+02
8.100000e-07	-1.070111e-07	-1.797169e-09	-7.649878e-01	-1.200198e+02
8.200000e-07	-4.877134e-09	-1.652542e-09	-3.486505e-02	-1.102432e+02
8.300000e-07	9.731828e-08	-1.496655e-09	6.956969e-01	-1.002369e+02
8.400000e-07	1.995089e-07	-1.335085e-09	1.426224e+00	-9.000039e+01
8.500000e-07	3.016125e-07	-1.173685e-09	2.156130e+00	-7.953370e+01
8.600000e-07	4.036241e-07	-1.012523e-09	2.885378e+00	-6.883682e+01
8.700000e-07	5.055026e-07	-8.481790e-10	3.613675e+00	-5.790865e+01
8.800000e-07	6.072006e-07	-6.769894e-10	4.340681e+00	-4.674630e+01
8.900000e-07	7.087405e-07	-4.993633e-10	5.066557e+00	-3.534478e+01
9.000000e-07	8.100539e-07	-3.174808e-10	5.790813e+00	-2.369726e+01
9.100000e-07	9.110465e-07	-1.342791e-10	6.512776e+00	-1.179587e+01
9.200000e-07	1.011724e-06	4.742259e-11	7.232484e+00	3.668307e-01
9.300000e-07	1.112125e-06	2.314954e-10	7.950223e+00	1.279596e+01
9.400000e-07	1.212195e-06	4.226017e-10	8.665586e+00	2.549202e+01
9.500000e-07	1.311855e-06	6.189199e-10	9.378024e+00	3.844869e+01
9.600000e-07	1.411023e-06	8.170145e-10	1.008695e+01	5.165075e+01
9.700000e-07	1.509606e-06	1.016861e-09	1.079168e+01	6.507260e+01
9.800000e-07	1.607528e-06	1.219835e-09	1.149170e+01	7.867760e+01
9.900000e-07	1.704671e-06	1.427068e-09	1.218614e+01	9.241827e+01
1.000000e-06	1.801015e-06	1.636295e-09	1.287487e+01	1.062376e+02
1.010000e-06	1.896639e-06	1.846623e-09	1.355846e+01	1.200714e+02
1.020000e-06	1.991647e-06	2.054882e-09	1.423764e+01	1.338511e+02
1.030000e-06	2.085995e-06	2.260058e-09	1.491211e+01	1.475073e+02
1.040000e-06	2.179559e-06	2.463614e-09	1.558096e+01	1.609736e+02
1.050000e-06	2.272418e-06	2.662304e-09	1.624478e+01	1.741899e+02
1.060000e-06	2.364667e-06	2.856970e-09	1.690424e+01	1.871051e+02
1.070000e-06	2.456189e-06	3.044465e-09	1.755850e+01	1.996791e+02
1.080000e-06	2.546697e-06	3.223766e-09	1.820551e+01	2.118839e+02
1.090000e-06	2.636068e-06	3.400747e-09	1.884440e+01	2.237029e+02
1.100000e-06	2.724354e-06	3.576783e-09	1.947552e+01	2.351302e+02
1.110000e-06	2.811653e-06	3.747927e-09	2.009959e+01	2.461679e+02
1.120000e-06	2.898078e-06	3.911201e-09	2.071742e+01	2.568241e+02
1.130000e-06	2.983599e-06	4.067606e-09	2.132879e+01	2.671097e+02
1.140000e-06	3.068157e-06	4.219535e-09	2.193326e+01	2.770358e+02
1.150000e-06	3.151792e-06	4.366246e-09	2.253114e+01	2.866122e+02
1.160000e-06	3.234418e-06	4.506756e-09	2.312181e+01	2.958455e+02
1.170000e-06	3.315846e-06	4.641333e-09	2.370391e+01	3.047389e+02
1.180000e-06	3.396018e-06	4.770357e-09	2.427703e+01	3.132928e+02
1.190000e-06	3.475018e-06	4.892835e-09	2.484177e+01	3.215058e+02
1.200000e-06	3.552806e-06	5.010496e-09	2.539786e+01	3.293764e+02
1.210000e-06	3.629287e-06	5.126249e-09	2.594460e+01	3.369047e+02
1.220000e-06	3.704415e-06	5.235775e-09	2.648167e+01	3.440943e+02
1.230000e-06	3.777996e-06	5.336745e-09	2.700767e+01	3.509534e+02
1.240000e-06	3.850009e-06	5.432770e-09	2.752246e+01	3.574955e+02
1.250000e-06	3.920653e-06	5.527009e-09	2.802748e+01	3.637391e+02
1.260000e-06	3.989938e-06	5.617587e-09	2.852278e+01	3.697069e+02
1.270000e-06	4.057899e-06	5.703794e-09	2.900861e+01	3.754241e+02
1.280000e-06	4.124405e-06	5.787002e-09	2.948403e+01	3.809163e+02
1.290000e-06	4.189195e-06	5.869671e-09	2.994720e+01	3.862077e+02
1.300000e-06	4.252439e-06	5.949832e-09	3.039931e+01	3.913186e+02
1.310000e-06	4.314245e-06	6.025659e-09	3.084114e+01	3.962643e+02
1.320000e-06	4.374668e-06	6.098262e-09	3.127308e+01	4.010537e+02
1.330000e-06	4.433694e-06	6.167295e-09	3.169504e+01	4.056894e+02
1.340000e-06	4.491028e-06	6.233078e-09	3.210491e+01	4.101684e+02
1.350000e-06	4.546634e-06	6.296819e-09	3.250241e+01	4.144832e+02
1.360000e-06	4.600637e-06	6.359713e-09	3.288846e+01	4.186237e+02
1.370000e-06	4.652854e-06	6.419384e-09	3.326175e+01	4.225794e+02
1.380000e-06	4.703038e-06	6.475036e-09	3.362049e+01	4.263408e+02
1.390000e-06	4.751246e-06	6.529027e-09	3.396512e+01	4.299018e+02
1.400000e-06	4.797741e-06	6.580085e-09	3.429750e+01	4.332600e+02
1.410000e-06	4.842706e-06	6.627327e-09	3.461894e+01	4.364177e+02
1.420000e-06	4.886079e-06	6.671833e-09	3.492900e+01	4.393814e+02
1.430000e-06	4.927574e-06	6.713085e-09	3.522563e+01	4.421607e+02
1.440000e-06	4.967280e-06	6.751501e-09	3.550948e+01	4.447672e+02
1.450000e-06	5.005372e-06	6.787092e-09	3.578178e+01	4.472130e+02
1.460000e-06	5.041850e-06	6.820549e-09	3.604255e+01	4.495090e+02
1.470000e-06	5.076608e-06	6.853037e-09	3.629102e+01	4.516639e+02
1.480000e-06	5.109387e-06	6.883136e-09	3.652535e+01	4.536832e+02
1.490000e-06	5.140344e-06	6.910145e-09	3.674665e+01	4.555692e+02
1.500000e-06	5.169665e-06	6.935099e-09	3.695626e+01	4.573214e+02
1.510000e-06	5.197278e-06	6.958075e-09	3.715366e+01	4.589374e+02
1.520000e-06	5.222832e-06	6.978932e-09	3.733633e+01	4.604140e+02
1.530000e-06	5.246306e-06	6.997843e-09	3.750414e+01	4.617485e+02
1.540000e-06	5.268025e-06	7.016340e-09	3.765940e+01	4.629399e+02
1.550000e-06	5.288080e-06	7.032714e-09	3.780277e+01	4.639899e+02
1.560000e-06	5.306309e-06	7.045678e-09	3.793309e+01	4.649033e+02
1.570000e-06	5.322491e-06	7.057357e-09	3.804877e+01	4.656873e+02
1.580000e-06	5.336651e-06	7.068772e-09	3.814999e+01	4.663514e+02
1.590000e-06	5.348821e-06	7.079755e-09	3.823699e+01	4.669061e+02
1.600000e-06	5.358873e-06	7.088433e-09	3.830885e+01	4.673612e+02
1.610000e-06	5.366849e-06	7.094941e-09	3.836587e+01	4.677249e+02
1.620000e-06	5.372946e-06	7.100592e-09	3.840945e+01	4.680023e+02
1.630000e-06	5.377267e-06	7.105543e-09	3.844034e+01	4.681950e+02
1.640000e-06	5.379682e-06	7.109113e-09	3.845760e+01	4.683007e+02
1.650000e-06	5.380017e-06	7.111921e-09	3.846000e+01	4.683136e+02
1.660000e-06	5.378541e-06	7.111091e-09	3.844945e+01	4.682261e+02
1.670000e-06	5.375498e-06	7.105772e-09	3.842770e+01	4.680293e+02
1.680000e-06	5.370810e-06	7.101720e-09	3.839418e+01	4.677156e+02
1.690000e-06	5.364220e-06	7.097763e-09	3.834707e+01	4.672797e+02
1.700000e-06	5.355835e-06	7.092534e-09	3.828713e+01	4.667204e+02
1.710000e-06	5.345892e-06	7.086459e-09	3.821605e+01	4.660411e+02
1.720000e-06	5.334187e-06	7.082243e-09	3.813238e+01	4.652502e+02
1.730000e-06	5.320476e-06	7.077059e-09	3.803436e+01	4.643606e+02
1.740000e-06	5.304746e-06	7.020189e-09	3.792191e+01	4.633880e+02
1.750000e-06	5.286742e-06	6.988701e-09	3.779320e+01	4.623495e+02
1.760000e-06	5.266022e-06	7.002189e-09	3.764508e+01	4.612616e+02
1.770000e-06	5.242955e-06	6.999517e-09	3.748019e+01	4.601375e+02
1.780000e-06	5.218573e-06	7.043693e-09	3.730589e+01	4.589860e+02
1.790000e-06	5.193511e-06	6.971380e-09	3.712673e+01	4.578097e+02
1.800000e-06	5.167146e-06	6.851133e-09	3.693825e+01	4.566045e+02
1.810000e-06	5.138570e-06	6.929996e-09	3.673397e+01	4.553596e+02
1.820000e-06	5.108111e-06	6.875332e-09	3.651623e+01	4.540591e+02
1.830000e-06	5.076026e-06	6.824563e-09	3.628687e+01	4.526828e+02
1.840000e-06	5.042000e-06	6.933804e-09	3.604363e+01	4.512092e+02
1.850000e-06	5.006326e-06	6.840751e-09	3.578860e+01	4.496169e+02
1.860000e-06	4.968881e-06	6.828512e-09	3.552092e+01	4.478876e+02
1.870000e-06	4.929517e-06	6.890902e-09	3.523952e+01	4.460077e+02
1.880000e-06	4.888506e-06	6.772564e-09	3.494635e+01	4.439691e+02
1.890000e-06	4.845710e-06	6.767852e-09	3.464041e+01	4.417702e+02
1.900000e-06	4.801283e-06	6.684034e-09	3.432282e+01	4.394156e+02
1.910000e-06	4.755099e-06	6.601473e-09	3.399266e+01	4.369148e+02
1.920000e-06	4.706902e-06	6.693869e-09	3.364812e+01	4.342810e+02
1.930000e-06	4.657080e-06	6.583930e-09	3.329196e+01	4.315290e+02
1.940000e-06	4.605530e-06	6.547081e-09	3.292344e+01	4.286735e+02
1.950000e-06	4.551919e-06	6.553249e-09	3.254019e+01	4.257272e+02
1.960000e-06	4.496377e-06	6.429901e-09	3.214314e+01	4.226997e+02
1.970000e-06	4.439101e-06	6.392792e-09	3.173370e+01	4.195962e+02
1.980000e-06	4.380350e-06	6.363002e-09	3.131370e+01	4.164179e+02
1.990000e-06	4.320128e-06	6.352304e-09	3.088320e+01	4.131618e+02
2.000000e-06	4.258275e-06	6.264345e-09	3.044103e+01	4.098221e+02
2.010000e-06	4.194828e-06	6.179076e-09	2.998747e+01	4.063909e+02
2.020000e-06	4.129819e-06	6.193887e-09	2.952274e+01	4.028598e+02
2.030000e-06	4.063380e-06	6.100067e-09	2.904779e+01	3.992212e+02
2.040000e-06	3.995607e-06	6.041757e-09	2.856330e+01	3.954689e+02
2.050000e-06	3.926325e-06	5.994592e-09	2.806803e+01	3.915991e+02
2.060000e-06	3.855507e-06	5.927300e-09	2.756177e+01	3.876107e+02
2.070000e-06	3.783286e-06	5.870951e-09	2.704549e+01	3.835047e+02
2.080000e-06	3.709790e-06	5.779527e-09	2.652008e+01	3.792840e+02
2.090000e-06	3.634971e-06	5.756169e-09	2.598523e+01	3.749525e+02
2.100000e-06	3.558650e-06	5.683327e-09	2.543964e+01	3.705142e+02
2.110000e-06	3.480725e-06	5.576124e-09	2.488258e+01	3.659727e+02
2.120000e-06	3.401473e-06	5.509349e-09	2.431603e+01	3.613301e+02
2.130000e-06	3.321128e-06	5.456584e-09	2.374167e+01	3.565868e+02
2.140000e-06	3.239629e-06	5.400551e-09	2.315906e+01	3.517415e+02
2.150000e-06	3.157039e-06	5.313276e-09	2.256865e+01	3.467914e+02
2.160000e-06	3.073455e-06	5.240508e-09	2.197114e+01	3.417324e+02
2.170000e-06	2.988777e-06	5.147937e-09	2.136580e+01	3.365597e+02
2.180000e-06	2.902796e-06	5.060283e-09	2.075115e+01	3.312685e+02
2.190000e-06	2.815663e-06	4.990117e-09	2.012826e+01	3.258542e+02
2.200000e-06	2.727560e-06	4.913397e-09	1.949844e+01	3.203131e+02
2.210000e-06	2.638499e-06	4.828040e-09	1.886177e+01	3.146427e+02
2.220000e-06	2.548502e-06	4.728709e-09	1.821841e+01	3.088411e+02
2.230000e-06	2.457648e-06	4.644277e-09	1.756893e+01	3.029078e+02
2.240000e-06	2.366035e-06	4.556300e-09	1.691402e+01	2.968424e+02
2.250000e-06	2.273645e-06	4.465868e-09	1.625355e+01	2.906456e+02
2.260000e-06	2.180424e-06	4.369366e-09	1.558714e+01	2.843176e+02
2.270000e-06	2.086235e-06	4.262513e-09	1.491382e+01	2.778589e+02
2.280000e-06	1.991084e-06	4.155426e-09	1.423362e+01	2.712700e+02
2.290000e-06	1.895126e-06	4.057115e-09	1.354764e+01	2.645509e+02
2.300000e-06	1.798579e-06	3.963343e-09	1.285746e+01	2.577018e+02
2.310000e-06	1.701579e-06	3.854746e-09	1.216404e+01	2.507227e+02
2.320000e-06	1.604081e-06	3.737681e-09	1.146706e+01	2.436135e+02
2.330000e-06	1.506053e-06	3.627008e-09	1.076628e+01	2.363742e+02
2.340000e-06	1.407487e-06	3.523681e-09	1.006167e+01	2.290044e+02
2.350000e-06	1.308562e-06	3.412810e-09	9.354487e+00	2.215032e+02
2.360000e-06	1.209346e-06	3.297884e-09	8.645225e+00	2.138688e+02
2.370000e-06	1.109814e-06	3.177701e-09	7.933704e+00	2.060980e+02
2.380000e-06	1.009946e-06	3.049299e-09	7.219779e+00	1.981861e+02
2.390000e-06	9.096288e-07	2.926301e-09	6.502641e+00	1.901267e+02
2.400000e-06	8.089492e-07	2.811366e-09	5.782916e+00	1.819113e+02
2.410000e-06	7.079911e-07	2.691383e-09	5.061199e+00	1.735300e+02
2.420000e-06	6.066709e-07	2.554277e-09	4.336894e+00	1.649719e+02
2.430000e-06	5.050413e-07	2.410735e-09	3.610377e+00	1.562253e+02
2.440000e-06	4.032953e-07	2.274603e-09	2.883027e+00	1.472792e+02
2.450000e-06	3.014111e-07	2.141126e-09	2.154690e+00	1.381235e+02
2.460000e-06	1.993468e-07	2.000682e-09	1.425066e+00	1.287497e+02
2.470000e-06	9.719572e-08	1.854738e-09	6.948207e-01	1.191518e+02
2.480000e-06	-4.946068e-09	1.704186e-09	-3.535784e-02	1.093259e+02
2.490000e-06	-1.070623e-07	1.550018e-09	-7.653540e-01	9.927007e+01
2.500000e-06	-2.092090e-07	1.396143e-09	-1.495567e+00	8.898398e+01
2.510000e-06	-3.112995e-07	1.241193e-09	-2.225380e+00	7.846776e+01
2.520000e-06	-4.132412e-07	1.080576e-09	-2.954127e+00	6.772125e+01
2.530000e-06	-5.150894e-07	9.088709e-10	-3.682207e+00	5.674299e+01
2.540000e-06	-6.167750e-07	7.336415e-10	-4.409125e+00	4.552966e+01
2.550000e-06	-7.181634e-07	5.621010e-10	-5.133918e+00	3.407583e+01
2.560000e-06	-8.192423e-07	3.878113e-10	-5.856498e+00	2.237436e+01
2.570000e-06	-9.199486e-07	2.045850e-10	-6.576415e+00	1.041734e+01
2.580000e-06	-1.020222e-06	1.378991e-11	-7.293238e+00	-1.802374e+00
2.590000e-06	-1.120025e-06	-1.797503e-10	-8.006696e+00	-1.428908e+01
2.600000e-06	-1.219446e-06	-3.745833e-10	-8.717426e+00	-2.704202e+01
2.610000e-06	-1.318528e-06	-5.715988e-10	-9.425727e+00	-4.005311e+01
2.620000e-06	-1.417224e-06	-7.736171e-10	-1.013128e+01	-5.330501e+01
2.630000e-06	-1.515434e-06	-9.835664e-10	-1.083335e+01	-6.676980e+01
2.640000e-06	-1.613030e-06	-1.198174e-09	-1.153103e+01	-8.040844e+01
2.650000e-06	-1.710071e-06	-1.412480e-09	-1.222474e+01	-9.417128e+01
2.660000e-06	-1.806589e-06	-1.625003e-09	-1.291472e+01	-1.079996e+02
2.670000e-06	-1.902553e-06	-1.837343e-09	-1.360074e+01	-1.218278e+02
2.680000e-06	-1.997908e-06	-2.050654e-09	-1.428240e+01	-1.355871e+02
2.690000e-06	-2.092473e-06	-2.262853e-09	-1.495841e+01	-1.492082e+02
2.700000e-06	-2.186112e-06	-2.471195e-09	-1.562781e+01	-1.626260e+02
2.710000e-06	-2.278801e-06	-2.673504e-09	-1.629041e+01	-1.757819e+02
2.720000e-06	-2.370579e-06	-2.870513e-09	-1.694650e+01	-1.886272e+02
2.730000e-06	-2.461533e-06	-3.063069e-09	-1.759670e+01	-2.011242e+02
2.740000e-06	-2.551624e-06	-3.250112e-09	-1.824073e+01	-2.132476e+02
2.750000e-06	-2.640801e-06	-3.429723e-09	-1.887823e+01	-2.249831e+02
2.760000e-06	-2.729166e-06	-3.601906e-09	-1.950992e+01	-2.363267e+02
2.770000e-06	-2.816740e-06	-3.769355e-09	-2.013597e+01	-2.472821e+02
2.780000e-06	-2.903368e-06	-3.932910e-09	-2.075524e+01	-2.578581e+02
2.790000e-06	-2.988768e-06	-4.089519e-09	-2.136573e+01	-2.680659e+02
2.800000e-06	-3.072946e-06	-4.238691e-09	-2.196750e+01	-2.779167e+02
2.810000e-06	-3.156096e-06	-4.381805e-09	-2.256191e+01	-2.874193e+02
2.820000e-06	-3.238213e-06	-4.519496e-09	-2.314894e+01	-2.965798e+02
2.830000e-06	-3.319290e-06	-4.653375e-09	-2.372853e+01	-3.054007e+02
2.840000e-06	-3.399331e-06	-4.786212e-09	-2.430072e+01	-3.138819e+02
2.850000e-06	-3.478202e-06	-4.915754e-09	-2.486454e+01	-3.220219e+02
2.860000e-06	-3.555561e-06	-5.037569e-09	-2.541756e+01	-3.298192e+02
2.870000e-06	-3.631363e-06	-5.151313e-09	-2.595944e+01	-3.372747e+02
2.880000e-06	-3.705788e-06	-5.260795e-09	-2.649148e+01	-3.443929e+02
2.890000e-06	-3.778888e-06	-5.364723e-09	-2.701405e+01	-3.511830e+02
2.900000e-06	-3.850729e-06	-5.461767e-09	-2.752762e+01	-3.576597e+02
2.910000e-06	-3.921152e-06	-5.556496e-09	-2.803104e+01	-3.638424e+02
2.920000e-06	-3.989970e-06	-5.648450e-09	-2.852300e+01	-3.697545e+02
2.930000e-06	-4.057354e-06	-5.736613e-09	-2.900471e+01	-3.754215e+02
2.940000e-06	-4.123329e-06	-5.821139e-09	-2.947634e+01	-3.808690e+02
