# Temperatura_=_81.4
# Concentracion g/m^3_=_15000.0
# C_Vs_to_Am_M_A/Vsm_=_65563218390.804596
# pendiente_HvsI_1/m_=_3716.3
# ordenada_HvsI_A/m_=_1297.0
# frecuencia_Hz_=_301583.46068618196

Tiempo_(s)	Campo_(V.s)	Magnetizacion_(V.s)	Campo_(kA/m)	Magnetizacion_(A/m)
0.000000e+00	-5.373822e-06	-7.952986e-09	-3.833451e+01	-5.200145e+02
1.000000e-08	-5.370762e-06	-7.949906e-09	-3.831268e+01	-5.197927e+02
2.000000e-08	-5.365995e-06	-7.943879e-09	-3.827867e+01	-5.194507e+02
3.000000e-08	-5.359607e-06	-7.934185e-09	-3.823310e+01	-5.189858e+02
4.000000e-08	-5.351603e-06	-7.924069e-09	-3.817601e+01	-5.183972e+02
5.000000e-08	-5.341736e-06	-7.914281e-09	-3.810562e+01	-5.176861e+02
6.000000e-08	-5.329807e-06	-7.902384e-09	-3.802052e+01	-5.168562e+02
7.000000e-08	-5.315993e-06	-7.893506e-09	-3.792198e+01	-5.159140e+02
8.000000e-08	-5.300006e-06	-7.885416e-09	-3.780794e+01	-5.148676e+02
9.000000e-08	-5.281787e-06	-7.873896e-09	-3.767796e+01	-5.137264e+02
1.000000e-07	-5.261618e-06	-7.856997e-09	-3.753409e+01	-5.125000e+02
1.100000e-07	-5.239621e-06	-7.821632e-09	-3.737718e+01	-5.111966e+02
1.200000e-07	-5.215966e-06	-7.776356e-09	-3.720843e+01	-5.098225e+02
1.300000e-07	-5.190698e-06	-7.754568e-09	-3.702818e+01	-5.083807e+02
1.400000e-07	-5.163801e-06	-7.723359e-09	-3.683631e+01	-5.068706e+02
1.500000e-07	-5.135301e-06	-7.701402e-09	-3.663300e+01	-5.052877e+02
1.600000e-07	-5.105374e-06	-7.713062e-09	-3.641951e+01	-5.036242e+02
1.700000e-07	-5.073800e-06	-7.689910e-09	-3.619428e+01	-5.018694e+02
1.800000e-07	-5.040081e-06	-7.655458e-09	-3.595374e+01	-5.000110e+02
1.900000e-07	-5.004591e-06	-7.600794e-09	-3.570057e+01	-4.980364e+02
2.000000e-07	-4.967684e-06	-7.512753e-09	-3.543729e+01	-4.959338e+02
2.100000e-07	-4.929026e-06	-7.481237e-09	-3.516153e+01	-4.936938e+02
2.200000e-07	-4.888470e-06	-7.474652e-09	-3.487221e+01	-4.913098e+02
2.300000e-07	-4.845947e-06	-7.441829e-09	-3.456887e+01	-4.887791e+02
2.400000e-07	-4.801546e-06	-7.402449e-09	-3.425214e+01	-4.861024e+02
2.500000e-07	-4.755366e-06	-7.355942e-09	-3.392271e+01	-4.832842e+02
2.600000e-07	-4.707323e-06	-7.323900e-09	-3.357999e+01	-4.803312e+02
2.700000e-07	-4.657243e-06	-7.288180e-09	-3.322274e+01	-4.772520e+02
2.800000e-07	-4.605055e-06	-7.238299e-09	-3.285046e+01	-4.740556e+02
2.900000e-07	-4.550986e-06	-7.169361e-09	-3.246475e+01	-4.707506e+02
3.000000e-07	-4.495358e-06	-7.099183e-09	-3.206793e+01	-4.673439e+02
3.100000e-07	-4.438087e-06	-7.067562e-09	-3.165938e+01	-4.638402e+02
3.200000e-07	-4.378989e-06	-7.023633e-09	-3.123780e+01	-4.602416e+02
3.300000e-07	-4.318319e-06	-6.963406e-09	-3.080501e+01	-4.565478e+02
3.400000e-07	-4.256199e-06	-6.903862e-09	-3.036187e+01	-4.527562e+02
3.500000e-07	-4.192672e-06	-6.825512e-09	-2.990869e+01	-4.488628e+02
3.600000e-07	-4.127672e-06	-6.766833e-09	-2.944501e+01	-4.448624e+02
3.700000e-07	-4.061057e-06	-6.724870e-09	-2.896981e+01	-4.407502e+02
3.800000e-07	-3.992899e-06	-6.664358e-09	-2.848360e+01	-4.365216e+02
3.900000e-07	-3.923346e-06	-6.585093e-09	-2.798744e+01	-4.321736e+02
4.000000e-07	-3.852589e-06	-6.500540e-09	-2.748269e+01	-4.277044e+02
4.100000e-07	-3.780621e-06	-6.429602e-09	-2.696930e+01	-4.231137e+02
4.200000e-07	-3.707250e-06	-6.360626e-09	-2.644591e+01	-4.184026e+02
4.300000e-07	-3.632290e-06	-6.299951e-09	-2.591117e+01	-4.135728e+02
4.400000e-07	-3.555788e-06	-6.240623e-09	-2.536544e+01	-4.086267e+02
4.500000e-07	-3.477814e-06	-6.161228e-09	-2.480921e+01	-4.035660e+02
4.600000e-07	-3.398477e-06	-6.067575e-09	-2.424326e+01	-3.983923e+02
4.700000e-07	-3.317918e-06	-5.980005e-09	-2.366858e+01	-3.931055e+02
4.800000e-07	-3.236063e-06	-5.906096e-09	-2.308466e+01	-3.877049e+02
4.900000e-07	-3.153053e-06	-5.817706e-09	-2.249251e+01	-3.821882e+02
5.000000e-07	-3.069063e-06	-5.719043e-09	-2.189336e+01	-3.765521e+02
5.100000e-07	-2.984177e-06	-5.629750e-09	-2.128782e+01	-3.707929e+02
5.200000e-07	-2.898409e-06	-5.547026e-09	-2.067599e+01	-3.649063e+02
5.300000e-07	-2.811719e-06	-5.461909e-09	-2.005758e+01	-3.588884e+02
5.400000e-07	-2.724067e-06	-5.372199e-09	-1.943231e+01	-3.527355e+02
5.500000e-07	-2.635408e-06	-5.272538e-09	-1.879985e+01	-3.464449e+02
5.600000e-07	-2.545629e-06	-5.161685e-09	-1.815941e+01	-3.400144e+02
5.700000e-07	-2.454687e-06	-5.057096e-09	-1.751067e+01	-3.334429e+02
5.800000e-07	-2.362830e-06	-4.965299e-09	-1.685540e+01	-3.267297e+02
5.900000e-07	-2.270275e-06	-4.868655e-09	-1.619515e+01	-3.198747e+02
6.000000e-07	-2.176963e-06	-4.757141e-09	-1.552950e+01	-3.128777e+02
6.100000e-07	-2.082868e-06	-4.642488e-09	-1.485827e+01	-3.057385e+02
6.200000e-07	-1.988071e-06	-4.529107e-09	-1.418203e+01	-2.984565e+02
6.300000e-07	-1.892560e-06	-4.415130e-09	-1.350070e+01	-2.910305e+02
6.400000e-07	-1.796346e-06	-4.304669e-09	-1.281435e+01	-2.834586e+02
6.500000e-07	-1.699495e-06	-4.195017e-09	-1.212346e+01	-2.757383e+02
6.600000e-07	-1.601932e-06	-4.074550e-09	-1.142749e+01	-2.678666e+02
6.700000e-07	-1.503626e-06	-3.942563e-09	-1.072622e+01	-2.598399e+02
6.800000e-07	-1.404679e-06	-3.811974e-09	-1.002037e+01	-2.516540e+02
6.900000e-07	-1.305210e-06	-3.686436e-09	-9.310801e+00	-2.433048e+02
7.000000e-07	-1.205342e-06	-3.559282e-09	-8.598388e+00	-2.347877e+02
7.100000e-07	-1.105172e-06	-3.425985e-09	-7.883819e+00	-2.260978e+02
7.200000e-07	-1.004786e-06	-3.288345e-09	-7.167702e+00	-2.172302e+02
7.300000e-07	-9.041667e-07	-3.149007e-09	-6.449931e+00	-2.081797e+02
7.400000e-07	-8.032197e-07	-3.009488e-09	-5.729820e+00	-1.989410e+02
7.500000e-07	-7.018660e-07	-2.869303e-09	-5.006806e+00	-1.895085e+02
7.600000e-07	-6.002046e-07	-2.722204e-09	-4.281598e+00	-1.798767e+02
7.700000e-07	-4.983359e-07	-2.566714e-09	-3.554912e+00	-1.700399e+02
7.800000e-07	-3.963182e-07	-2.406997e-09	-2.827162e+00	-1.599924e+02
7.900000e-07	-2.941771e-07	-2.248792e-09	-2.098531e+00	-1.497288e+02
8.000000e-07	-1.918963e-07	-2.091666e-09	-1.368904e+00	-1.392439e+02
8.100000e-07	-8.958446e-08	-1.929883e-09	-6.390565e-01	-1.285324e+02
8.200000e-07	1.275140e-08	-1.760586e-09	9.096291e-02	-1.175891e+02
8.300000e-07	1.151348e-07	-1.585578e-09	8.213217e-01	-1.064084e+02
8.400000e-07	2.175245e-07	-1.407957e-09	1.551725e+00	-9.498427e+01
8.500000e-07	3.198312e-07	-1.231299e-09	2.281537e+00	-8.330999e+01
8.600000e-07	4.220270e-07	-1.054518e-09	3.010557e+00	-7.137777e+01
8.700000e-07	5.241019e-07	-8.708965e-10	3.738715e+00	-5.917892e+01
8.800000e-07	6.260501e-07	-6.794894e-10	4.465969e+00	-4.670399e+01
8.900000e-07	7.278158e-07	-4.836645e-10	5.191921e+00	-3.394336e+01
9.000000e-07	8.292701e-07	-2.861378e-10	5.915652e+00	-2.088811e+01
9.100000e-07	9.304027e-07	-8.629356e-11	6.637088e+00	-7.531268e+00
9.200000e-07	1.031210e-06	1.168347e-10	7.356202e+00	6.130678e+00
9.300000e-07	1.131618e-06	3.276888e-10	8.072473e+00	2.009609e+01
9.400000e-07	1.231672e-06	5.462312e-10	8.786210e+00	3.435649e+01
9.500000e-07	1.331444e-06	7.667604e-10	9.497941e+00	4.889498e+01
9.600000e-07	1.430862e-06	9.877954e-10	1.020715e+01	6.368510e+01
9.700000e-07	1.529760e-06	1.213346e-09	1.091264e+01	7.869017e+01
9.800000e-07	1.627931e-06	1.445593e-09	1.161295e+01	9.386334e+01
9.900000e-07	1.725157e-06	1.682565e-09	1.230652e+01	1.091484e+02
1.000000e-06	1.821490e-06	1.918683e-09	1.299371e+01	1.244816e+02
1.010000e-06	1.917210e-06	2.151096e-09	1.367654e+01	1.397933e+02
1.020000e-06	2.012300e-06	2.379961e-09	1.435487e+01	1.550118e+02
1.030000e-06	2.106657e-06	2.605591e-09	1.502798e+01	1.700655e+02
1.040000e-06	2.200269e-06	2.829498e-09	1.569576e+01	1.848867e+02
1.050000e-06	2.293124e-06	3.049633e-09	1.635815e+01	1.994145e+02
1.060000e-06	2.385294e-06	3.263153e-09	1.701565e+01	2.135971e+02
1.070000e-06	2.476829e-06	3.468898e-09	1.766862e+01	2.273933e+02
1.080000e-06	2.567491e-06	3.668977e-09	1.831536e+01	2.407738e+02
1.090000e-06	2.656946e-06	3.866137e-09	1.895350e+01	2.537208e+02
1.100000e-06	2.745207e-06	4.058116e-09	1.958311e+01	2.662271e+02
1.110000e-06	2.832566e-06	4.242417e-09	2.020629e+01	2.782942e+02
1.120000e-06	2.919087e-06	4.419452e-09	2.082349e+01	2.899306e+02
1.130000e-06	3.004635e-06	4.589578e-09	2.143376e+01	3.011486e+02
1.140000e-06	3.089200e-06	4.753587e-09	2.203701e+01	3.119626e+02
1.150000e-06	3.172890e-06	4.913273e-09	2.263401e+01	3.223864e+02
1.160000e-06	3.255588e-06	5.068389e-09	2.322395e+01	3.324321e+02
1.170000e-06	3.336918e-06	5.215298e-09	2.380412e+01	3.421088e+02
1.180000e-06	3.416938e-06	5.353929e-09	2.437495e+01	3.514228e+02
1.190000e-06	3.495833e-06	5.488832e-09	2.493775e+01	3.603776e+02
1.200000e-06	3.573544e-06	5.621741e-09	2.549211e+01	3.689752e+02
1.210000e-06	3.650039e-06	5.750843e-09	2.603779e+01	3.772174e+02
1.220000e-06	3.725156e-06	5.870878e-09	2.657364e+01	3.851070e+02
1.230000e-06	3.798584e-06	5.979616e-09	2.709744e+01	3.926494e+02
1.240000e-06	3.870419e-06	6.083402e-09	2.760988e+01	3.998532e+02
1.250000e-06	3.940958e-06	6.186960e-09	2.811308e+01	4.067309e+02
1.260000e-06	4.010133e-06	6.287878e-09	2.860654e+01	4.132985e+02
1.270000e-06	4.077994e-06	6.383137e-09	2.909063e+01	4.195752e+02
1.280000e-06	4.144393e-06	6.474124e-09	2.956429e+01	4.255821e+02
1.290000e-06	4.209052e-06	6.562223e-09	3.002554e+01	4.313409e+02
1.300000e-06	4.272139e-06	6.646983e-09	3.047558e+01	4.368724e+02
1.310000e-06	4.333819e-06	6.728812e-09	3.091558e+01	4.421948e+02
1.320000e-06	4.394196e-06	6.808323e-09	3.134628e+01	4.473232e+02
1.330000e-06	4.453158e-06	6.884383e-09	3.176689e+01	4.522682e+02
1.340000e-06	4.510270e-06	6.956363e-09	3.217430e+01	4.570363e+02
1.350000e-06	4.565565e-06	7.024882e-09	3.256875e+01	4.616299e+02
1.360000e-06	4.619252e-06	7.091048e-09	3.295173e+01	4.660480e+02
1.370000e-06	4.671220e-06	7.154945e-09	3.332245e+01	4.702876e+02
1.380000e-06	4.721178e-06	7.215218e-09	3.367883e+01	4.743443e+02
1.390000e-06	4.769195e-06	7.273417e-09	3.402136e+01	4.782143e+02
1.400000e-06	4.815578e-06	7.331737e-09	3.435224e+01	4.818946e+02
1.410000e-06	4.860368e-06	7.387112e-09	3.467175e+01	4.853842e+02
1.420000e-06	4.903526e-06	7.437126e-09	3.497962e+01	4.886843e+02
1.430000e-06	4.944847e-06	7.481954e-09	3.527438e+01	4.917982e+02
1.440000e-06	4.984343e-06	7.523027e-09	3.555613e+01	4.947311e+02
1.450000e-06	5.022177e-06	7.561621e-09	3.582602e+01	4.974890e+02
1.460000e-06	5.058436e-06	7.599020e-09	3.608468e+01	5.000784e+02
1.470000e-06	5.092991e-06	7.636837e-09	3.633118e+01	5.025055e+02
1.480000e-06	5.125594e-06	7.672605e-09	3.656376e+01	5.047751e+02
1.490000e-06	5.156338e-06	7.705109e-09	3.678307e+01	5.068911e+02
1.500000e-06	5.185415e-06	7.733541e-09	3.699049e+01	5.088557e+02
1.510000e-06	5.212791e-06	7.758939e-09	3.718578e+01	5.106700e+02
1.520000e-06	5.238122e-06	7.782828e-09	3.736648e+01	5.123342e+02
1.530000e-06	5.261410e-06	7.804682e-09	3.753261e+01	5.138487e+02
1.540000e-06	5.282917e-06	7.825611e-09	3.768603e+01	5.152140e+02
1.550000e-06	5.302675e-06	7.844628e-09	3.782697e+01	5.164317e+02
1.560000e-06	5.320516e-06	7.860912e-09	3.795424e+01	5.175047e+02
1.570000e-06	5.336376e-06	7.874740e-09	3.806738e+01	5.184374e+02
1.580000e-06	5.350311e-06	7.887400e-09	3.816679e+01	5.192350e+02
1.590000e-06	5.362222e-06	7.899724e-09	3.825176e+01	5.199038e+02
1.600000e-06	5.371890e-06	7.909178e-09	3.832072e+01	5.204499e+02
1.610000e-06	5.379471e-06	7.916840e-09	3.837481e+01	5.208787e+02
1.620000e-06	5.385277e-06	7.923886e-09	3.841622e+01	5.211945e+02
1.630000e-06	5.389300e-06	7.929381e-09	3.844492e+01	5.213998e+02
1.640000e-06	5.391368e-06	7.931509e-09	3.845967e+01	5.214950e+02
1.650000e-06	5.391414e-06	7.931060e-09	3.846000e+01	5.214790e+02
1.660000e-06	5.389698e-06	7.931177e-09	3.844776e+01	5.213489e+02
1.670000e-06	5.386356e-06	7.928679e-09	3.842392e+01	5.211013e+02
1.680000e-06	5.381291e-06	7.923268e-09	3.838779e+01	5.207328e+02
1.690000e-06	5.374252e-06	7.917590e-09	3.833757e+01	5.202411e+02
1.700000e-06	5.365413e-06	7.911436e-09	3.827452e+01	5.196257e+02
1.710000e-06	5.355081e-06	7.903632e-09	3.820081e+01	5.188884e+02
1.720000e-06	5.343005e-06	7.889880e-09	3.811467e+01	5.180335e+02
1.730000e-06	5.328913e-06	7.866038e-09	3.801414e+01	5.170679e+02
1.740000e-06	5.312748e-06	7.843683e-09	3.789883e+01	5.160000e+02
1.750000e-06	5.294213e-06	7.823557e-09	3.776661e+01	5.148395e+02
1.760000e-06	5.272996e-06	7.820092e-09	3.761525e+01	5.135956e+02
1.770000e-06	5.249629e-06	7.817159e-09	3.744857e+01	5.122763e+02
1.780000e-06	5.225134e-06	7.787857e-09	3.727383e+01	5.108872e+02
1.790000e-06	5.199864e-06	7.767599e-09	3.709356e+01	5.094306e+02
1.800000e-06	5.172967e-06	7.722024e-09	3.690170e+01	5.079051e+02
1.810000e-06	5.143850e-06	7.686807e-09	3.669398e+01	5.063054e+02
1.820000e-06	5.113044e-06	7.678651e-09	3.647423e+01	5.046229e+02
1.830000e-06	5.080551e-06	7.627464e-09	3.624243e+01	5.028467e+02
1.840000e-06	5.046134e-06	7.632214e-09	3.599692e+01	5.009641e+02
1.850000e-06	5.010172e-06	7.675999e-09	3.574038e+01	4.989626e+02
1.860000e-06	4.972396e-06	7.623251e-09	3.547091e+01	4.968310e+02
1.870000e-06	4.932701e-06	7.553711e-09	3.518774e+01	4.945602e+02
1.880000e-06	4.891378e-06	7.495309e-09	3.489296e+01	4.921445e+02
1.890000e-06	4.848249e-06	7.448266e-09	3.458530e+01	4.895820e+02
1.900000e-06	4.803456e-06	7.429578e-09	3.426576e+01	4.868742e+02
1.910000e-06	4.756786e-06	7.377843e-09	3.393284e+01	4.840261e+02
1.920000e-06	4.708094e-06	7.345092e-09	3.358549e+01	4.810450e+02
1.930000e-06	4.657809e-06	7.298753e-09	3.322678e+01	4.779396e+02
1.940000e-06	4.605760e-06	7.236435e-09	3.285549e+01	4.747190e+02
1.950000e-06	4.551678e-06	7.214917e-09	3.246969e+01	4.713913e+02
1.960000e-06	4.495686e-06	7.151184e-09	3.207026e+01	4.679631e+02
1.970000e-06	4.438022e-06	7.080823e-09	3.165892e+01	4.644386e+02
1.980000e-06	4.378965e-06	7.010690e-09	3.123763e+01	4.608194e+02
1.990000e-06	4.318344e-06	6.957965e-09	3.080518e+01	4.571046e+02
2.000000e-06	4.255994e-06	6.946221e-09	3.036041e+01	4.532913e+02
2.010000e-06	4.192077e-06	6.864047e-09	2.990445e+01	4.493750e+02
2.020000e-06	4.126673e-06	6.787666e-09	2.943789e+01	4.453508e+02
2.030000e-06	4.059867e-06	6.728369e-09	2.896132e+01	4.412136e+02
2.040000e-06	3.991664e-06	6.654987e-09	2.847479e+01	4.369594e+02
2.050000e-06	3.921937e-06	6.601371e-09	2.797739e+01	4.325852e+02
2.060000e-06	3.850635e-06	6.541779e-09	2.746875e+01	4.280895e+02
2.070000e-06	3.777984e-06	6.493639e-09	2.695049e+01	4.234726e+02
2.080000e-06	3.704076e-06	6.392857e-09	2.642326e+01	4.187355e+02
2.090000e-06	3.628783e-06	6.285324e-09	2.588616e+01	4.138803e+02
2.100000e-06	3.552038e-06	6.222805e-09	2.533869e+01	4.089091e+02
2.110000e-06	3.473803e-06	6.162958e-09	2.478060e+01	4.038238e+02
2.120000e-06	3.394240e-06	6.096935e-09	2.421303e+01	3.986255e+02
2.130000e-06	3.313490e-06	6.004769e-09	2.363699e+01	3.933142e+02
2.140000e-06	3.231571e-06	5.930127e-09	2.305262e+01	3.878886e+02
2.150000e-06	3.148619e-06	5.844437e-09	2.246088e+01	3.823462e+02
2.160000e-06	3.064682e-06	5.751261e-09	2.186211e+01	3.766838e+02
2.170000e-06	2.979628e-06	5.671105e-09	2.125537e+01	3.708973e+02
2.180000e-06	2.893319e-06	5.574750e-09	2.063967e+01	3.649826e+02
2.190000e-06	2.805812e-06	5.471803e-09	2.001544e+01	3.589357e+02
2.200000e-06	2.717287e-06	5.376193e-09	1.938395e+01	3.527532e+02
2.210000e-06	2.627845e-06	5.302286e-09	1.874590e+01	3.464324e+02
2.220000e-06	2.537501e-06	5.212817e-09	1.810143e+01	3.399714e+02
2.230000e-06	2.446355e-06	5.100535e-09	1.745123e+01	3.333693e+02
2.240000e-06	2.354483e-06	4.988671e-09	1.679586e+01	3.266253e+02
2.250000e-06	2.261705e-06	4.882431e-09	1.613402e+01	3.197396e+02
2.260000e-06	2.168056e-06	4.779376e-09	1.546596e+01	3.127118e+02
2.270000e-06	2.073524e-06	4.677972e-09	1.479162e+01	3.055417e+02
2.280000e-06	1.977984e-06	4.575435e-09	1.411007e+01	2.982286e+02
2.290000e-06	1.881677e-06	4.452994e-09	1.342307e+01	2.907712e+02
2.300000e-06	1.784962e-06	4.320986e-09	1.273314e+01	2.831674e+02
2.310000e-06	1.687845e-06	4.199477e-09	1.204035e+01	2.754147e+02
2.320000e-06	1.590121e-06	4.091498e-09	1.134323e+01	2.675097e+02
2.330000e-06	1.491824e-06	3.980286e-09	1.064202e+01	2.594489e+02
2.340000e-06	1.393035e-06	3.854973e-09	9.937302e+00	2.512281e+02
2.350000e-06	1.293838e-06	3.721895e-09	9.229674e+00	2.428430e+02
2.360000e-06	1.194345e-06	3.587867e-09	8.519936e+00	2.342889e+02
2.370000e-06	1.094560e-06	3.456071e-09	7.808112e+00	2.255610e+02
2.380000e-06	9.944192e-07	3.324589e-09	7.093754e+00	2.166543e+02
2.390000e-06	8.939148e-07	3.187555e-09	6.376799e+00	2.075636e+02
2.400000e-06	7.930866e-07	3.043115e-09	5.657534e+00	1.982835e+02
2.410000e-06	6.919336e-07	2.898588e-09	4.935953e+00	1.888085e+02
2.420000e-06	5.904076e-07	2.754947e-09	4.211711e+00	1.791329e+02
2.430000e-06	4.885829e-07	2.610554e-09	3.485338e+00	1.692510e+02
2.440000e-06	3.866183e-07	2.458918e-09	2.757966e+00	1.591574e+02
2.450000e-06	2.845097e-07	2.297481e-09	2.029568e+00	1.488465e+02
2.460000e-06	1.822333e-07	2.131063e-09	1.299973e+00	1.383131e+02
2.470000e-06	7.977258e-08	1.966770e-09	5.690628e-01	1.275521e+02
2.480000e-06	-2.280233e-08	1.806463e-09	-1.626619e-01	1.165580e+02
2.490000e-06	-1.253396e-07	1.641822e-09	-8.941179e-01	1.053253e+02
2.500000e-06	-2.277766e-07	1.465923e-09	-1.624859e+00	9.384788e+01
2.510000e-06	-3.301308e-07	1.282840e-09	-2.355009e+00	8.211868e+01
2.520000e-06	-4.324284e-07	1.098786e-09	-3.084756e+00	7.012976e+01
2.530000e-06	-5.345606e-07	9.126102e-10	-3.813322e+00	5.787223e+01
2.540000e-06	-6.363530e-07	7.233497e-10	-4.539465e+00	4.533655e+01
2.550000e-06	-7.377862e-07	5.273765e-10	-5.263045e+00	3.251315e+01
2.560000e-06	-8.388853e-07	3.213741e-10	-5.984242e+00	1.939344e+01
2.570000e-06	-9.395500e-07	1.087072e-10	-6.702340e+00	5.971028e+00
2.580000e-06	-1.039803e-06	-1.049239e-10	-7.417502e+00	-7.756627e+00
2.590000e-06	-1.139770e-06	-3.178075e-10	-8.130626e+00	-2.178657e+01
2.600000e-06	-1.239452e-06	-5.331117e-10	-8.841713e+00	-3.610862e+01
2.610000e-06	-1.338705e-06	-7.576869e-10	-9.549738e+00	-5.070394e+01
2.620000e-06	-1.437462e-06	-9.884699e-10	-1.025423e+01	-6.554389e+01
2.630000e-06	-1.535690e-06	-1.217880e-09	-1.095494e+01	-8.058959e+01
2.640000e-06	-1.633357e-06	-1.445573e-09	-1.165166e+01	-9.579211e+01
2.650000e-06	-1.730454e-06	-1.676448e-09	-1.234430e+01	-1.110934e+02
2.660000e-06	-1.826965e-06	-1.914017e-09	-1.303277e+01	-1.264283e+02
2.670000e-06	-1.922977e-06	-2.153389e-09	-1.371768e+01	-1.417265e+02
2.680000e-06	-2.018430e-06	-2.389702e-09	-1.439860e+01	-1.569159e+02
2.690000e-06	-2.113104e-06	-2.619524e-09	-1.507397e+01	-1.719256e+02
2.700000e-06	-2.206791e-06	-2.842410e-09	-1.574229e+01	-1.866892e+02
2.710000e-06	-2.299419e-06	-3.062455e-09	-1.640305e+01	-2.011474e+02
2.720000e-06	-2.391202e-06	-3.281501e-09	-1.705779e+01	-2.152505e+02
2.730000e-06	-2.482225e-06	-3.494589e-09	-1.770711e+01	-2.289600e+02
2.740000e-06	-2.572329e-06	-3.697292e-09	-1.834987e+01	-2.422491e+02
2.750000e-06	-2.661511e-06	-3.892223e-09	-1.898606e+01	-2.551023e+02
2.760000e-06	-2.749884e-06	-4.083042e-09	-1.961647e+01	-2.675144e+02
2.770000e-06	-2.837521e-06	-4.270269e-09	-2.024164e+01	-2.794887e+02
2.780000e-06	-2.924204e-06	-4.451277e-09	-2.085999e+01	-2.910346e+02
2.790000e-06	-3.009583e-06	-4.620711e-09	-2.146905e+01	-3.021652e+02
2.800000e-06	-3.093765e-06	-4.779019e-09	-2.206957e+01	-3.128947e+02
2.810000e-06	-3.177009e-06	-4.931998e-09	-2.266340e+01	-3.232369e+02
2.820000e-06	-3.259197e-06	-5.081822e-09	-2.324969e+01	-3.332032e+02
2.830000e-06	-3.340233e-06	-5.228296e-09	-2.382776e+01	-3.428021e+02
2.840000e-06	-3.420251e-06	-5.370545e-09	-2.439858e+01	-3.520392e+02
2.850000e-06	-3.499045e-06	-5.507785e-09	-2.496066e+01	-3.609177e+02
2.860000e-06	-3.576264e-06	-5.639792e-09	-2.551151e+01	-3.694393e+02
2.870000e-06	-3.651983e-06	-5.766779e-09	-2.605165e+01	-3.776060e+02
2.880000e-06	-3.726293e-06	-5.889625e-09	-2.658175e+01	-3.854210e+02
2.890000e-06	-3.799239e-06	-6.006136e-09	-2.710212e+01	-3.928903e+02
2.900000e-06	-3.870966e-06	-6.115279e-09	-2.761378e+01	-4.000234e+02
2.910000e-06	-3.941220e-06	-6.218701e-09	-2.811495e+01	-4.068335e+02
2.920000e-06	-4.009849e-06	-6.317426e-09	-2.860452e+01	-4.133374e+02
2.930000e-06	-4.077069e-06	-6.412656e-09	-2.908403e+01	-4.195548e+02
2.940000e-06	-4.142852e-06	-6.505074e-09	-2.955330e+01	-4.255071e+02
