# Temperatura_=_57.3
# Concentracion g/m^3_=_15000.0
# C_Vs_to_Am_M_A/Vsm_=_65563218390.804596
# pendiente_HvsI_1/m_=_3716.3
# ordenada_HvsI_A/m_=_1297.0
# frecuencia_Hz_=_301599.02808051056

Tiempo_(s)	Campo_(V.s)	Magnetizacion_(V.s)	Campo_(kA/m)	Magnetizacion_(A/m)
0.000000e+00	-5.371466e-06	-6.511242e-09	-3.833467e+01	-4.251225e+02
1.000000e-08	-5.368660e-06	-6.507274e-09	-3.831464e+01	-4.249658e+02
2.000000e-08	-5.364088e-06	-6.499919e-09	-3.828201e+01	-4.247029e+02
3.000000e-08	-5.357916e-06	-6.490485e-09	-3.823796e+01	-4.243333e+02
4.000000e-08	-5.350179e-06	-6.481812e-09	-3.818274e+01	-4.238595e+02
5.000000e-08	-5.340651e-06	-6.473847e-09	-3.811475e+01	-4.232876e+02
6.000000e-08	-5.328996e-06	-6.466322e-09	-3.803157e+01	-4.226265e+02
7.000000e-08	-5.315358e-06	-6.461738e-09	-3.793424e+01	-4.218877e+02
8.000000e-08	-5.299672e-06	-6.448757e-09	-3.782229e+01	-4.210836e+02
9.000000e-08	-5.281765e-06	-6.447035e-09	-3.769449e+01	-4.202262e+02
1.000000e-07	-5.261893e-06	-6.448105e-09	-3.755267e+01	-4.193258e+02
1.100000e-07	-5.240154e-06	-6.415870e-09	-3.739753e+01	-4.183895e+02
1.200000e-07	-5.216681e-06	-6.384255e-09	-3.723001e+01	-4.174204e+02
1.300000e-07	-5.191691e-06	-6.361373e-09	-3.705166e+01	-4.164166e+02
1.400000e-07	-5.165059e-06	-6.303427e-09	-3.686159e+01	-4.153718e+02
1.500000e-07	-5.136773e-06	-6.315762e-09	-3.665972e+01	-4.142754e+02
1.600000e-07	-5.107074e-06	-6.330270e-09	-3.644777e+01	-4.131138e+02
1.700000e-07	-5.075862e-06	-6.290711e-09	-3.622502e+01	-4.118720e+02
1.800000e-07	-5.042547e-06	-6.308457e-09	-3.598726e+01	-4.105347e+02
1.900000e-07	-5.007282e-06	-6.249205e-09	-3.573558e+01	-4.090884e+02
2.000000e-07	-4.970582e-06	-6.152691e-09	-3.547367e+01	-4.075225e+02
2.100000e-07	-4.932159e-06	-6.152903e-09	-3.519945e+01	-4.058300e+02
2.200000e-07	-4.891962e-06	-6.143847e-09	-3.491257e+01	-4.040087e+02
2.300000e-07	-4.849843e-06	-6.114288e-09	-3.461199e+01	-4.020606e+02
2.400000e-07	-4.805754e-06	-6.089556e-09	-3.429734e+01	-3.999912e+02
2.500000e-07	-4.759951e-06	-6.052473e-09	-3.397045e+01	-3.978090e+02
2.600000e-07	-4.712293e-06	-6.026145e-09	-3.363033e+01	-3.955241e+02
2.700000e-07	-4.662561e-06	-5.974998e-09	-3.327541e+01	-3.931466e+02
2.800000e-07	-4.610686e-06	-5.954336e-09	-3.290519e+01	-3.906857e+02
2.900000e-07	-4.556879e-06	-5.914267e-09	-3.252119e+01	-3.881485e+02
3.000000e-07	-4.501499e-06	-5.848847e-09	-3.212595e+01	-3.855395e+02
3.100000e-07	-4.444569e-06	-5.843945e-09	-3.171966e+01	-3.828602e+02
3.200000e-07	-4.385803e-06	-5.810886e-09	-3.130026e+01	-3.801090e+02
3.300000e-07	-4.325368e-06	-5.748334e-09	-3.086896e+01	-3.772826e+02
3.400000e-07	-4.263458e-06	-5.691727e-09	-3.042712e+01	-3.743756e+02
3.500000e-07	-4.200188e-06	-5.632281e-09	-2.997558e+01	-3.713822e+02
3.600000e-07	-4.135538e-06	-5.595256e-09	-2.951419e+01	-3.682968e+02
3.700000e-07	-4.069140e-06	-5.569611e-09	-2.904033e+01	-3.651144e+02
3.800000e-07	-4.001107e-06	-5.529488e-09	-2.855479e+01	-3.618318e+02
3.900000e-07	-3.931772e-06	-5.461365e-09	-2.805997e+01	-3.584469e+02
4.000000e-07	-3.861200e-06	-5.386041e-09	-2.755631e+01	-3.549595e+02
4.100000e-07	-3.789460e-06	-5.327098e-09	-2.704433e+01	-3.513704e+02
4.200000e-07	-3.716336e-06	-5.275775e-09	-2.652246e+01	-3.476813e+02
4.300000e-07	-3.641566e-06	-5.237235e-09	-2.598885e+01	-3.438939e+02
4.400000e-07	-3.565285e-06	-5.190138e-09	-2.544445e+01	-3.400100e+02
4.500000e-07	-3.487662e-06	-5.128816e-09	-2.489048e+01	-3.360305e+02
4.600000e-07	-3.408631e-06	-5.055364e-09	-2.432646e+01	-3.319555e+02
4.700000e-07	-3.328146e-06	-4.983257e-09	-2.375206e+01	-3.277842e+02
4.800000e-07	-3.246457e-06	-4.927614e-09	-2.316906e+01	-3.235149e+02
4.900000e-07	-3.163678e-06	-4.859729e-09	-2.257829e+01	-3.191456e+02
5.000000e-07	-3.079909e-06	-4.783194e-09	-2.198046e+01	-3.146736e+02
5.100000e-07	-2.995294e-06	-4.709776e-09	-2.137658e+01	-3.100968e+02
5.200000e-07	-2.909696e-06	-4.643406e-09	-2.076569e+01	-3.054128e+02
5.300000e-07	-2.823050e-06	-4.572638e-09	-2.014732e+01	-3.006201e+02
5.400000e-07	-2.735486e-06	-4.496395e-09	-1.952241e+01	-2.957174e+02
5.500000e-07	-2.647061e-06	-4.417102e-09	-1.889134e+01	-2.907037e+02
5.600000e-07	-2.557499e-06	-4.331321e-09	-1.825216e+01	-2.855783e+02
5.700000e-07	-2.466702e-06	-4.253116e-09	-1.760417e+01	-2.803403e+02
5.800000e-07	-2.375013e-06	-4.185008e-09	-1.694981e+01	-2.749885e+02
5.900000e-07	-2.282632e-06	-4.109769e-09	-1.629051e+01	-2.695211e+02
6.000000e-07	-2.189468e-06	-4.014298e-09	-1.562562e+01	-2.639361e+02
6.100000e-07	-2.095508e-06	-3.915037e-09	-1.495506e+01	-2.582311e+02
6.200000e-07	-2.000802e-06	-3.822440e-09	-1.427917e+01	-2.524034e+02
6.300000e-07	-1.905394e-06	-3.733778e-09	-1.359827e+01	-2.464506e+02
6.400000e-07	-1.809355e-06	-3.649463e-09	-1.291286e+01	-2.403704e+02
6.500000e-07	-1.712626e-06	-3.564240e-09	-1.222254e+01	-2.341615e+02
6.600000e-07	-1.615133e-06	-3.467981e-09	-1.152676e+01	-2.278230e+02
6.700000e-07	-1.516865e-06	-3.357510e-09	-1.082545e+01	-2.213548e+02
6.800000e-07	-1.417946e-06	-3.248129e-09	-1.011949e+01	-2.147572e+02
6.900000e-07	-1.318535e-06	-3.148382e-09	-9.410021e+00	-2.080307e+02
7.000000e-07	-1.218704e-06	-3.049357e-09	-8.697554e+00	-2.011752e+02
7.100000e-07	-1.118571e-06	-2.942630e-09	-7.982930e+00	-1.941896e+02
7.200000e-07	-1.018173e-06	-2.830770e-09	-7.266421e+00	-1.870714e+02
7.300000e-07	-9.175260e-07	-2.718194e-09	-6.548129e+00	-1.798164e+02
7.400000e-07	-8.166207e-07	-2.605663e-09	-5.827996e+00	-1.724182e+02
7.500000e-07	-7.153352e-07	-2.493288e-09	-5.105149e+00	-1.648689e+02
7.600000e-07	-6.137246e-07	-2.377795e-09	-4.379983e+00	-1.571587e+02
7.700000e-07	-5.119131e-07	-2.256459e-09	-3.653382e+00	-1.492773e+02
7.800000e-07	-4.099554e-07	-2.131379e-09	-2.925738e+00	-1.412138e+02
7.900000e-07	-3.079172e-07	-2.006828e-09	-2.197520e+00	-1.329581e+02
8.000000e-07	-2.057681e-07	-1.881046e-09	-1.468510e+00	-1.245010e+02
8.100000e-07	-1.035114e-07	-1.749934e-09	-7.387324e-01	-1.158351e+02
8.200000e-07	-1.193660e-09	-1.611727e-09	-8.518820e-03	-1.069549e+02
8.300000e-07	1.011494e-07	-1.467741e-09	7.218751e-01	-9.785642e+01
8.400000e-07	2.034605e-07	-1.322647e-09	1.452041e+00	-8.853728e+01
8.500000e-07	3.056995e-07	-1.180249e-09	2.181693e+00	-7.899575e+01
8.600000e-07	4.078377e-07	-1.035712e-09	2.910624e+00	-6.923021e+01
8.700000e-07	5.098315e-07	-8.819423e-10	3.638526e+00	-5.923845e+01
8.800000e-07	6.117148e-07	-7.195459e-10	4.365639e+00	-4.901720e+01
8.900000e-07	7.134600e-07	-5.546021e-10	5.091766e+00	-3.856196e+01
9.000000e-07	8.149371e-07	-3.898198e-10	5.815980e+00	-2.786729e+01
9.100000e-07	9.160544e-07	-2.224048e-10	6.537626e+00	-1.692756e+01
9.200000e-07	1.016803e-06	-5.247061e-11	7.256644e+00	-5.738131e+00
9.300000e-07	1.117264e-06	1.217397e-10	7.973605e+00	5.703098e+00
9.400000e-07	1.217438e-06	3.010304e-10	8.688516e+00	1.739396e+01
9.500000e-07	1.317264e-06	4.827791e-10	9.400950e+00	2.932629e+01
9.600000e-07	1.416618e-06	6.644299e-10	1.011001e+01	4.148448e+01
9.700000e-07	1.515303e-06	8.483809e-10	1.081430e+01	5.384438e+01
9.800000e-07	1.613298e-06	1.037960e-09	1.151366e+01	6.637294e+01
9.900000e-07	1.710623e-06	1.231807e-09	1.220825e+01	7.902852e+01
1.000000e-06	1.807173e-06	1.424208e-09	1.289729e+01	9.176193e+01
1.010000e-06	1.902939e-06	1.614263e-09	1.358075e+01	1.045182e+02
1.020000e-06	1.998038e-06	1.804969e-09	1.425944e+01	1.172390e+02
1.030000e-06	2.092552e-06	1.995816e-09	1.493397e+01	1.298651e+02
1.040000e-06	2.186345e-06	2.185493e-09	1.560334e+01	1.423390e+02
1.050000e-06	2.279323e-06	2.371224e-09	1.626690e+01	1.546077e+02
1.060000e-06	2.371615e-06	2.552252e-09	1.692556e+01	1.666247e+02
1.070000e-06	2.463229e-06	2.727843e-09	1.757938e+01	1.783513e+02
1.080000e-06	2.553927e-06	2.899607e-09	1.822667e+01	1.897574e+02
1.090000e-06	2.643487e-06	3.070240e-09	1.886583e+01	2.008216e+02
1.100000e-06	2.731902e-06	3.238828e-09	1.949683e+01	2.115301e+02
1.110000e-06	2.819327e-06	3.400316e-09	2.012076e+01	2.218762e+02
1.120000e-06	2.905889e-06	3.552931e-09	2.073852e+01	2.318580e+02
1.130000e-06	2.991500e-06	3.697589e-09	2.134951e+01	2.414774e+02
1.140000e-06	3.076151e-06	3.837707e-09	2.195363e+01	2.507381e+02
1.150000e-06	3.159932e-06	3.973563e-09	2.255156e+01	2.596449e+02
1.160000e-06	3.242726e-06	4.103739e-09	2.314244e+01	2.682026e+02
1.170000e-06	3.324275e-06	4.226816e-09	2.372443e+01	2.764159e+02
1.180000e-06	3.404573e-06	4.342948e-09	2.429750e+01	2.842897e+02
1.190000e-06	3.483696e-06	4.455475e-09	2.486217e+01	2.918295e+02
1.200000e-06	3.561554e-06	4.565650e-09	2.541782e+01	2.990420e+02
1.210000e-06	3.638133e-06	4.672795e-09	2.596435e+01	3.059362e+02
1.220000e-06	3.713312e-06	4.772663e-09	2.650088e+01	3.125235e+02
1.230000e-06	3.786968e-06	4.863925e-09	2.702654e+01	3.188181e+02
1.240000e-06	3.859095e-06	4.950479e-09	2.754129e+01	3.248369e+02
1.250000e-06	3.929807e-06	5.038056e-09	2.804594e+01	3.305987e+02
1.260000e-06	3.999163e-06	5.125463e-09	2.854092e+01	3.361234e+02
1.270000e-06	4.067166e-06	5.208087e-09	2.902624e+01	3.414306e+02
1.280000e-06	4.133698e-06	5.285191e-09	2.950106e+01	3.465385e+02
1.290000e-06	4.198545e-06	5.360569e-09	2.996385e+01	3.514623e+02
1.300000e-06	4.261838e-06	5.433922e-09	3.041556e+01	3.562136e+02
1.310000e-06	4.323693e-06	5.504433e-09	3.085700e+01	3.607998e+02
1.320000e-06	4.384160e-06	5.572526e-09	3.128854e+01	3.652238e+02
1.330000e-06	4.443224e-06	5.635409e-09	3.171006e+01	3.694850e+02
1.340000e-06	4.500550e-06	5.694957e-09	3.211918e+01	3.735793e+02
1.350000e-06	4.556103e-06	5.752249e-09	3.251565e+01	3.775014e+02
1.360000e-06	4.610062e-06	5.807765e-09	3.290074e+01	3.812451e+02
1.370000e-06	4.662294e-06	5.860179e-09	3.327350e+01	3.848054e+02
1.380000e-06	4.712504e-06	5.907757e-09	3.363184e+01	3.881793e+02
1.390000e-06	4.760719e-06	5.953943e-09	3.397593e+01	3.913665e+02
1.400000e-06	4.807260e-06	6.000703e-09	3.430808e+01	3.943698e+02
1.410000e-06	4.852243e-06	6.045145e-09	3.462912e+01	3.971950e+02
1.420000e-06	4.895672e-06	6.084708e-09	3.493905e+01	3.998501e+02
1.430000e-06	4.937273e-06	6.120367e-09	3.523595e+01	4.023448e+02
1.440000e-06	4.976977e-06	6.153819e-09	3.551931e+01	4.046890e+02
1.450000e-06	5.015025e-06	6.185408e-09	3.579085e+01	4.068920e+02
1.460000e-06	5.051479e-06	6.214910e-09	3.605101e+01	4.089618e+02
1.470000e-06	5.086227e-06	6.243787e-09	3.629900e+01	4.109043e+02
1.480000e-06	5.119047e-06	6.270695e-09	3.653322e+01	4.127229e+02
1.490000e-06	5.150033e-06	6.294702e-09	3.675436e+01	4.144194e+02
1.500000e-06	5.179327e-06	6.317092e-09	3.696342e+01	4.159936e+02
1.510000e-06	5.206897e-06	6.337812e-09	3.716018e+01	4.174449e+02
1.520000e-06	5.232462e-06	6.357403e-09	3.734263e+01	4.187725e+02
1.530000e-06	5.255961e-06	6.375591e-09	3.751034e+01	4.199768e+02
1.540000e-06	5.277675e-06	6.391969e-09	3.766531e+01	4.210593e+02
1.550000e-06	5.297694e-06	6.407058e-09	3.780817e+01	4.220234e+02
1.560000e-06	5.315831e-06	6.420123e-09	3.793762e+01	4.228742e+02
1.570000e-06	5.331943e-06	6.430712e-09	3.805260e+01	4.236179e+02
1.580000e-06	5.346131e-06	6.440855e-09	3.815385e+01	4.242614e+02
1.590000e-06	5.358304e-06	6.451817e-09	3.824073e+01	4.248112e+02
1.600000e-06	5.368268e-06	6.461357e-09	3.831184e+01	4.252725e+02
1.610000e-06	5.376147e-06	6.468607e-09	3.836807e+01	4.256487e+02
1.620000e-06	5.382134e-06	6.474520e-09	3.841080e+01	4.259408e+02
1.630000e-06	5.386345e-06	6.479420e-09	3.844085e+01	4.261473e+02
1.640000e-06	5.388693e-06	6.481980e-09	3.845761e+01	4.262649e+02
1.650000e-06	5.389028e-06	6.482732e-09	3.846000e+01	4.262884e+02
1.660000e-06	5.387527e-06	6.483325e-09	3.844929e+01	4.262128e+02
1.670000e-06	5.384394e-06	6.480033e-09	3.842693e+01	4.260333e+02
1.680000e-06	5.379564e-06	6.476352e-09	3.839246e+01	4.257473e+02
1.690000e-06	5.372750e-06	6.473552e-09	3.834383e+01	4.253548e+02
1.700000e-06	5.364131e-06	6.469663e-09	3.828232e+01	4.248592e+02
1.710000e-06	5.354028e-06	6.463785e-09	3.821021e+01	4.242671e+02
1.720000e-06	5.342192e-06	6.451866e-09	3.812574e+01	4.235882e+02
1.730000e-06	5.328357e-06	6.444061e-09	3.802701e+01	4.228341e+02
1.740000e-06	5.312478e-06	6.420655e-09	3.791368e+01	4.220174e+02
1.750000e-06	5.294258e-06	6.389631e-09	3.778365e+01	4.211498e+02
1.760000e-06	5.273331e-06	6.393146e-09	3.763430e+01	4.202411e+02
1.770000e-06	5.250106e-06	6.381036e-09	3.746855e+01	4.192975e+02
1.780000e-06	5.225676e-06	6.372865e-09	3.729420e+01	4.183211e+02
1.790000e-06	5.200593e-06	6.386499e-09	3.711519e+01	4.173090e+02
1.800000e-06	5.174081e-06	6.314730e-09	3.692598e+01	4.162539e+02
1.810000e-06	5.145306e-06	6.303300e-09	3.672062e+01	4.151446e+02
1.820000e-06	5.114716e-06	6.305270e-09	3.650231e+01	4.139669e+02
1.830000e-06	5.082493e-06	6.219632e-09	3.627235e+01	4.127057e+02
1.840000e-06	5.048294e-06	6.276945e-09	3.602827e+01	4.113459e+02
1.850000e-06	5.012499e-06	6.319573e-09	3.577282e+01	4.098746e+02
1.860000e-06	4.974954e-06	6.247589e-09	3.550487e+01	4.082817e+02
1.870000e-06	4.935474e-06	6.227565e-09	3.522311e+01	4.065615e+02
1.880000e-06	4.894330e-06	6.150526e-09	3.492948e+01	4.047126e+02
1.890000e-06	4.851365e-06	6.110630e-09	3.462285e+01	4.027376e+02
1.900000e-06	4.806837e-06	6.107865e-09	3.430506e+01	4.006431e+02
1.910000e-06	4.760569e-06	6.059786e-09	3.397486e+01	3.984378e+02
1.920000e-06	4.712150e-06	6.087441e-09	3.362931e+01	3.961320e+02
1.930000e-06	4.662067e-06	6.005848e-09	3.327188e+01	3.937358e+02
1.940000e-06	4.610309e-06	5.943890e-09	3.290250e+01	3.912579e+02
1.950000e-06	4.556482e-06	5.962379e-09	3.251835e+01	3.887048e+02
1.960000e-06	4.500721e-06	5.874380e-09	3.212040e+01	3.860805e+02
1.970000e-06	4.443291e-06	5.837855e-09	3.171054e+01	3.833858e+02
1.980000e-06	4.384413e-06	5.787298e-09	3.129034e+01	3.806187e+02
1.990000e-06	4.324088e-06	5.756943e-09	3.085982e+01	3.777753e+02
2.000000e-06	4.262147e-06	5.759943e-09	3.041777e+01	3.748501e+02
2.010000e-06	4.198538e-06	5.666784e-09	2.996380e+01	3.718372e+02
2.020000e-06	4.133400e-06	5.623546e-09	2.949893e+01	3.687312e+02
2.030000e-06	4.066843e-06	5.561215e-09	2.902394e+01	3.655274e+02
2.040000e-06	3.998864e-06	5.503643e-09	2.853878e+01	3.622228e+02
2.050000e-06	3.929421e-06	5.479285e-09	2.804319e+01	3.588157e+02
2.060000e-06	3.858398e-06	5.438792e-09	2.753632e+01	3.553062e+02
2.070000e-06	3.785977e-06	5.410127e-09	2.701947e+01	3.516954e+02
2.080000e-06	3.712359e-06	5.305617e-09	2.649407e+01	3.479848e+02
2.090000e-06	3.637373e-06	5.222867e-09	2.595892e+01	3.441765e+02
2.100000e-06	3.560955e-06	5.170054e-09	2.541355e+01	3.402718e+02
2.110000e-06	3.483015e-06	5.127611e-09	2.485731e+01	3.362717e+02
2.120000e-06	3.403629e-06	5.084501e-09	2.429076e+01	3.321759e+02
2.130000e-06	3.323045e-06	5.004889e-09	2.371565e+01	3.279836e+02
2.140000e-06	3.241374e-06	4.949628e-09	2.313279e+01	3.236929e+02
2.150000e-06	3.158640e-06	4.871959e-09	2.254234e+01	3.193016e+02
2.160000e-06	3.074895e-06	4.802583e-09	2.194468e+01	3.148071e+02
2.170000e-06	2.990121e-06	4.740890e-09	2.133967e+01	3.102073e+02
2.180000e-06	2.904030e-06	4.667924e-09	2.072526e+01	3.055000e+02
2.190000e-06	2.816649e-06	4.586886e-09	2.010165e+01	3.006836e+02
2.200000e-06	2.728319e-06	4.502805e-09	1.947125e+01	2.957570e+02
2.210000e-06	2.639081e-06	4.446617e-09	1.883439e+01	2.907193e+02
2.220000e-06	2.548893e-06	4.375007e-09	1.819074e+01	2.855696e+02
2.230000e-06	2.457850e-06	4.283238e-09	1.754100e+01	2.803071e+02
2.240000e-06	2.366055e-06	4.190547e-09	1.688588e+01	2.749305e+02
2.250000e-06	2.273537e-06	4.111334e-09	1.622560e+01	2.694379e+02
2.260000e-06	2.180233e-06	4.033604e-09	1.555972e+01	2.638273e+02
2.270000e-06	2.085907e-06	3.953054e-09	1.488654e+01	2.580960e+02
2.280000e-06	1.990513e-06	3.866499e-09	1.420574e+01	2.522415e+02
2.290000e-06	1.894387e-06	3.762514e-09	1.351971e+01	2.462613e+02
2.300000e-06	1.797767e-06	3.653085e-09	1.283016e+01	2.401535e+02
2.310000e-06	1.700658e-06	3.552659e-09	1.213712e+01	2.339166e+02
2.320000e-06	1.602997e-06	3.472821e-09	1.144015e+01	2.275501e+02
2.330000e-06	1.504818e-06	3.390186e-09	1.073947e+01	2.210539e+02
2.340000e-06	1.406141e-06	3.289412e-09	1.003524e+01	2.144286e+02
2.350000e-06	1.306970e-06	3.177952e-09	9.327480e+00	2.076742e+02
2.360000e-06	1.207414e-06	3.068062e-09	8.616981e+00	2.007908e+02
2.370000e-06	1.107593e-06	2.962285e-09	7.904582e+00	1.937768e+02
2.380000e-06	1.007533e-06	2.858321e-09	7.190482e+00	1.866296e+02
2.390000e-06	9.071331e-07	2.751625e-09	6.473958e+00	1.793443e+02
2.400000e-06	8.063644e-07	2.635446e-09	5.754800e+00	1.719143e+02
2.410000e-06	7.053035e-07	2.514778e-09	5.033556e+00	1.643311e+02
2.420000e-06	6.040014e-07	2.393748e-09	4.310591e+00	1.565850e+02
2.430000e-06	5.024516e-07	2.276969e-09	3.585858e+00	1.486652e+02
2.440000e-06	4.007116e-07	2.156365e-09	2.859768e+00	1.405612e+02
2.450000e-06	2.988170e-07	2.025266e-09	2.132574e+00	1.322628e+02
2.460000e-06	1.966790e-07	1.890386e-09	1.403644e+00	1.237614e+02
2.470000e-06	9.436329e-08	1.759592e-09	6.734447e-01	1.150498e+02
2.480000e-06	-7.991269e-09	1.630873e-09	-5.703147e-02	1.061229e+02
2.490000e-06	-1.103260e-07	1.495949e-09	-7.873661e-01	9.697709e+01
2.500000e-06	-2.126691e-07	1.350591e-09	-1.517761e+00	8.761023e+01
2.510000e-06	-3.149022e-07	1.198791e-09	-2.247370e+00	7.802065e+01
2.520000e-06	-4.169466e-07	1.048732e-09	-2.975633e+00	6.820665e+01
2.530000e-06	-5.188988e-07	8.998910e-10	-3.703237e+00	5.816584e+01
2.540000e-06	-6.206694e-07	7.502223e-10	-4.429546e+00	4.789468e+01
2.550000e-06	-7.221084e-07	5.947709e-10	-5.153488e+00	3.738841e+01
2.560000e-06	-8.231995e-07	4.286961e-10	-5.874947e+00	2.664150e+01
2.570000e-06	-9.239289e-07	2.566218e-10	-6.593825e+00	1.564840e+01
2.580000e-06	-1.024337e-06	8.648791e-11	-7.310412e+00	4.404881e+00
2.590000e-06	-1.124486e-06	-8.173760e-11	-8.025143e+00	-7.090395e+00
2.600000e-06	-1.224215e-06	-2.576918e-10	-8.736884e+00	-1.883411e+01
2.610000e-06	-1.323444e-06	-4.450572e-10	-9.445052e+00	-3.081663e+01
2.620000e-06	-1.422216e-06	-6.361487e-10	-1.014996e+01	-4.302057e+01
2.630000e-06	-1.520525e-06	-8.264665e-10	-1.085157e+01	-5.541989e+01
2.640000e-06	-1.618303e-06	-1.017317e-09	-1.154938e+01	-6.797964e+01
2.650000e-06	-1.715491e-06	-1.210116e-09	-1.224299e+01	-8.065646e+01
2.660000e-06	-1.812156e-06	-1.407324e-09	-1.293285e+01	-9.339976e+01
2.670000e-06	-1.908328e-06	-1.607893e-09	-1.361921e+01	-1.061536e+02
2.680000e-06	-2.003874e-06	-1.808497e-09	-1.430109e+01	-1.188593e+02
2.690000e-06	-2.098618e-06	-2.003337e-09	-1.497726e+01	-1.314576e+02
2.700000e-06	-2.192449e-06	-2.193094e-09	-1.564690e+01	-1.438920e+02
2.710000e-06	-2.285318e-06	-2.381808e-09	-1.630968e+01	-1.561107e+02
2.720000e-06	-2.377266e-06	-2.567441e-09	-1.696589e+01	-1.680686e+02
2.730000e-06	-2.468361e-06	-2.745477e-09	-1.761601e+01	-1.797290e+02
2.740000e-06	-2.558604e-06	-2.912239e-09	-1.826005e+01	-1.910635e+02
2.750000e-06	-2.647931e-06	-3.073696e-09	-1.889755e+01	-2.020526e+02
2.760000e-06	-2.736437e-06	-3.234013e-09	-1.952919e+01	-2.126840e+02
2.770000e-06	-2.824163e-06	-3.393116e-09	-2.015527e+01	-2.229523e+02
2.780000e-06	-2.910922e-06	-3.549211e-09	-2.077444e+01	-2.328564e+02
2.790000e-06	-2.996480e-06	-3.696299e-09	-2.138505e+01	-2.423987e+02
2.800000e-06	-3.080822e-06	-3.833509e-09	-2.198697e+01	-2.515834e+02
2.810000e-06	-3.164119e-06	-3.964905e-09	-2.258144e+01	-2.604151e+02
2.820000e-06	-3.246358e-06	-4.095521e-09	-2.316836e+01	-2.688988e+02
2.830000e-06	-3.327516e-06	-4.224729e-09	-2.374756e+01	-2.770391e+02
2.840000e-06	-3.407655e-06	-4.348293e-09	-2.431949e+01	-2.848411e+02
2.850000e-06	-3.486628e-06	-4.464701e-09	-2.488310e+01	-2.923103e+02
2.860000e-06	-3.564129e-06	-4.572839e-09	-2.543620e+01	-2.994540e+02
2.870000e-06	-3.640044e-06	-4.675921e-09	-2.597798e+01	-3.062815e+02
2.880000e-06	-3.714475e-06	-4.775887e-09	-2.650918e+01	-3.128050e+02
2.890000e-06	-3.787630e-06	-4.871663e-09	-2.703127e+01	-3.190392e+02
2.900000e-06	-3.859544e-06	-4.962957e-09	-2.754450e+01	-3.250014e+02
2.910000e-06	-3.929951e-06	-5.049713e-09	-2.804697e+01	-3.307110e+02
2.920000e-06	-3.998723e-06	-5.135181e-09	-2.853778e+01	-3.361876e+02
2.930000e-06	-4.066053e-06	-5.218257e-09	-2.901829e+01	-3.414509e+02
2.940000e-06	-4.132018e-06	-5.296964e-09	-2.948907e+01	-3.465183e+02
