# Temperatura_=_26.88
# Concentracion g/m^3_=_15000.0
# C_Vs_to_Am_M_A/Vsm_=_65563218390.804596
# pendiente_HvsI_1/m_=_3716.3
# ordenada_HvsI_A/m_=_1297.0
# frecuencia_Hz_=_301591.0534640522

Tiempo_(s)	Campo_(V.s)	Magnetizacion_(V.s)	Campo_(kA/m)	Magnetizacion_(A/m)
0.000000e+00	-5.375219e-06	-5.617907e-09	-3.833753e+01	-3.671844e+02
1.000000e-08	-5.372600e-06	-5.616892e-09	-3.831885e+01	-3.670775e+02
2.000000e-08	-5.368142e-06	-5.612426e-09	-3.828706e+01	-3.668921e+02
3.000000e-08	-5.362129e-06	-5.608982e-09	-3.824417e+01	-3.666258e+02
4.000000e-08	-5.354581e-06	-5.605098e-09	-3.819034e+01	-3.662774e+02
5.000000e-08	-5.345192e-06	-5.597584e-09	-3.812337e+01	-3.658475e+02
6.000000e-08	-5.333747e-06	-5.586958e-09	-3.804174e+01	-3.653391e+02
7.000000e-08	-5.320388e-06	-5.569193e-09	-3.794646e+01	-3.647572e+02
8.000000e-08	-5.305000e-06	-5.555989e-09	-3.783671e+01	-3.641090e+02
9.000000e-08	-5.287400e-06	-5.599113e-09	-3.771118e+01	-3.634029e+02
1.000000e-07	-5.267710e-06	-5.603198e-09	-3.757075e+01	-3.626479e+02
1.100000e-07	-5.246083e-06	-5.551775e-09	-3.741650e+01	-3.618524e+02
1.200000e-07	-5.222733e-06	-5.529365e-09	-3.724996e+01	-3.610233e+02
1.300000e-07	-5.197867e-06	-5.441105e-09	-3.707261e+01	-3.601647e+02
1.400000e-07	-5.171383e-06	-5.420823e-09	-3.688372e+01	-3.592777e+02
1.500000e-07	-5.143259e-06	-5.563630e-09	-3.668313e+01	-3.583599e+02
1.600000e-07	-5.113699e-06	-5.462433e-09	-3.647230e+01	-3.574053e+02
1.700000e-07	-5.082606e-06	-5.421751e-09	-3.625053e+01	-3.564051e+02
1.800000e-07	-5.049392e-06	-5.499353e-09	-3.601365e+01	-3.553483e+02
1.900000e-07	-5.014215e-06	-5.346201e-09	-3.576275e+01	-3.542232e+02
2.000000e-07	-4.977658e-06	-5.380585e-09	-3.550202e+01	-3.530183e+02
2.100000e-07	-4.939418e-06	-5.433721e-09	-3.522928e+01	-3.517235e+02
2.200000e-07	-4.899322e-06	-5.288074e-09	-3.494331e+01	-3.503315e+02
2.300000e-07	-4.857305e-06	-5.289608e-09	-3.464363e+01	-3.488378e+02
2.400000e-07	-4.813357e-06	-5.312990e-09	-3.433018e+01	-3.472419e+02
2.500000e-07	-4.767672e-06	-5.277903e-09	-3.400434e+01	-3.455464e+02
2.600000e-07	-4.720116e-06	-5.277064e-09	-3.366516e+01	-3.437568e+02
2.700000e-07	-4.670515e-06	-5.190123e-09	-3.331139e+01	-3.418808e+02
2.800000e-07	-4.618809e-06	-5.164397e-09	-3.294261e+01	-3.399269e+02
2.900000e-07	-4.565162e-06	-5.162005e-09	-3.255998e+01	-3.379036e+02
3.000000e-07	-4.509937e-06	-5.126232e-09	-3.216611e+01	-3.358182e+02
3.100000e-07	-4.453095e-06	-5.101311e-09	-3.176069e+01	-3.336759e+02
3.200000e-07	-4.394393e-06	-5.061133e-09	-3.134202e+01	-3.314796e+02
3.300000e-07	-4.334037e-06	-5.010519e-09	-3.091154e+01	-3.292293e+02
3.400000e-07	-4.272220e-06	-4.946953e-09	-3.047064e+01	-3.269223e+02
3.500000e-07	-4.209032e-06	-4.952168e-09	-3.001997e+01	-3.245541e+02
3.600000e-07	-4.144399e-06	-4.941108e-09	-2.955899e+01	-3.221188e+02
3.700000e-07	-4.078104e-06	-4.863747e-09	-2.908615e+01	-3.196096e+02
3.800000e-07	-4.010219e-06	-4.822295e-09	-2.860198e+01	-3.170204e+02
3.900000e-07	-3.940994e-06	-4.788149e-09	-2.810825e+01	-3.143456e+02
4.000000e-07	-3.870559e-06	-4.742773e-09	-2.760588e+01	-3.115813e+02
4.100000e-07	-3.798892e-06	-4.694822e-09	-2.709474e+01	-3.087252e+02
4.200000e-07	-3.725875e-06	-4.651643e-09	-2.657396e+01	-3.057763e+02
4.300000e-07	-3.651220e-06	-4.612514e-09	-2.604150e+01	-3.027354e+02
4.400000e-07	-3.574930e-06	-4.559371e-09	-2.549738e+01	-2.996039e+02
4.500000e-07	-3.497296e-06	-4.523157e-09	-2.494367e+01	-2.963837e+02
4.600000e-07	-3.418270e-06	-4.486539e-09	-2.438004e+01	-2.930765e+02
4.700000e-07	-3.337919e-06	-4.426478e-09	-2.380695e+01	-2.896833e+02
4.800000e-07	-3.256358e-06	-4.352125e-09	-2.322523e+01	-2.862043e+02
4.900000e-07	-3.173594e-06	-4.286252e-09	-2.263494e+01	-2.826387e+02
5.000000e-07	-3.089855e-06	-4.245685e-09	-2.203769e+01	-2.789846e+02
5.100000e-07	-3.005279e-06	-4.193107e-09	-2.143447e+01	-2.752395e+02
5.200000e-07	-2.919719e-06	-4.131995e-09	-2.082424e+01	-2.714004e+02
5.300000e-07	-2.833084e-06	-4.067416e-09	-2.020633e+01	-2.674646e+02
5.400000e-07	-2.745530e-06	-3.998903e-09	-1.958187e+01	-2.634293e+02
5.500000e-07	-2.657068e-06	-3.938499e-09	-1.895094e+01	-2.592928e+02
5.600000e-07	-2.567451e-06	-3.881637e-09	-1.831176e+01	-2.550537e+02
5.700000e-07	-2.476704e-06	-3.820729e-09	-1.766453e+01	-2.507116e+02
5.800000e-07	-2.385044e-06	-3.744680e-09	-1.701078e+01	-2.462664e+02
5.900000e-07	-2.292575e-06	-3.667755e-09	-1.635127e+01	-2.417183e+02
6.000000e-07	-2.199320e-06	-3.595376e-09	-1.568615e+01	-2.370671e+02
6.100000e-07	-2.105291e-06	-3.524975e-09	-1.501551e+01	-2.323124e+02
6.200000e-07	-2.010560e-06	-3.451561e-09	-1.433986e+01	-2.274527e+02
6.300000e-07	-1.915180e-06	-3.375554e-09	-1.365959e+01	-2.224857e+02
6.400000e-07	-1.819199e-06	-3.300617e-09	-1.297502e+01	-2.174082e+02
6.500000e-07	-1.722466e-06	-3.225707e-09	-1.228510e+01	-2.122160e+02
6.600000e-07	-1.624909e-06	-3.149565e-09	-1.158929e+01	-2.069048e+02
6.700000e-07	-1.526715e-06	-3.063926e-09	-1.088895e+01	-2.014699e+02
6.800000e-07	-1.427911e-06	-2.971194e-09	-1.018425e+01	-1.959074e+02
6.900000e-07	-1.328563e-06	-2.877270e-09	-9.475673e+00	-1.902139e+02
7.000000e-07	-1.228796e-06	-2.788142e-09	-8.764108e+00	-1.843873e+02
7.100000e-07	-1.128672e-06	-2.700361e-09	-8.050000e+00	-1.784267e+02
7.200000e-07	-1.028255e-06	-2.609728e-09	-7.333792e+00	-1.723324e+02
7.300000e-07	-9.275634e-07	-2.516116e-09	-6.615636e+00	-1.661056e+02
7.400000e-07	-8.266019e-07	-2.419121e-09	-5.895551e+00	-1.597483e+02
7.500000e-07	-7.253291e-07	-2.322052e-09	-5.173245e+00	-1.532622e+02
7.600000e-07	-6.237189e-07	-2.225036e-09	-4.448534e+00	-1.466486e+02
7.700000e-07	-5.219089e-07	-2.124799e-09	-3.722397e+00	-1.399079e+02
7.800000e-07	-4.200188e-07	-2.018110e-09	-2.995689e+00	-1.330386e+02
7.900000e-07	-3.180150e-07	-1.907393e-09	-2.268170e+00	-1.260375e+02
8.000000e-07	-2.158631e-07	-1.795360e-09	-1.539594e+00	-1.188995e+02
8.100000e-07	-1.135625e-07	-1.685074e-09	-8.099586e-01	-1.116175e+02
8.200000e-07	-1.115146e-08	-1.575358e-09	-7.953524e-02	-1.041827e+02
8.300000e-07	9.131064e-08	-1.461386e-09	6.512525e-01	-9.658491e+01
8.400000e-07	1.937424e-07	-1.343890e-09	1.381824e+00	-8.881348e+01
8.500000e-07	2.960780e-07	-1.225075e-09	2.111709e+00	-8.085735e+01
8.600000e-07	3.983195e-07	-1.104204e-09	2.840924e+00	-7.270586e+01
8.700000e-07	5.004759e-07	-9.777343e-10	3.569531e+00	-6.434922e+01
8.800000e-07	6.025125e-07	-8.454820e-10	4.297284e+00	-5.577897e+01
8.900000e-07	7.043136e-07	-7.080294e-10	5.023357e+00	-4.698833e+01
9.000000e-07	8.058263e-07	-5.673111e-10	5.747374e+00	-3.797252e+01
9.100000e-07	9.070302e-07	-4.258152e-10	6.469187e+00	-2.872906e+01
9.200000e-07	1.007913e-06	-2.841354e-10	7.188712e+00	-1.925800e+01
9.300000e-07	1.108476e-06	-1.395438e-10	7.905953e+00	-9.562197e+00
9.400000e-07	1.208725e-06	1.106561e-11	8.620960e+00	3.524152e-01
9.500000e-07	1.308626e-06	1.653972e-10	9.333478e+00	1.047650e+01
9.600000e-07	1.408068e-06	3.226609e-10	1.004273e+01	2.079699e+01
9.700000e-07	1.506944e-06	4.821702e-10	1.074794e+01	3.129685e+01
9.800000e-07	1.605143e-06	6.448968e-10	1.144832e+01	4.195481e+01
9.900000e-07	1.702582e-06	8.117684e-10	1.214328e+01	5.274532e+01
1.000000e-06	1.799242e-06	9.800368e-10	1.283268e+01	6.363862e+01
1.010000e-06	1.895095e-06	1.148865e-09	1.351633e+01	7.460110e+01
1.020000e-06	1.990255e-06	1.316923e-09	1.419504e+01	8.559578e+01
1.030000e-06	2.084818e-06	1.483743e-09	1.486949e+01	9.658314e+01
1.040000e-06	2.178582e-06	1.650255e-09	1.553825e+01	1.075221e+02
1.050000e-06	2.271556e-06	1.816448e-09	1.620136e+01	1.183710e+02
1.060000e-06	2.363894e-06	1.981820e-09	1.685994e+01	1.290891e+02
1.070000e-06	2.455622e-06	2.142122e-09	1.751417e+01	1.396374e+02
1.080000e-06	2.546561e-06	2.298505e-09	1.816277e+01	1.499798e+02
1.090000e-06	2.636340e-06	2.454250e-09	1.880310e+01	1.600841e+02
1.100000e-06	2.724911e-06	2.607085e-09	1.943481e+01	1.699228e+02
1.110000e-06	2.812522e-06	2.752829e-09	2.005968e+01	1.794731e+02
1.120000e-06	2.899223e-06	2.892110e-09	2.067805e+01	1.887172e+02
1.130000e-06	2.984960e-06	3.025283e-09	2.128955e+01	1.976427e+02
1.140000e-06	3.069781e-06	3.154264e-09	2.189452e+01	2.062416e+02
1.150000e-06	3.153697e-06	3.277314e-09	2.249303e+01	2.145103e+02
1.160000e-06	3.236609e-06	3.395160e-09	2.308438e+01	2.224492e+02
1.170000e-06	3.318349e-06	3.510390e-09	2.366738e+01	2.300620e+02
1.180000e-06	3.398802e-06	3.621207e-09	2.424119e+01	2.373553e+02
1.190000e-06	3.478040e-06	3.727778e-09	2.480633e+01	2.443380e+02
1.200000e-06	3.556082e-06	3.829104e-09	2.536295e+01	2.510214e+02
1.210000e-06	3.632862e-06	3.927023e-09	2.591057e+01	2.574182e+02
1.220000e-06	3.708300e-06	4.019723e-09	2.644861e+01	2.635423e+02
1.230000e-06	3.782178e-06	4.106865e-09	2.697553e+01	2.694088e+02
1.240000e-06	3.854464e-06	4.188705e-09	2.749109e+01	2.750330e+02
1.250000e-06	3.925331e-06	4.268969e-09	2.799654e+01	2.804302e+02
1.260000e-06	3.994805e-06	4.349207e-09	2.849204e+01	2.856151e+02
1.270000e-06	4.062952e-06	4.426070e-09	2.897809e+01	2.906009e+02
1.280000e-06	4.129700e-06	4.499677e-09	2.945415e+01	2.953993e+02
1.290000e-06	4.194754e-06	4.570458e-09	2.991813e+01	3.000196e+02
1.300000e-06	4.258210e-06	4.638032e-09	3.037072e+01	3.044684e+02
1.310000e-06	4.320266e-06	4.701953e-09	3.081332e+01	3.087498e+02
1.320000e-06	4.380912e-06	4.763769e-09	3.124587e+01	3.128649e+02
1.330000e-06	4.440183e-06	4.822339e-09	3.166860e+01	3.168130e+02
1.340000e-06	4.497822e-06	4.876129e-09	3.207970e+01	3.205914e+02
1.350000e-06	4.553691e-06	4.926254e-09	3.247817e+01	3.241965e+02
1.360000e-06	4.607930e-06	4.974777e-09	3.286502e+01	3.276249e+02
1.370000e-06	4.660458e-06	5.020991e-09	3.323966e+01	3.308738e+02
1.380000e-06	4.710933e-06	5.064743e-09	3.359966e+01	3.339422e+02
1.390000e-06	4.759350e-06	5.108534e-09	3.394499e+01	3.368310e+02
1.400000e-06	4.806038e-06	5.150671e-09	3.427798e+01	3.395439e+02
1.410000e-06	4.851165e-06	5.189257e-09	3.459983e+01	3.420869e+02
1.420000e-06	4.894784e-06	5.224060e-09	3.491094e+01	3.444682e+02
1.430000e-06	4.936570e-06	5.255200e-09	3.520897e+01	3.466975e+02
1.440000e-06	4.976476e-06	5.283704e-09	3.549359e+01	3.487855e+02
1.450000e-06	5.014741e-06	5.310393e-09	3.576650e+01	3.507427e+02
1.460000e-06	5.051373e-06	5.335454e-09	3.602777e+01	3.525789e+02
1.470000e-06	5.086285e-06	5.359995e-09	3.627677e+01	3.543020e+02
1.480000e-06	5.119264e-06	5.383883e-09	3.651199e+01	3.559183e+02
1.490000e-06	5.150406e-06	5.407084e-09	3.673410e+01	3.574314e+02
1.500000e-06	5.179904e-06	5.429689e-09	3.694449e+01	3.588430e+02
1.510000e-06	5.207699e-06	5.450001e-09	3.714273e+01	3.601531e+02
1.520000e-06	5.233524e-06	5.467590e-09	3.732693e+01	3.613605e+02
1.530000e-06	5.257238e-06	5.482887e-09	3.749606e+01	3.624635e+02
1.540000e-06	5.279088e-06	5.496464e-09	3.765190e+01	3.634608e+02
1.550000e-06	5.299284e-06	5.509267e-09	3.779595e+01	3.643522e+02
1.560000e-06	5.317640e-06	5.520745e-09	3.792687e+01	3.651387e+02
1.570000e-06	5.333939e-06	5.529559e-09	3.804311e+01	3.658229e+02
1.580000e-06	5.348284e-06	5.537968e-09	3.814543e+01	3.664088e+02
1.590000e-06	5.360682e-06	5.548449e-09	3.823385e+01	3.669016e+02
1.600000e-06	5.370855e-06	5.558496e-09	3.830641e+01	3.673069e+02
1.610000e-06	5.378858e-06	5.566398e-09	3.836348e+01	3.676302e+02
1.620000e-06	5.384982e-06	5.571890e-09	3.840717e+01	3.678761e+02
1.630000e-06	5.389390e-06	5.574877e-09	3.843861e+01	3.680479e+02
1.640000e-06	5.391909e-06	5.576711e-09	3.845657e+01	3.681473e+02
1.650000e-06	5.392390e-06	5.579717e-09	3.846000e+01	3.681742e+02
1.660000e-06	5.391028e-06	5.580010e-09	3.845029e+01	3.681271e+02
1.670000e-06	5.387986e-06	5.574340e-09	3.842859e+01	3.680036e+02
1.680000e-06	5.383274e-06	5.571381e-09	3.839499e+01	3.678009e+02
1.690000e-06	5.376643e-06	5.569862e-09	3.834769e+01	3.675169e+02
1.700000e-06	5.368183e-06	5.569328e-09	3.828735e+01	3.671508e+02
1.710000e-06	5.358190e-06	5.568910e-09	3.821607e+01	3.667036e+02
1.720000e-06	5.346588e-06	5.569447e-09	3.813333e+01	3.661788e+02
1.730000e-06	5.333083e-06	5.579982e-09	3.803700e+01	3.655820e+02
1.740000e-06	5.317511e-06	5.508140e-09	3.792595e+01	3.649205e+02
1.750000e-06	5.299602e-06	5.462915e-09	3.779821e+01	3.642030e+02
1.760000e-06	5.278975e-06	5.487353e-09	3.765109e+01	3.634386e+02
1.770000e-06	5.255961e-06	5.477866e-09	3.748695e+01	3.626353e+02
1.780000e-06	5.231568e-06	5.581180e-09	3.731297e+01	3.617994e+02
1.790000e-06	5.206525e-06	5.535392e-09	3.713436e+01	3.609347e+02
1.800000e-06	5.180197e-06	5.348842e-09	3.694658e+01	3.600413e+02
1.810000e-06	5.151645e-06	5.477426e-09	3.674294e+01	3.591161e+02
1.820000e-06	5.121270e-06	5.422295e-09	3.652630e+01	3.581524e+02
1.830000e-06	5.089302e-06	5.336395e-09	3.629830e+01	3.571409e+02
1.840000e-06	5.055309e-06	5.535519e-09	3.605585e+01	3.560704e+02
1.850000e-06	5.019643e-06	5.392187e-09	3.580146e+01	3.549290e+02
1.860000e-06	4.982307e-06	5.328285e-09	3.553518e+01	3.537055e+02
1.870000e-06	4.943015e-06	5.480459e-09	3.525494e+01	3.523903e+02
1.880000e-06	4.902035e-06	5.330686e-09	3.496265e+01	3.509766e+02
1.890000e-06	4.859252e-06	5.328930e-09	3.465751e+01	3.494609e+02
1.900000e-06	4.814876e-06	5.312365e-09	3.434101e+01	3.478431e+02
1.910000e-06	4.768787e-06	5.226693e-09	3.401229e+01	3.461268e+02
1.920000e-06	4.720555e-06	5.337615e-09	3.366829e+01	3.443179e+02
1.930000e-06	4.670667e-06	5.204344e-09	3.331247e+01	3.424243e+02
1.940000e-06	4.619146e-06	5.194710e-09	3.294502e+01	3.404547e+02
1.950000e-06	4.565585e-06	5.227144e-09	3.256300e+01	3.384174e+02
1.960000e-06	4.510034e-06	5.086492e-09	3.216680e+01	3.363194e+02
1.970000e-06	4.452693e-06	5.091938e-09	3.175782e+01	3.341653e+02
1.980000e-06	4.393901e-06	5.070051e-09	3.133850e+01	3.319574e+02
1.990000e-06	4.333675e-06	5.091349e-09	3.090896e+01	3.296950e+02
2.000000e-06	4.271762e-06	5.020930e-09	3.046738e+01	3.273753e+02
2.010000e-06	4.208218e-06	4.926798e-09	3.001416e+01	3.249931e+02
2.020000e-06	4.143164e-06	4.982818e-09	2.955018e+01	3.225424e+02
2.030000e-06	4.076686e-06	4.880655e-09	2.907604e+01	3.200165e+02
2.040000e-06	4.008793e-06	4.845826e-09	2.859181e+01	3.174092e+02
2.050000e-06	3.939471e-06	4.838906e-09	2.809739e+01	3.147154e+02
2.060000e-06	3.868575e-06	4.785304e-09	2.759173e+01	3.119315e+02
2.070000e-06	3.796187e-06	4.739442e-09	2.707544e+01	3.090553e+02
2.080000e-06	3.722579e-06	4.647166e-09	2.655045e+01	3.060865e+02
2.090000e-06	3.647673e-06	4.652808e-09	2.601620e+01	3.030260e+02
2.100000e-06	3.571351e-06	4.599770e-09	2.547185e+01	2.998752e+02
2.110000e-06	3.493465e-06	4.528021e-09	2.491635e+01	2.966361e+02
2.120000e-06	3.414112e-06	4.484976e-09	2.435038e+01	2.933103e+02
2.130000e-06	3.333624e-06	4.445399e-09	2.377632e+01	2.898986e+02
2.140000e-06	3.252020e-06	4.412693e-09	2.319430e+01	2.864010e+02
2.150000e-06	3.169331e-06	4.327700e-09	2.260454e+01	2.828165e+02
2.160000e-06	3.085628e-06	4.280788e-09	2.200754e+01	2.791430e+02
2.170000e-06	3.000770e-06	4.215929e-09	2.140231e+01	2.753779e+02
2.180000e-06	2.914603e-06	4.155046e-09	2.078775e+01	2.715182e+02
2.190000e-06	2.827237e-06	4.107537e-09	2.016463e+01	2.675611e+02
2.200000e-06	2.738935e-06	4.049899e-09	1.953483e+01	2.635042e+02
2.210000e-06	2.649733e-06	3.992945e-09	1.889862e+01	2.593456e+02
2.220000e-06	2.559559e-06	3.911441e-09	1.825547e+01	2.550844e+02
2.230000e-06	2.468518e-06	3.844876e-09	1.760614e+01	2.507201e+02
2.240000e-06	2.376744e-06	3.780940e-09	1.695159e+01	2.462527e+02
2.250000e-06	2.284163e-06	3.719489e-09	1.629128e+01	2.416824e+02
2.260000e-06	2.190793e-06	3.647492e-09	1.562534e+01	2.370090e+02
2.270000e-06	2.096486e-06	3.568115e-09	1.495271e+01	2.322318e+02
2.280000e-06	2.001106e-06	3.488910e-09	1.427244e+01	2.273492e+02
2.290000e-06	1.904949e-06	3.413467e-09	1.358662e+01	2.223587e+02
2.300000e-06	1.808294e-06	3.342226e-09	1.289724e+01	2.172569e+02
2.310000e-06	1.711178e-06	3.261711e-09	1.220459e+01	2.120394e+02
2.320000e-06	1.613487e-06	3.180592e-09	1.150783e+01	2.067020e+02
2.330000e-06	1.515208e-06	3.096073e-09	1.080688e+01	2.012399e+02
2.340000e-06	1.416411e-06	3.011880e-09	1.010223e+01	1.956495e+02
2.350000e-06	1.317207e-06	2.924221e-09	9.394681e+00	1.899275e+02
2.360000e-06	1.217653e-06	2.835205e-09	8.684636e+00	1.840721e+02
2.370000e-06	1.117821e-06	2.742258e-09	7.972603e+00	1.780826e+02
2.380000e-06	1.017712e-06	2.645711e-09	7.258603e+00	1.719597e+02
2.390000e-06	9.172465e-07	2.553842e-09	6.542053e+00	1.657047e+02
2.400000e-06	8.163677e-07	2.464142e-09	5.822558e+00	1.593195e+02
2.410000e-06	7.151671e-07	2.368033e-09	5.100767e+00	1.528059e+02
2.420000e-06	6.137973e-07	2.260291e-09	4.377770e+00	1.461650e+02
2.430000e-06	5.121526e-07	2.150218e-09	3.652813e+00	1.393967e+02
2.440000e-06	4.102391e-07	2.042222e-09	2.925938e+00	1.324994e+02
2.450000e-06	3.081083e-07	1.936208e-09	2.197513e+00	1.254694e+02
2.460000e-06	2.058217e-07	1.827417e-09	1.467976e+00	1.183011e+02
2.470000e-06	1.034341e-07	1.714892e-09	7.377203e-01	1.109870e+02
2.480000e-06	9.324264e-10	1.597880e-09	6.650320e-03	1.035180e+02
2.490000e-06	-1.015784e-07	1.478239e-09	-7.244853e-01	9.588381e+01
2.500000e-06	-2.040546e-07	1.361475e-09	-1.455373e+00	8.807360e+01
2.510000e-06	-3.064544e-07	1.245794e-09	-2.185716e+00	8.007636e+01
2.520000e-06	-4.086613e-07	1.123490e-09	-2.914684e+00	7.188158e+01
2.530000e-06	-5.106658e-07	9.900546e-10	-3.642208e+00	6.347971e+01
2.540000e-06	-6.125228e-07	8.540831e-10	-4.368680e+00	5.486262e+01
2.550000e-06	-7.141578e-07	7.198362e-10	-5.093569e+00	4.602393e+01
2.560000e-06	-8.153949e-07	5.825034e-10	-5.815619e+00	3.695934e+01
2.570000e-06	-9.161983e-07	4.386972e-10	-6.534577e+00	2.766690e+01
2.580000e-06	-1.016620e-06	2.910038e-10	-7.250811e+00	1.814722e+01
2.590000e-06	-1.116703e-06	1.430569e-10	-7.964634e+00	8.403797e+00
2.600000e-06	-1.216434e-06	-6.486585e-12	-8.675943e+00	-1.556730e+00
2.610000e-06	-1.315746e-06	-1.590450e-10	-9.384261e+00	-1.172425e+01
2.620000e-06	-1.414598e-06	-3.146717e-10	-1.008930e+01	-2.208488e+01
2.630000e-06	-1.512939e-06	-4.752123e-10	-1.079070e+01	-3.262067e+01
2.640000e-06	-1.610743e-06	-6.398890e-10	-1.148826e+01	-4.330945e+01
2.650000e-06	-1.707981e-06	-8.056073e-10	-1.218179e+01	-5.412475e+01
2.660000e-06	-1.804678e-06	-9.712211e-10	-1.287146e+01	-6.503595e+01
2.670000e-06	-1.900856e-06	-1.138646e-09	-1.355742e+01	-7.600866e+01
2.680000e-06	-1.996518e-06	-1.307596e-09	-1.423971e+01	-8.700529e+01
2.690000e-06	-2.091466e-06	-1.475399e-09	-1.491691e+01	-9.798589e+01
2.700000e-06	-2.185376e-06	-1.641406e-09	-1.558670e+01	-1.089092e+02
2.710000e-06	-2.278269e-06	-1.803711e-09	-1.624924e+01	-1.197336e+02
2.720000e-06	-2.370311e-06	-1.962863e-09	-1.690571e+01	-1.304186e+02
2.730000e-06	-2.461549e-06	-2.121630e-09	-1.755644e+01	-1.409258e+02
2.740000e-06	-2.551958e-06	-2.278799e-09	-1.820126e+01	-1.512199e+02
2.750000e-06	-2.641430e-06	-2.432165e-09	-1.883940e+01	-1.612696e+02
2.760000e-06	-2.729970e-06	-2.581736e-09	-1.947089e+01	-1.710483e+02
2.770000e-06	-2.817734e-06	-2.728810e-09	-2.009685e+01	-1.805344e+02
2.780000e-06	-2.904595e-06	-2.872548e-09	-2.071636e+01	-1.897113e+02
2.790000e-06	-2.990232e-06	-3.008879e-09	-2.132716e+01	-1.985674e+02
2.800000e-06	-3.074639e-06	-3.137820e-09	-2.192916e+01	-2.070958e+02
2.810000e-06	-3.158023e-06	-3.262125e-09	-2.252388e+01	-2.152938e+02
2.820000e-06	-3.240427e-06	-3.381521e-09	-2.311161e+01	-2.231626e+02
2.830000e-06	-3.321816e-06	-3.497062e-09	-2.369210e+01	-2.307064e+02
2.840000e-06	-3.402128e-06	-3.611020e-09	-2.426491e+01	-2.379324e+02
2.850000e-06	-3.481236e-06	-3.722810e-09	-2.482913e+01	-2.448501e+02
2.860000e-06	-3.558854e-06	-3.827715e-09	-2.538272e+01	-2.514711e+02
2.870000e-06	-3.634881e-06	-3.924023e-09	-2.592497e+01	-2.578083e+02
2.880000e-06	-3.709530e-06	-4.016377e-09	-2.645738e+01	-2.638761e+02
2.890000e-06	-3.782837e-06	-4.105478e-09	-2.698023e+01	-2.696895e+02
2.900000e-06	-3.854859e-06	-4.190548e-09	-2.749391e+01	-2.752639e+02
2.910000e-06	-3.925471e-06	-4.271014e-09	-2.799754e+01	-2.806145e+02
2.920000e-06	-3.994502e-06	-4.348526e-09	-2.848988e+01	-2.857557e+02
2.930000e-06	-4.062109e-06	-4.424308e-09	-2.897207e+01	-2.907006e+02
2.940000e-06	-4.128301e-06	-4.498085e-09	-2.944417e+01	-2.954603e+02
