# Temperatura_=_73.2
# Concentracion g/m^3_=_15000.0
# C_Vs_to_Am_M_A/Vsm_=_65563218390.804596
# pendiente_HvsI_1/m_=_3716.3
# ordenada_HvsI_A/m_=_1297.0
# frecuencia_Hz_=_301586.975131223

Tiempo_(s)	Campo_(V.s)	Magnetizacion_(V.s)	Campo_(kA/m)	Magnetizacion_(A/m)
0.000000e+00	-5.372877e-06	-7.178831e-09	-3.833677e+01	-4.695665e+02
1.000000e-08	-5.369994e-06	-7.170823e-09	-3.831620e+01	-4.693336e+02
2.000000e-08	-5.365341e-06	-7.162717e-09	-3.828300e+01	-4.689834e+02
3.000000e-08	-5.359089e-06	-7.154818e-09	-3.823839e+01	-4.685177e+02
4.000000e-08	-5.351287e-06	-7.145663e-09	-3.818272e+01	-4.679409e+02
5.000000e-08	-5.341598e-06	-7.136704e-09	-3.811359e+01	-4.672604e+02
6.000000e-08	-5.329816e-06	-7.127478e-09	-3.802952e+01	-4.664855e+02
7.000000e-08	-5.316170e-06	-7.120581e-09	-3.793215e+01	-4.656270e+02
8.000000e-08	-5.300420e-06	-7.115149e-09	-3.781977e+01	-4.646958e+02
9.000000e-08	-5.282381e-06	-7.110562e-09	-3.769105e+01	-4.637016e+02
1.000000e-07	-5.262337e-06	-7.097278e-09	-3.754804e+01	-4.626519e+02
1.100000e-07	-5.240436e-06	-7.060845e-09	-3.739177e+01	-4.615508e+02
1.200000e-07	-5.216841e-06	-7.015712e-09	-3.722341e+01	-4.603987e+02
1.300000e-07	-5.191745e-06	-6.998772e-09	-3.704434e+01	-4.591918e+02
1.400000e-07	-5.165037e-06	-6.980675e-09	-3.685378e+01	-4.579225e+02
1.500000e-07	-5.136707e-06	-6.970347e-09	-3.665164e+01	-4.565806e+02
1.600000e-07	-5.106909e-06	-6.976522e-09	-3.643902e+01	-4.551539e+02
1.700000e-07	-5.075477e-06	-6.946171e-09	-3.621475e+01	-4.536296e+02
1.800000e-07	-5.041951e-06	-6.924519e-09	-3.597553e+01	-4.519962e+02
1.900000e-07	-5.006549e-06	-6.894647e-09	-3.572293e+01	-4.502438e+02
2.000000e-07	-4.969643e-06	-6.822624e-09	-3.545959e+01	-4.483656e+02
2.100000e-07	-4.931031e-06	-6.772472e-09	-3.518409e+01	-4.463585e+02
2.200000e-07	-4.890656e-06	-6.741233e-09	-3.489601e+01	-4.442223e+02
2.300000e-07	-4.848343e-06	-6.727127e-09	-3.459409e+01	-4.419604e+02
2.400000e-07	-4.804074e-06	-6.718913e-09	-3.427822e+01	-4.395780e+02
2.500000e-07	-4.758037e-06	-6.685236e-09	-3.394974e+01	-4.370819e+02
2.600000e-07	-4.710115e-06	-6.640074e-09	-3.360780e+01	-4.344790e+02
2.700000e-07	-4.660162e-06	-6.578894e-09	-3.325138e+01	-4.317755e+02
2.800000e-07	-4.608185e-06	-6.546110e-09	-3.288051e+01	-4.289760e+02
2.900000e-07	-4.554351e-06	-6.519206e-09	-3.249639e+01	-4.260833e+02
3.000000e-07	-4.498853e-06	-6.462115e-09	-3.210040e+01	-4.230978e+02
3.100000e-07	-4.441693e-06	-6.413204e-09	-3.169255e+01	-4.200182e+02
3.200000e-07	-4.382714e-06	-6.353895e-09	-3.127171e+01	-4.168419e+02
3.300000e-07	-4.322099e-06	-6.295505e-09	-3.083921e+01	-4.135655e+02
3.400000e-07	-4.260121e-06	-6.259070e-09	-3.039699e+01	-4.101855e+02
3.500000e-07	-4.196806e-06	-6.213407e-09	-2.994522e+01	-4.066994e+02
3.600000e-07	-4.132046e-06	-6.155879e-09	-2.948314e+01	-4.031054e+02
3.700000e-07	-4.065583e-06	-6.092522e-09	-2.900891e+01	-3.994035e+02
3.800000e-07	-3.997489e-06	-6.036590e-09	-2.852305e+01	-3.955947e+02
3.900000e-07	-3.928038e-06	-5.981308e-09	-2.802749e+01	-3.916808e+02
4.000000e-07	-3.857367e-06	-5.914151e-09	-2.752324e+01	-3.876643e+02
4.100000e-07	-3.785495e-06	-5.848419e-09	-2.701042e+01	-3.835474e+02
4.200000e-07	-3.712253e-06	-5.776287e-09	-2.648781e+01	-3.793318e+02
4.300000e-07	-3.637446e-06	-5.716002e-09	-2.595405e+01	-3.750176e+02
4.400000e-07	-3.561033e-06	-5.664485e-09	-2.540883e+01	-3.706039e+02
4.500000e-07	-3.483155e-06	-5.609316e-09	-2.485315e+01	-3.660881e+02
4.600000e-07	-3.403891e-06	-5.539116e-09	-2.428758e+01	-3.614666e+02
4.700000e-07	-3.323313e-06	-5.447965e-09	-2.371264e+01	-3.567349e+02
4.800000e-07	-3.241556e-06	-5.362938e-09	-2.312928e+01	-3.518885e+02
4.900000e-07	-3.158688e-06	-5.289929e-09	-2.253800e+01	-3.469230e+02
5.000000e-07	-3.074798e-06	-5.218129e-09	-2.193942e+01	-3.418352e+02
5.100000e-07	-2.990030e-06	-5.138759e-09	-2.133459e+01	-3.366230e+02
5.200000e-07	-2.904337e-06	-5.055326e-09	-2.072314e+01	-3.312857e+02
5.300000e-07	-2.817614e-06	-4.967483e-09	-2.010435e+01	-3.258239e+02
5.400000e-07	-2.729978e-06	-4.882751e-09	-1.947905e+01	-3.202391e+02
5.500000e-07	-2.641470e-06	-4.801322e-09	-1.884752e+01	-3.145331e+02
5.600000e-07	-2.551869e-06	-4.714945e-09	-1.820820e+01	-3.087079e+02
5.700000e-07	-2.461101e-06	-4.620618e-09	-1.756054e+01	-3.027645e+02
5.800000e-07	-2.369351e-06	-4.519942e-09	-1.690589e+01	-2.967031e+02
5.900000e-07	-2.276830e-06	-4.424224e-09	-1.624573e+01	-2.905227e+02
6.000000e-07	-2.183596e-06	-4.331778e-09	-1.558048e+01	-2.842209e+02
6.100000e-07	-2.089541e-06	-4.234284e-09	-1.490937e+01	-2.777945e+02
6.200000e-07	-1.994769e-06	-4.131227e-09	-1.423316e+01	-2.712398e+02
6.300000e-07	-1.899352e-06	-4.026331e-09	-1.355233e+01	-2.645529e+02
6.400000e-07	-1.803197e-06	-3.923276e-09	-1.286624e+01	-2.577306e+02
6.500000e-07	-1.706308e-06	-3.824545e-09	-1.217492e+01	-2.507703e+02
6.600000e-07	-1.608755e-06	-3.722263e-09	-1.147885e+01	-2.436707e+02
6.700000e-07	-1.510614e-06	-3.607143e-09	-1.077859e+01	-2.364316e+02
6.800000e-07	-1.411870e-06	-3.483526e-09	-1.007403e+01	-2.290531e+02
6.900000e-07	-1.312561e-06	-3.362581e-09	-9.365438e+00	-2.215359e+02
7.000000e-07	-1.212722e-06	-3.249838e-09	-8.653059e+00	-2.138801e+02
7.100000e-07	-1.112486e-06	-3.136366e-09	-7.937853e+00	-2.060845e+02
7.200000e-07	-1.012016e-06	-3.015542e-09	-7.220975e+00	-1.981462e+02
7.300000e-07	-9.113011e-07	-2.889777e-09	-6.502352e+00	-1.900602e+02
7.400000e-07	-8.102932e-07	-2.763651e-09	-5.781636e+00	-1.818190e+02
7.500000e-07	-7.089753e-07	-2.637291e-09	-5.058709e+00	-1.734134e+02
7.600000e-07	-6.073637e-07	-2.508101e-09	-4.333686e+00	-1.648324e+02
7.700000e-07	-5.055442e-07	-2.372647e-09	-3.607179e+00	-1.560643e+02
7.800000e-07	-4.035968e-07	-2.230885e-09	-2.879760e+00	-1.470980e+02
7.900000e-07	-3.014703e-07	-2.086320e-09	-2.151063e+00	-1.379230e+02
8.000000e-07	-1.992625e-07	-1.941377e-09	-1.421786e+00	-1.285309e+02
8.100000e-07	-9.703384e-08	-1.797390e-09	-6.923597e-01	-1.189158e+02
8.200000e-07	5.326873e-09	-1.648000e-09	3.800852e-02	-1.090738e+02
8.300000e-07	1.077586e-07	-1.491382e-09	7.688834e-01	-9.900312e+01
8.400000e-07	2.101882e-07	-1.330867e-09	1.499743e+00	-8.870342e+01
8.500000e-07	3.125777e-07	-1.170416e-09	2.230317e+00	-7.817457e+01
8.600000e-07	4.148432e-07	-1.009850e-09	2.960006e+00	-6.741584e+01
8.700000e-07	5.169508e-07	-8.435926e-10	3.688568e+00	-5.642487e+01
8.800000e-07	6.188801e-07	-6.685169e-10	4.415858e+00	-4.519715e+01
8.900000e-07	7.206054e-07	-4.883793e-10	5.141692e+00	-3.372595e+01
9.000000e-07	8.220488e-07	-3.068201e-10	5.865515e+00	-2.200277e+01
9.100000e-07	9.231447e-07	-1.236497e-10	6.586859e+00	-1.001857e+01
9.200000e-07	1.023964e-06	6.050047e-11	7.306226e+00	2.234553e+00
9.300000e-07	1.124509e-06	2.477589e-10	8.023640e+00	1.476118e+01
9.400000e-07	1.224737e-06	4.394932e-10	8.738794e+00	2.756030e+01
9.500000e-07	1.324599e-06	6.345642e-10	9.451334e+00	4.062303e+01
9.600000e-07	1.423926e-06	8.319124e-10	1.016005e+01	5.393087e+01
9.700000e-07	1.522567e-06	1.032986e-09	1.086388e+01	6.745449e+01
9.800000e-07	1.620509e-06	1.239258e-09	1.156272e+01	8.115352e+01
9.900000e-07	1.717707e-06	1.449214e-09	1.225626e+01	9.497722e+01
1.000000e-06	1.814184e-06	1.659914e-09	1.294464e+01	1.088662e+02
1.010000e-06	1.910010e-06	1.869952e-09	1.362838e+01	1.227549e+02
1.020000e-06	2.005131e-06	2.078781e-09	1.430709e+01	1.365749e+02
1.030000e-06	2.099578e-06	2.285055e-09	1.498100e+01	1.502582e+02
1.040000e-06	2.193306e-06	2.488513e-09	1.564976e+01	1.637408e+02
1.050000e-06	2.286256e-06	2.686693e-09	1.631299e+01	1.769659e+02
1.060000e-06	2.378485e-06	2.878664e-09	1.697106e+01	1.898860e+02
1.070000e-06	2.469975e-06	3.064642e-09	1.762386e+01	2.024642e+02
1.080000e-06	2.560581e-06	3.246519e-09	1.827036e+01	2.146754e+02
1.090000e-06	2.650090e-06	3.426867e-09	1.890903e+01	2.265046e+02
1.100000e-06	2.738501e-06	3.604437e-09	1.953986e+01	2.379465e+02
1.110000e-06	2.825970e-06	3.774825e-09	2.016397e+01	2.490028e+02
1.120000e-06	2.912558e-06	3.938261e-09	2.078180e+01	2.596798e+02
1.130000e-06	2.998171e-06	4.095456e-09	2.139267e+01	2.699861e+02
1.140000e-06	3.082814e-06	4.247596e-09	2.199662e+01	2.799307e+02
1.150000e-06	3.166534e-06	4.395154e-09	2.259398e+01	2.895208e+02
1.160000e-06	3.249224e-06	4.535548e-09	2.318399e+01	2.987615e+02
1.170000e-06	3.330754e-06	4.669712e-09	2.376573e+01	3.076554e+02
1.180000e-06	3.410950e-06	4.798309e-09	2.433795e+01	3.162031e+02
1.190000e-06	3.489890e-06	4.920523e-09	2.490120e+01	3.244046e+02
1.200000e-06	3.567725e-06	5.037997e-09	2.545657e+01	3.322605e+02
1.210000e-06	3.644313e-06	5.153031e-09	2.600305e+01	3.397735e+02
1.220000e-06	3.719485e-06	5.263116e-09	2.653942e+01	3.469499e+02
1.230000e-06	3.793076e-06	5.364742e-09	2.706451e+01	3.537999e+02
1.240000e-06	3.865119e-06	5.460489e-09	2.757855e+01	3.603383e+02
1.250000e-06	3.935716e-06	5.554993e-09	2.808228e+01	3.665839e+02
1.260000e-06	4.004923e-06	5.647854e-09	2.857609e+01	3.725587e+02
1.270000e-06	4.072851e-06	5.736309e-09	2.906077e+01	3.782860e+02
1.280000e-06	4.139273e-06	5.819136e-09	2.953470e+01	3.837892e+02
1.290000e-06	4.204022e-06	5.899034e-09	2.999671e+01	3.890895e+02
1.300000e-06	4.267245e-06	5.976581e-09	3.044781e+01	3.942049e+02
1.310000e-06	4.329036e-06	6.051806e-09	3.088871e+01	3.991488e+02
1.320000e-06	4.389460e-06	6.124498e-09	3.131985e+01	4.039292e+02
1.330000e-06	4.448438e-06	6.194308e-09	3.174068e+01	4.085492e+02
1.340000e-06	4.505668e-06	6.261316e-09	3.214902e+01	4.130071e+02
1.350000e-06	4.561138e-06	6.325875e-09	3.254482e+01	4.172980e+02
1.360000e-06	4.614946e-06	6.388977e-09	3.292875e+01	4.214147e+02
1.370000e-06	4.666967e-06	6.448781e-09	3.329993e+01	4.253495e+02
1.380000e-06	4.716980e-06	6.504043e-09	3.365678e+01	4.290957e+02
1.390000e-06	4.765100e-06	6.556870e-09	3.400013e+01	4.326485e+02
1.400000e-06	4.811574e-06	6.606780e-09	3.433174e+01	4.360059e+02
1.410000e-06	4.856476e-06	6.653617e-09	3.465212e+01	4.391689e+02
1.420000e-06	4.899790e-06	6.698513e-09	3.496118e+01	4.421415e+02
1.430000e-06	4.941242e-06	6.740230e-09	3.525695e+01	4.449300e+02
1.440000e-06	4.980905e-06	6.779188e-09	3.553995e+01	4.475422e+02
1.450000e-06	5.018887e-06	6.814703e-09	3.581096e+01	4.499863e+02
1.460000e-06	5.055251e-06	6.848152e-09	3.607043e+01	4.522705e+02
1.470000e-06	5.089862e-06	6.881172e-09	3.631739e+01	4.544020e+02
1.480000e-06	5.122485e-06	6.911063e-09	3.655016e+01	4.563866e+02
1.490000e-06	5.153308e-06	6.937459e-09	3.677009e+01	4.582289e+02
1.500000e-06	5.182445e-06	6.960920e-09	3.697799e+01	4.599319e+02
1.510000e-06	5.209853e-06	6.982445e-09	3.717355e+01	4.614983e+02
1.520000e-06	5.235257e-06	7.002784e-09	3.735482e+01	4.629302e+02
1.530000e-06	5.258633e-06	7.022365e-09	3.752161e+01	4.642302e+02
1.540000e-06	5.280211e-06	7.040686e-09	3.767557e+01	4.654014e+02
1.550000e-06	5.300100e-06	7.056474e-09	3.781749e+01	4.664479e+02
1.560000e-06	5.318210e-06	7.070580e-09	3.794671e+01	4.673744e+02
1.570000e-06	5.334280e-06	7.082956e-09	3.806137e+01	4.681861e+02
1.580000e-06	5.348323e-06	7.093504e-09	3.816157e+01	4.688882e+02
1.590000e-06	5.360344e-06	7.103426e-09	3.824734e+01	4.694850e+02
1.600000e-06	5.370134e-06	7.112297e-09	3.831720e+01	4.699797e+02
1.610000e-06	5.377845e-06	7.119996e-09	3.837221e+01	4.703737e+02
1.620000e-06	5.383739e-06	7.125508e-09	3.841427e+01	4.706667e+02
1.630000e-06	5.387845e-06	7.128713e-09	3.844357e+01	4.708565e+02
1.640000e-06	5.390001e-06	7.130198e-09	3.845895e+01	4.709397e+02
1.650000e-06	5.390148e-06	7.131205e-09	3.846000e+01	4.709123e+02
1.660000e-06	5.388501e-06	7.130717e-09	3.844825e+01	4.707705e+02
1.670000e-06	5.385259e-06	7.126327e-09	3.842511e+01	4.705121e+02
1.680000e-06	5.380303e-06	7.122122e-09	3.838975e+01	4.701366e+02
1.690000e-06	5.373474e-06	7.117013e-09	3.834102e+01	4.696462e+02
1.700000e-06	5.364941e-06	7.110176e-09	3.828014e+01	4.690462e+02
1.710000e-06	5.354810e-06	7.102678e-09	3.820786e+01	4.683442e+02
1.720000e-06	5.342895e-06	7.092398e-09	3.812284e+01	4.675501e+02
1.730000e-06	5.328988e-06	7.071734e-09	3.802361e+01	4.666748e+02
1.740000e-06	5.313018e-06	7.044815e-09	3.790966e+01	4.657289e+02
1.750000e-06	5.294680e-06	7.018677e-09	3.777882e+01	4.647219e+02
1.760000e-06	5.273670e-06	7.017979e-09	3.762890e+01	4.636606e+02
1.770000e-06	5.250431e-06	7.026345e-09	3.746308e+01	4.625484e+02
1.780000e-06	5.225968e-06	7.011019e-09	3.728854e+01	4.613846e+02
1.790000e-06	5.200790e-06	6.980066e-09	3.710888e+01	4.601647e+02
1.800000e-06	5.174136e-06	6.912309e-09	3.691870e+01	4.588805e+02
1.810000e-06	5.145167e-06	6.899169e-09	3.671200e+01	4.575211e+02
1.820000e-06	5.114374e-06	6.917058e-09	3.649229e+01	4.560741e+02
1.830000e-06	5.081990e-06	6.885700e-09	3.626122e+01	4.545271e+02
1.840000e-06	5.047710e-06	6.912177e-09	3.601662e+01	4.528685e+02
1.850000e-06	5.011830e-06	6.937930e-09	3.576061e+01	4.510892e+02
1.860000e-06	4.974138e-06	6.903503e-09	3.549167e+01	4.491833e+02
1.870000e-06	4.934547e-06	6.880386e-09	3.520917e+01	4.471480e+02
1.880000e-06	4.893324e-06	6.810586e-09	3.491505e+01	4.449841e+02
1.890000e-06	4.850278e-06	6.757756e-09	3.460790e+01	4.426955e+02
1.900000e-06	4.805581e-06	6.735299e-09	3.428897e+01	4.402878e+02
1.910000e-06	4.759081e-06	6.686077e-09	3.395719e+01	4.377679e+02
1.920000e-06	4.710549e-06	6.689736e-09	3.361090e+01	4.351426e+02
1.930000e-06	4.660409e-06	6.639025e-09	3.325314e+01	4.324178e+02
1.940000e-06	4.608524e-06	6.571180e-09	3.288292e+01	4.295979e+02
1.950000e-06	4.554580e-06	6.554704e-09	3.249802e+01	4.266849e+02
1.960000e-06	4.498708e-06	6.487422e-09	3.209936e+01	4.236790e+02
1.970000e-06	4.441118e-06	6.446442e-09	3.168844e+01	4.205786e+02
1.980000e-06	4.382131e-06	6.404104e-09	3.126756e+01	4.173808e+02
1.990000e-06	4.321646e-06	6.349132e-09	3.083598e+01	4.140821e+02
2.000000e-06	4.259448e-06	6.309087e-09	3.039219e+01	4.106792e+02
2.010000e-06	4.195671e-06	6.235410e-09	2.993712e+01	4.071697e+02
2.020000e-06	4.130434e-06	6.196629e-09	2.947164e+01	4.035522e+02
2.030000e-06	4.063785e-06	6.134983e-09	2.899608e+01	3.998269e+02
2.040000e-06	3.995655e-06	6.071959e-09	2.850996e+01	3.959950e+02
2.050000e-06	3.926028e-06	6.024952e-09	2.801315e+01	3.920585e+02
2.060000e-06	3.854930e-06	5.953529e-09	2.750585e+01	3.880200e+02
2.070000e-06	3.782474e-06	5.907040e-09	2.698886e+01	3.838815e+02
2.080000e-06	3.708742e-06	5.826375e-09	2.646276e+01	3.796444e+02
2.090000e-06	3.633649e-06	5.754134e-09	2.592696e+01	3.753087e+02
2.100000e-06	3.557068e-06	5.683839e-09	2.538054e+01	3.708730e+02
2.110000e-06	3.478868e-06	5.604809e-09	2.482256e+01	3.663345e+02
2.120000e-06	3.399349e-06	5.555862e-09	2.425517e+01	3.616894e+02
2.130000e-06	3.318750e-06	5.485866e-09	2.368007e+01	3.569332e+02
2.140000e-06	3.236980e-06	5.419603e-09	2.309663e+01	3.520612e+02
2.150000e-06	3.154158e-06	5.339276e-09	2.250567e+01	3.470694e+02
2.160000e-06	3.070343e-06	5.250857e-09	2.190763e+01	3.419547e+02
2.170000e-06	2.985364e-06	5.169178e-09	2.130129e+01	3.367154e+02
2.180000e-06	2.899095e-06	5.087750e-09	2.068574e+01	3.313510e+02
2.190000e-06	2.811642e-06	5.008209e-09	2.006174e+01	3.258623e+02
2.200000e-06	2.723231e-06	4.919476e-09	1.943091e+01	3.202509e+02
2.210000e-06	2.633926e-06	4.834518e-09	1.879369e+01	3.145189e+02
2.220000e-06	2.543679e-06	4.747296e-09	1.814976e+01	3.086679e+02
2.230000e-06	2.452596e-06	4.662697e-09	1.749986e+01	3.026989e+02
2.240000e-06	2.360797e-06	4.572699e-09	1.684485e+01	2.966118e+02
2.250000e-06	2.268195e-06	4.478562e-09	1.618412e+01	2.904052e+02
2.260000e-06	2.174707e-06	4.380399e-09	1.551706e+01	2.840767e+02
2.270000e-06	2.080216e-06	4.275291e-09	1.484284e+01	2.776228e+02
2.280000e-06	1.984724e-06	4.173930e-09	1.416149e+01	2.710397e+02
2.290000e-06	1.888523e-06	4.072532e-09	1.347507e+01	2.643237e+02
2.300000e-06	1.791851e-06	3.966774e-09	1.278529e+01	2.574715e+02
2.310000e-06	1.694729e-06	3.855841e-09	1.209230e+01	2.504811e+02
2.320000e-06	1.597042e-06	3.747451e-09	1.139528e+01	2.433513e+02
2.330000e-06	1.498784e-06	3.643969e-09	1.069418e+01	2.360819e+02
2.340000e-06	1.400055e-06	3.539565e-09	9.989731e+00	2.286733e+02
2.350000e-06	1.300927e-06	3.424678e-09	9.282430e+00	2.211261e+02
2.360000e-06	1.201458e-06	3.303031e-09	8.572689e+00	2.134401e+02
2.370000e-06	1.101653e-06	3.178907e-09	7.860558e+00	2.056138e+02
2.380000e-06	1.001485e-06	3.055087e-09	7.145839e+00	1.976440e+02
2.390000e-06	9.008958e-07	2.935189e-09	6.428108e+00	1.895251e+02
2.400000e-06	7.999007e-07	2.812434e-09	5.707483e+00	1.812492e+02
2.410000e-06	6.986590e-07	2.683406e-09	4.985100e+00	1.728065e+02
2.420000e-06	5.971665e-07	2.548543e-09	4.260926e+00	1.641860e+02
2.430000e-06	4.954252e-07	2.414660e-09	3.534978e+00	1.553761e+02
2.440000e-06	3.935538e-07	2.283276e-09	2.808101e+00	1.463654e+02
2.450000e-06	2.915627e-07	2.147503e-09	2.080370e+00	1.371442e+02
2.460000e-06	1.894393e-07	2.002742e-09	1.351695e+00	1.277045e+02
2.470000e-06	8.713753e-08	1.852685e-09	6.217472e-01	1.180406e+02
2.480000e-06	-1.529029e-08	1.701158e-09	-1.090999e-01	1.081493e+02
2.490000e-06	-1.177568e-07	1.549634e-09	-8.402230e-01	9.802918e+01
2.500000e-06	-2.201539e-07	1.395245e-09	-1.570851e+00	8.768003e+01
2.510000e-06	-3.224226e-07	1.234081e-09	-2.300563e+00	7.710166e+01
2.520000e-06	-4.245786e-07	1.068604e-09	-3.029470e+00	6.629306e+01
2.530000e-06	-5.265853e-07	8.997324e-10	-3.757313e+00	5.525145e+01
2.540000e-06	-6.283772e-07	7.297337e-10	-4.483623e+00	4.397184e+01
2.550000e-06	-7.298722e-07	5.609800e-10	-5.207813e+00	3.244703e+01
2.560000e-06	-8.310491e-07	3.839714e-10	-5.929735e+00	2.066831e+01
2.570000e-06	-9.319190e-07	1.946984e-10	-6.649466e+00	8.626700e+00
2.580000e-06	-1.032423e-06	-8.106362e-13	-7.366586e+00	-3.685163e+00
2.590000e-06	-1.132481e-06	-1.977099e-10	-8.080520e+00	-1.627087e+01
2.600000e-06	-1.232114e-06	-3.941901e-10	-8.791431e+00	-2.912789e+01
2.610000e-06	-1.331330e-06	-5.951858e-10	-9.499357e+00	-4.224542e+01
2.620000e-06	-1.430109e-06	-8.010519e-10	-1.020417e+01	-5.560271e+01
2.630000e-06	-1.528403e-06	-1.010582e-09	-1.090552e+01	-6.916806e+01
2.640000e-06	-1.626130e-06	-1.221368e-09	-1.160283e+01	-8.289877e+01
2.650000e-06	-1.723263e-06	-1.432712e-09	-1.229589e+01	-9.674207e+01
2.660000e-06	-1.819834e-06	-1.647219e-09	-1.298495e+01	-1.106370e+02
2.670000e-06	-1.915902e-06	-1.864082e-09	-1.367042e+01	-1.245171e+02
2.680000e-06	-2.011362e-06	-2.081597e-09	-1.435155e+01	-1.383138e+02
2.690000e-06	-2.106019e-06	-2.295547e-09	-1.502695e+01	-1.519597e+02
2.700000e-06	-2.199744e-06	-2.503347e-09	-1.569570e+01	-1.653920e+02
2.710000e-06	-2.292519e-06	-2.705586e-09	-1.635768e+01	-1.785558e+02
2.720000e-06	-2.384408e-06	-2.903979e-09	-1.701333e+01	-1.914056e+02
2.730000e-06	-2.475399e-06	-3.096885e-09	-1.766257e+01	-2.039074e+02
2.740000e-06	-2.565476e-06	-3.280977e-09	-1.830528e+01	-2.160379e+02
2.750000e-06	-2.654682e-06	-3.457577e-09	-1.894179e+01	-2.277847e+02
2.760000e-06	-2.743114e-06	-3.629056e-09	-1.957278e+01	-2.391440e+02
2.770000e-06	-2.830739e-06	-3.797226e-09	-2.019800e+01	-2.501187e+02
2.780000e-06	-2.917307e-06	-3.962457e-09	-2.081568e+01	-2.607159e+02
2.790000e-06	-3.002710e-06	-4.120759e-09	-2.142506e+01	-2.709444e+02
2.800000e-06	-3.087019e-06	-4.270606e-09	-2.202662e+01	-2.808128e+02
2.810000e-06	-3.170258e-06	-4.413899e-09	-2.262055e+01	-2.903281e+02
2.820000e-06	-3.252402e-06	-4.552443e-09	-2.320667e+01	-2.994947e+02
2.830000e-06	-3.333464e-06	-4.687096e-09	-2.378506e+01	-3.083147e+02
2.840000e-06	-3.413550e-06	-4.817207e-09	-2.435650e+01	-3.167886e+02
2.850000e-06	-3.492412e-06	-4.943536e-09	-2.491920e+01	-3.249163e+02
2.860000e-06	-3.569776e-06	-5.065439e-09	-2.547121e+01	-3.326988e+02
2.870000e-06	-3.645671e-06	-5.181273e-09	-2.601274e+01	-3.401394e+02
2.880000e-06	-3.720076e-06	-5.291900e-09	-2.654363e+01	-3.472451e+02
2.890000e-06	-3.793129e-06	-5.396758e-09	-2.706488e+01	-3.540273e+02
2.900000e-06	-3.864988e-06	-5.496130e-09	-2.757762e+01	-3.605017e+02
2.910000e-06	-3.935458e-06	-5.591397e-09	-2.808044e+01	-3.666877e+02
2.920000e-06	-4.004330e-06	-5.682056e-09	-2.857185e+01	-3.726078e+02
2.930000e-06	-4.071613e-06	-5.769504e-09	-2.905194e+01	-3.782855e+02
2.940000e-06	-4.137447e-06	-5.853798e-09	-2.952168e+01	-3.837439e+02
