# Temperatura_=_39.53
# Concentracion g/m^3_=_15000.0
# C_Vs_to_Am_M_A/Vsm_=_65563218390.804596
# pendiente_HvsI_1/m_=_3716.3
# ordenada_HvsI_A/m_=_1297.0
# frecuencia_Hz_=_301595.75116060494

Tiempo_(s)	Campo_(V.s)	Magnetizacion_(V.s)	Campo_(kA/m)	Magnetizacion_(A/m)
0.000000e+00	-5.382110e-06	-5.920736e-09	-3.833298e+01	-3.872058e+02
1.000000e-08	-5.379013e-06	-5.917184e-09	-3.831091e+01	-3.870324e+02
2.000000e-08	-5.374163e-06	-5.911798e-09	-3.827637e+01	-3.867769e+02
3.000000e-08	-5.367701e-06	-5.902771e-09	-3.823034e+01	-3.864393e+02
4.000000e-08	-5.359608e-06	-5.894920e-09	-3.817271e+01	-3.860210e+02
5.000000e-08	-5.349715e-06	-5.889403e-09	-3.810225e+01	-3.855247e+02
6.000000e-08	-5.337799e-06	-5.884745e-09	-3.801738e+01	-3.849548e+02
7.000000e-08	-5.323875e-06	-5.897040e-09	-3.791821e+01	-3.843168e+02
8.000000e-08	-5.307885e-06	-5.877869e-09	-3.780432e+01	-3.836167e+02
9.000000e-08	-5.289708e-06	-5.830996e-09	-3.767486e+01	-3.828604e+02
1.000000e-07	-5.269447e-06	-5.841484e-09	-3.753056e+01	-3.820530e+02
1.100000e-07	-5.247294e-06	-5.826441e-09	-3.737277e+01	-3.811980e+02
1.200000e-07	-5.223521e-06	-5.795955e-09	-3.720346e+01	-3.802967e+02
1.300000e-07	-5.198258e-06	-5.861814e-09	-3.702352e+01	-3.793482e+02
1.400000e-07	-5.171355e-06	-5.740423e-09	-3.683191e+01	-3.783491e+02
1.500000e-07	-5.142841e-06	-5.689874e-09	-3.662883e+01	-3.772938e+02
1.600000e-07	-5.112831e-06	-5.838991e-09	-3.641509e+01	-3.761754e+02
1.700000e-07	-5.081136e-06	-5.712576e-09	-3.618935e+01	-3.749862e+02
1.800000e-07	-5.047431e-06	-5.709458e-09	-3.594929e+01	-3.737187e+02
1.900000e-07	-5.011869e-06	-5.761709e-09	-3.569601e+01	-3.723665e+02
2.000000e-07	-4.974780e-06	-5.556691e-09	-3.543185e+01	-3.709249e+02
2.100000e-07	-4.935985e-06	-5.593189e-09	-3.515554e+01	-3.693915e+02
2.200000e-07	-4.895326e-06	-5.658410e-09	-3.486596e+01	-3.677662e+02
2.300000e-07	-4.852702e-06	-5.563185e-09	-3.456237e+01	-3.660514e+02
2.400000e-07	-4.808175e-06	-5.579282e-09	-3.424524e+01	-3.642513e+02
2.500000e-07	-4.761889e-06	-5.521417e-09	-3.391558e+01	-3.623715e+02
2.600000e-07	-4.713668e-06	-5.485744e-09	-3.357213e+01	-3.604178e+02
2.700000e-07	-4.663324e-06	-5.497965e-09	-3.321357e+01	-3.583956e+02
2.800000e-07	-4.610926e-06	-5.453287e-09	-3.284038e+01	-3.563094e+02
2.900000e-07	-4.556747e-06	-5.409898e-09	-3.245449e+01	-3.541618e+02
3.000000e-07	-4.500979e-06	-5.355676e-09	-3.205730e+01	-3.519533e+02
3.100000e-07	-4.443555e-06	-5.331498e-09	-3.164830e+01	-3.496826e+02
3.200000e-07	-4.384379e-06	-5.294129e-09	-3.122684e+01	-3.473462e+02
3.300000e-07	-4.323601e-06	-5.273494e-09	-3.079396e+01	-3.449398e+02
3.400000e-07	-4.261387e-06	-5.251720e-09	-3.035085e+01	-3.424581e+02
3.500000e-07	-4.197797e-06	-5.156455e-09	-2.989795e+01	-3.398959e+02
3.600000e-07	-4.132679e-06	-5.129240e-09	-2.943416e+01	-3.372487e+02
3.700000e-07	-4.065870e-06	-5.123353e-09	-2.895832e+01	-3.345130e+02
3.800000e-07	-3.997511e-06	-5.070731e-09	-2.847145e+01	-3.316869e+02
3.900000e-07	-3.927827e-06	-5.022283e-09	-2.797514e+01	-3.287700e+02
4.000000e-07	-3.856940e-06	-4.958165e-09	-2.747026e+01	-3.257630e+02
4.100000e-07	-3.784790e-06	-4.914986e-09	-2.695639e+01	-3.226677e+02
4.200000e-07	-3.711193e-06	-4.858122e-09	-2.643221e+01	-3.194863e+02
4.300000e-07	-3.636048e-06	-4.824752e-09	-2.589701e+01	-3.162206e+02
4.400000e-07	-3.559405e-06	-4.798699e-09	-2.535113e+01	-3.128721e+02
4.500000e-07	-3.481325e-06	-4.739108e-09	-2.479503e+01	-3.094410e+02
4.600000e-07	-3.401846e-06	-4.663513e-09	-2.422895e+01	-3.059262e+02
4.700000e-07	-3.321063e-06	-4.597128e-09	-2.365359e+01	-3.023255e+02
4.800000e-07	-3.239063e-06	-4.567255e-09	-2.306956e+01	-2.986354e+02
4.900000e-07	-3.155980e-06	-4.510856e-09	-2.247782e+01	-2.948519e+02
5.000000e-07	-3.071895e-06	-4.437536e-09	-2.187894e+01	-2.909705e+02
5.100000e-07	-2.986849e-06	-4.373535e-09	-2.127322e+01	-2.869869e+02
5.200000e-07	-2.900875e-06	-4.312006e-09	-2.066089e+01	-2.828974e+02
5.300000e-07	-2.813964e-06	-4.250722e-09	-2.004188e+01	-2.786991e+02
5.400000e-07	-2.726113e-06	-4.190976e-09	-1.941618e+01	-2.743902e+02
5.500000e-07	-2.637224e-06	-4.122572e-09	-1.878309e+01	-2.699699e+02
5.600000e-07	-2.547231e-06	-4.041947e-09	-1.814213e+01	-2.654382e+02
5.700000e-07	-2.456186e-06	-3.968200e-09	-1.749368e+01	-2.607954e+02
5.800000e-07	-2.364219e-06	-3.906567e-09	-1.683866e+01	-2.560421e+02
5.900000e-07	-2.271469e-06	-3.841127e-09	-1.617807e+01	-2.511784e+02
6.000000e-07	-2.177977e-06	-3.758227e-09	-1.551220e+01	-2.462042e+02
6.100000e-07	-2.083712e-06	-3.671737e-09	-1.484081e+01	-2.411180e+02
6.200000e-07	-1.988743e-06	-3.589663e-09	-1.416442e+01	-2.359181e+02
6.300000e-07	-1.893121e-06	-3.511795e-09	-1.348337e+01	-2.306016e+02
6.400000e-07	-1.796774e-06	-3.436853e-09	-1.279715e+01	-2.251652e+02
6.500000e-07	-1.699635e-06	-3.360439e-09	-1.210530e+01	-2.196057e+02
6.600000e-07	-1.601747e-06	-3.270747e-09	-1.140812e+01	-2.139199e+02
6.700000e-07	-1.503208e-06	-3.168196e-09	-1.070629e+01	-2.081050e+02
6.800000e-07	-1.404058e-06	-3.070238e-09	-1.000011e+01	-2.021593e+02
6.900000e-07	-1.304413e-06	-2.981145e-09	-9.290417e+00	-1.960815e+02
7.000000e-07	-1.204391e-06	-2.892120e-09	-8.578027e+00	-1.898716e+02
7.100000e-07	-1.104031e-06	-2.794734e-09	-7.863236e+00	-1.835296e+02
7.200000e-07	-1.003384e-06	-2.692918e-09	-7.146400e+00	-1.770559e+02
7.300000e-07	-9.024791e-07	-2.589852e-09	-6.427722e+00	-1.704507e+02
7.400000e-07	-8.013086e-07	-2.489483e-09	-5.707156e+00	-1.637131e+02
7.500000e-07	-6.997972e-07	-2.389807e-09	-4.984162e+00	-1.568413e+02
7.600000e-07	-5.979747e-07	-2.283895e-09	-4.258952e+00	-1.498316e+02
7.700000e-07	-4.959504e-07	-2.171378e-09	-3.532305e+00	-1.426787e+02
7.800000e-07	-3.937792e-07	-2.055555e-09	-2.804612e+00	-1.353757e+02
7.900000e-07	-2.914916e-07	-1.942211e-09	-2.076089e+00	-1.279137e+02
8.000000e-07	-1.891012e-07	-1.829540e-09	-1.346834e+00	-1.202828e+02
8.100000e-07	-8.659309e-08	-1.711901e-09	-6.167415e-01	-1.124720e+02
8.200000e-07	1.598263e-08	-1.587140e-09	1.138330e-01	-1.044699e+02
8.300000e-07	1.185473e-07	-1.458943e-09	8.443288e-01	-9.626509e+01
8.400000e-07	2.210975e-07	-1.330769e-09	1.574721e+00	-8.784662e+01
8.500000e-07	3.235868e-07	-1.204540e-09	2.304680e+00	-7.920438e+01
8.600000e-07	4.259673e-07	-1.075238e-09	3.033864e+00	-7.032940e+01
8.700000e-07	5.282373e-07	-9.349136e-10	3.762262e+00	-6.121410e+01
8.800000e-07	6.303513e-07	-7.848687e-10	4.489547e+00	-5.185254e+01
8.900000e-07	7.322324e-07	-6.323464e-10	5.215175e+00	-4.224063e+01
9.000000e-07	8.338184e-07	-4.798535e-10	5.938700e+00	-3.237642e+01
9.100000e-07	9.350685e-07	-3.250431e-10	6.659833e+00	-2.226042e+01
9.200000e-07	1.036025e-06	-1.681908e-10	7.378873e+00	-1.189604e+01
9.300000e-07	1.136646e-06	-6.772756e-12	8.095530e+00	-1.290089e+00
9.400000e-07	1.236865e-06	1.600372e-10	8.809316e+00	9.546720e+00
9.500000e-07	1.336694e-06	3.295632e-10	9.520328e+00	2.059925e+01
9.600000e-07	1.436155e-06	4.993921e-10	1.022872e+01	3.184754e+01
9.700000e-07	1.535105e-06	6.720806e-10	1.093347e+01	4.326653e+01
9.800000e-07	1.633360e-06	8.499124e-10	1.163327e+01	5.482604e+01
9.900000e-07	1.730742e-06	1.029476e-09	1.232685e+01	6.649107e+01
1.000000e-06	1.827243e-06	1.208260e-09	1.301416e+01	7.822230e+01
1.010000e-06	1.923045e-06	1.385788e-09	1.369650e+01	8.997704e+01
1.020000e-06	2.018217e-06	1.562792e-09	1.437434e+01	1.017102e+02
1.030000e-06	2.112695e-06	1.739003e-09	1.504724e+01	1.133759e+02
1.040000e-06	2.206452e-06	1.915602e-09	1.571500e+01	1.249284e+02
1.050000e-06	2.299561e-06	2.091465e-09	1.637815e+01	1.363238e+02
1.060000e-06	2.391915e-06	2.263322e-09	1.703592e+01	1.475212e+02
1.070000e-06	2.483490e-06	2.429731e-09	1.768814e+01	1.584837e+02
1.080000e-06	2.574301e-06	2.591482e-09	1.833493e+01	1.691791e+02
1.090000e-06	2.663965e-06	2.749299e-09	1.897354e+01	1.795804e+02
1.100000e-06	2.752356e-06	2.904285e-09	1.960309e+01	1.896661e+02
1.110000e-06	2.839834e-06	3.052871e-09	2.022613e+01	1.994195e+02
1.120000e-06	2.926424e-06	3.195556e-09	2.084286e+01	2.088291e+02
1.130000e-06	3.012058e-06	3.332186e-09	2.145277e+01	2.178877e+02
1.140000e-06	3.096749e-06	3.463100e-09	2.205596e+01	2.265920e+02
1.150000e-06	3.180531e-06	3.589407e-09	2.265268e+01	2.349421e+02
1.160000e-06	3.263317e-06	3.711866e-09	2.324230e+01	2.429412e+02
1.170000e-06	3.344783e-06	3.828927e-09	2.382253e+01	2.505954e+02
1.180000e-06	3.424969e-06	3.939035e-09	2.439364e+01	2.579131e+02
1.190000e-06	3.504014e-06	4.043324e-09	2.495662e+01	2.649053e+02
1.200000e-06	3.581863e-06	4.144218e-09	2.551109e+01	2.715852e+02
1.210000e-06	3.658427e-06	4.242011e-09	2.605640e+01	2.779682e+02
1.220000e-06	3.733622e-06	4.334565e-09	2.659196e+01	2.840713e+02
1.230000e-06	3.807215e-06	4.422134e-09	2.711611e+01	2.899127e+02
1.240000e-06	3.879218e-06	4.504436e-09	2.762893e+01	2.955115e+02
1.250000e-06	3.949845e-06	4.585766e-09	2.813196e+01	3.008865e+02
1.260000e-06	4.019084e-06	4.666860e-09	2.862510e+01	3.060553e+02
1.270000e-06	4.086999e-06	4.745008e-09	2.910881e+01	3.110340e+02
1.280000e-06	4.153453e-06	4.817410e-09	2.958211e+01	3.158356e+02
1.290000e-06	4.218212e-06	4.886641e-09	3.004335e+01	3.204702e+02
1.300000e-06	4.281409e-06	4.953826e-09	3.049345e+01	3.249438e+02
1.310000e-06	4.343184e-06	5.019672e-09	3.093344e+01	3.292590e+02
1.320000e-06	4.403513e-06	5.083375e-09	3.136312e+01	3.334150e+02
1.330000e-06	4.462348e-06	5.142987e-09	3.178216e+01	3.374083e+02
1.340000e-06	4.519440e-06	5.198559e-09	3.218878e+01	3.412335e+02
1.350000e-06	4.574786e-06	5.250866e-09	3.258298e+01	3.448846e+02
1.360000e-06	4.628582e-06	5.301670e-09	3.296612e+01	3.483558e+02
1.370000e-06	4.680632e-06	5.350426e-09	3.333684e+01	3.516429e+02
1.380000e-06	4.730682e-06	5.395301e-09	3.369331e+01	3.547437e+02
1.390000e-06	4.778784e-06	5.437883e-09	3.403591e+01	3.576590e+02
1.400000e-06	4.825156e-06	5.479396e-09	3.436618e+01	3.603924e+02
1.410000e-06	4.869961e-06	5.517155e-09	3.468530e+01	3.629503e+02
1.420000e-06	4.913148e-06	5.551324e-09	3.499289e+01	3.653414e+02
1.430000e-06	4.954498e-06	5.582975e-09	3.528739e+01	3.675758e+02
1.440000e-06	4.994018e-06	5.611479e-09	3.556887e+01	3.696643e+02
1.450000e-06	5.031881e-06	5.638712e-09	3.583854e+01	3.716174e+02
1.460000e-06	5.068140e-06	5.665393e-09	3.609678e+01	3.734445e+02
1.470000e-06	5.102636e-06	5.692334e-09	3.634247e+01	3.751532e+02
1.480000e-06	5.135173e-06	5.717413e-09	3.657422e+01	3.767492e+02
1.490000e-06	5.165870e-06	5.737758e-09	3.679285e+01	3.782361e+02
1.500000e-06	5.194885e-06	5.755283e-09	3.699950e+01	3.796158e+02
1.510000e-06	5.222162e-06	5.772069e-09	3.719378e+01	3.808887e+02
1.520000e-06	5.247429e-06	5.789019e-09	3.737374e+01	3.820548e+02
1.530000e-06	5.270664e-06	5.804969e-09	3.753922e+01	3.831137e+02
1.540000e-06	5.292142e-06	5.820019e-09	3.769220e+01	3.840657e+02
1.550000e-06	5.311846e-06	5.834024e-09	3.783253e+01	3.849121e+02
1.560000e-06	5.329596e-06	5.846179e-09	3.795896e+01	3.856550e+02
1.570000e-06	5.345401e-06	5.856170e-09	3.807152e+01	3.862980e+02
1.580000e-06	5.359248e-06	5.865294e-09	3.817014e+01	3.868452e+02
1.590000e-06	5.371008e-06	5.874029e-09	3.825390e+01	3.873012e+02
1.600000e-06	5.380607e-06	5.880143e-09	3.832227e+01	3.876703e+02
1.610000e-06	5.388182e-06	5.884130e-09	3.837622e+01	3.879565e+02
1.620000e-06	5.393931e-06	5.888308e-09	3.841717e+01	3.881626e+02
1.630000e-06	5.397884e-06	5.892102e-09	3.844532e+01	3.882900e+02
1.640000e-06	5.399909e-06	5.893367e-09	3.845974e+01	3.883393e+02
1.650000e-06	5.399945e-06	5.892183e-09	3.846000e+01	3.883097e+02
1.660000e-06	5.398187e-06	5.894374e-09	3.844748e+01	3.881999e+02
1.670000e-06	5.394785e-06	5.892047e-09	3.842325e+01	3.880087e+02
1.680000e-06	5.389691e-06	5.888192e-09	3.838697e+01	3.877353e+02
1.690000e-06	5.382710e-06	5.885561e-09	3.833725e+01	3.873800e+02
1.700000e-06	5.373938e-06	5.880975e-09	3.827477e+01	3.869443e+02
1.710000e-06	5.363566e-06	5.873953e-09	3.820090e+01	3.864316e+02
1.720000e-06	5.351417e-06	5.850441e-09	3.811437e+01	3.858463e+02
1.730000e-06	5.337229e-06	5.829273e-09	3.801332e+01	3.851942e+02
1.740000e-06	5.320945e-06	5.868609e-09	3.789734e+01	3.844813e+02
1.750000e-06	5.302295e-06	5.833821e-09	3.776451e+01	3.837134e+02
1.760000e-06	5.280985e-06	5.819603e-09	3.761273e+01	3.828953e+02
1.770000e-06	5.257550e-06	5.814675e-09	3.744582e+01	3.820300e+02
1.780000e-06	5.232967e-06	5.713589e-09	3.727073e+01	3.811185e+02
1.790000e-06	5.207519e-06	5.844075e-09	3.708949e+01	3.801592e+02
1.800000e-06	5.180489e-06	5.775619e-09	3.689697e+01	3.791483e+02
1.810000e-06	5.151310e-06	5.624656e-09	3.668915e+01	3.780798e+02
1.820000e-06	5.120347e-06	5.804362e-09	3.646862e+01	3.769466e+02
1.830000e-06	5.087747e-06	5.667361e-09	3.623644e+01	3.757410e+02
1.840000e-06	5.053293e-06	5.616141e-09	3.599104e+01	3.744556e+02
1.850000e-06	5.017120e-06	5.861788e-09	3.573340e+01	3.730843e+02
1.860000e-06	4.979153e-06	5.675161e-09	3.546300e+01	3.716229e+02
1.870000e-06	4.939375e-06	5.615711e-09	3.517969e+01	3.700693e+02
1.880000e-06	4.897901e-06	5.662583e-09	3.488430e+01	3.684243e+02
1.890000e-06	4.854627e-06	5.513330e-09	3.457608e+01	3.666906e+02
1.900000e-06	4.809627e-06	5.622677e-09	3.425558e+01	3.648726e+02
1.910000e-06	4.762816e-06	5.530941e-09	3.392218e+01	3.629762e+02
1.920000e-06	4.714094e-06	5.471764e-09	3.357516e+01	3.610071e+02
1.930000e-06	4.663707e-06	5.548311e-09	3.321629e+01	3.589706e+02
1.940000e-06	4.611516e-06	5.380727e-09	3.284458e+01	3.568708e+02
1.950000e-06	4.557292e-06	5.423411e-09	3.245838e+01	3.547099e+02
1.960000e-06	4.501181e-06	5.415999e-09	3.205874e+01	3.524880e+02
1.970000e-06	4.443467e-06	5.345103e-09	3.164768e+01	3.502032e+02
1.980000e-06	4.384343e-06	5.311306e-09	3.122658e+01	3.478520e+02
1.990000e-06	4.323599e-06	5.215356e-09	3.079394e+01	3.454296e+02
2.000000e-06	4.261123e-06	5.303330e-09	3.034897e+01	3.429308e+02
2.010000e-06	4.197094e-06	5.196613e-09	2.989294e+01	3.403505e+02
2.020000e-06	4.131611e-06	5.122077e-09	2.942655e+01	3.376842e+02
2.030000e-06	4.064700e-06	5.153811e-09	2.894999e+01	3.349290e+02
2.040000e-06	3.996306e-06	5.054609e-09	2.846287e+01	3.320832e+02
2.050000e-06	3.926438e-06	5.033773e-09	2.796525e+01	3.291466e+02
2.060000e-06	3.855105e-06	4.965067e-09	2.745720e+01	3.261202e+02
2.070000e-06	3.782388e-06	4.974302e-09	2.693928e+01	3.230060e+02
2.080000e-06	3.708383e-06	4.910774e-09	2.641220e+01	3.198061e+02
2.090000e-06	3.632981e-06	4.784426e-09	2.587516e+01	3.165223e+02
2.100000e-06	3.556097e-06	4.769793e-09	2.532757e+01	3.131558e+02
2.110000e-06	3.477735e-06	4.729599e-09	2.476945e+01	3.097066e+02
2.120000e-06	3.398037e-06	4.705116e-09	2.420182e+01	3.061733e+02
2.130000e-06	3.317150e-06	4.616780e-09	2.362572e+01	3.025535e+02
2.140000e-06	3.235122e-06	4.571859e-09	2.304149e+01	2.988435e+02
2.150000e-06	3.152047e-06	4.518377e-09	2.244980e+01	2.950391e+02
2.160000e-06	3.067909e-06	4.434737e-09	2.185055e+01	2.911359e+02
2.170000e-06	2.982611e-06	4.398845e-09	2.124303e+01	2.871296e+02
2.180000e-06	2.896085e-06	4.333096e-09	2.062677e+01	2.830167e+02
2.190000e-06	2.808407e-06	4.264838e-09	2.000230e+01	2.787945e+02
2.200000e-06	2.719763e-06	4.179084e-09	1.937095e+01	2.744616e+02
2.210000e-06	2.630212e-06	4.123564e-09	1.873315e+01	2.700171e+02
2.220000e-06	2.539798e-06	4.069697e-09	1.808919e+01	2.654612e+02
2.230000e-06	2.448554e-06	3.995016e-09	1.743932e+01	2.607944e+02
2.240000e-06	2.356479e-06	3.919456e-09	1.678354e+01	2.560171e+02
2.250000e-06	2.263550e-06	3.840027e-09	1.612167e+01	2.511296e+02
2.260000e-06	2.169731e-06	3.767238e-09	1.545346e+01	2.461312e+02
2.270000e-06	2.074985e-06	3.692912e-09	1.477866e+01	2.410206e+02
2.280000e-06	1.979294e-06	3.621017e-09	1.409711e+01	2.357956e+02
2.290000e-06	1.882865e-06	3.528530e-09	1.341032e+01	2.304534e+02
2.300000e-06	1.785934e-06	3.430230e-09	1.271995e+01	2.249907e+02
2.310000e-06	1.688513e-06	3.341526e-09	1.202609e+01	2.194041e+02
2.320000e-06	1.590531e-06	3.266854e-09	1.132823e+01	2.136905e+02
2.330000e-06	1.492017e-06	3.194501e-09	1.062659e+01	2.078475e+02
2.340000e-06	1.393063e-06	3.107292e-09	9.921803e+00	2.018732e+02
2.350000e-06	1.293709e-06	3.008352e-09	9.214175e+00	1.957669e+02
2.360000e-06	1.193997e-06	2.903220e-09	8.503997e+00	1.895283e+02
2.370000e-06	1.094000e-06	2.804928e-09	7.791790e+00	1.831578e+02
2.380000e-06	9.936978e-07	2.713898e-09	7.077408e+00	1.766557e+02
2.390000e-06	8.930016e-07	2.617967e-09	6.360221e+00	1.700219e+02
2.400000e-06	7.918871e-07	2.509018e-09	5.640053e+00	1.632555e+02
2.410000e-06	6.903662e-07	2.397442e-09	4.916992e+00	1.563542e+02
2.420000e-06	5.886044e-07	2.290120e-09	4.192214e+00	1.493140e+02
2.430000e-06	4.866319e-07	2.186956e-09	3.465935e+00	1.421294e+02
2.440000e-06	3.843894e-07	2.077965e-09	2.737734e+00	1.347927e+02
2.450000e-06	2.819749e-07	1.958939e-09	2.008308e+00	1.272952e+02
2.460000e-06	1.794698e-07	1.835812e-09	1.278237e+00	1.196264e+02
2.470000e-06	7.687809e-08	1.713149e-09	5.475484e-01	1.117753e+02
2.480000e-06	-2.582787e-08	1.594481e-09	-1.839537e-01	1.037304e+02
2.490000e-06	-1.285792e-07	1.475059e-09	-9.157788e-01	9.548043e+01
2.500000e-06	-2.313229e-07	1.345954e-09	-1.647550e+00	8.701454e+01
2.510000e-06	-3.339233e-07	1.206819e-09	-2.378300e+00	7.832286e+01
2.520000e-06	-4.363464e-07	1.069233e-09	-3.107788e+00	6.939668e+01
2.530000e-06	-5.386730e-07	9.341737e-10	-3.836588e+00	6.022877e+01
2.540000e-06	-6.407656e-07	7.967016e-10	-4.563721e+00	5.081356e+01
2.550000e-06	-7.425529e-07	6.527393e-10	-5.288681e+00	4.114739e+01
2.560000e-06	-8.439595e-07	4.986423e-10	-6.010928e+00	3.122880e+01
2.570000e-06	-9.448196e-07	3.381864e-10	-6.729284e+00	2.105890e+01
2.580000e-06	-1.045190e-06	1.782429e-10	-7.444150e+00	1.064178e+01
2.590000e-06	-1.145197e-06	2.112133e-11	-8.156430e+00	-1.497100e-02
2.600000e-06	-1.244833e-06	-1.376892e-10	-8.866068e+00	-1.089972e+01
2.610000e-06	-1.344105e-06	-3.065601e-10	-9.573111e+00	-2.199634e+01
2.620000e-06	-1.442985e-06	-4.807074e-10	-1.027736e+01	-3.328377e+01
2.630000e-06	-1.541423e-06	-6.543554e-10	-1.097847e+01	-4.473587e+01
2.640000e-06	-1.639302e-06	-8.299671e-10	-1.167559e+01	-5.632137e+01
2.650000e-06	-1.736543e-06	-1.008579e-09	-1.236817e+01	-6.800431e+01
2.660000e-06	-1.833177e-06	-1.190258e-09	-1.305642e+01	-7.974456e+01
2.670000e-06	-1.929233e-06	-1.372561e-09	-1.374057e+01	-9.149881e+01
2.680000e-06	-2.024796e-06	-1.554251e-09	-1.442119e+01	-1.032217e+02
2.690000e-06	-2.119765e-06	-1.731906e-09	-1.509759e+01	-1.148672e+02
2.700000e-06	-2.213781e-06	-1.904171e-09	-1.576720e+01	-1.263899e+02
2.710000e-06	-2.306661e-06	-2.075713e-09	-1.642872e+01	-1.377465e+02
2.720000e-06	-2.398613e-06	-2.246628e-09	-1.708363e+01	-1.488968e+02
2.730000e-06	-2.489812e-06	-2.412288e-09	-1.773318e+01	-1.598049e+02
2.740000e-06	-2.580118e-06	-2.572499e-09	-1.837636e+01	-1.704396e+02
2.750000e-06	-2.669396e-06	-2.729018e-09	-1.901223e+01	-1.807753e+02
2.760000e-06	-2.757750e-06	-2.882038e-09	-1.964151e+01	-1.907912e+02
2.770000e-06	-2.845332e-06	-3.031099e-09	-2.026529e+01	-2.004721e+02
2.780000e-06	-2.932060e-06	-3.177682e-09	-2.088300e+01	-2.098072e+02
2.790000e-06	-3.017628e-06	-3.315557e-09	-2.149243e+01	-2.187903e+02
2.800000e-06	-3.101934e-06	-3.443200e-09	-2.209289e+01	-2.274189e+02
2.810000e-06	-3.185145e-06	-3.566884e-09	-2.268554e+01	-2.356937e+02
2.820000e-06	-3.267352e-06	-3.689241e-09	-2.327104e+01	-2.436186e+02
2.830000e-06	-3.348492e-06	-3.808718e-09	-2.384895e+01	-2.512001e+02
2.840000e-06	-3.428589e-06	-3.923620e-09	-2.441942e+01	-2.584473e+02
2.850000e-06	-3.507544e-06	-4.032104e-09	-2.498176e+01	-2.653717e+02
2.860000e-06	-3.584989e-06	-4.132487e-09	-2.553335e+01	-2.719869e+02
2.870000e-06	-3.660827e-06	-4.226784e-09	-2.607349e+01	-2.783087e+02
2.880000e-06	-3.735247e-06	-4.317990e-09	-2.660353e+01	-2.843544e+02
2.890000e-06	-3.808270e-06	-4.406616e-09	-2.712362e+01	-2.901426e+02
2.900000e-06	-3.880003e-06	-4.492077e-09	-2.763453e+01	-2.956921e+02
2.910000e-06	-3.950369e-06	-4.572373e-09	-2.813569e+01	-3.010218e+02
2.920000e-06	-4.019141e-06	-4.650305e-09	-2.862550e+01	-3.061489e+02
2.930000e-06	-4.086424e-06	-4.727755e-09	-2.910472e+01	-3.110889e+02
2.940000e-06	-4.152328e-06	-4.801572e-09	-2.957410e+01	-3.158543e+02
