# Temperatura_=_42.98
# Concentracion g/m^3_=_15000.0
# C_Vs_to_Am_M_A/Vsm_=_65563218390.804596
# pendiente_HvsI_1/m_=_3716.3
# ordenada_HvsI_A/m_=_1297.0
# frecuencia_Hz_=_301594.91947992117

Tiempo_(s)	Campo_(V.s)	Magnetizacion_(V.s)	Campo_(kA/m)	Magnetizacion_(A/m)
0.000000e+00	-5.384413e-06	-5.992119e-09	-3.833616e+01	-3.917199e+02
1.000000e-08	-5.381484e-06	-5.987319e-09	-3.831530e+01	-3.915831e+02
2.000000e-08	-5.376779e-06	-5.982578e-09	-3.828181e+01	-3.913531e+02
3.000000e-08	-5.370443e-06	-5.976911e-09	-3.823670e+01	-3.910310e+02
4.000000e-08	-5.362511e-06	-5.969516e-09	-3.818022e+01	-3.906209e+02
5.000000e-08	-5.352744e-06	-5.961904e-09	-3.811068e+01	-3.901289e+02
6.000000e-08	-5.340935e-06	-5.953236e-09	-3.802660e+01	-3.895632e+02
7.000000e-08	-5.327192e-06	-5.947831e-09	-3.792876e+01	-3.889331e+02
8.000000e-08	-5.311348e-06	-5.952313e-09	-3.781595e+01	-3.882480e+02
9.000000e-08	-5.293279e-06	-5.939608e-09	-3.768730e+01	-3.875164e+02
1.000000e-07	-5.273185e-06	-5.927583e-09	-3.754424e+01	-3.867444e+02
1.100000e-07	-5.251218e-06	-5.914768e-09	-3.738783e+01	-3.859353e+02
1.200000e-07	-5.227571e-06	-5.873672e-09	-3.721947e+01	-3.850891e+02
1.300000e-07	-5.202414e-06	-5.861612e-09	-3.704036e+01	-3.842019e+02
1.400000e-07	-5.175634e-06	-5.852944e-09	-3.684969e+01	-3.832669e+02
1.500000e-07	-5.147207e-06	-5.803116e-09	-3.664729e+01	-3.822746e+02
1.600000e-07	-5.117326e-06	-5.844626e-09	-3.643454e+01	-3.812143e+02
1.700000e-07	-5.085826e-06	-5.844277e-09	-3.621027e+01	-3.800752e+02
1.800000e-07	-5.052209e-06	-5.788271e-09	-3.597092e+01	-3.788472e+02
1.900000e-07	-5.016766e-06	-5.791986e-09	-3.571857e+01	-3.775227e+02
2.000000e-07	-4.979843e-06	-5.705662e-09	-3.545569e+01	-3.760969e+02
2.100000e-07	-4.941164e-06	-5.650157e-09	-3.518030e+01	-3.745683e+02
2.200000e-07	-4.900723e-06	-5.684213e-09	-3.489237e+01	-3.729386e+02
2.300000e-07	-4.858365e-06	-5.657338e-09	-3.459079e+01	-3.712125e+02
2.400000e-07	-4.814070e-06	-5.630163e-09	-3.427541e+01	-3.693963e+02
2.500000e-07	-4.768028e-06	-5.623971e-09	-3.394760e+01	-3.674977e+02
2.600000e-07	-4.720109e-06	-5.569738e-09	-3.360642e+01	-3.655241e+02
2.700000e-07	-4.670150e-06	-5.542829e-09	-3.325072e+01	-3.634819e+02
2.800000e-07	-4.618082e-06	-5.527692e-09	-3.288001e+01	-3.613754e+02
2.900000e-07	-4.564037e-06	-5.479188e-09	-3.249522e+01	-3.592066e+02
3.000000e-07	-4.508449e-06	-5.429466e-09	-3.209944e+01	-3.569752e+02
3.100000e-07	-4.451236e-06	-5.422670e-09	-3.169209e+01	-3.546783e+02
3.200000e-07	-4.392193e-06	-5.392698e-09	-3.127171e+01	-3.523114e+02
3.300000e-07	-4.331569e-06	-5.327376e-09	-3.084008e+01	-3.498691e+02
3.400000e-07	-4.269476e-06	-5.300614e-09	-3.039799e+01	-3.473455e+02
3.500000e-07	-4.206039e-06	-5.250505e-09	-2.994633e+01	-3.447357e+02
3.600000e-07	-4.141131e-06	-5.198133e-09	-2.948419e+01	-3.420358e+02
3.700000e-07	-4.074507e-06	-5.182940e-09	-2.900984e+01	-3.392434e+02
3.800000e-07	-4.006287e-06	-5.149588e-09	-2.852412e+01	-3.363581e+02
3.900000e-07	-3.936661e-06	-5.090358e-09	-2.802840e+01	-3.333807e+02
4.000000e-07	-3.865770e-06	-5.024083e-09	-2.752367e+01	-3.303132e+02
4.100000e-07	-3.793713e-06	-4.975316e-09	-2.701063e+01	-3.271581e+02
4.200000e-07	-3.720288e-06	-4.932715e-09	-2.648786e+01	-3.239177e+02
4.300000e-07	-3.645278e-06	-4.886106e-09	-2.595380e+01	-3.205938e+02
4.400000e-07	-3.568704e-06	-4.846948e-09	-2.540861e+01	-3.171867e+02
4.500000e-07	-3.490702e-06	-4.800856e-09	-2.485324e+01	-3.136956e+02
4.600000e-07	-3.411264e-06	-4.736412e-09	-2.428765e+01	-3.101182e+02
4.700000e-07	-3.330511e-06	-4.666288e-09	-2.371271e+01	-3.064511e+02
4.800000e-07	-3.248595e-06	-4.613386e-09	-2.312948e+01	-3.026901e+02
4.900000e-07	-3.165544e-06	-4.562189e-09	-2.253817e+01	-2.988309e+02
5.000000e-07	-3.081559e-06	-4.491905e-09	-2.194021e+01	-2.948697e+02
5.100000e-07	-2.996673e-06	-4.425138e-09	-2.133584e+01	-2.908031e+02
5.200000e-07	-2.910784e-06	-4.366542e-09	-2.072432e+01	-2.866291e+02
5.300000e-07	-2.823912e-06	-4.304268e-09	-2.010580e+01	-2.823469e+02
5.400000e-07	-2.736177e-06	-4.237729e-09	-1.948114e+01	-2.779565e+02
5.500000e-07	-2.647458e-06	-4.165723e-09	-1.884948e+01	-2.734590e+02
5.600000e-07	-2.557480e-06	-4.088809e-09	-1.820885e+01	-2.688557e+02
5.700000e-07	-2.466380e-06	-4.014259e-09	-1.756023e+01	-2.641478e+02
5.800000e-07	-2.374441e-06	-3.950317e-09	-1.690564e+01	-2.593359e+02
5.900000e-07	-2.281728e-06	-3.880808e-09	-1.624554e+01	-2.544198e+02
6.000000e-07	-2.188263e-06	-3.799507e-09	-1.558009e+01	-2.493980e+02
6.100000e-07	-2.093999e-06	-3.714771e-09	-1.490894e+01	-2.442679e+02
6.200000e-07	-1.998996e-06	-3.631731e-09	-1.423253e+01	-2.390260e+02
6.300000e-07	-1.903387e-06	-3.552181e-09	-1.355181e+01	-2.336683e+02
6.400000e-07	-1.807103e-06	-3.475586e-09	-1.286629e+01	-2.281905e+02
6.500000e-07	-1.710057e-06	-3.398913e-09	-1.217533e+01	-2.225887e+02
6.600000e-07	-1.612231e-06	-3.309143e-09	-1.147883e+01	-2.168594e+02
6.700000e-07	-1.513641e-06	-3.208024e-09	-1.077688e+01	-2.110005e+02
6.800000e-07	-1.414472e-06	-3.109367e-09	-1.007081e+01	-2.050105e+02
6.900000e-07	-1.314924e-06	-3.019055e-09	-9.362051e+00	-1.988889e+02
7.000000e-07	-1.215044e-06	-2.929121e-09	-8.650918e+00	-1.926358e+02
7.100000e-07	-1.114794e-06	-2.833171e-09	-7.937154e+00	-1.862515e+02
7.200000e-07	-1.014225e-06	-2.733744e-09	-7.221117e+00	-1.797357e+02
7.300000e-07	-9.133810e-07	-2.631702e-09	-6.503127e+00	-1.730876e+02
7.400000e-07	-8.121786e-07	-2.528324e-09	-5.782582e+00	-1.663047e+02
7.500000e-07	-7.106374e-07	-2.425739e-09	-5.059625e+00	-1.593834e+02
7.600000e-07	-6.088689e-07	-2.319378e-09	-4.335049e+00	-1.523182e+02
7.700000e-07	-5.069267e-07	-2.204856e-09	-3.609237e+00	-1.451025e+02
7.800000e-07	-4.047356e-07	-2.088212e-09	-2.881653e+00	-1.377280e+02
7.900000e-07	-3.023702e-07	-1.974283e-09	-2.152828e+00	-1.301861e+02
8.000000e-07	-1.999400e-07	-1.862356e-09	-1.423541e+00	-1.224674e+02
8.100000e-07	-9.742606e-08	-1.745583e-09	-6.936580e-01	-1.145628e+02
8.200000e-07	5.119877e-09	-1.621145e-09	3.645271e-02	-1.064631e+02
8.300000e-07	1.077037e-07	-1.491341e-09	7.668333e-01	-9.816002e+01
8.400000e-07	2.103206e-07	-1.359637e-09	1.497449e+00	-8.964544e+01
8.500000e-07	3.128439e-07	-1.230049e-09	2.227398e+00	-8.091186e+01
8.600000e-07	4.152447e-07	-1.097817e-09	2.956476e+00	-7.195206e+01
8.700000e-07	5.175228e-07	-9.582798e-10	3.684680e+00	-6.275908e+01
8.800000e-07	6.196532e-07	-8.098618e-10	4.411832e+00	-5.332622e+01
8.900000e-07	7.216187e-07	-6.553154e-10	5.137810e+00	-4.364721e+01
9.000000e-07	8.233062e-07	-5.000799e-10	5.861809e+00	-3.371669e+01
9.100000e-07	9.246903e-07	-3.444958e-10	6.583647e+00	-2.353085e+01
9.200000e-07	1.025748e-06	-1.864727e-10	7.303163e+00	-1.308832e+01
9.300000e-07	1.126447e-06	-2.307175e-11	8.020120e+00	-2.391280e+00
9.400000e-07	1.226784e-06	1.456724e-10	8.734503e+00	8.553494e+00
9.500000e-07	1.326721e-06	3.168461e-10	9.446040e+00	1.973358e+01
9.600000e-07	1.426222e-06	4.877863e-10	1.015447e+01	3.113014e+01
9.700000e-07	1.525288e-06	6.611930e-10	1.085981e+01	4.271745e+01
9.800000e-07	1.623765e-06	8.406813e-10	1.156095e+01	5.446289e+01
9.900000e-07	1.721358e-06	1.025203e-09	1.225580e+01	6.632751e+01
1.000000e-06	1.818035e-06	1.207948e-09	1.294412e+01	7.826691e+01
1.010000e-06	1.913961e-06	1.387665e-09	1.362710e+01	9.023276e+01
1.020000e-06	2.009224e-06	1.566432e-09	1.430536e+01	1.021744e+02
1.030000e-06	2.103769e-06	1.745528e-09	1.497850e+01	1.140410e+02
1.040000e-06	2.197593e-06	1.926595e-09	1.564651e+01	1.257829e+02
1.050000e-06	2.290751e-06	2.105790e-09	1.630978e+01	1.373540e+02
1.060000e-06	2.383185e-06	2.279895e-09	1.696790e+01	1.487126e+02
1.070000e-06	2.474892e-06	2.448007e-09	1.762083e+01	1.598225e+02
1.080000e-06	2.565831e-06	2.611844e-09	1.826831e+01	1.706537e+02
1.090000e-06	2.655632e-06	2.774161e-09	1.890768e+01	1.811820e+02
1.100000e-06	2.744124e-06	2.932076e-09	1.953772e+01	1.913891e+02
1.110000e-06	2.831672e-06	3.083177e-09	2.016105e+01	2.012614e+02
1.120000e-06	2.918376e-06	3.226411e-09	2.077837e+01	2.107900e+02
1.130000e-06	3.004143e-06	3.364632e-09	2.138902e+01	2.199690e+02
1.140000e-06	3.088980e-06	3.499468e-09	2.199304e+01	2.287955e+02
1.150000e-06	3.172889e-06	3.629233e-09	2.259046e+01	2.372688e+02
1.160000e-06	3.255833e-06	3.752899e-09	2.318101e+01	2.453901e+02
1.170000e-06	3.337482e-06	3.868213e-09	2.376234e+01	2.531628e+02
1.180000e-06	3.417800e-06	3.977751e-09	2.433419e+01	2.605926e+02
1.190000e-06	3.496921e-06	4.083444e-09	2.489752e+01	2.676877e+02
1.200000e-06	3.574828e-06	4.186551e-09	2.545220e+01	2.744587e+02
1.210000e-06	3.651538e-06	4.286474e-09	2.599837e+01	2.809195e+02
1.220000e-06	3.726911e-06	4.380654e-09	2.653501e+01	2.870863e+02
1.230000e-06	3.800644e-06	4.468076e-09	2.705998e+01	2.929777e+02
1.240000e-06	3.872780e-06	4.550108e-09	2.757357e+01	2.986138e+02
1.250000e-06	3.943543e-06	4.630902e-09	2.807740e+01	3.040150e+02
1.260000e-06	4.012909e-06	4.713022e-09	2.857127e+01	3.092013e+02
1.270000e-06	4.080991e-06	4.792199e-09	2.905601e+01	3.141907e+02
1.280000e-06	4.147641e-06	4.866274e-09	2.953054e+01	3.189983e+02
1.290000e-06	4.212540e-06	4.936537e-09	2.999261e+01	3.236356e+02
1.300000e-06	4.275859e-06	5.003269e-09	3.044343e+01	3.281099e+02
1.310000e-06	4.337797e-06	5.067147e-09	3.088442e+01	3.324245e+02
1.320000e-06	4.398360e-06	5.128618e-09	3.131562e+01	3.365786e+02
1.330000e-06	4.457513e-06	5.187391e-09	3.173678e+01	3.405690e+02
1.340000e-06	4.514937e-06	5.243373e-09	3.214563e+01	3.443905e+02
1.350000e-06	4.570550e-06	5.297681e-09	3.254159e+01	3.480373e+02
1.360000e-06	4.624518e-06	5.350244e-09	3.292583e+01	3.515044e+02
1.370000e-06	4.676730e-06	5.399557e-09	3.329757e+01	3.547887e+02
1.380000e-06	4.726984e-06	5.444581e-09	3.365537e+01	3.578896e+02
1.390000e-06	4.775319e-06	5.485879e-09	3.399951e+01	3.608096e+02
1.400000e-06	4.821905e-06	5.524855e-09	3.433119e+01	3.635540e+02
1.410000e-06	4.866875e-06	5.562361e-09	3.465138e+01	3.661307e+02
1.420000e-06	4.910272e-06	5.598317e-09	3.496036e+01	3.685493e+02
1.430000e-06	4.951802e-06	5.631177e-09	3.525604e+01	3.708204e+02
1.440000e-06	4.991471e-06	5.660681e-09	3.553848e+01	3.729540e+02
1.450000e-06	5.029492e-06	5.688122e-09	3.580918e+01	3.749596e+02
1.460000e-06	5.065934e-06	5.714922e-09	3.606864e+01	3.768444e+02
1.470000e-06	5.100615e-06	5.742095e-09	3.631557e+01	3.786140e+02
1.480000e-06	5.133300e-06	5.767870e-09	3.654828e+01	3.802714e+02
1.490000e-06	5.164209e-06	5.789910e-09	3.676834e+01	3.818182e+02
1.500000e-06	5.193489e-06	5.809178e-09	3.697681e+01	3.832544e+02
1.510000e-06	5.221015e-06	5.826421e-09	3.717279e+01	3.845797e+02
1.520000e-06	5.246483e-06	5.843389e-09	3.735412e+01	3.857938e+02
1.530000e-06	5.269911e-06	5.860431e-09	3.752093e+01	3.868974e+02
1.540000e-06	5.291587e-06	5.875863e-09	3.767526e+01	3.878924e+02
1.550000e-06	5.311558e-06	5.889537e-09	3.781745e+01	3.887820e+02
1.560000e-06	5.329655e-06	5.902297e-09	3.794630e+01	3.895706e+02
1.570000e-06	5.345730e-06	5.914035e-09	3.806074e+01	3.902636e+02
1.580000e-06	5.359832e-06	5.924297e-09	3.816115e+01	3.908664e+02
1.590000e-06	5.371879e-06	5.933348e-09	3.824692e+01	3.913839e+02
1.600000e-06	5.381683e-06	5.940657e-09	3.831672e+01	3.918197e+02
1.610000e-06	5.389431e-06	5.945547e-09	3.837189e+01	3.921762e+02
1.620000e-06	5.395356e-06	5.949674e-09	3.841407e+01	3.924534e+02
1.630000e-06	5.399467e-06	5.954053e-09	3.844334e+01	3.926500e+02
1.640000e-06	5.401631e-06	5.958117e-09	3.845875e+01	3.927630e+02
1.650000e-06	5.401806e-06	5.960785e-09	3.846000e+01	3.927891e+02
1.660000e-06	5.400202e-06	5.961994e-09	3.844857e+01	3.927248e+02
1.670000e-06	5.396996e-06	5.961319e-09	3.842575e+01	3.925678e+02
1.680000e-06	5.392053e-06	5.957849e-09	3.839056e+01	3.923177e+02
1.690000e-06	5.385201e-06	5.954894e-09	3.834177e+01	3.919762e+02
1.700000e-06	5.376633e-06	5.950988e-09	3.828077e+01	3.915478e+02
1.710000e-06	5.366433e-06	5.945812e-09	3.820815e+01	3.910390e+02
1.720000e-06	5.354464e-06	5.939481e-09	3.812293e+01	3.904586e+02
1.730000e-06	5.340479e-06	5.911185e-09	3.802335e+01	3.898157e+02
1.740000e-06	5.324430e-06	5.900720e-09	3.790909e+01	3.891199e+02
1.750000e-06	5.306087e-06	5.892076e-09	3.777850e+01	3.883790e+02
1.760000e-06	5.285041e-06	5.880481e-09	3.762865e+01	3.875987e+02
1.770000e-06	5.261746e-06	5.894696e-09	3.746279e+01	3.867817e+02
1.780000e-06	5.237271e-06	5.862327e-09	3.728853e+01	3.859270e+02
1.790000e-06	5.212061e-06	5.843366e-09	3.710904e+01	3.850300e+02
1.800000e-06	5.185322e-06	5.850984e-09	3.691867e+01	3.840834e+02
1.810000e-06	5.156328e-06	5.785056e-09	3.671223e+01	3.830774e+02
1.820000e-06	5.125584e-06	5.778129e-09	3.649334e+01	3.820009e+02
1.830000e-06	5.093181e-06	5.781804e-09	3.626264e+01	3.808433e+02
1.840000e-06	5.058805e-06	5.750081e-09	3.601789e+01	3.795950e+02
1.850000e-06	5.022850e-06	5.818114e-09	3.576189e+01	3.782490e+02
1.860000e-06	4.985079e-06	5.816672e-09	3.549297e+01	3.768010e+02
1.870000e-06	4.945432e-06	5.725601e-09	3.521068e+01	3.752503e+02
1.880000e-06	4.904168e-06	5.702197e-09	3.491689e+01	3.735993e+02
1.890000e-06	4.861087e-06	5.650321e-09	3.461017e+01	3.718531e+02
1.900000e-06	4.816384e-06	5.626911e-09	3.429189e+01	3.700185e+02
1.910000e-06	4.769863e-06	5.639933e-09	3.396066e+01	3.681031e+02
1.920000e-06	4.721272e-06	5.581900e-09	3.361470e+01	3.661141e+02
1.930000e-06	4.671026e-06	5.566472e-09	3.325696e+01	3.640576e+02
1.940000e-06	4.619025e-06	5.530421e-09	3.288672e+01	3.619375e+02
1.950000e-06	4.564975e-06	5.491581e-09	3.250189e+01	3.597553e+02
1.960000e-06	4.508993e-06	5.467519e-09	3.210331e+01	3.575100e+02
1.970000e-06	4.451332e-06	5.413072e-09	3.169277e+01	3.551984e+02
1.980000e-06	4.392280e-06	5.388166e-09	3.127234e+01	3.528157e+02
1.990000e-06	4.331667e-06	5.344004e-09	3.084078e+01	3.503562e+02
2.000000e-06	4.269281e-06	5.331135e-09	3.039660e+01	3.478144e+02
2.010000e-06	4.205397e-06	5.298935e-09	2.994175e+01	3.451854e+02
2.020000e-06	4.140116e-06	5.213037e-09	2.947696e+01	3.424656e+02
2.030000e-06	4.073363e-06	5.179864e-09	2.900169e+01	3.396532e+02
2.040000e-06	4.005129e-06	5.134137e-09	2.851588e+01	3.367478e+02
2.050000e-06	3.935301e-06	5.103502e-09	2.801871e+01	3.337507e+02
2.060000e-06	3.863969e-06	5.070318e-09	2.751084e+01	3.306641e+02
2.070000e-06	3.791395e-06	5.021470e-09	2.699413e+01	3.274904e+02
2.080000e-06	3.717556e-06	4.971334e-09	2.646841e+01	3.242319e+02
2.090000e-06	3.642331e-06	4.883492e-09	2.593282e+01	3.208899e+02
2.100000e-06	3.565574e-06	4.832743e-09	2.538632e+01	3.174648e+02
2.110000e-06	3.487184e-06	4.795911e-09	2.482819e+01	3.139553e+02
2.120000e-06	3.407492e-06	4.755739e-09	2.426080e+01	3.103588e+02
2.130000e-06	3.326699e-06	4.695188e-09	2.368556e+01	3.066718e+02
2.140000e-06	3.244776e-06	4.626746e-09	2.310229e+01	3.028899e+02
2.150000e-06	3.161803e-06	4.576506e-09	2.251154e+01	2.990090e+02
2.160000e-06	3.077831e-06	4.513113e-09	2.191367e+01	2.950253e+02
2.170000e-06	2.992723e-06	4.456916e-09	2.130771e+01	2.909357e+02
2.180000e-06	2.906292e-06	4.386925e-09	2.069233e+01	2.867384e+02
2.190000e-06	2.818676e-06	4.313023e-09	2.006852e+01	2.824327e+02
2.200000e-06	2.730070e-06	4.248047e-09	1.943766e+01	2.780191e+02
2.210000e-06	2.640538e-06	4.188234e-09	1.880021e+01	2.734987e+02
2.220000e-06	2.550079e-06	4.125840e-09	1.815616e+01	2.688727e+02
2.230000e-06	2.458835e-06	4.045212e-09	1.750651e+01	2.641423e+02
2.240000e-06	2.366873e-06	3.969527e-09	1.685176e+01	2.593080e+02
2.250000e-06	2.274027e-06	3.893149e-09	1.619071e+01	2.543692e+02
2.260000e-06	2.180262e-06	3.819138e-09	1.552312e+01	2.493243e+02
2.270000e-06	2.085492e-06	3.748185e-09	1.484837e+01	2.441704e+02
2.280000e-06	1.989788e-06	3.669901e-09	1.416697e+01	2.389039e+02
2.290000e-06	1.893409e-06	3.575730e-09	1.348077e+01	2.335207e+02
2.300000e-06	1.796488e-06	3.475869e-09	1.279071e+01	2.280165e+02
2.310000e-06	1.699073e-06	3.391383e-09	1.209713e+01	2.223874e+02
2.320000e-06	1.601112e-06	3.316945e-09	1.139966e+01	2.166304e+02
2.330000e-06	1.502622e-06	3.238839e-09	1.069843e+01	2.107433e+02
2.340000e-06	1.403667e-06	3.147124e-09	9.993888e+00	2.047249e+02
2.350000e-06	1.304300e-06	3.049334e-09	9.286408e+00	1.985750e+02
2.360000e-06	1.204607e-06	2.948249e-09	8.576613e+00	1.922936e+02
2.370000e-06	1.104725e-06	2.847858e-09	7.865463e+00	1.858810e+02
2.380000e-06	1.004555e-06	2.752492e-09	7.152268e+00	1.793368e+02
2.390000e-06	9.039247e-07	2.653856e-09	6.435800e+00	1.726598e+02
2.400000e-06	8.028097e-07	2.546919e-09	5.715877e+00	1.658475e+02
2.410000e-06	7.012918e-07	2.436317e-09	4.993086e+00	1.588957e+02
2.420000e-06	5.995374e-07	2.328623e-09	4.268610e+00	1.517987e+02
2.430000e-06	4.974939e-07	2.223113e-09	3.542077e+00	1.445495e+02
2.440000e-06	3.951925e-07	2.111288e-09	2.813708e+00	1.371398e+02
2.450000e-06	2.927171e-07	1.990215e-09	2.084099e+00	1.295606e+02
2.460000e-06	1.900639e-07	1.867954e-09	1.353225e+00	1.218027e+02
2.470000e-06	8.727294e-08	1.747874e-09	6.213694e-01	1.138568e+02
2.480000e-06	-1.559783e-08	1.627073e-09	-1.110540e-01	1.057141e+02
2.490000e-06	-1.184560e-07	1.502329e-09	-8.433879e-01	9.736617e+01
2.500000e-06	-2.212949e-07	1.370266e-09	-1.575584e+00	8.880511e+01
2.510000e-06	-3.240443e-07	1.232598e-09	-2.307144e+00	8.002349e+01
2.520000e-06	-4.265768e-07	1.093544e-09	-3.037159e+00	7.101414e+01
2.530000e-06	-5.289422e-07	9.554312e-10	-3.765984e+00	6.177015e+01
2.540000e-06	-6.310986e-07	8.168106e-10	-4.493321e+00	5.228488e+01
2.550000e-06	-7.329274e-07	6.719995e-10	-5.218326e+00	4.255222e+01
2.560000e-06	-8.343579e-07	5.175211e-10	-5.940495e+00	3.256708e+01
2.570000e-06	-9.353105e-07	3.585037e-10	-6.659261e+00	2.232607e+01
2.580000e-06	-1.035776e-06	1.999590e-10	-7.374559e+00	1.182852e+01
2.590000e-06	-1.135795e-06	3.973442e-11	-8.086678e+00	1.077480e+00
2.600000e-06	-1.235456e-06	-1.253673e-10	-8.796251e+00	-9.919138e+00
2.610000e-06	-1.334771e-06	-2.971281e-10	-9.503358e+00	-2.114760e+01
2.620000e-06	-1.433682e-06	-4.717047e-10	-1.020759e+01	-3.258760e+01
2.630000e-06	-1.532116e-06	-6.489393e-10	-1.090842e+01	-4.421192e+01
2.640000e-06	-1.630026e-06	-8.286070e-10	-1.160553e+01	-5.598656e+01
2.650000e-06	-1.727376e-06	-1.008998e-09	-1.229864e+01	-6.787126e+01
2.660000e-06	-1.824115e-06	-1.192099e-09	-1.298741e+01	-7.982067e+01
2.670000e-06	-1.920255e-06	-1.378288e-09	-1.367191e+01	-9.178580e+01
2.680000e-06	-2.015833e-06	-1.564221e-09	-1.435241e+01	-1.037158e+02
2.690000e-06	-2.110822e-06	-1.744432e-09	-1.502871e+01	-1.155599e+02
2.700000e-06	-2.204965e-06	-1.921104e-09	-1.569900e+01	-1.272692e+02
2.710000e-06	-2.297971e-06	-2.096882e-09	-1.636119e+01	-1.387982e+02
2.720000e-06	-2.389946e-06	-2.270476e-09	-1.701603e+01	-1.501065e+02
2.730000e-06	-2.481156e-06	-2.437056e-09	-1.766543e+01	-1.611592e+02
2.740000e-06	-2.571545e-06	-2.596067e-09	-1.830899e+01	-1.719275e+02
2.750000e-06	-2.660926e-06	-2.752016e-09	-1.894537e+01	-1.823885e+02
2.760000e-06	-2.749336e-06	-2.905959e-09	-1.957484e+01	-1.925249e+02
2.770000e-06	-2.836998e-06	-3.058429e-09	-2.019898e+01	-2.023244e+02
2.780000e-06	-2.923916e-06	-3.207734e-09	-2.081782e+01	-2.117787e+02
2.790000e-06	-3.009629e-06	-3.348817e-09	-2.142808e+01	-2.208825e+02
2.800000e-06	-3.093989e-06	-3.480681e-09	-2.202871e+01	-2.296334e+02
2.810000e-06	-3.177292e-06	-3.607783e-09	-2.262181e+01	-2.380312e+02
2.820000e-06	-3.259593e-06	-3.732560e-09	-2.320778e+01	-2.460776e+02
2.830000e-06	-3.340851e-06	-3.852929e-09	-2.378632e+01	-2.537765e+02
2.840000e-06	-3.421066e-06	-3.966932e-09	-2.435744e+01	-2.611340e+02
2.850000e-06	-3.500144e-06	-4.075528e-09	-2.492047e+01	-2.681587e+02
2.860000e-06	-3.577727e-06	-4.179004e-09	-2.547284e+01	-2.748622e+02
2.870000e-06	-3.653757e-06	-4.278019e-09	-2.601417e+01	-2.812587e+02
2.880000e-06	-3.728404e-06	-4.373046e-09	-2.654564e+01	-2.873650e+02
2.890000e-06	-3.801632e-06	-4.463047e-09	-2.706701e+01	-2.932002e+02
2.900000e-06	-3.873566e-06	-4.547754e-09	-2.757917e+01	-2.987844e+02
2.910000e-06	-3.944132e-06	-4.627738e-09	-2.808159e+01	-3.041381e+02
2.920000e-06	-4.013079e-06	-4.705820e-09	-2.857248e+01	-3.092809e+02
2.930000e-06	-4.080501e-06	-4.782207e-09	-2.905251e+01	-3.142304e+02
2.940000e-06	-4.146537e-06	-4.855174e-09	-2.952268e+01	-3.190008e+02
