# Temperatura_=_33.16
# Concentracion g/m^3_=_15000.0
# C_Vs_to_Am_M_A/Vsm_=_65563218390.804596
# pendiente_HvsI_1/m_=_3716.3
# ordenada_HvsI_A/m_=_1297.0
# frecuencia_Hz_=_301596.4292191211

Tiempo_(s)	Campo_(V.s)	Magnetizacion_(V.s)	Campo_(kA/m)	Magnetizacion_(A/m)
0.000000e+00	-5.367697e-06	-5.770388e-09	-3.833714e+01	-3.773857e+02
1.000000e-08	-5.365279e-06	-5.766457e-09	-3.831987e+01	-3.772432e+02
2.000000e-08	-5.361042e-06	-5.759992e-09	-3.828961e+01	-3.770285e+02
3.000000e-08	-5.355205e-06	-5.753804e-09	-3.824793e+01	-3.767410e+02
4.000000e-08	-5.347755e-06	-5.746719e-09	-3.819472e+01	-3.763804e+02
5.000000e-08	-5.338525e-06	-5.738960e-09	-3.812879e+01	-3.759473e+02
6.000000e-08	-5.327245e-06	-5.729666e-09	-3.804823e+01	-3.754439e+02
7.000000e-08	-5.314069e-06	-5.718680e-09	-3.795412e+01	-3.748736e+02
8.000000e-08	-5.298910e-06	-5.710665e-09	-3.784586e+01	-3.742410e+02
9.000000e-08	-5.281479e-06	-5.733889e-09	-3.772136e+01	-3.735519e+02
1.000000e-07	-5.261935e-06	-5.742387e-09	-3.758177e+01	-3.728120e+02
1.100000e-07	-5.240524e-06	-5.702453e-09	-3.742885e+01	-3.720267e+02
1.200000e-07	-5.217369e-06	-5.667512e-09	-3.726347e+01	-3.712001e+02
1.300000e-07	-5.192618e-06	-5.613482e-09	-3.708670e+01	-3.703343e+02
1.400000e-07	-5.166291e-06	-5.582992e-09	-3.689866e+01	-3.694291e+02
1.500000e-07	-5.138374e-06	-5.661015e-09	-3.669928e+01	-3.684817e+02
1.600000e-07	-5.108962e-06	-5.625282e-09	-3.648921e+01	-3.674867e+02
1.700000e-07	-5.077987e-06	-5.567618e-09	-3.626798e+01	-3.664368e+02
1.800000e-07	-5.045019e-06	-5.613303e-09	-3.603251e+01	-3.653232e+02
1.900000e-07	-5.010083e-06	-5.544096e-09	-3.578299e+01	-3.641368e+02
2.000000e-07	-4.973622e-06	-5.522760e-09	-3.552259e+01	-3.628689e+02
2.100000e-07	-4.935540e-06	-5.542208e-09	-3.525060e+01	-3.615123e+02
2.200000e-07	-4.895679e-06	-5.435087e-09	-3.496590e+01	-3.600620e+02
2.300000e-07	-4.853904e-06	-5.411430e-09	-3.466753e+01	-3.585157e+02
2.400000e-07	-4.810139e-06	-5.450592e-09	-3.435496e+01	-3.568736e+02
2.500000e-07	-4.764597e-06	-5.440897e-09	-3.402968e+01	-3.551389e+02
2.600000e-07	-4.717239e-06	-5.422781e-09	-3.369145e+01	-3.533166e+02
2.700000e-07	-4.667853e-06	-5.335009e-09	-3.333872e+01	-3.514131e+02
2.800000e-07	-4.616365e-06	-5.292244e-09	-3.297098e+01	-3.494352e+02
2.900000e-07	-4.562905e-06	-5.292677e-09	-3.258916e+01	-3.473891e+02
3.000000e-07	-4.507790e-06	-5.272045e-09	-3.219552e+01	-3.452798e+02
3.100000e-07	-4.451142e-06	-5.258551e-09	-3.179093e+01	-3.431100e+02
3.200000e-07	-4.392743e-06	-5.211209e-09	-3.137383e+01	-3.408804e+02
3.300000e-07	-4.332630e-06	-5.150726e-09	-3.094449e+01	-3.385892e+02
3.400000e-07	-4.271054e-06	-5.107845e-09	-3.050470e+01	-3.362324e+02
3.500000e-07	-4.208099e-06	-5.097185e-09	-3.005506e+01	-3.338045e+02
3.600000e-07	-4.143738e-06	-5.074483e-09	-2.959539e+01	-3.312992e+02
3.700000e-07	-4.077735e-06	-5.003991e-09	-2.912399e+01	-3.287099e+02
3.800000e-07	-4.010111e-06	-4.957867e-09	-2.864100e+01	-3.260309e+02
3.900000e-07	-3.941086e-06	-4.930306e-09	-2.814801e+01	-3.232574e+02
4.000000e-07	-3.870760e-06	-4.888254e-09	-2.764573e+01	-3.203866e+02
4.100000e-07	-3.799234e-06	-4.841608e-09	-2.713487e+01	-3.174173e+02
4.200000e-07	-3.726384e-06	-4.784772e-09	-2.661456e+01	-3.143500e+02
4.300000e-07	-3.651945e-06	-4.734189e-09	-2.608291e+01	-3.111865e+02
4.400000e-07	-3.575906e-06	-4.685719e-09	-2.553982e+01	-3.079296e+02
4.500000e-07	-3.498453e-06	-4.657196e-09	-2.498664e+01	-3.045822e+02
4.600000e-07	-3.419670e-06	-4.626887e-09	-2.442395e+01	-3.011470e+02
4.700000e-07	-3.339565e-06	-4.558055e-09	-2.385183e+01	-2.976259e+02
4.800000e-07	-3.258153e-06	-4.474971e-09	-2.327037e+01	-2.940197e+02
4.900000e-07	-3.175523e-06	-4.408246e-09	-2.268021e+01	-2.903280e+02
5.000000e-07	-3.091908e-06	-4.365185e-09	-2.208302e+01	-2.865491e+02
5.100000e-07	-3.007467e-06	-4.315050e-09	-2.147992e+01	-2.826803e+02
5.200000e-07	-2.922054e-06	-4.255292e-09	-2.086988e+01	-2.787184e+02
5.300000e-07	-2.835555e-06	-4.185691e-09	-2.025209e+01	-2.746599e+02
5.400000e-07	-2.748118e-06	-4.112059e-09	-1.962760e+01	-2.705014e+02
5.500000e-07	-2.659860e-06	-4.050629e-09	-1.899724e+01	-2.662400e+02
5.600000e-07	-2.570600e-06	-3.995025e-09	-1.835973e+01	-2.618737e+02
5.700000e-07	-2.480154e-06	-3.929042e-09	-1.771375e+01	-2.574011e+02
5.800000e-07	-2.388659e-06	-3.847741e-09	-1.706027e+01	-2.528215e+02
5.900000e-07	-2.296360e-06	-3.771241e-09	-1.640106e+01	-2.481347e+02
6.000000e-07	-2.203289e-06	-3.704801e-09	-1.573632e+01	-2.433407e+02
6.100000e-07	-2.109465e-06	-3.635354e-09	-1.506621e+01	-2.384394e+02
6.200000e-07	-2.014939e-06	-3.556259e-09	-1.439109e+01	-2.334304e+02
6.300000e-07	-1.919740e-06	-3.471649e-09	-1.371116e+01	-2.283125e+02
6.400000e-07	-1.823906e-06	-3.387843e-09	-1.302669e+01	-2.230839e+02
6.500000e-07	-1.727385e-06	-3.310280e-09	-1.233732e+01	-2.177424e+02
6.600000e-07	-1.630114e-06	-3.236323e-09	-1.164260e+01	-2.122848e+02
6.700000e-07	-1.532123e-06	-3.153523e-09	-1.094272e+01	-2.067080e+02
6.800000e-07	-1.433513e-06	-3.058044e-09	-1.023843e+01	-2.010088e+02
6.900000e-07	-1.334350e-06	-2.959950e-09	-9.530188e+00	-1.951841e+02
7.000000e-07	-1.234723e-06	-2.869655e-09	-8.818636e+00	-1.892314e+02
7.100000e-07	-1.134762e-06	-2.783167e-09	-8.104691e+00	-1.831487e+02
7.200000e-07	-1.034571e-06	-2.691384e-09	-7.389106e+00	-1.769344e+02
7.300000e-07	-9.341288e-07	-2.593059e-09	-6.671731e+00	-1.705875e+02
7.400000e-07	-8.333676e-07	-2.490738e-09	-5.952075e+00	-1.641071e+02
7.500000e-07	-7.322634e-07	-2.388103e-09	-5.229969e+00	-1.574918e+02
7.600000e-07	-6.308660e-07	-2.288619e-09	-4.505768e+00	-1.507400e+02
7.700000e-07	-5.292656e-07	-2.187261e-09	-3.780118e+00	-1.438490e+02
7.800000e-07	-4.274900e-07	-2.077973e-09	-3.053217e+00	-1.368148e+02
7.900000e-07	-3.255340e-07	-1.964599e-09	-2.325028e+00	-1.296321e+02
8.000000e-07	-2.234413e-07	-1.851310e-09	-1.595861e+00	-1.222941e+02
8.100000e-07	-1.212524e-07	-1.740469e-09	-8.660084e-01	-1.147927e+02
8.200000e-07	-1.901367e-08	-1.627762e-09	-1.357993e-01	-1.071183e+02
8.300000e-07	8.326968e-08	-1.507786e-09	5.947284e-01	-9.926054e+01
8.400000e-07	1.855810e-07	-1.382682e-09	1.325456e+00	-9.120866e+01
8.500000e-07	2.877978e-07	-1.255531e-09	2.055508e+00	-8.295166e+01
8.600000e-07	3.898813e-07	-1.127781e-09	2.784609e+00	-7.447894e+01
8.700000e-07	4.918413e-07	-9.984892e-10	3.512827e+00	-6.578071e+01
8.800000e-07	5.936942e-07	-8.627388e-10	4.240280e+00	-5.684844e+01
8.900000e-07	6.954014e-07	-7.187333e-10	4.966693e+00	-4.767523e+01
9.000000e-07	7.968593e-07	-5.693151e-10	5.691326e+00	-3.825628e+01
9.100000e-07	8.979764e-07	-4.182829e-10	6.413523e+00	-2.858928e+01
9.200000e-07	9.987322e-07	-2.682811e-10	7.133141e+00	-1.867483e+01
9.300000e-07	1.099155e-06	-1.152339e-10	7.850380e+00	-8.516844e+00
9.400000e-07	1.199281e-06	4.254566e-11	8.565499e+00	1.876966e+00
9.500000e-07	1.299095e-06	2.041870e-10	9.278390e+00	1.249472e+01
9.600000e-07	1.398498e-06	3.680699e-10	9.988350e+00	2.332003e+01
9.700000e-07	1.497321e-06	5.344516e-10	1.069416e+01	3.433171e+01
9.800000e-07	1.595370e-06	7.050649e-10	1.139444e+01	4.550373e+01
9.900000e-07	1.692612e-06	8.796785e-10	1.208897e+01	5.680532e+01
1.000000e-06	1.789120e-06	1.056095e-09	1.277824e+01	6.820129e+01
1.010000e-06	1.884934e-06	1.232990e-09	1.346257e+01	7.965265e+01
1.020000e-06	1.980089e-06	1.408250e-09	1.414219e+01	9.111743e+01
1.030000e-06	2.074596e-06	1.581059e-09	1.481717e+01	1.025517e+02
1.040000e-06	2.168377e-06	1.753241e-09	1.548697e+01	1.139109e+02
1.050000e-06	2.261388e-06	1.924137e-09	1.615128e+01	1.251508e+02
1.060000e-06	2.353694e-06	2.093139e-09	1.681054e+01	1.362292e+02
1.070000e-06	2.445342e-06	2.257946e-09	1.746511e+01	1.471068e+02
1.080000e-06	2.536099e-06	2.418298e-09	1.811332e+01	1.577481e+02
1.090000e-06	2.625706e-06	2.576258e-09	1.875330e+01	1.681223e+02
1.100000e-06	2.714249e-06	2.731635e-09	1.938570e+01	1.782041e+02
1.110000e-06	2.801869e-06	2.883221e-09	2.001149e+01	1.879731e+02
1.120000e-06	2.888548e-06	3.028099e-09	2.063058e+01	1.974145e+02
1.130000e-06	2.974280e-06	3.166973e-09	2.124289e+01	2.065183e+02
1.140000e-06	3.059096e-06	3.300391e-09	2.184866e+01	2.152790e+02
1.150000e-06	3.143004e-06	3.426909e-09	2.244795e+01	2.236953e+02
1.160000e-06	3.225946e-06	3.547283e-09	2.304034e+01	2.317692e+02
1.170000e-06	3.307722e-06	3.661289e-09	2.362440e+01	2.395059e+02
1.180000e-06	3.388206e-06	3.771415e-09	2.419923e+01	2.469127e+02
1.190000e-06	3.467445e-06	3.878239e-09	2.476517e+01	2.539995e+02
1.200000e-06	3.545445e-06	3.982414e-09	2.532226e+01	2.607778e+02
1.210000e-06	3.622226e-06	4.083992e-09	2.587065e+01	2.672608e+02
1.220000e-06	3.697689e-06	4.180831e-09	2.640962e+01	2.734629e+02
1.230000e-06	3.771567e-06	4.272807e-09	2.693727e+01	2.793996e+02
1.240000e-06	3.843825e-06	4.358116e-09	2.745335e+01	2.850870e+02
1.250000e-06	3.914618e-06	4.438616e-09	2.795897e+01	2.905412e+02
1.260000e-06	3.984044e-06	4.517228e-09	2.845482e+01	2.957777e+02
1.270000e-06	4.052245e-06	4.593103e-09	2.894193e+01	3.008112e+02
1.280000e-06	4.119058e-06	4.666678e-09	2.941912e+01	3.056542e+02
1.290000e-06	4.184103e-06	4.738490e-09	2.988368e+01	3.103172e+02
1.300000e-06	4.247520e-06	4.807600e-09	3.033662e+01	3.148076e+02
1.310000e-06	4.309543e-06	4.873755e-09	3.077960e+01	3.191302e+02
1.320000e-06	4.370240e-06	4.937168e-09	3.121311e+01	3.232864e+02
1.330000e-06	4.429531e-06	4.997688e-09	3.163658e+01	3.272755e+02
1.340000e-06	4.487127e-06	5.054880e-09	3.204794e+01	3.310943e+02
1.350000e-06	4.543004e-06	5.108171e-09	3.244703e+01	3.347388e+02
1.360000e-06	4.597249e-06	5.157776e-09	3.283445e+01	3.382045e+02
1.370000e-06	4.649749e-06	5.204455e-09	3.320942e+01	3.414875e+02
1.380000e-06	4.700243e-06	5.248420e-09	3.357006e+01	3.445857e+02
1.390000e-06	4.748724e-06	5.290752e-09	3.391632e+01	3.474991e+02
1.400000e-06	4.795488e-06	5.331784e-09	3.425032e+01	3.502304e+02
1.410000e-06	4.840705e-06	5.368470e-09	3.457326e+01	3.527851e+02
1.420000e-06	4.884402e-06	5.403319e-09	3.488535e+01	3.551713e+02
1.430000e-06	4.926270e-06	5.437514e-09	3.518438e+01	3.573989e+02
1.440000e-06	4.966215e-06	5.468603e-09	3.546968e+01	3.594793e+02
1.450000e-06	5.004524e-06	5.496882e-09	3.574329e+01	3.614240e+02
1.460000e-06	5.041290e-06	5.521518e-09	3.600588e+01	3.632439e+02
1.470000e-06	5.076349e-06	5.545008e-09	3.625628e+01	3.649488e+02
1.480000e-06	5.109480e-06	5.567893e-09	3.649290e+01	3.665460e+02
1.490000e-06	5.140729e-06	5.589186e-09	3.671609e+01	3.680407e+02
1.500000e-06	5.170268e-06	5.609507e-09	3.692707e+01	3.694356e+02
1.510000e-06	5.198176e-06	5.628842e-09	3.712639e+01	3.707313e+02
1.520000e-06	5.224150e-06	5.647239e-09	3.731190e+01	3.719268e+02
1.530000e-06	5.248000e-06	5.663348e-09	3.748224e+01	3.730203e+02
1.540000e-06	5.269942e-06	5.677580e-09	3.763896e+01	3.740096e+02
1.550000e-06	5.290190e-06	5.690670e-09	3.778357e+01	3.748934e+02
1.560000e-06	5.308680e-06	5.702690e-09	3.791563e+01	3.756711e+02
1.570000e-06	5.325124e-06	5.713337e-09	3.803308e+01	3.763441e+02
1.580000e-06	5.339608e-06	5.721236e-09	3.813653e+01	3.769148e+02
1.590000e-06	5.352176e-06	5.728555e-09	3.822629e+01	3.773875e+02
1.600000e-06	5.362533e-06	5.735824e-09	3.830026e+01	3.777670e+02
1.610000e-06	5.370722e-06	5.742260e-09	3.835875e+01	3.780588e+02
1.620000e-06	5.377003e-06	5.748073e-09	3.840361e+01	3.782683e+02
1.630000e-06	5.381547e-06	5.752552e-09	3.843606e+01	3.783999e+02
1.640000e-06	5.384238e-06	5.755028e-09	3.845528e+01	3.784570e+02
1.650000e-06	5.384898e-06	5.756384e-09	3.846000e+01	3.784419e+02
1.660000e-06	5.383682e-06	5.756155e-09	3.845131e+01	3.783553e+02
1.670000e-06	5.380787e-06	5.751950e-09	3.843063e+01	3.781971e+02
1.680000e-06	5.376206e-06	5.748704e-09	3.839792e+01	3.779667e+02
1.690000e-06	5.369761e-06	5.745306e-09	3.835188e+01	3.776633e+02
1.700000e-06	5.361555e-06	5.742119e-09	3.829328e+01	3.772868e+02
1.710000e-06	5.351770e-06	5.740077e-09	3.822339e+01	3.768383e+02
1.720000e-06	5.340305e-06	5.738500e-09	3.814151e+01	3.763199e+02
1.730000e-06	5.326901e-06	5.738305e-09	3.804577e+01	3.757356e+02
1.740000e-06	5.311457e-06	5.697645e-09	3.793547e+01	3.750902e+02
1.750000e-06	5.293743e-06	5.654200e-09	3.780895e+01	3.743895e+02
1.760000e-06	5.273336e-06	5.664684e-09	3.766320e+01	3.736392e+02
1.770000e-06	5.250473e-06	5.670030e-09	3.749991e+01	3.728446e+02
1.780000e-06	5.226148e-06	5.715289e-09	3.732617e+01	3.720092e+02
1.790000e-06	5.201110e-06	5.701147e-09	3.714735e+01	3.711349e+02
1.800000e-06	5.174864e-06	5.570224e-09	3.695989e+01	3.702208e+02
1.810000e-06	5.146491e-06	5.614147e-09	3.675725e+01	3.692635e+02
1.820000e-06	5.116197e-06	5.606841e-09	3.654088e+01	3.682572e+02
1.830000e-06	5.084298e-06	5.519281e-09	3.631305e+01	3.671941e+02
1.840000e-06	5.050532e-06	5.618352e-09	3.607189e+01	3.660655e+02
1.850000e-06	5.015089e-06	5.574803e-09	3.581875e+01	3.648621e+02
1.860000e-06	4.977897e-06	5.512514e-09	3.555311e+01	3.635755e+02
1.870000e-06	4.938781e-06	5.601989e-09	3.527374e+01	3.621989e+02
1.880000e-06	4.897965e-06	5.510671e-09	3.498223e+01	3.607280e+02
1.890000e-06	4.855363e-06	5.457122e-09	3.467795e+01	3.591607e+02
1.900000e-06	4.811145e-06	5.436827e-09	3.436214e+01	3.574983e+02
1.910000e-06	4.765228e-06	5.363808e-09	3.403419e+01	3.557441e+02
1.920000e-06	4.717228e-06	5.446012e-09	3.369137e+01	3.539036e+02
1.930000e-06	4.667545e-06	5.386096e-09	3.333652e+01	3.519834e+02
1.940000e-06	4.616240e-06	5.334975e-09	3.297009e+01	3.499902e+02
1.950000e-06	4.562875e-06	5.348203e-09	3.258895e+01	3.479299e+02
1.960000e-06	4.507477e-06	5.225809e-09	3.219328e+01	3.458072e+02
1.970000e-06	4.450332e-06	5.212521e-09	3.178514e+01	3.436245e+02
1.980000e-06	4.391722e-06	5.210039e-09	3.136654e+01	3.413817e+02
1.990000e-06	4.331672e-06	5.193481e-09	3.093765e+01	3.390766e+02
2.000000e-06	4.270001e-06	5.153408e-09	3.049719e+01	3.367048e+02
2.010000e-06	4.206706e-06	5.069266e-09	3.004512e+01	3.342607e+02
2.020000e-06	4.141842e-06	5.087726e-09	2.958185e+01	3.317377e+02
2.030000e-06	4.075534e-06	5.014803e-09	2.910826e+01	3.291294e+02
2.040000e-06	4.007884e-06	4.961464e-09	2.862509e+01	3.264302e+02
2.050000e-06	3.938770e-06	4.954557e-09	2.813147e+01	3.236359e+02
2.060000e-06	3.868112e-06	4.891243e-09	2.762682e+01	3.207438e+02
2.070000e-06	3.796048e-06	4.857613e-09	2.711212e+01	3.177532e+02
2.080000e-06	3.722688e-06	4.792626e-09	2.658817e+01	3.146648e+02
2.090000e-06	3.648046e-06	4.769970e-09	2.605506e+01	3.114808e+02
2.100000e-06	3.572002e-06	4.709744e-09	2.551194e+01	3.082041e+02
2.110000e-06	3.494316e-06	4.621011e-09	2.495709e+01	3.048374e+02
2.120000e-06	3.415142e-06	4.587676e-09	2.439161e+01	3.013835e+02
2.130000e-06	3.334803e-06	4.545559e-09	2.381782e+01	2.978439e+02
2.140000e-06	3.253336e-06	4.509262e-09	2.323596e+01	2.942193e+02
2.150000e-06	3.170808e-06	4.443471e-09	2.264653e+01	2.905088e+02
2.160000e-06	3.087304e-06	4.381473e-09	2.205013e+01	2.867107e+02
2.170000e-06	3.002749e-06	4.308261e-09	2.144622e+01	2.828220e+02
2.180000e-06	2.916924e-06	4.240885e-09	2.083325e+01	2.788395e+02
2.190000e-06	2.829811e-06	4.198326e-09	2.021106e+01	2.747595e+02
2.200000e-06	2.741669e-06	4.140473e-09	1.958154e+01	2.705790e+02
2.210000e-06	2.652632e-06	4.074524e-09	1.894562e+01	2.662951e+02
2.220000e-06	2.562717e-06	3.996682e-09	1.830343e+01	2.619059e+02
2.230000e-06	2.471910e-06	3.931605e-09	1.765487e+01	2.574102e+02
2.240000e-06	2.380316e-06	3.863125e-09	1.700068e+01	2.528074e+02
2.250000e-06	2.287948e-06	3.792678e-09	1.634098e+01	2.480974e+02
2.260000e-06	2.194711e-06	3.721896e-09	1.567506e+01	2.432802e+02
2.270000e-06	2.100548e-06	3.640949e-09	1.500253e+01	2.383556e+02
2.280000e-06	2.005423e-06	3.559868e-09	1.432312e+01	2.333232e+02
2.290000e-06	1.909439e-06	3.484163e-09	1.363759e+01	2.281815e+02
2.300000e-06	1.812858e-06	3.409358e-09	1.294779e+01	2.229287e+02
2.310000e-06	1.715833e-06	3.321100e-09	1.225482e+01	2.175623e+02
2.320000e-06	1.618244e-06	3.229725e-09	1.155782e+01	2.120793e+02
2.330000e-06	1.520102e-06	3.146095e-09	1.085687e+01	2.064763e+02
2.340000e-06	1.421486e-06	3.069698e-09	1.015254e+01	2.007502e+02
2.350000e-06	1.322416e-06	2.988359e-09	9.444955e+00	1.948981e+02
2.360000e-06	1.223062e-06	2.897567e-09	8.735347e+00	1.889174e+02
2.370000e-06	1.123494e-06	2.798377e-09	8.024214e+00	1.828064e+02
2.380000e-06	1.023614e-06	2.693348e-09	7.310851e+00	1.765636e+02
2.390000e-06	9.233543e-07	2.595498e-09	6.594777e+00	1.701880e+02
2.400000e-06	8.226495e-07	2.504971e-09	5.875524e+00	1.636785e+02
2.410000e-06	7.215948e-07	2.409028e-09	5.153772e+00	1.570339e+02
2.420000e-06	6.203716e-07	2.300920e-09	4.430816e+00	1.502523e+02
2.430000e-06	5.189295e-07	2.188348e-09	3.706296e+00	1.433307e+02
2.440000e-06	4.172116e-07	2.079842e-09	2.979807e+00	1.362650e+02
2.450000e-06	3.153353e-07	1.974530e-09	2.252187e+00	1.290495e+02
2.460000e-06	2.133033e-07	1.863171e-09	1.523454e+00	1.216770e+02
2.470000e-06	1.111238e-07	1.746121e-09	7.936683e-01	1.141391e+02
2.480000e-06	8.880952e-09	1.624376e-09	6.342950e-02	1.064260e+02
2.490000e-06	-9.339729e-08	1.501023e-09	-6.670618e-01	9.852742e+01
2.500000e-06	-1.956306e-07	1.381302e-09	-1.397232e+00	9.043228e+01
2.510000e-06	-2.977662e-07	1.260702e-09	-2.126704e+00	8.212971e+01
2.520000e-06	-3.997779e-07	1.132657e-09	-2.855292e+00	7.360923e+01
2.530000e-06	-5.016699e-07	9.933811e-10	-3.583025e+00	6.486130e+01
2.540000e-06	-6.034024e-07	8.531089e-10	-4.309618e+00	5.587768e+01
2.550000e-06	-7.048116e-07	7.171634e-10	-5.033903e+00	4.665192e+01
2.560000e-06	-8.059113e-07	5.772350e-10	-5.755977e+00	3.717970e+01
2.570000e-06	-9.066843e-07	4.287545e-10	-6.475717e+00	2.745929e+01
2.580000e-06	-1.007016e-06	2.735468e-10	-7.192306e+00	1.749197e+01
2.590000e-06	-1.106959e-06	1.169284e-10	-7.906121e+00	7.282449e+00
2.600000e-06	-1.206557e-06	-3.944940e-11	-8.617466e+00	-3.160723e+00
2.610000e-06	-1.305753e-06	-1.976979e-10	-9.325942e+00	-1.382472e+01
2.620000e-06	-1.404509e-06	-3.601372e-10	-1.003128e+01	-2.469213e+01
2.630000e-06	-1.502773e-06	-5.294031e-10	-1.073310e+01	-3.574075e+01
2.640000e-06	-1.600480e-06	-7.035634e-10	-1.143094e+01	-4.694351e+01
2.650000e-06	-1.697628e-06	-8.762428e-10	-1.212479e+01	-5.826865e+01
2.660000e-06	-1.794238e-06	-1.046387e-09	-1.281480e+01	-6.968011e+01
2.670000e-06	-1.890346e-06	-1.219563e-09	-1.350122e+01	-8.113819e+01
2.680000e-06	-1.985923e-06	-1.397380e-09	-1.418385e+01	-9.260040e+01
2.690000e-06	-2.080741e-06	-1.576465e-09	-1.486106e+01	-1.040226e+02
2.700000e-06	-2.174606e-06	-1.751875e-09	-1.553146e+01	-1.153601e+02
2.710000e-06	-2.267491e-06	-1.921593e-09	-1.619487e+01	-1.265691e+02
2.720000e-06	-2.359464e-06	-2.087362e-09	-1.685176e+01	-1.376079e+02
2.730000e-06	-2.450618e-06	-2.251536e-09	-1.750280e+01	-1.484379e+02
2.740000e-06	-2.540913e-06	-2.411806e-09	-1.814770e+01	-1.590246e+02
2.750000e-06	-2.630277e-06	-2.565551e-09	-1.878595e+01	-1.693384e+02
2.760000e-06	-2.718809e-06	-2.715103e-09	-1.941827e+01	-1.793548e+02
2.770000e-06	-2.806557e-06	-2.863268e-09	-2.004498e+01	-1.890550e+02
2.780000e-06	-2.893323e-06	-3.009204e-09	-2.066468e+01	-1.984249e+02
2.790000e-06	-2.978931e-06	-3.150315e-09	-2.127611e+01	-2.074557e+02
2.800000e-06	-3.063375e-06	-3.284559e-09	-2.187922e+01	-2.161428e+02
2.810000e-06	-3.146775e-06	-3.411723e-09	-2.247489e+01	-2.244857e+02
2.820000e-06	-3.229113e-06	-3.532080e-09	-2.306296e+01	-2.324871e+02
2.830000e-06	-3.310413e-06	-3.648260e-09	-2.364362e+01	-2.401525e+02
2.840000e-06	-3.390727e-06	-3.763433e-09	-2.421724e+01	-2.474901e+02
2.850000e-06	-3.469870e-06	-3.874144e-09	-2.478249e+01	-2.545100e+02
2.860000e-06	-3.547530e-06	-3.977153e-09	-2.533715e+01	-2.612241e+02
2.870000e-06	-3.623635e-06	-4.073795e-09	-2.588071e+01	-2.676458e+02
2.880000e-06	-3.698301e-06	-4.166989e-09	-2.641399e+01	-2.737900e+02
2.890000e-06	-3.771599e-06	-4.256488e-09	-2.693750e+01	-2.796721e+02
2.900000e-06	-3.843701e-06	-4.342433e-09	-2.745247e+01	-2.853084e+02
2.910000e-06	-3.914438e-06	-4.424985e-09	-2.795768e+01	-2.907149e+02
2.920000e-06	-3.983511e-06	-4.503812e-09	-2.845101e+01	-2.959070e+02
2.930000e-06	-4.051087e-06	-4.579914e-09	-2.893366e+01	-3.008989e+02
2.940000e-06	-4.117264e-06	-4.653843e-09	-2.940630e+01	-3.057028e+02
