# Temperatura_=_74.4
# Concentracion g/m^3_=_15000.0
# C_Vs_to_Am_M_A/Vsm_=_65563218390.804596
# pendiente_HvsI_1/m_=_3716.3
# ordenada_HvsI_A/m_=_1297.0
# frecuencia_Hz_=_301587.9515369869

Tiempo_(s)	Campo_(V.s)	Magnetizacion_(V.s)	Campo_(kA/m)	Magnetizacion_(A/m)
0.000000e+00	-5.356824e-06	-7.393665e-09	-3.833646e+01	-4.832174e+02
1.000000e-08	-5.353940e-06	-7.388190e-09	-3.831582e+01	-4.829978e+02
2.000000e-08	-5.349334e-06	-7.382602e-09	-3.828286e+01	-4.826667e+02
3.000000e-08	-5.343093e-06	-7.374763e-09	-3.823819e+01	-4.822216e+02
4.000000e-08	-5.335208e-06	-7.367384e-09	-3.818176e+01	-4.816629e+02
5.000000e-08	-5.325520e-06	-7.360270e-09	-3.811243e+01	-4.809933e+02
6.000000e-08	-5.313809e-06	-7.350754e-09	-3.802861e+01	-4.802183e+02
7.000000e-08	-5.300109e-06	-7.347643e-09	-3.793057e+01	-4.793459e+02
8.000000e-08	-5.284304e-06	-7.331537e-09	-3.781746e+01	-4.783859e+02
9.000000e-08	-5.266317e-06	-7.309435e-09	-3.768874e+01	-4.773482e+02
1.000000e-07	-5.246355e-06	-7.306594e-09	-3.754588e+01	-4.762423e+02
1.100000e-07	-5.224534e-06	-7.274850e-09	-3.738972e+01	-4.750755e+02
1.200000e-07	-5.201010e-06	-7.233647e-09	-3.722136e+01	-4.738523e+02
1.300000e-07	-5.175973e-06	-7.245514e-09	-3.704219e+01	-4.725732e+02
1.400000e-07	-5.149324e-06	-7.173380e-09	-3.685147e+01	-4.712347e+02
1.500000e-07	-5.121047e-06	-7.143358e-09	-3.664911e+01	-4.698295e+02
1.600000e-07	-5.091352e-06	-7.200434e-09	-3.643659e+01	-4.683473e+02
1.700000e-07	-5.060082e-06	-7.131263e-09	-3.621280e+01	-4.667756e+02
1.800000e-07	-5.026677e-06	-7.119908e-09	-3.597374e+01	-4.651012e+02
1.900000e-07	-4.991337e-06	-7.102558e-09	-3.572083e+01	-4.633118e+02
2.000000e-07	-4.954573e-06	-6.973082e-09	-3.545772e+01	-4.613971e+02
2.100000e-07	-4.916125e-06	-6.960829e-09	-3.518257e+01	-4.593497e+02
2.200000e-07	-4.875848e-06	-6.954675e-09	-3.489432e+01	-4.571661e+02
2.300000e-07	-4.833668e-06	-6.903985e-09	-3.459246e+01	-4.548465e+02
2.400000e-07	-4.789568e-06	-6.899221e-09	-3.427685e+01	-4.523949e+02
2.500000e-07	-4.743713e-06	-6.849017e-09	-3.394869e+01	-4.498177e+02
2.600000e-07	-4.696037e-06	-6.813467e-09	-3.360749e+01	-4.471234e+02
2.700000e-07	-4.646377e-06	-6.775384e-09	-3.325210e+01	-4.443209e+02
2.800000e-07	-4.594561e-06	-6.725582e-09	-3.288127e+01	-4.414182e+02
2.900000e-07	-4.540759e-06	-6.673936e-09	-3.249623e+01	-4.384221e+02
3.000000e-07	-4.485391e-06	-6.609317e-09	-3.209999e+01	-4.353365e+02
3.100000e-07	-4.428405e-06	-6.582933e-09	-3.169217e+01	-4.321629e+02
3.200000e-07	-4.369575e-06	-6.535060e-09	-3.127114e+01	-4.288999e+02
3.300000e-07	-4.309156e-06	-6.479191e-09	-3.083876e+01	-4.255437e+02
3.400000e-07	-4.247404e-06	-6.432509e-09	-3.039682e+01	-4.220892e+02
3.500000e-07	-4.184301e-06	-6.354843e-09	-2.994522e+01	-4.185303e+02
3.600000e-07	-4.119733e-06	-6.304505e-09	-2.948313e+01	-4.148610e+02
3.700000e-07	-4.053460e-06	-6.265137e-09	-2.900885e+01	-4.110763e+02
3.800000e-07	-3.985548e-06	-6.205746e-09	-2.852283e+01	-4.071729e+02
3.900000e-07	-3.916289e-06	-6.137553e-09	-2.802717e+01	-4.031491e+02
4.000000e-07	-3.845806e-06	-6.058491e-09	-2.752276e+01	-3.990051e+02
4.100000e-07	-3.774170e-06	-5.996070e-09	-2.701009e+01	-3.947427e+02
4.200000e-07	-3.701248e-06	-5.926301e-09	-2.648822e+01	-3.903648e+02
4.300000e-07	-3.626691e-06	-5.869671e-09	-2.595465e+01	-3.858749e+02
4.400000e-07	-3.550503e-06	-5.815378e-09	-2.540940e+01	-3.812760e+02
4.500000e-07	-3.472902e-06	-5.744411e-09	-2.485405e+01	-3.765709e+02
4.600000e-07	-3.393870e-06	-5.660439e-09	-2.428845e+01	-3.717608e+02
4.700000e-07	-3.313471e-06	-5.578487e-09	-2.371307e+01	-3.668459e+02
4.800000e-07	-3.231938e-06	-5.514602e-09	-2.312958e+01	-3.618247e+02
4.900000e-07	-3.149283e-06	-5.432210e-09	-2.253805e+01	-3.566949e+02
5.000000e-07	-3.065561e-06	-5.341448e-09	-2.193888e+01	-3.514531e+02
5.100000e-07	-2.981012e-06	-5.256517e-09	-2.133381e+01	-3.460955e+02
5.200000e-07	-2.895597e-06	-5.176269e-09	-2.072252e+01	-3.406184e+02
5.300000e-07	-2.809119e-06	-5.092879e-09	-2.010364e+01	-3.350182e+02
5.400000e-07	-2.721670e-06	-5.008390e-09	-1.947781e+01	-3.292921e+02
5.500000e-07	-2.633385e-06	-4.919375e-09	-1.884599e+01	-3.234381e+02
5.600000e-07	-2.544045e-06	-4.820698e-09	-1.820662e+01	-3.174545e+02
5.700000e-07	-2.453501e-06	-4.727339e-09	-1.755864e+01	-3.113406e+02
5.800000e-07	-2.361993e-06	-4.641725e-09	-1.690376e+01	-3.050958e+02
5.900000e-07	-2.269751e-06	-4.548724e-09	-1.624362e+01	-2.987199e+02
6.000000e-07	-2.176803e-06	-4.441623e-09	-1.557843e+01	-2.922125e+02
6.100000e-07	-2.083077e-06	-4.334711e-09	-1.490767e+01	-2.855731e+02
6.200000e-07	-1.988571e-06	-4.230064e-09	-1.423133e+01	-2.788008e+02
6.300000e-07	-1.893363e-06	-4.125257e-09	-1.354998e+01	-2.718948e+02
6.400000e-07	-1.797540e-06	-4.023489e-09	-1.286421e+01	-2.648535e+02
6.500000e-07	-1.701141e-06	-3.922199e-09	-1.217433e+01	-2.576756e+02
6.600000e-07	-1.604028e-06	-3.810633e-09	-1.147933e+01	-2.503594e+02
6.700000e-07	-1.506091e-06	-3.687847e-09	-1.077844e+01	-2.429029e+02
6.800000e-07	-1.407435e-06	-3.566762e-09	-1.007240e+01	-2.353040e+02
6.900000e-07	-1.308210e-06	-3.450967e-09	-9.362292e+00	-2.275599e+02
7.000000e-07	-1.208593e-06	-3.333751e-09	-8.649376e+00	-2.196674e+02
7.100000e-07	-1.108690e-06	-3.209642e-09	-7.934411e+00	-2.116222e+02
7.200000e-07	-1.008544e-06	-3.082629e-09	-7.217708e+00	-2.034193e+02
7.300000e-07	-9.081133e-07	-2.953810e-09	-6.498972e+00	-1.950527e+02
7.400000e-07	-8.073512e-07	-2.824601e-09	-5.777861e+00	-1.865152e+02
7.500000e-07	-7.063233e-07	-2.695387e-09	-5.054848e+00	-1.777994e+02
7.600000e-07	-6.050964e-07	-2.561410e-09	-4.330411e+00	-1.688972e+02
7.700000e-07	-5.036538e-07	-2.420708e-09	-3.604431e+00	-1.598008e+02
7.800000e-07	-4.020304e-07	-2.274695e-09	-2.877156e+00	-1.505032e+02
7.900000e-07	-3.003034e-07	-2.127660e-09	-2.149141e+00	-1.409983e+02
8.000000e-07	-1.984279e-07	-1.979325e-09	-1.420062e+00	-1.312812e+02
8.100000e-07	-9.639472e-08	-1.827440e-09	-6.898551e-01	-1.213485e+02
8.200000e-07	5.703141e-09	-1.670625e-09	4.081490e-02	-1.111979e+02
8.300000e-07	1.077834e-07	-1.509839e-09	7.713588e-01	-1.008278e+02
8.400000e-07	2.098196e-07	-1.346731e-09	1.501587e+00	-9.023668e+01
8.500000e-07	3.118175e-07	-1.183270e-09	2.231542e+00	-7.942219e+01
8.600000e-07	4.137515e-07	-1.017780e-09	2.961039e+00	-6.838063e+01
8.700000e-07	5.155738e-07	-8.453131e-10	3.689738e+00	-5.710630e+01
8.800000e-07	6.172255e-07	-6.653470e-10	4.417214e+00	-4.559134e+01
8.900000e-07	7.186232e-07	-4.830769e-10	5.142874e+00	-3.382596e+01
9.000000e-07	8.197684e-07	-3.010018e-10	5.866726e+00	-2.179921e+01
9.100000e-07	9.206061e-07	-1.159181e-10	6.588377e+00	-9.500352e+00
9.200000e-07	1.021149e-06	7.206755e-11	7.307918e+00	3.079399e+00
9.300000e-07	1.121448e-06	2.648739e-10	8.025715e+00	1.594473e+01
9.400000e-07	1.221437e-06	4.635576e-10	8.741296e+00	2.909404e+01
9.500000e-07	1.321028e-06	6.653483e-10	9.454022e+00	4.251731e+01
9.600000e-07	1.420032e-06	8.678727e-10	1.016255e+01	5.619447e+01
9.700000e-07	1.518339e-06	1.073671e-09	1.086609e+01	7.009439e+01
9.800000e-07	1.615934e-06	1.286628e-09	1.156454e+01	8.417463e+01
9.900000e-07	1.712777e-06	1.504114e-09	1.225760e+01	9.838230e+01
1.000000e-06	1.808899e-06	1.721959e-09	1.294551e+01	1.126557e+02
1.010000e-06	1.904378e-06	1.938431e-09	1.362880e+01	1.269268e+02
1.020000e-06	1.999217e-06	2.152650e-09	1.430753e+01	1.411248e+02
1.030000e-06	2.093367e-06	2.364252e-09	1.498132e+01	1.551790e+02
1.040000e-06	2.186800e-06	2.573396e-09	1.564998e+01	1.690229e+02
1.050000e-06	2.279532e-06	2.777698e-09	1.631362e+01	1.825972e+02
1.060000e-06	2.371566e-06	2.975983e-09	1.697227e+01	1.958522e+02
1.070000e-06	2.462816e-06	3.167906e-09	1.762530e+01	2.087499e+02
1.080000e-06	2.553086e-06	3.354840e-09	1.827133e+01	2.212640e+02
1.090000e-06	2.642204e-06	3.539201e-09	1.890910e+01	2.333798e+02
1.100000e-06	2.730255e-06	3.720303e-09	1.953924e+01	2.450931e+02
1.110000e-06	2.817397e-06	3.893868e-09	2.016289e+01	2.564074e+02
1.120000e-06	2.903642e-06	4.060723e-09	2.078010e+01	2.673321e+02
1.130000e-06	2.988953e-06	4.223192e-09	2.139063e+01	2.778791e+02
1.140000e-06	3.073397e-06	4.380625e-09	2.199497e+01	2.880608e+02
1.150000e-06	3.156913e-06	4.531759e-09	2.259265e+01	2.978880e+02
1.160000e-06	3.239378e-06	4.676417e-09	2.318282e+01	3.073684e+02
1.170000e-06	3.320619e-06	4.813187e-09	2.376422e+01	3.165064e+02
1.180000e-06	3.400553e-06	4.944452e-09	2.433628e+01	3.253031e+02
1.190000e-06	3.479329e-06	5.072090e-09	2.490004e+01	3.337576e+02
1.200000e-06	3.556958e-06	5.195315e-09	2.545560e+01	3.418682e+02
1.210000e-06	3.633302e-06	5.314612e-09	2.600196e+01	3.496342e+02
1.220000e-06	3.708196e-06	5.426751e-09	2.653794e+01	3.570574e+02
1.230000e-06	3.781485e-06	5.531601e-09	2.706244e+01	3.641436e+02
1.240000e-06	3.853233e-06	5.631677e-09	2.757591e+01	3.709033e+02
1.250000e-06	3.923636e-06	5.730133e-09	2.807975e+01	3.773516e+02
1.260000e-06	3.992752e-06	5.825865e-09	2.857439e+01	3.835077e+02
1.270000e-06	4.060518e-06	5.915527e-09	2.905936e+01	3.893940e+02
1.280000e-06	4.126715e-06	6.000028e-09	2.953310e+01	3.950342e+02
1.290000e-06	4.191264e-06	6.081964e-09	2.999505e+01	4.004516e+02
1.300000e-06	4.254314e-06	6.162079e-09	3.044627e+01	4.056674e+02
1.310000e-06	4.315961e-06	6.240381e-09	3.088745e+01	4.106990e+02
1.320000e-06	4.376190e-06	6.315225e-09	3.131849e+01	4.155593e+02
1.330000e-06	4.434922e-06	6.386703e-09	3.173881e+01	4.202559e+02
1.340000e-06	4.491922e-06	6.454284e-09	3.214673e+01	4.247912e+02
1.350000e-06	4.547215e-06	6.518593e-09	3.254244e+01	4.291636e+02
1.360000e-06	4.600930e-06	6.580574e-09	3.292685e+01	4.333682e+02
1.370000e-06	4.652865e-06	6.638940e-09	3.329853e+01	4.373984e+02
1.380000e-06	4.702771e-06	6.694983e-09	3.365568e+01	4.412474e+02
1.390000e-06	4.750738e-06	6.749589e-09	3.399897e+01	4.449097e+02
1.400000e-06	4.797035e-06	6.802899e-09	3.433029e+01	4.483817e+02
1.410000e-06	4.841780e-06	6.854279e-09	3.465051e+01	4.516627e+02
1.420000e-06	4.884921e-06	6.902618e-09	3.495925e+01	4.547550e+02
1.430000e-06	4.926209e-06	6.947554e-09	3.525473e+01	4.576630e+02
1.440000e-06	4.965723e-06	6.988106e-09	3.553752e+01	4.603934e+02
1.450000e-06	5.003625e-06	7.023912e-09	3.580877e+01	4.629534e+02
1.460000e-06	5.039901e-06	7.057195e-09	3.606838e+01	4.653506e+02
1.470000e-06	5.074427e-06	7.089925e-09	3.631547e+01	4.675915e+02
1.480000e-06	5.107004e-06	7.120834e-09	3.654860e+01	4.696812e+02
1.490000e-06	5.137768e-06	7.148354e-09	3.676877e+01	4.716233e+02
1.500000e-06	5.166885e-06	7.173301e-09	3.697715e+01	4.734197e+02
1.510000e-06	5.194237e-06	7.197664e-09	3.717289e+01	4.750713e+02
1.520000e-06	5.219576e-06	7.220658e-09	3.735424e+01	4.765783e+02
1.530000e-06	5.242919e-06	7.240682e-09	3.752129e+01	4.779415e+02
1.540000e-06	5.264519e-06	7.258849e-09	3.767587e+01	4.791622e+02
1.550000e-06	5.284413e-06	7.274879e-09	3.781824e+01	4.802432e+02
1.560000e-06	5.302430e-06	7.287537e-09	3.794718e+01	4.811889e+02
1.570000e-06	5.318434e-06	7.298086e-09	3.806172e+01	4.820052e+02
1.580000e-06	5.332430e-06	7.308167e-09	3.816188e+01	4.826989e+02
1.590000e-06	5.344405e-06	7.317908e-09	3.824758e+01	4.832771e+02
1.600000e-06	5.354184e-06	7.326968e-09	3.831756e+01	4.837468e+02
1.610000e-06	5.361888e-06	7.335034e-09	3.837270e+01	4.841135e+02
1.620000e-06	5.367775e-06	7.341307e-09	3.841483e+01	4.843809e+02
1.630000e-06	5.371834e-06	7.345779e-09	3.844388e+01	4.845506e+02
1.640000e-06	5.373937e-06	7.346940e-09	3.845893e+01	4.846218e+02
1.650000e-06	5.374087e-06	7.345954e-09	3.846000e+01	4.845920e+02
1.660000e-06	5.372498e-06	7.345935e-09	3.844863e+01	4.844574e+02
1.670000e-06	5.369280e-06	7.341100e-09	3.842560e+01	4.842138e+02
1.680000e-06	5.364288e-06	7.335005e-09	3.838987e+01	4.838580e+02
1.690000e-06	5.357390e-06	7.328801e-09	3.834051e+01	4.833882e+02
1.700000e-06	5.348804e-06	7.321282e-09	3.827906e+01	4.828050e+02
1.710000e-06	5.338699e-06	7.313047e-09	3.820675e+01	4.821119e+02
1.720000e-06	5.326838e-06	7.299589e-09	3.812186e+01	4.813150e+02
1.730000e-06	5.312922e-06	7.283281e-09	3.802227e+01	4.804226e+02
1.740000e-06	5.296941e-06	7.279542e-09	3.790790e+01	4.794447e+02
1.750000e-06	5.278615e-06	7.242909e-09	3.777675e+01	4.783914e+02
1.760000e-06	5.257628e-06	7.234380e-09	3.762655e+01	4.772715e+02
1.770000e-06	5.234461e-06	7.229572e-09	3.746076e+01	4.760921e+02
1.780000e-06	5.210110e-06	7.179661e-09	3.728649e+01	4.748566e+02
1.790000e-06	5.185025e-06	7.219528e-09	3.710697e+01	4.735649e+02
1.800000e-06	5.158436e-06	7.150094e-09	3.691668e+01	4.722125e+02
1.810000e-06	5.129617e-06	7.094257e-09	3.671043e+01	4.707914e+02
1.820000e-06	5.098978e-06	7.159871e-09	3.649117e+01	4.692908e+02
1.830000e-06	5.066693e-06	7.062321e-09	3.626012e+01	4.676978e+02
1.840000e-06	5.032442e-06	7.083687e-09	3.601500e+01	4.659994e+02
1.850000e-06	4.996568e-06	7.195003e-09	3.575826e+01	4.641836e+02
1.860000e-06	4.958980e-06	7.084447e-09	3.548926e+01	4.622406e+02
1.870000e-06	4.919496e-06	7.051229e-09	3.520670e+01	4.601638e+02
1.880000e-06	4.878360e-06	7.011051e-09	3.491230e+01	4.579506e+02
1.890000e-06	4.835500e-06	6.923120e-09	3.460557e+01	4.556020e+02
1.900000e-06	4.791022e-06	6.950939e-09	3.428726e+01	4.531225e+02
1.910000e-06	4.744749e-06	6.873536e-09	3.395611e+01	4.505191e+02
1.920000e-06	4.696446e-06	6.862431e-09	3.361042e+01	4.478005e+02
1.930000e-06	4.646458e-06	6.839159e-09	3.325267e+01	4.449755e+02
1.940000e-06	4.594739e-06	6.731941e-09	3.288254e+01	4.420520e+02
1.950000e-06	4.540955e-06	6.747669e-09	3.249764e+01	4.390361e+02
1.960000e-06	4.485226e-06	6.676930e-09	3.209881e+01	4.359313e+02
1.970000e-06	4.427828e-06	6.615550e-09	3.168804e+01	4.327384e+02
1.980000e-06	4.369018e-06	6.563329e-09	3.126716e+01	4.294555e+02
1.990000e-06	4.308805e-06	6.497277e-09	3.083624e+01	4.260784e+02
2.000000e-06	4.246829e-06	6.520243e-09	3.039271e+01	4.226017e+02
2.010000e-06	4.183160e-06	6.417141e-09	2.993706e+01	4.190192e+02
2.020000e-06	4.118035e-06	6.354762e-09	2.947098e+01	4.153252e+02
2.030000e-06	4.051469e-06	6.312794e-09	2.899460e+01	4.115150e+02
2.040000e-06	3.983567e-06	6.225703e-09	2.850865e+01	4.075855e+02
2.050000e-06	3.914181e-06	6.189103e-09	2.801209e+01	4.035355e+02
2.060000e-06	3.843212e-06	6.119230e-09	2.750420e+01	3.993656e+02
2.070000e-06	3.770902e-06	6.089757e-09	2.698670e+01	3.950779e+02
2.080000e-06	3.697357e-06	5.993203e-09	2.646038e+01	3.906753e+02
2.090000e-06	3.622505e-06	5.886772e-09	2.592469e+01	3.861614e+02
2.100000e-06	3.546230e-06	5.835033e-09	2.537882e+01	3.815393e+02
2.110000e-06	3.468368e-06	5.772790e-09	2.482160e+01	3.768112e+02
2.120000e-06	3.389064e-06	5.717078e-09	2.425405e+01	3.719784e+02
2.130000e-06	3.308633e-06	5.618592e-09	2.367845e+01	3.670405e+02
2.140000e-06	3.227140e-06	5.554585e-09	2.309523e+01	3.619960e+02
2.150000e-06	3.144533e-06	5.475654e-09	2.250405e+01	3.568421e+02
2.160000e-06	3.060949e-06	5.388174e-09	2.190588e+01	3.515755e+02
2.170000e-06	2.976341e-06	5.317975e-09	2.130038e+01	3.461922e+02
2.180000e-06	2.890341e-06	5.227217e-09	2.068491e+01	3.406886e+02
2.190000e-06	2.803067e-06	5.134031e-09	2.006033e+01	3.350614e+02
2.200000e-06	2.714879e-06	5.035567e-09	1.942921e+01	3.293077e+02
2.210000e-06	2.625826e-06	4.964768e-09	1.879189e+01	3.234256e+02
2.220000e-06	2.535852e-06	4.884468e-09	1.814799e+01	3.174138e+02
2.230000e-06	2.444972e-06	4.785047e-09	1.749760e+01	3.112716e+02
2.240000e-06	2.353330e-06	4.682927e-09	1.684176e+01	3.049984e+02
2.250000e-06	2.260985e-06	4.582860e-09	1.618089e+01	2.985940e+02
2.260000e-06	2.167848e-06	4.483649e-09	1.551434e+01	2.920580e+02
2.270000e-06	2.073702e-06	4.383641e-09	1.484059e+01	2.853898e+02
2.280000e-06	1.978509e-06	4.284858e-09	1.415933e+01	2.785887e+02
2.290000e-06	1.882583e-06	4.170803e-09	1.347283e+01	2.716534e+02
2.300000e-06	1.786161e-06	4.051260e-09	1.278278e+01	2.645827e+02
2.310000e-06	1.689262e-06	3.939473e-09	1.208931e+01	2.573749e+02
2.320000e-06	1.591839e-06	3.841904e-09	1.139210e+01	2.500285e+02
2.330000e-06	1.493912e-06	3.740510e-09	1.069128e+01	2.425413e+02
2.340000e-06	1.395475e-06	3.623548e-09	9.986806e+00	2.349112e+02
2.350000e-06	1.296528e-06	3.497897e-09	9.278684e+00	2.271353e+02
2.360000e-06	1.197211e-06	3.370813e-09	8.567919e+00	2.192100e+02
2.370000e-06	1.097611e-06	3.246869e-09	7.855125e+00	2.111312e+02
2.380000e-06	9.977052e-07	3.124850e-09	7.140142e+00	2.028935e+02
2.390000e-06	8.974947e-07	2.999366e-09	6.422979e+00	1.944905e+02
2.400000e-06	7.969920e-07	2.865326e-09	5.703725e+00	1.859151e+02
2.410000e-06	6.961391e-07	2.729137e-09	4.981965e+00	1.771596e+02
2.420000e-06	5.950322e-07	2.594558e-09	4.258387e+00	1.682161e+02
2.430000e-06	4.937520e-07	2.462370e-09	3.533568e+00	1.590769e+02
2.440000e-06	3.922724e-07	2.325194e-09	2.807323e+00	1.497350e+02
2.450000e-06	2.905933e-07	2.178113e-09	2.079650e+00	1.401845e+02
2.460000e-06	1.887596e-07	2.024708e-09	1.350870e+00	1.304212e+02
2.470000e-06	8.682780e-08	1.870854e-09	6.213888e-01	1.204416e+02
2.480000e-06	-1.518728e-08	1.719649e-09	-1.086888e-01	1.102438e+02
2.490000e-06	-1.172388e-07	1.564611e-09	-8.390271e-01	9.982611e+01
2.500000e-06	-2.192371e-07	1.401156e-09	-1.568985e+00	8.918699e+01
2.510000e-06	-3.211351e-07	1.232873e-09	-2.298224e+00	7.832387e+01
2.520000e-06	-4.229068e-07	1.065413e-09	-3.026560e+00	6.723264e+01
2.530000e-06	-5.244860e-07	8.981093e-10	-3.753518e+00	5.590714e+01
2.540000e-06	-6.258133e-07	7.263297e-10	-4.478673e+00	4.433905e+01
2.550000e-06	-7.268790e-07	5.462378e-10	-5.201957e+00	3.251825e+01
2.560000e-06	-8.277149e-07	3.560705e-10	-5.923596e+00	2.043372e+01
2.570000e-06	-9.282480e-07	1.597646e-10	-6.643067e+00	8.074957e+00
2.580000e-06	-1.028402e-06	-3.793289e-11	-7.359825e+00	-4.566122e+00
2.590000e-06	-1.128160e-06	-2.349134e-10	-8.073751e+00	-1.749304e+01
2.600000e-06	-1.227544e-06	-4.347513e-10	-8.784998e+00	-3.070256e+01
2.610000e-06	-1.326551e-06	-6.439973e-10	-9.493547e+00	-4.418264e+01
2.620000e-06	-1.425111e-06	-8.585865e-10	-1.019890e+01	-5.791089e+01
2.630000e-06	-1.523154e-06	-1.072684e-09	-1.090055e+01	-7.185374e+01
2.640000e-06	-1.620585e-06	-1.285323e-09	-1.159782e+01	-8.596643e+01
2.650000e-06	-1.717444e-06	-1.501315e-09	-1.229100e+01	-1.001940e+02
2.660000e-06	-1.813826e-06	-1.724652e-09	-1.298076e+01	-1.144731e+02
2.670000e-06	-1.909724e-06	-1.950374e-09	-1.366707e+01	-1.287349e+02
2.680000e-06	-2.004936e-06	-2.173607e-09	-1.434845e+01	-1.429083e+02
2.690000e-06	-2.099282e-06	-2.389297e-09	-1.502364e+01	-1.569231e+02
2.700000e-06	-2.192680e-06	-2.599326e-09	-1.569205e+01	-1.707143e+02
2.710000e-06	-2.285132e-06	-2.806249e-09	-1.635370e+01	-1.842243e+02
2.720000e-06	-2.376748e-06	-3.009339e-09	-1.700935e+01	-1.974060e+02
2.730000e-06	-2.467510e-06	-3.204696e-09	-1.765889e+01	-2.102236e+02
2.740000e-06	-2.557419e-06	-3.391197e-09	-1.830233e+01	-2.226535e+02
2.750000e-06	-2.646440e-06	-3.572560e-09	-1.893942e+01	-2.346835e+02
2.760000e-06	-2.734592e-06	-3.750506e-09	-1.957028e+01	-2.463111e+02
2.770000e-06	-2.821948e-06	-3.926727e-09	-2.019545e+01	-2.575414e+02
2.780000e-06	-2.908355e-06	-4.097303e-09	-2.081383e+01	-2.683844e+02
2.790000e-06	-2.993615e-06	-4.257403e-09	-2.142400e+01	-2.788524e+02
2.800000e-06	-3.077729e-06	-4.407204e-09	-2.202597e+01	-2.889577e+02
2.810000e-06	-3.160712e-06	-4.551342e-09	-2.261984e+01	-2.987104e+02
2.820000e-06	-3.242655e-06	-4.693080e-09	-2.320627e+01	-3.081176e+02
2.830000e-06	-3.323595e-06	-4.831407e-09	-2.378552e+01	-3.171828e+02
2.840000e-06	-3.403483e-06	-4.965395e-09	-2.435725e+01	-3.259066e+02
2.850000e-06	-3.482127e-06	-5.095791e-09	-2.492007e+01	-3.342879e+02
2.860000e-06	-3.559334e-06	-5.221577e-09	-2.547261e+01	-3.423250e+02
2.870000e-06	-3.635006e-06	-5.339967e-09	-2.601415e+01	-3.500175e+02
2.880000e-06	-3.709223e-06	-5.453683e-09	-2.654529e+01	-3.573683e+02
2.890000e-06	-3.782140e-06	-5.563658e-09	-2.706713e+01	-3.643839e+02
2.900000e-06	-3.853756e-06	-5.666469e-09	-2.757965e+01	-3.710757e+02
2.910000e-06	-3.923903e-06	-5.761840e-09	-2.808167e+01	-3.774600e+02
2.920000e-06	-3.992445e-06	-5.853133e-09	-2.857219e+01	-3.835567e+02
2.930000e-06	-4.059527e-06	-5.942539e-09	-2.905226e+01	-3.893886e+02
2.940000e-06	-4.125213e-06	-6.029485e-09	-2.952235e+01	-3.949794e+02
