# Temperatura_=_46.59
# Concentracion g/m^3_=_15000.0
# C_Vs_to_Am_M_A/Vsm_=_65563218390.804596
# pendiente_HvsI_1/m_=_3716.3
# ordenada_HvsI_A/m_=_1297.0
# frecuencia_Hz_=_302337.312742441

Tiempo_(s)	Campo_(V.s)	Magnetizacion_(V.s)	Campo_(kA/m)	Magnetizacion_(A/m)
0.000000e+00	-8.152573e-06	-1.083907e-08	-5.690377e+01	-7.082460e+02
1.000000e-08	-8.147723e-06	-1.083653e-08	-5.686991e+01	-7.078895e+02
2.000000e-08	-8.140333e-06	-1.082823e-08	-5.681833e+01	-7.074252e+02
3.000000e-08	-8.130076e-06	-1.082253e-08	-5.674674e+01	-7.068659e+02
4.000000e-08	-8.116816e-06	-1.081450e-08	-5.665419e+01	-7.062238e+02
5.000000e-08	-8.100633e-06	-1.079991e-08	-5.654123e+01	-7.055099e+02
6.000000e-08	-8.081934e-06	-1.078039e-08	-5.641072e+01	-7.047320e+02
7.000000e-08	-8.060997e-06	-1.075160e-08	-5.626458e+01	-7.038952e+02
8.000000e-08	-8.037392e-06	-1.077210e-08	-5.609982e+01	-7.030007e+02
9.000000e-08	-8.010546e-06	-1.080194e-08	-5.591244e+01	-7.020471e+02
1.000000e-07	-7.980452e-06	-1.074998e-08	-5.570238e+01	-7.010304e+02
1.100000e-07	-7.947395e-06	-1.070669e-08	-5.547165e+01	-6.999452e+02
1.200000e-07	-7.911457e-06	-1.068648e-08	-5.522081e+01	-6.987855e+02
1.300000e-07	-7.872987e-06	-1.065464e-08	-5.495230e+01	-6.975454e+02
1.400000e-07	-7.832185e-06	-1.059677e-08	-5.466751e+01	-6.962196e+02
1.500000e-07	-7.789018e-06	-1.059305e-08	-5.436620e+01	-6.948033e+02
1.600000e-07	-7.743206e-06	-1.063644e-08	-5.404644e+01	-6.932925e+02
1.700000e-07	-7.694460e-06	-1.051126e-08	-5.370621e+01	-6.916828e+02
1.800000e-07	-7.642829e-06	-1.051873e-08	-5.334583e+01	-6.899695e+02
1.900000e-07	-7.588306e-06	-1.053323e-08	-5.296527e+01	-6.881471e+02
2.000000e-07	-7.530990e-06	-1.044600e-08	-5.256521e+01	-6.862086e+02
2.100000e-07	-7.470984e-06	-1.046218e-08	-5.214637e+01	-6.841460e+02
2.200000e-07	-7.408331e-06	-1.041192e-08	-5.170907e+01	-6.819507e+02
2.300000e-07	-7.342909e-06	-1.037934e-08	-5.125243e+01	-6.796139e+02
2.400000e-07	-7.274667e-06	-1.030884e-08	-5.077611e+01	-6.771280e+02
2.500000e-07	-7.203673e-06	-1.027230e-08	-5.028058e+01	-6.744871e+02
2.600000e-07	-7.129778e-06	-1.025788e-08	-4.976481e+01	-6.716882e+02
2.700000e-07	-7.053008e-06	-1.019440e-08	-4.922896e+01	-6.687316e+02
2.800000e-07	-6.973449e-06	-1.013237e-08	-4.867365e+01	-6.656212e+02
2.900000e-07	-6.891323e-06	-1.007588e-08	-4.810043e+01	-6.623636e+02
3.000000e-07	-6.806852e-06	-1.006504e-08	-4.751083e+01	-6.589677e+02
3.100000e-07	-6.719965e-06	-1.000226e-08	-4.690438e+01	-6.554433e+02
3.200000e-07	-6.630635e-06	-9.931121e-09	-4.628086e+01	-6.517992e+02
3.300000e-07	-6.538860e-06	-9.895152e-09	-4.564028e+01	-6.480424e+02
3.400000e-07	-6.444718e-06	-9.828774e-09	-4.498319e+01	-6.441761e+02
3.500000e-07	-6.348232e-06	-9.757240e-09	-4.430973e+01	-6.401995e+02
3.600000e-07	-6.249405e-06	-9.696809e-09	-4.361993e+01	-6.361074e+02
3.700000e-07	-6.148368e-06	-9.651977e-09	-4.291471e+01	-6.318907e+02
3.800000e-07	-6.045113e-06	-9.577290e-09	-4.219400e+01	-6.275374e+02
3.900000e-07	-5.939667e-06	-9.486844e-09	-4.145800e+01	-6.230338e+02
4.000000e-07	-5.832163e-06	-9.415479e-09	-4.070765e+01	-6.183668e+02
4.100000e-07	-5.722682e-06	-9.351392e-09	-3.994348e+01	-6.135248e+02
4.200000e-07	-5.611091e-06	-9.278942e-09	-3.916460e+01	-6.084995e+02
4.300000e-07	-5.497333e-06	-9.188599e-09	-3.837058e+01	-6.032861e+02
4.400000e-07	-5.381464e-06	-9.105955e-09	-3.756183e+01	-5.978837e+02
4.500000e-07	-5.263587e-06	-9.025702e-09	-3.673907e+01	-5.922943e+02
4.600000e-07	-5.143782e-06	-8.937190e-09	-3.590284e+01	-5.865219e+02
4.700000e-07	-5.022172e-06	-8.844352e-09	-3.505402e+01	-5.805702e+02
4.800000e-07	-4.898766e-06	-8.756651e-09	-3.419267e+01	-5.744417e+02
4.900000e-07	-4.773568e-06	-8.660211e-09	-3.331880e+01	-5.681354e+02
5.000000e-07	-4.646716e-06	-8.547898e-09	-3.243340e+01	-5.616458e+02
5.100000e-07	-4.518078e-06	-8.442138e-09	-3.153552e+01	-5.549630e+02
5.200000e-07	-4.387787e-06	-8.346440e-09	-3.062611e+01	-5.480728e+02
5.300000e-07	-4.255857e-06	-8.240230e-09	-2.970526e+01	-5.409576e+02
5.400000e-07	-4.122361e-06	-8.116661e-09	-2.877348e+01	-5.335990e+02
5.500000e-07	-3.987393e-06	-7.997503e-09	-2.783142e+01	-5.259789e+02
5.600000e-07	-3.850768e-06	-7.885453e-09	-2.687780e+01	-5.180824e+02
5.700000e-07	-3.712602e-06	-7.759675e-09	-2.591342e+01	-5.098989e+02
5.800000e-07	-3.572970e-06	-7.624937e-09	-2.493881e+01	-5.014231e+02
5.900000e-07	-3.431814e-06	-7.492084e-09	-2.395356e+01	-4.926551e+02
6.000000e-07	-3.289159e-06	-7.353978e-09	-2.295785e+01	-4.835993e+02
6.100000e-07	-3.145263e-06	-7.204131e-09	-2.195347e+01	-4.742625e+02
6.200000e-07	-3.000333e-06	-7.056325e-09	-2.094188e+01	-4.646512e+02
6.300000e-07	-2.854309e-06	-6.911788e-09	-1.992266e+01	-4.547692e+02
6.400000e-07	-2.707260e-06	-6.757755e-09	-1.889628e+01	-4.446145e+02
6.500000e-07	-2.559333e-06	-6.595928e-09	-1.786377e+01	-4.341780e+02
6.600000e-07	-2.410550e-06	-6.431671e-09	-1.682529e+01	-4.234421e+02
6.700000e-07	-2.260959e-06	-6.264601e-09	-1.578116e+01	-4.123818e+02
6.800000e-07	-2.110608e-06	-6.087541e-09	-1.473173e+01	-4.009655e+02
6.900000e-07	-1.959525e-06	-5.902454e-09	-1.367720e+01	-3.891586e+02
7.000000e-07	-1.807763e-06	-5.712697e-09	-1.261792e+01	-3.769262e+02
7.100000e-07	-1.655309e-06	-5.515641e-09	-1.155381e+01	-3.642373e+02
7.200000e-07	-1.502197e-06	-5.312793e-09	-1.048512e+01	-3.510674e+02
7.300000e-07	-1.348536e-06	-5.107833e-09	-9.412582e+00	-3.374008e+02
7.400000e-07	-1.194472e-06	-4.895813e-09	-8.337240e+00	-3.232308e+02
7.500000e-07	-1.040081e-06	-4.675211e-09	-7.259612e+00	-3.085588e+02
7.600000e-07	-8.853988e-07	-4.447299e-09	-6.179954e+00	-2.933909e+02
7.700000e-07	-7.304072e-07	-4.209399e-09	-5.098136e+00	-2.777333e+02
7.800000e-07	-5.751863e-07	-3.963969e-09	-4.014716e+00	-2.615870e+02
7.900000e-07	-4.197852e-07	-3.710038e-09	-2.930039e+00	-2.449421e+02
8.000000e-07	-2.641759e-07	-3.447024e-09	-1.843909e+00	-2.277731e+02
8.100000e-07	-1.084256e-07	-3.172326e-09	-7.567946e-01	-2.100355e+02
8.200000e-07	4.741730e-08	-2.888264e-09	3.309658e-01	-1.916657e+02
8.300000e-07	2.032277e-07	-2.594254e-09	1.418499e+00	-1.725827e+02
8.400000e-07	3.589417e-07	-2.285274e-09	2.505361e+00	-1.526942e+02
8.500000e-07	5.145378e-07	-1.963891e-09	3.591399e+00	-1.319044e+02
8.600000e-07	6.700352e-07	-1.632131e-09	4.676747e+00	-1.101248e+02
8.700000e-07	8.253657e-07	-1.289113e-09	5.760932e+00	-8.728590e+01
8.800000e-07	9.803722e-07	-9.277783e-10	6.842854e+00	-6.334913e+01
8.900000e-07	1.135110e-06	-5.502386e-10	7.922899e+00	-3.831697e+01
9.000000e-07	1.289563e-06	-1.560062e-10	9.000959e+00	-1.224096e+01
9.100000e-07	1.443635e-06	2.556611e-10	1.007636e+01	1.477433e+01
9.200000e-07	1.597298e-06	6.808107e-10	1.114891e+01	4.257151e+01
9.300000e-07	1.750345e-06	1.115421e-09	1.221715e+01	7.094534e+01
9.400000e-07	1.902663e-06	1.554794e-09	1.328031e+01	9.965197e+01
9.500000e-07	2.054129e-06	1.995806e-09	1.433752e+01	1.284218e+02
9.600000e-07	2.204709e-06	2.430447e-09	1.538855e+01	1.569749e+02
9.700000e-07	2.354505e-06	2.855370e-09	1.643410e+01	1.850373e+02
9.800000e-07	2.503466e-06	3.269981e-09	1.747383e+01	2.123569e+02
9.900000e-07	2.651413e-06	3.671769e-09	1.850648e+01	2.387174e+02
1.000000e-06	2.798342e-06	4.054539e-09	1.953202e+01	2.639489e+02
1.010000e-06	2.944335e-06	4.415141e-09	2.055103e+01	2.879341e+02
1.020000e-06	3.089235e-06	4.757757e-09	2.156241e+01	3.106108e+02
1.030000e-06	3.232919e-06	5.079831e-09	2.256530e+01	3.319687e+02
1.040000e-06	3.375396e-06	5.382099e-09	2.355977e+01	3.520433e+02
1.050000e-06	3.516583e-06	5.667017e-09	2.454523e+01	3.709060e+02
1.060000e-06	3.656359e-06	5.937095e-09	2.552085e+01	3.886530e+02
1.070000e-06	3.794769e-06	6.192222e-09	2.648694e+01	4.053929e+02
1.080000e-06	3.931759e-06	6.432971e-09	2.744310e+01	4.212359e+02
1.090000e-06	4.067194e-06	6.665465e-09	2.838842e+01	4.362842e+02
1.100000e-06	4.201194e-06	6.887523e-09	2.932372e+01	4.506251e+02
1.110000e-06	4.333713e-06	7.095572e-09	3.024868e+01	4.643272e+02
1.120000e-06	4.464644e-06	7.292951e-09	3.116256e+01	4.774395e+02
1.130000e-06	4.594115e-06	7.484045e-09	3.206625e+01	4.899928e+02
1.140000e-06	4.721944e-06	7.664335e-09	3.295848e+01	5.020038e+02
1.150000e-06	4.848108e-06	7.832295e-09	3.383908e+01	5.134796e+02
1.160000e-06	4.972663e-06	7.992402e-09	3.470846e+01	5.244230e+02
1.170000e-06	5.095478e-06	8.147825e-09	3.556569e+01	5.348373e+02
1.180000e-06	5.216526e-06	8.298387e-09	3.641059e+01	5.447298e+02
1.190000e-06	5.335666e-06	8.445035e-09	3.724217e+01	5.541141e+02
1.200000e-06	5.452812e-06	8.583924e-09	3.805983e+01	5.630111e+02
1.210000e-06	5.567925e-06	8.714836e-09	3.886330e+01	5.714475e+02
1.220000e-06	5.680831e-06	8.837610e-09	3.965137e+01	5.794548e+02
1.230000e-06	5.791544e-06	8.954138e-09	4.042413e+01	5.870661e+02
1.240000e-06	5.900243e-06	9.064152e-09	4.118284e+01	5.943137e+02
1.250000e-06	6.006925e-06	9.164834e-09	4.192746e+01	6.012272e+02
1.260000e-06	6.111353e-06	9.261377e-09	4.265635e+01	6.078313e+02
1.270000e-06	6.213471e-06	9.355674e-09	4.336912e+01	6.141456e+02
1.280000e-06	6.313346e-06	9.447220e-09	4.406623e+01	6.201845e+02
1.290000e-06	6.410835e-06	9.534987e-09	4.474669e+01	6.259586e+02
1.300000e-06	6.505927e-06	9.618992e-09	4.541042e+01	6.314759e+02
1.310000e-06	6.598676e-06	9.699553e-09	4.605779e+01	6.367436e+02
1.320000e-06	6.689086e-06	9.775861e-09	4.668884e+01	6.417697e+02
1.330000e-06	6.777083e-06	9.847910e-09	4.730305e+01	6.465638e+02
1.340000e-06	6.862631e-06	9.916488e-09	4.790016e+01	6.511379e+02
1.350000e-06	6.945858e-06	9.981637e-09	4.848108e+01	6.555054e+02
1.360000e-06	7.026628e-06	1.004324e-08	4.904484e+01	6.596807e+02
1.370000e-06	7.104802e-06	1.010364e-08	4.959048e+01	6.636774e+02
1.380000e-06	7.180301e-06	1.016335e-08	5.011745e+01	6.675069e+02
1.390000e-06	7.253033e-06	1.022117e-08	5.062511e+01	6.711771e+02
1.400000e-06	7.323177e-06	1.027606e-08	5.111471e+01	6.746911e+02
1.410000e-06	7.390819e-06	1.032750e-08	5.158684e+01	6.780473e+02
1.420000e-06	7.455779e-06	1.037670e-08	5.204025e+01	6.812398e+02
1.430000e-06	7.518089e-06	1.042008e-08	5.247516e+01	6.842590e+02
1.440000e-06	7.577909e-06	1.045905e-08	5.289270e+01	6.870942e+02
1.450000e-06	7.635110e-06	1.049369e-08	5.329195e+01	6.897350e+02
1.460000e-06	7.689567e-06	1.052557e-08	5.367205e+01	6.921734e+02
1.470000e-06	7.741019e-06	1.055855e-08	5.403118e+01	6.944056e+02
1.480000e-06	7.789319e-06	1.059148e-08	5.436831e+01	6.964330e+02
1.490000e-06	7.834762e-06	1.062186e-08	5.468549e+01	6.982625e+02
1.500000e-06	7.877423e-06	1.064739e-08	5.498326e+01	6.999061e+02
1.510000e-06	7.917226e-06	1.066908e-08	5.526108e+01	7.013797e+02
1.520000e-06	7.954262e-06	1.069036e-08	5.551959e+01	7.027013e+02
1.530000e-06	7.988533e-06	1.070959e-08	5.575879e+01	7.038888e+02
1.540000e-06	8.019915e-06	1.072459e-08	5.597783e+01	7.049584e+02
1.550000e-06	8.048478e-06	1.073554e-08	5.617720e+01	7.059223e+02
1.560000e-06	8.074166e-06	1.074518e-08	5.635650e+01	7.067880e+02
1.570000e-06	8.096810e-06	1.075720e-08	5.651455e+01	7.075581e+02
1.580000e-06	8.116621e-06	1.076942e-08	5.665283e+01	7.082300e+02
1.590000e-06	8.133576e-06	1.077949e-08	5.677117e+01	7.087975e+02
1.600000e-06	8.147483e-06	1.078600e-08	5.686824e+01	7.092523e+02
1.610000e-06	8.158181e-06	1.079047e-08	5.694291e+01	7.095856e+02
1.620000e-06	8.165761e-06	1.079274e-08	5.699581e+01	7.097901e+02
1.630000e-06	8.170499e-06	1.079337e-08	5.702889e+01	7.098612e+02
1.640000e-06	8.172306e-06	1.079483e-08	5.704150e+01	7.097985e+02
1.650000e-06	8.171225e-06	1.079517e-08	5.703396e+01	7.096056e+02
1.660000e-06	8.167493e-06	1.078621e-08	5.700791e+01	7.092900e+02
1.670000e-06	8.161019e-06	1.078120e-08	5.696272e+01	7.088624e+02
1.680000e-06	8.151779e-06	1.077519e-08	5.689823e+01	7.083351e+02
1.690000e-06	8.139807e-06	1.076594e-08	5.681466e+01	7.077208e+02
1.700000e-06	8.124907e-06	1.075969e-08	5.671067e+01	7.070310e+02
1.710000e-06	8.107367e-06	1.075897e-08	5.658824e+01	7.062748e+02
1.720000e-06	8.087523e-06	1.076172e-08	5.644973e+01	7.054582e+02
1.730000e-06	8.065038e-06	1.068595e-08	5.629279e+01	7.045839e+02
1.740000e-06	8.039216e-06	1.064437e-08	5.611255e+01	7.036514e+02
1.750000e-06	8.009550e-06	1.067848e-08	5.590549e+01	7.026573e+02
1.760000e-06	7.976466e-06	1.066273e-08	5.567457e+01	7.015968e+02
1.770000e-06	7.940936e-06	1.063701e-08	5.542657e+01	7.004639e+02
1.780000e-06	7.903130e-06	1.068048e-08	5.516269e+01	6.992528e+02
1.790000e-06	7.863102e-06	1.068708e-08	5.488330e+01	6.979577e+02
1.800000e-06	7.821071e-06	1.054295e-08	5.458993e+01	6.965738e+02
1.810000e-06	7.776436e-06	1.062136e-08	5.427839e+01	6.950967e+02
1.820000e-06	7.728954e-06	1.060451e-08	5.394697e+01	6.935224e+02
1.830000e-06	7.678747e-06	1.052797e-08	5.359653e+01	6.918463e+02
1.840000e-06	7.625408e-06	1.058055e-08	5.322423e+01	6.900631e+02
1.850000e-06	7.569162e-06	1.044192e-08	5.283164e+01	6.881665e+02
1.860000e-06	7.510229e-06	1.046292e-08	5.242030e+01	6.861488e+02
1.870000e-06	7.448452e-06	1.039383e-08	5.198911e+01	6.840014e+02
1.880000e-06	7.383941e-06	1.036742e-08	5.153882e+01	6.817157e+02
1.890000e-06	7.316619e-06	1.042461e-08	5.106893e+01	6.792834e+02
1.900000e-06	7.246419e-06	1.030287e-08	5.057894e+01	6.766979e+02
1.910000e-06	7.173319e-06	1.028292e-08	5.006872e+01	6.739551e+02
1.920000e-06	7.097500e-06	1.020510e-08	4.953951e+01	6.710541e+02
1.930000e-06	7.018959e-06	1.019750e-08	4.899131e+01	6.679976e+02
1.940000e-06	6.937664e-06	1.014963e-08	4.842388e+01	6.647912e+02
1.950000e-06	6.853883e-06	1.007747e-08	4.783910e+01	6.614431e+02
1.960000e-06	6.767522e-06	1.007123e-08	4.723632e+01	6.579631e+02
1.970000e-06	6.678589e-06	9.951906e-09	4.661557e+01	6.543604e+02
1.980000e-06	6.587300e-06	9.915480e-09	4.597839e+01	6.506428e+02
1.990000e-06	6.493780e-06	9.863170e-09	4.532564e+01	6.468150e+02
2.000000e-06	6.397982e-06	9.836795e-09	4.465698e+01	6.428777e+02
2.010000e-06	6.299868e-06	9.750090e-09	4.397216e+01	6.388273e+02
2.020000e-06	6.199502e-06	9.657381e-09	4.327162e+01	6.346560e+02
2.030000e-06	6.096821e-06	9.609023e-09	4.255492e+01	6.303525e+02
2.040000e-06	5.991913e-06	9.542801e-09	4.182268e+01	6.259037e+02
2.050000e-06	5.885015e-06	9.491209e-09	4.107654e+01	6.212960e+02
2.060000e-06	5.776156e-06	9.400176e-09	4.031672e+01	6.165173e+02
2.070000e-06	5.665183e-06	9.333236e-09	3.954215e+01	6.115577e+02
2.080000e-06	5.552096e-06	9.240026e-09	3.875281e+01	6.064114e+02
2.090000e-06	5.436909e-06	9.164976e-09	3.794883e+01	6.010759e+02
2.100000e-06	5.319609e-06	9.095190e-09	3.713009e+01	5.955525e+02
2.110000e-06	5.200287e-06	9.028185e-09	3.629724e+01	5.898445e+02
2.120000e-06	5.079052e-06	8.921783e-09	3.545104e+01	5.839560e+02
2.130000e-06	4.956023e-06	8.808878e-09	3.459232e+01	5.778901e+02
2.140000e-06	4.831154e-06	8.725602e-09	3.372075e+01	5.716472e+02
2.150000e-06	4.704533e-06	8.642937e-09	3.283695e+01	5.652235e+02
2.160000e-06	4.576215e-06	8.550665e-09	3.194131e+01	5.586108e+02
2.170000e-06	4.446232e-06	8.433387e-09	3.103405e+01	5.517960e+02
2.180000e-06	4.314730e-06	8.322578e-09	3.011619e+01	5.447629e+02
2.190000e-06	4.181607e-06	8.204484e-09	2.918701e+01	5.374929e+02
2.200000e-06	4.046864e-06	8.092453e-09	2.824652e+01	5.299677e+02
2.210000e-06	3.910637e-06	7.980969e-09	2.729568e+01	5.221709e+02
2.220000e-06	3.772834e-06	7.867291e-09	2.633383e+01	5.140903e+02
2.230000e-06	3.633566e-06	7.728460e-09	2.536176e+01	5.057187e+02
2.240000e-06	3.492914e-06	7.589126e-09	2.438003e+01	4.970543e+02
2.250000e-06	3.350857e-06	7.464219e-09	2.338849e+01	4.881002e+02
2.260000e-06	3.207596e-06	7.337409e-09	2.238855e+01	4.788625e+02
2.270000e-06	3.063126e-06	7.195098e-09	2.138017e+01	4.693482e+02
2.280000e-06	2.917420e-06	7.036959e-09	2.036317e+01	4.595623e+02
2.290000e-06	2.770666e-06	6.878345e-09	1.933885e+01	4.495051e+02
2.300000e-06	2.623090e-06	6.722233e-09	1.830878e+01	4.391704e+02
2.310000e-06	2.474643e-06	6.567899e-09	1.727265e+01	4.285435e+02
2.320000e-06	2.325196e-06	6.405776e-09	1.622953e+01	4.176020e+02
2.330000e-06	2.174811e-06	6.230848e-09	1.517986e+01	4.063163e+02
2.340000e-06	2.023768e-06	6.042912e-09	1.412560e+01	3.946525e+02
2.350000e-06	1.872214e-06	5.854909e-09	1.306778e+01	3.825755e+02
2.360000e-06	1.720083e-06	5.668931e-09	1.200593e+01	3.700524e+02
2.370000e-06	1.567381e-06	5.476019e-09	1.094009e+01	3.570561e+02
2.380000e-06	1.414156e-06	5.270828e-09	9.870601e+00	3.435676e+02
2.390000e-06	1.260417e-06	5.054261e-09	8.797530e+00	3.295772e+02
2.400000e-06	1.106161e-06	4.831080e-09	7.720840e+00	3.150835e+02
2.410000e-06	9.514879e-07	4.604713e-09	6.641246e+00	3.000914e+02
2.420000e-06	7.965437e-07	4.375791e-09	5.559758e+00	2.846078e+02
2.430000e-06	6.413851e-07	4.135783e-09	4.476774e+00	2.686360e+02
2.440000e-06	4.860514e-07	3.881331e-09	3.392568e+00	2.521708e+02
2.450000e-06	3.305410e-07	3.618388e-09	2.307128e+00	2.351926e+02
2.460000e-06	1.748898e-07	3.350644e-09	1.220705e+00	2.176640e+02
2.470000e-06	1.916773e-08	3.073894e-09	1.337879e-01	1.995280e+02
2.480000e-06	-1.365700e-07	2.784609e-09	-9.532384e-01	1.807094e+02
2.490000e-06	-2.922349e-07	2.482372e-09	-2.039757e+00	1.611192e+02
2.500000e-06	-4.477901e-07	2.163854e-09	-3.125509e+00	1.406616e+02
2.510000e-06	-6.032650e-07	1.835210e-09	-4.210702e+00	1.192443e+02
2.520000e-06	-7.586331e-07	1.499027e-09	-5.295148e+00	9.678953e+01
2.530000e-06	-9.138046e-07	1.149293e-09	-6.378222e+00	7.324647e+01
2.540000e-06	-1.068774e-06	7.790489e-10	-7.459885e+00	4.860184e+01
2.550000e-06	-1.223461e-06	3.892735e-10	-8.539582e+00	2.288898e+01
2.560000e-06	-1.377639e-06	-1.595263e-11	-9.615720e+00	-3.806681e+00
2.570000e-06	-1.531151e-06	-4.354586e-10	-1.068721e+01	-3.134629e+01
2.580000e-06	-1.683932e-06	-8.679524e-10	-1.175360e+01	-5.954085e+01
2.590000e-06	-1.836015e-06	-1.310927e-09	-1.281512e+01	-8.815899e+01
2.600000e-06	-1.987523e-06	-1.757971e-09	-1.387262e+01	-1.169386e+02
2.610000e-06	-2.138480e-06	-2.205796e-09	-1.492628e+01	-1.456017e+02
2.620000e-06	-2.288644e-06	-2.644239e-09	-1.597440e+01	-1.738702e+02
2.630000e-06	-2.437817e-06	-3.063950e-09	-1.701561e+01	-2.014825e+02
2.640000e-06	-2.586026e-06	-3.468152e-09	-1.805009e+01	-2.282081e+02
2.650000e-06	-2.733331e-06	-3.858599e-09	-1.907825e+01	-2.538595e+02
2.660000e-06	-2.879715e-06	-4.233778e-09	-2.009999e+01	-2.783002e+02
2.670000e-06	-3.024963e-06	-4.586689e-09	-2.111380e+01	-3.014484e+02
2.680000e-06	-3.168989e-06	-4.916089e-09	-2.211908e+01	-3.232759e+02
2.690000e-06	-3.311896e-06	-5.226448e-09	-2.311655e+01	-3.438027e+02
2.700000e-06	-3.453442e-06	-5.520474e-09	-2.410452e+01	-3.630887e+02
2.710000e-06	-3.593546e-06	-5.799933e-09	-2.508243e+01	-3.812225e+02
2.720000e-06	-3.732434e-06	-6.065210e-09	-2.605185e+01	-3.983097e+02
2.730000e-06	-3.869899e-06	-6.316307e-09	-2.701133e+01	-4.144612e+02
2.740000e-06	-4.005846e-06	-6.552516e-09	-2.796022e+01	-4.297828e+02
2.750000e-06	-4.140466e-06	-6.778775e-09	-2.889984e+01	-4.443679e+02
2.760000e-06	-4.273628e-06	-6.996501e-09	-2.982930e+01	-4.582920e+02
2.770000e-06	-4.405241e-06	-7.203465e-09	-3.074794e+01	-4.716109e+02
2.780000e-06	-4.535345e-06	-7.399725e-09	-3.165605e+01	-4.843618e+02
2.790000e-06	-4.663846e-06	-7.585682e-09	-3.255296e+01	-4.965657e+02
2.800000e-06	-4.790802e-06	-7.761031e-09	-3.343910e+01	-5.082327e+02
2.810000e-06	-4.916102e-06	-7.925637e-09	-3.431368e+01	-5.193664e+02
2.820000e-06	-5.039620e-06	-8.082945e-09	-3.517581e+01	-5.299696e+02
2.830000e-06	-5.161362e-06	-8.236432e-09	-3.602555e+01	-5.400476e+02
2.840000e-06	-5.281219e-06	-8.383512e-09	-3.686214e+01	-5.496119e+02
2.850000e-06	-5.399008e-06	-8.522014e-09	-3.768428e+01	-5.586805e+02
2.860000e-06	-5.514594e-06	-8.654373e-09	-3.849106e+01	-5.672785e+02
2.870000e-06	-5.627957e-06	-8.781683e-09	-3.928232e+01	-5.754357e+02
2.880000e-06	-5.739150e-06	-8.903914e-09	-4.005843e+01	-5.831850e+02
2.890000e-06	-5.848259e-06	-9.021083e-09	-4.081999e+01	-5.905594e+02
2.900000e-06	-5.955370e-06	-9.131504e-09	-4.156761e+01	-5.975896e+02
2.910000e-06	-6.060370e-06	-9.234397e-09	-4.230049e+01	-6.043021e+02
2.920000e-06	-6.163081e-06	-9.332121e-09	-4.301740e+01	-6.107184e+02
2.930000e-06	-6.263482e-06	-9.426534e-09	-4.371819e+01	-6.168547e+02
2.940000e-06	-6.361622e-06	-9.516328e-09	-4.440319e+01	-6.227228e+02
