# Temperatura_=_27.36
# Concentracion g/m^3_=_15000.0
# C_Vs_to_Am_M_A/Vsm_=_65563218390.804596
# pendiente_HvsI_1/m_=_3716.3
# ordenada_HvsI_A/m_=_1297.0
# frecuencia_Hz_=_302341.6138711151

Tiempo_(s)	Campo_(V.s)	Magnetizacion_(V.s)	Campo_(kA/m)	Magnetizacion_(A/m)
0.000000e+00	-8.178525e-06	-1.068978e-08	-5.691606e+01	-6.987651e+02
1.000000e-08	-8.175578e-06	-1.069663e-08	-5.689554e+01	-6.985173e+02
2.000000e-08	-8.170026e-06	-1.069037e-08	-5.685691e+01	-6.981467e+02
3.000000e-08	-8.161835e-06	-1.068220e-08	-5.679991e+01	-6.976632e+02
4.000000e-08	-8.150734e-06	-1.067349e-08	-5.672265e+01	-6.970794e+02
5.000000e-08	-8.136588e-06	-1.065869e-08	-5.662421e+01	-6.964094e+02
6.000000e-08	-8.119561e-06	-1.063896e-08	-5.650571e+01	-6.956670e+02
7.000000e-08	-8.100107e-06	-1.061414e-08	-5.637032e+01	-6.948650e+02
8.000000e-08	-8.078293e-06	-1.060186e-08	-5.621852e+01	-6.940137e+02
9.000000e-08	-8.053640e-06	-1.068752e-08	-5.604695e+01	-6.931201e+02
1.000000e-07	-8.025732e-06	-1.066318e-08	-5.585274e+01	-6.921878e+02
1.100000e-07	-7.994633e-06	-1.056916e-08	-5.563631e+01	-6.912163e+02
1.200000e-07	-7.960589e-06	-1.054830e-08	-5.539939e+01	-6.902020e+02
1.300000e-07	-7.923785e-06	-1.053333e-08	-5.514327e+01	-6.891380e+02
1.400000e-07	-7.884548e-06	-1.048716e-08	-5.487021e+01	-6.880152e+02
1.500000e-07	-7.842969e-06	-1.041503e-08	-5.458085e+01	-6.868231e+02
1.600000e-07	-7.798932e-06	-1.053457e-08	-5.427439e+01	-6.855499e+02
1.700000e-07	-7.752088e-06	-1.045307e-08	-5.394839e+01	-6.841835e+02
1.800000e-07	-7.702339e-06	-1.033449e-08	-5.360218e+01	-6.827119e+02
1.900000e-07	-7.649720e-06	-1.048604e-08	-5.323599e+01	-6.811236e+02
2.000000e-07	-7.594148e-06	-1.035842e-08	-5.284925e+01	-6.794080e+02
2.100000e-07	-7.535825e-06	-1.028485e-08	-5.244337e+01	-6.775553e+02
2.200000e-07	-7.474836e-06	-1.028909e-08	-5.201893e+01	-6.755577e+02
2.300000e-07	-7.411138e-06	-1.025066e-08	-5.157565e+01	-6.734088e+02
2.400000e-07	-7.344649e-06	-1.026346e-08	-5.111294e+01	-6.711044e+02
2.500000e-07	-7.275342e-06	-1.016625e-08	-5.063061e+01	-6.686430e+02
2.600000e-07	-7.203199e-06	-1.016520e-08	-5.012856e+01	-6.660255e+02
2.700000e-07	-7.128227e-06	-1.010333e-08	-4.960681e+01	-6.632557e+02
2.800000e-07	-7.050413e-06	-1.004508e-08	-4.906529e+01	-6.603395e+02
2.900000e-07	-6.969796e-06	-9.986413e-09	-4.850426e+01	-6.572850e+02
3.000000e-07	-6.886708e-06	-9.979034e-09	-4.792603e+01	-6.541012e+02
3.100000e-07	-6.801306e-06	-9.979145e-09	-4.733170e+01	-6.507974e+02
3.200000e-07	-6.713430e-06	-9.837124e-09	-4.672015e+01	-6.473818e+02
3.300000e-07	-6.623054e-06	-9.803457e-09	-4.609121e+01	-6.438604e+02
3.400000e-07	-6.530286e-06	-9.772034e-09	-4.544562e+01	-6.402363e+02
3.500000e-07	-6.435161e-06	-9.695287e-09	-4.478362e+01	-6.365088e+02
3.600000e-07	-6.337728e-06	-9.606214e-09	-4.410556e+01	-6.326732e+02
3.700000e-07	-6.238033e-06	-9.574195e-09	-4.341177e+01	-6.287211e+02
3.800000e-07	-6.136059e-06	-9.537448e-09	-4.270211e+01	-6.246412e+02
3.900000e-07	-6.031808e-06	-9.434775e-09	-4.197660e+01	-6.204202e+02
4.000000e-07	-5.925436e-06	-9.370876e-09	-4.123634e+01	-6.160442e+02
4.100000e-07	-5.817049e-06	-9.314245e-09	-4.048205e+01	-6.115002e+02
4.200000e-07	-5.706574e-06	-9.245770e-09	-3.971323e+01	-6.067775e+02
4.300000e-07	-5.593960e-06	-9.137652e-09	-3.892953e+01	-6.018682e+02
4.400000e-07	-5.479225e-06	-9.074247e-09	-3.813106e+01	-5.967680e+02
4.500000e-07	-5.362383e-06	-9.020812e-09	-3.731793e+01	-5.914760e+02
4.600000e-07	-5.243466e-06	-8.934713e-09	-3.649037e+01	-5.859940e+02
4.700000e-07	-5.122682e-06	-8.826622e-09	-3.564981e+01	-5.803251e+02
4.800000e-07	-5.000136e-06	-8.737746e-09	-3.479698e+01	-5.744727e+02
4.900000e-07	-4.875802e-06	-8.653619e-09	-3.393172e+01	-5.684386e+02
5.000000e-07	-4.749734e-06	-8.549718e-09	-3.305438e+01	-5.622217e+02
5.100000e-07	-4.621947e-06	-8.456131e-09	-3.216509e+01	-5.558174e+02
5.200000e-07	-4.492422e-06	-8.354302e-09	-3.126370e+01	-5.492167e+02
5.300000e-07	-4.361189e-06	-8.246661e-09	-3.035042e+01	-5.424071e+02
5.400000e-07	-4.228400e-06	-8.129256e-09	-2.942631e+01	-5.353730e+02
5.500000e-07	-4.094043e-06	-8.023560e-09	-2.849129e+01	-5.280976e+02
5.600000e-07	-3.958022e-06	-7.910547e-09	-2.754470e+01	-5.205644e+02
5.700000e-07	-3.820491e-06	-7.790821e-09	-2.658759e+01	-5.127589e+02
5.800000e-07	-3.681462e-06	-7.666139e-09	-2.562006e+01	-5.046701e+02
5.900000e-07	-3.540861e-06	-7.539544e-09	-2.464159e+01	-4.962913e+02
6.000000e-07	-3.398810e-06	-7.408090e-09	-2.365302e+01	-4.876204e+02
6.100000e-07	-3.255470e-06	-7.268960e-09	-2.265549e+01	-4.786588e+02
6.200000e-07	-3.110962e-06	-7.128271e-09	-2.164983e+01	-4.694105e+02
6.300000e-07	-2.965257e-06	-6.978056e-09	-2.063584e+01	-4.598798e+02
6.400000e-07	-2.818442e-06	-6.829885e-09	-1.961412e+01	-4.500690e+02
6.500000e-07	-2.670694e-06	-6.679559e-09	-1.858591e+01	-4.399765e+02
6.600000e-07	-2.522042e-06	-6.525302e-09	-1.755142e+01	-4.295949e+02
6.700000e-07	-2.372534e-06	-6.357833e-09	-1.651096e+01	-4.189101e+02
6.800000e-07	-2.222240e-06	-6.184089e-09	-1.546503e+01	-4.079016e+02
6.900000e-07	-2.071172e-06	-6.007186e-09	-1.441372e+01	-3.965434e+02
7.000000e-07	-1.919396e-06	-5.824191e-09	-1.335748e+01	-3.848060e+02
7.100000e-07	-1.766997e-06	-5.642211e-09	-1.229690e+01	-3.726592e+02
7.200000e-07	-1.613901e-06	-5.453159e-09	-1.123147e+01	-3.600750e+02
7.300000e-07	-1.460182e-06	-5.255591e-09	-1.016171e+01	-3.470300e+02
7.400000e-07	-1.306015e-06	-5.046212e-09	-9.088832e+00	-3.335076e+02
7.500000e-07	-1.151475e-06	-4.832235e-09	-8.013353e+00	-3.194989e+02
7.600000e-07	-9.965558e-07	-4.614126e-09	-6.935239e+00	-3.050017e+02
7.700000e-07	-8.412545e-07	-4.388069e-09	-5.854465e+00	-2.900188e+02
7.800000e-07	-6.856894e-07	-4.153299e-09	-4.771855e+00	-2.745543e+02
7.900000e-07	-5.298854e-07	-3.911741e-09	-3.687582e+00	-2.586099e+02
8.000000e-07	-3.738487e-07	-3.664874e-09	-2.601691e+00	-2.421800e+02
8.100000e-07	-2.176418e-07	-3.406297e-09	-1.514615e+00	-2.252477e+02
8.200000e-07	-6.130198e-08	-3.137577e-09	-4.266132e-01	-2.077819e+02
8.300000e-07	9.508757e-08	-2.859879e-09	6.617341e-01	-1.897361e+02
8.400000e-07	2.514787e-07	-2.572244e-09	1.750093e+00	-1.710495e+02
8.500000e-07	4.077950e-07	-2.272679e-09	2.837930e+00	-1.516506e+02
8.600000e-07	5.639824e-07	-1.963556e-09	3.924871e+00	-1.314636e+02
8.700000e-07	7.199907e-07	-1.643399e-09	5.010565e+00	-1.104156e+02
8.800000e-07	8.756827e-07	-1.309956e-09	6.094058e+00	-8.844703e+01
8.900000e-07	1.031081e-06	-9.628730e-10	7.175510e+00	-6.552039e+01
9.000000e-07	1.186148e-06	-6.030532e-10	8.254649e+00	-4.162988e+01
9.100000e-07	1.340787e-06	-2.295324e-10	9.330813e+00	-1.680840e+01
9.200000e-07	1.495037e-06	1.601109e-10	1.040427e+01	8.867873e+00
9.300000e-07	1.648811e-06	5.606686e-10	1.147442e+01	3.527822e+01
9.400000e-07	1.801920e-06	9.722978e-10	1.253994e+01	6.225997e+01
9.500000e-07	1.954348e-06	1.391002e-09	1.360071e+01	8.961470e+01
9.600000e-07	2.106111e-06	1.813266e-09	1.465686e+01	1.171177e+02
9.700000e-07	2.257043e-06	2.232916e-09	1.570723e+01	1.445297e+02
9.800000e-07	2.407057e-06	2.644877e-09	1.675121e+01	1.716104e+02
9.900000e-07	2.556167e-06	3.048649e-09	1.778890e+01	1.981316e+02
1.000000e-06	2.704279e-06	3.439777e-09	1.881964e+01	2.238899e+02
1.010000e-06	2.851349e-06	3.814482e-09	1.984313e+01	2.487163e+02
1.020000e-06	2.997412e-06	4.172650e-09	2.085961e+01	2.724838e+02
1.030000e-06	3.142402e-06	4.514627e-09	2.186863e+01	2.951107e+02
1.040000e-06	3.286243e-06	4.838808e-09	2.286965e+01	3.165601e+02
1.050000e-06	3.428816e-06	5.143235e-09	2.386185e+01	3.368366e+02
1.060000e-06	3.570054e-06	5.431350e-09	2.484475e+01	3.559797e+02
1.070000e-06	3.709847e-06	5.705534e-09	2.581760e+01	3.740549e+02
1.080000e-06	3.848169e-06	5.967112e-09	2.678021e+01	3.911441e+02
1.090000e-06	3.985075e-06	6.216389e-09	2.773297e+01	4.073365e+02
1.100000e-06	4.120480e-06	6.452952e-09	2.867528e+01	4.227194e+02
1.110000e-06	4.254438e-06	6.675242e-09	2.960752e+01	4.373719e+02
1.120000e-06	4.386951e-06	6.885814e-09	3.052970e+01	4.513599e+02
1.130000e-06	4.517881e-06	7.087572e-09	3.144087e+01	4.647341e+02
1.140000e-06	4.647188e-06	7.281211e-09	3.234074e+01	4.775303e+02
1.150000e-06	4.774852e-06	7.465521e-09	3.322919e+01	4.897707e+02
1.160000e-06	4.900873e-06	7.639631e-09	3.410619e+01	5.014681e+02
1.170000e-06	5.025281e-06	7.805701e-09	3.497198e+01	5.126294e+02
1.180000e-06	5.147929e-06	7.964550e-09	3.582551e+01	5.232597e+02
1.190000e-06	5.268694e-06	8.118160e-09	3.666594e+01	5.333659e+02
1.200000e-06	5.387562e-06	8.264605e-09	3.749316e+01	5.429591e+02
1.210000e-06	5.504421e-06	8.404275e-09	3.830641e+01	5.520562e+02
1.220000e-06	5.619160e-06	8.536553e-09	3.910490e+01	5.606796e+02
1.230000e-06	5.731712e-06	8.663170e-09	3.988817e+01	5.688565e+02
1.240000e-06	5.842101e-06	8.783022e-09	4.065639e+01	5.766174e+02
1.250000e-06	5.950448e-06	8.894954e-09	4.141040e+01	5.839934e+02
1.260000e-06	6.056678e-06	9.001032e-09	4.214968e+01	5.910148e+02
1.270000e-06	6.160620e-06	9.102703e-09	4.287303e+01	5.977090e+02
1.280000e-06	6.262292e-06	9.198816e-09	4.358059e+01	6.040993e+02
1.290000e-06	6.361720e-06	9.290431e-09	4.427253e+01	6.102049e+02
1.300000e-06	6.458741e-06	9.378464e-09	4.494772e+01	6.160406e+02
1.310000e-06	6.553342e-06	9.461593e-09	4.560607e+01	6.216181e+02
1.320000e-06	6.645673e-06	9.539627e-09	4.624862e+01	6.269469e+02
1.330000e-06	6.735618e-06	9.614047e-09	4.687457e+01	6.320353e+02
1.340000e-06	6.823077e-06	9.686518e-09	4.748321e+01	6.368919e+02
1.350000e-06	6.908177e-06	9.756647e-09	4.807544e+01	6.415258e+02
1.360000e-06	6.990932e-06	9.825480e-09	4.865135e+01	6.459472e+02
1.370000e-06	7.071174e-06	9.891606e-09	4.920977e+01	6.501665e+02
1.380000e-06	7.148815e-06	9.953940e-09	4.975009e+01	6.541940e+02
1.390000e-06	7.223754e-06	1.001246e-08	5.027161e+01	6.580390e+02
1.400000e-06	7.295971e-06	1.006715e-08	5.077418e+01	6.617085e+02
1.410000e-06	7.365640e-06	1.011855e-08	5.125902e+01	6.652066e+02
1.420000e-06	7.432728e-06	1.016698e-08	5.172590e+01	6.685343e+02
1.430000e-06	7.497080e-06	1.021292e-08	5.217373e+01	6.716890e+02
1.440000e-06	7.558819e-06	1.025603e-08	5.260339e+01	6.746658e+02
1.450000e-06	7.618021e-06	1.029737e-08	5.301539e+01	6.774583e+02
1.460000e-06	7.674561e-06	1.033501e-08	5.340886e+01	6.800597e+02
1.470000e-06	7.728381e-06	1.037024e-08	5.378341e+01	6.824648e+02
1.480000e-06	7.779093e-06	1.040578e-08	5.413632e+01	6.846710e+02
1.490000e-06	7.826577e-06	1.043809e-08	5.446678e+01	6.866796e+02
1.500000e-06	7.871297e-06	1.046434e-08	5.477799e+01	6.884958e+02
1.510000e-06	7.913225e-06	1.048544e-08	5.506978e+01	6.901293e+02
1.520000e-06	7.952203e-06	1.050428e-08	5.534103e+01	6.915931e+02
1.530000e-06	7.988454e-06	1.052305e-08	5.559331e+01	6.929024e+02
1.540000e-06	8.021930e-06	1.054070e-08	5.582628e+01	6.940733e+02
1.550000e-06	8.052544e-06	1.055645e-08	5.603932e+01	6.951208e+02
1.560000e-06	8.080347e-06	1.057120e-08	5.623281e+01	6.960573e+02
1.570000e-06	8.105157e-06	1.058578e-08	5.640547e+01	6.968919e+02
1.580000e-06	8.127014e-06	1.060044e-08	5.655758e+01	6.976290e+02
1.590000e-06	8.146122e-06	1.061221e-08	5.669055e+01	6.982689e+02
1.600000e-06	8.162251e-06	1.061964e-08	5.680280e+01	6.988079e+02
1.610000e-06	8.175196e-06	1.062394e-08	5.689289e+01	6.992394e+02
1.620000e-06	8.184998e-06	1.062633e-08	5.696110e+01	6.995557e+02
1.630000e-06	8.191746e-06	1.062810e-08	5.700806e+01	6.997491e+02
1.640000e-06	8.195603e-06	1.062995e-08	5.703491e+01	6.998139e+02
1.650000e-06	8.196551e-06	1.063416e-08	5.704150e+01	6.997469e+02
1.660000e-06	8.194708e-06	1.062611e-08	5.702868e+01	6.995493e+02
1.670000e-06	8.190216e-06	1.061798e-08	5.699741e+01	6.992257e+02
1.680000e-06	8.182930e-06	1.061677e-08	5.694671e+01	6.987850e+02
1.690000e-06	8.172850e-06	1.061178e-08	5.687656e+01	6.982389e+02
1.700000e-06	8.159940e-06	1.060464e-08	5.678672e+01	6.976008e+02
1.710000e-06	8.144186e-06	1.060434e-08	5.667708e+01	6.968850e+02
1.720000e-06	8.125909e-06	1.061526e-08	5.654989e+01	6.961049e+02
1.730000e-06	8.105246e-06	1.058861e-08	5.640609e+01	6.952718e+02
1.740000e-06	8.081733e-06	1.045799e-08	5.624246e+01	6.943940e+02
1.750000e-06	8.054681e-06	1.049534e-08	5.605419e+01	6.934766e+02
1.760000e-06	8.023865e-06	1.053663e-08	5.583974e+01	6.925206e+02
1.770000e-06	7.989918e-06	1.049356e-08	5.560350e+01	6.915236e+02
1.780000e-06	7.953671e-06	1.050143e-08	5.535125e+01	6.904799e+02
1.790000e-06	7.915120e-06	1.060458e-08	5.508296e+01	6.893812e+02
1.800000e-06	7.874381e-06	1.044928e-08	5.479945e+01	6.882176e+02
1.810000e-06	7.831533e-06	1.034876e-08	5.450126e+01	6.869775e+02
1.820000e-06	7.785922e-06	1.055739e-08	5.418385e+01	6.856489e+02
1.830000e-06	7.737507e-06	1.033939e-08	5.384692e+01	6.842199e+02
1.840000e-06	7.686152e-06	1.043262e-08	5.348953e+01	6.826786e+02
1.850000e-06	7.631643e-06	1.043714e-08	5.311019e+01	6.810140e+02
1.860000e-06	7.574364e-06	1.035101e-08	5.271157e+01	6.792161e+02
1.870000e-06	7.514331e-06	1.043208e-08	5.229379e+01	6.772761e+02
1.880000e-06	7.451651e-06	1.021465e-08	5.185759e+01	6.751871e+02
1.890000e-06	7.386208e-06	1.031320e-08	5.140216e+01	6.729439e+02
1.900000e-06	7.317767e-06	1.022980e-08	5.092586e+01	6.705441e+02
1.910000e-06	7.246416e-06	1.014610e-08	5.042931e+01	6.679875e+02
1.920000e-06	7.172197e-06	1.017819e-08	4.991281e+01	6.652767e+02
1.930000e-06	7.095249e-06	1.011323e-08	4.937731e+01	6.624170e+02
1.940000e-06	7.015599e-06	1.011903e-08	4.882301e+01	6.594156e+02
1.950000e-06	6.933360e-06	9.932380e-09	4.825069e+01	6.562813e+02
1.960000e-06	6.848557e-06	9.974648e-09	4.766053e+01	6.530234e+02
1.970000e-06	6.761149e-06	9.937395e-09	4.705224e+01	6.496507e+02
1.980000e-06	6.671265e-06	9.841362e-09	4.642672e+01	6.461701e+02
1.990000e-06	6.578973e-06	9.834866e-09	4.578444e+01	6.425861e+02
2.000000e-06	6.484394e-06	9.777665e-09	4.512625e+01	6.388994e+02
2.010000e-06	6.387592e-06	9.729697e-09	4.445258e+01	6.351069e+02
2.020000e-06	6.288551e-06	9.588220e-09	4.376333e+01	6.312016e+02
2.030000e-06	6.187201e-06	9.579630e-09	4.305802e+01	6.271732e+02
2.040000e-06	6.083541e-06	9.526931e-09	4.233662e+01	6.230091e+02
2.050000e-06	5.977740e-06	9.465789e-09	4.160033e+01	6.186955e+02
2.060000e-06	5.869907e-06	9.382527e-09	4.084990e+01	6.142188e+02
2.070000e-06	5.760044e-06	9.320660e-09	4.008534e+01	6.095672e+02
2.080000e-06	5.648116e-06	9.249115e-09	3.930641e+01	6.047317e+02
2.090000e-06	5.534037e-06	9.136107e-09	3.851251e+01	5.997067e+02
2.100000e-06	5.417782e-06	9.070965e-09	3.770347e+01	5.944898e+02
2.110000e-06	5.299545e-06	8.999951e-09	3.688063e+01	5.890819e+02
2.120000e-06	5.179375e-06	8.926200e-09	3.604435e+01	5.834858e+02
2.130000e-06	5.057317e-06	8.824183e-09	3.519492e+01	5.777050e+02
2.140000e-06	4.933418e-06	8.756354e-09	3.433268e+01	5.717420e+02
2.150000e-06	4.807707e-06	8.660246e-09	3.345783e+01	5.655972e+02
2.160000e-06	4.680307e-06	8.558626e-09	3.257123e+01	5.592671e+02
2.170000e-06	4.551190e-06	8.449452e-09	3.167267e+01	5.527447e+02
2.180000e-06	4.420358e-06	8.351925e-09	3.076219e+01	5.460187e+02
2.190000e-06	4.287884e-06	8.247413e-09	2.984028e+01	5.390746e+02
2.200000e-06	4.153905e-06	8.137378e-09	2.890789e+01	5.318959e+02
2.210000e-06	4.018429e-06	8.025751e-09	2.796508e+01	5.244657e+02
2.220000e-06	3.881307e-06	7.905041e-09	2.701082e+01	5.167685e+02
2.230000e-06	3.742494e-06	7.783820e-09	2.604479e+01	5.087919e+02
2.240000e-06	3.602272e-06	7.658904e-09	2.506896e+01	5.005273e+02
2.250000e-06	3.460793e-06	7.538177e-09	2.408438e+01	4.919710e+02
2.260000e-06	3.317984e-06	7.404600e-09	2.309054e+01	4.831230e+02
2.270000e-06	3.173900e-06	7.267784e-09	2.208783e+01	4.739867e+02
2.280000e-06	3.028620e-06	7.118567e-09	2.107680e+01	4.645663e+02
2.290000e-06	2.882191e-06	6.966038e-09	2.005776e+01	4.548653e+02
2.300000e-06	2.734695e-06	6.811677e-09	1.903131e+01	4.448839e+02
2.310000e-06	2.586318e-06	6.661875e-09	1.799872e+01	4.346169e+02
2.320000e-06	2.437002e-06	6.507490e-09	1.695960e+01	4.240531e+02
2.330000e-06	2.286801e-06	6.342368e-09	1.591432e+01	4.131745e+02
2.340000e-06	2.135975e-06	6.171746e-09	1.486469e+01	4.019569e+02
2.350000e-06	1.984523e-06	5.994944e-09	1.381071e+01	3.903719e+02
2.360000e-06	1.832392e-06	5.807583e-09	1.275200e+01	3.783893e+02
2.370000e-06	1.679634e-06	5.613262e-09	1.168892e+01	3.659798e+02
2.380000e-06	1.526306e-06	5.415363e-09	1.062188e+01	3.531181e+02
2.390000e-06	1.372447e-06	5.214266e-09	9.551144e+00	3.397846e+02
2.400000e-06	1.218139e-06	5.006152e-09	8.477283e+00	3.259674e+02
2.410000e-06	1.063379e-06	4.788570e-09	7.400276e+00	3.116618e+02
2.420000e-06	9.081620e-07	4.565707e-09	6.320088e+00	2.968690e+02
2.430000e-06	7.525762e-07	4.334271e-09	5.237334e+00	2.815931e+02
2.440000e-06	5.967133e-07	4.094298e-09	4.152652e+00	2.658372e+02
2.450000e-06	4.406773e-07	3.847388e-09	3.066765e+00	2.495992e+02
2.460000e-06	2.845271e-07	3.594834e-09	1.980083e+00	2.328669e+02
2.470000e-06	1.282411e-07	3.329877e-09	8.924564e-01	2.156152e+02
2.480000e-06	-2.813470e-08	3.051483e-09	-1.957952e-01	1.978036e+02
2.490000e-06	-1.845052e-07	2.764610e-09	-1.284010e+00	1.793766e+02
2.500000e-06	-3.408062e-07	2.468820e-09	-2.371741e+00	1.602664e+02
2.510000e-06	-4.969950e-07	2.163384e-09	-3.458691e+00	1.403979e+02
2.520000e-06	-6.530381e-07	1.849111e-09	-4.544628e+00	1.196961e+02
2.530000e-06	-8.089112e-07	1.526023e-09	-5.629381e+00	9.809488e+01
2.540000e-06	-9.645709e-07	1.187127e-09	-6.712649e+00	7.554706e+01
2.550000e-06	-1.119894e-06	8.306147e-10	-7.793577e+00	5.203340e+01
2.560000e-06	-1.274768e-06	4.596247e-10	-8.871378e+00	2.757086e+01
2.570000e-06	-1.429091e-06	7.435215e-11	-9.945338e+00	2.218275e+00
2.580000e-06	-1.582882e-06	-3.267646e-10	-1.101561e+01	-2.392103e+01
2.590000e-06	-1.736110e-06	-7.399049e-10	-1.208195e+01	-5.070034e+01
2.600000e-06	-1.888612e-06	-1.159907e-09	-1.314324e+01	-7.793430e+01
2.610000e-06	-2.040336e-06	-1.583758e-09	-1.419912e+01	-1.054072e+02
2.620000e-06	-2.191313e-06	-2.007376e-09	-1.524980e+01	-1.328840e+02
2.630000e-06	-2.341470e-06	-2.426544e-09	-1.629478e+01	-1.601232e+02
2.640000e-06	-2.490733e-06	-2.836538e-09	-1.733353e+01	-1.868903e+02
2.650000e-06	-2.639172e-06	-3.235410e-09	-1.836655e+01	-2.129708e+02
2.660000e-06	-2.786646e-06	-3.620224e-09	-1.939284e+01	-2.381810e+02
2.670000e-06	-2.933030e-06	-3.989279e-09	-2.041157e+01	-2.623770e+02
2.680000e-06	-3.078340e-06	-4.341924e-09	-2.142281e+01	-2.854590e+02
2.690000e-06	-3.222415e-06	-4.675838e-09	-2.242545e+01	-3.073727e+02
2.700000e-06	-3.365239e-06	-4.991080e-09	-2.341940e+01	-3.281073e+02
2.710000e-06	-3.506816e-06	-5.288934e-09	-2.440466e+01	-3.476893e+02
2.720000e-06	-3.647048e-06	-5.573205e-09	-2.538056e+01	-3.661751e+02
2.730000e-06	-3.785928e-06	-5.843601e-09	-2.634706e+01	-3.836413e+02
2.740000e-06	-3.923435e-06	-6.098404e-09	-2.730400e+01	-4.001755e+02
2.750000e-06	-4.059428e-06	-6.340612e-09	-2.825040e+01	-4.158666e+02
2.760000e-06	-4.193915e-06	-6.572381e-09	-2.918632e+01	-4.307976e+02
2.770000e-06	-4.326963e-06	-6.793855e-09	-3.011223e+01	-4.450399e+02
2.780000e-06	-4.458487e-06	-7.004964e-09	-3.102754e+01	-4.586503e+02
2.790000e-06	-4.588512e-06	-7.207159e-09	-3.193241e+01	-4.716704e+02
2.800000e-06	-4.716932e-06	-7.399327e-09	-3.282611e+01	-4.841274e+02
2.810000e-06	-4.843655e-06	-7.580742e-09	-3.370800e+01	-4.960373e+02
2.820000e-06	-4.968737e-06	-7.752842e-09	-3.457847e+01	-5.074087e+02
2.830000e-06	-5.092096e-06	-7.916176e-09	-3.543695e+01	-5.182471e+02
2.840000e-06	-5.213655e-06	-8.071300e-09	-3.628291e+01	-5.285583e+02
2.850000e-06	-5.333283e-06	-8.220346e-09	-3.711543e+01	-5.383516e+02
2.860000e-06	-5.450798e-06	-8.362873e-09	-3.793324e+01	-5.476413e+02
2.870000e-06	-5.566072e-06	-8.498012e-09	-3.873545e+01	-5.564480e+02
2.880000e-06	-5.679084e-06	-8.625365e-09	-3.952192e+01	-5.647970e+02
2.890000e-06	-5.789881e-06	-8.746962e-09	-4.029298e+01	-5.727178e+02
2.900000e-06	-5.898594e-06	-8.865865e-09	-4.104954e+01	-5.802415e+02
2.910000e-06	-6.005345e-06	-8.980015e-09	-4.179244e+01	-5.873989e+02
2.920000e-06	-6.110004e-06	-9.087303e-09	-4.252079e+01	-5.942188e+02
2.930000e-06	-6.212354e-06	-9.187781e-09	-4.323306e+01	-6.007261e+02
2.940000e-06	-6.312350e-06	-9.282468e-09	-4.392896e+01	-6.069417e+02
