# Temperatura_=_41.11
# Concentracion g/m^3_=_15000.0
# C_Vs_to_Am_M_A/Vsm_=_65563218390.804596
# pendiente_HvsI_1/m_=_3716.3
# ordenada_HvsI_A/m_=_1297.0
# frecuencia_Hz_=_302338.9998212958

Tiempo_(s)	Campo_(V.s)	Magnetizacion_(V.s)	Campo_(kA/m)	Magnetizacion_(A/m)
0.000000e+00	-8.171101e-06	-1.074970e-08	-5.691901e+01	-7.027848e+02
1.000000e-08	-8.168451e-06	-1.075641e-08	-5.690055e+01	-7.025575e+02
2.000000e-08	-8.163073e-06	-1.075094e-08	-5.686308e+01	-7.022140e+02
3.000000e-08	-8.155024e-06	-1.074374e-08	-5.680701e+01	-7.017652e+02
4.000000e-08	-8.144121e-06	-1.073686e-08	-5.673107e+01	-7.012229e+02
5.000000e-08	-8.130236e-06	-1.072364e-08	-5.663434e+01	-7.005991e+02
6.000000e-08	-8.113521e-06	-1.070453e-08	-5.651791e+01	-6.999038e+02
7.000000e-08	-8.094371e-06	-1.068082e-08	-5.638452e+01	-6.991450e+02
8.000000e-08	-8.072883e-06	-1.066098e-08	-5.623483e+01	-6.983273e+02
9.000000e-08	-8.048514e-06	-1.074140e-08	-5.606508e+01	-6.974527e+02
1.000000e-07	-8.020856e-06	-1.073038e-08	-5.587242e+01	-6.965201e+02
1.100000e-07	-7.990076e-06	-1.064010e-08	-5.565800e+01	-6.955266e+02
1.200000e-07	-7.956304e-06	-1.061743e-08	-5.542276e+01	-6.944677e+02
1.300000e-07	-7.919700e-06	-1.060211e-08	-5.516778e+01	-6.933384e+02
1.400000e-07	-7.880683e-06	-1.055729e-08	-5.489599e+01	-6.921336e+02
1.500000e-07	-7.839340e-06	-1.047955e-08	-5.460800e+01	-6.908480e+02
1.600000e-07	-7.795531e-06	-1.057239e-08	-5.430282e+01	-6.894766e+02
1.700000e-07	-7.748983e-06	-1.051638e-08	-5.397858e+01	-6.880142e+02
1.800000e-07	-7.699540e-06	-1.037545e-08	-5.363416e+01	-6.864549e+02
1.900000e-07	-7.647279e-06	-1.051525e-08	-5.327012e+01	-6.847919e+02
2.000000e-07	-7.592077e-06	-1.043450e-08	-5.288558e+01	-6.830172e+02
2.100000e-07	-7.534009e-06	-1.035969e-08	-5.248109e+01	-6.811216e+02
2.200000e-07	-7.473316e-06	-1.037995e-08	-5.205831e+01	-6.790952e+02
2.300000e-07	-7.409956e-06	-1.032745e-08	-5.161695e+01	-6.769280e+02
2.400000e-07	-7.343783e-06	-1.031205e-08	-5.115600e+01	-6.746109e+02
2.500000e-07	-7.274863e-06	-1.020371e-08	-5.067591e+01	-6.721365e+02
2.600000e-07	-7.203140e-06	-1.022364e-08	-5.017629e+01	-6.695006e+02
2.700000e-07	-7.128517e-06	-1.017092e-08	-4.965648e+01	-6.667024e+02
2.800000e-07	-7.050963e-06	-1.009039e-08	-4.911625e+01	-6.637450e+02
2.900000e-07	-6.970581e-06	-1.003590e-08	-4.855632e+01	-6.606352e+02
3.000000e-07	-6.887783e-06	-1.001541e-08	-4.797955e+01	-6.573828e+02
3.100000e-07	-6.802680e-06	-1.000981e-08	-4.738674e+01	-6.539989e+02
3.200000e-07	-6.715099e-06	-9.891232e-09	-4.677665e+01	-6.504946e+02
3.300000e-07	-6.625022e-06	-9.867074e-09	-4.614919e+01	-6.468796e+02
3.400000e-07	-6.532583e-06	-9.827681e-09	-4.550527e+01	-6.431601e+02
3.500000e-07	-6.437812e-06	-9.750450e-09	-4.484510e+01	-6.393378e+02
3.600000e-07	-6.340650e-06	-9.665108e-09	-4.416828e+01	-6.354096e+02
3.700000e-07	-6.241196e-06	-9.619710e-09	-4.347550e+01	-6.313674e+02
3.800000e-07	-6.139515e-06	-9.575994e-09	-4.276720e+01	-6.271991e+02
3.900000e-07	-6.035561e-06	-9.476324e-09	-4.204306e+01	-6.228901e+02
4.000000e-07	-5.929431e-06	-9.412300e-09	-4.130377e+01	-6.184249e+02
4.100000e-07	-5.821287e-06	-9.352765e-09	-4.055046e+01	-6.137889e+02
4.200000e-07	-5.711136e-06	-9.284839e-09	-3.978316e+01	-6.089705e+02
4.300000e-07	-5.598830e-06	-9.180574e-09	-3.900084e+01	-6.039620e+02
4.400000e-07	-5.484270e-06	-9.104799e-09	-3.820283e+01	-5.987604e+02
4.500000e-07	-5.367611e-06	-9.036916e-09	-3.739020e+01	-5.933666e+02
4.600000e-07	-5.249003e-06	-8.956173e-09	-3.656399e+01	-5.877850e+02
4.700000e-07	-5.128533e-06	-8.862135e-09	-3.572480e+01	-5.820218e+02
4.800000e-07	-5.006269e-06	-8.775070e-09	-3.487313e+01	-5.760825e+02
4.900000e-07	-4.882201e-06	-8.687205e-09	-3.400888e+01	-5.699706e+02
5.000000e-07	-4.756365e-06	-8.579146e-09	-3.313232e+01	-5.636855e+02
5.100000e-07	-4.628819e-06	-8.475275e-09	-3.224385e+01	-5.572215e+02
5.200000e-07	-4.499614e-06	-8.371436e-09	-3.134382e+01	-5.505676e+02
5.300000e-07	-4.368673e-06	-8.271463e-09	-3.043170e+01	-5.437082e+02
5.400000e-07	-4.236095e-06	-8.154808e-09	-2.950818e+01	-5.366246e+02
5.500000e-07	-4.102072e-06	-8.041862e-09	-2.857459e+01	-5.292967e+02
5.600000e-07	-3.966427e-06	-7.927461e-09	-2.762970e+01	-5.217057e+02
5.700000e-07	-3.829188e-06	-7.810597e-09	-2.667371e+01	-5.138363e+02
5.800000e-07	-3.690438e-06	-7.684176e-09	-2.570720e+01	-5.056781e+02
5.900000e-07	-3.550037e-06	-7.557608e-09	-2.472918e+01	-4.972265e+02
6.000000e-07	-3.408101e-06	-7.429541e-09	-2.374046e+01	-4.884827e+02
6.100000e-07	-3.264888e-06	-7.289879e-09	-2.274286e+01	-4.794524e+02
6.200000e-07	-3.120466e-06	-7.144386e-09	-2.173683e+01	-4.701434e+02
6.300000e-07	-2.974888e-06	-6.993033e-09	-2.072275e+01	-4.605630e+02
6.400000e-07	-2.828276e-06	-6.842877e-09	-1.970147e+01	-4.507151e+02
6.500000e-07	-2.680668e-06	-6.683596e-09	-1.867324e+01	-4.405975e+02
6.600000e-07	-2.532190e-06	-6.523535e-09	-1.763896e+01	-4.301998e+02
6.700000e-07	-2.382895e-06	-6.361086e-09	-1.659899e+01	-4.195033e+02
6.800000e-07	-2.232803e-06	-6.195441e-09	-1.555347e+01	-4.084809e+02
6.900000e-07	-2.081954e-06	-6.021314e-09	-1.450267e+01	-3.970993e+02
7.000000e-07	-1.930321e-06	-5.837739e-09	-1.344641e+01	-3.853224e+02
7.100000e-07	-1.778004e-06	-5.651064e-09	-1.238538e+01	-3.731141e+02
7.200000e-07	-1.625134e-06	-5.456163e-09	-1.132050e+01	-3.604429e+02
7.300000e-07	-1.471764e-06	-5.256879e-09	-1.025215e+01	-3.472843e+02
7.400000e-07	-1.317909e-06	-5.048636e-09	-9.180409e+00	-3.336233e+02
7.500000e-07	-1.163564e-06	-4.834567e-09	-8.105259e+00	-3.194542e+02
7.600000e-07	-1.008714e-06	-4.613985e-09	-7.026594e+00	-3.047792e+02
7.700000e-07	-8.534942e-07	-4.385590e-09	-5.945348e+00	-2.896054e+02
7.800000e-07	-6.979762e-07	-4.148006e-09	-4.862027e+00	-2.739395e+02
7.900000e-07	-5.421936e-07	-3.903347e-09	-3.776862e+00	-2.577822e+02
8.000000e-07	-3.862568e-07	-3.652741e-09	-2.690623e+00	-2.411229e+02
8.100000e-07	-2.301824e-07	-3.389911e-09	-1.603426e+00	-2.239348e+02
8.200000e-07	-7.402836e-08	-3.115019e-09	-5.156735e-01	-2.061719e+02
8.300000e-07	8.218437e-08	-2.829523e-09	5.724874e-01	-1.877694e+02
8.400000e-07	2.384217e-07	-2.533379e-09	1.660820e+00	-1.686456e+02
8.500000e-07	3.945888e-07	-2.223081e-09	2.748663e+00	-1.487085e+02
8.600000e-07	5.506356e-07	-1.902267e-09	3.835668e+00	-1.278642e+02
8.700000e-07	7.065019e-07	-1.572401e-09	4.921416e+00	-1.060279e+02
8.800000e-07	8.621762e-07	-1.230794e-09	6.005826e+00	-8.313563e+01
8.900000e-07	1.017577e-06	-8.704607e-10	7.088332e+00	-5.915569e+01
9.000000e-07	1.172627e-06	-4.919811e-10	8.168393e+00	-3.409887e+01
9.100000e-07	1.327287e-06	-9.691054e-11	9.245740e+00	-8.025508e+00
9.200000e-07	1.481443e-06	3.152581e-10	1.031957e+01	1.895124e+01
9.300000e-07	1.635012e-06	7.382086e-10	1.138932e+01	4.666647e+01
9.400000e-07	1.788007e-06	1.170451e-09	1.245506e+01	7.490932e+01
9.500000e-07	1.940405e-06	1.606687e-09	1.351665e+01	1.034329e+02
9.600000e-07	2.092080e-06	2.044014e-09	1.457320e+01	1.319677e+02
9.700000e-07	2.242886e-06	2.475081e-09	1.562370e+01	1.602369e+02
9.800000e-07	2.392754e-06	2.893908e-09	1.666767e+01	1.879732e+02
9.900000e-07	2.541725e-06	3.301191e-09	1.770538e+01	2.149334e+02
1.000000e-06	2.689751e-06	3.694973e-09	1.873652e+01	2.409124e+02
1.010000e-06	2.836803e-06	4.071057e-09	1.976086e+01	2.657523e+02
1.020000e-06	2.982880e-06	4.427232e-09	2.077842e+01	2.893483e+02
1.030000e-06	3.127863e-06	4.763947e-09	2.178836e+01	3.116492e+02
1.040000e-06	3.271631e-06	5.081086e-09	2.278983e+01	3.326544e+02
1.050000e-06	3.414119e-06	5.378662e-09	2.378239e+01	3.524062e+02
1.060000e-06	3.555309e-06	5.658845e-09	2.476590e+01	3.709802e+02
1.070000e-06	3.695062e-06	5.924085e-09	2.573940e+01	3.884735e+02
1.080000e-06	3.833349e-06	6.176241e-09	2.670269e+01	4.049933e+02
1.090000e-06	3.970284e-06	6.417073e-09	2.765657e+01	4.206456e+02
1.100000e-06	4.105774e-06	6.648458e-09	2.860038e+01	4.355271e+02
1.110000e-06	4.239740e-06	6.866707e-09	2.953357e+01	4.497184e+02
1.120000e-06	4.372202e-06	7.071949e-09	3.045629e+01	4.632817e+02
1.130000e-06	4.503094e-06	7.266377e-09	3.136806e+01	4.762597e+02
1.140000e-06	4.632412e-06	7.452492e-09	3.226888e+01	4.886783e+02
1.150000e-06	4.760137e-06	7.629451e-09	3.315860e+01	5.005507e+02
1.160000e-06	4.886211e-06	7.796508e-09	3.403682e+01	5.118821e+02
1.170000e-06	5.010650e-06	7.955661e-09	3.490364e+01	5.226748e+02
1.180000e-06	5.133348e-06	8.109174e-09	3.575835e+01	5.329327e+02
1.190000e-06	5.254183e-06	8.260641e-09	3.660007e+01	5.426651e+02
1.200000e-06	5.373067e-06	8.406291e-09	3.742820e+01	5.518876e+02
1.210000e-06	5.489984e-06	8.542655e-09	3.824264e+01	5.606232e+02
1.220000e-06	5.604819e-06	8.668954e-09	3.904256e+01	5.689007e+02
1.230000e-06	5.717427e-06	8.790204e-09	3.982698e+01	5.767530e+02
1.240000e-06	5.827868e-06	8.905288e-09	4.059630e+01	5.842142e+02
1.250000e-06	5.936256e-06	9.011600e-09	4.135131e+01	5.913172e+02
1.260000e-06	6.042572e-06	9.111795e-09	4.209191e+01	5.980913e+02
1.270000e-06	6.146674e-06	9.209333e-09	4.281706e+01	6.045612e+02
1.280000e-06	6.248495e-06	9.302932e-09	4.352634e+01	6.107462e+02
1.290000e-06	6.348025e-06	9.391836e-09	4.421965e+01	6.166608e+02
1.300000e-06	6.445207e-06	9.476471e-09	4.489661e+01	6.223155e+02
1.310000e-06	6.539942e-06	9.557300e-09	4.555653e+01	6.277187e+02
1.320000e-06	6.632309e-06	9.634351e-09	4.619995e+01	6.328783e+02
1.330000e-06	6.722349e-06	9.707317e-09	4.682716e+01	6.378028e+02
1.340000e-06	6.809946e-06	9.778614e-09	4.743735e+01	6.425024e+02
1.350000e-06	6.895209e-06	9.845677e-09	4.803128e+01	6.469890e+02
1.360000e-06	6.978113e-06	9.909320e-09	4.860878e+01	6.512758e+02
1.370000e-06	7.058395e-06	9.972171e-09	4.916801e+01	6.553762e+02
1.380000e-06	7.136056e-06	1.003306e-08	4.970900e+01	6.593023e+02
1.390000e-06	7.211129e-06	1.009185e-08	5.023194e+01	6.630637e+02
1.400000e-06	7.283513e-06	1.014679e-08	5.073616e+01	6.666658e+02
1.410000e-06	7.353298e-06	1.020003e-08	5.122228e+01	6.701094e+02
1.420000e-06	7.420490e-06	1.024943e-08	5.169033e+01	6.733908e+02
1.430000e-06	7.484993e-06	1.029464e-08	5.213965e+01	6.765022e+02
1.440000e-06	7.546913e-06	1.033657e-08	5.257098e+01	6.794332e+02
1.450000e-06	7.606296e-06	1.037512e-08	5.298464e+01	6.821730e+02
1.460000e-06	7.662959e-06	1.041010e-08	5.337935e+01	6.847117e+02
1.470000e-06	7.716823e-06	1.044143e-08	5.375456e+01	6.870430e+02
1.480000e-06	7.767686e-06	1.047282e-08	5.410886e+01	6.891651e+02
1.490000e-06	7.815378e-06	1.050260e-08	5.444108e+01	6.910823e+02
1.500000e-06	7.860229e-06	1.052822e-08	5.475350e+01	6.928041e+02
1.510000e-06	7.902298e-06	1.055120e-08	5.504656e+01	6.943455e+02
1.520000e-06	7.941475e-06	1.057401e-08	5.531945e+01	6.957245e+02
1.530000e-06	7.977941e-06	1.059525e-08	5.557347e+01	6.969609e+02
1.540000e-06	8.011620e-06	1.061333e-08	5.580808e+01	6.980741e+02
1.550000e-06	8.042395e-06	1.062793e-08	5.602245e+01	6.990805e+02
1.560000e-06	8.070399e-06	1.063849e-08	5.621753e+01	6.999924e+02
1.570000e-06	8.095471e-06	1.064760e-08	5.639217e+01	7.008168e+02
1.580000e-06	8.117549e-06	1.065831e-08	5.654597e+01	7.015552e+02
1.590000e-06	8.136845e-06	1.066943e-08	5.668039e+01	7.022041e+02
1.600000e-06	8.153196e-06	1.067759e-08	5.679428e+01	7.027562e+02
1.610000e-06	8.166427e-06	1.068406e-08	5.688645e+01	7.032021e+02
1.620000e-06	8.176486e-06	1.069119e-08	5.695652e+01	7.035323e+02
1.630000e-06	8.183421e-06	1.069649e-08	5.700482e+01	7.037386e+02
1.640000e-06	8.187478e-06	1.069836e-08	5.703308e+01	7.038161e+02
1.650000e-06	8.188686e-06	1.069953e-08	5.704150e+01	7.037636e+02
1.660000e-06	8.187060e-06	1.069001e-08	5.703018e+01	7.035843e+02
1.670000e-06	8.182773e-06	1.068011e-08	5.700031e+01	7.032851e+02
1.680000e-06	8.175705e-06	1.067888e-08	5.695107e+01	7.028761e+02
1.690000e-06	8.165890e-06	1.067482e-08	5.688271e+01	7.023689e+02
1.700000e-06	8.153307e-06	1.066784e-08	5.679505e+01	7.017756e+02
1.710000e-06	8.137855e-06	1.066685e-08	5.668742e+01	7.011072e+02
1.720000e-06	8.119843e-06	1.067674e-08	5.656195e+01	7.003724e+02
1.730000e-06	8.099475e-06	1.066218e-08	5.642007e+01	6.995774e+02
1.740000e-06	8.076312e-06	1.053403e-08	5.625872e+01	6.987249e+02
1.750000e-06	8.049601e-06	1.056100e-08	5.607265e+01	6.978152e+02
1.760000e-06	8.019068e-06	1.060030e-08	5.585996e+01	6.968459e+02
1.770000e-06	7.985341e-06	1.055319e-08	5.562502e+01	6.958132e+02
1.780000e-06	7.949311e-06	1.055297e-08	5.537404e+01	6.947120e+02
1.790000e-06	7.910998e-06	1.065124e-08	5.510716e+01	6.935373e+02
1.800000e-06	7.870517e-06	1.053319e-08	5.482517e+01	6.922839e+02
1.810000e-06	7.827990e-06	1.041771e-08	5.452893e+01	6.909467e+02
1.820000e-06	7.782698e-06	1.062260e-08	5.421343e+01	6.895205e+02
1.830000e-06	7.734577e-06	1.043331e-08	5.387823e+01	6.879999e+02
1.840000e-06	7.683608e-06	1.049148e-08	5.352319e+01	6.863784e+02
1.850000e-06	7.629461e-06	1.048724e-08	5.314600e+01	6.846484e+02
1.860000e-06	7.572520e-06	1.036365e-08	5.274936e+01	6.828013e+02
1.870000e-06	7.512847e-06	1.044219e-08	5.233368e+01	6.808274e+02
1.880000e-06	7.450411e-06	1.025404e-08	5.189876e+01	6.787165e+02
1.890000e-06	7.385224e-06	1.037742e-08	5.144467e+01	6.764591e+02
1.900000e-06	7.317074e-06	1.030751e-08	5.096995e+01	6.740471e+02
1.910000e-06	7.246028e-06	1.018818e-08	5.047505e+01	6.714748e+02
1.920000e-06	7.172154e-06	1.022845e-08	4.996045e+01	6.687400e+02
1.930000e-06	7.095507e-06	1.014593e-08	4.942654e+01	6.658444e+02
1.940000e-06	7.016080e-06	1.017123e-08	4.887326e+01	6.627933e+02
1.950000e-06	6.934076e-06	1.001912e-08	4.830202e+01	6.595955e+02
1.960000e-06	6.849629e-06	1.003580e-08	4.771378e+01	6.562617e+02
1.970000e-06	6.762540e-06	9.977270e-09	4.710712e+01	6.528033e+02
1.980000e-06	6.672941e-06	9.859702e-09	4.648299e+01	6.492307e+02
1.990000e-06	6.580993e-06	9.860356e-09	4.584249e+01	6.455516e+02
2.000000e-06	6.486715e-06	9.806274e-09	4.518576e+01	6.417696e+02
2.010000e-06	6.390090e-06	9.776961e-09	4.451268e+01	6.378836e+02
2.020000e-06	6.291265e-06	9.639699e-09	4.382427e+01	6.338873e+02
2.030000e-06	6.190146e-06	9.617868e-09	4.311989e+01	6.297700e+02
2.040000e-06	6.086690e-06	9.554956e-09	4.239923e+01	6.255180e+02
2.050000e-06	5.981177e-06	9.489796e-09	4.166423e+01	6.211158e+02
2.060000e-06	5.873666e-06	9.409567e-09	4.091532e+01	6.165483e+02
2.070000e-06	5.764151e-06	9.339049e-09	4.015245e+01	6.118026e+02
2.080000e-06	5.652569e-06	9.275518e-09	3.937519e+01	6.068693e+02
2.090000e-06	5.538907e-06	9.172247e-09	3.858343e+01	6.017435e+02
2.100000e-06	5.423027e-06	9.111394e-09	3.777622e+01	5.964246e+02
2.110000e-06	5.305014e-06	9.030646e-09	3.695416e+01	5.909160e+02
2.120000e-06	5.185003e-06	8.951112e-09	3.611817e+01	5.852232e+02
2.130000e-06	5.063105e-06	8.836772e-09	3.526904e+01	5.793524e+02
2.140000e-06	4.939397e-06	8.762274e-09	3.440731e+01	5.733080e+02
2.150000e-06	4.813868e-06	8.678884e-09	3.353288e+01	5.670912e+02
2.160000e-06	4.686582e-06	8.590734e-09	3.264622e+01	5.606983e+02
2.170000e-06	4.557592e-06	8.477663e-09	3.174769e+01	5.541205e+02
2.180000e-06	4.427016e-06	8.366450e-09	3.083811e+01	5.473438e+02
2.190000e-06	4.294788e-06	8.259353e-09	2.991703e+01	5.403505e+02
2.200000e-06	4.160979e-06	8.147819e-09	2.898493e+01	5.331207e+02
2.210000e-06	4.025623e-06	8.039111e-09	2.804205e+01	5.256350e+02
2.220000e-06	3.888741e-06	7.921714e-09	2.708855e+01	5.178764e+02
2.230000e-06	3.750334e-06	7.800728e-09	2.612442e+01	5.098324e+02
2.240000e-06	3.610380e-06	7.666859e-09	2.514952e+01	5.014960e+02
2.250000e-06	3.469013e-06	7.540135e-09	2.416477e+01	4.928664e+02
2.260000e-06	3.326362e-06	7.410508e-09	2.317108e+01	4.839477e+02
2.270000e-06	3.182452e-06	7.276964e-09	2.216862e+01	4.747470e+02
2.280000e-06	3.037293e-06	7.127611e-09	2.115745e+01	4.652724e+02
2.290000e-06	2.891047e-06	6.978098e-09	2.013872e+01	4.555293e+02
2.300000e-06	2.743823e-06	6.829076e-09	1.911317e+01	4.455182e+02
2.310000e-06	2.595643e-06	6.678322e-09	1.808097e+01	4.352322e+02
2.320000e-06	2.446571e-06	6.519054e-09	1.704255e+01	4.246557e+02
2.330000e-06	2.296722e-06	6.349736e-09	1.599871e+01	4.137649e+02
2.340000e-06	2.146100e-06	6.173593e-09	1.494950e+01	4.025285e+02
2.350000e-06	1.994719e-06	5.994549e-09	1.389500e+01	3.909111e+02
2.360000e-06	1.842615e-06	5.812030e-09	1.283546e+01	3.788762e+02
2.370000e-06	1.689935e-06	5.623307e-09	1.177191e+01	3.663901e+02
2.380000e-06	1.536806e-06	5.423241e-09	1.070523e+01	3.534252e+02
2.390000e-06	1.383222e-06	5.215094e-09	9.635373e+00	3.399626e+02
2.400000e-06	1.229157e-06	5.001875e-09	8.562174e+00	3.259930e+02
2.410000e-06	1.074662e-06	4.782790e-09	7.485978e+00	3.115160e+02
2.420000e-06	9.198148e-07	4.559785e-09	6.407330e+00	2.965371e+02
2.430000e-06	7.646550e-07	4.326981e-09	5.326504e+00	2.810638e+02
2.440000e-06	6.091901e-07	4.082670e-09	4.243552e+00	2.650999e+02
2.450000e-06	4.534084e-07	3.830236e-09	3.158394e+00	2.486398e+02
2.460000e-06	2.973949e-07	3.572934e-09	2.071621e+00	2.316637e+02
2.470000e-06	1.412417e-07	3.304736e-09	9.838744e-01	2.141332e+02
2.480000e-06	-1.501513e-08	3.022274e-09	-1.045938e-01	1.959907e+02
2.490000e-06	-1.712951e-07	2.728957e-09	-1.193223e+00	1.771607e+02
2.500000e-06	-3.274875e-07	2.426565e-09	-2.281242e+00	1.575543e+02
2.510000e-06	-4.835614e-07	2.112919e-09	-3.368436e+00	1.370771e+02
2.520000e-06	-6.394734e-07	1.787697e-09	-4.454503e+00	1.156394e+02
2.530000e-06	-7.951911e-07	1.450050e-09	-5.539215e+00	9.316767e+01
2.540000e-06	-9.506428e-07	1.095464e-09	-6.622075e+00	6.961612e+01
2.550000e-06	-1.105728e-06	7.240239e-10	-7.702381e+00	4.497788e+01
2.560000e-06	-1.260373e-06	3.374751e-10	-8.779620e+00	1.929318e+01
2.570000e-06	-1.414569e-06	-6.456766e-11	-9.853735e+00	-7.345701e+00
2.580000e-06	-1.568274e-06	-4.841763e-10	-1.092443e+01	-3.479375e+01
2.590000e-06	-1.721355e-06	-9.189256e-10	-1.199077e+01	-6.285719e+01
2.600000e-06	-1.873770e-06	-1.361727e-09	-1.305248e+01	-9.130186e+01
2.610000e-06	-2.025515e-06	-1.806225e-09	-1.410952e+01	-1.198653e+02
2.620000e-06	-2.176569e-06	-2.247760e-09	-1.516175e+01	-1.482718e+02
2.630000e-06	-2.326816e-06	-2.679159e-09	-1.620835e+01	-1.762483e+02
2.640000e-06	-2.476171e-06	-3.095064e-09	-1.724874e+01	-2.035404e+02
2.650000e-06	-2.624582e-06	-3.495964e-09	-1.828255e+01	-2.299266e+02
2.660000e-06	-2.771898e-06	-3.881653e-09	-1.930874e+01	-2.552297e+02
2.670000e-06	-2.918170e-06	-4.250259e-09	-2.032766e+01	-2.793235e+02
2.680000e-06	-3.063415e-06	-4.597449e-09	-2.133942e+01	-3.021361e+02
2.690000e-06	-3.207496e-06	-4.923245e-09	-2.234307e+01	-3.236476e+02
2.700000e-06	-3.350300e-06	-5.230443e-09	-2.333783e+01	-3.438846e+02
2.710000e-06	-3.491789e-06	-5.521005e-09	-2.432343e+01	-3.629108e+02
2.720000e-06	-3.631995e-06	-5.796699e-09	-2.530009e+01	-3.808163e+02
2.730000e-06	-3.770805e-06	-6.057902e-09	-2.626702e+01	-3.977058e+02
2.740000e-06	-3.908175e-06	-6.304418e-09	-2.722392e+01	-4.136868e+02
2.750000e-06	-4.044135e-06	-6.539120e-09	-2.817101e+01	-4.288607e+02
2.760000e-06	-4.178660e-06	-6.765581e-09	-2.910809e+01	-4.433148e+02
2.770000e-06	-4.311743e-06	-6.982656e-09	-3.003514e+01	-4.571189e+02
2.780000e-06	-4.443262e-06	-7.188772e-09	-3.095128e+01	-4.703230e+02
2.790000e-06	-4.573268e-06	-7.383338e-09	-3.185689e+01	-4.829593e+02
2.800000e-06	-4.701760e-06	-7.566088e-09	-3.275196e+01	-4.950455e+02
2.810000e-06	-4.828569e-06	-7.738674e-09	-3.363529e+01	-5.065893e+02
2.820000e-06	-4.953710e-06	-7.902492e-09	-3.450701e+01	-5.175934e+02
2.830000e-06	-5.077123e-06	-8.057582e-09	-3.536669e+01	-5.280609e+02
2.840000e-06	-5.198720e-06	-8.206733e-09	-3.621372e+01	-5.379984e+02
2.850000e-06	-5.318414e-06	-8.352055e-09	-3.704750e+01	-5.474190e+02
2.860000e-06	-5.436036e-06	-8.491123e-09	-3.786684e+01	-5.563429e+02
2.870000e-06	-5.551372e-06	-8.623530e-09	-3.867026e+01	-5.647968e+02
2.880000e-06	-5.664413e-06	-8.748427e-09	-3.945769e+01	-5.728122e+02
2.890000e-06	-5.775289e-06	-8.866932e-09	-4.023004e+01	-5.804232e+02
2.900000e-06	-5.884079e-06	-8.979519e-09	-4.098786e+01	-5.876633e+02
2.910000e-06	-5.990885e-06	-9.085092e-09	-4.173186e+01	-5.945635e+02
2.920000e-06	-6.095548e-06	-9.186077e-09	-4.246093e+01	-6.011505e+02
2.930000e-06	-6.197929e-06	-9.283803e-09	-4.317410e+01	-6.074456e+02
2.940000e-06	-6.298040e-06	-9.376107e-09	-4.387147e+01	-6.134651e+02
