# Temperatura_=_48.88
# Concentracion g/m^3_=_15000.0
# C_Vs_to_Am_M_A/Vsm_=_65563218390.804596
# pendiente_HvsI_1/m_=_3716.3
# ordenada_HvsI_A/m_=_1297.0
# frecuencia_Hz_=_302334.6840847134

Tiempo_(s)	Campo_(V.s)	Magnetizacion_(V.s)	Campo_(kA/m)	Magnetizacion_(A/m)
0.000000e+00	-8.119533e-06	-1.090522e-08	-5.692207e+01	-7.128479e+02
1.000000e-08	-8.117259e-06	-1.090712e-08	-5.690612e+01	-7.126032e+02
2.000000e-08	-8.112237e-06	-1.090312e-08	-5.687092e+01	-7.122330e+02
3.000000e-08	-8.104671e-06	-1.089496e-08	-5.681787e+01	-7.117475e+02
4.000000e-08	-8.094253e-06	-1.088713e-08	-5.674484e+01	-7.111592e+02
5.000000e-08	-8.080828e-06	-1.087534e-08	-5.665072e+01	-7.104814e+02
6.000000e-08	-8.064515e-06	-1.085845e-08	-5.653636e+01	-7.097269e+02
7.000000e-08	-8.045666e-06	-1.083815e-08	-5.640422e+01	-7.089067e+02
8.000000e-08	-8.024566e-06	-1.081081e-08	-5.625630e+01	-7.080295e+02
9.000000e-08	-8.000727e-06	-1.084577e-08	-5.608917e+01	-7.071009e+02
1.000000e-07	-7.973638e-06	-1.086263e-08	-5.589927e+01	-7.061234e+02
1.100000e-07	-7.943383e-06	-1.080396e-08	-5.568716e+01	-7.050964e+02
1.200000e-07	-7.910163e-06	-1.076798e-08	-5.545427e+01	-7.040169e+02
1.300000e-07	-7.874117e-06	-1.074632e-08	-5.520157e+01	-7.028798e+02
1.400000e-07	-7.835620e-06	-1.070699e-08	-5.493169e+01	-7.016783e+02
1.500000e-07	-7.794858e-06	-1.064120e-08	-5.464592e+01	-7.004043e+02
1.600000e-07	-7.751709e-06	-1.067397e-08	-5.434343e+01	-6.990487e+02
1.700000e-07	-7.705912e-06	-1.069423e-08	-5.402237e+01	-6.976016e+02
1.800000e-07	-7.657242e-06	-1.055930e-08	-5.368117e+01	-6.960522e+02
1.900000e-07	-7.605653e-06	-1.060426e-08	-5.331950e+01	-6.943892e+02
2.000000e-07	-7.551124e-06	-1.059477e-08	-5.293723e+01	-6.926008e+02
2.100000e-07	-7.493725e-06	-1.051911e-08	-5.253483e+01	-6.906752e+02
2.200000e-07	-7.433630e-06	-1.051688e-08	-5.211353e+01	-6.886012e+02
2.300000e-07	-7.371024e-06	-1.045019e-08	-5.167464e+01	-6.863691e+02
2.400000e-07	-7.305722e-06	-1.043823e-08	-5.121683e+01	-6.839714e+02
2.500000e-07	-7.237546e-06	-1.035200e-08	-5.073888e+01	-6.814035e+02
2.600000e-07	-7.166611e-06	-1.032825e-08	-5.024159e+01	-6.786646e+02
2.700000e-07	-7.092785e-06	-1.031312e-08	-4.972403e+01	-6.757576e+02
2.800000e-07	-7.016088e-06	-1.023995e-08	-4.918635e+01	-6.726895e+02
2.900000e-07	-6.936613e-06	-1.016146e-08	-4.862919e+01	-6.694701e+02
3.000000e-07	-6.854539e-06	-1.011893e-08	-4.805381e+01	-6.661112e+02
3.100000e-07	-6.770144e-06	-1.012266e-08	-4.746216e+01	-6.626251e+02
3.200000e-07	-6.683372e-06	-1.004164e-08	-4.685384e+01	-6.590230e+02
3.300000e-07	-6.594169e-06	-9.984006e-09	-4.622848e+01	-6.553132e+02
3.400000e-07	-6.502589e-06	-9.943982e-09	-4.558646e+01	-6.515001e+02
3.500000e-07	-6.408672e-06	-9.867215e-09	-4.492805e+01	-6.475829e+02
3.600000e-07	-6.312399e-06	-9.788023e-09	-4.425313e+01	-6.435558e+02
3.700000e-07	-6.213816e-06	-9.727287e-09	-4.356202e+01	-6.394083e+02
3.800000e-07	-6.113014e-06	-9.683454e-09	-4.285534e+01	-6.351264e+02
3.900000e-07	-6.010031e-06	-9.606197e-09	-4.213338e+01	-6.306941e+02
4.000000e-07	-5.904880e-06	-9.523269e-09	-4.139622e+01	-6.260956e+02
4.100000e-07	-5.797660e-06	-9.453283e-09	-4.064455e+01	-6.213170e+02
4.200000e-07	-5.688455e-06	-9.388507e-09	-3.987897e+01	-6.163482e+02
4.300000e-07	-5.577208e-06	-9.305001e-09	-3.909907e+01	-6.111834e+02
4.400000e-07	-5.463785e-06	-9.213288e-09	-3.830391e+01	-6.058218e+02
4.500000e-07	-5.348212e-06	-9.132439e-09	-3.749369e+01	-6.002670e+02
4.600000e-07	-5.230612e-06	-9.053541e-09	-3.666925e+01	-5.945257e+02
4.700000e-07	-5.111118e-06	-8.963581e-09	-3.583154e+01	-5.886057e+02
4.800000e-07	-4.989847e-06	-8.868828e-09	-3.498137e+01	-5.825138e+02
4.900000e-07	-4.866761e-06	-8.777574e-09	-3.411848e+01	-5.762541e+02
5.000000e-07	-4.741926e-06	-8.677845e-09	-3.324332e+01	-5.698255e+02
5.100000e-07	-4.615375e-06	-8.567459e-09	-3.235613e+01	-5.632217e+02
5.200000e-07	-4.487139e-06	-8.461352e-09	-3.145713e+01	-5.564303e+02
5.300000e-07	-4.357240e-06	-8.364783e-09	-3.054647e+01	-5.494342e+02
5.400000e-07	-4.225735e-06	-8.254786e-09	-2.962455e+01	-5.422128e+02
5.500000e-07	-4.092676e-06	-8.129771e-09	-2.869174e+01	-5.347446e+02
5.600000e-07	-3.958056e-06	-8.004630e-09	-2.774799e+01	-5.270095e+02
5.700000e-07	-3.821916e-06	-7.887234e-09	-2.679358e+01	-5.189914e+02
5.800000e-07	-3.684283e-06	-7.759822e-09	-2.582870e+01	-5.106794e+02
5.900000e-07	-3.545123e-06	-7.628685e-09	-2.485312e+01	-5.020692e+02
6.000000e-07	-3.404476e-06	-7.500412e-09	-2.386711e+01	-4.931625e+02
6.100000e-07	-3.262445e-06	-7.363669e-09	-2.287140e+01	-4.839659e+02
6.200000e-07	-3.119105e-06	-7.213866e-09	-2.186651e+01	-4.744884e+02
6.300000e-07	-2.974585e-06	-7.060284e-09	-2.085336e+01	-4.647387e+02
6.400000e-07	-2.828923e-06	-6.909625e-09	-1.983219e+01	-4.547221e+02
6.500000e-07	-2.682258e-06	-6.751575e-09	-1.880400e+01	-4.444376e+02
6.600000e-07	-2.534757e-06	-6.587009e-09	-1.776994e+01	-4.338762e+02
6.700000e-07	-2.386436e-06	-6.418698e-09	-1.673013e+01	-4.230199e+02
6.800000e-07	-2.237348e-06	-6.250047e-09	-1.568495e+01	-4.118425e+02
6.900000e-07	-2.087487e-06	-6.073716e-09	-1.463434e+01	-4.003115e+02
7.000000e-07	-1.936830e-06	-5.890085e-09	-1.357816e+01	-3.883909e+02
7.100000e-07	-1.785564e-06	-5.702048e-09	-1.251772e+01	-3.760454e+02
7.200000e-07	-1.633818e-06	-5.506024e-09	-1.145389e+01	-3.632434e+02
7.300000e-07	-1.481513e-06	-5.303869e-09	-1.038616e+01	-3.499607e+02
7.400000e-07	-1.328592e-06	-5.095556e-09	-9.314107e+00	-3.361824e+02
7.500000e-07	-1.175111e-06	-4.879776e-09	-8.238125e+00	-3.219028e+02
7.600000e-07	-1.021253e-06	-4.655028e-09	-7.159505e+00	-3.071244e+02
7.700000e-07	-8.670938e-07	-4.421990e-09	-6.078769e+00	-2.918539e+02
7.800000e-07	-7.126432e-07	-4.180744e-09	-4.995992e+00	-2.760977e+02
7.900000e-07	-5.580182e-07	-3.936261e-09	-3.911992e+00	-2.598559e+02
8.000000e-07	-4.032553e-07	-3.686006e-09	-2.827025e+00	-2.431171e+02
8.100000e-07	-2.483378e-07	-3.424956e-09	-1.740974e+00	-2.258531e+02
8.200000e-07	-9.326912e-08	-3.148818e-09	-6.538640e-01	-2.080162e+02
8.300000e-07	6.183097e-08	-2.860872e-09	4.334666e-01	-1.895394e+02
8.400000e-07	2.169367e-07	-2.563833e-09	1.520837e+00	-1.703385e+02
8.500000e-07	3.720100e-07	-2.253274e-09	2.607979e+00	-1.503184e+02
8.600000e-07	5.269701e-07	-1.931948e-09	3.694329e+00	-1.293822e+02
8.700000e-07	6.818099e-07	-1.599747e-09	4.779834e+00	-1.074415e+02
8.800000e-07	8.364509e-07	-1.253735e-09	5.863947e+00	-8.442898e+01
8.900000e-07	9.908550e-07	-8.880781e-10	6.946398e+00	-6.030993e+01
9.000000e-07	1.144957e-06	-5.065770e-10	8.026730e+00	-3.509242e+01
9.100000e-07	1.298698e-06	-1.108159e-10	9.104534e+00	-8.834739e+00
9.200000e-07	1.451984e-06	3.017982e-10	1.017915e+01	1.835112e+01
9.300000e-07	1.604672e-06	7.275826e-10	1.124957e+01	4.630046e+01
9.400000e-07	1.756756e-06	1.163292e-09	1.231575e+01	7.480151e+01
9.500000e-07	1.908178e-06	1.603098e-09	1.337730e+01	1.036054e+02
9.600000e-07	2.058923e-06	2.044754e-09	1.443410e+01	1.324394e+02
9.700000e-07	2.208914e-06	2.482240e-09	1.548561e+01	1.610228e+02
9.800000e-07	2.358030e-06	2.910075e-09	1.653099e+01	1.890835e+02
9.900000e-07	2.506236e-06	3.325722e-09	1.756999e+01	2.163733e+02
1.000000e-06	2.653485e-06	3.724045e-09	1.860228e+01	2.426815e+02
1.010000e-06	2.799803e-06	4.102805e-09	1.962804e+01	2.678453e+02
1.020000e-06	2.945064e-06	4.462462e-09	2.064640e+01	2.917553e+02
1.030000e-06	3.089159e-06	4.805266e-09	2.165658e+01	3.143565e+02
1.040000e-06	3.232160e-06	5.128460e-09	2.265909e+01	3.356456e+02
1.050000e-06	3.373904e-06	5.429681e-09	2.365278e+01	3.556633e+02
1.060000e-06	3.514248e-06	5.712490e-09	2.463667e+01	3.744847e+02
1.070000e-06	3.653240e-06	5.982328e-09	2.561107e+01	3.922076e+02
1.080000e-06	3.790880e-06	6.238459e-09	2.657600e+01	4.089408e+02
1.090000e-06	3.927109e-06	6.481226e-09	2.753103e+01	4.247927e+02
1.100000e-06	4.061897e-06	6.714016e-09	2.847597e+01	4.398627e+02
1.110000e-06	4.195211e-06	6.934793e-09	2.941057e+01	4.542345e+02
1.120000e-06	4.326971e-06	7.142111e-09	3.033427e+01	4.679732e+02
1.130000e-06	4.457240e-06	7.340148e-09	3.124752e+01	4.811240e+02
1.140000e-06	4.585994e-06	7.532062e-09	3.215016e+01	4.937151e+02
1.150000e-06	4.713137e-06	7.711690e-09	3.304149e+01	5.057612e+02
1.160000e-06	4.838656e-06	7.880596e-09	3.392144e+01	5.172682e+02
1.170000e-06	4.962531e-06	8.042346e-09	3.478987e+01	5.282391e+02
1.180000e-06	5.084668e-06	8.199221e-09	3.564611e+01	5.386777e+02
1.190000e-06	5.205012e-06	8.351301e-09	3.648978e+01	5.485927e+02
1.200000e-06	5.323463e-06	8.498122e-09	3.732019e+01	5.579990e+02
1.210000e-06	5.439842e-06	8.638671e-09	3.813607e+01	5.669188e+02
1.220000e-06	5.554086e-06	8.769714e-09	3.893697e+01	5.753800e+02
1.230000e-06	5.666175e-06	8.891379e-09	3.972277e+01	5.834146e+02
1.240000e-06	5.776181e-06	9.006649e-09	4.049397e+01	5.910557e+02
1.250000e-06	5.884182e-06	9.117350e-09	4.125111e+01	5.983351e+02
1.260000e-06	5.990076e-06	9.220710e-09	4.199348e+01	6.052815e+02
1.270000e-06	6.093749e-06	9.319604e-09	4.272028e+01	6.119182e+02
1.280000e-06	6.195182e-06	9.415895e-09	4.343138e+01	6.182635e+02
1.290000e-06	6.294386e-06	9.507105e-09	4.412685e+01	6.243307e+02
1.300000e-06	6.391204e-06	9.594452e-09	4.480559e+01	6.301292e+02
1.310000e-06	6.485634e-06	9.677494e-09	4.546760e+01	6.356663e+02
1.320000e-06	6.577814e-06	9.756089e-09	4.611383e+01	6.409492e+02
1.330000e-06	6.667652e-06	9.830661e-09	4.674364e+01	6.459860e+02
1.340000e-06	6.755082e-06	9.901521e-09	4.735656e+01	6.507870e+02
1.350000e-06	6.840142e-06	9.970597e-09	4.795288e+01	6.553649e+02
1.360000e-06	6.922836e-06	1.003838e-08	4.853261e+01	6.597344e+02
1.370000e-06	7.003017e-06	1.010364e-08	4.909472e+01	6.639107e+02
1.380000e-06	7.080605e-06	1.016447e-08	4.963865e+01	6.679086e+02
1.390000e-06	7.155590e-06	1.022282e-08	5.016433e+01	6.717401e+02
1.400000e-06	7.227873e-06	1.027967e-08	5.067107e+01	6.754136e+02
1.410000e-06	7.297544e-06	1.033287e-08	5.115950e+01	6.789323e+02
1.420000e-06	7.364669e-06	1.038215e-08	5.163008e+01	6.822944e+02
1.430000e-06	7.429126e-06	1.042930e-08	5.208195e+01	6.854933e+02
1.440000e-06	7.490971e-06	1.047266e-08	5.251552e+01	6.885190e+02
1.450000e-06	7.550323e-06	1.051307e-08	5.293161e+01	6.913596e+02
1.460000e-06	7.607036e-06	1.055074e-08	5.332920e+01	6.940037e+02
1.470000e-06	7.660955e-06	1.058588e-08	5.370719e+01	6.964424e+02
1.480000e-06	7.711846e-06	1.061923e-08	5.406397e+01	6.986711e+02
1.490000e-06	7.759606e-06	1.064974e-08	5.439879e+01	7.006905e+02
1.500000e-06	7.804500e-06	1.067676e-08	5.471352e+01	7.025073e+02
1.510000e-06	7.846656e-06	1.070003e-08	5.500906e+01	7.041336e+02
1.520000e-06	7.886018e-06	1.072094e-08	5.528500e+01	7.055858e+02
1.530000e-06	7.922634e-06	1.074099e-08	5.554170e+01	7.068827e+02
1.540000e-06	7.956422e-06	1.075987e-08	5.577857e+01	7.080435e+02
1.550000e-06	7.987330e-06	1.077565e-08	5.599525e+01	7.090858e+02
1.560000e-06	8.015480e-06	1.078815e-08	5.619260e+01	7.100235e+02
1.570000e-06	8.040702e-06	1.080060e-08	5.636941e+01	7.108659e+02
1.580000e-06	8.062976e-06	1.081379e-08	5.652557e+01	7.116167e+02
1.590000e-06	8.082554e-06	1.082492e-08	5.666282e+01	7.122744e+02
1.600000e-06	8.099264e-06	1.083145e-08	5.677997e+01	7.128333e+02
1.610000e-06	8.112862e-06	1.083557e-08	5.687529e+01	7.132849e+02
1.620000e-06	8.123242e-06	1.084039e-08	5.694806e+01	7.136195e+02
1.630000e-06	8.130532e-06	1.084467e-08	5.699917e+01	7.138282e+02
1.640000e-06	8.135006e-06	1.084706e-08	5.703053e+01	7.139044e+02
1.650000e-06	8.136570e-06	1.084810e-08	5.704150e+01	7.138453e+02
1.660000e-06	8.135220e-06	1.084591e-08	5.703204e+01	7.136519e+02
1.670000e-06	8.131238e-06	1.083764e-08	5.700412e+01	7.133298e+02
1.680000e-06	8.124561e-06	1.083416e-08	5.695731e+01	7.128880e+02
1.690000e-06	8.115124e-06	1.082979e-08	5.689115e+01	7.123384e+02
1.700000e-06	8.102941e-06	1.082161e-08	5.680574e+01	7.116940e+02
1.710000e-06	8.087872e-06	1.081610e-08	5.670010e+01	7.109680e+02
1.720000e-06	8.070195e-06	1.081679e-08	5.657618e+01	7.101722e+02
1.730000e-06	8.050229e-06	1.081735e-08	5.643621e+01	7.093164e+02
1.740000e-06	8.027640e-06	1.072954e-08	5.627785e+01	7.084074e+02
1.750000e-06	8.001648e-06	1.070499e-08	5.609563e+01	7.074488e+02
1.760000e-06	7.971831e-06	1.073403e-08	5.588659e+01	7.064414e+02
1.770000e-06	7.938705e-06	1.070648e-08	5.565437e+01	7.053829e+02
1.780000e-06	7.903165e-06	1.068965e-08	5.540521e+01	7.042690e+02
1.790000e-06	7.865329e-06	1.075046e-08	5.513996e+01	7.030935e+02
1.800000e-06	7.825332e-06	1.072759e-08	5.485956e+01	7.018488e+02
1.810000e-06	7.783351e-06	1.059802e-08	5.456525e+01	7.005262e+02
1.820000e-06	7.738714e-06	1.070395e-08	5.425233e+01	6.991162e+02
1.830000e-06	7.691242e-06	1.062588e-08	5.391952e+01	6.976081e+02
1.840000e-06	7.641002e-06	1.060063e-08	5.356732e+01	6.959910e+02
1.850000e-06	7.587645e-06	1.064255e-08	5.319326e+01	6.942531e+02
1.860000e-06	7.531360e-06	1.051826e-08	5.279867e+01	6.923826e+02
1.870000e-06	7.472355e-06	1.057744e-08	5.238501e+01	6.903680e+02
1.880000e-06	7.410652e-06	1.046864e-08	5.195245e+01	6.881989e+02
1.890000e-06	7.346210e-06	1.046969e-08	5.150067e+01	6.858668e+02
1.900000e-06	7.278892e-06	1.048532e-08	5.102874e+01	6.833659e+02
1.910000e-06	7.208773e-06	1.035748e-08	5.053717e+01	6.806939e+02
1.920000e-06	7.135844e-06	1.034938e-08	5.002590e+01	6.778522e+02
1.930000e-06	7.060174e-06	1.028098e-08	4.949541e+01	6.748462e+02
1.940000e-06	6.981705e-06	1.029636e-08	4.894531e+01	6.716847e+02
1.950000e-06	6.900549e-06	1.021326e-08	4.837637e+01	6.683790e+02
1.960000e-06	6.816967e-06	1.015092e-08	4.779041e+01	6.649412e+02
1.970000e-06	6.730737e-06	1.012255e-08	4.718590e+01	6.613833e+02
1.980000e-06	6.641915e-06	1.000696e-08	4.656321e+01	6.577149e+02
1.990000e-06	6.550768e-06	9.985657e-09	4.592422e+01	6.539420e+02
2.000000e-06	6.457458e-06	9.932151e-09	4.527007e+01	6.500660e+02
2.010000e-06	6.361894e-06	9.913949e-09	4.460012e+01	6.460829e+02
2.020000e-06	6.263997e-06	9.808069e-09	4.391381e+01	6.419841e+02
2.030000e-06	6.163872e-06	9.719884e-09	4.321188e+01	6.377566e+02
2.040000e-06	6.061454e-06	9.664861e-09	4.249388e+01	6.333852e+02
2.050000e-06	5.956845e-06	9.605054e-09	4.176052e+01	6.288536e+02
2.060000e-06	5.850211e-06	9.548443e-09	4.101296e+01	6.241471e+02
2.070000e-06	5.741658e-06	9.457211e-09	4.025195e+01	6.192538e+02
2.080000e-06	5.631069e-06	9.389754e-09	3.947666e+01	6.141661e+02
2.090000e-06	5.518313e-06	9.292047e-09	3.868619e+01	6.088815e+02
2.100000e-06	5.403435e-06	9.213318e-09	3.788083e+01	6.034018e+02
2.110000e-06	5.286537e-06	9.134134e-09	3.706131e+01	5.977327e+02
2.120000e-06	5.167559e-06	9.063507e-09	3.622722e+01	5.918818e+02
2.130000e-06	5.046627e-06	8.951812e-09	3.537942e+01	5.858566e+02
2.140000e-06	4.923946e-06	8.846238e-09	3.451937e+01	5.796624e+02
2.150000e-06	4.799512e-06	8.762616e-09	3.364702e+01	5.733005e+02
2.160000e-06	4.673325e-06	8.678469e-09	3.276239e+01	5.667665e+02
2.170000e-06	4.545385e-06	8.576970e-09	3.186547e+01	5.600505e+02
2.180000e-06	4.415795e-06	8.453700e-09	3.095697e+01	5.531369e+02
2.190000e-06	4.284573e-06	8.341330e-09	3.003704e+01	5.460064e+02
2.200000e-06	4.151810e-06	8.227187e-09	2.910630e+01	5.386375e+02
2.210000e-06	4.017555e-06	8.118913e-09	2.816511e+01	5.310093e+02
2.220000e-06	3.881797e-06	8.005933e-09	2.721338e+01	5.231039e+02
2.230000e-06	3.744470e-06	7.885495e-09	2.625064e+01	5.149080e+02
2.240000e-06	3.605646e-06	7.739695e-09	2.527742e+01	5.064149e+02
2.250000e-06	3.465541e-06	7.598147e-09	2.429521e+01	4.976240e+02
2.260000e-06	3.324141e-06	7.471256e-09	2.330392e+01	4.885401e+02
2.270000e-06	3.181432e-06	7.345023e-09	2.230346e+01	4.791717e+02
2.280000e-06	3.037459e-06	7.201691e-09	2.129414e+01	4.695279e+02
2.290000e-06	2.892304e-06	7.042822e-09	2.027653e+01	4.596157e+02
2.300000e-06	2.746119e-06	6.883525e-09	1.925169e+01	4.494369e+02
2.310000e-06	2.598968e-06	6.726110e-09	1.822009e+01	4.389857e+02
2.320000e-06	2.450971e-06	6.566414e-09	1.718255e+01	4.282478e+02
2.330000e-06	2.302232e-06	6.398542e-09	1.613982e+01	4.172000e+02
2.340000e-06	2.152680e-06	6.221392e-09	1.509138e+01	4.058119e+02
2.350000e-06	2.002349e-06	6.034502e-09	1.403749e+01	3.940486e+02
2.360000e-06	1.851370e-06	5.846249e-09	1.297904e+01	3.818739e+02
2.370000e-06	1.699804e-06	5.657913e-09	1.191649e+01	3.692543e+02
2.380000e-06	1.547718e-06	5.462430e-09	1.085029e+01	3.561627e+02
2.390000e-06	1.395081e-06	5.255826e-09	9.780226e+00	3.425801e+02
2.400000e-06	1.241923e-06	5.038088e-09	8.706516e+00	3.284974e+02
2.410000e-06	1.088343e-06	4.814479e-09	7.629836e+00	3.139141e+02
2.420000e-06	9.343712e-07	4.589131e-09	6.550418e+00	2.988359e+02
2.430000e-06	7.800842e-07	4.358193e-09	5.468787e+00	2.832698e+02
2.440000e-06	6.255553e-07	4.113364e-09	4.385462e+00	2.672192e+02
2.450000e-06	4.707955e-07	3.855051e-09	3.300516e+00	2.506779e+02
2.460000e-06	3.157763e-07	3.593170e-09	2.213753e+00	2.336245e+02
2.470000e-06	1.605526e-07	3.327141e-09	1.125555e+00	2.160195e+02
2.480000e-06	5.249772e-09	3.049909e-09	3.680358e-02	1.978032e+02
2.490000e-06	-1.500020e-07	2.759127e-09	-1.051590e+00	1.788974e+02
2.500000e-06	-3.051875e-07	2.453786e-09	-2.139520e+00	1.592107e+02
2.510000e-06	-4.602962e-07	2.133018e-09	-3.226911e+00	1.386455e+02
2.520000e-06	-6.152738e-07	1.802108e-09	-4.313383e+00	1.171087e+02
2.530000e-06	-7.701117e-07	1.464045e-09	-5.398876e+00	9.452331e+01
2.540000e-06	-9.247009e-07	1.110717e-09	-6.482624e+00	7.084042e+01
2.550000e-06	-1.078933e-06	7.370022e-10	-7.563867e+00	4.605023e+01
2.560000e-06	-1.232764e-06	3.446709e-10	-8.642305e+00	2.019067e+01
2.570000e-06	-1.386109e-06	-6.171678e-11	-9.717327e+00	-6.647511e+00
2.580000e-06	-1.538924e-06	-4.807633e-10	-1.078864e+01	-3.431990e+01
2.590000e-06	-1.691074e-06	-9.144127e-10	-1.185529e+01	-6.263227e+01
2.600000e-06	-1.842541e-06	-1.358754e-09	-1.291715e+01	-9.134886e+01
2.610000e-06	-1.993427e-06	-1.808160e-09	-1.397494e+01	-1.202046e+02
2.620000e-06	-2.143617e-06	-2.257458e-09	-1.502785e+01	-1.489199e+02
2.630000e-06	-2.292939e-06	-2.698567e-09	-1.607467e+01	-1.772174e+02
2.640000e-06	-2.441361e-06	-3.121741e-09	-1.711519e+01	-2.048377e+02
2.650000e-06	-2.588934e-06	-3.526077e-09	-1.814975e+01	-2.315539e+02
2.660000e-06	-2.735564e-06	-3.914479e-09	-1.917770e+01	-2.571836e+02
2.670000e-06	-2.881168e-06	-4.285124e-09	-2.019846e+01	-2.815958e+02
2.680000e-06	-3.025715e-06	-4.633750e-09	-2.121180e+01	-3.047145e+02
2.690000e-06	-3.169036e-06	-4.961354e-09	-2.221655e+01	-3.265166e+02
2.700000e-06	-3.311007e-06	-5.272495e-09	-2.321185e+01	-3.470267e+02
2.710000e-06	-3.451652e-06	-5.568970e-09	-2.419784e+01	-3.663075e+02
2.720000e-06	-3.591136e-06	-5.850578e-09	-2.517569e+01	-3.844495e+02
2.730000e-06	-3.729356e-06	-6.118211e-09	-2.614468e+01	-4.015585e+02
2.740000e-06	-3.866019e-06	-6.369322e-09	-2.710276e+01	-4.177443e+02
2.750000e-06	-4.001201e-06	-6.603945e-09	-2.805046e+01	-4.331106e+02
2.760000e-06	-4.135027e-06	-6.830143e-09	-2.898865e+01	-4.477481e+02
2.770000e-06	-4.267400e-06	-7.050122e-09	-2.991665e+01	-4.617292e+02
2.780000e-06	-4.398279e-06	-7.259503e-09	-3.083418e+01	-4.751069e+02
2.790000e-06	-4.527698e-06	-7.456064e-09	-3.174147e+01	-4.879157e+02
2.800000e-06	-4.655558e-06	-7.641161e-09	-3.263783e+01	-5.001749e+02
2.810000e-06	-4.781820e-06	-7.817393e-09	-3.352299e+01	-5.118935e+02
2.820000e-06	-4.906421e-06	-7.985103e-09	-3.439651e+01	-5.230749e+02
2.830000e-06	-5.029250e-06	-8.146058e-09	-3.525760e+01	-5.337221e+02
2.840000e-06	-5.150253e-06	-8.299987e-09	-3.610590e+01	-5.438415e+02
2.850000e-06	-5.269327e-06	-8.445614e-09	-3.694067e+01	-5.534455e+02
2.860000e-06	-5.386341e-06	-8.583519e-09	-3.776100e+01	-5.625536e+02
2.870000e-06	-5.501186e-06	-8.715564e-09	-3.856612e+01	-5.711915e+02
2.880000e-06	-5.613818e-06	-8.843792e-09	-3.935572e+01	-5.793899e+02
2.890000e-06	-5.724302e-06	-8.965481e-09	-4.013027e+01	-5.871818e+02
2.900000e-06	-5.832759e-06	-9.081976e-09	-4.089061e+01	-5.945998e+02
2.910000e-06	-5.939209e-06	-9.193681e-09	-4.163688e+01	-6.016741e+02
2.920000e-06	-6.043492e-06	-9.300647e-09	-4.236796e+01	-6.084302e+02
2.930000e-06	-6.145482e-06	-9.402866e-09	-4.308296e+01	-6.148883e+02
2.940000e-06	-6.245200e-06	-9.498008e-09	-4.378203e+01	-6.210636e+02
