# Temperatura_=_74.28
# Concentracion g/m^3_=_15000.0
# C_Vs_to_Am_M_A/Vsm_=_65563218390.804596
# pendiente_HvsI_1/m_=_3716.3
# ordenada_HvsI_A/m_=_1297.0
# frecuencia_Hz_=_302341.831159141

Tiempo_(s)	Campo_(V.s)	Magnetizacion_(V.s)	Campo_(kA/m)	Magnetizacion_(A/m)
0.000000e+00	-8.211574e-06	-1.288499e-08	-5.690600e+01	-8.420521e+02
1.000000e-08	-8.206819e-06	-1.287944e-08	-5.687305e+01	-8.415767e+02
2.000000e-08	-8.199454e-06	-1.286955e-08	-5.682201e+01	-8.409533e+02
3.000000e-08	-8.189181e-06	-1.285925e-08	-5.675081e+01	-8.401969e+02
4.000000e-08	-8.175907e-06	-1.284620e-08	-5.665883e+01	-8.393223e+02
5.000000e-08	-8.159775e-06	-1.282882e-08	-5.654704e+01	-8.383425e+02
6.000000e-08	-8.141057e-06	-1.280966e-08	-5.641732e+01	-8.372677e+02
7.000000e-08	-8.120014e-06	-1.278043e-08	-5.627149e+01	-8.361049e+02
8.000000e-08	-8.096232e-06	-1.279732e-08	-5.610668e+01	-8.348575e+02
9.000000e-08	-8.069236e-06	-1.281596e-08	-5.591960e+01	-8.335262e+02
1.000000e-07	-8.039059e-06	-1.275810e-08	-5.571047e+01	-8.321095e+02
1.100000e-07	-8.005833e-06	-1.270767e-08	-5.548022e+01	-8.306048e+02
1.200000e-07	-7.969720e-06	-1.268336e-08	-5.522996e+01	-8.290085e+02
1.300000e-07	-7.931118e-06	-1.266022e-08	-5.496245e+01	-8.273167e+02
1.400000e-07	-7.890172e-06	-1.259191e-08	-5.467869e+01	-8.255252e+02
1.500000e-07	-7.846781e-06	-1.254067e-08	-5.437800e+01	-8.236287e+02
1.600000e-07	-7.800718e-06	-1.258706e-08	-5.405877e+01	-8.216206e+02
1.700000e-07	-7.751683e-06	-1.246757e-08	-5.371897e+01	-8.194920e+02
1.800000e-07	-7.699755e-06	-1.245599e-08	-5.335911e+01	-8.172315e+02
1.900000e-07	-7.644968e-06	-1.248577e-08	-5.297943e+01	-8.148249e+02
2.000000e-07	-7.587297e-06	-1.237188e-08	-5.257978e+01	-8.122557e+02
2.100000e-07	-7.526908e-06	-1.235080e-08	-5.216128e+01	-8.095062e+02
2.200000e-07	-7.463847e-06	-1.229152e-08	-5.172427e+01	-8.065591e+02
2.300000e-07	-7.398040e-06	-1.226356e-08	-5.126823e+01	-8.033991e+02
2.400000e-07	-7.329429e-06	-1.218055e-08	-5.079276e+01	-8.000150e+02
2.500000e-07	-7.257945e-06	-1.211655e-08	-5.029737e+01	-7.964012e+02
2.600000e-07	-7.183636e-06	-1.208106e-08	-4.978241e+01	-7.925588e+02
2.700000e-07	-7.106453e-06	-1.200863e-08	-4.924754e+01	-7.884957e+02
2.800000e-07	-7.026410e-06	-1.193910e-08	-4.869284e+01	-7.842260e+02
2.900000e-07	-6.943791e-06	-1.186577e-08	-4.812029e+01	-7.797684e+02
3.000000e-07	-6.858787e-06	-1.183042e-08	-4.753122e+01	-7.751438e+02
3.100000e-07	-6.771357e-06	-1.174459e-08	-4.692534e+01	-7.703724e+02
3.200000e-07	-6.681483e-06	-1.165118e-08	-4.630251e+01	-7.654709e+02
3.300000e-07	-6.589188e-06	-1.160120e-08	-4.566290e+01	-7.604503e+02
3.400000e-07	-6.494440e-06	-1.153040e-08	-4.500631e+01	-7.553136e+02
3.500000e-07	-6.397345e-06	-1.143281e-08	-4.433344e+01	-7.500557e+02
3.600000e-07	-6.297968e-06	-1.133577e-08	-4.364476e+01	-7.446635e+02
3.700000e-07	-6.196274e-06	-1.126393e-08	-4.294002e+01	-7.391179e+02
3.800000e-07	-6.092259e-06	-1.117445e-08	-4.221920e+01	-7.333960e+02
3.900000e-07	-5.986112e-06	-1.106916e-08	-4.148360e+01	-7.274746e+02
4.000000e-07	-5.877961e-06	-1.097974e-08	-4.073412e+01	-7.213328e+02
4.100000e-07	-5.767709e-06	-1.088976e-08	-3.997008e+01	-7.149553e+02
4.200000e-07	-5.655203e-06	-1.078283e-08	-3.919041e+01	-7.083338e+02
4.300000e-07	-5.540510e-06	-1.066524e-08	-3.839559e+01	-7.014679e+02
4.400000e-07	-5.423788e-06	-1.056544e-08	-3.758671e+01	-6.943644e+02
4.500000e-07	-5.305006e-06	-1.046594e-08	-3.676356e+01	-6.870355e+02
4.600000e-07	-5.184345e-06	-1.035023e-08	-3.592738e+01	-6.794959e+02
4.700000e-07	-5.061992e-06	-1.022905e-08	-3.507947e+01	-6.717597e+02
4.800000e-07	-4.937804e-06	-1.011104e-08	-3.421886e+01	-6.638368e+02
4.900000e-07	-4.811784e-06	-9.988753e-09	-3.334554e+01	-6.557308e+02
5.000000e-07	-4.683993e-06	-9.854307e-09	-3.245995e+01	-6.474366e+02
5.100000e-07	-4.554472e-06	-9.720131e-09	-3.156237e+01	-6.389409e+02
5.200000e-07	-4.423266e-06	-9.586480e-09	-3.065312e+01	-6.302227e+02
5.300000e-07	-4.290453e-06	-9.447481e-09	-2.973273e+01	-6.212560e+02
5.400000e-07	-4.156093e-06	-9.302734e-09	-2.880162e+01	-6.120128e+02
5.500000e-07	-4.020072e-06	-9.156737e-09	-2.785899e+01	-6.024670e+02
5.600000e-07	-3.882437e-06	-9.008206e-09	-2.690519e+01	-5.925977e+02
5.700000e-07	-3.743328e-06	-8.849308e-09	-2.594117e+01	-5.823917e+02
5.800000e-07	-3.602608e-06	-8.688314e-09	-2.496598e+01	-5.718448e+02
5.900000e-07	-3.460288e-06	-8.524899e-09	-2.397971e+01	-5.609617e+02
6.000000e-07	-3.316677e-06	-8.355339e-09	-2.298449e+01	-5.497539e+02
6.100000e-07	-3.171909e-06	-8.177661e-09	-2.198125e+01	-5.382363e+02
6.200000e-07	-3.025978e-06	-7.994769e-09	-2.096995e+01	-5.264236e+02
6.300000e-07	-2.878915e-06	-7.808804e-09	-1.995081e+01	-5.143257e+02
6.400000e-07	-2.730830e-06	-7.618786e-09	-1.892458e+01	-5.019440e+02
6.500000e-07	-2.581861e-06	-7.424732e-09	-1.789223e+01	-4.892689e+02
6.600000e-07	-2.432088e-06	-7.225070e-09	-1.685431e+01	-4.762788e+02
6.700000e-07	-2.281438e-06	-7.021410e-09	-1.581031e+01	-4.629411e+02
6.800000e-07	-2.129846e-06	-6.810694e-09	-1.475978e+01	-4.492151e+02
6.900000e-07	-1.977518e-06	-6.592434e-09	-1.370415e+01	-4.350563e+02
7.000000e-07	-1.824607e-06	-6.364899e-09	-1.264448e+01	-4.204213e+02
7.100000e-07	-1.671100e-06	-6.132135e-09	-1.158068e+01	-4.052727e+02
7.200000e-07	-1.517027e-06	-5.894970e-09	-1.051296e+01	-3.895833e+02
7.300000e-07	-1.362412e-06	-5.649608e-09	-9.441484e+00	-3.733380e+02
7.400000e-07	-1.207342e-06	-5.395729e-09	-8.366848e+00	-3.565336e+02
7.500000e-07	-1.051863e-06	-5.135006e-09	-7.289387e+00	-3.391761e+02
7.600000e-07	-8.959669e-07	-4.866721e-09	-6.209028e+00	-3.212757e+02
7.700000e-07	-7.397750e-07	-4.585877e-09	-5.126622e+00	-3.028392e+02
7.800000e-07	-5.834074e-07	-4.296534e-09	-4.042998e+00	-2.838630e+02
7.900000e-07	-4.268222e-07	-3.999438e-09	-2.957867e+00	-2.643252e+02
8.000000e-07	-2.700843e-07	-3.691439e-09	-1.871677e+00	-2.441802e+02
8.100000e-07	-1.132858e-07	-3.368993e-09	-7.850678e-01	-2.233562e+02
8.200000e-07	4.358066e-08	-3.033356e-09	3.020129e-01	-2.017557e+02
8.300000e-07	2.004852e-07	-2.684880e-09	1.389357e+00	-1.792614e+02
8.400000e-07	3.574213e-07	-2.320622e-09	2.476921e+00	-1.557454e+02
8.500000e-07	5.143222e-07	-1.941395e-09	3.564240e+00	-1.310824e+02
8.600000e-07	6.711346e-07	-1.549757e-09	4.650946e+00	-1.051649e+02
8.700000e-07	8.277571e-07	-1.144380e-09	5.736336e+00	-7.791923e+01
8.800000e-07	9.840934e-07	-7.168992e-10	6.819742e+00	-4.932040e+01
8.900000e-07	1.140105e-06	-2.695103e-10	7.900898e+00	-1.940410e+01
9.000000e-07	1.295658e-06	1.986490e-10	8.978875e+00	1.172603e+01
9.100000e-07	1.450668e-06	6.879326e-10	1.005309e+01	4.389670e+01
9.200000e-07	1.605139e-06	1.193917e-09	1.112357e+01	7.686955e+01
9.300000e-07	1.759075e-06	1.709025e-09	1.219034e+01	1.103519e+02
9.400000e-07	1.912411e-06	2.226479e-09	1.325296e+01	1.440126e+02
9.500000e-07	2.065113e-06	2.741774e-09	1.431118e+01	1.775018e+02
9.600000e-07	2.217058e-06	3.245959e-09	1.536415e+01	2.104727e+02
9.700000e-07	2.368011e-06	3.734733e-09	1.641026e+01	2.426027e+02
9.800000e-07	2.517933e-06	4.202518e-09	1.744921e+01	2.736129e+02
9.900000e-07	2.666948e-06	4.646619e-09	1.848188e+01	3.032825e+02
1.000000e-06	2.814977e-06	5.065410e-09	1.950772e+01	3.314590e+02
1.010000e-06	2.961952e-06	5.462234e-09	2.052625e+01	3.580609e+02
1.020000e-06	3.107892e-06	5.839799e-09	2.153761e+01	3.830750e+02
1.030000e-06	3.252732e-06	6.193300e-09	2.254135e+01	4.065480e+02
1.040000e-06	3.396353e-06	6.525259e-09	2.353664e+01	4.285740e+02
1.050000e-06	3.538627e-06	6.842729e-09	2.452260e+01	4.492786e+02
1.060000e-06	3.679506e-06	7.145530e-09	2.549889e+01	4.688036e+02
1.070000e-06	3.818932e-06	7.430632e-09	2.646510e+01	4.872910e+02
1.080000e-06	3.956915e-06	7.699818e-09	2.742132e+01	5.048713e+02
1.090000e-06	4.093448e-06	7.956683e-09	2.836749e+01	5.216537e+02
1.100000e-06	4.228404e-06	8.200696e-09	2.930273e+01	5.377219e+02
1.110000e-06	4.361869e-06	8.432846e-09	3.022764e+01	5.531331e+02
1.120000e-06	4.493857e-06	8.655441e-09	3.114231e+01	5.679213e+02
1.130000e-06	4.624301e-06	8.870045e-09	3.204629e+01	5.821026e+02
1.140000e-06	4.753158e-06	9.072612e-09	3.293926e+01	5.956825e+02
1.150000e-06	4.880290e-06	9.262913e-09	3.382028e+01	6.086630e+02
1.160000e-06	5.005747e-06	9.445360e-09	3.468970e+01	6.210495e+02
1.170000e-06	5.129487e-06	9.620873e-09	3.554721e+01	6.328546e+02
1.180000e-06	5.251445e-06	9.791182e-09	3.639238e+01	6.441010e+02
1.190000e-06	5.371522e-06	9.957164e-09	3.722451e+01	6.548207e+02
1.200000e-06	5.489624e-06	1.011739e-08	3.804296e+01	6.650531e+02
1.210000e-06	5.605669e-06	1.026854e-08	3.884715e+01	6.748412e+02
1.220000e-06	5.719517e-06	1.041127e-08	3.963611e+01	6.842267e+02
1.230000e-06	5.831102e-06	1.054927e-08	4.040939e+01	6.932460e+02
1.240000e-06	5.940568e-06	1.068228e-08	4.116799e+01	7.019265e+02
1.250000e-06	6.047972e-06	1.080902e-08	4.191229e+01	7.102852e+02
1.260000e-06	6.153178e-06	1.093146e-08	4.264137e+01	7.183282e+02
1.270000e-06	6.256140e-06	1.104962e-08	4.335489e+01	7.260525e+02
1.280000e-06	6.356759e-06	1.116197e-08	4.405218e+01	7.334495e+02
1.290000e-06	6.455002e-06	1.126726e-08	4.473300e+01	7.405085e+02
1.300000e-06	6.550780e-06	1.136743e-08	4.539674e+01	7.472213e+02
1.310000e-06	6.644234e-06	1.146235e-08	4.604437e+01	7.535860e+02
1.320000e-06	6.735438e-06	1.155246e-08	4.667642e+01	7.596089e+02
1.330000e-06	6.824116e-06	1.163874e-08	4.729095e+01	7.653065e+02
1.340000e-06	6.910318e-06	1.172146e-08	4.788833e+01	7.707038e+02
1.350000e-06	6.994195e-06	1.180148e-08	4.846959e+01	7.758330e+02
1.360000e-06	7.075579e-06	1.187709e-08	4.903358e+01	7.807295e+02
1.370000e-06	7.154371e-06	1.194978e-08	4.957961e+01	7.854279e+02
1.380000e-06	7.230557e-06	1.201843e-08	5.010758e+01	7.899581e+02
1.390000e-06	7.303972e-06	1.208332e-08	5.061634e+01	7.943417e+02
1.400000e-06	7.374689e-06	1.214665e-08	5.110641e+01	7.985901e+02
1.410000e-06	7.442898e-06	1.220817e-08	5.157910e+01	8.027031e+02
1.420000e-06	7.508393e-06	1.226837e-08	5.203298e+01	8.066704e+02
1.430000e-06	7.571194e-06	1.232469e-08	5.246818e+01	8.104733e+02
1.440000e-06	7.631537e-06	1.237795e-08	5.288635e+01	8.140886e+02
1.450000e-06	7.689147e-06	1.242659e-08	5.328559e+01	8.174918e+02
1.460000e-06	7.743958e-06	1.247032e-08	5.366543e+01	8.206616e+02
1.470000e-06	7.795859e-06	1.251288e-08	5.402511e+01	8.235827e+02
1.480000e-06	7.844573e-06	1.255392e-08	5.436269e+01	8.262484e+02
1.490000e-06	7.890359e-06	1.259156e-08	5.467999e+01	8.286611e+02
1.500000e-06	7.933384e-06	1.262438e-08	5.497815e+01	8.308321e+02
1.510000e-06	7.973546e-06	1.265374e-08	5.525647e+01	8.327795e+02
1.520000e-06	8.010882e-06	1.268230e-08	5.551521e+01	8.345257e+02
1.530000e-06	8.045448e-06	1.270726e-08	5.575475e+01	8.360945e+02
1.540000e-06	8.077108e-06	1.272846e-08	5.597415e+01	8.375073e+02
1.550000e-06	8.105935e-06	1.274659e-08	5.617392e+01	8.387810e+02
1.560000e-06	8.131835e-06	1.276290e-08	5.635341e+01	8.399262e+02
1.570000e-06	8.154684e-06	1.277928e-08	5.651175e+01	8.409462e+02
1.580000e-06	8.174713e-06	1.279318e-08	5.665055e+01	8.418378e+02
1.590000e-06	8.191825e-06	1.280378e-08	5.676914e+01	8.425927e+02
1.600000e-06	8.205844e-06	1.281051e-08	5.686629e+01	8.431993e+02
1.610000e-06	8.216674e-06	1.281620e-08	5.694134e+01	8.436456e+02
1.620000e-06	8.224381e-06	1.282006e-08	5.699475e+01	8.439215e+02
1.630000e-06	8.229221e-06	1.282149e-08	5.702829e+01	8.440205e+02
1.640000e-06	8.231127e-06	1.282177e-08	5.704150e+01	8.439411e+02
1.650000e-06	8.230128e-06	1.281969e-08	5.703458e+01	8.436871e+02
1.660000e-06	8.226452e-06	1.280970e-08	5.700910e+01	8.432674e+02
1.670000e-06	8.220036e-06	1.280275e-08	5.696464e+01	8.426946e+02
1.680000e-06	8.210854e-06	1.279472e-08	5.690101e+01	8.419834e+02
1.690000e-06	8.198874e-06	1.278335e-08	5.681799e+01	8.411487e+02
1.700000e-06	8.183973e-06	1.277267e-08	5.671472e+01	8.402046e+02
1.710000e-06	8.166399e-06	1.276317e-08	5.659294e+01	8.391622e+02
1.720000e-06	8.146471e-06	1.275857e-08	5.645484e+01	8.380297e+02
1.730000e-06	8.123933e-06	1.267480e-08	5.629865e+01	8.368117e+02
1.740000e-06	8.098050e-06	1.263643e-08	5.611928e+01	8.355098e+02
1.750000e-06	8.068288e-06	1.266325e-08	5.591303e+01	8.341233e+02
1.760000e-06	8.035096e-06	1.264166e-08	5.568301e+01	8.326498e+02
1.770000e-06	7.999394e-06	1.260639e-08	5.543560e+01	8.310860e+02
1.780000e-06	7.961401e-06	1.263131e-08	5.517231e+01	8.294282e+02
1.790000e-06	7.921177e-06	1.263638e-08	5.489355e+01	8.276723e+02
1.800000e-06	7.878961e-06	1.247218e-08	5.460100e+01	8.258134e+02
1.810000e-06	7.834171e-06	1.256081e-08	5.429061e+01	8.238455e+02
1.820000e-06	7.786465e-06	1.256094e-08	5.396001e+01	8.217605e+02
1.830000e-06	7.735974e-06	1.247339e-08	5.361010e+01	8.195480e+02
1.840000e-06	7.682310e-06	1.252304e-08	5.323821e+01	8.171948e+02
1.850000e-06	7.625755e-06	1.239532e-08	5.284629e+01	8.146850e+02
1.860000e-06	7.566521e-06	1.242146e-08	5.243580e+01	8.120014e+02
1.870000e-06	7.504437e-06	1.233558e-08	5.200556e+01	8.091262e+02
1.880000e-06	7.439577e-06	1.228736e-08	5.155608e+01	8.060432e+02
1.890000e-06	7.371830e-06	1.231463e-08	5.108659e+01	8.027395e+02
1.900000e-06	7.301204e-06	1.216959e-08	5.059716e+01	7.992074e+02
1.910000e-06	7.227670e-06	1.213169e-08	5.008757e+01	7.954455e+02
1.920000e-06	7.151349e-06	1.205684e-08	4.955867e+01	7.914593e+02
1.930000e-06	7.072299e-06	1.203951e-08	4.901085e+01	7.872608e+02
1.940000e-06	6.990567e-06	1.195606e-08	4.844445e+01	7.828674e+02
1.950000e-06	6.906340e-06	1.187020e-08	4.786076e+01	7.782995e+02
1.960000e-06	6.819488e-06	1.185169e-08	4.725888e+01	7.735777e+02
1.970000e-06	6.730071e-06	1.172514e-08	4.663922e+01	7.687205e+02
1.980000e-06	6.638168e-06	1.165892e-08	4.600234e+01	7.637411e+02
1.990000e-06	6.543922e-06	1.158598e-08	4.534921e+01	7.586454e+02
2.000000e-06	6.447450e-06	1.153740e-08	4.468067e+01	7.534313e+02
2.010000e-06	6.348702e-06	1.142457e-08	4.399634e+01	7.480884e+02
2.020000e-06	6.247614e-06	1.132644e-08	4.329581e+01	7.425995e+02
2.030000e-06	6.144241e-06	1.126092e-08	4.257943e+01	7.369428e+02
2.040000e-06	6.038759e-06	1.117087e-08	4.184845e+01	7.310946e+02
2.050000e-06	5.931161e-06	1.107731e-08	4.110279e+01	7.250330e+02
2.060000e-06	5.821535e-06	1.096771e-08	4.034309e+01	7.187404e+02
2.070000e-06	5.709874e-06	1.088752e-08	3.956928e+01	7.122059e+02
2.080000e-06	5.596064e-06	1.077603e-08	3.878058e+01	7.054263e+02
2.090000e-06	5.480009e-06	1.067220e-08	3.797633e+01	6.984059e+02
2.100000e-06	5.361890e-06	1.056749e-08	3.715776e+01	6.911553e+02
2.110000e-06	5.241788e-06	1.046297e-08	3.632545e+01	6.836887e+02
2.120000e-06	5.119779e-06	1.032971e-08	3.547994e+01	6.760207e+02
2.130000e-06	4.995951e-06	1.020612e-08	3.462181e+01	6.681631e+02
2.140000e-06	4.870210e-06	1.010002e-08	3.375043e+01	6.601220e+02
2.150000e-06	4.742731e-06	9.987136e-09	3.286700e+01	6.518955e+02
2.160000e-06	4.613585e-06	9.858160e-09	3.197203e+01	6.434732e+02
2.170000e-06	4.482762e-06	9.713105e-09	3.106543e+01	6.348367e+02
2.180000e-06	4.350208e-06	9.574173e-09	3.014683e+01	6.259613e+02
2.190000e-06	4.216040e-06	9.428500e-09	2.921705e+01	6.168194e+02
2.200000e-06	4.080374e-06	9.286793e-09	2.827689e+01	6.073839e+02
2.210000e-06	3.943209e-06	9.142586e-09	2.732634e+01	5.976315e+02
2.220000e-06	3.804412e-06	8.995574e-09	2.636448e+01	5.875461e+02
2.230000e-06	3.664035e-06	8.834856e-09	2.539167e+01	5.771203e+02
2.240000e-06	3.522326e-06	8.672541e-09	2.440963e+01	5.663557e+02
2.250000e-06	3.379356e-06	8.509361e-09	2.341885e+01	5.552616e+02
2.260000e-06	3.235101e-06	8.341737e-09	2.241917e+01	5.438523e+02
2.270000e-06	3.089632e-06	8.165091e-09	2.141107e+01	5.321429e+02
2.280000e-06	2.943053e-06	7.979610e-09	2.039528e+01	5.201456e+02
2.290000e-06	2.795358e-06	7.795837e-09	1.937176e+01	5.078652e+02
2.300000e-06	2.646609e-06	7.609070e-09	1.834093e+01	4.952961e+02
2.310000e-06	2.496973e-06	7.413700e-09	1.730396e+01	4.824211e+02
2.320000e-06	2.346524e-06	7.207623e-09	1.626135e+01	4.692113e+02
2.330000e-06	2.195317e-06	6.994076e-09	1.521349e+01	4.556285e+02
2.340000e-06	2.043398e-06	6.775530e-09	1.416070e+01	4.416288e+02
2.350000e-06	1.890750e-06	6.553516e-09	1.310285e+01	4.271680e+02
2.360000e-06	1.737523e-06	6.327276e-09	1.204099e+01	4.122060e+02
2.370000e-06	1.583787e-06	6.091215e-09	1.097560e+01	3.967115e+02
2.380000e-06	1.429571e-06	5.849489e-09	9.906892e+00	3.806651e+02
2.390000e-06	1.274826e-06	5.599050e-09	8.834512e+00	3.640594e+02
2.400000e-06	1.119542e-06	5.338126e-09	7.758401e+00	3.468979e+02
2.410000e-06	9.637909e-07	5.072567e-09	6.679046e+00	3.291896e+02
2.420000e-06	8.076389e-07	4.799662e-09	5.596917e+00	3.109437e+02
2.430000e-06	6.511619e-07	4.515173e-09	4.512536e+00	2.921611e+02
2.440000e-06	4.944321e-07	4.217441e-09	3.426402e+00	2.728271e+02
2.450000e-06	3.375437e-07	3.912007e-09	2.339169e+00	2.529053e+02
2.460000e-06	1.804774e-07	3.597146e-09	1.250704e+00	2.323332e+02
2.470000e-06	2.334944e-08	3.267224e-09	1.618110e-01	2.110220e+02
2.480000e-06	-1.337778e-07	2.922865e-09	-9.270766e-01	1.888607e+02
2.490000e-06	-2.909004e-07	2.564754e-09	-2.015933e+00	1.657239e+02
2.500000e-06	-4.479462e-07	2.191306e-09	-3.104256e+00	1.414835e+02
2.510000e-06	-6.048964e-07	1.801392e-09	-4.191917e+00	1.160240e+02
2.520000e-06	-7.616980e-07	1.397358e-09	-5.278548e+00	8.925780e+01
2.530000e-06	-9.181884e-07	9.769464e-10	-6.363022e+00	6.114092e+01
2.540000e-06	-1.074202e-06	5.370619e-10	-7.444191e+00	3.168628e+01
2.550000e-06	-1.229727e-06	7.715171e-11	-8.521978e+00	9.727598e-01
2.560000e-06	-1.384727e-06	-4.033350e-10	-9.596125e+00	-3.085102e+01
2.570000e-06	-1.539178e-06	-9.046933e-10	-1.066647e+01	-6.356904e+01
2.580000e-06	-1.693138e-06	-1.424200e-09	-1.173341e+01	-9.690641e+01
2.590000e-06	-1.846520e-06	-1.952802e-09	-1.279633e+01	-1.305436e+02
2.600000e-06	-1.999196e-06	-2.480109e-09	-1.385438e+01	-1.641351e+02
2.610000e-06	-2.151165e-06	-2.998336e-09	-1.490752e+01	-1.973304e+02
2.620000e-06	-2.302268e-06	-3.498192e-09	-1.595466e+01	-2.297960e+02
2.630000e-06	-2.452467e-06	-3.974200e-09	-1.699553e+01	-2.612353e+02
2.640000e-06	-2.601896e-06	-4.428744e-09	-1.803107e+01	-2.914055e+02
2.650000e-06	-2.750308e-06	-4.861054e-09	-1.905956e+01	-3.201289e+02
2.660000e-06	-2.897533e-06	-5.271728e-09	-2.007983e+01	-3.472987e+02
2.670000e-06	-3.043708e-06	-5.661468e-09	-2.109282e+01	-3.728779e+02
2.680000e-06	-3.188765e-06	-6.030017e-09	-2.209806e+01	-3.968933e+02
2.690000e-06	-3.332583e-06	-6.377904e-09	-2.309471e+01	-4.194235e+02
2.700000e-06	-3.475214e-06	-6.705705e-09	-2.408315e+01	-4.405849e+02
2.710000e-06	-3.616577e-06	-7.014255e-09	-2.506278e+01	-4.605151e+02
2.720000e-06	-3.756451e-06	-7.306695e-09	-2.603211e+01	-4.793579e+02
2.730000e-06	-3.894889e-06	-7.584576e-09	-2.699148e+01	-4.972489e+02
2.740000e-06	-4.031907e-06	-7.847573e-09	-2.794102e+01	-5.143059e+02
2.750000e-06	-4.167447e-06	-8.098189e-09	-2.888030e+01	-5.306218e+02
2.760000e-06	-4.301579e-06	-8.336604e-09	-2.980983e+01	-5.462633e+02
2.770000e-06	-4.434168e-06	-8.564762e-09	-3.072867e+01	-5.612720e+02
2.780000e-06	-4.565150e-06	-8.784914e-09	-3.163638e+01	-5.756696e+02
2.790000e-06	-4.694623e-06	-8.997682e-09	-3.253362e+01	-5.894645e+02
2.800000e-06	-4.822511e-06	-9.202019e-09	-3.341988e+01	-6.026594e+02
2.810000e-06	-4.948762e-06	-9.397010e-09	-3.429479e+01	-6.152576e+02
2.820000e-06	-5.073209e-06	-9.581576e-09	-3.515721e+01	-6.272689e+02
2.830000e-06	-5.195809e-06	-9.754323e-09	-3.600682e+01	-6.387122e+02
2.840000e-06	-5.316622e-06	-9.919224e-09	-3.684406e+01	-6.496163e+02
2.850000e-06	-5.435483e-06	-1.007732e-08	-3.766776e+01	-6.600186e+02
2.860000e-06	-5.552097e-06	-1.023044e-08	-3.847589e+01	-6.699610e+02
2.870000e-06	-5.666427e-06	-1.037869e-08	-3.926819e+01	-6.794863e+02
2.880000e-06	-5.778501e-06	-1.051997e-08	-4.004487e+01	-6.886333e+02
2.890000e-06	-5.888341e-06	-1.065674e-08	-4.080605e+01	-6.974329e+02
2.900000e-06	-5.996179e-06	-1.078782e-08	-4.155337e+01	-7.059059e+02
2.910000e-06	-6.101985e-06	-1.091311e-08	-4.228660e+01	-7.140621e+02
2.920000e-06	-6.205549e-06	-1.103407e-08	-4.300430e+01	-7.219016e+02
2.930000e-06	-6.306690e-06	-1.115007e-08	-4.370520e+01	-7.294173e+02
2.940000e-06	-6.405523e-06	-1.125725e-08	-4.439011e+01	-7.365987e+02
