# Temperatura_=_58.18
# Concentracion g/m^3_=_15000.0
# C_Vs_to_Am_M_A/Vsm_=_65563218390.804596
# pendiente_HvsI_1/m_=_3716.3
# ordenada_HvsI_A/m_=_1297.0
# frecuencia_Hz_=_302339.16364126833

Tiempo_(s)	Campo_(V.s)	Magnetizacion_(V.s)	Campo_(kA/m)	Magnetizacion_(A/m)
0.000000e+00	-8.108621e-06	-1.138416e-08	-5.692128e+01	-7.443370e+02
1.000000e-08	-8.106255e-06	-1.138445e-08	-5.690467e+01	-7.440218e+02
2.000000e-08	-8.101187e-06	-1.137921e-08	-5.686910e+01	-7.435718e+02
3.000000e-08	-8.093494e-06	-1.137210e-08	-5.681509e+01	-7.430029e+02
4.000000e-08	-8.083000e-06	-1.136151e-08	-5.674143e+01	-7.423326e+02
5.000000e-08	-8.069537e-06	-1.134804e-08	-5.664692e+01	-7.415778e+02
6.000000e-08	-8.053153e-06	-1.133194e-08	-5.653191e+01	-7.407535e+02
7.000000e-08	-8.034252e-06	-1.131225e-08	-5.639922e+01	-7.398707e+02
8.000000e-08	-8.013007e-06	-1.129265e-08	-5.625009e+01	-7.389356e+02
9.000000e-08	-7.989017e-06	-1.131788e-08	-5.608168e+01	-7.379495e+02
1.000000e-07	-7.961873e-06	-1.130676e-08	-5.589114e+01	-7.369087e+02
1.100000e-07	-7.931582e-06	-1.126450e-08	-5.567850e+01	-7.358061e+02
1.200000e-07	-7.898354e-06	-1.123611e-08	-5.544524e+01	-7.346315e+02
1.300000e-07	-7.862290e-06	-1.120652e-08	-5.519208e+01	-7.333734e+02
1.400000e-07	-7.823728e-06	-1.116453e-08	-5.492138e+01	-7.320202e+02
1.500000e-07	-7.782926e-06	-1.111261e-08	-5.463496e+01	-7.305609e+02
1.600000e-07	-7.739733e-06	-1.115139e-08	-5.433175e+01	-7.289858e+02
1.700000e-07	-7.693896e-06	-1.108318e-08	-5.400998e+01	-7.272866e+02
1.800000e-07	-7.645226e-06	-1.102075e-08	-5.366832e+01	-7.254563e+02
1.900000e-07	-7.593589e-06	-1.105690e-08	-5.330584e+01	-7.234886e+02
2.000000e-07	-7.539028e-06	-1.098847e-08	-5.292283e+01	-7.213782e+02
2.100000e-07	-7.481674e-06	-1.096078e-08	-5.252021e+01	-7.191196e+02
2.200000e-07	-7.421659e-06	-1.092811e-08	-5.209892e+01	-7.167077e+02
2.300000e-07	-7.359050e-06	-1.088102e-08	-5.165941e+01	-7.141376e+02
2.400000e-07	-7.293666e-06	-1.084847e-08	-5.120042e+01	-7.114052e+02
2.500000e-07	-7.225436e-06	-1.078224e-08	-5.072146e+01	-7.085076e+02
2.600000e-07	-7.154458e-06	-1.075411e-08	-5.022320e+01	-7.054439e+02
2.700000e-07	-7.080665e-06	-1.069558e-08	-4.970519e+01	-7.022156e+02
2.800000e-07	-7.004058e-06	-1.063243e-08	-4.916742e+01	-6.988270e+02
2.900000e-07	-6.924641e-06	-1.056932e-08	-4.860993e+01	-6.952845e+02
3.000000e-07	-6.842586e-06	-1.053130e-08	-4.803391e+01	-6.915968e+02
3.100000e-07	-6.758216e-06	-1.049307e-08	-4.744165e+01	-6.877730e+02
3.200000e-07	-6.671520e-06	-1.040543e-08	-4.683305e+01	-6.838220e+02
3.300000e-07	-6.582383e-06	-1.035964e-08	-4.620733e+01	-6.797508e+02
3.400000e-07	-6.490817e-06	-1.029640e-08	-4.556454e+01	-6.755632e+02
3.500000e-07	-6.396941e-06	-1.022547e-08	-4.490555e+01	-6.712591e+02
3.600000e-07	-6.300802e-06	-1.015515e-08	-4.423067e+01	-6.668337e+02
3.700000e-07	-6.202304e-06	-1.009258e-08	-4.353923e+01	-6.622783e+02
3.800000e-07	-6.101544e-06	-1.002484e-08	-4.283191e+01	-6.575807e+02
3.900000e-07	-5.998599e-06	-9.934935e-09	-4.210925e+01	-6.527264e+02
4.000000e-07	-5.893484e-06	-9.860152e-09	-4.137136e+01	-6.477011e+02
4.100000e-07	-5.786306e-06	-9.780362e-09	-4.061899e+01	-6.424915e+02
4.200000e-07	-5.677126e-06	-9.702898e-09	-3.985256e+01	-6.370875e+02
4.300000e-07	-5.565855e-06	-9.608344e-09	-3.907146e+01	-6.314833e+02
4.400000e-07	-5.452503e-06	-9.523251e-09	-3.827574e+01	-6.256773e+02
4.500000e-07	-5.337065e-06	-9.436619e-09	-3.746538e+01	-6.196722e+02
4.600000e-07	-5.219539e-06	-9.344388e-09	-3.664037e+01	-6.134737e+02
4.700000e-07	-5.100112e-06	-9.247182e-09	-3.580201e+01	-6.070889e+02
4.800000e-07	-4.978892e-06	-9.148554e-09	-3.495106e+01	-6.005240e+02
4.900000e-07	-4.855856e-06	-9.047496e-09	-3.408737e+01	-5.937829e+02
5.000000e-07	-4.731056e-06	-8.936819e-09	-3.321129e+01	-5.868647e+02
5.100000e-07	-4.604586e-06	-8.828313e-09	-3.232349e+01	-5.797633e+02
5.200000e-07	-4.476481e-06	-8.714005e-09	-3.142422e+01	-5.724670e+02
5.300000e-07	-4.346698e-06	-8.598414e-09	-3.051315e+01	-5.649594e+02
5.400000e-07	-4.215221e-06	-8.472924e-09	-2.959021e+01	-5.572207e+02
5.500000e-07	-4.082293e-06	-8.349267e-09	-2.865708e+01	-5.492300e+02
5.600000e-07	-3.947867e-06	-8.224679e-09	-2.771342e+01	-5.409678e+02
5.700000e-07	-3.811869e-06	-8.097311e-09	-2.675874e+01	-5.324181e+02
5.800000e-07	-3.674470e-06	-7.963009e-09	-2.579422e+01	-5.235704e+02
5.900000e-07	-3.535564e-06	-7.822822e-09	-2.481912e+01	-5.144204e+02
6.000000e-07	-3.395074e-06	-7.679300e-09	-2.383290e+01	-5.049697e+02
6.100000e-07	-3.253186e-06	-7.528753e-09	-2.283687e+01	-4.952248e+02
6.200000e-07	-3.110032e-06	-7.376232e-09	-2.183195e+01	-4.851945e+02
6.300000e-07	-2.965684e-06	-7.216851e-09	-2.081865e+01	-4.748872e+02
6.400000e-07	-2.820177e-06	-7.055775e-09	-1.979721e+01	-4.643079e+02
6.500000e-07	-2.673633e-06	-6.889308e-09	-1.876850e+01	-4.534552e+02
6.600000e-07	-2.526191e-06	-6.719376e-09	-1.773347e+01	-4.423197e+02
6.700000e-07	-2.377967e-06	-6.544432e-09	-1.669297e+01	-4.308833e+02
6.800000e-07	-2.229081e-06	-6.362996e-09	-1.564781e+01	-4.191194e+02
6.900000e-07	-2.079467e-06	-6.176541e-09	-1.459754e+01	-4.069954e+02
7.000000e-07	-1.929066e-06	-5.983382e-09	-1.354175e+01	-3.944753e+02
7.100000e-07	-1.777906e-06	-5.786206e-09	-1.248063e+01	-3.815241e+02
7.200000e-07	-1.626145e-06	-5.580499e-09	-1.141529e+01	-3.681106e+02
7.300000e-07	-1.473946e-06	-5.368944e-09	-1.034688e+01	-3.542111e+02
7.400000e-07	-1.321312e-06	-5.150306e-09	-9.275409e+00	-3.398113e+02
7.500000e-07	-1.168181e-06	-4.925617e-09	-8.200455e+00	-3.249059e+02
7.600000e-07	-1.014664e-06	-4.694492e-09	-7.122785e+00	-3.094970e+02
7.700000e-07	-8.608133e-07	-4.454348e-09	-6.042778e+00	-2.935906e+02
7.800000e-07	-7.066197e-07	-4.205924e-09	-4.960363e+00	-2.771911e+02
7.900000e-07	-5.521936e-07	-3.949108e-09	-3.876315e+00	-2.602959e+02
8.000000e-07	-3.975897e-07	-3.684818e-09	-2.791019e+00	-2.428890e+02
8.100000e-07	-2.428747e-07	-3.409615e-09	-1.704943e+00	-2.249369e+02
8.200000e-07	-8.803280e-08	-3.122176e-09	-6.179769e-01	-2.063858e+02
8.300000e-07	6.692476e-08	-2.823905e-09	4.698016e-01	-1.871618e+02
8.400000e-07	2.218979e-07	-2.514395e-09	1.557690e+00	-1.671744e+02
8.500000e-07	3.767860e-07	-2.191587e-09	2.644981e+00	-1.463231e+02
8.600000e-07	5.315403e-07	-1.857821e-09	3.731332e+00	-1.245073e+02
8.700000e-07	6.861469e-07	-1.512230e-09	4.816647e+00	-1.016380e+02
8.800000e-07	8.405727e-07	-1.151441e-09	5.900692e+00	-7.765009e+01
8.900000e-07	9.947560e-07	-7.732102e-10	6.983036e+00	-5.251501e+01
9.000000e-07	1.148601e-06	-3.774727e-10	8.063004e+00	-2.625079e+01
9.100000e-07	1.302057e-06	3.467630e-11	9.140241e+00	1.070784e+00
9.200000e-07	1.455016e-06	4.642680e-10	1.021399e+01	2.932132e+01
9.300000e-07	1.607401e-06	9.070008e-10	1.128371e+01	5.831779e+01
9.400000e-07	1.759239e-06	1.360103e-09	1.234959e+01	8.782941e+01
9.500000e-07	1.910488e-06	1.817539e-09	1.341134e+01	1.175890e+02
9.600000e-07	2.061004e-06	2.273936e-09	1.446793e+01	1.473077e+02
9.700000e-07	2.210737e-06	2.724186e-09	1.551903e+01	1.766921e+02
9.800000e-07	2.359676e-06	3.161968e-09	1.656456e+01	2.054616e+02
9.900000e-07	2.507719e-06	3.585421e-09	1.760381e+01	2.333647e+02
1.000000e-06	2.654786e-06	3.990257e-09	1.863619e+01	2.601929e+02
1.010000e-06	2.800863e-06	4.374302e-09	1.966163e+01	2.857899e+02
1.020000e-06	2.945857e-06	4.738923e-09	2.067947e+01	3.100573e+02
1.030000e-06	3.089687e-06	5.085103e-09	2.168913e+01	3.329541e+02
1.040000e-06	3.232420e-06	5.411152e-09	2.269110e+01	3.544925e+02
1.050000e-06	3.373960e-06	5.716978e-09	2.368468e+01	3.747292e+02
1.060000e-06	3.514191e-06	6.005768e-09	2.466908e+01	3.937540e+02
1.070000e-06	3.652993e-06	6.279426e-09	2.564345e+01	4.116773e+02
1.080000e-06	3.790338e-06	6.538656e-09	2.660759e+01	4.286175e+02
1.090000e-06	3.926285e-06	6.785467e-09	2.756193e+01	4.446892e+02
1.100000e-06	4.060806e-06	7.022127e-09	2.850624e+01	4.599947e+02
1.110000e-06	4.193930e-06	7.245874e-09	2.944075e+01	4.746177e+02
1.120000e-06	4.325568e-06	7.457419e-09	3.036483e+01	4.886210e+02
1.130000e-06	4.455577e-06	7.659752e-09	3.127747e+01	5.020466e+02
1.140000e-06	4.584020e-06	7.854645e-09	3.217912e+01	5.149188e+02
1.150000e-06	4.710982e-06	8.038669e-09	3.307037e+01	5.272491e+02
1.160000e-06	4.836388e-06	8.211519e-09	3.395071e+01	5.390417e+02
1.170000e-06	4.960077e-06	8.377578e-09	3.481899e+01	5.502988e+02
1.180000e-06	5.081962e-06	8.538180e-09	3.567460e+01	5.610253e+02
1.190000e-06	5.202090e-06	8.694594e-09	3.651788e+01	5.712322e+02
1.200000e-06	5.320369e-06	8.845522e-09	3.734818e+01	5.809375e+02
1.210000e-06	5.436592e-06	8.989551e-09	3.816405e+01	5.901664e+02
1.220000e-06	5.550648e-06	9.125885e-09	3.896471e+01	5.989491e+02
1.230000e-06	5.662567e-06	9.255248e-09	3.975036e+01	6.073185e+02
1.240000e-06	5.772474e-06	9.378273e-09	4.052188e+01	6.153071e+02
1.250000e-06	5.880383e-06	9.494996e-09	4.127939e+01	6.229441e+02
1.260000e-06	5.986089e-06	9.604938e-09	4.202143e+01	6.302535e+02
1.270000e-06	6.089565e-06	9.709438e-09	4.274782e+01	6.372530e+02
1.280000e-06	6.190904e-06	9.810057e-09	4.345921e+01	6.439544e+02
1.290000e-06	6.289907e-06	9.905324e-09	4.415419e+01	6.503642e+02
1.300000e-06	6.386479e-06	9.996638e-09	4.483211e+01	6.564862e+02
1.310000e-06	6.480741e-06	1.008409e-08	4.549382e+01	6.623238e+02
1.320000e-06	6.572735e-06	1.016626e-08	4.613960e+01	6.678817e+02
1.330000e-06	6.662356e-06	1.024457e-08	4.676872e+01	6.731684e+02
1.340000e-06	6.749561e-06	1.032007e-08	4.738089e+01	6.781964e+02
1.350000e-06	6.834447e-06	1.039151e-08	4.797678e+01	6.829828e+02
1.360000e-06	6.916872e-06	1.046093e-08	4.855539e+01	6.875474e+02
1.370000e-06	6.996781e-06	1.052839e-08	4.911633e+01	6.919118e+02
1.380000e-06	7.074197e-06	1.059354e-08	4.965978e+01	6.960961e+02
1.390000e-06	7.148898e-06	1.065544e-08	5.018417e+01	7.001174e+02
1.400000e-06	7.220910e-06	1.071429e-08	5.068969e+01	7.039870e+02
1.410000e-06	7.290425e-06	1.077181e-08	5.117767e+01	7.077096e+02
1.420000e-06	7.357345e-06	1.082506e-08	5.164744e+01	7.112827e+02
1.430000e-06	7.421604e-06	1.087547e-08	5.209853e+01	7.146974e+02
1.440000e-06	7.483336e-06	1.092257e-08	5.253188e+01	7.179401e+02
1.450000e-06	7.542489e-06	1.096750e-08	5.294713e+01	7.209949e+02
1.460000e-06	7.598986e-06	1.100790e-08	5.334373e+01	7.238461e+02
1.470000e-06	7.652728e-06	1.104366e-08	5.372098e+01	7.264812e+02
1.480000e-06	7.703369e-06	1.107985e-08	5.407648e+01	7.288932e+02
1.490000e-06	7.750930e-06	1.111567e-08	5.441035e+01	7.310815e+02
1.500000e-06	7.795752e-06	1.114648e-08	5.472499e+01	7.330530e+02
1.510000e-06	7.837820e-06	1.117193e-08	5.502030e+01	7.348212e+02
1.520000e-06	7.877005e-06	1.119593e-08	5.529538e+01	7.364043e+02
1.530000e-06	7.913466e-06	1.121857e-08	5.555132e+01	7.378234e+02
1.540000e-06	7.947153e-06	1.123897e-08	5.578780e+01	7.390998e+02
1.550000e-06	7.977950e-06	1.125661e-08	5.600399e+01	7.402520e+02
1.560000e-06	8.005988e-06	1.127162e-08	5.620081e+01	7.412939e+02
1.570000e-06	8.031150e-06	1.128557e-08	5.637745e+01	7.422334e+02
1.580000e-06	8.053357e-06	1.129952e-08	5.653334e+01	7.430718e+02
1.590000e-06	8.072724e-06	1.131140e-08	5.666929e+01	7.438044e+02
1.600000e-06	8.089151e-06	1.131819e-08	5.678461e+01	7.444219e+02
1.610000e-06	8.102545e-06	1.132221e-08	5.687863e+01	7.449125e+02
1.620000e-06	8.112840e-06	1.132666e-08	5.695090e+01	7.452640e+02
1.630000e-06	8.120028e-06	1.133033e-08	5.700136e+01	7.454664e+02
1.640000e-06	8.124311e-06	1.133080e-08	5.703143e+01	7.455138e+02
1.650000e-06	8.125746e-06	1.132947e-08	5.704150e+01	7.454055e+02
1.660000e-06	8.124375e-06	1.132263e-08	5.703188e+01	7.451466e+02
1.670000e-06	8.120340e-06	1.131864e-08	5.700355e+01	7.447477e+02
1.680000e-06	8.113569e-06	1.131526e-08	5.695602e+01	7.442232e+02
1.690000e-06	8.104054e-06	1.130891e-08	5.688922e+01	7.435903e+02
1.700000e-06	8.091746e-06	1.130083e-08	5.680282e+01	7.428666e+02
1.710000e-06	8.076603e-06	1.129347e-08	5.669652e+01	7.420678e+02
1.720000e-06	8.058912e-06	1.128928e-08	5.657234e+01	7.412067e+02
1.730000e-06	8.038926e-06	1.127223e-08	5.643204e+01	7.402915e+02
1.740000e-06	8.016266e-06	1.120592e-08	5.627297e+01	7.393253e+02
1.750000e-06	7.990185e-06	1.119930e-08	5.608989e+01	7.383065e+02
1.760000e-06	7.960299e-06	1.119713e-08	5.588008e+01	7.372290e+02
1.770000e-06	7.927095e-06	1.117323e-08	5.564700e+01	7.360838e+02
1.780000e-06	7.891518e-06	1.117287e-08	5.539726e+01	7.348596e+02
1.790000e-06	7.853688e-06	1.121065e-08	5.513170e+01	7.335449e+02
1.800000e-06	7.813661e-06	1.112937e-08	5.485071e+01	7.321283e+02
1.810000e-06	7.771565e-06	1.110715e-08	5.455521e+01	7.305996e+02
1.820000e-06	7.726810e-06	1.118519e-08	5.424103e+01	7.289498e+02
1.830000e-06	7.679250e-06	1.107238e-08	5.390716e+01	7.271715e+02
1.840000e-06	7.628916e-06	1.110981e-08	5.355383e+01	7.252582e+02
1.850000e-06	7.575491e-06	1.104836e-08	5.317879e+01	7.232043e+02
1.860000e-06	7.519192e-06	1.098265e-08	5.278358e+01	7.210043e+02
1.870000e-06	7.460232e-06	1.099282e-08	5.236969e+01	7.186530e+02
1.880000e-06	7.398558e-06	1.088562e-08	5.193675e+01	7.161454e+02
1.890000e-06	7.334077e-06	1.092201e-08	5.148410e+01	7.134769e+02
1.900000e-06	7.266741e-06	1.084616e-08	5.101142e+01	7.106441e+02
1.910000e-06	7.196547e-06	1.078550e-08	5.051866e+01	7.076454e+02
1.920000e-06	7.123536e-06	1.076688e-08	5.000614e+01	7.044812e+02
1.930000e-06	7.047923e-06	1.070157e-08	4.947534e+01	7.011546e+02
1.940000e-06	6.969520e-06	1.068051e-08	4.892497e+01	6.976715e+02
1.950000e-06	6.888357e-06	1.058076e-08	4.835522e+01	6.940395e+02
1.960000e-06	6.804727e-06	1.055618e-08	4.776815e+01	6.902678e+02
1.970000e-06	6.718572e-06	1.048022e-08	4.716335e+01	6.863656e+02
1.980000e-06	6.629885e-06	1.040594e-08	4.654078e+01	6.823407e+02
1.990000e-06	6.538808e-06	1.037075e-08	4.590143e+01	6.781984e+02
2.000000e-06	6.445495e-06	1.030008e-08	4.524639e+01	6.739401e+02
2.010000e-06	6.349890e-06	1.023949e-08	4.457526e+01	6.695629e+02
2.020000e-06	6.252018e-06	1.013952e-08	4.388822e+01	6.650597e+02
2.030000e-06	6.151946e-06	1.008549e-08	4.318573e+01	6.604193e+02
2.040000e-06	6.049597e-06	1.001121e-08	4.246725e+01	6.556281e+02
2.050000e-06	5.945033e-06	9.944488e-09	4.173323e+01	6.506714e+02
2.060000e-06	5.838413e-06	9.863949e-09	4.098477e+01	6.455353e+02
2.070000e-06	5.729893e-06	9.776672e-09	4.022298e+01	6.402085e+02
2.080000e-06	5.619362e-06	9.689260e-09	3.944706e+01	6.346831e+02
2.090000e-06	5.506716e-06	9.593091e-09	3.865631e+01	6.289560e+02
2.100000e-06	5.391955e-06	9.515400e-09	3.785070e+01	6.230283e+02
2.110000e-06	5.275166e-06	9.427407e-09	3.703087e+01	6.169048e+02
2.120000e-06	5.156322e-06	9.335331e-09	3.619660e+01	6.105921e+02
2.130000e-06	5.035525e-06	9.225985e-09	3.534862e+01	6.040971e+02
2.140000e-06	4.912966e-06	9.128149e-09	3.448827e+01	5.974248e+02
2.150000e-06	4.788608e-06	9.025767e-09	3.361530e+01	5.905763e+02
2.160000e-06	4.662541e-06	8.923976e-09	3.273033e+01	5.835477e+02
2.170000e-06	4.534733e-06	8.810967e-09	3.183314e+01	5.763295e+02
2.180000e-06	4.405253e-06	8.696741e-09	3.092421e+01	5.689069e+02
2.190000e-06	4.274170e-06	8.579899e-09	3.000402e+01	5.612613e+02
2.200000e-06	4.141582e-06	8.457007e-09	2.907327e+01	5.533718e+02
2.210000e-06	4.007516e-06	8.331593e-09	2.813215e+01	5.452181e+02
2.220000e-06	3.871857e-06	8.203308e-09	2.717985e+01	5.367827e+02
2.230000e-06	3.734652e-06	8.072330e-09	2.621669e+01	5.280527e+02
2.240000e-06	3.596040e-06	7.932811e-09	2.524365e+01	5.190213e+02
2.250000e-06	3.456076e-06	7.795383e-09	2.426113e+01	5.096880e+02
2.260000e-06	3.314808e-06	7.654465e-09	2.326944e+01	5.000575e+02
2.270000e-06	3.172275e-06	7.507402e-09	2.226889e+01	4.901379e+02
2.280000e-06	3.028390e-06	7.348616e-09	2.125884e+01	4.799384e+02
2.290000e-06	2.883316e-06	7.187527e-09	2.024044e+01	4.694654e+02
2.300000e-06	2.737318e-06	7.025669e-09	1.921556e+01	4.587205e+02
2.310000e-06	2.590366e-06	6.860800e-09	1.818398e+01	4.476976e+02
2.320000e-06	2.442505e-06	6.690265e-09	1.714602e+01	4.363819e+02
2.330000e-06	2.293850e-06	6.511854e-09	1.610247e+01	4.247500e+02
2.340000e-06	2.144422e-06	6.325249e-09	1.505351e+01	4.127714e+02
2.350000e-06	1.994306e-06	6.132215e-09	1.399972e+01	4.004110e+02
2.360000e-06	1.843520e-06	5.935165e-09	1.294123e+01	3.876330e+02
2.370000e-06	1.692101e-06	5.732808e-09	1.187829e+01	3.744041e+02
2.380000e-06	1.540095e-06	5.523884e-09	1.081123e+01	3.606976e+02
2.390000e-06	1.387494e-06	5.309217e-09	9.739996e+00	3.464952e+02
2.400000e-06	1.234403e-06	5.087178e-09	8.665322e+00	3.317883e+02
2.410000e-06	1.080938e-06	4.856240e-09	7.588023e+00	3.165763e+02
2.420000e-06	9.271408e-07	4.618663e-09	6.508387e+00	3.008644e+02
2.430000e-06	7.730948e-07	4.373770e-09	5.427008e+00	2.846582e+02
2.440000e-06	6.188287e-07	4.120246e-09	4.344083e+00	2.679585e+02
2.450000e-06	4.643564e-07	3.858312e-09	3.259711e+00	2.507553e+02
2.460000e-06	3.097020e-07	3.588384e-09	2.174061e+00	2.330224e+02
2.470000e-06	1.548861e-07	3.307158e-09	1.087277e+00	2.147141e+02
2.480000e-06	-5.343722e-11	3.013318e-09	-3.751211e-04	1.957643e+02
2.490000e-06	-1.550747e-07	2.708532e-09	-1.088601e+00	1.760881e+02
2.500000e-06	-3.100217e-07	2.392227e-09	-2.176305e+00	1.555882e+02
2.510000e-06	-4.648270e-07	2.063193e-09	-3.263015e+00	1.341626e+02
2.520000e-06	-6.194599e-07	1.722071e-09	-4.348514e+00	1.117163e+02
2.530000e-06	-7.739120e-07	1.368427e-09	-5.432745e+00	8.817332e+01
2.540000e-06	-9.281549e-07	9.980106e-10	-6.515506e+00	6.348930e+01
2.550000e-06	-1.082097e-06	6.087576e-10	-7.596159e+00	3.766296e+01
2.560000e-06	-1.235722e-06	2.014422e-10	-8.674582e+00	1.074437e+01
2.570000e-06	-1.388919e-06	-2.237294e-10	-9.750002e+00	-1.716036e+01
2.580000e-06	-1.541572e-06	-6.640931e-10	-1.082160e+01	-4.588912e+01
2.590000e-06	-1.693607e-06	-1.114933e-09	-1.188886e+01	-7.522874e+01
2.600000e-06	-1.844940e-06	-1.571901e-09	-1.295120e+01	-1.049247e+02
2.610000e-06	-1.995564e-06	-2.031012e-09	-1.400856e+01	-1.346949e+02
2.620000e-06	-2.145475e-06	-2.489979e-09	-1.506091e+01	-1.642454e+02
2.630000e-06	-2.294570e-06	-2.940496e-09	-1.610753e+01	-1.932887e+02
2.640000e-06	-2.442798e-06	-3.375167e-09	-1.714807e+01	-2.215599e+02
2.650000e-06	-2.590136e-06	-3.790960e-09	-1.818236e+01	-2.488323e+02
2.660000e-06	-2.736514e-06	-4.186155e-09	-1.920991e+01	-2.749283e+02
2.670000e-06	-2.881947e-06	-4.561666e-09	-2.023083e+01	-2.997262e+02
2.680000e-06	-3.026258e-06	-4.916466e-09	-2.124387e+01	-3.231631e+02
2.690000e-06	-3.169295e-06	-5.251059e-09	-2.224797e+01	-3.452309e+02
2.700000e-06	-3.311068e-06	-5.565980e-09	-2.324320e+01	-3.659700e+02
2.710000e-06	-3.451549e-06	-5.863917e-09	-2.422935e+01	-3.854588e+02
2.720000e-06	-3.590732e-06	-6.146628e-09	-2.520639e+01	-4.038012e+02
2.730000e-06	-3.728696e-06	-6.415783e-09	-2.617488e+01	-4.211137e+02
2.740000e-06	-3.865306e-06	-6.670971e-09	-2.713386e+01	-4.375138e+02
2.750000e-06	-4.000350e-06	-6.911585e-09	-2.808185e+01	-4.531094e+02
2.760000e-06	-4.133914e-06	-7.141972e-09	-2.901945e+01	-4.679921e+02
2.770000e-06	-4.266080e-06	-7.363156e-09	-2.994723e+01	-4.822330e+02
2.780000e-06	-4.396823e-06	-7.574302e-09	-3.086502e+01	-4.958820e+02
2.790000e-06	-4.526081e-06	-7.776009e-09	-3.177240e+01	-5.089699e+02
2.800000e-06	-4.653741e-06	-7.967721e-09	-3.266856e+01	-5.215126e+02
2.810000e-06	-4.779733e-06	-8.149985e-09	-3.355300e+01	-5.335164e+02
2.820000e-06	-4.904096e-06	-8.322721e-09	-3.442601e+01	-5.449837e+02
2.830000e-06	-5.026766e-06	-8.486244e-09	-3.528713e+01	-5.559180e+02
2.840000e-06	-5.147600e-06	-8.643360e-09	-3.613537e+01	-5.663275e+02
2.850000e-06	-5.266447e-06	-8.795352e-09	-3.696966e+01	-5.762275e+02
2.860000e-06	-5.383266e-06	-8.938896e-09	-3.778971e+01	-5.856404e+02
2.870000e-06	-5.497928e-06	-9.074630e-09	-3.859461e+01	-5.945948e+02
2.880000e-06	-5.610253e-06	-9.205796e-09	-3.938312e+01	-6.031228e+02
2.890000e-06	-5.720469e-06	-9.333124e-09	-4.015682e+01	-6.112575e+02
2.900000e-06	-5.828728e-06	-9.456288e-09	-4.091678e+01	-6.190297e+02
2.910000e-06	-5.934980e-06	-9.573445e-09	-4.166265e+01	-6.264656e+02
2.920000e-06	-6.039104e-06	-9.684004e-09	-4.239359e+01	-6.335854e+02
2.930000e-06	-6.140944e-06	-9.789073e-09	-4.310849e+01	-6.404031e+02
2.940000e-06	-6.240495e-06	-9.889151e-09	-4.380732e+01	-6.469271e+02
