# Temperatura_=_81.24
# Concentracion g/m^3_=_15000.0
# C_Vs_to_Am_M_A/Vsm_=_65563218390.804596
# pendiente_HvsI_1/m_=_3716.3
# ordenada_HvsI_A/m_=_1297.0
# frecuencia_Hz_=_302342.65240794414

Tiempo_(s)	Campo_(V.s)	Magnetizacion_(V.s)	Campo_(kA/m)	Magnetizacion_(A/m)
0.000000e+00	-8.161826e-06	-1.321841e-08	-5.690407e+01	-8.638615e+02
1.000000e-08	-8.157049e-06	-1.321112e-08	-5.687076e+01	-8.633455e+02
2.000000e-08	-8.149680e-06	-1.320028e-08	-5.681938e+01	-8.626741e+02
3.000000e-08	-8.139451e-06	-1.318994e-08	-5.674806e+01	-8.618659e+02
4.000000e-08	-8.126188e-06	-1.317834e-08	-5.665559e+01	-8.609400e+02
5.000000e-08	-8.110008e-06	-1.316235e-08	-5.654279e+01	-8.599137e+02
6.000000e-08	-8.091307e-06	-1.314154e-08	-5.641240e+01	-8.588014e+02
7.000000e-08	-8.070337e-06	-1.311816e-08	-5.626620e+01	-8.576132e+02
8.000000e-08	-8.046654e-06	-1.312189e-08	-5.610109e+01	-8.563547e+02
9.000000e-08	-8.019733e-06	-1.312785e-08	-5.591340e+01	-8.550269e+02
1.000000e-07	-7.989613e-06	-1.308914e-08	-5.570340e+01	-8.536270e+02
1.100000e-07	-7.956535e-06	-1.304448e-08	-5.547278e+01	-8.521491e+02
1.200000e-07	-7.920611e-06	-1.301072e-08	-5.522232e+01	-8.505850e+02
1.300000e-07	-7.882089e-06	-1.296934e-08	-5.495375e+01	-8.489252e+02
1.400000e-07	-7.841217e-06	-1.290624e-08	-5.466879e+01	-8.471587e+02
1.500000e-07	-7.797958e-06	-1.287899e-08	-5.436719e+01	-8.452742e+02
1.600000e-07	-7.751992e-06	-1.289429e-08	-5.404671e+01	-8.432591e+02
1.700000e-07	-7.703153e-06	-1.282796e-08	-5.370621e+01	-8.411003e+02
1.800000e-07	-7.651503e-06	-1.278324e-08	-5.334610e+01	-8.387833e+02
1.900000e-07	-7.596905e-06	-1.276515e-08	-5.296545e+01	-8.362932e+02
2.000000e-07	-7.539427e-06	-1.270039e-08	-5.256471e+01	-8.336146e+02
2.100000e-07	-7.479301e-06	-1.266658e-08	-5.214551e+01	-8.307326e+02
2.200000e-07	-7.416569e-06	-1.261871e-08	-5.170815e+01	-8.276342e+02
2.300000e-07	-7.351093e-06	-1.256545e-08	-5.125165e+01	-8.243091e+02
2.400000e-07	-7.282810e-06	-1.249272e-08	-5.077558e+01	-8.207517e+02
2.500000e-07	-7.211739e-06	-1.242951e-08	-5.028008e+01	-8.169613e+02
2.600000e-07	-7.137770e-06	-1.239095e-08	-4.976437e+01	-8.129430e+02
2.700000e-07	-7.061007e-06	-1.232549e-08	-4.922918e+01	-8.087074e+02
2.800000e-07	-6.981472e-06	-1.224315e-08	-4.867466e+01	-8.042698e+02
2.900000e-07	-6.899213e-06	-1.216620e-08	-4.810116e+01	-7.996482e+02
3.000000e-07	-6.814598e-06	-1.211318e-08	-4.751122e+01	-7.948614e+02
3.100000e-07	-6.727615e-06	-1.204532e-08	-4.690478e+01	-7.899262e+02
3.200000e-07	-6.638141e-06	-1.196664e-08	-4.628097e+01	-7.848553e+02
3.300000e-07	-6.546288e-06	-1.189264e-08	-4.564057e+01	-7.796556e+02
3.400000e-07	-6.452038e-06	-1.180693e-08	-4.498346e+01	-7.743262e+02
3.500000e-07	-6.355458e-06	-1.171946e-08	-4.431011e+01	-7.688593e+02
3.600000e-07	-6.256608e-06	-1.163057e-08	-4.362093e+01	-7.632403e+02
3.700000e-07	-6.155467e-06	-1.154871e-08	-4.291577e+01	-7.574499e+02
3.800000e-07	-6.052100e-06	-1.146059e-08	-4.219511e+01	-7.514669e+02
3.900000e-07	-5.946597e-06	-1.135111e-08	-4.145954e+01	-7.452707e+02
4.000000e-07	-5.839011e-06	-1.123587e-08	-4.070945e+01	-7.388445e+02
4.100000e-07	-5.729343e-06	-1.113789e-08	-3.994485e+01	-7.321772e+02
4.200000e-07	-5.617586e-06	-1.105004e-08	-3.916568e+01	-7.252651e+02
4.300000e-07	-5.503721e-06	-1.094271e-08	-3.837182e+01	-7.181116e+02
4.400000e-07	-5.387659e-06	-1.082440e-08	-3.756264e+01	-7.107266e+02
4.500000e-07	-5.269500e-06	-1.071328e-08	-3.673883e+01	-7.031238e+02
4.600000e-07	-5.149541e-06	-1.060119e-08	-3.590248e+01	-6.953184e+02
4.700000e-07	-5.027821e-06	-1.047502e-08	-3.505385e+01	-6.873231e+02
4.800000e-07	-4.904238e-06	-1.035089e-08	-3.419223e+01	-6.791453e+02
4.900000e-07	-4.778847e-06	-1.022929e-08	-3.331802e+01	-6.707852e+02
5.000000e-07	-4.651755e-06	-1.009015e-08	-3.243193e+01	-6.622338e+02
5.100000e-07	-4.523001e-06	-9.945144e-09	-3.153426e+01	-6.534737e+02
5.200000e-07	-4.392539e-06	-9.812629e-09	-3.062468e+01	-6.444803e+02
5.300000e-07	-4.260382e-06	-9.675934e-09	-2.970329e+01	-6.352250e+02
5.400000e-07	-4.126680e-06	-9.518627e-09	-2.877112e+01	-6.256781e+02
5.500000e-07	-3.991426e-06	-9.359121e-09	-2.782813e+01	-6.158133e+02
5.600000e-07	-3.854668e-06	-9.209141e-09	-2.687466e+01	-6.056108e+02
5.700000e-07	-3.716397e-06	-9.052870e-09	-2.591063e+01	-5.950595e+02
5.800000e-07	-3.576506e-06	-8.883963e-09	-2.493532e+01	-5.841583e+02
5.900000e-07	-3.435163e-06	-8.716574e-09	-2.394988e+01	-5.729153e+02
6.000000e-07	-3.292480e-06	-8.545218e-09	-2.295510e+01	-5.613454e+02
6.100000e-07	-3.148486e-06	-8.358315e-09	-2.195117e+01	-5.494669e+02
6.200000e-07	-3.003288e-06	-8.166991e-09	-2.093886e+01	-5.372967e+02
6.300000e-07	-2.856950e-06	-7.980187e-09	-1.991859e+01	-5.248464e+02
6.400000e-07	-2.709635e-06	-7.789482e-09	-1.889152e+01	-5.121175e+02
6.500000e-07	-2.561516e-06	-7.586298e-09	-1.785883e+01	-4.990998e+02
6.600000e-07	-2.412562e-06	-7.377319e-09	-1.682033e+01	-4.857701e+02
6.700000e-07	-2.262770e-06	-7.167013e-09	-1.577598e+01	-4.720936e+02
6.800000e-07	-2.112170e-06	-6.949811e-09	-1.472600e+01	-4.580270e+02
6.900000e-07	-1.960870e-06	-6.726103e-09	-1.367114e+01	-4.435235e+02
7.000000e-07	-1.808934e-06	-6.499224e-09	-1.261185e+01	-4.285375e+02
7.100000e-07	-1.656358e-06	-6.264757e-09	-1.154809e+01	-4.130304e+02
7.200000e-07	-1.503156e-06	-6.020503e-09	-1.047997e+01	-3.969742e+02
7.300000e-07	-1.349405e-06	-5.768415e-09	-9.408018e+00	-3.803540e+02
7.400000e-07	-1.195178e-06	-5.508255e-09	-8.332750e+00	-3.631674e+02
7.500000e-07	-1.040554e-06	-5.241344e-09	-7.254718e+00	-3.454214e+02
7.600000e-07	-8.855799e-07	-4.966938e-09	-6.174243e+00	-3.271272e+02
7.700000e-07	-7.302553e-07	-4.681716e-09	-5.091324e+00	-3.082923e+02
7.800000e-07	-5.747349e-07	-4.387238e-09	-4.007039e+00	-2.889127e+02
7.900000e-07	-4.190419e-07	-4.082915e-09	-2.921551e+00	-2.689652e+02
8.000000e-07	-2.631302e-07	-3.766638e-09	-1.834538e+00	-2.484017e+02
8.100000e-07	-1.070746e-07	-3.435200e-09	-7.465215e-01	-2.271460e+02
8.200000e-07	4.906602e-08	-3.090989e-09	3.420872e-01	-2.050957e+02
8.300000e-07	2.052227e-07	-2.734963e-09	1.430808e+00	-1.821272e+02
8.400000e-07	3.613399e-07	-2.363857e-09	2.519254e+00	-1.581065e+02
8.500000e-07	5.174116e-07	-1.978263e-09	3.607382e+00	-1.329023e+02
8.600000e-07	6.733631e-07	-1.579186e-09	4.694672e+00	-1.064019e+02
8.700000e-07	8.290367e-07	-1.163975e-09	5.780025e+00	-7.852851e+01
8.800000e-07	9.844139e-07	-7.247079e-10	6.863311e+00	-4.925606e+01
8.900000e-07	1.139462e-06	-2.628672e-10	7.944300e+00	-1.862177e+01
9.000000e-07	1.294055e-06	2.185042e-10	9.022123e+00	1.326630e+01
9.100000e-07	1.448212e-06	7.188275e-10	1.009690e+01	4.622777e+01
9.200000e-07	1.601884e-06	1.236344e-09	1.116830e+01	8.001477e+01
9.300000e-07	1.754898e-06	1.765743e-09	1.223511e+01	1.143232e+02
9.400000e-07	1.907099e-06	2.297502e-09	1.329625e+01	1.488097e+02
9.500000e-07	2.058609e-06	2.824599e-09	1.435258e+01	1.831116e+02
9.600000e-07	2.209514e-06	3.339922e-09	1.540468e+01	2.168702e+02
9.700000e-07	2.359535e-06	3.838332e-09	1.645063e+01	2.497528e+02
9.800000e-07	2.508547e-06	4.316546e-09	1.748953e+01	2.814722e+02
9.900000e-07	2.656634e-06	4.771549e-09	1.852199e+01	3.118026e+02
1.000000e-06	2.803751e-06	5.200572e-09	1.954769e+01	3.405891e+02
1.010000e-06	2.949818e-06	5.606077e-09	2.056606e+01	3.677511e+02
1.020000e-06	3.094755e-06	5.990616e-09	2.157656e+01	3.932787e+02
1.030000e-06	3.238583e-06	6.351505e-09	2.257932e+01	4.172243e+02
1.040000e-06	3.381210e-06	6.692199e-09	2.357372e+01	4.396889e+02
1.050000e-06	3.522479e-06	7.017936e-09	2.455864e+01	4.608058e+02
1.060000e-06	3.662433e-06	7.328060e-09	2.553440e+01	4.807242e+02
1.070000e-06	3.801014e-06	7.617569e-09	2.650059e+01	4.995927e+02
1.080000e-06	3.938103e-06	7.890920e-09	2.745636e+01	5.175468e+02
1.090000e-06	4.073701e-06	8.153468e-09	2.840175e+01	5.346992e+02
1.100000e-06	4.207819e-06	8.403799e-09	2.933682e+01	5.511351e+02
1.110000e-06	4.340449e-06	8.642374e-09	3.026151e+01	5.669114e+02
1.120000e-06	4.471573e-06	8.870036e-09	3.117571e+01	5.820604e+02
1.130000e-06	4.601147e-06	9.089796e-09	3.207909e+01	5.965958e+02
1.140000e-06	4.729113e-06	9.298099e-09	3.297127e+01	6.105203e+02
1.150000e-06	4.855401e-06	9.492857e-09	3.385175e+01	6.238334e+02
1.160000e-06	4.980077e-06	9.679830e-09	3.472098e+01	6.365386e+02
1.170000e-06	5.103078e-06	9.859981e-09	3.557854e+01	6.486478e+02
1.180000e-06	5.224231e-06	1.003293e-08	3.642322e+01	6.601842e+02
1.190000e-06	5.343493e-06	1.020115e-08	3.725471e+01	6.711816e+02
1.200000e-06	5.460790e-06	1.036501e-08	3.807250e+01	6.816822e+02
1.210000e-06	5.575944e-06	1.052303e-08	3.887536e+01	6.917322e+02
1.220000e-06	5.688884e-06	1.067174e-08	3.966277e+01	7.013769e+02
1.230000e-06	5.799672e-06	1.081311e-08	4.043518e+01	7.106555e+02
1.240000e-06	5.908426e-06	1.094916e-08	4.119341e+01	7.195980e+02
1.250000e-06	6.015084e-06	1.108028e-08	4.193703e+01	7.282221e+02
1.260000e-06	6.119475e-06	1.120697e-08	4.266484e+01	7.365335e+02
1.270000e-06	6.221630e-06	1.132820e-08	4.337706e+01	7.445275e+02
1.280000e-06	6.321596e-06	1.144378e-08	4.407402e+01	7.521920e+02
1.290000e-06	6.419239e-06	1.155394e-08	4.475479e+01	7.595124e+02
1.300000e-06	6.514427e-06	1.165881e-08	4.541844e+01	7.664758e+02
1.310000e-06	6.607307e-06	1.175721e-08	4.606600e+01	7.730757e+02
1.320000e-06	6.697858e-06	1.185004e-08	4.669731e+01	7.793146e+02
1.330000e-06	6.785980e-06	1.193864e-08	4.731170e+01	7.852057e+02
1.340000e-06	6.871740e-06	1.202266e-08	4.790962e+01	7.907728e+02
1.350000e-06	6.955030e-06	1.210349e-08	4.849031e+01	7.960478e+02
1.360000e-06	7.035739e-06	1.218093e-08	4.905301e+01	8.010674e+02
1.370000e-06	7.113897e-06	1.225508e-08	4.959793e+01	8.058692e+02
1.380000e-06	7.189445e-06	1.232804e-08	5.012465e+01	8.104867e+02
1.390000e-06	7.262263e-06	1.239856e-08	5.063233e+01	8.149460e+02
1.400000e-06	7.332482e-06	1.246475e-08	5.112190e+01	8.192627e+02
1.410000e-06	7.400153e-06	1.252727e-08	5.159370e+01	8.234408e+02
1.420000e-06	7.465115e-06	1.258662e-08	5.204661e+01	8.274732e+02
1.430000e-06	7.527436e-06	1.264265e-08	5.248111e+01	8.313437e+02
1.440000e-06	7.587258e-06	1.269429e-08	5.289819e+01	8.350300e+02
1.450000e-06	7.644390e-06	1.274293e-08	5.329651e+01	8.385079e+02
1.460000e-06	7.698815e-06	1.278984e-08	5.367596e+01	8.417552e+02
1.470000e-06	7.750351e-06	1.283468e-08	5.403527e+01	8.447555e+02
1.480000e-06	7.798630e-06	1.287948e-08	5.437187e+01	8.475001e+02
1.490000e-06	7.844020e-06	1.291967e-08	5.468833e+01	8.499896e+02
1.500000e-06	7.886740e-06	1.295359e-08	5.498617e+01	8.522340e+02
1.510000e-06	7.926602e-06	1.298367e-08	5.526409e+01	8.542503e+02
1.520000e-06	7.963649e-06	1.301193e-08	5.552238e+01	8.560604e+02
1.530000e-06	7.997887e-06	1.303807e-08	5.576109e+01	8.576880e+02
1.540000e-06	8.029262e-06	1.305937e-08	5.597983e+01	8.591549e+02
1.550000e-06	8.057821e-06	1.307412e-08	5.617894e+01	8.604785e+02
1.560000e-06	8.083455e-06	1.308644e-08	5.635766e+01	8.616695e+02
1.570000e-06	8.106129e-06	1.310266e-08	5.651575e+01	8.627316e+02
1.580000e-06	8.125981e-06	1.311986e-08	5.665416e+01	8.636611e+02
1.590000e-06	8.142869e-06	1.313440e-08	5.677189e+01	8.644486e+02
1.600000e-06	8.156725e-06	1.314480e-08	5.686850e+01	8.650814e+02
1.610000e-06	8.167445e-06	1.314995e-08	5.694324e+01	8.655458e+02
1.620000e-06	8.175021e-06	1.315159e-08	5.699606e+01	8.658300e+02
1.630000e-06	8.179721e-06	1.315016e-08	5.702883e+01	8.659260e+02
1.640000e-06	8.181539e-06	1.314729e-08	5.704150e+01	8.658317e+02
1.650000e-06	8.180505e-06	1.314288e-08	5.703430e+01	8.655511e+02
1.660000e-06	8.176784e-06	1.313443e-08	5.700835e+01	8.650940e+02
1.670000e-06	8.170297e-06	1.312865e-08	5.696313e+01	8.644754e+02
1.680000e-06	8.161044e-06	1.312249e-08	5.689861e+01	8.637132e+02
1.690000e-06	8.149028e-06	1.311180e-08	5.681484e+01	8.628266e+02
1.700000e-06	8.134108e-06	1.310032e-08	5.671082e+01	8.618337e+02
1.710000e-06	8.116590e-06	1.308978e-08	5.658868e+01	8.607500e+02
1.720000e-06	8.096750e-06	1.307461e-08	5.645036e+01	8.595874e+02
1.730000e-06	8.074195e-06	1.301845e-08	5.629310e+01	8.583530e+02
1.740000e-06	8.048307e-06	1.297852e-08	5.611261e+01	8.570495e+02
1.750000e-06	8.018693e-06	1.297955e-08	5.590615e+01	8.556752e+02
1.760000e-06	7.985646e-06	1.295988e-08	5.567574e+01	8.542254e+02
1.770000e-06	7.950075e-06	1.293226e-08	5.542774e+01	8.526925e+02
1.780000e-06	7.912271e-06	1.294643e-08	5.516417e+01	8.510674e+02
1.790000e-06	7.872260e-06	1.294417e-08	5.488522e+01	8.493397e+02
1.800000e-06	7.830213e-06	1.288453e-08	5.459207e+01	8.474980e+02
1.810000e-06	7.785532e-06	1.291118e-08	5.428055e+01	8.455304e+02
1.820000e-06	7.737969e-06	1.288841e-08	5.394894e+01	8.434239e+02
1.830000e-06	7.687632e-06	1.284700e-08	5.359800e+01	8.411644e+02
1.840000e-06	7.634140e-06	1.285428e-08	5.322505e+01	8.387373e+02
1.850000e-06	7.577754e-06	1.277976e-08	5.283193e+01	8.361271e+02
1.860000e-06	7.518685e-06	1.275213e-08	5.242010e+01	8.333187e+02
1.870000e-06	7.456812e-06	1.267871e-08	5.198873e+01	8.302983e+02
1.880000e-06	7.392250e-06	1.262233e-08	5.153860e+01	8.270545e+02
1.890000e-06	7.324879e-06	1.261869e-08	5.106889e+01	8.235797e+02
1.900000e-06	7.254624e-06	1.254157e-08	5.057907e+01	8.198716e+02
1.910000e-06	7.181448e-06	1.246714e-08	5.006889e+01	8.159331e+02
1.920000e-06	7.105519e-06	1.238316e-08	4.953952e+01	8.117729e+02
1.930000e-06	7.026814e-06	1.234345e-08	4.899079e+01	8.074049e+02
1.940000e-06	6.945374e-06	1.228678e-08	4.842299e+01	8.028462e+02
1.950000e-06	6.861530e-06	1.220825e-08	4.783843e+01	7.981156e+02
1.960000e-06	6.775090e-06	1.214440e-08	4.723577e+01	7.932310e+02
1.970000e-06	6.686039e-06	1.204624e-08	4.661491e+01	7.882069e+02
1.980000e-06	6.594620e-06	1.196890e-08	4.597754e+01	7.830522e+02
1.990000e-06	6.500901e-06	1.188845e-08	4.532414e+01	7.777691e+02
2.000000e-06	6.404895e-06	1.183054e-08	4.465478e+01	7.723520e+02
2.010000e-06	6.306603e-06	1.174150e-08	4.396949e+01	7.667887e+02
2.020000e-06	6.206059e-06	1.162246e-08	4.326850e+01	7.610612e+02
2.030000e-06	6.103183e-06	1.152933e-08	4.255125e+01	7.551488e+02
2.040000e-06	5.998108e-06	1.145206e-08	4.181867e+01	7.490303e+02
2.050000e-06	5.891028e-06	1.137479e-08	4.107212e+01	7.426872e+02
2.060000e-06	5.782021e-06	1.126267e-08	4.031212e+01	7.361062e+02
2.070000e-06	5.670963e-06	1.115072e-08	3.953783e+01	7.292809e+02
2.080000e-06	5.557747e-06	1.103705e-08	3.874848e+01	7.222121e+02
2.090000e-06	5.442404e-06	1.092437e-08	3.794432e+01	7.149077e+02
2.100000e-06	5.324994e-06	1.081954e-08	3.712574e+01	7.073803e+02
2.110000e-06	5.205525e-06	1.072373e-08	3.629280e+01	6.996450e+02
2.120000e-06	5.084169e-06	1.059808e-08	3.544671e+01	6.917156e+02
2.130000e-06	4.961053e-06	1.044946e-08	3.458835e+01	6.836020e+02
2.140000e-06	4.836091e-06	1.032107e-08	3.371711e+01	6.753069e+02
2.150000e-06	4.709338e-06	1.020936e-08	3.283339e+01	6.668247e+02
2.160000e-06	4.580854e-06	1.008788e-08	3.193761e+01	6.581410e+02
2.170000e-06	4.450731e-06	9.942118e-09	3.103040e+01	6.492335e+02
2.180000e-06	4.318972e-06	9.796683e-09	3.011178e+01	6.400745e+02
2.190000e-06	4.185700e-06	9.650423e-09	2.918260e+01	6.306343e+02
2.200000e-06	4.050867e-06	9.500100e-09	2.824255e+01	6.208852e+02
2.210000e-06	3.914392e-06	9.352039e-09	2.729105e+01	6.108044e+02
2.220000e-06	3.776379e-06	9.202081e-09	2.632883e+01	6.003776e+02
2.230000e-06	3.636957e-06	9.029965e-09	2.535678e+01	5.896003e+02
2.240000e-06	3.496178e-06	8.850209e-09	2.437527e+01	5.784772e+02
2.250000e-06	3.354003e-06	8.684723e-09	2.338404e+01	5.670214e+02
2.260000e-06	3.210495e-06	8.523607e-09	2.238349e+01	5.552504e+02
2.270000e-06	3.065752e-06	8.347655e-09	2.137435e+01	5.431821e+02
2.280000e-06	2.919948e-06	8.151989e-09	2.035781e+01	5.308304e+02
2.290000e-06	2.773106e-06	7.952159e-09	1.933403e+01	5.182009e+02
2.300000e-06	2.625248e-06	7.754226e-09	1.830317e+01	5.052877e+02
2.310000e-06	2.476555e-06	7.555102e-09	1.726648e+01	4.920722e+02
2.320000e-06	2.327067e-06	7.352483e-09	1.622426e+01	4.785235e+02
2.330000e-06	2.176752e-06	7.139554e-09	1.517627e+01	4.646009e+02
2.340000e-06	2.025622e-06	6.911187e-09	1.412259e+01	4.502582e+02
2.350000e-06	1.873790e-06	6.676461e-09	1.306402e+01	4.354488e+02
2.360000e-06	1.721385e-06	6.442196e-09	1.200146e+01	4.201310e+02
2.370000e-06	1.568435e-06	6.205214e-09	1.093509e+01	4.042727e+02
2.380000e-06	1.414942e-06	5.959620e-09	9.864942e+00	3.878541e+02
2.390000e-06	1.260993e-06	5.700524e-09	8.791617e+00	3.708687e+02
2.400000e-06	1.106627e-06	5.431456e-09	7.715378e+00	3.533207e+02
2.410000e-06	9.518323e-07	5.157940e-09	6.636153e+00	3.352204e+02
2.420000e-06	7.966963e-07	4.880288e-09	5.554548e+00	3.165776e+02
2.430000e-06	6.412831e-07	4.593643e-09	4.471011e+00	2.973934e+02
2.440000e-06	4.855999e-07	4.291368e-09	3.385592e+00	2.776523e+02
2.450000e-06	3.296944e-07	3.975586e-09	2.298622e+00	2.573154e+02
2.460000e-06	1.736950e-07	3.651866e-09	1.210997e+00	2.363168e+02
2.470000e-06	1.765955e-08	3.316418e-09	1.231220e-01	2.145629e+02
2.480000e-06	-1.384052e-07	2.964494e-09	-9.649581e-01	1.919368e+02
2.490000e-06	-2.944483e-07	2.596992e-09	-2.052887e+00	1.683068e+02
2.500000e-06	-4.504644e-07	2.212531e-09	-3.140627e+00	1.435388e+02
2.510000e-06	-6.063725e-07	1.813878e-09	-4.227615e+00	1.175117e+02
2.520000e-06	-7.620457e-07	1.404859e-09	-5.312965e+00	9.013400e+01
2.530000e-06	-9.174757e-07	9.816079e-10	-6.396620e+00	6.135979e+01
2.540000e-06	-1.072615e-06	5.351840e-10	-7.478245e+00	3.120261e+01
2.550000e-06	-1.227260e-06	6.072691e-11	-8.556429e+00	-2.553169e-01
2.560000e-06	-1.381319e-06	-4.392318e-10	-9.630527e+00	-3.285920e+01
2.570000e-06	-1.534870e-06	-9.582670e-10	-1.070108e+01	-6.638430e+01
2.580000e-06	-1.687949e-06	-1.488102e-09	-1.176834e+01	-1.005450e+02
2.590000e-06	-1.840454e-06	-2.023031e-09	-1.283160e+01	-1.350096e+02
2.600000e-06	-1.992289e-06	-2.559583e-09	-1.389019e+01	-1.694199e+02
2.610000e-06	-2.143383e-06	-3.090701e-09	-1.494362e+01	-2.034132e+02
2.620000e-06	-2.293639e-06	-3.605729e-09	-1.599120e+01	-2.366450e+02
2.630000e-06	-2.442906e-06	-4.095409e-09	-1.703188e+01	-2.688099e+02
2.640000e-06	-2.591255e-06	-4.559695e-09	-1.806617e+01	-2.996586e+02
2.650000e-06	-2.738773e-06	-5.002647e-09	-1.909466e+01	-3.290103e+02
2.660000e-06	-2.885200e-06	-5.422644e-09	-2.011555e+01	-3.567577e+02
2.670000e-06	-3.030501e-06	-5.818541e-09	-2.112858e+01	-3.828666e+02
2.680000e-06	-3.174708e-06	-6.189770e-09	-2.213399e+01	-4.073685e+02
2.690000e-06	-3.317735e-06	-6.539944e-09	-2.313117e+01	-4.303487e+02
2.700000e-06	-3.459419e-06	-6.871987e-09	-2.411899e+01	-4.519309e+02
2.710000e-06	-3.599741e-06	-7.186373e-09	-2.509731e+01	-4.722605e+02
2.720000e-06	-3.738699e-06	-7.487994e-09	-2.606613e+01	-4.914882e+02
2.730000e-06	-3.876185e-06	-7.775548e-09	-2.702467e+01	-5.097552e+02
2.740000e-06	-4.012249e-06	-8.045770e-09	-2.797331e+01	-5.271834e+02
2.750000e-06	-4.146928e-06	-8.302271e-09	-2.891229e+01	-5.438678e+02
2.760000e-06	-4.280179e-06	-8.547489e-09	-2.984131e+01	-5.598754e+02
2.770000e-06	-4.411918e-06	-8.781217e-09	-3.075979e+01	-5.752467e+02
2.780000e-06	-4.542137e-06	-9.003001e-09	-3.166768e+01	-5.900012e+02
2.790000e-06	-4.670824e-06	-9.216768e-09	-3.256488e+01	-6.041446e+02
2.800000e-06	-4.797828e-06	-9.424430e-09	-3.345035e+01	-6.176766e+02
2.810000e-06	-4.923125e-06	-9.624399e-09	-3.432392e+01	-6.305987e+02
2.820000e-06	-5.046726e-06	-9.814714e-09	-3.518566e+01	-6.429193e+02
2.830000e-06	-5.168543e-06	-9.995414e-09	-3.603497e+01	-6.546576e+02
2.840000e-06	-5.288513e-06	-1.016809e-08	-3.687139e+01	-6.658436e+02
2.850000e-06	-5.406446e-06	-1.033041e-08	-3.769362e+01	-6.765171e+02
2.860000e-06	-5.522183e-06	-1.048715e-08	-3.850053e+01	-6.867234e+02
2.870000e-06	-5.635651e-06	-1.063974e-08	-3.929163e+01	-6.965085e+02
2.880000e-06	-5.746869e-06	-1.078431e-08	-4.006704e+01	-7.059145e+02
2.890000e-06	-5.855995e-06	-1.092328e-08	-4.082787e+01	-7.149750e+02
2.900000e-06	-5.963136e-06	-1.105629e-08	-4.157485e+01	-7.237122e+02
2.910000e-06	-6.068206e-06	-1.118435e-08	-4.230740e+01	-7.321360e+02
2.920000e-06	-6.171022e-06	-1.130736e-08	-4.302422e+01	-7.402451e+02
2.930000e-06	-6.271524e-06	-1.142753e-08	-4.372492e+01	-7.480295e+02
2.940000e-06	-6.369804e-06	-1.154277e-08	-4.441013e+01	-7.554751e+02
