# Temperatura_=_72.97
# Concentracion g/m^3_=_15000.0
# C_Vs_to_Am_M_A/Vsm_=_65563218390.804596
# pendiente_HvsI_1/m_=_3716.3
# ordenada_HvsI_A/m_=_1297.0
# frecuencia_Hz_=_302340.856709164

Tiempo_(s)	Campo_(V.s)	Magnetizacion_(V.s)	Campo_(kA/m)	Magnetizacion_(A/m)
0.000000e+00	-8.155016e-06	-1.267128e-08	-5.690058e+01	-8.281241e+02
1.000000e-08	-8.150243e-06	-1.266638e-08	-5.686728e+01	-8.276323e+02
2.000000e-08	-8.142852e-06	-1.265680e-08	-5.681571e+01	-8.270015e+02
3.000000e-08	-8.132592e-06	-1.264503e-08	-5.674413e+01	-8.262489e+02
4.000000e-08	-8.119349e-06	-1.262855e-08	-5.665172e+01	-8.253909e+02
5.000000e-08	-8.103160e-06	-1.260850e-08	-5.653876e+01	-8.244418e+02
6.000000e-08	-8.084411e-06	-1.258713e-08	-5.640795e+01	-8.234118e+02
7.000000e-08	-8.063437e-06	-1.255748e-08	-5.626161e+01	-8.223062e+02
8.000000e-08	-8.039788e-06	-1.258557e-08	-5.609660e+01	-8.211258e+02
9.000000e-08	-8.012899e-06	-1.261201e-08	-5.590898e+01	-8.198671e+02
1.000000e-07	-7.982788e-06	-1.255018e-08	-5.569889e+01	-8.185236e+02
1.100000e-07	-7.949654e-06	-1.249695e-08	-5.546770e+01	-8.170866e+02
1.200000e-07	-7.913690e-06	-1.246548e-08	-5.521676e+01	-8.155470e+02
1.300000e-07	-7.875274e-06	-1.242820e-08	-5.494872e+01	-8.138959e+02
1.400000e-07	-7.834476e-06	-1.235806e-08	-5.466406e+01	-8.121255e+02
1.500000e-07	-7.791255e-06	-1.234485e-08	-5.436249e+01	-8.102289e+02
1.600000e-07	-7.745384e-06	-1.239278e-08	-5.404243e+01	-8.082001e+02
1.700000e-07	-7.696608e-06	-1.226750e-08	-5.370210e+01	-8.060330e+02
1.800000e-07	-7.644982e-06	-1.228448e-08	-5.334189e+01	-8.037214e+02
1.900000e-07	-7.590424e-06	-1.227673e-08	-5.296122e+01	-8.012576e+02
2.000000e-07	-7.533048e-06	-1.213712e-08	-5.256088e+01	-7.986330e+02
2.100000e-07	-7.473039e-06	-1.211064e-08	-5.214218e+01	-7.958377e+02
2.200000e-07	-7.410370e-06	-1.204369e-08	-5.170491e+01	-7.928615e+02
2.300000e-07	-7.344949e-06	-1.204529e-08	-5.124845e+01	-7.896947e+02
2.400000e-07	-7.276676e-06	-1.198503e-08	-5.077208e+01	-7.863295e+02
2.500000e-07	-7.205572e-06	-1.192864e-08	-5.027596e+01	-7.827613e+02
2.600000e-07	-7.131589e-06	-1.188320e-08	-4.975975e+01	-7.789894e+02
2.700000e-07	-7.054773e-06	-1.181097e-08	-4.922378e+01	-7.750180e+02
2.800000e-07	-6.975170e-06	-1.174211e-08	-4.866836e+01	-7.708554e+02
2.900000e-07	-6.892965e-06	-1.166654e-08	-4.809479e+01	-7.665137e+02
3.000000e-07	-6.808447e-06	-1.164045e-08	-4.750507e+01	-7.620070e+02
3.100000e-07	-6.721554e-06	-1.154895e-08	-4.689879e+01	-7.573493e+02
3.200000e-07	-6.632139e-06	-1.145267e-08	-4.627490e+01	-7.525526e+02
3.300000e-07	-6.540330e-06	-1.139933e-08	-4.563432e+01	-7.476250e+02
3.400000e-07	-6.446238e-06	-1.132216e-08	-4.497780e+01	-7.425688e+02
3.500000e-07	-6.349770e-06	-1.122482e-08	-4.430471e+01	-7.373804e+02
3.600000e-07	-6.250951e-06	-1.113365e-08	-4.361521e+01	-7.320499e+02
3.700000e-07	-6.149811e-06	-1.107334e-08	-4.290952e+01	-7.265624e+02
3.800000e-07	-6.046422e-06	-1.099023e-08	-4.218814e+01	-7.208999e+02
3.900000e-07	-5.940939e-06	-1.088762e-08	-4.145215e+01	-7.150438e+02
4.000000e-07	-5.833392e-06	-1.079231e-08	-4.070175e+01	-7.089771e+02
4.100000e-07	-5.723792e-06	-1.069678e-08	-3.993703e+01	-7.026868e+02
4.200000e-07	-5.612069e-06	-1.059104e-08	-3.915749e+01	-6.961657e+02
4.300000e-07	-5.498249e-06	-1.048162e-08	-3.836333e+01	-6.894127e+02
4.400000e-07	-5.382367e-06	-1.039194e-08	-3.755478e+01	-6.824328e+02
4.500000e-07	-5.264383e-06	-1.029688e-08	-3.673156e+01	-6.752354e+02
4.600000e-07	-5.144462e-06	-1.017715e-08	-3.589483e+01	-6.678321e+02
4.700000e-07	-5.022787e-06	-1.005137e-08	-3.504586e+01	-6.602341e+02
4.800000e-07	-4.899337e-06	-9.934227e-09	-3.418450e+01	-6.524493e+02
4.900000e-07	-4.774103e-06	-9.813609e-09	-3.331069e+01	-6.444800e+02
5.000000e-07	-4.647123e-06	-9.683245e-09	-3.242471e+01	-6.363214e+02
5.100000e-07	-4.518454e-06	-9.553442e-09	-3.152694e+01	-6.279612e+02
5.200000e-07	-4.388037e-06	-9.424783e-09	-3.061697e+01	-6.193805e+02
5.300000e-07	-4.255950e-06	-9.290628e-09	-2.969535e+01	-6.105556e+02
5.400000e-07	-4.122360e-06	-9.148944e-09	-2.876324e+01	-6.014608e+02
5.500000e-07	-3.987168e-06	-9.001309e-09	-2.781996e+01	-5.920719e+02
5.600000e-07	-3.850394e-06	-8.850313e-09	-2.686564e+01	-5.823688e+02
5.700000e-07	-3.712169e-06	-8.691758e-09	-2.590119e+01	-5.723382e+02
5.800000e-07	-3.572424e-06	-8.532937e-09	-2.492613e+01	-5.619748e+02
5.900000e-07	-3.431147e-06	-8.373993e-09	-2.394039e+01	-5.512812e+02
6.000000e-07	-3.288505e-06	-8.210569e-09	-2.294513e+01	-5.402663e+02
6.100000e-07	-3.144661e-06	-8.037171e-09	-2.194147e+01	-5.289429e+02
6.200000e-07	-2.999615e-06	-7.856281e-09	-2.092943e+01	-5.173237e+02
6.300000e-07	-2.853401e-06	-7.675088e-09	-1.990924e+01	-5.054178e+02
6.400000e-07	-2.706219e-06	-7.492801e-09	-1.888230e+01	-4.932268e+02
6.500000e-07	-2.558128e-06	-7.305126e-09	-1.784901e+01	-4.807429e+02
6.600000e-07	-2.409198e-06	-7.107127e-09	-1.680987e+01	-4.679473e+02
6.700000e-07	-2.259470e-06	-6.903325e-09	-1.576516e+01	-4.548110e+02
6.800000e-07	-2.108949e-06	-6.692346e-09	-1.471493e+01	-4.412973e+02
6.900000e-07	-1.957691e-06	-6.475878e-09	-1.365954e+01	-4.273652e+02
7.000000e-07	-1.805785e-06	-6.253471e-09	-1.259964e+01	-4.129739e+02
7.100000e-07	-1.653340e-06	-6.024741e-09	-1.153597e+01	-3.980875e+02
7.200000e-07	-1.500358e-06	-5.790645e-09	-1.046855e+01	-3.826784e+02
7.300000e-07	-1.346826e-06	-5.549965e-09	-9.397305e+00	-3.667297e+02
7.400000e-07	-1.192794e-06	-5.302977e-09	-8.322568e+00	-3.502350e+02
7.500000e-07	-1.038344e-06	-5.047761e-09	-7.244913e+00	-3.331965e+02
7.600000e-07	-8.835269e-07	-4.784209e-09	-6.164696e+00	-3.156202e+02
7.700000e-07	-7.284108e-07	-4.507877e-09	-5.082393e+00	-2.975099e+02
7.800000e-07	-5.731311e-07	-4.223139e-09	-3.998949e+00	-2.788602e+02
7.900000e-07	-4.176324e-07	-3.931869e-09	-2.913977e+00	-2.596497e+02
8.000000e-07	-2.619580e-07	-3.630339e-09	-1.827779e+00	-2.398357e+02
8.100000e-07	-1.062140e-07	-3.313484e-09	-7.410946e-01	-2.193512e+02
8.200000e-07	4.963558e-08	-2.981728e-09	3.463260e-01	-1.981061e+02
8.300000e-07	2.055610e-07	-2.637163e-09	1.434276e+00	-1.759916e+02
8.400000e-07	3.614704e-07	-2.279188e-09	2.522114e+00	-1.528885e+02
8.500000e-07	5.172529e-07	-1.910679e-09	3.609066e+00	-1.286792e+02
8.600000e-07	6.727877e-07	-1.528255e-09	4.694290e+00	-1.032624e+02
8.700000e-07	8.281003e-07	-1.129001e-09	5.777965e+00	-7.656721e+01
8.800000e-07	9.832311e-07	-7.098260e-10	6.860370e+00	-4.856816e+01
8.900000e-07	1.138073e-06	-2.730249e-10	7.940760e+00	-1.929635e+01
9.000000e-07	1.292579e-06	1.851300e-10	9.018805e+00	1.115289e+01
9.100000e-07	1.446623e-06	6.664475e-10	1.009363e+01	4.261788e+01
9.200000e-07	1.600063e-06	1.163315e-09	1.116423e+01	7.487419e+01
9.300000e-07	1.752852e-06	1.667464e-09	1.223030e+01	1.076442e+02
9.400000e-07	1.905000e-06	2.173526e-09	1.329189e+01	1.406118e+02
9.500000e-07	2.056515e-06	2.678024e-09	1.434907e+01	1.734405e+02
9.600000e-07	2.207334e-06	3.172171e-09	1.540139e+01	2.057947e+02
9.700000e-07	2.357345e-06	3.652018e-09	1.644808e+01	2.373595e+02
9.800000e-07	2.506394e-06	4.114912e-09	1.748805e+01	2.678600e+02
9.900000e-07	2.654373e-06	4.554610e-09	1.852055e+01	2.970760e+02
1.000000e-06	2.801315e-06	4.968228e-09	1.954582e+01	3.248520e+02
1.010000e-06	2.947259e-06	5.357720e-09	2.056412e+01	3.511013e+02
1.020000e-06	3.092132e-06	5.727965e-09	2.157495e+01	3.758038e+02
1.030000e-06	3.235899e-06	6.077875e-09	2.257807e+01	3.989986e+02
1.040000e-06	3.378451e-06	6.408286e-09	2.357271e+01	4.207726e+02
1.050000e-06	3.519652e-06	6.723660e-09	2.455793e+01	4.412456e+02
1.060000e-06	3.659394e-06	7.024256e-09	2.553295e+01	4.605545e+02
1.070000e-06	3.797769e-06	7.305883e-09	2.649845e+01	4.788388e+02
1.080000e-06	3.934783e-06	7.569958e-09	2.745445e+01	4.962275e+02
1.090000e-06	4.070311e-06	7.823058e-09	2.840007e+01	5.128303e+02
1.100000e-06	4.204377e-06	8.064882e-09	2.933551e+01	5.287313e+02
1.110000e-06	4.336906e-06	8.296474e-09	3.026021e+01	5.439887e+02
1.120000e-06	4.467877e-06	8.518585e-09	3.117404e+01	5.586367e+02
1.130000e-06	4.597302e-06	8.730931e-09	3.207709e+01	5.726907e+02
1.140000e-06	4.725183e-06	8.931042e-09	3.296936e+01	5.861544e+02
1.150000e-06	4.851437e-06	9.119163e-09	3.385028e+01	5.990270e+02
1.160000e-06	4.975976e-06	9.298944e-09	3.471924e+01	6.113098e+02
1.170000e-06	5.098779e-06	9.472264e-09	3.557608e+01	6.230111e+02
1.180000e-06	5.219841e-06	9.640869e-09	3.642078e+01	6.341493e+02
1.190000e-06	5.339046e-06	9.805554e-09	3.725251e+01	6.447528e+02
1.200000e-06	5.456239e-06	9.965516e-09	3.807021e+01	6.548585e+02
1.210000e-06	5.571353e-06	1.011865e-08	3.887340e+01	6.645083e+02
1.220000e-06	5.684289e-06	1.026282e-08	3.966140e+01	6.737447e+02
1.230000e-06	5.795014e-06	1.039923e-08	4.043397e+01	6.826063e+02
1.240000e-06	5.903638e-06	1.052762e-08	4.119188e+01	6.911241e+02
1.250000e-06	6.010166e-06	1.065065e-08	4.193517e+01	6.993194e+02
1.260000e-06	6.114493e-06	1.076969e-08	4.266310e+01	7.072030e+02
1.270000e-06	6.216647e-06	1.088379e-08	4.337586e+01	7.147761e+02
1.280000e-06	6.316537e-06	1.099270e-08	4.407283e+01	7.220334e+02
1.290000e-06	6.414017e-06	1.109612e-08	4.475299e+01	7.289665e+02
1.300000e-06	6.509089e-06	1.119684e-08	4.541634e+01	7.355678e+02
1.310000e-06	6.601807e-06	1.129020e-08	4.606327e+01	7.418345e+02
1.320000e-06	6.692181e-06	1.137720e-08	4.669384e+01	7.477709e+02
1.330000e-06	6.780165e-06	1.146266e-08	4.730774e+01	7.533902e+02
1.340000e-06	6.865793e-06	1.154487e-08	4.790519e+01	7.587142e+02
1.350000e-06	6.949103e-06	1.162306e-08	4.848648e+01	7.637715e+02
1.360000e-06	7.029866e-06	1.169702e-08	4.905000e+01	7.685943e+02
1.370000e-06	7.108007e-06	1.176777e-08	4.959521e+01	7.732151e+02
1.380000e-06	7.183569e-06	1.183574e-08	5.012244e+01	7.776628e+02
1.390000e-06	7.256390e-06	1.190132e-08	5.063054e+01	7.819587e+02
1.400000e-06	7.326556e-06	1.196508e-08	5.112011e+01	7.861149e+02
1.410000e-06	7.394123e-06	1.202601e-08	5.159155e+01	7.901331e+02
1.420000e-06	7.458993e-06	1.208482e-08	5.204418e+01	7.940047e+02
1.430000e-06	7.521317e-06	1.213914e-08	5.247903e+01	7.977132e+02
1.440000e-06	7.581202e-06	1.219032e-08	5.289687e+01	8.012371e+02
1.450000e-06	7.638423e-06	1.223910e-08	5.329612e+01	8.045534e+02
1.460000e-06	7.692870e-06	1.228477e-08	5.367602e+01	8.076415e+02
1.470000e-06	7.744314e-06	1.232729e-08	5.403497e+01	8.104866e+02
1.480000e-06	7.792559e-06	1.236619e-08	5.437159e+01	8.130815e+02
1.490000e-06	7.837921e-06	1.240098e-08	5.468809e+01	8.154281e+02
1.500000e-06	7.880564e-06	1.243198e-08	5.498563e+01	8.175369e+02
1.510000e-06	7.920356e-06	1.246108e-08	5.526327e+01	8.194253e+02
1.520000e-06	7.957394e-06	1.248842e-08	5.552170e+01	8.211151e+02
1.530000e-06	7.991635e-06	1.251345e-08	5.576062e+01	8.226297e+02
1.540000e-06	8.023004e-06	1.253546e-08	5.597949e+01	8.239904e+02
1.550000e-06	8.051595e-06	1.255307e-08	5.617898e+01	8.252141e+02
1.560000e-06	8.077214e-06	1.256749e-08	5.635773e+01	8.263115e+02
1.570000e-06	8.099848e-06	1.258204e-08	5.651566e+01	8.272861e+02
1.580000e-06	8.119740e-06	1.259480e-08	5.665445e+01	8.281346e+02
1.590000e-06	8.136724e-06	1.260425e-08	5.677295e+01	8.288487e+02
1.600000e-06	8.150614e-06	1.261170e-08	5.686987e+01	8.294166e+02
1.610000e-06	8.161337e-06	1.261830e-08	5.694469e+01	8.298262e+02
1.620000e-06	8.168890e-06	1.262265e-08	5.699739e+01	8.300674e+02
1.630000e-06	8.173517e-06	1.262360e-08	5.702968e+01	8.301338e+02
1.640000e-06	8.175212e-06	1.262270e-08	5.704150e+01	8.300249e+02
1.650000e-06	8.174010e-06	1.262008e-08	5.703312e+01	8.297458e+02
1.660000e-06	8.170227e-06	1.260994e-08	5.700672e+01	8.293071e+02
1.670000e-06	8.163697e-06	1.260478e-08	5.696116e+01	8.287234e+02
1.680000e-06	8.154375e-06	1.259704e-08	5.689611e+01	8.280116e+02
1.690000e-06	8.142312e-06	1.258567e-08	5.681194e+01	8.271889e+02
1.700000e-06	8.127353e-06	1.257771e-08	5.670757e+01	8.262704e+02
1.710000e-06	8.109800e-06	1.257262e-08	5.658510e+01	8.252677e+02
1.720000e-06	8.089943e-06	1.257268e-08	5.644654e+01	8.241881e+02
1.730000e-06	8.067438e-06	1.248054e-08	5.628952e+01	8.230340e+02
1.740000e-06	8.041587e-06	1.244242e-08	5.610915e+01	8.218033e+02
1.750000e-06	8.011937e-06	1.247375e-08	5.590227e+01	8.204904e+02
1.760000e-06	7.978900e-06	1.244995e-08	5.567176e+01	8.190872e+02
1.770000e-06	7.943380e-06	1.242063e-08	5.542392e+01	8.175846e+02
1.780000e-06	7.905538e-06	1.246073e-08	5.515989e+01	8.159737e+02
1.790000e-06	7.865495e-06	1.244040e-08	5.488049e+01	8.142461e+02
1.800000e-06	7.823462e-06	1.226924e-08	5.458721e+01	8.123947e+02
1.810000e-06	7.778877e-06	1.238197e-08	5.427613e+01	8.104132e+02
1.820000e-06	7.731473e-06	1.233949e-08	5.394537e+01	8.082955e+02
1.830000e-06	7.681273e-06	1.226512e-08	5.359510e+01	8.060357e+02
1.840000e-06	7.627855e-06	1.233648e-08	5.322239e+01	8.036266e+02
1.850000e-06	7.571516e-06	1.220829e-08	5.282929e+01	8.010599e+02
1.860000e-06	7.512535e-06	1.225571e-08	5.241776e+01	7.983261e+02
1.870000e-06	7.450844e-06	1.213400e-08	5.198732e+01	7.954151e+02
1.880000e-06	7.386426e-06	1.206360e-08	5.153785e+01	7.923167e+02
1.890000e-06	7.319043e-06	1.207081e-08	5.106769e+01	7.890225e+02
1.900000e-06	7.248765e-06	1.192897e-08	5.057734e+01	7.855264e+02
1.910000e-06	7.175609e-06	1.192699e-08	5.006690e+01	7.818264e+02
1.920000e-06	7.099664e-06	1.185460e-08	4.953700e+01	7.779249e+02
1.930000e-06	7.021001e-06	1.185056e-08	4.898814e+01	7.738287e+02
1.940000e-06	6.939661e-06	1.175024e-08	4.842060e+01	7.695488e+02
1.950000e-06	6.855824e-06	1.165520e-08	4.783564e+01	7.650988e+02
1.960000e-06	6.769422e-06	1.164331e-08	4.723278e+01	7.604928e+02
1.970000e-06	6.680476e-06	1.151271e-08	4.661217e+01	7.557440e+02
1.980000e-06	6.589126e-06	1.146588e-08	4.597478e+01	7.508619e+02
1.990000e-06	6.495536e-06	1.138881e-08	4.532177e+01	7.458511e+02
2.000000e-06	6.399653e-06	1.134291e-08	4.465277e+01	7.407102e+02
2.010000e-06	6.301465e-06	1.122866e-08	4.396767e+01	7.354313e+02
2.020000e-06	6.201029e-06	1.113230e-08	4.326689e+01	7.300011e+02
2.030000e-06	6.098285e-06	1.106733e-08	4.255001e+01	7.244027e+02
2.040000e-06	5.993383e-06	1.097608e-08	4.181806e+01	7.186172e+02
2.050000e-06	5.886357e-06	1.089330e-08	4.107130e+01	7.126268e+02
2.060000e-06	5.777366e-06	1.078320e-08	4.031084e+01	7.064169e+02
2.070000e-06	5.666377e-06	1.070643e-08	3.953642e+01	6.999780e+02
2.080000e-06	5.553177e-06	1.058507e-08	3.874659e+01	6.933070e+02
2.090000e-06	5.437834e-06	1.047697e-08	3.794180e+01	6.864066e+02
2.100000e-06	5.320502e-06	1.036966e-08	3.712312e+01	6.792850e+02
2.110000e-06	5.201122e-06	1.027198e-08	3.629016e+01	6.719532e+02
2.120000e-06	5.079781e-06	1.015207e-08	3.544353e+01	6.644230e+02
2.130000e-06	4.956711e-06	1.003926e-08	3.458482e+01	6.567037e+02
2.140000e-06	4.831887e-06	9.931853e-09	3.371388e+01	6.487998e+02
2.150000e-06	4.705352e-06	9.808492e-09	3.283100e+01	6.407092e+02
2.160000e-06	4.577063e-06	9.675304e-09	3.193587e+01	6.324223e+02
2.170000e-06	4.447050e-06	9.530742e-09	3.102872e+01	6.239222e+02
2.180000e-06	4.315376e-06	9.400309e-09	3.010999e+01	6.151868e+02
2.190000e-06	4.182146e-06	9.261501e-09	2.918039e+01	6.061907e+02
2.200000e-06	4.047418e-06	9.126899e-09	2.824034e+01	5.969088e+02
2.210000e-06	3.911090e-06	8.984249e-09	2.728913e+01	5.873192e+02
2.220000e-06	3.773118e-06	8.839605e-09	2.632645e+01	5.774059e+02
2.230000e-06	3.633671e-06	8.679889e-09	2.535348e+01	5.671609e+02
2.240000e-06	3.492906e-06	8.519599e-09	2.437131e+01	5.565838e+02
2.250000e-06	3.350849e-06	8.358910e-09	2.338012e+01	5.456817e+02
2.260000e-06	3.207586e-06	8.193751e-09	2.238052e+01	5.344663e+02
2.270000e-06	3.063096e-06	8.019941e-09	2.137236e+01	5.229509e+02
2.280000e-06	2.917396e-06	7.835226e-09	2.035576e+01	5.111460e+02
2.290000e-06	2.770594e-06	7.648231e-09	1.933146e+01	4.990566e+02
2.300000e-06	2.622800e-06	7.458197e-09	1.830025e+01	4.866783e+02
2.310000e-06	2.474166e-06	7.265956e-09	1.726318e+01	4.739962e+02
2.320000e-06	2.324742e-06	7.067457e-09	1.622059e+01	4.609848e+02
2.330000e-06	2.174461e-06	6.864367e-09	1.517203e+01	4.476099e+02
2.340000e-06	2.023461e-06	6.655989e-09	1.411844e+01	4.338313e+02
2.350000e-06	1.871883e-06	6.439717e-09	1.306083e+01	4.196079e+02
2.360000e-06	1.719724e-06	6.211808e-09	1.199915e+01	4.049014e+02
2.370000e-06	1.567044e-06	5.973960e-09	1.093385e+01	3.896809e+02
2.380000e-06	1.413806e-06	5.731808e-09	9.864649e+00	3.739255e+02
2.390000e-06	1.259969e-06	5.484718e-09	8.791271e+00	3.576253e+02
2.400000e-06	1.105620e-06	5.230625e-09	7.714319e+00	3.407798e+02
2.410000e-06	9.508472e-07	4.970955e-09	6.634415e+00	3.233942e+02
2.420000e-06	7.957419e-07	4.705674e-09	5.552188e+00	3.054740e+02
2.430000e-06	6.403597e-07	4.429733e-09	4.468028e+00	2.870179e+02
2.440000e-06	4.847825e-07	4.140203e-09	3.382508e+00	2.680107e+02
2.450000e-06	3.290351e-07	3.840207e-09	2.295800e+00	2.484180e+02
2.460000e-06	1.731439e-07	3.526621e-09	1.208089e+00	2.281815e+02
2.470000e-06	1.716920e-08	3.197347e-09	1.197959e-01	2.072191e+02
2.480000e-06	-1.388685e-07	2.854594e-09	-9.689370e-01	1.854279e+02
2.490000e-06	-2.949095e-07	2.501477e-09	-2.057694e+00	1.626910e+02
2.500000e-06	-4.508564e-07	2.134846e-09	-3.145793e+00	1.388890e+02
2.510000e-06	-6.066434e-07	1.753035e-09	-4.232777e+00	1.139129e+02
2.520000e-06	-7.622682e-07	1.359295e-09	-5.318629e+00	8.767918e+01
2.530000e-06	-9.176355e-07	9.502621e-10	-6.402685e+00	6.014475e+01
2.540000e-06	-1.072608e-06	5.210624e-10	-7.483987e+00	3.131937e+01
2.550000e-06	-1.227155e-06	7.115240e-11	-8.562318e+00	1.274886e+00
2.560000e-06	-1.381246e-06	-3.993743e-10	-9.637465e+00	-2.985061e+01
2.570000e-06	-1.534769e-06	-8.923527e-10	-1.070866e+01	-6.185431e+01
2.580000e-06	-1.687708e-06	-1.403213e-09	-1.177576e+01	-9.447615e+01
2.590000e-06	-1.840014e-06	-1.920767e-09	-1.283846e+01	-1.274118e+02
2.600000e-06	-1.991586e-06	-2.434996e-09	-1.389604e+01	-1.603298e+02
2.610000e-06	-2.142467e-06	-2.939852e-09	-1.494879e+01	-1.928917e+02
2.620000e-06	-2.292612e-06	-3.428967e-09	-1.599641e+01	-2.247730e+02
2.630000e-06	-2.441833e-06	-3.898166e-09	-1.703758e+01	-2.556826e+02
2.640000e-06	-2.590135e-06	-4.348537e-09	-1.807234e+01	-2.853794e+02
2.650000e-06	-2.737469e-06	-4.776245e-09	-1.910034e+01	-3.136838e+02
2.660000e-06	-2.883778e-06	-5.180669e-09	-2.012119e+01	-3.404847e+02
2.670000e-06	-3.028981e-06	-5.565630e-09	-2.113433e+01	-3.657386e+02
2.680000e-06	-3.172971e-06	-5.930167e-09	-2.213900e+01	-3.894647e+02
2.690000e-06	-3.315757e-06	-6.272305e-09	-2.313527e+01	-4.117344e+02
2.700000e-06	-3.457298e-06	-6.592697e-09	-2.412286e+01	-4.326575e+02
2.710000e-06	-3.597557e-06	-6.894544e-09	-2.510150e+01	-4.523666e+02
2.720000e-06	-3.736462e-06	-7.183341e-09	-2.607069e+01	-4.710018e+02
2.730000e-06	-3.873971e-06	-7.459705e-09	-2.703014e+01	-4.886973e+02
2.740000e-06	-4.010004e-06	-7.720005e-09	-2.797929e+01	-5.055703e+02
2.750000e-06	-4.144526e-06	-7.967792e-09	-2.891790e+01	-5.217146e+02
2.760000e-06	-4.277608e-06	-8.205651e-09	-2.984647e+01	-5.371974e+02
2.770000e-06	-4.409210e-06	-8.434322e-09	-3.076470e+01	-5.520610e+02
2.780000e-06	-4.539337e-06	-8.655182e-09	-3.167264e+01	-5.663269e+02
2.790000e-06	-4.667913e-06	-8.866406e-09	-3.256977e+01	-5.800021e+02
2.800000e-06	-4.794862e-06	-9.067520e-09	-3.345554e+01	-5.930865e+02
2.810000e-06	-4.920215e-06	-9.257645e-09	-3.433017e+01	-6.055801e+02
2.820000e-06	-5.043762e-06	-9.436282e-09	-3.519221e+01	-6.174881e+02
2.830000e-06	-5.165413e-06	-9.605084e-09	-3.604101e+01	-6.288253e+02
2.840000e-06	-5.285196e-06	-9.768061e-09	-3.687679e+01	-6.396165e+02
2.850000e-06	-5.403038e-06	-9.925506e-09	-3.769901e+01	-6.498960e+02
2.860000e-06	-5.518685e-06	-1.007713e-08	-3.850592e+01	-6.597043e+02
2.870000e-06	-5.632005e-06	-1.022282e-08	-3.929659e+01	-6.690843e+02
2.880000e-06	-5.743152e-06	-1.036181e-08	-4.007211e+01	-6.780763e+02
2.890000e-06	-5.852213e-06	-1.049616e-08	-4.083307e+01	-6.867146e+02
2.900000e-06	-5.959282e-06	-1.062533e-08	-4.158013e+01	-6.950239e+02
2.910000e-06	-6.064264e-06	-1.074853e-08	-4.231263e+01	-7.030188e+02
2.920000e-06	-6.166953e-06	-1.086632e-08	-4.302913e+01	-7.107038e+02
2.930000e-06	-6.267293e-06	-1.097741e-08	-4.372924e+01	-7.180754e+02
2.940000e-06	-6.365411e-06	-1.108192e-08	-4.441385e+01	-7.251259e+02
