# Temperatura_=_27.65
# Concentracion g/m^3_=_15000.0
# C_Vs_to_Am_M_A/Vsm_=_65563218390.804596
# pendiente_HvsI_1/m_=_3716.3
# ordenada_HvsI_A/m_=_1297.0
# frecuencia_Hz_=_301957.19933264796

Tiempo_(s)	Campo_(V.s)	Magnetizacion_(V.s)	Campo_(kA/m)	Magnetizacion_(A/m)
0.000000e+00	-6.869363e-06	-9.904193e-09	-4.747061e+01	-6.485811e+02
1.000000e-08	-6.865388e-06	-9.903738e-09	-4.744314e+01	-6.483734e+02
2.000000e-08	-6.859254e-06	-9.900207e-09	-4.740075e+01	-6.480563e+02
3.000000e-08	-6.850955e-06	-9.896714e-09	-4.734340e+01	-6.476275e+02
4.000000e-08	-6.840198e-06	-9.891855e-09	-4.726906e+01	-6.470827e+02
5.000000e-08	-6.826932e-06	-9.883815e-09	-4.717739e+01	-6.464172e+02
6.000000e-08	-6.811273e-06	-9.871461e-09	-4.706917e+01	-6.456294e+02
7.000000e-08	-6.793309e-06	-9.860938e-09	-4.694503e+01	-6.447236e+02
8.000000e-08	-6.773116e-06	-9.860493e-09	-4.680549e+01	-6.437122e+02
9.000000e-08	-6.750458e-06	-9.858802e-09	-4.664892e+01	-6.426167e+02
1.000000e-07	-6.724974e-06	-9.827768e-09	-4.647281e+01	-6.414656e+02
1.100000e-07	-6.696780e-06	-9.791918e-09	-4.627798e+01	-6.402903e+02
1.200000e-07	-6.666351e-06	-9.765463e-09	-4.606770e+01	-6.391197e+02
1.300000e-07	-6.634023e-06	-9.730750e-09	-4.584429e+01	-6.379734e+02
1.400000e-07	-6.599797e-06	-9.711854e-09	-4.560778e+01	-6.368562e+02
1.500000e-07	-6.563510e-06	-9.713437e-09	-4.535702e+01	-6.357549e+02
1.600000e-07	-6.525142e-06	-9.682742e-09	-4.509187e+01	-6.346377e+02
1.700000e-07	-6.484693e-06	-9.645739e-09	-4.481235e+01	-6.334580e+02
1.800000e-07	-6.441821e-06	-9.655246e-09	-4.451608e+01	-6.321606e+02
1.900000e-07	-6.396434e-06	-9.645759e-09	-4.420244e+01	-6.306909e+02
2.000000e-07	-6.348669e-06	-9.648191e-09	-4.387236e+01	-6.290033e+02
2.100000e-07	-6.298259e-06	-9.636664e-09	-4.352400e+01	-6.270688e+02
2.200000e-07	-6.245253e-06	-9.542056e-09	-4.315771e+01	-6.248795e+02
2.300000e-07	-6.189843e-06	-9.454078e-09	-4.277479e+01	-6.224487e+02
2.400000e-07	-6.132031e-06	-9.416315e-09	-4.237528e+01	-6.198076e+02
2.500000e-07	-6.071973e-06	-9.402010e-09	-4.196026e+01	-6.169976e+02
2.600000e-07	-6.009737e-06	-9.382876e-09	-4.153018e+01	-6.140622e+02
2.700000e-07	-5.945283e-06	-9.339073e-09	-4.108477e+01	-6.110386e+02
2.800000e-07	-5.878587e-06	-9.271772e-09	-4.062387e+01	-6.079503e+02
2.900000e-07	-5.809672e-06	-9.201702e-09	-4.014763e+01	-6.048045e+02
3.000000e-07	-5.738558e-06	-9.168905e-09	-3.965620e+01	-6.015920e+02
3.100000e-07	-5.665252e-06	-9.140933e-09	-3.914962e+01	-5.982912e+02
3.200000e-07	-5.589751e-06	-9.085764e-09	-3.862787e+01	-5.948739e+02
3.300000e-07	-5.511984e-06	-9.020672e-09	-3.809047e+01	-5.913129e+02
3.400000e-07	-5.431959e-06	-8.955137e-09	-3.753745e+01	-5.875872e+02
3.500000e-07	-5.349924e-06	-8.907027e-09	-3.697055e+01	-5.836867e+02
3.600000e-07	-5.266127e-06	-8.853043e-09	-3.639147e+01	-5.796128e+02
3.700000e-07	-5.180608e-06	-8.782945e-09	-3.580049e+01	-5.753767e+02
3.800000e-07	-5.093359e-06	-8.706432e-09	-3.519756e+01	-5.709955e+02
3.900000e-07	-5.004314e-06	-8.633335e-09	-3.458222e+01	-5.664868e+02
4.000000e-07	-4.913369e-06	-8.573331e-09	-3.395374e+01	-5.618641e+02
4.100000e-07	-4.820696e-06	-8.518565e-09	-3.331333e+01	-5.571335e+02
4.200000e-07	-4.726477e-06	-8.446578e-09	-3.266223e+01	-5.522922e+02
4.300000e-07	-4.630584e-06	-8.347459e-09	-3.199957e+01	-5.473295e+02
4.400000e-07	-4.532942e-06	-8.253719e-09	-3.132481e+01	-5.422295e+02
4.500000e-07	-4.433609e-06	-8.178148e-09	-3.063837e+01	-5.369747e+02
4.600000e-07	-4.332735e-06	-8.105301e-09	-2.994129e+01	-5.315495e+02
4.700000e-07	-4.230443e-06	-8.029147e-09	-2.923439e+01	-5.259430e+02
4.800000e-07	-4.126674e-06	-7.939848e-09	-2.851731e+01	-5.201503e+02
4.900000e-07	-4.021380e-06	-7.836653e-09	-2.778967e+01	-5.141713e+02
5.000000e-07	-3.914534e-06	-7.734123e-09	-2.705132e+01	-5.080099e+02
5.100000e-07	-3.806206e-06	-7.645808e-09	-2.630271e+01	-5.016706e+02
5.200000e-07	-3.696540e-06	-7.557379e-09	-2.554487e+01	-4.951569e+02
5.300000e-07	-3.585630e-06	-7.451475e-09	-2.477843e+01	-4.884688e+02
5.400000e-07	-3.473330e-06	-7.336756e-09	-2.400239e+01	-4.816027e+02
5.500000e-07	-3.359537e-06	-7.228438e-09	-2.321602e+01	-4.745515e+02
5.600000e-07	-3.244297e-06	-7.124520e-09	-2.241965e+01	-4.673055e+02
5.700000e-07	-3.127665e-06	-7.014767e-09	-2.161367e+01	-4.598548e+02
5.800000e-07	-3.009860e-06	-6.897110e-09	-2.079958e+01	-4.521898e+02
5.900000e-07	-2.891060e-06	-6.772423e-09	-1.997862e+01	-4.443030e+02
6.000000e-07	-2.771262e-06	-6.644701e-09	-1.915076e+01	-4.361882e+02
6.100000e-07	-2.650354e-06	-6.519540e-09	-1.831522e+01	-4.278406e+02
6.200000e-07	-2.528349e-06	-6.393154e-09	-1.747211e+01	-4.192558e+02
6.300000e-07	-2.405323e-06	-6.254953e-09	-1.662194e+01	-4.104282e+02
6.400000e-07	-2.281396e-06	-6.108153e-09	-1.576555e+01	-4.013509e+02
6.500000e-07	-2.156706e-06	-5.961788e-09	-1.490387e+01	-3.920153e+02
6.600000e-07	-2.031322e-06	-5.819389e-09	-1.403741e+01	-3.824117e+02
6.700000e-07	-1.905281e-06	-5.675145e-09	-1.316641e+01	-3.725299e+02
6.800000e-07	-1.778700e-06	-5.521800e-09	-1.229168e+01	-3.623607e+02
6.900000e-07	-1.651572e-06	-5.358498e-09	-1.141316e+01	-3.518963e+02
7.000000e-07	-1.523809e-06	-5.188486e-09	-1.053026e+01	-3.411307e+02
7.100000e-07	-1.395460e-06	-5.019026e-09	-9.643301e+00	-3.300595e+02
7.200000e-07	-1.266591e-06	-4.850921e-09	-8.752754e+00	-3.186785e+02
7.300000e-07	-1.137253e-06	-4.676136e-09	-7.858967e+00	-3.069830e+02
7.400000e-07	-1.007545e-06	-4.490968e-09	-6.962622e+00	-2.949660e+02
7.500000e-07	-8.775600e-07	-4.298285e-09	-6.064362e+00	-2.826178e+02
7.600000e-07	-7.473027e-07	-4.103955e-09	-5.164222e+00	-2.699257e+02
7.700000e-07	-6.167660e-07	-3.907892e-09	-4.262150e+00	-2.568749e+02
7.800000e-07	-4.860469e-07	-3.706632e-09	-3.358818e+00	-2.434495e+02
7.900000e-07	-3.551996e-07	-3.496223e-09	-2.454600e+00	-2.296341e+02
8.000000e-07	-2.241946e-07	-3.274620e-09	-1.549293e+00	-2.154150e+02
8.100000e-07	-9.301136e-08	-3.048897e-09	-6.427533e-01	-2.007810e+02
8.200000e-07	3.825752e-08	-2.821692e-09	2.643779e-01	-1.857229e+02
8.300000e-07	1.695123e-07	-2.587475e-09	1.171412e+00	-1.702321e+02
8.400000e-07	3.007288e-07	-2.343881e-09	2.078181e+00	-1.542986e+02
8.500000e-07	4.318590e-07	-2.094859e-09	2.984353e+00	-1.379088e+02
8.600000e-07	5.628645e-07	-1.841776e-09	3.889665e+00	-1.210428e+02
8.700000e-07	6.936828e-07	-1.578156e-09	4.793682e+00	-1.036742e+02
8.800000e-07	8.242550e-07	-1.303052e-09	5.695999e+00	-8.577066e+01
8.900000e-07	9.545677e-07	-1.019627e-09	6.596523e+00	-6.729630e+01
9.000000e-07	1.084623e-06	-7.246467e-10	7.495267e+00	-4.821704e+01
9.100000e-07	1.214331e-06	-4.200769e-10	8.391615e+00	-2.850681e+01
9.200000e-07	1.343627e-06	-1.080832e-10	9.285109e+00	-8.155006e+00
9.300000e-07	1.472405e-06	2.099737e-10	1.017503e+01	1.282628e+01
9.400000e-07	1.600536e-06	5.365752e-10	1.106048e+01	3.439624e+01
9.500000e-07	1.728018e-06	8.738573e-10	1.194144e+01	5.648166e+01
9.600000e-07	1.854906e-06	1.218222e-09	1.281830e+01	7.897638e+01
9.700000e-07	1.981132e-06	1.567723e-09	1.369057e+01	1.017444e+02
9.800000e-07	2.106677e-06	1.917899e-09	1.455815e+01	1.246262e+02
9.900000e-07	2.231533e-06	2.267735e-09	1.542097e+01	1.474487e+02
1.000000e-06	2.355674e-06	2.611867e-09	1.627884e+01	1.700360e+02
1.010000e-06	2.478991e-06	2.946172e-09	1.713102e+01	1.922219e+02
1.020000e-06	2.601325e-06	3.275083e-09	1.797641e+01	2.138602e+02
1.030000e-06	2.722662e-06	3.596756e-09	1.881491e+01	2.348337e+02
1.040000e-06	2.842926e-06	3.907083e-09	1.964598e+01	2.550592e+02
1.050000e-06	2.962047e-06	4.202702e-09	2.046917e+01	2.744884e+02
1.060000e-06	3.080149e-06	4.484443e-09	2.128532e+01	2.931056e+02
1.070000e-06	3.197220e-06	4.756306e-09	2.209433e+01	3.109211e+02
1.080000e-06	3.312996e-06	5.017206e-09	2.289440e+01	3.279640e+02
1.090000e-06	3.427355e-06	5.265777e-09	2.368467e+01	3.442729e+02
1.100000e-06	3.540337e-06	5.502404e-09	2.446544e+01	3.598883e+02
1.110000e-06	3.651983e-06	5.727367e-09	2.523696e+01	3.748465e+02
1.120000e-06	3.762407e-06	5.942192e-09	2.600005e+01	3.891766e+02
1.130000e-06	3.871693e-06	6.149409e-09	2.675526e+01	4.029001e+02
1.140000e-06	3.979804e-06	6.348530e-09	2.750237e+01	4.160329e+02
1.150000e-06	4.086464e-06	6.540765e-09	2.823944e+01	4.285884e+02
1.160000e-06	4.191455e-06	6.725593e-09	2.896497e+01	4.405819e+02
1.170000e-06	4.294862e-06	6.901661e-09	2.967956e+01	4.520329e+02
1.180000e-06	4.396823e-06	7.069825e-09	3.038416e+01	4.629667e+02
1.190000e-06	4.497421e-06	7.229119e-09	3.107935e+01	4.734139e+02
1.200000e-06	4.596399e-06	7.378448e-09	3.176333e+01	4.834076e+02
1.210000e-06	4.693525e-06	7.520274e-09	3.243452e+01	4.929803e+02
1.220000e-06	4.788840e-06	7.658898e-09	3.309319e+01	5.021595e+02
1.230000e-06	4.882506e-06	7.794513e-09	3.374047e+01	5.109656e+02
1.240000e-06	4.974630e-06	7.927110e-09	3.437709e+01	5.194094e+02
1.250000e-06	5.065000e-06	8.055083e-09	3.500159e+01	5.274940e+02
1.260000e-06	5.153428e-06	8.173856e-09	3.561267e+01	5.352159e+02
1.270000e-06	5.239983e-06	8.284266e-09	3.621080e+01	5.425698e+02
1.280000e-06	5.324766e-06	8.390123e-09	3.679670e+01	5.495525e+02
1.290000e-06	5.407738e-06	8.491509e-09	3.737007e+01	5.561662e+02
1.300000e-06	5.488705e-06	8.586888e-09	3.792960e+01	5.624212e+02
1.310000e-06	5.567602e-06	8.674918e-09	3.847481e+01	5.683363e+02
1.320000e-06	5.644507e-06	8.758791e-09	3.900626e+01	5.739372e+02
1.330000e-06	5.719234e-06	8.840536e-09	3.952266e+01	5.792540e+02
1.340000e-06	5.791686e-06	8.917233e-09	4.002334e+01	5.843170e+02
1.350000e-06	5.862004e-06	8.989072e-09	4.050927e+01	5.891538e+02
1.360000e-06	5.930257e-06	9.058398e-09	4.098093e+01	5.937861e+02
1.370000e-06	5.996416e-06	9.126508e-09	4.143812e+01	5.982286e+02
1.380000e-06	6.060423e-06	9.192815e-09	4.188044e+01	6.024890e+02
1.390000e-06	6.122392e-06	9.254717e-09	4.230868e+01	6.065695e+02
1.400000e-06	6.182362e-06	9.312547e-09	4.272310e+01	6.104684e+02
1.410000e-06	6.240122e-06	9.368941e-09	4.312224e+01	6.141827e+02
1.420000e-06	6.295558e-06	9.422785e-09	4.350534e+01	6.177097e+02
1.430000e-06	6.348681e-06	9.473450e-09	4.387244e+01	6.210478e+02
1.440000e-06	6.399306e-06	9.521074e-09	4.422228e+01	6.241970e+02
1.450000e-06	6.447362e-06	9.566133e-09	4.455438e+01	6.271583e+02
1.460000e-06	6.493113e-06	9.607809e-09	4.487054e+01	6.299330e+02
1.470000e-06	6.536671e-06	9.645318e-09	4.517155e+01	6.325224e+02
1.480000e-06	6.577834e-06	9.681160e-09	4.545600e+01	6.349274e+02
1.490000e-06	6.616587e-06	9.715722e-09	4.572381e+01	6.371492e+02
1.500000e-06	6.653086e-06	9.746536e-09	4.597603e+01	6.391898e+02
1.510000e-06	6.687251e-06	9.773598e-09	4.621213e+01	6.410526e+02
1.520000e-06	6.718975e-06	9.798126e-09	4.643135e+01	6.427435e+02
1.530000e-06	6.748419e-06	9.820629e-09	4.663483e+01	6.442702e+02
1.540000e-06	6.775577e-06	9.840204e-09	4.682250e+01	6.456421e+02
1.550000e-06	6.800196e-06	9.856593e-09	4.699263e+01	6.468686e+02
1.560000e-06	6.822341e-06	9.871610e-09	4.714566e+01	6.479583e+02
1.570000e-06	6.842194e-06	9.886606e-09	4.728285e+01	6.489176e+02
1.580000e-06	6.859578e-06	9.900559e-09	4.740299e+01	6.497502e+02
1.590000e-06	6.874409e-06	9.910714e-09	4.750548e+01	6.504572e+02
1.600000e-06	6.886690e-06	9.918418e-09	4.759034e+01	6.510382e+02
1.610000e-06	6.896222e-06	9.925720e-09	4.765622e+01	6.514924e+02
1.620000e-06	6.903146e-06	9.930491e-09	4.770406e+01	6.518201e+02
1.630000e-06	6.907746e-06	9.932533e-09	4.773585e+01	6.520231e+02
1.640000e-06	6.909902e-06	9.934545e-09	4.775075e+01	6.521052e+02
1.650000e-06	6.909559e-06	9.936104e-09	4.774838e+01	6.520712e+02
1.660000e-06	6.906958e-06	9.934892e-09	4.773041e+01	6.519254e+02
1.670000e-06	6.902131e-06	9.928864e-09	4.769705e+01	6.516701e+02
1.680000e-06	6.894911e-06	9.919410e-09	4.764716e+01	6.513049e+02
1.690000e-06	6.885424e-06	9.908180e-09	4.758160e+01	6.508262e+02
1.700000e-06	6.873747e-06	9.897380e-09	4.750090e+01	6.502294e+02
1.710000e-06	6.859659e-06	9.887170e-09	4.740355e+01	6.495107e+02
1.720000e-06	6.843278e-06	9.869764e-09	4.729035e+01	6.486705e+02
1.730000e-06	6.824824e-06	9.837365e-09	4.716282e+01	6.477167e+02
1.740000e-06	6.803762e-06	9.800858e-09	4.701727e+01	6.466654e+02
1.750000e-06	6.779370e-06	9.800689e-09	4.684871e+01	6.455416e+02
1.760000e-06	6.751982e-06	9.801700e-09	4.665945e+01	6.443755e+02
1.770000e-06	6.722280e-06	9.793944e-09	4.645419e+01	6.431983e+02
1.780000e-06	6.690683e-06	9.790987e-09	4.623584e+01	6.420357e+02
1.790000e-06	6.657627e-06	9.769874e-09	4.600741e+01	6.409016e+02
1.800000e-06	6.622760e-06	9.741456e-09	4.576646e+01	6.397932e+02
1.810000e-06	6.585310e-06	9.749864e-09	4.550767e+01	6.386892e+02
1.820000e-06	6.545562e-06	9.734383e-09	4.523299e+01	6.375508e+02
1.830000e-06	6.503730e-06	9.684734e-09	4.494391e+01	6.363268e+02
1.840000e-06	6.459606e-06	9.652847e-09	4.463899e+01	6.349612e+02
1.850000e-06	6.413191e-06	9.581368e-09	4.431824e+01	6.334021e+02
1.860000e-06	6.364318e-06	9.564065e-09	4.398050e+01	6.316103e+02
1.870000e-06	6.313123e-06	9.598576e-09	4.362672e+01	6.295655e+02
1.880000e-06	6.259440e-06	9.597950e-09	4.325574e+01	6.272692e+02
1.890000e-06	6.203064e-06	9.568867e-09	4.286616e+01	6.247429e+02
1.900000e-06	6.144400e-06	9.488371e-09	4.246077e+01	6.220232e+02
1.910000e-06	6.083437e-06	9.410545e-09	4.203948e+01	6.191536e+02
1.920000e-06	6.020173e-06	9.352698e-09	4.160229e+01	6.161758e+02
1.930000e-06	5.954795e-06	9.342881e-09	4.115050e+01	6.131218e+02
1.940000e-06	5.887285e-06	9.342312e-09	4.068398e+01	6.100082e+02
1.950000e-06	5.817535e-06	9.264397e-09	4.020197e+01	6.068351e+02
1.960000e-06	5.745381e-06	9.202775e-09	3.970335e+01	6.035871e+02
1.970000e-06	5.671011e-06	9.135261e-09	3.918942e+01	6.002392e+02
1.980000e-06	5.594432e-06	9.080544e-09	3.866022e+01	5.967627e+02
1.990000e-06	5.515632e-06	9.047708e-09	3.811567e+01	5.931323e+02
2.000000e-06	5.434824e-06	8.980587e-09	3.755725e+01	5.893315e+02
2.010000e-06	5.352193e-06	8.922014e-09	3.698623e+01	5.853551e+02
2.020000e-06	5.267777e-06	8.850781e-09	3.640287e+01	5.812091e+02
2.030000e-06	5.181331e-06	8.789299e-09	3.580549e+01	5.769078e+02
2.040000e-06	5.092939e-06	8.726573e-09	3.519466e+01	5.724692e+02
2.050000e-06	5.002911e-06	8.649652e-09	3.457253e+01	5.679096e+02
2.060000e-06	4.911310e-06	8.572435e-09	3.393952e+01	5.632397e+02
2.070000e-06	4.817965e-06	8.497011e-09	3.329446e+01	5.584618e+02
2.080000e-06	4.722765e-06	8.438427e-09	3.263658e+01	5.535694e+02
2.090000e-06	4.625877e-06	8.370866e-09	3.196704e+01	5.485492e+02
2.100000e-06	4.527513e-06	8.301079e-09	3.128729e+01	5.433842e+02
2.110000e-06	4.427627e-06	8.210948e-09	3.059703e+01	5.380573e+02
2.120000e-06	4.326124e-06	8.105323e-09	2.989560e+01	5.325547e+02
2.130000e-06	4.222961e-06	8.012248e-09	2.918269e+01	5.268679e+02
2.140000e-06	4.118178e-06	7.937095e-09	2.845859e+01	5.209943e+02
2.150000e-06	4.012031e-06	7.862097e-09	2.772507e+01	5.149358e+02
2.160000e-06	3.904604e-06	7.767788e-09	2.698269e+01	5.086969e+02
2.170000e-06	3.795826e-06	7.664502e-09	2.623098e+01	5.022818e+02
2.180000e-06	3.685608e-06	7.553919e-09	2.546933e+01	4.956928e+02
2.190000e-06	3.573895e-06	7.450587e-09	2.469733e+01	4.889284e+02
2.200000e-06	3.460834e-06	7.351990e-09	2.391603e+01	4.819833e+02
2.210000e-06	3.346482e-06	7.249902e-09	2.312580e+01	4.748490e+02
2.220000e-06	3.230789e-06	7.131855e-09	2.232631e+01	4.675158e+02
2.230000e-06	3.113696e-06	7.005686e-09	2.151714e+01	4.599736e+02
2.240000e-06	2.995288e-06	6.886687e-09	2.069888e+01	4.522136e+02
2.250000e-06	2.875719e-06	6.772178e-09	1.987260e+01	4.442289e+02
2.260000e-06	2.755073e-06	6.653501e-09	1.903888e+01	4.360142e+02
2.270000e-06	2.633440e-06	6.525150e-09	1.819834e+01	4.275648e+02
2.280000e-06	2.510938e-06	6.393984e-09	1.735179e+01	4.188759e+02
2.290000e-06	2.387616e-06	6.260829e-09	1.649958e+01	4.099415e+02
2.300000e-06	2.263461e-06	6.124930e-09	1.564160e+01	4.007539e+02
2.310000e-06	2.138480e-06	5.983724e-09	1.477793e+01	3.913039e+02
2.320000e-06	2.012741e-06	5.831670e-09	1.390901e+01	3.815815e+02
2.330000e-06	1.886337e-06	5.667750e-09	1.303550e+01	3.715769e+02
2.340000e-06	1.759211e-06	5.504706e-09	1.215700e+01	3.612812e+02
2.350000e-06	1.631396e-06	5.350336e-09	1.127373e+01	3.506876e+02
2.360000e-06	1.503031e-06	5.196086e-09	1.038667e+01	3.397908e+02
2.370000e-06	1.374223e-06	5.030588e-09	9.496543e+00	3.285866e+02
2.380000e-06	1.245003e-06	4.852900e-09	8.603571e+00	3.170708e+02
2.390000e-06	1.115422e-06	4.667284e-09	7.708103e+00	3.052377e+02
2.400000e-06	9.855386e-07	4.478285e-09	6.810546e+00	2.930794e+02
2.410000e-06	8.553391e-07	4.289169e-09	5.910805e+00	2.805847e+02
2.420000e-06	7.248960e-07	4.095120e-09	5.009380e+00	2.677401e+02
2.430000e-06	5.942964e-07	3.890638e-09	4.106874e+00	2.545299e+02
2.440000e-06	4.635143e-07	3.677411e-09	3.203107e+00	2.409384e+02
2.450000e-06	3.325363e-07	3.462824e-09	2.297986e+00	2.269508e+02
2.460000e-06	2.014179e-07	3.248009e-09	1.391895e+00	2.125544e+02
2.470000e-06	7.018769e-08	3.028826e-09	4.850308e-01	1.977389e+02
2.480000e-06	-6.108298e-08	2.800900e-09	-4.221128e-01	1.824957e+02
2.490000e-06	-1.922518e-07	2.560518e-09	-1.328552e+00	1.668158e+02
2.500000e-06	-3.233523e-07	2.308919e-09	-2.234520e+00	1.506880e+02
2.510000e-06	-4.544232e-07	2.050618e-09	-3.140283e+00	1.340961e+02
2.520000e-06	-5.853860e-07	1.789114e-09	-4.045299e+00	1.170177e+02
2.530000e-06	-7.162006e-07	1.520746e-09	-4.949291e+00	9.942331e+01
2.540000e-06	-8.468228e-07	1.242085e-09	-5.851954e+00	8.127877e+01
2.550000e-06	-9.771957e-07	9.565928e-10	-6.752893e+00	6.254828e+01
2.560000e-06	-1.107213e-06	6.665679e-10	-7.651377e+00	4.320032e+01
2.570000e-06	-1.236798e-06	3.696477e-10	-8.546869e+00	2.321451e+01
2.580000e-06	-1.365996e-06	5.991765e-11	-9.439693e+00	2.589133e+00
2.590000e-06	-1.494869e-06	-2.649456e-10	-1.033027e+01	-1.865203e+01
2.600000e-06	-1.623211e-06	-6.017304e-10	-1.121717e+01	-4.045456e+01
2.610000e-06	-1.750852e-06	-9.460772e-10	-1.209923e+01	-6.273100e+01
2.620000e-06	-1.877837e-06	-1.292577e-09	-1.297676e+01	-8.536180e+01
2.630000e-06	-2.004060e-06	-1.637718e-09	-1.384902e+01	-1.081999e+02
2.640000e-06	-2.129478e-06	-1.984510e-09	-1.471572e+01	-1.310787e+02
2.650000e-06	-2.254044e-06	-2.334268e-09	-1.557653e+01	-1.538224e+02
2.660000e-06	-2.377674e-06	-2.678651e-09	-1.643087e+01	-1.762578e+02
2.670000e-06	-2.500371e-06	-3.012957e-09	-1.727877e+01	-1.982261e+02
2.680000e-06	-2.622171e-06	-3.335335e-09	-1.812046e+01	-2.195928e+02
2.690000e-06	-2.743080e-06	-3.649117e-09	-1.895600e+01	-2.402546e+02
2.700000e-06	-2.863011e-06	-3.952715e-09	-1.978478e+01	-2.601435e+02
2.710000e-06	-2.981848e-06	-4.242722e-09	-2.060601e+01	-2.792256e+02
2.720000e-06	-3.099500e-06	-4.523220e-09	-2.141904e+01	-2.974974e+02
2.730000e-06	-3.215858e-06	-4.792373e-09	-2.222313e+01	-3.149783e+02
2.740000e-06	-3.330854e-06	-5.050520e-09	-2.301781e+01	-3.317024e+02
2.750000e-06	-3.444534e-06	-5.296035e-09	-2.380339e+01	-3.477100e+02
2.760000e-06	-3.556834e-06	-5.529294e-09	-2.457944e+01	-3.630404e+02
2.770000e-06	-3.667644e-06	-5.753092e-09	-2.534519e+01	-3.777270e+02
2.780000e-06	-3.777104e-06	-5.967270e-09	-2.610161e+01	-3.917957e+02
2.790000e-06	-3.885423e-06	-6.173557e-09	-2.685014e+01	-4.052651e+02
2.800000e-06	-3.992562e-06	-6.371232e-09	-2.759053e+01	-4.181495e+02
2.810000e-06	-4.098397e-06	-6.561495e-09	-2.832189e+01	-4.304629e+02
2.820000e-06	-4.202766e-06	-6.742047e-09	-2.904314e+01	-4.422219e+02
2.830000e-06	-4.305469e-06	-6.913601e-09	-2.975286e+01	-4.534485e+02
2.840000e-06	-4.406511e-06	-7.077466e-09	-3.045111e+01	-4.641706e+02
2.850000e-06	-4.506040e-06	-7.233020e-09	-3.113891e+01	-4.744201e+02
2.860000e-06	-4.604088e-06	-7.383352e-09	-3.181647e+01	-4.842304e+02
2.870000e-06	-4.700600e-06	-7.527519e-09	-3.248341e+01	-4.936322e+02
2.880000e-06	-4.795379e-06	-7.665386e-09	-3.313838e+01	-5.026503e+02
2.890000e-06	-4.888394e-06	-7.797285e-09	-3.378116e+01	-5.113010e+02
2.900000e-06	-4.979683e-06	-7.922073e-09	-3.441201e+01	-5.195917e+02
2.910000e-06	-5.069187e-06	-8.040817e-09	-3.503053e+01	-5.275222e+02
2.920000e-06	-5.156809e-06	-8.153357e-09	-3.563603e+01	-5.350878e+02
2.930000e-06	-5.242384e-06	-8.261862e-09	-3.622740e+01	-5.422835e+02
2.940000e-06	-5.326061e-06	-8.366067e-09	-3.680565e+01	-5.491081e+02
