# Temperatura_=_43.29
# Concentracion g/m^3_=_15000.0
# C_Vs_to_Am_M_A/Vsm_=_65563218390.804596
# pendiente_HvsI_1/m_=_3716.3
# ordenada_HvsI_A/m_=_1297.0
# frecuencia_Hz_=_301965.48669914855

Tiempo_(s)	Campo_(V.s)	Magnetizacion_(V.s)	Campo_(kA/m)	Magnetizacion_(A/m)
0.000000e+00	-6.938717e-06	-1.039648e-08	-4.748449e+01	-6.817498e+02
1.000000e-08	-6.936860e-06	-1.040292e-08	-4.747178e+01	-6.815695e+02
2.000000e-08	-6.932550e-06	-1.039964e-08	-4.744229e+01	-6.812938e+02
3.000000e-08	-6.926099e-06	-1.039125e-08	-4.739814e+01	-6.809204e+02
4.000000e-08	-6.917439e-06	-1.038807e-08	-4.733888e+01	-6.804406e+02
5.000000e-08	-6.906345e-06	-1.038000e-08	-4.726295e+01	-6.798411e+02
6.000000e-08	-6.892740e-06	-1.036775e-08	-4.716985e+01	-6.791092e+02
7.000000e-08	-6.876613e-06	-1.034091e-08	-4.705949e+01	-6.782376e+02
8.000000e-08	-6.858223e-06	-1.032278e-08	-4.693364e+01	-6.772291e+02
9.000000e-08	-6.837622e-06	-1.039529e-08	-4.679266e+01	-6.760987e+02
1.000000e-07	-6.814355e-06	-1.039787e-08	-4.663343e+01	-6.748732e+02
1.100000e-07	-6.788211e-06	-1.029787e-08	-4.645452e+01	-6.735871e+02
1.200000e-07	-6.759483e-06	-1.026259e-08	-4.625792e+01	-6.722757e+02
1.300000e-07	-6.728624e-06	-1.025020e-08	-4.604674e+01	-6.709677e+02
1.400000e-07	-6.695777e-06	-1.012794e-08	-4.582195e+01	-6.696776e+02
1.500000e-07	-6.660989e-06	-1.015423e-08	-4.558388e+01	-6.684007e+02
1.600000e-07	-6.624200e-06	-1.030062e-08	-4.533212e+01	-6.671118e+02
1.700000e-07	-6.585353e-06	-1.007071e-08	-4.506627e+01	-6.657681e+02
1.800000e-07	-6.544327e-06	-1.011978e-08	-4.478552e+01	-6.643162e+02
1.900000e-07	-6.500740e-06	-1.018699e-08	-4.448723e+01	-6.627009e+02
2.000000e-07	-6.454641e-06	-1.003093e-08	-4.417175e+01	-6.608753e+02
2.100000e-07	-6.406120e-06	-1.012118e-08	-4.383971e+01	-6.588087e+02
2.200000e-07	-6.354914e-06	-1.002984e-08	-4.348928e+01	-6.564915e+02
2.300000e-07	-6.301093e-06	-9.943236e-09	-4.312097e+01	-6.539352e+02
2.400000e-07	-6.244880e-06	-9.913457e-09	-4.273628e+01	-6.511692e+02
2.500000e-07	-6.186312e-06	-9.857480e-09	-4.233547e+01	-6.482326e+02
2.600000e-07	-6.125505e-06	-9.872097e-09	-4.191935e+01	-6.451662e+02
2.700000e-07	-6.062514e-06	-9.808886e-09	-4.148827e+01	-6.420035e+02
2.800000e-07	-5.997228e-06	-9.730370e-09	-4.104149e+01	-6.387647e+02
2.900000e-07	-5.929589e-06	-9.653850e-09	-4.057861e+01	-6.354537e+02
3.000000e-07	-5.859770e-06	-9.637862e-09	-4.010081e+01	-6.320596e+02
3.100000e-07	-5.787806e-06	-9.623555e-09	-3.960834e+01	-6.285607e+02
3.200000e-07	-5.713560e-06	-9.525928e-09	-3.910024e+01	-6.249311e+02
3.300000e-07	-5.637038e-06	-9.498576e-09	-3.857656e+01	-6.211473e+02
3.400000e-07	-5.558174e-06	-9.409624e-09	-3.803686e+01	-6.171936e+02
3.500000e-07	-5.477142e-06	-9.327556e-09	-3.748233e+01	-6.130650e+02
3.600000e-07	-5.394253e-06	-9.289868e-09	-3.691509e+01	-6.087669e+02
3.700000e-07	-5.309588e-06	-9.233774e-09	-3.633569e+01	-6.043127e+02
3.800000e-07	-5.223183e-06	-9.161624e-09	-3.574438e+01	-5.997190e+02
3.900000e-07	-5.134905e-06	-9.057502e-09	-3.514026e+01	-5.950009e+02
4.000000e-07	-5.044699e-06	-9.002296e-09	-3.452295e+01	-5.901676e+02
4.100000e-07	-4.952748e-06	-8.939841e-09	-3.389369e+01	-5.852200e+02
4.200000e-07	-4.859161e-06	-8.869927e-09	-3.325323e+01	-5.801507e+02
4.300000e-07	-4.763947e-06	-8.774827e-09	-3.260164e+01	-5.749460e+02
4.400000e-07	-4.666913e-06	-8.680373e-09	-3.193760e+01	-5.695889e+02
4.500000e-07	-4.568137e-06	-8.603024e-09	-3.126164e+01	-5.640632e+02
4.600000e-07	-4.467711e-06	-8.515253e-09	-3.057438e+01	-5.583560e+02
4.700000e-07	-4.365746e-06	-8.438924e-09	-2.987659e+01	-5.524601e+02
4.800000e-07	-4.262375e-06	-8.345061e-09	-2.916918e+01	-5.463741e+02
4.900000e-07	-4.157378e-06	-8.237444e-09	-2.845064e+01	-5.401005e+02
5.000000e-07	-4.050785e-06	-8.128947e-09	-2.772118e+01	-5.336444e+02
5.100000e-07	-3.942740e-06	-8.039312e-09	-2.698179e+01	-5.270102e+02
5.200000e-07	-3.833286e-06	-7.947120e-09	-2.623275e+01	-5.201999e+02
5.300000e-07	-3.722584e-06	-7.838282e-09	-2.547517e+01	-5.132117e+02
5.400000e-07	-3.610573e-06	-7.717670e-09	-2.470863e+01	-5.060403e+02
5.500000e-07	-3.497002e-06	-7.594193e-09	-2.393142e+01	-4.986773e+02
5.600000e-07	-3.381831e-06	-7.480947e-09	-2.314326e+01	-4.911129e+02
5.700000e-07	-3.265157e-06	-7.369441e-09	-2.234481e+01	-4.833376e+02
5.800000e-07	-3.147272e-06	-7.254341e-09	-2.153807e+01	-4.753430e+02
5.900000e-07	-3.028349e-06	-7.124556e-09	-2.072423e+01	-4.671222e+02
6.000000e-07	-2.908267e-06	-6.994374e-09	-1.990247e+01	-4.586702e+02
6.100000e-07	-2.787022e-06	-6.864848e-09	-1.907274e+01	-4.499821e+02
6.200000e-07	-2.664732e-06	-6.733699e-09	-1.823585e+01	-4.410532e+02
6.300000e-07	-2.541404e-06	-6.591127e-09	-1.739187e+01	-4.318777e+02
6.400000e-07	-2.417160e-06	-6.437861e-09	-1.654162e+01	-4.224484e+02
6.500000e-07	-2.292120e-06	-6.283935e-09	-1.568592e+01	-4.127570e+02
6.600000e-07	-2.166283e-06	-6.131233e-09	-1.482477e+01	-4.027946e+02
6.700000e-07	-2.039830e-06	-5.979480e-09	-1.395939e+01	-3.925527e+02
6.800000e-07	-1.912745e-06	-5.823000e-09	-1.308970e+01	-3.820235e+02
6.900000e-07	-1.784893e-06	-5.660389e-09	-1.221476e+01	-3.712003e+02
7.000000e-07	-1.656263e-06	-5.486340e-09	-1.133449e+01	-3.600773e+02
7.100000e-07	-1.526990e-06	-5.308265e-09	-1.044982e+01	-3.486486e+02
7.200000e-07	-1.397261e-06	-5.131510e-09	-9.562030e+00	-3.369073e+02
7.300000e-07	-1.267097e-06	-4.953700e-09	-8.671267e+00	-3.248446e+02
7.400000e-07	-1.136557e-06	-4.765705e-09	-7.777925e+00	-3.124489e+02
7.500000e-07	-1.005620e-06	-4.566090e-09	-6.881870e+00	-2.997056e+02
7.600000e-07	-8.743117e-07	-4.364833e-09	-5.983274e+00	-2.865980e+02
7.700000e-07	-7.427611e-07	-4.161018e-09	-5.083019e+00	-2.731081e+02
7.800000e-07	-6.109584e-07	-3.950852e-09	-4.181039e+00	-2.592176e+02
7.900000e-07	-4.789345e-07	-3.733421e-09	-3.277545e+00	-2.449093e+02
8.000000e-07	-3.467796e-07	-3.509170e-09	-2.373155e+00	-2.301674e+02
8.100000e-07	-2.144661e-07	-3.276643e-09	-1.467679e+00	-2.149776e+02
8.200000e-07	-8.196170e-08	-3.039751e-09	-5.608976e-01	-1.993258e+02
8.300000e-07	5.062542e-08	-2.798428e-09	3.464506e-01	-1.831965e+02
8.400000e-07	1.831415e-07	-2.546957e-09	1.253313e+00	-1.665705e+02
8.500000e-07	3.155400e-07	-2.284405e-09	2.159370e+00	-1.494236e+02
8.600000e-07	4.478600e-07	-2.013174e-09	3.064890e+00	-1.317248e+02
8.700000e-07	5.801138e-07	-1.734221e-09	3.969957e+00	-1.134368e+02
8.800000e-07	7.122380e-07	-1.442706e-09	4.874137e+00	-9.451777e+01
8.900000e-07	8.441212e-07	-1.141272e-09	5.776668e+00	-7.492501e+01
9.000000e-07	9.757343e-07	-8.318219e-10	6.677350e+00	-5.462045e+01
9.100000e-07	1.107080e-06	-5.126551e-10	7.576203e+00	-3.357761e+01
9.200000e-07	1.238074e-06	-1.809600e-10	8.472648e+00	-1.178926e+01
9.300000e-07	1.368594e-06	1.621890e-10	9.365853e+00	1.072511e+01
9.400000e-07	1.498579e-06	5.158982e-10	1.025539e+01	3.391305e+01
9.500000e-07	1.627988e-06	8.812531e-10	1.114099e+01	5.768529e+01
9.600000e-07	1.756799e-06	1.253865e-09	1.202250e+01	8.191513e+01
9.700000e-07	1.884914e-06	1.632297e-09	1.289924e+01	1.064417e+02
9.800000e-07	2.012219e-06	2.011480e-09	1.377044e+01	1.310772e+02
9.900000e-07	2.138824e-06	2.387186e-09	1.463685e+01	1.556178e+02
1.000000e-06	2.264772e-06	2.755973e-09	1.549877e+01	1.798566e+02
1.010000e-06	2.389968e-06	3.115207e-09	1.635554e+01	2.035984e+02
1.020000e-06	2.514352e-06	3.465096e-09	1.720674e+01	2.266728e+02
1.030000e-06	2.637871e-06	3.803803e-09	1.805203e+01	2.489454e+02
1.040000e-06	2.760434e-06	4.132230e-09	1.889078e+01	2.703245e+02
1.050000e-06	2.881838e-06	4.446451e-09	1.972160e+01	2.907628e+02
1.060000e-06	3.001983e-06	4.744235e-09	2.054380e+01	3.102541e+02
1.070000e-06	3.121021e-06	5.026235e-09	2.135843e+01	3.288259e+02
1.080000e-06	3.239029e-06	5.296893e-09	2.216601e+01	3.465282e+02
1.090000e-06	3.355914e-06	5.554431e-09	2.296590e+01	3.634219e+02
1.100000e-06	3.471483e-06	5.797520e-09	2.375678e+01	3.795682e+02
1.110000e-06	3.585657e-06	6.029844e-09	2.453812e+01	3.950198e+02
1.120000e-06	3.698402e-06	6.251413e-09	2.530968e+01	4.098172e+02
1.130000e-06	3.809735e-06	6.464362e-09	2.607158e+01	4.239874e+02
1.140000e-06	3.919817e-06	6.669798e-09	2.682492e+01	4.375476e+02
1.150000e-06	4.028689e-06	6.867571e-09	2.756997e+01	4.505099e+02
1.160000e-06	4.136266e-06	7.057720e-09	2.830617e+01	4.628872e+02
1.170000e-06	4.242356e-06	7.239726e-09	2.903218e+01	4.746980e+02
1.180000e-06	4.346782e-06	7.412097e-09	2.974681e+01	4.859684e+02
1.190000e-06	4.449641e-06	7.576156e-09	3.045072e+01	4.967322e+02
1.200000e-06	4.551023e-06	7.730408e-09	3.114452e+01	5.070281e+02
1.210000e-06	4.650821e-06	7.877834e-09	3.182748e+01	5.168946e+02
1.220000e-06	4.748833e-06	8.021207e-09	3.249822e+01	5.263654e+02
1.230000e-06	4.844963e-06	8.161464e-09	3.315607e+01	5.354654e+02
1.240000e-06	4.939322e-06	8.298235e-09	3.380181e+01	5.442083e+02
1.250000e-06	5.032034e-06	8.429817e-09	3.443628e+01	5.525977e+02
1.260000e-06	5.123096e-06	8.557774e-09	3.505945e+01	5.606291e+02
1.270000e-06	5.212201e-06	8.677538e-09	3.566923e+01	5.682950e+02
1.280000e-06	5.299302e-06	8.788000e-09	3.626530e+01	5.755894e+02
1.290000e-06	5.384596e-06	8.892376e-09	3.684900e+01	5.825124e+02
1.300000e-06	5.468127e-06	8.992127e-09	3.742064e+01	5.890724e+02
1.310000e-06	5.549702e-06	9.085608e-09	3.797889e+01	5.952863e+02
1.320000e-06	5.629178e-06	9.174276e-09	3.852278e+01	6.011784e+02
1.330000e-06	5.706675e-06	9.261687e-09	3.905312e+01	6.067765e+02
1.340000e-06	5.781997e-06	9.346062e-09	3.956858e+01	6.121089e+02
1.350000e-06	5.854953e-06	9.424729e-09	4.006784e+01	6.172005e+02
1.360000e-06	5.925745e-06	9.498035e-09	4.055231e+01	6.220707e+02
1.370000e-06	5.994549e-06	9.569163e-09	4.102316e+01	6.267333e+02
1.380000e-06	6.061233e-06	9.636319e-09	4.147951e+01	6.311967e+02
1.390000e-06	6.125655e-06	9.700098e-09	4.192037e+01	6.354660e+02
1.400000e-06	6.187945e-06	9.761044e-09	4.234665e+01	6.395451e+02
1.410000e-06	6.248283e-06	9.819447e-09	4.275957e+01	6.434378e+02
1.420000e-06	6.306397e-06	9.877024e-09	4.315726e+01	6.471488e+02
1.430000e-06	6.362189e-06	9.931505e-09	4.353907e+01	6.506829e+02
1.440000e-06	6.415743e-06	9.983644e-09	4.390556e+01	6.540442e+02
1.450000e-06	6.466600e-06	1.003288e-08	4.425360e+01	6.572345e+02
1.460000e-06	6.514739e-06	1.007923e-08	4.458304e+01	6.602525e+02
1.470000e-06	6.560638e-06	1.012289e-08	4.489714e+01	6.630938e+02
1.480000e-06	6.604471e-06	1.016255e-08	4.519711e+01	6.657519e+02
1.490000e-06	6.645872e-06	1.019929e-08	4.548043e+01	6.682202e+02
1.500000e-06	6.684712e-06	1.023321e-08	4.574623e+01	6.704940e+02
1.510000e-06	6.721401e-06	1.026391e-08	4.599730e+01	6.725728e+02
1.520000e-06	6.755807e-06	1.029196e-08	4.623276e+01	6.744612e+02
1.530000e-06	6.787650e-06	1.031735e-08	4.645067e+01	6.761681e+02
1.540000e-06	6.817166e-06	1.034016e-08	4.665266e+01	6.777057e+02
1.550000e-06	6.844400e-06	1.036018e-08	4.683904e+01	6.790866e+02
1.560000e-06	6.869042e-06	1.037784e-08	4.700767e+01	6.803212e+02
1.570000e-06	6.891155e-06	1.039394e-08	4.715901e+01	6.814162e+02
1.580000e-06	6.911006e-06	1.040726e-08	4.729485e+01	6.823732e+02
1.590000e-06	6.928375e-06	1.041889e-08	4.741371e+01	6.831900e+02
1.600000e-06	6.943131e-06	1.042823e-08	4.751470e+01	6.838627e+02
1.610000e-06	6.955293e-06	1.043658e-08	4.759792e+01	6.843881e+02
1.620000e-06	6.964647e-06	1.044450e-08	4.766194e+01	6.847666e+02
1.630000e-06	6.971359e-06	1.044968e-08	4.770787e+01	6.850032e+02
1.640000e-06	6.975727e-06	1.045208e-08	4.773776e+01	6.851080e+02
1.650000e-06	6.977625e-06	1.045332e-08	4.775075e+01	6.850937e+02
1.660000e-06	6.977010e-06	1.045210e-08	4.774654e+01	6.849729e+02
1.670000e-06	6.974170e-06	1.043947e-08	4.772711e+01	6.847543e+02
1.680000e-06	6.969055e-06	1.043308e-08	4.769210e+01	6.844402e+02
1.690000e-06	6.961548e-06	1.042554e-08	4.764073e+01	6.840259e+02
1.700000e-06	6.951790e-06	1.041671e-08	4.757395e+01	6.835001e+02
1.710000e-06	6.939655e-06	1.041190e-08	4.749091e+01	6.828493e+02
1.720000e-06	6.925052e-06	1.041592e-08	4.739098e+01	6.820624e+02
1.730000e-06	6.908309e-06	1.041668e-08	4.727639e+01	6.811354e+02
1.740000e-06	6.889503e-06	1.029295e-08	4.714770e+01	6.800760e+02
1.750000e-06	6.867924e-06	1.025006e-08	4.700002e+01	6.789039e+02
1.760000e-06	6.842926e-06	1.031684e-08	4.682895e+01	6.776497e+02
1.770000e-06	6.814954e-06	1.028364e-08	4.663753e+01	6.763490e+02
1.780000e-06	6.784639e-06	1.029602e-08	4.643007e+01	6.750356e+02
1.790000e-06	6.752451e-06	1.041267e-08	4.620979e+01	6.737334e+02
1.800000e-06	6.718937e-06	1.019748e-08	4.598044e+01	6.724496e+02
1.810000e-06	6.683524e-06	1.018049e-08	4.573810e+01	6.711715e+02
1.820000e-06	6.645443e-06	1.032338e-08	4.547749e+01	6.698664e+02
1.830000e-06	6.605176e-06	1.013268e-08	4.520193e+01	6.684862e+02
1.840000e-06	6.562776e-06	1.026281e-08	4.491177e+01	6.669759e+02
1.850000e-06	6.517969e-06	1.013095e-08	4.460513e+01	6.652822e+02
1.860000e-06	6.470842e-06	9.992840e-09	4.428263e+01	6.633640e+02
1.870000e-06	6.421290e-06	1.014970e-08	4.394352e+01	6.611983e+02
1.880000e-06	6.369459e-06	9.987973e-09	4.358882e+01	6.587841e+02
1.890000e-06	6.315015e-06	1.007743e-08	4.321624e+01	6.561406e+02
1.900000e-06	6.257860e-06	9.999922e-09	4.282511e+01	6.533020e+02
1.910000e-06	6.198417e-06	9.845296e-09	4.241831e+01	6.503092e+02
1.920000e-06	6.136530e-06	9.913960e-09	4.199479e+01	6.472011e+02
1.930000e-06	6.072393e-06	9.773243e-09	4.155588e+01	6.440063e+02
1.940000e-06	6.006164e-06	9.830466e-09	4.110265e+01	6.407390e+02
1.950000e-06	5.937722e-06	9.726167e-09	4.063427e+01	6.373968e+02
1.960000e-06	5.867003e-06	9.654946e-09	4.015031e+01	6.339639e+02
1.970000e-06	5.793929e-06	9.624835e-09	3.965023e+01	6.304162e+02
1.980000e-06	5.718571e-06	9.480855e-09	3.913453e+01	6.267279e+02
1.990000e-06	5.640887e-06	9.545507e-09	3.860291e+01	6.228781e+02
2.000000e-06	5.561093e-06	9.439342e-09	3.805684e+01	6.188551e+02
2.010000e-06	5.479435e-06	9.379484e-09	3.749802e+01	6.146581e+02
2.020000e-06	5.395936e-06	9.300157e-09	3.692660e+01	6.102962e+02
2.030000e-06	5.310478e-06	9.216857e-09	3.634178e+01	6.057847e+02
2.040000e-06	5.222952e-06	9.175731e-09	3.574281e+01	6.011400e+02
2.050000e-06	5.133615e-06	9.075219e-09	3.513143e+01	5.963754e+02
2.060000e-06	5.042666e-06	9.034312e-09	3.450903e+01	5.914970e+02
2.070000e-06	4.950071e-06	8.922042e-09	3.387537e+01	5.865023e+02
2.080000e-06	4.855671e-06	8.855614e-09	3.322935e+01	5.813811e+02
2.090000e-06	4.759460e-06	8.774625e-09	3.257094e+01	5.761180e+02
2.100000e-06	4.661658e-06	8.717884e-09	3.190164e+01	5.706959e+02
2.110000e-06	4.562396e-06	8.632810e-09	3.122235e+01	5.650996e+02
2.120000e-06	4.461452e-06	8.512390e-09	3.053155e+01	5.593182e+02
2.130000e-06	4.358722e-06	8.424491e-09	2.982853e+01	5.533470e+02
2.140000e-06	4.254429e-06	8.330228e-09	2.911480e+01	5.471862e+02
2.150000e-06	4.148643e-06	8.252901e-09	2.839087e+01	5.408397e+02
2.160000e-06	4.041473e-06	8.146669e-09	2.765746e+01	5.343126e+02
2.170000e-06	3.932828e-06	8.048869e-09	2.691396e+01	5.276086e+02
2.180000e-06	3.822694e-06	7.933682e-09	2.616027e+01	5.207283e+02
2.190000e-06	3.711196e-06	7.829370e-09	2.539724e+01	5.136684e+02
2.200000e-06	3.598274e-06	7.726175e-09	2.462447e+01	5.064222e+02
2.210000e-06	3.483954e-06	7.624778e-09	2.384212e+01	4.989807e+02
2.220000e-06	3.368148e-06	7.503341e-09	2.304962e+01	4.913340e+02
2.230000e-06	3.250880e-06	7.366654e-09	2.224710e+01	4.834729e+02
2.240000e-06	3.132338e-06	7.236400e-09	2.143587e+01	4.753895e+02
2.250000e-06	3.012576e-06	7.110722e-09	2.061629e+01	4.670779e+02
2.260000e-06	2.891662e-06	6.993784e-09	1.978883e+01	4.585331e+02
2.270000e-06	2.769785e-06	6.860835e-09	1.895477e+01	4.497505e+02
2.280000e-06	2.647069e-06	6.725066e-09	1.811498e+01	4.407249e+02
2.290000e-06	2.523404e-06	6.581884e-09	1.726869e+01	4.314500e+02
2.300000e-06	2.398669e-06	6.441663e-09	1.641507e+01	4.219182e+02
2.310000e-06	2.273041e-06	6.295464e-09	1.555535e+01	4.121208e+02
2.320000e-06	2.146689e-06	6.143425e-09	1.469067e+01	4.020491e+02
2.330000e-06	2.019554e-06	5.978214e-09	1.382064e+01	3.916946e+02
2.340000e-06	1.891719e-06	5.808536e-09	1.294581e+01	3.810500e+02
2.350000e-06	1.763324e-06	5.642388e-09	1.206715e+01	3.701091e+02
2.360000e-06	1.634366e-06	5.478884e-09	1.118464e+01	3.588662e+02
2.370000e-06	1.504821e-06	5.312429e-09	1.029811e+01	3.473150e+02
2.380000e-06	1.374793e-06	5.129630e-09	9.408276e+00	3.354481e+02
2.390000e-06	1.244446e-06	4.938435e-09	8.516257e+00	3.232555e+02
2.400000e-06	1.113833e-06	4.743963e-09	7.622417e+00	3.107245e+02
2.410000e-06	9.829267e-07	4.549944e-09	6.726571e+00	2.978396e+02
2.420000e-06	8.517009e-07	4.350988e-09	5.828539e+00	2.845835e+02
2.430000e-06	7.201140e-07	4.138801e-09	4.928036e+00	2.709377e+02
2.440000e-06	5.882318e-07	3.917886e-09	4.025512e+00	2.568845e+02
2.450000e-06	4.560887e-07	3.694054e-09	3.121202e+00	2.424071e+02
2.460000e-06	3.236969e-07	3.468132e-09	2.215191e+00	2.274903e+02
2.470000e-06	1.911690e-07	3.238241e-09	1.308248e+00	2.121202e+02
2.480000e-06	5.854730e-08	2.999872e-09	4.006632e-01	1.962822e+02
2.490000e-06	-7.414741e-08	2.752173e-09	-5.074211e-01	1.799597e+02
2.500000e-06	-2.068253e-07	2.494088e-09	-1.415390e+00	1.631318e+02
2.510000e-06	-3.394310e-07	2.224764e-09	-2.322866e+00	1.457715e+02
2.520000e-06	-4.719499e-07	1.946602e-09	-3.229747e+00	1.278454e+02
2.530000e-06	-6.042743e-07	1.663104e-09	-4.135297e+00	1.093141e+02
2.540000e-06	-7.363614e-07	1.370739e-09	-5.039224e+00	9.013478e+01
2.550000e-06	-8.681467e-07	1.067151e-09	-5.941084e+00	7.026588e+01
2.560000e-06	-9.995075e-07	7.579739e-10	-6.840040e+00	4.967297e+01
2.570000e-06	-1.130445e-06	4.382292e-10	-7.736100e+00	2.833621e+01
2.580000e-06	-1.261051e-06	1.032053e-10	-8.629887e+00	6.258029e+00
2.590000e-06	-1.391320e-06	-2.435318e-10	-9.521375e+00	-1.652977e+01
2.600000e-06	-1.521169e-06	-6.006175e-10	-1.040999e+01	-3.996058e+01
2.610000e-06	-1.650479e-06	-9.662310e-10	-1.129490e+01	-6.393029e+01
2.620000e-06	-1.779157e-06	-1.339343e-09	-1.217550e+01	-8.829817e+01
2.630000e-06	-1.907184e-06	-1.715627e-09	-1.305164e+01	-1.128917e+02
2.640000e-06	-2.034534e-06	-2.090774e-09	-1.392315e+01	-1.375153e+02
2.650000e-06	-2.161165e-06	-2.462944e-09	-1.478974e+01	-1.619622e+02
2.660000e-06	-2.287008e-06	-2.829904e-09	-1.565093e+01	-1.860285e+02
2.670000e-06	-2.411938e-06	-3.187647e-09	-1.650588e+01	-2.095272e+02
2.680000e-06	-2.535834e-06	-3.533651e-09	-1.735375e+01	-2.323010e+02
2.690000e-06	-2.658708e-06	-3.866351e-09	-1.819463e+01	-2.542316e+02
2.700000e-06	-2.780592e-06	-4.185153e-09	-1.902873e+01	-2.752449e+02
2.710000e-06	-2.901476e-06	-4.490340e-09	-1.985599e+01	-2.953104e+02
2.720000e-06	-3.021352e-06	-4.782790e-09	-2.067635e+01	-3.144363e+02
2.730000e-06	-3.140167e-06	-5.065045e-09	-2.148945e+01	-3.326602e+02
2.740000e-06	-3.257730e-06	-5.337381e-09	-2.229398e+01	-3.500379e+02
2.750000e-06	-3.373841e-06	-5.595960e-09	-2.308858e+01	-3.666316e+02
2.760000e-06	-3.488581e-06	-5.836603e-09	-2.387379e+01	-3.824999e+02
2.770000e-06	-3.601999e-06	-6.063780e-09	-2.464996e+01	-3.976911e+02
2.780000e-06	-3.713950e-06	-6.282460e-09	-2.541608e+01	-4.122400e+02
2.790000e-06	-3.824406e-06	-6.492905e-09	-2.617198e+01	-4.261695e+02
2.800000e-06	-3.933516e-06	-6.697055e-09	-2.691866e+01	-4.394940e+02
2.810000e-06	-4.041397e-06	-6.895146e-09	-2.765694e+01	-4.522254e+02
2.820000e-06	-4.148053e-06	-7.086166e-09	-2.838683e+01	-4.643781e+02
2.830000e-06	-4.253259e-06	-7.267186e-09	-2.910680e+01	-4.759735e+02
2.840000e-06	-4.356851e-06	-7.437271e-09	-2.981572e+01	-4.870411e+02
2.850000e-06	-4.458779e-06	-7.598816e-09	-3.051326e+01	-4.976170e+02
2.860000e-06	-4.559033e-06	-7.752835e-09	-3.119933e+01	-5.077403e+02
2.870000e-06	-4.657717e-06	-7.900033e-09	-3.187467e+01	-5.174484e+02
2.880000e-06	-4.754850e-06	-8.039613e-09	-3.253939e+01	-5.267717e+02
2.890000e-06	-4.850328e-06	-8.173062e-09	-3.319279e+01	-5.357309e+02
2.900000e-06	-4.943983e-06	-8.302251e-09	-3.383370e+01	-5.443357e+02
2.910000e-06	-5.035881e-06	-8.426721e-09	-3.446260e+01	-5.525858e+02
2.920000e-06	-5.126062e-06	-8.547929e-09	-3.507975e+01	-5.604751e+02
2.930000e-06	-5.214381e-06	-8.663943e-09	-3.568415e+01	-5.679961e+02
2.940000e-06	-5.300701e-06	-8.773056e-09	-3.627487e+01	-5.751448e+02
