# Temperatura_=_35.81
# Concentracion g/m^3_=_15000.0
# C_Vs_to_Am_M_A/Vsm_=_65563218390.804596
# pendiente_HvsI_1/m_=_3716.3
# ordenada_HvsI_A/m_=_1297.0
# frecuencia_Hz_=_301960.3235894481

Tiempo_(s)	Campo_(V.s)	Magnetizacion_(V.s)	Campo_(kA/m)	Magnetizacion_(A/m)
0.000000e+00	-6.891418e-06	-1.012411e-08	-4.747333e+01	-6.627502e+02
1.000000e-08	-6.887388e-06	-1.012167e-08	-4.744557e+01	-6.625743e+02
2.000000e-08	-6.881221e-06	-1.011348e-08	-4.740309e+01	-6.622981e+02
3.000000e-08	-6.872852e-06	-1.010729e-08	-4.734543e+01	-6.619045e+02
4.000000e-08	-6.862017e-06	-1.010169e-08	-4.727079e+01	-6.613767e+02
5.000000e-08	-6.848543e-06	-1.009341e-08	-4.717797e+01	-6.607041e+02
6.000000e-08	-6.832613e-06	-1.007606e-08	-4.706823e+01	-6.598879e+02
7.000000e-08	-6.814510e-06	-1.006384e-08	-4.694353e+01	-6.589438e+02
8.000000e-08	-6.794250e-06	-1.010007e-08	-4.680396e+01	-6.579007e+02
9.000000e-08	-6.771403e-06	-1.010286e-08	-4.664657e+01	-6.567968e+02
1.000000e-07	-6.745598e-06	-1.004134e-08	-4.646881e+01	-6.556711e+02
1.100000e-07	-6.717154e-06	-1.000514e-08	-4.627287e+01	-6.545553e+02
1.200000e-07	-6.686567e-06	-9.978294e-09	-4.606216e+01	-6.534650e+02
1.300000e-07	-6.653962e-06	-9.899478e-09	-4.583755e+01	-6.523949e+02
1.400000e-07	-6.619435e-06	-9.903837e-09	-4.559970e+01	-6.513176e+02
1.500000e-07	-6.582959e-06	-9.986154e-09	-4.534843e+01	-6.501874e+02
1.600000e-07	-6.544402e-06	-9.869545e-09	-4.508281e+01	-6.489485e+02
1.700000e-07	-6.503684e-06	-9.892258e-09	-4.480232e+01	-6.475452e+02
1.800000e-07	-6.460491e-06	-9.924879e-09	-4.450477e+01	-6.459320e+02
1.900000e-07	-6.414839e-06	-9.803721e-09	-4.419029e+01	-6.440819e+02
2.000000e-07	-6.366821e-06	-9.831350e-09	-4.385951e+01	-6.419904e+02
2.100000e-07	-6.316090e-06	-9.770162e-09	-4.351003e+01	-6.396743e+02
2.200000e-07	-6.262738e-06	-9.683053e-09	-4.314250e+01	-6.371665e+02
2.300000e-07	-6.207018e-06	-9.659909e-09	-4.275866e+01	-6.345070e+02
2.400000e-07	-6.148905e-06	-9.635270e-09	-4.235834e+01	-6.317338e+02
2.500000e-07	-6.088499e-06	-9.626193e-09	-4.194221e+01	-6.288744e+02
2.600000e-07	-6.025954e-06	-9.579125e-09	-4.151135e+01	-6.259408e+02
2.700000e-07	-5.961183e-06	-9.522079e-09	-4.106516e+01	-6.229288e+02
2.800000e-07	-5.894136e-06	-9.450383e-09	-4.060329e+01	-6.198208e+02
2.900000e-07	-5.824934e-06	-9.406902e-09	-4.012657e+01	-6.165926e+02
3.000000e-07	-5.753623e-06	-9.380468e-09	-3.963533e+01	-6.132200e+02
3.100000e-07	-5.680063e-06	-9.302524e-09	-3.912859e+01	-6.096855e+02
3.200000e-07	-5.604143e-06	-9.259327e-09	-3.860560e+01	-6.059827e+02
3.300000e-07	-5.525946e-06	-9.189275e-09	-3.806692e+01	-6.021163e+02
3.400000e-07	-5.445631e-06	-9.115989e-09	-3.751365e+01	-5.981004e+02
3.500000e-07	-5.363377e-06	-9.070187e-09	-3.694702e+01	-5.939533e+02
3.600000e-07	-5.279312e-06	-9.011758e-09	-3.636791e+01	-5.896917e+02
3.700000e-07	-5.193529e-06	-8.945225e-09	-3.577698e+01	-5.853263e+02
3.800000e-07	-5.105974e-06	-8.865042e-09	-3.517383e+01	-5.808581e+02
3.900000e-07	-5.016511e-06	-8.807873e-09	-3.455754e+01	-5.762794e+02
4.000000e-07	-4.925199e-06	-8.738842e-09	-3.392851e+01	-5.715750e+02
4.100000e-07	-4.832223e-06	-8.663066e-09	-3.328803e+01	-5.667269e+02
4.200000e-07	-4.737743e-06	-8.572019e-09	-3.263718e+01	-5.617186e+02
4.300000e-07	-4.641544e-06	-8.482732e-09	-3.197449e+01	-5.565385e+02
4.400000e-07	-4.543497e-06	-8.412305e-09	-3.129906e+01	-5.511821e+02
4.500000e-07	-4.443826e-06	-8.334325e-09	-3.061245e+01	-5.456512e+02
4.600000e-07	-4.342663e-06	-8.253212e-09	-2.991557e+01	-5.399518e+02
4.700000e-07	-4.240082e-06	-8.160406e-09	-2.920891e+01	-5.340911e+02
4.800000e-07	-4.135946e-06	-8.059791e-09	-2.849154e+01	-5.280736e+02
4.900000e-07	-4.030178e-06	-7.956255e-09	-2.776293e+01	-5.218995e+02
5.000000e-07	-3.922943e-06	-7.863708e-09	-2.702422e+01	-5.155638e+02
5.100000e-07	-3.814301e-06	-7.772730e-09	-2.627581e+01	-5.090575e+02
5.200000e-07	-3.704277e-06	-7.671800e-09	-2.551788e+01	-5.023699e+02
5.300000e-07	-3.592932e-06	-7.562609e-09	-2.475085e+01	-4.954914e+02
5.400000e-07	-3.480155e-06	-7.451916e-09	-2.397395e+01	-4.884159e+02
5.500000e-07	-3.365841e-06	-7.342994e-09	-2.318647e+01	-4.811416e+02
5.600000e-07	-3.250093e-06	-7.227877e-09	-2.238911e+01	-4.736700e+02
5.700000e-07	-3.133085e-06	-7.109381e-09	-2.158307e+01	-4.660040e+02
5.800000e-07	-3.014952e-06	-6.984966e-09	-2.076928e+01	-4.581447e+02
5.900000e-07	-2.895763e-06	-6.861422e-09	-1.994822e+01	-4.500888e+02
6.000000e-07	-2.775441e-06	-6.737878e-09	-1.911935e+01	-4.418266e+02
6.100000e-07	-2.653970e-06	-6.612067e-09	-1.828256e+01	-4.333421e+02
6.200000e-07	-2.531544e-06	-6.477276e-09	-1.743920e+01	-4.246145e+02
6.300000e-07	-2.408186e-06	-6.333883e-09	-1.658941e+01	-4.156220e+02
6.400000e-07	-2.283886e-06	-6.190176e-09	-1.573315e+01	-4.063447e+02
6.500000e-07	-2.158827e-06	-6.047293e-09	-1.487164e+01	-3.967686e+02
6.600000e-07	-2.033065e-06	-5.900181e-09	-1.400530e+01	-3.868873e+02
6.700000e-07	-1.906674e-06	-5.745064e-09	-1.313462e+01	-3.767020e+02
6.800000e-07	-1.779754e-06	-5.583978e-09	-1.226030e+01	-3.662192e+02
6.900000e-07	-1.652153e-06	-5.414695e-09	-1.138128e+01	-3.554479e+02
7.000000e-07	-1.523845e-06	-5.243150e-09	-1.049740e+01	-3.443946e+02
7.100000e-07	-1.395012e-06	-5.071424e-09	-9.609905e+00	-3.330600e+02
7.200000e-07	-1.265735e-06	-4.897327e-09	-8.719346e+00	-3.214364e+02
7.300000e-07	-1.136015e-06	-4.715903e-09	-7.825732e+00	-3.095076e+02
7.400000e-07	-1.005972e-06	-4.527979e-09	-6.929897e+00	-2.972499e+02
7.500000e-07	-8.756740e-07	-4.337926e-09	-6.032308e+00	-2.846355e+02
7.600000e-07	-7.450807e-07	-4.142471e-09	-5.132682e+00	-2.716364e+02
7.700000e-07	-6.142377e-07	-3.938174e-09	-4.231336e+00	-2.582279e+02
7.800000e-07	-4.831991e-07	-3.724909e-09	-3.328643e+00	-2.443915e+02
7.900000e-07	-3.519400e-07	-3.505798e-09	-2.424431e+00	-2.301151e+02
8.000000e-07	-2.204736e-07	-3.280239e-09	-1.518790e+00	-2.153926e+02
8.100000e-07	-8.886869e-08	-3.050372e-09	-6.121951e-01	-2.002205e+02
8.200000e-07	4.283679e-08	-2.815063e-09	2.950924e-01	-1.845950e+02
8.300000e-07	1.745480e-07	-2.569914e-09	1.202419e+00	-1.685072e+02
8.400000e-07	3.061581e-07	-2.317263e-09	2.109050e+00	-1.519409e+02
8.500000e-07	4.376678e-07	-2.060846e-09	3.014989e+00	-1.348696e+02
8.600000e-07	5.690850e-07	-1.797016e-09	3.920290e+00	-1.172575e+02
8.700000e-07	7.003235e-07	-1.518019e-09	4.824361e+00	-9.906108e+01
8.800000e-07	8.313449e-07	-1.225396e-09	5.726936e+00	-8.023354e+01
8.900000e-07	9.620966e-07	-9.246781e-10	6.627653e+00	-6.073037e+01
9.000000e-07	1.092500e-06	-6.157799e-10	7.525974e+00	-4.051656e+01
9.100000e-07	1.222567e-06	-2.958913e-10	8.421970e+00	-1.957421e+01
9.200000e-07	1.352255e-06	3.407790e-11	9.315360e+00	2.089946e+00
9.300000e-07	1.481458e-06	3.743087e-10	1.020541e+01	2.443820e+01
9.400000e-07	1.610054e-06	7.255969e-10	1.109128e+01	4.739741e+01
9.500000e-07	1.738009e-06	1.085010e-09	1.197273e+01	7.085742e+01
9.600000e-07	1.865315e-06	1.450898e-09	1.284971e+01	9.467302e+01
9.700000e-07	1.991898e-06	1.820839e-09	1.372170e+01	1.186698e+02
9.800000e-07	2.117783e-06	2.190005e-09	1.458890e+01	1.426537e+02
9.900000e-07	2.242996e-06	2.552844e-09	1.545146e+01	1.664233e+02
1.000000e-06	2.367475e-06	2.906994e-09	1.630897e+01	1.897839e+02
1.010000e-06	2.491070e-06	3.251716e-09	1.716038e+01	2.125617e+02
1.020000e-06	2.613681e-06	3.584845e-09	1.800502e+01	2.346148e+02
1.030000e-06	2.735332e-06	3.907548e-09	1.884305e+01	2.558418e+02
1.040000e-06	2.855959e-06	4.219439e-09	1.967402e+01	2.761843e+02
1.050000e-06	2.975449e-06	4.517346e-09	2.049716e+01	2.956249e+02
1.060000e-06	3.093832e-06	4.800343e-09	2.131267e+01	3.141794e+02
1.070000e-06	3.211205e-06	5.071605e-09	2.212122e+01	3.318871e+02
1.080000e-06	3.327411e-06	5.331546e-09	2.292173e+01	3.487987e+02
1.090000e-06	3.442258e-06	5.577630e-09	2.371289e+01	3.649656e+02
1.100000e-06	3.555691e-06	5.810245e-09	2.449430e+01	3.804320e+02
1.110000e-06	3.667740e-06	6.031500e-09	2.526619e+01	3.952307e+02
1.120000e-06	3.778506e-06	6.243634e-09	2.602922e+01	4.093833e+02
1.130000e-06	3.888034e-06	6.448150e-09	2.678374e+01	4.229036e+02
1.140000e-06	3.996285e-06	6.644626e-09	2.752945e+01	4.358035e+02
1.150000e-06	4.103182e-06	6.833289e-09	2.826584e+01	4.480984e+02
1.160000e-06	4.208606e-06	7.014834e-09	2.899208e+01	4.598112e+02
1.170000e-06	4.312451e-06	7.187168e-09	2.970744e+01	4.709745e+02
1.180000e-06	4.414757e-06	7.351284e-09	3.041220e+01	4.816281e+02
1.190000e-06	4.515564e-06	7.506311e-09	3.110664e+01	4.918156e+02
1.200000e-06	4.614762e-06	7.652967e-09	3.178999e+01	5.015784e+02
1.210000e-06	4.712130e-06	7.793859e-09	3.246073e+01	5.109505e+02
1.220000e-06	4.807675e-06	7.930983e-09	3.311892e+01	5.199544e+02
1.230000e-06	4.901555e-06	8.064855e-09	3.376564e+01	5.286002e+02
1.240000e-06	4.993854e-06	8.195479e-09	3.440146e+01	5.368871e+02
1.250000e-06	5.084456e-06	8.322056e-09	3.502560e+01	5.448074e+02
1.260000e-06	5.173089e-06	8.438798e-09	3.563617e+01	5.523522e+02
1.270000e-06	5.259807e-06	8.546450e-09	3.623355e+01	5.595162e+02
1.280000e-06	5.344728e-06	8.649465e-09	3.681855e+01	5.663022e+02
1.290000e-06	5.427778e-06	8.748426e-09	3.739066e+01	5.727226e+02
1.300000e-06	5.508800e-06	8.838821e-09	3.794880e+01	5.787989e+02
1.310000e-06	5.587786e-06	8.921413e-09	3.849292e+01	5.845586e+02
1.320000e-06	5.664845e-06	9.002925e-09	3.902376e+01	5.900317e+02
1.330000e-06	5.739753e-06	9.085148e-09	3.953978e+01	5.952463e+02
1.340000e-06	5.812400e-06	9.163560e-09	4.004023e+01	6.002258e+02
1.350000e-06	5.882920e-06	9.236251e-09	4.052603e+01	6.049873e+02
1.360000e-06	5.951406e-06	9.304361e-09	4.099781e+01	6.095423e+02
1.370000e-06	6.017714e-06	9.369712e-09	4.145459e+01	6.138977e+02
1.380000e-06	6.081800e-06	9.432844e-09	4.189606e+01	6.180583e+02
1.390000e-06	6.143834e-06	9.493123e-09	4.232340e+01	6.220286e+02
1.400000e-06	6.203867e-06	9.550249e-09	4.273696e+01	6.258138e+02
1.410000e-06	6.261700e-06	9.604050e-09	4.313535e+01	6.294199e+02
1.420000e-06	6.317268e-06	9.655366e-09	4.351814e+01	6.328523e+02
1.430000e-06	6.370564e-06	9.706252e-09	4.388529e+01	6.361144e+02
1.440000e-06	6.421237e-06	9.755492e-09	4.423437e+01	6.392067e+02
1.450000e-06	6.469300e-06	9.800146e-09	4.456546e+01	6.421263e+02
1.460000e-06	6.515085e-06	9.841095e-09	4.488086e+01	6.448678e+02
1.470000e-06	6.558695e-06	9.879530e-09	4.518128e+01	6.474248e+02
1.480000e-06	6.599891e-06	9.916140e-09	4.546507e+01	6.497928e+02
1.490000e-06	6.638664e-06	9.949296e-09	4.573217e+01	6.519708e+02
1.500000e-06	6.675296e-06	9.977642e-09	4.598451e+01	6.539631e+02
1.510000e-06	6.709590e-06	1.000244e-08	4.622076e+01	6.557785e+02
1.520000e-06	6.741376e-06	1.002521e-08	4.643972e+01	6.574289e+02
1.530000e-06	6.770862e-06	1.004763e-08	4.664285e+01	6.589270e+02
1.540000e-06	6.798052e-06	1.006997e-08	4.683015e+01	6.602830e+02
1.550000e-06	6.822663e-06	1.008931e-08	4.699969e+01	6.615032e+02
1.560000e-06	6.844743e-06	1.010569e-08	4.715180e+01	6.625886e+02
1.570000e-06	6.864567e-06	1.011979e-08	4.728836e+01	6.635363e+02
1.580000e-06	6.881920e-06	1.013189e-08	4.740790e+01	6.643417e+02
1.590000e-06	6.896687e-06	1.013995e-08	4.750963e+01	6.650016e+02
1.600000e-06	6.908883e-06	1.014436e-08	4.759364e+01	6.655171e+02
1.610000e-06	6.918350e-06	1.014915e-08	4.765886e+01	6.658949e+02
1.620000e-06	6.925196e-06	1.015427e-08	4.770602e+01	6.661473e+02
1.630000e-06	6.929684e-06	1.015896e-08	4.773693e+01	6.662894e+02
1.640000e-06	6.931690e-06	1.016277e-08	4.775075e+01	6.663356e+02
1.650000e-06	6.931175e-06	1.016391e-08	4.774721e+01	6.662953e+02
1.660000e-06	6.928458e-06	1.015751e-08	4.772849e+01	6.661701e+02
1.670000e-06	6.923547e-06	1.014984e-08	4.769465e+01	6.659524e+02
1.680000e-06	6.916306e-06	1.013998e-08	4.764478e+01	6.656275e+02
1.690000e-06	6.906806e-06	1.013124e-08	4.757933e+01	6.651776e+02
1.700000e-06	6.895054e-06	1.012427e-08	4.749837e+01	6.645877e+02
1.710000e-06	6.880824e-06	1.012088e-08	4.740035e+01	6.638520e+02
1.720000e-06	6.864299e-06	1.011201e-08	4.728651e+01	6.629776e+02
1.730000e-06	6.845780e-06	1.004127e-08	4.715894e+01	6.619862e+02
1.740000e-06	6.824601e-06	1.000681e-08	4.701304e+01	6.609115e+02
1.750000e-06	6.800012e-06	1.003881e-08	4.684365e+01	6.597931e+02
1.760000e-06	6.772448e-06	1.002696e-08	4.665377e+01	6.586679e+02
1.770000e-06	6.742528e-06	1.003011e-08	4.644766e+01	6.575616e+02
1.780000e-06	6.710706e-06	1.008179e-08	4.622845e+01	6.564813e+02
1.790000e-06	6.677511e-06	9.973979e-09	4.599978e+01	6.554120e+02
1.800000e-06	6.642475e-06	9.948261e-09	4.575842e+01	6.543178e+02
1.810000e-06	6.604800e-06	1.000661e-08	4.549888e+01	6.531475e+02
1.820000e-06	6.564850e-06	9.895704e-09	4.522368e+01	6.518439e+02
1.830000e-06	6.522770e-06	9.940771e-09	4.493380e+01	6.503546e+02
1.840000e-06	6.478355e-06	9.885575e-09	4.462784e+01	6.486413e+02
1.850000e-06	6.431688e-06	9.797562e-09	4.430636e+01	6.466863e+02
1.860000e-06	6.382610e-06	9.874475e-09	4.396827e+01	6.444948e+02
1.870000e-06	6.331296e-06	9.793867e-09	4.361478e+01	6.420912e+02
1.880000e-06	6.277459e-06	9.794424e-09	4.324391e+01	6.395127e+02
1.890000e-06	6.220879e-06	9.725979e-09	4.285414e+01	6.367997e+02
1.900000e-06	6.162000e-06	9.613292e-09	4.244854e+01	6.339864e+02
1.910000e-06	6.100710e-06	9.618700e-09	4.202633e+01	6.310940e+02
1.920000e-06	6.037112e-06	9.535367e-09	4.158822e+01	6.281276e+02
1.930000e-06	5.971417e-06	9.565111e-09	4.113566e+01	6.250765e+02
1.940000e-06	5.903611e-06	9.503603e-09	4.066857e+01	6.219196e+02
1.950000e-06	5.833546e-06	9.422038e-09	4.018590e+01	6.186315e+02
1.960000e-06	5.761036e-06	9.386170e-09	3.968640e+01	6.151905e+02
1.970000e-06	5.686378e-06	9.279307e-09	3.917210e+01	6.115833e+02
1.980000e-06	5.609457e-06	9.279797e-09	3.864221e+01	6.078085e+02
1.990000e-06	5.530288e-06	9.206797e-09	3.809683e+01	6.038753e+02
2.000000e-06	5.449190e-06	9.143046e-09	3.753817e+01	5.998003e+02
2.010000e-06	5.366299e-06	9.079854e-09	3.696715e+01	5.956017e+02
2.020000e-06	5.281538e-06	8.998854e-09	3.638325e+01	5.912941e+02
2.030000e-06	5.194649e-06	8.946219e-09	3.578469e+01	5.868844e+02
2.040000e-06	5.105880e-06	8.866257e-09	3.517319e+01	5.823698e+02
2.050000e-06	5.015519e-06	8.810935e-09	3.455071e+01	5.777386e+02
2.060000e-06	4.923622e-06	8.721434e-09	3.391765e+01	5.729742e+02
2.070000e-06	4.829917e-06	8.655639e-09	3.327214e+01	5.680586e+02
2.080000e-06	4.734319e-06	8.581397e-09	3.261359e+01	5.629771e+02
2.090000e-06	4.637117e-06	8.504428e-09	3.194399e+01	5.577210e+02
2.100000e-06	4.538417e-06	8.416866e-09	3.126407e+01	5.522886e+02
2.110000e-06	4.438237e-06	8.314097e-09	3.057395e+01	5.466840e+02
2.120000e-06	4.336406e-06	8.231121e-09	2.987247e+01	5.409140e+02
2.130000e-06	4.232925e-06	8.148874e-09	2.915961e+01	5.349851e+02
2.140000e-06	4.127860e-06	8.076386e-09	2.843584e+01	5.289001e+02
2.150000e-06	4.021354e-06	7.979125e-09	2.770214e+01	5.226570e+02
2.160000e-06	3.913520e-06	7.873626e-09	2.695930e+01	5.162488e+02
2.170000e-06	3.804244e-06	7.758874e-09	2.620652e+01	5.096655e+02
2.180000e-06	3.693497e-06	7.652850e-09	2.544361e+01	5.028964e+02
2.190000e-06	3.581386e-06	7.552156e-09	2.467131e+01	4.959334e+02
2.200000e-06	3.468006e-06	7.452396e-09	2.389026e+01	4.887721e+02
2.210000e-06	3.353284e-06	7.343157e-09	2.309997e+01	4.814122e+02
2.220000e-06	3.237094e-06	7.224275e-09	2.229957e+01	4.738563e+02
2.230000e-06	3.119435e-06	7.106066e-09	2.148904e+01	4.661069e+02
2.240000e-06	3.000511e-06	6.985146e-09	2.066980e+01	4.581635e+02
2.250000e-06	2.880429e-06	6.865859e-09	1.984258e+01	4.500201e+02
2.260000e-06	2.759349e-06	6.735491e-09	1.900849e+01	4.416643e+02
2.270000e-06	2.637371e-06	6.604423e-09	1.816822e+01	4.330777e+02
2.280000e-06	2.514472e-06	6.471373e-09	1.732160e+01	4.242386e+02
2.290000e-06	2.390661e-06	6.334481e-09	1.646869e+01	4.151255e+02
2.300000e-06	2.265994e-06	6.191479e-09	1.560989e+01	4.057208e+02
2.310000e-06	2.140555e-06	6.044421e-09	1.474577e+01	3.960136e+02
2.320000e-06	2.014339e-06	5.889154e-09	1.387630e+01	3.860008e+02
2.330000e-06	1.887404e-06	5.729900e-09	1.300187e+01	3.756863e+02
2.340000e-06	1.759777e-06	5.569973e-09	1.212268e+01	3.650783e+02
2.350000e-06	1.631566e-06	5.409601e-09	1.123946e+01	3.541849e+02
2.360000e-06	1.502858e-06	5.243400e-09	1.035283e+01	3.430107e+02
2.370000e-06	1.373678e-06	5.066416e-09	9.462942e+00	3.315531e+02
2.380000e-06	1.244124e-06	4.885763e-09	8.570470e+00	3.198006e+02
2.390000e-06	1.114183e-06	4.699560e-09	7.675340e+00	3.077334e+02
2.400000e-06	9.838921e-07	4.509424e-09	6.777797e+00	2.953256e+02
2.410000e-06	8.533332e-07	4.315445e-09	5.878408e+00	2.825490e+02
2.420000e-06	7.225181e-07	4.114158e-09	4.977254e+00	2.693766e+02
2.430000e-06	5.915190e-07	3.906054e-09	4.074833e+00	2.557860e+02
2.440000e-06	4.603595e-07	3.691435e-09	3.171306e+00	2.417614e+02
2.450000e-06	3.290160e-07	3.471226e-09	2.266512e+00	2.272937e+02
2.460000e-06	1.974815e-07	3.244802e-09	1.360403e+00	2.123782e+02
2.470000e-06	6.584470e-08	3.010967e-09	4.535884e-01	1.970119e+02
2.480000e-06	-6.581535e-08	2.769934e-09	-4.533862e-01	1.811891e+02
2.490000e-06	-1.974759e-07	2.521026e-09	-1.360364e+00	1.648981e+02
2.500000e-06	-3.290656e-07	2.263230e-09	-2.266854e+00	1.481185e+02
2.510000e-06	-4.605905e-07	1.996246e-09	-3.172897e+00	1.308197e+02
2.520000e-06	-5.919779e-07	1.723090e-09	-4.077994e+00	1.129622e+02
2.530000e-06	-7.231662e-07	1.441972e-09	-4.981719e+00	9.450043e+01
2.540000e-06	-8.541594e-07	1.152346e-09	-5.884100e+00	7.538776e+01
2.550000e-06	-9.848287e-07	8.553760e-10	-6.784249e+00	5.558286e+01
2.560000e-06	-1.115139e-06	5.453668e-10	-7.681923e+00	3.505709e+01
2.570000e-06	-1.245120e-06	2.217535e-10	-8.577333e+00	1.380226e+01
2.580000e-06	-1.374706e-06	-1.127477e-10	-9.470024e+00	-8.162333e+00
2.590000e-06	-1.503852e-06	-4.557478e-10	-1.035968e+01	-3.078418e+01
2.600000e-06	-1.632517e-06	-8.076398e-10	-1.124602e+01	-5.397427e+01
2.610000e-06	-1.760549e-06	-1.168440e-09	-1.212800e+01	-7.760698e+01
2.620000e-06	-1.887890e-06	-1.533983e-09	-1.300522e+01	-1.015236e+02
2.630000e-06	-2.014541e-06	-1.899132e-09	-1.387769e+01	-1.255400e+02
2.640000e-06	-2.140374e-06	-2.261797e-09	-1.474452e+01	-1.494573e+02
2.650000e-06	-2.265348e-06	-2.623202e-09	-1.560544e+01	-1.730752e+02
2.660000e-06	-2.389403e-06	-2.977890e-09	-1.646003e+01	-1.962063e+02
2.670000e-06	-2.512421e-06	-3.321626e-09	-1.730747e+01	-2.186893e+02
2.680000e-06	-2.634495e-06	-3.652391e-09	-1.814840e+01	-2.403989e+02
2.690000e-06	-2.755687e-06	-3.969230e-09	-1.898327e+01	-2.612522e+02
2.700000e-06	-2.875928e-06	-4.271217e-09	-1.981158e+01	-2.812088e+02
2.710000e-06	-2.995121e-06	-4.560558e-09	-2.063267e+01	-3.002666e+02
2.720000e-06	-3.113102e-06	-4.840784e-09	-2.144542e+01	-3.184532e+02
2.730000e-06	-3.229800e-06	-5.110801e-09	-2.224932e+01	-3.358138e+02
2.740000e-06	-3.345189e-06	-5.367684e-09	-2.304421e+01	-3.524009e+02
2.750000e-06	-3.459239e-06	-5.608936e-09	-2.382987e+01	-3.682635e+02
2.760000e-06	-3.571884e-06	-5.837711e-09	-2.460585e+01	-3.834410e+02
2.770000e-06	-3.683135e-06	-6.058819e-09	-2.537224e+01	-3.979613e+02
2.780000e-06	-3.793016e-06	-6.270958e-09	-2.612918e+01	-4.118421e+02
2.790000e-06	-3.901616e-06	-6.473204e-09	-2.687730e+01	-4.250957e+02
2.800000e-06	-4.008980e-06	-6.666191e-09	-2.761690e+01	-4.377347e+02
2.810000e-06	-4.114991e-06	-6.851975e-09	-2.834719e+01	-4.497774e+02
2.820000e-06	-4.219605e-06	-7.031192e-09	-2.906785e+01	-4.612508e+02
2.830000e-06	-4.322663e-06	-7.200526e-09	-2.977779e+01	-4.721911e+02
2.840000e-06	-4.424024e-06	-7.360305e-09	-3.047604e+01	-4.826403e+02
2.850000e-06	-4.523788e-06	-7.512434e-09	-3.116329e+01	-4.926417e+02
2.860000e-06	-4.622062e-06	-7.657736e-09	-3.184028e+01	-5.022341e+02
2.870000e-06	-4.718822e-06	-7.795799e-09	-3.250683e+01	-5.114469e+02
2.880000e-06	-4.813934e-06	-7.927603e-09	-3.316204e+01	-5.202975e+02
2.890000e-06	-4.907229e-06	-8.055583e-09	-3.380472e+01	-5.287907e+02
2.900000e-06	-4.998719e-06	-8.178877e-09	-3.443498e+01	-5.369223e+02
2.910000e-06	-5.088459e-06	-8.297111e-09	-3.505318e+01	-5.446833e+02
2.920000e-06	-5.176326e-06	-8.408375e-09	-3.565847e+01	-5.520658e+02
2.930000e-06	-5.262141e-06	-8.514533e-09	-3.624963e+01	-5.590675e+02
2.940000e-06	-5.346005e-06	-8.617265e-09	-3.682735e+01	-5.656954e+02
