# Temperatura_=_47.75
# Concentracion g/m^3_=_15000.0
# C_Vs_to_Am_M_A/Vsm_=_65563218390.804596
# pendiente_HvsI_1/m_=_3716.3
# ordenada_HvsI_A/m_=_1297.0
# frecuencia_Hz_=_301965.62565579335

Tiempo_(s)	Campo_(V.s)	Magnetizacion_(V.s)	Campo_(kA/m)	Magnetizacion_(A/m)
0.000000e+00	-6.924680e-06	-1.049655e-08	-4.747194e+01	-6.874792e+02
1.000000e-08	-6.920844e-06	-1.049562e-08	-4.744565e+01	-6.872120e+02
2.000000e-08	-6.914851e-06	-1.049188e-08	-4.740456e+01	-6.868395e+02
3.000000e-08	-6.906634e-06	-1.048909e-08	-4.734823e+01	-6.863584e+02
4.000000e-08	-6.895955e-06	-1.048447e-08	-4.727502e+01	-6.857624e+02
5.000000e-08	-6.882756e-06	-1.047789e-08	-4.718453e+01	-6.850450e+02
6.000000e-08	-6.867081e-06	-1.046402e-08	-4.707707e+01	-6.842032e+02
7.000000e-08	-6.849150e-06	-1.045063e-08	-4.695415e+01	-6.832401e+02
8.000000e-08	-6.829052e-06	-1.046326e-08	-4.681637e+01	-6.821671e+02
9.000000e-08	-6.806452e-06	-1.045917e-08	-4.666143e+01	-6.810038e+02
1.000000e-07	-6.780993e-06	-1.040961e-08	-4.648690e+01	-6.797751e+02
1.100000e-07	-6.752792e-06	-1.037366e-08	-4.629357e+01	-6.785071e+02
1.200000e-07	-6.722315e-06	-1.035722e-08	-4.608464e+01	-6.772212e+02
1.300000e-07	-6.689813e-06	-1.031112e-08	-4.586182e+01	-6.759290e+02
1.400000e-07	-6.655429e-06	-1.027850e-08	-4.562610e+01	-6.746285e+02
1.500000e-07	-6.619111e-06	-1.031995e-08	-4.537712e+01	-6.733017e+02
1.600000e-07	-6.580667e-06	-1.024879e-08	-4.511357e+01	-6.719169e+02
1.700000e-07	-6.540063e-06	-1.020666e-08	-4.483522e+01	-6.704328e+02
1.800000e-07	-6.496960e-06	-1.022945e-08	-4.453972e+01	-6.688043e+02
1.900000e-07	-6.451339e-06	-1.016224e-08	-4.422697e+01	-6.669904e+02
2.000000e-07	-6.403359e-06	-1.017458e-08	-4.389804e+01	-6.649602e+02
2.100000e-07	-6.352682e-06	-1.015913e-08	-4.355063e+01	-6.626979e+02
2.200000e-07	-6.299349e-06	-1.008265e-08	-4.318501e+01	-6.602040e+02
2.300000e-07	-6.243575e-06	-1.001759e-08	-4.280265e+01	-6.574941e+02
2.400000e-07	-6.185427e-06	-9.954614e-09	-4.240402e+01	-6.545945e+02
2.500000e-07	-6.125056e-06	-9.927882e-09	-4.199014e+01	-6.515365e+02
2.600000e-07	-6.062546e-06	-9.899077e-09	-4.156161e+01	-6.483494e+02
2.700000e-07	-5.997779e-06	-9.854516e-09	-4.111760e+01	-6.450557e+02
2.800000e-07	-5.930649e-06	-9.786882e-09	-4.065739e+01	-6.416671e+02
2.900000e-07	-5.861235e-06	-9.723374e-09	-4.018152e+01	-6.381842e+02
3.000000e-07	-5.789678e-06	-9.684583e-09	-3.969097e+01	-6.345974e+02
3.100000e-07	-5.715897e-06	-9.622026e-09	-3.918516e+01	-6.308912e+02
3.200000e-07	-5.639818e-06	-9.575679e-09	-3.866361e+01	-6.270482e+02
3.300000e-07	-5.561454e-06	-9.511558e-09	-3.812639e+01	-6.230537e+02
3.400000e-07	-5.480866e-06	-9.435698e-09	-3.757392e+01	-6.188990e+02
3.500000e-07	-5.398354e-06	-9.380012e-09	-3.700826e+01	-6.145825e+02
3.600000e-07	-5.314088e-06	-9.319027e-09	-3.643058e+01	-6.101089e+02
3.700000e-07	-5.228102e-06	-9.248700e-09	-3.584110e+01	-6.054876e+02
3.800000e-07	-5.140315e-06	-9.159478e-09	-3.523928e+01	-6.007292e+02
3.900000e-07	-5.050565e-06	-9.081549e-09	-3.462401e+01	-5.958418e+02
4.000000e-07	-4.958966e-06	-9.012017e-09	-3.399605e+01	-5.908293e+02
4.100000e-07	-4.865761e-06	-8.951533e-09	-3.335708e+01	-5.856892e+02
4.200000e-07	-4.770997e-06	-8.873245e-09	-3.270743e+01	-5.804135e+02
4.300000e-07	-4.674506e-06	-8.775600e-09	-3.204594e+01	-5.749898e+02
4.400000e-07	-4.576215e-06	-8.681013e-09	-3.137211e+01	-5.694038e+02
4.500000e-07	-4.476268e-06	-8.587858e-09	-3.068693e+01	-5.636419e+02
4.600000e-07	-4.374810e-06	-8.502522e-09	-2.999138e+01	-5.576937e+02
4.700000e-07	-4.271924e-06	-8.419003e-09	-2.928605e+01	-5.515528e+02
4.800000e-07	-4.167470e-06	-8.325910e-09	-2.856997e+01	-5.452176e+02
4.900000e-07	-4.061404e-06	-8.217886e-09	-2.784284e+01	-5.386901e+02
5.000000e-07	-3.953791e-06	-8.110691e-09	-2.710510e+01	-5.319745e+02
5.100000e-07	-3.844705e-06	-8.008863e-09	-2.635727e+01	-5.250750e+02
5.200000e-07	-3.734390e-06	-7.906243e-09	-2.560100e+01	-5.179944e+02
5.300000e-07	-3.622805e-06	-7.792325e-09	-2.483603e+01	-5.107325e+02
5.400000e-07	-3.509692e-06	-7.671900e-09	-2.406059e+01	-5.032854e+02
5.500000e-07	-3.394987e-06	-7.554603e-09	-2.327423e+01	-4.956464e+02
5.600000e-07	-3.278827e-06	-7.438509e-09	-2.247791e+01	-4.878061e+02
5.700000e-07	-3.161404e-06	-7.321147e-09	-2.167291e+01	-4.797538e+02
5.800000e-07	-3.042800e-06	-7.194468e-09	-2.085983e+01	-4.714788e+02
5.900000e-07	-2.923113e-06	-7.061591e-09	-2.003932e+01	-4.629714e+02
6.000000e-07	-2.802430e-06	-6.925808e-09	-1.921198e+01	-4.542228e+02
6.100000e-07	-2.680658e-06	-6.792655e-09	-1.837717e+01	-4.452261e+02
6.200000e-07	-2.557735e-06	-6.656108e-09	-1.753448e+01	-4.359752e+02
6.300000e-07	-2.433861e-06	-6.506737e-09	-1.668526e+01	-4.264644e+02
6.400000e-07	-2.309180e-06	-6.349886e-09	-1.583052e+01	-4.166881e+02
6.500000e-07	-2.183710e-06	-6.191505e-09	-1.497036e+01	-4.066401e+02
6.600000e-07	-2.057580e-06	-6.032425e-09	-1.410568e+01	-3.963135e+02
6.700000e-07	-1.930772e-06	-5.874362e-09	-1.323635e+01	-3.857009e+02
6.800000e-07	-1.803187e-06	-5.715728e-09	-1.236170e+01	-3.747941e+02
6.900000e-07	-1.674905e-06	-5.547217e-09	-1.148226e+01	-3.635851e+02
7.000000e-07	-1.546082e-06	-5.367652e-09	-1.059912e+01	-3.520656e+02
7.100000e-07	-1.416751e-06	-5.185091e-09	-9.712492e+00	-3.402278e+02
7.200000e-07	-1.286977e-06	-5.002516e-09	-8.822832e+00	-3.280634e+02
7.300000e-07	-1.156811e-06	-4.813043e-09	-7.930485e+00	-3.155637e+02
7.400000e-07	-1.026203e-06	-4.614801e-09	-7.035107e+00	-3.027193e+02
7.500000e-07	-8.951355e-07	-4.411942e-09	-6.136575e+00	-2.895188e+02
7.600000e-07	-7.637104e-07	-4.206791e-09	-5.235595e+00	-2.759495e+02
7.700000e-07	-6.320950e-07	-3.995777e-09	-4.333309e+00	-2.619965e+02
7.800000e-07	-5.002844e-07	-3.777431e-09	-3.429685e+00	-2.476433e+02
7.900000e-07	-3.682778e-07	-3.553419e-09	-2.524718e+00	-2.328719e+02
8.000000e-07	-2.361404e-07	-3.319972e-09	-1.618854e+00	-2.176629e+02
8.100000e-07	-1.039187e-07	-3.079373e-09	-7.124114e-01	-2.019960e+02
8.200000e-07	2.839637e-08	-2.834461e-09	1.946705e-01	-1.858491e+02
8.300000e-07	1.607742e-07	-2.583568e-09	1.102183e+00	-1.691979e+02
8.400000e-07	2.931230e-07	-2.323227e-09	2.009496e+00	-1.520151e+02
8.500000e-07	4.253851e-07	-2.052608e-09	2.916215e+00	-1.342698e+02
8.600000e-07	5.575388e-07	-1.773141e-09	3.822191e+00	-1.159265e+02
8.700000e-07	6.895465e-07	-1.482314e-09	4.727166e+00	-9.694672e+01
8.800000e-07	8.213472e-07	-1.180479e-09	5.630722e+00	-7.729098e+01
8.900000e-07	9.528682e-07	-8.683378e-10	6.532361e+00	-5.692306e+01
9.000000e-07	1.084027e-06	-5.461002e-10	7.431518e+00	-3.581607e+01
9.100000e-07	1.214767e-06	-2.116386e-10	8.327799e+00	-1.395979e+01
9.200000e-07	1.345032e-06	1.343604e-10	9.220825e+00	8.631441e+00
9.300000e-07	1.474815e-06	4.892359e-10	1.011055e+01	3.191155e+01
9.400000e-07	1.604097e-06	8.532639e-10	1.099684e+01	5.579756e+01
9.500000e-07	1.732772e-06	1.225161e-09	1.187897e+01	8.016767e+01
9.600000e-07	1.860745e-06	1.604132e-09	1.275628e+01	1.048635e+02
9.700000e-07	1.987967e-06	1.986381e-09	1.362845e+01	1.296969e+02
9.800000e-07	2.114437e-06	2.367564e-09	1.449546e+01	1.544608e+02
9.900000e-07	2.240198e-06	2.741770e-09	1.535761e+01	1.789430e+02
1.000000e-06	2.365230e-06	3.104382e-09	1.621476e+01	2.029414e+02
1.010000e-06	2.489488e-06	3.456464e-09	1.706661e+01	2.262787e+02
1.020000e-06	2.612846e-06	3.798236e-09	1.791229e+01	2.488134e+02
1.030000e-06	2.735179e-06	4.129457e-09	1.875094e+01	2.704482e+02
1.040000e-06	2.856454e-06	4.446006e-09	1.958234e+01	2.911310e+02
1.050000e-06	2.976641e-06	4.746079e-09	2.040628e+01	3.108524e+02
1.060000e-06	3.095692e-06	5.032059e-09	2.122243e+01	3.296374e+02
1.070000e-06	3.213669e-06	5.306696e-09	2.203121e+01	3.475348e+02
1.080000e-06	3.330600e-06	5.568318e-09	2.283283e+01	3.646056e+02
1.090000e-06	3.446265e-06	5.814703e-09	2.362577e+01	3.809119e+02
1.100000e-06	3.560502e-06	6.049350e-09	2.440892e+01	3.965087e+02
1.110000e-06	3.673270e-06	6.273446e-09	2.518200e+01	4.114399e+02
1.120000e-06	3.784592e-06	6.487265e-09	2.594516e+01	4.257371e+02
1.130000e-06	3.894654e-06	6.693053e-09	2.669968e+01	4.394221e+02
1.140000e-06	4.003571e-06	6.891759e-09	2.744636e+01	4.525115e+02
1.150000e-06	4.111144e-06	7.084125e-09	2.818383e+01	4.650215e+02
1.160000e-06	4.217259e-06	7.268958e-09	2.891129e+01	4.769721e+02
1.170000e-06	4.321822e-06	7.443490e-09	2.962813e+01	4.883889e+02
1.180000e-06	4.424733e-06	7.609987e-09	3.033363e+01	4.993030e+02
1.190000e-06	4.526102e-06	7.767609e-09	3.102856e+01	5.097488e+02
1.200000e-06	4.625928e-06	7.916976e-09	3.171291e+01	5.197606e+02
1.210000e-06	4.724096e-06	8.060469e-09	3.238590e+01	5.293682e+02
1.220000e-06	4.820380e-06	8.200916e-09	3.304598e+01	5.385943e+02
1.230000e-06	4.914808e-06	8.338211e-09	3.369333e+01	5.474530e+02
1.240000e-06	5.007636e-06	8.470882e-09	3.432970e+01	5.559502e+02
1.250000e-06	5.098820e-06	8.599788e-09	3.495481e+01	5.640859e+02
1.260000e-06	5.188144e-06	8.722437e-09	3.556717e+01	5.718575e+02
1.270000e-06	5.275495e-06	8.837666e-09	3.616600e+01	5.792636e+02
1.280000e-06	5.360939e-06	8.945590e-09	3.675176e+01	5.863069e+02
1.290000e-06	5.444560e-06	9.047069e-09	3.732502e+01	5.929958e+02
1.300000e-06	5.526338e-06	9.141399e-09	3.788565e+01	5.993450e+02
1.310000e-06	5.606122e-06	9.228580e-09	3.843261e+01	6.053738e+02
1.320000e-06	5.683782e-06	9.312895e-09	3.896500e+01	6.111043e+02
1.330000e-06	5.759292e-06	9.398078e-09	3.948266e+01	6.165586e+02
1.340000e-06	5.832553e-06	9.480084e-09	3.998490e+01	6.217571e+02
1.350000e-06	5.903624e-06	9.555913e-09	4.047213e+01	6.267169e+02
1.360000e-06	5.972630e-06	9.627176e-09	4.094519e+01	6.314518e+02
1.370000e-06	6.039532e-06	9.695210e-09	4.140384e+01	6.359730e+02
1.380000e-06	6.104204e-06	9.761208e-09	4.184719e+01	6.402898e+02
1.390000e-06	6.166742e-06	9.823585e-09	4.227592e+01	6.444112e+02
1.400000e-06	6.227281e-06	9.882843e-09	4.269095e+01	6.483458e+02
1.410000e-06	6.285631e-06	9.940030e-09	4.309096e+01	6.521017e+02
1.420000e-06	6.341724e-06	9.993620e-09	4.347550e+01	6.556861e+02
1.430000e-06	6.395567e-06	1.004612e-08	4.384463e+01	6.591038e+02
1.440000e-06	6.446872e-06	1.009713e-08	4.419635e+01	6.623560e+02
1.450000e-06	6.495517e-06	1.014478e-08	4.452983e+01	6.654404e+02
1.460000e-06	6.541748e-06	1.018902e-08	4.484677e+01	6.683512e+02
1.470000e-06	6.585820e-06	1.022931e-08	4.514890e+01	6.710805e+02
1.480000e-06	6.627564e-06	1.026719e-08	4.543507e+01	6.736208e+02
1.490000e-06	6.666778e-06	1.030224e-08	4.570390e+01	6.759666e+02
1.500000e-06	6.703718e-06	1.033294e-08	4.595714e+01	6.781164e+02
1.510000e-06	6.738404e-06	1.036107e-08	4.619493e+01	6.800737e+02
1.520000e-06	6.770630e-06	1.038679e-08	4.641586e+01	6.818462e+02
1.530000e-06	6.800467e-06	1.041085e-08	4.662041e+01	6.834451e+02
1.540000e-06	6.828074e-06	1.043243e-08	4.680967e+01	6.848821e+02
1.550000e-06	6.853199e-06	1.045161e-08	4.698191e+01	6.861678e+02
1.560000e-06	6.875681e-06	1.047017e-08	4.713603e+01	6.873095e+02
1.570000e-06	6.895832e-06	1.048551e-08	4.727418e+01	6.883105e+02
1.580000e-06	6.913622e-06	1.049693e-08	4.739613e+01	6.891706e+02
1.590000e-06	6.928796e-06	1.050498e-08	4.750016e+01	6.898875e+02
1.600000e-06	6.941334e-06	1.051165e-08	4.758611e+01	6.904587e+02
1.610000e-06	6.951120e-06	1.051801e-08	4.765320e+01	6.908840e+02
1.620000e-06	6.958251e-06	1.052286e-08	4.770209e+01	6.911664e+02
1.630000e-06	6.963016e-06	1.052539e-08	4.773475e+01	6.913125e+02
1.640000e-06	6.965349e-06	1.052642e-08	4.775075e+01	6.913316e+02
1.650000e-06	6.965189e-06	1.052760e-08	4.774965e+01	6.912332e+02
1.660000e-06	6.962731e-06	1.052246e-08	4.773280e+01	6.910254e+02
1.670000e-06	6.958034e-06	1.051569e-08	4.770060e+01	6.907121e+02
1.680000e-06	6.950953e-06	1.050672e-08	4.765206e+01	6.902926e+02
1.690000e-06	6.941576e-06	1.049515e-08	4.758778e+01	6.897620e+02
1.700000e-06	6.929942e-06	1.048423e-08	4.750802e+01	6.891136e+02
1.710000e-06	6.915875e-06	1.047375e-08	4.741158e+01	6.883419e+02
1.720000e-06	6.899504e-06	1.046019e-08	4.729935e+01	6.874462e+02
1.730000e-06	6.881045e-06	1.040735e-08	4.717280e+01	6.864330e+02
1.740000e-06	6.860011e-06	1.036941e-08	4.702861e+01	6.853175e+02
1.750000e-06	6.835617e-06	1.038713e-08	4.686138e+01	6.841219e+02
1.760000e-06	6.808163e-06	1.037930e-08	4.667317e+01	6.828722e+02
1.770000e-06	6.778356e-06	1.035888e-08	4.646882e+01	6.815932e+02
1.780000e-06	6.746632e-06	1.038893e-08	4.625134e+01	6.803029e+02
1.790000e-06	6.713466e-06	1.034020e-08	4.602397e+01	6.790073e+02
1.800000e-06	6.678490e-06	1.029940e-08	4.578420e+01	6.776974e+02
1.810000e-06	6.640891e-06	1.035279e-08	4.552643e+01	6.763493e+02
1.820000e-06	6.601002e-06	1.029056e-08	4.525298e+01	6.749263e+02
1.830000e-06	6.559030e-06	1.028863e-08	4.496524e+01	6.733847e+02
1.840000e-06	6.514713e-06	1.026010e-08	4.466143e+01	6.716802e+02
1.850000e-06	6.468113e-06	1.015775e-08	4.434196e+01	6.697755e+02
1.860000e-06	6.419049e-06	1.018112e-08	4.400560e+01	6.676458e+02
1.870000e-06	6.367659e-06	1.013503e-08	4.365330e+01	6.652821e+02
1.880000e-06	6.313734e-06	1.014444e-08	4.328362e+01	6.626919e+02
1.890000e-06	6.257088e-06	1.013103e-08	4.289529e+01	6.598960e+02
1.900000e-06	6.198161e-06	1.002646e-08	4.249131e+01	6.569236e+02
1.910000e-06	6.136847e-06	9.981968e-09	4.207098e+01	6.538059e+02
1.920000e-06	6.073239e-06	9.891732e-09	4.163492e+01	6.505698e+02
1.930000e-06	6.007499e-06	9.893925e-09	4.118424e+01	6.472336e+02
1.940000e-06	5.939555e-06	9.860077e-09	4.071845e+01	6.438042e+02
1.950000e-06	5.869341e-06	9.782211e-09	4.023710e+01	6.402772e+02
1.960000e-06	5.796725e-06	9.742310e-09	3.973928e+01	6.366403e+02
1.970000e-06	5.721951e-06	9.635944e-09	3.922667e+01	6.328764e+02
1.980000e-06	5.644913e-06	9.602215e-09	3.869853e+01	6.289690e+02
1.990000e-06	5.565588e-06	9.543584e-09	3.815473e+01	6.249055e+02
2.000000e-06	5.484276e-06	9.480275e-09	3.759730e+01	6.206801e+02
2.010000e-06	5.401150e-06	9.413709e-09	3.702743e+01	6.162942e+02
2.020000e-06	5.316185e-06	9.329186e-09	3.644495e+01	6.117550e+02
2.030000e-06	5.229155e-06	9.275416e-09	3.584832e+01	6.070727e+02
2.040000e-06	5.140219e-06	9.197375e-09	3.523862e+01	6.022571e+02
2.050000e-06	5.049651e-06	9.122946e-09	3.461774e+01	5.973149e+02
2.060000e-06	4.957452e-06	9.027070e-09	3.398567e+01	5.922473e+02
2.070000e-06	4.863426e-06	8.953091e-09	3.334107e+01	5.870493e+02
2.080000e-06	4.767551e-06	8.880457e-09	3.268381e+01	5.817108e+02
2.090000e-06	4.670063e-06	8.811090e-09	3.201548e+01	5.762182e+02
2.100000e-06	4.571114e-06	8.736509e-09	3.133714e+01	5.705573e+02
2.110000e-06	4.470636e-06	8.635399e-09	3.064832e+01	5.647155e+02
2.120000e-06	4.368447e-06	8.526665e-09	2.994776e+01	5.586841e+02
2.130000e-06	4.264557e-06	8.418251e-09	2.923554e+01	5.524589e+02
2.140000e-06	4.159106e-06	8.333435e-09	2.851263e+01	5.460398e+02
2.150000e-06	4.052280e-06	8.242890e-09	2.778029e+01	5.394300e+02
2.160000e-06	3.944100e-06	8.146196e-09	2.703866e+01	5.326341e+02
2.170000e-06	3.834536e-06	8.034495e-09	2.628755e+01	5.256557e+02
2.180000e-06	3.723560e-06	7.919960e-09	2.552676e+01	5.184965e+02
2.190000e-06	3.611102e-06	7.806692e-09	2.475581e+01	5.111548e+02
2.200000e-06	3.497281e-06	7.697932e-09	2.397551e+01	5.036255e+02
2.210000e-06	3.382069e-06	7.582957e-09	2.318568e+01	4.959004e+02
2.220000e-06	3.265394e-06	7.456124e-09	2.238581e+01	4.879695e+02
2.230000e-06	3.147292e-06	7.326412e-09	2.157617e+01	4.798219e+02
2.240000e-06	3.027932e-06	7.195922e-09	2.075790e+01	4.714474e+02
2.250000e-06	2.907397e-06	7.068656e-09	1.993158e+01	4.628365e+02
2.260000e-06	2.785852e-06	6.933650e-09	1.909833e+01	4.539813e+02
2.270000e-06	2.663467e-06	6.797288e-09	1.825932e+01	4.448753e+02
2.280000e-06	2.540155e-06	6.657023e-09	1.741396e+01	4.355126e+02
2.290000e-06	2.415861e-06	6.514489e-09	1.656187e+01	4.258876e+02
2.300000e-06	2.290688e-06	6.369520e-09	1.570375e+01	4.159946e+02
2.310000e-06	2.164751e-06	6.219697e-09	1.484039e+01	4.058270e+02
2.320000e-06	2.038009e-06	6.055953e-09	1.397151e+01	3.953778e+02
2.330000e-06	1.910488e-06	5.880587e-09	1.309729e+01	3.846390e+02
2.340000e-06	1.782314e-06	5.705087e-09	1.221860e+01	3.736026e+02
2.350000e-06	1.653606e-06	5.535035e-09	1.133625e+01	3.622604e+02
2.360000e-06	1.524302e-06	5.365276e-09	1.044981e+01	3.506044e+02
2.370000e-06	1.394509e-06	5.187074e-09	9.560014e+00	3.386266e+02
2.380000e-06	1.264427e-06	5.000438e-09	8.668241e+00	3.263185e+02
2.390000e-06	1.134009e-06	4.804478e-09	7.774165e+00	3.136713e+02
2.400000e-06	1.003235e-06	4.601681e-09	6.877649e+00	3.006747e+02
2.410000e-06	8.721092e-07	4.397182e-09	5.978719e+00	2.873167e+02
2.420000e-06	7.406921e-07	4.187889e-09	5.077794e+00	2.735838e+02
2.430000e-06	6.090732e-07	3.970336e-09	4.175484e+00	2.594603e+02
2.440000e-06	4.772207e-07	3.745163e-09	3.271572e+00	2.449291e+02
2.450000e-06	3.451261e-07	3.515492e-09	2.366002e+00	2.299716e+02
2.460000e-06	2.128679e-07	3.282928e-09	1.459310e+00	2.145679e+02
2.470000e-06	8.053606e-08	3.042535e-09	5.521127e-01	1.986969e+02
2.480000e-06	-5.181749e-08	2.795001e-09	-3.552333e-01	1.823359e+02
2.490000e-06	-1.841635e-07	2.540227e-09	-1.262528e+00	1.654594e+02
2.500000e-06	-3.164731e-07	2.272743e-09	-2.169573e+00	1.480385e+02
2.510000e-06	-4.487041e-07	1.993345e-09	-3.076078e+00	1.300404e+02
2.520000e-06	-5.807919e-07	1.706862e-09	-3.981602e+00	1.114281e+02
2.530000e-06	-7.126262e-07	1.411710e-09	-4.885388e+00	9.216233e+01
2.540000e-06	-8.441495e-07	1.105162e-09	-5.787043e+00	7.220434e+01
2.550000e-06	-9.753364e-07	7.902842e-10	-6.686391e+00	5.152110e+01
2.560000e-06	-1.106191e-06	4.679282e-10	-7.583464e+00	3.009191e+01
2.570000e-06	-1.236718e-06	1.345748e-10	-8.478283e+00	7.916126e+00
2.580000e-06	-1.366862e-06	-2.096545e-10	-9.370480e+00	-1.497912e+01
2.590000e-06	-1.496615e-06	-5.657176e-10	-1.026000e+01	-3.853240e+01
2.600000e-06	-1.625885e-06	-9.350885e-10	-1.114621e+01	-6.264410e+01
2.610000e-06	-1.754539e-06	-1.314055e-09	-1.202819e+01	-8.717621e+01
2.620000e-06	-1.882466e-06	-1.694641e-09	-1.290519e+01	-1.119565e+02
2.630000e-06	-2.009660e-06	-2.070559e-09	-1.377717e+01	-1.367872e+02
2.640000e-06	-2.136218e-06	-2.443883e-09	-1.464478e+01	-1.614572e+02
2.650000e-06	-2.262039e-06	-2.815595e-09	-1.550734e+01	-1.857567e+02
2.660000e-06	-2.386896e-06	-3.179438e-09	-1.636330e+01	-2.094927e+02
2.670000e-06	-2.510694e-06	-3.530361e-09	-1.721199e+01	-2.325020e+02
2.680000e-06	-2.633515e-06	-3.866817e-09	-1.805399e+01	-2.546614e+02
2.690000e-06	-2.755432e-06	-4.189536e-09	-1.888979e+01	-2.758930e+02
2.700000e-06	-2.876370e-06	-4.495885e-09	-1.971887e+01	-2.961637e+02
2.710000e-06	-2.996214e-06	-4.788069e-09	-2.054046e+01	-3.154801e+02
2.720000e-06	-3.114965e-06	-5.071423e-09	-2.135455e+01	-3.338789e+02
2.730000e-06	-3.232472e-06	-5.345459e-09	-2.216012e+01	-3.514154e+02
2.740000e-06	-3.348571e-06	-5.606314e-09	-2.295603e+01	-3.681522e+02
2.750000e-06	-3.463285e-06	-5.852139e-09	-2.374245e+01	-3.841494e+02
2.760000e-06	-3.576661e-06	-6.084902e-09	-2.451969e+01	-3.994574e+02
2.770000e-06	-3.688630e-06	-6.307138e-09	-2.528729e+01	-4.141147e+02
2.780000e-06	-3.799136e-06	-6.519253e-09	-2.604487e+01	-4.281484e+02
2.790000e-06	-3.908349e-06	-6.723654e-09	-2.679357e+01	-4.415773e+02
2.800000e-06	-4.016359e-06	-6.920468e-09	-2.753403e+01	-4.544173e+02
2.810000e-06	-4.123108e-06	-7.110766e-09	-2.826585e+01	-4.666859e+02
2.820000e-06	-4.228405e-06	-7.293882e-09	-2.898771e+01	-4.784053e+02
2.830000e-06	-4.332110e-06	-7.468308e-09	-2.969865e+01	-4.896036e+02
2.840000e-06	-4.434162e-06	-7.633459e-09	-3.039827e+01	-5.003138e+02
2.850000e-06	-4.534588e-06	-7.789384e-09	-3.108674e+01	-5.105707e+02
2.860000e-06	-4.633533e-06	-7.939315e-09	-3.176505e+01	-5.204070e+02
2.870000e-06	-4.730954e-06	-8.082339e-09	-3.243292e+01	-5.298499e+02
2.880000e-06	-4.826688e-06	-8.218837e-09	-3.308922e+01	-5.389184e+02
2.890000e-06	-4.920619e-06	-8.349060e-09	-3.373316e+01	-5.476230e+02
2.900000e-06	-5.012773e-06	-8.472238e-09	-3.436492e+01	-5.559665e+02
2.910000e-06	-5.103147e-06	-8.590893e-09	-3.498448e+01	-5.639476e+02
2.920000e-06	-5.191680e-06	-8.705094e-09	-3.559141e+01	-5.715637e+02
2.930000e-06	-5.278213e-06	-8.816346e-09	-3.618463e+01	-5.788147e+02
2.940000e-06	-5.362697e-06	-8.923622e-09	-3.676381e+01	-5.857058e+02
