# Temperatura_=_58.24
# Concentracion g/m^3_=_15000.0
# C_Vs_to_Am_M_A/Vsm_=_65563218390.804596
# pendiente_HvsI_1/m_=_3716.3
# ordenada_HvsI_A/m_=_1297.0
# frecuencia_Hz_=_301966.21954494173

Tiempo_(s)	Campo_(V.s)	Magnetizacion_(V.s)	Campo_(kA/m)	Magnetizacion_(A/m)
0.000000e+00	-6.905297e-06	-1.096709e-08	-4.748140e+01	-7.187855e+02
1.000000e-08	-6.903335e-06	-1.097416e-08	-4.746790e+01	-7.185937e+02
2.000000e-08	-6.899001e-06	-1.096888e-08	-4.743810e+01	-7.182854e+02
3.000000e-08	-6.892527e-06	-1.095833e-08	-4.739358e+01	-7.178551e+02
4.000000e-08	-6.883751e-06	-1.095121e-08	-4.733324e+01	-7.172946e+02
5.000000e-08	-6.872464e-06	-1.093949e-08	-4.725563e+01	-7.165961e+02
6.000000e-08	-6.858731e-06	-1.092525e-08	-4.716120e+01	-7.157552e+02
7.000000e-08	-6.842622e-06	-1.089600e-08	-4.705043e+01	-7.147745e+02
8.000000e-08	-6.824258e-06	-1.087764e-08	-4.692416e+01	-7.136654e+02
9.000000e-08	-6.803680e-06	-1.095979e-08	-4.678267e+01	-7.124479e+02
1.000000e-07	-6.780534e-06	-1.095582e-08	-4.662352e+01	-7.111488e+02
1.100000e-07	-6.754488e-06	-1.085155e-08	-4.644442e+01	-7.097970e+02
1.200000e-07	-6.725817e-06	-1.081816e-08	-4.624727e+01	-7.084185e+02
1.300000e-07	-6.695040e-06	-1.079422e-08	-4.603565e+01	-7.070300e+02
1.400000e-07	-6.662235e-06	-1.065584e-08	-4.581008e+01	-7.056348e+02
1.500000e-07	-6.627471e-06	-1.071466e-08	-4.557104e+01	-7.042201e+02
1.600000e-07	-6.590746e-06	-1.084895e-08	-4.531851e+01	-7.027572e+02
1.700000e-07	-6.551967e-06	-1.059414e-08	-4.505187e+01	-7.012057e+02
1.800000e-07	-6.510991e-06	-1.068322e-08	-4.477011e+01	-6.995188e+02
1.900000e-07	-6.467452e-06	-1.070802e-08	-4.447074e+01	-6.976509e+02
2.000000e-07	-6.421480e-06	-1.054580e-08	-4.415463e+01	-6.955650e+02
2.100000e-07	-6.373138e-06	-1.064636e-08	-4.382223e+01	-6.932384e+02
2.200000e-07	-6.322052e-06	-1.051947e-08	-4.347095e+01	-6.906651e+02
2.300000e-07	-6.268379e-06	-1.044880e-08	-4.310189e+01	-6.878564e+02
2.400000e-07	-6.212350e-06	-1.042864e-08	-4.271663e+01	-6.848364e+02
2.500000e-07	-6.153942e-06	-1.036423e-08	-4.231501e+01	-6.816367e+02
2.600000e-07	-6.093240e-06	-1.038148e-08	-4.189762e+01	-6.782896e+02
2.700000e-07	-6.030374e-06	-1.031225e-08	-4.146535e+01	-6.748214e+02
2.800000e-07	-5.965260e-06	-1.021371e-08	-4.101762e+01	-6.712479e+02
2.900000e-07	-5.897808e-06	-1.012849e-08	-4.055382e+01	-6.675729e+02
3.000000e-07	-5.828150e-06	-1.012471e-08	-4.007484e+01	-6.637882e+02
3.100000e-07	-5.756352e-06	-1.009177e-08	-3.958116e+01	-6.598781e+02
3.200000e-07	-5.682339e-06	-9.986324e-09	-3.907223e+01	-6.558234e+02
3.300000e-07	-5.606053e-06	-9.966871e-09	-3.854769e+01	-6.516070e+02
3.400000e-07	-5.527519e-06	-9.859344e-09	-3.800768e+01	-6.472175e+02
3.500000e-07	-5.446794e-06	-9.769046e-09	-3.745261e+01	-6.426518e+02
3.600000e-07	-5.364158e-06	-9.726513e-09	-3.688440e+01	-6.379147e+02
3.700000e-07	-5.279769e-06	-9.664816e-09	-3.630413e+01	-6.330169e+02
3.800000e-07	-5.193590e-06	-9.587683e-09	-3.571156e+01	-6.279711e+02
3.900000e-07	-5.105609e-06	-9.482673e-09	-3.510659e+01	-6.227884e+02
4.000000e-07	-5.015757e-06	-9.423996e-09	-3.448876e+01	-6.174749e+02
4.100000e-07	-4.924073e-06	-9.351652e-09	-3.385833e+01	-6.120298e+02
4.200000e-07	-4.830820e-06	-9.266711e-09	-3.321712e+01	-6.064455e+02
4.300000e-07	-4.736007e-06	-9.157834e-09	-3.256518e+01	-6.007092e+02
4.400000e-07	-4.639413e-06	-9.059352e-09	-3.190099e+01	-5.948059e+02
4.500000e-07	-4.540972e-06	-8.975454e-09	-3.122410e+01	-5.887216e+02
4.600000e-07	-4.440831e-06	-8.877190e-09	-3.053552e+01	-5.824457e+02
4.700000e-07	-4.339224e-06	-8.797136e-09	-2.983686e+01	-5.759728e+02
4.800000e-07	-4.236147e-06	-8.697222e-09	-2.912810e+01	-5.693030e+02
4.900000e-07	-4.131560e-06	-8.577330e-09	-2.840895e+01	-5.624397e+02
5.000000e-07	-4.025435e-06	-8.459217e-09	-2.767922e+01	-5.553882e+02
5.100000e-07	-3.917748e-06	-8.361302e-09	-2.693876e+01	-5.481525e+02
5.200000e-07	-3.808763e-06	-8.257585e-09	-2.618937e+01	-5.407336e+02
5.300000e-07	-3.698572e-06	-8.137743e-09	-2.543169e+01	-5.331279e+02
5.400000e-07	-3.586987e-06	-8.010841e-09	-2.466442e+01	-5.253278e+02
5.500000e-07	-3.473896e-06	-7.880642e-09	-2.388680e+01	-5.173230e+02
5.600000e-07	-3.359283e-06	-7.758724e-09	-2.309871e+01	-5.091019e+02
5.700000e-07	-3.243201e-06	-7.634131e-09	-2.230052e+01	-5.006542e+02
5.800000e-07	-3.125857e-06	-7.507354e-09	-2.149365e+01	-4.919727e+02
5.900000e-07	-3.007397e-06	-7.367327e-09	-2.067911e+01	-4.830534e+02
6.000000e-07	-2.887811e-06	-7.225340e-09	-1.985683e+01	-4.738956e+02
6.100000e-07	-2.767208e-06	-7.084735e-09	-1.902755e+01	-4.645005e+02
6.200000e-07	-2.645555e-06	-6.941627e-09	-1.819105e+01	-4.548691e+02
6.300000e-07	-2.522771e-06	-6.786508e-09	-1.734678e+01	-4.450001e+02
6.400000e-07	-2.399007e-06	-6.622787e-09	-1.649577e+01	-4.348889e+02
6.500000e-07	-2.274456e-06	-6.460638e-09	-1.563935e+01	-4.245267e+02
6.600000e-07	-2.149179e-06	-6.298605e-09	-1.477793e+01	-4.139008e+02
6.700000e-07	-2.023196e-06	-6.136062e-09	-1.391166e+01	-4.029967e+02
6.800000e-07	-1.896533e-06	-5.968200e-09	-1.304072e+01	-3.917991e+02
6.900000e-07	-1.769194e-06	-5.795517e-09	-1.216512e+01	-3.802944e+02
7.000000e-07	-1.641245e-06	-5.612146e-09	-1.128534e+01	-3.684716e+02
7.100000e-07	-1.512785e-06	-5.425231e-09	-1.040203e+01	-3.563229e+02
7.200000e-07	-1.383831e-06	-5.238163e-09	-9.515337e+00	-3.438433e+02
7.300000e-07	-1.254389e-06	-5.043593e-09	-8.625285e+00	-3.310290e+02
7.400000e-07	-1.124457e-06	-4.839120e-09	-7.731857e+00	-3.178756e+02
7.500000e-07	-9.940770e-07	-4.627129e-09	-6.835355e+00	-3.043762e+02
7.600000e-07	-8.633625e-07	-4.415498e-09	-5.936552e+00	-2.905203e+02
7.700000e-07	-7.323191e-07	-4.201413e-09	-5.035487e+00	-2.762929e+02
7.800000e-07	-6.009541e-07	-3.982155e-09	-4.132210e+00	-2.616748e+02
7.900000e-07	-4.694355e-07	-3.756747e-09	-3.227877e+00	-2.466440e+02
8.000000e-07	-3.378269e-07	-3.523221e-09	-2.322925e+00	-2.311762e+02
8.100000e-07	-2.060817e-07	-3.278313e-09	-1.417035e+00	-2.152466e+02
8.200000e-07	-7.420864e-08	-3.025930e-09	-5.102648e-01	-1.988304e+02
8.300000e-07	5.774917e-08	-2.769397e-09	3.970881e-01	-1.819021e+02
8.400000e-07	1.897005e-07	-2.501719e-09	1.304396e+00	-1.644350e+02
8.500000e-07	3.216412e-07	-2.223711e-09	2.211631e+00	-1.463995e+02
8.600000e-07	4.535295e-07	-1.939914e-09	3.118506e+00	-1.277621e+02
8.700000e-07	5.852848e-07	-1.649285e-09	4.024467e+00	-1.084851e+02
8.800000e-07	7.168831e-07	-1.344250e-09	4.929348e+00	-8.852775e+01
8.900000e-07	8.483058e-07	-1.027405e-09	5.833021e+00	-6.785006e+01
9.000000e-07	9.794642e-07	-7.011831e-10	6.734877e+00	-4.641802e+01
9.100000e-07	1.110205e-06	-3.642237e-10	7.633862e+00	-2.421104e+01
9.200000e-07	1.240443e-06	-1.341413e-11	8.529392e+00	-1.230152e+00
9.300000e-07	1.370184e-06	3.512368e-10	9.421495e+00	2.249413e+01
9.400000e-07	1.499421e-06	7.250001e-10	1.031014e+01	4.689547e+01
9.500000e-07	1.628116e-06	1.107347e-09	1.119506e+01	7.186847e+01
9.600000e-07	1.756245e-06	1.494224e-09	1.207609e+01	9.726915e+01
9.700000e-07	1.883702e-06	1.884746e-09	1.295249e+01	1.229200e+02
9.800000e-07	2.010393e-06	2.276696e-09	1.382363e+01	1.486188e+02
9.900000e-07	2.136379e-06	2.667340e-09	1.468992e+01	1.741516e+02
1.000000e-06	2.261677e-06	3.051176e-09	1.555148e+01	1.993064e+02
1.010000e-06	2.386196e-06	3.423210e-09	1.640768e+01	2.238880e+02
1.020000e-06	2.509907e-06	3.784464e-09	1.725833e+01	2.477306e+02
1.030000e-06	2.632729e-06	4.133527e-09	1.810286e+01	2.707074e+02
1.040000e-06	2.754471e-06	4.470539e-09	1.893997e+01	2.927354e+02
1.050000e-06	2.875019e-06	4.791879e-09	1.976887e+01	3.137757e+02
1.060000e-06	2.994466e-06	5.096177e-09	2.059019e+01	3.338289e+02
1.070000e-06	3.112921e-06	5.385680e-09	2.140470e+01	3.529271e+02
1.080000e-06	3.230330e-06	5.662626e-09	2.221201e+01	3.711230e+02
1.090000e-06	3.346618e-06	5.928319e-09	2.301162e+01	3.884797e+02
1.100000e-06	3.461591e-06	6.180905e-09	2.380218e+01	4.050603e+02
1.110000e-06	3.575060e-06	6.420175e-09	2.458241e+01	4.209209e+02
1.120000e-06	3.687085e-06	6.647685e-09	2.535270e+01	4.361066e+02
1.130000e-06	3.797845e-06	6.866141e-09	2.611430e+01	4.506503e+02
1.140000e-06	3.907417e-06	7.076096e-09	2.686772e+01	4.645752e+02
1.150000e-06	4.015771e-06	7.279384e-09	2.761277e+01	4.778984e+02
1.160000e-06	4.122788e-06	7.475792e-09	2.834863e+01	4.906354e+02
1.170000e-06	4.228201e-06	7.662420e-09	2.907346e+01	5.028047e+02
1.180000e-06	4.331942e-06	7.837878e-09	2.978679e+01	5.144297e+02
1.190000e-06	4.434147e-06	8.005092e-09	3.048956e+01	5.255399e+02
1.200000e-06	4.534876e-06	8.164847e-09	3.118218e+01	5.361695e+02
1.210000e-06	4.634132e-06	8.317537e-09	3.186468e+01	5.463547e+02
1.220000e-06	4.731580e-06	8.465550e-09	3.253474e+01	5.561299e+02
1.230000e-06	4.827088e-06	8.608915e-09	3.319146e+01	5.655247e+02
1.240000e-06	4.920933e-06	8.749260e-09	3.383674e+01	5.745611e+02
1.250000e-06	5.013232e-06	8.887133e-09	3.447140e+01	5.832524e+02
1.260000e-06	5.103845e-06	9.020125e-09	3.509446e+01	5.916038e+02
1.270000e-06	5.192450e-06	9.144604e-09	3.570372e+01	5.996141e+02
1.280000e-06	5.279063e-06	9.260744e-09	3.629927e+01	6.072791e+02
1.290000e-06	5.363860e-06	9.371008e-09	3.688234e+01	6.145941e+02
1.300000e-06	5.446845e-06	9.477004e-09	3.745296e+01	6.215573e+02
1.310000e-06	5.527792e-06	9.575717e-09	3.800956e+01	6.281717e+02
1.320000e-06	5.606640e-06	9.667771e-09	3.855172e+01	6.344461e+02
1.330000e-06	5.683597e-06	9.759036e-09	3.908088e+01	6.403949e+02
1.340000e-06	5.758400e-06	9.848857e-09	3.959524e+01	6.460369e+02
1.350000e-06	5.830834e-06	9.932947e-09	4.009330e+01	6.513940e+02
1.360000e-06	5.901166e-06	1.001055e-08	4.057690e+01	6.564886e+02
1.370000e-06	5.969523e-06	1.008268e-08	4.104693e+01	6.613425e+02
1.380000e-06	6.035712e-06	1.015123e-08	4.150205e+01	6.659748e+02
1.390000e-06	6.099699e-06	1.021761e-08	4.194203e+01	6.704016e+02
1.400000e-06	6.161604e-06	1.028100e-08	4.236770e+01	6.746349e+02
1.410000e-06	6.221513e-06	1.034310e-08	4.277964e+01	6.786829e+02
1.420000e-06	6.279208e-06	1.040304e-08	4.317635e+01	6.825500e+02
1.430000e-06	6.334631e-06	1.046018e-08	4.355745e+01	6.862375e+02
1.440000e-06	6.387830e-06	1.051567e-08	4.392325e+01	6.897441e+02
1.450000e-06	6.438366e-06	1.056757e-08	4.427073e+01	6.930667e+02
1.460000e-06	6.486218e-06	1.061509e-08	4.459977e+01	6.962015e+02
1.470000e-06	6.531779e-06	1.065689e-08	4.491305e+01	6.991451e+02
1.480000e-06	6.575269e-06	1.069599e-08	4.521210e+01	7.018950e+02
1.490000e-06	6.616403e-06	1.073539e-08	4.549493e+01	7.044511e+02
1.500000e-06	6.655011e-06	1.077258e-08	4.576041e+01	7.068153e+02
1.510000e-06	6.691438e-06	1.080511e-08	4.601088e+01	7.089920e+02
1.520000e-06	6.725595e-06	1.083463e-08	4.624574e+01	7.109874e+02
1.530000e-06	6.757258e-06	1.086232e-08	4.646347e+01	7.128084e+02
1.540000e-06	6.786532e-06	1.088691e-08	4.666476e+01	7.144613e+02
1.550000e-06	6.813444e-06	1.090872e-08	4.684980e+01	7.159513e+02
1.560000e-06	6.837836e-06	1.092846e-08	4.701753e+01	7.172815e+02
1.570000e-06	6.859704e-06	1.094576e-08	4.716789e+01	7.184531e+02
1.580000e-06	6.879268e-06	1.095968e-08	4.730242e+01	7.194657e+02
1.590000e-06	6.896380e-06	1.097147e-08	4.742008e+01	7.203191e+02
1.600000e-06	6.910897e-06	1.098128e-08	4.751990e+01	7.210141e+02
1.610000e-06	6.922823e-06	1.099010e-08	4.760190e+01	7.215537e+02
1.620000e-06	6.931974e-06	1.099724e-08	4.766483e+01	7.219439e+02
1.630000e-06	6.938527e-06	1.100262e-08	4.770989e+01	7.221929e+02
1.640000e-06	6.942735e-06	1.100712e-08	4.773882e+01	7.223103e+02
1.650000e-06	6.944470e-06	1.101166e-08	4.775075e+01	7.223047e+02
1.660000e-06	6.943733e-06	1.101039e-08	4.774568e+01	7.221822e+02
1.670000e-06	6.940786e-06	1.099601e-08	4.772542e+01	7.219444e+02
1.680000e-06	6.935576e-06	1.098832e-08	4.768959e+01	7.215884e+02
1.690000e-06	6.927953e-06	1.097835e-08	4.763718e+01	7.211074e+02
1.700000e-06	6.918099e-06	1.096745e-08	4.756942e+01	7.204930e+02
1.710000e-06	6.906035e-06	1.096122e-08	4.748647e+01	7.197381e+02
1.720000e-06	6.891482e-06	1.096659e-08	4.738640e+01	7.188410e+02
1.730000e-06	6.874597e-06	1.096694e-08	4.727030e+01	7.178074e+02
1.740000e-06	6.855720e-06	1.083005e-08	4.714050e+01	7.166523e+02
1.750000e-06	6.834142e-06	1.079507e-08	4.699213e+01	7.153987e+02
1.760000e-06	6.809126e-06	1.086443e-08	4.682011e+01	7.140749e+02
1.770000e-06	6.781193e-06	1.082253e-08	4.662805e+01	7.127093e+02
1.780000e-06	6.750969e-06	1.085575e-08	4.642022e+01	7.113250e+02
1.790000e-06	6.718934e-06	1.096575e-08	4.619994e+01	7.099338e+02
1.800000e-06	6.685571e-06	1.071599e-08	4.597054e+01	7.085328e+02
1.810000e-06	6.650219e-06	1.073850e-08	4.572746e+01	7.071027e+02
1.820000e-06	6.612166e-06	1.084941e-08	4.546580e+01	7.056098e+02
1.830000e-06	6.571932e-06	1.064043e-08	4.518915e+01	7.040102e+02
1.840000e-06	6.529550e-06	1.082498e-08	4.489773e+01	7.022567e+02
1.850000e-06	6.484860e-06	1.066359e-08	4.459043e+01	7.003063e+02
1.860000e-06	6.437857e-06	1.055458e-08	4.426724e+01	6.981271e+02
1.870000e-06	6.388362e-06	1.071029e-08	4.392691e+01	6.957027e+02
1.880000e-06	6.336592e-06	1.051131e-08	4.357093e+01	6.930342e+02
1.890000e-06	6.282265e-06	1.060771e-08	4.319737e+01	6.901384e+02
1.900000e-06	6.225314e-06	1.049693e-08	4.280577e+01	6.870433e+02
1.910000e-06	6.166089e-06	1.035070e-08	4.239854e+01	6.837815e+02
1.920000e-06	6.104443e-06	1.043121e-08	4.197466e+01	6.803836e+02
1.930000e-06	6.040517e-06	1.028950e-08	4.153510e+01	6.768722e+02
1.940000e-06	5.974460e-06	1.035216e-08	4.108088e+01	6.732585e+02
1.950000e-06	5.906263e-06	1.022463e-08	4.061195e+01	6.695413e+02
1.960000e-06	5.835792e-06	1.015932e-08	4.012739e+01	6.657090e+02
1.970000e-06	5.762899e-06	1.010096e-08	3.962617e+01	6.617438e+02
1.980000e-06	5.687879e-06	9.957441e-09	3.911032e+01	6.576268e+02
1.990000e-06	5.610556e-06	1.003152e-08	3.857865e+01	6.533427e+02
2.000000e-06	5.530999e-06	9.904481e-09	3.803161e+01	6.488833e+02
2.010000e-06	5.449605e-06	9.846300e-09	3.747194e+01	6.442487e+02
2.020000e-06	5.366387e-06	9.753833e-09	3.689972e+01	6.394465e+02
2.030000e-06	5.281253e-06	9.665191e-09	3.631433e+01	6.344884e+02
2.040000e-06	5.194024e-06	9.612203e-09	3.571454e+01	6.293872e+02
2.050000e-06	5.104912e-06	9.507005e-09	3.510180e+01	6.241521e+02
2.060000e-06	5.014206e-06	9.466763e-09	3.447810e+01	6.187868e+02
2.070000e-06	4.921905e-06	9.344657e-09	3.384343e+01	6.132877e+02
2.080000e-06	4.827803e-06	9.268298e-09	3.319637e+01	6.076448e+02
2.090000e-06	4.731830e-06	9.173882e-09	3.253645e+01	6.018441e+02
2.100000e-06	4.634259e-06	9.111983e-09	3.186555e+01	5.958707e+02
2.110000e-06	4.535204e-06	9.012914e-09	3.118444e+01	5.897115e+02
2.120000e-06	4.434563e-06	8.881012e-09	3.049242e+01	5.833580e+02
2.130000e-06	4.332259e-06	8.791143e-09	2.978897e+01	5.768069e+02
2.140000e-06	4.228350e-06	8.695017e-09	2.907449e+01	5.700599e+02
2.150000e-06	4.122940e-06	8.608747e-09	2.834968e+01	5.631215e+02
2.160000e-06	4.016111e-06	8.490771e-09	2.761511e+01	5.559967e+02
2.170000e-06	3.907904e-06	8.380625e-09	2.687107e+01	5.486886e+02
2.180000e-06	3.798337e-06	8.250161e-09	2.611768e+01	5.411963e+02
2.190000e-06	3.687350e-06	8.135684e-09	2.535452e+01	5.335148e+02
2.200000e-06	3.574913e-06	8.025354e-09	2.458140e+01	5.256351e+02
2.210000e-06	3.461115e-06	7.917541e-09	2.379892e+01	5.175460e+02
2.220000e-06	3.345873e-06	7.785269e-09	2.300650e+01	5.092365e+02
2.230000e-06	3.229238e-06	7.637413e-09	2.220451e+01	5.006970e+02
2.240000e-06	3.111252e-06	7.498558e-09	2.139322e+01	4.919218e+02
2.250000e-06	2.991988e-06	7.365088e-09	2.057316e+01	4.829082e+02
2.260000e-06	2.871608e-06	7.236666e-09	1.974542e+01	4.736564e+02
2.270000e-06	2.750260e-06	7.090155e-09	1.891101e+01	4.641678e+02
2.280000e-06	2.628075e-06	6.942202e-09	1.807086e+01	4.544428e+02
2.290000e-06	2.504948e-06	6.787808e-09	1.722423e+01	4.444789e+02
2.300000e-06	2.380833e-06	6.637843e-09	1.637081e+01	4.342698e+02
2.310000e-06	2.255928e-06	6.482652e-09	1.551195e+01	4.238050e+02
2.320000e-06	2.130316e-06	6.320878e-09	1.464823e+01	4.130711e+02
2.330000e-06	2.003896e-06	6.145317e-09	1.377896e+01	4.020529e+02
2.340000e-06	1.876673e-06	5.967417e-09	1.290416e+01	3.907356e+02
2.350000e-06	1.748730e-06	5.792231e-09	1.202441e+01	3.791064e+02
2.360000e-06	1.620177e-06	5.615617e-09	1.114047e+01	3.671558e+02
2.370000e-06	1.491118e-06	5.432871e-09	1.025305e+01	3.548770e+02
2.380000e-06	1.361654e-06	5.236980e-09	9.362846e+00	3.422658e+02
2.390000e-06	1.231856e-06	5.038649e-09	8.470342e+00	3.293183e+02
2.400000e-06	1.101713e-06	4.837285e-09	7.575471e+00	3.160293e+02
2.410000e-06	9.711802e-07	4.633533e-09	6.677915e+00	3.023908e+02
2.420000e-06	8.403219e-07	4.422887e-09	5.778123e+00	2.883904e+02
2.430000e-06	7.092216e-07	4.198631e-09	4.876667e+00	2.740114e+02
2.440000e-06	5.778450e-07	3.965376e-09	3.973310e+00	2.592334e+02
2.450000e-06	4.461696e-07	3.731075e-09	3.067899e+00	2.440332e+02
2.460000e-06	3.143188e-07	3.495737e-09	2.161282e+00	2.283864e+02
2.470000e-06	1.823821e-07	3.254331e-09	1.254075e+00	2.122681e+02
2.480000e-06	5.040597e-08	3.001137e-09	3.465956e-01	1.956532e+02
2.490000e-06	-8.161188e-08	2.738971e-09	-5.611700e-01	1.785160e+02
2.500000e-06	-2.136061e-07	2.470532e-09	-1.468773e+00	1.608287e+02
2.510000e-06	-3.455110e-07	2.192130e-09	-2.375762e+00	1.425605e+02
2.520000e-06	-4.773607e-07	1.902536e-09	-3.282372e+00	1.236759e+02
2.530000e-06	-6.090372e-07	1.602757e-09	-4.187790e+00	1.041359e+02
2.540000e-06	-7.404359e-07	1.291359e-09	-5.091299e+00	8.389961e+01
2.550000e-06	-8.715792e-07	9.689406e-10	-5.993051e+00	6.292847e+01
2.560000e-06	-1.002389e-06	6.397562e-10	-6.892513e+00	4.119286e+01
2.570000e-06	-1.132824e-06	3.011082e-10	-7.789393e+00	1.867968e+01
2.580000e-06	-1.262935e-06	-5.072009e-11	-8.684045e+00	-4.599350e+00
2.590000e-06	-1.392644e-06	-4.153179e-10	-9.575934e+00	-2.860024e+01
2.600000e-06	-1.521916e-06	-7.911363e-10	-1.046482e+01	-5.324151e+01
2.610000e-06	-1.650724e-06	-1.175251e-09	-1.135051e+01	-7.840228e+01
2.620000e-06	-1.778949e-06	-1.566169e-09	-1.223220e+01	-1.039246e+02
2.630000e-06	-1.906480e-06	-1.961799e-09	-1.310911e+01	-1.296199e+02
2.640000e-06	-2.033253e-06	-2.357069e-09	-1.398081e+01	-1.552799e+02
2.650000e-06	-2.159231e-06	-2.744448e-09	-1.484705e+01	-1.806894e+02
2.660000e-06	-2.284316e-06	-3.122630e-09	-1.570714e+01	-2.056415e+02
2.670000e-06	-2.408465e-06	-3.493290e-09	-1.656080e+01	-2.299512e+02
2.680000e-06	-2.531662e-06	-3.852928e-09	-1.740792e+01	-2.534670e+02
2.690000e-06	-2.653876e-06	-4.198606e-09	-1.824827e+01	-2.760790e+02
2.700000e-06	-2.775154e-06	-4.529907e-09	-1.908219e+01	-2.977218e+02
2.710000e-06	-2.895476e-06	-4.845576e-09	-1.990953e+01	-3.183729e+02
2.720000e-06	-3.014694e-06	-5.145021e-09	-2.072929e+01	-3.380463e+02
2.730000e-06	-3.132738e-06	-5.431407e-09	-2.154097e+01	-3.567835e+02
2.740000e-06	-3.249508e-06	-5.707475e-09	-2.234389e+01	-3.746426e+02
2.750000e-06	-3.364972e-06	-5.972489e-09	-2.313783e+01	-3.916877e+02
2.760000e-06	-3.479091e-06	-6.222067e-09	-2.392252e+01	-4.079799e+02
2.770000e-06	-3.591790e-06	-6.457051e-09	-2.469745e+01	-4.235712e+02
2.780000e-06	-3.703035e-06	-6.683226e-09	-2.546238e+01	-4.385020e+02
2.790000e-06	-3.812856e-06	-6.901452e-09	-2.621751e+01	-4.528009e+02
2.800000e-06	-3.921452e-06	-7.111816e-09	-2.696423e+01	-4.664881e+02
2.810000e-06	-4.028881e-06	-7.313937e-09	-2.770292e+01	-4.795796e+02
2.820000e-06	-4.134970e-06	-7.508790e-09	-2.843240e+01	-4.920918e+02
2.830000e-06	-4.239529e-06	-7.694569e-09	-2.915135e+01	-5.040446e+02
2.840000e-06	-4.342500e-06	-7.870413e-09	-2.985939e+01	-5.154641e+02
2.850000e-06	-4.443791e-06	-8.038208e-09	-3.055587e+01	-5.263819e+02
2.860000e-06	-4.543543e-06	-8.198193e-09	-3.124178e+01	-5.368332e+02
2.870000e-06	-4.641768e-06	-8.351000e-09	-3.191718e+01	-5.468539e+02
2.880000e-06	-4.738382e-06	-8.495717e-09	-3.258151e+01	-5.564772e+02
2.890000e-06	-4.833389e-06	-8.634385e-09	-3.323478e+01	-5.657296e+02
2.900000e-06	-4.926578e-06	-8.769146e-09	-3.387556e+01	-5.746299e+02
2.910000e-06	-5.018010e-06	-8.899072e-09	-3.450425e+01	-5.831880e+02
2.920000e-06	-5.107689e-06	-9.025085e-09	-3.512089e+01	-5.914064e+02
2.930000e-06	-5.195391e-06	-9.145080e-09	-3.572394e+01	-5.992822e+02
2.940000e-06	-5.281010e-06	-9.257693e-09	-3.631266e+01	-6.068107e+02
