# Temperatura_=_48.58
# Concentracion g/m^3_=_15000.0
# C_Vs_to_Am_M_A/Vsm_=_65563218390.804596
# pendiente_HvsI_1/m_=_3716.3
# ordenada_HvsI_A/m_=_1297.0
# frecuencia_Hz_=_301965.43409195176

Tiempo_(s)	Campo_(V.s)	Magnetizacion_(V.s)	Campo_(kA/m)	Magnetizacion_(A/m)
0.000000e+00	-6.902741e-06	-1.050305e-08	-4.748452e+01	-6.877482e+02
1.000000e-08	-6.901001e-06	-1.050577e-08	-4.747255e+01	-6.875969e+02
2.000000e-08	-6.896894e-06	-1.050171e-08	-4.744430e+01	-6.873248e+02
3.000000e-08	-6.890626e-06	-1.049376e-08	-4.740118e+01	-6.869321e+02
4.000000e-08	-6.882065e-06	-1.048576e-08	-4.734229e+01	-6.864181e+02
5.000000e-08	-6.871044e-06	-1.047747e-08	-4.726647e+01	-6.857817e+02
6.000000e-08	-6.857512e-06	-1.046900e-08	-4.717339e+01	-6.850217e+02
7.000000e-08	-6.841522e-06	-1.045094e-08	-4.706339e+01	-6.841387e+02
8.000000e-08	-6.823299e-06	-1.044028e-08	-4.693803e+01	-6.831367e+02
9.000000e-08	-6.802868e-06	-1.047584e-08	-4.679749e+01	-6.820248e+02
1.000000e-07	-6.779881e-06	-1.046273e-08	-4.663935e+01	-6.808181e+02
1.100000e-07	-6.754068e-06	-1.039979e-08	-4.646179e+01	-6.795370e+02
1.200000e-07	-6.725611e-06	-1.037082e-08	-4.626603e+01	-6.782047e+02
1.300000e-07	-6.694954e-06	-1.034054e-08	-4.605514e+01	-6.768436e+02
1.400000e-07	-6.662336e-06	-1.026114e-08	-4.583076e+01	-6.754703e+02
1.500000e-07	-6.627818e-06	-1.028867e-08	-4.559330e+01	-6.740910e+02
1.600000e-07	-6.591326e-06	-1.032717e-08	-4.534227e+01	-6.726978e+02
1.700000e-07	-6.552748e-06	-1.019998e-08	-4.507689e+01	-6.712680e+02
1.800000e-07	-6.511930e-06	-1.022548e-08	-4.479610e+01	-6.697653e+02
1.900000e-07	-6.468602e-06	-1.021174e-08	-4.449804e+01	-6.681445e+02
2.000000e-07	-6.422870e-06	-1.014745e-08	-4.418344e+01	-6.663582e+02
2.100000e-07	-6.374759e-06	-1.018957e-08	-4.385249e+01	-6.643644e+02
2.200000e-07	-6.323967e-06	-1.011614e-08	-4.350309e+01	-6.621335e+02
2.300000e-07	-6.270560e-06	-1.005161e-08	-4.313570e+01	-6.596534e+02
2.400000e-07	-6.214695e-06	-1.000139e-08	-4.275140e+01	-6.569311e+02
2.500000e-07	-6.156480e-06	-9.947075e-09	-4.235093e+01	-6.539908e+02
2.600000e-07	-6.096047e-06	-9.936214e-09	-4.193520e+01	-6.508683e+02
2.700000e-07	-6.033409e-06	-9.887037e-09	-4.150432e+01	-6.476039e+02
2.800000e-07	-5.968501e-06	-9.812885e-09	-4.105780e+01	-6.442341e+02
2.900000e-07	-5.901348e-06	-9.739348e-09	-4.059585e+01	-6.407844e+02
3.000000e-07	-5.831958e-06	-9.713737e-09	-4.011851e+01	-6.372655e+02
3.100000e-07	-5.760448e-06	-9.677070e-09	-3.962659e+01	-6.336719e+02
3.200000e-07	-5.686766e-06	-9.610663e-09	-3.911973e+01	-6.299850e+02
3.300000e-07	-5.610707e-06	-9.569299e-09	-3.859651e+01	-6.261782e+02
3.400000e-07	-5.532318e-06	-9.483061e-09	-3.805726e+01	-6.222236e+02
3.500000e-07	-5.451772e-06	-9.411438e-09	-3.750318e+01	-6.180985e+02
3.600000e-07	-5.369319e-06	-9.362977e-09	-3.693598e+01	-6.137901e+02
3.700000e-07	-5.285095e-06	-9.304800e-09	-3.635660e+01	-6.092976e+02
3.800000e-07	-5.199134e-06	-9.227523e-09	-3.576527e+01	-6.046304e+02
3.900000e-07	-5.111447e-06	-9.135792e-09	-3.516206e+01	-5.998049e+02
4.000000e-07	-5.021866e-06	-9.064916e-09	-3.454583e+01	-5.948394e+02
4.100000e-07	-4.930384e-06	-8.998323e-09	-3.391652e+01	-5.897481e+02
4.200000e-07	-4.837290e-06	-8.931094e-09	-3.327611e+01	-5.845379e+02
4.300000e-07	-4.742628e-06	-8.840058e-09	-3.262493e+01	-5.792060e+02
4.400000e-07	-4.646201e-06	-8.745475e-09	-3.196159e+01	-5.737407e+02
4.500000e-07	-4.547970e-06	-8.655487e-09	-3.128586e+01	-5.681247e+02
4.600000e-07	-4.448108e-06	-8.563660e-09	-3.059890e+01	-5.623388e+02
4.700000e-07	-4.346749e-06	-8.483604e-09	-2.990164e+01	-5.563664e+02
4.800000e-07	-4.243940e-06	-8.395376e-09	-2.919441e+01	-5.501967e+02
4.900000e-07	-4.139550e-06	-8.290703e-09	-2.847630e+01	-5.438264e+02
5.000000e-07	-4.033571e-06	-8.181256e-09	-2.774726e+01	-5.372589e+02
5.100000e-07	-3.926067e-06	-8.084141e-09	-2.700774e+01	-5.305018e+02
5.200000e-07	-3.817182e-06	-7.988289e-09	-2.625871e+01	-5.235639e+02
5.300000e-07	-3.707024e-06	-7.881266e-09	-2.550092e+01	-5.164510e+02
5.400000e-07	-3.595532e-06	-7.762664e-09	-2.473396e+01	-5.091637e+02
5.500000e-07	-3.482645e-06	-7.639897e-09	-2.395740e+01	-5.016963e+02
5.600000e-07	-3.368254e-06	-7.522258e-09	-2.317050e+01	-4.940374e+02
5.700000e-07	-3.252341e-06	-7.408506e-09	-2.237312e+01	-4.861718e+02
5.800000e-07	-3.135097e-06	-7.293257e-09	-2.156659e+01	-4.780836e+02
5.900000e-07	-3.016706e-06	-7.165331e-09	-2.075217e+01	-4.697585e+02
6.000000e-07	-2.897253e-06	-7.030801e-09	-1.993044e+01	-4.611863e+02
6.100000e-07	-2.776800e-06	-6.897030e-09	-1.910183e+01	-4.523614e+02
6.200000e-07	-2.655267e-06	-6.764228e-09	-1.826580e+01	-4.432821e+02
6.300000e-07	-2.532629e-06	-6.621502e-09	-1.742216e+01	-4.339489e+02
6.400000e-07	-2.409064e-06	-6.466240e-09	-1.657215e+01	-4.243623e+02
6.500000e-07	-2.284688e-06	-6.309046e-09	-1.571656e+01	-4.145211e+02
6.600000e-07	-2.159551e-06	-6.152298e-09	-1.485573e+01	-4.044208e+02
6.700000e-07	-2.033682e-06	-5.996391e-09	-1.398986e+01	-3.940540e+02
6.800000e-07	-1.907117e-06	-5.838531e-09	-1.311921e+01	-3.834104e+02
6.900000e-07	-1.779946e-06	-5.675580e-09	-1.224439e+01	-3.724789e+02
7.000000e-07	-1.652126e-06	-5.504224e-09	-1.136511e+01	-3.612485e+02
7.100000e-07	-1.523698e-06	-5.326762e-09	-1.048165e+01	-3.497094e+02
7.200000e-07	-1.394766e-06	-5.147755e-09	-9.594710e+00	-3.378531e+02
7.300000e-07	-1.265353e-06	-4.963919e-09	-8.704463e+00	-3.256717e+02
7.400000e-07	-1.135519e-06	-4.770951e-09	-7.811327e+00	-3.131563e+02
7.500000e-07	-1.005272e-06	-4.569399e-09	-6.915348e+00	-3.002961e+02
7.600000e-07	-8.746546e-07	-4.365162e-09	-6.016821e+00	-2.870767e+02
7.700000e-07	-7.437309e-07	-4.159597e-09	-5.116185e+00	-2.734806e+02
7.800000e-07	-6.125332e-07	-3.949183e-09	-4.213666e+00	-2.594875e+02
7.900000e-07	-4.810977e-07	-3.731385e-09	-3.309510e+00	-2.450759e+02
8.000000e-07	-3.494411e-07	-3.505762e-09	-2.403834e+00	-2.302254e+02
8.100000e-07	-2.176525e-07	-3.272453e-09	-1.497249e+00	-2.149177e+02
8.200000e-07	-8.579156e-08	-3.034740e-09	-5.901672e-01	-1.991371e+02
8.300000e-07	4.617596e-08	-2.791152e-09	3.176482e-01	-1.828700e+02
8.400000e-07	1.781692e-07	-2.535562e-09	1.225641e+00	-1.661019e+02
8.500000e-07	3.100825e-07	-2.268977e-09	2.133083e+00	-1.488148e+02
8.600000e-07	4.419280e-07	-1.997057e-09	3.040059e+00	-1.309840e+02
8.700000e-07	5.736284e-07	-1.717691e-09	3.946037e+00	-1.125763e+02
8.800000e-07	7.051254e-07	-1.425247e-09	4.850615e+00	-9.355028e+01
8.900000e-07	8.364195e-07	-1.123677e-09	5.753798e+00	-7.385966e+01
9.000000e-07	9.674692e-07	-8.132837e-10	6.655300e+00	-5.345965e+01
9.100000e-07	1.098155e-06	-4.927257e-10	7.554298e+00	-3.231563e+01
9.200000e-07	1.228367e-06	-1.615286e-10	8.450037e+00	-1.041325e+01
9.300000e-07	1.358079e-06	1.826450e-10	9.342336e+00	1.223194e+01
9.400000e-07	1.487243e-06	5.399490e-10	1.023086e+01	3.556683e+01
9.500000e-07	1.615873e-06	9.101142e-10	1.111572e+01	5.949679e+01
9.600000e-07	1.743939e-06	1.286799e-09	1.199670e+01	8.388630e+01
9.700000e-07	1.871355e-06	1.665474e-09	1.287320e+01	1.085646e+02
9.800000e-07	1.998090e-06	2.044347e-09	1.374502e+01	1.333354e+02
9.900000e-07	2.124106e-06	2.421165e-09	1.461190e+01	1.579904e+02
1.000000e-06	2.249409e-06	2.792082e-09	1.547387e+01	1.823237e+02
1.010000e-06	2.373995e-06	3.152542e-09	1.633090e+01	2.061457e+02
1.020000e-06	2.497826e-06	3.502500e-09	1.718275e+01	2.292954e+02
1.030000e-06	2.620718e-06	3.842015e-09	1.802813e+01	2.516485e+02
1.040000e-06	2.742456e-06	4.171759e-09	1.886558e+01	2.731209e+02
1.050000e-06	2.863116e-06	4.489083e-09	1.969561e+01	2.936690e+02
1.060000e-06	2.982702e-06	4.790332e-09	2.051825e+01	3.132843e+02
1.070000e-06	3.101216e-06	5.074176e-09	2.133352e+01	3.319868e+02
1.080000e-06	3.218678e-06	5.343756e-09	2.214155e+01	3.498159e+02
1.090000e-06	3.334946e-06	5.600116e-09	2.294136e+01	3.668218e+02
1.100000e-06	3.449904e-06	5.844073e-09	2.373217e+01	3.830573e+02
1.110000e-06	3.563400e-06	6.078566e-09	2.451292e+01	3.985721e+02
1.120000e-06	3.675463e-06	6.302148e-09	2.528381e+01	4.134093e+02
1.130000e-06	3.786283e-06	6.516799e-09	2.604615e+01	4.276039e+02
1.140000e-06	3.895902e-06	6.723169e-09	2.680023e+01	4.411842e+02
1.150000e-06	4.004321e-06	6.921656e-09	2.754605e+01	4.541731e+02
1.160000e-06	4.111403e-06	7.113440e-09	2.828268e+01	4.665918e+02
1.170000e-06	4.216895e-06	7.296043e-09	2.900836e+01	4.784617e+02
1.180000e-06	4.320748e-06	7.467707e-09	2.972278e+01	4.898067e+02
1.190000e-06	4.423074e-06	7.630935e-09	3.042669e+01	5.006535e+02
1.200000e-06	4.523947e-06	7.786794e-09	3.112060e+01	5.110315e+02
1.210000e-06	4.623341e-06	7.936712e-09	3.180434e+01	5.209705e+02
1.220000e-06	4.720978e-06	8.081772e-09	3.247600e+01	5.304993e+02
1.230000e-06	4.816716e-06	8.221503e-09	3.313458e+01	5.396426e+02
1.240000e-06	4.910708e-06	8.356799e-09	3.378116e+01	5.484196e+02
1.250000e-06	5.003085e-06	8.488832e-09	3.441663e+01	5.568427e+02
1.260000e-06	5.093765e-06	8.617922e-09	3.504043e+01	5.649182e+02
1.270000e-06	5.182510e-06	8.739582e-09	3.565091e+01	5.726474e+02
1.280000e-06	5.269285e-06	8.852481e-09	3.624785e+01	5.800292e+02
1.290000e-06	5.354222e-06	8.959309e-09	3.683213e+01	5.870625e+02
1.300000e-06	5.437403e-06	9.060129e-09	3.740434e+01	5.937495e+02
1.310000e-06	5.518633e-06	9.153457e-09	3.796313e+01	6.000970e+02
1.320000e-06	5.597764e-06	9.241697e-09	3.850748e+01	6.061181e+02
1.330000e-06	5.674867e-06	9.329248e-09	3.903787e+01	6.118308e+02
1.340000e-06	5.749802e-06	9.415685e-09	3.955336e+01	6.172579e+02
1.350000e-06	5.822480e-06	9.497064e-09	4.005331e+01	6.224234e+02
1.360000e-06	5.893055e-06	9.572639e-09	4.053881e+01	6.273511e+02
1.370000e-06	5.961549e-06	9.642894e-09	4.100998e+01	6.320616e+02
1.380000e-06	6.027881e-06	9.710275e-09	4.146629e+01	6.365712e+02
1.390000e-06	6.092045e-06	9.775557e-09	4.190768e+01	6.408910e+02
1.400000e-06	6.154114e-06	9.836968e-09	4.233465e+01	6.450275e+02
1.410000e-06	6.214200e-06	9.896106e-09	4.274799e+01	6.489830e+02
1.420000e-06	6.272084e-06	9.953123e-09	4.314618e+01	6.527578e+02
1.430000e-06	6.327662e-06	1.000823e-08	4.352850e+01	6.563510e+02
1.440000e-06	6.380959e-06	1.006313e-08	4.389514e+01	6.597615e+02
1.450000e-06	6.431640e-06	1.011585e-08	4.424378e+01	6.629888e+02
1.460000e-06	6.479712e-06	1.016317e-08	4.457447e+01	6.660325e+02
1.470000e-06	6.525490e-06	1.020554e-08	4.488938e+01	6.688923e+02
1.480000e-06	6.569068e-06	1.024513e-08	4.518916e+01	6.715673e+02
1.490000e-06	6.610255e-06	1.028249e-08	4.547249e+01	6.740560e+02
1.500000e-06	6.649044e-06	1.031677e-08	4.573932e+01	6.763566e+02
1.510000e-06	6.685681e-06	1.034747e-08	4.599134e+01	6.784675e+02
1.520000e-06	6.719951e-06	1.037584e-08	4.622709e+01	6.803885e+02
1.530000e-06	6.751718e-06	1.040210e-08	4.644562e+01	6.821214e+02
1.540000e-06	6.781217e-06	1.042575e-08	4.664855e+01	6.836710e+02
1.550000e-06	6.808411e-06	1.044650e-08	4.683561e+01	6.850450e+02
1.560000e-06	6.833010e-06	1.046386e-08	4.700483e+01	6.862533e+02
1.570000e-06	6.855061e-06	1.047856e-08	4.715653e+01	6.873073e+02
1.580000e-06	6.874826e-06	1.049116e-08	4.729249e+01	6.882179e+02
1.590000e-06	6.892133e-06	1.050202e-08	4.741155e+01	6.889947e+02
1.600000e-06	6.906870e-06	1.051019e-08	4.751293e+01	6.896448e+02
1.610000e-06	6.919022e-06	1.051720e-08	4.759652e+01	6.901724e+02
1.620000e-06	6.928369e-06	1.052430e-08	4.766081e+01	6.905794e+02
1.630000e-06	6.935069e-06	1.052977e-08	4.770690e+01	6.908659e+02
1.640000e-06	6.939455e-06	1.053241e-08	4.773708e+01	6.910312e+02
1.650000e-06	6.941443e-06	1.053553e-08	4.775075e+01	6.910748e+02
1.660000e-06	6.940963e-06	1.053596e-08	4.774745e+01	6.909968e+02
1.670000e-06	6.938228e-06	1.052970e-08	4.772864e+01	6.907976e+02
1.680000e-06	6.933276e-06	1.052391e-08	4.769457e+01	6.904777e+02
1.690000e-06	6.925934e-06	1.051377e-08	4.764407e+01	6.900371e+02
1.700000e-06	6.916286e-06	1.050345e-08	4.757770e+01	6.894748e+02
1.710000e-06	6.904391e-06	1.049379e-08	4.749587e+01	6.887896e+02
1.720000e-06	6.890056e-06	1.048986e-08	4.739726e+01	6.879807e+02
1.730000e-06	6.873467e-06	1.047750e-08	4.728314e+01	6.870498e+02
1.740000e-06	6.854803e-06	1.039610e-08	4.715475e+01	6.860028e+02
1.750000e-06	6.833383e-06	1.037134e-08	4.700740e+01	6.848512e+02
1.760000e-06	6.808576e-06	1.039835e-08	4.683675e+01	6.836123e+02
1.770000e-06	6.780852e-06	1.037487e-08	4.664603e+01	6.823079e+02
1.780000e-06	6.750841e-06	1.039466e-08	4.643959e+01	6.809615e+02
1.790000e-06	6.719003e-06	1.042431e-08	4.622057e+01	6.795937e+02
1.800000e-06	6.685741e-06	1.029696e-08	4.599176e+01	6.782176e+02
1.810000e-06	6.650508e-06	1.030605e-08	4.574939e+01	6.768342e+02
1.820000e-06	6.612639e-06	1.032998e-08	4.548888e+01	6.754298e+02
1.830000e-06	6.572551e-06	1.024636e-08	4.521311e+01	6.739760e+02
1.840000e-06	6.530356e-06	1.031476e-08	4.492285e+01	6.724322e+02
1.850000e-06	6.485840e-06	1.020057e-08	4.461663e+01	6.707516e+02
1.860000e-06	6.439019e-06	1.014760e-08	4.429454e+01	6.688878e+02
1.870000e-06	6.389745e-06	1.019804e-08	4.395558e+01	6.668031e+02
1.880000e-06	6.338197e-06	1.011135e-08	4.360098e+01	6.644743e+02
1.890000e-06	6.284134e-06	1.015240e-08	4.322907e+01	6.618969e+02
1.900000e-06	6.227414e-06	1.007065e-08	4.283889e+01	6.590849e+02
1.910000e-06	6.168395e-06	9.980702e-09	4.243289e+01	6.560679e+02
1.920000e-06	6.106953e-06	9.972405e-09	4.201023e+01	6.528846e+02
1.930000e-06	6.043241e-06	9.888696e-09	4.157195e+01	6.495745e+02
1.940000e-06	5.977456e-06	9.904709e-09	4.111941e+01	6.461706e+02
1.950000e-06	5.909516e-06	9.817290e-09	4.065204e+01	6.426930e+02
1.960000e-06	5.839247e-06	9.757613e-09	4.016866e+01	6.391459e+02
1.970000e-06	5.766584e-06	9.691001e-09	3.966880e+01	6.355181e+02
1.980000e-06	5.691801e-06	9.607225e-09	3.915436e+01	6.317871e+02
1.990000e-06	5.614693e-06	9.611356e-09	3.862393e+01	6.279251e+02
2.000000e-06	5.535288e-06	9.523340e-09	3.807770e+01	6.239053e+02
2.010000e-06	5.453999e-06	9.462487e-09	3.751850e+01	6.197087e+02
2.020000e-06	5.370964e-06	9.377469e-09	3.694730e+01	6.153271e+02
2.030000e-06	5.286044e-06	9.305738e-09	3.636313e+01	6.107639e+02
2.040000e-06	5.199034e-06	9.245973e-09	3.576458e+01	6.060320e+02
2.050000e-06	5.110123e-06	9.170733e-09	3.515295e+01	6.011491e+02
2.060000e-06	5.019606e-06	9.106998e-09	3.453028e+01	5.961325e+02
2.070000e-06	4.927484e-06	9.008561e-09	3.389656e+01	5.909938e+02
2.080000e-06	4.833556e-06	8.934599e-09	3.325043e+01	5.857362e+02
2.090000e-06	4.737815e-06	8.852060e-09	3.259181e+01	5.803534e+02
2.100000e-06	4.640453e-06	8.789728e-09	3.192205e+01	5.748308e+02
2.110000e-06	4.541617e-06	8.700211e-09	3.124215e+01	5.691499e+02
2.120000e-06	4.441254e-06	8.595268e-09	3.055175e+01	5.632921e+02
2.130000e-06	4.339205e-06	8.498026e-09	2.984975e+01	5.572426e+02
2.140000e-06	4.235504e-06	8.402294e-09	2.913638e+01	5.509938e+02
2.150000e-06	4.130262e-06	8.314884e-09	2.841241e+01	5.445449e+02
2.160000e-06	4.023622e-06	8.214672e-09	2.767883e+01	5.379015e+02
2.170000e-06	3.915697e-06	8.113868e-09	2.693640e+01	5.310721e+02
2.180000e-06	3.806285e-06	7.999395e-09	2.618374e+01	5.240646e+02
2.190000e-06	3.695372e-06	7.892271e-09	2.542076e+01	5.168831e+02
2.200000e-06	3.583133e-06	7.784093e-09	2.464867e+01	5.095257e+02
2.210000e-06	3.469540e-06	7.676108e-09	2.386725e+01	5.019844e+02
2.220000e-06	3.354475e-06	7.551333e-09	2.307571e+01	4.942458e+02
2.230000e-06	3.237959e-06	7.419888e-09	2.227418e+01	4.862942e+02
2.240000e-06	3.120080e-06	7.290082e-09	2.146328e+01	4.781140e+02
2.250000e-06	3.001003e-06	7.163085e-09	2.064414e+01	4.696925e+02
2.260000e-06	2.880827e-06	7.038317e-09	1.981744e+01	4.610211e+02
2.270000e-06	2.759611e-06	6.903812e-09	1.898359e+01	4.520960e+02
2.280000e-06	2.637455e-06	6.764762e-09	1.814327e+01	4.429164e+02
2.290000e-06	2.514383e-06	6.619797e-09	1.729665e+01	4.334833e+02
2.300000e-06	2.390437e-06	6.477411e-09	1.644401e+01	4.237966e+02
2.310000e-06	2.265646e-06	6.331479e-09	1.558556e+01	4.138539e+02
2.320000e-06	2.140057e-06	6.177943e-09	1.472162e+01	4.036497e+02
2.330000e-06	2.013688e-06	6.010905e-09	1.385232e+01	3.931750e+02
2.340000e-06	1.886553e-06	5.838674e-09	1.297775e+01	3.824193e+02
2.350000e-06	1.758711e-06	5.666626e-09	1.209832e+01	3.713713e+02
2.360000e-06	1.630282e-06	5.496445e-09	1.121484e+01	3.600203e+02
2.370000e-06	1.501354e-06	5.324422e-09	1.032794e+01	3.483572e+02
2.380000e-06	1.371961e-06	5.143714e-09	9.437830e+00	3.363738e+02
2.390000e-06	1.242200e-06	4.958170e-09	8.545196e+00	3.240619e+02
2.400000e-06	1.112123e-06	4.766162e-09	7.650387e+00	3.114121e+02
2.410000e-06	9.816634e-07	4.568402e-09	6.752943e+00	2.984124e+02
2.420000e-06	8.508993e-07	4.364440e-09	5.853406e+00	2.850469e+02
2.430000e-06	7.199348e-07	4.150528e-09	4.952490e+00	2.712970e+02
2.440000e-06	5.887927e-07	3.929034e-09	4.050353e+00	2.571416e+02
2.450000e-06	4.574724e-07	3.703663e-09	3.146990e+00	2.425596e+02
2.460000e-06	3.259072e-07	3.475246e-09	2.241942e+00	2.275311e+02
2.470000e-06	1.941681e-07	3.242523e-09	1.335698e+00	2.120390e+02
2.480000e-06	6.235337e-08	3.000102e-09	4.289339e-01	1.960686e+02
2.490000e-06	-6.951972e-08	2.747410e-09	-4.782319e-01	1.796061e+02
2.500000e-06	-2.014176e-07	2.487314e-09	-1.385568e+00	1.626362e+02
2.510000e-06	-3.332264e-07	2.219050e-09	-2.292291e+00	1.451385e+02
2.520000e-06	-4.648998e-07	1.941897e-09	-3.198084e+00	1.270852e+02
2.530000e-06	-5.964027e-07	1.656835e-09	-4.102703e+00	1.084395e+02
2.540000e-06	-7.276979e-07	1.361470e-09	-5.005893e+00	8.915761e+01
2.550000e-06	-8.587886e-07	1.054904e-09	-5.907677e+00	6.919293e+01
2.560000e-06	-9.895826e-07	7.393467e-10	-6.807419e+00	4.850350e+01
2.570000e-06	-1.120036e-06	4.142017e-10	-7.704820e+00	2.706144e+01
2.580000e-06	-1.250115e-06	7.810929e-11	-8.599645e+00	4.863071e+00
2.590000e-06	-1.379758e-06	-2.682976e-10	-9.491466e+00	-1.806203e+01
2.600000e-06	-1.508951e-06	-6.247953e-10	-1.038020e+01	-4.164468e+01
2.610000e-06	-1.637698e-06	-9.918892e-10	-1.126586e+01	-6.577384e+01
2.620000e-06	-1.765925e-06	-1.367917e-09	-1.214794e+01	-9.029919e+01
2.630000e-06	-1.893481e-06	-1.747942e-09	-1.302541e+01	-1.150386e+02
2.640000e-06	-2.020315e-06	-2.126184e-09	-1.389791e+01	-1.397893e+02
2.650000e-06	-2.146305e-06	-2.499204e-09	-1.476461e+01	-1.643422e+02
2.660000e-06	-2.271390e-06	-2.866981e-09	-1.562508e+01	-1.884963e+02
2.670000e-06	-2.395637e-06	-3.226453e-09	-1.647978e+01	-2.120719e+02
2.680000e-06	-2.518869e-06	-3.573228e-09	-1.732751e+01	-2.349216e+02
2.690000e-06	-2.641073e-06	-3.907438e-09	-1.816816e+01	-2.569368e+02
2.700000e-06	-2.762391e-06	-4.229228e-09	-1.900271e+01	-2.780496e+02
2.710000e-06	-2.882794e-06	-4.536281e-09	-1.983098e+01	-2.982309e+02
2.720000e-06	-3.002136e-06	-4.829129e-09	-2.065194e+01	-3.174842e+02
2.730000e-06	-3.120263e-06	-5.111818e-09	-2.146454e+01	-3.358385e+02
2.740000e-06	-3.237120e-06	-5.384612e-09	-2.226841e+01	-3.533383e+02
2.750000e-06	-3.352636e-06	-5.644514e-09	-2.306306e+01	-3.700357e+02
2.760000e-06	-3.466768e-06	-5.889146e-09	-2.384818e+01	-3.859828e+02
2.770000e-06	-3.579459e-06	-6.119349e-09	-2.462339e+01	-4.012271e+02
2.780000e-06	-3.690714e-06	-6.340070e-09	-2.538872e+01	-4.158085e+02
2.790000e-06	-3.800622e-06	-6.551212e-09	-2.614479e+01	-4.297591e+02
2.800000e-06	-3.909313e-06	-6.753705e-09	-2.689248e+01	-4.431048e+02
2.810000e-06	-4.016838e-06	-6.949603e-09	-2.763215e+01	-4.558676e+02
2.820000e-06	-4.123029e-06	-7.140102e-09	-2.836265e+01	-4.680684e+02
2.830000e-06	-4.227813e-06	-7.323928e-09	-2.908347e+01	-4.797295e+02
2.840000e-06	-4.330989e-06	-7.497796e-09	-2.979322e+01	-4.908758e+02
2.850000e-06	-4.432409e-06	-7.661038e-09	-3.049091e+01	-5.015352e+02
2.860000e-06	-4.532239e-06	-7.814854e-09	-3.117764e+01	-5.117375e+02
2.870000e-06	-4.630552e-06	-7.961727e-09	-3.185395e+01	-5.215125e+02
2.880000e-06	-4.727322e-06	-8.101685e-09	-3.251963e+01	-5.308876e+02
2.890000e-06	-4.822470e-06	-8.236084e-09	-3.317416e+01	-5.398854e+02
2.900000e-06	-4.915794e-06	-8.366607e-09	-3.381615e+01	-5.485226e+02
2.910000e-06	-5.007328e-06	-8.492705e-09	-3.444582e+01	-5.568091e+02
2.920000e-06	-5.097161e-06	-8.614457e-09	-3.506379e+01	-5.647490e+02
2.930000e-06	-5.185167e-06	-8.730323e-09	-3.566919e+01	-5.723422e+02
2.940000e-06	-5.271097e-06	-8.839618e-09	-3.626031e+01	-5.795875e+02
