# Temperatura_=_52.46
# Concentracion g/m^3_=_15000.0
# C_Vs_to_Am_M_A/Vsm_=_65563218390.804596
# pendiente_HvsI_1/m_=_3716.3
# ordenada_HvsI_A/m_=_1297.0
# frecuencia_Hz_=_301963.1039010592

Tiempo_(s)	Campo_(V.s)	Magnetizacion_(V.s)	Campo_(kA/m)	Magnetizacion_(A/m)
0.000000e+00	-6.916100e-06	-1.071034e-08	-4.747019e+01	-7.016927e+02
1.000000e-08	-6.912341e-06	-1.071019e-08	-4.744438e+01	-7.014311e+02
2.000000e-08	-6.906369e-06	-1.070422e-08	-4.740340e+01	-7.010479e+02
3.000000e-08	-6.898224e-06	-1.069679e-08	-4.734749e+01	-7.005365e+02
4.000000e-08	-6.887652e-06	-1.068897e-08	-4.727492e+01	-6.998902e+02
5.000000e-08	-6.874533e-06	-1.067980e-08	-4.718488e+01	-6.991042e+02
6.000000e-08	-6.858964e-06	-1.066808e-08	-4.707802e+01	-6.981788e+02
7.000000e-08	-6.841124e-06	-1.065609e-08	-4.695557e+01	-6.971217e+02
8.000000e-08	-6.821116e-06	-1.065117e-08	-4.681824e+01	-6.959490e+02
9.000000e-08	-6.798553e-06	-1.065398e-08	-4.666338e+01	-6.946849e+02
1.000000e-07	-6.773182e-06	-1.062093e-08	-4.648924e+01	-6.933589e+02
1.100000e-07	-6.745121e-06	-1.057474e-08	-4.629663e+01	-6.920015e+02
1.200000e-07	-6.714740e-06	-1.054720e-08	-4.608811e+01	-6.906386e+02
1.300000e-07	-6.682352e-06	-1.052112e-08	-4.586580e+01	-6.892858e+02
1.400000e-07	-6.647986e-06	-1.047041e-08	-4.562992e+01	-6.879437e+02
1.500000e-07	-6.611695e-06	-1.047505e-08	-4.538084e+01	-6.865958e+02
1.600000e-07	-6.573333e-06	-1.046709e-08	-4.511753e+01	-6.852085e+02
1.700000e-07	-6.532812e-06	-1.040070e-08	-4.483941e+01	-6.837354e+02
1.800000e-07	-6.489847e-06	-1.040824e-08	-4.454450e+01	-6.821232e+02
1.900000e-07	-6.444349e-06	-1.039327e-08	-4.423222e+01	-6.803196e+02
2.000000e-07	-6.396562e-06	-1.037821e-08	-4.390422e+01	-6.782818e+02
2.100000e-07	-6.346097e-06	-1.035566e-08	-4.355784e+01	-6.759829e+02
2.200000e-07	-6.292919e-06	-1.027613e-08	-4.319284e+01	-6.734155e+02
2.300000e-07	-6.237338e-06	-1.021206e-08	-4.281135e+01	-6.705924e+02
2.400000e-07	-6.179351e-06	-1.014542e-08	-4.241335e+01	-6.675431e+02
2.500000e-07	-6.119088e-06	-1.011177e-08	-4.199972e+01	-6.643074e+02
2.600000e-07	-6.056675e-06	-1.009567e-08	-4.157133e+01	-6.609277e+02
2.700000e-07	-5.992014e-06	-1.003455e-08	-4.112751e+01	-6.574407e+02
2.800000e-07	-5.925008e-06	-9.965787e-09	-4.066760e+01	-6.538713e+02
2.900000e-07	-5.855776e-06	-9.898769e-09	-4.019242e+01	-6.502285e+02
3.000000e-07	-5.784462e-06	-9.857922e-09	-3.970293e+01	-6.465060e+02
3.100000e-07	-5.710924e-06	-9.812246e-09	-3.919819e+01	-6.426846e+02
3.200000e-07	-5.635051e-06	-9.751281e-09	-3.867742e+01	-6.387375e+02
3.300000e-07	-5.556795e-06	-9.685880e-09	-3.814029e+01	-6.346373e+02
3.400000e-07	-5.476329e-06	-9.612132e-09	-3.758799e+01	-6.303619e+02
3.500000e-07	-5.393976e-06	-9.553008e-09	-3.702275e+01	-6.258984e+02
3.600000e-07	-5.309861e-06	-9.484604e-09	-3.644541e+01	-6.212455e+02
3.700000e-07	-5.223988e-06	-9.410773e-09	-3.585600e+01	-6.164120e+02
3.800000e-07	-5.136324e-06	-9.325549e-09	-3.525430e+01	-6.114137e+02
3.900000e-07	-5.046800e-06	-9.239825e-09	-3.463983e+01	-6.062688e+02
4.000000e-07	-4.955434e-06	-9.171719e-09	-3.401272e+01	-6.009928e+02
4.100000e-07	-4.862392e-06	-9.105050e-09	-3.337410e+01	-5.955944e+02
4.200000e-07	-4.767741e-06	-9.019817e-09	-3.272445e+01	-5.900739e+02
4.300000e-07	-4.671382e-06	-8.917539e-09	-3.206307e+01	-5.844228e+02
4.400000e-07	-4.573289e-06	-8.819828e-09	-3.138978e+01	-5.786262e+02
4.500000e-07	-4.473520e-06	-8.727823e-09	-3.070500e+01	-5.726660e+02
4.600000e-07	-4.372154e-06	-8.641221e-09	-3.000925e+01	-5.665248e+02
4.700000e-07	-4.269293e-06	-8.553430e-09	-2.930324e+01	-5.601890e+02
4.800000e-07	-4.164895e-06	-8.452452e-09	-2.858668e+01	-5.536509e+02
4.900000e-07	-4.058902e-06	-8.341072e-09	-2.785917e+01	-5.469090e+02
5.000000e-07	-3.951412e-06	-8.229393e-09	-2.712139e+01	-5.399668e+02
5.100000e-07	-3.842516e-06	-8.126151e-09	-2.637396e+01	-5.328303e+02
5.200000e-07	-3.732304e-06	-8.023296e-09	-2.561749e+01	-5.255053e+02
5.300000e-07	-3.620820e-06	-7.907028e-09	-2.485230e+01	-5.179946e+02
5.400000e-07	-3.507870e-06	-7.780903e-09	-2.407704e+01	-5.102972e+02
5.500000e-07	-3.393427e-06	-7.656879e-09	-2.329154e+01	-5.024072e+02
5.600000e-07	-3.277533e-06	-7.536574e-09	-2.249608e+01	-4.943147e+02
5.700000e-07	-3.160269e-06	-7.415072e-09	-2.169121e+01	-4.860081e+02
5.800000e-07	-3.041861e-06	-7.284692e-09	-2.087848e+01	-4.774753e+02
5.900000e-07	-2.922416e-06	-7.146183e-09	-2.005865e+01	-4.687058e+02
6.000000e-07	-2.801840e-06	-7.008196e-09	-1.923105e+01	-4.596918e+02
6.100000e-07	-2.680106e-06	-6.873872e-09	-1.839550e+01	-4.504281e+02
6.200000e-07	-2.557420e-06	-6.732269e-09	-1.755342e+01	-4.409116e+02
6.300000e-07	-2.433797e-06	-6.575822e-09	-1.670490e+01	-4.311399e+02
6.400000e-07	-2.309230e-06	-6.413110e-09	-1.584991e+01	-4.211097e+02
6.500000e-07	-2.183859e-06	-6.251014e-09	-1.498940e+01	-4.108163e+02
6.600000e-07	-2.057874e-06	-6.090582e-09	-1.412467e+01	-4.002521e+02
6.700000e-07	-1.931298e-06	-5.931828e-09	-1.325589e+01	-3.894077e+02
6.800000e-07	-1.804013e-06	-5.769354e-09	-1.238224e+01	-3.782718e+02
6.900000e-07	-1.675999e-06	-5.595769e-09	-1.150359e+01	-3.668325e+02
7.000000e-07	-1.547246e-06	-5.412439e-09	-1.061986e+01	-3.550785e+02
7.100000e-07	-1.417851e-06	-5.229156e-09	-9.731733e+00	-3.429995e+02
7.200000e-07	-1.288043e-06	-5.044927e-09	-8.840771e+00	-3.305862e+02
7.300000e-07	-1.157934e-06	-4.849468e-09	-7.947738e+00	-3.178302e+02
7.400000e-07	-1.027528e-06	-4.643843e-09	-7.052665e+00	-3.047226e+02
7.500000e-07	-8.968103e-07	-4.434977e-09	-6.155456e+00	-2.912537e+02
7.600000e-07	-7.657398e-07	-4.225286e-09	-5.255825e+00	-2.774118e+02
7.700000e-07	-6.343932e-07	-4.009761e-09	-4.354298e+00	-2.631832e+02
7.800000e-07	-5.028936e-07	-3.787567e-09	-3.451722e+00	-2.485517e+02
7.900000e-07	-3.712327e-07	-3.559378e-09	-2.548038e+00	-2.334995e+02
8.000000e-07	-2.393695e-07	-3.322168e-09	-1.642966e+00	-2.180076e+02
8.100000e-07	-1.072968e-07	-3.079179e-09	-7.364555e-01	-2.020558e+02
8.200000e-07	2.487431e-08	-2.831850e-09	1.707303e-01	-1.856226e+02
8.300000e-07	1.570557e-07	-2.575010e-09	1.077986e+00	-1.686841e+02
8.400000e-07	2.891943e-07	-2.306168e-09	1.984949e+00	-1.512133e+02
8.500000e-07	4.212663e-07	-2.028890e-09	2.891455e+00	-1.331783e+02
8.600000e-07	5.532118e-07	-1.744391e-09	3.797092e+00	-1.145421e+02
8.700000e-07	6.849141e-07	-1.448634e-09	4.701060e+00	-9.526354e+01
8.800000e-07	8.163875e-07	-1.142882e-09	5.603456e+00	-7.529990e+01
8.900000e-07	9.476142e-07	-8.282239e-10	6.504160e+00	-5.461195e+01
9.000000e-07	1.078542e-06	-5.027113e-10	7.402815e+00	-3.317069e+01
9.100000e-07	1.209128e-06	-1.637737e-10	8.299119e+00	-1.096559e+01
9.200000e-07	1.339301e-06	1.882769e-10	9.192586e+00	1.198714e+01
9.300000e-07	1.468990e-06	5.508405e-10	1.008274e+01	3.563736e+01
9.400000e-07	1.598103e-06	9.239685e-10	1.096893e+01	5.989629e+01
9.500000e-07	1.726613e-06	1.303926e-09	1.185099e+01	8.463566e+01
9.600000e-07	1.854440e-06	1.688108e-09	1.272836e+01	1.096910e+02
9.700000e-07	1.981519e-06	2.073398e-09	1.360060e+01	1.348698e+02
9.800000e-07	2.107883e-06	2.456885e-09	1.446792e+01	1.599626e+02
9.900000e-07	2.233591e-06	2.835399e-09	1.533075e+01	1.847575e+02
1.000000e-06	2.358610e-06	3.203832e-09	1.618884e+01	2.090548e+02
1.010000e-06	2.482741e-06	3.560528e-09	1.704084e+01	2.326804e+02
1.020000e-06	2.605909e-06	3.904838e-09	1.788623e+01	2.554966e+02
1.030000e-06	2.728207e-06	4.238485e-09	1.872565e+01	2.774083e+02
1.040000e-06	2.849486e-06	4.559628e-09	1.955808e+01	2.983643e+02
1.050000e-06	2.969596e-06	4.865942e-09	2.038248e+01	3.183542e+02
1.060000e-06	3.088636e-06	5.156081e-09	2.119954e+01	3.374006e+02
1.070000e-06	3.206568e-06	5.433295e-09	2.200899e+01	3.555494e+02
1.080000e-06	3.323318e-06	5.697604e-09	2.281033e+01	3.728590e+02
1.090000e-06	3.438763e-06	5.947201e-09	2.360271e+01	3.893899e+02
1.100000e-06	3.552795e-06	6.184640e-09	2.438539e+01	4.051977e+02
1.110000e-06	3.665415e-06	6.412089e-09	2.515839e+01	4.203277e+02
1.120000e-06	3.776706e-06	6.630560e-09	2.592226e+01	4.348139e+02
1.130000e-06	3.886724e-06	6.840806e-09	2.667739e+01	4.486807e+02
1.140000e-06	3.995518e-06	7.042349e-09	2.742412e+01	4.619465e+02
1.150000e-06	4.103052e-06	7.236552e-09	2.816221e+01	4.746277e+02
1.160000e-06	4.209102e-06	7.423573e-09	2.889011e+01	4.867433e+02
1.170000e-06	4.313533e-06	7.600599e-09	2.960689e+01	4.983172e+02
1.180000e-06	4.416349e-06	7.768751e-09	3.031259e+01	5.093792e+02
1.190000e-06	4.517676e-06	7.927918e-09	3.100807e+01	5.199637e+02
1.200000e-06	4.617452e-06	8.080090e-09	3.169291e+01	5.301069e+02
1.210000e-06	4.715472e-06	8.225701e-09	3.236569e+01	5.398434e+02
1.220000e-06	4.811703e-06	8.366911e-09	3.302619e+01	5.492023e+02
1.230000e-06	4.906183e-06	8.506837e-09	3.367467e+01	5.582047e+02
1.240000e-06	4.998987e-06	8.643923e-09	3.431166e+01	5.668629e+02
1.250000e-06	5.090125e-06	8.775785e-09	3.493720e+01	5.751805e+02
1.260000e-06	5.179387e-06	8.899434e-09	3.554987e+01	5.831547e+02
1.270000e-06	5.266689e-06	9.015177e-09	3.614909e+01	5.907799e+02
1.280000e-06	5.352134e-06	9.126580e-09	3.673556e+01	5.980508e+02
1.290000e-06	5.435748e-06	9.234550e-09	3.730946e+01	6.049657e+02
1.300000e-06	5.517414e-06	9.334609e-09	3.786999e+01	6.115290e+02
1.310000e-06	5.596987e-06	9.426097e-09	3.841616e+01	6.177521e+02
1.320000e-06	5.674541e-06	9.514346e-09	3.894847e+01	6.236522e+02
1.330000e-06	5.750021e-06	9.601473e-09	3.946654e+01	6.292518e+02
1.340000e-06	5.823220e-06	9.685750e-09	3.996896e+01	6.345752e+02
1.350000e-06	5.894258e-06	9.761536e-09	4.045654e+01	6.396469e+02
1.360000e-06	5.963294e-06	9.830808e-09	4.093039e+01	6.444889e+02
1.370000e-06	6.030217e-06	9.899629e-09	4.138973e+01	6.491195e+02
1.380000e-06	6.094907e-06	9.968113e-09	4.183374e+01	6.535522e+02
1.390000e-06	6.157448e-06	1.003491e-08	4.226301e+01	6.577965e+02
1.400000e-06	6.218006e-06	1.009762e-08	4.267866e+01	6.618579e+02
1.410000e-06	6.276369e-06	1.015853e-08	4.307925e+01	6.657389e+02
1.420000e-06	6.332426e-06	1.021541e-08	4.346401e+01	6.694401e+02
1.430000e-06	6.386252e-06	1.026819e-08	4.383346e+01	6.729607e+02
1.440000e-06	6.437505e-06	1.031982e-08	4.418524e+01	6.762991e+02
1.450000e-06	6.486120e-06	1.036682e-08	4.451892e+01	6.794531e+02
1.460000e-06	6.532397e-06	1.040962e-08	4.483655e+01	6.824201e+02
1.470000e-06	6.576501e-06	1.044930e-08	4.513927e+01	6.851975e+02
1.480000e-06	6.618222e-06	1.048895e-08	4.542563e+01	6.877830e+02
1.490000e-06	6.657435e-06	1.052840e-08	4.569478e+01	6.901749e+02
1.500000e-06	6.694448e-06	1.056190e-08	4.594883e+01	6.923732e+02
1.510000e-06	6.729216e-06	1.059216e-08	4.618746e+01	6.943793e+02
1.520000e-06	6.761483e-06	1.061984e-08	4.640894e+01	6.961967e+02
1.530000e-06	6.791375e-06	1.064379e-08	4.661410e+01	6.978307e+02
1.540000e-06	6.819107e-06	1.066450e-08	4.680445e+01	6.992880e+02
1.550000e-06	6.844340e-06	1.068369e-08	4.697765e+01	7.005758e+02
1.560000e-06	6.866855e-06	1.070081e-08	4.713218e+01	7.017015e+02
1.570000e-06	6.887010e-06	1.071470e-08	4.727052e+01	7.026718e+02
1.580000e-06	6.904764e-06	1.072719e-08	4.739238e+01	7.034931e+02
1.590000e-06	6.919947e-06	1.073771e-08	4.749659e+01	7.041708e+02
1.600000e-06	6.932586e-06	1.074678e-08	4.758334e+01	7.047101e+02
1.610000e-06	6.942471e-06	1.075428e-08	4.765119e+01	7.051162e+02
1.620000e-06	6.949690e-06	1.075878e-08	4.770074e+01	7.053942e+02
1.630000e-06	6.954558e-06	1.076051e-08	4.773415e+01	7.055493e+02
1.640000e-06	6.956976e-06	1.076053e-08	4.775075e+01	7.055858e+02
1.650000e-06	6.956911e-06	1.076014e-08	4.775030e+01	7.055062e+02
1.660000e-06	6.954520e-06	1.075573e-08	4.773389e+01	7.053109e+02
1.670000e-06	6.949851e-06	1.074769e-08	4.770185e+01	7.049968e+02
1.680000e-06	6.942861e-06	1.073922e-08	4.765387e+01	7.045585e+02
1.690000e-06	6.933612e-06	1.073018e-08	4.759038e+01	7.039891e+02
1.700000e-06	6.922029e-06	1.072029e-08	4.751088e+01	7.032822e+02
1.710000e-06	6.908036e-06	1.070638e-08	4.741483e+01	7.024351e+02
1.720000e-06	6.891806e-06	1.068676e-08	4.730344e+01	7.014508e+02
1.730000e-06	6.873466e-06	1.065539e-08	4.717755e+01	7.003407e+02
1.740000e-06	6.852583e-06	1.060602e-08	4.703422e+01	6.991245e+02
1.750000e-06	6.828369e-06	1.060374e-08	4.686803e+01	6.978291e+02
1.760000e-06	6.801019e-06	1.061071e-08	4.668030e+01	6.964850e+02
1.770000e-06	6.771180e-06	1.058535e-08	4.647549e+01	6.951216e+02
1.780000e-06	6.739415e-06	1.058925e-08	4.625747e+01	6.937608e+02
1.790000e-06	6.706268e-06	1.058863e-08	4.602995e+01	6.924125e+02
1.800000e-06	6.671350e-06	1.051700e-08	4.579029e+01	6.910700e+02
1.810000e-06	6.633886e-06	1.053913e-08	4.553315e+01	6.897092e+02
1.820000e-06	6.594110e-06	1.054384e-08	4.526014e+01	6.882904e+02
1.830000e-06	6.552276e-06	1.048076e-08	4.497300e+01	6.867633e+02
1.840000e-06	6.508119e-06	1.044973e-08	4.466992e+01	6.850741e+02
1.850000e-06	6.461610e-06	1.035204e-08	4.435069e+01	6.831736e+02
1.860000e-06	6.412660e-06	1.035139e-08	4.401471e+01	6.810251e+02
1.870000e-06	6.361368e-06	1.034966e-08	4.366266e+01	6.786097e+02
1.880000e-06	6.307588e-06	1.032418e-08	4.329353e+01	6.759291e+02
1.890000e-06	6.251155e-06	1.033133e-08	4.290618e+01	6.730037e+02
1.900000e-06	6.192400e-06	1.021833e-08	4.250291e+01	6.698683e+02
1.910000e-06	6.131306e-06	1.014882e-08	4.208358e+01	6.665649e+02
1.920000e-06	6.067889e-06	1.009806e-08	4.164830e+01	6.631343e+02
1.930000e-06	6.002296e-06	1.005536e-08	4.119809e+01	6.596088e+02
1.940000e-06	5.934549e-06	1.004321e-08	4.073309e+01	6.560067e+02
1.950000e-06	5.864479e-06	9.949164e-09	4.025215e+01	6.523304e+02
1.960000e-06	5.791969e-06	9.901564e-09	3.975446e+01	6.485674e+02
1.970000e-06	5.717340e-06	9.817534e-09	3.924223e+01	6.446946e+02
1.980000e-06	5.640461e-06	9.755472e-09	3.871455e+01	6.406841e+02
1.990000e-06	5.561271e-06	9.718116e-09	3.817102e+01	6.365100e+02
2.000000e-06	5.480136e-06	9.635421e-09	3.761413e+01	6.321539e+02
2.010000e-06	5.397199e-06	9.570741e-09	3.704487e+01	6.276077e+02
2.020000e-06	5.312402e-06	9.478355e-09	3.646285e+01	6.228748e+02
2.030000e-06	5.225487e-06	9.420436e-09	3.586629e+01	6.179675e+02
2.040000e-06	5.136663e-06	9.345480e-09	3.525663e+01	6.129033e+02
2.050000e-06	5.046264e-06	9.254631e-09	3.463615e+01	6.076996e+02
2.060000e-06	4.954258e-06	9.174641e-09	3.400465e+01	6.023695e+02
2.070000e-06	4.860442e-06	9.092340e-09	3.336072e+01	5.969183e+02
2.080000e-06	4.764719e-06	9.020462e-09	3.270370e+01	5.913422e+02
2.090000e-06	4.667370e-06	8.934857e-09	3.203553e+01	5.856299e+02
2.100000e-06	4.568579e-06	8.854013e-09	3.135746e+01	5.797645e+02
2.110000e-06	4.468230e-06	8.748518e-09	3.066869e+01	5.737276e+02
2.120000e-06	4.366123e-06	8.637529e-09	2.996785e+01	5.675034e+02
2.130000e-06	4.262380e-06	8.535037e-09	2.925579e+01	5.610804e+02
2.140000e-06	4.157200e-06	8.449626e-09	2.853386e+01	5.544539e+02
2.150000e-06	4.050619e-06	8.362162e-09	2.780232e+01	5.476245e+02
2.160000e-06	3.942674e-06	8.254554e-09	2.706142e+01	5.405973e+02
2.170000e-06	3.833313e-06	8.138547e-09	2.631079e+01	5.333784e+02
2.180000e-06	3.722451e-06	8.017419e-09	2.554987e+01	5.259726e+02
2.190000e-06	3.610083e-06	7.902974e-09	2.477860e+01	5.183814e+02
2.200000e-06	3.496388e-06	7.787921e-09	2.399824e+01	5.106014e+02
2.210000e-06	3.381349e-06	7.670199e-09	2.320864e+01	5.026249e+02
2.220000e-06	3.264782e-06	7.539365e-09	2.240856e+01	4.944412e+02
2.230000e-06	3.146772e-06	7.405832e-09	2.159857e+01	4.860380e+02
2.240000e-06	3.027556e-06	7.272779e-09	2.078030e+01	4.774039e+02
2.250000e-06	2.907198e-06	7.142780e-09	1.995420e+01	4.685295e+02
2.260000e-06	2.785758e-06	7.009207e-09	1.912067e+01	4.594079e+02
2.270000e-06	2.663483e-06	6.869793e-09	1.828141e+01	4.500352e+02
2.280000e-06	2.540408e-06	6.724872e-09	1.743665e+01	4.404086e+02
2.290000e-06	2.416373e-06	6.575157e-09	1.658531e+01	4.305256e+02
2.300000e-06	2.291324e-06	6.424409e-09	1.572701e+01	4.203823e+02
2.310000e-06	2.165461e-06	6.266383e-09	1.486312e+01	4.099729e+02
2.320000e-06	2.038902e-06	6.098130e-09	1.399445e+01	3.992889e+02
2.330000e-06	1.911604e-06	5.920636e-09	1.312072e+01	3.883200e+02
2.340000e-06	1.783626e-06	5.746070e-09	1.224231e+01	3.770545e+02
2.350000e-06	1.655032e-06	5.575812e-09	1.135968e+01	3.654807e+02
2.360000e-06	1.525891e-06	5.402743e-09	1.047329e+01	3.535876e+02
2.370000e-06	1.396269e-06	5.220055e-09	9.583600e+00	3.413654e+02
2.380000e-06	1.266282e-06	5.028014e-09	8.691407e+00	3.288052e+02
2.390000e-06	1.136019e-06	4.827136e-09	7.797316e+00	3.158986e+02
2.400000e-06	1.005415e-06	4.619676e-09	6.900889e+00	3.026365e+02
2.410000e-06	8.744614e-07	4.412068e-09	6.002060e+00	2.890083e+02
2.420000e-06	7.432140e-07	4.200359e-09	5.101214e+00	2.750015e+02
2.430000e-06	6.117594e-07	3.978844e-09	4.198946e+00	2.606013e+02
2.440000e-06	4.800948e-07	3.748782e-09	3.295237e+00	2.457907e+02
2.450000e-06	3.482395e-07	3.515259e-09	2.390219e+00	2.305515e+02
2.460000e-06	2.162462e-07	3.279686e-09	1.484254e+00	2.148640e+02
2.470000e-06	8.412661e-08	3.037912e-09	5.774216e-01	1.987076e+02
2.480000e-06	-4.806307e-08	2.786318e-09	-3.298916e-01	1.820600e+02
2.490000e-06	-1.802813e-07	2.525579e-09	-1.237401e+00	1.648960e+02
2.500000e-06	-3.124495e-07	2.252766e-09	-2.144566e+00	1.471865e+02
2.510000e-06	-4.444993e-07	1.969121e-09	-3.050919e+00	1.288977e+02
2.520000e-06	-5.764372e-07	1.679437e-09	-3.956505e+00	1.099904e+02
2.530000e-06	-7.081684e-07	1.380310e-09	-4.860670e+00	9.042237e+01
2.540000e-06	-8.396228e-07	1.070572e-09	-5.762937e+00	7.015169e+01
2.550000e-06	-9.707810e-07	7.528914e-10	-6.663170e+00	4.914256e+01
2.560000e-06	-1.101537e-06	4.250325e-10	-7.560641e+00	2.737285e+01
2.570000e-06	-1.231919e-06	8.541072e-11	-8.455550e+00	4.842510e+00
2.580000e-06	-1.361973e-06	-2.661294e-10	-9.348206e+00	-1.841847e+01
2.590000e-06	-1.491601e-06	-6.299726e-10	-1.023793e+01	-4.234377e+01
2.600000e-06	-1.620752e-06	-1.005371e-09	-1.112439e+01	-6.682755e+01
2.610000e-06	-1.749320e-06	-1.387918e-09	-1.200684e+01	-9.172537e+01
2.620000e-06	-1.877197e-06	-1.772030e-09	-1.288456e+01	-1.168595e+02
2.630000e-06	-2.004351e-06	-2.154477e-09	-1.375731e+01	-1.420285e+02
2.640000e-06	-2.130712e-06	-2.534436e-09	-1.462461e+01	-1.670203e+02
2.650000e-06	-2.256323e-06	-2.911171e-09	-1.548677e+01	-1.916262e+02
2.660000e-06	-2.381040e-06	-3.278444e-09	-1.634279e+01	-2.156560e+02
2.670000e-06	-2.504745e-06	-3.633401e-09	-1.719187e+01	-2.389502e+02
2.680000e-06	-2.627491e-06	-3.975200e-09	-1.803437e+01	-2.613888e+02
2.690000e-06	-2.749297e-06	-4.303121e-09	-1.887041e+01	-2.828956e+02
2.700000e-06	-2.870090e-06	-4.616553e-09	-1.969950e+01	-3.034377e+02
2.710000e-06	-2.989783e-06	-4.915513e-09	-2.052103e+01	-3.230199e+02
2.720000e-06	-3.108396e-06	-5.202701e-09	-2.133516e+01	-3.416761e+02
2.730000e-06	-3.225776e-06	-5.479797e-09	-2.214083e+01	-3.594587e+02
2.740000e-06	-3.341827e-06	-5.744129e-09	-2.293737e+01	-3.764283e+02
2.750000e-06	-3.456556e-06	-5.992190e-09	-2.372484e+01	-3.926441e+02
2.760000e-06	-3.569919e-06	-6.225059e-09	-2.450293e+01	-4.081575e+02
2.770000e-06	-3.681836e-06	-6.447801e-09	-2.527110e+01	-4.230090e+02
2.780000e-06	-3.792280e-06	-6.661739e-09	-2.602915e+01	-4.372283e+02
2.790000e-06	-3.901399e-06	-6.868698e-09	-2.677811e+01	-4.508365e+02
2.800000e-06	-4.009321e-06	-7.069762e-09	-2.751886e+01	-4.638506e+02
2.810000e-06	-4.115985e-06	-7.265203e-09	-2.825097e+01	-4.762879e+02
2.820000e-06	-4.221244e-06	-7.451851e-09	-2.897344e+01	-4.881690e+02
2.830000e-06	-4.324931e-06	-7.627358e-09	-2.968512e+01	-4.995205e+02
2.840000e-06	-4.426957e-06	-7.793016e-09	-3.038540e+01	-5.103745e+02
2.850000e-06	-4.527319e-06	-7.949892e-09	-3.107426e+01	-5.207665e+02
2.860000e-06	-4.626064e-06	-8.100349e-09	-3.175202e+01	-5.307324e+02
2.870000e-06	-4.723264e-06	-8.244179e-09	-3.241917e+01	-5.403049e+02
2.880000e-06	-4.818858e-06	-8.382672e-09	-3.307530e+01	-5.495100e+02
2.890000e-06	-4.912671e-06	-8.517166e-09	-3.371921e+01	-5.583649e+02
2.900000e-06	-5.004686e-06	-8.646949e-09	-3.435077e+01	-5.668781e+02
2.910000e-06	-5.094929e-06	-8.770959e-09	-3.497017e+01	-5.750502e+02
2.920000e-06	-5.183352e-06	-8.889100e-09	-3.557708e+01	-5.828766e+02
2.930000e-06	-5.269791e-06	-9.002673e-09	-3.617038e+01	-5.903514e+02
2.940000e-06	-5.354214e-06	-9.111607e-09	-3.674983e+01	-5.974706e+02
