# Temperatura_=_73.61
# Concentracion g/m^3_=_15000.0
# C_Vs_to_Am_M_A/Vsm_=_65563218390.804596
# pendiente_HvsI_1/m_=_3716.3
# ordenada_HvsI_A/m_=_1297.0
# frecuencia_Hz_=_301964.06270821556

Tiempo_(s)	Campo_(V.s)	Magnetizacion_(V.s)	Campo_(kA/m)	Magnetizacion_(A/m)
0.000000e+00	-6.901313e-06	-1.227528e-08	-4.748353e+01	-8.038612e+02
1.000000e-08	-6.899130e-06	-1.228192e-08	-4.746851e+01	-8.036204e+02
2.000000e-08	-6.894621e-06	-1.227565e-08	-4.743749e+01	-8.032636e+02
3.000000e-08	-6.888002e-06	-1.226595e-08	-4.739195e+01	-8.027827e+02
4.000000e-08	-6.879091e-06	-1.225858e-08	-4.733064e+01	-8.021617e+02
5.000000e-08	-6.867685e-06	-1.224693e-08	-4.725216e+01	-8.013808e+02
6.000000e-08	-6.853796e-06	-1.223093e-08	-4.715659e+01	-8.004225e+02
7.000000e-08	-6.837506e-06	-1.219928e-08	-4.704451e+01	-7.992781e+02
8.000000e-08	-6.819027e-06	-1.218286e-08	-4.691737e+01	-7.979530e+02
9.000000e-08	-6.798289e-06	-1.226275e-08	-4.677469e+01	-7.964693e+02
1.000000e-07	-6.774853e-06	-1.223882e-08	-4.661344e+01	-7.948640e+02
1.100000e-07	-6.748573e-06	-1.213414e-08	-4.643262e+01	-7.931837e+02
1.200000e-07	-6.719728e-06	-1.210697e-08	-4.623416e+01	-7.914754e+02
1.300000e-07	-6.688756e-06	-1.206452e-08	-4.602106e+01	-7.897767e+02
1.400000e-07	-6.655824e-06	-1.191728e-08	-4.579448e+01	-7.881059e+02
1.500000e-07	-6.620942e-06	-1.200421e-08	-4.555447e+01	-7.864562e+02
1.600000e-07	-6.584035e-06	-1.209365e-08	-4.530055e+01	-7.847940e+02
1.700000e-07	-6.545070e-06	-1.184382e-08	-4.503245e+01	-7.830630e+02
1.800000e-07	-6.503915e-06	-1.195615e-08	-4.474929e+01	-7.811929e+02
1.900000e-07	-6.460238e-06	-1.191637e-08	-4.444878e+01	-7.791116e+02
2.000000e-07	-6.414187e-06	-1.176706e-08	-4.413193e+01	-7.767578e+02
2.100000e-07	-6.365707e-06	-1.186361e-08	-4.379836e+01	-7.740913e+02
2.200000e-07	-6.314535e-06	-1.174095e-08	-4.344629e+01	-7.710995e+02
2.300000e-07	-6.260828e-06	-1.168218e-08	-4.307676e+01	-7.677976e+02
2.400000e-07	-6.204641e-06	-1.162945e-08	-4.269017e+01	-7.642238e+02
2.500000e-07	-6.146033e-06	-1.155350e-08	-4.228693e+01	-7.604294e+02
2.600000e-07	-6.085210e-06	-1.155484e-08	-4.186844e+01	-7.564673e+02
2.700000e-07	-6.022190e-06	-1.149128e-08	-4.143485e+01	-7.523812e+02
2.800000e-07	-5.956875e-06	-1.140177e-08	-4.098546e+01	-7.481973e+02
2.900000e-07	-5.889287e-06	-1.130065e-08	-4.052043e+01	-7.439208e+02
3.000000e-07	-5.819568e-06	-1.127969e-08	-4.004073e+01	-7.395377e+02
3.100000e-07	-5.747711e-06	-1.121077e-08	-3.954633e+01	-7.350207e+02
3.200000e-07	-5.673626e-06	-1.111036e-08	-3.903660e+01	-7.303377e+02
3.300000e-07	-5.597227e-06	-1.109571e-08	-3.851095e+01	-7.254607e+02
3.400000e-07	-5.518585e-06	-1.097370e-08	-3.796986e+01	-7.203728e+02
3.500000e-07	-5.437797e-06	-1.087249e-08	-3.741401e+01	-7.150708e+02
3.600000e-07	-5.355014e-06	-1.081000e-08	-3.684443e+01	-7.095655e+02
3.700000e-07	-5.270503e-06	-1.074129e-08	-3.626297e+01	-7.038766e+02
3.800000e-07	-5.184258e-06	-1.064921e-08	-3.566957e+01	-6.980263e+02
3.900000e-07	-5.096147e-06	-1.053500e-08	-3.506334e+01	-6.920330e+02
4.000000e-07	-5.006227e-06	-1.045559e-08	-3.444465e+01	-6.859056e+02
4.100000e-07	-4.914556e-06	-1.036464e-08	-3.381392e+01	-6.796418e+02
4.200000e-07	-4.821226e-06	-1.027689e-08	-3.317178e+01	-6.732282e+02
4.300000e-07	-4.726255e-06	-1.016494e-08	-3.251834e+01	-6.666448e+02
4.400000e-07	-4.629526e-06	-1.005742e-08	-3.185282e+01	-6.598702e+02
4.500000e-07	-4.531109e-06	-9.950811e-09	-3.117567e+01	-6.528864e+02
4.600000e-07	-4.431047e-06	-9.831503e-09	-3.048721e+01	-6.456830e+02
4.700000e-07	-4.329460e-06	-9.731566e-09	-2.978825e+01	-6.382582e+02
4.800000e-07	-4.226409e-06	-9.623398e-09	-2.907923e+01	-6.306173e+02
4.900000e-07	-4.121751e-06	-9.498128e-09	-2.835914e+01	-6.227693e+02
5.000000e-07	-4.015555e-06	-9.362093e-09	-2.762847e+01	-6.147221e+02
5.100000e-07	-3.907917e-06	-9.238952e-09	-2.688788e+01	-6.064790e+02
5.200000e-07	-3.798850e-06	-9.117413e-09	-2.613747e+01	-5.980360e+02
5.300000e-07	-3.688471e-06	-8.988915e-09	-2.537801e+01	-5.893822e+02
5.400000e-07	-3.576764e-06	-8.851258e-09	-2.460943e+01	-5.805022e+02
5.500000e-07	-3.463559e-06	-8.706016e-09	-2.383054e+01	-5.713796e+02
5.600000e-07	-3.348866e-06	-8.562349e-09	-2.304141e+01	-5.620016e+02
5.700000e-07	-3.232746e-06	-8.412552e-09	-2.224246e+01	-5.523617e+02
5.800000e-07	-3.115378e-06	-8.263542e-09	-2.143493e+01	-5.424605e+02
5.900000e-07	-2.996941e-06	-8.109012e-09	-2.062004e+01	-5.323048e+02
6.000000e-07	-2.877369e-06	-7.950659e-09	-1.979734e+01	-5.219036e+02
6.100000e-07	-2.756655e-06	-7.787919e-09	-1.896678e+01	-5.112637e+02
6.200000e-07	-2.634928e-06	-7.625162e-09	-1.812925e+01	-5.003860e+02
6.300000e-07	-2.512207e-06	-7.455700e-09	-1.728489e+01	-4.892623e+02
6.400000e-07	-2.388500e-06	-7.276214e-09	-1.643374e+01	-4.778758e+02
6.500000e-07	-2.263911e-06	-7.094286e-09	-1.557652e+01	-4.662037e+02
6.600000e-07	-2.138574e-06	-6.909247e-09	-1.471416e+01	-4.542213e+02
6.700000e-07	-2.012623e-06	-6.724257e-09	-1.384757e+01	-4.419075e+02
6.800000e-07	-1.886123e-06	-6.534498e-09	-1.297721e+01	-4.292489e+02
6.900000e-07	-1.758907e-06	-6.340827e-09	-1.210192e+01	-4.162424e+02
7.000000e-07	-1.630925e-06	-6.137427e-09	-1.122135e+01	-4.028938e+02
7.100000e-07	-1.502332e-06	-5.925739e-09	-1.033659e+01	-3.892141e+02
7.200000e-07	-1.373197e-06	-5.711075e-09	-9.448090e+00	-3.752141e+02
7.300000e-07	-1.243642e-06	-5.491495e-09	-8.556704e+00	-3.608973e+02
7.400000e-07	-1.113815e-06	-5.268663e-09	-7.663450e+00	-3.462552e+02
7.500000e-07	-9.836450e-07	-5.040778e-09	-6.767834e+00	-3.312645e+02
7.600000e-07	-8.530621e-07	-4.810676e-09	-5.869376e+00	-3.158884e+02
7.700000e-07	-7.221526e-07	-4.571487e-09	-4.968671e+00	-3.000805e+02
7.800000e-07	-5.909788e-07	-4.322185e-09	-4.066148e+00	-2.837919e+02
7.900000e-07	-4.596193e-07	-4.066873e-09	-3.162347e+00	-2.669782e+02
8.000000e-07	-3.281242e-07	-3.804844e-09	-2.257613e+00	-2.496057e+02
8.100000e-07	-1.964545e-07	-3.532020e-09	-1.351678e+00	-2.316543e+02
8.200000e-07	-6.467524e-08	-3.247773e-09	-4.449890e-01	-2.131160e+02
8.300000e-07	6.713297e-08	-2.954788e-09	4.618991e-01	-1.939901e+02
8.400000e-07	1.990129e-07	-2.651919e-09	1.369281e+00	-1.742752e+02
8.500000e-07	3.308798e-07	-2.341585e-09	2.276573e+00	-1.539609e+02
8.600000e-07	4.626360e-07	-2.023623e-09	3.183103e+00	-1.330206e+02
8.700000e-07	5.942522e-07	-1.694543e-09	4.088670e+00	-1.114090e+02
8.800000e-07	7.256966e-07	-1.349254e-09	4.993055e+00	-8.906447e+01
8.900000e-07	8.569218e-07	-9.923373e-10	5.895932e+00	-6.591718e+01
9.000000e-07	9.878370e-07	-6.262603e-10	6.796676e+00	-4.190239e+01
9.100000e-07	1.118338e-06	-2.482540e-10	7.694569e+00	-1.697616e+01
9.200000e-07	1.248459e-06	1.433892e-10	8.589847e+00	8.868976e+00
9.300000e-07	1.378225e-06	5.507749e-10	9.482683e+00	3.559127e+01
9.400000e-07	1.507509e-06	9.718953e-10	1.037221e+01	6.309260e+01
9.500000e-07	1.636208e-06	1.403069e-09	1.125770e+01	9.121835e+01
9.600000e-07	1.764206e-06	1.836706e-09	1.213838e+01	1.197647e+02
9.700000e-07	1.891440e-06	2.272790e-09	1.301379e+01	1.484922e+02
9.800000e-07	2.017977e-06	2.711459e-09	1.388441e+01	1.771441e+02
9.900000e-07	2.143884e-06	3.147234e-09	1.475070e+01	2.054656e+02
1.000000e-06	2.269095e-06	3.570540e-09	1.561219e+01	2.332228e+02
1.010000e-06	2.393533e-06	3.974914e-09	1.646837e+01	2.602178e+02
1.020000e-06	2.517120e-06	4.364675e-09	1.731869e+01	2.862982e+02
1.030000e-06	2.639752e-06	4.743578e-09	1.816245e+01	3.113612e+02
1.040000e-06	2.761416e-06	5.111324e-09	1.899954e+01	3.353521e+02
1.050000e-06	2.881992e-06	5.462264e-09	1.982915e+01	3.582576e+02
1.060000e-06	3.001394e-06	5.793659e-09	2.065068e+01	3.800969e+02
1.070000e-06	3.119721e-06	6.110044e-09	2.146481e+01	4.009113e+02
1.080000e-06	3.237031e-06	6.413721e-09	2.227194e+01	4.207547e+02
1.090000e-06	3.353144e-06	6.703580e-09	2.307084e+01	4.396849e+02
1.100000e-06	3.467872e-06	6.978424e-09	2.386022e+01	4.577582e+02
1.110000e-06	3.581133e-06	7.239294e-09	2.463949e+01	4.750260e+02
1.120000e-06	3.692970e-06	7.485473e-09	2.540897e+01	4.915335e+02
1.130000e-06	3.803518e-06	7.720954e-09	2.616958e+01	5.073207e+02
1.140000e-06	3.912829e-06	7.949430e-09	2.692168e+01	5.224232e+02
1.150000e-06	4.020923e-06	8.172233e-09	2.766541e+01	5.368741e+02
1.160000e-06	4.127682e-06	8.386690e-09	2.839995e+01	5.507056e+02
1.170000e-06	4.232874e-06	8.589837e-09	2.912371e+01	5.639492e+02
1.180000e-06	4.336478e-06	8.783002e-09	2.983654e+01	5.766364e+02
1.190000e-06	4.438585e-06	8.966706e-09	3.053907e+01	5.887979e+02
1.200000e-06	4.539210e-06	9.141826e-09	3.123141e+01	6.004632e+02
1.210000e-06	4.638239e-06	9.308033e-09	3.191276e+01	6.116596e+02
1.220000e-06	4.735429e-06	9.467679e-09	3.258146e+01	6.224117e+02
1.230000e-06	4.830842e-06	9.622995e-09	3.323794e+01	6.327412e+02
1.240000e-06	4.924623e-06	9.774390e-09	3.388319e+01	6.426665e+02
1.250000e-06	5.016768e-06	9.922542e-09	3.451718e+01	6.522033e+02
1.260000e-06	5.107131e-06	1.006757e-08	3.513891e+01	6.613650e+02
1.270000e-06	5.195519e-06	1.020474e-08	3.574705e+01	6.701628e+02
1.280000e-06	5.281986e-06	1.033493e-08	3.634197e+01	6.786062e+02
1.290000e-06	5.366624e-06	1.046054e-08	3.692432e+01	6.867034e+02
1.300000e-06	5.449449e-06	1.058083e-08	3.749418e+01	6.944607e+02
1.310000e-06	5.530220e-06	1.069180e-08	3.804991e+01	7.018834e+02
1.320000e-06	5.608884e-06	1.079559e-08	3.859115e+01	7.089754e+02
1.330000e-06	5.685595e-06	1.089860e-08	3.911895e+01	7.157399e+02
1.340000e-06	5.760123e-06	1.099979e-08	3.963173e+01	7.221807e+02
1.350000e-06	5.832398e-06	1.109426e-08	4.012901e+01	7.283026e+02
1.360000e-06	5.902621e-06	1.118080e-08	4.061217e+01	7.341132e+02
1.370000e-06	5.970885e-06	1.126398e-08	4.108185e+01	7.396236e+02
1.380000e-06	6.036972e-06	1.134367e-08	4.153655e+01	7.448489e+02
1.390000e-06	6.100808e-06	1.141867e-08	4.197576e+01	7.498080e+02
1.400000e-06	6.162570e-06	1.148996e-08	4.240071e+01	7.545219e+02
1.410000e-06	6.222282e-06	1.155853e-08	4.281155e+01	7.590122e+02
1.420000e-06	6.279709e-06	1.162433e-08	4.320667e+01	7.632983e+02
1.430000e-06	6.334889e-06	1.168698e-08	4.358633e+01	7.673949e+02
1.440000e-06	6.387832e-06	1.174785e-08	4.395060e+01	7.713105e+02
1.450000e-06	6.438126e-06	1.180558e-08	4.429664e+01	7.750461e+02
1.460000e-06	6.485834e-06	1.185895e-08	4.462488e+01	7.785962e+02
1.470000e-06	6.531285e-06	1.190857e-08	4.493760e+01	7.819503e+02
1.480000e-06	6.574558e-06	1.195546e-08	4.523534e+01	7.850962e+02
1.490000e-06	6.615354e-06	1.199994e-08	4.551603e+01	7.880228e+02
1.500000e-06	6.653701e-06	1.204136e-08	4.577987e+01	7.907232e+02
1.510000e-06	6.689913e-06	1.207900e-08	4.602902e+01	7.931961e+02
1.520000e-06	6.723788e-06	1.211427e-08	4.626209e+01	7.954467e+02
1.530000e-06	6.755173e-06	1.214583e-08	4.647803e+01	7.974847e+02
1.540000e-06	6.784281e-06	1.217262e-08	4.667830e+01	7.993225e+02
1.550000e-06	6.811077e-06	1.219701e-08	4.686268e+01	8.009722e+02
1.560000e-06	6.835256e-06	1.221912e-08	4.702903e+01	8.024426e+02
1.570000e-06	6.856923e-06	1.223808e-08	4.717811e+01	8.037382e+02
1.580000e-06	6.876256e-06	1.225488e-08	4.731113e+01	8.048592e+02
1.590000e-06	6.893126e-06	1.226967e-08	4.742720e+01	8.058027e+02
1.600000e-06	6.907481e-06	1.228028e-08	4.752597e+01	8.065657e+02
1.610000e-06	6.919184e-06	1.228725e-08	4.760649e+01	8.071479e+02
1.620000e-06	6.928105e-06	1.229312e-08	4.766787e+01	8.075536e+02
1.630000e-06	6.934444e-06	1.229722e-08	4.771148e+01	8.077931e+02
1.640000e-06	6.938511e-06	1.229939e-08	4.773946e+01	8.078807e+02
1.650000e-06	6.940151e-06	1.230303e-08	4.775075e+01	8.078324e+02
1.660000e-06	6.939307e-06	1.230094e-08	4.774494e+01	8.076615e+02
1.670000e-06	6.936248e-06	1.228943e-08	4.772390e+01	8.073746e+02
1.680000e-06	6.930861e-06	1.228111e-08	4.768683e+01	8.069697e+02
1.690000e-06	6.923122e-06	1.226853e-08	4.763358e+01	8.064352e+02
1.700000e-06	6.913153e-06	1.225614e-08	4.756500e+01	8.057530e+02
1.710000e-06	6.900870e-06	1.224892e-08	4.748048e+01	8.049033e+02
1.720000e-06	6.886188e-06	1.225600e-08	4.737946e+01	8.038714e+02
1.730000e-06	6.869292e-06	1.224766e-08	4.726322e+01	8.026537e+02
1.740000e-06	6.850299e-06	1.210029e-08	4.713254e+01	8.012619e+02
1.750000e-06	6.828460e-06	1.207725e-08	4.698228e+01	7.997245e+02
1.760000e-06	6.803214e-06	1.213271e-08	4.680858e+01	7.980831e+02
1.770000e-06	6.775070e-06	1.207645e-08	4.661493e+01	7.963857e+02
1.780000e-06	6.744634e-06	1.212913e-08	4.640552e+01	7.946768e+02
1.790000e-06	6.712489e-06	1.221005e-08	4.618435e+01	7.929873e+02
1.800000e-06	6.679000e-06	1.195268e-08	4.595394e+01	7.913263e+02
1.810000e-06	6.643451e-06	1.201620e-08	4.570934e+01	7.896763e+02
1.820000e-06	6.605306e-06	1.207805e-08	4.544690e+01	7.879940e+02
1.830000e-06	6.564975e-06	1.189707e-08	4.516940e+01	7.862163e+02
1.840000e-06	6.522441e-06	1.210073e-08	4.487675e+01	7.842707e+02
1.850000e-06	6.477583e-06	1.191308e-08	4.456812e+01	7.820879e+02
1.860000e-06	6.430420e-06	1.185563e-08	4.424362e+01	7.796137e+02
1.870000e-06	6.380830e-06	1.194840e-08	4.390242e+01	7.768186e+02
1.880000e-06	6.328877e-06	1.174315e-08	4.354496e+01	7.737009e+02
1.890000e-06	6.274349e-06	1.185034e-08	4.316979e+01	7.702859e+02
1.900000e-06	6.217275e-06	1.171515e-08	4.277710e+01	7.666181e+02
1.910000e-06	6.157948e-06	1.160764e-08	4.236891e+01	7.627509e+02
1.920000e-06	6.096257e-06	1.162701e-08	4.194445e+01	7.587350e+02
1.930000e-06	6.032264e-06	1.147467e-08	4.150416e+01	7.546077e+02
1.940000e-06	5.966097e-06	1.153248e-08	4.104890e+01	7.503871e+02
1.950000e-06	5.897743e-06	1.138828e-08	4.057860e+01	7.460705e+02
1.960000e-06	5.827096e-06	1.135737e-08	4.009253e+01	7.416377e+02
1.970000e-06	5.754133e-06	1.125390e-08	3.959051e+01	7.370584e+02
1.980000e-06	5.678970e-06	1.111792e-08	3.907337e+01	7.323013e+02
1.990000e-06	5.601534e-06	1.116016e-08	3.854058e+01	7.273419e+02
2.000000e-06	5.521911e-06	1.102397e-08	3.799274e+01	7.221686e+02
2.010000e-06	5.440375e-06	1.097952e-08	3.743175e+01	7.167841e+02
2.020000e-06	5.357072e-06	1.085679e-08	3.685859e+01	7.112031e+02
2.030000e-06	5.271841e-06	1.076945e-08	3.627217e+01	7.054474e+02
2.040000e-06	5.184550e-06	1.068204e-08	3.567158e+01	6.995383e+02
2.050000e-06	5.095432e-06	1.058014e-08	3.505841e+01	6.934911e+02
2.060000e-06	5.004673e-06	1.052583e-08	3.443396e+01	6.873103e+02
2.070000e-06	4.912255e-06	1.039226e-08	3.379809e+01	6.809888e+02
2.080000e-06	4.818076e-06	1.030454e-08	3.315010e+01	6.745103e+02
2.090000e-06	4.722151e-06	1.018446e-08	3.249011e+01	6.678535e+02
2.100000e-06	4.624631e-06	1.011387e-08	3.181913e+01	6.609977e+02
2.110000e-06	4.525551e-06	1.000153e-08	3.113743e+01	6.539275e+02
2.120000e-06	4.424854e-06	9.871395e-09	3.044459e+01	6.466361e+02
2.130000e-06	4.322540e-06	9.754238e-09	2.974064e+01	6.391247e+02
2.140000e-06	4.218622e-06	9.637735e-09	2.902565e+01	6.314005e+02
2.150000e-06	4.113136e-06	9.532656e-09	2.829987e+01	6.234727e+02
2.160000e-06	4.006269e-06	9.408922e-09	2.756458e+01	6.153477e+02
2.170000e-06	3.898028e-06	9.294029e-09	2.681984e+01	6.070261e+02
2.180000e-06	3.788405e-06	9.147187e-09	2.606560e+01	5.985012e+02
2.190000e-06	3.677388e-06	9.009523e-09	2.530176e+01	5.897597e+02
2.200000e-06	3.564899e-06	8.869238e-09	2.452780e+01	5.807854e+02
2.210000e-06	3.451033e-06	8.745651e-09	2.374436e+01	5.715629e+02
2.220000e-06	3.335784e-06	8.601104e-09	2.295140e+01	5.620815e+02
2.230000e-06	3.219127e-06	8.443320e-09	2.214876e+01	5.523377e+02
2.240000e-06	3.101146e-06	8.283153e-09	2.133700e+01	5.423347e+02
2.250000e-06	2.981918e-06	8.131108e-09	2.051667e+01	5.320806e+02
2.260000e-06	2.861450e-06	7.982418e-09	1.968781e+01	5.215843e+02
2.270000e-06	2.739986e-06	7.820591e-09	1.885210e+01	5.108505e+02
2.280000e-06	2.617710e-06	7.655891e-09	1.801079e+01	4.998768e+02
2.290000e-06	2.494510e-06	7.478351e-09	1.716313e+01	4.886515e+02
2.300000e-06	2.370321e-06	7.300517e-09	1.630867e+01	4.771550e+02
2.310000e-06	2.245250e-06	7.119570e-09	1.544813e+01	4.653630e+02
2.320000e-06	2.119498e-06	6.941200e-09	1.458291e+01	4.532517e+02
2.330000e-06	1.993104e-06	6.747502e-09	1.371327e+01	4.408027e+02
2.340000e-06	1.865988e-06	6.545622e-09	1.283867e+01	4.280065e+02
2.350000e-06	1.738170e-06	6.343150e-09	1.195924e+01	4.148637e+02
2.360000e-06	1.609747e-06	6.144173e-09	1.107564e+01	4.013827e+02
2.370000e-06	1.480765e-06	5.942680e-09	1.018820e+01	3.875754e+02
2.380000e-06	1.351296e-06	5.728386e-09	9.297409e+00	3.734502e+02
2.390000e-06	1.221500e-06	5.506261e-09	8.404362e+00	3.590066e+02
2.400000e-06	1.091374e-06	5.275045e-09	7.509044e+00	3.442304e+02
2.410000e-06	9.609477e-07	5.040262e-09	6.611668e+00	3.290925e+02
2.420000e-06	8.302897e-07	4.802425e-09	5.712693e+00	3.135518e+02
2.430000e-06	6.993338e-07	4.557632e-09	4.811670e+00	2.975600e+02
2.440000e-06	5.680926e-07	4.303552e-09	3.908683e+00	2.810691e+02
2.450000e-06	4.366379e-07	4.040394e-09	3.004226e+00	2.640383e+02
2.460000e-06	3.049854e-07	3.771898e-09	2.098410e+00	2.464393e+02
2.470000e-06	1.731436e-07	3.498014e-09	1.191291e+00	2.282569e+02
2.480000e-06	4.118729e-08	3.217193e-09	2.833834e-01	2.094868e+02
2.490000e-06	-9.082745e-08	2.926247e-09	-6.249257e-01	1.901292e+02
2.500000e-06	-2.227663e-07	2.620618e-09	-1.532712e+00	1.701800e+02
2.510000e-06	-3.545568e-07	2.303004e-09	-2.439479e+00	1.496232e+02
2.520000e-06	-4.862041e-07	1.977674e-09	-3.345260e+00	1.284248e+02
2.530000e-06	-6.176930e-07	1.643441e-09	-4.249951e+00	1.065325e+02
2.540000e-06	-7.490284e-07	1.297600e-09	-5.153587e+00	8.388015e+01
2.550000e-06	-8.800969e-07	9.399897e-10	-6.055385e+00	6.039818e+01
2.560000e-06	-1.010821e-06	5.713497e-10	-6.954816e+00	3.602807e+01
2.570000e-06	-1.141144e-06	1.890259e-10	-7.851482e+00	1.073842e+01
2.580000e-06	-1.271068e-06	-2.070110e-10	-8.745407e+00	-1.546013e+01
2.590000e-06	-1.400647e-06	-6.166098e-10	-9.636955e+00	-4.250420e+01
2.600000e-06	-1.529868e-06	-1.040474e-09	-1.052605e+01	-7.027305e+01
2.610000e-06	-1.658621e-06	-1.476882e-09	-1.141191e+01	-9.859148e+01
2.620000e-06	-1.786732e-06	-1.920386e-09	-1.229337e+01	-1.272398e+02
2.630000e-06	-1.914078e-06	-2.361898e-09	-1.316955e+01	-1.559693e+02
2.640000e-06	-2.040595e-06	-2.797650e-09	-1.404003e+01	-1.845218e+02
2.650000e-06	-2.166407e-06	-3.226466e-09	-1.490566e+01	-2.126486e+02
2.660000e-06	-2.291485e-06	-3.646538e-09	-1.576625e+01	-2.401285e+02
2.670000e-06	-2.415626e-06	-4.053394e-09	-1.662038e+01	-2.667804e+02
2.680000e-06	-2.538721e-06	-4.444388e-09	-1.746732e+01	-2.924715e+02
2.690000e-06	-2.660823e-06	-4.820351e-09	-1.830743e+01	-3.171182e+02
2.700000e-06	-2.782003e-06	-5.182034e-09	-1.914119e+01	-3.406830e+02
2.710000e-06	-2.902147e-06	-5.529127e-09	-1.996782e+01	-3.631667e+02
2.720000e-06	-3.021149e-06	-5.859920e-09	-2.078660e+01	-3.845984e+02
2.730000e-06	-3.139007e-06	-6.173558e-09	-2.159750e+01	-4.050253e+02
2.740000e-06	-3.255609e-06	-6.470468e-09	-2.239977e+01	-4.245039e+02
2.750000e-06	-3.370792e-06	-6.752755e-09	-2.319227e+01	-4.430918e+02
2.760000e-06	-3.484664e-06	-7.022773e-09	-2.397575e+01	-4.608436e+02
2.770000e-06	-3.597238e-06	-7.282231e-09	-2.475030e+01	-4.778084e+02
2.780000e-06	-3.708362e-06	-7.531474e-09	-2.551487e+01	-4.940293e+02
2.790000e-06	-3.818080e-06	-7.768846e-09	-2.626977e+01	-5.095442e+02
2.800000e-06	-3.926551e-06	-7.994406e-09	-2.701609e+01	-5.243877e+02
2.810000e-06	-4.033811e-06	-8.210287e-09	-2.775408e+01	-5.385923e+02
2.820000e-06	-4.139764e-06	-8.419929e-09	-2.848307e+01	-5.521899e+02
2.830000e-06	-4.244266e-06	-8.622926e-09	-2.920209e+01	-5.652120e+02
2.840000e-06	-4.347113e-06	-8.816502e-09	-2.990971e+01	-5.776898e+02
2.850000e-06	-4.448215e-06	-9.001353e-09	-3.060533e+01	-5.896538e+02
2.860000e-06	-4.547661e-06	-9.177821e-09	-3.128955e+01	-6.011326e+02
2.870000e-06	-4.645626e-06	-9.346925e-09	-3.196359e+01	-6.121525e+02
2.880000e-06	-4.742120e-06	-9.508704e-09	-3.262750e+01	-6.227370e+02
2.890000e-06	-4.836943e-06	-9.663768e-09	-3.327992e+01	-6.329065e+02
2.900000e-06	-4.929907e-06	-9.812539e-09	-3.391954e+01	-6.426782e+02
2.910000e-06	-5.021123e-06	-9.954593e-09	-3.454714e+01	-6.520670e+02
2.920000e-06	-5.110625e-06	-1.009164e-08	-3.516295e+01	-6.610853e+02
2.930000e-06	-5.198285e-06	-1.022346e-08	-3.576608e+01	-6.697436e+02
2.940000e-06	-5.283935e-06	-1.034962e-08	-3.635539e+01	-6.780510e+02
