# Temperatura_=_38.17
# Concentracion g/m^3_=_15000.0
# C_Vs_to_Am_M_A/Vsm_=_65563218390.804596
# pendiente_HvsI_1/m_=_3716.3
# ordenada_HvsI_A/m_=_1297.0
# frecuencia_Hz_=_301962.0791052174

Tiempo_(s)	Campo_(V.s)	Magnetizacion_(V.s)	Campo_(kA/m)	Magnetizacion_(A/m)
0.000000e+00	-6.877891e-06	-1.012794e-08	-4.748620e+01	-6.631247e+02
1.000000e-08	-6.876094e-06	-1.012951e-08	-4.747379e+01	-6.629706e+02
2.000000e-08	-6.872006e-06	-1.012738e-08	-4.744557e+01	-6.627256e+02
3.000000e-08	-6.865743e-06	-1.012176e-08	-4.740232e+01	-6.623890e+02
4.000000e-08	-6.857247e-06	-1.011528e-08	-4.734367e+01	-6.619531e+02
5.000000e-08	-6.846348e-06	-1.010551e-08	-4.726842e+01	-6.614058e+02
6.000000e-08	-6.832944e-06	-1.009452e-08	-4.717587e+01	-6.607346e+02
7.000000e-08	-6.817134e-06	-1.007814e-08	-4.706672e+01	-6.599320e+02
8.000000e-08	-6.799000e-06	-1.006813e-08	-4.694152e+01	-6.589999e+02
9.000000e-08	-6.778625e-06	-1.009862e-08	-4.680084e+01	-6.579520e+02
1.000000e-07	-6.755777e-06	-1.009916e-08	-4.664310e+01	-6.568137e+02
1.100000e-07	-6.730079e-06	-1.004472e-08	-4.646568e+01	-6.556182e+02
1.200000e-07	-6.701734e-06	-1.000751e-08	-4.626998e+01	-6.544000e+02
1.300000e-07	-6.671191e-06	-9.974642e-09	-4.605910e+01	-6.531869e+02
1.400000e-07	-6.638613e-06	-9.902244e-09	-4.583418e+01	-6.519930e+02
1.500000e-07	-6.604142e-06	-9.915702e-09	-4.559619e+01	-6.508131e+02
1.600000e-07	-6.567799e-06	-9.964908e-09	-4.534527e+01	-6.496219e+02
1.700000e-07	-6.529401e-06	-9.862616e-09	-4.508016e+01	-6.483767e+02
1.800000e-07	-6.488821e-06	-9.878379e-09	-4.479999e+01	-6.470242e+02
1.900000e-07	-6.445734e-06	-9.879801e-09	-4.450251e+01	-6.455101e+02
2.000000e-07	-6.400155e-06	-9.797912e-09	-4.418782e+01	-6.437885e+02
2.100000e-07	-6.352274e-06	-9.825323e-09	-4.385724e+01	-6.418304e+02
2.200000e-07	-6.301746e-06	-9.763833e-09	-4.350839e+01	-6.396277e+02
2.300000e-07	-6.248542e-06	-9.692664e-09	-4.314106e+01	-6.371938e+02
2.400000e-07	-6.192929e-06	-9.662212e-09	-4.275710e+01	-6.345592e+02
2.500000e-07	-6.134950e-06	-9.619876e-09	-4.235680e+01	-6.317638e+02
2.600000e-07	-6.074693e-06	-9.603934e-09	-4.194077e+01	-6.288479e+02
2.700000e-07	-6.012277e-06	-9.559253e-09	-4.150984e+01	-6.258440e+02
2.800000e-07	-5.947656e-06	-9.492146e-09	-4.106368e+01	-6.227706e+02
2.900000e-07	-5.880766e-06	-9.428438e-09	-4.060187e+01	-6.196300e+02
3.000000e-07	-5.811683e-06	-9.398141e-09	-4.012490e+01	-6.164100e+02
3.100000e-07	-5.740428e-06	-9.366123e-09	-3.963295e+01	-6.130883e+02
3.200000e-07	-5.666920e-06	-9.298133e-09	-3.912543e+01	-6.096397e+02
3.300000e-07	-5.591166e-06	-9.252551e-09	-3.860242e+01	-6.060419e+02
3.400000e-07	-5.513202e-06	-9.176226e-09	-3.806414e+01	-6.022812e+02
3.500000e-07	-5.433061e-06	-9.107802e-09	-3.751083e+01	-5.983541e+02
3.600000e-07	-5.350887e-06	-9.065720e-09	-3.694348e+01	-5.942672e+02
3.700000e-07	-5.266906e-06	-9.005820e-09	-3.636367e+01	-5.900332e+02
3.800000e-07	-5.181251e-06	-8.934329e-09	-3.577229e+01	-5.856668e+02
3.900000e-07	-5.093831e-06	-8.854515e-09	-3.516872e+01	-5.811798e+02
4.000000e-07	-5.004602e-06	-8.791838e-09	-3.455267e+01	-5.765770e+02
4.100000e-07	-4.913530e-06	-8.728032e-09	-3.392389e+01	-5.718555e+02
4.200000e-07	-4.820767e-06	-8.658862e-09	-3.328344e+01	-5.670050e+02
4.300000e-07	-4.726448e-06	-8.573942e-09	-3.263225e+01	-5.620105e+02
4.400000e-07	-4.630389e-06	-8.484982e-09	-3.196904e+01	-5.568563e+02
4.500000e-07	-4.532576e-06	-8.404824e-09	-3.129372e+01	-5.515294e+02
4.600000e-07	-4.433058e-06	-8.320077e-09	-3.060663e+01	-5.460221e+02
4.700000e-07	-4.332028e-06	-8.239648e-09	-2.990910e+01	-5.403329e+02
4.800000e-07	-4.229628e-06	-8.150806e-09	-2.920211e+01	-5.344655e+02
4.900000e-07	-4.125729e-06	-8.052466e-09	-2.848478e+01	-5.284262e+02
5.000000e-07	-4.020279e-06	-7.954456e-09	-2.775673e+01	-5.222215e+02
5.100000e-07	-3.913277e-06	-7.862862e-09	-2.701797e+01	-5.158549e+02
5.200000e-07	-3.804781e-06	-7.769712e-09	-2.626889e+01	-5.093253e+02
5.300000e-07	-3.694999e-06	-7.665774e-09	-2.551094e+01	-5.026268e+02
5.400000e-07	-3.584006e-06	-7.553166e-09	-2.474462e+01	-4.957497e+02
5.500000e-07	-3.471595e-06	-7.438693e-09	-2.396852e+01	-4.886825e+02
5.600000e-07	-3.357647e-06	-7.330146e-09	-2.318180e+01	-4.814140e+02
5.700000e-07	-3.242185e-06	-7.220850e-09	-2.238463e+01	-4.739353e+02
5.800000e-07	-3.125390e-06	-7.105627e-09	-2.157825e+01	-4.662408e+02
5.900000e-07	-3.007456e-06	-6.980400e-09	-2.076402e+01	-4.583277e+02
6.000000e-07	-2.888476e-06	-6.853983e-09	-1.994256e+01	-4.501950e+02
6.100000e-07	-2.768413e-06	-6.729342e-09	-1.911362e+01	-4.418414e+02
6.200000e-07	-2.647290e-06	-6.603693e-09	-1.827737e+01	-4.332638e+02
6.300000e-07	-2.525241e-06	-6.469102e-09	-1.743472e+01	-4.244560e+02
6.400000e-07	-2.402159e-06	-6.324210e-09	-1.658494e+01	-4.154081e+02
6.500000e-07	-2.278080e-06	-6.179134e-09	-1.572827e+01	-4.061077e+02
6.600000e-07	-2.153277e-06	-6.033932e-09	-1.486661e+01	-3.965411e+02
6.700000e-07	-2.027860e-06	-5.886281e-09	-1.400071e+01	-3.866951e+02
6.800000e-07	-1.901800e-06	-5.734376e-09	-1.313037e+01	-3.765584e+02
6.900000e-07	-1.775095e-06	-5.576332e-09	-1.225558e+01	-3.661228e+02
7.000000e-07	-1.647713e-06	-5.410204e-09	-1.137611e+01	-3.553828e+02
7.100000e-07	-1.519670e-06	-5.238610e-09	-1.049207e+01	-3.443345e+02
7.200000e-07	-1.391101e-06	-5.066934e-09	-9.604410e+00	-3.329743e+02
7.300000e-07	-1.262143e-06	-4.891175e-09	-8.714060e+00	-3.212970e+02
7.400000e-07	-1.132775e-06	-4.706437e-09	-7.820881e+00	-3.092941e+02
7.500000e-07	-1.003038e-06	-4.516869e-09	-6.925153e+00	-2.969533e+02
7.600000e-07	-8.730003e-07	-4.326734e-09	-6.027351e+00	-2.842590e+02
7.700000e-07	-7.426706e-07	-4.133342e-09	-5.127532e+00	-2.711929e+02
7.800000e-07	-6.120584e-07	-3.929601e-09	-4.225761e+00	-2.577360e+02
7.900000e-07	-4.811934e-07	-3.715672e-09	-3.322246e+00	-2.438701e+02
8.000000e-07	-3.501714e-07	-3.494545e-09	-2.417646e+00	-2.295791e+02
8.100000e-07	-2.189766e-07	-3.266892e-09	-1.511854e+00	-2.148496e+02
8.200000e-07	-8.757629e-08	-3.036159e-09	-6.046424e-01	-1.996703e+02
8.300000e-07	4.390799e-08	-2.801189e-09	3.031487e-01	-1.840304e+02
8.400000e-07	1.753683e-07	-2.557583e-09	1.210774e+00	-1.679172e+02
8.500000e-07	3.067911e-07	-2.306775e-09	2.118141e+00	-1.513138e+02
8.600000e-07	4.380969e-07	-2.050108e-09	3.024700e+00	-1.341970e+02
8.700000e-07	5.692702e-07	-1.785059e-09	3.930344e+00	-1.165362e+02
8.800000e-07	7.002941e-07	-1.504499e-09	4.834956e+00	-9.829427e+01
8.900000e-07	8.310801e-07	-1.211833e-09	5.737927e+00	-7.942994e+01
9.000000e-07	9.615041e-07	-9.118337e-10	6.638397e+00	-5.990243e+01
9.100000e-07	1.091552e-06	-6.032915e-10	7.536269e+00	-3.967796e+01
9.200000e-07	1.221233e-06	-2.858037e-10	8.431611e+00	-1.873744e+01
9.300000e-07	1.350501e-06	4.317212e-11	9.324104e+00	2.915469e+00
9.400000e-07	1.479338e-06	3.842026e-10	1.021362e+01	2.524692e+01
9.500000e-07	1.607682e-06	7.356534e-10	1.109973e+01	4.818746e+01
9.600000e-07	1.735374e-06	1.093532e-09	1.198134e+01	7.162956e+01
9.700000e-07	1.862357e-06	1.456907e-09	1.285804e+01	9.542902e+01
9.800000e-07	1.988704e-06	1.824780e-09	1.373037e+01	1.194107e+02
9.900000e-07	2.114338e-06	2.193531e-09	1.459777e+01	1.433783e+02
1.000000e-06	2.239260e-06	2.557282e-09	1.546025e+01	1.671272e+02
1.010000e-06	2.363468e-06	2.911039e-09	1.631781e+01	1.904593e+02
1.020000e-06	2.486846e-06	3.254798e-09	1.716963e+01	2.131972e+02
1.030000e-06	2.609243e-06	3.587846e-09	1.801468e+01	2.351970e+02
1.040000e-06	2.730548e-06	3.911008e-09	1.885220e+01	2.563560e+02
1.050000e-06	2.850803e-06	4.222931e-09	1.968245e+01	2.766165e+02
1.060000e-06	2.970031e-06	4.519265e-09	2.050563e+01	2.959630e+02
1.070000e-06	3.088211e-06	4.800625e-09	2.132156e+01	3.144153e+02
1.080000e-06	3.205292e-06	5.069478e-09	2.212991e+01	3.320176e+02
1.090000e-06	3.321170e-06	5.324002e-09	2.292995e+01	3.488259e+02
1.100000e-06	3.435649e-06	5.566732e-09	2.372034e+01	3.648972e+02
1.110000e-06	3.548663e-06	5.799128e-09	2.450061e+01	3.802803e+02
1.120000e-06	3.660365e-06	6.020951e-09	2.527182e+01	3.950111e+02
1.130000e-06	3.770844e-06	6.232432e-09	2.603459e+01	4.091120e+02
1.140000e-06	3.880159e-06	6.435527e-09	2.678932e+01	4.225960e+02
1.150000e-06	3.988233e-06	6.631860e-09	2.753548e+01	4.354718e+02
1.160000e-06	4.094870e-06	6.819692e-09	2.827172e+01	4.477510e+02
1.170000e-06	4.199981e-06	6.999431e-09	2.899742e+01	4.594523e+02
1.180000e-06	4.303513e-06	7.170145e-09	2.971223e+01	4.706051e+02
1.190000e-06	4.405478e-06	7.333155e-09	3.041621e+01	4.812478e+02
1.200000e-06	4.506004e-06	7.488230e-09	3.111026e+01	4.914243e+02
1.210000e-06	4.604984e-06	7.635576e-09	3.179364e+01	5.011786e+02
1.220000e-06	4.702175e-06	7.777276e-09	3.246466e+01	5.105479e+02
1.230000e-06	4.797544e-06	7.913864e-09	3.312311e+01	5.195584e+02
1.240000e-06	4.891228e-06	8.047373e-09	3.376992e+01	5.282223e+02
1.250000e-06	4.983338e-06	8.179068e-09	3.440586e+01	5.365389e+02
1.260000e-06	5.073668e-06	8.306367e-09	3.502952e+01	5.444984e+02
1.270000e-06	5.162052e-06	8.424923e-09	3.563974e+01	5.520873e+02
1.280000e-06	5.248582e-06	8.532315e-09	3.623715e+01	5.592949e+02
1.290000e-06	5.333320e-06	8.633115e-09	3.682220e+01	5.661185e+02
1.300000e-06	5.416173e-06	8.730831e-09	3.739423e+01	5.725668e+02
1.310000e-06	5.497029e-06	8.821801e-09	3.795248e+01	5.786601e+02
1.320000e-06	5.575924e-06	8.906228e-09	3.849718e+01	5.844276e+02
1.330000e-06	5.652830e-06	8.989649e-09	3.902815e+01	5.899036e+02
1.340000e-06	5.727559e-06	9.073909e-09	3.954410e+01	5.951220e+02
1.350000e-06	5.800073e-06	9.152288e-09	4.004475e+01	6.001117e+02
1.360000e-06	5.870471e-06	9.224239e-09	4.053079e+01	6.048940e+02
1.370000e-06	5.938805e-06	9.291859e-09	4.100258e+01	6.094816e+02
1.380000e-06	6.004991e-06	9.355234e-09	4.145954e+01	6.138795e+02
1.390000e-06	6.068957e-06	9.416892e-09	4.190117e+01	6.180885e+02
1.400000e-06	6.130859e-06	9.476338e-09	4.232855e+01	6.221075e+02
1.410000e-06	6.190740e-06	9.535500e-09	4.274198e+01	6.259365e+02
1.420000e-06	6.248422e-06	9.593304e-09	4.314023e+01	6.295780e+02
1.430000e-06	6.303822e-06	9.647260e-09	4.352272e+01	6.330366e+02
1.440000e-06	6.356928e-06	9.699154e-09	4.388937e+01	6.363178e+02
1.450000e-06	6.407439e-06	9.748235e-09	4.423811e+01	6.394259e+02
1.460000e-06	6.455333e-06	9.792898e-09	4.456878e+01	6.423624e+02
1.470000e-06	6.500970e-06	9.833953e-09	4.488386e+01	6.451249e+02
1.480000e-06	6.544461e-06	9.871577e-09	4.518414e+01	6.477078e+02
1.490000e-06	6.585565e-06	9.905721e-09	4.546792e+01	6.501042e+02
1.500000e-06	6.624227e-06	9.938292e-09	4.573485e+01	6.523081e+02
1.510000e-06	6.660675e-06	9.968289e-09	4.598650e+01	6.543173e+02
1.520000e-06	6.694833e-06	9.995305e-09	4.622233e+01	6.561349e+02
1.530000e-06	6.726556e-06	1.001959e-08	4.644135e+01	6.577695e+02
1.540000e-06	6.755986e-06	1.004118e-08	4.664454e+01	6.592342e+02
1.550000e-06	6.783151e-06	1.006182e-08	4.683210e+01	6.605436e+02
1.560000e-06	6.807715e-06	1.008015e-08	4.700169e+01	6.617114e+02
1.570000e-06	6.829716e-06	1.009405e-08	4.715359e+01	6.627475e+02
1.580000e-06	6.849406e-06	1.010516e-08	4.728953e+01	6.636565e+02
1.590000e-06	6.866651e-06	1.011542e-08	4.740860e+01	6.644382e+02
1.600000e-06	6.881416e-06	1.012390e-08	4.751053e+01	6.650891e+02
1.610000e-06	6.893596e-06	1.013154e-08	4.759463e+01	6.656051e+02
1.620000e-06	6.902955e-06	1.013775e-08	4.765924e+01	6.659847e+02
1.630000e-06	6.909715e-06	1.014207e-08	4.770591e+01	6.662308e+02
1.640000e-06	6.914179e-06	1.014474e-08	4.773673e+01	6.663512e+02
1.650000e-06	6.916209e-06	1.014791e-08	4.775075e+01	6.663569e+02
1.660000e-06	6.915759e-06	1.014947e-08	4.774764e+01	6.662599e+02
1.670000e-06	6.913063e-06	1.014309e-08	4.772903e+01	6.660692e+02
1.680000e-06	6.908131e-06	1.013495e-08	4.769498e+01	6.657883e+02
1.690000e-06	6.900841e-06	1.012457e-08	4.764465e+01	6.654135e+02
1.700000e-06	6.891297e-06	1.011487e-08	4.757876e+01	6.649349e+02
1.710000e-06	6.879493e-06	1.010739e-08	4.749726e+01	6.643398e+02
1.720000e-06	6.865245e-06	1.010313e-08	4.739888e+01	6.636170e+02
1.730000e-06	6.848722e-06	1.009354e-08	4.728481e+01	6.627622e+02
1.740000e-06	6.830149e-06	1.002894e-08	4.715658e+01	6.617818e+02
1.750000e-06	6.808952e-06	9.994646e-09	4.701023e+01	6.606943e+02
1.760000e-06	6.784433e-06	1.001571e-08	4.684095e+01	6.595289e+02
1.770000e-06	6.756942e-06	1.000257e-08	4.665114e+01	6.583201e+02
1.780000e-06	6.727084e-06	1.001654e-08	4.644499e+01	6.571007e+02
1.790000e-06	6.695375e-06	1.005107e-08	4.622608e+01	6.558940e+02
1.800000e-06	6.662289e-06	9.946415e-09	4.599764e+01	6.547069e+02
1.810000e-06	6.627312e-06	9.935772e-09	4.575615e+01	6.535262e+02
1.820000e-06	6.589664e-06	9.969340e-09	4.549622e+01	6.523192e+02
1.830000e-06	6.549694e-06	9.890436e-09	4.522026e+01	6.510380e+02
1.840000e-06	6.507625e-06	9.945174e-09	4.492981e+01	6.496278e+02
1.850000e-06	6.463334e-06	9.882795e-09	4.462402e+01	6.480364e+02
1.860000e-06	6.416821e-06	9.815116e-09	4.430289e+01	6.462237e+02
1.870000e-06	6.367826e-06	9.864664e-09	4.396461e+01	6.441688e+02
1.880000e-06	6.316533e-06	9.784377e-09	4.361048e+01	6.418721e+02
1.890000e-06	6.262664e-06	9.787394e-09	4.323856e+01	6.393546e+02
1.900000e-06	6.206065e-06	9.728542e-09	4.284779e+01	6.366513e+02
1.910000e-06	6.147235e-06	9.635982e-09	4.244162e+01	6.338036e+02
1.920000e-06	6.086088e-06	9.637498e-09	4.201944e+01	6.308495e+02
1.930000e-06	6.022666e-06	9.559180e-09	4.158157e+01	6.278165e+02
1.940000e-06	5.957072e-06	9.562818e-09	4.112869e+01	6.247168e+02
1.950000e-06	5.889358e-06	9.503631e-09	4.066119e+01	6.215467e+02
1.960000e-06	5.819469e-06	9.430697e-09	4.017866e+01	6.182893e+02
1.970000e-06	5.747143e-06	9.385007e-09	3.967931e+01	6.149202e+02
1.980000e-06	5.672645e-06	9.297294e-09	3.916496e+01	6.114148e+02
1.990000e-06	5.595910e-06	9.294401e-09	3.863517e+01	6.077537e+02
2.000000e-06	5.516868e-06	9.221598e-09	3.808945e+01	6.039269e+02
2.010000e-06	5.435888e-06	9.154651e-09	3.753035e+01	5.999354e+02
2.020000e-06	5.353175e-06	9.092178e-09	3.695928e+01	5.957884e+02
2.030000e-06	5.268654e-06	9.013920e-09	3.637574e+01	5.915003e+02
2.040000e-06	5.182042e-06	8.961716e-09	3.577775e+01	5.870850e+02
2.050000e-06	5.093493e-06	8.887898e-09	3.516639e+01	5.825519e+02
2.060000e-06	5.003305e-06	8.828301e-09	3.454372e+01	5.779028e+02
2.070000e-06	4.911557e-06	8.739973e-09	3.391027e+01	5.731317e+02
2.080000e-06	4.818109e-06	8.666879e-09	3.326509e+01	5.682260e+02
2.090000e-06	4.722810e-06	8.593230e-09	3.260713e+01	5.631701e+02
2.100000e-06	4.625826e-06	8.521133e-09	3.193753e+01	5.579489e+02
2.110000e-06	4.527370e-06	8.440231e-09	3.125778e+01	5.525512e+02
2.120000e-06	4.427392e-06	8.342286e-09	3.056751e+01	5.469719e+02
2.130000e-06	4.325731e-06	8.257433e-09	2.986562e+01	5.412116e+02
2.140000e-06	4.222432e-06	8.167637e-09	2.915243e+01	5.352754e+02
2.150000e-06	4.117577e-06	8.084285e-09	2.842849e+01	5.291700e+02
2.160000e-06	4.011344e-06	7.987837e-09	2.769504e+01	5.229010e+02
2.170000e-06	3.903763e-06	7.889109e-09	2.695228e+01	5.164703e+02
2.180000e-06	3.794741e-06	7.784091e-09	2.619958e+01	5.098748e+02
2.190000e-06	3.684291e-06	7.681183e-09	2.543700e+01	5.031070e+02
2.200000e-06	3.572394e-06	7.579068e-09	2.466445e+01	4.961562e+02
2.210000e-06	3.459165e-06	7.473438e-09	2.388270e+01	4.890106e+02
2.220000e-06	3.344652e-06	7.359479e-09	2.309208e+01	4.816600e+02
2.230000e-06	3.228719e-06	7.237907e-09	2.229165e+01	4.740966e+02
2.240000e-06	3.111355e-06	7.119620e-09	2.148135e+01	4.663159e+02
2.250000e-06	2.992819e-06	7.002124e-09	2.066296e+01	4.583162e+02
2.260000e-06	2.873106e-06	6.884811e-09	1.983644e+01	4.500964e+02
2.270000e-06	2.752228e-06	6.753747e-09	1.900188e+01	4.416549e+02
2.280000e-06	2.630396e-06	6.617507e-09	1.816073e+01	4.329874e+02
2.290000e-06	2.507687e-06	6.478731e-09	1.731352e+01	4.240861e+02
2.300000e-06	2.384168e-06	6.341654e-09	1.646072e+01	4.149401e+02
2.310000e-06	2.259856e-06	6.201894e-09	1.560245e+01	4.055363e+02
2.320000e-06	2.134753e-06	6.056375e-09	1.473872e+01	3.958610e+02
2.330000e-06	2.008877e-06	5.902907e-09	1.386965e+01	3.859015e+02
2.340000e-06	1.882274e-06	5.742823e-09	1.299556e+01	3.756478e+02
2.350000e-06	1.754995e-06	5.581961e-09	1.211680e+01	3.650926e+02
2.360000e-06	1.627016e-06	5.420299e-09	1.123321e+01	3.542314e+02
2.370000e-06	1.498439e-06	5.254241e-09	1.034549e+01	3.430607e+02
2.380000e-06	1.369508e-06	5.078278e-09	9.455330e+00	3.315762e+02
2.390000e-06	1.240230e-06	4.897855e-09	8.562771e+00	3.197717e+02
2.400000e-06	1.110553e-06	4.711891e-09	7.667456e+00	3.076373e+02
2.410000e-06	9.804861e-07	4.520314e-09	6.769453e+00	2.951592e+02
2.420000e-06	8.500455e-07	4.323562e-09	5.868867e+00	2.823206e+02
2.430000e-06	7.193908e-07	4.119114e-09	4.966804e+00	2.691028e+02
2.440000e-06	5.885944e-07	3.910073e-09	4.063762e+00	2.554868e+02
2.450000e-06	4.576272e-07	3.697295e-09	3.159540e+00	2.414552e+02
2.460000e-06	3.265213e-07	3.479407e-09	2.254362e+00	2.269929e+02
2.470000e-06	1.952677e-07	3.255206e-09	1.348163e+00	2.120876e+02
2.480000e-06	6.393774e-08	3.020739e-09	4.414376e-01	1.967282e+02
2.490000e-06	-6.736208e-08	2.776632e-09	-4.650799e-01	1.809036e+02
2.500000e-06	-1.986636e-07	2.525450e-09	-1.371609e+00	1.645997e+02
2.510000e-06	-3.299454e-07	2.267068e-09	-2.278003e+00	1.477972e+02
2.520000e-06	-4.611867e-07	2.000190e-09	-3.184116e+00	1.304703e+02
2.530000e-06	-5.922856e-07	1.725453e-09	-4.089246e+00	1.125855e+02
2.540000e-06	-7.231747e-07	1.442988e-09	-4.992928e+00	9.410360e+01
2.550000e-06	-8.538787e-07	1.150849e-09	-5.895332e+00	7.498291e+01
2.560000e-06	-9.843467e-07	8.509928e-10	-6.796107e+00	5.518452e+01
2.570000e-06	-1.114507e-06	5.415924e-10	-7.694756e+00	3.467947e+01
2.580000e-06	-1.244248e-06	2.203805e-10	-8.590509e+00	1.345666e+01
2.590000e-06	-1.373533e-06	-1.116032e-10	-9.483119e+00	-8.469194e+00
2.600000e-06	-1.502373e-06	-4.548415e-10	-1.037265e+01	-3.105077e+01
2.610000e-06	-1.630741e-06	-8.085783e-10	-1.125893e+01	-5.420375e+01
2.620000e-06	-1.758522e-06	-1.172455e-09	-1.214115e+01	-7.780578e+01
2.630000e-06	-1.885590e-06	-1.541125e-09	-1.301845e+01	-1.016996e+02
2.640000e-06	-2.011883e-06	-1.907036e-09	-1.389040e+01	-1.257004e+02
2.650000e-06	-2.137388e-06	-2.269625e-09	-1.475691e+01	-1.496069e+02
2.660000e-06	-2.262097e-06	-2.628672e-09	-1.561792e+01	-1.732153e+02
2.670000e-06	-2.385859e-06	-2.980241e-09	-1.647240e+01	-1.963340e+02
2.680000e-06	-2.508627e-06	-3.322796e-09	-1.732001e+01	-2.187974e+02
2.690000e-06	-2.630470e-06	-3.655193e-09	-1.816124e+01	-2.404771e+02
2.700000e-06	-2.751384e-06	-3.972896e-09	-1.899605e+01	-2.612880e+02
2.710000e-06	-2.871309e-06	-4.274609e-09	-1.982403e+01	-2.811896e+02
2.720000e-06	-2.990084e-06	-4.563762e-09	-2.064408e+01	-3.001814e+02
2.730000e-06	-3.107668e-06	-4.843443e-09	-2.145590e+01	-3.182940e+02
2.740000e-06	-3.224063e-06	-5.111632e-09	-2.225951e+01	-3.355778e+02
2.750000e-06	-3.339180e-06	-5.366415e-09	-2.305430e+01	-3.520906e+02
2.760000e-06	-3.452890e-06	-5.607736e-09	-2.383937e+01	-3.678869e+02
2.770000e-06	-3.565144e-06	-5.836777e-09	-2.461439e+01	-3.830106e+02
2.780000e-06	-3.676006e-06	-6.056862e-09	-2.537981e+01	-3.974923e+02
2.790000e-06	-3.785582e-06	-6.268263e-09	-2.613634e+01	-4.113502e+02
2.800000e-06	-3.893986e-06	-6.472212e-09	-2.688478e+01	-4.245947e+02
2.810000e-06	-4.001095e-06	-6.667649e-09	-2.762428e+01	-4.372349e+02
2.820000e-06	-4.106822e-06	-6.854274e-09	-2.835424e+01	-4.492847e+02
2.830000e-06	-4.211150e-06	-7.031987e-09	-2.907454e+01	-4.607670e+02
2.840000e-06	-4.313864e-06	-7.200342e-09	-2.978369e+01	-4.717148e+02
2.850000e-06	-4.414939e-06	-7.359680e-09	-3.048153e+01	-4.821694e+02
2.860000e-06	-4.514498e-06	-7.510277e-09	-3.116891e+01	-4.921756e+02
2.870000e-06	-4.612549e-06	-7.654690e-09	-3.184587e+01	-5.017752e+02
2.880000e-06	-4.709047e-06	-7.793510e-09	-3.251210e+01	-5.110016e+02
2.890000e-06	-4.803807e-06	-7.927028e-09	-3.316635e+01	-5.198757e+02
2.900000e-06	-4.896755e-06	-8.056744e-09	-3.380808e+01	-5.284043e+02
2.910000e-06	-4.987970e-06	-8.181249e-09	-3.443784e+01	-5.365826e+02
2.920000e-06	-5.077463e-06	-8.299819e-09	-3.505572e+01	-5.443986e+02
2.930000e-06	-5.165066e-06	-8.412876e-09	-3.566054e+01	-5.518391e+02
2.940000e-06	-5.250644e-06	-8.520764e-09	-3.625139e+01	-5.588960e+02
