# Temperatura_=_62.9
# Concentracion g/m^3_=_15000.0
# C_Vs_to_Am_M_A/Vsm_=_65563218390.804596
# pendiente_HvsI_1/m_=_3716.3
# ordenada_HvsI_A/m_=_1297.0
# frecuencia_Hz_=_301963.00323548546

Tiempo_(s)	Campo_(V.s)	Magnetizacion_(V.s)	Campo_(kA/m)	Magnetizacion_(A/m)
0.000000e+00	-6.866932e-06	-1.136881e-08	-4.746550e+01	-7.441582e+02
1.000000e-08	-6.862856e-06	-1.136625e-08	-4.743733e+01	-7.438685e+02
2.000000e-08	-6.856596e-06	-1.136028e-08	-4.739406e+01	-7.434549e+02
3.000000e-08	-6.848156e-06	-1.135361e-08	-4.733572e+01	-7.429000e+02
4.000000e-08	-6.837320e-06	-1.134465e-08	-4.726082e+01	-7.421863e+02
5.000000e-08	-6.823985e-06	-1.133174e-08	-4.716865e+01	-7.413012e+02
6.000000e-08	-6.808212e-06	-1.131050e-08	-4.705962e+01	-7.402421e+02
7.000000e-08	-6.790201e-06	-1.129595e-08	-4.693513e+01	-7.390200e+02
8.000000e-08	-6.769961e-06	-1.130899e-08	-4.679522e+01	-7.376598e+02
9.000000e-08	-6.747063e-06	-1.129951e-08	-4.663695e+01	-7.361981e+02
1.000000e-07	-6.721347e-06	-1.125110e-08	-4.645920e+01	-7.346769e+02
1.100000e-07	-6.693119e-06	-1.121131e-08	-4.626407e+01	-7.331368e+02
1.200000e-07	-6.662727e-06	-1.117040e-08	-4.605400e+01	-7.316080e+02
1.300000e-07	-6.630339e-06	-1.111919e-08	-4.583013e+01	-7.301038e+02
1.400000e-07	-6.595968e-06	-1.112693e-08	-4.559255e+01	-7.286163e+02
1.500000e-07	-6.559617e-06	-1.112171e-08	-4.534129e+01	-7.271161e+02
1.600000e-07	-6.521258e-06	-1.105621e-08	-4.507614e+01	-7.255560e+02
1.700000e-07	-6.480797e-06	-1.104672e-08	-4.479647e+01	-7.238784e+02
1.800000e-07	-6.437850e-06	-1.100777e-08	-4.449961e+01	-7.220240e+02
1.900000e-07	-6.392385e-06	-1.096937e-08	-4.418535e+01	-7.199419e+02
2.000000e-07	-6.344551e-06	-1.099057e-08	-4.385471e+01	-7.175968e+02
2.100000e-07	-6.294039e-06	-1.093086e-08	-4.350556e+01	-7.149739e+02
2.200000e-07	-6.240895e-06	-1.084947e-08	-4.313822e+01	-7.120795e+02
2.300000e-07	-6.185373e-06	-1.079592e-08	-4.275444e+01	-7.089380e+02
2.400000e-07	-6.127473e-06	-1.072822e-08	-4.235423e+01	-7.055848e+02
2.500000e-07	-6.067326e-06	-1.069753e-08	-4.193848e+01	-7.020592e+02
2.600000e-07	-6.005049e-06	-1.067422e-08	-4.150801e+01	-6.983957e+02
2.700000e-07	-5.940568e-06	-1.059719e-08	-4.106231e+01	-6.946186e+02
2.800000e-07	-5.873802e-06	-1.050974e-08	-4.060081e+01	-6.907385e+02
2.900000e-07	-5.804789e-06	-1.046183e-08	-4.012378e+01	-6.867517e+02
3.000000e-07	-5.733722e-06	-1.040923e-08	-3.963255e+01	-6.826443e+02
3.100000e-07	-5.660477e-06	-1.034446e-08	-3.912626e+01	-6.783960e+02
3.200000e-07	-5.584882e-06	-1.029511e-08	-3.860374e+01	-6.739862e+02
3.300000e-07	-5.506969e-06	-1.020897e-08	-3.806519e+01	-6.693992e+02
3.400000e-07	-5.426883e-06	-1.012252e-08	-3.751162e+01	-6.646270e+02
3.500000e-07	-5.344876e-06	-1.006408e-08	-3.694477e+01	-6.596702e+02
3.600000e-07	-5.261116e-06	-9.994615e-09	-3.636581e+01	-6.545369e+02
3.700000e-07	-5.175607e-06	-9.908010e-09	-3.577476e+01	-6.492395e+02
3.800000e-07	-5.088339e-06	-9.813816e-09	-3.517154e+01	-6.437909e+02
3.900000e-07	-4.999235e-06	-9.725580e-09	-3.455564e+01	-6.382006e+02
4.000000e-07	-4.908263e-06	-9.648762e-09	-3.392683e+01	-6.324721e+02
4.100000e-07	-4.815630e-06	-9.573978e-09	-3.328652e+01	-6.266024e+02
4.200000e-07	-4.721449e-06	-9.476762e-09	-3.263553e+01	-6.205818e+02
4.300000e-07	-4.625585e-06	-9.372657e-09	-3.197290e+01	-6.143969e+02
4.400000e-07	-4.527864e-06	-9.269718e-09	-3.129744e+01	-6.080328e+02
4.500000e-07	-4.428479e-06	-9.164285e-09	-3.061046e+01	-6.014761e+02
4.600000e-07	-4.327603e-06	-9.071263e-09	-2.991319e+01	-5.947170e+02
4.700000e-07	-4.225263e-06	-8.977060e-09	-2.920580e+01	-5.877505e+02
4.800000e-07	-4.121512e-06	-8.861139e-09	-2.848865e+01	-5.805758e+02
4.900000e-07	-4.016200e-06	-8.737834e-09	-2.776072e+01	-5.731958e+02
5.000000e-07	-3.909233e-06	-8.622754e-09	-2.702134e+01	-5.656147e+02
5.100000e-07	-3.800802e-06	-8.510412e-09	-2.627185e+01	-5.578363e+02
5.200000e-07	-3.691181e-06	-8.392015e-09	-2.551413e+01	-5.498624e+02
5.300000e-07	-3.580367e-06	-8.265302e-09	-2.474816e+01	-5.416921e+02
5.400000e-07	-3.468187e-06	-8.132279e-09	-2.397275e+01	-5.333216e+02
5.500000e-07	-3.354475e-06	-7.997580e-09	-2.318675e+01	-5.247444e+02
5.600000e-07	-3.239211e-06	-7.865007e-09	-2.239002e+01	-5.159531e+02
5.700000e-07	-3.122569e-06	-7.733104e-09	-2.158377e+01	-5.069395e+02
5.800000e-07	-3.004761e-06	-7.592880e-09	-2.076946e+01	-4.976961e+02
5.900000e-07	-2.885923e-06	-7.443409e-09	-1.994804e+01	-4.882160e+02
6.000000e-07	-2.766022e-06	-7.294645e-09	-1.911925e+01	-4.784930e+02
6.100000e-07	-2.645077e-06	-7.149229e-09	-1.828326e+01	-4.685213e+02
6.200000e-07	-2.523163e-06	-6.996122e-09	-1.744057e+01	-4.582949e+02
6.300000e-07	-2.400216e-06	-6.828834e-09	-1.659074e+01	-4.478069e+02
6.400000e-07	-2.276283e-06	-6.657627e-09	-1.573409e+01	-4.370494e+02
6.500000e-07	-2.151588e-06	-6.486238e-09	-1.487218e+01	-4.260134e+02
6.600000e-07	-2.026250e-06	-6.313191e-09	-1.400582e+01	-4.146894e+02
6.700000e-07	-1.900293e-06	-6.141153e-09	-1.313518e+01	-4.030679e+02
6.800000e-07	-1.773718e-06	-5.964934e-09	-1.226027e+01	-3.911395e+02
6.900000e-07	-1.646532e-06	-5.776996e-09	-1.138114e+01	-3.788958e+02
7.000000e-07	-1.518693e-06	-5.580305e-09	-1.049748e+01	-3.663292e+02
7.100000e-07	-1.390225e-06	-5.383269e-09	-9.609493e+00	-3.534324e+02
7.200000e-07	-1.261320e-06	-5.184515e-09	-8.718474e+00	-3.401981e+02
7.300000e-07	-1.132106e-06	-4.978154e-09	-7.825325e+00	-3.266182e+02
7.400000e-07	-1.002610e-06	-4.762971e-09	-6.930225e+00	-3.126829e+02
7.500000e-07	-8.727682e-07	-4.541038e-09	-6.032735e+00	-2.983804e+02
7.600000e-07	-7.426091e-07	-4.315841e-09	-5.133051e+00	-2.836965e+02
7.700000e-07	-6.121919e-07	-4.086820e-09	-4.231583e+00	-2.686148e+02
7.800000e-07	-4.814767e-07	-3.853502e-09	-3.328056e+00	-2.531164e+02
7.900000e-07	-3.505831e-07	-3.613082e-09	-2.423295e+00	-2.371808e+02
8.000000e-07	-2.195377e-07	-3.362301e-09	-1.517485e+00	-2.207855e+02
8.100000e-07	-8.834539e-08	-3.105173e-09	-6.106597e-01	-2.039058e+02
8.200000e-07	4.290289e-08	-2.841823e-09	2.965527e-01	-1.865148e+02
8.300000e-07	1.742014e-07	-2.568084e-09	1.204112e+00	-1.685819e+02
8.400000e-07	3.054961e-07	-2.282920e-09	2.111646e+00	-1.500730e+02
8.500000e-07	4.366576e-07	-1.987593e-09	3.018258e+00	-1.309497e+02
8.600000e-07	5.676385e-07	-1.683879e-09	3.923622e+00	-1.111704e+02
8.700000e-07	6.984121e-07	-1.370959e-09	4.827554e+00	-9.069237e+01
8.800000e-07	8.289185e-07	-1.048951e-09	5.729638e+00	-6.947523e+01
8.900000e-07	9.591003e-07	-7.150068e-10	6.629479e+00	-4.748647e+01
9.000000e-07	1.088933e-06	-3.664576e-10	7.526904e+00	-2.470793e+01
9.100000e-07	1.218434e-06	-5.007998e-12	8.422041e+00	-1.143086e+00
9.200000e-07	1.347574e-06	3.677884e-10	9.314680e+00	2.317589e+01
9.300000e-07	1.476322e-06	7.494873e-10	1.020461e+01	4.818252e+01
9.400000e-07	1.604541e-06	1.139392e-09	1.109089e+01	7.377286e+01
9.500000e-07	1.732095e-06	1.535552e-09	1.197256e+01	9.980565e+01
9.600000e-07	1.858918e-06	1.936984e-09	1.284919e+01	1.261065e+02
9.700000e-07	1.985014e-06	2.341184e-09	1.372078e+01	1.524761e+02
9.800000e-07	2.110482e-06	2.741755e-09	1.458804e+01	1.787011e+02
9.900000e-07	2.235313e-06	3.134337e-09	1.545090e+01	2.045681e+02
1.000000e-06	2.359381e-06	3.515294e-09	1.630848e+01	2.298776e+02
1.010000e-06	2.482541e-06	3.886184e-09	1.715978e+01	2.544568e+02
1.020000e-06	2.604670e-06	4.245554e-09	1.800396e+01	2.781700e+02
1.030000e-06	2.725842e-06	4.591706e-09	1.884152e+01	3.009241e+02
1.040000e-06	2.846049e-06	4.923315e-09	1.967241e+01	3.226704e+02
1.050000e-06	2.965105e-06	5.238740e-09	2.049535e+01	3.434009e+02
1.060000e-06	3.083075e-06	5.540908e-09	2.131079e+01	3.631414e+02
1.070000e-06	3.199998e-06	5.830149e-09	2.211898e+01	3.819412e+02
1.080000e-06	3.315730e-06	6.103904e-09	2.291894e+01	3.998627e+02
1.090000e-06	3.430113e-06	6.363036e-09	2.370958e+01	4.169713e+02
1.100000e-06	3.543039e-06	6.609076e-09	2.449014e+01	4.333278e+02
1.110000e-06	3.654594e-06	6.842350e-09	2.526123e+01	4.489834e+02
1.120000e-06	3.764903e-06	7.066938e-09	2.602370e+01	4.639782e+02
1.130000e-06	3.874094e-06	7.284270e-09	2.677845e+01	4.783422e+02
1.140000e-06	3.982078e-06	7.495408e-09	2.752486e+01	4.920990e+02
1.150000e-06	4.088636e-06	7.699815e-09	2.826141e+01	5.052690e+02
1.160000e-06	4.193679e-06	7.895506e-09	2.898749e+01	5.178735e+02
1.170000e-06	4.297148e-06	8.079822e-09	2.970268e+01	5.299368e+02
1.180000e-06	4.399114e-06	8.254271e-09	3.040749e+01	5.414872e+02
1.190000e-06	4.499608e-06	8.419978e-09	3.110213e+01	5.525557e+02
1.200000e-06	4.598479e-06	8.577200e-09	3.178554e+01	5.631742e+02
1.210000e-06	4.695605e-06	8.728478e-09	3.245689e+01	5.733724e+02
1.220000e-06	4.790951e-06	8.875420e-09	3.311594e+01	5.831758e+02
1.230000e-06	4.884577e-06	9.020605e-09	3.376310e+01	5.926036e+02
1.240000e-06	4.976530e-06	9.164089e-09	3.439870e+01	6.016682e+02
1.250000e-06	5.066734e-06	9.303167e-09	3.502220e+01	6.103761e+02
1.260000e-06	5.155055e-06	9.434883e-09	3.563270e+01	6.187294e+02
1.270000e-06	5.241499e-06	9.558942e-09	3.623021e+01	6.267282e+02
1.280000e-06	5.326150e-06	9.676214e-09	3.681534e+01	6.343725e+02
1.290000e-06	5.408927e-06	9.787932e-09	3.738750e+01	6.416641e+02
1.300000e-06	5.489687e-06	9.891361e-09	3.794573e+01	6.486081e+02
1.310000e-06	5.568447e-06	9.986515e-09	3.849014e+01	6.552130e+02
1.320000e-06	5.645216e-06	1.007973e-08	3.902078e+01	6.614905e+02
1.330000e-06	5.719813e-06	1.017384e-08	3.953640e+01	6.674552e+02
1.340000e-06	5.792223e-06	1.026354e-08	4.003692e+01	6.731236e+02
1.350000e-06	5.862567e-06	1.034524e-08	4.052314e+01	6.785136e+02
1.360000e-06	5.930814e-06	1.042260e-08	4.099488e+01	6.836435e+02
1.370000e-06	5.996918e-06	1.049757e-08	4.145180e+01	6.885317e+02
1.380000e-06	6.060852e-06	1.056923e-08	4.189373e+01	6.931959e+02
1.390000e-06	6.122709e-06	1.063612e-08	4.232130e+01	6.976519e+02
1.400000e-06	6.182523e-06	1.070019e-08	4.273474e+01	7.019132e+02
1.410000e-06	6.240110e-06	1.076333e-08	4.313280e+01	7.059898e+02
1.420000e-06	6.295477e-06	1.082375e-08	4.351550e+01	7.098875e+02
1.430000e-06	6.348593e-06	1.088141e-08	4.388265e+01	7.136077e+02
1.440000e-06	6.399135e-06	1.093587e-08	4.423200e+01	7.171475e+02
1.450000e-06	6.447057e-06	1.098702e-08	4.456325e+01	7.205012e+02
1.460000e-06	6.492655e-06	1.103553e-08	4.487843e+01	7.236616e+02
1.470000e-06	6.536074e-06	1.108074e-08	4.517856e+01	7.266220e+02
1.480000e-06	6.577153e-06	1.112364e-08	4.546250e+01	7.293777e+02
1.490000e-06	6.615835e-06	1.116320e-08	4.572988e+01	7.319275e+02
1.500000e-06	6.652310e-06	1.119734e-08	4.598200e+01	7.342739e+02
1.510000e-06	6.686531e-06	1.122767e-08	4.621854e+01	7.364222e+02
1.520000e-06	6.718290e-06	1.125604e-08	4.643806e+01	7.383795e+02
1.530000e-06	6.747718e-06	1.128259e-08	4.664147e+01	7.401528e+02
1.540000e-06	6.774866e-06	1.130633e-08	4.682913e+01	7.417474e+02
1.550000e-06	6.799451e-06	1.132712e-08	4.699906e+01	7.431660e+02
1.560000e-06	6.821515e-06	1.134502e-08	4.715158e+01	7.444089e+02
1.570000e-06	6.841298e-06	1.136036e-08	4.728832e+01	7.454749e+02
1.580000e-06	6.858618e-06	1.137364e-08	4.740804e+01	7.463634e+02
1.590000e-06	6.873318e-06	1.138310e-08	4.750964e+01	7.470762e+02
1.600000e-06	6.885403e-06	1.138954e-08	4.759318e+01	7.476192e+02
1.610000e-06	6.894791e-06	1.139461e-08	4.765807e+01	7.480027e+02
1.620000e-06	6.901624e-06	1.139882e-08	4.770530e+01	7.482409e+02
1.630000e-06	6.906103e-06	1.140153e-08	4.773626e+01	7.483489e+02
1.640000e-06	6.908199e-06	1.140342e-08	4.775075e+01	7.483400e+02
1.650000e-06	6.907869e-06	1.140230e-08	4.774847e+01	7.482225e+02
1.660000e-06	6.905241e-06	1.139701e-08	4.773030e+01	7.479966e+02
1.670000e-06	6.900373e-06	1.138858e-08	4.769665e+01	7.476545e+02
1.680000e-06	6.893127e-06	1.137633e-08	4.764657e+01	7.471814e+02
1.690000e-06	6.883601e-06	1.136553e-08	4.758073e+01	7.465593e+02
1.700000e-06	6.871849e-06	1.135601e-08	4.749949e+01	7.457721e+02
1.710000e-06	6.857605e-06	1.134788e-08	4.740103e+01	7.448108e+02
1.720000e-06	6.841066e-06	1.132679e-08	4.728671e+01	7.436785e+02
1.730000e-06	6.822499e-06	1.126885e-08	4.715838e+01	7.423922e+02
1.740000e-06	6.801315e-06	1.123385e-08	4.701195e+01	7.409824e+02
1.750000e-06	6.776767e-06	1.124017e-08	4.684227e+01	7.394888e+02
1.760000e-06	6.749244e-06	1.122808e-08	4.665202e+01	7.379538e+02
1.770000e-06	6.719442e-06	1.123816e-08	4.644602e+01	7.364146e+02
1.780000e-06	6.687783e-06	1.122851e-08	4.622719e+01	7.348947e+02
1.790000e-06	6.654677e-06	1.115412e-08	4.599836e+01	7.333987e+02
1.800000e-06	6.619699e-06	1.114077e-08	4.575658e+01	7.319094e+02
1.810000e-06	6.582115e-06	1.114929e-08	4.549679e+01	7.303889e+02
1.820000e-06	6.542230e-06	1.113047e-08	4.522110e+01	7.287847e+02
1.830000e-06	6.500289e-06	1.113482e-08	4.493120e+01	7.270371e+02
1.840000e-06	6.456088e-06	1.104967e-08	4.462568e+01	7.250895e+02
1.850000e-06	6.409557e-06	1.098354e-08	4.430405e+01	7.228967e+02
1.860000e-06	6.360614e-06	1.099200e-08	4.396574e+01	7.204319e+02
1.870000e-06	6.309424e-06	1.094469e-08	4.361191e+01	7.176896e+02
1.880000e-06	6.255659e-06	1.094094e-08	4.324027e+01	7.146843e+02
1.890000e-06	6.199223e-06	1.089851e-08	4.285018e+01	7.114462e+02
1.900000e-06	6.140520e-06	1.079436e-08	4.244441e+01	7.080132e+02
1.910000e-06	6.079448e-06	1.072992e-08	4.202227e+01	7.044236e+02
1.920000e-06	6.016101e-06	1.067472e-08	4.158441e+01	7.007081e+02
1.930000e-06	5.950626e-06	1.065730e-08	4.113183e+01	6.968852e+02
1.940000e-06	5.883081e-06	1.060324e-08	4.066495e+01	6.929594e+02
1.950000e-06	5.813312e-06	1.053067e-08	4.018269e+01	6.889220e+02
1.960000e-06	5.741086e-06	1.045173e-08	3.968345e+01	6.847556e+02
1.970000e-06	5.666720e-06	1.036049e-08	3.916942e+01	6.804393e+02
1.980000e-06	5.590127e-06	1.031913e-08	3.863999e+01	6.759540e+02
1.990000e-06	5.511240e-06	1.024893e-08	3.809471e+01	6.712869e+02
2.000000e-06	5.430390e-06	1.017370e-08	3.753586e+01	6.664338e+02
2.010000e-06	5.347749e-06	1.009182e-08	3.696463e+01	6.613989e+02
2.020000e-06	5.263311e-06	1.000027e-08	3.638098e+01	6.561925e+02
2.030000e-06	5.176805e-06	9.928692e-09	3.578303e+01	6.508277e+02
2.040000e-06	5.088359e-06	9.849442e-09	3.517168e+01	6.453163e+02
2.050000e-06	4.998274e-06	9.761788e-09	3.454900e+01	6.396656e+02
2.060000e-06	4.906631e-06	9.666454e-09	3.391554e+01	6.338762e+02
2.070000e-06	4.813236e-06	9.579059e-09	3.326998e+01	6.279421e+02
2.080000e-06	4.717957e-06	9.489779e-09	3.261139e+01	6.218518e+02
2.090000e-06	4.621062e-06	9.405393e-09	3.194164e+01	6.155907e+02
2.100000e-06	4.522682e-06	9.306053e-09	3.126162e+01	6.091444e+02
2.110000e-06	4.422791e-06	9.186994e-09	3.057115e+01	6.025007e+02
2.120000e-06	4.321245e-06	9.072650e-09	2.986925e+01	5.956519e+02
2.130000e-06	4.218058e-06	8.966988e-09	2.915599e+01	5.885948e+02
2.140000e-06	4.113332e-06	8.871634e-09	2.843211e+01	5.813306e+02
2.150000e-06	4.007198e-06	8.768514e-09	2.769850e+01	5.738627e+02
2.160000e-06	3.899739e-06	8.654910e-09	2.695571e+01	5.661955e+02
2.170000e-06	3.790897e-06	8.524955e-09	2.620338e+01	5.583320e+02
2.180000e-06	3.680606e-06	8.392950e-09	2.544103e+01	5.502731e+02
2.190000e-06	3.568850e-06	8.268717e-09	2.466855e+01	5.420165e+02
2.200000e-06	3.455776e-06	8.148879e-09	2.388696e+01	5.335571e+02
2.210000e-06	3.341416e-06	8.019226e-09	2.309649e+01	5.248880e+02
2.220000e-06	3.225678e-06	7.875725e-09	2.229648e+01	5.160013e+02
2.230000e-06	3.108556e-06	7.731626e-09	2.148692e+01	5.068889e+02
2.240000e-06	2.990177e-06	7.589964e-09	2.066865e+01	4.975437e+02
2.250000e-06	2.870594e-06	7.448697e-09	1.984208e+01	4.879590e+02
2.260000e-06	2.749903e-06	7.300891e-09	1.900784e+01	4.781290e+02
2.270000e-06	2.628261e-06	7.149762e-09	1.816703e+01	4.680478e+02
2.280000e-06	2.505767e-06	6.994105e-09	1.732033e+01	4.577090e+02
2.290000e-06	2.382451e-06	6.835136e-09	1.646794e+01	4.471054e+02
2.300000e-06	2.258300e-06	6.671572e-09	1.560979e+01	4.362285e+02
2.310000e-06	2.133358e-06	6.499905e-09	1.474616e+01	4.250691e+02
2.320000e-06	2.007691e-06	6.318234e-09	1.387753e+01	4.136176e+02
2.330000e-06	1.881295e-06	6.132749e-09	1.300386e+01	4.018645e+02
2.340000e-06	1.754202e-06	5.950310e-09	1.212537e+01	3.898008e+02
2.350000e-06	1.626401e-06	5.770048e-09	1.124198e+01	3.774185e+02
2.360000e-06	1.497959e-06	5.584088e-09	1.035417e+01	3.647101e+02
2.370000e-06	1.369095e-06	5.385042e-09	9.463440e+00	3.516684e+02
2.380000e-06	1.239896e-06	5.178374e-09	8.570389e+00	3.382859e+02
2.390000e-06	1.110350e-06	4.964951e-09	7.674944e+00	3.245538e+02
2.400000e-06	9.804359e-07	4.748345e-09	6.776955e+00	3.104616e+02
2.410000e-06	8.501970e-07	4.530276e-09	5.876719e+00	2.959963e+02
2.420000e-06	7.197736e-07	4.304825e-09	4.975208e+00	2.811429e+02
2.430000e-06	5.891600e-07	4.070106e-09	4.072383e+00	2.658839e+02
2.440000e-06	4.583070e-07	3.826060e-09	3.167903e+00	2.501996e+02
2.450000e-06	3.272779e-07	3.578116e-09	2.262205e+00	2.340687e+02
2.460000e-06	1.961151e-07	3.327745e-09	1.355584e+00	2.174678e+02
2.470000e-06	6.491651e-08	3.071214e-09	4.487150e-01	2.003713e+02
2.480000e-06	-6.631319e-08	2.805967e-09	-4.583691e-01	1.827508e+02
2.490000e-06	-1.975311e-07	2.530398e-09	-1.365372e+00	1.645744e+02
2.500000e-06	-3.286787e-07	2.243026e-09	-2.271888e+00	1.458059e+02
2.510000e-06	-4.597270e-07	1.944333e-09	-3.177718e+00	1.264055e+02
2.520000e-06	-5.906148e-07	1.634948e-09	-4.082439e+00	1.063308e+02
2.530000e-06	-7.213499e-07	1.315019e-09	-4.986104e+00	8.553950e+01
2.540000e-06	-8.518862e-07	9.870339e-10	-5.888395e+00	6.399382e+01
2.550000e-06	-9.821251e-07	6.499311e-10	-6.788631e+00	4.166655e+01
2.560000e-06	-1.112044e-06	3.009994e-10	-7.686656e+00	1.854791e+01
2.570000e-06	-1.241636e-06	-6.014625e-11	-8.582416e+00	-5.347115e+00
2.580000e-06	-1.370824e-06	-4.322721e-10	-9.475388e+00	-2.997225e+01
2.590000e-06	-1.499609e-06	-8.169079e-10	-1.036558e+01	-5.524514e+01
2.600000e-06	-1.627925e-06	-1.212746e-09	-1.125252e+01	-8.104563e+01
2.610000e-06	-1.755559e-06	-1.615384e-09	-1.213475e+01	-1.072175e+02
2.620000e-06	-1.882355e-06	-2.020948e-09	-1.301119e+01	-1.335745e+02
2.630000e-06	-2.008413e-06	-2.424653e-09	-1.388252e+01	-1.599097e+02
2.640000e-06	-2.133827e-06	-2.825182e-09	-1.474941e+01	-1.860081e+02
2.650000e-06	-2.258418e-06	-3.217993e-09	-1.561060e+01	-2.116604e+02
2.660000e-06	-2.382015e-06	-3.598643e-09	-1.646493e+01	-2.366773e+02
2.670000e-06	-2.504615e-06	-3.966838e-09	-1.731236e+01	-2.609008e+02
2.680000e-06	-2.626337e-06	-4.322378e-09	-1.815373e+01	-2.842128e+02
2.690000e-06	-2.747221e-06	-4.664982e-09	-1.898930e+01	-3.065396e+02
2.700000e-06	-2.867052e-06	-4.991153e-09	-1.981759e+01	-3.278506e+02
2.710000e-06	-2.985691e-06	-5.300761e-09	-2.063765e+01	-3.481532e+02
2.720000e-06	-3.103193e-06	-5.596950e-09	-2.144984e+01	-3.674847e+02
2.730000e-06	-3.219506e-06	-5.881606e-09	-2.225382e+01	-3.859012e+02
2.740000e-06	-3.334465e-06	-6.154140e-09	-2.304844e+01	-4.034676e+02
2.750000e-06	-3.448042e-06	-6.410860e-09	-2.383350e+01	-4.202480e+02
2.760000e-06	-3.560277e-06	-6.652622e-09	-2.460929e+01	-4.362997e+02
2.770000e-06	-3.671081e-06	-6.885474e-09	-2.537519e+01	-4.516689e+02
2.780000e-06	-3.780560e-06	-7.108863e-09	-2.613193e+01	-4.663913e+02
2.790000e-06	-3.888859e-06	-7.323544e-09	-2.688052e+01	-4.804937e+02
2.800000e-06	-3.995897e-06	-7.531080e-09	-2.762038e+01	-4.939976e+02
2.810000e-06	-4.101579e-06	-7.731480e-09	-2.835087e+01	-5.069237e+02
2.820000e-06	-4.205745e-06	-7.924330e-09	-2.907089e+01	-5.192942e+02
2.830000e-06	-4.308360e-06	-8.107078e-09	-2.978018e+01	-5.311352e+02
2.840000e-06	-4.409378e-06	-8.281166e-09	-3.047844e+01	-5.424764e+02
2.850000e-06	-4.508753e-06	-8.448360e-09	-3.116533e+01	-5.533493e+02
2.860000e-06	-4.606652e-06	-8.609330e-09	-3.184203e+01	-5.637854e+02
2.870000e-06	-4.703024e-06	-8.762001e-09	-3.250817e+01	-5.738128e+02
2.880000e-06	-4.797737e-06	-8.906610e-09	-3.316285e+01	-5.834544e+02
2.890000e-06	-4.890624e-06	-9.046118e-09	-3.380490e+01	-5.927265e+02
2.900000e-06	-4.981685e-06	-9.179781e-09	-3.443433e+01	-6.016389e+02
2.910000e-06	-5.071056e-06	-9.308455e-09	-3.505208e+01	-6.101959e+02
2.920000e-06	-5.158571e-06	-9.431580e-09	-3.565700e+01	-6.183985e+02
2.930000e-06	-5.244087e-06	-9.550036e-09	-3.624810e+01	-6.262464e+02
2.940000e-06	-5.327688e-06	-9.664190e-09	-3.682597e+01	-6.337403e+02
