# Temperatura_=_27.39
# Concentracion g/m^3_=_15000.0
# C_Vs_to_Am_M_A/Vsm_=_65563218390.804596
# pendiente_HvsI_1/m_=_3716.3
# ordenada_HvsI_A/m_=_1297.0
# frecuencia_Hz_=_301959.8985769558

Tiempo_(s)	Campo_(V.s)	Magnetizacion_(V.s)	Campo_(kA/m)	Magnetizacion_(A/m)
0.000000e+00	-6.889387e-06	-9.969824e-09	-4.747394e+01	-6.523135e+02
1.000000e-08	-6.885383e-06	-9.968992e-09	-4.744636e+01	-6.521087e+02
2.000000e-08	-6.879231e-06	-9.962161e-09	-4.740396e+01	-6.518043e+02
3.000000e-08	-6.870865e-06	-9.957556e-09	-4.734631e+01	-6.513947e+02
4.000000e-08	-6.860038e-06	-9.950255e-09	-4.727170e+01	-6.508717e+02
5.000000e-08	-6.846710e-06	-9.941275e-09	-4.717986e+01	-6.502281e+02
6.000000e-08	-6.830950e-06	-9.922225e-09	-4.707126e+01	-6.494613e+02
7.000000e-08	-6.812935e-06	-9.903812e-09	-4.694713e+01	-6.485766e+02
8.000000e-08	-6.792720e-06	-9.942217e-09	-4.680782e+01	-6.475889e+02
9.000000e-08	-6.769943e-06	-9.956631e-09	-4.665087e+01	-6.465225e+02
1.000000e-07	-6.744333e-06	-9.890000e-09	-4.647440e+01	-6.454072e+02
1.100000e-07	-6.716097e-06	-9.851098e-09	-4.627982e+01	-6.442737e+02
1.200000e-07	-6.685674e-06	-9.836965e-09	-4.607018e+01	-6.431468e+02
1.300000e-07	-6.653273e-06	-9.753557e-09	-4.584691e+01	-6.420391e+02
1.400000e-07	-6.618959e-06	-9.741395e-09	-4.561045e+01	-6.409465e+02
1.500000e-07	-6.582642e-06	-9.857413e-09	-4.536020e+01	-6.398472e+02
1.600000e-07	-6.544224e-06	-9.710849e-09	-4.509547e+01	-6.387032e+02
1.700000e-07	-6.503663e-06	-9.702828e-09	-4.481597e+01	-6.374661e+02
1.800000e-07	-6.460640e-06	-9.762994e-09	-4.451950e+01	-6.360845e+02
1.900000e-07	-6.415112e-06	-9.629953e-09	-4.420577e+01	-6.345128e+02
2.000000e-07	-6.367233e-06	-9.705921e-09	-4.387584e+01	-6.327187e+02
2.100000e-07	-6.316710e-06	-9.679965e-09	-4.352769e+01	-6.306876e+02
2.200000e-07	-6.263523e-06	-9.571418e-09	-4.316119e+01	-6.284242e+02
2.300000e-07	-6.207900e-06	-9.519847e-09	-4.277790e+01	-6.259495e+02
2.400000e-07	-6.149892e-06	-9.465700e-09	-4.237817e+01	-6.232958e+02
2.500000e-07	-6.089607e-06	-9.471275e-09	-4.196275e+01	-6.204983e+02
2.600000e-07	-6.027134e-06	-9.450734e-09	-4.153226e+01	-6.175885e+02
2.700000e-07	-5.962453e-06	-9.396325e-09	-4.108655e+01	-6.145874e+02
2.800000e-07	-5.895531e-06	-9.313942e-09	-4.062540e+01	-6.115033e+02
2.900000e-07	-5.826389e-06	-9.257045e-09	-4.014896e+01	-6.083311e+02
3.000000e-07	-5.755132e-06	-9.238807e-09	-3.965793e+01	-6.050562e+02
3.100000e-07	-5.681700e-06	-9.169169e-09	-3.915192e+01	-6.016589e+02
3.200000e-07	-5.605894e-06	-9.144937e-09	-3.862955e+01	-5.981207e+02
3.300000e-07	-5.527781e-06	-9.078640e-09	-3.809128e+01	-5.944284e+02
3.400000e-07	-5.447531e-06	-8.991924e-09	-3.753828e+01	-5.905774e+02
3.500000e-07	-5.365367e-06	-8.950731e-09	-3.697210e+01	-5.865718e+02
3.600000e-07	-5.281428e-06	-8.896085e-09	-3.639369e+01	-5.824223e+02
3.700000e-07	-5.195695e-06	-8.832132e-09	-3.580292e+01	-5.781422e+02
3.800000e-07	-5.108137e-06	-8.742357e-09	-3.519957e+01	-5.737436e+02
3.900000e-07	-5.018755e-06	-8.682493e-09	-3.458364e+01	-5.692336e+02
4.000000e-07	-4.927598e-06	-8.624491e-09	-3.395549e+01	-5.646120e+02
4.100000e-07	-4.834773e-06	-8.566861e-09	-3.331584e+01	-5.598714e+02
4.200000e-07	-4.740346e-06	-8.486411e-09	-3.266516e+01	-5.549988e+02
4.300000e-07	-4.644233e-06	-8.384916e-09	-3.200286e+01	-5.499788e+02
4.400000e-07	-4.546322e-06	-8.298337e-09	-3.132817e+01	-5.447966e+02
4.500000e-07	-4.446676e-06	-8.214757e-09	-3.064151e+01	-5.394410e+02
4.600000e-07	-4.345549e-06	-8.145776e-09	-2.994466e+01	-5.339060e+02
4.700000e-07	-4.243026e-06	-8.073546e-09	-2.923819e+01	-5.281911e+02
4.800000e-07	-4.138959e-06	-7.983090e-09	-2.852107e+01	-5.222996e+02
4.900000e-07	-4.033334e-06	-7.871230e-09	-2.779322e+01	-5.162365e+02
5.000000e-07	-3.926145e-06	-7.769568e-09	-2.705460e+01	-5.100062e+02
5.100000e-07	-3.817441e-06	-7.680451e-09	-2.630553e+01	-5.036103e+02
5.200000e-07	-3.707481e-06	-7.588051e-09	-2.554781e+01	-4.970468e+02
5.300000e-07	-3.596353e-06	-7.484370e-09	-2.478204e+01	-4.903100e+02
5.400000e-07	-3.483770e-06	-7.371469e-09	-2.400624e+01	-4.833919e+02
5.500000e-07	-3.369590e-06	-7.262821e-09	-2.321944e+01	-4.762830e+02
5.600000e-07	-3.253962e-06	-7.150147e-09	-2.242267e+01	-4.689746e+02
5.700000e-07	-3.136952e-06	-7.036369e-09	-2.161636e+01	-4.614595e+02
5.800000e-07	-3.018789e-06	-6.917285e-09	-2.080211e+01	-4.537319e+02
5.900000e-07	-2.899611e-06	-6.793540e-09	-1.998088e+01	-4.457873e+02
6.000000e-07	-2.779349e-06	-6.666633e-09	-1.915216e+01	-4.376211e+02
6.100000e-07	-2.658040e-06	-6.546706e-09	-1.831623e+01	-4.292274e+02
6.200000e-07	-2.535730e-06	-6.422534e-09	-1.747341e+01	-4.205985e+02
6.300000e-07	-2.412416e-06	-6.280161e-09	-1.662367e+01	-4.117245e+02
6.400000e-07	-2.288178e-06	-6.128644e-09	-1.576756e+01	-4.025937e+02
6.500000e-07	-2.163167e-06	-5.979727e-09	-1.490612e+01	-3.931945e+02
6.600000e-07	-2.037499e-06	-5.836762e-09	-1.404016e+01	-3.835164e+02
6.700000e-07	-1.911202e-06	-5.690508e-09	-1.316987e+01	-3.735516e+02
6.800000e-07	-1.784275e-06	-5.538737e-09	-1.229523e+01	-3.632953e+02
6.900000e-07	-1.656703e-06	-5.375202e-09	-1.141614e+01	-3.527455e+02
7.000000e-07	-1.528523e-06	-5.203069e-09	-1.053287e+01	-3.419022e+02
7.100000e-07	-1.399769e-06	-5.030616e-09	-9.645640e+00	-3.307649e+02
7.200000e-07	-1.270475e-06	-4.860308e-09	-8.754691e+00	-3.193312e+02
7.300000e-07	-1.140798e-06	-4.684708e-09	-7.861102e+00	-3.075948e+02
7.400000e-07	-1.010814e-06	-4.499726e-09	-6.965398e+00	-2.955446e+02
7.500000e-07	-8.804766e-07	-4.310556e-09	-6.067259e+00	-2.831652e+02
7.600000e-07	-7.498347e-07	-4.118758e-09	-5.167021e+00	-2.704380e+02
7.700000e-07	-6.189512e-07	-3.921163e-09	-4.265119e+00	-2.573434e+02
7.800000e-07	-4.878606e-07	-3.715801e-09	-3.361789e+00	-2.438627e+02
7.900000e-07	-3.566060e-07	-3.503997e-09	-2.457330e+00	-2.299805e+02
8.000000e-07	-2.251666e-07	-3.284467e-09	-1.551596e+00	-2.156855e+02
8.100000e-07	-9.356348e-08	-3.060240e-09	-6.447348e-01	-2.009703e+02
8.200000e-07	3.810725e-08	-2.831997e-09	2.625925e-01	-1.858299e+02
8.300000e-07	1.697476e-07	-2.596371e-09	1.169711e+00	-1.702595e+02
8.400000e-07	3.013706e-07	-2.352238e-09	2.076709e+00	-1.542513e+02
8.500000e-07	4.329248e-07	-2.102590e-09	2.983233e+00	-1.377913e+02
8.600000e-07	5.643133e-07	-1.848846e-09	3.888616e+00	-1.208581e+02
8.700000e-07	6.955138e-07	-1.584209e-09	4.792703e+00	-1.034219e+02
8.800000e-07	8.264740e-07	-1.308328e-09	5.695134e+00	-8.544617e+01
8.900000e-07	9.571200e-07	-1.023196e-09	6.595400e+00	-6.689152e+01
9.000000e-07	1.087453e-06	-7.283180e-10	7.493508e+00	-4.772103e+01
9.100000e-07	1.217469e-06	-4.220843e-10	8.389436e+00	-2.790724e+01
9.200000e-07	1.347147e-06	-1.074375e-10	9.283026e+00	-7.439686e+00
9.300000e-07	1.476403e-06	2.133513e-10	1.017372e+01	1.366808e+01
9.400000e-07	1.605045e-06	5.431449e-10	1.106017e+01	3.537279e+01
9.500000e-07	1.732993e-06	8.798965e-10	1.194185e+01	5.759824e+01
9.600000e-07	1.860231e-06	1.224774e-09	1.281863e+01	8.023514e+01
9.700000e-07	1.986777e-06	1.575902e-09	1.369064e+01	1.031445e+02
9.800000e-07	2.112703e-06	1.928718e-09	1.455839e+01	1.261643e+02
9.900000e-07	2.237922e-06	2.280353e-09	1.542125e+01	1.491192e+02
1.000000e-06	2.362383e-06	2.625652e-09	1.627890e+01	1.718319e+02
1.010000e-06	2.485957e-06	2.964744e-09	1.713044e+01	1.941351e+02
1.020000e-06	2.608495e-06	3.295446e-09	1.797483e+01	2.158824e+02
1.030000e-06	2.730097e-06	3.616692e-09	1.881277e+01	2.369570e+02
1.040000e-06	2.850588e-06	3.927599e-09	1.964306e+01	2.572764e+02
1.050000e-06	2.969951e-06	4.225391e-09	2.046558e+01	2.767938e+02
1.060000e-06	3.088368e-06	4.510630e-09	2.128158e+01	2.954949e+02
1.070000e-06	3.205770e-06	4.785100e-09	2.209058e+01	3.133916e+02
1.080000e-06	3.321949e-06	5.046916e-09	2.289115e+01	3.305138e+02
1.090000e-06	3.436695e-06	5.295559e-09	2.368186e+01	3.469004e+02
1.100000e-06	3.550039e-06	5.531546e-09	2.446290e+01	3.625918e+02
1.110000e-06	3.661983e-06	5.757530e-09	2.523429e+01	3.776236e+02
1.120000e-06	3.772618e-06	5.973868e-09	2.599666e+01	3.920243e+02
1.130000e-06	3.882109e-06	6.180655e-09	2.675115e+01	4.058148e+02
1.140000e-06	3.990411e-06	6.380747e-09	2.749744e+01	4.190113e+02
1.150000e-06	4.097381e-06	6.575146e-09	2.823457e+01	4.316286e+02
1.160000e-06	4.202835e-06	6.762547e-09	2.896123e+01	4.436836e+02
1.170000e-06	4.306644e-06	6.937671e-09	2.967657e+01	4.551982e+02
1.180000e-06	4.408916e-06	7.103282e-09	3.038132e+01	4.661997e+02
1.190000e-06	4.509797e-06	7.262022e-09	3.107647e+01	4.767198e+02
1.200000e-06	4.609093e-06	7.413415e-09	3.176071e+01	4.867912e+02
1.210000e-06	4.706541e-06	7.558273e-09	3.243221e+01	4.964445e+02
1.220000e-06	4.802158e-06	7.699000e-09	3.309110e+01	5.057040e+02
1.230000e-06	4.896071e-06	7.835759e-09	3.373824e+01	5.145857e+02
1.240000e-06	4.988386e-06	7.968256e-09	3.437437e+01	5.230965e+02
1.250000e-06	5.079046e-06	8.096968e-09	3.499910e+01	5.312359e+02
1.260000e-06	5.167764e-06	8.219388e-09	3.561045e+01	5.389988e+02
1.270000e-06	5.254522e-06	8.333916e-09	3.620828e+01	5.463803e+02
1.280000e-06	5.339464e-06	8.440878e-09	3.679361e+01	5.533791e+02
1.290000e-06	5.422571e-06	8.540775e-09	3.736629e+01	5.600006e+02
1.300000e-06	5.503699e-06	8.633975e-09	3.792534e+01	5.662591e+02
1.310000e-06	5.582824e-06	8.719659e-09	3.847058e+01	5.721762e+02
1.320000e-06	5.659974e-06	8.801848e-09	3.900221e+01	5.777797e+02
1.330000e-06	5.734900e-06	8.884534e-09	3.951851e+01	5.830995e+02
1.340000e-06	5.807525e-06	8.964806e-09	4.001896e+01	5.881647e+02
1.350000e-06	5.878075e-06	9.038789e-09	4.050511e+01	5.930006e+02
1.360000e-06	5.946659e-06	9.108864e-09	4.097772e+01	5.976266e+02
1.370000e-06	6.013092e-06	9.176542e-09	4.143550e+01	6.020561e+02
1.380000e-06	6.077274e-06	9.240572e-09	4.187777e+01	6.062970e+02
1.390000e-06	6.139374e-06	9.300918e-09	4.230569e+01	6.103535e+02
1.400000e-06	6.199515e-06	9.358103e-09	4.272012e+01	6.142278e+02
1.410000e-06	6.257423e-06	9.414610e-09	4.311915e+01	6.179213e+02
1.420000e-06	6.312987e-06	9.468234e-09	4.350204e+01	6.214356e+02
1.430000e-06	6.366328e-06	9.519458e-09	4.386960e+01	6.247722e+02
1.440000e-06	6.417099e-06	9.569002e-09	4.421946e+01	6.279324e+02
1.450000e-06	6.465273e-06	9.614731e-09	4.455143e+01	6.309162e+02
1.460000e-06	6.511143e-06	9.656351e-09	4.486751e+01	6.337223e+02
1.470000e-06	6.554881e-06	9.695114e-09	4.516890e+01	6.363481e+02
1.480000e-06	6.596232e-06	9.733396e-09	4.545385e+01	6.387904e+02
1.490000e-06	6.635086e-06	9.768415e-09	4.572159e+01	6.410469e+02
1.500000e-06	6.671755e-06	9.796854e-09	4.597427e+01	6.431173e+02
1.510000e-06	6.706068e-06	9.822862e-09	4.621071e+01	6.450041e+02
1.520000e-06	6.737896e-06	9.847875e-09	4.643004e+01	6.467133e+02
1.530000e-06	6.767439e-06	9.869530e-09	4.663362e+01	6.482533e+02
1.540000e-06	6.794697e-06	9.889241e-09	4.682145e+01	6.496339e+02
1.550000e-06	6.819361e-06	9.908757e-09	4.699140e+01	6.508646e+02
1.560000e-06	6.841474e-06	9.926829e-09	4.714378e+01	6.519530e+02
1.570000e-06	6.861379e-06	9.941087e-09	4.728094e+01	6.529041e+02
1.580000e-06	6.878920e-06	9.952824e-09	4.740182e+01	6.537203e+02
1.590000e-06	6.893857e-06	9.961526e-09	4.750475e+01	6.544024e+02
1.600000e-06	6.906184e-06	9.967718e-09	4.758969e+01	6.549507e+02
1.610000e-06	6.915762e-06	9.973981e-09	4.765569e+01	6.553670e+02
1.620000e-06	6.922710e-06	9.979456e-09	4.770357e+01	6.556557e+02
1.630000e-06	6.927348e-06	9.983362e-09	4.773553e+01	6.558234e+02
1.640000e-06	6.929557e-06	9.985918e-09	4.775075e+01	6.558782e+02
1.650000e-06	6.929234e-06	9.988710e-09	4.774852e+01	6.558281e+02
1.660000e-06	6.926632e-06	9.981683e-09	4.773060e+01	6.556785e+02
1.670000e-06	6.921819e-06	9.976492e-09	4.769743e+01	6.554307e+02
1.680000e-06	6.914633e-06	9.969500e-09	4.764791e+01	6.550814e+02
1.690000e-06	6.905157e-06	9.959662e-09	4.758261e+01	6.546234e+02
1.700000e-06	6.893475e-06	9.952842e-09	4.750211e+01	6.540487e+02
1.710000e-06	6.879370e-06	9.948223e-09	4.740492e+01	6.533514e+02
1.720000e-06	6.862942e-06	9.947812e-09	4.729171e+01	6.525321e+02
1.730000e-06	6.844434e-06	9.874283e-09	4.716418e+01	6.516001e+02
1.740000e-06	6.823271e-06	9.822337e-09	4.701835e+01	6.505745e+02
1.750000e-06	6.798746e-06	9.862473e-09	4.684935e+01	6.494825e+02
1.760000e-06	6.771233e-06	9.852415e-09	4.665976e+01	6.483551e+02
1.770000e-06	6.741350e-06	9.840878e-09	4.645384e+01	6.472212e+02
1.780000e-06	6.709567e-06	9.929301e-09	4.623482e+01	6.461011e+02
1.790000e-06	6.676413e-06	9.812412e-09	4.600637e+01	6.450006e+02
1.800000e-06	6.641481e-06	9.757859e-09	4.576566e+01	6.439081e+02
1.810000e-06	6.603908e-06	9.868873e-09	4.550674e+01	6.427943e+02
1.820000e-06	6.564093e-06	9.733050e-09	4.523238e+01	6.416159e+02
1.830000e-06	6.522199e-06	9.802403e-09	4.494370e+01	6.403222e+02
1.840000e-06	6.477903e-06	9.773941e-09	4.463846e+01	6.388634e+02
1.850000e-06	6.431320e-06	9.614563e-09	4.431746e+01	6.371986e+02
1.860000e-06	6.382289e-06	9.716834e-09	4.397959e+01	6.353028e+02
1.870000e-06	6.331029e-06	9.638381e-09	4.362637e+01	6.331697e+02
1.880000e-06	6.277300e-06	9.676356e-09	4.325613e+01	6.308116e+02
1.890000e-06	6.220848e-06	9.658130e-09	4.286712e+01	6.282551e+02
1.900000e-06	6.162100e-06	9.499905e-09	4.246230e+01	6.255348e+02
1.910000e-06	6.100934e-06	9.511568e-09	4.204081e+01	6.226850e+02
1.920000e-06	6.037467e-06	9.399521e-09	4.160347e+01	6.197334e+02
1.930000e-06	5.971916e-06	9.433761e-09	4.115176e+01	6.166958e+02
1.940000e-06	5.904216e-06	9.413825e-09	4.068525e+01	6.135745e+02
1.950000e-06	5.834233e-06	9.323451e-09	4.020300e+01	6.103597e+02
1.960000e-06	5.761835e-06	9.294374e-09	3.970412e+01	6.070340e+02
1.970000e-06	5.687321e-06	9.153959e-09	3.919065e+01	6.035776e+02
1.980000e-06	5.610534e-06	9.169596e-09	3.866152e+01	5.999737e+02
1.990000e-06	5.531467e-06	9.109367e-09	3.811668e+01	5.962127e+02
2.000000e-06	5.450446e-06	9.041485e-09	3.755837e+01	5.922938e+02
2.010000e-06	5.367623e-06	8.990799e-09	3.698765e+01	5.882241e+02
2.020000e-06	5.283003e-06	8.897236e-09	3.640454e+01	5.840162e+02
2.030000e-06	5.196320e-06	8.850948e-09	3.580722e+01	5.796833e+02
2.040000e-06	5.107691e-06	8.760778e-09	3.519649e+01	5.752357e+02
2.050000e-06	5.017416e-06	8.715710e-09	3.457442e+01	5.706776e+02
2.060000e-06	4.925537e-06	8.625577e-09	3.394129e+01	5.660055e+02
2.070000e-06	4.831899e-06	8.557366e-09	3.329604e+01	5.612094e+02
2.080000e-06	4.736470e-06	8.495387e-09	3.263845e+01	5.562748e+02
2.090000e-06	4.639409e-06	8.428859e-09	3.196961e+01	5.511861e+02
2.100000e-06	4.540853e-06	8.358919e-09	3.129047e+01	5.459299e+02
2.110000e-06	4.440757e-06	8.243785e-09	3.060073e+01	5.404971e+02
2.120000e-06	4.339013e-06	8.146941e-09	2.989962e+01	5.348840e+02
2.130000e-06	4.235680e-06	8.055387e-09	2.918757e+01	5.290921e+02
2.140000e-06	4.130747e-06	7.989748e-09	2.846449e+01	5.231256e+02
2.150000e-06	4.024423e-06	7.907117e-09	2.773182e+01	5.169897e+02
2.160000e-06	3.916727e-06	7.814827e-09	2.698970e+01	5.106876e+02
2.170000e-06	3.807581e-06	7.702371e-09	2.623759e+01	5.042196e+02
2.180000e-06	3.697014e-06	7.587285e-09	2.547568e+01	4.975819e+02
2.190000e-06	3.584960e-06	7.483804e-09	2.470353e+01	4.907678e+02
2.200000e-06	3.471518e-06	7.388988e-09	2.392181e+01	4.837682e+02
2.210000e-06	3.356699e-06	7.290749e-09	2.313061e+01	4.765741e+02
2.220000e-06	3.240518e-06	7.170286e-09	2.233002e+01	4.691772e+02
2.230000e-06	3.122956e-06	7.048781e-09	2.151992e+01	4.615708e+02
2.240000e-06	3.004189e-06	6.926911e-09	2.070150e+01	4.537500e+02
2.250000e-06	2.884264e-06	6.810466e-09	1.987512e+01	4.457102e+02
2.260000e-06	2.763225e-06	6.684340e-09	1.904105e+01	4.374466e+02
2.270000e-06	2.641275e-06	6.554834e-09	1.820071e+01	4.289524e+02
2.280000e-06	2.518485e-06	6.422264e-09	1.735458e+01	4.202190e+02
2.290000e-06	2.394766e-06	6.289057e-09	1.650205e+01	4.112356e+02
2.300000e-06	2.270111e-06	6.152659e-09	1.564306e+01	4.019904e+02
2.310000e-06	2.144731e-06	6.011669e-09	1.477908e+01	3.924721e+02
2.320000e-06	2.018629e-06	5.858140e-09	1.391014e+01	3.826712e+02
2.330000e-06	1.891824e-06	5.694219e-09	1.303634e+01	3.725810e+02
2.340000e-06	1.764383e-06	5.534208e-09	1.215815e+01	3.621982e+02
2.350000e-06	1.636277e-06	5.378897e-09	1.127539e+01	3.515219e+02
2.360000e-06	1.507575e-06	5.221516e-09	1.038852e+01	3.405519e+02
2.370000e-06	1.378403e-06	5.050133e-09	9.498408e+00	3.292874e+02
2.380000e-06	1.248801e-06	4.869449e-09	8.605339e+00	3.177242e+02
2.390000e-06	1.118832e-06	4.682001e-09	7.709741e+00	3.058541e+02
2.400000e-06	9.886025e-07	4.492985e-09	6.812342e+00	2.936642e+02
2.410000e-06	8.581266e-07	4.305682e-09	5.913248e+00	2.811374e+02
2.420000e-06	7.274649e-07	4.111491e-09	5.012874e+00	2.682543e+02
2.430000e-06	5.965800e-07	3.907981e-09	4.110962e+00	2.549956e+02
2.440000e-06	4.654508e-07	3.695990e-09	3.207366e+00	2.413438e+02
2.450000e-06	3.341427e-07	3.479596e-09	2.302538e+00	2.272850e+02
2.460000e-06	2.026710e-07	3.260485e-09	1.396582e+00	2.128099e+02
2.470000e-06	7.109478e-08	3.035436e-09	4.899057e-01	1.979122e+02
2.480000e-06	-6.055732e-08	2.803648e-09	-4.172933e-01	1.825875e+02
2.490000e-06	-1.921890e-07	2.562795e-09	-1.324352e+00	1.668299e+02
2.500000e-06	-3.237177e-07	2.312501e-09	-2.230700e+00	1.506294e+02
2.510000e-06	-4.551670e-07	2.054724e-09	-3.136502e+00	1.339690e+02
2.520000e-06	-5.864818e-07	1.791764e-09	-4.041376e+00	1.168235e+02
2.530000e-06	-7.176058e-07	1.521522e-09	-4.944936e+00	9.916004e+01
2.540000e-06	-8.485281e-07	1.241498e-09	-5.847106e+00	8.094028e+01
2.550000e-06	-9.791215e-07	9.559480e-10	-6.747010e+00	6.212506e+01
2.560000e-06	-1.109382e-06	6.644164e-10	-7.644617e+00	4.268065e+01
2.570000e-06	-1.239318e-06	3.632990e-10	-8.539994e+00	2.258593e+01
2.580000e-06	-1.368914e-06	5.010621e-11	-9.433026e+00	1.839946e+00
2.590000e-06	-1.498129e-06	-2.757127e-10	-1.032343e+01	-1.953160e+01
2.600000e-06	-1.626782e-06	-6.119735e-10	-1.120996e+01	-4.147155e+01
2.610000e-06	-1.754757e-06	-9.566884e-10	-1.209182e+01	-6.388934e+01
2.620000e-06	-1.882002e-06	-1.306137e-09	-1.296865e+01	-8.666233e+01
2.630000e-06	-2.008536e-06	-1.656644e-09	-1.384058e+01	-1.096406e+02
2.640000e-06	-2.134425e-06	-2.006829e-09	-1.470807e+01	-1.326553e+02
2.650000e-06	-2.259529e-06	-2.357365e-09	-1.557015e+01	-1.555285e+02
2.660000e-06	-2.383608e-06	-2.703448e-09	-1.642516e+01	-1.780860e+02
2.670000e-06	-2.506672e-06	-3.039802e-09	-1.727318e+01	-2.001681e+02
2.680000e-06	-2.628802e-06	-3.364007e-09	-1.811476e+01	-2.216402e+02
2.690000e-06	-2.750062e-06	-3.676806e-09	-1.895035e+01	-2.423999e+02
2.700000e-06	-2.870316e-06	-3.979412e-09	-1.977900e+01	-2.623801e+02
2.710000e-06	-2.989384e-06	-4.270788e-09	-2.059949e+01	-2.815485e+02
2.720000e-06	-3.107383e-06	-4.552603e-09	-2.141261e+01	-2.999029e+02
2.730000e-06	-3.224180e-06	-4.825911e-09	-2.221744e+01	-3.174641e+02
2.740000e-06	-3.339605e-06	-5.088539e-09	-2.301282e+01	-3.342668e+02
2.750000e-06	-3.453666e-06	-5.336122e-09	-2.379880e+01	-3.503515e+02
2.760000e-06	-3.566301e-06	-5.568416e-09	-2.457495e+01	-3.657570e+02
2.770000e-06	-3.677497e-06	-5.791606e-09	-2.534119e+01	-3.805161e+02
2.780000e-06	-3.787333e-06	-6.006025e-09	-2.609806e+01	-3.946538e+02
2.790000e-06	-3.895925e-06	-6.212052e-09	-2.684636e+01	-4.081887e+02
2.800000e-06	-4.003301e-06	-6.410737e-09	-2.758627e+01	-4.211359e+02
2.810000e-06	-4.109371e-06	-6.602414e-09	-2.831718e+01	-4.335106e+02
2.820000e-06	-4.214031e-06	-6.787615e-09	-2.903838e+01	-4.453318e+02
2.830000e-06	-4.317119e-06	-6.963573e-09	-2.974875e+01	-4.566236e+02
2.840000e-06	-4.418490e-06	-7.130582e-09	-3.044729e+01	-4.674156e+02
2.850000e-06	-4.518235e-06	-7.288907e-09	-3.113462e+01	-4.777401e+02
2.860000e-06	-4.616503e-06	-7.439239e-09	-3.181177e+01	-4.876297e+02
2.870000e-06	-4.713271e-06	-7.582612e-09	-3.247859e+01	-4.971125e+02
2.880000e-06	-4.808387e-06	-7.719257e-09	-3.313402e+01	-5.062094e+02
2.890000e-06	-4.901649e-06	-7.849563e-09	-3.377668e+01	-5.149326e+02
2.900000e-06	-4.993124e-06	-7.973365e-09	-3.440702e+01	-5.232854e+02
2.910000e-06	-5.082895e-06	-8.093000e-09	-3.502563e+01	-5.312649e+02
2.920000e-06	-5.170835e-06	-8.208374e-09	-3.563161e+01	-5.388657e+02
2.930000e-06	-5.256782e-06	-8.319336e-09	-3.622386e+01	-5.460837e+02
2.940000e-06	-5.340753e-06	-8.425324e-09	-3.680249e+01	-5.529204e+02
