# Temperatura_=_30.94
# Concentracion g/m^3_=_15000.0
# C_Vs_to_Am_M_A/Vsm_=_65563218390.804596
# pendiente_HvsI_1/m_=_3716.3
# ordenada_HvsI_A/m_=_1297.0
# frecuencia_Hz_=_301963.1474896559

Tiempo_(s)	Campo_(V.s)	Magnetizacion_(V.s)	Campo_(kA/m)	Magnetizacion_(A/m)
0.000000e+00	-6.899097e-06	-9.960038e-09	-4.748535e+01	-6.533227e+02
1.000000e-08	-6.897205e-06	-9.966762e-09	-4.747233e+01	-6.531646e+02
2.000000e-08	-6.892893e-06	-9.962836e-09	-4.744265e+01	-6.529039e+02
3.000000e-08	-6.886509e-06	-9.955199e-09	-4.739871e+01	-6.525436e+02
4.000000e-08	-6.877938e-06	-9.951894e-09	-4.733971e+01	-6.520827e+02
5.000000e-08	-6.866867e-06	-9.944201e-09	-4.726351e+01	-6.515173e+02
6.000000e-08	-6.853279e-06	-9.933633e-09	-4.716999e+01	-6.508426e+02
7.000000e-08	-6.837296e-06	-9.909257e-09	-4.705998e+01	-6.500567e+02
8.000000e-08	-6.819019e-06	-9.893126e-09	-4.693418e+01	-6.491633e+02
9.000000e-08	-6.798540e-06	-9.967889e-09	-4.679323e+01	-6.481742e+02
1.000000e-07	-6.775509e-06	-9.967586e-09	-4.663471e+01	-6.471086e+02
1.100000e-07	-6.749544e-06	-9.872386e-09	-4.645600e+01	-6.459914e+02
1.200000e-07	-6.720911e-06	-9.841490e-09	-4.625893e+01	-6.448483e+02
1.300000e-07	-6.690155e-06	-9.822789e-09	-4.604724e+01	-6.437000e+02
1.400000e-07	-6.657485e-06	-9.709994e-09	-4.582237e+01	-6.425571e+02
1.500000e-07	-6.622852e-06	-9.766951e-09	-4.558400e+01	-6.414152e+02
1.600000e-07	-6.586253e-06	-9.883987e-09	-4.533210e+01	-6.402541e+02
1.700000e-07	-6.547630e-06	-9.665244e-09	-4.506626e+01	-6.390391e+02
1.800000e-07	-6.506817e-06	-9.734345e-09	-4.478535e+01	-6.377262e+02
1.900000e-07	-6.463450e-06	-9.751880e-09	-4.448686e+01	-6.362687e+02
2.000000e-07	-6.417597e-06	-9.606661e-09	-4.417126e+01	-6.346254e+02
2.100000e-07	-6.369387e-06	-9.710216e-09	-4.383944e+01	-6.327673e+02
2.200000e-07	-6.318442e-06	-9.629960e-09	-4.348879e+01	-6.306822e+02
2.300000e-07	-6.264847e-06	-9.564798e-09	-4.311991e+01	-6.283755e+02
2.400000e-07	-6.208871e-06	-9.528701e-09	-4.273464e+01	-6.258684e+02
2.500000e-07	-6.150546e-06	-9.462961e-09	-4.233320e+01	-6.231920e+02
2.600000e-07	-6.089995e-06	-9.474558e-09	-4.191643e+01	-6.203805e+02
2.700000e-07	-6.027313e-06	-9.424405e-09	-4.148500e+01	-6.174644e+02
2.800000e-07	-5.962370e-06	-9.370639e-09	-4.103801e+01	-6.144640e+02
2.900000e-07	-5.895116e-06	-9.299862e-09	-4.057511e+01	-6.113871e+02
3.000000e-07	-5.825647e-06	-9.272716e-09	-4.009697e+01	-6.082286e+02
3.100000e-07	-5.754068e-06	-9.238955e-09	-3.960430e+01	-6.049733e+02
3.200000e-07	-5.680265e-06	-9.151483e-09	-3.909633e+01	-6.016004e+02
3.300000e-07	-5.604151e-06	-9.144055e-09	-3.857245e+01	-5.980895e+02
3.400000e-07	-5.525741e-06	-9.059144e-09	-3.803277e+01	-5.944248e+02
3.500000e-07	-5.445132e-06	-8.985564e-09	-3.747794e+01	-5.905984e+02
3.600000e-07	-5.362674e-06	-8.949701e-09	-3.691040e+01	-5.866113e+02
3.700000e-07	-5.278502e-06	-8.893666e-09	-3.633106e+01	-5.824719e+02
3.800000e-07	-5.192539e-06	-8.827472e-09	-3.573939e+01	-5.781926e+02
3.900000e-07	-5.104763e-06	-8.735141e-09	-3.513524e+01	-5.737866e+02
4.000000e-07	-5.015118e-06	-8.681229e-09	-3.451823e+01	-5.692636e+02
4.100000e-07	-4.923668e-06	-8.615016e-09	-3.388880e+01	-5.646275e+02
4.200000e-07	-4.830562e-06	-8.553530e-09	-3.324796e+01	-5.598754e+02
4.300000e-07	-4.735839e-06	-8.474056e-09	-3.259600e+01	-5.549982e+02
4.400000e-07	-4.639386e-06	-8.387933e-09	-3.193213e+01	-5.499826e+02
4.500000e-07	-4.541102e-06	-8.308183e-09	-3.125566e+01	-5.448140e+02
4.600000e-07	-4.441197e-06	-8.218220e-09	-3.056803e+01	-5.394786e+02
4.700000e-07	-4.339808e-06	-8.148092e-09	-2.987018e+01	-5.339660e+02
4.800000e-07	-4.236936e-06	-8.066526e-09	-2.916213e+01	-5.282699e+02
4.900000e-07	-4.132553e-06	-7.972341e-09	-2.844368e+01	-5.223880e+02
5.000000e-07	-4.026597e-06	-7.870063e-09	-2.771440e+01	-5.163215e+02
5.100000e-07	-3.919105e-06	-7.776715e-09	-2.697455e+01	-5.100731e+02
5.200000e-07	-3.810207e-06	-7.684484e-09	-2.622503e+01	-5.036456e+02
5.300000e-07	-3.700024e-06	-7.586473e-09	-2.546665e+01	-4.970407e+02
5.400000e-07	-3.588555e-06	-7.481780e-09	-2.469943e+01	-4.902581e+02
5.500000e-07	-3.475656e-06	-7.370831e-09	-2.392237e+01	-4.832948e+02
5.600000e-07	-3.361172e-06	-7.265003e-09	-2.313440e+01	-4.761460e+02
5.700000e-07	-3.245244e-06	-7.154161e-09	-2.233648e+01	-4.688046e+02
5.800000e-07	-3.128001e-06	-7.040949e-09	-2.152952e+01	-4.612625e+02
5.900000e-07	-3.009570e-06	-6.918148e-09	-2.071437e+01	-4.535105e+02
6.000000e-07	-2.890148e-06	-6.794978e-09	-1.989241e+01	-4.455389e+02
6.100000e-07	-2.769725e-06	-6.670669e-09	-1.906356e+01	-4.373381e+02
6.200000e-07	-2.648261e-06	-6.546651e-09	-1.822754e+01	-4.288982e+02
6.300000e-07	-2.525699e-06	-6.417018e-09	-1.738397e+01	-4.202103e+02
6.400000e-07	-2.402088e-06	-6.275112e-09	-1.653318e+01	-4.112664e+02
6.500000e-07	-2.277637e-06	-6.129073e-09	-1.567660e+01	-4.020597e+02
6.600000e-07	-2.152492e-06	-5.980390e-09	-1.481525e+01	-3.925854e+02
6.700000e-07	-2.026697e-06	-5.832400e-09	-1.394942e+01	-3.828399e+02
6.800000e-07	-1.900256e-06	-5.683772e-09	-1.307915e+01	-3.728208e+02
6.900000e-07	-1.773144e-06	-5.530798e-09	-1.220426e+01	-3.625258e+02
7.000000e-07	-1.645329e-06	-5.366899e-09	-1.132453e+01	-3.519519e+02
7.100000e-07	-1.516913e-06	-5.197086e-09	-1.044066e+01	-3.410938e+02
7.200000e-07	-1.388016e-06	-5.026688e-09	-9.553486e+00	-3.299430e+02
7.300000e-07	-1.258633e-06	-4.854844e-09	-8.662966e+00	-3.184877e+02
7.400000e-07	-1.128826e-06	-4.678769e-09	-7.769520e+00	-3.067126e+02
7.500000e-07	-9.986633e-07	-4.494052e-09	-6.873635e+00	-2.945997e+02
7.600000e-07	-8.681029e-07	-4.305371e-09	-5.975009e+00	-2.821299e+02
7.700000e-07	-7.372299e-07	-4.111681e-09	-5.074232e+00	-2.692843e+02
7.800000e-07	-6.060954e-07	-3.909192e-09	-4.171655e+00	-2.560455e+02
7.900000e-07	-4.747317e-07	-3.700199e-09	-3.267500e+00	-2.423992e+02
8.000000e-07	-3.432523e-07	-3.485252e-09	-2.362549e+00	-2.283342e+02
8.100000e-07	-2.116096e-07	-3.262961e-09	-1.456474e+00	-2.138419e+02
8.200000e-07	-7.981562e-08	-3.034504e-09	-5.493578e-01	-1.989151e+02
8.300000e-07	5.201860e-08	-2.802037e-09	3.580354e-01	-1.835460e+02
8.400000e-07	1.838782e-07	-2.562064e-09	1.265603e+00	-1.677239e+02
8.500000e-07	3.157066e-07	-2.314578e-09	2.172956e+00	-1.514331e+02
8.600000e-07	4.474409e-07	-2.060734e-09	3.079662e+00	-1.346512e+02
8.700000e-07	5.790748e-07	-1.799915e-09	3.985676e+00	-1.173485e+02
8.800000e-07	7.105269e-07	-1.526602e-09	4.890439e+00	-9.948894e+01
8.900000e-07	8.416915e-07	-1.242577e-09	5.793224e+00	-8.103245e+01
9.000000e-07	9.725611e-07	-9.496022e-10	6.693978e+00	-6.193922e+01
9.100000e-07	1.103115e-06	-6.460440e-10	7.592562e+00	-4.217555e+01
9.200000e-07	1.233285e-06	-3.316554e-10	8.488500e+00	-2.172089e+01
9.300000e-07	1.363027e-06	-6.676206e-12	9.381490e+00	-5.752683e-01
9.400000e-07	1.492249e-06	3.248034e-10	1.027090e+01	2.123365e+01
9.500000e-07	1.620885e-06	6.655489e-10	1.115628e+01	4.364509e+01
9.600000e-07	1.748903e-06	1.013065e-09	1.203741e+01	6.656232e+01
9.700000e-07	1.876244e-06	1.368262e-09	1.291388e+01	8.985334e+01
9.800000e-07	2.002880e-06	1.729177e-09	1.378549e+01	1.133555e+02
9.900000e-07	2.128780e-06	2.090032e-09	1.465204e+01	1.368841e+02
1.000000e-06	2.254000e-06	2.447364e-09	1.551391e+01	1.602442e+02
1.010000e-06	2.378533e-06	2.796463e-09	1.637105e+01	1.832444e+02
1.020000e-06	2.502212e-06	3.137505e-09	1.722231e+01	2.057105e+02
1.030000e-06	2.624903e-06	3.467964e-09	1.806677e+01	2.274979e+02
1.040000e-06	2.746591e-06	3.789805e-09	1.890433e+01	2.485000e+02
1.050000e-06	2.867224e-06	4.099111e-09	1.973463e+01	2.686521e+02
1.060000e-06	2.986713e-06	4.394072e-09	2.055705e+01	2.879300e+02
1.070000e-06	3.105102e-06	4.675113e-09	2.137190e+01	3.063438e+02
1.080000e-06	3.222441e-06	4.943734e-09	2.217953e+01	3.239284e+02
1.090000e-06	3.338595e-06	5.199128e-09	2.297900e+01	3.407320e+02
1.100000e-06	3.453368e-06	5.440655e-09	2.376896e+01	3.568054e+02
1.110000e-06	3.566760e-06	5.672787e-09	2.454942e+01	3.721934e+02
1.120000e-06	3.678772e-06	5.895881e-09	2.532038e+01	3.869301e+02
1.130000e-06	3.789453e-06	6.109988e-09	2.608218e+01	4.010379e+02
1.140000e-06	3.898953e-06	6.314582e-09	2.683585e+01	4.145302e+02
1.150000e-06	4.007239e-06	6.511341e-09	2.758117e+01	4.274167e+02
1.160000e-06	4.114123e-06	6.699625e-09	2.831683e+01	4.397093e+02
1.170000e-06	4.219505e-06	6.878620e-09	2.904216e+01	4.514263e+02
1.180000e-06	4.323300e-06	7.047741e-09	2.975656e+01	4.625955e+02
1.190000e-06	4.425508e-06	7.209641e-09	3.046004e+01	4.732528e+02
1.200000e-06	4.526225e-06	7.363689e-09	3.115326e+01	4.834395e+02
1.210000e-06	4.625412e-06	7.510999e-09	3.183595e+01	4.931965e+02
1.220000e-06	4.722811e-06	7.653827e-09	3.250633e+01	5.025589e+02
1.230000e-06	4.818368e-06	7.791813e-09	3.316403e+01	5.115513e+02
1.240000e-06	4.912253e-06	7.925682e-09	3.381023e+01	5.201857e+02
1.250000e-06	5.004526e-06	8.056476e-09	3.444533e+01	5.284623e+02
1.260000e-06	5.095046e-06	8.182689e-09	3.506836e+01	5.363727e+02
1.270000e-06	5.183611e-06	8.297411e-09	3.567794e+01	5.439053e+02
1.280000e-06	5.270290e-06	8.403363e-09	3.627453e+01	5.510519e+02
1.290000e-06	5.355195e-06	8.506210e-09	3.685892e+01	5.578119e+02
1.300000e-06	5.438219e-06	8.605220e-09	3.743037e+01	5.641960e+02
1.310000e-06	5.519200e-06	8.696737e-09	3.798775e+01	5.702261e+02
1.320000e-06	5.598164e-06	8.781829e-09	3.853124e+01	5.759334e+02
1.330000e-06	5.675137e-06	8.866673e-09	3.906103e+01	5.813532e+02
1.340000e-06	5.750003e-06	8.948910e-09	3.957632e+01	5.865207e+02
1.350000e-06	5.822594e-06	9.024013e-09	4.007596e+01	5.914654e+02
1.360000e-06	5.892988e-06	9.093571e-09	4.056047e+01	5.962086e+02
1.370000e-06	5.961324e-06	9.160698e-09	4.103081e+01	6.007619e+02
1.380000e-06	6.027549e-06	9.225913e-09	4.148662e+01	6.051284e+02
1.390000e-06	6.091587e-06	9.289773e-09	4.192739e+01	6.093057e+02
1.400000e-06	6.153518e-06	9.351539e-09	4.235365e+01	6.132892e+02
1.410000e-06	6.213427e-06	9.410936e-09	4.276600e+01	6.170751e+02
1.420000e-06	6.271124e-06	9.467487e-09	4.316311e+01	6.206627e+02
1.430000e-06	6.326589e-06	9.519516e-09	4.354487e+01	6.240548e+02
1.440000e-06	6.379815e-06	9.568738e-09	4.391121e+01	6.272569e+02
1.450000e-06	6.430412e-06	9.613863e-09	4.425947e+01	6.302751e+02
1.460000e-06	6.478347e-06	9.655977e-09	4.458939e+01	6.331146e+02
1.470000e-06	6.523987e-06	9.696116e-09	4.490352e+01	6.357778e+02
1.480000e-06	6.567434e-06	9.732832e-09	4.520257e+01	6.382640e+02
1.490000e-06	6.608492e-06	9.768055e-09	4.548516e+01	6.405707e+02
1.500000e-06	6.647116e-06	9.800395e-09	4.575101e+01	6.426948e+02
1.510000e-06	6.683516e-06	9.828276e-09	4.600154e+01	6.446353e+02
1.520000e-06	6.717590e-06	9.852434e-09	4.623607e+01	6.463949e+02
1.530000e-06	6.749205e-06	9.873843e-09	4.645367e+01	6.479805e+02
1.540000e-06	6.778530e-06	9.894068e-09	4.665550e+01	6.494032e+02
1.550000e-06	6.805565e-06	9.913877e-09	4.684158e+01	6.506764e+02
1.560000e-06	6.830041e-06	9.931900e-09	4.701004e+01	6.518130e+02
1.570000e-06	6.851975e-06	9.946962e-09	4.716101e+01	6.528237e+02
1.580000e-06	6.871589e-06	9.959694e-09	4.729601e+01	6.537149e+02
1.590000e-06	6.888748e-06	9.970574e-09	4.741412e+01	6.544882e+02
1.600000e-06	6.903389e-06	9.979349e-09	4.751489e+01	6.551411e+02
1.610000e-06	6.915469e-06	9.986688e-09	4.759803e+01	6.556695e+02
1.620000e-06	6.924722e-06	9.993211e-09	4.766172e+01	6.560694e+02
1.630000e-06	6.931349e-06	9.998482e-09	4.770733e+01	6.563395e+02
1.640000e-06	6.935727e-06	1.000254e-08	4.773746e+01	6.564821e+02
1.650000e-06	6.937657e-06	1.000690e-08	4.775075e+01	6.565029e+02
1.660000e-06	6.937058e-06	1.000692e-08	4.774662e+01	6.564097e+02
1.670000e-06	6.934228e-06	9.994966e-09	4.772715e+01	6.562103e+02
1.680000e-06	6.929114e-06	9.989432e-09	4.769195e+01	6.559098e+02
1.690000e-06	6.921623e-06	9.981079e-09	4.764039e+01	6.555099e+02
1.700000e-06	6.911912e-06	9.970933e-09	4.757355e+01	6.550081e+02
1.710000e-06	6.899959e-06	9.965559e-09	4.749128e+01	6.543998e+02
1.720000e-06	6.885523e-06	9.969934e-09	4.739192e+01	6.536809e+02
1.730000e-06	6.868804e-06	9.970894e-09	4.727684e+01	6.528515e+02
1.740000e-06	6.850099e-06	9.847490e-09	4.714810e+01	6.519182e+02
1.750000e-06	6.828662e-06	9.815051e-09	4.700055e+01	6.508959e+02
1.760000e-06	6.803761e-06	9.883458e-09	4.682916e+01	6.498065e+02
1.770000e-06	6.775897e-06	9.852847e-09	4.663738e+01	6.486757e+02
1.780000e-06	6.745742e-06	9.879327e-09	4.642983e+01	6.475281e+02
1.790000e-06	6.713830e-06	9.966128e-09	4.621019e+01	6.463810e+02
1.800000e-06	6.680569e-06	9.753939e-09	4.598125e+01	6.452394e+02
1.810000e-06	6.645354e-06	9.782068e-09	4.573888e+01	6.440928e+02
1.820000e-06	6.607418e-06	9.877203e-09	4.547777e+01	6.429149e+02
1.830000e-06	6.567240e-06	9.691470e-09	4.520123e+01	6.416666e+02
1.840000e-06	6.524989e-06	9.859696e-09	4.491042e+01	6.403019e+02
1.850000e-06	6.480454e-06	9.731815e-09	4.460389e+01	6.387753e+02
1.860000e-06	6.433619e-06	9.628063e-09	4.428154e+01	6.370498e+02
1.870000e-06	6.384300e-06	9.763797e-09	4.394208e+01	6.351025e+02
1.880000e-06	6.332756e-06	9.592662e-09	4.358731e+01	6.329283e+02
1.890000e-06	6.278608e-06	9.690908e-09	4.321463e+01	6.305392e+02
1.900000e-06	6.221769e-06	9.615119e-09	4.282341e+01	6.279611e+02
1.910000e-06	6.162709e-06	9.492840e-09	4.241691e+01	6.252272e+02
1.920000e-06	6.101231e-06	9.544894e-09	4.199377e+01	6.223710e+02
1.930000e-06	6.037489e-06	9.382733e-09	4.155504e+01	6.194195e+02
1.940000e-06	5.971615e-06	9.456487e-09	4.110164e+01	6.163884e+02
1.950000e-06	5.903641e-06	9.368166e-09	4.063379e+01	6.132803e+02
1.960000e-06	5.833425e-06	9.320499e-09	4.015050e+01	6.100855e+02
1.970000e-06	5.760726e-06	9.284580e-09	3.965013e+01	6.067862e+02
1.980000e-06	5.685902e-06	9.143178e-09	3.913513e+01	6.033609e+02
1.990000e-06	5.608752e-06	9.200840e-09	3.860412e+01	5.997906e+02
2.000000e-06	5.529325e-06	9.081070e-09	3.805744e+01	5.960624e+02
2.010000e-06	5.448043e-06	9.046920e-09	3.749798e+01	5.921718e+02
2.020000e-06	5.364963e-06	8.979955e-09	3.692616e+01	5.881231e+02
2.030000e-06	5.280040e-06	8.897344e-09	3.634165e+01	5.839267e+02
2.040000e-06	5.192985e-06	8.854740e-09	3.574246e+01	5.795958e+02
2.050000e-06	5.104029e-06	8.760991e-09	3.513019e+01	5.751425e+02
2.060000e-06	5.013539e-06	8.730672e-09	3.450736e+01	5.705745e+02
2.070000e-06	4.921503e-06	8.615067e-09	3.387389e+01	5.658931e+02
2.080000e-06	4.827599e-06	8.554997e-09	3.322757e+01	5.610927e+02
2.090000e-06	4.731779e-06	8.479477e-09	3.256805e+01	5.561625e+02
2.100000e-06	4.634381e-06	8.429136e-09	3.189768e+01	5.510881e+02
2.110000e-06	4.535527e-06	8.347525e-09	3.121728e+01	5.458550e+02
2.120000e-06	4.435139e-06	8.235880e-09	3.052633e+01	5.404506e+02
2.130000e-06	4.332987e-06	8.155645e-09	2.982323e+01	5.348659e+02
2.140000e-06	4.229148e-06	8.061179e-09	2.910853e+01	5.290964e+02
2.150000e-06	4.123866e-06	7.991989e-09	2.838389e+01	5.231413e+02
2.160000e-06	4.017247e-06	7.896446e-09	2.765005e+01	5.170026e+02
2.170000e-06	3.909225e-06	7.810420e-09	2.690655e+01	5.106831e+02
2.180000e-06	3.799773e-06	7.695036e-09	2.615321e+01	5.041854e+02
2.190000e-06	3.688803e-06	7.586697e-09	2.538942e+01	4.975104e+02
2.200000e-06	3.576451e-06	7.478665e-09	2.461612e+01	4.906568e+02
2.210000e-06	3.462836e-06	7.382931e-09	2.383413e+01	4.836209e+02
2.220000e-06	3.347816e-06	7.277655e-09	2.304246e+01	4.763968e+02
2.230000e-06	3.231396e-06	7.158331e-09	2.224117e+01	4.689772e+02
2.240000e-06	3.113585e-06	7.040799e-09	2.143029e+01	4.613533e+02
2.250000e-06	2.994465e-06	6.918760e-09	2.061041e+01	4.535158e+02
2.260000e-06	2.874176e-06	6.802835e-09	1.978248e+01	4.454549e+02
2.270000e-06	2.752926e-06	6.670910e-09	1.894794e+01	4.371608e+02
2.280000e-06	2.630799e-06	6.541182e-09	1.810736e+01	4.286241e+02
2.290000e-06	2.507797e-06	6.406934e-09	1.726075e+01	4.198361e+02
2.300000e-06	2.383865e-06	6.275555e-09	1.640775e+01	4.107892e+02
2.310000e-06	2.259093e-06	6.137258e-09	1.554897e+01	4.014774e+02
2.320000e-06	2.133566e-06	5.995863e-09	1.468498e+01	3.918964e+02
2.330000e-06	2.007191e-06	5.840792e-09	1.381516e+01	3.820432e+02
2.340000e-06	1.880048e-06	5.678800e-09	1.294006e+01	3.719156e+02
2.350000e-06	1.752239e-06	5.517363e-09	1.206037e+01	3.615111e+02
2.360000e-06	1.623851e-06	5.359072e-09	1.117670e+01	3.508259e+02
2.370000e-06	1.494979e-06	5.200430e-09	1.028970e+01	3.398535e+02
2.380000e-06	1.365691e-06	5.028616e-09	9.399823e+00	3.285843e+02
2.390000e-06	1.236015e-06	4.850055e-09	8.507291e+00	3.170049e+02
2.400000e-06	1.105952e-06	4.662285e-09	7.612083e+00	3.050989e+02
2.410000e-06	9.755024e-07	4.471529e-09	6.714222e+00	2.928477e+02
2.420000e-06	8.447515e-07	4.280555e-09	5.814285e+00	2.802320e+02
2.430000e-06	7.137730e-07	4.084209e-09	4.912782e+00	2.672333e+02
2.440000e-06	5.826115e-07	3.879947e-09	4.010019e+00	2.538356e+02
2.450000e-06	4.512653e-07	3.668370e-09	3.105984e+00	2.400255e+02
2.460000e-06	3.197114e-07	3.449831e-09	2.200521e+00	2.257931e+02
2.470000e-06	1.879594e-07	3.226627e-09	1.293694e+00	2.111305e+02
2.480000e-06	5.610989e-08	2.996521e-09	3.861951e-01	1.960305e+02
2.490000e-06	-7.571168e-08	2.760091e-09	-5.211110e-01	1.804845e+02
2.500000e-06	-2.074725e-07	2.517273e-09	-1.427999e+00	1.644801e+02
2.510000e-06	-3.391496e-07	2.264212e-09	-2.334311e+00	1.479989e+02
2.520000e-06	-4.707990e-07	2.001482e-09	-3.240432e+00	1.310159e+02
2.530000e-06	-6.023235e-07	1.731625e-09	-4.145693e+00	1.134986e+02
2.540000e-06	-7.336088e-07	1.454818e-09	-5.049308e+00	9.540898e+01
2.550000e-06	-8.646884e-07	1.169900e-09	-5.951508e+00	7.670645e+01
2.560000e-06	-9.954423e-07	8.781642e-10	-6.851465e+00	5.735285e+01
2.570000e-06	-1.125799e-06	5.766771e-10	-7.748688e+00	3.731875e+01
2.580000e-06	-1.255847e-06	2.647899e-10	-8.643789e+00	1.659081e+01
2.590000e-06	-1.385472e-06	-5.822561e-11	-9.535978e+00	-4.820875e+00
2.600000e-06	-1.514616e-06	-3.948088e-10	-1.042485e+01	-2.687615e+01
2.610000e-06	-1.643263e-06	-7.424351e-10	-1.131031e+01	-4.950028e+01
2.620000e-06	-1.771289e-06	-1.098673e-09	-1.219149e+01	-7.258240e+01
2.630000e-06	-1.898697e-06	-1.458462e-09	-1.306842e+01	-9.597765e+01
2.640000e-06	-2.025417e-06	-1.816383e-09	-1.394061e+01	-1.195135e+02
2.650000e-06	-2.151317e-06	-2.173258e-09	-1.480716e+01	-1.429997e+02
2.660000e-06	-2.276369e-06	-2.528538e-09	-1.566787e+01	-1.662411e+02
2.670000e-06	-2.400494e-06	-2.875853e-09	-1.652220e+01	-1.890512e+02
2.680000e-06	-2.523631e-06	-3.213574e-09	-1.736974e+01	-2.112664e+02
2.690000e-06	-2.645784e-06	-3.539468e-09	-1.821050e+01	-2.327562e+02
2.700000e-06	-2.766992e-06	-3.854373e-09	-1.904475e+01	-2.534302e+02
2.710000e-06	-2.887218e-06	-4.156195e-09	-1.987224e+01	-2.732402e+02
2.720000e-06	-3.006342e-06	-4.443101e-09	-2.069216e+01	-2.921762e+02
2.730000e-06	-3.124273e-06	-4.720103e-09	-2.150386e+01	-3.102596e+02
2.740000e-06	-3.240934e-06	-4.987588e-09	-2.230682e+01	-3.275316e+02
2.750000e-06	-3.356309e-06	-5.243205e-09	-2.310092e+01	-3.440429e+02
2.760000e-06	-3.470361e-06	-5.483779e-09	-2.388592e+01	-3.598427e+02
2.770000e-06	-3.583035e-06	-5.712814e-09	-2.466144e+01	-3.749719e+02
2.780000e-06	-3.694258e-06	-5.933066e-09	-2.542697e+01	-3.894599e+02
2.790000e-06	-3.804065e-06	-6.143382e-09	-2.618275e+01	-4.033251e+02
2.800000e-06	-3.912638e-06	-6.346630e-09	-2.693004e+01	-4.165787e+02
2.810000e-06	-4.019984e-06	-6.542485e-09	-2.766888e+01	-4.292306e+02
2.820000e-06	-4.126022e-06	-6.730860e-09	-2.839873e+01	-4.412948e+02
2.830000e-06	-4.230617e-06	-6.908239e-09	-2.911864e+01	-4.527933e+02
2.840000e-06	-4.333554e-06	-7.075112e-09	-2.982714e+01	-4.637571e+02
2.850000e-06	-4.434774e-06	-7.234978e-09	-3.052382e+01	-4.742250e+02
2.860000e-06	-4.534405e-06	-7.388032e-09	-3.120956e+01	-4.842387e+02
2.870000e-06	-4.632581e-06	-7.535325e-09	-3.188529e+01	-4.938374e+02
2.880000e-06	-4.729242e-06	-7.674116e-09	-3.255059e+01	-5.030526e+02
2.890000e-06	-4.824219e-06	-7.806611e-09	-3.320430e+01	-5.119041e+02
2.900000e-06	-4.917370e-06	-7.933388e-09	-3.384545e+01	-5.203989e+02
2.910000e-06	-5.008750e-06	-8.055933e-09	-3.447440e+01	-5.285334e+02
2.920000e-06	-5.098386e-06	-8.174781e-09	-3.509135e+01	-5.362971e+02
2.930000e-06	-5.186143e-06	-8.287784e-09	-3.569537e+01	-5.436792e+02
2.940000e-06	-5.271889e-06	-8.394425e-09	-3.628554e+01	-5.506739e+02
