# Temperatura_=_83.21
# Concentracion g/m^3_=_15000.0
# C_Vs_to_Am_M_A/Vsm_=_65563218390.804596
# pendiente_HvsI_1/m_=_3716.3
# ordenada_HvsI_A/m_=_1297.0
# frecuencia_Hz_=_301963.9368161857

Tiempo_(s)	Campo_(V.s)	Magnetizacion_(V.s)	Campo_(kA/m)	Magnetizacion_(A/m)
0.000000e+00	-6.910092e-06	-1.279271e-08	-4.747031e+01	-8.374244e+02
1.000000e-08	-6.905974e-06	-1.279007e-08	-4.744202e+01	-8.370996e+02
2.000000e-08	-6.899743e-06	-1.278153e-08	-4.739921e+01	-8.366242e+02
3.000000e-08	-6.891357e-06	-1.277319e-08	-4.734160e+01	-8.359857e+02
4.000000e-08	-6.880528e-06	-1.276160e-08	-4.726721e+01	-8.351710e+02
5.000000e-08	-6.867162e-06	-1.274809e-08	-4.717539e+01	-8.341707e+02
6.000000e-08	-6.851348e-06	-1.272493e-08	-4.706676e+01	-8.329830e+02
7.000000e-08	-6.833250e-06	-1.270381e-08	-4.694242e+01	-8.316171e+02
8.000000e-08	-6.813033e-06	-1.273784e-08	-4.680354e+01	-8.300946e+02
9.000000e-08	-6.790265e-06	-1.274211e-08	-4.664713e+01	-8.284485e+02
1.000000e-07	-6.764532e-06	-1.266320e-08	-4.647035e+01	-8.267192e+02
1.100000e-07	-6.736062e-06	-1.261406e-08	-4.627477e+01	-8.249487e+02
1.200000e-07	-6.705372e-06	-1.259199e-08	-4.606394e+01	-8.231720e+02
1.300000e-07	-6.672797e-06	-1.249757e-08	-4.584016e+01	-8.214101e+02
1.400000e-07	-6.638331e-06	-1.246931e-08	-4.560339e+01	-8.196628e+02
1.500000e-07	-6.601863e-06	-1.256812e-08	-4.535286e+01	-8.179064e+02
1.600000e-07	-6.563292e-06	-1.241183e-08	-4.508789e+01	-8.160938e+02
1.700000e-07	-6.522574e-06	-1.238956e-08	-4.480817e+01	-8.141608e+02
1.800000e-07	-6.479393e-06	-1.244086e-08	-4.451153e+01	-8.120351e+02
1.900000e-07	-6.433669e-06	-1.231659e-08	-4.419742e+01	-8.096474e+02
2.000000e-07	-6.385613e-06	-1.237300e-08	-4.386729e+01	-8.069434e+02
2.100000e-07	-6.334903e-06	-1.230658e-08	-4.351893e+01	-8.038924e+02
2.200000e-07	-6.281576e-06	-1.218944e-08	-4.315259e+01	-8.004919e+02
2.300000e-07	-6.225840e-06	-1.212674e-08	-4.276970e+01	-7.967674e+02
2.400000e-07	-6.167648e-06	-1.203546e-08	-4.236993e+01	-7.927660e+02
2.500000e-07	-6.107183e-06	-1.202177e-08	-4.195456e+01	-7.885461e+02
2.600000e-07	-6.044523e-06	-1.198190e-08	-4.152410e+01	-7.841659e+02
2.700000e-07	-5.979628e-06	-1.189033e-08	-4.107830e+01	-7.796714e+02
2.800000e-07	-5.912523e-06	-1.178600e-08	-4.061730e+01	-7.750883e+02
2.900000e-07	-5.843184e-06	-1.172792e-08	-4.014096e+01	-7.704188e+02
3.000000e-07	-5.771702e-06	-1.169509e-08	-3.964990e+01	-7.656434e+02
3.100000e-07	-5.698046e-06	-1.159427e-08	-3.914390e+01	-7.607278e+02
3.200000e-07	-5.622045e-06	-1.153841e-08	-3.862180e+01	-7.556324e+02
3.300000e-07	-5.543683e-06	-1.144194e-08	-3.808348e+01	-7.503230e+02
3.400000e-07	-5.463186e-06	-1.133301e-08	-3.753048e+01	-7.447784e+02
3.500000e-07	-5.380783e-06	-1.127071e-08	-3.696440e+01	-7.389952e+02
3.600000e-07	-5.296552e-06	-1.119120e-08	-3.638576e+01	-7.329869e+02
3.700000e-07	-5.210615e-06	-1.110031e-08	-3.579540e+01	-7.267794e+02
3.800000e-07	-5.122892e-06	-1.097502e-08	-3.519277e+01	-7.204025e+02
3.900000e-07	-5.033296e-06	-1.088076e-08	-3.457727e+01	-7.138818e+02
4.000000e-07	-4.941877e-06	-1.079610e-08	-3.394925e+01	-7.072312e+02
4.100000e-07	-4.848772e-06	-1.070878e-08	-3.330964e+01	-7.004490e+02
4.200000e-07	-4.754082e-06	-1.059492e-08	-3.265915e+01	-6.935184e+02
4.300000e-07	-4.657642e-06	-1.046409e-08	-3.199663e+01	-6.864119e+02
4.400000e-07	-4.559429e-06	-1.034991e-08	-3.132194e+01	-6.790983e+02
4.500000e-07	-4.459537e-06	-1.023209e-08	-3.063572e+01	-6.715503e+02
4.600000e-07	-4.358132e-06	-1.012627e-08	-2.993909e+01	-6.637506e+02
4.700000e-07	-4.255285e-06	-1.001214e-08	-2.923256e+01	-6.556954e+02
4.800000e-07	-4.150836e-06	-9.876713e-09	-2.851503e+01	-6.473938e+02
4.900000e-07	-4.044838e-06	-9.732982e-09	-2.778685e+01	-6.388636e+02
5.000000e-07	-3.937366e-06	-9.605849e-09	-2.704855e+01	-6.301252e+02
5.100000e-07	-3.828431e-06	-9.483388e-09	-2.630020e+01	-6.211948e+02
5.200000e-07	-3.718169e-06	-9.347517e-09	-2.554273e+01	-6.120797e+02
5.300000e-07	-3.606527e-06	-9.197154e-09	-2.477578e+01	-6.027751e+02
5.400000e-07	-3.493407e-06	-9.038320e-09	-2.399868e+01	-5.932661e+02
5.500000e-07	-3.378882e-06	-8.886588e-09	-2.321193e+01	-5.835307e+02
5.600000e-07	-3.262927e-06	-8.738870e-09	-2.241535e+01	-5.735457e+02
5.700000e-07	-3.145643e-06	-8.591022e-09	-2.160965e+01	-5.632921e+02
5.800000e-07	-3.027272e-06	-8.431951e-09	-2.079647e+01	-5.527590e+02
5.900000e-07	-2.907818e-06	-8.264112e-09	-1.997586e+01	-5.419441e+02
6.000000e-07	-2.787209e-06	-8.094786e-09	-1.914731e+01	-5.308523e+02
6.100000e-07	-2.665516e-06	-7.927890e-09	-1.831132e+01	-5.194915e+02
6.200000e-07	-2.542847e-06	-7.748951e-09	-1.746861e+01	-5.078672e+02
6.300000e-07	-2.419189e-06	-7.555509e-09	-1.661912e+01	-4.959785e+02
6.400000e-07	-2.294612e-06	-7.360975e-09	-1.576331e+01	-4.838160e+02
6.500000e-07	-2.169284e-06	-7.170054e-09	-1.490234e+01	-4.713623e+02
6.600000e-07	-2.043366e-06	-6.982358e-09	-1.403733e+01	-4.585953e+02
6.700000e-07	-1.916833e-06	-6.790349e-09	-1.316808e+01	-4.454933e+02
6.800000e-07	-1.789476e-06	-6.590324e-09	-1.229318e+01	-4.320393e+02
6.900000e-07	-1.661300e-06	-6.377065e-09	-1.141264e+01	-4.182248e+02
7.000000e-07	-1.532524e-06	-6.157141e-09	-1.052799e+01	-4.040502e+02
7.100000e-07	-1.403278e-06	-5.937797e-09	-9.640112e+00	-3.895216e+02
7.200000e-07	-1.273644e-06	-5.714610e-09	-8.749561e+00	-3.746458e+02
7.300000e-07	-1.143671e-06	-5.480930e-09	-7.856682e+00	-3.594241e+02
7.400000e-07	-1.013353e-06	-5.237567e-09	-6.961436e+00	-3.438461e+02
7.500000e-07	-8.826808e-07	-4.991163e-09	-6.063759e+00	-3.278871e+02
7.600000e-07	-7.516905e-07	-4.743488e-09	-5.163893e+00	-3.115085e+02
7.700000e-07	-6.204559e-07	-4.491063e-09	-4.262350e+00	-2.946621e+02
7.800000e-07	-4.890294e-07	-4.229816e-09	-3.359489e+00	-2.772972e+02
7.900000e-07	-3.574152e-07	-3.959579e-09	-2.455338e+00	-2.593682e+02
8.000000e-07	-2.255796e-07	-3.675723e-09	-1.549666e+00	-2.408408e+02
8.100000e-07	-9.358256e-08	-3.380619e-09	-6.428848e-01	-2.216951e+02
8.200000e-07	3.847806e-08	-3.078258e-09	2.643330e-01	-2.019235e+02
8.300000e-07	1.705471e-07	-2.764793e-09	1.171609e+00	-1.815241e+02
8.400000e-07	3.026258e-07	-2.441472e-09	2.078951e+00	-1.604923e+02
8.500000e-07	4.346108e-07	-2.111475e-09	2.985649e+00	-1.388107e+02
8.600000e-07	5.664133e-07	-1.773288e-09	3.891094e+00	-1.164426e+02
8.700000e-07	6.980236e-07	-1.420103e-09	4.795218e+00	-9.333068e+01
8.800000e-07	8.294431e-07	-1.052156e-09	5.698031e+00	-6.940236e+01
8.900000e-07	9.605909e-07	-6.712580e-10	6.598978e+00	-4.458231e+01
9.000000e-07	1.091333e-06	-2.768306e-10	7.497140e+00	-1.880985e+01
9.100000e-07	1.221647e-06	1.309267e-10	8.392356e+00	7.941527e+00
9.200000e-07	1.351545e-06	5.523969e-10	9.284716e+00	3.564653e+01
9.300000e-07	1.481026e-06	9.872384e-10	1.017421e+01	6.421613e+01
9.400000e-07	1.610032e-06	1.435073e-09	1.106045e+01	9.349410e+01
9.500000e-07	1.738462e-06	1.891162e-09	1.194272e+01	1.232632e+02
9.600000e-07	1.866237e-06	2.351642e-09	1.282050e+01	1.532603e+02
9.700000e-07	1.993178e-06	2.811118e-09	1.369255e+01	1.831983e+02
9.800000e-07	2.119364e-06	3.263605e-09	1.455941e+01	2.127910e+02
9.900000e-07	2.244926e-06	3.704404e-09	1.542198e+01	2.417763e+02
1.000000e-06	2.369739e-06	4.130912e-09	1.627941e+01	2.699358e+02
1.010000e-06	2.493677e-06	4.541833e-09	1.713083e+01	2.971059e+02
1.020000e-06	2.616627e-06	4.935958e-09	1.797546e+01	3.231820e+02
1.030000e-06	2.738610e-06	5.316307e-09	1.881345e+01	3.481138e+02
1.040000e-06	2.859650e-06	5.680169e-09	1.964496e+01	3.718966e+02
1.050000e-06	2.979581e-06	6.025817e-09	2.046885e+01	3.945580e+02
1.060000e-06	3.098301e-06	6.354832e-09	2.128442e+01	4.161461e+02
1.070000e-06	3.215963e-06	6.669470e-09	2.209273e+01	4.367178e+02
1.080000e-06	3.332496e-06	6.968247e-09	2.289327e+01	4.563322e+02
1.090000e-06	3.447683e-06	7.252083e-09	2.368457e+01	4.750461e+02
1.100000e-06	3.561509e-06	7.521811e-09	2.446652e+01	4.929128e+02
1.110000e-06	3.673937e-06	7.779071e-09	2.523887e+01	5.099827e+02
1.120000e-06	3.784949e-06	8.024560e-09	2.600149e+01	5.263044e+02
1.130000e-06	3.894734e-06	8.259280e-09	2.675568e+01	5.419246e+02
1.140000e-06	4.003344e-06	8.487496e-09	2.750180e+01	5.568879e+02
1.150000e-06	4.110556e-06	8.708866e-09	2.823832e+01	5.712352e+02
1.160000e-06	4.216274e-06	8.922593e-09	2.896457e+01	5.850022e+02
1.170000e-06	4.320462e-06	9.125799e-09	2.968031e+01	5.982181e+02
1.180000e-06	4.423054e-06	9.318042e-09	3.038509e+01	6.109059e+02
1.190000e-06	4.524143e-06	9.499568e-09	3.107954e+01	6.230832e+02
1.200000e-06	4.623650e-06	9.671576e-09	3.176312e+01	6.347650e+02
1.210000e-06	4.721458e-06	9.835406e-09	3.243503e+01	6.459664e+02
1.220000e-06	4.817445e-06	9.995216e-09	3.309443e+01	6.567049e+02
1.230000e-06	4.911673e-06	1.015203e-08	3.374175e+01	6.670021e+02
1.240000e-06	5.004314e-06	1.030665e-08	3.437817e+01	6.768831e+02
1.250000e-06	5.095216e-06	1.045922e-08	3.500264e+01	6.863753e+02
1.260000e-06	5.184207e-06	1.060355e-08	3.561399e+01	6.955047e+02
1.270000e-06	5.271237e-06	1.073894e-08	3.621185e+01	7.042933e+02
1.280000e-06	5.356449e-06	1.086603e-08	3.679724e+01	7.127561e+02
1.290000e-06	5.439885e-06	1.098841e-08	3.737042e+01	7.208997e+02
1.300000e-06	5.521316e-06	1.110657e-08	3.792982e+01	7.287233e+02
1.310000e-06	5.600653e-06	1.121834e-08	3.847485e+01	7.362201e+02
1.320000e-06	5.677981e-06	1.133057e-08	3.900606e+01	7.433815e+02
1.330000e-06	5.753215e-06	1.143963e-08	3.952290e+01	7.502009e+02
1.340000e-06	5.826148e-06	1.153951e-08	4.002393e+01	7.566767e+02
1.350000e-06	5.896848e-06	1.163160e-08	4.050962e+01	7.628150e+02
1.360000e-06	5.965577e-06	1.171790e-08	4.098177e+01	7.686297e+02
1.370000e-06	6.032226e-06	1.179995e-08	4.143962e+01	7.741414e+02
1.380000e-06	6.096607e-06	1.187770e-08	4.188190e+01	7.793747e+02
1.390000e-06	6.158882e-06	1.195169e-08	4.230971e+01	7.843550e+02
1.400000e-06	6.219150e-06	1.202407e-08	4.272374e+01	7.891050e+02
1.410000e-06	6.277243e-06	1.209491e-08	4.312282e+01	7.936423e+02
1.420000e-06	6.333094e-06	1.216158e-08	4.350650e+01	7.979781e+02
1.430000e-06	6.386681e-06	1.222576e-08	4.387463e+01	8.021175e+02
1.440000e-06	6.437646e-06	1.228732e-08	4.422475e+01	8.060603e+02
1.450000e-06	6.485942e-06	1.234627e-08	4.455652e+01	8.098032e+02
1.460000e-06	6.531896e-06	1.240070e-08	4.487221e+01	8.133416e+02
1.470000e-06	6.575725e-06	1.244946e-08	4.517330e+01	8.166716e+02
1.480000e-06	6.617218e-06	1.249536e-08	4.545835e+01	8.197906e+02
1.490000e-06	6.656204e-06	1.253894e-08	4.572617e+01	8.226981e+02
1.500000e-06	6.692981e-06	1.257938e-08	4.597882e+01	8.253953e+02
1.510000e-06	6.727412e-06	1.261712e-08	4.621535e+01	8.278838e+02
1.520000e-06	6.759308e-06	1.265197e-08	4.643447e+01	8.301655e+02
1.530000e-06	6.788897e-06	1.268370e-08	4.663774e+01	8.322415e+02
1.540000e-06	6.816280e-06	1.271319e-08	4.682585e+01	8.341120e+02
1.550000e-06	6.841083e-06	1.273928e-08	4.699624e+01	8.357768e+02
1.560000e-06	6.863235e-06	1.276050e-08	4.714841e+01	8.372357e+02
1.570000e-06	6.883170e-06	1.277757e-08	4.728536e+01	8.384897e+02
1.580000e-06	6.900684e-06	1.279085e-08	4.740567e+01	8.395417e+02
1.590000e-06	6.915528e-06	1.280091e-08	4.750765e+01	8.403976e+02
1.600000e-06	6.927827e-06	1.280912e-08	4.759214e+01	8.410660e+02
1.610000e-06	6.937359e-06	1.281666e-08	4.765762e+01	8.415578e+02
1.620000e-06	6.944233e-06	1.282345e-08	4.770485e+01	8.418854e+02
1.630000e-06	6.948807e-06	1.282829e-08	4.773627e+01	8.420605e+02
1.640000e-06	6.950915e-06	1.283200e-08	4.775075e+01	8.420925e+02
1.650000e-06	6.950556e-06	1.283483e-08	4.774828e+01	8.419865e+02
1.660000e-06	6.947947e-06	1.282640e-08	4.773036e+01	8.417420e+02
1.670000e-06	6.943113e-06	1.281746e-08	4.769715e+01	8.413528e+02
1.680000e-06	6.935943e-06	1.280446e-08	4.764790e+01	8.408080e+02
1.690000e-06	6.926493e-06	1.278835e-08	4.758298e+01	8.400942e+02
1.700000e-06	6.914764e-06	1.277432e-08	4.750240e+01	8.391995e+02
1.710000e-06	6.900526e-06	1.276355e-08	4.740459e+01	8.381172e+02
1.720000e-06	6.884011e-06	1.275565e-08	4.729114e+01	8.368500e+02
1.730000e-06	6.865485e-06	1.267401e-08	4.716387e+01	8.354124e+02
1.740000e-06	6.844345e-06	1.261746e-08	4.701864e+01	8.338311e+02
1.750000e-06	6.819826e-06	1.265119e-08	4.685021e+01	8.321429e+02
1.760000e-06	6.792291e-06	1.262831e-08	4.666105e+01	8.303898e+02
1.770000e-06	6.762377e-06	1.260301e-08	4.645555e+01	8.286117e+02
1.780000e-06	6.730564e-06	1.267925e-08	4.623700e+01	8.268386e+02
1.790000e-06	6.697392e-06	1.255953e-08	4.600912e+01	8.250831e+02
1.800000e-06	6.662438e-06	1.249724e-08	4.576900e+01	8.233350e+02
1.810000e-06	6.624806e-06	1.260584e-08	4.551048e+01	8.215602e+02
1.820000e-06	6.584811e-06	1.247149e-08	4.523572e+01	8.197033e+02
1.830000e-06	6.542722e-06	1.251147e-08	4.494658e+01	8.176954e+02
1.840000e-06	6.498271e-06	1.245476e-08	4.464122e+01	8.154640e+02
1.850000e-06	6.451520e-06	1.229144e-08	4.432005e+01	8.129450e+02
1.860000e-06	6.402326e-06	1.238555e-08	4.398210e+01	8.100932e+02
1.870000e-06	6.350831e-06	1.228354e-08	4.362835e+01	8.068897e+02
1.880000e-06	6.296837e-06	1.231112e-08	4.325743e+01	8.033446e+02
1.890000e-06	6.240145e-06	1.227966e-08	4.286796e+01	7.994934e+02
1.900000e-06	6.181168e-06	1.208250e-08	4.246281e+01	7.953897e+02
1.910000e-06	6.119804e-06	1.208377e-08	4.204126e+01	7.910932e+02
1.920000e-06	6.056138e-06	1.197381e-08	4.160389e+01	7.866582e+02
1.930000e-06	5.990382e-06	1.196984e-08	4.115217e+01	7.821226e+02
1.940000e-06	5.922454e-06	1.191170e-08	4.068553e+01	7.775024e+02
1.950000e-06	5.852260e-06	1.179828e-08	4.020331e+01	7.727897e+02
1.960000e-06	5.779688e-06	1.174740e-08	3.970476e+01	7.679577e+02
1.970000e-06	5.704920e-06	1.158942e-08	3.919113e+01	7.629685e+02
1.980000e-06	5.627858e-06	1.158349e-08	3.866174e+01	7.577837e+02
1.990000e-06	5.548543e-06	1.149563e-08	3.811686e+01	7.523739e+02
2.000000e-06	5.467333e-06	1.139389e-08	3.755897e+01	7.467251e+02
2.010000e-06	5.384287e-06	1.130535e-08	3.698848e+01	7.408417e+02
2.020000e-06	5.299361e-06	1.118818e-08	3.640506e+01	7.347431e+02
2.030000e-06	5.212397e-06	1.112578e-08	3.580764e+01	7.284582e+02
2.040000e-06	5.123499e-06	1.100385e-08	3.519694e+01	7.220159e+02
2.050000e-06	5.032976e-06	1.092366e-08	3.457507e+01	7.154374e+02
2.060000e-06	4.940824e-06	1.080045e-08	3.394201e+01	7.087302e+02
2.070000e-06	4.846913e-06	1.069672e-08	3.329687e+01	7.018860e+02
2.080000e-06	4.751155e-06	1.059975e-08	3.263904e+01	6.948825e+02
2.090000e-06	4.653731e-06	1.050285e-08	3.196977e+01	6.876898e+02
2.100000e-06	4.554866e-06	1.040267e-08	3.129060e+01	6.802774e+02
2.110000e-06	4.454437e-06	1.024969e-08	3.060068e+01	6.726216e+02
2.120000e-06	4.352328e-06	1.012213e-08	2.989922e+01	6.647108e+02
2.130000e-06	4.248598e-06	9.999687e-09	2.918662e+01	6.565470e+02
2.140000e-06	4.143314e-06	9.894304e-09	2.846335e+01	6.481437e+02
2.150000e-06	4.036595e-06	9.768811e-09	2.773022e+01	6.395206e+02
2.160000e-06	3.928406e-06	9.635457e-09	2.698700e+01	6.306971e+02
2.170000e-06	3.818810e-06	9.485461e-09	2.623410e+01	6.216861e+02
2.180000e-06	3.707831e-06	9.338563e-09	2.547171e+01	6.124897e+02
2.190000e-06	3.595368e-06	9.203483e-09	2.469913e+01	6.030987e+02
2.200000e-06	3.481599e-06	9.065876e-09	2.391757e+01	5.934942e+02
2.210000e-06	3.366424e-06	8.916595e-09	2.312635e+01	5.836533e+02
2.220000e-06	3.249773e-06	8.745547e-09	2.232499e+01	5.735539e+02
2.230000e-06	3.131825e-06	8.581512e-09	2.151472e+01	5.631801e+02
2.240000e-06	3.012702e-06	8.421016e-09	2.069638e+01	5.525247e+02
2.250000e-06	2.892388e-06	8.266844e-09	1.986986e+01	5.415890e+02
2.260000e-06	2.770993e-06	8.101219e-09	1.903591e+01	5.303798e+02
2.270000e-06	2.648759e-06	7.926596e-09	1.819620e+01	5.189044e+02
2.280000e-06	2.525629e-06	7.743948e-09	1.735033e+01	5.071661e+02
2.290000e-06	2.401465e-06	7.563588e-09	1.649736e+01	4.951604e+02
2.300000e-06	2.276323e-06	7.380517e-09	1.563767e+01	4.828744e+02
2.310000e-06	2.150492e-06	7.187993e-09	1.477325e+01	4.702880e+02
2.320000e-06	2.024017e-06	6.983467e-09	1.390441e+01	4.573787e+02
2.330000e-06	1.896791e-06	6.770635e-09	1.303040e+01	4.441261e+02
2.340000e-06	1.768856e-06	6.563642e-09	1.215152e+01	4.305169e+02
2.350000e-06	1.640300e-06	6.359001e-09	1.126838e+01	4.165464e+02
2.360000e-06	1.511152e-06	6.149878e-09	1.038117e+01	4.022178e+02
2.370000e-06	1.381541e-06	5.926117e-09	9.490779e+00	3.875385e+02
2.380000e-06	1.251624e-06	5.691378e-09	8.598293e+00	3.725137e+02
2.390000e-06	1.121447e-06	5.452447e-09	7.704014e+00	3.571401e+02
2.400000e-06	9.910027e-07	5.213600e-09	6.807899e+00	3.414014e+02
2.410000e-06	8.602327e-07	4.972482e-09	5.909547e+00	3.252668e+02
2.420000e-06	7.291893e-07	4.718326e-09	5.009317e+00	3.086927e+02
2.430000e-06	5.978603e-07	4.451931e-09	4.107125e+00	2.916289e+02
2.440000e-06	4.662529e-07	4.177884e-09	3.203021e+00	2.740260e+02
2.450000e-06	3.343896e-07	3.899478e-09	2.297159e+00	2.558426e+02
2.460000e-06	2.023273e-07	3.618863e-09	1.389929e+00	2.370507e+02
2.470000e-06	7.011544e-08	3.329940e-09	4.816725e-01	2.176358e+02
2.480000e-06	-6.220596e-08	3.028299e-09	-4.273367e-01	1.975941e+02
2.490000e-06	-1.944847e-07	2.713111e-09	-1.336053e+00	1.769236e+02
2.500000e-06	-3.266055e-07	2.387899e-09	-2.243684e+00	1.556152e+02
2.510000e-06	-4.585427e-07	2.052756e-09	-3.150054e+00	1.336438e+02
2.520000e-06	-5.903544e-07	1.704683e-09	-4.055562e+00	1.109638e+02
2.530000e-06	-7.219446e-07	1.342669e-09	-4.959548e+00	8.751012e+01
2.540000e-06	-8.531886e-07	9.698981e-10	-5.861155e+00	6.320719e+01
2.550000e-06	-9.840768e-07	5.888902e-10	-6.760319e+00	3.798359e+01
2.560000e-06	-1.114594e-06	1.957691e-10	-7.656934e+00	1.179092e+01
2.570000e-06	-1.244802e-06	-2.137942e-10	-8.551427e+00	-1.537703e+01
2.580000e-06	-1.374728e-06	-6.391941e-10	-9.443976e+00	-4.346868e+01
2.590000e-06	-1.504272e-06	-1.078626e-09	-1.033391e+01	-7.236606e+01
2.600000e-06	-1.633258e-06	-1.531453e-09	-1.122001e+01	-1.018855e+02
2.610000e-06	-1.761609e-06	-1.989551e-09	-1.210174e+01	-1.317877e+02
2.620000e-06	-1.889204e-06	-2.448026e-09	-1.297828e+01	-1.617964e+02
2.630000e-06	-2.015989e-06	-2.903830e-09	-1.384925e+01	-1.916218e+02
2.640000e-06	-2.142108e-06	-3.352760e-09	-1.471565e+01	-2.209853e+02
2.650000e-06	-2.267514e-06	-3.792610e-09	-1.557715e+01	-2.496417e+02
2.660000e-06	-2.392041e-06	-4.216116e-09	-1.643262e+01	-2.773951e+02
2.670000e-06	-2.515549e-06	-4.621371e-09	-1.728109e+01	-3.041070e+02
2.680000e-06	-2.638076e-06	-5.007749e-09	-1.812281e+01	-3.296972e+02
2.690000e-06	-2.759688e-06	-5.378064e-09	-1.895825e+01	-3.541362e+02
2.700000e-06	-2.880298e-06	-5.735274e-09	-1.978681e+01	-3.774348e+02
2.710000e-06	-2.999787e-06	-6.078793e-09	-2.060765e+01	-3.996309e+02
2.720000e-06	-3.118085e-06	-6.405617e-09	-2.142033e+01	-4.207774e+02
2.730000e-06	-3.235231e-06	-6.714623e-09	-2.222509e+01	-4.409330e+02
2.740000e-06	-3.351066e-06	-7.009569e-09	-2.302084e+01	-4.601559e+02
2.750000e-06	-3.465460e-06	-7.290681e-09	-2.380670e+01	-4.785016e+02
2.760000e-06	-3.578510e-06	-7.557972e-09	-2.458331e+01	-4.960220e+02
2.770000e-06	-3.690198e-06	-7.811855e-09	-2.535058e+01	-5.127667e+02
2.780000e-06	-3.800462e-06	-8.053347e-09	-2.610806e+01	-5.287834e+02
2.790000e-06	-3.909427e-06	-8.286542e-09	-2.685662e+01	-5.441180e+02
2.800000e-06	-4.017127e-06	-8.510864e-09	-2.759649e+01	-5.588138e+02
2.810000e-06	-4.123514e-06	-8.727029e-09	-2.832734e+01	-5.729097e+02
2.820000e-06	-4.228496e-06	-8.936884e-09	-2.904853e+01	-5.864386e+02
2.830000e-06	-4.331909e-06	-9.137770e-09	-2.975894e+01	-5.994270e+02
2.840000e-06	-4.433708e-06	-9.330928e-09	-3.045828e+01	-6.118953e+02
2.850000e-06	-4.533856e-06	-9.517907e-09	-3.114627e+01	-6.238597e+02
2.860000e-06	-4.632449e-06	-9.697291e-09	-3.182357e+01	-6.353349e+02
2.870000e-06	-4.729452e-06	-9.865102e-09	-3.248995e+01	-6.463368e+02
2.880000e-06	-4.824742e-06	-1.002199e-08	-3.314456e+01	-6.568845e+02
2.890000e-06	-4.918304e-06	-1.017352e-08	-3.378731e+01	-6.670014e+02
2.900000e-06	-5.010134e-06	-1.032009e-08	-3.441815e+01	-6.767137e+02
2.910000e-06	-5.100179e-06	-1.046206e-08	-3.503673e+01	-6.860486e+02
2.920000e-06	-5.188318e-06	-1.059885e-08	-3.564222e+01	-6.950309e+02
2.930000e-06	-5.274509e-06	-1.073094e-08	-3.623433e+01	-7.036798e+02
2.940000e-06	-5.358710e-06	-1.085870e-08	-3.681277e+01	-7.120067e+02
