# Temperatura_=_57.42
# Concentracion g/m^3_=_15000.0
# C_Vs_to_Am_M_A/Vsm_=_65563218390.804596
# pendiente_HvsI_1/m_=_3716.3
# ordenada_HvsI_A/m_=_1297.0
# frecuencia_Hz_=_301966.43592851097

Tiempo_(s)	Campo_(V.s)	Magnetizacion_(V.s)	Campo_(kA/m)	Magnetizacion_(A/m)
0.000000e+00	-6.898669e-06	-1.090213e-08	-4.748070e+01	-7.147578e+02
1.000000e-08	-6.896719e-06	-1.090866e-08	-4.746728e+01	-7.145690e+02
2.000000e-08	-6.892415e-06	-1.090315e-08	-4.743766e+01	-7.142770e+02
3.000000e-08	-6.885980e-06	-1.089288e-08	-4.739337e+01	-7.138751e+02
4.000000e-08	-6.877261e-06	-1.088717e-08	-4.733336e+01	-7.133512e+02
5.000000e-08	-6.866078e-06	-1.087779e-08	-4.725639e+01	-7.126924e+02
6.000000e-08	-6.852414e-06	-1.086623e-08	-4.716235e+01	-7.118897e+02
7.000000e-08	-6.836279e-06	-1.083618e-08	-4.705130e+01	-7.109425e+02
8.000000e-08	-6.817905e-06	-1.081396e-08	-4.692484e+01	-7.098620e+02
9.000000e-08	-6.797320e-06	-1.090821e-08	-4.678316e+01	-7.086711e+02
1.000000e-07	-6.774122e-06	-1.091162e-08	-4.662350e+01	-7.074017e+02
1.100000e-07	-6.748026e-06	-1.079546e-08	-4.644389e+01	-7.060887e+02
1.200000e-07	-6.719290e-06	-1.075892e-08	-4.624611e+01	-7.047624e+02
1.300000e-07	-6.688422e-06	-1.073871e-08	-4.603366e+01	-7.034415e+02
1.400000e-07	-6.655592e-06	-1.058987e-08	-4.580770e+01	-7.021267e+02
1.500000e-07	-6.620845e-06	-1.064900e-08	-4.556856e+01	-7.007987e+02
1.600000e-07	-6.584103e-06	-1.081580e-08	-4.531568e+01	-6.994196e+02
1.700000e-07	-6.545297e-06	-1.053722e-08	-4.504859e+01	-6.979385e+02
1.800000e-07	-6.504377e-06	-1.063304e-08	-4.476696e+01	-6.962999e+02
1.900000e-07	-6.460978e-06	-1.067587e-08	-4.446826e+01	-6.944531e+02
2.000000e-07	-6.415090e-06	-1.047991e-08	-4.415243e+01	-6.923612e+02
2.100000e-07	-6.366868e-06	-1.059016e-08	-4.382053e+01	-6.900064e+02
2.200000e-07	-6.315950e-06	-1.045381e-08	-4.347009e+01	-6.873924e+02
2.300000e-07	-6.262362e-06	-1.039087e-08	-4.310126e+01	-6.845417e+02
2.400000e-07	-6.206345e-06	-1.039360e-08	-4.271572e+01	-6.814898e+02
2.500000e-07	-6.147959e-06	-1.032166e-08	-4.231388e+01	-6.782769e+02
2.600000e-07	-6.087359e-06	-1.034236e-08	-4.189679e+01	-6.749394e+02
2.700000e-07	-6.024573e-06	-1.026195e-08	-4.146466e+01	-6.715033e+02
2.800000e-07	-5.959497e-06	-1.016013e-08	-4.101677e+01	-6.679799e+02
2.900000e-07	-5.892153e-06	-1.007881e-08	-4.055327e+01	-6.643656e+02
3.000000e-07	-5.822556e-06	-1.008255e-08	-4.007426e+01	-6.606449e+02
3.100000e-07	-5.750787e-06	-1.005808e-08	-3.958030e+01	-6.567960e+02
3.200000e-07	-5.676799e-06	-9.937532e-09	-3.907108e+01	-6.527961e+02
3.300000e-07	-5.600497e-06	-9.925747e-09	-3.854592e+01	-6.486277e+02
3.400000e-07	-5.521937e-06	-9.819035e-09	-3.800522e+01	-6.442817e+02
3.500000e-07	-5.441183e-06	-9.727261e-09	-3.744943e+01	-6.397583e+02
3.600000e-07	-5.358574e-06	-9.687471e-09	-3.688086e+01	-6.350654e+02
3.700000e-07	-5.274303e-06	-9.620700e-09	-3.630086e+01	-6.302152e+02
3.800000e-07	-5.188267e-06	-9.543274e-09	-3.570871e+01	-6.252201e+02
3.900000e-07	-5.100399e-06	-9.434257e-09	-3.510395e+01	-6.200886e+02
4.000000e-07	-5.010631e-06	-9.380936e-09	-3.448611e+01	-6.148231e+02
4.100000e-07	-4.919067e-06	-9.306641e-09	-3.385592e+01	-6.094192e+02
4.200000e-07	-4.825900e-06	-9.222731e-09	-3.321469e+01	-6.038672e+02
4.300000e-07	-4.731151e-06	-9.118515e-09	-3.256257e+01	-5.981541e+02
4.400000e-07	-4.634616e-06	-9.026123e-09	-3.189816e+01	-5.922669e+02
4.500000e-07	-4.536258e-06	-8.946463e-09	-3.122120e+01	-5.861952e+02
4.600000e-07	-4.436318e-06	-8.844005e-09	-3.053335e+01	-5.799330e+02
4.700000e-07	-4.334924e-06	-8.761802e-09	-2.983550e+01	-5.734786e+02
4.800000e-07	-4.232068e-06	-8.653995e-09	-2.912759e+01	-5.668339e+02
4.900000e-07	-4.127616e-06	-8.529801e-09	-2.840869e+01	-5.600026e+02
5.000000e-07	-4.021589e-06	-8.415696e-09	-2.767894e+01	-5.529883e+02
5.100000e-07	-3.914038e-06	-8.325579e-09	-2.693872e+01	-5.457927e+02
5.200000e-07	-3.805070e-06	-8.221386e-09	-2.618873e+01	-5.384146e+02
5.300000e-07	-3.694869e-06	-8.098876e-09	-2.543026e+01	-5.308504e+02
5.400000e-07	-3.583386e-06	-7.974034e-09	-2.466297e+01	-5.230942e+02
5.500000e-07	-3.470437e-06	-7.845793e-09	-2.388559e+01	-5.151396e+02
5.600000e-07	-3.355950e-06	-7.724391e-09	-2.309763e+01	-5.069800e+02
5.700000e-07	-3.240014e-06	-7.597681e-09	-2.229969e+01	-4.986099e+02
5.800000e-07	-3.122728e-06	-7.470618e-09	-2.149245e+01	-4.900245e+02
5.900000e-07	-3.004310e-06	-7.330721e-09	-2.067743e+01	-4.812196e+02
6.000000e-07	-2.884828e-06	-7.193563e-09	-1.985509e+01	-4.721902e+02
6.100000e-07	-2.764171e-06	-7.060484e-09	-1.902465e+01	-4.629303e+02
6.200000e-07	-2.642519e-06	-6.921857e-09	-1.818737e+01	-4.534322e+02
6.300000e-07	-2.519933e-06	-6.767643e-09	-1.734366e+01	-4.436863e+02
6.400000e-07	-2.396309e-06	-6.604542e-09	-1.649281e+01	-4.336820e+02
6.500000e-07	-2.271763e-06	-6.445277e-09	-1.563561e+01	-4.234085e+02
6.600000e-07	-2.146467e-06	-6.285315e-09	-1.477325e+01	-4.128556e+02
6.700000e-07	-2.020571e-06	-6.122518e-09	-1.390676e+01	-4.020145e+02
6.800000e-07	-1.894089e-06	-5.953301e-09	-1.303624e+01	-3.908779e+02
6.900000e-07	-1.766945e-06	-5.780358e-09	-1.216116e+01	-3.794398e+02
7.000000e-07	-1.639121e-06	-5.599372e-09	-1.128139e+01	-3.676946e+02
7.100000e-07	-1.510674e-06	-5.415786e-09	-1.039735e+01	-3.556357e+02
7.200000e-07	-1.381688e-06	-5.230448e-09	-9.509589e+00	-3.432552e+02
7.300000e-07	-1.252273e-06	-5.036395e-09	-8.618878e+00	-3.305430e+02
7.400000e-07	-1.122562e-06	-4.833811e-09	-7.726132e+00	-3.174868e+02
7.500000e-07	-9.925422e-07	-4.624544e-09	-6.831260e+00	-3.040729e+02
7.600000e-07	-8.621270e-07	-4.416016e-09	-5.933666e+00	-2.902866e+02
7.700000e-07	-7.313610e-07	-4.203874e-09	-5.033657e+00	-2.761134e+02
7.800000e-07	-6.003243e-07	-3.982172e-09	-4.131785e+00	-2.615390e+02
7.900000e-07	-4.690843e-07	-3.752947e-09	-3.228514e+00	-2.465496e+02
8.000000e-07	-3.376787e-07	-3.518052e-09	-2.324104e+00	-2.311308e+02
8.100000e-07	-2.060882e-07	-3.277538e-09	-1.418420e+00	-2.152660e+02
8.200000e-07	-7.435628e-08	-3.030972e-09	-5.117637e-01	-1.989353e+02
8.300000e-07	5.749462e-08	-2.775546e-09	3.957118e-01	-1.821132e+02
8.400000e-07	1.893878e-07	-2.509451e-09	1.303478e+00	-1.647682e+02
8.500000e-07	3.212530e-07	-2.236058e-09	2.211053e+00	-1.468622e+02
8.600000e-07	4.530243e-07	-1.955851e-09	3.117980e+00	-1.283522e+02
8.700000e-07	5.846100e-07	-1.665005e-09	4.023630e+00	-1.091921e+02
8.800000e-07	7.159954e-07	-1.358830e-09	4.927902e+00	-8.933653e+01
8.900000e-07	8.471362e-07	-1.043295e-09	5.830490e+00	-6.874566e+01
9.000000e-07	9.779715e-07	-7.193839e-10	6.730976e+00	-4.739061e+01
9.100000e-07	1.108418e-06	-3.847387e-10	7.628787e+00	-2.525926e+01
9.200000e-07	1.238450e-06	-3.637855e-11	8.523739e+00	-2.362162e+00
9.300000e-07	1.368081e-06	3.260799e-10	9.415941e+00	2.126229e+01
9.400000e-07	1.497298e-06	6.984138e-10	1.030529e+01	4.554384e+01
9.500000e-07	1.625999e-06	1.079821e-09	1.119108e+01	7.037827e+01
9.600000e-07	1.754040e-06	1.465783e-09	1.207234e+01	9.562788e+01
9.700000e-07	1.881356e-06	1.855680e-09	1.294860e+01	1.211249e+02
9.800000e-07	2.007913e-06	2.247579e-09	1.381964e+01	1.466784e+02
9.900000e-07	2.133757e-06	2.637401e-09	1.468577e+01	1.720837e+02
1.000000e-06	2.259000e-06	3.019837e-09	1.554777e+01	1.971349e+02
1.010000e-06	2.383540e-06	3.390337e-09	1.640493e+01	2.216376e+02
1.020000e-06	2.507158e-06	3.750182e-09	1.725574e+01	2.454220e+02
1.030000e-06	2.629749e-06	4.096956e-09	1.809948e+01	2.683538e+02
1.040000e-06	2.751354e-06	4.431971e-09	1.893644e+01	2.903407e+02
1.050000e-06	2.871992e-06	4.752010e-09	1.976674e+01	3.113357e+02
1.060000e-06	2.991519e-06	5.056248e-09	2.058940e+01	3.313338e+02
1.070000e-06	3.109917e-06	5.346983e-09	2.140428e+01	3.503656e+02
1.080000e-06	3.227248e-06	5.626254e-09	2.221182e+01	3.684864e+02
1.090000e-06	3.343350e-06	5.892780e-09	2.301090e+01	3.857645e+02
1.100000e-06	3.458090e-06	6.143190e-09	2.380061e+01	4.022696e+02
1.110000e-06	3.571452e-06	6.380535e-09	2.458084e+01	4.180638e+02
1.120000e-06	3.683414e-06	6.605788e-09	2.535142e+01	4.331958e+02
1.130000e-06	3.794084e-06	6.823076e-09	2.611312e+01	4.476994e+02
1.140000e-06	3.903541e-06	7.032844e-09	2.686646e+01	4.615957e+02
1.150000e-06	4.011752e-06	7.236326e-09	2.761124e+01	4.748981e+02
1.160000e-06	4.118587e-06	7.432990e-09	2.834654e+01	4.876179e+02
1.170000e-06	4.223926e-06	7.620802e-09	2.907155e+01	4.997698e+02
1.180000e-06	4.327677e-06	7.798575e-09	2.978562e+01	5.113755e+02
1.190000e-06	4.429834e-06	7.966649e-09	3.048873e+01	5.224645e+02
1.200000e-06	4.530511e-06	8.125660e-09	3.118164e+01	5.330722e+02
1.210000e-06	4.629584e-06	8.277190e-09	3.186352e+01	5.432364e+02
1.220000e-06	4.726898e-06	8.423828e-09	3.253330e+01	5.529926e+02
1.230000e-06	4.822442e-06	8.566742e-09	3.319089e+01	5.623696e+02
1.240000e-06	4.916301e-06	8.705307e-09	3.383688e+01	5.713871e+02
1.250000e-06	5.008498e-06	8.840382e-09	3.447143e+01	5.800544e+02
1.260000e-06	5.098929e-06	8.972325e-09	3.509383e+01	5.883725e+02
1.270000e-06	5.187445e-06	9.097472e-09	3.570305e+01	5.963371e+02
1.280000e-06	5.274037e-06	9.215245e-09	3.629903e+01	6.039422e+02
1.290000e-06	5.358808e-06	9.326422e-09	3.688247e+01	6.111848e+02
1.300000e-06	5.441670e-06	9.431054e-09	3.745278e+01	6.180667e+02
1.310000e-06	5.522526e-06	9.526587e-09	3.800928e+01	6.245969e+02
1.320000e-06	5.601409e-06	9.616636e-09	3.855219e+01	6.307903e+02
1.330000e-06	5.678308e-06	9.707686e-09	3.908146e+01	6.366669e+02
1.340000e-06	5.753028e-06	9.796496e-09	3.959572e+01	6.422491e+02
1.350000e-06	5.825503e-06	9.878138e-09	4.009454e+01	6.475595e+02
1.360000e-06	5.895867e-06	9.953884e-09	4.057883e+01	6.526191e+02
1.370000e-06	5.964156e-06	1.002549e-08	4.104884e+01	6.574466e+02
1.380000e-06	6.030304e-06	1.009426e-08	4.150410e+01	6.620576e+02
1.390000e-06	6.094238e-06	1.016097e-08	4.194413e+01	6.664654e+02
1.400000e-06	6.156111e-06	1.022583e-08	4.236998e+01	6.706812e+02
1.410000e-06	6.215982e-06	1.028868e-08	4.278205e+01	6.747141e+02
1.420000e-06	6.273617e-06	1.034816e-08	4.317873e+01	6.785711e+02
1.430000e-06	6.328959e-06	1.040478e-08	4.355962e+01	6.822564e+02
1.440000e-06	6.381972e-06	1.045969e-08	4.392449e+01	6.857709e+02
1.450000e-06	6.432376e-06	1.050957e-08	4.427140e+01	6.891119e+02
1.460000e-06	6.480160e-06	1.055546e-08	4.460028e+01	6.922736e+02
1.470000e-06	6.525674e-06	1.059975e-08	4.491353e+01	6.952485e+02
1.480000e-06	6.569051e-06	1.064290e-08	4.521208e+01	6.980286e+02
1.490000e-06	6.610014e-06	1.068404e-08	4.549401e+01	7.006083e+02
1.500000e-06	6.648596e-06	1.072205e-08	4.575955e+01	7.029854e+02
1.510000e-06	6.685021e-06	1.075518e-08	4.601025e+01	7.051624e+02
1.520000e-06	6.719029e-06	1.078264e-08	4.624431e+01	7.071465e+02
1.530000e-06	6.750562e-06	1.080710e-08	4.646134e+01	7.089479e+02
1.540000e-06	6.779843e-06	1.083027e-08	4.666287e+01	7.105776e+02
1.550000e-06	6.806811e-06	1.085302e-08	4.684848e+01	7.120454e+02
1.560000e-06	6.831213e-06	1.087287e-08	4.701643e+01	7.133578e+02
1.570000e-06	6.853119e-06	1.088971e-08	4.716720e+01	7.145171e+02
1.580000e-06	6.872732e-06	1.090442e-08	4.730219e+01	7.155220e+02
1.590000e-06	6.889816e-06	1.091705e-08	4.741977e+01	7.163693e+02
1.600000e-06	6.904281e-06	1.092576e-08	4.751933e+01	7.170565e+02
1.610000e-06	6.916151e-06	1.093121e-08	4.760103e+01	7.175841e+02
1.620000e-06	6.925281e-06	1.093526e-08	4.766386e+01	7.179575e+02
1.630000e-06	6.931865e-06	1.093834e-08	4.770918e+01	7.181864e+02
1.640000e-06	6.936141e-06	1.094097e-08	4.773861e+01	7.182840e+02
1.650000e-06	6.937905e-06	1.094539e-08	4.775075e+01	7.182640e+02
1.660000e-06	6.937137e-06	1.094717e-08	4.774546e+01	7.181369e+02
1.670000e-06	6.934156e-06	1.093558e-08	4.772495e+01	7.179073e+02
1.680000e-06	6.928935e-06	1.093068e-08	4.768901e+01	7.175727e+02
1.690000e-06	6.921353e-06	1.092113e-08	4.763683e+01	7.171239e+02
1.700000e-06	6.911534e-06	1.090908e-08	4.756925e+01	7.165478e+02
1.710000e-06	6.899417e-06	1.090092e-08	4.748585e+01	7.158326e+02
1.720000e-06	6.884839e-06	1.090612e-08	4.738552e+01	7.149720e+02
1.730000e-06	6.868059e-06	1.091245e-08	4.727002e+01	7.139698e+02
1.740000e-06	6.849235e-06	1.076182e-08	4.714047e+01	7.128420e+02
1.750000e-06	6.827585e-06	1.072130e-08	4.699146e+01	7.116155e+02
1.760000e-06	6.802508e-06	1.080558e-08	4.681887e+01	7.103243e+02
1.770000e-06	6.774571e-06	1.076291e-08	4.662659e+01	7.090023e+02
1.780000e-06	6.744295e-06	1.079351e-08	4.641821e+01	7.076763e+02
1.790000e-06	6.712244e-06	1.092171e-08	4.619762e+01	7.063581e+02
1.800000e-06	6.678954e-06	1.065426e-08	4.596849e+01	7.050409e+02
1.810000e-06	6.643713e-06	1.068520e-08	4.572595e+01	7.036977e+02
1.820000e-06	6.605756e-06	1.082041e-08	4.546470e+01	7.022844e+02
1.830000e-06	6.565505e-06	1.056021e-08	4.518768e+01	7.007474e+02
1.840000e-06	6.523088e-06	1.076627e-08	4.489573e+01	6.990319e+02
1.850000e-06	6.478411e-06	1.061196e-08	4.458824e+01	6.970916e+02
1.860000e-06	6.431469e-06	1.050167e-08	4.426516e+01	6.948967e+02
1.870000e-06	6.382064e-06	1.070122e-08	4.392512e+01	6.924379e+02
1.880000e-06	6.330409e-06	1.044521e-08	4.356960e+01	6.897268e+02
1.890000e-06	6.276115e-06	1.054695e-08	4.319592e+01	6.867917e+02
1.900000e-06	6.219106e-06	1.044233e-08	4.280355e+01	6.836712e+02
1.910000e-06	6.159913e-06	1.027828e-08	4.239615e+01	6.804049e+02
1.920000e-06	6.098283e-06	1.039978e-08	4.197197e+01	6.770257e+02
1.930000e-06	6.034375e-06	1.022957e-08	4.153212e+01	6.735542e+02
1.940000e-06	5.968402e-06	1.029903e-08	4.107806e+01	6.699956e+02
1.950000e-06	5.900260e-06	1.015819e-08	4.060907e+01	6.663413e+02
1.960000e-06	5.829800e-06	1.009041e-08	4.012412e+01	6.625725e+02
1.970000e-06	5.756912e-06	1.005423e-08	3.962246e+01	6.586661e+02
1.980000e-06	5.681935e-06	9.891712e-09	3.910642e+01	6.546012e+02
1.990000e-06	5.604656e-06	9.993861e-09	3.857455e+01	6.503630e+02
2.000000e-06	5.525120e-06	9.846230e-09	3.802713e+01	6.459462e+02
2.010000e-06	5.443711e-06	9.792806e-09	3.746683e+01	6.413543e+02
2.020000e-06	5.360577e-06	9.706576e-09	3.689465e+01	6.365974e+02
2.030000e-06	5.275491e-06	9.610652e-09	3.630904e+01	6.316883e+02
2.040000e-06	5.188235e-06	9.566870e-09	3.570849e+01	6.266383e+02
2.050000e-06	5.099188e-06	9.452492e-09	3.509561e+01	6.214536e+02
2.060000e-06	5.008575e-06	9.431564e-09	3.447196e+01	6.161341e+02
2.070000e-06	4.916361e-06	9.300286e-09	3.383729e+01	6.106728e+02
2.080000e-06	4.822306e-06	9.225789e-09	3.318995e+01	6.050585e+02
2.090000e-06	4.726419e-06	9.126661e-09	3.253000e+01	5.992778e+02
2.100000e-06	4.628943e-06	9.064665e-09	3.185911e+01	5.933186e+02
2.110000e-06	4.530074e-06	8.964161e-09	3.117864e+01	5.871720e+02
2.120000e-06	4.429676e-06	8.826842e-09	3.048764e+01	5.808336e+02
2.130000e-06	4.327497e-06	8.749201e-09	2.978438e+01	5.743034e+02
2.140000e-06	4.223667e-06	8.650633e-09	2.906976e+01	5.675844e+02
2.150000e-06	4.118301e-06	8.566502e-09	2.834457e+01	5.606803e+02
2.160000e-06	4.011604e-06	8.445963e-09	2.761022e+01	5.535940e+02
2.170000e-06	3.903520e-06	8.342964e-09	2.686632e+01	5.463264e+02
2.180000e-06	3.794052e-06	8.212578e-09	2.611290e+01	5.388752e+02
2.190000e-06	3.683181e-06	8.099882e-09	2.534982e+01	5.312357e+02
2.200000e-06	3.570818e-06	7.988617e-09	2.457647e+01	5.234018e+02
2.210000e-06	3.457176e-06	7.879258e-09	2.379432e+01	5.153667e+02
2.220000e-06	3.342159e-06	7.745553e-09	2.300271e+01	5.071245e+02
2.230000e-06	3.225645e-06	7.598216e-09	2.220079e+01	4.986697e+02
2.240000e-06	3.107789e-06	7.465537e-09	2.138964e+01	4.899980e+02
2.250000e-06	2.988693e-06	7.332698e-09	2.056994e+01	4.811049e+02
2.260000e-06	2.868343e-06	7.208513e-09	1.974163e+01	4.719852e+02
2.270000e-06	2.746999e-06	7.063526e-09	1.890647e+01	4.626321e+02
2.280000e-06	2.624854e-06	6.916894e-09	1.806579e+01	4.530373e+02
2.290000e-06	2.501837e-06	6.760616e-09	1.721912e+01	4.431906e+02
2.300000e-06	2.377791e-06	6.611538e-09	1.636536e+01	4.330812e+02
2.310000e-06	2.252840e-06	6.456467e-09	1.550537e+01	4.226985e+02
2.320000e-06	2.127259e-06	6.295477e-09	1.464105e+01	4.120327e+02
2.330000e-06	2.000991e-06	6.120909e-09	1.377200e+01	4.010757e+02
2.340000e-06	1.873898e-06	5.944149e-09	1.289727e+01	3.898207e+02
2.350000e-06	1.746089e-06	5.769531e-09	1.201761e+01	3.782621e+02
2.360000e-06	1.617728e-06	5.594174e-09	1.113416e+01	3.663938e+02
2.370000e-06	1.488844e-06	5.415993e-09	1.024710e+01	3.542091e+02
2.380000e-06	1.359513e-06	5.223293e-09	9.356968e+00	3.416990e+02
2.390000e-06	1.229795e-06	5.026950e-09	8.464177e+00	3.288526e+02
2.400000e-06	1.099746e-06	4.825304e-09	7.569100e+00	3.156570e+02
2.410000e-06	9.693941e-07	4.620014e-09	6.671941e+00	3.020979e+02
2.420000e-06	8.387720e-07	4.406462e-09	5.772923e+00	2.881608e+02
2.430000e-06	7.079388e-07	4.181457e-09	4.872452e+00	2.738310e+02
2.440000e-06	5.768900e-07	3.951130e-09	3.970497e+00	2.590946e+02
2.450000e-06	4.455884e-07	3.721185e-09	3.066802e+00	2.439377e+02
2.460000e-06	3.140550e-07	3.489194e-09	2.161511e+00	2.283452e+02
2.470000e-06	1.823089e-07	3.248840e-09	1.254757e+00	2.122995e+02
2.480000e-06	5.045795e-08	2.997301e-09	3.472814e-01	1.957784e+02
2.490000e-06	-8.140158e-08	2.735910e-09	-5.602536e-01	1.787544e+02
2.500000e-06	-2.132293e-07	2.466962e-09	-1.467570e+00	1.611933e+02
2.510000e-06	-3.449414e-07	2.190200e-09	-2.374090e+00	1.430548e+02
2.520000e-06	-4.765776e-07	1.902875e-09	-3.280087e+00	1.242944e+02
2.530000e-06	-6.080760e-07	1.603973e-09	-4.185137e+00	1.048656e+02
2.540000e-06	-7.393701e-07	1.291348e-09	-5.088780e+00	8.472486e+01
2.550000e-06	-8.703856e-07	9.697800e-10	-5.990506e+00	6.383582e+01
2.560000e-06	-1.001053e-06	6.445029e-10	-6.889837e+00	4.217551e+01
2.570000e-06	-1.131368e-06	3.076974e-10	-7.786740e+00	1.974003e+01
2.580000e-06	-1.261343e-06	-4.248080e-11	-8.681304e+00	-3.449689e+00
2.590000e-06	-1.390898e-06	-4.030727e-10	-9.572981e+00	-2.734313e+01
2.600000e-06	-1.520020e-06	-7.743581e-10	-1.046167e+01	-5.185680e+01
2.610000e-06	-1.648709e-06	-1.156671e-09	-1.134739e+01	-7.687314e+01
2.620000e-06	-1.776744e-06	-1.547087e-09	-1.222860e+01	-1.022420e+02
2.630000e-06	-1.904016e-06	-1.939272e-09	-1.310456e+01	-1.277856e+02
2.640000e-06	-2.030506e-06	-2.331172e-09	-1.397514e+01	-1.533063e+02
2.650000e-06	-2.156284e-06	-2.717134e-09	-1.484081e+01	-1.785973e+02
2.660000e-06	-2.281325e-06	-3.093299e-09	-1.570142e+01	-2.034557e+02
2.670000e-06	-2.405451e-06	-3.459660e-09	-1.655573e+01	-2.276953e+02
2.680000e-06	-2.528562e-06	-3.816253e-09	-1.740305e+01	-2.511592e+02
2.690000e-06	-2.650700e-06	-4.162210e-09	-1.824368e+01	-2.737288e+02
2.700000e-06	-2.771864e-06	-4.494978e-09	-1.907760e+01	-2.953298e+02
2.710000e-06	-2.892002e-06	-4.809285e-09	-1.990446e+01	-3.159322e+02
2.720000e-06	-3.011037e-06	-5.105845e-09	-2.072373e+01	-3.355461e+02
2.730000e-06	-3.128936e-06	-5.391326e-09	-2.153518e+01	-3.542130e+02
2.740000e-06	-3.245666e-06	-5.667181e-09	-2.233859e+01	-3.719948e+02
2.750000e-06	-3.361035e-06	-5.930803e-09	-2.313262e+01	-3.889618e+02
2.760000e-06	-3.474963e-06	-6.178539e-09	-2.391674e+01	-4.051815e+02
2.770000e-06	-3.587503e-06	-6.411944e-09	-2.469131e+01	-4.207112e+02
2.780000e-06	-3.698654e-06	-6.635888e-09	-2.545632e+01	-4.355936e+02
2.790000e-06	-3.808418e-06	-6.851518e-09	-2.621177e+01	-4.498573e+02
2.800000e-06	-3.916943e-06	-7.059781e-09	-2.695871e+01	-4.635196e+02
2.810000e-06	-4.024233e-06	-7.261804e-09	-2.769715e+01	-4.765923e+02
2.820000e-06	-4.130150e-06	-7.456286e-09	-2.842612e+01	-4.890875e+02
2.830000e-06	-4.234608e-06	-7.642067e-09	-2.914507e+01	-5.010224e+02
2.840000e-06	-4.337473e-06	-7.819235e-09	-2.985305e+01	-5.124218e+02
2.850000e-06	-4.438764e-06	-7.987952e-09	-3.055019e+01	-5.233178e+02
2.860000e-06	-4.538472e-06	-8.147054e-09	-3.123644e+01	-5.337474e+02
2.870000e-06	-4.636588e-06	-8.297792e-09	-3.191173e+01	-5.437480e+02
2.880000e-06	-4.733160e-06	-8.441377e-09	-3.257639e+01	-5.533528e+02
2.890000e-06	-4.828092e-06	-8.579422e-09	-3.322977e+01	-5.625875e+02
2.900000e-06	-4.921181e-06	-8.713452e-09	-3.387047e+01	-5.714673e+02
2.910000e-06	-5.012446e-06	-8.843138e-09	-3.449861e+01	-5.799984e+02
2.920000e-06	-5.102011e-06	-8.968243e-09	-3.511505e+01	-5.881789e+02
2.930000e-06	-5.189711e-06	-9.087192e-09	-3.571865e+01	-5.960035e+02
2.940000e-06	-5.275389e-06	-9.200215e-09	-3.630833e+01	-6.034669e+02
