# Temperatura_=_75.74
# Concentracion g/m^3_=_15000.0
# C_Vs_to_Am_M_A/Vsm_=_65563218390.804596
# pendiente_HvsI_1/m_=_3716.3
# ordenada_HvsI_A/m_=_1297.0
# frecuencia_Hz_=_301961.59103238204

Tiempo_(s)	Campo_(V.s)	Magnetizacion_(V.s)	Campo_(kA/m)	Magnetizacion_(A/m)
0.000000e+00	-6.867305e-06	-1.235398e-08	-4.746704e+01	-8.081917e+02
1.000000e-08	-6.863286e-06	-1.235003e-08	-4.743926e+01	-8.078384e+02
2.000000e-08	-6.857140e-06	-1.233982e-08	-4.739678e+01	-8.073393e+02
3.000000e-08	-6.848839e-06	-1.232925e-08	-4.733941e+01	-8.066878e+02
4.000000e-08	-6.838141e-06	-1.231619e-08	-4.726546e+01	-8.058766e+02
5.000000e-08	-6.824876e-06	-1.230240e-08	-4.717377e+01	-8.049004e+02
6.000000e-08	-6.809089e-06	-1.227936e-08	-4.706465e+01	-8.037584e+02
7.000000e-08	-6.791055e-06	-1.225735e-08	-4.694000e+01	-8.024574e+02
8.000000e-08	-6.770808e-06	-1.228521e-08	-4.680005e+01	-8.010131e+02
9.000000e-08	-6.748031e-06	-1.228630e-08	-4.664261e+01	-7.994503e+02
1.000000e-07	-6.722429e-06	-1.222332e-08	-4.646566e+01	-7.978008e+02
1.100000e-07	-6.694180e-06	-1.217987e-08	-4.627040e+01	-7.960986e+02
1.200000e-07	-6.663733e-06	-1.215083e-08	-4.605995e+01	-7.943743e+02
1.300000e-07	-6.631332e-06	-1.206646e-08	-4.583599e+01	-7.926480e+02
1.400000e-07	-6.597097e-06	-1.205701e-08	-4.559936e+01	-7.909237e+02
1.500000e-07	-6.560935e-06	-1.211492e-08	-4.534940e+01	-7.891855e+02
1.600000e-07	-6.522650e-06	-1.197128e-08	-4.508477e+01	-7.873976e+02
1.700000e-07	-6.482160e-06	-1.196861e-08	-4.480490e+01	-7.855079e+02
1.800000e-07	-6.439183e-06	-1.198735e-08	-4.450785e+01	-7.834552e+02
1.900000e-07	-6.393752e-06	-1.189337e-08	-4.419383e+01	-7.811787e+02
2.000000e-07	-6.346038e-06	-1.193973e-08	-4.386403e+01	-7.786281e+02
2.100000e-07	-6.295678e-06	-1.186226e-08	-4.351594e+01	-7.757718e+02
2.200000e-07	-6.242616e-06	-1.175929e-08	-4.314917e+01	-7.726019e+02
2.300000e-07	-6.187106e-06	-1.170951e-08	-4.276548e+01	-7.691346e+02
2.400000e-07	-6.129259e-06	-1.164504e-08	-4.236564e+01	-7.654058e+02
2.500000e-07	-6.069140e-06	-1.162347e-08	-4.195010e+01	-7.614627e+02
2.600000e-07	-6.006835e-06	-1.156517e-08	-4.151945e+01	-7.573541e+02
2.700000e-07	-5.942369e-06	-1.147315e-08	-4.107385e+01	-7.531197e+02
2.800000e-07	-5.875616e-06	-1.138269e-08	-4.061246e+01	-7.487830e+02
2.900000e-07	-5.806603e-06	-1.133526e-08	-4.013544e+01	-7.443478e+02
3.000000e-07	-5.735483e-06	-1.130268e-08	-3.964385e+01	-7.397995e+02
3.100000e-07	-5.662188e-06	-1.122151e-08	-3.913723e+01	-7.351101e+02
3.200000e-07	-5.586588e-06	-1.116336e-08	-3.861468e+01	-7.302468e+02
3.300000e-07	-5.508737e-06	-1.106136e-08	-3.807657e+01	-7.251804e+02
3.400000e-07	-5.428715e-06	-1.095903e-08	-3.752346e+01	-7.198926e+02
3.500000e-07	-5.346668e-06	-1.089759e-08	-3.695635e+01	-7.143797e+02
3.600000e-07	-5.262882e-06	-1.081901e-08	-3.637721e+01	-7.086525e+02
3.700000e-07	-5.177401e-06	-1.072472e-08	-3.578637e+01	-7.027323e+02
3.800000e-07	-5.090147e-06	-1.061214e-08	-3.518327e+01	-6.966439e+02
3.900000e-07	-5.001109e-06	-1.052524e-08	-3.456783e+01	-6.904088e+02
4.000000e-07	-4.910222e-06	-1.044241e-08	-3.393962e+01	-6.840387e+02
4.100000e-07	-4.817599e-06	-1.035277e-08	-3.329941e+01	-6.775325e+02
4.200000e-07	-4.723345e-06	-1.024258e-08	-3.264792e+01	-6.708764e+02
4.300000e-07	-4.627447e-06	-1.012465e-08	-3.198507e+01	-6.640477e+02
4.400000e-07	-4.529843e-06	-1.001621e-08	-3.131042e+01	-6.570207e+02
4.500000e-07	-4.430543e-06	-9.901894e-09	-3.062406e+01	-6.497727e+02
4.600000e-07	-4.329724e-06	-9.800381e-09	-2.992720e+01	-6.422897e+02
4.700000e-07	-4.227386e-06	-9.689259e-09	-2.921983e+01	-6.345682e+02
4.800000e-07	-4.123589e-06	-9.556524e-09	-2.850239e+01	-6.266150e+02
4.900000e-07	-4.018328e-06	-9.420507e-09	-2.777481e+01	-6.184435e+02
5.000000e-07	-3.911457e-06	-9.300095e-09	-2.703612e+01	-6.100688e+02
5.100000e-07	-3.803107e-06	-9.181808e-09	-2.628720e+01	-6.015018e+02
5.200000e-07	-3.693490e-06	-9.047985e-09	-2.552952e+01	-5.927457e+02
5.300000e-07	-3.582646e-06	-8.902277e-09	-2.476337e+01	-5.837943e+02
5.400000e-07	-3.470461e-06	-8.753013e-09	-2.398794e+01	-5.746333e+02
5.500000e-07	-3.356774e-06	-8.609817e-09	-2.320213e+01	-5.652439e+02
5.600000e-07	-3.241577e-06	-8.468423e-09	-2.240589e+01	-5.556077e+02
5.700000e-07	-3.125009e-06	-8.325732e-09	-2.160016e+01	-5.457106e+02
5.800000e-07	-3.007259e-06	-8.169864e-09	-2.078627e+01	-5.355460e+02
5.900000e-07	-2.888473e-06	-8.005560e-09	-1.996522e+01	-5.251149e+02
6.000000e-07	-2.768642e-06	-7.841923e-09	-1.913695e+01	-5.144233e+02
6.100000e-07	-2.647803e-06	-7.680040e-09	-1.830170e+01	-5.034787e+02
6.200000e-07	-2.525935e-06	-7.509040e-09	-1.745935e+01	-4.922850e+02
6.300000e-07	-2.402978e-06	-7.325742e-09	-1.660946e+01	-4.808393e+02
6.400000e-07	-2.279107e-06	-7.140561e-09	-1.575327e+01	-4.691303e+02
6.500000e-07	-2.154488e-06	-6.956928e-09	-1.489189e+01	-4.571393e+02
6.600000e-07	-2.029188e-06	-6.775008e-09	-1.402582e+01	-4.448440e+02
6.700000e-07	-1.903267e-06	-6.589668e-09	-1.315545e+01	-4.322226e+02
6.800000e-07	-1.776667e-06	-6.396384e-09	-1.228038e+01	-4.192589e+02
6.900000e-07	-1.649459e-06	-6.191161e-09	-1.140112e+01	-4.059451e+02
7.000000e-07	-1.521728e-06	-5.979930e-09	-1.051824e+01	-3.922816e+02
7.100000e-07	-1.393422e-06	-5.769094e-09	-9.631382e+00	-3.782747e+02
7.200000e-07	-1.264676e-06	-5.552513e-09	-8.741485e+00	-3.639313e+02
7.300000e-07	-1.135583e-06	-5.325552e-09	-7.849187e+00	-3.492529e+02
7.400000e-07	-1.006089e-06	-5.091005e-09	-6.954118e+00	-3.342310e+02
7.500000e-07	-8.761978e-07	-4.854264e-09	-6.056308e+00	-3.188432e+02
7.600000e-07	-7.459874e-07	-4.615731e-09	-5.156290e+00	-3.030547e+02
7.700000e-07	-6.155216e-07	-4.372297e-09	-4.254506e+00	-2.868214e+02
7.800000e-07	-4.848113e-07	-4.120783e-09	-3.351032e+00	-2.700966e+02
7.900000e-07	-3.538951e-07	-3.859708e-09	-2.446135e+00	-2.528373e+02
8.000000e-07	-2.227836e-07	-3.586047e-09	-1.539888e+00	-2.350104e+02
8.100000e-07	-9.154234e-08	-3.303189e-09	-6.327437e-01	-2.165949e+02
8.200000e-07	3.976118e-08	-3.013705e-09	2.748306e-01	-1.975807e+02
8.300000e-07	1.711544e-07	-2.712607e-09	1.183025e+00	-1.779630e+02
8.400000e-07	3.025366e-07	-2.400958e-09	2.091143e+00	-1.577350e+02
8.500000e-07	4.337962e-07	-2.082296e-09	2.998414e+00	-1.368797e+02
8.600000e-07	5.648702e-07	-1.755355e-09	3.904402e+00	-1.153641e+02
8.700000e-07	6.957388e-07	-1.414213e-09	4.808970e+00	-9.313815e+01
8.800000e-07	8.263789e-07	-1.060383e-09	5.711959e+00	-7.013909e+01
8.900000e-07	9.567104e-07	-6.955154e-10	6.612814e+00	-4.630209e+01
9.000000e-07	1.086662e-06	-3.182711e-10	7.511042e+00	-2.157493e+01
9.100000e-07	1.216162e-06	7.187131e-11	8.406151e+00	4.065330e+00
9.200000e-07	1.345272e-06	4.742658e-10	9.298566e+00	3.059721e+01
9.300000e-07	1.473993e-06	8.892477e-10	1.018829e+01	5.794412e+01
9.400000e-07	1.602128e-06	1.317422e-09	1.107396e+01	8.597071e+01
9.500000e-07	1.729608e-06	1.752973e-09	1.195511e+01	1.144872e+02
9.600000e-07	1.856417e-06	2.193266e-09	1.283162e+01	1.432615e+02
9.700000e-07	1.982577e-06	2.633708e-09	1.370364e+01	1.720368e+02
9.800000e-07	2.108100e-06	3.068597e-09	1.457126e+01	2.005521e+02
9.900000e-07	2.232955e-06	3.494370e-09	1.543426e+01	2.285630e+02
1.000000e-06	2.357072e-06	3.906509e-09	1.629216e+01	2.558585e+02
1.010000e-06	2.480290e-06	4.304713e-09	1.714385e+01	2.822725e+02
1.020000e-06	2.602525e-06	4.689198e-09	1.798874e+01	3.076894e+02
1.030000e-06	2.723735e-06	5.061205e-09	1.882655e+01	3.320427e+02
1.040000e-06	2.843812e-06	5.416203e-09	1.965653e+01	3.553089e+02
1.050000e-06	2.962812e-06	5.752010e-09	2.047906e+01	3.774992e+02
1.060000e-06	3.080862e-06	6.072109e-09	2.129502e+01	3.986482e+02
1.070000e-06	3.197900e-06	6.379184e-09	2.210399e+01	4.188054e+02
1.080000e-06	3.313729e-06	6.673203e-09	2.290460e+01	4.380268e+02
1.090000e-06	3.428123e-06	6.953197e-09	2.369530e+01	4.563696e+02
1.100000e-06	3.541037e-06	7.218016e-09	2.447577e+01	4.738888e+02
1.110000e-06	3.652553e-06	7.469005e-09	2.524657e+01	4.906359e+02
1.120000e-06	3.762844e-06	7.709552e-09	2.600890e+01	5.066580e+02
1.130000e-06	3.872030e-06	7.941758e-09	2.676360e+01	5.219977e+02
1.140000e-06	3.980026e-06	8.165934e-09	2.751007e+01	5.366932e+02
1.150000e-06	4.086652e-06	8.382191e-09	2.824707e+01	5.507783e+02
1.160000e-06	4.191697e-06	8.590582e-09	2.897315e+01	5.642828e+02
1.170000e-06	4.295113e-06	8.788840e-09	2.968797e+01	5.772328e+02
1.180000e-06	4.397046e-06	8.977702e-09	3.039253e+01	5.896518e+02
1.190000e-06	4.497582e-06	9.155854e-09	3.108744e+01	6.015617e+02
1.200000e-06	4.596554e-06	9.324613e-09	3.177154e+01	6.129843e+02
1.210000e-06	4.693697e-06	9.486623e-09	3.244299e+01	6.239420e+02
1.220000e-06	4.788992e-06	9.644954e-09	3.310167e+01	6.344579e+02
1.230000e-06	4.882621e-06	9.800548e-09	3.374884e+01	6.445558e+02
1.240000e-06	4.974681e-06	9.953399e-09	3.438516e+01	6.542582e+02
1.250000e-06	5.064970e-06	1.010153e-08	3.500924e+01	6.635852e+02
1.260000e-06	5.153293e-06	1.024016e-08	3.561974e+01	6.725523e+02
1.270000e-06	5.239744e-06	1.037206e-08	3.621728e+01	6.811696e+02
1.280000e-06	5.324416e-06	1.050034e-08	3.680254e+01	6.894414e+02
1.290000e-06	5.407268e-06	1.062259e-08	3.737522e+01	6.973674e+02
1.300000e-06	5.488130e-06	1.073530e-08	3.793414e+01	7.049443e+02
1.310000e-06	5.566951e-06	1.084068e-08	3.847895e+01	7.121690e+02
1.320000e-06	5.643816e-06	1.094637e-08	3.901025e+01	7.190406e+02
1.330000e-06	5.718523e-06	1.105152e-08	3.952662e+01	7.255630e+02
1.340000e-06	5.791005e-06	1.114992e-08	4.002762e+01	7.317463e+02
1.350000e-06	5.861411e-06	1.123962e-08	4.051427e+01	7.376061e+02
1.360000e-06	5.929798e-06	1.132239e-08	4.098696e+01	7.431630e+02
1.370000e-06	5.996044e-06	1.140017e-08	4.144486e+01	7.484398e+02
1.380000e-06	6.060024e-06	1.147472e-08	4.188709e+01	7.534598e+02
1.390000e-06	6.121921e-06	1.154587e-08	4.231492e+01	7.582441e+02
1.400000e-06	6.181856e-06	1.161391e-08	4.272919e+01	7.628099e+02
1.410000e-06	6.239566e-06	1.168021e-08	4.312809e+01	7.671697e+02
1.420000e-06	6.294987e-06	1.174434e-08	4.351116e+01	7.713313e+02
1.430000e-06	6.348200e-06	1.180767e-08	4.387897e+01	7.752982e+02
1.440000e-06	6.398757e-06	1.186866e-08	4.422842e+01	7.790708e+02
1.450000e-06	6.446674e-06	1.192490e-08	4.455962e+01	7.826475e+02
1.460000e-06	6.492365e-06	1.197535e-08	4.487544e+01	7.860254e+02
1.470000e-06	6.535881e-06	1.202204e-08	4.517623e+01	7.892014e+02
1.480000e-06	6.576995e-06	1.206649e-08	4.546041e+01	7.921724e+02
1.490000e-06	6.615711e-06	1.210718e-08	4.572801e+01	7.949358e+02
1.500000e-06	6.652257e-06	1.214413e-08	4.598062e+01	7.974893e+02
1.510000e-06	6.686445e-06	1.217883e-08	4.621693e+01	7.998319e+02
1.520000e-06	6.718166e-06	1.221150e-08	4.643619e+01	8.019633e+02
1.530000e-06	6.747628e-06	1.224104e-08	4.663983e+01	8.038849e+02
1.540000e-06	6.774762e-06	1.226683e-08	4.682738e+01	8.055996e+02
1.550000e-06	6.799342e-06	1.229033e-08	4.699728e+01	8.071119e+02
1.560000e-06	6.821396e-06	1.231141e-08	4.714972e+01	8.084277e+02
1.570000e-06	6.841171e-06	1.232769e-08	4.728640e+01	8.095541e+02
1.580000e-06	6.858511e-06	1.234091e-08	4.740625e+01	8.104986e+02
1.590000e-06	6.873264e-06	1.235077e-08	4.750823e+01	8.112693e+02
1.600000e-06	6.885438e-06	1.235701e-08	4.759238e+01	8.118738e+02
1.610000e-06	6.894909e-06	1.236266e-08	4.765784e+01	8.123195e+02
1.620000e-06	6.901821e-06	1.236700e-08	4.770561e+01	8.126131e+02
1.630000e-06	6.906344e-06	1.236970e-08	4.773688e+01	8.127605e+02
1.640000e-06	6.908351e-06	1.237279e-08	4.775075e+01	8.127660e+02
1.650000e-06	6.907863e-06	1.237415e-08	4.774738e+01	8.126320e+02
1.660000e-06	6.905189e-06	1.236769e-08	4.772890e+01	8.123582e+02
1.670000e-06	6.900303e-06	1.236022e-08	4.769512e+01	8.119417e+02
1.680000e-06	6.893066e-06	1.234811e-08	4.764510e+01	8.113768e+02
1.690000e-06	6.883547e-06	1.233328e-08	4.757931e+01	8.106563e+02
1.700000e-06	6.871771e-06	1.231908e-08	4.749791e+01	8.097735e+02
1.710000e-06	6.857585e-06	1.230961e-08	4.739986e+01	8.087245e+02
1.720000e-06	6.841151e-06	1.230146e-08	4.728626e+01	8.075116e+02
1.730000e-06	6.822706e-06	1.222468e-08	4.715877e+01	8.061453e+02
1.740000e-06	6.801655e-06	1.217445e-08	4.701326e+01	8.046453e+02
1.750000e-06	6.777219e-06	1.219495e-08	4.684437e+01	8.030398e+02
1.760000e-06	6.749786e-06	1.217339e-08	4.665474e+01	8.013622e+02
1.770000e-06	6.719957e-06	1.216232e-08	4.644857e+01	7.996458e+02
1.780000e-06	6.688230e-06	1.220944e-08	4.622927e+01	7.979176e+02
1.790000e-06	6.655180e-06	1.209849e-08	4.600082e+01	7.961914e+02
1.800000e-06	6.620286e-06	1.207166e-08	4.575964e+01	7.944628e+02
1.810000e-06	6.582730e-06	1.212565e-08	4.550005e+01	7.927074e+02
1.820000e-06	6.542941e-06	1.201105e-08	4.522502e+01	7.908816e+02
1.830000e-06	6.501067e-06	1.207484e-08	4.493559e+01	7.889283e+02
1.840000e-06	6.456910e-06	1.201445e-08	4.463038e+01	7.867853e+02
1.850000e-06	6.410524e-06	1.190329e-08	4.430976e+01	7.843952e+02
1.860000e-06	6.361668e-06	1.197386e-08	4.397206e+01	7.817147e+02
1.870000e-06	6.310544e-06	1.187551e-08	4.361869e+01	7.787221e+02
1.880000e-06	6.256885e-06	1.188280e-08	4.324780e+01	7.754201e+02
1.890000e-06	6.200506e-06	1.182731e-08	4.285811e+01	7.718340e+02
1.900000e-06	6.141852e-06	1.168304e-08	4.245268e+01	7.680059e+02
1.910000e-06	6.080873e-06	1.168905e-08	4.203120e+01	7.639848e+02
1.920000e-06	6.017620e-06	1.159339e-08	4.159399e+01	7.598168e+02
1.930000e-06	5.952215e-06	1.158422e-08	4.114191e+01	7.555354e+02
1.940000e-06	5.884668e-06	1.151073e-08	4.067502e+01	7.511558e+02
1.950000e-06	5.814871e-06	1.140219e-08	4.019258e+01	7.466734e+02
1.960000e-06	5.742690e-06	1.134253e-08	3.969366e+01	7.420671e+02
1.970000e-06	5.668389e-06	1.121753e-08	3.918009e+01	7.373058e+02
1.980000e-06	5.591868e-06	1.121171e-08	3.865118e+01	7.323571e+02
1.990000e-06	5.513013e-06	1.112559e-08	3.810613e+01	7.271959e+02
2.000000e-06	5.432140e-06	1.102913e-08	3.754713e+01	7.218097e+02
2.010000e-06	5.349462e-06	1.094523e-08	3.697566e+01	7.162016e+02
2.020000e-06	5.265043e-06	1.083558e-08	3.639215e+01	7.103873e+02
2.030000e-06	5.178667e-06	1.076680e-08	3.579512e+01	7.043905e+02
2.040000e-06	5.090324e-06	1.066318e-08	3.518449e+01	6.982357e+02
2.050000e-06	5.000288e-06	1.058400e-08	3.456216e+01	6.919406e+02
2.060000e-06	4.908650e-06	1.047279e-08	3.392875e+01	6.855117e+02
2.070000e-06	4.815276e-06	1.037275e-08	3.328335e+01	6.789422e+02
2.080000e-06	4.720050e-06	1.027672e-08	3.262515e+01	6.722138e+02
2.090000e-06	4.623201e-06	1.018335e-08	3.195572e+01	6.653018e+02
2.100000e-06	4.524858e-06	1.007692e-08	3.127597e+01	6.581810e+02
2.110000e-06	4.425037e-06	9.938602e-09	3.058601e+01	6.508321e+02
2.120000e-06	4.323627e-06	9.822524e-09	2.988505e+01	6.432452e+02
2.130000e-06	4.220488e-06	9.704320e-09	2.917215e+01	6.354216e+02
2.140000e-06	4.115781e-06	9.597477e-09	2.844842e+01	6.273716e+02
2.150000e-06	4.009730e-06	9.474925e-09	2.771539e+01	6.191099e+02
2.160000e-06	3.902296e-06	9.346518e-09	2.697280e+01	6.106504e+02
2.170000e-06	3.793420e-06	9.206800e-09	2.622025e+01	6.020011e+02
2.180000e-06	3.683122e-06	9.069274e-09	2.545786e+01	5.931612e+02
2.190000e-06	3.571433e-06	8.940307e-09	2.468586e+01	5.841207e+02
2.200000e-06	3.458384e-06	8.806755e-09	2.390447e+01	5.748628e+02
2.210000e-06	3.343985e-06	8.657688e-09	2.311374e+01	5.653683e+02
2.220000e-06	3.228268e-06	8.493661e-09	2.231390e+01	5.556202e+02
2.230000e-06	3.111163e-06	8.335290e-09	2.150446e+01	5.456074e+02
2.240000e-06	2.992746e-06	8.179180e-09	2.068596e+01	5.353267e+02
2.250000e-06	2.873161e-06	8.028947e-09	1.985938e+01	5.247816e+02
2.260000e-06	2.752497e-06	7.869223e-09	1.902535e+01	5.139794e+02
2.270000e-06	2.630896e-06	7.703162e-09	1.818484e+01	5.029264e+02
2.280000e-06	2.508455e-06	7.530318e-09	1.733853e+01	4.916242e+02
2.290000e-06	2.385108e-06	7.356016e-09	1.648594e+01	4.800661e+02
2.300000e-06	2.260904e-06	7.178961e-09	1.562744e+01	4.682374e+02
2.310000e-06	2.135972e-06	6.992299e-09	1.476391e+01	4.561174e+02
2.320000e-06	2.010274e-06	6.793467e-09	1.389508e+01	4.436834e+02
2.330000e-06	1.883839e-06	6.589702e-09	1.302116e+01	4.309154e+02
2.340000e-06	1.756705e-06	6.388573e-09	1.214240e+01	4.178008e+02
2.350000e-06	1.628923e-06	6.188179e-09	1.125917e+01	4.043352e+02
2.360000e-06	1.500586e-06	5.984846e-09	1.037210e+01	3.905222e+02
2.370000e-06	1.371806e-06	5.770480e-09	9.481966e+00	3.763689e+02
2.380000e-06	1.242619e-06	5.548789e-09	8.589027e+00	3.618809e+02
2.390000e-06	1.113073e-06	5.320548e-09	7.693596e+00	3.470557e+02
2.400000e-06	9.832443e-07	5.088525e-09	6.796218e+00	3.318790e+02
2.410000e-06	8.530815e-07	4.852725e-09	5.896528e+00	3.163231e+02
2.420000e-06	7.226342e-07	4.605259e-09	4.994872e+00	3.003482e+02
2.430000e-06	5.920000e-07	4.347824e-09	4.091924e+00	2.839086e+02
2.440000e-06	4.611995e-07	4.085048e-09	3.187826e+00	2.669580e+02
2.450000e-06	3.302529e-07	3.819286e-09	2.282719e+00	2.494574e+02
2.460000e-06	1.991397e-07	3.548977e-09	1.376460e+00	2.313788e+02
2.470000e-06	6.792089e-08	3.268297e-09	4.694715e-01	2.127061e+02
2.480000e-06	-6.329476e-08	2.975356e-09	-4.374955e-01	1.934323e+02
2.490000e-06	-1.945531e-07	2.672072e-09	-1.344758e+00	1.735529e+02
2.500000e-06	-3.257842e-07	2.359489e-09	-2.251831e+00	1.530576e+02
2.510000e-06	-4.568435e-07	2.039217e-09	-3.157717e+00	1.319230e+02
2.520000e-06	-5.877588e-07	1.707904e-09	-4.062608e+00	1.101085e+02
2.530000e-06	-7.185623e-07	1.362195e-09	-4.966727e+00	8.755794e+01
2.540000e-06	-8.491647e-07	1.003428e-09	-5.869455e+00	6.420593e+01
2.550000e-06	-9.794249e-07	6.329222e-10	-6.769818e+00	3.999110e+01
2.560000e-06	-1.109332e-06	2.526737e-10	-7.667737e+00	1.487173e+01
2.570000e-06	-1.238908e-06	-1.405291e-10	-8.563375e+00	-1.115773e+01
2.580000e-06	-1.368077e-06	-5.479152e-10	-9.456196e+00	-3.805312e+01
2.590000e-06	-1.496848e-06	-9.683760e-10	-1.034626e+01	-6.571267e+01
2.600000e-06	-1.625160e-06	-1.400448e-09	-1.123316e+01	-9.397670e+01
2.610000e-06	-1.752815e-06	-1.840767e-09	-1.211551e+01	-1.226354e+02
2.620000e-06	-1.879663e-06	-2.284693e-09	-1.299229e+01	-1.514437e+02
2.630000e-06	-2.005718e-06	-2.724576e-09	-1.386359e+01	-1.801404e+02
2.640000e-06	-2.131150e-06	-3.157483e-09	-1.473058e+01	-2.084692e+02
2.650000e-06	-2.255782e-06	-3.582921e-09	-1.559204e+01	-2.361984e+02
2.660000e-06	-2.379362e-06	-3.994154e-09	-1.644623e+01	-2.631350e+02
2.670000e-06	-2.501992e-06	-4.388282e-09	-1.729385e+01	-2.891343e+02
2.680000e-06	-2.623736e-06	-4.766463e-09	-1.813535e+01	-3.141022e+02
2.690000e-06	-2.744598e-06	-5.131888e-09	-1.897076e+01	-3.379916e+02
2.700000e-06	-2.864428e-06	-5.484242e-09	-1.979902e+01	-3.607951e+02
2.710000e-06	-2.983070e-06	-5.819298e-09	-2.061908e+01	-3.825352e+02
2.720000e-06	-3.100548e-06	-6.137112e-09	-2.143109e+01	-4.032541e+02
2.730000e-06	-3.216794e-06	-6.439394e-09	-2.223459e+01	-4.230046e+02
2.740000e-06	-3.331768e-06	-6.728216e-09	-2.302929e+01	-4.418439e+02
2.750000e-06	-3.445409e-06	-7.004055e-09	-2.381478e+01	-4.598285e+02
2.760000e-06	-3.557653e-06	-7.266759e-09	-2.459062e+01	-4.770122e+02
2.770000e-06	-3.668481e-06	-7.518973e-09	-2.535666e+01	-4.934445e+02
2.780000e-06	-3.777985e-06	-7.757911e-09	-2.611356e+01	-5.091706e+02
2.790000e-06	-3.886309e-06	-7.985267e-09	-2.686230e+01	-5.242312e+02
2.800000e-06	-3.993386e-06	-8.203976e-09	-2.760242e+01	-5.386626e+02
2.810000e-06	-4.099156e-06	-8.416695e-09	-2.833350e+01	-5.524969e+02
2.820000e-06	-4.203504e-06	-8.623038e-09	-2.905476e+01	-5.657621e+02
2.830000e-06	-4.306167e-06	-8.820970e-09	-2.976437e+01	-5.784832e+02
2.840000e-06	-4.407119e-06	-9.012082e-09	-3.046216e+01	-5.906828e+02
2.850000e-06	-4.506539e-06	-9.195176e-09	-3.114935e+01	-6.023826e+02
2.860000e-06	-4.604501e-06	-9.369286e-09	-3.182646e+01	-6.136045e+02
2.870000e-06	-4.700920e-06	-9.531717e-09	-3.249291e+01	-6.243714e+02
2.880000e-06	-4.795615e-06	-9.686083e-09	-3.314745e+01	-6.347067e+02
2.890000e-06	-4.888512e-06	-9.835587e-09	-3.378956e+01	-6.446338e+02
2.900000e-06	-4.979741e-06	-9.979906e-09	-3.442014e+01	-6.541745e+02
2.910000e-06	-5.069293e-06	-1.012048e-08	-3.503912e+01	-6.633471e+02
2.920000e-06	-5.156853e-06	-1.025533e-08	-3.564434e+01	-6.721648e+02
2.930000e-06	-5.242371e-06	-1.038514e-08	-3.623544e+01	-6.806352e+02
2.940000e-06	-5.326036e-06	-1.051004e-08	-3.681374e+01	-6.887605e+02
