# Temperatura_=_63.68
# Concentracion g/m^3_=_15000.0
# C_Vs_to_Am_M_A/Vsm_=_65563218390.804596
# pendiente_HvsI_1/m_=_3716.3
# ordenada_HvsI_A/m_=_1297.0
# frecuencia_Hz_=_301962.7278101401

Tiempo_(s)	Campo_(V.s)	Magnetizacion_(V.s)	Campo_(kA/m)	Magnetizacion_(A/m)
0.000000e+00	-6.872282e-06	-1.138210e-08	-4.746709e+01	-7.449454e+02
1.000000e-08	-6.868282e-06	-1.137648e-08	-4.743947e+01	-7.446572e+02
2.000000e-08	-6.862119e-06	-1.136843e-08	-4.739689e+01	-7.442321e+02
3.000000e-08	-6.853713e-06	-1.136303e-08	-4.733883e+01	-7.436645e+02
4.000000e-08	-6.842881e-06	-1.135652e-08	-4.726402e+01	-7.429498e+02
5.000000e-08	-6.829640e-06	-1.134759e-08	-4.717256e+01	-7.420853e+02
6.000000e-08	-6.813949e-06	-1.133040e-08	-4.706418e+01	-7.410721e+02
7.000000e-08	-6.795930e-06	-1.131432e-08	-4.693973e+01	-7.399168e+02
8.000000e-08	-6.775705e-06	-1.133232e-08	-4.680003e+01	-7.386315e+02
9.000000e-08	-6.752952e-06	-1.132167e-08	-4.664288e+01	-7.372348e+02
1.000000e-07	-6.727377e-06	-1.126743e-08	-4.646623e+01	-7.357497e+02
1.100000e-07	-6.699161e-06	-1.122768e-08	-4.627134e+01	-7.342014e+02
1.200000e-07	-6.668731e-06	-1.119498e-08	-4.606116e+01	-7.326139e+02
1.300000e-07	-6.636302e-06	-1.113441e-08	-4.583717e+01	-7.310056e+02
1.400000e-07	-6.601950e-06	-1.113423e-08	-4.559990e+01	-7.293852e+02
1.500000e-07	-6.565639e-06	-1.116337e-08	-4.534909e+01	-7.277482e+02
1.600000e-07	-6.527284e-06	-1.105926e-08	-4.508418e+01	-7.260762e+02
1.700000e-07	-6.486817e-06	-1.104111e-08	-4.480467e+01	-7.243366e+02
1.800000e-07	-6.443880e-06	-1.102879e-08	-4.450810e+01	-7.224870e+02
1.900000e-07	-6.398475e-06	-1.096745e-08	-4.419449e+01	-7.204796e+02
2.000000e-07	-6.350715e-06	-1.099941e-08	-4.386461e+01	-7.182684e+02
2.100000e-07	-6.300290e-06	-1.096811e-08	-4.351632e+01	-7.158160e+02
2.200000e-07	-6.247276e-06	-1.090265e-08	-4.315016e+01	-7.130988e+02
2.300000e-07	-6.191855e-06	-1.082482e-08	-4.276736e+01	-7.101110e+02
2.400000e-07	-6.134029e-06	-1.074273e-08	-4.236795e+01	-7.068641e+02
2.500000e-07	-6.073958e-06	-1.070628e-08	-4.195304e+01	-7.033845e+02
2.600000e-07	-6.011709e-06	-1.066688e-08	-4.152308e+01	-6.997075e+02
2.700000e-07	-5.947217e-06	-1.061880e-08	-4.107763e+01	-6.958705e+02
2.800000e-07	-5.880463e-06	-1.054911e-08	-4.061656e+01	-6.919058e+02
2.900000e-07	-5.811524e-06	-1.047995e-08	-4.014040e+01	-6.878348e+02
3.000000e-07	-5.740446e-06	-1.041918e-08	-3.964946e+01	-6.836649e+02
3.100000e-07	-5.667127e-06	-1.035601e-08	-3.914305e+01	-6.793894e+02
3.200000e-07	-5.591469e-06	-1.030932e-08	-3.862047e+01	-6.749908e+02
3.300000e-07	-5.513549e-06	-1.022585e-08	-3.808228e+01	-6.704458e+02
3.400000e-07	-5.433513e-06	-1.014605e-08	-3.752946e+01	-6.657315e+02
3.500000e-07	-5.351499e-06	-1.008359e-08	-3.696299e+01	-6.608308e+02
3.600000e-07	-5.267696e-06	-1.001320e-08	-3.638416e+01	-6.557361e+02
3.700000e-07	-5.182169e-06	-9.932794e-09	-3.579342e+01	-6.504503e+02
3.800000e-07	-5.094868e-06	-9.835729e-09	-3.519043e+01	-6.449851e+02
3.900000e-07	-5.005770e-06	-9.744073e-09	-3.457503e+01	-6.393568e+02
4.000000e-07	-4.914881e-06	-9.659258e-09	-3.394726e+01	-6.335815e+02
4.100000e-07	-4.822306e-06	-9.588940e-09	-3.330784e+01	-6.276705e+02
4.200000e-07	-4.728153e-06	-9.502781e-09	-3.265752e+01	-6.216262e+02
4.300000e-07	-4.632314e-06	-9.394827e-09	-3.199556e+01	-6.154416e+02
4.400000e-07	-4.534697e-06	-9.281968e-09	-3.132131e+01	-6.091016e+02
4.500000e-07	-4.435369e-06	-9.173287e-09	-3.063525e+01	-6.025860e+02
4.600000e-07	-4.334489e-06	-9.079793e-09	-2.993847e+01	-5.958743e+02
4.700000e-07	-4.232134e-06	-8.987875e-09	-2.923150e+01	-5.889496e+02
4.800000e-07	-4.128307e-06	-8.886105e-09	-2.851436e+01	-5.818025e+02
4.900000e-07	-4.022955e-06	-8.767067e-09	-2.778669e+01	-5.744313e+02
5.000000e-07	-3.916013e-06	-8.642746e-09	-2.704804e+01	-5.668420e+02
5.100000e-07	-3.807622e-06	-8.523278e-09	-2.629937e+01	-5.590447e+02
5.200000e-07	-3.697964e-06	-8.405685e-09	-2.554196e+01	-5.510504e+02
5.300000e-07	-3.587044e-06	-8.279774e-09	-2.477584e+01	-5.428669e+02
5.400000e-07	-3.474789e-06	-8.146521e-09	-2.400049e+01	-5.344962e+02
5.500000e-07	-3.361047e-06	-8.014872e-09	-2.321487e+01	-5.259332e+02
5.600000e-07	-3.245740e-06	-7.883182e-09	-2.241844e+01	-5.171665e+02
5.700000e-07	-3.129085e-06	-7.750370e-09	-2.161270e+01	-5.081809e+02
5.800000e-07	-3.011312e-06	-7.609878e-09	-2.079924e+01	-4.989601e+02
5.900000e-07	-2.892384e-06	-7.462628e-09	-1.997779e+01	-4.894898e+02
6.000000e-07	-2.772392e-06	-7.310547e-09	-1.914901e+01	-4.797600e+02
6.100000e-07	-2.651488e-06	-7.160443e-09	-1.831392e+01	-4.697656e+02
6.200000e-07	-2.529537e-06	-7.007749e-09	-1.747160e+01	-4.595055e+02
6.300000e-07	-2.406486e-06	-6.843932e-09	-1.662168e+01	-4.489812e+02
6.400000e-07	-2.282491e-06	-6.671495e-09	-1.576524e+01	-4.381938e+02
6.500000e-07	-2.157756e-06	-6.494365e-09	-1.490370e+01	-4.271419e+02
6.600000e-07	-2.032372e-06	-6.319267e-09	-1.403766e+01	-4.158203e+02
6.700000e-07	-1.906303e-06	-6.147313e-09	-1.316690e+01	-4.042198e+02
6.800000e-07	-1.779589e-06	-5.975034e-09	-1.229168e+01	-3.923276e+02
6.900000e-07	-1.652265e-06	-5.793004e-09	-1.141225e+01	-3.801293e+02
7.000000e-07	-1.524360e-06	-5.598784e-09	-1.052881e+01	-3.676104e+02
7.100000e-07	-1.395969e-06	-5.401053e-09	-9.642007e+00	-3.547581e+02
7.200000e-07	-1.267166e-06	-5.201371e-09	-8.752362e+00	-3.415615e+02
7.300000e-07	-1.137948e-06	-4.994089e-09	-7.859849e+00	-3.280111e+02
7.400000e-07	-1.008290e-06	-4.778612e-09	-6.964296e+00	-3.140982e+02
7.500000e-07	-8.782484e-07	-4.559331e-09	-6.066092e+00	-2.998125e+02
7.600000e-07	-7.479162e-07	-4.335932e-09	-5.165883e+00	-2.851411e+02
7.700000e-07	-6.174014e-07	-4.107357e-09	-4.264413e+00	-2.700675e+02
7.800000e-07	-4.866518e-07	-3.874020e-09	-3.361321e+00	-2.545716e+02
7.900000e-07	-3.556145e-07	-3.635278e-09	-2.456242e+00	-2.386304e+02
8.000000e-07	-2.244162e-07	-3.385224e-09	-1.550051e+00	-2.222189e+02
8.100000e-07	-9.311798e-08	-3.126254e-09	-6.431691e-01	-2.053113e+02
8.200000e-07	3.826007e-08	-2.861697e-09	2.642637e-01	-1.878816e+02
8.300000e-07	1.696531e-07	-2.585984e-09	1.171800e+00	-1.699025e+02
8.400000e-07	3.010028e-07	-2.299336e-09	2.079037e+00	-1.513446e+02
8.500000e-07	4.322548e-07	-2.003633e-09	2.985599e+00	-1.321751e+02
8.600000e-07	5.633469e-07	-1.699676e-09	3.891057e+00	-1.123565e+02
8.700000e-07	6.942521e-07	-1.385307e-09	4.795223e+00	-9.184754e+01
8.800000e-07	8.249546e-07	-1.062044e-09	5.697990e+00	-7.060583e+01
8.900000e-07	9.554275e-07	-7.298265e-10	6.599171e+00	-4.859353e+01
9.000000e-07	1.085586e-06	-3.837072e-10	7.498182e+00	-2.578496e+01
9.100000e-07	1.215340e-06	-2.142563e-11	8.394393e+00	-2.175818e+00
9.200000e-07	1.344596e-06	3.548788e-10	9.287175e+00	2.220772e+01
9.300000e-07	1.473306e-06	7.393866e-10	1.017618e+01	4.730155e+01
9.400000e-07	1.601480e-06	1.130627e-09	1.106148e+01	7.299962e+01
9.500000e-07	1.729115e-06	1.527044e-09	1.194306e+01	9.915437e+01
9.600000e-07	1.856146e-06	1.929047e-09	1.282046e+01	1.255822e+02
9.700000e-07	1.982440e-06	2.333484e-09	1.369278e+01	1.520739e+02
9.800000e-07	2.107970e-06	2.735144e-09	1.455982e+01	1.784078e+02
9.900000e-07	2.232865e-06	3.130183e-09	1.542248e+01	2.043657e+02
1.000000e-06	2.357062e-06	3.514235e-09	1.628031e+01	2.297475e+02
1.010000e-06	2.480392e-06	3.885283e-09	1.713215e+01	2.543840e+02
1.020000e-06	2.602775e-06	4.244207e-09	1.797746e+01	2.781455e+02
1.030000e-06	2.724039e-06	4.593381e-09	1.881503e+01	3.009462e+02
1.040000e-06	2.844200e-06	4.927680e-09	1.964499e+01	3.227428e+02
1.050000e-06	2.963352e-06	5.244775e-09	2.046798e+01	3.435301e+02
1.060000e-06	3.081460e-06	5.545829e-09	2.128375e+01	3.633331e+02
1.070000e-06	3.198525e-06	5.834116e-09	2.209232e+01	3.821975e+02
1.080000e-06	3.314414e-06	6.109336e-09	2.289278e+01	4.001804e+02
1.090000e-06	3.428951e-06	6.368179e-09	2.368388e+01	4.173425e+02
1.100000e-06	3.541972e-06	6.614766e-09	2.446453e+01	4.337418e+02
1.110000e-06	3.653602e-06	6.851816e-09	2.523556e+01	4.494300e+02
1.120000e-06	3.764049e-06	7.079206e-09	2.599842e+01	4.644506e+02
1.130000e-06	3.873277e-06	7.297795e-09	2.675286e+01	4.788394e+02
1.140000e-06	3.981335e-06	7.508520e-09	2.749922e+01	4.926255e+02
1.150000e-06	4.088094e-06	7.712294e-09	2.823661e+01	5.058340e+02
1.160000e-06	4.193254e-06	7.906260e-09	2.896295e+01	5.184873e+02
1.170000e-06	4.296779e-06	8.089125e-09	2.967800e+01	5.306073e+02
1.180000e-06	4.398801e-06	8.264172e-09	3.038267e+01	5.422164e+02
1.190000e-06	4.499351e-06	8.430930e-09	3.107717e+01	5.533384e+02
1.200000e-06	4.598337e-06	8.590000e-09	3.176088e+01	5.639979e+02
1.210000e-06	4.695512e-06	8.742819e-09	3.243206e+01	5.742203e+02
1.220000e-06	4.790842e-06	8.891597e-09	3.309051e+01	5.840299e+02
1.230000e-06	4.884547e-06	9.036970e-09	3.373774e+01	5.934495e+02
1.240000e-06	4.976682e-06	9.178853e-09	3.437412e+01	6.024981e+02
1.250000e-06	5.067128e-06	9.317640e-09	3.499883e+01	6.111908e+02
1.260000e-06	5.155650e-06	9.448962e-09	3.561026e+01	6.195373e+02
1.270000e-06	5.242210e-06	9.572252e-09	3.620813e+01	6.275430e+02
1.280000e-06	5.326935e-06	9.689417e-09	3.679333e+01	6.352088e+02
1.290000e-06	5.409862e-06	9.800680e-09	3.736610e+01	6.425336e+02
1.300000e-06	5.490846e-06	9.904206e-09	3.792546e+01	6.495160e+02
1.310000e-06	5.569775e-06	1.000220e-08	3.847063e+01	6.561564e+02
1.320000e-06	5.646748e-06	1.009903e-08	3.900228e+01	6.624593e+02
1.330000e-06	5.721590e-06	1.019394e-08	3.951922e+01	6.684344e+02
1.340000e-06	5.794107e-06	1.028233e-08	4.002010e+01	6.740973e+02
1.350000e-06	5.864494e-06	1.036312e-08	4.050626e+01	6.794685e+02
1.360000e-06	5.932915e-06	1.043838e-08	4.097885e+01	6.845718e+02
1.370000e-06	5.999264e-06	1.051003e-08	4.143712e+01	6.894322e+02
1.380000e-06	6.063388e-06	1.058008e-08	4.188003e+01	6.940732e+02
1.390000e-06	6.125354e-06	1.064740e-08	4.230803e+01	6.985144e+02
1.400000e-06	6.185331e-06	1.071176e-08	4.272230e+01	7.027701e+02
1.410000e-06	6.243140e-06	1.077426e-08	4.312159e+01	7.068483e+02
1.420000e-06	6.298681e-06	1.083395e-08	4.350521e+01	7.107508e+02
1.430000e-06	6.351911e-06	1.089099e-08	4.387287e+01	7.144749e+02
1.440000e-06	6.402557e-06	1.094559e-08	4.422268e+01	7.180146e+02
1.450000e-06	6.450610e-06	1.099761e-08	4.455459e+01	7.213624e+02
1.460000e-06	6.496296e-06	1.104562e-08	4.487014e+01	7.245116e+02
1.470000e-06	6.539836e-06	1.108843e-08	4.517088e+01	7.274569e+02
1.480000e-06	6.581060e-06	1.112766e-08	4.545561e+01	7.301956e+02
1.490000e-06	6.619823e-06	1.116504e-08	4.572335e+01	7.327272e+02
1.500000e-06	6.656370e-06	1.119924e-08	4.597578e+01	7.350537e+02
1.510000e-06	6.690615e-06	1.122972e-08	4.621231e+01	7.371785e+02
1.520000e-06	6.722394e-06	1.125856e-08	4.643181e+01	7.391061e+02
1.530000e-06	6.751843e-06	1.128542e-08	4.663522e+01	7.408417e+02
1.540000e-06	6.778977e-06	1.130926e-08	4.682263e+01	7.423910e+02
1.550000e-06	6.803614e-06	1.132996e-08	4.699280e+01	7.437599e+02
1.560000e-06	6.825755e-06	1.134699e-08	4.714572e+01	7.449548e+02
1.570000e-06	6.845580e-06	1.136046e-08	4.728266e+01	7.459826e+02
1.580000e-06	6.862979e-06	1.137183e-08	4.740284e+01	7.468505e+02
1.590000e-06	6.877809e-06	1.138035e-08	4.750526e+01	7.475662e+02
1.600000e-06	6.890079e-06	1.138748e-08	4.759001e+01	7.481367e+02
1.610000e-06	6.899625e-06	1.139424e-08	4.765595e+01	7.485690e+02
1.620000e-06	6.906548e-06	1.139891e-08	4.770376e+01	7.488684e+02
1.630000e-06	6.911164e-06	1.140235e-08	4.773565e+01	7.490390e+02
1.640000e-06	6.913350e-06	1.140542e-08	4.775075e+01	7.490826e+02
1.650000e-06	6.913006e-06	1.140646e-08	4.774837e+01	7.489989e+02
1.660000e-06	6.910407e-06	1.140067e-08	4.773042e+01	7.487855e+02
1.670000e-06	6.905569e-06	1.139238e-08	4.769701e+01	7.484382e+02
1.680000e-06	6.898323e-06	1.138096e-08	4.764695e+01	7.479516e+02
1.690000e-06	6.888812e-06	1.136945e-08	4.758126e+01	7.473204e+02
1.700000e-06	6.877122e-06	1.135991e-08	4.750052e+01	7.465405e+02
1.710000e-06	6.863006e-06	1.135080e-08	4.740302e+01	7.456108e+02
1.720000e-06	6.846566e-06	1.133502e-08	4.728947e+01	7.445345e+02
1.730000e-06	6.828061e-06	1.126904e-08	4.716165e+01	7.433205e+02
1.740000e-06	6.806959e-06	1.123492e-08	4.701590e+01	7.419838e+02
1.750000e-06	6.782506e-06	1.124826e-08	4.684700e+01	7.405451e+02
1.760000e-06	6.755064e-06	1.123205e-08	4.665746e+01	7.390287e+02
1.770000e-06	6.725277e-06	1.122918e-08	4.645172e+01	7.374598e+02
1.780000e-06	6.693578e-06	1.124079e-08	4.623277e+01	7.358605e+02
1.790000e-06	6.660510e-06	1.114770e-08	4.600437e+01	7.342455e+02
1.800000e-06	6.625658e-06	1.113936e-08	4.576365e+01	7.326183e+02
1.810000e-06	6.588221e-06	1.117041e-08	4.550507e+01	7.309683e+02
1.820000e-06	6.548460e-06	1.110324e-08	4.523044e+01	7.292709e+02
1.830000e-06	6.506588e-06	1.114240e-08	4.494123e+01	7.274888e+02
1.840000e-06	6.462501e-06	1.106529e-08	4.463672e+01	7.255763e+02
1.850000e-06	6.416206e-06	1.097501e-08	4.431696e+01	7.234858e+02
1.860000e-06	6.367402e-06	1.098264e-08	4.397986e+01	7.211740e+02
1.870000e-06	6.316219e-06	1.091184e-08	4.362635e+01	7.186089e+02
1.880000e-06	6.262502e-06	1.095167e-08	4.325532e+01	7.157743e+02
1.890000e-06	6.206137e-06	1.092811e-08	4.286600e+01	7.126720e+02
1.900000e-06	6.147533e-06	1.083571e-08	4.246122e+01	7.093203e+02
1.910000e-06	6.086580e-06	1.078315e-08	4.204022e+01	7.057504e+02
1.920000e-06	6.023275e-06	1.067055e-08	4.160297e+01	7.019993e+02
1.930000e-06	5.957818e-06	1.066036e-08	4.115085e+01	6.981031e+02
1.940000e-06	5.890299e-06	1.061747e-08	4.068450e+01	6.940899e+02
1.950000e-06	5.820520e-06	1.055825e-08	4.020253e+01	6.899754e+02
1.960000e-06	5.748316e-06	1.048741e-08	3.970382e+01	6.857606e+02
1.970000e-06	5.673989e-06	1.037664e-08	3.919044e+01	6.814339e+02
1.980000e-06	5.597379e-06	1.033450e-08	3.866129e+01	6.769745e+02
1.990000e-06	5.518472e-06	1.025075e-08	3.811628e+01	6.723584e+02
2.000000e-06	5.437694e-06	1.018604e-08	3.755834e+01	6.675647e+02
2.010000e-06	5.355089e-06	1.011107e-08	3.698779e+01	6.625801e+02
2.020000e-06	5.270662e-06	1.002774e-08	3.640464e+01	6.574014e+02
2.030000e-06	5.184229e-06	9.958838e-09	3.580765e+01	6.520358e+02
2.040000e-06	5.095778e-06	9.869237e-09	3.519672e+01	6.464975e+02
2.050000e-06	5.005654e-06	9.780056e-09	3.457423e+01	6.408033e+02
2.060000e-06	4.913974e-06	9.670430e-09	3.394099e+01	6.349679e+02
2.070000e-06	4.820630e-06	9.580916e-09	3.329626e+01	6.289989e+02
2.080000e-06	4.725482e-06	9.496135e-09	3.263907e+01	6.228947e+02
2.090000e-06	4.628665e-06	9.427093e-09	3.197035e+01	6.166447e+02
2.100000e-06	4.530341e-06	9.342996e-09	3.129122e+01	6.102310e+02
2.110000e-06	4.430467e-06	9.230499e-09	3.060139e+01	6.036326e+02
2.120000e-06	4.328978e-06	9.104128e-09	2.990040e+01	5.968302e+02
2.130000e-06	4.225830e-06	8.977589e-09	2.918796e+01	5.898098e+02
2.140000e-06	4.121069e-06	8.875828e-09	2.846437e+01	5.825652e+02
2.150000e-06	4.014928e-06	8.777231e-09	2.773125e+01	5.750984e+02
2.160000e-06	3.907398e-06	8.676385e-09	2.698853e+01	5.674175e+02
2.170000e-06	3.798491e-06	8.556330e-09	2.623631e+01	5.595335e+02
2.180000e-06	3.688193e-06	8.425835e-09	2.547448e+01	5.514564e+02
2.190000e-06	3.576441e-06	8.291894e-09	2.470260e+01	5.431917e+02
2.200000e-06	3.463394e-06	8.166373e-09	2.392178e+01	5.347385e+02
2.210000e-06	3.348974e-06	8.037214e-09	2.313148e+01	5.260887e+02
2.220000e-06	3.233151e-06	7.898435e-09	2.233148e+01	5.172291e+02
2.230000e-06	3.115930e-06	7.754260e-09	2.152183e+01	5.081436e+02
2.240000e-06	2.997434e-06	7.610853e-09	2.070338e+01	4.988163e+02
2.250000e-06	2.877742e-06	7.471085e-09	1.987667e+01	4.892346e+02
2.260000e-06	2.756966e-06	7.322067e-09	1.904246e+01	4.793907e+02
2.270000e-06	2.635272e-06	7.169954e-09	1.820192e+01	4.692813e+02
2.280000e-06	2.512636e-06	7.011070e-09	1.735486e+01	4.589067e+02
2.290000e-06	2.389077e-06	6.849902e-09	1.650144e+01	4.482684e+02
2.300000e-06	2.264735e-06	6.690554e-09	1.564260e+01	4.373669e+02
2.310000e-06	2.139745e-06	6.528596e-09	1.477930e+01	4.261992e+02
2.320000e-06	2.014050e-06	6.352338e-09	1.391111e+01	4.147584e+02
2.330000e-06	1.887576e-06	6.159479e-09	1.303755e+01	4.030335e+02
2.340000e-06	1.760397e-06	5.965513e-09	1.215913e+01	3.910108e+02
2.350000e-06	1.632559e-06	5.779906e-09	1.127614e+01	3.786757e+02
2.360000e-06	1.504063e-06	5.596396e-09	1.038862e+01	3.660143e+02
2.370000e-06	1.375093e-06	5.406210e-09	9.497818e+00	3.530145e+02
2.380000e-06	1.245775e-06	5.205222e-09	8.604609e+00	3.396663e+02
2.390000e-06	1.116165e-06	4.991188e-09	7.709389e+00	3.259606e+02
2.400000e-06	9.862076e-07	4.770330e-09	6.811770e+00	3.118882e+02
2.410000e-06	8.558829e-07	4.550310e-09	5.911613e+00	2.974379e+02
2.420000e-06	7.253148e-07	4.327010e-09	5.009775e+00	2.825953e+02
2.430000e-06	5.945512e-07	4.093355e-09	4.106586e+00	2.673423e+02
2.440000e-06	4.635967e-07	3.848936e-09	3.202078e+00	2.516574e+02
2.450000e-06	3.324368e-07	3.600101e-09	2.296152e+00	2.355166e+02
2.460000e-06	2.011319e-07	3.348151e-09	1.389225e+00	2.188946e+02
2.470000e-06	6.967505e-08	3.089230e-09	4.812480e-01	2.017654e+02
2.480000e-06	-6.183123e-08	2.822789e-09	-4.270705e-01	1.841025e+02
2.490000e-06	-1.932789e-07	2.547111e-09	-1.334984e+00	1.658781e+02
2.500000e-06	-3.246657e-07	2.258686e-09	-2.242477e+00	1.470613e+02
2.510000e-06	-4.559339e-07	1.960820e-09	-3.149151e+00	1.276173e+02
2.520000e-06	-5.870678e-07	1.656829e-09	-4.054898e+00	1.075070e+02
2.530000e-06	-7.180008e-07	1.340993e-09	-4.959256e+00	8.668793e+01
2.540000e-06	-8.486485e-07	1.010378e-09	-5.861644e+00	6.511900e+01
2.550000e-06	-9.789823e-07	6.675638e-10	-6.761865e+00	4.276646e+01
2.560000e-06	-1.108982e-06	3.151349e-10	-7.659776e+00	1.961265e+01
2.570000e-06	-1.238624e-06	-4.573265e-11	-8.555218e+00	-4.334752e+00
2.580000e-06	-1.367868e-06	-4.172002e-10	-9.447908e+00	-2.903405e+01
2.590000e-06	-1.496694e-06	-8.029708e-10	-1.033772e+01	-5.440341e+01
2.600000e-06	-1.625038e-06	-1.202234e-09	-1.122419e+01	-8.031864e+01
2.610000e-06	-1.752837e-06	-1.607634e-09	-1.210691e+01	-1.066158e+02
2.620000e-06	-1.879990e-06	-2.012664e-09	-1.298515e+01	-1.330988e+02
2.630000e-06	-2.006304e-06	-2.415171e-09	-1.385761e+01	-1.595512e+02
2.640000e-06	-2.131750e-06	-2.815532e-09	-1.472407e+01	-1.857511e+02
2.650000e-06	-2.256324e-06	-3.211719e-09	-1.558451e+01	-2.114861e+02
2.660000e-06	-2.379977e-06	-3.596888e-09	-1.643858e+01	-2.365681e+02
2.670000e-06	-2.502713e-06	-3.966512e-09	-1.728632e+01	-2.608441e+02
2.680000e-06	-2.624569e-06	-4.320394e-09	-1.812799e+01	-2.842029e+02
2.690000e-06	-2.745481e-06	-4.661408e-09	-1.896314e+01	-3.065773e+02
2.700000e-06	-2.865416e-06	-4.989116e-09	-1.979153e+01	-3.279411e+02
2.710000e-06	-2.984283e-06	-5.300116e-09	-2.061255e+01	-3.483032e+02
2.720000e-06	-3.101883e-06	-5.595630e-09	-2.142481e+01	-3.676985e+02
2.730000e-06	-3.218206e-06	-5.878240e-09	-2.222826e+01	-3.861788e+02
2.740000e-06	-3.333227e-06	-6.149792e-09	-2.302272e+01	-4.038037e+02
2.750000e-06	-3.446949e-06	-6.410261e-09	-2.380819e+01	-4.206332e+02
2.760000e-06	-3.559271e-06	-6.657551e-09	-2.458401e+01	-4.367230e+02
2.770000e-06	-3.670159e-06	-6.891021e-09	-2.534992e+01	-4.521213e+02
2.780000e-06	-3.779741e-06	-7.111496e-09	-2.610680e+01	-4.668683e+02
2.790000e-06	-3.888153e-06	-7.324380e-09	-2.685561e+01	-4.809966e+02
2.800000e-06	-3.995382e-06	-7.531257e-09	-2.759625e+01	-4.945334e+02
2.810000e-06	-4.101275e-06	-7.732883e-09	-2.832765e+01	-5.075024e+02
2.820000e-06	-4.205688e-06	-7.928685e-09	-2.904883e+01	-5.199255e+02
2.830000e-06	-4.308445e-06	-8.114210e-09	-2.975858e+01	-5.318248e+02
2.840000e-06	-4.409511e-06	-8.289440e-09	-3.045665e+01	-5.432233e+02
2.850000e-06	-4.509009e-06	-8.456525e-09	-3.114388e+01	-5.541451e+02
2.860000e-06	-4.607081e-06	-8.617802e-09	-3.182127e+01	-5.646153e+02
2.870000e-06	-4.703614e-06	-8.770773e-09	-3.248803e+01	-5.746589e+02
2.880000e-06	-4.798414e-06	-8.914920e-09	-3.314281e+01	-5.842999e+02
2.890000e-06	-4.891430e-06	-9.052994e-09	-3.378528e+01	-5.935595e+02
2.900000e-06	-4.982748e-06	-9.186654e-09	-3.441601e+01	-6.024551e+02
2.910000e-06	-5.072311e-06	-9.316527e-09	-3.503463e+01	-6.109996e+02
2.920000e-06	-5.160008e-06	-9.441034e-09	-3.564035e+01	-6.192008e+02
2.930000e-06	-5.245707e-06	-9.560285e-09	-3.623228e+01	-6.270619e+02
2.940000e-06	-5.329434e-06	-9.674043e-09	-3.681059e+01	-6.345829e+02
