# Temperatura_=_34.06
# Concentracion g/m^3_=_15000.0
# C_Vs_to_Am_M_A/Vsm_=_65563218390.804596
# pendiente_HvsI_1/m_=_3716.3
# ordenada_HvsI_A/m_=_1297.0
# frecuencia_Hz_=_301964.24537642754

Tiempo_(s)	Campo_(V.s)	Magnetizacion_(V.s)	Campo_(kA/m)	Magnetizacion_(A/m)
0.000000e+00	-6.910132e-06	-1.010936e-08	-4.746523e+01	-6.615435e+02
1.000000e-08	-6.906023e-06	-1.010807e-08	-4.743701e+01	-6.613251e+02
2.000000e-08	-6.899748e-06	-1.010093e-08	-4.739391e+01	-6.609968e+02
3.000000e-08	-6.891305e-06	-1.009480e-08	-4.733592e+01	-6.605518e+02
4.000000e-08	-6.880421e-06	-1.008817e-08	-4.726115e+01	-6.599835e+02
5.000000e-08	-6.866992e-06	-1.008079e-08	-4.716891e+01	-6.592885e+02
6.000000e-08	-6.851169e-06	-1.006504e-08	-4.706022e+01	-6.584689e+02
7.000000e-08	-6.833065e-06	-1.005021e-08	-4.693587e+01	-6.575347e+02
8.000000e-08	-6.812746e-06	-1.007971e-08	-4.679630e+01	-6.565034e+02
9.000000e-08	-6.789884e-06	-1.009182e-08	-4.663926e+01	-6.553993e+02
1.000000e-07	-6.764127e-06	-1.002500e-08	-4.646234e+01	-6.542493e+02
1.100000e-07	-6.735702e-06	-9.981626e-09	-4.626708e+01	-6.530786e+02
1.200000e-07	-6.705004e-06	-9.968445e-09	-4.605623e+01	-6.519053e+02
1.300000e-07	-6.672358e-06	-9.895587e-09	-4.583198e+01	-6.507356e+02
1.400000e-07	-6.637851e-06	-9.875473e-09	-4.559496e+01	-6.495612e+02
1.500000e-07	-6.601338e-06	-9.980483e-09	-4.534415e+01	-6.483591e+02
1.600000e-07	-6.562745e-06	-9.856166e-09	-4.507906e+01	-6.470939e+02
1.700000e-07	-6.522049e-06	-9.828817e-09	-4.479952e+01	-6.457232e+02
1.800000e-07	-6.478855e-06	-9.890059e-09	-4.450282e+01	-6.442039e+02
1.900000e-07	-6.433127e-06	-9.761811e-09	-4.418872e+01	-6.424997e+02
2.000000e-07	-6.385044e-06	-9.813171e-09	-4.385844e+01	-6.405863e+02
2.100000e-07	-6.334225e-06	-9.801084e-09	-4.350937e+01	-6.384552e+02
2.200000e-07	-6.280764e-06	-9.709604e-09	-4.314215e+01	-6.361139e+02
2.300000e-07	-6.224907e-06	-9.661164e-09	-4.275847e+01	-6.335833e+02
2.400000e-07	-6.166688e-06	-9.596630e-09	-4.235857e+01	-6.308922e+02
2.500000e-07	-6.106210e-06	-9.588708e-09	-4.194315e+01	-6.280716e+02
2.600000e-07	-6.043536e-06	-9.557763e-09	-4.151265e+01	-6.251476e+02
2.700000e-07	-5.978679e-06	-9.506087e-09	-4.106715e+01	-6.221369e+02
2.800000e-07	-5.911524e-06	-9.437793e-09	-4.060586e+01	-6.190445e+02
2.900000e-07	-5.842120e-06	-9.376440e-09	-4.012913e+01	-6.158637e+02
3.000000e-07	-5.770544e-06	-9.356116e-09	-3.963748e+01	-6.125793e+02
3.100000e-07	-5.696717e-06	-9.288184e-09	-3.913037e+01	-6.091720e+02
3.200000e-07	-5.620637e-06	-9.255587e-09	-3.860778e+01	-6.056232e+02
3.300000e-07	-5.542284e-06	-9.192498e-09	-3.806958e+01	-6.019194e+02
3.400000e-07	-5.461697e-06	-9.109224e-09	-3.751603e+01	-5.980548e+02
3.500000e-07	-5.379171e-06	-9.072069e-09	-3.694917e+01	-5.940316e+02
3.600000e-07	-5.294905e-06	-9.020571e-09	-3.637035e+01	-5.898582e+02
3.700000e-07	-5.208869e-06	-8.956780e-09	-3.577938e+01	-5.855462e+02
3.800000e-07	-5.121052e-06	-8.859818e-09	-3.517617e+01	-5.811067e+02
3.900000e-07	-5.031446e-06	-8.787208e-09	-3.456067e+01	-5.765467e+02
4.000000e-07	-4.940029e-06	-8.722370e-09	-3.393273e+01	-5.718671e+02
4.100000e-07	-4.846903e-06	-8.664825e-09	-3.329305e+01	-5.670621e+02
4.200000e-07	-4.752139e-06	-8.595091e-09	-3.264213e+01	-5.621207e+02
4.300000e-07	-4.655584e-06	-8.504447e-09	-3.197890e+01	-5.570286e+02
4.400000e-07	-4.557325e-06	-8.419958e-09	-3.130396e+01	-5.517717e+02
4.500000e-07	-4.457394e-06	-8.329565e-09	-3.061754e+01	-5.463384e+02
4.600000e-07	-4.355897e-06	-8.250824e-09	-2.992037e+01	-5.407216e+02
4.700000e-07	-4.252956e-06	-8.171877e-09	-2.921327e+01	-5.349188e+02
4.800000e-07	-4.148423e-06	-8.081291e-09	-2.849524e+01	-5.289319e+02
4.900000e-07	-4.042455e-06	-7.974761e-09	-2.776735e+01	-5.227649e+02
5.000000e-07	-3.934990e-06	-7.874046e-09	-2.702918e+01	-5.164223e+02
5.100000e-07	-3.826002e-06	-7.781127e-09	-2.628055e+01	-5.099065e+02
5.200000e-07	-3.715759e-06	-7.682787e-09	-2.552330e+01	-5.032172e+02
5.300000e-07	-3.604146e-06	-7.574616e-09	-2.475664e+01	-4.963504e+02
5.400000e-07	-3.490978e-06	-7.460581e-09	-2.397930e+01	-4.892994e+02
5.500000e-07	-3.376367e-06	-7.351375e-09	-2.319204e+01	-4.820559e+02
5.600000e-07	-3.260335e-06	-7.242044e-09	-2.239502e+01	-4.746107e+02
5.700000e-07	-3.142963e-06	-7.131138e-09	-2.158880e+01	-4.669557e+02
5.800000e-07	-3.024497e-06	-7.010535e-09	-2.077507e+01	-4.590833e+02
5.900000e-07	-2.904935e-06	-6.882474e-09	-1.995381e+01	-4.509873e+02
6.000000e-07	-2.784214e-06	-6.749683e-09	-1.912458e+01	-4.426617e+02
6.100000e-07	-2.662502e-06	-6.621866e-09	-1.828855e+01	-4.340998e+02
6.200000e-07	-2.539857e-06	-6.494085e-09	-1.744611e+01	-4.252938e+02
6.300000e-07	-2.416159e-06	-6.352811e-09	-1.659643e+01	-4.162348e+02
6.400000e-07	-2.291466e-06	-6.202122e-09	-1.573993e+01	-4.069123e+02
6.500000e-07	-2.166046e-06	-6.050234e-09	-1.487842e+01	-3.973161e+02
6.600000e-07	-2.040092e-06	-5.899614e-09	-1.401326e+01	-3.874364e+02
6.700000e-07	-1.913530e-06	-5.747769e-09	-1.314391e+01	-3.772658e+02
6.800000e-07	-1.786189e-06	-5.592618e-09	-1.226921e+01	-3.667991e+02
6.900000e-07	-1.658066e-06	-5.427909e-09	-1.138914e+01	-3.560333e+02
7.000000e-07	-1.529257e-06	-5.255180e-09	-1.050437e+01	-3.449666e+02
7.100000e-07	-1.399952e-06	-5.080627e-09	-9.616178e+00	-3.335970e+02
7.200000e-07	-1.270354e-06	-4.906181e-09	-8.725978e+00	-3.219200e+02
7.300000e-07	-1.140415e-06	-4.724233e-09	-7.833437e+00	-3.099276e+02
7.400000e-07	-1.010079e-06	-4.531929e-09	-6.938168e+00	-2.976071e+02
7.500000e-07	-8.793667e-07	-4.335539e-09	-6.040311e+00	-2.849414e+02
7.600000e-07	-7.483912e-07	-4.137509e-09	-5.140649e+00	-2.719101e+02
7.700000e-07	-6.171303e-07	-3.935614e-09	-4.239027e+00	-2.584917e+02
7.800000e-07	-4.856144e-07	-3.725636e-09	-3.335653e+00	-2.446654e+02
7.900000e-07	-3.539275e-07	-3.507263e-09	-2.431104e+00	-2.304134e+02
8.000000e-07	-2.220296e-07	-3.280245e-09	-1.525107e+00	-2.157219e+02
8.100000e-07	-8.993186e-08	-3.048367e-09	-6.177359e-01	-2.005805e+02
8.200000e-07	4.223601e-08	-2.813279e-09	2.901164e-01	-1.849807e+02
8.300000e-07	1.744015e-07	-2.570357e-09	1.197953e+00	-1.689130e+02
8.400000e-07	3.065155e-07	-2.319745e-09	2.105434e+00	-1.523635e+02
8.500000e-07	4.384738e-07	-2.062714e-09	3.011847e+00	-1.353111e+02
8.600000e-07	5.702795e-07	-1.796998e-09	3.917212e+00	-1.177254e+02
8.700000e-07	7.019212e-07	-1.516775e-09	4.821450e+00	-9.956706e+01
8.800000e-07	8.333377e-07	-1.225435e-09	5.724141e+00	-8.079081e+01
8.900000e-07	9.644639e-07	-9.262401e-10	6.624838e+00	-6.135075e+01
9.000000e-07	1.095228e-06	-6.169069e-10	7.523051e+00	-4.120803e+01
9.100000e-07	1.225583e-06	-2.964602e-10	8.418447e+00	-2.033985e+01
9.200000e-07	1.355505e-06	3.325284e-11	9.310873e+00	1.251526e+00
9.300000e-07	1.484993e-06	3.711034e-10	1.020032e+01	2.353105e+01
9.400000e-07	1.614028e-06	7.192306e-10	1.108665e+01	4.642585e+01
9.500000e-07	1.742493e-06	1.076408e-09	1.196907e+01	6.982388e+01
9.600000e-07	1.870241e-06	1.440772e-09	1.284656e+01	9.357690e+01
9.700000e-07	1.997172e-06	1.808673e-09	1.371844e+01	1.175076e+02
9.800000e-07	2.123366e-06	2.176060e-09	1.458526e+01	1.414203e+02
9.900000e-07	2.248946e-06	2.536958e-09	1.544786e+01	1.651142e+02
1.000000e-06	2.373825e-06	2.888494e-09	1.630564e+01	1.883972e+02
1.010000e-06	2.497790e-06	3.231556e-09	1.715716e+01	2.110989e+02
1.020000e-06	2.620724e-06	3.563921e-09	1.800158e+01	2.330810e+02
1.030000e-06	2.742641e-06	3.886618e-09	1.883902e+01	2.542439e+02
1.040000e-06	2.863551e-06	4.197799e-09	1.966954e+01	2.745285e+02
1.050000e-06	2.983370e-06	4.494204e-09	2.049257e+01	2.939143e+02
1.060000e-06	3.102069e-06	4.775811e-09	2.130791e+01	3.124132e+02
1.070000e-06	3.219756e-06	5.045700e-09	2.211629e+01	3.300601e+02
1.080000e-06	3.336288e-06	5.303213e-09	2.291674e+01	3.469038e+02
1.090000e-06	3.451408e-06	5.546094e-09	2.370749e+01	3.629971e+02
1.100000e-06	3.565148e-06	5.776765e-09	2.448876e+01	3.783897e+02
1.110000e-06	3.677545e-06	5.997049e-09	2.526081e+01	3.931232e+02
1.120000e-06	3.788610e-06	6.208086e-09	2.602371e+01	4.072295e+02
1.130000e-06	3.898414e-06	6.412394e-09	2.677795e+01	4.207320e+02
1.140000e-06	4.007003e-06	6.608706e-09	2.752384e+01	4.336484e+02
1.150000e-06	4.114199e-06	6.797820e-09	2.826016e+01	4.459950e+02
1.160000e-06	4.219923e-06	6.979362e-09	2.898637e+01	4.577895e+02
1.170000e-06	4.324101e-06	7.150990e-09	2.970196e+01	4.690545e+02
1.180000e-06	4.426680e-06	7.314876e-09	3.040657e+01	4.798168e+02
1.190000e-06	4.527795e-06	7.469961e-09	3.110112e+01	4.901072e+02
1.200000e-06	4.627255e-06	7.617477e-09	3.178431e+01	4.999570e+02
1.210000e-06	4.724982e-06	7.758605e-09	3.245559e+01	5.093953e+02
1.220000e-06	4.820958e-06	7.895070e-09	3.311484e+01	5.184455e+02
1.230000e-06	4.915141e-06	8.029051e-09	3.376177e+01	5.271237e+02
1.240000e-06	5.007689e-06	8.160136e-09	3.439748e+01	5.354377e+02
1.250000e-06	5.098453e-06	8.286003e-09	3.502093e+01	5.433892e+02
1.260000e-06	5.187292e-06	8.403689e-09	3.563116e+01	5.509757e+02
1.270000e-06	5.274314e-06	8.513575e-09	3.622891e+01	5.581945e+02
1.280000e-06	5.359502e-06	8.618195e-09	3.681406e+01	5.650458e+02
1.290000e-06	5.442767e-06	8.717823e-09	3.738600e+01	5.715358e+02
1.300000e-06	5.524060e-06	8.808982e-09	3.794440e+01	5.776776e+02
1.310000e-06	5.603357e-06	8.892113e-09	3.848908e+01	5.834914e+02
1.320000e-06	5.680595e-06	8.973867e-09	3.901963e+01	5.890024e+02
1.330000e-06	5.755650e-06	9.056979e-09	3.953518e+01	5.942382e+02
1.340000e-06	5.828502e-06	9.135516e-09	4.003559e+01	5.992263e+02
1.350000e-06	5.899235e-06	9.207159e-09	4.052145e+01	6.039908e+02
1.360000e-06	5.967889e-06	9.276025e-09	4.099303e+01	6.085511e+02
1.370000e-06	6.034390e-06	9.343745e-09	4.144982e+01	6.129205e+02
1.380000e-06	6.098702e-06	9.408025e-09	4.189158e+01	6.171071e+02
1.390000e-06	6.160927e-06	9.467571e-09	4.231899e+01	6.211144e+02
1.400000e-06	6.221194e-06	9.525402e-09	4.273296e+01	6.249426e+02
1.410000e-06	6.279306e-06	9.581675e-09	4.313213e+01	6.285907e+02
1.420000e-06	6.335072e-06	9.634372e-09	4.351518e+01	6.320570e+02
1.430000e-06	6.388517e-06	9.684992e-09	4.388229e+01	6.353400e+02
1.440000e-06	6.439376e-06	9.733576e-09	4.423164e+01	6.384386e+02
1.450000e-06	6.487620e-06	9.778774e-09	4.456303e+01	6.413521e+02
1.460000e-06	6.533531e-06	9.820374e-09	4.487839e+01	6.440798e+02
1.470000e-06	6.577277e-06	9.859041e-09	4.517888e+01	6.466216e+02
1.480000e-06	6.618676e-06	9.895352e-09	4.546324e+01	6.489776e+02
1.490000e-06	6.657571e-06	9.927310e-09	4.573041e+01	6.511490e+02
1.500000e-06	6.694238e-06	9.955116e-09	4.598228e+01	6.531382e+02
1.510000e-06	6.728636e-06	9.981474e-09	4.621855e+01	6.549494e+02
1.520000e-06	6.760545e-06	1.000508e-08	4.643773e+01	6.565883e+02
1.530000e-06	6.790114e-06	1.002630e-08	4.664084e+01	6.580620e+02
1.540000e-06	6.817423e-06	1.004552e-08	4.682842e+01	6.593780e+02
1.550000e-06	6.842168e-06	1.006258e-08	4.699839e+01	6.605441e+02
1.560000e-06	6.864342e-06	1.007916e-08	4.715071e+01	6.615670e+02
1.570000e-06	6.884240e-06	1.009427e-08	4.728739e+01	6.624523e+02
1.580000e-06	6.901680e-06	1.010627e-08	4.740718e+01	6.632047e+02
1.590000e-06	6.916498e-06	1.011457e-08	4.750896e+01	6.638284e+02
1.600000e-06	6.928731e-06	1.012112e-08	4.759299e+01	6.643272e+02
1.610000e-06	6.938212e-06	1.012595e-08	4.765812e+01	6.647058e+02
1.620000e-06	6.945091e-06	1.012838e-08	4.770537e+01	6.649690e+02
1.630000e-06	6.949641e-06	1.013013e-08	4.773662e+01	6.651222e+02
1.640000e-06	6.951698e-06	1.013245e-08	4.775075e+01	6.651697e+02
1.650000e-06	6.951251e-06	1.013573e-08	4.774768e+01	6.651141e+02
1.660000e-06	6.948572e-06	1.013017e-08	4.772928e+01	6.649553e+02
1.670000e-06	6.943639e-06	1.012450e-08	4.769539e+01	6.646897e+02
1.680000e-06	6.936315e-06	1.011637e-08	4.764508e+01	6.643115e+02
1.690000e-06	6.926704e-06	1.010560e-08	4.757906e+01	6.638135e+02
1.700000e-06	6.914774e-06	1.009684e-08	4.749712e+01	6.631902e+02
1.710000e-06	6.900390e-06	1.009024e-08	4.739832e+01	6.624403e+02
1.720000e-06	6.883796e-06	1.008320e-08	4.728434e+01	6.615691e+02
1.730000e-06	6.865135e-06	1.001705e-08	4.715615e+01	6.605898e+02
1.740000e-06	6.843770e-06	9.966592e-09	4.700940e+01	6.595233e+02
1.750000e-06	6.819032e-06	1.000492e-08	4.683947e+01	6.583954e+02
1.760000e-06	6.791329e-06	9.998098e-09	4.664919e+01	6.572329e+02
1.770000e-06	6.761346e-06	9.979694e-09	4.644324e+01	6.560587e+02
1.780000e-06	6.729531e-06	1.005146e-08	4.622470e+01	6.548862e+02
1.790000e-06	6.696342e-06	9.952397e-09	4.599673e+01	6.537156e+02
1.800000e-06	6.661301e-06	9.892294e-09	4.575603e+01	6.525321e+02
1.810000e-06	6.623550e-06	1.000969e-08	4.549672e+01	6.513070e+02
1.820000e-06	6.583501e-06	9.902441e-09	4.522163e+01	6.500012e+02
1.830000e-06	6.541385e-06	9.930217e-09	4.493234e+01	6.485710e+02
1.840000e-06	6.496922e-06	9.899470e-09	4.462692e+01	6.469755e+02
1.850000e-06	6.450169e-06	9.741348e-09	4.430578e+01	6.451829e+02
1.860000e-06	6.400932e-06	9.820297e-09	4.396758e+01	6.431755e+02
1.870000e-06	6.349329e-06	9.740071e-09	4.361311e+01	6.409517e+02
1.880000e-06	6.295247e-06	9.765586e-09	4.324163e+01	6.385253e+02
1.890000e-06	6.238558e-06	9.768615e-09	4.285224e+01	6.359213e+02
1.900000e-06	6.179611e-06	9.628144e-09	4.244733e+01	6.331703e+02
1.910000e-06	6.118255e-06	9.641652e-09	4.202589e+01	6.303018e+02
1.920000e-06	6.054505e-06	9.528887e-09	4.158799e+01	6.273384e+02
1.930000e-06	5.988623e-06	9.538533e-09	4.113545e+01	6.242920e+02
1.940000e-06	5.920607e-06	9.520241e-09	4.066825e+01	6.211622e+02
1.950000e-06	5.850316e-06	9.425039e-09	4.018543e+01	6.179385e+02
1.960000e-06	5.777615e-06	9.409154e-09	3.968605e+01	6.146030e+02
1.970000e-06	5.702749e-06	9.277627e-09	3.917180e+01	6.111363e+02
1.980000e-06	5.625651e-06	9.282724e-09	3.864222e+01	6.075215e+02
1.990000e-06	5.546277e-06	9.222840e-09	3.809700e+01	6.037483e+02
2.000000e-06	5.464957e-06	9.148453e-09	3.753842e+01	5.998142e+02
2.010000e-06	5.381842e-06	9.101615e-09	3.696751e+01	5.957244e+02
2.020000e-06	5.296830e-06	9.005333e-09	3.638357e+01	5.914893e+02
2.030000e-06	5.209714e-06	8.965946e-09	3.578518e+01	5.871207e+02
2.040000e-06	5.120774e-06	8.880364e-09	3.517425e+01	5.826282e+02
2.050000e-06	5.030260e-06	8.831197e-09	3.455252e+01	5.780164e+02
2.060000e-06	4.938079e-06	8.738898e-09	3.391934e+01	5.732833e+02
2.070000e-06	4.844186e-06	8.660487e-09	3.327439e+01	5.684207e+02
2.080000e-06	4.748468e-06	8.595882e-09	3.261691e+01	5.634157e+02
2.090000e-06	4.651072e-06	8.528955e-09	3.194790e+01	5.582538e+02
2.100000e-06	4.552202e-06	8.464491e-09	3.126877e+01	5.529217e+02
2.110000e-06	4.451692e-06	8.355494e-09	3.057838e+01	5.474095e+02
2.120000e-06	4.349532e-06	8.260667e-09	2.987665e+01	5.417121e+02
2.130000e-06	4.245761e-06	8.158360e-09	2.916385e+01	5.358292e+02
2.140000e-06	4.140432e-06	8.080280e-09	2.844035e+01	5.297638e+02
2.150000e-06	4.033725e-06	7.992576e-09	2.770739e+01	5.235203e+02
2.160000e-06	3.925574e-06	7.903070e-09	2.696450e+01	5.171025e+02
2.170000e-06	3.816002e-06	7.799588e-09	2.621186e+01	5.105117e+02
2.180000e-06	3.704997e-06	7.688046e-09	2.544938e+01	5.037462e+02
2.190000e-06	3.592516e-06	7.582875e-09	2.467675e+01	4.968006e+02
2.200000e-06	3.478729e-06	7.480125e-09	2.389516e+01	4.896674e+02
2.210000e-06	3.363540e-06	7.373853e-09	2.310393e+01	4.823377e+02
2.220000e-06	3.246838e-06	7.247486e-09	2.230231e+01	4.748027e+02
2.230000e-06	3.128869e-06	7.123712e-09	2.149199e+01	4.670546e+02
2.240000e-06	3.009721e-06	6.999276e-09	2.067357e+01	4.590863e+02
2.250000e-06	2.889267e-06	6.882386e-09	1.984618e+01	4.508918e+02
2.260000e-06	2.767789e-06	6.757005e-09	1.901175e+01	4.424649e+02
2.270000e-06	2.645471e-06	6.627154e-09	1.817156e+01	4.337987e+02
2.280000e-06	2.522243e-06	6.491740e-09	1.732512e+01	4.248847e+02
2.290000e-06	2.398032e-06	6.354181e-09	1.647192e+01	4.157132e+02
2.300000e-06	2.272880e-06	6.215126e-09	1.561226e+01	4.062738e+02
2.310000e-06	2.147041e-06	6.072353e-09	1.474788e+01	3.965564e+02
2.320000e-06	2.020559e-06	5.917498e-09	1.387908e+01	3.865520e+02
2.330000e-06	1.893339e-06	5.750019e-09	1.300522e+01	3.762542e+02
2.340000e-06	1.765379e-06	5.581912e-09	1.212627e+01	3.656587e+02
2.350000e-06	1.636758e-06	5.418508e-09	1.124278e+01	3.547634e+02
2.360000e-06	1.507603e-06	5.258541e-09	1.035563e+01	3.435664e+02
2.370000e-06	1.378058e-06	5.087961e-09	9.465789e+00	3.320649e+02
2.380000e-06	1.248206e-06	4.907640e-09	8.573844e+00	3.202532e+02
2.390000e-06	1.118098e-06	4.718541e-09	7.680137e+00	3.081212e+02
2.400000e-06	9.876837e-07	4.524577e-09	6.784334e+00	2.956542e+02
2.410000e-06	8.568796e-07	4.329712e-09	5.885848e+00	2.828337e+02
2.420000e-06	7.257790e-07	4.129394e-09	4.985328e+00	2.696383e+02
2.430000e-06	5.943925e-07	3.921307e-09	4.082842e+00	2.560466e+02
2.440000e-06	4.626961e-07	3.705918e-09	3.178229e+00	2.420390e+02
2.450000e-06	3.308017e-07	3.485377e-09	2.272254e+00	2.275994e+02
2.460000e-06	1.987900e-07	3.261003e-09	1.365475e+00	2.127154e+02
2.470000e-06	6.665207e-08	3.029875e-09	4.578286e-01	1.973777e+02
2.480000e-06	-6.558878e-08	2.789405e-09	-4.505249e-01	1.815779e+02
2.490000e-06	-1.978054e-07	2.538891e-09	-1.358712e+00	1.653050e+02
2.500000e-06	-3.299564e-07	2.278804e-09	-2.266449e+00	1.485423e+02
2.510000e-06	-4.619651e-07	2.011304e-09	-3.173207e+00	1.312647e+02
2.520000e-06	-5.938023e-07	1.738756e-09	-4.078788e+00	1.134380e+02
2.530000e-06	-7.254911e-07	1.458945e-09	-4.983350e+00	9.501980e+01
2.540000e-06	-8.568942e-07	1.169645e-09	-5.885949e+00	7.596365e+01
2.550000e-06	-9.879014e-07	8.718757e-10	-6.785829e+00	5.622566e+01
2.560000e-06	-1.118467e-06	5.637369e-10	-7.682676e+00	3.577274e+01
2.570000e-06	-1.248654e-06	2.440218e-10	-8.576921e+00	1.459177e+01
2.580000e-06	-1.378522e-06	-8.692567e-11	-9.468974e+00	-7.301757e+00
2.590000e-06	-1.508023e-06	-4.304056e-10	-1.035851e+01	-2.985701e+01
2.600000e-06	-1.637022e-06	-7.852910e-10	-1.124460e+01	-5.298424e+01
2.610000e-06	-1.765422e-06	-1.148018e-09	-1.212657e+01	-7.655529e+01
2.620000e-06	-1.893128e-06	-1.513483e-09	-1.300377e+01	-1.004083e+02
2.630000e-06	-2.020013e-06	-1.877368e-09	-1.387534e+01	-1.243567e+02
2.640000e-06	-2.146098e-06	-2.238590e-09	-1.474140e+01	-1.482008e+02
2.650000e-06	-2.271429e-06	-2.597586e-09	-1.560230e+01	-1.717420e+02
2.660000e-06	-2.395907e-06	-2.951078e-09	-1.645733e+01	-1.947959e+02
2.670000e-06	-2.519351e-06	-3.294058e-09	-1.730525e+01	-2.172048e+02
2.680000e-06	-2.641745e-06	-3.623581e-09	-1.814597e+01	-2.388464e+02
2.690000e-06	-2.763257e-06	-3.939878e-09	-1.898063e+01	-2.596386e+02
2.700000e-06	-2.883833e-06	-4.242660e-09	-1.980885e+01	-2.795393e+02
2.710000e-06	-3.003257e-06	-4.532493e-09	-2.062917e+01	-2.985428e+02
2.720000e-06	-3.121512e-06	-4.811609e-09	-2.144146e+01	-3.166720e+02
2.730000e-06	-3.238625e-06	-5.079258e-09	-2.224590e+01	-3.339691e+02
2.740000e-06	-3.354456e-06	-5.334101e-09	-2.304153e+01	-3.504856e+02
2.750000e-06	-3.468839e-06	-5.575653e-09	-2.382723e+01	-3.662737e+02
2.760000e-06	-3.581813e-06	-5.804871e-09	-2.460323e+01	-3.813801e+02
2.770000e-06	-3.693438e-06	-6.024706e-09	-2.536998e+01	-3.958423e+02
2.780000e-06	-3.803654e-06	-6.235782e-09	-2.612704e+01	-4.096882e+02
2.790000e-06	-3.912542e-06	-6.439024e-09	-2.687499e+01	-4.229384e+02
2.800000e-06	-4.020199e-06	-6.634612e-09	-2.761448e+01	-4.356093e+02
2.810000e-06	-4.126506e-06	-6.822816e-09	-2.834470e+01	-4.477177e+02
2.820000e-06	-4.231378e-06	-7.002477e-09	-2.906505e+01	-4.592831e+02
2.830000e-06	-4.334702e-06	-7.172223e-09	-2.977478e+01	-4.703299e+02
2.840000e-06	-4.436424e-06	-7.333512e-09	-3.047350e+01	-4.808869e+02
2.850000e-06	-4.536526e-06	-7.487564e-09	-3.116109e+01	-4.909855e+02
2.860000e-06	-4.635030e-06	-7.635208e-09	-3.183771e+01	-5.006565e+02
2.870000e-06	-4.732000e-06	-7.775802e-09	-3.250379e+01	-5.099268e+02
2.880000e-06	-4.827291e-06	-7.909065e-09	-3.315834e+01	-5.188169e+02
2.890000e-06	-4.920822e-06	-8.037476e-09	-3.380080e+01	-5.273393e+02
2.900000e-06	-5.012592e-06	-8.160957e-09	-3.443116e+01	-5.354989e+02
2.910000e-06	-5.102593e-06	-8.279847e-09	-3.504937e+01	-5.432952e+02
2.920000e-06	-5.190748e-06	-8.393938e-09	-3.565490e+01	-5.507251e+02
2.930000e-06	-5.276892e-06	-8.501929e-09	-3.624662e+01	-5.577869e+02
2.940000e-06	-5.361021e-06	-8.604098e-09	-3.682450e+01	-5.644830e+02
