# Temperatura_=_69.65
# Concentracion g/m^3_=_15000.0
# C_Vs_to_Am_M_A/Vsm_=_65563218390.804596
# pendiente_HvsI_1/m_=_3716.3
# ordenada_HvsI_A/m_=_1297.0
# frecuencia_Hz_=_301964.1755672865

Tiempo_(s)	Campo_(V.s)	Magnetizacion_(V.s)	Campo_(kA/m)	Magnetizacion_(A/m)
0.000000e+00	-6.897406e-06	-1.188246e-08	-4.748388e+01	-7.788968e+02
1.000000e-08	-6.895599e-06	-1.188649e-08	-4.747143e+01	-7.786423e+02
2.000000e-08	-6.891370e-06	-1.187995e-08	-4.744232e+01	-7.782602e+02
3.000000e-08	-6.884928e-06	-1.186988e-08	-4.739797e+01	-7.777515e+02
4.000000e-08	-6.876256e-06	-1.186376e-08	-4.733827e+01	-7.771116e+02
5.000000e-08	-6.865169e-06	-1.185310e-08	-4.726194e+01	-7.763319e+02
6.000000e-08	-6.851581e-06	-1.183904e-08	-4.716840e+01	-7.754027e+02
7.000000e-08	-6.835529e-06	-1.181023e-08	-4.705790e+01	-7.743170e+02
8.000000e-08	-6.817201e-06	-1.178936e-08	-4.693172e+01	-7.730755e+02
9.000000e-08	-6.796625e-06	-1.186068e-08	-4.679007e+01	-7.716895e+02
1.000000e-07	-6.773486e-06	-1.185002e-08	-4.663077e+01	-7.701817e+02
1.100000e-07	-6.747532e-06	-1.175085e-08	-4.645209e+01	-7.685835e+02
1.200000e-07	-6.718938e-06	-1.171725e-08	-4.625525e+01	-7.669304e+02
1.300000e-07	-6.688155e-06	-1.168464e-08	-4.604332e+01	-7.652538e+02
1.400000e-07	-6.655439e-06	-1.155732e-08	-4.581810e+01	-7.635733e+02
1.500000e-07	-6.620815e-06	-1.161144e-08	-4.557974e+01	-7.618902e+02
1.600000e-07	-6.584121e-06	-1.171184e-08	-4.532712e+01	-7.601844e+02
1.700000e-07	-6.545350e-06	-1.148382e-08	-4.506021e+01	-7.584151e+02
1.800000e-07	-6.504416e-06	-1.156237e-08	-4.477841e+01	-7.565264e+02
1.900000e-07	-6.460928e-06	-1.155700e-08	-4.447902e+01	-7.544569e+02
2.000000e-07	-6.414990e-06	-1.140235e-08	-4.416278e+01	-7.521499e+02
2.100000e-07	-6.366697e-06	-1.149438e-08	-4.383031e+01	-7.495640e+02
2.200000e-07	-6.315708e-06	-1.137672e-08	-4.347929e+01	-7.466804e+02
2.300000e-07	-6.262110e-06	-1.129700e-08	-4.311030e+01	-7.435053e+02
2.400000e-07	-6.206109e-06	-1.127039e-08	-4.272477e+01	-7.400677e+02
2.500000e-07	-6.147715e-06	-1.120102e-08	-4.232277e+01	-7.364116e+02
2.600000e-07	-6.087095e-06	-1.119806e-08	-4.190545e+01	-7.325864e+02
2.700000e-07	-6.024377e-06	-1.113855e-08	-4.147367e+01	-7.286355e+02
2.800000e-07	-5.959378e-06	-1.104821e-08	-4.102620e+01	-7.245880e+02
2.900000e-07	-5.892055e-06	-1.094486e-08	-4.056273e+01	-7.204533e+02
3.000000e-07	-5.822566e-06	-1.092062e-08	-4.008435e+01	-7.162212e+02
3.100000e-07	-5.750989e-06	-1.087352e-08	-3.959158e+01	-7.118667e+02
3.200000e-07	-5.677193e-06	-1.076201e-08	-3.908355e+01	-7.073573e+02
3.300000e-07	-5.601054e-06	-1.074066e-08	-3.855939e+01	-7.026625e+02
3.400000e-07	-5.522640e-06	-1.063755e-08	-3.801956e+01	-6.977616e+02
3.500000e-07	-5.442071e-06	-1.054004e-08	-3.746490e+01	-6.926481e+02
3.600000e-07	-5.359532e-06	-1.048150e-08	-3.689667e+01	-6.873307e+02
3.700000e-07	-5.275211e-06	-1.040638e-08	-3.631618e+01	-6.818294e+02
3.800000e-07	-5.189136e-06	-1.031702e-08	-3.572362e+01	-6.761695e+02
3.900000e-07	-5.101309e-06	-1.020558e-08	-3.511899e+01	-6.703738e+02
4.000000e-07	-5.011633e-06	-1.013493e-08	-3.450163e+01	-6.644562e+02
4.100000e-07	-4.920135e-06	-1.005283e-08	-3.387173e+01	-6.584177e+02
4.200000e-07	-4.827048e-06	-9.964256e-09	-3.323089e+01	-6.522465e+02
4.300000e-07	-4.732355e-06	-9.848402e-09	-3.257899e+01	-6.459206e+02
4.400000e-07	-4.635945e-06	-9.738447e-09	-3.191528e+01	-6.394139e+02
4.500000e-07	-4.537756e-06	-9.641940e-09	-3.123931e+01	-6.327026e+02
4.600000e-07	-4.437883e-06	-9.531464e-09	-3.055176e+01	-6.257703e+02
4.700000e-07	-4.336538e-06	-9.439743e-09	-2.985407e+01	-6.186111e+02
4.800000e-07	-4.233706e-06	-9.334932e-09	-2.914614e+01	-6.112292e+02
4.900000e-07	-4.129343e-06	-9.205644e-09	-2.842767e+01	-6.036362e+02
5.000000e-07	-4.023360e-06	-9.070518e-09	-2.769806e+01	-5.958455e+02
5.100000e-07	-3.915827e-06	-8.954798e-09	-2.695776e+01	-5.878675e+02
5.200000e-07	-3.806919e-06	-8.838371e-09	-2.620801e+01	-5.797052e+02
5.300000e-07	-3.696762e-06	-8.711979e-09	-2.544965e+01	-5.713524e+02
5.400000e-07	-3.585383e-06	-8.581845e-09	-2.468289e+01	-5.627950e+02
5.500000e-07	-3.472550e-06	-8.446874e-09	-2.390611e+01	-5.540143e+02
5.600000e-07	-3.358097e-06	-8.310020e-09	-2.311818e+01	-5.449916e+02
5.700000e-07	-3.242113e-06	-8.164630e-09	-2.231971e+01	-5.357131e+02
5.800000e-07	-3.124852e-06	-8.017899e-09	-2.151244e+01	-5.261721e+02
5.900000e-07	-3.006475e-06	-7.863222e-09	-2.069750e+01	-5.163704e+02
6.000000e-07	-2.887042e-06	-7.708113e-09	-1.987529e+01	-5.063154e+02
6.100000e-07	-2.766611e-06	-7.554685e-09	-1.904621e+01	-4.960169e+02
6.200000e-07	-2.645147e-06	-7.403320e-09	-1.821001e+01	-4.854816e+02
6.300000e-07	-2.522578e-06	-7.240452e-09	-1.736621e+01	-4.747095e+02
6.400000e-07	-2.399003e-06	-7.063000e-09	-1.651548e+01	-4.636915e+02
6.500000e-07	-2.274561e-06	-6.885767e-09	-1.565878e+01	-4.524101e+02
6.600000e-07	-2.149347e-06	-6.709588e-09	-1.479677e+01	-4.408423e+02
6.700000e-07	-2.023474e-06	-6.531705e-09	-1.393022e+01	-4.289640e+02
6.800000e-07	-1.896968e-06	-6.348733e-09	-1.305931e+01	-4.167549e+02
6.900000e-07	-1.769802e-06	-6.159699e-09	-1.218386e+01	-4.042022e+02
7.000000e-07	-1.642032e-06	-5.958868e-09	-1.130426e+01	-3.913022e+02
7.100000e-07	-1.513689e-06	-5.751378e-09	-1.042070e+01	-3.780587e+02
7.200000e-07	-1.384847e-06	-5.544332e-09	-9.533717e+00	-3.644789e+02
7.300000e-07	-1.255525e-06	-5.335605e-09	-8.643420e+00	-3.505690e+02
7.400000e-07	-1.125747e-06	-5.121768e-09	-7.749989e+00	-3.363280e+02
7.500000e-07	-9.955960e-07	-4.900790e-09	-6.853991e+00	-3.217449e+02
7.600000e-07	-8.650531e-07	-4.674743e-09	-5.955293e+00	-3.067967e+02
7.700000e-07	-7.342005e-07	-4.439482e-09	-5.054463e+00	-2.914511e+02
7.800000e-07	-6.030810e-07	-4.194313e-09	-4.151796e+00	-2.756700e+02
7.900000e-07	-4.717094e-07	-3.945077e-09	-3.247393e+00	-2.594152e+02
8.000000e-07	-3.402137e-07	-3.692025e-09	-2.342136e+00	-2.426534e+02
8.100000e-07	-2.085966e-07	-3.429746e-09	-1.436044e+00	-2.253592e+02
8.200000e-07	-7.682075e-08	-3.160159e-09	-5.288578e-01	-2.075154e+02
8.300000e-07	5.502198e-08	-2.883553e-09	3.787883e-01	-1.891101e+02
8.400000e-07	1.868313e-07	-2.592560e-09	1.286204e+00	-1.701313e+02
8.500000e-07	3.185848e-07	-2.288930e-09	2.193236e+00	-1.505608e+02
8.600000e-07	4.503017e-07	-1.977820e-09	3.100016e+00	-1.303694e+02
8.700000e-07	5.819210e-07	-1.659947e-09	4.006124e+00	-1.095144e+02
8.800000e-07	7.133681e-07	-1.329099e-09	4.911047e+00	-8.794187e+01
8.900000e-07	8.445794e-07	-9.864944e-10	5.814345e+00	-6.559343e+01
9.000000e-07	9.754848e-07	-6.318227e-10	6.715539e+00	-4.241648e+01
9.100000e-07	1.106007e-06	-2.638571e-10	7.614091e+00	-1.837725e+01
9.200000e-07	1.236057e-06	1.169112e-10	8.509397e+00	6.526350e+00
9.300000e-07	1.365603e-06	5.097887e-10	9.401233e+00	3.225419e+01
9.400000e-07	1.494666e-06	9.108381e-10	1.028974e+01	5.871773e+01
9.500000e-07	1.623245e-06	1.320504e-09	1.117492e+01	8.577948e+01
9.600000e-07	1.751253e-06	1.735624e-09	1.205617e+01	1.132585e+02
9.700000e-07	1.878548e-06	2.156591e-09	1.293250e+01	1.409410e+02
9.800000e-07	2.005075e-06	2.579725e-09	1.380356e+01	1.685949e+02
9.900000e-07	2.130941e-06	2.999304e-09	1.467006e+01	1.959859e+02
1.000000e-06	2.256096e-06	3.410072e-09	1.553166e+01	2.228929e+02
1.010000e-06	2.380480e-06	3.806332e-09	1.638796e+01	2.491217e+02
1.020000e-06	2.504094e-06	4.188658e-09	1.723896e+01	2.745145e+02
1.030000e-06	2.626733e-06	4.557291e-09	1.808324e+01	2.989555e+02
1.040000e-06	2.748339e-06	4.913621e-09	1.892042e+01	3.223719e+02
1.050000e-06	2.868936e-06	5.253950e-09	1.975064e+01	3.447315e+02
1.060000e-06	2.988368e-06	5.577026e-09	2.057285e+01	3.660373e+02
1.070000e-06	3.106715e-06	5.886179e-09	2.138758e+01	3.863197e+02
1.080000e-06	3.224033e-06	6.182379e-09	2.219524e+01	4.056290e+02
1.090000e-06	3.340130e-06	6.464126e-09	2.299449e+01	4.240269e+02
1.100000e-06	3.454838e-06	6.732370e-09	2.378417e+01	4.415790e+02
1.110000e-06	3.568137e-06	6.987375e-09	2.456416e+01	4.583488e+02
1.120000e-06	3.680022e-06	7.228202e-09	2.533441e+01	4.743936e+02
1.130000e-06	3.790595e-06	7.458618e-09	2.609563e+01	4.897613e+02
1.140000e-06	3.900016e-06	7.679920e-09	2.684891e+01	5.044904e+02
1.150000e-06	4.008274e-06	7.894801e-09	2.759420e+01	5.186105e+02
1.160000e-06	4.115172e-06	8.103350e-09	2.833012e+01	5.321446e+02
1.170000e-06	4.220545e-06	8.302818e-09	2.905553e+01	5.451122e+02
1.180000e-06	4.324348e-06	8.492002e-09	2.977015e+01	5.575321e+02
1.190000e-06	4.426581e-06	8.673619e-09	3.047395e+01	5.694251e+02
1.200000e-06	4.527337e-06	8.846637e-09	3.116759e+01	5.808150e+02
1.210000e-06	4.626493e-06	9.009376e-09	3.185021e+01	5.917291e+02
1.220000e-06	4.723860e-06	9.164505e-09	3.252051e+01	6.021971e+02
1.230000e-06	4.819369e-06	9.314714e-09	3.317803e+01	6.122484e+02
1.240000e-06	4.913184e-06	9.462157e-09	3.382387e+01	6.219100e+02
1.250000e-06	5.005425e-06	9.607523e-09	3.445889e+01	6.312042e+02
1.260000e-06	5.095870e-06	9.749478e-09	3.508155e+01	6.401468e+02
1.270000e-06	5.184349e-06	9.883697e-09	3.569066e+01	6.487469e+02
1.280000e-06	5.270949e-06	1.001158e-08	3.628684e+01	6.570075e+02
1.290000e-06	5.355778e-06	1.013425e-08	3.687083e+01	6.649276e+02
1.300000e-06	5.438702e-06	1.025092e-08	3.744171e+01	6.725042e+02
1.310000e-06	5.519561e-06	1.035799e-08	3.799836e+01	6.797353e+02
1.320000e-06	5.598413e-06	1.045832e-08	3.854121e+01	6.866215e+02
1.330000e-06	5.675309e-06	1.055828e-08	3.907058e+01	6.931676e+02
1.340000e-06	5.750007e-06	1.065636e-08	3.958483e+01	6.993827e+02
1.350000e-06	5.822455e-06	1.074822e-08	4.008358e+01	7.052801e+02
1.360000e-06	5.892841e-06	1.083240e-08	4.056814e+01	7.108760e+02
1.370000e-06	5.961194e-06	1.091247e-08	4.103870e+01	7.161888e+02
1.380000e-06	6.027409e-06	1.098896e-08	4.149455e+01	7.212374e+02
1.390000e-06	6.091369e-06	1.106066e-08	4.193487e+01	7.260410e+02
1.400000e-06	6.153261e-06	1.112897e-08	4.236095e+01	7.306176e+02
1.410000e-06	6.213186e-06	1.119533e-08	4.277349e+01	7.349841e+02
1.420000e-06	6.270856e-06	1.125997e-08	4.317051e+01	7.391550e+02
1.430000e-06	6.326221e-06	1.132211e-08	4.355166e+01	7.431419e+02
1.440000e-06	6.379289e-06	1.138139e-08	4.391699e+01	7.469526e+02
1.450000e-06	6.429784e-06	1.143720e-08	4.426462e+01	7.505904e+02
1.460000e-06	6.477709e-06	1.148924e-08	4.459455e+01	7.540537e+02
1.470000e-06	6.523337e-06	1.153948e-08	4.490867e+01	7.573360e+02
1.480000e-06	6.566744e-06	1.158835e-08	4.520749e+01	7.604276e+02
1.490000e-06	6.607748e-06	1.163479e-08	4.548978e+01	7.633168e+02
1.500000e-06	6.646362e-06	1.167601e-08	4.575561e+01	7.659929e+02
1.510000e-06	6.682800e-06	1.171169e-08	4.600646e+01	7.684480e+02
1.520000e-06	6.716863e-06	1.174513e-08	4.624096e+01	7.706790e+02
1.530000e-06	6.748436e-06	1.177603e-08	4.645832e+01	7.726886e+02
1.540000e-06	6.777767e-06	1.180243e-08	4.666024e+01	7.744846e+02
1.550000e-06	6.804775e-06	1.182562e-08	4.684617e+01	7.760789e+02
1.560000e-06	6.829162e-06	1.184651e-08	4.701406e+01	7.774845e+02
1.570000e-06	6.851048e-06	1.186498e-08	4.716473e+01	7.787137e+02
1.580000e-06	6.870636e-06	1.188081e-08	4.729958e+01	7.797758e+02
1.590000e-06	6.887757e-06	1.189458e-08	4.741745e+01	7.806761e+02
1.600000e-06	6.902319e-06	1.190499e-08	4.751770e+01	7.814166e+02
1.610000e-06	6.914284e-06	1.191305e-08	4.760007e+01	7.819974e+02
1.620000e-06	6.923492e-06	1.192124e-08	4.766346e+01	7.824183e+02
1.630000e-06	6.930075e-06	1.192662e-08	4.770878e+01	7.826808e+02
1.640000e-06	6.934346e-06	1.192742e-08	4.773818e+01	7.827897e+02
1.650000e-06	6.936172e-06	1.192858e-08	4.775075e+01	7.827522e+02
1.660000e-06	6.935514e-06	1.192643e-08	4.774622e+01	7.825768e+02
1.670000e-06	6.932676e-06	1.191458e-08	4.772668e+01	7.822709e+02
1.680000e-06	6.927572e-06	1.190820e-08	4.769155e+01	7.818384e+02
1.690000e-06	6.920066e-06	1.189848e-08	4.763987e+01	7.812781e+02
1.700000e-06	6.910324e-06	1.188659e-08	4.757281e+01	7.805837e+02
1.710000e-06	6.898318e-06	1.187627e-08	4.749015e+01	7.797455e+02
1.720000e-06	6.883847e-06	1.187717e-08	4.739053e+01	7.787544e+02
1.730000e-06	6.867095e-06	1.187370e-08	4.727520e+01	7.776061e+02
1.740000e-06	6.848260e-06	1.174210e-08	4.714554e+01	7.763050e+02
1.750000e-06	6.826634e-06	1.170570e-08	4.699666e+01	7.748671e+02
1.760000e-06	6.801611e-06	1.176160e-08	4.682439e+01	7.733188e+02
1.770000e-06	6.773705e-06	1.171847e-08	4.663228e+01	7.716941e+02
1.780000e-06	6.743474e-06	1.174734e-08	4.642416e+01	7.700276e+02
1.790000e-06	6.711472e-06	1.182917e-08	4.620385e+01	7.683472e+02
1.800000e-06	6.678132e-06	1.160408e-08	4.597432e+01	7.666658e+02
1.810000e-06	6.642861e-06	1.162240e-08	4.573151e+01	7.649766e+02
1.820000e-06	6.604928e-06	1.169773e-08	4.547037e+01	7.632509e+02
1.830000e-06	6.564776e-06	1.151582e-08	4.519395e+01	7.614410e+02
1.840000e-06	6.522540e-06	1.168611e-08	4.490318e+01	7.594878e+02
1.850000e-06	6.477931e-06	1.153743e-08	4.459608e+01	7.573303e+02
1.860000e-06	6.430964e-06	1.144490e-08	4.427274e+01	7.549166e+02
1.870000e-06	6.381584e-06	1.157583e-08	4.393280e+01	7.522138e+02
1.880000e-06	6.329975e-06	1.138242e-08	4.357751e+01	7.492128e+02
1.890000e-06	6.275743e-06	1.145153e-08	4.320415e+01	7.459292e+02
1.900000e-06	6.218843e-06	1.134853e-08	4.281244e+01	7.423992e+02
1.910000e-06	6.159777e-06	1.120998e-08	4.240581e+01	7.386700e+02
1.920000e-06	6.098359e-06	1.124323e-08	4.198299e+01	7.347901e+02
1.930000e-06	6.034596e-06	1.110032e-08	4.154402e+01	7.307980e+02
1.940000e-06	5.968672e-06	1.115792e-08	4.109019e+01	7.267153e+02
1.950000e-06	5.900588e-06	1.103132e-08	4.062147e+01	7.225437e+02
1.960000e-06	5.830181e-06	1.097313e-08	4.013677e+01	7.182663e+02
1.970000e-06	5.757363e-06	1.090566e-08	3.963547e+01	7.138540e+02
1.980000e-06	5.682474e-06	1.075247e-08	3.911991e+01	7.092742e+02
1.990000e-06	5.605327e-06	1.079752e-08	3.858881e+01	7.044994e+02
2.000000e-06	5.525917e-06	1.066586e-08	3.804212e+01	6.995140e+02
2.010000e-06	5.444581e-06	1.061165e-08	3.748218e+01	6.943178e+02
2.020000e-06	5.361458e-06	1.051508e-08	3.690993e+01	6.889245e+02
2.030000e-06	5.276557e-06	1.041604e-08	3.632545e+01	6.833570e+02
2.040000e-06	5.189561e-06	1.034490e-08	3.572654e+01	6.776406e+02
2.050000e-06	5.100629e-06	1.023193e-08	3.511431e+01	6.717951e+02
2.060000e-06	5.010114e-06	1.017839e-08	3.449117e+01	6.658298e+02
2.070000e-06	4.918026e-06	1.005192e-08	3.385721e+01	6.597405e+02
2.080000e-06	4.824083e-06	9.975479e-09	3.321048e+01	6.535106e+02
2.090000e-06	4.728283e-06	9.870003e-09	3.255096e+01	6.471160e+02
2.100000e-06	4.630949e-06	9.792786e-09	3.188089e+01	6.405307e+02
2.110000e-06	4.532138e-06	9.681726e-09	3.120064e+01	6.337331e+02
2.120000e-06	4.431788e-06	9.544733e-09	3.050980e+01	6.267109e+02
2.130000e-06	4.329654e-06	9.442485e-09	2.980668e+01	6.194624e+02
2.140000e-06	4.225806e-06	9.333779e-09	2.909175e+01	6.119951e+02
2.150000e-06	4.120487e-06	9.238537e-09	2.836671e+01	6.043220e+02
2.160000e-06	4.013844e-06	9.113836e-09	2.763254e+01	5.964561e+02
2.170000e-06	3.905883e-06	8.996566e-09	2.688930e+01	5.884050e+02
2.180000e-06	3.796470e-06	8.851180e-09	2.613607e+01	5.801682e+02
2.190000e-06	3.685562e-06	8.717099e-09	2.537255e+01	5.717362e+02
2.200000e-06	3.573205e-06	8.587875e-09	2.459904e+01	5.630926e+02
2.210000e-06	3.459505e-06	8.468214e-09	2.381630e+01	5.542181e+02
2.220000e-06	3.344472e-06	8.331247e-09	2.302438e+01	5.450954e+02
2.230000e-06	3.228039e-06	8.181247e-09	2.222282e+01	5.357132e+02
2.240000e-06	3.110194e-06	8.033710e-09	2.141154e+01	5.260683e+02
2.250000e-06	2.991078e-06	7.882672e-09	2.059151e+01	5.161652e+02
2.260000e-06	2.870819e-06	7.732537e-09	1.976360e+01	5.060126e+02
2.270000e-06	2.749548e-06	7.568446e-09	1.892874e+01	4.956197e+02
2.280000e-06	2.627359e-06	7.408911e-09	1.808755e+01	4.849910e+02
2.290000e-06	2.504283e-06	7.243560e-09	1.724026e+01	4.741230e+02
2.300000e-06	2.380357e-06	7.078428e-09	1.638711e+01	4.630032e+02
2.310000e-06	2.255621e-06	6.905733e-09	1.552839e+01	4.516114e+02
2.320000e-06	2.130086e-06	6.728629e-09	1.466417e+01	4.399236e+02
2.330000e-06	2.003720e-06	6.538819e-09	1.379422e+01	4.279165e+02
2.340000e-06	1.876567e-06	6.345550e-09	1.291887e+01	4.155726e+02
2.350000e-06	1.748780e-06	6.155189e-09	1.203915e+01	4.028827e+02
2.360000e-06	1.620441e-06	5.964891e-09	1.115562e+01	3.898461e+02
2.370000e-06	1.491589e-06	5.767117e-09	1.026856e+01	3.764687e+02
2.380000e-06	1.362307e-06	5.554068e-09	9.378543e+00	3.627580e+02
2.390000e-06	1.232657e-06	5.337241e-09	8.485993e+00	3.487178e+02
2.400000e-06	1.102644e-06	5.115043e-09	7.590940e+00	3.343435e+02
2.410000e-06	9.722911e-07	4.889872e-09	6.693553e+00	3.196195e+02
2.420000e-06	8.416689e-07	4.661022e-09	5.794309e+00	3.045186e+02
2.430000e-06	7.107808e-07	4.423512e-09	4.893235e+00	2.890058e+02
2.440000e-06	5.796692e-07	4.178912e-09	3.990622e+00	2.730421e+02
2.450000e-06	4.483387e-07	3.927960e-09	3.086502e+00	2.565909e+02
2.460000e-06	3.168286e-07	3.669070e-09	2.181146e+00	2.396216e+02
2.470000e-06	1.851956e-07	3.401878e-09	1.274944e+00	2.221124e+02
2.480000e-06	5.344869e-08	3.126807e-09	3.679573e-01	2.040485e+02
2.490000e-06	-7.837158e-08	2.845299e-09	-5.395342e-01	1.854187e+02
2.500000e-06	-2.101600e-07	2.554464e-09	-1.446806e+00	1.662093e+02
2.510000e-06	-3.418519e-07	2.251800e-09	-2.353414e+00	1.463982e+02
2.520000e-06	-4.734548e-07	1.940067e-09	-3.259409e+00	1.259511e+02
2.530000e-06	-6.048909e-07	1.618696e-09	-4.164256e+00	1.048202e+02
2.540000e-06	-7.361436e-07	1.283621e-09	-5.067840e+00	8.294896e+01
2.550000e-06	-8.671757e-07	9.372437e-10	-5.969906e+00	6.027972e+01
2.560000e-06	-9.978475e-07	5.815198e-10	-6.869490e+00	3.676573e+01
2.570000e-06	-1.128141e-06	2.129121e-10	-7.766469e+00	1.238420e+01
2.580000e-06	-1.258112e-06	-1.695971e-10	-8.661232e+00	-1.285143e+01
2.590000e-06	-1.387708e-06	-5.651307e-10	-9.553410e+00	-3.888245e+01
2.600000e-06	-1.516852e-06	-9.733080e-10	-1.044248e+01	-6.560081e+01
2.610000e-06	-1.645480e-06	-1.392241e-09	-1.132799e+01	-9.285100e+01
2.620000e-06	-1.773502e-06	-1.818862e-09	-1.220934e+01	-1.204377e+02
2.630000e-06	-1.900854e-06	-2.247217e-09	-1.308607e+01	-1.481380e+02
2.640000e-06	-2.027471e-06	-2.671055e-09	-1.395773e+01	-1.757170e+02
2.650000e-06	-2.153312e-06	-3.088228e-09	-1.482407e+01	-2.029438e+02
2.660000e-06	-2.278348e-06	-3.495754e-09	-1.568485e+01	-2.296065e+02
2.670000e-06	-2.402455e-06	-3.889850e-09	-1.653924e+01	-2.555243e+02
2.680000e-06	-2.525534e-06	-4.271030e-09	-1.738656e+01	-2.805554e+02
2.690000e-06	-2.647601e-06	-4.638717e-09	-1.822691e+01	-3.046010e+02
2.700000e-06	-2.768734e-06	-4.991801e-09	-1.906082e+01	-3.276049e+02
2.710000e-06	-2.888868e-06	-5.327576e-09	-1.988786e+01	-3.495492e+02
2.720000e-06	-3.007886e-06	-5.646764e-09	-2.070721e+01	-3.704489e+02
2.730000e-06	-3.125782e-06	-5.951543e-09	-2.151885e+01	-3.903430e+02
2.740000e-06	-3.242445e-06	-6.242671e-09	-2.232200e+01	-4.092874e+02
2.750000e-06	-3.357750e-06	-6.520777e-09	-2.311579e+01	-4.273460e+02
2.760000e-06	-3.471749e-06	-6.785031e-09	-2.390059e+01	-4.445843e+02
2.770000e-06	-3.584349e-06	-7.036735e-09	-2.467577e+01	-4.610638e+02
2.780000e-06	-3.695511e-06	-7.275809e-09	-2.544104e+01	-4.768382e+02
2.790000e-06	-3.805286e-06	-7.503678e-09	-2.619676e+01	-4.919518e+02
2.800000e-06	-3.913779e-06	-7.722712e-09	-2.694367e+01	-5.064394e+02
2.810000e-06	-4.021080e-06	-7.934494e-09	-2.768236e+01	-5.203276e+02
2.820000e-06	-4.127075e-06	-8.140232e-09	-2.841206e+01	-5.336378e+02
2.830000e-06	-4.231589e-06	-8.338554e-09	-2.913157e+01	-5.463887e+02
2.840000e-06	-4.334475e-06	-8.528312e-09	-2.983987e+01	-5.585998e+02
2.850000e-06	-4.435726e-06	-8.711022e-09	-3.053691e+01	-5.702929e+02
2.860000e-06	-4.535376e-06	-8.885085e-09	-3.122293e+01	-5.814934e+02
2.870000e-06	-4.633537e-06	-9.049018e-09	-3.189870e+01	-5.922295e+02
2.880000e-06	-4.730151e-06	-9.203932e-09	-3.256382e+01	-6.025312e+02
2.890000e-06	-4.825058e-06	-9.352330e-09	-3.321719e+01	-6.124272e+02
2.900000e-06	-4.918185e-06	-9.495650e-09	-3.385830e+01	-6.219430e+02
2.910000e-06	-5.009568e-06	-9.632801e-09	-3.448741e+01	-6.310984e+02
2.920000e-06	-5.099216e-06	-9.764904e-09	-3.510458e+01	-6.399065e+02
2.930000e-06	-5.186999e-06	-9.893009e-09	-3.570891e+01	-6.483740e+02
2.940000e-06	-5.272772e-06	-1.001718e-08	-3.629939e+01	-6.565020e+02
