# Temperatura_=_30.9
# Concentracion g/m^3_=_15000.0
# C_Vs_to_Am_M_A/Vsm_=_65563218390.804596
# pendiente_HvsI_1/m_=_3716.3
# ordenada_HvsI_A/m_=_1297.0
# frecuencia_Hz_=_301962.24048837327

Tiempo_(s)	Campo_(V.s)	Magnetizacion_(V.s)	Campo_(kA/m)	Magnetizacion_(A/m)
0.000000e+00	-6.896025e-06	-9.950200e-09	-4.748646e+01	-6.521644e+02
1.000000e-08	-6.894315e-06	-9.953162e-09	-4.747468e+01	-6.520265e+02
2.000000e-08	-6.890191e-06	-9.950921e-09	-4.744628e+01	-6.517881e+02
3.000000e-08	-6.883872e-06	-9.946470e-09	-4.740277e+01	-6.514501e+02
4.000000e-08	-6.875358e-06	-9.943556e-09	-4.734414e+01	-6.510103e+02
5.000000e-08	-6.864445e-06	-9.936738e-09	-4.726899e+01	-6.504640e+02
6.000000e-08	-6.850994e-06	-9.926725e-09	-4.717637e+01	-6.498073e+02
7.000000e-08	-6.835082e-06	-9.907672e-09	-4.706680e+01	-6.490401e+02
8.000000e-08	-6.816930e-06	-9.896299e-09	-4.694180e+01	-6.481682e+02
9.000000e-08	-6.796608e-06	-9.944928e-09	-4.680186e+01	-6.472048e+02
1.000000e-07	-6.773732e-06	-9.935931e-09	-4.664434e+01	-6.461701e+02
1.100000e-07	-6.747984e-06	-9.866207e-09	-4.646704e+01	-6.450875e+02
1.200000e-07	-6.719588e-06	-9.835358e-09	-4.627150e+01	-6.439798e+02
1.300000e-07	-6.688992e-06	-9.808881e-09	-4.606081e+01	-6.428636e+02
1.400000e-07	-6.656382e-06	-9.728113e-09	-4.583626e+01	-6.417448e+02
1.500000e-07	-6.621850e-06	-9.767399e-09	-4.559847e+01	-6.406156e+02
1.600000e-07	-6.585339e-06	-9.835461e-09	-4.534705e+01	-6.394541e+02
1.700000e-07	-6.546787e-06	-9.688380e-09	-4.508158e+01	-6.382270e+02
1.800000e-07	-6.506077e-06	-9.734808e-09	-4.480125e+01	-6.368943e+02
1.900000e-07	-6.462839e-06	-9.727259e-09	-4.450351e+01	-6.354162e+02
2.000000e-07	-6.417113e-06	-9.620824e-09	-4.418864e+01	-6.337593e+02
2.100000e-07	-6.368982e-06	-9.674551e-09	-4.385720e+01	-6.319019e+02
2.200000e-07	-6.318204e-06	-9.621757e-09	-4.350755e+01	-6.298365e+02
2.300000e-07	-6.264869e-06	-9.575540e-09	-4.314028e+01	-6.275701e+02
2.400000e-07	-6.209072e-06	-9.524120e-09	-4.275605e+01	-6.251210e+02
2.500000e-07	-6.150870e-06	-9.471967e-09	-4.235528e+01	-6.225136e+02
2.600000e-07	-6.090483e-06	-9.467898e-09	-4.193944e+01	-6.197732e+02
2.700000e-07	-6.027963e-06	-9.415175e-09	-4.150893e+01	-6.169207e+02
2.800000e-07	-5.963194e-06	-9.374239e-09	-4.106292e+01	-6.139689e+02
2.900000e-07	-5.896145e-06	-9.315441e-09	-4.060122e+01	-6.109218e+02
3.000000e-07	-5.826885e-06	-9.269600e-09	-4.012429e+01	-6.077748e+02
3.100000e-07	-5.755484e-06	-9.221292e-09	-3.963262e+01	-6.045184e+02
3.200000e-07	-5.681886e-06	-9.154116e-09	-3.912582e+01	-6.011408e+02
3.300000e-07	-5.605941e-06	-9.131533e-09	-3.860286e+01	-5.976322e+02
3.400000e-07	-5.527737e-06	-9.056552e-09	-3.806434e+01	-5.939860e+02
3.500000e-07	-5.447381e-06	-8.995025e-09	-3.751101e+01	-5.902005e+02
3.600000e-07	-5.365010e-06	-8.949120e-09	-3.694379e+01	-5.862777e+02
3.700000e-07	-5.280903e-06	-8.892003e-09	-3.636463e+01	-5.822212e+02
3.800000e-07	-5.195124e-06	-8.826968e-09	-3.577395e+01	-5.780345e+02
3.900000e-07	-5.107488e-06	-8.746792e-09	-3.517048e+01	-5.737187e+02
4.000000e-07	-5.017940e-06	-8.686915e-09	-3.455385e+01	-5.692720e+02
4.100000e-07	-4.926640e-06	-8.616211e-09	-3.392515e+01	-5.646895e+02
4.200000e-07	-4.833715e-06	-8.555917e-09	-3.328526e+01	-5.599645e+02
4.300000e-07	-4.739148e-06	-8.482659e-09	-3.263406e+01	-5.550903e+02
4.400000e-07	-4.642813e-06	-8.397056e-09	-3.197070e+01	-5.500615e+02
4.500000e-07	-4.544763e-06	-8.311374e-09	-3.129552e+01	-5.448750e+02
4.600000e-07	-4.445047e-06	-8.223470e-09	-3.060887e+01	-5.395303e+02
4.700000e-07	-4.343801e-06	-8.146246e-09	-2.991168e+01	-5.340278e+02
4.800000e-07	-4.241149e-06	-8.062245e-09	-2.920481e+01	-5.283681e+02
4.900000e-07	-4.136884e-06	-7.975773e-09	-2.848684e+01	-5.225497e+02
5.000000e-07	-4.031012e-06	-7.879936e-09	-2.775780e+01	-5.165684e+02
5.100000e-07	-3.923607e-06	-7.782820e-09	-2.701820e+01	-5.104167e+02
5.200000e-07	-3.814779e-06	-7.688222e-09	-2.626881e+01	-5.040848e+02
5.300000e-07	-3.704708e-06	-7.594365e-09	-2.551085e+01	-4.975623e+02
5.400000e-07	-3.593392e-06	-7.491822e-09	-2.474432e+01	-4.908402e+02
5.500000e-07	-3.480589e-06	-7.381261e-09	-2.396755e+01	-4.839120e+02
5.600000e-07	-3.366203e-06	-7.272436e-09	-2.317988e+01	-4.767753e+02
5.700000e-07	-3.250378e-06	-7.160523e-09	-2.238230e+01	-4.694307e+02
5.800000e-07	-3.133293e-06	-7.046106e-09	-2.157605e+01	-4.618811e+02
5.900000e-07	-3.015071e-06	-6.924276e-09	-2.076196e+01	-4.541286e+02
6.000000e-07	-2.895754e-06	-6.802660e-09	-1.994034e+01	-4.461729e+02
6.100000e-07	-2.775413e-06	-6.676068e-09	-1.911167e+01	-4.380093e+02
6.200000e-07	-2.654063e-06	-6.549264e-09	-1.827604e+01	-4.296277e+02
6.300000e-07	-2.531711e-06	-6.421211e-09	-1.743352e+01	-4.210140e+02
6.400000e-07	-2.408335e-06	-6.283988e-09	-1.658395e+01	-4.121510e+02
6.500000e-07	-2.284028e-06	-6.140867e-09	-1.572796e+01	-4.030220e+02
6.600000e-07	-2.158943e-06	-5.994728e-09	-1.486661e+01	-3.936130e+02
6.700000e-07	-2.033176e-06	-5.848028e-09	-1.400058e+01	-3.839146e+02
6.800000e-07	-1.906810e-06	-5.696466e-09	-1.313041e+01	-3.739230e+02
6.900000e-07	-1.779809e-06	-5.540800e-09	-1.225588e+01	-3.636386e+02
7.000000e-07	-1.652127e-06	-5.377872e-09	-1.137665e+01	-3.530647e+02
7.100000e-07	-1.523789e-06	-5.208118e-09	-1.049290e+01	-3.422037e+02
7.200000e-07	-1.394935e-06	-5.036416e-09	-9.605606e+00	-3.310545e+02
7.300000e-07	-1.265689e-06	-4.865478e-09	-8.715613e+00	-3.196100e+02
7.400000e-07	-1.136027e-06	-4.692515e-09	-7.822749e+00	-3.078569e+02
7.500000e-07	-1.005972e-06	-4.509792e-09	-6.927185e+00	-2.957754e+02
7.600000e-07	-8.755352e-07	-4.320088e-09	-6.028990e+00	-2.833423e+02
7.700000e-07	-7.447296e-07	-4.124676e-09	-5.128254e+00	-2.705336e+02
7.800000e-07	-6.136216e-07	-3.921689e-09	-4.225436e+00	-2.573278e+02
7.900000e-07	-4.823229e-07	-3.712012e-09	-3.321305e+00	-2.437084e+02
8.000000e-07	-3.509010e-07	-3.497982e-09	-2.416326e+00	-2.296650e+02
8.100000e-07	-2.193305e-07	-3.276941e-09	-1.510323e+00	-2.151929e+02
8.200000e-07	-8.761017e-08	-3.049667e-09	-6.032891e-01	-2.002906e+02
8.300000e-07	4.417262e-08	-2.818898e-09	3.041754e-01	-1.849563e+02
8.400000e-07	1.759511e-07	-2.581218e-09	1.211610e+00	-1.691845e+02
8.500000e-07	3.077213e-07	-2.337143e-09	2.118988e+00	-1.529617e+02
8.600000e-07	4.394236e-07	-2.085638e-09	3.025898e+00	-1.362647e+02
8.700000e-07	5.709587e-07	-1.824915e-09	3.931657e+00	-1.190600e+02
8.800000e-07	7.023268e-07	-1.551360e-09	4.836266e+00	-1.013052e+02
8.900000e-07	8.334793e-07	-1.267023e-09	5.739390e+00	-8.295326e+01
9.000000e-07	9.643255e-07	-9.750469e-10	6.640405e+00	-6.395820e+01
9.100000e-07	1.094825e-06	-6.735608e-10	7.539032e+00	-4.428220e+01
9.200000e-07	1.224917e-06	-3.612021e-10	8.434856e+00	-2.390332e+01
9.300000e-07	1.354546e-06	-3.942998e-11	9.327488e+00	-2.822919e+00
9.400000e-07	1.483681e-06	2.894657e-10	1.021672e+01	1.892818e+01
9.500000e-07	1.612298e-06	6.281667e-10	1.110239e+01	4.128551e+01
9.600000e-07	1.740326e-06	9.759474e-10	1.198399e+01	6.414949e+01
9.700000e-07	1.867693e-06	1.333029e-09	1.286105e+01	8.738726e+01
9.800000e-07	1.994270e-06	1.695882e-09	1.373267e+01	1.108378e+02
9.900000e-07	2.120110e-06	2.058373e-09	1.459921e+01	1.343204e+02
1.000000e-06	2.245339e-06	2.414700e-09	1.546154e+01	1.576452e+02
1.010000e-06	2.369881e-06	2.761603e-09	1.631914e+01	1.806259e+02
1.020000e-06	2.493599e-06	3.100933e-09	1.717108e+01	2.030920e+02
1.030000e-06	2.616302e-06	3.430797e-09	1.801602e+01	2.248996e+02
1.040000e-06	2.737937e-06	3.752388e-09	1.885361e+01	2.459397e+02
1.050000e-06	2.858516e-06	4.061796e-09	1.968392e+01	2.661418e+02
1.060000e-06	2.978055e-06	4.356300e-09	2.050707e+01	2.854742e+02
1.070000e-06	3.096524e-06	4.636683e-09	2.132286e+01	3.039390e+02
1.080000e-06	3.213936e-06	4.907668e-09	2.213136e+01	3.215640e+02
1.090000e-06	3.330199e-06	5.167853e-09	2.293195e+01	3.383932e+02
1.100000e-06	3.445036e-06	5.411735e-09	2.372273e+01	3.544765e+02
1.110000e-06	3.558365e-06	5.642709e-09	2.450312e+01	3.698616e+02
1.120000e-06	3.670292e-06	5.861350e-09	2.527386e+01	3.845878e+02
1.130000e-06	3.780981e-06	6.070399e-09	2.603607e+01	3.986847e+02
1.140000e-06	3.890481e-06	6.272779e-09	2.679009e+01	4.121724e+02
1.150000e-06	3.998769e-06	6.468949e-09	2.753577e+01	4.250657e+02
1.160000e-06	4.105698e-06	6.658450e-09	2.827209e+01	4.373788e+02
1.170000e-06	4.211099e-06	6.841135e-09	2.899789e+01	4.491296e+02
1.180000e-06	4.314931e-06	7.015058e-09	2.971288e+01	4.603424e+02
1.190000e-06	4.417200e-06	7.180409e-09	3.041711e+01	4.710484e+02
1.200000e-06	4.518018e-06	7.334925e-09	3.111135e+01	4.812835e+02
1.210000e-06	4.617306e-06	7.480667e-09	3.179506e+01	4.910845e+02
1.220000e-06	4.714755e-06	7.621833e-09	3.246610e+01	5.004846e+02
1.230000e-06	4.810356e-06	7.758716e-09	3.312441e+01	5.095088e+02
1.240000e-06	4.904301e-06	7.892177e-09	3.377132e+01	5.181717e+02
1.250000e-06	4.996691e-06	8.022726e-09	3.440752e+01	5.264770e+02
1.260000e-06	5.087326e-06	8.148820e-09	3.503164e+01	5.344205e+02
1.270000e-06	5.175903e-06	8.266094e-09	3.564159e+01	5.419933e+02
1.280000e-06	5.262544e-06	8.376844e-09	3.623821e+01	5.491875e+02
1.290000e-06	5.347443e-06	8.482772e-09	3.682283e+01	5.560006e+02
1.300000e-06	5.430526e-06	8.583468e-09	3.739494e+01	5.624390e+02
1.310000e-06	5.511611e-06	8.674650e-09	3.795330e+01	5.685187e+02
1.320000e-06	5.590657e-06	8.757072e-09	3.849761e+01	5.742648e+02
1.330000e-06	5.667752e-06	8.837865e-09	3.902849e+01	5.797078e+02
1.340000e-06	5.742666e-06	8.917397e-09	3.954435e+01	5.848803e+02
1.350000e-06	5.815228e-06	8.993364e-09	4.004402e+01	5.898124e+02
1.360000e-06	5.885659e-06	9.064680e-09	4.052901e+01	5.945290e+02
1.370000e-06	5.954116e-06	9.133233e-09	4.100041e+01	5.990478e+02
1.380000e-06	6.020457e-06	9.199074e-09	4.145724e+01	6.033794e+02
1.390000e-06	6.084612e-06	9.262889e-09	4.189902e+01	6.075289e+02
1.400000e-06	6.146683e-06	9.324749e-09	4.232644e+01	6.114977e+02
1.410000e-06	6.206731e-06	9.382929e-09	4.273993e+01	6.152858e+02
1.420000e-06	6.264603e-06	9.437646e-09	4.313844e+01	6.188933e+02
1.430000e-06	6.320182e-06	9.488797e-09	4.352116e+01	6.223210e+02
1.440000e-06	6.373474e-06	9.538065e-09	4.388814e+01	6.255702e+02
1.450000e-06	6.424168e-06	9.584478e-09	4.423722e+01	6.286420e+02
1.460000e-06	6.472215e-06	9.627615e-09	4.456807e+01	6.315362e+02
1.470000e-06	6.517956e-06	9.667091e-09	4.488305e+01	6.342508e+02
1.480000e-06	6.561535e-06	9.703905e-09	4.518314e+01	6.367829e+02
1.490000e-06	6.602758e-06	9.741466e-09	4.546700e+01	6.391288e+02
1.500000e-06	6.641591e-06	9.777009e-09	4.573441e+01	6.412865e+02
1.510000e-06	6.678224e-06	9.806438e-09	4.598666e+01	6.432564e+02
1.520000e-06	6.712470e-06	9.830580e-09	4.622249e+01	6.450432e+02
1.530000e-06	6.744230e-06	9.851224e-09	4.644119e+01	6.466551e+02
1.540000e-06	6.773679e-06	9.870817e-09	4.664397e+01	6.481037e+02
1.550000e-06	6.800814e-06	9.890635e-09	4.683083e+01	6.494015e+02
1.560000e-06	6.825439e-06	9.909047e-09	4.700040e+01	6.505605e+02
1.570000e-06	6.847521e-06	9.924299e-09	4.715245e+01	6.515896e+02
1.580000e-06	6.867263e-06	9.937655e-09	4.728840e+01	6.524942e+02
1.590000e-06	6.884596e-06	9.950019e-09	4.740776e+01	6.532756e+02
1.600000e-06	6.899348e-06	9.958783e-09	4.750934e+01	6.539323e+02
1.610000e-06	6.911507e-06	9.964496e-09	4.759306e+01	6.544620e+02
1.620000e-06	6.920968e-06	9.969054e-09	4.765821e+01	6.548631e+02
1.630000e-06	6.927856e-06	9.973012e-09	4.770564e+01	6.551369e+02
1.640000e-06	6.932404e-06	9.975608e-09	4.773696e+01	6.552875e+02
1.650000e-06	6.934406e-06	9.977599e-09	4.775075e+01	6.553216e+02
1.660000e-06	6.933896e-06	9.978086e-09	4.774724e+01	6.552464e+02
1.670000e-06	6.931200e-06	9.972174e-09	4.772867e+01	6.550683e+02
1.680000e-06	6.926195e-06	9.968797e-09	4.769421e+01	6.547905e+02
1.690000e-06	6.918782e-06	9.961253e-09	4.764316e+01	6.544126e+02
1.700000e-06	6.909165e-06	9.952392e-09	4.757694e+01	6.539311e+02
1.710000e-06	6.897334e-06	9.946841e-09	4.749547e+01	6.533414e+02
1.720000e-06	6.883070e-06	9.943968e-09	4.739724e+01	6.526407e+02
1.730000e-06	6.866511e-06	9.934897e-09	4.728322e+01	6.518309e+02
1.740000e-06	6.847894e-06	9.844931e-09	4.715503e+01	6.509207e+02
1.750000e-06	6.826630e-06	9.821539e-09	4.700860e+01	6.499263e+02
1.760000e-06	6.802019e-06	9.858403e-09	4.683913e+01	6.488695e+02
1.770000e-06	6.774396e-06	9.836799e-09	4.664891e+01	6.477742e+02
1.780000e-06	6.744409e-06	9.860458e-09	4.644242e+01	6.466613e+02
1.790000e-06	6.712618e-06	9.911229e-09	4.622350e+01	6.455438e+02
1.800000e-06	6.679496e-06	9.764223e-09	4.599543e+01	6.444223e+02
1.810000e-06	6.644518e-06	9.783109e-09	4.575456e+01	6.432833e+02
1.820000e-06	6.606843e-06	9.830094e-09	4.549513e+01	6.421002e+02
1.830000e-06	6.566862e-06	9.716345e-09	4.521982e+01	6.408361e+02
1.840000e-06	6.524783e-06	9.823714e-09	4.493006e+01	6.394505e+02
1.850000e-06	6.480354e-06	9.717050e-09	4.462412e+01	6.379052e+02
1.860000e-06	6.433615e-06	9.652879e-09	4.430227e+01	6.361710e+02
1.870000e-06	6.384423e-06	9.710263e-09	4.396354e+01	6.342316e+02
1.880000e-06	6.332930e-06	9.589961e-09	4.360895e+01	6.320853e+02
1.890000e-06	6.278944e-06	9.664246e-09	4.323720e+01	6.297441e+02
1.900000e-06	6.222291e-06	9.600474e-09	4.284708e+01	6.272294e+02
1.910000e-06	6.163382e-06	9.518923e-09	4.244143e+01	6.245665e+02
1.920000e-06	6.102122e-06	9.520313e-09	4.201959e+01	6.217796e+02
1.930000e-06	6.038550e-06	9.386547e-09	4.158183e+01	6.188867e+02
1.940000e-06	5.972862e-06	9.426895e-09	4.112950e+01	6.158972e+02
1.950000e-06	5.905008e-06	9.355622e-09	4.066225e+01	6.128113e+02
1.960000e-06	5.834846e-06	9.318567e-09	4.017911e+01	6.096224e+02
1.970000e-06	5.762258e-06	9.271005e-09	3.967926e+01	6.063193e+02
1.980000e-06	5.687528e-06	9.165602e-09	3.916467e+01	6.028909e+02
1.990000e-06	5.610549e-06	9.176543e-09	3.863459e+01	5.993284e+02
2.000000e-06	5.531314e-06	9.077515e-09	3.808897e+01	5.956271e+02
2.010000e-06	5.450124e-06	9.043225e-09	3.752989e+01	5.917870e+02
2.020000e-06	5.367167e-06	8.973175e-09	3.695864e+01	5.878108e+02
2.030000e-06	5.282374e-06	8.901207e-09	3.637476e+01	5.837024e+02
2.040000e-06	5.195496e-06	8.844674e-09	3.577651e+01	5.794647e+02
2.050000e-06	5.106736e-06	8.763379e-09	3.516530e+01	5.750975e+02
2.060000e-06	5.016377e-06	8.715705e-09	3.454308e+01	5.705978e+02
2.070000e-06	4.924419e-06	8.616620e-09	3.390986e+01	5.659598e+02
2.080000e-06	4.830623e-06	8.556704e-09	3.326397e+01	5.611766e+02
2.090000e-06	4.734999e-06	8.480818e-09	3.260549e+01	5.562418e+02
2.100000e-06	4.637792e-06	8.423256e-09	3.193612e+01	5.511509e+02
2.110000e-06	4.539102e-06	8.342377e-09	3.125654e+01	5.459019e+02
2.120000e-06	4.438864e-06	8.249910e-09	3.056629e+01	5.404947e+02
2.130000e-06	4.336913e-06	8.163297e-09	2.986425e+01	5.349302e+02
2.140000e-06	4.233295e-06	8.066036e-09	2.915073e+01	5.292081e+02
2.150000e-06	4.128140e-06	7.989263e-09	2.842663e+01	5.233260e+02
2.160000e-06	4.021626e-06	7.898618e-09	2.769316e+01	5.172784e+02
2.170000e-06	3.913763e-06	7.811556e-09	2.695041e+01	5.110568e+02
2.180000e-06	3.804486e-06	7.703875e-09	2.619793e+01	5.046509e+02
2.190000e-06	3.693763e-06	7.600260e-09	2.543548e+01	4.980506e+02
2.200000e-06	3.581567e-06	7.492890e-09	2.466289e+01	4.912477e+02
2.210000e-06	3.467983e-06	7.394891e-09	2.388075e+01	4.842373e+02
2.220000e-06	3.353001e-06	7.289203e-09	2.308897e+01	4.770184e+02
2.230000e-06	3.236601e-06	7.174594e-09	2.228743e+01	4.695925e+02
2.240000e-06	3.118876e-06	7.054555e-09	2.147677e+01	4.619626e+02
2.250000e-06	2.999986e-06	6.931993e-09	2.065809e+01	4.541302e+02
2.260000e-06	2.879949e-06	6.813743e-09	1.983151e+01	4.460934e+02
2.270000e-06	2.758850e-06	6.684579e-09	1.899761e+01	4.378452e+02
2.280000e-06	2.636814e-06	6.557263e-09	1.815726e+01	4.293740e+02
2.290000e-06	2.513884e-06	6.426837e-09	1.731076e+01	4.206641e+02
2.300000e-06	2.390047e-06	6.296455e-09	1.645801e+01	4.116981e+02
2.310000e-06	2.265321e-06	6.158636e-09	1.559914e+01	4.024602e+02
2.320000e-06	2.139825e-06	6.016669e-09	1.473497e+01	3.929380e+02
2.330000e-06	2.013589e-06	5.862903e-09	1.386570e+01	3.831242e+02
2.340000e-06	1.886609e-06	5.702722e-09	1.299130e+01	3.730169e+02
2.350000e-06	1.758938e-06	5.541370e-09	1.211215e+01	3.626181e+02
2.360000e-06	1.630672e-06	5.382476e-09	1.122891e+01	3.519309e+02
2.370000e-06	1.501874e-06	5.221675e-09	1.034200e+01	3.409567e+02
2.380000e-06	1.372625e-06	5.050441e-09	9.451982e+00	3.296923e+02
2.390000e-06	1.243021e-06	4.873929e-09	8.559521e+00	3.181282e+02
2.400000e-06	1.113062e-06	4.689519e-09	7.664611e+00	3.062483e+02
2.410000e-06	9.827740e-07	4.499920e-09	6.767443e+00	2.940312e+02
2.420000e-06	8.522167e-07	4.307876e-09	5.868417e+00	2.814530e+02
2.430000e-06	7.214197e-07	4.111523e-09	4.967741e+00	2.684903e+02
2.440000e-06	5.903685e-07	3.907943e-09	4.065314e+00	2.551232e+02
2.450000e-06	4.590792e-07	3.695591e-09	3.161248e+00	2.413378e+02
2.460000e-06	3.275317e-07	3.476464e-09	2.255403e+00	2.271260e+02
2.470000e-06	1.957684e-07	3.254329e-09	1.348073e+00	2.124846e+02
2.480000e-06	6.396062e-08	3.025927e-09	4.404368e-01	1.974126e+02
2.490000e-06	-6.784557e-08	2.790873e-09	-4.671888e-01	1.819071e+02
2.500000e-06	-1.996127e-07	2.549546e-09	-1.374545e+00	1.659598e+02
2.510000e-06	-3.312867e-07	2.298264e-09	-2.281261e+00	1.495537e+02
2.520000e-06	-4.628849e-07	2.035810e-09	-3.187454e+00	1.326615e+02
2.530000e-06	-5.943766e-07	1.765110e-09	-4.092914e+00	1.152457e+02
2.540000e-06	-7.256984e-07	1.488359e-09	-4.997204e+00	9.726166e+01
2.550000e-06	-8.567228e-07	1.204920e-09	-5.899447e+00	7.866192e+01
2.560000e-06	-9.873668e-07	9.150081e-10	-6.799069e+00	5.940279e+01
2.570000e-06	-1.117666e-06	6.165316e-10	-7.696314e+00	3.945178e+01
2.580000e-06	-1.247630e-06	3.057563e-10	-8.591258e+00	1.879527e+01
2.590000e-06	-1.377233e-06	-1.725407e-11	-9.483712e+00	-2.554455e+00
2.600000e-06	-1.506416e-06	-3.504875e-10	-1.037328e+01	-2.455371e+01
2.610000e-06	-1.635074e-06	-6.953722e-10	-1.125922e+01	-4.712423e+01
2.620000e-06	-1.763134e-06	-1.051067e-09	-1.214105e+01	-7.015297e+01
2.630000e-06	-1.890516e-06	-1.411828e-09	-1.301821e+01	-9.349521e+01
2.640000e-06	-2.017115e-06	-1.770211e-09	-1.388998e+01	-1.169810e+02
2.650000e-06	-2.142917e-06	-2.125238e-09	-1.475626e+01	-1.404247e+02
2.660000e-06	-2.267864e-06	-2.480999e-09	-1.561665e+01	-1.636363e+02
2.670000e-06	-2.391935e-06	-2.831386e-09	-1.647101e+01	-1.864343e+02
2.680000e-06	-2.515050e-06	-3.170248e-09	-1.731879e+01	-2.086574e+02
2.690000e-06	-2.637179e-06	-3.496257e-09	-1.815978e+01	-2.301748e+02
2.700000e-06	-2.758441e-06	-3.809487e-09	-1.899479e+01	-2.508922e+02
2.710000e-06	-2.878701e-06	-4.108665e-09	-1.982291e+01	-2.707548e+02
2.720000e-06	-2.997820e-06	-4.396360e-09	-2.064317e+01	-2.897448e+02
2.730000e-06	-3.115742e-06	-4.677887e-09	-2.145519e+01	-3.078756e+02
2.740000e-06	-3.232412e-06	-4.950374e-09	-2.225859e+01	-3.251825e+02
2.750000e-06	-3.347774e-06	-5.208363e-09	-2.305298e+01	-3.417130e+02
2.760000e-06	-3.461742e-06	-5.450417e-09	-2.383777e+01	-3.575171e+02
2.770000e-06	-3.574321e-06	-5.680001e-09	-2.461300e+01	-3.726396e+02
2.780000e-06	-3.685556e-06	-5.899351e-09	-2.537897e+01	-3.871160e+02
2.790000e-06	-3.795441e-06	-6.107846e-09	-2.613564e+01	-4.009718e+02
2.800000e-06	-3.904029e-06	-6.307820e-09	-2.688339e+01	-4.142248e+02
2.810000e-06	-4.011397e-06	-6.501224e-09	-2.762273e+01	-4.268887e+02
2.820000e-06	-4.117453e-06	-6.689350e-09	-2.835304e+01	-4.389788e+02
2.830000e-06	-4.222040e-06	-6.870131e-09	-2.907323e+01	-4.505153e+02
2.840000e-06	-4.325055e-06	-7.041416e-09	-2.978260e+01	-4.615253e+02
2.850000e-06	-4.426406e-06	-7.204126e-09	-3.048051e+01	-4.720422e+02
2.860000e-06	-4.526134e-06	-7.357417e-09	-3.116724e+01	-4.821029e+02
2.870000e-06	-4.624378e-06	-7.503406e-09	-3.184375e+01	-4.917432e+02
2.880000e-06	-4.721103e-06	-7.642545e-09	-3.250981e+01	-5.009936e+02
2.890000e-06	-4.816129e-06	-7.774981e-09	-3.316416e+01	-5.098750e+02
2.900000e-06	-4.909360e-06	-7.901001e-09	-3.380616e+01	-5.183978e+02
2.910000e-06	-5.000869e-06	-8.022147e-09	-3.443630e+01	-5.265623e+02
2.920000e-06	-5.090684e-06	-8.141254e-09	-3.505476e+01	-5.343616e+02
2.930000e-06	-5.178643e-06	-8.255793e-09	-3.566046e+01	-5.417867e+02
2.940000e-06	-5.264531e-06	-8.365205e-09	-3.625189e+01	-5.488314e+02
