# Temperatura_=_60.22
# Concentracion g/m^3_=_15000.0
# C_Vs_to_Am_M_A/Vsm_=_65563218390.804596
# pendiente_HvsI_1/m_=_3716.3
# ordenada_HvsI_A/m_=_1297.0
# frecuencia_Hz_=_302339.70045868144

Tiempo_(s)	Campo_(V.s)	Magnetizacion_(V.s)	Campo_(kA/m)	Magnetizacion_(A/m)
0.000000e+00	-8.134114e-06	-1.149322e-08	-5.692042e+01	-7.516310e+02
1.000000e-08	-8.131521e-06	-1.149628e-08	-5.690227e+01	-7.513427e+02
2.000000e-08	-8.126191e-06	-1.149037e-08	-5.686498e+01	-7.509202e+02
3.000000e-08	-8.118246e-06	-1.148400e-08	-5.680937e+01	-7.503766e+02
4.000000e-08	-8.107472e-06	-1.147501e-08	-5.673398e+01	-7.497262e+02
5.000000e-08	-8.093681e-06	-1.146000e-08	-5.663748e+01	-7.489834e+02
6.000000e-08	-8.077014e-06	-1.144016e-08	-5.652085e+01	-7.481610e+02
7.000000e-08	-8.057935e-06	-1.141739e-08	-5.638733e+01	-7.472691e+02
8.000000e-08	-8.036545e-06	-1.140162e-08	-5.623766e+01	-7.463139e+02
9.000000e-08	-8.012309e-06	-1.145561e-08	-5.606806e+01	-7.452982e+02
1.000000e-07	-7.984798e-06	-1.143522e-08	-5.587554e+01	-7.442207e+02
1.100000e-07	-7.954122e-06	-1.136811e-08	-5.566088e+01	-7.430774e+02
1.200000e-07	-7.920519e-06	-1.134442e-08	-5.542574e+01	-7.418619e+02
1.300000e-07	-7.884142e-06	-1.132285e-08	-5.517118e+01	-7.405663e+02
1.400000e-07	-7.845264e-06	-1.127803e-08	-5.489912e+01	-7.391818e+02
1.500000e-07	-7.804086e-06	-1.120532e-08	-5.461096e+01	-7.376993e+02
1.600000e-07	-7.760531e-06	-1.127779e-08	-5.430618e+01	-7.361098e+02
1.700000e-07	-7.714273e-06	-1.120305e-08	-5.398248e+01	-7.344039e+02
1.800000e-07	-7.665142e-06	-1.110129e-08	-5.363867e+01	-7.325722e+02
1.900000e-07	-7.613100e-06	-1.119515e-08	-5.327450e+01	-7.306050e+02
2.000000e-07	-7.558114e-06	-1.110576e-08	-5.288972e+01	-7.284923e+02
2.100000e-07	-7.500354e-06	-1.105524e-08	-5.248553e+01	-7.262241e+02
2.200000e-07	-7.439950e-06	-1.104891e-08	-5.206284e+01	-7.237908e+02
2.300000e-07	-7.376911e-06	-1.100353e-08	-5.162171e+01	-7.211839e+02
2.400000e-07	-7.311128e-06	-1.096445e-08	-5.116138e+01	-7.183970e+02
2.500000e-07	-7.242526e-06	-1.086003e-08	-5.068132e+01	-7.154266e+02
2.600000e-07	-7.171137e-06	-1.085125e-08	-5.018176e+01	-7.122726e+02
2.700000e-07	-7.096869e-06	-1.079563e-08	-4.966204e+01	-7.089389e+02
2.800000e-07	-7.019717e-06	-1.073087e-08	-4.912216e+01	-7.054332e+02
2.900000e-07	-6.939824e-06	-1.066789e-08	-4.856309e+01	-7.017664e+02
3.000000e-07	-6.857365e-06	-1.063678e-08	-4.798606e+01	-6.979515e+02
3.100000e-07	-6.772530e-06	-1.060276e-08	-4.739241e+01	-6.940017e+02
3.200000e-07	-6.685322e-06	-1.048517e-08	-4.678215e+01	-6.899291e+02
3.300000e-07	-6.595723e-06	-1.044890e-08	-4.615515e+01	-6.857427e+02
3.400000e-07	-6.503745e-06	-1.039836e-08	-4.551152e+01	-6.814470e+02
3.500000e-07	-6.409403e-06	-1.031993e-08	-4.485134e+01	-6.770413e+02
3.600000e-07	-6.312765e-06	-1.023447e-08	-4.417509e+01	-6.725190e+02
3.700000e-07	-6.213820e-06	-1.017963e-08	-4.348270e+01	-6.678687e+02
3.800000e-07	-6.112580e-06	-1.011833e-08	-4.277425e+01	-6.630754e+02
3.900000e-07	-6.009124e-06	-1.001254e-08	-4.205029e+01	-6.581220e+02
4.000000e-07	-5.903501e-06	-9.933231e-09	-4.131117e+01	-6.529918e+02
4.100000e-07	-5.795818e-06	-9.859367e-09	-4.055763e+01	-6.476703e+02
4.200000e-07	-5.686138e-06	-9.784970e-09	-3.979012e+01	-6.421471e+02
4.300000e-07	-5.574414e-06	-9.679691e-09	-3.900830e+01	-6.364170e+02
4.400000e-07	-5.460566e-06	-9.594760e-09	-3.821163e+01	-6.304800e+02
4.500000e-07	-5.344557e-06	-9.511141e-09	-3.739982e+01	-6.243408e+02
4.600000e-07	-5.226480e-06	-9.413916e-09	-3.657355e+01	-6.180074e+02
4.700000e-07	-5.106563e-06	-9.306167e-09	-3.573440e+01	-6.114888e+02
4.800000e-07	-4.984881e-06	-9.209042e-09	-3.488291e+01	-6.047931e+02
4.900000e-07	-4.861330e-06	-9.114378e-09	-3.401832e+01	-5.979246e+02
5.000000e-07	-4.736021e-06	-9.000340e-09	-3.314145e+01	-5.908825e+02
5.100000e-07	-4.609095e-06	-8.887762e-09	-3.225325e+01	-5.836600e+02
5.200000e-07	-4.480459e-06	-8.771143e-09	-3.135309e+01	-5.762438e+02
5.300000e-07	-4.350110e-06	-8.653103e-09	-3.044094e+01	-5.686157e+02
5.400000e-07	-4.218105e-06	-8.520760e-09	-2.951721e+01	-5.607541e+02
5.500000e-07	-4.084544e-06	-8.394419e-09	-2.858258e+01	-5.526366e+02
5.600000e-07	-3.949541e-06	-8.269084e-09	-2.763786e+01	-5.442428e+02
5.700000e-07	-3.813021e-06	-8.141059e-09	-2.668253e+01	-5.355565e+02
5.800000e-07	-3.674970e-06	-8.003944e-09	-2.571649e+01	-5.265677e+02
5.900000e-07	-3.535392e-06	-7.864047e-09	-2.473975e+01	-5.172730e+02
6.000000e-07	-3.394246e-06	-7.721850e-09	-2.375205e+01	-5.076757e+02
6.100000e-07	-3.251687e-06	-7.567946e-09	-2.275446e+01	-4.977837e+02
6.200000e-07	-3.107939e-06	-7.410660e-09	-2.174855e+01	-4.876072e+02
6.300000e-07	-2.963041e-06	-7.247695e-09	-2.073459e+01	-4.771554e+02
6.400000e-07	-2.816975e-06	-7.084448e-09	-1.971246e+01	-4.664333e+02
6.500000e-07	-2.669941e-06	-6.915334e-09	-1.868355e+01	-4.554391e+02
6.600000e-07	-2.522075e-06	-6.742782e-09	-1.764883e+01	-4.441619e+02
6.700000e-07	-2.373377e-06	-6.564149e-09	-1.660828e+01	-4.325818e+02
6.800000e-07	-2.223910e-06	-6.381087e-09	-1.556235e+01	-4.206702e+02
6.900000e-07	-2.073719e-06	-6.193320e-09	-1.451135e+01	-4.083923e+02
7.000000e-07	-1.922839e-06	-5.997797e-09	-1.345553e+01	-3.957109e+02
7.100000e-07	-1.771362e-06	-5.798676e-09	-1.239553e+01	-3.825897e+02
7.200000e-07	-1.619277e-06	-5.591834e-09	-1.133128e+01	-3.689974e+02
7.300000e-07	-1.466555e-06	-5.378385e-09	-1.026257e+01	-3.549111e+02
7.400000e-07	-1.313283e-06	-5.154458e-09	-9.190012e+00	-3.403172e+02
7.500000e-07	-1.159542e-06	-4.924544e-09	-8.114174e+00	-3.252118e+02
7.600000e-07	-1.005437e-06	-4.689500e-09	-7.035785e+00	-3.095980e+02
7.700000e-07	-8.510251e-07	-4.446046e-09	-5.955253e+00	-2.934821e+02
7.800000e-07	-6.963403e-07	-4.193008e-09	-4.872809e+00	-2.768680e+02
7.900000e-07	-5.413914e-07	-3.933416e-09	-3.788517e+00	-2.597510e+02
8.000000e-07	-3.862249e-07	-3.668325e-09	-2.702702e+00	-2.421120e+02
8.100000e-07	-2.309054e-07	-3.390766e-09	-1.615816e+00	-2.239134e+02
8.200000e-07	-7.542176e-08	-3.098803e-09	-5.277819e-01	-2.050962e+02
8.300000e-07	8.016605e-08	-2.795036e-09	5.609812e-01	-1.855816e+02
8.400000e-07	2.357605e-07	-2.481333e-09	1.649791e+00	-1.652748e+02
8.500000e-07	3.912789e-07	-2.153829e-09	2.738068e+00	-1.440725e+02
8.600000e-07	5.466622e-07	-1.814848e-09	3.825400e+00	-1.218733e+02
8.700000e-07	7.018733e-07	-1.462577e-09	4.911527e+00	-9.859016e+01
8.800000e-07	8.568605e-07	-1.094350e-09	5.996087e+00	-7.416297e+01
8.900000e-07	1.011592e-06	-7.094778e-10	7.078856e+00	-4.857105e+01
9.000000e-07	1.165997e-06	-3.081624e-10	8.159348e+00	-2.184287e+01
9.100000e-07	1.319978e-06	1.085830e-10	9.236862e+00	5.937432e+00
9.200000e-07	1.473464e-06	5.440326e-10	1.031092e+01	3.462817e+01
9.300000e-07	1.626407e-06	9.933545e-10	1.138118e+01	6.403315e+01
9.400000e-07	1.778716e-06	1.453289e-09	1.244700e+01	9.390970e+01
9.500000e-07	1.930282e-06	1.918345e-09	1.350761e+01	1.239810e+02
9.600000e-07	2.081037e-06	2.381102e-09	1.456256e+01	1.539518e+02
9.700000e-07	2.231001e-06	2.833362e-09	1.561197e+01	1.835259e+02
9.800000e-07	2.380175e-06	3.269816e-09	1.665585e+01	2.124237e+02
9.900000e-07	2.528504e-06	3.690746e-09	1.769381e+01	2.403985e+02
1.000000e-06	2.675973e-06	4.094721e-09	1.872576e+01	2.672494e+02
1.010000e-06	2.822519e-06	4.479524e-09	1.975126e+01	2.928305e+02
1.020000e-06	2.967972e-06	4.844777e-09	2.076910e+01	3.170546e+02
1.030000e-06	3.112239e-06	5.189901e-09	2.177864e+01	3.398922e+02
1.040000e-06	3.255285e-06	5.514384e-09	2.277964e+01	3.613662e+02
1.050000e-06	3.397085e-06	5.818430e-09	2.377192e+01	3.815424e+02
1.060000e-06	3.537630e-06	6.106634e-09	2.475542e+01	4.005172e+02
1.070000e-06	3.676824e-06	6.380880e-09	2.572946e+01	4.184053e+02
1.080000e-06	3.814555e-06	6.640014e-09	2.669327e+01	4.353263e+02
1.090000e-06	3.950788e-06	6.885736e-09	2.764659e+01	4.513941e+02
1.100000e-06	4.085554e-06	7.121784e-09	2.858965e+01	4.667082e+02
1.110000e-06	4.218920e-06	7.346046e-09	2.952291e+01	4.813486e+02
1.120000e-06	4.350897e-06	7.558699e-09	3.044645e+01	4.953736e+02
1.130000e-06	4.481339e-06	7.761302e-09	3.135925e+01	5.088209e+02
1.140000e-06	4.610086e-06	7.954996e-09	3.226018e+01	5.217115e+02
1.150000e-06	4.737137e-06	8.139007e-09	3.314925e+01	5.340541e+02
1.160000e-06	4.862638e-06	8.313019e-09	3.402748e+01	5.458517e+02
1.170000e-06	4.986581e-06	8.480195e-09	3.489480e+01	5.571063e+02
1.180000e-06	5.108801e-06	8.640648e-09	3.575006e+01	5.678239e+02
1.190000e-06	5.229121e-06	8.797003e-09	3.659203e+01	5.780169e+02
1.200000e-06	5.347523e-06	8.947883e-09	3.742058e+01	5.877053e+02
1.210000e-06	5.463953e-06	9.091881e-09	3.823533e+01	5.969162e+02
1.220000e-06	5.578207e-06	9.227127e-09	3.903484e+01	6.056816e+02
1.230000e-06	5.690223e-06	9.355372e-09	3.981871e+01	6.140354e+02
1.240000e-06	5.800160e-06	9.478685e-09	4.058802e+01	6.220109e+02
1.250000e-06	5.908132e-06	9.596061e-09	4.134357e+01	6.296374e+02
1.260000e-06	6.013984e-06	9.705599e-09	4.208430e+01	6.369386e+02
1.270000e-06	6.117578e-06	9.810225e-09	4.280923e+01	6.439318e+02
1.280000e-06	6.218995e-06	9.909224e-09	4.351891e+01	6.506282e+02
1.290000e-06	6.318190e-06	1.000239e-08	4.421305e+01	6.570340e+02
1.300000e-06	6.414884e-06	1.009357e-08	4.488969e+01	6.631529e+02
1.310000e-06	6.509153e-06	1.018090e-08	4.554937e+01	6.689886e+02
1.320000e-06	6.601233e-06	1.026453e-08	4.619372e+01	6.745464e+02
1.330000e-06	6.690951e-06	1.034411e-08	4.682154e+01	6.798355e+02
1.340000e-06	6.778200e-06	1.042108e-08	4.743208e+01	6.848694e+02
1.350000e-06	6.863098e-06	1.049550e-08	4.802618e+01	6.896658e+02
1.360000e-06	6.945548e-06	1.056589e-08	4.860314e+01	6.942456e+02
1.370000e-06	7.025453e-06	1.063307e-08	4.916230e+01	6.986302e+02
1.380000e-06	7.102862e-06	1.069656e-08	4.970398e+01	7.028401e+02
1.390000e-06	7.177606e-06	1.075769e-08	5.022702e+01	7.068917e+02
1.400000e-06	7.249609e-06	1.081687e-08	5.073088e+01	7.107958e+02
1.410000e-06	7.319089e-06	1.087425e-08	5.121709e+01	7.145560e+02
1.420000e-06	7.386043e-06	1.092883e-08	5.168561e+01	7.181688e+02
1.430000e-06	7.450277e-06	1.097970e-08	5.213510e+01	7.216244e+02
1.440000e-06	7.511920e-06	1.102686e-08	5.256647e+01	7.249080e+02
1.450000e-06	7.571051e-06	1.107227e-08	5.298025e+01	7.280029e+02
1.460000e-06	7.627488e-06	1.111506e-08	5.337518e+01	7.308929e+02
1.470000e-06	7.681150e-06	1.115411e-08	5.375070e+01	7.335647e+02
1.480000e-06	7.731761e-06	1.119090e-08	5.410486e+01	7.360109e+02
1.490000e-06	7.779241e-06	1.122439e-08	5.443711e+01	7.382305e+02
1.500000e-06	7.823941e-06	1.125439e-08	5.474991e+01	7.402299e+02
1.510000e-06	7.865869e-06	1.128024e-08	5.504331e+01	7.420220e+02
1.520000e-06	7.904884e-06	1.130334e-08	5.531633e+01	7.436248e+02
1.530000e-06	7.941238e-06	1.132587e-08	5.557072e+01	7.450590e+02
1.540000e-06	7.974855e-06	1.134698e-08	5.580597e+01	7.463454e+02
1.550000e-06	8.005543e-06	1.136557e-08	5.602071e+01	7.475029e+02
1.560000e-06	8.033483e-06	1.138088e-08	5.621623e+01	7.485459e+02
1.570000e-06	8.058501e-06	1.139483e-08	5.639130e+01	7.494830e+02
1.580000e-06	8.080531e-06	1.140853e-08	5.654546e+01	7.503171e+02
1.590000e-06	8.099750e-06	1.141938e-08	5.667995e+01	7.510450e+02
1.600000e-06	8.116020e-06	1.142611e-08	5.679380e+01	7.516592e+02
1.610000e-06	8.129217e-06	1.143023e-08	5.688615e+01	7.521498e+02
1.620000e-06	8.139196e-06	1.143456e-08	5.695598e+01	7.525060e+02
1.630000e-06	8.146070e-06	1.143916e-08	5.700409e+01	7.527189e+02
1.640000e-06	8.150167e-06	1.144209e-08	5.703275e+01	7.527828e+02
1.650000e-06	8.151417e-06	1.144488e-08	5.704150e+01	7.526965e+02
1.660000e-06	8.149835e-06	1.143752e-08	5.703043e+01	7.524636e+02
1.670000e-06	8.145545e-06	1.143193e-08	5.700041e+01	7.520922e+02
1.680000e-06	8.138490e-06	1.142846e-08	5.695104e+01	7.515943e+02
1.690000e-06	8.128715e-06	1.142106e-08	5.688264e+01	7.509839e+02
1.700000e-06	8.116124e-06	1.141160e-08	5.679453e+01	7.502755e+02
1.710000e-06	8.100662e-06	1.140608e-08	5.668633e+01	7.494828e+02
1.720000e-06	8.082686e-06	1.140976e-08	5.656054e+01	7.486171e+02
1.730000e-06	8.062375e-06	1.138433e-08	5.641840e+01	7.476860e+02
1.740000e-06	8.039335e-06	1.128712e-08	5.625718e+01	7.466938e+02
1.750000e-06	8.012811e-06	1.130501e-08	5.607157e+01	7.456407e+02
1.760000e-06	7.982476e-06	1.131770e-08	5.585929e+01	7.445237e+02
1.770000e-06	7.949000e-06	1.127953e-08	5.562504e+01	7.433372e+02
1.780000e-06	7.913124e-06	1.128202e-08	5.537399e+01	7.420739e+02
1.790000e-06	7.874944e-06	1.135520e-08	5.510682e+01	7.407251e+02
1.800000e-06	7.834653e-06	1.123186e-08	5.482487e+01	7.392821e+02
1.810000e-06	7.792262e-06	1.117277e-08	5.452823e+01	7.377355e+02
1.820000e-06	7.747145e-06	1.131461e-08	5.421251e+01	7.360762e+02
1.830000e-06	7.699282e-06	1.113971e-08	5.387758e+01	7.342948e+02
1.840000e-06	7.648627e-06	1.121336e-08	5.352311e+01	7.323818e+02
1.850000e-06	7.594851e-06	1.116895e-08	5.314679e+01	7.303273e+02
1.860000e-06	7.538207e-06	1.107773e-08	5.275042e+01	7.281212e+02
1.870000e-06	7.478758e-06	1.111286e-08	5.233440e+01	7.257536e+02
1.880000e-06	7.416568e-06	1.096468e-08	5.189921e+01	7.232156e+02
1.890000e-06	7.351651e-06	1.106274e-08	5.144495e+01	7.204999e+02
1.900000e-06	7.283832e-06	1.097161e-08	5.097036e+01	7.176015e+02
1.910000e-06	7.213183e-06	1.088507e-08	5.047598e+01	7.145192e+02
1.920000e-06	7.139710e-06	1.086846e-08	4.996184e+01	7.112551e+02
1.930000e-06	7.063509e-06	1.078863e-08	4.942861e+01	7.078157e+02
1.940000e-06	6.984553e-06	1.078203e-08	4.887609e+01	7.042105e+02
1.950000e-06	6.902943e-06	1.065019e-08	4.830500e+01	7.004520e+02
1.960000e-06	6.818845e-06	1.066250e-08	4.771651e+01	6.965534e+02
1.970000e-06	6.732174e-06	1.058619e-08	4.711000e+01	6.925275e+02
1.980000e-06	6.643016e-06	1.049184e-08	4.648610e+01	6.883848e+02
1.990000e-06	6.551439e-06	1.046066e-08	4.584527e+01	6.841317e+02
2.000000e-06	6.457582e-06	1.039477e-08	4.518848e+01	6.797695e+02
2.010000e-06	6.361466e-06	1.033201e-08	4.451589e+01	6.752938e+02
2.020000e-06	6.263102e-06	1.020500e-08	4.382756e+01	6.706953e+02
2.030000e-06	6.162490e-06	1.017070e-08	4.312351e+01	6.659599e+02
2.040000e-06	6.059638e-06	1.010184e-08	4.240378e+01	6.610713e+02
2.050000e-06	5.954611e-06	1.003332e-08	4.166882e+01	6.560122e+02
2.060000e-06	5.847565e-06	9.937748e-09	4.091974e+01	6.507671e+02
2.070000e-06	5.738576e-06	9.852137e-09	4.015707e+01	6.453239e+02
2.080000e-06	5.627478e-06	9.762604e-09	3.937963e+01	6.396752e+02
2.090000e-06	5.514247e-06	9.658500e-09	3.858727e+01	6.338189e+02
2.100000e-06	5.398932e-06	9.586829e-09	3.778033e+01	6.277581e+02
2.110000e-06	5.281562e-06	9.506386e-09	3.695900e+01	6.214997e+02
2.120000e-06	5.162131e-06	9.413202e-09	3.612325e+01	6.150526e+02
2.130000e-06	5.040792e-06	9.290586e-09	3.527415e+01	6.084255e+02
2.140000e-06	4.917684e-06	9.194523e-09	3.441267e+01	6.016244e+02
2.150000e-06	4.792818e-06	9.090964e-09	3.353890e+01	5.946508e+02
2.160000e-06	4.666244e-06	8.986799e-09	3.265317e+01	5.875002e+02
2.170000e-06	4.537946e-06	8.867076e-09	3.175537e+01	5.801618e+02
2.180000e-06	4.407971e-06	8.754121e-09	3.084584e+01	5.726192e+02
2.190000e-06	4.276417e-06	8.635381e-09	2.992526e+01	5.648518e+02
2.200000e-06	4.143270e-06	8.511806e-09	2.899353e+01	5.568373e+02
2.210000e-06	4.008582e-06	8.387097e-09	2.805102e+01	5.485540e+02
2.220000e-06	3.872353e-06	8.257883e-09	2.709772e+01	5.399840e+02
2.230000e-06	3.734537e-06	8.120328e-09	2.613332e+01	5.311146e+02
2.240000e-06	3.595337e-06	7.974961e-09	2.515923e+01	5.219398e+02
2.250000e-06	3.454783e-06	7.839925e-09	2.417567e+01	5.124604e+02
2.260000e-06	3.312890e-06	7.701453e-09	2.318274e+01	5.026829e+02
2.270000e-06	3.169751e-06	7.552992e-09	2.218109e+01	4.926167e+02
2.280000e-06	3.025324e-06	7.388028e-09	2.117043e+01	4.822719e+02
2.290000e-06	2.879715e-06	7.221956e-09	2.015150e+01	4.716556e+02
2.300000e-06	2.733104e-06	7.057701e-09	1.912555e+01	4.607688e+02
2.310000e-06	2.585636e-06	6.894423e-09	1.809361e+01	4.496045e+02
2.320000e-06	2.437358e-06	6.723203e-09	1.705600e+01	4.381462e+02
2.330000e-06	2.288206e-06	6.540791e-09	1.601227e+01	4.263684e+02
2.340000e-06	2.138217e-06	6.349472e-09	1.496269e+01	4.142386e+02
2.350000e-06	1.987530e-06	6.153638e-09	1.390822e+01	4.017200e+02
2.360000e-06	1.836234e-06	5.955424e-09	1.284949e+01	3.887754e+02
2.370000e-06	1.684324e-06	5.751759e-09	1.178646e+01	3.753713e+02
2.380000e-06	1.531785e-06	5.538879e-09	1.071903e+01	3.614810e+02
2.390000e-06	1.378670e-06	5.320598e-09	9.647574e+00	3.470873e+02
2.400000e-06	1.225077e-06	5.097193e-09	8.572773e+00	3.321825e+02
2.410000e-06	1.071128e-06	4.866446e-09	7.495476e+00	3.167676e+02
2.420000e-06	9.168592e-07	4.628133e-09	6.415943e+00	3.008480e+02
2.430000e-06	7.622977e-07	4.378764e-09	5.334362e+00	2.844294e+02
2.440000e-06	6.074754e-07	4.118330e-09	4.250955e+00	2.675111e+02
2.450000e-06	4.524300e-07	3.850189e-09	3.165988e+00	2.500804e+02
2.460000e-06	2.972211e-07	3.577156e-09	2.079876e+00	2.321072e+02
2.470000e-06	1.418793e-07	3.293437e-09	9.928346e-01	2.135411e+02
2.480000e-06	-1.351949e-08	2.995560e-09	-9.460587e-02	1.943109e+02
2.490000e-06	-1.688971e-07	2.685506e-09	-1.181898e+00	1.743272e+02
2.500000e-06	-3.242468e-07	2.363398e-09	-2.268995e+00	1.534889e+02
2.510000e-06	-4.794781e-07	2.027947e-09	-3.355263e+00	1.316926e+02
2.520000e-06	-6.345115e-07	1.680096e-09	-4.440147e+00	1.088440e+02
2.530000e-06	-7.893823e-07	1.319619e-09	-5.523893e+00	8.487097e+01
2.540000e-06	-9.440382e-07	9.417082e-10	-6.606134e+00	5.973593e+01
2.550000e-06	-1.098408e-06	5.450632e-10	-7.686374e+00	3.344707e+01
2.560000e-06	-1.252421e-06	1.324837e-10	-8.764118e+00	6.066169e+00
2.570000e-06	-1.405970e-06	-2.956263e-10	-9.838613e+00	-2.228761e+01
2.580000e-06	-1.558987e-06	-7.427320e-10	-1.090939e+01	-5.143881e+01
2.590000e-06	-1.711464e-06	-1.202105e-09	-1.197638e+01	-8.116175e+01
2.600000e-06	-1.863325e-06	-1.667642e-09	-1.303906e+01	-1.111913e+02
2.610000e-06	-2.014413e-06	-2.135057e-09	-1.409634e+01	-1.412375e+02
2.620000e-06	-2.164732e-06	-2.595725e-09	-1.514824e+01	-1.710023e+02
2.630000e-06	-2.314240e-06	-3.047139e-09	-1.619445e+01	-2.001975e+02
2.640000e-06	-2.462814e-06	-3.482560e-09	-1.723414e+01	-2.285619e+02
2.650000e-06	-2.610409e-06	-3.898282e-09	-1.826696e+01	-2.558751e+02
2.660000e-06	-2.757049e-06	-4.292681e-09	-1.929312e+01	-2.819690e+02
2.670000e-06	-2.902765e-06	-4.666675e-09	-2.031280e+01	-3.067330e+02
2.680000e-06	-3.047404e-06	-5.021635e-09	-2.132495e+01	-3.301155e+02
2.690000e-06	-3.190868e-06	-5.355657e-09	-2.232887e+01	-3.521197e+02
2.700000e-06	-3.333122e-06	-5.671642e-09	-2.332432e+01	-3.727959e+02
2.710000e-06	-3.474046e-06	-5.970977e-09	-2.431047e+01	-3.922299e+02
2.720000e-06	-3.613553e-06	-6.253689e-09	-2.528670e+01	-4.105309e+02
2.730000e-06	-3.751670e-06	-6.521246e-09	-2.625321e+01	-4.278179e+02
2.740000e-06	-3.888435e-06	-6.775653e-09	-2.721026e+01	-4.442083e+02
2.750000e-06	-4.023822e-06	-7.017191e-09	-2.815766e+01	-4.598080e+02
2.760000e-06	-4.157788e-06	-7.247570e-09	-2.909512e+01	-4.747051e+02
2.770000e-06	-4.290229e-06	-7.467677e-09	-3.002191e+01	-4.889665e+02
2.780000e-06	-4.421142e-06	-7.678153e-09	-3.093800e+01	-5.026377e+02
2.790000e-06	-4.550629e-06	-7.879854e-09	-3.184412e+01	-5.157456e+02
2.800000e-06	-4.678614e-06	-8.072329e-09	-3.273973e+01	-5.283031e+02
2.810000e-06	-4.804940e-06	-8.256133e-09	-3.362372e+01	-5.403148e+02
2.820000e-06	-4.929536e-06	-8.430626e-09	-3.449562e+01	-5.517825e+02
2.830000e-06	-5.052426e-06	-8.594268e-09	-3.535557e+01	-5.627103e+02
2.840000e-06	-5.173627e-06	-8.747931e-09	-3.620370e+01	-5.731076e+02
2.850000e-06	-5.292857e-06	-8.896409e-09	-3.703804e+01	-5.829916e+02
2.860000e-06	-5.409851e-06	-9.040326e-09	-3.785673e+01	-5.923867e+02
2.870000e-06	-5.524636e-06	-9.177814e-09	-3.865997e+01	-6.013233e+02
2.880000e-06	-5.637208e-06	-9.309833e-09	-3.944772e+01	-6.098349e+02
2.890000e-06	-5.747590e-06	-9.438211e-09	-4.022014e+01	-6.179555e+02
2.900000e-06	-5.855953e-06	-9.563144e-09	-4.097844e+01	-6.257161e+02
2.910000e-06	-5.962363e-06	-9.681029e-09	-4.172307e+01	-6.331429e+02
2.920000e-06	-6.066635e-06	-9.790317e-09	-4.245274e+01	-6.402557e+02
2.930000e-06	-6.168519e-06	-9.893197e-09	-4.316569e+01	-6.470679e+02
2.940000e-06	-6.268101e-06	-9.991603e-09	-4.386254e+01	-6.535875e+02
