# Temperatura_=_67.15
# Concentracion g/m^3_=_15000.0
# C_Vs_to_Am_M_A/Vsm_=_65563218390.804596
# pendiente_HvsI_1/m_=_3716.3
# ordenada_HvsI_A/m_=_1297.0
# frecuencia_Hz_=_302339.76046919136

Tiempo_(s)	Campo_(V.s)	Magnetizacion_(V.s)	Campo_(kA/m)	Magnetizacion_(A/m)
0.000000e+00	-8.158676e-06	-1.197778e-08	-5.691929e+01	-7.829393e+02
1.000000e-08	-8.156225e-06	-1.197826e-08	-5.690219e+01	-7.826164e+02
2.000000e-08	-8.151058e-06	-1.197091e-08	-5.686614e+01	-7.821541e+02
3.000000e-08	-8.143284e-06	-1.196057e-08	-5.681191e+01	-7.815648e+02
4.000000e-08	-8.132671e-06	-1.195074e-08	-5.673787e+01	-7.808622e+02
5.000000e-08	-8.119071e-06	-1.193747e-08	-5.664298e+01	-7.800589e+02
6.000000e-08	-8.102535e-06	-1.192006e-08	-5.652762e+01	-7.791657e+02
7.000000e-08	-8.083444e-06	-1.189994e-08	-5.639443e+01	-7.781907e+02
8.000000e-08	-8.062043e-06	-1.188019e-08	-5.624513e+01	-7.771387e+02
9.000000e-08	-8.037912e-06	-1.191405e-08	-5.607677e+01	-7.760120e+02
1.000000e-07	-8.010562e-06	-1.191378e-08	-5.588597e+01	-7.748100e+02
1.100000e-07	-7.980016e-06	-1.184829e-08	-5.567286e+01	-7.735308e+02
1.200000e-07	-7.946492e-06	-1.180900e-08	-5.543898e+01	-7.721713e+02
1.300000e-07	-7.910139e-06	-1.178483e-08	-5.518536e+01	-7.707281e+02
1.400000e-07	-7.871356e-06	-1.175030e-08	-5.491479e+01	-7.691978e+02
1.500000e-07	-7.830265e-06	-1.169305e-08	-5.462812e+01	-7.675767e+02
1.600000e-07	-7.786759e-06	-1.169876e-08	-5.432460e+01	-7.658602e+02
1.700000e-07	-7.740625e-06	-1.168857e-08	-5.400274e+01	-7.640430e+02
1.800000e-07	-7.691542e-06	-1.157877e-08	-5.366031e+01	-7.621175e+02
1.900000e-07	-7.639480e-06	-1.160473e-08	-5.329710e+01	-7.600739e+02
2.000000e-07	-7.584559e-06	-1.158184e-08	-5.291394e+01	-7.579002e+02
2.100000e-07	-7.526804e-06	-1.151499e-08	-5.251101e+01	-7.555822e+02
2.200000e-07	-7.466339e-06	-1.150565e-08	-5.208917e+01	-7.531043e+02
2.300000e-07	-7.403264e-06	-1.143723e-08	-5.164913e+01	-7.504514e+02
2.400000e-07	-7.337413e-06	-1.140617e-08	-5.118972e+01	-7.476098e+02
2.500000e-07	-7.268744e-06	-1.132772e-08	-5.071065e+01	-7.445691e+02
2.600000e-07	-7.197301e-06	-1.129134e-08	-5.021222e+01	-7.413234e+02
2.700000e-07	-7.122965e-06	-1.125088e-08	-4.969361e+01	-7.378725e+02
2.800000e-07	-7.045780e-06	-1.118399e-08	-4.915513e+01	-7.342218e+02
2.900000e-07	-6.965832e-06	-1.111021e-08	-4.859737e+01	-7.303821e+02
3.000000e-07	-6.883268e-06	-1.104392e-08	-4.802136e+01	-7.263679e+02
3.100000e-07	-6.798361e-06	-1.101398e-08	-4.742900e+01	-7.221955e+02
3.200000e-07	-6.711118e-06	-1.093002e-08	-4.682035e+01	-7.178811e+02
3.300000e-07	-6.621407e-06	-1.086410e-08	-4.619448e+01	-7.134379e+02
3.400000e-07	-6.529269e-06	-1.081202e-08	-4.555168e+01	-7.088744e+02
3.500000e-07	-6.434825e-06	-1.074386e-08	-4.489278e+01	-7.041930e+02
3.600000e-07	-6.338001e-06	-1.065936e-08	-4.421729e+01	-6.993893e+02
3.700000e-07	-6.238800e-06	-1.057592e-08	-4.352521e+01	-6.944526e+02
3.800000e-07	-6.137357e-06	-1.050705e-08	-4.281748e+01	-6.893672e+02
3.900000e-07	-6.033686e-06	-1.041788e-08	-4.209422e+01	-6.841146e+02
4.000000e-07	-5.927846e-06	-1.032524e-08	-4.135582e+01	-6.786758e+02
4.100000e-07	-5.820018e-06	-1.024104e-08	-4.060356e+01	-6.730341e+02
4.200000e-07	-5.710235e-06	-1.016611e-08	-3.983765e+01	-6.671772e+02
4.300000e-07	-5.598364e-06	-1.007065e-08	-3.905718e+01	-6.610983e+02
4.400000e-07	-5.484262e-06	-9.961058e-09	-3.826114e+01	-6.547972e+02
4.500000e-07	-5.367966e-06	-9.862348e-09	-3.744980e+01	-6.482793e+02
4.600000e-07	-5.249657e-06	-9.769469e-09	-3.662442e+01	-6.415541e+02
4.700000e-07	-5.129507e-06	-9.664214e-09	-3.578619e+01	-6.346329e+02
4.800000e-07	-5.007546e-06	-9.554571e-09	-3.493532e+01	-6.275262e+02
4.900000e-07	-4.883749e-06	-9.449369e-09	-3.407164e+01	-6.202408e+02
5.000000e-07	-4.758240e-06	-9.334644e-09	-3.319603e+01	-6.127779e+02
5.100000e-07	-4.631023e-06	-9.207322e-09	-3.230849e+01	-6.051318e+02
5.200000e-07	-4.502053e-06	-9.080918e-09	-3.140873e+01	-5.972897e+02
5.300000e-07	-4.371406e-06	-8.962141e-09	-3.049727e+01	-5.892326e+02
5.400000e-07	-4.239187e-06	-8.834170e-09	-2.957483e+01	-5.809373e+02
5.500000e-07	-4.105460e-06	-8.697945e-09	-2.864188e+01	-5.723795e+02
5.600000e-07	-3.970202e-06	-8.560722e-09	-2.769826e+01	-5.635363e+02
5.700000e-07	-3.833400e-06	-8.423667e-09	-2.674385e+01	-5.543895e+02
5.800000e-07	-3.695007e-06	-8.275865e-09	-2.577835e+01	-5.449275e+02
5.900000e-07	-3.555041e-06	-8.124238e-09	-2.480187e+01	-5.351460e+02
6.000000e-07	-3.413638e-06	-7.973680e-09	-2.381536e+01	-5.250483e+02
6.100000e-07	-3.270824e-06	-7.819304e-09	-2.281902e+01	-5.146430e+02
6.200000e-07	-3.126647e-06	-7.657210e-09	-2.181316e+01	-5.039419e+02
6.300000e-07	-2.981299e-06	-7.488927e-09	-2.079913e+01	-4.929562e+02
6.400000e-07	-2.834935e-06	-7.316546e-09	-1.977802e+01	-4.816932e+02
6.500000e-07	-2.687578e-06	-7.136608e-09	-1.874998e+01	-4.701530e+02
6.600000e-07	-2.539328e-06	-6.952966e-09	-1.771571e+01	-4.583265e+02
6.700000e-07	-2.390311e-06	-6.766371e-09	-1.667609e+01	-4.461947e+02
6.800000e-07	-2.240526e-06	-6.577179e-09	-1.563111e+01	-4.337296e+02
6.900000e-07	-2.089961e-06	-6.380037e-09	-1.458069e+01	-4.208965e+02
7.000000e-07	-1.938643e-06	-6.176677e-09	-1.352501e+01	-4.076574e+02
7.100000e-07	-1.786645e-06	-5.967252e-09	-1.246459e+01	-3.939755e+02
7.200000e-07	-1.634084e-06	-5.749966e-09	-1.140025e+01	-3.798187e+02
7.300000e-07	-1.481002e-06	-5.528683e-09	-1.033226e+01	-3.651631e+02
7.400000e-07	-1.327369e-06	-5.300399e-09	-9.260435e+00	-3.499945e+02
7.500000e-07	-1.173215e-06	-5.063152e-09	-8.184979e+00	-3.343081e+02
7.600000e-07	-1.018613e-06	-4.817788e-09	-7.106393e+00	-3.181061e+02
7.700000e-07	-8.636477e-07	-4.564414e-09	-6.025269e+00	-3.013931e+02
7.800000e-07	-7.083834e-07	-4.300961e-09	-4.942061e+00	-2.841706e+02
7.900000e-07	-5.528735e-07	-4.030505e-09	-3.857141e+00	-2.664302e+02
8.000000e-07	-3.971549e-07	-3.753280e-09	-2.770765e+00	-2.481480e+02
8.100000e-07	-2.413081e-07	-3.466127e-09	-1.683495e+00	-2.292799e+02
8.200000e-07	-8.542633e-08	-3.165189e-09	-5.959798e-01	-2.097596e+02
8.300000e-07	7.054476e-08	-2.852191e-09	4.921580e-01	-1.894999e+02
8.400000e-07	2.265476e-07	-2.527497e-09	1.580517e+00	-1.683979e+02
8.500000e-07	3.824885e-07	-2.186120e-09	2.668444e+00	-1.463427e+02
8.600000e-07	5.383518e-07	-1.830919e-09	3.755830e+00	-1.232272e+02
8.700000e-07	6.940919e-07	-1.463068e-09	4.842357e+00	-9.896099e+01
8.800000e-07	8.496602e-07	-1.080936e-09	5.927684e+00	-7.348439e+01
8.900000e-07	1.004981e-06	-6.808001e-10	7.011284e+00	-4.678075e+01
9.000000e-07	1.159948e-06	-2.635969e-10	8.092420e+00	-1.888679e+01
9.100000e-07	1.314447e-06	1.711185e-10	9.170285e+00	1.010119e+01
9.200000e-07	1.468389e-06	6.235562e-10	1.024427e+01	4.002597e+01
9.300000e-07	1.621745e-06	1.091861e-09	1.131416e+01	7.067341e+01
9.400000e-07	1.774468e-06	1.572291e-09	1.237964e+01	1.017816e+02
9.500000e-07	1.926538e-06	2.056152e-09	1.344056e+01	1.330548e+02
9.600000e-07	2.077953e-06	2.537477e-09	1.449691e+01	1.641800e+02
9.700000e-07	2.228609e-06	3.007947e-09	1.554797e+01	1.948463e+02
9.800000e-07	2.378354e-06	3.460629e-09	1.659267e+01	2.247630e+02
9.900000e-07	2.527152e-06	3.895609e-09	1.763077e+01	2.536765e+02
1.000000e-06	2.675058e-06	4.311353e-09	1.866264e+01	2.813838e+02
1.010000e-06	2.821998e-06	4.705824e-09	1.968777e+01	3.077408e+02
1.020000e-06	2.967842e-06	5.079977e-09	2.070525e+01	3.326661e+02
1.030000e-06	3.112561e-06	5.433420e-09	2.171489e+01	3.561390e+02
1.040000e-06	3.256115e-06	5.767032e-09	2.271640e+01	3.781925e+02
1.050000e-06	3.398400e-06	6.081730e-09	2.370906e+01	3.989032e+02
1.060000e-06	3.539422e-06	6.379272e-09	2.469290e+01	4.183782e+02
1.070000e-06	3.679133e-06	6.661559e-09	2.566760e+01	4.367411e+02
1.080000e-06	3.817371e-06	6.927689e-09	2.663202e+01	4.541190e+02
1.090000e-06	3.954149e-06	7.179122e-09	2.758626e+01	4.706310e+02
1.100000e-06	4.089529e-06	7.419314e-09	2.853074e+01	4.863797e+02
1.110000e-06	4.223371e-06	7.648429e-09	2.946450e+01	5.014463e+02
1.120000e-06	4.355722e-06	7.866831e-09	3.038785e+01	5.158895e+02
1.130000e-06	4.486639e-06	8.076732e-09	3.130120e+01	5.297464e+02
1.140000e-06	4.615921e-06	8.279131e-09	3.220314e+01	5.430373e+02
1.150000e-06	4.743563e-06	8.469450e-09	3.309363e+01	5.557708e+02
1.160000e-06	4.869575e-06	8.649238e-09	3.397276e+01	5.679505e+02
1.170000e-06	4.993927e-06	8.820939e-09	3.484030e+01	5.795797e+02
1.180000e-06	5.116559e-06	8.986096e-09	3.569585e+01	5.906665e+02
1.190000e-06	5.237344e-06	9.147036e-09	3.653852e+01	6.012257e+02
1.200000e-06	5.356184e-06	9.302467e-09	3.736761e+01	6.112799e+02
1.210000e-06	5.473019e-06	9.451629e-09	3.818271e+01	6.208583e+02
1.220000e-06	5.587741e-06	9.594219e-09	3.898307e+01	6.299942e+02
1.230000e-06	5.700316e-06	9.730204e-09	3.976846e+01	6.387220e+02
1.240000e-06	5.810804e-06	9.860270e-09	4.053928e+01	6.470739e+02
1.250000e-06	5.919225e-06	9.982975e-09	4.129568e+01	6.550770e+02
1.260000e-06	6.025525e-06	1.009803e-08	4.203729e+01	6.627522e+02
1.270000e-06	6.129583e-06	1.020808e-08	4.276325e+01	6.701129e+02
1.280000e-06	6.231405e-06	1.031356e-08	4.347361e+01	6.771662e+02
1.290000e-06	6.330950e-06	1.041391e-08	4.416810e+01	6.839150e+02
1.300000e-06	6.428119e-06	1.050911e-08	4.484600e+01	6.903600e+02
1.310000e-06	6.522903e-06	1.060074e-08	4.550726e+01	6.965024e+02
1.320000e-06	6.615389e-06	1.068757e-08	4.615249e+01	7.023468e+02
1.330000e-06	6.705506e-06	1.076984e-08	4.678120e+01	7.079024e+02
1.340000e-06	6.793177e-06	1.084876e-08	4.739284e+01	7.131838e+02
1.350000e-06	6.878486e-06	1.092554e-08	4.798800e+01	7.182104e+02
1.360000e-06	6.961396e-06	1.100123e-08	4.856643e+01	7.230051e+02
1.370000e-06	7.041747e-06	1.107410e-08	4.912699e+01	7.275916e+02
1.380000e-06	7.119528e-06	1.114378e-08	4.966963e+01	7.319921e+02
1.390000e-06	7.194722e-06	1.120834e-08	5.019423e+01	7.362244e+02
1.400000e-06	7.267182e-06	1.126807e-08	5.069975e+01	7.403002e+02
1.410000e-06	7.337019e-06	1.132575e-08	5.118697e+01	7.442234e+02
1.420000e-06	7.404323e-06	1.138128e-08	5.165652e+01	7.479905e+02
1.430000e-06	7.468948e-06	1.143596e-08	5.210738e+01	7.515914e+02
1.440000e-06	7.530922e-06	1.148644e-08	5.253974e+01	7.550111e+02
1.450000e-06	7.590316e-06	1.153292e-08	5.295410e+01	7.582329e+02
1.460000e-06	7.647068e-06	1.157645e-08	5.335004e+01	7.612407e+02
1.470000e-06	7.701094e-06	1.161780e-08	5.372695e+01	7.640224e+02
1.480000e-06	7.752079e-06	1.165860e-08	5.408265e+01	7.665712e+02
1.490000e-06	7.799945e-06	1.169502e-08	5.441659e+01	7.688877e+02
1.500000e-06	7.845000e-06	1.172519e-08	5.473092e+01	7.709794e+02
1.510000e-06	7.887257e-06	1.175052e-08	5.502573e+01	7.728604e+02
1.520000e-06	7.926667e-06	1.177393e-08	5.530067e+01	7.745490e+02
1.530000e-06	7.963372e-06	1.179809e-08	5.555674e+01	7.760661e+02
1.540000e-06	7.997270e-06	1.182085e-08	5.579323e+01	7.774320e+02
1.550000e-06	8.028237e-06	1.184059e-08	5.600928e+01	7.786641e+02
1.560000e-06	8.056422e-06	1.185715e-08	5.620591e+01	7.797752e+02
1.570000e-06	8.081695e-06	1.187079e-08	5.638223e+01	7.807722e+02
1.580000e-06	8.103958e-06	1.188531e-08	5.653754e+01	7.816560e+02
1.590000e-06	8.123370e-06	1.189767e-08	5.667298e+01	7.824221e+02
1.600000e-06	8.139817e-06	1.190503e-08	5.678772e+01	7.830622e+02
1.610000e-06	8.153203e-06	1.190974e-08	5.688111e+01	7.835661e+02
1.620000e-06	8.163412e-06	1.191387e-08	5.695233e+01	7.839239e+02
1.630000e-06	8.170507e-06	1.191755e-08	5.700183e+01	7.841275e+02
1.640000e-06	8.174786e-06	1.191984e-08	5.703168e+01	7.841730e+02
1.650000e-06	8.176193e-06	1.192028e-08	5.704150e+01	7.840606e+02
1.660000e-06	8.174735e-06	1.191460e-08	5.703132e+01	7.837953e+02
1.670000e-06	8.170576e-06	1.190422e-08	5.700231e+01	7.833861e+02
1.680000e-06	8.163653e-06	1.189909e-08	5.695401e+01	7.828448e+02
1.690000e-06	8.153996e-06	1.189330e-08	5.688664e+01	7.821849e+02
1.700000e-06	8.141537e-06	1.188401e-08	5.679972e+01	7.814195e+02
1.710000e-06	8.126193e-06	1.187540e-08	5.669267e+01	7.805602e+02
1.720000e-06	8.108316e-06	1.187029e-08	5.656795e+01	7.796163e+02
1.730000e-06	8.088179e-06	1.185380e-08	5.642747e+01	7.785940e+02
1.740000e-06	8.065325e-06	1.176719e-08	5.626802e+01	7.774963e+02
1.750000e-06	8.038967e-06	1.175734e-08	5.608413e+01	7.763238e+02
1.760000e-06	8.008822e-06	1.178260e-08	5.587383e+01	7.750750e+02
1.770000e-06	7.975430e-06	1.175417e-08	5.564086e+01	7.737471e+02
1.780000e-06	7.939640e-06	1.173373e-08	5.539118e+01	7.723370e+02
1.790000e-06	7.901516e-06	1.176376e-08	5.512520e+01	7.708412e+02
1.800000e-06	7.861188e-06	1.171554e-08	5.484385e+01	7.692559e+02
1.810000e-06	7.818808e-06	1.162046e-08	5.454819e+01	7.675772e+02
1.820000e-06	7.773696e-06	1.171652e-08	5.423347e+01	7.658001e+02
1.830000e-06	7.725800e-06	1.164041e-08	5.389931e+01	7.639179e+02
1.840000e-06	7.675136e-06	1.162805e-08	5.354586e+01	7.619218e+02
1.850000e-06	7.621302e-06	1.163233e-08	5.317028e+01	7.598006e+02
1.860000e-06	7.564605e-06	1.151473e-08	5.277474e+01	7.575408e+02
1.870000e-06	7.505225e-06	1.154897e-08	5.236046e+01	7.551273e+02
1.880000e-06	7.443074e-06	1.144562e-08	5.192687e+01	7.525447e+02
1.890000e-06	7.378155e-06	1.145039e-08	5.147396e+01	7.497785e+02
1.900000e-06	7.310363e-06	1.143680e-08	5.100100e+01	7.468167e+02
1.910000e-06	7.239679e-06	1.132917e-08	5.050787e+01	7.436516e+02
1.920000e-06	7.166160e-06	1.129923e-08	4.999497e+01	7.402807e+02
1.930000e-06	7.089908e-06	1.121654e-08	4.946299e+01	7.367073e+02
1.940000e-06	7.010876e-06	1.121630e-08	4.891162e+01	7.329401e+02
1.950000e-06	6.929224e-06	1.112639e-08	4.834197e+01	7.289923e+02
1.960000e-06	6.845104e-06	1.107431e-08	4.775511e+01	7.248798e+02
1.970000e-06	6.758304e-06	1.102959e-08	4.714955e+01	7.206191e+02
1.980000e-06	6.668957e-06	1.091892e-08	4.652621e+01	7.162249e+02
1.990000e-06	6.577320e-06	1.086796e-08	4.588690e+01	7.117078e+02
2.000000e-06	6.483428e-06	1.079185e-08	4.523187e+01	7.070727e+02
2.010000e-06	6.387203e-06	1.075330e-08	4.456055e+01	7.023177e+02
2.020000e-06	6.288722e-06	1.064823e-08	4.387349e+01	6.974347e+02
2.030000e-06	6.187982e-06	1.056836e-08	4.317067e+01	6.924095e+02
2.040000e-06	6.084922e-06	1.049307e-08	4.245167e+01	6.872247e+02
2.050000e-06	5.979721e-06	1.041445e-08	4.171773e+01	6.818609e+02
2.060000e-06	5.872484e-06	1.032654e-08	4.096959e+01	6.763005e+02
2.070000e-06	5.763261e-06	1.022553e-08	4.020760e+01	6.705290e+02
2.080000e-06	5.651922e-06	1.015354e-08	3.943083e+01	6.645374e+02
2.090000e-06	5.538424e-06	1.005309e-08	3.863901e+01	6.583230e+02
2.100000e-06	5.422837e-06	9.962386e-09	3.783261e+01	6.518891e+02
2.110000e-06	5.305156e-06	9.862495e-09	3.701161e+01	6.452438e+02
2.120000e-06	5.185454e-06	9.766267e-09	3.617650e+01	6.383980e+02
2.130000e-06	5.063896e-06	9.641656e-09	3.532845e+01	6.313628e+02
2.140000e-06	4.940547e-06	9.529171e-09	3.446790e+01	6.241468e+02
2.150000e-06	4.815407e-06	9.429233e-09	3.359485e+01	6.167537e+02
2.160000e-06	4.688495e-06	9.329314e-09	3.270945e+01	6.091805e+02
2.170000e-06	4.559881e-06	9.211419e-09	3.181217e+01	6.014172e+02
2.180000e-06	4.429693e-06	9.079090e-09	3.090391e+01	5.934468e+02
2.190000e-06	4.297851e-06	8.947522e-09	2.998411e+01	5.852477e+02
2.200000e-06	4.164445e-06	8.811708e-09	2.905340e+01	5.767957e+02
2.210000e-06	4.029446e-06	8.683572e-09	2.811157e+01	5.680668e+02
2.220000e-06	3.892841e-06	8.552963e-09	2.715854e+01	5.590409e+02
2.230000e-06	3.754756e-06	8.417896e-09	2.619519e+01	5.497034e+02
2.240000e-06	3.615186e-06	8.265725e-09	2.522147e+01	5.400472e+02
2.250000e-06	3.474255e-06	8.113618e-09	2.423826e+01	5.300727e+02
2.260000e-06	3.331995e-06	7.960588e-09	2.324578e+01	5.197866e+02
2.270000e-06	3.188421e-06	7.805593e-09	2.224413e+01	5.092001e+02
2.280000e-06	3.043643e-06	7.641732e-09	2.123408e+01	4.983248e+02
2.290000e-06	2.897757e-06	7.470803e-09	2.021630e+01	4.871700e+02
2.300000e-06	2.750815e-06	7.297212e-09	1.919116e+01	4.757390e+02
2.310000e-06	2.602888e-06	7.119668e-09	1.815914e+01	4.640264e+02
2.320000e-06	2.454109e-06	6.936883e-09	1.712118e+01	4.520172e+02
2.330000e-06	2.304597e-06	6.745035e-09	1.607810e+01	4.396866e+02
2.340000e-06	2.154303e-06	6.546097e-09	1.502957e+01	4.270023e+02
2.350000e-06	2.003226e-06	6.343721e-09	1.397558e+01	4.139270e+02
2.360000e-06	1.851446e-06	6.138637e-09	1.291668e+01	4.004230e+02
2.370000e-06	1.699074e-06	5.927573e-09	1.185365e+01	3.864559e+02
2.380000e-06	1.546253e-06	5.707574e-09	1.078749e+01	3.719982e+02
2.390000e-06	1.392881e-06	5.479537e-09	9.717484e+00	3.570320e+02
2.400000e-06	1.238905e-06	5.242619e-09	8.643266e+00	3.415488e+02
2.410000e-06	1.084460e-06	4.999341e-09	7.565771e+00	3.255486e+02
2.420000e-06	9.296850e-07	4.753390e-09	6.485980e+00	3.090356e+02
2.430000e-06	7.746637e-07	4.500634e-09	5.404469e+00	2.920133e+02
2.440000e-06	6.194332e-07	4.235661e-09	4.321498e+00	2.744780e+02
2.450000e-06	4.639745e-07	3.957093e-09	3.236935e+00	2.564125e+02
2.460000e-06	3.082882e-07	3.668717e-09	2.150783e+00	2.377809e+02
2.470000e-06	1.524425e-07	3.370955e-09	1.063520e+00	2.185259e+02
2.480000e-06	-3.547092e-09	3.062885e-09	-2.474641e-02	1.985680e+02
2.490000e-06	-1.595645e-07	2.743440e-09	-1.113208e+00	1.778097e+02
2.500000e-06	-3.155032e-07	2.410573e-09	-2.201119e+00	1.561419e+02
2.510000e-06	-4.713432e-07	2.060221e-09	-3.288342e+00	1.334547e+02
2.520000e-06	-6.270709e-07	1.693784e-09	-4.374782e+00	1.096495e+02
2.530000e-06	-7.826242e-07	1.315901e-09	-5.460005e+00	8.465279e+01
2.540000e-06	-9.378966e-07	9.240316e-10	-6.543269e+00	5.842972e+01
2.550000e-06	-1.092804e-06	5.116941e-10	-7.623986e+00	3.099503e+01
2.560000e-06	-1.247306e-06	7.940798e-11	-8.701877e+00	2.421191e+00
2.570000e-06	-1.401284e-06	-3.689914e-10	-9.776106e+00	-2.715835e+01
2.580000e-06	-1.554660e-06	-8.337872e-10	-1.084614e+01	-5.755098e+01
2.590000e-06	-1.707495e-06	-1.312213e-09	-1.191240e+01	-8.851218e+01
2.600000e-06	-1.859752e-06	-1.800118e-09	-1.297463e+01	-1.197576e+02
2.610000e-06	-2.011346e-06	-2.287471e-09	-1.403223e+01	-1.509788e+02
2.620000e-06	-2.162160e-06	-2.766606e-09	-1.508438e+01	-1.818618e+02
2.630000e-06	-2.312082e-06	-3.231108e-09	-1.613032e+01	-2.121059e+02
2.640000e-06	-2.461161e-06	-3.675715e-09	-1.717038e+01	-2.414410e+02
2.650000e-06	-2.609383e-06	-4.102490e-09	-1.820445e+01	-2.696429e+02
2.660000e-06	-2.756595e-06	-4.509955e-09	-1.923148e+01	-2.965438e+02
2.670000e-06	-2.902721e-06	-4.897775e-09	-2.025093e+01	-3.220376e+02
2.680000e-06	-3.047809e-06	-5.266028e-09	-2.126315e+01	-3.460802e+02
2.690000e-06	-3.191813e-06	-5.612711e-09	-2.226780e+01	-3.686845e+02
2.700000e-06	-3.334525e-06	-5.936280e-09	-2.326343e+01	-3.899116e+02
2.710000e-06	-3.475883e-06	-6.240328e-09	-2.424962e+01	-4.098582e+02
2.720000e-06	-3.615949e-06	-6.529646e-09	-2.522679e+01	-4.286430e+02
2.730000e-06	-3.754619e-06	-6.806341e-09	-2.619423e+01	-4.463933e+02
2.740000e-06	-3.891887e-06	-7.068799e-09	-2.715188e+01	-4.632324e+02
2.750000e-06	-4.027828e-06	-7.315735e-09	-2.810029e+01	-4.792702e+02
2.760000e-06	-4.162252e-06	-7.552810e-09	-2.903810e+01	-4.945968e+02
2.770000e-06	-4.295147e-06	-7.779885e-09	-2.996524e+01	-5.092797e+02
2.780000e-06	-4.426636e-06	-7.995637e-09	-3.088258e+01	-5.233639e+02
2.790000e-06	-4.556567e-06	-8.202379e-09	-3.178905e+01	-5.368758e+02
2.800000e-06	-4.684927e-06	-8.401119e-09	-3.268456e+01	-5.498280e+02
2.810000e-06	-4.811662e-06	-8.591107e-09	-3.356873e+01	-5.622252e+02
2.820000e-06	-4.936727e-06	-8.771214e-09	-3.444125e+01	-5.740703e+02
2.830000e-06	-5.060109e-06	-8.941817e-09	-3.530203e+01	-5.853691e+02
2.840000e-06	-5.181665e-06	-9.103821e-09	-3.615007e+01	-5.961335e+02
2.850000e-06	-5.301332e-06	-9.258483e-09	-3.698493e+01	-6.063832e+02
2.860000e-06	-5.418922e-06	-9.406451e-09	-3.780530e+01	-6.161449e+02
2.870000e-06	-5.534295e-06	-9.548822e-09	-3.861021e+01	-6.254508e+02
2.880000e-06	-5.647446e-06	-9.687730e-09	-3.939960e+01	-6.343352e+02
2.890000e-06	-5.758370e-06	-9.820383e-09	-4.017347e+01	-6.428314e+02
2.900000e-06	-5.867222e-06	-9.946647e-09	-4.093288e+01	-6.509690e+02
2.910000e-06	-5.974083e-06	-1.006832e-08	-4.167840e+01	-6.587712e+02
2.920000e-06	-6.078743e-06	-1.018403e-08	-4.240856e+01	-6.662545e+02
2.930000e-06	-6.181074e-06	-1.029450e-08	-4.312248e+01	-6.734283e+02
2.940000e-06	-6.281103e-06	-1.040000e-08	-4.382033e+01	-6.802969e+02
