# Temperatura_=_41.99
# Concentracion g/m^3_=_15000.0
# C_Vs_to_Am_M_A/Vsm_=_65563218390.804596
# pendiente_HvsI_1/m_=_3716.3
# ordenada_HvsI_A/m_=_1297.0
# frecuencia_Hz_=_302339.47862690437

Tiempo_(s)	Campo_(V.s)	Magnetizacion_(V.s)	Campo_(kA/m)	Magnetizacion_(A/m)
0.000000e+00	-8.174300e-06	-1.072637e-08	-5.692149e+01	-7.014172e+02
1.000000e-08	-8.171745e-06	-1.073145e-08	-5.690370e+01	-7.011882e+02
2.000000e-08	-8.166484e-06	-1.072662e-08	-5.686706e+01	-7.008464e+02
3.000000e-08	-8.158581e-06	-1.071964e-08	-5.681203e+01	-7.004041e+02
4.000000e-08	-8.147814e-06	-1.071210e-08	-5.673706e+01	-6.998745e+02
5.000000e-08	-8.133999e-06	-1.069939e-08	-5.664086e+01	-6.992702e+02
6.000000e-08	-8.117275e-06	-1.068314e-08	-5.652440e+01	-6.986016e+02
7.000000e-08	-8.098075e-06	-1.066255e-08	-5.639070e+01	-6.978757e+02
8.000000e-08	-8.076549e-06	-1.064888e-08	-5.624081e+01	-6.970962e+02
9.000000e-08	-8.052216e-06	-1.070597e-08	-5.607136e+01	-6.962628e+02
1.000000e-07	-8.024606e-06	-1.069224e-08	-5.587910e+01	-6.953721e+02
1.100000e-07	-7.993816e-06	-1.062661e-08	-5.566470e+01	-6.944184e+02
1.200000e-07	-7.960121e-06	-1.060181e-08	-5.543006e+01	-6.933946e+02
1.300000e-07	-7.923642e-06	-1.057796e-08	-5.517605e+01	-6.922933e+02
1.400000e-07	-7.884626e-06	-1.054038e-08	-5.490435e+01	-6.911073e+02
1.500000e-07	-7.843317e-06	-1.048340e-08	-5.461670e+01	-6.898304e+02
1.600000e-07	-7.799614e-06	-1.055464e-08	-5.431238e+01	-6.884574e+02
1.700000e-07	-7.753179e-06	-1.050425e-08	-5.398903e+01	-6.869836e+02
1.800000e-07	-7.703880e-06	-1.040258e-08	-5.364574e+01	-6.854046e+02
1.900000e-07	-7.651643e-06	-1.048931e-08	-5.328199e+01	-6.837158e+02
2.000000e-07	-7.596386e-06	-1.040580e-08	-5.289720e+01	-6.819119e+02
2.100000e-07	-7.538374e-06	-1.034727e-08	-5.249324e+01	-6.799865e+02
2.200000e-07	-7.477745e-06	-1.034992e-08	-5.207105e+01	-6.779324e+02
2.300000e-07	-7.414385e-06	-1.031079e-08	-5.162984e+01	-6.757419e+02
2.400000e-07	-7.348265e-06	-1.029984e-08	-5.116942e+01	-6.734077e+02
2.500000e-07	-7.279356e-06	-1.021278e-08	-5.068957e+01	-6.709237e+02
2.600000e-07	-7.207599e-06	-1.020020e-08	-5.018990e+01	-6.682858e+02
2.700000e-07	-7.133001e-06	-1.015442e-08	-4.967044e+01	-6.654929e+02
2.800000e-07	-7.055512e-06	-1.010132e-08	-4.913085e+01	-6.625472e+02
2.900000e-07	-6.975272e-06	-1.003977e-08	-4.857210e+01	-6.594543e+02
3.000000e-07	-6.892536e-06	-1.001222e-08	-4.799597e+01	-6.562221e+02
3.100000e-07	-6.807423e-06	-9.998932e-09	-4.740329e+01	-6.528604e+02
3.200000e-07	-6.719875e-06	-9.889717e-09	-4.679365e+01	-6.493793e+02
3.300000e-07	-6.629838e-06	-9.845564e-09	-4.616668e+01	-6.457872e+02
3.400000e-07	-6.537453e-06	-9.802814e-09	-4.552336e+01	-6.420900e+02
3.500000e-07	-6.442691e-06	-9.738428e-09	-4.486348e+01	-6.382895e+02
3.600000e-07	-6.345619e-06	-9.660919e-09	-4.418753e+01	-6.343830e+02
3.700000e-07	-6.246264e-06	-9.609733e-09	-4.349567e+01	-6.303632e+02
3.800000e-07	-6.144572e-06	-9.560436e-09	-4.278754e+01	-6.262190e+02
3.900000e-07	-6.040622e-06	-9.473707e-09	-4.206369e+01	-6.219365e+02
4.000000e-07	-5.934545e-06	-9.406103e-09	-4.132503e+01	-6.175010e+02
4.100000e-07	-5.826428e-06	-9.339795e-09	-4.057216e+01	-6.128984e+02
4.200000e-07	-5.716213e-06	-9.276051e-09	-3.980468e+01	-6.081173e+02
4.300000e-07	-5.603857e-06	-9.182790e-09	-3.902229e+01	-6.031497e+02
4.400000e-07	-5.489426e-06	-9.104086e-09	-3.822545e+01	-5.979919e+02
4.500000e-07	-5.372941e-06	-9.033852e-09	-3.741431e+01	-5.926444e+02
4.600000e-07	-5.254323e-06	-8.953527e-09	-3.658832e+01	-5.871105e+02
4.700000e-07	-5.133764e-06	-8.854823e-09	-3.574881e+01	-5.813956e+02
4.800000e-07	-5.011497e-06	-8.762856e-09	-3.489741e+01	-5.755045e+02
4.900000e-07	-4.887417e-06	-8.677958e-09	-3.403338e+01	-5.694403e+02
5.000000e-07	-4.761563e-06	-8.579628e-09	-3.315700e+01	-5.632021e+02
5.100000e-07	-4.634037e-06	-8.478652e-09	-3.226898e+01	-5.567844e+02
5.200000e-07	-4.504758e-06	-8.373205e-09	-3.136875e+01	-5.501764e+02
5.300000e-07	-4.373783e-06	-8.274569e-09	-3.045671e+01	-5.433632e+02
5.400000e-07	-4.241224e-06	-8.163475e-09	-2.953364e+01	-5.363265e+02
5.500000e-07	-4.107104e-06	-8.049286e-09	-2.859970e+01	-5.290468e+02
5.600000e-07	-3.971329e-06	-7.932810e-09	-2.765423e+01	-5.215060e+02
5.700000e-07	-3.833976e-06	-7.814005e-09	-2.669777e+01	-5.136887e+02
5.800000e-07	-3.695203e-06	-7.685237e-09	-2.573143e+01	-5.055847e+02
5.900000e-07	-3.554830e-06	-7.553498e-09	-2.475395e+01	-4.971892e+02
6.000000e-07	-3.412944e-06	-7.424201e-09	-2.376594e+01	-4.885031e+02
6.100000e-07	-3.269825e-06	-7.289548e-09	-2.276933e+01	-4.795313e+02
6.200000e-07	-3.125518e-06	-7.148304e-09	-2.176445e+01	-4.702811e+02
6.300000e-07	-2.980044e-06	-6.999412e-09	-2.075145e+01	-4.607592e+02
6.400000e-07	-2.833385e-06	-6.851260e-09	-1.973019e+01	-4.509691e+02
6.500000e-07	-2.685730e-06	-6.697309e-09	-1.870200e+01	-4.409081e+02
6.600000e-07	-2.537207e-06	-6.538581e-09	-1.766777e+01	-4.305659e+02
6.700000e-07	-2.387830e-06	-6.373283e-09	-1.662758e+01	-4.199236e+02
6.800000e-07	-2.237661e-06	-6.203983e-09	-1.558189e+01	-4.089543e+02
6.900000e-07	-2.086676e-06	-6.029174e-09	-1.453050e+01	-3.976251e+02
7.000000e-07	-1.934912e-06	-5.846333e-09	-1.347370e+01	-3.859001e+02
7.100000e-07	-1.782549e-06	-5.659979e-09	-1.241272e+01	-3.737437e+02
7.200000e-07	-1.629648e-06	-5.467085e-09	-1.134801e+01	-3.611245e+02
7.300000e-07	-1.476169e-06	-5.270069e-09	-1.027926e+01	-3.480184e+02
7.400000e-07	-1.322199e-06	-5.063946e-09	-9.207096e+00	-3.344102e+02
7.500000e-07	-1.167849e-06	-4.850633e-09	-8.132285e+00	-3.202942e+02
7.600000e-07	-1.013106e-06	-4.631621e-09	-7.054735e+00	-3.056728e+02
7.700000e-07	-8.579843e-07	-4.403490e-09	-5.974548e+00	-2.905527e+02
7.800000e-07	-7.025568e-07	-4.164752e-09	-4.892233e+00	-2.749404e+02
7.900000e-07	-5.468969e-07	-3.918846e-09	-3.808300e+00	-2.588366e+02
8.000000e-07	-3.910504e-07	-3.667763e-09	-2.723068e+00	-2.422306e+02
8.100000e-07	-2.350588e-07	-3.407095e-09	-1.636825e+00	-2.250954e+02
8.200000e-07	-7.892625e-08	-3.134111e-09	-5.496006e-01	-2.073850e+02
8.300000e-07	7.731390e-08	-2.851434e-09	5.383730e-01	-1.890342e+02
8.400000e-07	2.335401e-07	-2.558168e-09	1.626249e+00	-1.699610e+02
8.500000e-07	3.896856e-07	-2.248293e-09	2.713564e+00	-1.500728e+02
8.600000e-07	5.456936e-07	-1.926126e-09	3.799921e+00	-1.292752e+02
8.700000e-07	7.015344e-07	-1.594700e-09	4.885114e+00	-1.074822e+02
8.800000e-07	8.571669e-07	-1.252546e-09	5.968856e+00	-8.462866e+01
8.900000e-07	1.012513e-06	-8.932714e-10	7.050602e+00	-6.068173e+01
9.000000e-07	1.167533e-06	-5.176640e-10	8.130084e+00	-3.565085e+01
9.100000e-07	1.322188e-06	-1.257355e-10	9.207014e+00	-9.595127e+00
9.200000e-07	1.476346e-06	2.852666e-10	1.028049e+01	1.737327e+01
9.300000e-07	1.629926e-06	7.090720e-10	1.134994e+01	4.509010e+01
9.400000e-07	1.782950e-06	1.142788e-09	1.241552e+01	7.334468e+01
9.500000e-07	1.935430e-06	1.580044e-09	1.347731e+01	1.018898e+02
9.600000e-07	2.087279e-06	2.018515e-09	1.453470e+01	1.304550e+02
9.700000e-07	2.238279e-06	2.451829e-09	1.558619e+01	1.587621e+02
9.800000e-07	2.388279e-06	2.874460e-09	1.663071e+01	1.865418e+02
9.900000e-07	2.537328e-06	3.285378e-09	1.766860e+01	2.135489e+02
1.000000e-06	2.685446e-06	3.678725e-09	1.870002e+01	2.395757e+02
1.010000e-06	2.832578e-06	4.051978e-09	1.972457e+01	2.644620e+02
1.020000e-06	2.978601e-06	4.405860e-09	2.074140e+01	2.881008e+02
1.030000e-06	3.123542e-06	4.741913e-09	2.175069e+01	3.104389e+02
1.040000e-06	3.267396e-06	5.060694e-09	2.275242e+01	3.314743e+02
1.050000e-06	3.410008e-06	5.360984e-09	2.374549e+01	3.512485e+02
1.060000e-06	3.551298e-06	5.644619e-09	2.472936e+01	3.698364e+02
1.070000e-06	3.691166e-06	5.913102e-09	2.570332e+01	3.873356e+02
1.080000e-06	3.829585e-06	6.167100e-09	2.666720e+01	4.038535e+02
1.090000e-06	3.966622e-06	6.407192e-09	2.762146e+01	4.194973e+02
1.100000e-06	4.102226e-06	6.633617e-09	2.856573e+01	4.343649e+02
1.110000e-06	4.236270e-06	6.846988e-09	2.949914e+01	4.485383e+02
1.120000e-06	4.368824e-06	7.051445e-09	3.042218e+01	4.620809e+02
1.130000e-06	4.499841e-06	7.249618e-09	3.133451e+01	4.750368e+02
1.140000e-06	4.629269e-06	7.438085e-09	3.223577e+01	4.874332e+02
1.150000e-06	4.757112e-06	7.614891e-09	3.312601e+01	4.992840e+02
1.160000e-06	4.883325e-06	7.782162e-09	3.400489e+01	5.105952e+02
1.170000e-06	5.007845e-06	7.943456e-09	3.487198e+01	5.213696e+02
1.180000e-06	5.130580e-06	8.098907e-09	3.572664e+01	5.316116e+02
1.190000e-06	5.251582e-06	8.248244e-09	3.656923e+01	5.413302e+02
1.200000e-06	5.370693e-06	8.390282e-09	3.739866e+01	5.505413e+02
1.210000e-06	5.487782e-06	8.523644e-09	3.821401e+01	5.592676e+02
1.220000e-06	5.602738e-06	8.649330e-09	3.901450e+01	5.675376e+02
1.230000e-06	5.715439e-06	8.770822e-09	3.979929e+01	5.753837e+02
1.240000e-06	5.826010e-06	8.886800e-09	4.056924e+01	5.828396e+02
1.250000e-06	5.934530e-06	8.994192e-09	4.132492e+01	5.899375e+02
1.260000e-06	6.040948e-06	9.095350e-09	4.206596e+01	5.967063e+02
1.270000e-06	6.145137e-06	9.193551e-09	4.279148e+01	6.031701e+02
1.280000e-06	6.247103e-06	9.287177e-09	4.350151e+01	6.093477e+02
1.290000e-06	6.346796e-06	9.375047e-09	4.419572e+01	6.152531e+02
1.300000e-06	6.444055e-06	9.458551e-09	4.487299e+01	6.208966e+02
1.310000e-06	6.538855e-06	9.537983e-09	4.553312e+01	6.262865e+02
1.320000e-06	6.631319e-06	9.614331e-09	4.617699e+01	6.314309e+02
1.330000e-06	6.721497e-06	9.689200e-09	4.680494e+01	6.363386e+02
1.340000e-06	6.809278e-06	9.761167e-09	4.741620e+01	6.410202e+02
1.350000e-06	6.894683e-06	9.828452e-09	4.801092e+01	6.454884e+02
1.360000e-06	6.977687e-06	9.893488e-09	4.858891e+01	6.497573e+02
1.370000e-06	7.058098e-06	9.957094e-09	4.914885e+01	6.538409e+02
1.380000e-06	7.135899e-06	1.001813e-08	4.969062e+01	6.577523e+02
1.390000e-06	7.211099e-06	1.007503e-08	5.021427e+01	6.615016e+02
1.400000e-06	7.283590e-06	1.012820e-08	5.071906e+01	6.650947e+02
1.410000e-06	7.353438e-06	1.017894e-08	5.120544e+01	6.685329e+02
1.420000e-06	7.420716e-06	1.022691e-08	5.167393e+01	6.718124e+02
1.430000e-06	7.485300e-06	1.027427e-08	5.212366e+01	6.749252e+02
1.440000e-06	7.547250e-06	1.031833e-08	5.255505e+01	6.778608e+02
1.450000e-06	7.606705e-06	1.035917e-08	5.296906e+01	6.806078e+02
1.460000e-06	7.663558e-06	1.039516e-08	5.336496e+01	6.831558e+02
1.470000e-06	7.717636e-06	1.042740e-08	5.374153e+01	6.854981e+02
1.480000e-06	7.768592e-06	1.045911e-08	5.409636e+01	6.876327e+02
1.490000e-06	7.816394e-06	1.048822e-08	5.442922e+01	6.895632e+02
1.500000e-06	7.861396e-06	1.051409e-08	5.474260e+01	6.912993e+02
1.510000e-06	7.903633e-06	1.053565e-08	5.503671e+01	6.928555e+02
1.520000e-06	7.942980e-06	1.055494e-08	5.531070e+01	6.942499e+02
1.530000e-06	7.979543e-06	1.057440e-08	5.556531e+01	6.955023e+02
1.540000e-06	8.013318e-06	1.059284e-08	5.580050e+01	6.966316e+02
1.550000e-06	8.044190e-06	1.060893e-08	5.601548e+01	6.976541e+02
1.560000e-06	8.072279e-06	1.062219e-08	5.621107e+01	6.985815e+02
1.570000e-06	8.097435e-06	1.063378e-08	5.638624e+01	6.994203e+02
1.580000e-06	8.119591e-06	1.064560e-08	5.654053e+01	7.001714e+02
1.590000e-06	8.138983e-06	1.065597e-08	5.667556e+01	7.008306e+02
1.600000e-06	8.155448e-06	1.066293e-08	5.679022e+01	7.013902e+02
1.610000e-06	8.168796e-06	1.066702e-08	5.688317e+01	7.018406e+02
1.620000e-06	8.178968e-06	1.067068e-08	5.695400e+01	7.021721e+02
1.630000e-06	8.186039e-06	1.067425e-08	5.700324e+01	7.023773e+02
1.640000e-06	8.190230e-06	1.067664e-08	5.703242e+01	7.024517e+02
1.650000e-06	8.191534e-06	1.067975e-08	5.704150e+01	7.023957e+02
1.660000e-06	8.190002e-06	1.067480e-08	5.703084e+01	7.022139e+02
1.670000e-06	8.185779e-06	1.066937e-08	5.700143e+01	7.019149e+02
1.680000e-06	8.178764e-06	1.066646e-08	5.695258e+01	7.015103e+02
1.690000e-06	8.168985e-06	1.065964e-08	5.688448e+01	7.010133e+02
1.700000e-06	8.156466e-06	1.065215e-08	5.679731e+01	7.004368e+02
1.710000e-06	8.141110e-06	1.064994e-08	5.669037e+01	6.997923e+02
1.720000e-06	8.123172e-06	1.065432e-08	5.656546e+01	6.990881e+02
1.730000e-06	8.102849e-06	1.063269e-08	5.642395e+01	6.983294e+02
1.740000e-06	8.079800e-06	1.053762e-08	5.626344e+01	6.975172e+02
1.750000e-06	8.053299e-06	1.055537e-08	5.607890e+01	6.966494e+02
1.760000e-06	8.022962e-06	1.057730e-08	5.586766e+01	6.957211e+02
1.770000e-06	7.989404e-06	1.054698e-08	5.563397e+01	6.947256e+02
1.780000e-06	7.953458e-06	1.055111e-08	5.538366e+01	6.936554e+02
1.790000e-06	7.915196e-06	1.061544e-08	5.511723e+01	6.925033e+02
1.800000e-06	7.874741e-06	1.050855e-08	5.483552e+01	6.912627e+02
1.810000e-06	7.832215e-06	1.042586e-08	5.453939e+01	6.899279e+02
1.820000e-06	7.786981e-06	1.056406e-08	5.422441e+01	6.884940e+02
1.830000e-06	7.738894e-06	1.042211e-08	5.388955e+01	6.869567e+02
1.840000e-06	7.687919e-06	1.047722e-08	5.353459e+01	6.853115e+02
1.850000e-06	7.633793e-06	1.045631e-08	5.315768e+01	6.835534e+02
1.860000e-06	7.576881e-06	1.036610e-08	5.276138e+01	6.816764e+02
1.870000e-06	7.517212e-06	1.041128e-08	5.234588e+01	6.796736e+02
1.880000e-06	7.454847e-06	1.025963e-08	5.191160e+01	6.775374e+02
1.890000e-06	7.389764e-06	1.032885e-08	5.145840e+01	6.752604e+02
1.900000e-06	7.321680e-06	1.026877e-08	5.098430e+01	6.728356e+02
1.910000e-06	7.250739e-06	1.019120e-08	5.049030e+01	6.702583e+02
1.920000e-06	7.176984e-06	1.018596e-08	4.997671e+01	6.675261e+02
1.930000e-06	7.100490e-06	1.011581e-08	4.944405e+01	6.646398e+02
1.940000e-06	7.021248e-06	1.011861e-08	4.889225e+01	6.616037e+02
1.950000e-06	6.939347e-06	9.992834e-09	4.832193e+01	6.584250e+02
1.960000e-06	6.854896e-06	1.000395e-08	4.773386e+01	6.551128e+02
1.970000e-06	6.767794e-06	9.958636e-09	4.712733e+01	6.516773e+02
1.980000e-06	6.678197e-06	9.871404e-09	4.650343e+01	6.481278e+02
1.990000e-06	6.586248e-06	9.840468e-09	4.586314e+01	6.444712e+02
2.000000e-06	6.492046e-06	9.778354e-09	4.520717e+01	6.407112e+02
2.010000e-06	6.395567e-06	9.733677e-09	4.453534e+01	6.368469e+02
2.020000e-06	6.296786e-06	9.624282e-09	4.384748e+01	6.328726e+02
2.030000e-06	6.195692e-06	9.590219e-09	4.314351e+01	6.287786e+02
2.040000e-06	6.092364e-06	9.531739e-09	4.242399e+01	6.245521e+02
2.050000e-06	5.986912e-06	9.478330e-09	4.168968e+01	6.201782e+02
2.060000e-06	5.879354e-06	9.397389e-09	4.094070e+01	6.156427e+02
2.070000e-06	5.769800e-06	9.323342e-09	4.017783e+01	6.109327e+02
2.080000e-06	5.658224e-06	9.253529e-09	3.940087e+01	6.060389e+02
2.090000e-06	5.544489e-06	9.158990e-09	3.860888e+01	6.009559e+02
2.100000e-06	5.428552e-06	9.085405e-09	3.780156e+01	5.956824e+02
2.110000e-06	5.310623e-06	9.010117e-09	3.698037e+01	5.902210e+02
2.120000e-06	5.190718e-06	8.938337e-09	3.614541e+01	5.845764e+02
2.130000e-06	5.068913e-06	8.836501e-09	3.529722e+01	5.787539e+02
2.140000e-06	4.945277e-06	8.750842e-09	3.443628e+01	5.727574e+02
2.150000e-06	4.819774e-06	8.658967e-09	3.356235e+01	5.665878e+02
2.160000e-06	4.692624e-06	8.567862e-09	3.267694e+01	5.602414e+02
2.170000e-06	4.563787e-06	8.458808e-09	3.177979e+01	5.537096e+02
2.180000e-06	4.433211e-06	8.354359e-09	3.087053e+01	5.469789e+02
2.190000e-06	4.300937e-06	8.251132e-09	2.994944e+01	5.400322e+02
2.200000e-06	4.167099e-06	8.142000e-09	2.901747e+01	5.328501e+02
2.210000e-06	4.031821e-06	8.028110e-09	2.807546e+01	5.254137e+02
2.220000e-06	3.894927e-06	7.912213e-09	2.712220e+01	5.177064e+02
2.230000e-06	3.756363e-06	7.796022e-09	2.615732e+01	5.097158e+02
2.240000e-06	3.616365e-06	7.668913e-09	2.518245e+01	5.014349e+02
2.250000e-06	3.475078e-06	7.541645e-09	2.419860e+01	4.928623e+02
2.260000e-06	3.332554e-06	7.410135e-09	2.320614e+01	4.840018e+02
2.270000e-06	3.188778e-06	7.274157e-09	2.220496e+01	4.748599e+02
2.280000e-06	3.043755e-06	7.126988e-09	2.119509e+01	4.654440e+02
2.290000e-06	2.897573e-06	6.978389e-09	2.017717e+01	4.557590e+02
2.300000e-06	2.750347e-06	6.828597e-09	1.915196e+01	4.458051e+02
2.310000e-06	2.602136e-06	6.676862e-09	1.811989e+01	4.355750e+02
2.320000e-06	2.453012e-06	6.519999e-09	1.708147e+01	4.250532e+02
2.330000e-06	2.303066e-06	6.355586e-09	1.603733e+01	4.142158e+02
2.340000e-06	2.152353e-06	6.183298e-09	1.498785e+01	4.030321e+02
2.350000e-06	2.000961e-06	6.004702e-09	1.393363e+01	3.914668e+02
2.360000e-06	1.848954e-06	5.819453e-09	1.287514e+01	3.794837e+02
2.370000e-06	1.696380e-06	5.627787e-09	1.181269e+01	3.670495e+02
2.380000e-06	1.543223e-06	5.429525e-09	1.074619e+01	3.541369e+02
2.390000e-06	1.389486e-06	5.226472e-09	9.675640e+00	3.407269e+02
2.400000e-06	1.235224e-06	5.016167e-09	8.601444e+00	3.268104e+02
2.410000e-06	1.080513e-06	4.795640e-09	7.524121e+00	3.123867e+02
2.420000e-06	9.254511e-07	4.569664e-09	6.444351e+00	2.974615e+02
2.430000e-06	7.700786e-07	4.338583e-09	5.362419e+00	2.820418e+02
2.440000e-06	6.144589e-07	4.097861e-09	4.278766e+00	2.661315e+02
2.450000e-06	4.585976e-07	3.847170e-09	3.193430e+00	2.497249e+02
2.460000e-06	3.025284e-07	3.589699e-09	2.106648e+00	2.328019e+02
2.470000e-06	1.463147e-07	3.320686e-09	1.018858e+00	2.153240e+02
2.480000e-06	-1.002101e-08	3.037949e-09	-6.978103e-02	1.972336e+02
2.490000e-06	-1.663526e-07	2.746301e-09	-1.158392e+00	1.784546e+02
2.500000e-06	-3.226400e-07	2.447680e-09	-2.246694e+00	1.588978e+02
2.510000e-06	-4.787976e-07	2.136209e-09	-3.334093e+00	1.384683e+02
2.520000e-06	-6.347215e-07	1.809173e-09	-4.419864e+00	1.170754e+02
2.530000e-06	-7.904422e-07	1.470015e-09	-5.504221e+00	9.464429e+01
2.540000e-06	-9.459766e-07	1.116453e-09	-6.587279e+00	7.112817e+01
2.550000e-06	-1.101221e-06	7.461490e-10	-7.668320e+00	4.651880e+01
2.560000e-06	-1.256059e-06	3.584482e-10	-8.746527e+00	2.085512e+01
2.570000e-06	-1.410414e-06	-4.663781e-11	-9.821377e+00	-5.771669e+00
2.580000e-06	-1.564199e-06	-4.672338e-10	-1.089225e+01	-3.321736e+01
2.590000e-06	-1.717357e-06	-8.997113e-10	-1.195876e+01	-6.128856e+01
2.600000e-06	-1.869861e-06	-1.338863e-09	-1.302072e+01	-8.975099e+01
2.610000e-06	-2.021629e-06	-1.780949e-09	-1.407756e+01	-1.183415e+02
2.620000e-06	-2.172566e-06	-2.223424e-09	-1.512860e+01	-1.467832e+02
2.630000e-06	-2.322717e-06	-2.657255e-09	-1.617417e+01	-1.748012e+02
2.640000e-06	-2.472150e-06	-3.073947e-09	-1.721474e+01	-2.021390e+02
2.650000e-06	-2.620739e-06	-3.475326e-09	-1.824943e+01	-2.285730e+02
2.660000e-06	-2.768274e-06	-3.861823e-09	-1.927679e+01	-2.539233e+02
2.670000e-06	-2.914662e-06	-4.230162e-09	-2.029616e+01	-2.780616e+02
2.680000e-06	-3.059951e-06	-4.577107e-09	-2.130787e+01	-3.009138e+02
2.690000e-06	-3.204072e-06	-4.902526e-09	-2.231146e+01	-3.224585e+02
2.700000e-06	-3.346886e-06	-5.209031e-09	-2.330594e+01	-3.427209e+02
2.710000e-06	-3.488484e-06	-5.499510e-09	-2.429195e+01	-3.617644e+02
2.720000e-06	-3.628841e-06	-5.775834e-09	-2.526933e+01	-3.796789e+02
2.730000e-06	-3.767729e-06	-6.038767e-09	-2.623647e+01	-3.965694e+02
2.740000e-06	-3.905167e-06	-6.287103e-09	-2.719351e+01	-4.125445e+02
2.750000e-06	-4.041191e-06	-6.520995e-09	-2.814071e+01	-4.277064e+02
2.760000e-06	-4.175774e-06	-6.745141e-09	-2.907787e+01	-4.421441e+02
2.770000e-06	-4.309004e-06	-6.960461e-09	-3.000562e+01	-4.559283e+02
2.780000e-06	-4.440701e-06	-7.164617e-09	-3.092269e+01	-4.691108e+02
2.790000e-06	-4.570803e-06	-7.357603e-09	-3.182865e+01	-4.817248e+02
2.800000e-06	-4.699346e-06	-7.539917e-09	-3.272376e+01	-4.937891e+02
2.810000e-06	-4.826211e-06	-7.712323e-09	-3.360717e+01	-5.053120e+02
2.820000e-06	-4.951465e-06	-7.876624e-09	-3.447938e+01	-5.162971e+02
2.830000e-06	-5.075034e-06	-8.033592e-09	-3.533984e+01	-5.267476e+02
2.840000e-06	-5.196757e-06	-8.184054e-09	-3.618746e+01	-5.366705e+02
2.850000e-06	-5.316550e-06	-8.328543e-09	-3.702164e+01	-5.460789e+02
2.860000e-06	-5.434264e-06	-8.465438e-09	-3.784134e+01	-5.549927e+02
2.870000e-06	-5.549719e-06	-8.595748e-09	-3.864530e+01	-5.634384e+02
2.880000e-06	-5.662892e-06	-8.721264e-09	-3.943338e+01	-5.714472e+02
2.890000e-06	-5.773897e-06	-8.840355e-09	-4.020636e+01	-5.790525e+02
2.900000e-06	-5.882829e-06	-8.953886e-09	-4.096490e+01	-5.862875e+02
2.910000e-06	-5.989751e-06	-9.062371e-09	-4.170945e+01	-5.931826e+02
2.920000e-06	-6.094548e-06	-9.163395e-09	-4.243920e+01	-5.997639e+02
2.930000e-06	-6.197062e-06	-9.258835e-09	-4.315306e+01	-6.060522e+02
2.940000e-06	-6.297255e-06	-9.350917e-09	-4.385075e+01	-6.120632e+02
