# Temperatura_=_64.16
# Concentracion g/m^3_=_15000.0
# C_Vs_to_Am_M_A/Vsm_=_65563218390.804596
# pendiente_HvsI_1/m_=_3716.3
# ordenada_HvsI_A/m_=_1297.0
# frecuencia_Hz_=_302340.4849882414

Tiempo_(s)	Campo_(V.s)	Magnetizacion_(V.s)	Campo_(kA/m)	Magnetizacion_(A/m)
0.000000e+00	-8.161489e-06	-1.185146e-08	-5.690365e+01	-7.744447e+02
1.000000e-08	-8.156683e-06	-1.184897e-08	-5.687014e+01	-7.739939e+02
2.000000e-08	-8.149348e-06	-1.184048e-08	-5.681901e+01	-7.734136e+02
3.000000e-08	-8.139165e-06	-1.183085e-08	-5.674800e+01	-7.727183e+02
4.000000e-08	-8.126008e-06	-1.181723e-08	-5.665627e+01	-7.719220e+02
5.000000e-08	-8.109896e-06	-1.179895e-08	-5.654394e+01	-7.710371e+02
6.000000e-08	-8.091172e-06	-1.177900e-08	-5.641339e+01	-7.700726e+02
7.000000e-08	-8.070192e-06	-1.175126e-08	-5.626711e+01	-7.690341e+02
8.000000e-08	-8.046536e-06	-1.176001e-08	-5.610218e+01	-7.679233e+02
9.000000e-08	-8.019682e-06	-1.178600e-08	-5.591495e+01	-7.667390e+02
1.000000e-07	-7.989591e-06	-1.173534e-08	-5.570514e+01	-7.654773e+02
1.100000e-07	-7.956480e-06	-1.168815e-08	-5.547429e+01	-7.641329e+02
1.200000e-07	-7.920511e-06	-1.166750e-08	-5.522350e+01	-7.627002e+02
1.300000e-07	-7.882031e-06	-1.164226e-08	-5.495521e+01	-7.611733e+02
1.400000e-07	-7.841235e-06	-1.158926e-08	-5.467078e+01	-7.595470e+02
1.500000e-07	-7.798042e-06	-1.154743e-08	-5.436962e+01	-7.578163e+02
1.600000e-07	-7.752221e-06	-1.158810e-08	-5.405015e+01	-7.559764e+02
1.700000e-07	-7.703572e-06	-1.147238e-08	-5.371095e+01	-7.540219e+02
1.800000e-07	-7.651998e-06	-1.146170e-08	-5.335137e+01	-7.519460e+02
1.900000e-07	-7.597430e-06	-1.149034e-08	-5.297091e+01	-7.497407e+02
2.000000e-07	-7.539999e-06	-1.138858e-08	-5.257049e+01	-7.473962e+02
2.100000e-07	-7.479931e-06	-1.138425e-08	-5.215168e+01	-7.449015e+02
2.200000e-07	-7.417293e-06	-1.131288e-08	-5.171496e+01	-7.422450e+02
2.300000e-07	-7.351890e-06	-1.126904e-08	-5.125895e+01	-7.394156e+02
2.400000e-07	-7.283561e-06	-1.121907e-08	-5.078255e+01	-7.364043e+02
2.500000e-07	-7.212415e-06	-1.116836e-08	-5.028651e+01	-7.332049e+02
2.600000e-07	-7.138478e-06	-1.112869e-08	-4.977100e+01	-7.298154e+02
2.700000e-07	-7.061671e-06	-1.106383e-08	-4.923548e+01	-7.262384e+02
2.800000e-07	-6.982029e-06	-1.100999e-08	-4.868020e+01	-7.224809e+02
2.900000e-07	-6.899776e-06	-1.093086e-08	-4.810672e+01	-7.185535e+02
3.000000e-07	-6.815169e-06	-1.089937e-08	-4.751682e+01	-7.144691e+02
3.100000e-07	-6.728174e-06	-1.083749e-08	-4.691027e+01	-7.102410e+02
3.200000e-07	-6.638756e-06	-1.074006e-08	-4.628683e+01	-7.058812e+02
3.300000e-07	-6.546943e-06	-1.069091e-08	-4.564669e+01	-7.013980e+02
3.400000e-07	-6.452727e-06	-1.063141e-08	-4.498979e+01	-6.967951e+02
3.500000e-07	-6.356189e-06	-1.055395e-08	-4.431671e+01	-6.920705e+02
3.600000e-07	-6.257332e-06	-1.046821e-08	-4.362746e+01	-6.872166e+02
3.700000e-07	-6.156207e-06	-1.040326e-08	-4.292240e+01	-6.822211e+02
3.800000e-07	-6.052827e-06	-1.032152e-08	-4.220161e+01	-6.770687e+02
3.900000e-07	-5.947226e-06	-1.021958e-08	-4.146533e+01	-6.717427e+02
4.000000e-07	-5.839592e-06	-1.013870e-08	-4.071489e+01	-6.662275e+02
4.100000e-07	-5.729947e-06	-1.006006e-08	-3.995042e+01	-6.605107e+02
4.200000e-07	-5.618135e-06	-9.971421e-09	-3.917085e+01	-6.545842e+02
4.300000e-07	-5.504173e-06	-9.861051e-09	-3.837628e+01	-6.484452e+02
4.400000e-07	-5.388113e-06	-9.770267e-09	-3.756708e+01	-6.420958e+02
4.500000e-07	-5.269960e-06	-9.686189e-09	-3.674329e+01	-6.355419e+02
4.600000e-07	-5.149921e-06	-9.584587e-09	-3.590636e+01	-6.287916e+02
4.700000e-07	-5.028202e-06	-9.471006e-09	-3.505771e+01	-6.218525e+02
4.800000e-07	-4.904671e-06	-9.363886e-09	-3.419642e+01	-6.147299e+02
4.900000e-07	-4.779294e-06	-9.252941e-09	-3.332226e+01	-6.074243e+02
5.000000e-07	-4.652207e-06	-9.127233e-09	-3.243619e+01	-5.999305e+02
5.100000e-07	-4.523466e-06	-9.009838e-09	-3.153857e+01	-5.922371e+02
5.200000e-07	-4.393036e-06	-8.892301e-09	-3.062919e+01	-5.843272e+02
5.300000e-07	-4.260902e-06	-8.764909e-09	-2.970792e+01	-5.761801e+02
5.400000e-07	-4.127257e-06	-8.629352e-09	-2.877612e+01	-5.677734e+02
5.500000e-07	-3.992093e-06	-8.499046e-09	-2.783373e+01	-5.590862e+02
5.600000e-07	-3.855355e-06	-8.367523e-09	-2.688037e+01	-5.501008e+02
5.700000e-07	-3.717094e-06	-8.222467e-09	-2.591638e+01	-5.408059e+02
5.800000e-07	-3.577269e-06	-8.072021e-09	-2.494149e+01	-5.311964e+02
5.900000e-07	-3.435902e-06	-7.920670e-09	-2.395584e+01	-5.212744e+02
6.000000e-07	-3.293146e-06	-7.766821e-09	-2.296052e+01	-5.110471e+02
6.100000e-07	-3.149137e-06	-7.606501e-09	-2.195646e+01	-5.005249e+02
6.200000e-07	-3.003972e-06	-7.441769e-09	-2.094433e+01	-4.897181e+02
6.300000e-07	-2.857707e-06	-7.270840e-09	-1.992454e+01	-4.786338e+02
6.400000e-07	-2.710392e-06	-7.094890e-09	-1.889743e+01	-4.672726e+02
6.500000e-07	-2.562253e-06	-6.916624e-09	-1.786458e+01	-4.556268e+02
6.600000e-07	-2.413337e-06	-6.734943e-09	-1.682630e+01	-4.436790e+02
6.700000e-07	-2.263505e-06	-6.546747e-09	-1.578164e+01	-4.314034e+02
6.800000e-07	-2.112898e-06	-6.348945e-09	-1.473158e+01	-4.187671e+02
6.900000e-07	-1.961597e-06	-6.146145e-09	-1.367667e+01	-4.057337e+02
7.000000e-07	-1.809607e-06	-5.939775e-09	-1.261697e+01	-3.922667e+02
7.100000e-07	-1.657005e-06	-5.729399e-09	-1.155299e+01	-3.783341e+02
7.200000e-07	-1.503868e-06	-5.510199e-09	-1.048529e+01	-3.639109e+02
7.300000e-07	-1.350233e-06	-5.282654e-09	-9.414116e+00	-3.489814e+02
7.400000e-07	-1.196087e-06	-5.048038e-09	-8.339374e+00	-3.335390e+02
7.500000e-07	-1.041499e-06	-4.807719e-09	-7.261555e+00	-3.175847e+02
7.600000e-07	-8.865306e-07	-4.560780e-09	-6.181082e+00	-3.011226e+02
7.700000e-07	-7.312559e-07	-4.302312e-09	-5.098473e+00	-2.841550e+02
7.800000e-07	-5.757824e-07	-4.034555e-09	-4.014479e+00	-2.666760e+02
7.900000e-07	-4.201131e-07	-3.758543e-09	-2.929119e+00	-2.486659e+02
8.000000e-07	-2.642578e-07	-3.475905e-09	-1.842462e+00	-2.300859e+02
8.100000e-07	-1.082814e-07	-3.181005e-09	-7.549611e-01	-2.108764e+02
8.200000e-07	4.776999e-08	-2.873706e-09	3.330626e-01	-1.909566e+02
8.300000e-07	2.038294e-07	-2.552714e-09	1.421143e+00	-1.702295e+02
8.400000e-07	3.598138e-07	-2.216204e-09	2.508699e+00	-1.485882e+02
8.500000e-07	5.157300e-07	-1.867787e-09	3.595780e+00	-1.259273e+02
8.600000e-07	6.715493e-07	-1.508347e-09	4.682186e+00	-1.021547e+02
8.700000e-07	8.271771e-07	-1.133653e-09	5.767256e+00	-7.720503e+01
8.800000e-07	9.825383e-07	-7.388764e-10	6.850468e+00	-5.105279e+01
8.900000e-07	1.137628e-06	-3.294104e-10	7.931789e+00	-2.372242e+01
9.000000e-07	1.292347e-06	9.706628e-11	9.010521e+00	4.704433e+00
9.100000e-07	1.446512e-06	5.418159e-10	1.008539e+01	3.408651e+01
9.200000e-07	1.600051e-06	1.002226e-09	1.115590e+01	6.422559e+01
9.300000e-07	1.752919e-06	1.473951e-09	1.222173e+01	9.487437e+01
9.400000e-07	1.905176e-06	1.951501e-09	1.328330e+01	1.257489e+02
9.500000e-07	2.056791e-06	2.428227e-09	1.434039e+01	1.565447e+02
9.600000e-07	2.207712e-06	2.894333e-09	1.539264e+01	1.869547e+02
9.700000e-07	2.357847e-06	3.345079e-09	1.643941e+01	2.166877e+02
9.800000e-07	2.506971e-06	3.778879e-09	1.747914e+01	2.454854e+02
9.900000e-07	2.655107e-06	4.194411e-09	1.851197e+01	2.731362e+02
1.000000e-06	2.802282e-06	4.590273e-09	1.953811e+01	2.994852e+02
1.010000e-06	2.948369e-06	4.964700e-09	2.055666e+01	3.244381e+02
1.020000e-06	3.093361e-06	5.319079e-09	2.156758e+01	3.479615e+02
1.030000e-06	3.237252e-06	5.652915e-09	2.257082e+01	3.700765e+02
1.040000e-06	3.379888e-06	5.967257e-09	2.356531e+01	3.908495e+02
1.050000e-06	3.521187e-06	6.266620e-09	2.455047e+01	4.103801e+02
1.060000e-06	3.661174e-06	6.548921e-09	2.552649e+01	4.287872e+02
1.070000e-06	3.799751e-06	6.813299e-09	2.649268e+01	4.461959e+02
1.080000e-06	3.936877e-06	7.066242e-09	2.744875e+01	4.627257e+02
1.090000e-06	4.072523e-06	7.309471e-09	2.839450e+01	4.784815e+02
1.100000e-06	4.206649e-06	7.541826e-09	2.932966e+01	4.935479e+02
1.110000e-06	4.339321e-06	7.759870e-09	3.025467e+01	5.079870e+02
1.120000e-06	4.470461e-06	7.966613e-09	3.116901e+01	5.218393e+02
1.130000e-06	4.600008e-06	8.165415e-09	3.207224e+01	5.351275e+02
1.140000e-06	4.727989e-06	8.353723e-09	3.296456e+01	5.478615e+02
1.150000e-06	4.854286e-06	8.534756e-09	3.384512e+01	5.600449e+02
1.160000e-06	4.978902e-06	8.708840e-09	3.471397e+01	5.716802e+02
1.170000e-06	5.101863e-06	8.877171e-09	3.557128e+01	5.827737e+02
1.180000e-06	5.223016e-06	9.037691e-09	3.641599e+01	5.933384e+02
1.190000e-06	5.342242e-06	9.191175e-09	3.724726e+01	6.033951e+02
1.200000e-06	5.459473e-06	9.337864e-09	3.806462e+01	6.129718e+02
1.210000e-06	5.574612e-06	9.478482e-09	3.886739e+01	6.221011e+02
1.220000e-06	5.687616e-06	9.612786e-09	3.965528e+01	6.308174e+02
1.230000e-06	5.798517e-06	9.741051e-09	4.042850e+01	6.391540e+02
1.240000e-06	5.907292e-06	9.863980e-09	4.118691e+01	6.471392e+02
1.250000e-06	6.013920e-06	9.980733e-09	4.193034e+01	6.547952e+02
1.260000e-06	6.118380e-06	1.009489e-08	4.265866e+01	6.621369e+02
1.270000e-06	6.220628e-06	1.020339e-08	4.337156e+01	6.691724e+02
1.280000e-06	6.320586e-06	1.030348e-08	4.406848e+01	6.759046e+02
1.290000e-06	6.418140e-06	1.039694e-08	4.474865e+01	6.823340e+02
1.300000e-06	6.513270e-06	1.048774e-08	4.541192e+01	6.884609e+02
1.310000e-06	6.606079e-06	1.057537e-08	4.605900e+01	6.942884e+02
1.320000e-06	6.696592e-06	1.065561e-08	4.669008e+01	6.998243e+02
1.330000e-06	6.784677e-06	1.073204e-08	4.730422e+01	7.050821e+02
1.340000e-06	6.870420e-06	1.080721e-08	4.790204e+01	7.100805e+02
1.350000e-06	6.953797e-06	1.088173e-08	4.848337e+01	7.148425e+02
1.360000e-06	7.034595e-06	1.095494e-08	4.904671e+01	7.193930e+02
1.370000e-06	7.112847e-06	1.102459e-08	4.959229e+01	7.237560e+02
1.380000e-06	7.188473e-06	1.108908e-08	5.011958e+01	7.279520e+02
1.390000e-06	7.261353e-06	1.114883e-08	5.062771e+01	7.319956e+02
1.400000e-06	7.331655e-06	1.120536e-08	5.111787e+01	7.358938e+02
1.410000e-06	7.399386e-06	1.126115e-08	5.159011e+01	7.396457e+02
1.420000e-06	7.464357e-06	1.131522e-08	5.204310e+01	7.432427e+02
1.430000e-06	7.526673e-06	1.136401e-08	5.247758e+01	7.466709e+02
1.440000e-06	7.586472e-06	1.141119e-08	5.289451e+01	7.499130e+02
1.450000e-06	7.643719e-06	1.145715e-08	5.329365e+01	7.529515e+02
1.460000e-06	7.698245e-06	1.149945e-08	5.367382e+01	7.557719e+02
1.470000e-06	7.749756e-06	1.153805e-08	5.403296e+01	7.583644e+02
1.480000e-06	7.798107e-06	1.157485e-08	5.437007e+01	7.607261e+02
1.490000e-06	7.843503e-06	1.160674e-08	5.468659e+01	7.628618e+02
1.500000e-06	7.886186e-06	1.163391e-08	5.498418e+01	7.647827e+02
1.510000e-06	7.926039e-06	1.165853e-08	5.526205e+01	7.665057e+02
1.520000e-06	7.963062e-06	1.168338e-08	5.552017e+01	7.680507e+02
1.530000e-06	7.997340e-06	1.170778e-08	5.575917e+01	7.694383e+02
1.540000e-06	8.028762e-06	1.172755e-08	5.597825e+01	7.706868e+02
1.550000e-06	8.057339e-06	1.174387e-08	5.617749e+01	7.718105e+02
1.560000e-06	8.082951e-06	1.175946e-08	5.635607e+01	7.728180e+02
1.570000e-06	8.105565e-06	1.177519e-08	5.651374e+01	7.737120e+02
1.580000e-06	8.125422e-06	1.178740e-08	5.665218e+01	7.744891e+02
1.590000e-06	8.142398e-06	1.179384e-08	5.677055e+01	7.751418e+02
1.600000e-06	8.156338e-06	1.179667e-08	5.686774e+01	7.756599e+02
1.610000e-06	8.167132e-06	1.180001e-08	5.694300e+01	7.760330e+02
1.620000e-06	8.174748e-06	1.180380e-08	5.699610e+01	7.762522e+02
1.630000e-06	8.179448e-06	1.180712e-08	5.702887e+01	7.763123e+02
1.640000e-06	8.181260e-06	1.180917e-08	5.704150e+01	7.762127e+02
1.650000e-06	8.180219e-06	1.180986e-08	5.703425e+01	7.759575e+02
1.660000e-06	8.176547e-06	1.179930e-08	5.700864e+01	7.755557e+02
1.670000e-06	8.170087e-06	1.179240e-08	5.696360e+01	7.750194e+02
1.680000e-06	8.160803e-06	1.178409e-08	5.689887e+01	7.743629e+02
1.690000e-06	8.148765e-06	1.177133e-08	5.681494e+01	7.736006e+02
1.700000e-06	8.133868e-06	1.176016e-08	5.671108e+01	7.727456e+02
1.710000e-06	8.116384e-06	1.175294e-08	5.658917e+01	7.718081e+02
1.720000e-06	8.096577e-06	1.175254e-08	5.645107e+01	7.707950e+02
1.730000e-06	8.074144e-06	1.168670e-08	5.629466e+01	7.697095e+02
1.740000e-06	8.048368e-06	1.164192e-08	5.611495e+01	7.685512e+02
1.750000e-06	8.018719e-06	1.166933e-08	5.590823e+01	7.673171e+02
1.760000e-06	7.985652e-06	1.165308e-08	5.567768e+01	7.660023e+02
1.770000e-06	7.950185e-06	1.161952e-08	5.543039e+01	7.646013e+02
1.780000e-06	7.912376e-06	1.163396e-08	5.516678e+01	7.631081e+02
1.790000e-06	7.872257e-06	1.164189e-08	5.488706e+01	7.615172e+02
1.800000e-06	7.830198e-06	1.149763e-08	5.459382e+01	7.598238e+02
1.810000e-06	7.785630e-06	1.154865e-08	5.428308e+01	7.580230e+02
1.820000e-06	7.738210e-06	1.155493e-08	5.395246e+01	7.561095e+02
1.830000e-06	7.687991e-06	1.145834e-08	5.360232e+01	7.540772e+02
1.840000e-06	7.634646e-06	1.151358e-08	5.323039e+01	7.519186e+02
1.850000e-06	7.578387e-06	1.138200e-08	5.283814e+01	7.496245e+02
1.860000e-06	7.519388e-06	1.140287e-08	5.242679e+01	7.471842e+02
1.870000e-06	7.457606e-06	1.136877e-08	5.199603e+01	7.445862e+02
1.880000e-06	7.393102e-06	1.129616e-08	5.154630e+01	7.418192e+02
1.890000e-06	7.325670e-06	1.132094e-08	5.107614e+01	7.388731e+02
1.900000e-06	7.255299e-06	1.119712e-08	5.058550e+01	7.357408e+02
1.910000e-06	7.182070e-06	1.116811e-08	5.007494e+01	7.324185e+02
1.920000e-06	7.106081e-06	1.108456e-08	4.954512e+01	7.289074e+02
1.930000e-06	7.027341e-06	1.107078e-08	4.899613e+01	7.252127e+02
1.940000e-06	6.945994e-06	1.102449e-08	4.842896e+01	7.213440e+02
1.950000e-06	6.862199e-06	1.092382e-08	4.784472e+01	7.173135e+02
1.960000e-06	6.775745e-06	1.092176e-08	4.724195e+01	7.131347e+02
1.970000e-06	6.686708e-06	1.080990e-08	4.662116e+01	7.088202e+02
1.980000e-06	6.595303e-06	1.074903e-08	4.598386e+01	7.043799e+02
1.990000e-06	6.501628e-06	1.067312e-08	4.533074e+01	6.998190e+02
2.000000e-06	6.405656e-06	1.062571e-08	4.466161e+01	6.951379e+02
2.010000e-06	6.307405e-06	1.053978e-08	4.397658e+01	6.903308e+02
2.020000e-06	6.206913e-06	1.044450e-08	4.327593e+01	6.853870e+02
2.030000e-06	6.104062e-06	1.039074e-08	4.255883e+01	6.802919e+02
2.040000e-06	5.999021e-06	1.030571e-08	4.182646e+01	6.750292e+02
2.050000e-06	5.891959e-06	1.022761e-08	4.108000e+01	6.695826e+02
2.060000e-06	5.782986e-06	1.011766e-08	4.032022e+01	6.639385e+02
2.070000e-06	5.672062e-06	1.004949e-08	3.954683e+01	6.580869e+02
2.080000e-06	5.558993e-06	9.953602e-09	3.875849e+01	6.520232e+02
2.090000e-06	5.443678e-06	9.857059e-09	3.795449e+01	6.457479e+02
2.100000e-06	5.326259e-06	9.763101e-09	3.713582e+01	6.392656e+02
2.110000e-06	5.206869e-06	9.673564e-09	3.630341e+01	6.325839e+02
2.120000e-06	5.085575e-06	9.556576e-09	3.545772e+01	6.257109e+02
2.130000e-06	4.962435e-06	9.438328e-09	3.459917e+01	6.186529e+02
2.140000e-06	4.837422e-06	9.342808e-09	3.372754e+01	6.114123e+02
2.150000e-06	4.710705e-06	9.236560e-09	3.284405e+01	6.039862e+02
2.160000e-06	4.582300e-06	9.122317e-09	3.194878e+01	5.963652e+02
2.170000e-06	4.452213e-06	8.992996e-09	3.104178e+01	5.885343e+02
2.180000e-06	4.320422e-06	8.872446e-09	3.012291e+01	5.804738e+02
2.190000e-06	4.187016e-06	8.737323e-09	2.919277e+01	5.721618e+02
2.200000e-06	4.052134e-06	8.604943e-09	2.825235e+01	5.635765e+02
2.210000e-06	3.915674e-06	8.475204e-09	2.730092e+01	5.546987e+02
2.220000e-06	3.777584e-06	8.344531e-09	2.633812e+01	5.455146e+02
2.230000e-06	3.638045e-06	8.194349e-09	2.536523e+01	5.360170e+02
2.240000e-06	3.497192e-06	8.042110e-09	2.438317e+01	5.262055e+02
2.250000e-06	3.355080e-06	7.894226e-09	2.339234e+01	5.160855e+02
2.260000e-06	3.211693e-06	7.741422e-09	2.239261e+01	5.056668e+02
2.270000e-06	3.067046e-06	7.580151e-09	2.138411e+01	4.949601e+02
2.280000e-06	2.921233e-06	7.410520e-09	2.036746e+01	4.839739e+02
2.290000e-06	2.774285e-06	7.240839e-09	1.934291e+01	4.727114e+02
2.300000e-06	2.626379e-06	7.065161e-09	1.831168e+01	4.611681e+02
2.310000e-06	2.477648e-06	6.886722e-09	1.727469e+01	4.493302e+02
2.320000e-06	2.328088e-06	6.701768e-09	1.623193e+01	4.371746e+02
2.330000e-06	2.177713e-06	6.506899e-09	1.518348e+01	4.246706e+02
2.340000e-06	2.026647e-06	6.305049e-09	1.413022e+01	4.117827e+02
2.350000e-06	1.874908e-06	6.102132e-09	1.307226e+01	3.984739e+02
2.360000e-06	1.722558e-06	5.894491e-09	1.201004e+01	3.847104e+02
2.370000e-06	1.569702e-06	5.676370e-09	1.094430e+01	3.704641e+02
2.380000e-06	1.416337e-06	5.450552e-09	9.875006e+00	3.557160e+02
2.390000e-06	1.262397e-06	5.218477e-09	8.801706e+00	3.404565e+02
2.400000e-06	1.107940e-06	4.978917e-09	7.724794e+00	3.246840e+02
2.410000e-06	9.530869e-07	4.734526e-09	6.645126e+00	3.084022e+02
2.420000e-06	7.979091e-07	4.485465e-09	5.563193e+00	2.916147e+02
2.430000e-06	6.424671e-07	4.225735e-09	4.479419e+00	2.743192e+02
2.440000e-06	4.868354e-07	3.953586e-09	3.394321e+00	2.565016e+02
2.450000e-06	3.310557e-07	3.671744e-09	2.308191e+00	2.381303e+02
2.460000e-06	1.751087e-07	3.380409e-09	1.220895e+00	2.191533e+02
2.470000e-06	1.908503e-08	3.076948e-09	1.330649e-01	1.994970e+02
2.480000e-06	-1.369718e-07	2.757556e-09	-9.549966e-01	1.790696e+02
2.490000e-06	-2.929812e-07	2.425338e-09	-2.042728e+00	1.577667e+02
2.500000e-06	-4.489111e-07	2.080931e-09	-3.129904e+00	1.354809e+02
2.510000e-06	-6.047586e-07	1.724819e-09	-4.216507e+00	1.121139e+02
2.520000e-06	-7.604641e-07	1.357501e-09	-5.302119e+00	8.758929e+01
2.530000e-06	-9.159890e-07	9.742975e-10	-6.386472e+00	6.186596e+01
2.540000e-06	-1.071230e-06	5.704737e-10	-7.468845e+00	3.494948e+01
2.550000e-06	-1.225977e-06	1.459783e-10	-8.547772e+00	6.900528e+00
2.560000e-06	-1.380158e-06	-2.957258e-10	-9.622760e+00	-2.216088e+01
2.570000e-06	-1.533805e-06	-7.525308e-10	-1.069402e+01	-5.205624e+01
2.580000e-06	-1.686809e-06	-1.223323e-09	-1.176079e+01	-8.255456e+01
2.590000e-06	-1.839187e-06	-1.703594e-09	-1.282321e+01	-1.133833e+02
2.600000e-06	-1.990945e-06	-2.184061e-09	-1.388130e+01	-1.442433e+02
2.610000e-06	-2.141996e-06	-2.657596e-09	-1.493445e+01	-1.748263e+02
2.620000e-06	-2.292211e-06	-3.118740e-09	-1.598179e+01	-2.048333e+02
2.630000e-06	-2.441428e-06	-3.563582e-09	-1.702216e+01	-2.339926e+02
2.640000e-06	-2.589820e-06	-3.991931e-09	-1.805678e+01	-2.620745e+02
2.650000e-06	-2.737373e-06	-4.400122e-09	-1.908555e+01	-2.889030e+02
2.660000e-06	-2.883813e-06	-4.785839e-09	-2.010657e+01	-3.143620e+02
2.670000e-06	-3.029121e-06	-5.150048e-09	-2.111968e+01	-3.383968e+02
2.680000e-06	-3.173297e-06	-5.493110e-09	-2.212491e+01	-3.610098e+02
2.690000e-06	-3.316243e-06	-5.817783e-09	-2.312156e+01	-3.822527e+02
2.700000e-06	-3.457863e-06	-6.124769e-09	-2.410896e+01	-4.022146e+02
2.710000e-06	-3.598237e-06	-6.414412e-09	-2.508768e+01	-4.210093e+02
2.720000e-06	-3.737299e-06	-6.688665e-09	-2.605725e+01	-4.387609e+02
2.730000e-06	-3.874910e-06	-6.948510e-09	-2.701670e+01	-4.555922e+02
2.740000e-06	-4.011068e-06	-7.195668e-09	-2.796603e+01	-4.716141e+02
2.750000e-06	-4.145771e-06	-7.433445e-09	-2.890520e+01	-4.869190e+02
2.760000e-06	-4.279058e-06	-7.661058e-09	-2.983451e+01	-5.015770e+02
2.770000e-06	-4.410910e-06	-7.877075e-09	-3.075381e+01	-5.156360e+02
2.780000e-06	-4.541241e-06	-8.083586e-09	-3.166251e+01	-5.291245e+02
2.790000e-06	-4.669981e-06	-8.282321e-09	-3.256011e+01	-5.420564e+02
2.800000e-06	-4.797051e-06	-8.473066e-09	-3.344607e+01	-5.544368e+02
2.810000e-06	-4.922489e-06	-8.654125e-09	-3.432065e+01	-5.662680e+02
2.820000e-06	-5.046190e-06	-8.823503e-09	-3.518312e+01	-5.775544e+02
2.830000e-06	-5.168041e-06	-8.982662e-09	-3.603269e+01	-5.883066e+02
2.840000e-06	-5.288011e-06	-9.136376e-09	-3.686915e+01	-5.985425e+02
2.850000e-06	-5.405928e-06	-9.285131e-09	-3.769129e+01	-6.082876e+02
2.860000e-06	-5.521658e-06	-9.428262e-09	-3.849818e+01	-6.175733e+02
2.870000e-06	-5.635110e-06	-9.565685e-09	-3.928919e+01	-6.264338e+02
2.880000e-06	-5.746349e-06	-9.696988e-09	-4.006478e+01	-6.349029e+02
2.890000e-06	-5.855473e-06	-9.824827e-09	-4.082562e+01	-6.430113e+02
2.900000e-06	-5.962591e-06	-9.946911e-09	-4.157246e+01	-6.507834e+02
2.910000e-06	-6.067674e-06	-1.006220e-08	-4.230512e+01	-6.582366e+02
2.920000e-06	-6.170485e-06	-1.017131e-08	-4.302195e+01	-6.653815e+02
2.930000e-06	-6.270985e-06	-1.027448e-08	-4.372265e+01	-6.722225e+02
2.940000e-06	-6.369279e-06	-1.037136e-08	-4.440798e+01	-6.787606e+02
