# Temperatura_=_30.1
# Concentracion g/m^3_=_15000.0
# C_Vs_to_Am_M_A/Vsm_=_65563218390.804596
# pendiente_HvsI_1/m_=_3716.3
# ordenada_HvsI_A/m_=_1297.0
# frecuencia_Hz_=_302339.41394791345

Tiempo_(s)	Campo_(V.s)	Magnetizacion_(V.s)	Campo_(kA/m)	Magnetizacion_(A/m)
0.000000e+00	-8.193062e-06	-1.058577e-08	-5.691561e+01	-6.921191e+02
1.000000e-08	-8.190696e-06	-1.058917e-08	-5.689918e+01	-6.918897e+02
2.000000e-08	-8.185597e-06	-1.058493e-08	-5.686376e+01	-6.915489e+02
3.000000e-08	-8.177893e-06	-1.057781e-08	-5.681024e+01	-6.911070e+02
4.000000e-08	-8.167337e-06	-1.057060e-08	-5.673691e+01	-6.905757e+02
5.000000e-08	-8.153781e-06	-1.055905e-08	-5.664274e+01	-6.899670e+02
6.000000e-08	-8.137299e-06	-1.054364e-08	-5.652824e+01	-6.892914e+02
7.000000e-08	-8.118294e-06	-1.052635e-08	-5.639621e+01	-6.885573e+02
8.000000e-08	-8.097005e-06	-1.050527e-08	-5.624833e+01	-6.877697e+02
9.000000e-08	-8.072936e-06	-1.055449e-08	-5.608112e+01	-6.869306e+02
1.000000e-07	-8.045573e-06	-1.055489e-08	-5.589104e+01	-6.860385e+02
1.100000e-07	-8.015015e-06	-1.048460e-08	-5.567876e+01	-6.850893e+02
1.200000e-07	-7.981517e-06	-1.045655e-08	-5.544605e+01	-6.840770e+02
1.300000e-07	-7.945164e-06	-1.043971e-08	-5.519352e+01	-6.829949e+02
1.400000e-07	-7.906293e-06	-1.041304e-08	-5.492349e+01	-6.818355e+02
1.500000e-07	-7.865073e-06	-1.035657e-08	-5.463714e+01	-6.805924e+02
1.600000e-07	-7.821456e-06	-1.038830e-08	-5.433414e+01	-6.792596e+02
1.700000e-07	-7.775142e-06	-1.036068e-08	-5.401240e+01	-6.778319e+02
1.800000e-07	-7.725868e-06	-1.024321e-08	-5.367011e+01	-6.763051e+02
1.900000e-07	-7.673711e-06	-1.033067e-08	-5.330779e+01	-6.746748e+02
2.000000e-07	-7.618615e-06	-1.028967e-08	-5.292505e+01	-6.729369e+02
2.100000e-07	-7.560673e-06	-1.021601e-08	-5.252253e+01	-6.710866e+02
2.200000e-07	-7.500080e-06	-1.022543e-08	-5.210160e+01	-6.691186e+02
2.300000e-07	-7.436875e-06	-1.016558e-08	-5.166253e+01	-6.670273e+02
2.400000e-07	-7.370884e-06	-1.016277e-08	-5.120411e+01	-6.648068e+02
2.500000e-07	-7.302052e-06	-1.008378e-08	-5.072594e+01	-6.624520e+02
2.600000e-07	-7.230433e-06	-1.006167e-08	-5.022842e+01	-6.599585e+02
2.700000e-07	-7.155848e-06	-1.001759e-08	-4.971029e+01	-6.573242e+02
2.800000e-07	-7.078343e-06	-9.957742e-09	-4.917188e+01	-6.545487e+02
2.900000e-07	-6.998088e-06	-9.904141e-09	-4.861436e+01	-6.516341e+02
3.000000e-07	-6.915313e-06	-9.871087e-09	-4.803934e+01	-6.485846e+02
3.100000e-07	-6.830218e-06	-9.870027e-09	-4.744820e+01	-6.454057e+02
3.200000e-07	-6.742612e-06	-9.770632e-09	-4.683962e+01	-6.421035e+02
3.300000e-07	-6.652492e-06	-9.724280e-09	-4.621358e+01	-6.386835e+02
3.400000e-07	-6.560072e-06	-9.700613e-09	-4.557155e+01	-6.351495e+02
3.500000e-07	-6.465290e-06	-9.640219e-09	-4.491312e+01	-6.315027e+02
3.600000e-07	-6.368088e-06	-9.559899e-09	-4.423787e+01	-6.277411e+02
3.700000e-07	-6.268565e-06	-9.503616e-09	-4.354651e+01	-6.238592e+02
3.800000e-07	-6.166839e-06	-9.457185e-09	-4.283984e+01	-6.198487e+02
3.900000e-07	-6.062833e-06	-9.369184e-09	-4.211733e+01	-6.156991e+02
4.000000e-07	-5.956630e-06	-9.301323e-09	-4.137956e+01	-6.113987e+02
4.100000e-07	-5.848409e-06	-9.247705e-09	-4.062777e+01	-6.069363e+02
4.200000e-07	-5.738162e-06	-9.185311e-09	-3.986190e+01	-6.023023e+02
4.300000e-07	-5.625726e-06	-9.088513e-09	-3.908083e+01	-5.974897e+02
4.400000e-07	-5.511120e-06	-9.007327e-09	-3.828468e+01	-5.924948e+02
4.500000e-07	-5.394465e-06	-8.944759e-09	-3.747430e+01	-5.873169e+02
4.600000e-07	-5.275733e-06	-8.868697e-09	-3.664950e+01	-5.819578e+02
4.700000e-07	-5.155069e-06	-8.775387e-09	-3.581127e+01	-5.764209e+02
4.800000e-07	-5.032669e-06	-8.691920e-09	-3.496098e+01	-5.707093e+02
4.900000e-07	-4.908480e-06	-8.609734e-09	-3.409826e+01	-5.648246e+02
5.000000e-07	-4.782546e-06	-8.507254e-09	-3.322342e+01	-5.587652e+02
5.100000e-07	-4.654861e-06	-8.406196e-09	-3.233642e+01	-5.525257e+02
5.200000e-07	-4.525430e-06	-8.306892e-09	-3.143729e+01	-5.460958e+02
5.300000e-07	-4.394352e-06	-8.205723e-09	-3.052671e+01	-5.394615e+02
5.400000e-07	-4.261565e-06	-8.094733e-09	-2.960427e+01	-5.326056e+02
5.500000e-07	-4.127331e-06	-7.989614e-09	-2.867177e+01	-5.255092e+02
5.600000e-07	-3.991521e-06	-7.881913e-09	-2.772833e+01	-5.181543e+02
5.700000e-07	-3.854014e-06	-7.764811e-09	-2.677309e+01	-5.105247e+02
5.800000e-07	-3.715059e-06	-7.637133e-09	-2.580779e+01	-5.026087e+02
5.900000e-07	-3.574519e-06	-7.511484e-09	-2.483149e+01	-4.943992e+02
6.000000e-07	-3.432380e-06	-7.386416e-09	-2.384408e+01	-4.858944e+02
6.100000e-07	-3.288978e-06	-7.253869e-09	-2.284790e+01	-4.770968e+02
6.200000e-07	-3.144427e-06	-7.115702e-09	-2.184372e+01	-4.680118e+02
6.300000e-07	-2.998690e-06	-6.969684e-09	-2.083132e+01	-4.586452e+02
6.400000e-07	-2.851863e-06	-6.819193e-09	-1.981134e+01	-4.490009e+02
6.500000e-07	-2.704051e-06	-6.663496e-09	-1.878452e+01	-4.390786e+02
6.600000e-07	-2.555296e-06	-6.508679e-09	-1.775115e+01	-4.288714e+02
6.700000e-07	-2.405700e-06	-6.348197e-09	-1.671193e+01	-4.183650e+02
6.800000e-07	-2.255350e-06	-6.183376e-09	-1.566748e+01	-4.075381e+02
6.900000e-07	-2.104199e-06	-6.013265e-09	-1.461746e+01	-3.963629e+02
7.000000e-07	-1.952175e-06	-5.835856e-09	-1.356138e+01	-3.848078e+02
7.100000e-07	-1.799366e-06	-5.652478e-09	-1.249985e+01	-3.728402e+02
7.200000e-07	-1.645991e-06	-5.461298e-09	-1.143438e+01	-3.604299e+02
7.300000e-07	-1.492132e-06	-5.264981e-09	-1.036555e+01	-3.475521e+02
7.400000e-07	-1.337841e-06	-5.062267e-09	-9.293722e+00	-3.341891e+02
7.500000e-07	-1.183173e-06	-4.853498e-09	-8.219273e+00	-3.203319e+02
7.600000e-07	-1.028137e-06	-4.636577e-09	-7.142268e+00	-3.059791e+02
7.700000e-07	-8.727312e-07	-4.410689e-09	-6.062695e+00	-2.911349e+02
7.800000e-07	-7.169864e-07	-4.175060e-09	-4.980766e+00	-2.758051e+02
7.900000e-07	-5.609607e-07	-3.934910e-09	-3.896886e+00	-2.599925e+02
8.000000e-07	-4.047030e-07	-3.690245e-09	-2.811393e+00	-2.436921e+02
8.100000e-07	-2.483256e-07	-3.436390e-09	-1.725070e+00	-2.268861e+02
8.200000e-07	-9.187395e-08	-3.170922e-09	-6.382306e-01	-2.095410e+02
8.300000e-07	6.464935e-08	-2.894524e-09	4.491066e-01	-1.916060e+02
8.400000e-07	2.211953e-07	-2.607974e-09	1.536601e+00	-1.730144e+02
8.500000e-07	3.776790e-07	-2.307204e-09	2.623663e+00	-1.536878e+02
8.600000e-07	5.340399e-07	-1.995354e-09	3.709872e+00	-1.335423e+02
8.700000e-07	6.902552e-07	-1.673386e-09	4.795069e+00	-1.124978e+02
8.800000e-07	8.462563e-07	-1.341004e-09	5.878779e+00	-9.048822e+01
8.900000e-07	1.001985e-06	-9.945879e-10	6.960597e+00	-6.747199e+01
9.000000e-07	1.157377e-06	-6.352382e-10	8.040074e+00	-4.344195e+01
9.100000e-07	1.312355e-06	-2.585990e-10	9.116678e+00	-1.843317e+01
9.200000e-07	1.466877e-06	1.369728e-10	1.019011e+01	7.472306e+00
9.300000e-07	1.620961e-06	5.425116e-10	1.126050e+01	3.414441e+01
9.400000e-07	1.774553e-06	9.573143e-10	1.232748e+01	6.140808e+01
9.500000e-07	1.927526e-06	1.377398e-09	1.339015e+01	8.905040e+01
9.600000e-07	2.079786e-06	1.802406e-09	1.444787e+01	1.168311e+02
9.700000e-07	2.231239e-06	2.226770e-09	1.549998e+01	1.444958e+02
9.800000e-07	2.381779e-06	2.644178e-09	1.654576e+01	1.717903e+02
9.900000e-07	2.531300e-06	3.052129e-09	1.758445e+01	1.984754e+02
1.000000e-06	2.679799e-06	3.444814e-09	1.861604e+01	2.243398e+02
1.010000e-06	2.827320e-06	3.820236e-09	1.964084e+01	2.492109e+02
1.020000e-06	2.973803e-06	4.177687e-09	2.065843e+01	2.729620e+02
1.030000e-06	3.119184e-06	4.518116e-09	2.166836e+01	2.955151e+02
1.040000e-06	3.263427e-06	4.839662e-09	2.267039e+01	3.168406e+02
1.050000e-06	3.406489e-06	5.142573e-09	2.366422e+01	3.369524e+02
1.060000e-06	3.548213e-06	5.429737e-09	2.464875e+01	3.559000e+02
1.070000e-06	3.688475e-06	5.703023e-09	2.562312e+01	3.737594e+02
1.080000e-06	3.827384e-06	5.961186e-09	2.658809e+01	3.906221e+02
1.090000e-06	3.964917e-06	6.204238e-09	2.754351e+01	4.065849e+02
1.100000e-06	4.100974e-06	6.436788e-09	2.848867e+01	4.217409e+02
1.110000e-06	4.235517e-06	6.657572e-09	2.942332e+01	4.361727e+02
1.120000e-06	4.368484e-06	6.866706e-09	3.034701e+01	4.499475e+02
1.130000e-06	4.499913e-06	7.066181e-09	3.126002e+01	4.631158e+02
1.140000e-06	4.629808e-06	7.258317e-09	3.216238e+01	4.757118e+02
1.150000e-06	4.758085e-06	7.439380e-09	3.305349e+01	4.877561e+02
1.160000e-06	4.884717e-06	7.608850e-09	3.393318e+01	4.992593e+02
1.170000e-06	5.009623e-06	7.770439e-09	3.480088e+01	5.102270e+02
1.180000e-06	5.132824e-06	7.926798e-09	3.565674e+01	5.206640e+02
1.190000e-06	5.254304e-06	8.079978e-09	3.650064e+01	5.305776e+02
1.200000e-06	5.373888e-06	8.226948e-09	3.733136e+01	5.399804e+02
1.210000e-06	5.491418e-06	8.364293e-09	3.814782e+01	5.488909e+02
1.220000e-06	5.606805e-06	8.491986e-09	3.894939e+01	5.573339e+02
1.230000e-06	5.719974e-06	8.613855e-09	3.973555e+01	5.653386e+02
1.240000e-06	5.830932e-06	8.731314e-09	4.050636e+01	5.729366e+02
1.250000e-06	5.939819e-06	8.841969e-09	4.126277e+01	5.801598e+02
1.260000e-06	6.046667e-06	8.946110e-09	4.200502e+01	5.870382e+02
1.270000e-06	6.151350e-06	9.046469e-09	4.273224e+01	5.935980e+02
1.280000e-06	6.253748e-06	9.142070e-09	4.344358e+01	5.998608e+02
1.290000e-06	6.353815e-06	9.232333e-09	4.413872e+01	6.058435e+02
1.300000e-06	6.451464e-06	9.317494e-09	4.481707e+01	6.115589e+02
1.310000e-06	6.546687e-06	9.397395e-09	4.547856e+01	6.170170e+02
1.320000e-06	6.639567e-06	9.473293e-09	4.612379e+01	6.222260e+02
1.330000e-06	6.730093e-06	9.547365e-09	4.675266e+01	6.271943e+02
1.340000e-06	6.818206e-06	9.618127e-09	4.736476e+01	6.319308e+02
1.350000e-06	6.903939e-06	9.685215e-09	4.796033e+01	6.364463e+02
1.360000e-06	6.987264e-06	9.750287e-09	4.853917e+01	6.407525e+02
1.370000e-06	7.068066e-06	9.813253e-09	4.910049e+01	6.448622e+02
1.380000e-06	7.146310e-06	9.874500e-09	4.964404e+01	6.487876e+02
1.390000e-06	7.221878e-06	9.931796e-09	5.016899e+01	6.525394e+02
1.400000e-06	7.294697e-06	9.986310e-09	5.067485e+01	6.561253e+02
1.410000e-06	7.364932e-06	1.003929e-08	5.116276e+01	6.595494e+02
1.420000e-06	7.432664e-06	1.008760e-08	5.163328e+01	6.628114e+02
1.430000e-06	7.497721e-06	1.013162e-08	5.208522e+01	6.659074e+02
1.440000e-06	7.560123e-06	1.017124e-08	5.251871e+01	6.688302e+02
1.450000e-06	7.620001e-06	1.021033e-08	5.293467e+01	6.715709e+02
1.460000e-06	7.677156e-06	1.024738e-08	5.333172e+01	6.741208e+02
1.470000e-06	7.731491e-06	1.028132e-08	5.370917e+01	6.764731e+02
1.480000e-06	7.782842e-06	1.031541e-08	5.406589e+01	6.786241e+02
1.490000e-06	7.831053e-06	1.034694e-08	5.440081e+01	6.805749e+02
1.500000e-06	7.876425e-06	1.037355e-08	5.471600e+01	6.823314e+02
1.510000e-06	7.919049e-06	1.039555e-08	5.501210e+01	6.839043e+02
1.520000e-06	7.958745e-06	1.041526e-08	5.528786e+01	6.853082e+02
1.530000e-06	7.995639e-06	1.043456e-08	5.554416e+01	6.865599e+02
1.540000e-06	8.029766e-06	1.045254e-08	5.578123e+01	6.876769e+02
1.550000e-06	8.060990e-06	1.046791e-08	5.599813e+01	6.886751e+02
1.560000e-06	8.089402e-06	1.048057e-08	5.619551e+01	6.895678e+02
1.570000e-06	8.114893e-06	1.049285e-08	5.637259e+01	6.903640e+02
1.580000e-06	8.137370e-06	1.050592e-08	5.652874e+01	6.910679e+02
1.590000e-06	8.157046e-06	1.051631e-08	5.666542e+01	6.916792e+02
1.600000e-06	8.173793e-06	1.052221e-08	5.678176e+01	6.921939e+02
1.610000e-06	8.187446e-06	1.052477e-08	5.687661e+01	6.926054e+02
1.620000e-06	8.197889e-06	1.052747e-08	5.694915e+01	6.929060e+02
1.630000e-06	8.205171e-06	1.053035e-08	5.699973e+01	6.930890e+02
1.640000e-06	8.209630e-06	1.053269e-08	5.703071e+01	6.931498e+02
1.650000e-06	8.211183e-06	1.053568e-08	5.704150e+01	6.930871e+02
1.660000e-06	8.209851e-06	1.053337e-08	5.703224e+01	6.929035e+02
1.670000e-06	8.205863e-06	1.052663e-08	5.700454e+01	6.926052e+02
1.680000e-06	8.199098e-06	1.052450e-08	5.695755e+01	6.922016e+02
1.690000e-06	8.189567e-06	1.051902e-08	5.689134e+01	6.917038e+02
1.700000e-06	8.177227e-06	1.050972e-08	5.680561e+01	6.911240e+02
1.710000e-06	8.161942e-06	1.050388e-08	5.669943e+01	6.904734e+02
1.720000e-06	8.144121e-06	1.050303e-08	5.657564e+01	6.897613e+02
1.730000e-06	8.124020e-06	1.049593e-08	5.643600e+01	6.889942e+02
1.740000e-06	8.101134e-06	1.039856e-08	5.627701e+01	6.881751e+02
1.750000e-06	8.074786e-06	1.040154e-08	5.609398e+01	6.873040e+02
1.760000e-06	8.044632e-06	1.043684e-08	5.588450e+01	6.863777e+02
1.770000e-06	8.011180e-06	1.040891e-08	5.565212e+01	6.853909e+02
1.780000e-06	7.975280e-06	1.040256e-08	5.540273e+01	6.843368e+02
1.790000e-06	7.937008e-06	1.046048e-08	5.513686e+01	6.832085e+02
1.800000e-06	7.896584e-06	1.039874e-08	5.485604e+01	6.819989e+02
1.810000e-06	7.854184e-06	1.028477e-08	5.456149e+01	6.807018e+02
1.820000e-06	7.809101e-06	1.043027e-08	5.424831e+01	6.793118e+02
1.830000e-06	7.761175e-06	1.031278e-08	5.391538e+01	6.778242e+02
1.840000e-06	7.710383e-06	1.030575e-08	5.356254e+01	6.762349e+02
1.850000e-06	7.656432e-06	1.032280e-08	5.318775e+01	6.745397e+02
1.860000e-06	7.599658e-06	1.019896e-08	5.279335e+01	6.727339e+02
1.870000e-06	7.540098e-06	1.027901e-08	5.237960e+01	6.708127e+02
1.880000e-06	7.477717e-06	1.015750e-08	5.194625e+01	6.687704e+02
1.890000e-06	7.412602e-06	1.019197e-08	5.149391e+01	6.666012e+02
1.900000e-06	7.344566e-06	1.017692e-08	5.102128e+01	6.642995e+02
1.910000e-06	7.273660e-06	1.005995e-08	5.052871e+01	6.618608e+02
1.920000e-06	7.199921e-06	1.006549e-08	5.001646e+01	6.592818e+02
1.930000e-06	7.123374e-06	1.000203e-08	4.948470e+01	6.565614e+02
1.940000e-06	7.044035e-06	1.002775e-08	4.893355e+01	6.537009e+02
1.950000e-06	6.962074e-06	9.906809e-09	4.836418e+01	6.507037e+02
1.960000e-06	6.877650e-06	9.881049e-09	4.777770e+01	6.475747e+02
1.970000e-06	6.790551e-06	9.863782e-09	4.717264e+01	6.443201e+02
1.980000e-06	6.700941e-06	9.748597e-09	4.655014e+01	6.409457e+02
1.990000e-06	6.609016e-06	9.732111e-09	4.591156e+01	6.374560e+02
2.000000e-06	6.514771e-06	9.678776e-09	4.525685e+01	6.338534e+02
2.010000e-06	6.418205e-06	9.650268e-09	4.458603e+01	6.301372e+02
2.020000e-06	6.319384e-06	9.539518e-09	4.389954e+01	6.263032e+02
2.030000e-06	6.218258e-06	9.498146e-09	4.319704e+01	6.223443e+02
2.040000e-06	6.114785e-06	9.452190e-09	4.247823e+01	6.182505e+02
2.050000e-06	6.009194e-06	9.381769e-09	4.174471e+01	6.140105e+02
2.060000e-06	5.901619e-06	9.300256e-09	4.099741e+01	6.096129e+02
2.070000e-06	5.792019e-06	9.224675e-09	4.023604e+01	6.050471e+02
2.080000e-06	5.680254e-06	9.177882e-09	3.945963e+01	6.003052e+02
2.090000e-06	5.566401e-06	9.084371e-09	3.866871e+01	5.953820e+02
2.100000e-06	5.450388e-06	9.019654e-09	3.786279e+01	5.902757e+02
2.110000e-06	5.332287e-06	8.942611e-09	3.704237e+01	5.849873e+02
2.120000e-06	5.212188e-06	8.860463e-09	3.620806e+01	5.795196e+02
2.130000e-06	5.090219e-06	8.750815e-09	3.536076e+01	5.738762e+02
2.140000e-06	4.966462e-06	8.675051e-09	3.450105e+01	5.680593e+02
2.150000e-06	4.840821e-06	8.599365e-09	3.362824e+01	5.620689e+02
2.160000e-06	4.713451e-06	8.510929e-09	3.274343e+01	5.559009e+02
2.170000e-06	4.584357e-06	8.407505e-09	3.184664e+01	5.495471e+02
2.180000e-06	4.453655e-06	8.302828e-09	3.093868e+01	5.429949e+02
2.190000e-06	4.321251e-06	8.200129e-09	3.001889e+01	5.362280e+02
2.200000e-06	4.187180e-06	8.085575e-09	2.908753e+01	5.292282e+02
2.210000e-06	4.051706e-06	7.979603e-09	2.814642e+01	5.219768e+02
2.220000e-06	3.914695e-06	7.866553e-09	2.719463e+01	5.144566e+02
2.230000e-06	3.775979e-06	7.750062e-09	2.623100e+01	5.066541e+02
2.240000e-06	3.635680e-06	7.622271e-09	2.525637e+01	4.985603e+02
2.250000e-06	3.494023e-06	7.500904e-09	2.427230e+01	4.901712e+02
2.260000e-06	3.351222e-06	7.372672e-09	2.328029e+01	4.814880e+02
2.270000e-06	3.207254e-06	7.236151e-09	2.228017e+01	4.725150e+02
2.280000e-06	3.061929e-06	7.090669e-09	2.127063e+01	4.632582e+02
2.290000e-06	2.915479e-06	6.945720e-09	2.025327e+01	4.537226e+02
2.300000e-06	2.768040e-06	6.802664e-09	1.922904e+01	4.439098e+02
2.310000e-06	2.619577e-06	6.655746e-09	1.819769e+01	4.338156e+02
2.320000e-06	2.470146e-06	6.499784e-09	1.715962e+01	4.234288e+02
2.330000e-06	2.319877e-06	6.330861e-09	1.611573e+01	4.127306e+02
2.340000e-06	2.168904e-06	6.156412e-09	1.506696e+01	4.016957e+02
2.350000e-06	2.017267e-06	5.981619e-09	1.401357e+01	3.902936e+02
2.360000e-06	1.865004e-06	5.803861e-09	1.295582e+01	3.784917e+02
2.370000e-06	1.712117e-06	5.617119e-09	1.189375e+01	3.662585e+02
2.380000e-06	1.558623e-06	5.419632e-09	1.082745e+01	3.535667e+02
2.390000e-06	1.404575e-06	5.216730e-09	9.757310e+00	3.403956e+02
2.400000e-06	1.250052e-06	5.009611e-09	8.683872e+00	3.267330e+02
2.410000e-06	1.095138e-06	4.795970e-09	7.607712e+00	3.125745e+02
2.420000e-06	9.398977e-07	4.577996e-09	6.529287e+00	2.979225e+02
2.430000e-06	7.843453e-07	4.350650e-09	5.448695e+00	2.827827e+02
2.440000e-06	6.285180e-07	4.112241e-09	4.366193e+00	2.671597e+02
2.450000e-06	4.724196e-07	3.865873e-09	3.281808e+00	2.510521e+02
2.460000e-06	3.160787e-07	3.613932e-09	2.195737e+00	2.344476e+02
2.470000e-06	1.595695e-07	3.352046e-09	1.108498e+00	2.173192e+02
2.480000e-06	2.895669e-09	3.074444e-09	2.011565e-02	1.996229e+02
2.490000e-06	-1.538774e-07	2.788335e-09	-1.068957e+00	1.812980e+02
2.500000e-06	-3.105624e-07	2.496894e-09	-2.157417e+00	1.622698e+02
2.510000e-06	-4.670876e-07	2.194749e-09	-3.244767e+00	1.424558e+02
2.520000e-06	-6.234576e-07	1.882328e-09	-4.331040e+00	1.217733e+02
2.530000e-06	-7.796315e-07	1.557478e-09	-5.415949e+00	1.001492e+02
2.540000e-06	-9.355443e-07	1.214961e-09	-6.499045e+00	7.753126e+01
2.550000e-06	-1.091099e-06	8.542184e-10	-7.579657e+00	5.389764e+01
2.560000e-06	-1.246308e-06	4.791917e-10	-8.657859e+00	2.926609e+01
2.570000e-06	-1.401086e-06	9.285878e-11	-9.733073e+00	3.699850e+00
2.580000e-06	-1.555299e-06	-3.083482e-10	-1.080436e+01	-2.268974e+01
2.590000e-06	-1.708873e-06	-7.243629e-10	-1.187121e+01	-4.974467e+01
2.600000e-06	-1.861744e-06	-1.149395e-09	-1.293318e+01	-7.726581e+01
2.610000e-06	-2.013886e-06	-1.578164e-09	-1.399008e+01	-1.050222e+02
2.620000e-06	-2.165320e-06	-2.007967e-09	-1.504206e+01	-1.327633e+02
2.630000e-06	-2.316017e-06	-2.433196e-09	-1.608892e+01	-1.602330e+02
2.640000e-06	-2.465847e-06	-2.846633e-09	-1.712976e+01	-1.871847e+02
2.650000e-06	-2.614749e-06	-3.247406e-09	-1.816415e+01	-2.133946e+02
2.660000e-06	-2.762675e-06	-3.634138e-09	-1.919177e+01	-2.386739e+02
2.670000e-06	-2.909574e-06	-4.003996e-09	-2.021225e+01	-2.628772e+02
2.680000e-06	-3.055373e-06	-4.353166e-09	-2.122509e+01	-2.859072e+02
2.690000e-06	-3.199969e-06	-4.681593e-09	-2.222957e+01	-3.077158e+02
2.700000e-06	-3.343361e-06	-4.991526e-09	-2.322568e+01	-3.283004e+02
2.710000e-06	-3.485553e-06	-5.285015e-09	-2.421346e+01	-3.476977e+02
2.720000e-06	-3.626415e-06	-5.565146e-09	-2.519200e+01	-3.659745e+02
2.730000e-06	-3.765836e-06	-5.833533e-09	-2.616054e+01	-3.832174e+02
2.740000e-06	-3.903814e-06	-6.087529e-09	-2.711904e+01	-3.995224e+02
2.750000e-06	-4.040280e-06	-6.326788e-09	-2.806705e+01	-4.149850e+02
2.760000e-06	-4.175288e-06	-6.556221e-09	-2.900492e+01	-4.296925e+02
2.770000e-06	-4.308892e-06	-6.776733e-09	-2.993304e+01	-4.437186e+02
2.780000e-06	-4.440967e-06	-6.985675e-09	-3.085054e+01	-4.571204e+02
2.790000e-06	-4.571486e-06	-7.182317e-09	-3.175723e+01	-4.699383e+02
2.800000e-06	-4.700404e-06	-7.366762e-09	-3.265280e+01	-4.821977e+02
2.810000e-06	-4.827749e-06	-7.541383e-09	-3.353744e+01	-4.939128e+02
2.820000e-06	-4.953496e-06	-7.708614e-09	-3.441098e+01	-5.050906e+02
2.830000e-06	-5.077451e-06	-7.869038e-09	-3.527207e+01	-5.157356e+02
2.840000e-06	-5.199502e-06	-8.022692e-09	-3.611993e+01	-5.258538e+02
2.850000e-06	-5.319687e-06	-8.169637e-09	-3.695484e+01	-5.354555e+02
2.860000e-06	-5.437966e-06	-8.309207e-09	-3.777650e+01	-5.445570e+02
2.870000e-06	-5.554022e-06	-8.442807e-09	-3.858271e+01	-5.531805e+02
2.880000e-06	-5.667711e-06	-8.570412e-09	-3.937249e+01	-5.613539e+02
2.890000e-06	-5.779168e-06	-8.690673e-09	-4.014676e+01	-5.691079e+02
2.900000e-06	-5.888477e-06	-8.805211e-09	-4.090611e+01	-5.764748e+02
2.910000e-06	-5.995756e-06	-8.913475e-09	-4.165136e+01	-5.834855e+02
2.920000e-06	-6.100948e-06	-9.016006e-09	-4.238211e+01	-5.901678e+02
2.930000e-06	-6.203876e-06	-9.115069e-09	-4.309713e+01	-5.965451e+02
2.940000e-06	-6.304489e-06	-9.209171e-09	-4.379607e+01	-6.026363e+02
