# Temperatura_=_35.38
# Concentracion g/m^3_=_15000.0
# C_Vs_to_Am_M_A/Vsm_=_65563218390.804596
# pendiente_HvsI_1/m_=_3716.3
# ordenada_HvsI_A/m_=_1297.0
# frecuencia_Hz_=_302337.91917560564

Tiempo_(s)	Campo_(V.s)	Magnetizacion_(V.s)	Campo_(kA/m)	Magnetizacion_(A/m)
0.000000e+00	-8.110144e-06	-1.055949e-08	-5.690681e+01	-6.898362e+02
1.000000e-08	-8.105324e-06	-1.055556e-08	-5.687298e+01	-6.894970e+02
2.000000e-08	-8.097891e-06	-1.054735e-08	-5.682082e+01	-6.890592e+02
3.000000e-08	-8.087609e-06	-1.053843e-08	-5.674868e+01	-6.885376e+02
4.000000e-08	-8.074405e-06	-1.052828e-08	-5.665603e+01	-6.879463e+02
5.000000e-08	-8.058358e-06	-1.051650e-08	-5.654343e+01	-6.872969e+02
6.000000e-08	-8.039776e-06	-1.050286e-08	-5.641305e+01	-6.865976e+02
7.000000e-08	-8.018908e-06	-1.048011e-08	-5.626662e+01	-6.858517e+02
8.000000e-08	-7.995323e-06	-1.049821e-08	-5.610114e+01	-6.850585e+02
9.000000e-08	-7.968509e-06	-1.051830e-08	-5.591298e+01	-6.842128e+02
1.000000e-07	-7.938544e-06	-1.047589e-08	-5.570273e+01	-6.833062e+02
1.100000e-07	-7.905630e-06	-1.043522e-08	-5.547178e+01	-6.823288e+02
1.200000e-07	-7.869891e-06	-1.040842e-08	-5.522101e+01	-6.812700e+02
1.300000e-07	-7.831657e-06	-1.038073e-08	-5.495273e+01	-6.801199e+02
1.400000e-07	-7.791117e-06	-1.034027e-08	-5.466827e+01	-6.788703e+02
1.500000e-07	-7.748220e-06	-1.035403e-08	-5.436727e+01	-6.775153e+02
1.600000e-07	-7.702707e-06	-1.036774e-08	-5.404792e+01	-6.760510e+02
1.700000e-07	-7.654363e-06	-1.026225e-08	-5.370871e+01	-6.744753e+02
1.800000e-07	-7.603073e-06	-1.027928e-08	-5.334881e+01	-6.727874e+02
1.900000e-07	-7.548783e-06	-1.025593e-08	-5.296787e+01	-6.709867e+02
2.000000e-07	-7.491674e-06	-1.017119e-08	-5.256715e+01	-6.690723e+02
2.100000e-07	-7.431869e-06	-1.017591e-08	-5.214752e+01	-6.670424e+02
2.200000e-07	-7.369459e-06	-1.013693e-08	-5.170960e+01	-6.648939e+02
2.300000e-07	-7.304344e-06	-1.012927e-08	-5.125271e+01	-6.626231e+02
2.400000e-07	-7.236413e-06	-1.007600e-08	-5.077605e+01	-6.602257e+02
2.500000e-07	-7.165685e-06	-1.003339e-08	-5.027978e+01	-6.576980e+02
2.600000e-07	-7.092146e-06	-9.994428e-09	-4.976377e+01	-6.550370e+02
2.700000e-07	-7.015829e-06	-9.940204e-09	-4.922828e+01	-6.522419e+02
2.800000e-07	-6.936694e-06	-9.889991e-09	-4.867300e+01	-6.493136e+02
2.900000e-07	-6.854919e-06	-9.842586e-09	-4.809921e+01	-6.462556e+02
3.000000e-07	-6.770822e-06	-9.829068e-09	-4.750913e+01	-6.430726e+02
3.100000e-07	-6.684380e-06	-9.763465e-09	-4.690258e+01	-6.397707e+02
3.200000e-07	-6.595517e-06	-9.698476e-09	-4.627905e+01	-6.363553e+02
3.300000e-07	-6.504206e-06	-9.659282e-09	-4.563835e+01	-6.328305e+02
3.400000e-07	-6.410531e-06	-9.602059e-09	-4.498105e+01	-6.291979e+02
3.500000e-07	-6.314623e-06	-9.534031e-09	-4.430809e+01	-6.254558e+02
3.600000e-07	-6.216337e-06	-9.471955e-09	-4.361845e+01	-6.215986e+02
3.700000e-07	-6.115753e-06	-9.424485e-09	-4.291267e+01	-6.176175e+02
3.800000e-07	-6.012970e-06	-9.358503e-09	-4.219147e+01	-6.135007e+02
3.900000e-07	-5.908045e-06	-9.282990e-09	-4.145524e+01	-6.092353e+02
4.000000e-07	-5.801064e-06	-9.211076e-09	-4.070458e+01	-6.048082e+02
4.100000e-07	-5.692022e-06	-9.146165e-09	-3.993946e+01	-6.002078e+02
4.200000e-07	-5.580934e-06	-9.075620e-09	-3.915999e+01	-5.954253e+02
4.300000e-07	-5.467826e-06	-8.996425e-09	-3.836633e+01	-5.904555e+02
4.400000e-07	-5.352581e-06	-8.922937e-09	-3.755769e+01	-5.852969e+02
4.500000e-07	-5.235174e-06	-8.846867e-09	-3.673388e+01	-5.799515e+02
4.600000e-07	-5.115896e-06	-8.756805e-09	-3.589693e+01	-5.744233e+02
4.700000e-07	-4.994915e-06	-8.663701e-09	-3.504804e+01	-5.687172e+02
4.800000e-07	-4.872066e-06	-8.577882e-09	-3.418604e+01	-5.628369e+02
4.900000e-07	-4.747425e-06	-8.489933e-09	-3.331146e+01	-5.567836e+02
5.000000e-07	-4.621124e-06	-8.391925e-09	-3.242524e+01	-5.505544e+02
5.100000e-07	-4.493188e-06	-8.287523e-09	-3.152755e+01	-5.441416e+02
5.200000e-07	-4.363639e-06	-8.185592e-09	-3.061854e+01	-5.375331e+02
5.300000e-07	-4.232336e-06	-8.079699e-09	-2.969722e+01	-5.307129e+02
5.400000e-07	-4.099500e-06	-7.968981e-09	-2.876514e+01	-5.236627e+02
5.500000e-07	-3.965107e-06	-7.856329e-09	-2.782214e+01	-5.163638e+02
5.600000e-07	-3.829188e-06	-7.743053e-09	-2.686843e+01	-5.087993e+02
5.700000e-07	-3.691853e-06	-7.621876e-09	-2.590479e+01	-5.009556e+02
5.800000e-07	-3.552891e-06	-7.495774e-09	-2.492973e+01	-4.928241e+02
5.900000e-07	-3.412406e-06	-7.367409e-09	-2.394398e+01	-4.844010e+02
6.000000e-07	-3.270662e-06	-7.234569e-09	-2.294940e+01	-4.756875e+02
6.100000e-07	-3.127688e-06	-7.096062e-09	-2.194618e+01	-4.666879e+02
6.200000e-07	-2.983413e-06	-6.952134e-09	-2.093384e+01	-4.574078e+02
6.300000e-07	-2.837975e-06	-6.806014e-09	-1.991334e+01	-4.478513e+02
6.400000e-07	-2.691534e-06	-6.656902e-09	-1.888580e+01	-4.380184e+02
6.500000e-07	-2.544215e-06	-6.504017e-09	-1.785210e+01	-4.279035e+02
6.600000e-07	-2.396128e-06	-6.342823e-09	-1.681302e+01	-4.174934e+02
6.700000e-07	-2.247290e-06	-6.176089e-09	-1.576866e+01	-4.067676e+02
6.800000e-07	-2.097689e-06	-6.006505e-09	-1.471895e+01	-3.956990e+02
6.900000e-07	-1.947281e-06	-5.831494e-09	-1.366357e+01	-3.842564e+02
7.000000e-07	-1.796189e-06	-5.648739e-09	-1.260340e+01	-3.724070e+02
7.100000e-07	-1.644596e-06	-5.459486e-09	-1.153971e+01	-3.601199e+02
7.200000e-07	-1.492502e-06	-5.265730e-09	-1.047251e+01	-3.473692e+02
7.300000e-07	-1.339923e-06	-5.064811e-09	-9.401896e+00	-3.341359e+02
7.400000e-07	-1.186842e-06	-4.855361e-09	-8.327765e+00	-3.204097e+02
7.500000e-07	-1.033328e-06	-4.640031e-09	-7.250596e+00	-3.061876e+02
7.600000e-07	-8.794197e-07	-4.419262e-09	-6.170663e+00	-2.914722e+02
7.700000e-07	-7.251354e-07	-4.188284e-09	-5.088090e+00	-2.762681e+02
7.800000e-07	-5.705633e-07	-3.948800e-09	-4.003497e+00	-2.605765e+02
7.900000e-07	-4.157979e-07	-3.703636e-09	-2.917547e+00	-2.443909e+02
8.000000e-07	-2.608643e-07	-3.450314e-09	-1.830418e+00	-2.276916e+02
8.100000e-07	-1.057281e-07	-3.184202e-09	-7.418670e-01	-2.104431e+02
8.200000e-07	4.947097e-08	-2.908071e-09	3.471251e-01	-1.925918e+02
8.300000e-07	2.046395e-07	-2.623170e-09	1.435903e+00	-1.740681e+02
8.400000e-07	3.597721e-07	-2.324399e-09	2.524429e+00	-1.547901e+02
8.500000e-07	5.148115e-07	-2.014870e-09	3.612301e+00	-1.346705e+02
8.600000e-07	6.697139e-07	-1.695286e-09	4.699211e+00	-1.136261e+02
8.700000e-07	8.244133e-07	-1.362650e-09	5.784697e+00	-9.158823e+01
8.800000e-07	9.788195e-07	-1.012613e-09	6.868126e+00	-6.851371e+01
8.900000e-07	1.132828e-06	-6.479175e-10	7.948767e+00	-4.439535e+01
9.000000e-07	1.286353e-06	-2.680855e-10	9.026011e+00	-1.926983e+01
9.100000e-07	1.439409e-06	1.293689e-10	1.009997e+01	6.777289e+00
9.200000e-07	1.591970e-06	5.393674e-10	1.117044e+01	3.361058e+01
9.300000e-07	1.743936e-06	9.573597e-10	1.223676e+01	6.104803e+01
9.400000e-07	1.895268e-06	1.380469e-09	1.329861e+01	8.886854e+01
9.500000e-07	2.045951e-06	1.807956e-09	1.435591e+01	1.168231e+02
9.600000e-07	2.195835e-06	2.233956e-09	1.540761e+01	1.446484e+02
9.700000e-07	2.344861e-06	2.652411e-09	1.645329e+01	1.720825e+02
9.800000e-07	2.493028e-06	3.060817e-09	1.749294e+01	1.988794e+02
9.900000e-07	2.640341e-06	3.455396e-09	1.852660e+01	2.248231e+02
1.000000e-06	2.786689e-06	3.831991e-09	1.955349e+01	2.497386e+02
1.010000e-06	2.931873e-06	4.188559e-09	2.057220e+01	2.734990e+02
1.020000e-06	3.075870e-06	4.526959e-09	2.158260e+01	2.960285e+02
1.030000e-06	3.218771e-06	4.846872e-09	2.258529e+01	3.173015e+02
1.040000e-06	3.360461e-06	5.150329e-09	2.357950e+01	3.373371e+02
1.050000e-06	3.500809e-06	5.439315e-09	2.456428e+01	3.561910e+02
1.060000e-06	3.639807e-06	5.711694e-09	2.553960e+01	3.739453e+02
1.070000e-06	3.777387e-06	5.967790e-09	2.650496e+01	3.906970e+02
1.080000e-06	3.913579e-06	6.209591e-09	2.746058e+01	4.065474e+02
1.090000e-06	4.048341e-06	6.439692e-09	2.840617e+01	4.215928e+02
1.100000e-06	4.181667e-06	6.657702e-09	2.934169e+01	4.359172e+02
1.110000e-06	4.313538e-06	6.863368e-09	3.026699e+01	4.495882e+02
1.120000e-06	4.443830e-06	7.061080e-09	3.118122e+01	4.626551e+02
1.130000e-06	4.572544e-06	7.251772e-09	3.208437e+01	4.751503e+02
1.140000e-06	4.699691e-06	7.430940e-09	3.297653e+01	4.870923e+02
1.150000e-06	4.825253e-06	7.600292e-09	3.385757e+01	4.984901e+02
1.160000e-06	4.949226e-06	7.761502e-09	3.472745e+01	5.093478e+02
1.170000e-06	5.071426e-06	7.916316e-09	3.558490e+01	5.196698e+02
1.180000e-06	5.191748e-06	8.065865e-09	3.642916e+01	5.294641e+02
1.190000e-06	5.310192e-06	8.208515e-09	3.726025e+01	5.387448e+02
1.200000e-06	5.426667e-06	8.343462e-09	3.807753e+01	5.475332e+02
1.210000e-06	5.541027e-06	8.472216e-09	3.887997e+01	5.558568e+02
1.220000e-06	5.653230e-06	8.595591e-09	3.966727e+01	5.637482e+02
1.230000e-06	5.763358e-06	8.712442e-09	4.044001e+01	5.712421e+02
1.240000e-06	5.871469e-06	8.819272e-09	4.119859e+01	5.783730e+02
1.250000e-06	5.977471e-06	8.918399e-09	4.194238e+01	5.851726e+02
1.260000e-06	6.081268e-06	9.015866e-09	4.267070e+01	5.916681e+02
1.270000e-06	6.182825e-06	9.110114e-09	4.338330e+01	5.978809e+02
1.280000e-06	6.282082e-06	9.199271e-09	4.407976e+01	6.038273e+02
1.290000e-06	6.378943e-06	9.283774e-09	4.475941e+01	6.095183e+02
1.300000e-06	6.473425e-06	9.364696e-09	4.542236e+01	6.149620e+02
1.310000e-06	6.565608e-06	9.441628e-09	4.606919e+01	6.201645e+02
1.320000e-06	6.655462e-06	9.514502e-09	4.669968e+01	6.251318e+02
1.330000e-06	6.742911e-06	9.585719e-09	4.731328e+01	6.298711e+02
1.340000e-06	6.828022e-06	9.655200e-09	4.791048e+01	6.343913e+02
1.350000e-06	6.910804e-06	9.720576e-09	4.849134e+01	6.387030e+02
1.360000e-06	6.991062e-06	9.782096e-09	4.905449e+01	6.428177e+02
1.370000e-06	7.068782e-06	9.841565e-09	4.959983e+01	6.467469e+02
1.380000e-06	7.143886e-06	9.899484e-09	5.012682e+01	6.505008e+02
1.390000e-06	7.216246e-06	9.954021e-09	5.063455e+01	6.540864e+02
1.400000e-06	7.285998e-06	1.000463e-08	5.112398e+01	6.575074e+02
1.410000e-06	7.353230e-06	1.005248e-08	5.159573e+01	6.607633e+02
1.420000e-06	7.417798e-06	1.009939e-08	5.204879e+01	6.638496e+02
1.430000e-06	7.479763e-06	1.014191e-08	5.248358e+01	6.667592e+02
1.440000e-06	7.539245e-06	1.018074e-08	5.290095e+01	6.694837e+02
1.450000e-06	7.596091e-06	1.021675e-08	5.329982e+01	6.720152e+02
1.460000e-06	7.650196e-06	1.024940e-08	5.367947e+01	6.743478e+02
1.470000e-06	7.701291e-06	1.028060e-08	5.403799e+01	6.764799e+02
1.480000e-06	7.749197e-06	1.031093e-08	5.437413e+01	6.784144e+02
1.490000e-06	7.794287e-06	1.033833e-08	5.469051e+01	6.801595e+02
1.500000e-06	7.836681e-06	1.036089e-08	5.498798e+01	6.817282e+02
1.510000e-06	7.876199e-06	1.037950e-08	5.526527e+01	6.831367e+02
1.520000e-06	7.912952e-06	1.039803e-08	5.552316e+01	6.844031e+02
1.530000e-06	7.946987e-06	1.041718e-08	5.576198e+01	6.855453e+02
1.540000e-06	7.978184e-06	1.043400e-08	5.598087e+01	6.865786e+02
1.550000e-06	8.006547e-06	1.044660e-08	5.617989e+01	6.875147e+02
1.560000e-06	8.031987e-06	1.045706e-08	5.635840e+01	6.883600e+02
1.570000e-06	8.054434e-06	1.046985e-08	5.651590e+01	6.891158e+02
1.580000e-06	8.074107e-06	1.048218e-08	5.665394e+01	6.897783e+02
1.590000e-06	8.090958e-06	1.049081e-08	5.677218e+01	6.903400e+02
1.600000e-06	8.104774e-06	1.049529e-08	5.686912e+01	6.907916e+02
1.610000e-06	8.115414e-06	1.049846e-08	5.694378e+01	6.911234e+02
1.620000e-06	8.122949e-06	1.050119e-08	5.699665e+01	6.913278e+02
1.630000e-06	8.127608e-06	1.050169e-08	5.702934e+01	6.914007e+02
1.640000e-06	8.129341e-06	1.050106e-08	5.704150e+01	6.913424e+02
1.650000e-06	8.128233e-06	1.049922e-08	5.703373e+01	6.911580e+02
1.660000e-06	8.124516e-06	1.049254e-08	5.700765e+01	6.908571e+02
1.670000e-06	8.118076e-06	1.049027e-08	5.696246e+01	6.904524e+02
1.680000e-06	8.108842e-06	1.048525e-08	5.689767e+01	6.899586e+02
1.690000e-06	8.096815e-06	1.047703e-08	5.681327e+01	6.893903e+02
1.700000e-06	8.081951e-06	1.047141e-08	5.670898e+01	6.887600e+02
1.710000e-06	8.064508e-06	1.046940e-08	5.658659e+01	6.880775e+02
1.720000e-06	8.044739e-06	1.047233e-08	5.644787e+01	6.873477e+02
1.730000e-06	8.022326e-06	1.040764e-08	5.629061e+01	6.865714e+02
1.740000e-06	7.996594e-06	1.037253e-08	5.611005e+01	6.857447e+02
1.750000e-06	7.967168e-06	1.039233e-08	5.590358e+01	6.848606e+02
1.760000e-06	7.934377e-06	1.038353e-08	5.567349e+01	6.839093e+02
1.770000e-06	7.899077e-06	1.037481e-08	5.542580e+01	6.828803e+02
1.780000e-06	7.861495e-06	1.040911e-08	5.516210e+01	6.817634e+02
1.790000e-06	7.821680e-06	1.038097e-08	5.488272e+01	6.805498e+02
1.800000e-06	7.779872e-06	1.025960e-08	5.458937e+01	6.792325e+02
1.810000e-06	7.735536e-06	1.033630e-08	5.427828e+01	6.778071e+02
1.820000e-06	7.688375e-06	1.030949e-08	5.394736e+01	6.762709e+02
1.830000e-06	7.638468e-06	1.028383e-08	5.359717e+01	6.746228e+02
1.840000e-06	7.585416e-06	1.033081e-08	5.322492e+01	6.728620e+02
1.850000e-06	7.529417e-06	1.021432e-08	5.283199e+01	6.709880e+02
1.860000e-06	7.470731e-06	1.022929e-08	5.242020e+01	6.689991e+02
1.870000e-06	7.409354e-06	1.015254e-08	5.198954e+01	6.668929e+02
1.880000e-06	7.345276e-06	1.011855e-08	5.153992e+01	6.646659e+02
1.890000e-06	7.278290e-06	1.013144e-08	5.106989e+01	6.623138e+02
1.900000e-06	7.208469e-06	1.004274e-08	5.057998e+01	6.598326e+02
1.910000e-06	7.135759e-06	1.003484e-08	5.006979e+01	6.572190e+02
1.920000e-06	7.060269e-06	9.968567e-09	4.954010e+01	6.544713e+02
1.930000e-06	6.982081e-06	9.962211e-09	4.899147e+01	6.515899e+02
1.940000e-06	6.901240e-06	9.899033e-09	4.842424e+01	6.485773e+02
1.950000e-06	6.817930e-06	9.832033e-09	4.783967e+01	6.454379e+02
1.960000e-06	6.732024e-06	9.823029e-09	4.723689e+01	6.421773e+02
1.970000e-06	6.643519e-06	9.734790e-09	4.661587e+01	6.388014e+02
1.980000e-06	6.552568e-06	9.701945e-09	4.597769e+01	6.353150e+02
1.990000e-06	6.459455e-06	9.642816e-09	4.532434e+01	6.317205e+02
2.000000e-06	6.364124e-06	9.600278e-09	4.465543e+01	6.280175e+02
2.010000e-06	6.266450e-06	9.523064e-09	4.397007e+01	6.242019e+02
2.020000e-06	6.166554e-06	9.455657e-09	4.326913e+01	6.202658e+02
2.030000e-06	6.064403e-06	9.410752e-09	4.255237e+01	6.161985e+02
2.040000e-06	5.960060e-06	9.353056e-09	4.182022e+01	6.119873e+02
2.050000e-06	5.853624e-06	9.293587e-09	4.107338e+01	6.076189e+02
2.060000e-06	5.745271e-06	9.202328e-09	4.031310e+01	6.030812e+02
2.070000e-06	5.634940e-06	9.133744e-09	3.953893e+01	5.983641e+02
2.080000e-06	5.522480e-06	9.049057e-09	3.874983e+01	5.934611e+02
2.090000e-06	5.407904e-06	8.977095e-09	3.794588e+01	5.883695e+02
2.100000e-06	5.291386e-06	8.904824e-09	3.712830e+01	5.830900e+02
2.110000e-06	5.172828e-06	8.835568e-09	3.629641e+01	5.776261e+02
2.120000e-06	5.052193e-06	8.744675e-09	3.544994e+01	5.719826e+02
2.130000e-06	4.929728e-06	8.652220e-09	3.459064e+01	5.661638e+02
2.140000e-06	4.805499e-06	8.567108e-09	3.371895e+01	5.601719e+02
2.150000e-06	4.679618e-06	8.474447e-09	3.283568e+01	5.540057e+02
2.160000e-06	4.551953e-06	8.375050e-09	3.193989e+01	5.476592e+02
2.170000e-06	4.422599e-06	8.268287e-09	3.103224e+01	5.411219e+02
2.180000e-06	4.291625e-06	8.169818e-09	3.011323e+01	5.343789e+02
2.190000e-06	4.159139e-06	8.062669e-09	2.918362e+01	5.274125e+02
2.200000e-06	4.025216e-06	7.955855e-09	2.824391e+01	5.202041e+02
2.210000e-06	3.889644e-06	7.844935e-09	2.729263e+01	5.127358e+02
2.220000e-06	3.752466e-06	7.731053e-09	2.633009e+01	5.049927e+02
2.230000e-06	3.613820e-06	7.605061e-09	2.535725e+01	4.969642e+02
2.240000e-06	3.473891e-06	7.478922e-09	2.437541e+01	4.886449e+02
2.250000e-06	3.332763e-06	7.351843e-09	2.338515e+01	4.800344e+02
2.260000e-06	3.190348e-06	7.218205e-09	2.238586e+01	4.711359e+02
2.270000e-06	3.046531e-06	7.076939e-09	2.137673e+01	4.619550e+02
2.280000e-06	2.901506e-06	6.930946e-09	2.035913e+01	4.524965e+02
2.290000e-06	2.755509e-06	6.784556e-09	1.933470e+01	4.427622e+02
2.300000e-06	2.608539e-06	6.635745e-09	1.830345e+01	4.327487e+02
2.310000e-06	2.460638e-06	6.484874e-09	1.726567e+01	4.224456e+02
2.320000e-06	2.311987e-06	6.324324e-09	1.622262e+01	4.118349e+02
2.330000e-06	2.162653e-06	6.152837e-09	1.517478e+01	4.008917e+02
2.340000e-06	2.012624e-06	5.976384e-09	1.412207e+01	3.895860e+02
2.350000e-06	1.861932e-06	5.796975e-09	1.306470e+01	3.778852e+02
2.360000e-06	1.710496e-06	5.611195e-09	1.200212e+01	3.657573e+02
2.370000e-06	1.558362e-06	5.417121e-09	1.093463e+01	3.531743e+02
2.380000e-06	1.405712e-06	5.219083e-09	9.863519e+00	3.401146e+02
2.390000e-06	1.252612e-06	5.016330e-09	8.789260e+00	3.265647e+02
2.400000e-06	1.099133e-06	4.802447e-09	7.712332e+00	3.125192e+02
2.410000e-06	9.452751e-07	4.581473e-09	6.632754e+00	2.979791e+02
2.420000e-06	7.910636e-07	4.355077e-09	5.550691e+00	2.829486e+02
2.430000e-06	6.366249e-07	4.120139e-09	4.467034e+00	2.674310e+02
2.440000e-06	4.819879e-07	3.876030e-09	3.381986e+00	2.514228e+02
2.450000e-06	3.271358e-07	3.624743e-09	2.295428e+00	2.349098e+02
2.460000e-06	1.721473e-07	3.364895e-09	1.207914e+00	2.178622e+02
2.470000e-06	1.706251e-08	3.091292e-09	1.197233e-01	2.002329e+02
2.480000e-06	-1.380938e-07	2.805866e-09	-9.689690e-01	1.819579e+02
2.490000e-06	-2.931980e-07	2.513244e-09	-2.057295e+00	1.629587e+02
2.500000e-06	-4.482055e-07	2.209834e-09	-3.144943e+00	1.431493e+02
2.510000e-06	-6.030525e-07	1.893207e-09	-4.231465e+00	1.224437e+02
2.520000e-06	-7.576625e-07	1.564661e-09	-5.316324e+00	1.007667e+02
2.530000e-06	-9.120518e-07	1.223690e-09	-6.399634e+00	7.806485e+01
2.540000e-06	-1.066122e-06	8.675728e-10	-7.480703e+00	5.431707e+01
2.550000e-06	-1.219784e-06	4.942361e-10	-8.558909e+00	2.954361e+01
2.560000e-06	-1.373048e-06	1.041448e-10	-9.634327e+00	3.812224e+00
2.570000e-06	-1.525859e-06	-3.020967e-10	-1.070656e+01	-2.275931e+01
2.580000e-06	-1.678099e-06	-7.228541e-10	-1.177479e+01	-5.000496e+01
2.590000e-06	-1.829648e-06	-1.152349e-09	-1.283817e+01	-7.771650e+01
2.600000e-06	-1.980441e-06	-1.584860e-09	-1.389625e+01	-1.056534e+02
2.610000e-06	-2.130423e-06	-2.016807e-09	-1.494863e+01	-1.335558e+02
2.620000e-06	-2.279598e-06	-2.443024e-09	-1.599536e+01	-1.611594e+02
2.630000e-06	-2.428026e-06	-2.857237e-09	-1.703684e+01	-1.882109e+02
2.640000e-06	-2.575629e-06	-3.256251e-09	-1.807253e+01	-2.144822e+02
2.650000e-06	-2.722235e-06	-3.640467e-09	-1.910123e+01	-2.397825e+02
2.660000e-06	-2.867785e-06	-4.010275e-09	-2.012251e+01	-2.639672e+02
2.670000e-06	-3.012259e-06	-4.361151e-09	-2.113625e+01	-2.869422e+02
2.680000e-06	-3.155550e-06	-4.690971e-09	-2.214169e+01	-3.086644e+02
2.690000e-06	-3.297516e-06	-5.001795e-09	-2.313783e+01	-3.291376e+02
2.700000e-06	-3.438186e-06	-5.295882e-09	-2.412487e+01	-3.484057e+02
2.710000e-06	-3.577617e-06	-5.574316e-09	-2.510322e+01	-3.665425e+02
2.720000e-06	-3.715741e-06	-5.837227e-09	-2.607240e+01	-3.836411e+02
2.730000e-06	-3.852511e-06	-6.086904e-09	-2.703208e+01	-3.998023e+02
2.740000e-06	-3.987774e-06	-6.322712e-09	-2.798119e+01	-4.151252e+02
2.750000e-06	-4.121508e-06	-6.549524e-09	-2.891956e+01	-4.296989e+02
2.760000e-06	-4.253868e-06	-6.766505e-09	-2.984830e+01	-4.435970e+02
2.770000e-06	-4.384769e-06	-6.970624e-09	-3.076680e+01	-4.568755e+02
2.780000e-06	-4.514179e-06	-7.166092e-09	-3.167484e+01	-4.695726e+02
2.790000e-06	-4.642066e-06	-7.353777e-09	-3.257219e+01	-4.817112e+02
2.800000e-06	-4.768305e-06	-7.531380e-09	-3.345797e+01	-4.933032e+02
2.810000e-06	-4.892910e-06	-7.696518e-09	-3.433230e+01	-5.043538e+02
2.820000e-06	-5.015808e-06	-7.851752e-09	-3.519464e+01	-5.148669e+02
2.830000e-06	-5.136915e-06	-7.999354e-09	-3.604442e+01	-5.248488e+02
2.840000e-06	-5.256054e-06	-8.141834e-09	-3.688038e+01	-5.343113e+02
2.850000e-06	-5.373107e-06	-8.279146e-09	-3.770172e+01	-5.432730e+02
2.860000e-06	-5.487992e-06	-8.410966e-09	-3.850783e+01	-5.517596e+02
2.870000e-06	-5.600656e-06	-8.537074e-09	-3.929837e+01	-5.598018e+02
2.880000e-06	-5.711223e-06	-8.656571e-09	-4.007419e+01	-5.674341e+02
2.890000e-06	-5.819727e-06	-8.771107e-09	-4.083553e+01	-5.746912e+02
2.900000e-06	-5.926211e-06	-8.880262e-09	-4.158270e+01	-5.816062e+02
2.910000e-06	-6.030573e-06	-8.981788e-09	-4.231499e+01	-5.882079e+02
2.920000e-06	-6.132678e-06	-9.077118e-09	-4.303143e+01	-5.945200e+02
2.930000e-06	-6.232513e-06	-9.168758e-09	-4.373195e+01	-6.005604e+02
2.940000e-06	-6.330135e-06	-9.256469e-09	-4.441694e+01	-6.063420e+02
