# Temperatura_=_47.2
# Concentracion g/m^3_=_15000.0
# C_Vs_to_Am_M_A/Vsm_=_65563218390.804596
# pendiente_HvsI_1/m_=_3716.3
# ordenada_HvsI_A/m_=_1297.0
# frecuencia_Hz_=_302337.21708683064

Tiempo_(s)	Campo_(V.s)	Magnetizacion_(V.s)	Campo_(kA/m)	Magnetizacion_(A/m)
0.000000e+00	-8.177292e-06	-1.087571e-08	-5.691872e+01	-7.108203e+02
1.000000e-08	-8.175039e-06	-1.087773e-08	-5.690304e+01	-7.105576e+02
2.000000e-08	-8.170090e-06	-1.087217e-08	-5.686859e+01	-7.101678e+02
3.000000e-08	-8.162494e-06	-1.086201e-08	-5.681572e+01	-7.096644e+02
4.000000e-08	-8.152007e-06	-1.085221e-08	-5.674272e+01	-7.090632e+02
5.000000e-08	-8.138531e-06	-1.084138e-08	-5.664893e+01	-7.083804e+02
6.000000e-08	-8.122162e-06	-1.082611e-08	-5.653499e+01	-7.076314e+02
7.000000e-08	-8.103289e-06	-1.080953e-08	-5.640362e+01	-7.068284e+02
8.000000e-08	-8.082075e-06	-1.078950e-08	-5.625596e+01	-7.059799e+02
9.000000e-08	-8.058114e-06	-1.082105e-08	-5.608917e+01	-7.050902e+02
1.000000e-07	-8.030959e-06	-1.082543e-08	-5.590016e+01	-7.041590e+02
1.100000e-07	-8.000660e-06	-1.077179e-08	-5.568926e+01	-7.031823e+02
1.200000e-07	-7.967371e-06	-1.073839e-08	-5.545755e+01	-7.021528e+02
1.300000e-07	-7.931178e-06	-1.071275e-08	-5.520562e+01	-7.010616e+02
1.400000e-07	-7.892468e-06	-1.067693e-08	-5.493618e+01	-6.998986e+02
1.500000e-07	-7.851413e-06	-1.062257e-08	-5.465041e+01	-6.986536e+02
1.600000e-07	-7.807981e-06	-1.064445e-08	-5.434810e+01	-6.973169e+02
1.700000e-07	-7.761919e-06	-1.065859e-08	-5.402748e+01	-6.958795e+02
1.800000e-07	-7.712923e-06	-1.056575e-08	-5.368644e+01	-6.943329e+02
1.900000e-07	-7.661008e-06	-1.058124e-08	-5.332508e+01	-6.926692e+02
2.000000e-07	-7.606145e-06	-1.054523e-08	-5.294321e+01	-6.908809e+02
2.100000e-07	-7.548427e-06	-1.046481e-08	-5.254146e+01	-6.889603e+02
2.200000e-07	-7.488087e-06	-1.045050e-08	-5.212145e+01	-6.869000e+02
2.300000e-07	-7.425132e-06	-1.042040e-08	-5.168325e+01	-6.846930e+02
2.400000e-07	-7.359413e-06	-1.042393e-08	-5.122581e+01	-6.823328e+02
2.500000e-07	-7.290814e-06	-1.034942e-08	-5.074832e+01	-6.798146e+02
2.600000e-07	-7.219416e-06	-1.031475e-08	-5.025134e+01	-6.771355e+02
2.700000e-07	-7.145189e-06	-1.028919e-08	-4.973468e+01	-6.742954e+02
2.800000e-07	-7.068040e-06	-1.023209e-08	-4.919768e+01	-6.712968e+02
2.900000e-07	-6.988037e-06	-1.016437e-08	-4.864081e+01	-6.681451e+02
3.000000e-07	-6.905521e-06	-1.012095e-08	-4.806645e+01	-6.648483e+02
3.100000e-07	-6.820739e-06	-1.010376e-08	-4.747632e+01	-6.614154e+02
3.200000e-07	-6.733492e-06	-1.001981e-08	-4.686903e+01	-6.578558e+02
3.300000e-07	-6.643721e-06	-9.966089e-09	-4.624418e+01	-6.541779e+02
3.400000e-07	-6.551575e-06	-9.922926e-09	-4.560278e+01	-6.503874e+02
3.500000e-07	-6.457064e-06	-9.855887e-09	-4.494493e+01	-6.464868e+02
3.600000e-07	-6.360154e-06	-9.779775e-09	-4.427038e+01	-6.424743e+02
3.700000e-07	-6.260910e-06	-9.714195e-09	-4.357958e+01	-6.383440e+02
3.800000e-07	-6.159433e-06	-9.661974e-09	-4.287324e+01	-6.340865e+02
3.900000e-07	-6.055704e-06	-9.592095e-09	-4.215123e+01	-6.296897e+02
4.000000e-07	-5.949807e-06	-9.519397e-09	-4.141413e+01	-6.251405e+02
4.100000e-07	-5.841901e-06	-9.442200e-09	-4.066303e+01	-6.204263e+02
4.200000e-07	-5.731976e-06	-9.370607e-09	-3.989790e+01	-6.155362e+02
4.300000e-07	-5.619914e-06	-9.290960e-09	-3.911788e+01	-6.104627e+02
4.400000e-07	-5.505637e-06	-9.211230e-09	-3.832245e+01	-6.052017e+02
4.500000e-07	-5.389241e-06	-9.132718e-09	-3.751226e+01	-5.997527e+02
4.600000e-07	-5.270837e-06	-9.053786e-09	-3.668810e+01	-5.941181e+02
4.700000e-07	-5.150555e-06	-8.964875e-09	-3.585087e+01	-5.883016e+02
4.800000e-07	-5.028461e-06	-8.866107e-09	-3.500102e+01	-5.823070e+02
4.900000e-07	-4.904587e-06	-8.772157e-09	-3.413879e+01	-5.761360e+02
5.000000e-07	-4.778986e-06	-8.678406e-09	-3.326453e+01	-5.697870e+02
5.100000e-07	-4.651626e-06	-8.572933e-09	-3.237803e+01	-5.632540e+02
5.200000e-07	-4.522504e-06	-8.460628e-09	-3.147927e+01	-5.565263e+02
5.300000e-07	-4.391706e-06	-8.362267e-09	-3.056883e+01	-5.495891e+02
5.400000e-07	-4.259294e-06	-8.261200e-09	-2.964717e+01	-5.424247e+02
5.500000e-07	-4.125307e-06	-8.143984e-09	-2.871454e+01	-5.350142e+02
5.600000e-07	-3.989751e-06	-8.019200e-09	-2.777100e+01	-5.273398e+02
5.700000e-07	-3.852650e-06	-7.899907e-09	-2.681669e+01	-5.193867e+02
5.800000e-07	-3.714016e-06	-7.771070e-09	-2.585172e+01	-5.111445e+02
5.900000e-07	-3.573828e-06	-7.635423e-09	-2.487593e+01	-5.026082e+02
6.000000e-07	-3.432139e-06	-7.504074e-09	-2.388969e+01	-4.937782e+02
6.100000e-07	-3.289073e-06	-7.370198e-09	-2.289386e+01	-4.846590e+02
6.200000e-07	-3.144752e-06	-7.225906e-09	-2.188931e+01	-4.752573e+02
6.300000e-07	-2.999313e-06	-7.074338e-09	-2.087697e+01	-4.655795e+02
6.400000e-07	-2.852815e-06	-6.925064e-09	-1.985725e+01	-4.556288e+02
6.500000e-07	-2.705257e-06	-6.771757e-09	-1.883017e+01	-4.454027e+02
6.600000e-07	-2.556847e-06	-6.610650e-09	-1.779714e+01	-4.348915e+02
6.700000e-07	-2.407696e-06	-6.440892e-09	-1.675897e+01	-4.240771e+02
6.800000e-07	-2.257651e-06	-6.266761e-09	-1.571456e+01	-4.129338e+02
6.900000e-07	-2.106674e-06	-6.087749e-09	-1.466368e+01	-4.014301e+02
7.000000e-07	-1.954979e-06	-5.903110e-09	-1.360780e+01	-3.895311e+02
7.100000e-07	-1.802714e-06	-5.714371e-09	-1.254794e+01	-3.772024e+02
7.200000e-07	-1.649815e-06	-5.518923e-09	-1.148367e+01	-3.644136e+02
7.300000e-07	-1.496337e-06	-5.319523e-09	-1.041538e+01	-3.511408e+02
7.400000e-07	-1.342356e-06	-5.115027e-09	-9.343578e+00	-3.373692e+02
7.500000e-07	-1.187859e-06	-4.901196e-09	-8.268188e+00	-3.230931e+02
7.600000e-07	-1.032912e-06	-4.678719e-09	-7.189673e+00	-3.083141e+02
7.700000e-07	-8.776278e-07	-4.446866e-09	-6.108801e+00	-2.930386e+02
7.800000e-07	-7.220505e-07	-4.203571e-09	-5.025893e+00	-2.772721e+02
7.900000e-07	-5.662334e-07	-3.953700e-09	-3.941315e+00	-2.610146e+02
8.000000e-07	-4.102789e-07	-3.699766e-09	-2.855781e+00	-2.442542e+02
8.100000e-07	-2.541616e-07	-3.438837e-09	-1.769113e+00	-2.269628e+02
8.200000e-07	-9.791866e-08	-3.164406e-09	-6.815710e-01	-2.090932e+02
8.300000e-07	5.833145e-08	-2.877681e-09	4.060209e-01	-1.905785e+02
8.400000e-07	2.145812e-07	-2.581404e-09	1.493610e+00	-1.713350e+02
8.500000e-07	3.707981e-07	-2.270008e-09	2.580971e+00	-1.512679e+02
8.600000e-07	5.269373e-07	-1.945590e-09	3.667791e+00	-1.302800e+02
8.700000e-07	6.829828e-07	-1.611453e-09	4.753959e+00	-1.082830e+02
8.800000e-07	8.388999e-07	-1.264928e-09	5.839233e+00	-8.520887e+01
8.900000e-07	9.946231e-07	-8.989822e-10	6.923157e+00	-6.102237e+01
9.000000e-07	1.149999e-06	-5.156668e-10	8.004664e+00	-3.573113e+01
9.100000e-07	1.304866e-06	-1.182136e-10	9.082625e+00	-9.393340e+00
9.200000e-07	1.459147e-06	2.945573e-10	1.015651e+01	1.787854e+01
9.300000e-07	1.612857e-06	7.209698e-10	1.122642e+01	4.591856e+01
9.400000e-07	1.765993e-06	1.159849e-09	1.229234e+01	7.451285e+01
9.500000e-07	1.918551e-06	1.604739e-09	1.335423e+01	1.034095e+02
9.600000e-07	2.070494e-06	2.048997e-09	1.441184e+01	1.323323e+02
9.700000e-07	2.221678e-06	2.486141e-09	1.546418e+01	1.609964e+02
9.800000e-07	2.371944e-06	2.913300e-09	1.651011e+01	1.891253e+02
9.900000e-07	2.521176e-06	3.328845e-09	1.754886e+01	2.164671e+02
1.000000e-06	2.669468e-06	3.729177e-09	1.858106e+01	2.428082e+02
1.010000e-06	2.816833e-06	4.108036e-09	1.960680e+01	2.679838e+02
1.020000e-06	2.963092e-06	4.464470e-09	2.062485e+01	2.918840e+02
1.030000e-06	3.108246e-06	4.803165e-09	2.163521e+01	3.144549e+02
1.040000e-06	3.252276e-06	5.123739e-09	2.263774e+01	3.356955e+02
1.050000e-06	3.395061e-06	5.426139e-09	2.363161e+01	3.556501e+02
1.060000e-06	3.536554e-06	5.712933e-09	2.461648e+01	3.743984e+02
1.070000e-06	3.676663e-06	5.984041e-09	2.559172e+01	3.920429e+02
1.080000e-06	3.815284e-06	6.239373e-09	2.655660e+01	4.086965e+02
1.090000e-06	3.952504e-06	6.480438e-09	2.751173e+01	4.244717e+02
1.100000e-06	4.088386e-06	6.711615e-09	2.845755e+01	4.394703e+02
1.110000e-06	4.222703e-06	6.930471e-09	2.939248e+01	4.537774e+02
1.120000e-06	4.355453e-06	7.135138e-09	3.031649e+01	4.674576e+02
1.130000e-06	4.486669e-06	7.330176e-09	3.122983e+01	4.805550e+02
1.140000e-06	4.616300e-06	7.518547e-09	3.213214e+01	4.930952e+02
1.150000e-06	4.744345e-06	7.698127e-09	3.302341e+01	5.050897e+02
1.160000e-06	4.870723e-06	7.868006e-09	3.390307e+01	5.165417e+02
1.170000e-06	4.995477e-06	8.030585e-09	3.477143e+01	5.274513e+02
1.180000e-06	5.118455e-06	8.187172e-09	3.562743e+01	5.378207e+02
1.190000e-06	5.239637e-06	8.338273e-09	3.647093e+01	5.476577e+02
1.200000e-06	5.359016e-06	8.483418e-09	3.730188e+01	5.569782e+02
1.210000e-06	5.476374e-06	8.620430e-09	3.811876e+01	5.658061e+02
1.220000e-06	5.591624e-06	8.747512e-09	3.892096e+01	5.741721e+02
1.230000e-06	5.704691e-06	8.867081e-09	3.970798e+01	5.821116e+02
1.240000e-06	5.815564e-06	8.982340e-09	4.047971e+01	5.896615e+02
1.250000e-06	5.924362e-06	9.093199e-09	4.123701e+01	5.968570e+02
1.260000e-06	6.031077e-06	9.198515e-09	4.197982e+01	6.037292e+02
1.270000e-06	6.135544e-06	9.298729e-09	4.270697e+01	6.103036e+02
1.280000e-06	6.237750e-06	9.393406e-09	4.341838e+01	6.165990e+02
1.290000e-06	6.337697e-06	9.483209e-09	4.411407e+01	6.226282e+02
1.300000e-06	6.435269e-06	9.568660e-09	4.479322e+01	6.283994e+02
1.310000e-06	6.530429e-06	9.650347e-09	4.545559e+01	6.339177e+02
1.320000e-06	6.623284e-06	9.728298e-09	4.610192e+01	6.391879e+02
1.330000e-06	6.713782e-06	9.803334e-09	4.673184e+01	6.442158e+02
1.340000e-06	6.801806e-06	9.875075e-09	4.734454e+01	6.490096e+02
1.350000e-06	6.887444e-06	9.944629e-09	4.794062e+01	6.535803e+02
1.360000e-06	6.970726e-06	1.001194e-08	4.852032e+01	6.579419e+02
1.370000e-06	7.051471e-06	1.007627e-08	4.908235e+01	6.621093e+02
1.380000e-06	7.129637e-06	1.013794e-08	4.962643e+01	6.660976e+02
1.390000e-06	7.205207e-06	1.019635e-08	5.015245e+01	6.699194e+02
1.400000e-06	7.278061e-06	1.025193e-08	5.065955e+01	6.735838e+02
1.410000e-06	7.348284e-06	1.030424e-08	5.114834e+01	6.770947e+02
1.420000e-06	7.415966e-06	1.035400e-08	5.161945e+01	6.804504e+02
1.430000e-06	7.480977e-06	1.040060e-08	5.207197e+01	6.836440e+02
1.440000e-06	7.543336e-06	1.044384e-08	5.250602e+01	6.866650e+02
1.450000e-06	7.603156e-06	1.048536e-08	5.292240e+01	6.895004e+02
1.460000e-06	7.660287e-06	1.052320e-08	5.332006e+01	6.921377e+02
1.470000e-06	7.714673e-06	1.055888e-08	5.369863e+01	6.945670e+02
1.480000e-06	7.766084e-06	1.059230e-08	5.405647e+01	6.967829e+02
1.490000e-06	7.814282e-06	1.062391e-08	5.439196e+01	6.987859e+02
1.500000e-06	7.859584e-06	1.065128e-08	5.470729e+01	7.005830e+02
1.510000e-06	7.902188e-06	1.067143e-08	5.500384e+01	7.021875e+02
1.520000e-06	7.941941e-06	1.068985e-08	5.528054e+01	7.036172e+02
1.530000e-06	7.978854e-06	1.071057e-08	5.553748e+01	7.048928e+02
1.540000e-06	8.012951e-06	1.073178e-08	5.577481e+01	7.060354e+02
1.550000e-06	8.044175e-06	1.074859e-08	5.599215e+01	7.070640e+02
1.560000e-06	8.072608e-06	1.076251e-08	5.619006e+01	7.079936e+02
1.570000e-06	8.098141e-06	1.077500e-08	5.636778e+01	7.088335e+02
1.580000e-06	8.120694e-06	1.078595e-08	5.652477e+01	7.095870e+02
1.590000e-06	8.140423e-06	1.079484e-08	5.666209e+01	7.102511e+02
1.600000e-06	8.157255e-06	1.080024e-08	5.677926e+01	7.108181e+02
1.610000e-06	8.171026e-06	1.080573e-08	5.687511e+01	7.112770e+02
1.620000e-06	8.181562e-06	1.081198e-08	5.694844e+01	7.116159e+02
1.630000e-06	8.188917e-06	1.081757e-08	5.699964e+01	7.118241e+02
1.640000e-06	8.193380e-06	1.082095e-08	5.703071e+01	7.118941e+02
1.650000e-06	8.194931e-06	1.082206e-08	5.704150e+01	7.118228e+02
1.660000e-06	8.193643e-06	1.081795e-08	5.703253e+01	7.116127e+02
1.670000e-06	8.189737e-06	1.080862e-08	5.700535e+01	7.112712e+02
1.680000e-06	8.183041e-06	1.080326e-08	5.695874e+01	7.108105e+02
1.690000e-06	8.173584e-06	1.079735e-08	5.689291e+01	7.102455e+02
1.700000e-06	8.161395e-06	1.078865e-08	5.680807e+01	7.095927e+02
1.710000e-06	8.146295e-06	1.078270e-08	5.670296e+01	7.088679e+02
1.720000e-06	8.128609e-06	1.078117e-08	5.657986e+01	7.080846e+02
1.730000e-06	8.108633e-06	1.077496e-08	5.644081e+01	7.072531e+02
1.740000e-06	8.085949e-06	1.069681e-08	5.628292e+01	7.063792e+02
1.750000e-06	8.059824e-06	1.068493e-08	5.610108e+01	7.054644e+02
1.760000e-06	8.029836e-06	1.070554e-08	5.589234e+01	7.045061e+02
1.770000e-06	7.996483e-06	1.068309e-08	5.566019e+01	7.034981e+02
1.780000e-06	7.960753e-06	1.067260e-08	5.541148e+01	7.024321e+02
1.790000e-06	7.922717e-06	1.071786e-08	5.514673e+01	7.012984e+02
1.800000e-06	7.882460e-06	1.068701e-08	5.486652e+01	7.000866e+02
1.810000e-06	7.840188e-06	1.057960e-08	5.457228e+01	6.987869e+02
1.820000e-06	7.795276e-06	1.066009e-08	5.425967e+01	6.973899e+02
1.830000e-06	7.747530e-06	1.059254e-08	5.392732e+01	6.958870e+02
1.840000e-06	7.696923e-06	1.058835e-08	5.357507e+01	6.942701e+02
1.850000e-06	7.643113e-06	1.062307e-08	5.320052e+01	6.925314e+02
1.860000e-06	7.586490e-06	1.055024e-08	5.280639e+01	6.906635e+02
1.870000e-06	7.527203e-06	1.057082e-08	5.239372e+01	6.886588e+02
1.880000e-06	7.465101e-06	1.043523e-08	5.196146e+01	6.865100e+02
1.890000e-06	7.400263e-06	1.043464e-08	5.151015e+01	6.842105e+02
1.900000e-06	7.332518e-06	1.042649e-08	5.103860e+01	6.817546e+02
1.910000e-06	7.261897e-06	1.033798e-08	5.054704e+01	6.791388e+02
1.920000e-06	7.188431e-06	1.033095e-08	5.003567e+01	6.763616e+02
1.930000e-06	7.112157e-06	1.025882e-08	4.950476e+01	6.734245e+02
1.940000e-06	7.033107e-06	1.025316e-08	4.895453e+01	6.703320e+02
1.950000e-06	6.951421e-06	1.017198e-08	4.838594e+01	6.670910e+02
1.960000e-06	6.867249e-06	1.013852e-08	4.780006e+01	6.637102e+02
1.970000e-06	6.780414e-06	1.009618e-08	4.719564e+01	6.601991e+02
1.980000e-06	6.691041e-06	1.000166e-08	4.657355e+01	6.565667e+02
1.990000e-06	6.599364e-06	9.967698e-09	4.593542e+01	6.528198e+02
2.000000e-06	6.505423e-06	9.903248e-09	4.528153e+01	6.489622e+02
2.010000e-06	6.409169e-06	9.878173e-09	4.461155e+01	6.449939e+02
2.020000e-06	6.310672e-06	9.788272e-09	4.392596e+01	6.409107e+02
2.030000e-06	6.209934e-06	9.719895e-09	4.322476e+01	6.367043e+02
2.040000e-06	6.106854e-06	9.649511e-09	4.250726e+01	6.323636e+02
2.050000e-06	6.001586e-06	9.591039e-09	4.177454e+01	6.278756e+02
2.060000e-06	5.894296e-06	9.529802e-09	4.102774e+01	6.232275e+02
2.070000e-06	5.784997e-06	9.445558e-09	4.026695e+01	6.184074e+02
2.080000e-06	5.673573e-06	9.372312e-09	3.949137e+01	6.134065e+02
2.090000e-06	5.560057e-06	9.280583e-09	3.870124e+01	6.082192e+02
2.100000e-06	5.444416e-06	9.201223e-09	3.789631e+01	6.028437e+02
2.110000e-06	5.326633e-06	9.114918e-09	3.707647e+01	5.972814e+02
2.120000e-06	5.206837e-06	9.049643e-09	3.624262e+01	5.915357e+02
2.130000e-06	5.085210e-06	8.954184e-09	3.539603e+01	5.856106e+02
2.140000e-06	4.961811e-06	8.854447e-09	3.453710e+01	5.795087e+02
2.150000e-06	4.836570e-06	8.759514e-09	3.366535e+01	5.732299e+02
2.160000e-06	4.709551e-06	8.674963e-09	3.278122e+01	5.667700e+02
2.170000e-06	4.580794e-06	8.573665e-09	3.188500e+01	5.601201e+02
2.180000e-06	4.450377e-06	8.454759e-09	3.097722e+01	5.532670e+02
2.190000e-06	4.318304e-06	8.341180e-09	3.005792e+01	5.461939e+02
2.200000e-06	4.184653e-06	8.227222e-09	2.912763e+01	5.388821e+02
2.210000e-06	4.049511e-06	8.113374e-09	2.818696e+01	5.313132e+02
2.220000e-06	3.912824e-06	8.000252e-09	2.723554e+01	5.234710e+02
2.230000e-06	3.774543e-06	7.889855e-09	2.627302e+01	5.153430e+02
2.240000e-06	3.634728e-06	7.757695e-09	2.529983e+01	5.069223e+02
2.250000e-06	3.493491e-06	7.618634e-09	2.431674e+01	4.982072e+02
2.260000e-06	3.350924e-06	7.483371e-09	2.332438e+01	4.892007e+02
2.270000e-06	3.207146e-06	7.352010e-09	2.232361e+01	4.799090e+02
2.280000e-06	3.062205e-06	7.208114e-09	2.131473e+01	4.703388e+02
2.290000e-06	2.916153e-06	7.052547e-09	2.029813e+01	4.604950e+02
2.300000e-06	2.769002e-06	6.894299e-09	1.927387e+01	4.503777e+02
2.310000e-06	2.620824e-06	6.736765e-09	1.824246e+01	4.399800e+02
2.320000e-06	2.471795e-06	6.576898e-09	1.720513e+01	4.292872e+02
2.330000e-06	2.321937e-06	6.412692e-09	1.616203e+01	4.182764e+02
2.340000e-06	2.171225e-06	6.241055e-09	1.511299e+01	4.069182e+02
2.350000e-06	2.019755e-06	6.059204e-09	1.405867e+01	3.951785e+02
2.360000e-06	1.867649e-06	5.870825e-09	1.299992e+01	3.830224e+02
2.370000e-06	1.714985e-06	5.678356e-09	1.193729e+01	3.704174e+02
2.380000e-06	1.561843e-06	5.479665e-09	1.087133e+01	3.573368e+02
2.390000e-06	1.408249e-06	5.273033e-09	9.802236e+00	3.437622e+02
2.400000e-06	1.254173e-06	5.055854e-09	8.729779e+00	3.296842e+02
2.410000e-06	1.099608e-06	4.829788e-09	7.653914e+00	3.151021e+02
2.420000e-06	9.446189e-07	4.601584e-09	6.575099e+00	3.000206e+02
2.430000e-06	7.891978e-07	4.371344e-09	5.493277e+00	2.844464e+02
2.440000e-06	6.334156e-07	4.131401e-09	4.408942e+00	2.683822e+02
2.450000e-06	4.774384e-07	3.878107e-09	3.323250e+00	2.518215e+02
2.460000e-06	3.213017e-07	3.615742e-09	2.236447e+00	2.347431e+02
2.470000e-06	1.650183e-07	3.343627e-09	1.148624e+00	2.171074e+02
2.480000e-06	8.643084e-09	3.060120e-09	6.016091e-02	1.988551e+02
2.490000e-06	-1.477683e-07	2.767497e-09	-1.028554e+00	1.799086e+02
2.500000e-06	-3.041879e-07	2.466265e-09	-2.117325e+00	1.601765e+02
2.510000e-06	-4.604781e-07	2.150551e-09	-3.205196e+00	1.395615e+02
2.520000e-06	-6.166025e-07	1.819957e-09	-4.291913e+00	1.179703e+02
2.530000e-06	-7.725928e-07	1.477958e-09	-5.377696e+00	9.532535e+01
2.540000e-06	-9.283238e-07	1.122177e-09	-6.461675e+00	7.157734e+01
2.550000e-06	-1.083696e-06	7.499183e-10	-7.543154e+00	4.671591e+01
2.560000e-06	-1.238569e-06	3.582648e-10	-8.621160e+00	2.077871e+01
2.570000e-06	-1.392833e-06	-5.098649e-11	-9.694931e+00	-6.143289e+00
2.580000e-06	-1.546549e-06	-4.746358e-10	-1.076488e+01	-3.390475e+01
2.590000e-06	-1.699768e-06	-9.118451e-10	-1.183137e+01	-6.230968e+01
2.600000e-06	-1.852457e-06	-1.357002e-09	-1.289418e+01	-9.111969e+01
2.610000e-06	-2.004474e-06	-1.804886e-09	-1.395231e+01	-1.200663e+02
2.620000e-06	-2.155671e-06	-2.252654e-09	-1.500472e+01	-1.488659e+02
2.630000e-06	-2.305983e-06	-2.693966e-09	-1.605098e+01	-1.772370e+02
2.640000e-06	-2.455473e-06	-3.117846e-09	-1.709152e+01	-2.049161e+02
2.650000e-06	-2.604169e-06	-3.522100e-09	-1.812654e+01	-2.316731e+02
2.660000e-06	-2.751854e-06	-3.911604e-09	-1.915451e+01	-2.573230e+02
2.670000e-06	-2.898399e-06	-4.285250e-09	-2.017454e+01	-2.817339e+02
2.680000e-06	-3.043892e-06	-4.637471e-09	-2.118726e+01	-3.048301e+02
2.690000e-06	-3.188280e-06	-4.966515e-09	-2.219229e+01	-3.265905e+02
2.700000e-06	-3.331336e-06	-5.275829e-09	-2.318804e+01	-3.470428e+02
2.710000e-06	-3.473061e-06	-5.568568e-09	-2.417453e+01	-3.662540e+02
2.720000e-06	-3.613581e-06	-5.846314e-09	-2.515263e+01	-3.843190e+02
2.730000e-06	-3.752734e-06	-6.110280e-09	-2.612122e+01	-4.013485e+02
2.740000e-06	-3.890447e-06	-6.360418e-09	-2.707978e+01	-4.174560e+02
2.750000e-06	-4.026749e-06	-6.596026e-09	-2.802852e+01	-4.327487e+02
2.760000e-06	-4.161557e-06	-6.823081e-09	-2.896687e+01	-4.473188e+02
2.770000e-06	-4.294960e-06	-7.042347e-09	-2.989543e+01	-4.612391e+02
2.780000e-06	-4.426841e-06	-7.250106e-09	-3.081340e+01	-4.745616e+02
2.790000e-06	-4.557127e-06	-7.447417e-09	-3.172026e+01	-4.873188e+02
2.800000e-06	-4.685935e-06	-7.633450e-09	-3.261684e+01	-4.995272e+02
2.810000e-06	-4.813075e-06	-7.808510e-09	-3.350181e+01	-5.111925e+02
2.820000e-06	-4.938539e-06	-7.973392e-09	-3.437511e+01	-5.223153e+02
2.830000e-06	-5.062302e-06	-8.130920e-09	-3.523658e+01	-5.328965e+02
2.840000e-06	-5.184216e-06	-8.283197e-09	-3.608517e+01	-5.429414e+02
2.850000e-06	-5.304217e-06	-8.429562e-09	-3.692044e+01	-5.524626e+02
2.860000e-06	-5.422182e-06	-8.568552e-09	-3.774155e+01	-5.614809e+02
2.870000e-06	-5.537952e-06	-8.700814e-09	-3.854738e+01	-5.700245e+02
2.880000e-06	-5.651457e-06	-8.828104e-09	-3.933743e+01	-5.781274e+02
2.890000e-06	-5.762776e-06	-8.948715e-09	-4.011228e+01	-5.858261e+02
2.900000e-06	-5.871957e-06	-9.064269e-09	-4.087225e+01	-5.931570e+02
2.910000e-06	-5.979145e-06	-9.173816e-09	-4.161834e+01	-6.001531e+02
2.920000e-06	-6.084304e-06	-9.276170e-09	-4.235031e+01	-6.068421e+02
2.930000e-06	-6.187148e-06	-9.373970e-09	-4.306616e+01	-6.132455e+02
2.940000e-06	-6.287579e-06	-9.466813e-09	-4.376522e+01	-6.193782e+02
