# Temperatura_=_75.15
# Concentracion g/m^3_=_15000.0
# C_Vs_to_Am_M_A/Vsm_=_65563218390.804596
# pendiente_HvsI_1/m_=_3716.3
# ordenada_HvsI_A/m_=_1297.0
# frecuencia_Hz_=_302340.62297507585

Tiempo_(s)	Campo_(V.s)	Magnetizacion_(V.s)	Campo_(kA/m)	Magnetizacion_(A/m)
0.000000e+00	-8.159174e-06	-1.286399e-08	-5.691750e+01	-8.417487e+02
1.000000e-08	-8.156718e-06	-1.286871e-08	-5.690037e+01	-8.413661e+02
2.000000e-08	-8.151561e-06	-1.286075e-08	-5.686439e+01	-8.408193e+02
3.000000e-08	-8.143776e-06	-1.284884e-08	-5.681009e+01	-8.401274e+02
4.000000e-08	-8.133108e-06	-1.283832e-08	-5.673567e+01	-8.393108e+02
5.000000e-08	-8.119475e-06	-1.282487e-08	-5.664057e+01	-8.383894e+02
6.000000e-08	-8.103006e-06	-1.280582e-08	-5.652568e+01	-8.373800e+02
7.000000e-08	-8.084062e-06	-1.278013e-08	-5.639353e+01	-8.362949e+02
8.000000e-08	-8.062787e-06	-1.275255e-08	-5.624512e+01	-8.351407e+02
9.000000e-08	-8.038690e-06	-1.280389e-08	-5.607702e+01	-8.339188e+02
1.000000e-07	-8.011338e-06	-1.279769e-08	-5.588622e+01	-8.326253e+02
1.100000e-07	-7.980817e-06	-1.272006e-08	-5.567331e+01	-8.312527e+02
1.200000e-07	-7.947330e-06	-1.268358e-08	-5.543970e+01	-8.297910e+02
1.300000e-07	-7.910975e-06	-1.265325e-08	-5.518610e+01	-8.282290e+02
1.400000e-07	-7.872156e-06	-1.259970e-08	-5.491530e+01	-8.265558e+02
1.500000e-07	-7.831056e-06	-1.252199e-08	-5.462859e+01	-8.247610e+02
1.600000e-07	-7.787572e-06	-1.257918e-08	-5.432525e+01	-8.228355e+02
1.700000e-07	-7.741401e-06	-1.255047e-08	-5.400317e+01	-8.207708e+02
1.800000e-07	-7.692287e-06	-1.243266e-08	-5.366055e+01	-8.185588e+02
1.900000e-07	-7.640250e-06	-1.248582e-08	-5.329755e+01	-8.161914e+02
2.000000e-07	-7.585317e-06	-1.240291e-08	-5.291434e+01	-8.136597e+02
2.100000e-07	-7.527564e-06	-1.232797e-08	-5.251146e+01	-8.109542e+02
2.200000e-07	-7.467141e-06	-1.231912e-08	-5.208995e+01	-8.080649e+02
2.300000e-07	-7.404129e-06	-1.225513e-08	-5.165039e+01	-8.049821e+02
2.400000e-07	-7.338320e-06	-1.222770e-08	-5.119132e+01	-8.016976e+02
2.500000e-07	-7.269677e-06	-1.212727e-08	-5.071247e+01	-7.982055e+02
2.600000e-07	-7.198273e-06	-1.210597e-08	-5.021436e+01	-7.945039e+02
2.700000e-07	-7.123963e-06	-1.205810e-08	-4.969599e+01	-7.905951e+02
2.800000e-07	-7.046782e-06	-1.197971e-08	-4.915758e+01	-7.864862e+02
2.900000e-07	-6.966805e-06	-1.189870e-08	-4.859967e+01	-7.821888e+02
3.000000e-07	-6.884266e-06	-1.184201e-08	-4.802389e+01	-7.777172e+02
3.100000e-07	-6.799385e-06	-1.181086e-08	-4.743177e+01	-7.730875e+02
3.200000e-07	-6.712071e-06	-1.169269e-08	-4.682267e+01	-7.683145e+02
3.300000e-07	-6.622261e-06	-1.162889e-08	-4.619617e+01	-7.634104e+02
3.400000e-07	-6.530031e-06	-1.156117e-08	-4.555278e+01	-7.583820e+02
3.500000e-07	-6.435527e-06	-1.147267e-08	-4.489353e+01	-7.532300e+02
3.600000e-07	-6.338665e-06	-1.138309e-08	-4.421784e+01	-7.479481e+02
3.700000e-07	-6.239465e-06	-1.131112e-08	-4.352582e+01	-7.425237e+02
3.800000e-07	-6.138055e-06	-1.124280e-08	-4.281840e+01	-7.369391e+02
3.900000e-07	-6.034396e-06	-1.113461e-08	-4.209529e+01	-7.311738e+02
4.000000e-07	-5.928558e-06	-1.103421e-08	-4.135697e+01	-7.252073e+02
4.100000e-07	-5.820676e-06	-1.093434e-08	-4.060440e+01	-7.190215e+02
4.200000e-07	-5.710825e-06	-1.084754e-08	-3.983809e+01	-7.126033e+02
4.300000e-07	-5.598865e-06	-1.074385e-08	-3.905707e+01	-7.059457e+02
4.400000e-07	-5.484682e-06	-1.064118e-08	-3.826054e+01	-6.990488e+02
4.500000e-07	-5.368344e-06	-1.053584e-08	-3.744898e+01	-6.919191e+02
4.600000e-07	-5.250051e-06	-1.042710e-08	-3.662378e+01	-6.845672e+02
4.700000e-07	-5.129909e-06	-1.030764e-08	-3.578568e+01	-6.770060e+02
4.800000e-07	-5.007942e-06	-1.018554e-08	-3.493485e+01	-6.692474e+02
4.900000e-07	-4.884161e-06	-1.007138e-08	-3.407137e+01	-6.612994e+02
5.000000e-07	-4.758608e-06	-9.948208e-09	-3.319553e+01	-6.531637e+02
5.100000e-07	-4.631402e-06	-9.815269e-09	-3.230815e+01	-6.448344e+02
5.200000e-07	-4.502476e-06	-9.677901e-09	-3.140878e+01	-6.362977e+02
5.300000e-07	-4.371869e-06	-9.550437e-09	-3.049768e+01	-6.275332e+02
5.400000e-07	-4.239611e-06	-9.408895e-09	-2.957506e+01	-6.185158e+02
5.500000e-07	-4.105806e-06	-9.257998e-09	-2.864165e+01	-6.092192e+02
5.600000e-07	-3.970523e-06	-9.106520e-09	-2.769793e+01	-5.996188e+02
5.700000e-07	-3.833579e-06	-8.961802e-09	-2.674263e+01	-5.896952e+02
5.800000e-07	-3.695074e-06	-8.806961e-09	-2.577644e+01	-5.794363e+02
5.900000e-07	-3.555097e-06	-8.643916e-09	-2.479997e+01	-5.688388e+02
6.000000e-07	-3.413523e-06	-8.481470e-09	-2.381236e+01	-5.579072e+02
6.100000e-07	-3.270547e-06	-8.309345e-09	-2.281498e+01	-5.466526e+02
6.200000e-07	-3.126426e-06	-8.127641e-09	-2.180961e+01	-5.350890e+02
6.300000e-07	-2.981185e-06	-7.944422e-09	-2.079642e+01	-5.232299e+02
6.400000e-07	-2.834858e-06	-7.767146e-09	-1.977566e+01	-5.110843e+02
6.500000e-07	-2.687579e-06	-7.579678e-09	-1.874826e+01	-4.986528e+02
6.600000e-07	-2.539444e-06	-7.383046e-09	-1.771489e+01	-4.859253e+02
6.700000e-07	-2.390474e-06	-7.179779e-09	-1.667568e+01	-4.728805e+02
6.800000e-07	-2.240661e-06	-6.971829e-09	-1.563061e+01	-4.594867e+02
6.900000e-07	-2.090080e-06	-6.756532e-09	-1.458017e+01	-4.457044e+02
7.000000e-07	-1.938822e-06	-6.535817e-09	-1.352501e+01	-4.314906e+02
7.100000e-07	-1.786849e-06	-6.312303e-09	-1.246486e+01	-4.168036e+02
7.200000e-07	-1.634172e-06	-6.079375e-09	-1.139981e+01	-4.016072e+02
7.300000e-07	-1.480907e-06	-5.842185e-09	-1.033064e+01	-3.858750e+02
7.400000e-07	-1.327128e-06	-5.598299e-09	-9.257902e+00	-3.695918e+02
7.500000e-07	-1.172891e-06	-5.346056e-09	-8.181957e+00	-3.527536e+02
7.600000e-07	-1.018256e-06	-5.084641e-09	-7.103244e+00	-3.353646e+02
7.700000e-07	-8.633264e-07	-4.814726e-09	-6.022470e+00	-3.174322e+02
7.800000e-07	-7.081521e-07	-4.533383e-09	-4.939992e+00	-2.989604e+02
7.900000e-07	-5.527432e-07	-4.243067e-09	-3.855876e+00	-2.799423e+02
8.000000e-07	-3.971117e-07	-3.944916e-09	-2.770208e+00	-2.603531e+02
8.100000e-07	-2.413469e-07	-3.633550e-09	-1.683610e+00	-2.401450e+02
8.200000e-07	-8.551005e-08	-3.308477e-09	-5.965087e-01	-2.192450e+02
8.300000e-07	7.039506e-08	-2.971571e-09	4.910682e-01	-1.975561e+02
8.400000e-07	2.262926e-07	-2.625069e-09	1.578592e+00	-1.749627e+02
8.500000e-07	3.821718e-07	-2.262490e-09	2.665988e+00	-1.513405e+02
8.600000e-07	5.380093e-07	-1.883610e-09	3.753094e+00	-1.265692e+02
8.700000e-07	6.936737e-07	-1.490509e-09	4.838992e+00	-1.005474e+02
8.800000e-07	8.491349e-07	-1.081057e-09	5.923472e+00	-7.320845e+01
8.900000e-07	1.004363e-06	-6.497448e-10	7.006327e+00	-4.453460e+01
9.000000e-07	1.159255e-06	-1.991919e-10	8.086834e+00	-1.456856e+01
9.100000e-07	1.313779e-06	2.675004e-10	9.164780e+00	1.657981e+01
9.200000e-07	1.467856e-06	7.546296e-10	1.023961e+01	4.873225e+01
9.300000e-07	1.621373e-06	1.258607e-09	1.131052e+01	8.164709e+01
9.400000e-07	1.774283e-06	1.773208e-09	1.237720e+01	1.150302e+02
9.500000e-07	1.926473e-06	2.289933e-09	1.343886e+01	1.485510e+02
9.600000e-07	2.077901e-06	2.804002e-09	1.449521e+01	1.818621e+02
9.700000e-07	2.228596e-06	3.306470e-09	1.554644e+01	2.146211e+02
9.800000e-07	2.378446e-06	3.790580e-09	1.659178e+01	2.465112e+02
9.900000e-07	2.527309e-06	4.254257e-09	1.763023e+01	2.772603e+02
1.000000e-06	2.675128e-06	4.692599e-09	1.866140e+01	3.066553e+02
1.010000e-06	2.822013e-06	5.106637e-09	1.968606e+01	3.345512e+02
1.020000e-06	2.967918e-06	5.498931e-09	2.070387e+01	3.608741e+02
1.030000e-06	3.112661e-06	5.872402e-09	2.171359e+01	3.856177e+02
1.040000e-06	3.256246e-06	6.223893e-09	2.271522e+01	4.088344e+02
1.050000e-06	3.398670e-06	6.555114e-09	2.370875e+01	4.306229e+02
1.060000e-06	3.539712e-06	6.871702e-09	2.469265e+01	4.511120e+02
1.070000e-06	3.679308e-06	7.171691e-09	2.566645e+01	4.704453e+02
1.080000e-06	3.817560e-06	7.455285e-09	2.663088e+01	4.887652e+02
1.090000e-06	3.954343e-06	7.723640e-09	2.758507e+01	5.062014e+02
1.100000e-06	4.089613e-06	7.978706e-09	2.852869e+01	5.228611e+02
1.110000e-06	4.223500e-06	8.220752e-09	2.946267e+01	5.388256e+02
1.120000e-06	4.355908e-06	8.451499e-09	3.038634e+01	5.541489e+02
1.130000e-06	4.486766e-06	8.670760e-09	3.129919e+01	5.688617e+02
1.140000e-06	4.616088e-06	8.880851e-09	3.220132e+01	5.829769e+02
1.150000e-06	4.743725e-06	9.082310e-09	3.309171e+01	5.964971e+02
1.160000e-06	4.869733e-06	9.275069e-09	3.397072e+01	6.094221e+02
1.170000e-06	4.994138e-06	9.460433e-09	3.483856e+01	6.217553e+02
1.180000e-06	5.116802e-06	9.637337e-09	3.569425e+01	6.335084e+02
1.190000e-06	5.237605e-06	9.807659e-09	3.653696e+01	6.447033e+02
1.200000e-06	5.356533e-06	9.971481e-09	3.736659e+01	6.553723e+02
1.210000e-06	5.473493e-06	1.012884e-08	3.818249e+01	6.655551e+02
1.220000e-06	5.588268e-06	1.027961e-08	3.898315e+01	6.752953e+02
1.230000e-06	5.700825e-06	1.042276e-08	3.976833e+01	6.846354e+02
1.240000e-06	5.811299e-06	1.056034e-08	4.053899e+01	6.936123e+02
1.250000e-06	5.919763e-06	1.069290e-08	4.129562e+01	7.022540e+02
1.260000e-06	6.026058e-06	1.082091e-08	4.203712e+01	7.105777e+02
1.270000e-06	6.130112e-06	1.094629e-08	4.276299e+01	7.185893e+02
1.280000e-06	6.231924e-06	1.106399e-08	4.347322e+01	7.262856e+02
1.290000e-06	6.331421e-06	1.117251e-08	4.416730e+01	7.336572e+02
1.300000e-06	6.428528e-06	1.127550e-08	4.484471e+01	7.406930e+02
1.310000e-06	6.523303e-06	1.137371e-08	4.550585e+01	7.473839e+02
1.320000e-06	6.615814e-06	1.146649e-08	4.615119e+01	7.537272e+02
1.330000e-06	6.705945e-06	1.155473e-08	4.677994e+01	7.597290e+02
1.340000e-06	6.793653e-06	1.164137e-08	4.739178e+01	7.654050e+02
1.350000e-06	6.878991e-06	1.172535e-08	4.798709e+01	7.707801e+02
1.360000e-06	6.961938e-06	1.180538e-08	4.856572e+01	7.758861e+02
1.370000e-06	7.042340e-06	1.188245e-08	4.912659e+01	7.807583e+02
1.380000e-06	7.120145e-06	1.195526e-08	4.966936e+01	7.854307e+02
1.390000e-06	7.195342e-06	1.202406e-08	5.019392e+01	7.899331e+02
1.400000e-06	7.267851e-06	1.208994e-08	5.069973e+01	7.942863e+02
1.410000e-06	7.337748e-06	1.215306e-08	5.118732e+01	7.985008e+02
1.420000e-06	7.405015e-06	1.221310e-08	5.165658e+01	8.025758e+02
1.430000e-06	7.469587e-06	1.227038e-08	5.210702e+01	8.065001e+02
1.440000e-06	7.531579e-06	1.232396e-08	5.253947e+01	8.102546e+02
1.450000e-06	7.591071e-06	1.237639e-08	5.295448e+01	8.138155e+02
1.460000e-06	7.647938e-06	1.242747e-08	5.335118e+01	8.171590e+02
1.470000e-06	7.701996e-06	1.247464e-08	5.372828e+01	8.202644e+02
1.480000e-06	7.752951e-06	1.251862e-08	5.408374e+01	8.231182e+02
1.490000e-06	7.800749e-06	1.256027e-08	5.441717e+01	8.257156e+02
1.500000e-06	7.845714e-06	1.259745e-08	5.473084e+01	8.280617e+02
1.510000e-06	7.887883e-06	1.262847e-08	5.502501e+01	8.301704e+02
1.520000e-06	7.927219e-06	1.265571e-08	5.529941e+01	8.320626e+02
1.530000e-06	7.963872e-06	1.268113e-08	5.555510e+01	8.337631e+02
1.540000e-06	7.997735e-06	1.270531e-08	5.579132e+01	8.352967e+02
1.550000e-06	8.028706e-06	1.272738e-08	5.600737e+01	8.366856e+02
1.560000e-06	8.056903e-06	1.274638e-08	5.620408e+01	8.379459e+02
1.570000e-06	8.082174e-06	1.276374e-08	5.638036e+01	8.390862e+02
1.580000e-06	8.104442e-06	1.278044e-08	5.653570e+01	8.401070e+02
1.590000e-06	8.123895e-06	1.279409e-08	5.667140e+01	8.410012e+02
1.600000e-06	8.140398e-06	1.280265e-08	5.678653e+01	8.417563e+02
1.610000e-06	8.153788e-06	1.280897e-08	5.687993e+01	8.423571e+02
1.620000e-06	8.164060e-06	1.281499e-08	5.695159e+01	8.427880e+02
1.630000e-06	8.171235e-06	1.281908e-08	5.700164e+01	8.430368e+02
1.640000e-06	8.175532e-06	1.282158e-08	5.703162e+01	8.430961e+02
1.650000e-06	8.176949e-06	1.282354e-08	5.704150e+01	8.429655e+02
1.660000e-06	8.175452e-06	1.281700e-08	5.703106e+01	8.426515e+02
1.670000e-06	8.171276e-06	1.280819e-08	5.700193e+01	8.421668e+02
1.680000e-06	8.164389e-06	1.280188e-08	5.695389e+01	8.415292e+02
1.690000e-06	8.154765e-06	1.279162e-08	5.688675e+01	8.407588e+02
1.700000e-06	8.142330e-06	1.277857e-08	5.680000e+01	8.398761e+02
1.710000e-06	8.127018e-06	1.277033e-08	5.669319e+01	8.388993e+02
1.720000e-06	8.109140e-06	1.276964e-08	5.656847e+01	8.378425e+02
1.730000e-06	8.088934e-06	1.275381e-08	5.642752e+01	8.367147e+02
1.740000e-06	8.066001e-06	1.264389e-08	5.626754e+01	8.355193e+02
1.750000e-06	8.039613e-06	1.264499e-08	5.608346e+01	8.342543e+02
1.760000e-06	8.009385e-06	1.266867e-08	5.587260e+01	8.329136e+02
1.770000e-06	7.975925e-06	1.262342e-08	5.563918e+01	8.314879e+02
1.780000e-06	7.940167e-06	1.261009e-08	5.538974e+01	8.299664e+02
1.790000e-06	7.902070e-06	1.268228e-08	5.512398e+01	8.283378e+02
1.800000e-06	7.861746e-06	1.259628e-08	5.484268e+01	8.265917e+02
1.810000e-06	7.819401e-06	1.248844e-08	5.454728e+01	8.247183e+02
1.820000e-06	7.774381e-06	1.261859e-08	5.423323e+01	8.227090e+02
1.830000e-06	7.726564e-06	1.247245e-08	5.389966e+01	8.205555e+02
1.840000e-06	7.675892e-06	1.251207e-08	5.354618e+01	8.182499e+02
1.850000e-06	7.621941e-06	1.251186e-08	5.316982e+01	8.157835e+02
1.860000e-06	7.565183e-06	1.239576e-08	5.277389e+01	8.131472e+02
1.870000e-06	7.505770e-06	1.243351e-08	5.235943e+01	8.103310e+02
1.880000e-06	7.443525e-06	1.225733e-08	5.192521e+01	8.073250e+02
1.890000e-06	7.378543e-06	1.229649e-08	5.147191e+01	8.041203e+02
1.900000e-06	7.310735e-06	1.224521e-08	5.099888e+01	8.007100e+02
1.910000e-06	7.240041e-06	1.214049e-08	5.050573e+01	7.970903e+02
1.920000e-06	7.166477e-06	1.212559e-08	4.999256e+01	7.932620e+02
1.930000e-06	7.090219e-06	1.201376e-08	4.946059e+01	7.892303e+02
1.940000e-06	7.011188e-06	1.201105e-08	4.890928e+01	7.850051e+02
1.950000e-06	6.929485e-06	1.188715e-08	4.833933e+01	7.805998e+02
1.960000e-06	6.845342e-06	1.186679e-08	4.775236e+01	7.760300e+02
1.970000e-06	6.758571e-06	1.180447e-08	4.714705e+01	7.713114e+02
1.980000e-06	6.669239e-06	1.168347e-08	4.652388e+01	7.664573e+02
1.990000e-06	6.577624e-06	1.164379e-08	4.588479e+01	7.614770e+02
2.000000e-06	6.483738e-06	1.155123e-08	4.522985e+01	7.563737e+02
2.010000e-06	6.387451e-06	1.150279e-08	4.455816e+01	7.511437e+02
2.020000e-06	6.288905e-06	1.136898e-08	4.387071e+01	7.457769e+02
2.030000e-06	6.188117e-06	1.129402e-08	4.316762e+01	7.402572e+02
2.040000e-06	6.085010e-06	1.120912e-08	4.244836e+01	7.345651e+02
2.050000e-06	5.979726e-06	1.113759e-08	4.171391e+01	7.286797e+02
2.060000e-06	5.872467e-06	1.105504e-08	4.096569e+01	7.225817e+02
2.070000e-06	5.763270e-06	1.094355e-08	4.020394e+01	7.162556e+02
2.080000e-06	5.651953e-06	1.084303e-08	3.942741e+01	7.096922e+02
2.090000e-06	5.538520e-06	1.071525e-08	3.863611e+01	7.028886e+02
2.100000e-06	5.422977e-06	1.061826e-08	3.783010e+01	6.958490e+02
2.110000e-06	5.305287e-06	1.051621e-08	3.700910e+01	6.885826e+02
2.120000e-06	5.185557e-06	1.042996e-08	3.617388e+01	6.811018e+02
2.130000e-06	5.063967e-06	1.029999e-08	3.532568e+01	6.734192e+02
2.140000e-06	4.940641e-06	1.017267e-08	3.446537e+01	6.655447e+02
2.150000e-06	4.815523e-06	1.004879e-08	3.359256e+01	6.574827e+02
2.160000e-06	4.688587e-06	9.935537e-09	3.270707e+01	6.492304e+02
2.170000e-06	4.559907e-06	9.805692e-09	3.180941e+01	6.407770e+02
2.180000e-06	4.429617e-06	9.662622e-09	3.090052e+01	6.321045e+02
2.190000e-06	4.297806e-06	9.523367e-09	2.998102e+01	6.231893e+02
2.200000e-06	4.164375e-06	9.378430e-09	2.905023e+01	6.140052e+02
2.210000e-06	4.029340e-06	9.236071e-09	2.810823e+01	6.045265e+02
2.220000e-06	3.892829e-06	9.093548e-09	2.715595e+01	5.947315e+02
2.230000e-06	3.754807e-06	8.950535e-09	2.619312e+01	5.846049e+02
2.240000e-06	3.615331e-06	8.784649e-09	2.522015e+01	5.741401e+02
2.250000e-06	3.474374e-06	8.618219e-09	2.423685e+01	5.633384e+02
2.260000e-06	3.332016e-06	8.455364e-09	2.324378e+01	5.522088e+02
2.270000e-06	3.188483e-06	8.292902e-09	2.224251e+01	5.407645e+02
2.280000e-06	3.043717e-06	8.112186e-09	2.123264e+01	5.290199e+02
2.290000e-06	2.897787e-06	7.919955e-09	2.021465e+01	5.169860e+02
2.300000e-06	2.750878e-06	7.725547e-09	1.918982e+01	5.046670e+02
2.310000e-06	2.603041e-06	7.534984e-09	1.815853e+01	4.920574e+02
2.320000e-06	2.454315e-06	7.345549e-09	1.712103e+01	4.791403e+02
2.330000e-06	2.304695e-06	7.149258e-09	1.607730e+01	4.658876e+02
2.340000e-06	2.154202e-06	6.940655e-09	1.502748e+01	4.522627e+02
2.350000e-06	2.003025e-06	6.717681e-09	1.397288e+01	4.382233e+02
2.360000e-06	1.851204e-06	6.489140e-09	1.291380e+01	4.237266e+02
2.370000e-06	1.698787e-06	6.260612e-09	1.185055e+01	4.087337e+02
2.380000e-06	1.545893e-06	6.027077e-09	1.078398e+01	3.932142e+02
2.390000e-06	1.392496e-06	5.785358e-09	9.713897e+00	3.771482e+02
2.400000e-06	1.238557e-06	5.532656e-09	8.640035e+00	3.605276e+02
2.410000e-06	1.084126e-06	5.270367e-09	7.562746e+00	3.433539e+02
2.420000e-06	9.293261e-07	5.004510e-09	6.482877e+00	3.256338e+02
2.430000e-06	7.742750e-07	4.732972e-09	5.401257e+00	3.073737e+02
2.440000e-06	6.190446e-07	4.450078e-09	4.318387e+00	2.885718e+02
2.450000e-06	4.636124e-07	4.151734e-09	3.234109e+00	2.692110e+02
2.460000e-06	3.079592e-07	3.842474e-09	2.148289e+00	2.492530e+02
2.470000e-06	1.521486e-07	3.524081e-09	1.061372e+00	2.286349e+02
2.480000e-06	-3.733498e-09	3.193397e-09	-2.604447e-02	2.072686e+02
2.490000e-06	-1.595851e-07	2.848145e-09	-1.113248e+00	1.850448e+02
2.500000e-06	-3.153862e-07	2.487845e-09	-2.200099e+00	1.618414e+02
2.510000e-06	-4.711105e-07	2.112628e-09	-3.286415e+00	1.375347e+02
2.520000e-06	-6.266944e-07	1.724481e-09	-4.371752e+00	1.120141e+02
2.530000e-06	-7.821547e-07	1.324192e-09	-5.456226e+00	8.519742e+01
2.540000e-06	-9.374152e-07	9.061706e-10	-6.539306e+00	5.704616e+01
2.550000e-06	-1.092373e-06	4.648678e-10	-7.620273e+00	2.757818e+01
2.560000e-06	-1.246930e-06	1.430464e-13	-8.698447e+00	-3.123510e+00
2.570000e-06	-1.400982e-06	-4.840293e-10	-9.773094e+00	-3.490728e+01
2.580000e-06	-1.554439e-06	-9.868701e-10	-1.084359e+01	-6.755538e+01
2.590000e-06	-1.707232e-06	-1.502971e-09	-1.190946e+01	-1.007926e+02
2.600000e-06	-1.859388e-06	-2.025312e-09	-1.297089e+01	-1.343006e+02
2.610000e-06	-2.010942e-06	-2.547877e-09	-1.402811e+01	-1.677360e+02
2.620000e-06	-2.161832e-06	-3.062262e-09	-1.508070e+01	-2.007518e+02
2.630000e-06	-2.311899e-06	-3.559922e-09	-1.612756e+01	-2.330189e+02
2.640000e-06	-2.461010e-06	-4.033746e-09	-1.716774e+01	-2.642454e+02
2.650000e-06	-2.609199e-06	-4.485669e-09	-1.820148e+01	-2.941939e+02
2.660000e-06	-2.756448e-06	-4.915716e-09	-1.922868e+01	-3.226917e+02
2.670000e-06	-2.902694e-06	-5.324604e-09	-2.024887e+01	-3.496373e+02
2.680000e-06	-3.047824e-06	-5.711887e-09	-2.126129e+01	-3.749983e+02
2.690000e-06	-3.191759e-06	-6.075477e-09	-2.226536e+01	-3.988056e+02
2.700000e-06	-3.334478e-06	-6.416114e-09	-2.326095e+01	-4.211414e+02
2.710000e-06	-3.475840e-06	-6.735804e-09	-2.424708e+01	-4.421247e+02
2.720000e-06	-3.615837e-06	-7.039429e-09	-2.522368e+01	-4.618950e+02
2.730000e-06	-3.754509e-06	-7.331029e-09	-2.619104e+01	-4.805969e+02
2.740000e-06	-3.891800e-06	-7.609293e-09	-2.714877e+01	-4.983663e+02
2.750000e-06	-4.027693e-06	-7.873098e-09	-2.809675e+01	-5.153202e+02
2.760000e-06	-4.162150e-06	-8.124228e-09	-2.903470e+01	-5.315502e+02
2.770000e-06	-4.295098e-06	-8.362983e-09	-2.996213e+01	-5.471208e+02
2.780000e-06	-4.426516e-06	-8.590272e-09	-3.087889e+01	-5.620714e+02
2.790000e-06	-4.556450e-06	-8.807169e-09	-3.178529e+01	-5.764210e+02
2.800000e-06	-4.684869e-06	-9.015351e-09	-3.268113e+01	-5.901752e+02
2.810000e-06	-4.811647e-06	-9.215998e-09	-3.356552e+01	-6.033343e+02
2.820000e-06	-4.936719e-06	-9.408554e-09	-3.443801e+01	-6.158994e+02
2.830000e-06	-5.060053e-06	-9.592705e-09	-3.529838e+01	-6.278787e+02
2.840000e-06	-5.181591e-06	-9.768283e-09	-3.614621e+01	-6.392899e+02
2.850000e-06	-5.301227e-06	-9.934860e-09	-3.698078e+01	-6.501614e+02
2.860000e-06	-5.418802e-06	-1.009290e-08	-3.780097e+01	-6.605304e+02
2.870000e-06	-5.534142e-06	-1.024480e-08	-3.860557e+01	-6.704395e+02
2.880000e-06	-5.647263e-06	-1.039108e-08	-3.939469e+01	-6.799322e+02
2.890000e-06	-5.758249e-06	-1.053184e-08	-4.016892e+01	-6.890482e+02
2.900000e-06	-5.867129e-06	-1.066756e-08	-4.092845e+01	-6.978193e+02
2.910000e-06	-5.973940e-06	-1.079742e-08	-4.167355e+01	-7.062669e+02
2.920000e-06	-6.078641e-06	-1.092204e-08	-4.240393e+01	-7.144013e+02
2.930000e-06	-6.181018e-06	-1.104270e-08	-4.311810e+01	-7.222226e+02
2.940000e-06	-6.281086e-06	-1.115925e-08	-4.381617e+01	-7.297234e+02
