# Temperatura_=_42.62
# Concentracion g/m^3_=_15000.0
# C_Vs_to_Am_M_A/Vsm_=_65563218390.804596
# pendiente_HvsI_1/m_=_3716.3
# ordenada_HvsI_A/m_=_1297.0
# frecuencia_Hz_=_302339.13728380797

Tiempo_(s)	Campo_(V.s)	Magnetizacion_(V.s)	Campo_(kA/m)	Magnetizacion_(A/m)
0.000000e+00	-8.190855e-06	-1.080061e-08	-5.692049e+01	-7.062446e+02
1.000000e-08	-8.188578e-06	-1.080424e-08	-5.690467e+01	-7.060195e+02
2.000000e-08	-8.183588e-06	-1.080095e-08	-5.686999e+01	-7.056881e+02
3.000000e-08	-8.175929e-06	-1.079606e-08	-5.681677e+01	-7.052614e+02
4.000000e-08	-8.165373e-06	-1.079173e-08	-5.674341e+01	-7.047502e+02
5.000000e-08	-8.151847e-06	-1.078095e-08	-5.664941e+01	-7.041639e+02
6.000000e-08	-8.135420e-06	-1.076553e-08	-5.653526e+01	-7.035099e+02
7.000000e-08	-8.116478e-06	-1.074759e-08	-5.640362e+01	-7.027924e+02
8.000000e-08	-8.095261e-06	-1.072397e-08	-5.625618e+01	-7.020126e+02
9.000000e-08	-8.071271e-06	-1.077074e-08	-5.608947e+01	-7.011691e+02
1.000000e-07	-8.044003e-06	-1.077614e-08	-5.589998e+01	-7.002583e+02
1.100000e-07	-8.013523e-06	-1.070640e-08	-5.568816e+01	-6.992756e+02
1.200000e-07	-7.980015e-06	-1.067549e-08	-5.545531e+01	-6.982160e+02
1.300000e-07	-7.943644e-06	-1.065956e-08	-5.520256e+01	-6.970750e+02
1.400000e-07	-7.904842e-06	-1.063189e-08	-5.493291e+01	-6.958491e+02
1.500000e-07	-7.863730e-06	-1.056742e-08	-5.464721e+01	-6.945356e+02
1.600000e-07	-7.820190e-06	-1.059261e-08	-5.434464e+01	-6.931325e+02
1.700000e-07	-7.773960e-06	-1.059178e-08	-5.402337e+01	-6.916377e+02
1.800000e-07	-7.724763e-06	-1.045604e-08	-5.368149e+01	-6.900485e+02
1.900000e-07	-7.672668e-06	-1.053090e-08	-5.331947e+01	-6.883607e+02
2.000000e-07	-7.617704e-06	-1.051155e-08	-5.293751e+01	-6.865682e+02
2.100000e-07	-7.559924e-06	-1.042279e-08	-5.253598e+01	-6.846629e+02
2.200000e-07	-7.499457e-06	-1.043598e-08	-5.211578e+01	-6.826351e+02
2.300000e-07	-7.436360e-06	-1.037870e-08	-5.167730e+01	-6.804741e+02
2.400000e-07	-7.370484e-06	-1.036280e-08	-5.121951e+01	-6.781694e+02
2.500000e-07	-7.301675e-06	-1.027430e-08	-5.074133e+01	-6.757118e+02
2.600000e-07	-7.230058e-06	-1.026186e-08	-5.024365e+01	-6.730949e+02
2.700000e-07	-7.155612e-06	-1.022320e-08	-4.972631e+01	-6.703159e+02
2.800000e-07	-7.078278e-06	-1.015390e-08	-4.918889e+01	-6.673760e+02
2.900000e-07	-6.998111e-06	-1.010035e-08	-4.863179e+01	-6.642804e+02
3.000000e-07	-6.915425e-06	-1.006133e-08	-4.805718e+01	-6.610378e+02
3.100000e-07	-6.830443e-06	-1.005688e-08	-4.746662e+01	-6.576587e+02
3.200000e-07	-6.742994e-06	-9.964736e-09	-4.685891e+01	-6.541543e+02
3.300000e-07	-6.653051e-06	-9.910481e-09	-4.623387e+01	-6.505343e+02
3.400000e-07	-6.560686e-06	-9.873427e-09	-4.559200e+01	-6.468053e+02
3.500000e-07	-6.465945e-06	-9.811934e-09	-4.493362e+01	-6.429696e+02
3.600000e-07	-6.368844e-06	-9.733440e-09	-4.425884e+01	-6.390246e+02
3.700000e-07	-6.269442e-06	-9.670050e-09	-4.356807e+01	-6.349628e+02
3.800000e-07	-6.167787e-06	-9.622269e-09	-4.286164e+01	-6.307723e+02
3.900000e-07	-6.063799e-06	-9.539526e-09	-4.213900e+01	-6.264388e+02
4.000000e-07	-5.957623e-06	-9.465777e-09	-4.140115e+01	-6.219469e+02
4.100000e-07	-5.849474e-06	-9.403832e-09	-4.064960e+01	-6.172825e+02
4.200000e-07	-5.739250e-06	-9.340345e-09	-3.988362e+01	-6.124342e+02
4.300000e-07	-5.626872e-06	-9.246470e-09	-3.910267e+01	-6.073949e+02
4.400000e-07	-5.512384e-06	-9.155822e-09	-3.830706e+01	-6.021620e+02
4.500000e-07	-5.395796e-06	-9.083135e-09	-3.749686e+01	-5.967378e+02
4.600000e-07	-5.277137e-06	-9.009709e-09	-3.667227e+01	-5.911275e+02
4.700000e-07	-5.156544e-06	-8.918183e-09	-3.583423e+01	-5.853383e+02
4.800000e-07	-5.034167e-06	-8.825607e-09	-3.498380e+01	-5.793769e+02
4.900000e-07	-4.910007e-06	-8.735832e-09	-3.412098e+01	-5.732474e+02
5.000000e-07	-4.784113e-06	-8.633765e-09	-3.324611e+01	-5.669498e+02
5.100000e-07	-4.656487e-06	-8.527420e-09	-3.235920e+01	-5.604784e+02
5.200000e-07	-4.527126e-06	-8.424022e-09	-3.146024e+01	-5.538218e+02
5.300000e-07	-4.396050e-06	-8.324607e-09	-3.054935e+01	-5.469635e+02
5.400000e-07	-4.263328e-06	-8.211892e-09	-2.962704e+01	-5.398834e+02
5.500000e-07	-4.129107e-06	-8.097828e-09	-2.869430e+01	-5.325599e+02
5.600000e-07	-3.993270e-06	-7.983863e-09	-2.775032e+01	-5.249726e+02
5.700000e-07	-3.855795e-06	-7.867259e-09	-2.679497e+01	-5.171046e+02
5.800000e-07	-3.716824e-06	-7.737175e-09	-2.582922e+01	-5.089441e+02
5.900000e-07	-3.576329e-06	-7.604876e-09	-2.485289e+01	-5.004858e+02
6.000000e-07	-3.434311e-06	-7.473640e-09	-2.386597e+01	-4.917305e+02
6.100000e-07	-3.290961e-06	-7.337228e-09	-2.286979e+01	-4.826840e+02
6.200000e-07	-3.146418e-06	-7.195006e-09	-2.186532e+01	-4.733549e+02
6.300000e-07	-3.000689e-06	-7.046311e-09	-2.085261e+01	-4.637519e+02
6.400000e-07	-2.853883e-06	-6.895374e-09	-1.983242e+01	-4.538802e+02
6.500000e-07	-2.706187e-06	-6.737283e-09	-1.880604e+01	-4.437393e+02
6.600000e-07	-2.557581e-06	-6.577906e-09	-1.777333e+01	-4.333207e+02
6.700000e-07	-2.408091e-06	-6.414749e-09	-1.673448e+01	-4.226068e+02
6.800000e-07	-2.257804e-06	-6.247397e-09	-1.569010e+01	-4.115718e+02
6.900000e-07	-2.106641e-06	-6.071772e-09	-1.463962e+01	-4.001831e+02
7.000000e-07	-1.954660e-06	-5.888509e-09	-1.358346e+01	-3.884047e+02
7.100000e-07	-1.801992e-06	-5.701190e-09	-1.252254e+01	-3.762004e+02
7.200000e-07	-1.648706e-06	-5.506644e-09	-1.145731e+01	-3.635380e+02
7.300000e-07	-1.494923e-06	-5.306666e-09	-1.038863e+01	-3.503923e+02
7.400000e-07	-1.340702e-06	-5.099360e-09	-9.316908e+00	-3.367472e+02
7.500000e-07	-1.186035e-06	-4.884338e-09	-8.242080e+00	-3.225962e+02
7.600000e-07	-1.030885e-06	-4.663514e-09	-7.163900e+00	-3.079408e+02
7.700000e-07	-8.752921e-07	-4.435560e-09	-6.082644e+00	-2.927872e+02
7.800000e-07	-7.193945e-07	-4.197119e-09	-4.999269e+00	-2.771415e+02
7.900000e-07	-5.633038e-07	-3.951682e-09	-3.914552e+00	-2.610040e+02
8.000000e-07	-4.070855e-07	-3.699755e-09	-2.828948e+00	-2.443636e+02
8.100000e-07	-2.507387e-07	-3.438369e-09	-1.742452e+00	-2.271927e+02
8.200000e-07	-9.427951e-08	-3.164639e-09	-6.551741e-01	-2.094446e+02
8.300000e-07	6.225955e-08	-2.881898e-09	4.326586e-01	-1.910530e+02
8.400000e-07	2.188139e-07	-2.588249e-09	1.520598e+00	-1.719346e+02
8.500000e-07	3.752808e-07	-2.277806e-09	2.607929e+00	-1.519953e+02
8.600000e-07	5.316554e-07	-1.955461e-09	3.694618e+00	-1.311387e+02
8.700000e-07	6.879195e-07	-1.622676e-09	4.780541e+00	-1.092772e+02
8.800000e-07	8.440066e-07	-1.277987e-09	5.865233e+00	-8.634386e+01
8.900000e-07	9.998645e-07	-9.145233e-10	6.948331e+00	-6.230426e+01
9.000000e-07	1.155374e-06	-5.356599e-10	8.029008e+00	-3.716683e+01
9.100000e-07	1.310446e-06	-1.418819e-10	9.106649e+00	-1.099006e+01
9.200000e-07	1.465027e-06	2.697777e-10	1.018088e+01	1.611386e+01
9.300000e-07	1.619100e-06	6.943702e-10	1.125157e+01	4.398009e+01
9.400000e-07	1.772638e-06	1.129466e-09	1.231855e+01	7.239678e+01
9.500000e-07	1.925524e-06	1.569066e-09	1.338100e+01	1.011150e+02
9.600000e-07	2.077620e-06	2.011410e-09	1.443795e+01	1.298622e+02
9.700000e-07	2.228885e-06	2.448374e-09	1.548913e+01	1.583580e+02
9.800000e-07	2.379265e-06	2.872650e-09	1.653416e+01	1.863304e+02
9.900000e-07	2.528672e-06	3.284484e-09	1.757243e+01	2.135317e+02
1.000000e-06	2.677136e-06	3.681471e-09	1.860415e+01	2.397521e+02
1.010000e-06	2.824661e-06	4.059387e-09	1.962934e+01	2.648292e+02
1.020000e-06	2.971206e-06	4.416856e-09	2.064772e+01	2.886542e+02
1.030000e-06	3.116655e-06	4.755490e-09	2.165849e+01	3.111726e+02
1.040000e-06	3.260895e-06	5.075242e-09	2.266085e+01	3.323814e+02
1.050000e-06	3.403892e-06	5.376141e-09	2.365457e+01	3.523215e+02
1.060000e-06	3.545554e-06	5.661040e-09	2.463903e+01	3.710679e+02
1.070000e-06	3.685801e-06	5.931740e-09	2.561364e+01	3.887179e+02
1.080000e-06	3.824667e-06	6.187176e-09	2.657866e+01	4.053798e+02
1.090000e-06	3.962102e-06	6.428298e-09	2.753373e+01	4.211613e+02
1.100000e-06	4.098010e-06	6.658415e-09	2.847819e+01	4.361611e+02
1.110000e-06	4.232368e-06	6.876870e-09	2.941188e+01	4.504624e+02
1.120000e-06	4.365248e-06	7.083770e-09	3.033530e+01	4.641293e+02
1.130000e-06	4.496687e-06	7.281858e-09	3.124871e+01	4.772069e+02
1.140000e-06	4.626547e-06	7.472105e-09	3.215114e+01	4.897230e+02
1.150000e-06	4.754760e-06	7.651315e-09	3.304213e+01	5.016922e+02
1.160000e-06	4.881292e-06	7.820674e-09	3.392143e+01	5.131208e+02
1.170000e-06	5.006138e-06	7.980951e-09	3.478902e+01	5.240116e+02
1.180000e-06	5.129317e-06	8.133989e-09	3.564502e+01	5.343689e+02
1.190000e-06	5.250699e-06	8.282847e-09	3.648854e+01	5.442012e+02
1.200000e-06	5.370159e-06	8.427386e-09	3.731870e+01	5.535239e+02
1.210000e-06	5.487649e-06	8.566520e-09	3.813517e+01	5.623588e+02
1.220000e-06	5.603045e-06	8.698177e-09	3.893709e+01	5.707341e+02
1.230000e-06	5.716217e-06	8.823558e-09	3.972355e+01	5.786813e+02
1.240000e-06	5.827214e-06	8.940876e-09	4.049490e+01	5.862337e+02
1.250000e-06	5.936172e-06	9.049487e-09	4.125208e+01	5.934232e+02
1.260000e-06	6.043042e-06	9.151018e-09	4.199475e+01	6.002786e+02
1.270000e-06	6.147653e-06	9.247828e-09	4.272172e+01	6.068239e+02
1.280000e-06	6.249998e-06	9.339901e-09	4.343294e+01	6.130782e+02
1.290000e-06	6.350125e-06	9.427616e-09	4.412875e+01	6.190557e+02
1.300000e-06	6.447883e-06	9.512062e-09	4.480810e+01	6.247670e+02
1.310000e-06	6.543114e-06	9.593809e-09	4.546989e+01	6.302205e+02
1.320000e-06	6.635960e-06	9.673605e-09	4.611510e+01	6.354241e+02
1.330000e-06	6.726531e-06	9.749687e-09	4.674451e+01	6.403866e+02
1.340000e-06	6.814705e-06	9.821476e-09	4.735725e+01	6.451184e+02
1.350000e-06	6.900442e-06	9.888970e-09	4.795306e+01	6.496317e+02
1.360000e-06	6.983824e-06	9.954329e-09	4.853250e+01	6.539400e+02
1.370000e-06	7.064707e-06	1.001749e-08	4.909458e+01	6.580575e+02
1.380000e-06	7.142982e-06	1.007750e-08	4.963854e+01	6.619969e+02
1.390000e-06	7.218623e-06	1.013518e-08	5.016418e+01	6.657688e+02
1.400000e-06	7.291507e-06	1.018985e-08	5.067067e+01	6.693799e+02
1.410000e-06	7.361769e-06	1.024247e-08	5.115895e+01	6.728327e+02
1.420000e-06	7.429482e-06	1.029242e-08	5.162950e+01	6.761251e+02
1.430000e-06	7.494490e-06	1.033928e-08	5.208126e+01	6.792512e+02
1.440000e-06	7.556883e-06	1.038208e-08	5.251485e+01	6.822026e+02
1.450000e-06	7.616832e-06	1.042143e-08	5.293145e+01	6.849697e+02
1.460000e-06	7.674109e-06	1.045727e-08	5.332948e+01	6.875441e+02
1.470000e-06	7.728544e-06	1.049067e-08	5.370777e+01	6.899201e+02
1.480000e-06	7.779898e-06	1.052158e-08	5.406464e+01	6.920961e+02
1.490000e-06	7.828015e-06	1.055070e-08	5.439902e+01	6.940754e+02
1.500000e-06	7.873303e-06	1.057848e-08	5.471373e+01	6.958660e+02
1.510000e-06	7.915910e-06	1.060396e-08	5.500983e+01	6.974806e+02
1.520000e-06	7.955629e-06	1.062728e-08	5.528584e+01	6.989343e+02
1.530000e-06	7.992564e-06	1.064820e-08	5.554251e+01	7.002438e+02
1.540000e-06	8.026711e-06	1.066679e-08	5.577981e+01	7.014249e+02
1.550000e-06	8.057926e-06	1.068156e-08	5.599673e+01	7.024912e+02
1.560000e-06	8.086371e-06	1.069300e-08	5.619440e+01	7.034523e+02
1.570000e-06	8.111896e-06	1.070266e-08	5.637178e+01	7.043134e+02
1.580000e-06	8.134354e-06	1.071272e-08	5.652785e+01	7.050754e+02
1.590000e-06	8.153964e-06	1.072283e-08	5.666412e+01	7.057352e+02
1.600000e-06	8.170691e-06	1.073095e-08	5.678037e+01	7.062869e+02
1.610000e-06	8.184390e-06	1.073780e-08	5.687557e+01	7.067238e+02
1.620000e-06	8.194881e-06	1.074465e-08	5.694847e+01	7.070393e+02
1.630000e-06	8.202219e-06	1.074988e-08	5.699946e+01	7.072292e+02
1.640000e-06	8.206698e-06	1.075159e-08	5.703059e+01	7.072920e+02
1.650000e-06	8.208268e-06	1.075110e-08	5.704150e+01	7.072302e+02
1.660000e-06	8.206942e-06	1.074631e-08	5.703228e+01	7.070494e+02
1.670000e-06	8.202950e-06	1.073775e-08	5.700454e+01	7.067583e+02
1.680000e-06	8.196204e-06	1.073504e-08	5.695766e+01	7.063676e+02
1.690000e-06	8.186678e-06	1.072975e-08	5.689147e+01	7.058881e+02
1.700000e-06	8.174340e-06	1.072167e-08	5.680573e+01	7.053302e+02
1.710000e-06	8.159111e-06	1.071855e-08	5.669990e+01	7.047020e+02
1.720000e-06	8.141319e-06	1.071995e-08	5.657625e+01	7.040089e+02
1.730000e-06	8.121201e-06	1.071715e-08	5.643645e+01	7.032535e+02
1.740000e-06	8.098431e-06	1.061969e-08	5.627821e+01	7.024352e+02
1.750000e-06	8.072244e-06	1.061543e-08	5.609623e+01	7.015512e+02
1.760000e-06	8.042160e-06	1.064843e-08	5.588717e+01	7.005972e+02
1.770000e-06	8.008751e-06	1.061727e-08	5.565500e+01	6.995681e+02
1.780000e-06	7.972919e-06	1.060190e-08	5.540600e+01	6.984594e+02
1.790000e-06	7.934711e-06	1.066113e-08	5.514048e+01	6.972671e+02
1.800000e-06	7.894306e-06	1.062063e-08	5.485969e+01	6.959881e+02
1.810000e-06	7.851894e-06	1.048987e-08	5.456496e+01	6.946203e+02
1.820000e-06	7.806768e-06	1.063956e-08	5.425136e+01	6.931616e+02
1.830000e-06	7.758826e-06	1.053455e-08	5.391820e+01	6.916097e+02
1.840000e-06	7.708133e-06	1.050638e-08	5.356592e+01	6.899611e+02
1.850000e-06	7.654262e-06	1.053777e-08	5.319156e+01	6.882105e+02
1.860000e-06	7.597508e-06	1.040369e-08	5.279716e+01	6.863504e+02
1.870000e-06	7.537973e-06	1.047182e-08	5.238344e+01	6.843719e+02
1.880000e-06	7.475690e-06	1.035182e-08	5.195061e+01	6.822643e+02
1.890000e-06	7.410736e-06	1.039453e-08	5.149923e+01	6.800171e+02
1.900000e-06	7.342811e-06	1.039072e-08	5.102720e+01	6.776203e+02
1.910000e-06	7.271981e-06	1.026004e-08	5.053498e+01	6.750664e+02
1.920000e-06	7.198316e-06	1.026474e-08	5.002307e+01	6.723510e+02
1.930000e-06	7.121857e-06	1.018770e-08	4.949173e+01	6.694737e+02
1.940000e-06	7.042647e-06	1.021069e-08	4.894128e+01	6.664383e+02
1.950000e-06	6.960831e-06	1.010836e-08	4.837271e+01	6.632521e+02
1.960000e-06	6.876542e-06	1.007376e-08	4.778697e+01	6.599252e+02
1.970000e-06	6.789599e-06	1.004940e-08	4.718278e+01	6.564686e+02
1.980000e-06	6.700120e-06	9.931535e-09	4.656097e+01	6.528928e+02
1.990000e-06	6.608256e-06	9.906713e-09	4.592258e+01	6.492059e+02
2.000000e-06	6.514053e-06	9.849209e-09	4.526794e+01	6.454120e+02
2.010000e-06	6.417566e-06	9.826250e-09	4.459742e+01	6.415104e+02
2.020000e-06	6.318885e-06	9.714265e-09	4.391166e+01	6.374955e+02
2.030000e-06	6.217923e-06	9.660084e-09	4.321004e+01	6.333570e+02
2.040000e-06	6.114591e-06	9.608555e-09	4.249197e+01	6.290814e+02
2.050000e-06	6.009104e-06	9.542760e-09	4.175891e+01	6.246534e+02
2.060000e-06	5.901585e-06	9.465415e-09	4.101173e+01	6.200581e+02
2.070000e-06	5.792064e-06	9.380064e-09	4.025064e+01	6.152830e+02
2.080000e-06	5.680443e-06	9.325376e-09	3.947495e+01	6.103191e+02
2.090000e-06	5.566737e-06	9.233783e-09	3.868478e+01	6.051621e+02
2.100000e-06	5.450807e-06	9.164029e-09	3.787915e+01	5.998124e+02
2.110000e-06	5.332717e-06	9.083347e-09	3.705851e+01	5.942743e+02
2.120000e-06	5.212657e-06	9.003558e-09	3.622418e+01	5.885543e+02
2.130000e-06	5.090759e-06	8.887556e-09	3.537707e+01	5.826597e+02
2.140000e-06	4.967063e-06	8.798460e-09	3.451748e+01	5.765959e+02
2.150000e-06	4.841477e-06	8.719830e-09	3.364475e+01	5.703645e+02
2.160000e-06	4.714151e-06	8.635336e-09	3.275992e+01	5.639623e+02
2.170000e-06	4.585122e-06	8.528982e-09	3.186327e+01	5.573800e+02
2.180000e-06	4.454426e-06	8.413990e-09	3.095503e+01	5.506030e+02
2.190000e-06	4.322080e-06	8.306415e-09	3.003531e+01	5.436124e+02
2.200000e-06	4.188156e-06	8.192857e-09	2.910464e+01	5.363869e+02
2.210000e-06	4.052750e-06	8.085574e-09	2.816367e+01	5.289054e+02
2.220000e-06	3.915790e-06	7.972167e-09	2.721190e+01	5.211492e+02
2.230000e-06	3.777189e-06	7.852960e-09	2.624872e+01	5.131045e+02
2.240000e-06	3.637110e-06	7.716149e-09	2.527527e+01	5.047632e+02
2.250000e-06	3.495638e-06	7.584110e-09	2.429215e+01	4.961240e+02
2.260000e-06	3.352842e-06	7.454158e-09	2.329981e+01	4.871908e+02
2.270000e-06	3.208854e-06	7.320519e-09	2.229921e+01	4.779715e+02
2.280000e-06	3.063614e-06	7.175370e-09	2.128989e+01	4.684750e+02
2.290000e-06	2.917242e-06	7.026584e-09	2.027271e+01	4.587083e+02
2.300000e-06	2.769854e-06	6.877550e-09	1.924847e+01	4.486736e+02
2.310000e-06	2.621455e-06	6.724312e-09	1.821720e+01	4.383655e+02
2.320000e-06	2.472085e-06	6.563798e-09	1.717919e+01	4.277701e+02
2.330000e-06	2.321820e-06	6.392710e-09	1.613496e+01	4.168647e+02
2.340000e-06	2.170813e-06	6.213878e-09	1.508557e+01	4.056190e+02
2.350000e-06	2.019182e-06	6.034125e-09	1.403185e+01	3.939979e+02
2.360000e-06	1.866895e-06	5.854228e-09	1.297356e+01	3.819649e+02
2.370000e-06	1.713962e-06	5.667705e-09	1.191079e+01	3.694857e+02
2.380000e-06	1.560539e-06	5.468905e-09	1.084461e+01	3.565322e+02
2.390000e-06	1.406642e-06	5.261818e-09	9.775137e+00	3.430844e+02
2.400000e-06	1.252232e-06	5.048823e-09	8.702101e+00	3.291323e+02
2.410000e-06	1.097344e-06	4.829605e-09	7.625743e+00	3.146743e+02
2.420000e-06	9.420623e-07	4.606585e-09	6.546648e+00	2.997154e+02
2.430000e-06	7.865170e-07	4.376890e-09	5.465722e+00	2.842624e+02
2.440000e-06	6.307246e-07	4.134866e-09	4.383078e+00	2.683185e+02
2.450000e-06	4.746450e-07	3.880432e-09	3.298438e+00	2.518778e+02
2.460000e-06	3.183397e-07	3.620096e-09	2.212230e+00	2.349196e+02
2.470000e-06	1.619236e-07	3.351589e-09	1.125251e+00	2.174049e+02
2.480000e-06	5.450561e-09	3.070169e-09	3.787744e-02	1.992751e+02
2.490000e-06	-1.511033e-07	2.778915e-09	-1.050058e+00	1.804528e+02
2.500000e-06	-3.076307e-07	2.478923e-09	-2.137810e+00	1.608475e+02
2.510000e-06	-4.640474e-07	2.165296e-09	-3.224792e+00	1.403623e+02
2.520000e-06	-6.203400e-07	1.837642e-09	-4.310912e+00	1.189048e+02
2.530000e-06	-7.764390e-07	1.497379e-09	-5.395687e+00	9.639854e+01
2.540000e-06	-9.322986e-07	1.141794e-09	-6.478798e+00	7.279495e+01
2.550000e-06	-1.087821e-06	7.700039e-10	-7.559564e+00	4.808457e+01
2.560000e-06	-1.242939e-06	3.821095e-10	-8.637521e+00	2.230557e+01
2.570000e-06	-1.397563e-06	-2.256455e-11	-9.712050e+00	-4.451091e+00
2.580000e-06	-1.551569e-06	-4.433992e-10	-1.078228e+01	-3.204085e+01
2.590000e-06	-1.705013e-06	-8.783414e-10	-1.184860e+01	-6.026934e+01
2.600000e-06	-1.857885e-06	-1.321879e-09	-1.291095e+01	-8.890079e+01
2.610000e-06	-2.010035e-06	-1.768390e-09	-1.396828e+01	-1.176702e+02
2.620000e-06	-2.161494e-06	-2.214213e-09	-1.502081e+01	-1.462981e+02
2.630000e-06	-2.312167e-06	-2.650994e-09	-1.606788e+01	-1.745075e+02
2.640000e-06	-2.461940e-06	-3.072204e-09	-1.710870e+01	-2.020393e+02
2.650000e-06	-2.610814e-06	-3.477801e-09	-1.814326e+01	-2.286674e+02
2.660000e-06	-2.758690e-06	-3.866999e-09	-1.917089e+01	-2.542098e+02
2.670000e-06	-2.905481e-06	-4.237812e-09	-2.019098e+01	-2.785363e+02
2.680000e-06	-3.051146e-06	-4.587597e-09	-2.120325e+01	-3.015713e+02
2.690000e-06	-3.195708e-06	-4.915390e-09	-2.220785e+01	-3.232921e+02
2.700000e-06	-3.339086e-06	-5.224313e-09	-2.320422e+01	-3.437235e+02
2.710000e-06	-3.481145e-06	-5.517267e-09	-2.419143e+01	-3.629283e+02
2.720000e-06	-3.621878e-06	-5.795870e-09	-2.516942e+01	-3.809967e+02
2.730000e-06	-3.761235e-06	-6.061944e-09	-2.613785e+01	-3.980338e+02
2.740000e-06	-3.899132e-06	-6.312629e-09	-2.709613e+01	-4.141489e+02
2.750000e-06	-4.035595e-06	-6.548601e-09	-2.804445e+01	-4.294451e+02
2.760000e-06	-4.170624e-06	-6.775505e-09	-2.898280e+01	-4.440122e+02
2.770000e-06	-4.304222e-06	-6.992471e-09	-2.991122e+01	-4.579221e+02
2.780000e-06	-4.436284e-06	-7.197920e-09	-3.082895e+01	-4.712271e+02
2.790000e-06	-4.566776e-06	-7.393463e-09	-3.173577e+01	-4.839616e+02
2.800000e-06	-4.695715e-06	-7.578564e-09	-3.263181e+01	-4.961448e+02
2.810000e-06	-4.823024e-06	-7.753800e-09	-3.351651e+01	-5.077855e+02
2.820000e-06	-4.948670e-06	-7.920646e-09	-3.438966e+01	-5.188874e+02
2.830000e-06	-5.072546e-06	-8.079603e-09	-3.525051e+01	-5.294537e+02
2.840000e-06	-5.194625e-06	-8.231256e-09	-3.609887e+01	-5.394910e+02
2.850000e-06	-5.314906e-06	-8.375466e-09	-3.693473e+01	-5.490117e+02
2.860000e-06	-5.433200e-06	-8.513186e-09	-3.775679e+01	-5.580354e+02
2.870000e-06	-5.549213e-06	-8.645706e-09	-3.856300e+01	-5.665878e+02
2.880000e-06	-5.662866e-06	-8.772770e-09	-3.935280e+01	-5.746994e+02
2.890000e-06	-5.774263e-06	-8.892906e-09	-4.012693e+01	-5.824032e+02
2.900000e-06	-5.883585e-06	-9.006954e-09	-4.088664e+01	-5.897317e+02
2.910000e-06	-5.990946e-06	-9.115810e-09	-4.163272e+01	-5.967154e+02
2.920000e-06	-6.096233e-06	-9.219399e-09	-4.236439e+01	-6.033802e+02
2.930000e-06	-6.199221e-06	-9.317585e-09	-4.308008e+01	-6.097470e+02
2.940000e-06	-6.299835e-06	-9.410018e-09	-4.377928e+01	-6.158320e+02
