# Temperatura_=_78.89
# Concentracion g/m^3_=_15000.0
# C_Vs_to_Am_M_A/Vsm_=_65563218390.804596
# pendiente_HvsI_1/m_=_3716.3
# ordenada_HvsI_A/m_=_1297.0
# frecuencia_Hz_=_302342.9016905754

Tiempo_(s)	Campo_(V.s)	Magnetizacion_(V.s)	Campo_(kA/m)	Magnetizacion_(A/m)
0.000000e+00	-8.165847e-06	-1.317424e-08	-5.692124e+01	-8.618429e+02
1.000000e-08	-8.163572e-06	-1.317638e-08	-5.690538e+01	-8.614862e+02
2.000000e-08	-8.158595e-06	-1.316986e-08	-5.687069e+01	-8.609637e+02
3.000000e-08	-8.151037e-06	-1.315935e-08	-5.681800e+01	-8.602907e+02
4.000000e-08	-8.140614e-06	-1.315014e-08	-5.674534e+01	-8.594843e+02
5.000000e-08	-8.127265e-06	-1.313611e-08	-5.665229e+01	-8.585614e+02
6.000000e-08	-8.111042e-06	-1.311683e-08	-5.653921e+01	-8.575368e+02
7.000000e-08	-8.092225e-06	-1.309284e-08	-5.640805e+01	-8.564220e+02
8.000000e-08	-8.071077e-06	-1.306458e-08	-5.626063e+01	-8.552245e+02
9.000000e-08	-8.047239e-06	-1.309633e-08	-5.609446e+01	-8.539476e+02
1.000000e-07	-8.020199e-06	-1.309796e-08	-5.590598e+01	-8.525910e+02
1.100000e-07	-7.989933e-06	-1.303435e-08	-5.569500e+01	-8.511514e+02
1.200000e-07	-7.956638e-06	-1.299559e-08	-5.546291e+01	-8.496236e+02
1.300000e-07	-7.920471e-06	-1.296753e-08	-5.521081e+01	-8.480012e+02
1.400000e-07	-7.881829e-06	-1.291890e-08	-5.494145e+01	-8.462772e+02
1.500000e-07	-7.840915e-06	-1.283456e-08	-5.465625e+01	-8.444444e+02
1.600000e-07	-7.797632e-06	-1.284791e-08	-5.435454e+01	-8.424947e+02
1.700000e-07	-7.751637e-06	-1.285628e-08	-5.403392e+01	-8.404194e+02
1.800000e-07	-7.702725e-06	-1.273375e-08	-5.369298e+01	-8.382084e+02
1.900000e-07	-7.650917e-06	-1.275277e-08	-5.333184e+01	-8.358499e+02
2.000000e-07	-7.596173e-06	-1.271692e-08	-5.295024e+01	-8.333301e+02
2.100000e-07	-7.538586e-06	-1.264053e-08	-5.254882e+01	-8.306343e+02
2.200000e-07	-7.478304e-06	-1.263677e-08	-5.212862e+01	-8.277468e+02
2.300000e-07	-7.415385e-06	-1.258034e-08	-5.169003e+01	-8.246529e+02
2.400000e-07	-7.349723e-06	-1.254607e-08	-5.123232e+01	-8.213404e+02
2.500000e-07	-7.281256e-06	-1.243362e-08	-5.075506e+01	-8.178008e+02
2.600000e-07	-7.210033e-06	-1.238941e-08	-5.025859e+01	-8.140307e+02
2.700000e-07	-7.135905e-06	-1.234496e-08	-4.974187e+01	-8.100330e+02
2.800000e-07	-7.058893e-06	-1.226033e-08	-4.920505e+01	-8.058163e+02
2.900000e-07	-6.979107e-06	-1.217595e-08	-4.864889e+01	-8.013946e+02
3.000000e-07	-6.896722e-06	-1.211414e-08	-4.807461e+01	-7.967855e+02
3.100000e-07	-6.812012e-06	-1.208579e-08	-4.748413e+01	-7.920076e+02
3.200000e-07	-6.724911e-06	-1.199190e-08	-4.687698e+01	-7.870787e+02
3.300000e-07	-6.635284e-06	-1.192491e-08	-4.625222e+01	-7.820127e+02
3.400000e-07	-6.543243e-06	-1.185243e-08	-4.561063e+01	-7.768174e+02
3.500000e-07	-6.448879e-06	-1.175491e-08	-4.495286e+01	-7.714936e+02
3.600000e-07	-6.352189e-06	-1.165960e-08	-4.427887e+01	-7.660345e+02
3.700000e-07	-6.253164e-06	-1.158011e-08	-4.358860e+01	-7.604264e+02
3.800000e-07	-6.151841e-06	-1.151001e-08	-4.288231e+01	-7.546506e+02
3.900000e-07	-6.048315e-06	-1.141227e-08	-4.216067e+01	-7.486861e+02
4.000000e-07	-5.942619e-06	-1.130509e-08	-4.142390e+01	-7.425122e+02
4.100000e-07	-5.834869e-06	-1.119469e-08	-4.067281e+01	-7.361117e+02
4.200000e-07	-5.725051e-06	-1.110007e-08	-3.990731e+01	-7.294730e+02
4.300000e-07	-5.613116e-06	-1.100171e-08	-3.912705e+01	-7.225917e+02
4.400000e-07	-5.499059e-06	-1.089462e-08	-3.833200e+01	-7.154706e+02
4.500000e-07	-5.382810e-06	-1.077937e-08	-3.752167e+01	-7.081188e+02
4.600000e-07	-5.264529e-06	-1.066827e-08	-3.669717e+01	-7.005493e+02
4.700000e-07	-5.144424e-06	-1.055295e-08	-3.585996e+01	-6.927764e+02
4.800000e-07	-5.022504e-06	-1.042943e-08	-3.501010e+01	-6.848119e+02
4.900000e-07	-4.898762e-06	-1.031039e-08	-3.414754e+01	-6.766627e+02
5.000000e-07	-4.773293e-06	-1.018643e-08	-3.327294e+01	-6.683277e+02
5.100000e-07	-4.646172e-06	-1.004479e-08	-3.238682e+01	-6.597971e+02
5.200000e-07	-4.517345e-06	-9.899943e-09	-3.148881e+01	-6.510528e+02
5.300000e-07	-4.386762e-06	-9.772584e-09	-3.057857e+01	-6.420695e+02
5.400000e-07	-4.254519e-06	-9.633609e-09	-2.965675e+01	-6.328181e+02
5.500000e-07	-4.120744e-06	-9.473301e-09	-2.872425e+01	-6.232693e+02
5.600000e-07	-3.985459e-06	-9.310239e-09	-2.778122e+01	-6.133971e+02
5.700000e-07	-3.848607e-06	-9.161358e-09	-2.682728e+01	-6.031827e+02
5.800000e-07	-3.710166e-06	-9.004546e-09	-2.586226e+01	-5.926167e+02
5.900000e-07	-3.570158e-06	-8.838457e-09	-2.488631e+01	-5.816996e+02
6.000000e-07	-3.428685e-06	-8.676853e-09	-2.390015e+01	-5.704417e+02
6.100000e-07	-3.285882e-06	-8.506906e-09	-2.290473e+01	-5.588599e+02
6.200000e-07	-3.141754e-06	-8.317594e-09	-2.190006e+01	-5.469742e+02
6.300000e-07	-2.996426e-06	-8.123597e-09	-2.088703e+01	-5.348029e+02
6.400000e-07	-2.850039e-06	-7.938039e-09	-1.986661e+01	-5.223581e+02
6.500000e-07	-2.702650e-06	-7.745207e-09	-1.883922e+01	-5.096413e+02
6.600000e-07	-2.554421e-06	-7.540583e-09	-1.780597e+01	-4.966414e+02
6.700000e-07	-2.405395e-06	-7.330650e-09	-1.676716e+01	-4.833336e+02
6.800000e-07	-2.255580e-06	-7.122244e-09	-1.572285e+01	-4.696811e+02
6.900000e-07	-2.104942e-06	-6.905974e-09	-1.467281e+01	-4.556382e+02
7.000000e-07	-1.953551e-06	-6.683406e-09	-1.361751e+01	-4.411554e+02
7.100000e-07	-1.801575e-06	-6.458529e-09	-1.255815e+01	-4.261853e+02
7.200000e-07	-1.649035e-06	-6.225486e-09	-1.149484e+01	-4.106874e+02
7.300000e-07	-1.495916e-06	-5.984153e-09	-1.042750e+01	-3.946328e+02
7.400000e-07	-1.342173e-06	-5.733371e-09	-9.355815e+00	-3.780064e+02
7.500000e-07	-1.187898e-06	-5.474487e-09	-8.280418e+00	-3.608065e+02
7.600000e-07	-1.033164e-06	-5.205259e-09	-7.201820e+00	-3.430415e+02
7.700000e-07	-8.780673e-07	-4.925584e-09	-6.120697e+00	-3.247242e+02
7.800000e-07	-7.227456e-07	-4.633666e-09	-5.038004e+00	-3.058645e+02
7.900000e-07	-5.671613e-07	-4.336958e-09	-3.953481e+00	-2.864605e+02
8.000000e-07	-4.113676e-07	-4.035490e-09	-2.867498e+00	-2.664908e+02
8.100000e-07	-2.554238e-07	-3.721507e-09	-1.780469e+00	-2.459088e+02
8.200000e-07	-9.938226e-08	-3.392745e-09	-6.927586e-01	-2.246394e+02
8.300000e-07	5.673832e-08	-3.050216e-09	3.955028e-01	-2.025806e+02
8.400000e-07	2.129185e-07	-2.695510e-09	1.484179e+00	-1.796091e+02
8.500000e-07	3.690233e-07	-2.323530e-09	2.572331e+00	-1.555907e+02
8.600000e-07	5.250036e-07	-1.936243e-09	3.659615e+00	-1.303939e+02
8.700000e-07	6.808562e-07	-1.535528e-09	4.746008e+00	-1.039064e+02
8.800000e-07	8.365555e-07	-1.119095e-09	5.831333e+00	-7.605160e+01
8.900000e-07	9.920062e-07	-6.792583e-10	6.914925e+00	-4.680471e+01
9.000000e-07	1.147114e-06	-2.203403e-10	7.996128e+00	-1.620454e+01
9.100000e-07	1.301822e-06	2.549879e-10	9.074544e+00	1.563875e+01
9.200000e-07	1.455994e-06	7.522723e-10	1.014922e+01	4.854236e+01
9.300000e-07	1.609544e-06	1.268457e-09	1.121956e+01	8.225604e+01
9.400000e-07	1.762502e-06	1.797980e-09	1.228578e+01	1.164737e+02
9.500000e-07	1.914868e-06	2.329250e-09	1.334787e+01	1.508503e+02
9.600000e-07	2.066532e-06	2.856254e-09	1.440506e+01	1.850231e+02
9.700000e-07	2.217360e-06	3.372127e-09	1.545643e+01	2.186339e+02
9.800000e-07	2.367247e-06	3.868710e-09	1.650124e+01	2.513521e+02
9.900000e-07	2.516198e-06	4.342762e-09	1.753953e+01	2.828938e+02
1.000000e-06	2.664273e-06	4.792712e-09	1.857171e+01	3.130372e+02
1.010000e-06	2.811409e-06	5.216329e-09	1.959734e+01	3.416325e+02
1.020000e-06	2.957480e-06	5.616407e-09	2.061555e+01	3.686042e+02
1.030000e-06	3.102469e-06	5.998209e-09	2.162622e+01	3.939476e+02
1.040000e-06	3.246357e-06	6.359209e-09	2.262921e+01	4.177197e+02
1.050000e-06	3.388970e-06	6.701328e-09	2.362331e+01	4.400249e+02
1.060000e-06	3.530257e-06	7.025628e-09	2.460818e+01	4.609990e+02
1.070000e-06	3.670195e-06	7.332683e-09	2.558363e+01	4.807921e+02
1.080000e-06	3.808669e-06	7.621523e-09	2.654889e+01	4.995527e+02
1.090000e-06	3.945682e-06	7.894271e-09	2.750396e+01	5.174149e+02
1.100000e-06	4.081209e-06	8.154975e-09	2.844867e+01	5.344890e+02
1.110000e-06	4.215260e-06	8.402618e-09	2.938309e+01	5.508572e+02
1.120000e-06	4.347920e-06	8.639657e-09	3.030781e+01	5.665735e+02
1.130000e-06	4.479051e-06	8.865692e-09	3.122188e+01	5.816673e+02
1.140000e-06	4.608535e-06	9.083648e-09	3.212447e+01	5.961496e+02
1.150000e-06	4.736421e-06	9.291950e-09	3.301592e+01	6.100212e+02
1.160000e-06	4.862658e-06	9.488414e-09	3.389587e+01	6.232804e+02
1.170000e-06	4.987231e-06	9.675437e-09	3.476422e+01	6.359301e+02
1.180000e-06	5.110109e-06	9.855541e-09	3.562077e+01	6.479821e+02
1.190000e-06	5.231222e-06	1.003076e-08	3.646500e+01	6.594599e+02
1.200000e-06	5.350432e-06	1.019992e-08	3.729597e+01	6.703980e+02
1.210000e-06	5.467645e-06	1.036252e-08	3.811302e+01	6.808390e+02
1.220000e-06	5.582769e-06	1.051781e-08	3.891551e+01	6.908295e+02
1.230000e-06	5.695658e-06	1.066550e-08	3.970242e+01	7.004148e+02
1.240000e-06	5.806391e-06	1.080759e-08	4.047430e+01	7.096343e+02
1.250000e-06	5.915129e-06	1.094369e-08	4.123227e+01	7.185176e+02
1.260000e-06	6.021790e-06	1.107385e-08	4.197577e+01	7.270821e+02
1.270000e-06	6.126187e-06	1.120019e-08	4.270349e+01	7.353333e+02
1.280000e-06	6.228313e-06	1.132065e-08	4.341537e+01	7.432666e+02
1.290000e-06	6.328081e-06	1.143350e-08	4.411082e+01	7.508703e+02
1.300000e-06	6.425468e-06	1.154055e-08	4.478967e+01	7.581303e+02
1.310000e-06	6.520505e-06	1.164373e-08	4.545214e+01	7.650351e+02
1.320000e-06	6.613241e-06	1.174172e-08	4.609857e+01	7.715792e+02
1.330000e-06	6.703656e-06	1.183475e-08	4.672882e+01	7.777665e+02
1.340000e-06	6.791614e-06	1.192327e-08	4.734195e+01	7.836116e+02
1.350000e-06	6.877201e-06	1.200767e-08	4.793854e+01	7.891389e+02
1.360000e-06	6.960383e-06	1.208951e-08	4.851837e+01	7.943808e+02
1.370000e-06	7.041023e-06	1.216651e-08	4.908048e+01	7.993739e+02
1.380000e-06	7.119148e-06	1.223966e-08	4.962507e+01	8.041545e+02
1.390000e-06	7.194635e-06	1.230986e-08	5.015126e+01	8.087549e+02
1.400000e-06	7.267331e-06	1.237885e-08	5.065800e+01	8.131989e+02
1.410000e-06	7.337405e-06	1.244632e-08	5.114646e+01	8.174998e+02
1.420000e-06	7.404963e-06	1.250905e-08	5.161738e+01	8.216594e+02
1.430000e-06	7.469871e-06	1.256951e-08	5.206983e+01	8.256684e+02
1.440000e-06	7.532183e-06	1.262494e-08	5.250419e+01	8.295088e+02
1.450000e-06	7.591954e-06	1.267696e-08	5.292083e+01	8.331577e+02
1.460000e-06	7.649005e-06	1.272570e-08	5.331851e+01	8.365905e+02
1.470000e-06	7.703304e-06	1.277075e-08	5.369701e+01	8.397856e+02
1.480000e-06	7.754632e-06	1.281521e-08	5.405480e+01	8.427278e+02
1.490000e-06	7.802768e-06	1.285788e-08	5.439034e+01	8.454101e+02
1.500000e-06	7.848033e-06	1.289665e-08	5.470586e+01	8.478353e+02
1.510000e-06	7.890488e-06	1.293082e-08	5.500181e+01	8.500151e+02
1.520000e-06	7.930057e-06	1.296104e-08	5.527763e+01	8.519684e+02
1.530000e-06	7.966930e-06	1.298829e-08	5.553466e+01	8.537187e+02
1.540000e-06	8.001032e-06	1.301320e-08	5.577237e+01	8.552904e+02
1.550000e-06	8.032220e-06	1.303365e-08	5.598977e+01	8.567058e+02
1.560000e-06	8.060601e-06	1.305005e-08	5.618760e+01	8.579824e+02
1.570000e-06	8.086081e-06	1.306577e-08	5.636522e+01	8.591306e+02
1.580000e-06	8.108603e-06	1.308278e-08	5.652221e+01	8.601535e+02
1.590000e-06	8.128344e-06	1.309788e-08	5.665982e+01	8.610469e+02
1.600000e-06	8.145169e-06	1.310841e-08	5.677710e+01	8.618014e+02
1.610000e-06	8.158933e-06	1.311561e-08	5.687304e+01	8.624041e+02
1.620000e-06	8.169492e-06	1.312151e-08	5.694665e+01	8.628418e+02
1.630000e-06	8.176901e-06	1.312603e-08	5.699829e+01	8.631030e+02
1.640000e-06	8.181476e-06	1.312810e-08	5.703018e+01	8.631807e+02
1.650000e-06	8.183100e-06	1.312762e-08	5.704150e+01	8.630732e+02
1.660000e-06	8.181823e-06	1.312141e-08	5.703260e+01	8.627848e+02
1.670000e-06	8.177962e-06	1.311070e-08	5.700569e+01	8.623255e+02
1.680000e-06	8.171351e-06	1.310459e-08	5.695960e+01	8.617093e+02
1.690000e-06	8.161976e-06	1.309689e-08	5.689425e+01	8.609530e+02
1.700000e-06	8.149853e-06	1.308546e-08	5.680975e+01	8.600737e+02
1.710000e-06	8.134808e-06	1.307554e-08	5.670487e+01	8.590873e+02
1.720000e-06	8.117170e-06	1.306881e-08	5.658193e+01	8.580065e+02
1.730000e-06	8.097211e-06	1.305896e-08	5.644280e+01	8.568406e+02
1.740000e-06	8.074571e-06	1.296643e-08	5.628498e+01	8.555945e+02
1.750000e-06	8.048554e-06	1.294747e-08	5.610363e+01	8.542692e+02
1.760000e-06	8.018721e-06	1.296490e-08	5.589567e+01	8.528624e+02
1.770000e-06	7.985496e-06	1.292523e-08	5.566407e+01	8.513698e+02
1.780000e-06	7.949795e-06	1.289503e-08	5.541521e+01	8.497851e+02
1.790000e-06	7.911803e-06	1.294852e-08	5.515038e+01	8.481016e+02
1.800000e-06	7.871621e-06	1.291677e-08	5.487029e+01	8.463122e+02
1.810000e-06	7.829461e-06	1.279783e-08	5.457641e+01	8.444091e+02
1.820000e-06	7.784629e-06	1.291111e-08	5.426390e+01	8.423840e+02
1.830000e-06	7.736938e-06	1.281733e-08	5.393146e+01	8.402274e+02
1.840000e-06	7.686500e-06	1.279369e-08	5.357988e+01	8.379281e+02
1.850000e-06	7.632901e-06	1.281072e-08	5.320626e+01	8.354732e+02
1.860000e-06	7.576455e-06	1.268133e-08	5.281279e+01	8.328481e+02
1.870000e-06	7.517338e-06	1.269987e-08	5.240071e+01	8.300375e+02
1.880000e-06	7.455416e-06	1.255483e-08	5.196907e+01	8.270261e+02
1.890000e-06	7.390711e-06	1.255865e-08	5.151804e+01	8.238005e+02
1.900000e-06	7.323118e-06	1.256073e-08	5.104687e+01	8.203505e+02
1.910000e-06	7.252663e-06	1.246301e-08	5.055575e+01	8.166707e+02
1.920000e-06	7.179306e-06	1.243318e-08	5.004441e+01	8.127614e+02
1.930000e-06	7.103206e-06	1.231955e-08	4.951394e+01	8.086291e+02
1.940000e-06	7.024351e-06	1.230226e-08	4.896427e+01	8.042858e+02
1.950000e-06	6.942801e-06	1.220348e-08	4.839581e+01	7.997478e+02
1.960000e-06	6.858787e-06	1.215021e-08	4.781018e+01	7.950337e+02
1.970000e-06	6.772130e-06	1.209145e-08	4.720613e+01	7.901620e+02
1.980000e-06	6.682907e-06	1.196247e-08	4.658419e+01	7.851483e+02
1.990000e-06	6.591348e-06	1.191104e-08	4.594596e+01	7.800030e+02
2.000000e-06	6.497508e-06	1.182485e-08	4.529183e+01	7.747298e+02
2.010000e-06	6.401328e-06	1.178574e-08	4.462140e+01	7.693249e+02
2.020000e-06	6.302877e-06	1.166868e-08	4.393513e+01	7.637770e+02
2.030000e-06	6.202249e-06	1.156219e-08	4.323369e+01	7.580693e+02
2.040000e-06	6.099299e-06	1.146715e-08	4.251606e+01	7.521813e+02
2.050000e-06	5.994151e-06	1.138670e-08	4.178311e+01	7.460917e+02
2.060000e-06	5.887001e-06	1.131312e-08	4.103621e+01	7.397817e+02
2.070000e-06	5.777858e-06	1.120358e-08	4.027541e+01	7.332373e+02
2.080000e-06	5.666601e-06	1.109931e-08	3.949988e+01	7.264511e+02
2.090000e-06	5.553226e-06	1.097028e-08	3.870958e+01	7.194231e+02
2.100000e-06	5.437766e-06	1.086339e-08	3.790475e+01	7.121603e+02
2.110000e-06	5.320218e-06	1.076186e-08	3.708536e+01	7.046743e+02
2.120000e-06	5.200612e-06	1.067876e-08	3.625163e+01	6.969794e+02
2.130000e-06	5.079058e-06	1.054445e-08	3.540432e+01	6.890888e+02
2.140000e-06	4.955735e-06	1.039546e-08	3.454468e+01	6.810116e+02
2.150000e-06	4.830693e-06	1.026510e-08	3.367306e+01	6.727500e+02
2.160000e-06	4.703877e-06	1.015546e-08	3.278907e+01	6.642977e+02
2.170000e-06	4.575268e-06	1.003587e-08	3.189258e+01	6.556398e+02
2.180000e-06	4.445018e-06	9.892843e-09	3.098465e+01	6.467534e+02
2.190000e-06	4.313182e-06	9.750374e-09	3.006567e+01	6.376107e+02
2.200000e-06	4.179834e-06	9.599924e-09	2.913615e+01	6.281818e+02
2.210000e-06	4.044862e-06	9.451282e-09	2.819531e+01	6.184391e+02
2.220000e-06	3.908230e-06	9.305232e-09	2.724289e+01	6.083606e+02
2.230000e-06	3.770092e-06	9.158383e-09	2.627998e+01	5.979329e+02
2.240000e-06	3.630606e-06	8.979128e-09	2.530767e+01	5.871528e+02
2.250000e-06	3.489737e-06	8.794449e-09	2.432573e+01	5.760268e+02
2.260000e-06	3.347444e-06	8.627063e-09	2.333385e+01	5.645697e+02
2.270000e-06	3.203847e-06	8.470578e-09	2.233289e+01	5.528007e+02
2.280000e-06	3.059011e-06	8.299529e-09	2.132328e+01	5.407395e+02
2.290000e-06	2.913044e-06	8.106586e-09	2.030580e+01	5.284010e+02
2.300000e-06	2.766090e-06	7.906703e-09	1.928143e+01	5.157914e+02
2.310000e-06	2.618230e-06	7.705869e-09	1.825075e+01	5.029046e+02
2.320000e-06	2.469504e-06	7.506630e-09	1.721404e+01	4.897213e+02
2.330000e-06	2.320010e-06	7.307025e-09	1.617197e+01	4.762090e+02
2.340000e-06	2.169707e-06	7.095376e-09	1.512426e+01	4.623250e+02
2.350000e-06	2.018560e-06	6.864866e-09	1.407067e+01	4.480207e+02
2.360000e-06	1.866632e-06	6.627453e-09	1.301164e+01	4.332471e+02
2.370000e-06	1.714101e-06	6.394239e-09	1.194839e+01	4.179604e+02
2.380000e-06	1.561075e-06	6.160230e-09	1.088170e+01	4.021269e+02
2.390000e-06	1.407569e-06	5.916517e-09	9.811669e+00	3.857258e+02
2.400000e-06	1.253558e-06	5.657570e-09	8.738114e+00	3.687504e+02
2.410000e-06	1.099086e-06	5.386591e-09	7.661341e+00	3.512057e+02
2.420000e-06	9.442571e-07	5.114871e-09	6.582083e+00	3.331036e+02
2.430000e-06	7.891303e-07	4.840695e-09	5.500749e+00	3.144561e+02
2.440000e-06	6.337125e-07	4.555265e-09	4.417386e+00	2.952670e+02
2.450000e-06	4.780552e-07	4.251913e-09	3.332354e+00	2.755233e+02
2.460000e-06	3.222374e-07	3.933744e-09	2.246203e+00	2.551890e+02
2.470000e-06	1.662418e-07	3.607774e-09	1.158813e+00	2.342001e+02
2.480000e-06	1.008234e-08	3.273153e-09	7.028044e-02	2.124649e+02
2.490000e-06	-1.461285e-07	2.926645e-09	-1.018610e+00	1.898674e+02
2.500000e-06	-3.022699e-07	2.562409e-09	-2.107017e+00	1.662762e+02
2.510000e-06	-4.582807e-07	2.177226e-09	-3.194513e+00	1.415569e+02
2.520000e-06	-6.141323e-07	1.778313e-09	-4.280899e+00	1.155877e+02
2.530000e-06	-7.697347e-07	1.370605e-09	-5.365549e+00	8.827590e+01
2.540000e-06	-9.250747e-07	9.478675e-10	-6.448369e+00	5.957478e+01
2.550000e-06	-1.080096e-06	5.007585e-10	-7.528967e+00	2.949690e+01
2.560000e-06	-1.234695e-06	2.654689e-11	-8.606621e+00	-1.876099e+00
2.570000e-06	-1.388808e-06	-4.712235e-10	-9.680891e+00	-3.438972e+01
2.580000e-06	-1.542417e-06	-9.870849e-10	-1.075164e+01	-6.781916e+01
2.590000e-06	-1.695554e-06	-1.514984e-09	-1.181911e+01	-1.018785e+02
2.600000e-06	-1.848109e-06	-2.050166e-09	-1.288251e+01	-1.362357e+02
2.610000e-06	-1.999930e-06	-2.586819e-09	-1.394081e+01	-1.705323e+02
2.620000e-06	-2.150944e-06	-3.118435e-09	-1.499347e+01	-2.044056e+02
2.630000e-06	-2.301104e-06	-3.632225e-09	-1.604018e+01	-2.375116e+02
2.640000e-06	-2.450409e-06	-4.116784e-09	-1.708093e+01	-2.695458e+02
2.650000e-06	-2.598842e-06	-4.576172e-09	-1.811561e+01	-3.002608e+02
2.660000e-06	-2.746238e-06	-5.015864e-09	-1.914305e+01	-3.294777e+02
2.670000e-06	-2.892591e-06	-5.434505e-09	-2.016323e+01	-3.570918e+02
2.680000e-06	-3.037982e-06	-5.829211e-09	-2.117670e+01	-3.830715e+02
2.690000e-06	-3.182235e-06	-6.200768e-09	-2.218224e+01	-4.074510e+02
2.700000e-06	-3.325174e-06	-6.551587e-09	-2.317861e+01	-4.303179e+02
2.710000e-06	-3.466824e-06	-6.883045e-09	-2.416601e+01	-4.517977e+02
2.720000e-06	-3.607126e-06	-7.196880e-09	-2.514400e+01	-4.720369e+02
2.730000e-06	-3.745985e-06	-7.497620e-09	-2.611194e+01	-4.911864e+02
2.740000e-06	-3.883510e-06	-7.783859e-09	-2.707058e+01	-5.093871e+02
2.750000e-06	-4.019659e-06	-8.050447e-09	-2.801962e+01	-5.267597e+02
2.760000e-06	-4.154287e-06	-8.302216e-09	-2.895806e+01	-5.433975e+02
2.770000e-06	-4.287461e-06	-8.544610e-09	-2.988638e+01	-5.593655e+02
2.780000e-06	-4.419122e-06	-8.778764e-09	-3.080414e+01	-5.747019e+02
2.790000e-06	-4.549281e-06	-9.003305e-09	-3.171143e+01	-5.894242e+02
2.800000e-06	-4.677932e-06	-9.217623e-09	-3.260821e+01	-6.035362e+02
2.810000e-06	-4.804910e-06	-9.423600e-09	-3.349333e+01	-6.170363e+02
2.820000e-06	-4.930240e-06	-9.622340e-09	-3.436696e+01	-6.299249e+02
2.830000e-06	-5.053816e-06	-9.812778e-09	-3.522836e+01	-6.422098e+02
2.840000e-06	-5.175576e-06	-9.993166e-09	-3.607711e+01	-6.539099e+02
2.850000e-06	-5.295464e-06	-1.016376e-08	-3.691281e+01	-6.650556e+02
2.860000e-06	-5.413327e-06	-1.032472e-08	-3.773439e+01	-6.756867e+02
2.870000e-06	-5.528989e-06	-1.047876e-08	-3.854063e+01	-6.858488e+02
2.880000e-06	-5.642410e-06	-1.062805e-08	-3.933125e+01	-6.955884e+02
2.890000e-06	-5.753598e-06	-1.077203e-08	-4.010630e+01	-7.049478e+02
2.900000e-06	-5.862626e-06	-1.091174e-08	-4.086629e+01	-7.139606e+02
2.910000e-06	-5.969692e-06	-1.104625e-08	-4.161262e+01	-7.226493e+02
2.920000e-06	-6.074662e-06	-1.117455e-08	-4.234432e+01	-7.310239e+02
2.930000e-06	-6.177358e-06	-1.129778e-08	-4.306018e+01	-7.390835e+02
2.940000e-06	-6.277716e-06	-1.141679e-08	-4.375974e+01	-7.468185e+02
