# Temperatura_=_53.6
# Concentracion g/m^3_=_15000.0
# C_Vs_to_Am_M_A/Vsm_=_65563218390.804596
# pendiente_HvsI_1/m_=_3716.3
# ordenada_HvsI_A/m_=_1297.0
# frecuencia_Hz_=_302340.5517780618

Tiempo_(s)	Campo_(V.s)	Magnetizacion_(V.s)	Campo_(kA/m)	Magnetizacion_(A/m)
0.000000e+00	-8.183789e-06	-1.114069e-08	-5.690406e+01	-7.275400e+02
1.000000e-08	-8.178932e-06	-1.113664e-08	-5.687029e+01	-7.271761e+02
2.000000e-08	-8.171512e-06	-1.112733e-08	-5.681870e+01	-7.266987e+02
3.000000e-08	-8.161226e-06	-1.111900e-08	-5.674718e+01	-7.261221e+02
4.000000e-08	-8.147956e-06	-1.110746e-08	-5.665491e+01	-7.254605e+02
5.000000e-08	-8.131688e-06	-1.109304e-08	-5.654179e+01	-7.247262e+02
6.000000e-08	-8.112829e-06	-1.107825e-08	-5.641066e+01	-7.239281e+02
7.000000e-08	-8.091771e-06	-1.105066e-08	-5.626424e+01	-7.230711e+02
8.000000e-08	-8.068041e-06	-1.108380e-08	-5.609924e+01	-7.221561e+02
9.000000e-08	-8.041096e-06	-1.110739e-08	-5.591188e+01	-7.211803e+02
1.000000e-07	-8.010927e-06	-1.104003e-08	-5.570211e+01	-7.201378e+02
1.100000e-07	-7.977714e-06	-1.099706e-08	-5.547117e+01	-7.190209e+02
1.200000e-07	-7.941609e-06	-1.097677e-08	-5.522013e+01	-7.178212e+02
1.300000e-07	-7.903039e-06	-1.094772e-08	-5.495194e+01	-7.165301e+02
1.400000e-07	-7.862157e-06	-1.089054e-08	-5.466767e+01	-7.151402e+02
1.500000e-07	-7.818828e-06	-1.089652e-08	-5.436639e+01	-7.136448e+02
1.600000e-07	-7.772838e-06	-1.093748e-08	-5.404662e+01	-7.120382e+02
1.700000e-07	-7.723948e-06	-1.079319e-08	-5.370667e+01	-7.103155e+02
1.800000e-07	-7.672117e-06	-1.083674e-08	-5.334627e+01	-7.084716e+02
1.900000e-07	-7.617345e-06	-1.084012e-08	-5.296543e+01	-7.065013e+02
2.000000e-07	-7.559773e-06	-1.071742e-08	-5.256512e+01	-7.043986e+02
2.100000e-07	-7.499508e-06	-1.071959e-08	-5.214608e+01	-7.021569e+02
2.200000e-07	-7.436612e-06	-1.066107e-08	-5.170874e+01	-6.997692e+02
2.300000e-07	-7.370954e-06	-1.066025e-08	-5.125221e+01	-6.972289e+02
2.400000e-07	-7.302446e-06	-1.057979e-08	-5.077586e+01	-6.945304e+02
2.500000e-07	-7.231217e-06	-1.055191e-08	-5.028058e+01	-6.916704e+02
2.600000e-07	-7.157054e-06	-1.052330e-08	-4.976491e+01	-6.886480e+02
2.700000e-07	-7.079941e-06	-1.044342e-08	-4.922872e+01	-6.854655e+02
2.800000e-07	-7.000015e-06	-1.039012e-08	-4.867297e+01	-6.821286e+02
2.900000e-07	-6.917474e-06	-1.034295e-08	-4.809904e+01	-6.786452e+02
3.000000e-07	-6.832640e-06	-1.033546e-08	-4.750916e+01	-6.750249e+02
3.100000e-07	-6.745435e-06	-1.024571e-08	-4.690280e+01	-6.712773e+02
3.200000e-07	-6.655747e-06	-1.017107e-08	-4.627919e+01	-6.674109e+02
3.300000e-07	-6.563669e-06	-1.013206e-08	-4.563894e+01	-6.634312e+02
3.400000e-07	-6.469240e-06	-1.006298e-08	-4.498235e+01	-6.593398e+02
3.500000e-07	-6.372413e-06	-9.986600e-09	-4.430908e+01	-6.551335e+02
3.600000e-07	-6.273207e-06	-9.919472e-09	-4.361928e+01	-6.508048e+02
3.700000e-07	-6.171766e-06	-9.872386e-09	-4.291394e+01	-6.463423e+02
3.800000e-07	-6.068091e-06	-9.789835e-09	-4.219305e+01	-6.417320e+02
3.900000e-07	-5.962200e-06	-9.701409e-09	-4.145676e+01	-6.369592e+02
4.000000e-07	-5.854250e-06	-9.628602e-09	-4.070616e+01	-6.320099e+02
4.100000e-07	-5.744289e-06	-9.556343e-09	-3.994157e+01	-6.268733e+02
4.200000e-07	-5.632183e-06	-9.469575e-09	-3.916207e+01	-6.215421e+02
4.300000e-07	-5.517913e-06	-9.376191e-09	-3.836752e+01	-6.160138e+02
4.400000e-07	-5.401514e-06	-9.299773e-09	-3.755817e+01	-6.102902e+02
4.500000e-07	-5.283083e-06	-9.219941e-09	-3.673468e+01	-6.043766e+02
4.600000e-07	-5.162770e-06	-9.123132e-09	-3.589812e+01	-5.982798e+02
4.700000e-07	-5.040643e-06	-9.019455e-09	-3.504893e+01	-5.920065e+02
4.800000e-07	-4.916688e-06	-8.922086e-09	-3.418704e+01	-5.855612e+02
4.900000e-07	-4.791000e-06	-8.821415e-09	-3.331310e+01	-5.789442e+02
5.000000e-07	-4.663643e-06	-8.711031e-09	-3.242755e+01	-5.721505e+02
5.100000e-07	-4.534562e-06	-8.601830e-09	-3.153002e+01	-5.651695e+02
5.200000e-07	-4.403786e-06	-8.495252e-09	-3.062070e+01	-5.579855e+02
5.300000e-07	-4.271324e-06	-8.379905e-09	-2.969965e+01	-5.505789e+02
5.400000e-07	-4.137313e-06	-8.255923e-09	-2.876784e+01	-5.429286e+02
5.500000e-07	-4.001741e-06	-8.132724e-09	-2.782517e+01	-5.350144e+02
5.600000e-07	-3.864586e-06	-8.013569e-09	-2.687150e+01	-5.268190e+02
5.700000e-07	-3.725890e-06	-7.881715e-09	-2.590710e+01	-5.183300e+02
5.800000e-07	-3.585572e-06	-7.744087e-09	-2.493144e+01	-5.095412e+02
5.900000e-07	-3.443699e-06	-7.605359e-09	-2.394496e+01	-5.004523e+02
6.000000e-07	-3.300503e-06	-7.462329e-09	-2.294928e+01	-4.910679e+02
6.100000e-07	-3.156137e-06	-7.311126e-09	-2.194546e+01	-4.813956e+02
6.200000e-07	-3.010578e-06	-7.155428e-09	-2.093335e+01	-4.714429e+02
6.300000e-07	-2.863888e-06	-7.001181e-09	-1.991338e+01	-4.612148e+02
6.400000e-07	-2.716243e-06	-6.842132e-09	-1.888676e+01	-4.507103e+02
6.500000e-07	-2.567754e-06	-6.678992e-09	-1.785428e+01	-4.399211e+02
6.600000e-07	-2.418455e-06	-6.510206e-09	-1.681616e+01	-4.288302e+02
6.700000e-07	-2.268306e-06	-6.335521e-09	-1.577214e+01	-4.174126e+02
6.800000e-07	-2.117319e-06	-6.150570e-09	-1.472228e+01	-4.056369e+02
6.900000e-07	-1.965549e-06	-5.959338e-09	-1.366698e+01	-3.934683e+02
7.000000e-07	-1.813024e-06	-5.763915e-09	-1.260644e+01	-3.808719e+02
7.100000e-07	-1.659886e-06	-5.564503e-09	-1.154163e+01	-3.678168e+02
7.200000e-07	-1.506264e-06	-5.360573e-09	-1.047346e+01	-3.542787e+02
7.300000e-07	-1.352145e-06	-5.149965e-09	-9.401827e+00	-3.402421e+02
7.400000e-07	-1.197592e-06	-4.930944e-09	-8.327174e+00	-3.257007e+02
7.500000e-07	-1.042634e-06	-4.704878e-09	-7.249711e+00	-3.106554e+02
7.600000e-07	-8.872604e-07	-4.472618e-09	-6.169358e+00	-2.951113e+02
7.700000e-07	-7.315525e-07	-4.228834e-09	-5.086679e+00	-2.790725e+02
7.800000e-07	-5.755886e-07	-3.977343e-09	-4.002221e+00	-2.625363e+02
7.900000e-07	-4.194427e-07	-3.717977e-09	-2.916497e+00	-2.454879e+02
8.000000e-07	-2.631441e-07	-3.450283e-09	-1.829711e+00	-2.278954e+02
8.100000e-07	-1.067455e-07	-3.168707e-09	-7.422300e-01	-2.097067e+02
8.200000e-07	4.969901e-08	-2.874826e-09	3.455704e-01	-1.908501e+02
8.300000e-07	2.061390e-07	-2.570208e-09	1.433339e+00	-1.712369e+02
8.400000e-07	3.625149e-07	-2.250822e-09	2.520663e+00	-1.507678e+02
8.500000e-07	5.188284e-07	-1.921269e-09	3.607552e+00	-1.293425e+02
8.600000e-07	6.750221e-07	-1.581746e-09	4.693608e+00	-1.068707e+02
8.700000e-07	8.310617e-07	-1.229128e-09	5.778594e+00	-8.328502e+01
8.800000e-07	9.868501e-07	-8.554177e-10	6.861832e+00	-5.855288e+01
8.900000e-07	1.142281e-06	-4.646127e-10	7.942587e+00	-3.268713e+01
9.000000e-07	1.297261e-06	-5.891952e-11	9.020202e+00	-5.753485e+00
9.100000e-07	1.451698e-06	3.627986e-10	1.009404e+01	2.212622e+01
9.200000e-07	1.605625e-06	7.997182e-10	1.116434e+01	5.077537e+01
9.300000e-07	1.759023e-06	1.249353e-09	1.223096e+01	7.996895e+01
9.400000e-07	1.911879e-06	1.704267e-09	1.329380e+01	1.094443e+02
9.500000e-07	2.064110e-06	2.159677e-09	1.435231e+01	1.389154e+02
9.600000e-07	2.215505e-06	2.606018e-09	1.540500e+01	1.680898e+02
9.700000e-07	2.365931e-06	3.038314e-09	1.645095e+01	1.966857e+02
9.800000e-07	2.515331e-06	3.457080e-09	1.748977e+01	2.244485e+02
9.900000e-07	2.663773e-06	3.860980e-09	1.852193e+01	2.511648e+02
1.000000e-06	2.811252e-06	4.245464e-09	1.954738e+01	2.766724e+02
1.010000e-06	2.957645e-06	4.608106e-09	2.056529e+01	3.008661e+02
1.020000e-06	3.102990e-06	4.950729e-09	2.157592e+01	3.236980e+02
1.030000e-06	3.247245e-06	5.273273e-09	2.257896e+01	3.451739e+02
1.040000e-06	3.390239e-06	5.578464e-09	2.357323e+01	3.653450e+02
1.050000e-06	3.531923e-06	5.866847e-09	2.455840e+01	3.842966e+02
1.060000e-06	3.672276e-06	6.140419e-09	2.553432e+01	4.021364e+02
1.070000e-06	3.811207e-06	6.398489e-09	2.650034e+01	4.189810e+02
1.080000e-06	3.948727e-06	6.642841e-09	2.745655e+01	4.349448e+02
1.090000e-06	4.084798e-06	6.877461e-09	2.840269e+01	4.501306e+02
1.100000e-06	4.219314e-06	7.097889e-09	2.933801e+01	4.646234e+02
1.110000e-06	4.352339e-06	7.306068e-09	3.026297e+01	4.784872e+02
1.120000e-06	4.483802e-06	7.505225e-09	3.117707e+01	4.917654e+02
1.130000e-06	4.613669e-06	7.696808e-09	3.208007e+01	5.044829e+02
1.140000e-06	4.741985e-06	7.877740e-09	3.297229e+01	5.166515e+02
1.150000e-06	4.868610e-06	8.049648e-09	3.385274e+01	5.282748e+02
1.160000e-06	4.993545e-06	8.215784e-09	3.472145e+01	5.393542e+02
1.170000e-06	5.116785e-06	8.375048e-09	3.557837e+01	5.498937e+02
1.180000e-06	5.238290e-06	8.527883e-09	3.642323e+01	5.599030e+02
1.190000e-06	5.357906e-06	8.675194e-09	3.725495e+01	5.693994e+02
1.200000e-06	5.475468e-06	8.815224e-09	3.807239e+01	5.784080e+02
1.210000e-06	5.590986e-06	8.946797e-09	3.887561e+01	5.869598e+02
1.220000e-06	5.704348e-06	9.070463e-09	3.966385e+01	5.950893e+02
1.230000e-06	5.815451e-06	9.188797e-09	4.043638e+01	6.028318e+02
1.240000e-06	5.924413e-06	9.300900e-09	4.119402e+01	6.102199e+02
1.250000e-06	6.031324e-06	9.406067e-09	4.193740e+01	6.172814e+02
1.260000e-06	6.136076e-06	9.509961e-09	4.266577e+01	6.240382e+02
1.270000e-06	6.238540e-06	9.609284e-09	4.337823e+01	6.305059e+02
1.280000e-06	6.338701e-06	9.701921e-09	4.407468e+01	6.366944e+02
1.290000e-06	6.436521e-06	9.788537e-09	4.475485e+01	6.426099e+02
1.300000e-06	6.531898e-06	9.870648e-09	4.541803e+01	6.482571e+02
1.310000e-06	6.624941e-06	9.949438e-09	4.606498e+01	6.536411e+02
1.320000e-06	6.715706e-06	1.002313e-08	4.669609e+01	6.587692e+02
1.330000e-06	6.804039e-06	1.009501e-08	4.731029e+01	6.636524e+02
1.340000e-06	6.889943e-06	1.016670e-08	4.790761e+01	6.683049e+02
1.350000e-06	6.973424e-06	1.023726e-08	4.848808e+01	6.727441e+02
1.360000e-06	7.054408e-06	1.030458e-08	4.905118e+01	6.769886e+02
1.370000e-06	7.132838e-06	1.036782e-08	4.959652e+01	6.810563e+02
1.380000e-06	7.208619e-06	1.042708e-08	5.012345e+01	6.849623e+02
1.390000e-06	7.281695e-06	1.048160e-08	5.063157e+01	6.887170e+02
1.400000e-06	7.352119e-06	1.053284e-08	5.112124e+01	6.923251e+02
1.410000e-06	7.419929e-06	1.058335e-08	5.159275e+01	6.957846e+02
1.420000e-06	7.485101e-06	1.063356e-08	5.204590e+01	6.990882e+02
1.430000e-06	7.547671e-06	1.067837e-08	5.248097e+01	7.022237e+02
1.440000e-06	7.607685e-06	1.072099e-08	5.289826e+01	7.051770e+02
1.450000e-06	7.665054e-06	1.076232e-08	5.329716e+01	7.079344e+02
1.460000e-06	7.719624e-06	1.079955e-08	5.367660e+01	7.104844e+02
1.470000e-06	7.771250e-06	1.083363e-08	5.403557e+01	7.128207e+02
1.480000e-06	7.819699e-06	1.086583e-08	5.437245e+01	7.149431e+02
1.490000e-06	7.865198e-06	1.089551e-08	5.468882e+01	7.168579e+02
1.500000e-06	7.908009e-06	1.091993e-08	5.498649e+01	7.185776e+02
1.510000e-06	7.947934e-06	1.094138e-08	5.526410e+01	7.201193e+02
1.520000e-06	7.985045e-06	1.096362e-08	5.552215e+01	7.215028e+02
1.530000e-06	8.019376e-06	1.098500e-08	5.576086e+01	7.227482e+02
1.540000e-06	8.050801e-06	1.100262e-08	5.597936e+01	7.238731e+02
1.550000e-06	8.079404e-06	1.101733e-08	5.617825e+01	7.248915e+02
1.560000e-06	8.105066e-06	1.103164e-08	5.635669e+01	7.258113e+02
1.570000e-06	8.127759e-06	1.104639e-08	5.651447e+01	7.266349e+02
1.580000e-06	8.147732e-06	1.105694e-08	5.665335e+01	7.273590e+02
1.590000e-06	8.164787e-06	1.106283e-08	5.677194e+01	7.279758e+02
1.600000e-06	8.178722e-06	1.106725e-08	5.686883e+01	7.284754e+02
1.610000e-06	8.189443e-06	1.107188e-08	5.694338e+01	7.288470e+02
1.620000e-06	8.196993e-06	1.107570e-08	5.699588e+01	7.290819e+02
1.630000e-06	8.201725e-06	1.107701e-08	5.702878e+01	7.291745e+02
1.640000e-06	8.203555e-06	1.107769e-08	5.704150e+01	7.291239e+02
1.650000e-06	8.202452e-06	1.107742e-08	5.703383e+01	7.289341e+02
1.660000e-06	8.198693e-06	1.106728e-08	5.700770e+01	7.286136e+02
1.670000e-06	8.192176e-06	1.106361e-08	5.696238e+01	7.281746e+02
1.680000e-06	8.182865e-06	1.105833e-08	5.689764e+01	7.276313e+02
1.690000e-06	8.170758e-06	1.104975e-08	5.681346e+01	7.269981e+02
1.700000e-06	8.155750e-06	1.104400e-08	5.670910e+01	7.262881e+02
1.710000e-06	8.138146e-06	1.104283e-08	5.658669e+01	7.255115e+02
1.720000e-06	8.118254e-06	1.104785e-08	5.644838e+01	7.246748e+02
1.730000e-06	8.095725e-06	1.095087e-08	5.629173e+01	7.237802e+02
1.740000e-06	8.069808e-06	1.091922e-08	5.611152e+01	7.228262e+02
1.750000e-06	8.040107e-06	1.096266e-08	5.590501e+01	7.218079e+02
1.760000e-06	8.006969e-06	1.094245e-08	5.567459e+01	7.207181e+02
1.770000e-06	7.971320e-06	1.092260e-08	5.542671e+01	7.195485e+02
1.780000e-06	7.933331e-06	1.097042e-08	5.516256e+01	7.182906e+02
1.790000e-06	7.893100e-06	1.096327e-08	5.488282e+01	7.169363e+02
1.800000e-06	7.850946e-06	1.078215e-08	5.458972e+01	7.154788e+02
1.810000e-06	7.806151e-06	1.089578e-08	5.427824e+01	7.139121e+02
1.820000e-06	7.758468e-06	1.087100e-08	5.394669e+01	7.122310e+02
1.830000e-06	7.708028e-06	1.080114e-08	5.359597e+01	7.104305e+02
1.840000e-06	7.654393e-06	1.088067e-08	5.322303e+01	7.085055e+02
1.850000e-06	7.597869e-06	1.073959e-08	5.283001e+01	7.064504e+02
1.860000e-06	7.538693e-06	1.078929e-08	5.241854e+01	7.042587e+02
1.870000e-06	7.476678e-06	1.067869e-08	5.198733e+01	7.019235e+02
1.880000e-06	7.411925e-06	1.065124e-08	5.153709e+01	6.994379e+02
1.890000e-06	7.344302e-06	1.069142e-08	5.106689e+01	6.967960e+02
1.900000e-06	7.273773e-06	1.054225e-08	5.057648e+01	6.939935e+02
1.910000e-06	7.200374e-06	1.055674e-08	5.006612e+01	6.910285e+02
1.920000e-06	7.124252e-06	1.047285e-08	4.953682e+01	6.879023e+02
1.930000e-06	7.045314e-06	1.047812e-08	4.898795e+01	6.846193e+02
1.940000e-06	6.963663e-06	1.039418e-08	4.842020e+01	6.811867e+02
1.950000e-06	6.879544e-06	1.031639e-08	4.783530e+01	6.776137e+02
1.960000e-06	6.792734e-06	1.032609e-08	4.723169e+01	6.739101e+02
1.970000e-06	6.703394e-06	1.020379e-08	4.661049e+01	6.700849e+02
1.980000e-06	6.611758e-06	1.018091e-08	4.597331e+01	6.661448e+02
1.990000e-06	6.517839e-06	1.010982e-08	4.532027e+01	6.620930e+02
2.000000e-06	6.421586e-06	1.008145e-08	4.465100e+01	6.579279e+02
2.010000e-06	6.323076e-06	9.969796e-09	4.396603e+01	6.536436e+02
2.020000e-06	6.222309e-06	9.889106e-09	4.326537e+01	6.492299e+02
2.030000e-06	6.119184e-06	9.847238e-09	4.254832e+01	6.446737e+02
2.040000e-06	6.013874e-06	9.778606e-09	4.181607e+01	6.399601e+02
2.050000e-06	5.906576e-06	9.716779e-09	4.106999e+01	6.350749e+02
2.060000e-06	5.797371e-06	9.613878e-09	4.031066e+01	6.300057e+02
2.070000e-06	5.686027e-06	9.553742e-09	3.953646e+01	6.247441e+02
2.080000e-06	5.572471e-06	9.448835e-09	3.874688e+01	6.192858e+02
2.090000e-06	5.456765e-06	9.368935e-09	3.794234e+01	6.136311e+02
2.100000e-06	5.338992e-06	9.283468e-09	3.712343e+01	6.077841e+02
2.110000e-06	5.219185e-06	9.212487e-09	3.629038e+01	6.017514e+02
2.120000e-06	5.097485e-06	9.105701e-09	3.544417e+01	5.955401e+02
2.130000e-06	4.974025e-06	9.002278e-09	3.458572e+01	5.891555e+02
2.140000e-06	4.848692e-06	8.912601e-09	3.371425e+01	5.825997e+02
2.150000e-06	4.721598e-06	8.815273e-09	3.283053e+01	5.758696e+02
2.160000e-06	4.592789e-06	8.707104e-09	3.193489e+01	5.689566e+02
2.170000e-06	4.462405e-06	8.583672e-09	3.102829e+01	5.618467e+02
2.180000e-06	4.330370e-06	8.479551e-09	3.011021e+01	5.545215e+02
2.190000e-06	4.196629e-06	8.362015e-09	2.918028e+01	5.469603e+02
2.200000e-06	4.061347e-06	8.248039e-09	2.823963e+01	5.391421e+02
2.210000e-06	3.924540e-06	8.125632e-09	2.728837e+01	5.310483e+02
2.220000e-06	3.786175e-06	8.003410e-09	2.632628e+01	5.226648e+02
2.230000e-06	3.646299e-06	7.862064e-09	2.535369e+01	5.139830e+02
2.240000e-06	3.505049e-06	7.724534e-09	2.437154e+01	5.050005e+02
2.250000e-06	3.362531e-06	7.592481e-09	2.338057e+01	4.957204e+02
2.260000e-06	3.218766e-06	7.456681e-09	2.238093e+01	4.861495e+02
2.270000e-06	3.073698e-06	7.305973e-09	2.137224e+01	4.762958e+02
2.280000e-06	2.927529e-06	7.144192e-09	2.035589e+01	4.661653e+02
2.290000e-06	2.780363e-06	6.984978e-09	1.933260e+01	4.557596e+02
2.300000e-06	2.632166e-06	6.824878e-09	1.830215e+01	4.450732e+02
2.310000e-06	2.483012e-06	6.662610e-09	1.726504e+01	4.340921e+02
2.320000e-06	2.333022e-06	6.492376e-09	1.622213e+01	4.227940e+02
2.330000e-06	2.182273e-06	6.312797e-09	1.517393e+01	4.111497e+02
2.340000e-06	2.030800e-06	6.123890e-09	1.412070e+01	3.991250e+02
2.350000e-06	1.878636e-06	5.931372e-09	1.306265e+01	3.866848e+02
2.360000e-06	1.725804e-06	5.733800e-09	1.199997e+01	3.737962e+02
2.370000e-06	1.572391e-06	5.528414e-09	1.093326e+01	3.604324e+02
2.380000e-06	1.418497e-06	5.316900e-09	9.863191e+00	3.465746e+02
2.390000e-06	1.264156e-06	5.100629e-09	8.790015e+00	3.322133e+02
2.400000e-06	1.109372e-06	4.876765e-09	7.713756e+00	3.173471e+02
2.410000e-06	9.541612e-07	4.645800e-09	6.634537e+00	3.019800e+02
2.420000e-06	7.986528e-07	4.408229e-09	5.553246e+00	2.861172e+02
2.430000e-06	6.428435e-07	4.158641e-09	4.469862e+00	2.697592e+02
2.440000e-06	4.867467e-07	3.897090e-09	3.384479e+00	2.528960e+02
2.450000e-06	3.304988e-07	3.629941e-09	2.298046e+00	2.355023e+02
2.460000e-06	1.741229e-07	3.355848e-09	1.210723e+00	2.175333e+02
2.470000e-06	1.763254e-08	3.069131e-09	1.226038e-01	1.989242e+02
2.480000e-06	-1.389027e-07	2.769917e-09	-9.658272e-01	1.795918e+02
2.490000e-06	-2.953439e-07	2.459898e-09	-2.053605e+00	1.594396e+02
2.500000e-06	-4.517479e-07	2.135572e-09	-3.141124e+00	1.383665e+02
2.510000e-06	-6.080133e-07	1.798788e-09	-4.227678e+00	1.162772e+02
2.520000e-06	-7.640504e-07	1.450605e-09	-5.312646e+00	9.309469e+01
2.530000e-06	-9.198717e-07	1.087696e-09	-6.396113e+00	6.877262e+01
2.540000e-06	-1.075299e-06	7.057146e-10	-7.476840e+00	4.330660e+01
2.550000e-06	-1.230306e-06	3.042207e-10	-8.554646e+00	1.674285e+01
2.560000e-06	-1.384857e-06	-1.135377e-10	-9.629279e+00	-1.081693e+01
2.570000e-06	-1.538818e-06	-5.478010e-10	-1.069981e+01	-3.921524e+01
2.580000e-06	-1.692190e-06	-9.957846e-10	-1.176625e+01	-6.824330e+01
2.590000e-06	-1.845017e-06	-1.451287e-09	-1.282889e+01	-9.765040e+01
2.600000e-06	-1.997203e-06	-1.907751e-09	-1.388709e+01	-1.271571e+02
2.610000e-06	-2.148562e-06	-2.361897e-09	-1.493953e+01	-1.564712e+02
2.620000e-06	-2.299060e-06	-2.808036e-09	-1.598598e+01	-1.853051e+02
2.630000e-06	-2.448824e-06	-3.239208e-09	-1.702733e+01	-2.133927e+02
2.640000e-06	-2.597757e-06	-3.653289e-09	-1.806290e+01	-2.405047e+02
2.650000e-06	-2.745644e-06	-4.048759e-09	-1.909119e+01	-2.664595e+02
2.660000e-06	-2.892426e-06	-4.424886e-09	-2.011181e+01	-2.911313e+02
2.670000e-06	-3.038141e-06	-4.778299e-09	-2.112500e+01	-3.144520e+02
2.680000e-06	-3.182741e-06	-5.109342e-09	-2.213045e+01	-3.364090e+02
2.690000e-06	-3.326107e-06	-5.422040e-09	-2.312731e+01	-3.570382e+02
2.700000e-06	-3.468203e-06	-5.719063e-09	-2.411534e+01	-3.764143e+02
2.710000e-06	-3.609014e-06	-6.000344e-09	-2.509444e+01	-3.946385e+02
2.720000e-06	-3.748400e-06	-6.267556e-09	-2.606362e+01	-4.118255e+02
2.730000e-06	-3.886338e-06	-6.520854e-09	-2.702274e+01	-4.280917e+02
2.740000e-06	-4.022878e-06	-6.760283e-09	-2.797214e+01	-4.435450e+02
2.750000e-06	-4.157925e-06	-6.989385e-09	-2.891116e+01	-4.582773e+02
2.760000e-06	-4.291568e-06	-7.208012e-09	-2.984041e+01	-4.723602e+02
2.770000e-06	-4.423775e-06	-7.416305e-09	-3.075969e+01	-4.858442e+02
2.780000e-06	-4.554403e-06	-7.615930e-09	-3.166798e+01	-4.987605e+02
2.790000e-06	-4.683421e-06	-7.806212e-09	-3.256507e+01	-5.111248e+02
2.800000e-06	-4.810766e-06	-7.983868e-09	-3.345054e+01	-5.229432e+02
2.810000e-06	-4.936497e-06	-8.151223e-09	-3.432478e+01	-5.342171e+02
2.820000e-06	-5.060505e-06	-8.311700e-09	-3.518704e+01	-5.449491e+02
2.830000e-06	-5.182684e-06	-8.465653e-09	-3.603658e+01	-5.551466e+02
2.840000e-06	-5.303059e-06	-8.613792e-09	-3.687358e+01	-5.648241e+02
2.850000e-06	-5.421467e-06	-8.754686e-09	-3.769690e+01	-5.740041e+02
2.860000e-06	-5.537618e-06	-8.889073e-09	-3.850453e+01	-5.827156e+02
2.870000e-06	-5.651419e-06	-9.017579e-09	-3.929582e+01	-5.909923e+02
2.880000e-06	-5.762953e-06	-9.140893e-09	-4.007135e+01	-5.988696e+02
2.890000e-06	-5.872317e-06	-9.260702e-09	-4.083179e+01	-6.063812e+02
2.900000e-06	-5.979672e-06	-9.373223e-09	-4.157825e+01	-6.135569e+02
2.910000e-06	-6.085001e-06	-9.477634e-09	-4.231063e+01	-6.204209e+02
2.920000e-06	-6.188115e-06	-9.577842e-09	-4.302761e+01	-6.269909e+02
2.930000e-06	-6.288881e-06	-9.676002e-09	-4.372826e+01	-6.332786e+02
2.940000e-06	-6.387388e-06	-9.769361e-09	-4.441321e+01	-6.392916e+02
