# Temperatura_=_50.39
# Concentracion g/m^3_=_15000.0
# C_Vs_to_Am_M_A/Vsm_=_65563218390.804596
# pendiente_HvsI_1/m_=_3716.3
# ordenada_HvsI_A/m_=_1297.0
# frecuencia_Hz_=_302320.428196692

Tiempo_(s)	Campo_(V.s)	Magnetizacion_(V.s)	Campo_(kA/m)	Magnetizacion_(A/m)
0.000000e+00	-8.233002e-06	-6.411700e-09	-5.692842e+01	-4.187775e+02
1.000000e-08	-8.230187e-06	-6.413993e-09	-5.690895e+01	-4.186378e+02
2.000000e-08	-8.224631e-06	-6.409937e-09	-5.687053e+01	-4.184131e+02
3.000000e-08	-8.216412e-06	-6.402456e-09	-5.681370e+01	-4.181084e+02
4.000000e-08	-8.205306e-06	-6.395266e-09	-5.673691e+01	-4.177345e+02
5.000000e-08	-8.191207e-06	-6.387340e-09	-5.663942e+01	-4.173071e+02
6.000000e-08	-8.174260e-06	-6.378033e-09	-5.652224e+01	-4.168435e+02
7.000000e-08	-8.154862e-06	-6.366565e-09	-5.638810e+01	-4.163595e+02
8.000000e-08	-8.133055e-06	-6.359482e-09	-5.623731e+01	-4.158659e+02
9.000000e-08	-8.108274e-06	-6.390325e-09	-5.606596e+01	-4.153671e+02
1.000000e-07	-8.080166e-06	-6.396645e-09	-5.587161e+01	-4.148594e+02
1.100000e-07	-8.048923e-06	-6.358960e-09	-5.565557e+01	-4.143321e+02
1.200000e-07	-8.014723e-06	-6.328255e-09	-5.541909e+01	-4.137693e+02
1.300000e-07	-7.977778e-06	-6.306733e-09	-5.516363e+01	-4.131527e+02
1.400000e-07	-7.938425e-06	-6.281609e-09	-5.489152e+01	-4.124646e+02
1.500000e-07	-7.896663e-06	-6.254212e-09	-5.460274e+01	-4.116904e+02
1.600000e-07	-7.852345e-06	-6.294201e-09	-5.429630e+01	-4.108205e+02
1.700000e-07	-7.805236e-06	-6.270258e-09	-5.397056e+01	-4.098508e+02
1.800000e-07	-7.755160e-06	-6.214248e-09	-5.362430e+01	-4.087826e+02
1.900000e-07	-7.702151e-06	-6.245016e-09	-5.325776e+01	-4.076213e+02
2.000000e-07	-7.646257e-06	-6.200096e-09	-5.287127e+01	-4.063748e+02
2.100000e-07	-7.587577e-06	-6.155544e-09	-5.246552e+01	-4.050515e+02
2.200000e-07	-7.526238e-06	-6.155639e-09	-5.204138e+01	-4.036596e+02
2.300000e-07	-7.462226e-06	-6.148894e-09	-5.159876e+01	-4.022053e+02
2.400000e-07	-7.395361e-06	-6.122744e-09	-5.113641e+01	-4.006924e+02
2.500000e-07	-7.325621e-06	-6.069474e-09	-5.065418e+01	-3.991224e+02
2.600000e-07	-7.253012e-06	-6.065046e-09	-5.015211e+01	-3.974944e+02
2.700000e-07	-7.177504e-06	-6.038289e-09	-4.963000e+01	-3.958056e+02
2.800000e-07	-7.099180e-06	-5.997368e-09	-4.908842e+01	-3.940514e+02
2.900000e-07	-7.018077e-06	-5.978322e-09	-4.852762e+01	-3.922266e+02
3.000000e-07	-6.934505e-06	-5.966211e-09	-4.794975e+01	-3.903254e+02
3.100000e-07	-6.848586e-06	-5.938457e-09	-4.735565e+01	-3.883425e+02
3.200000e-07	-6.760138e-06	-5.884250e-09	-4.674406e+01	-3.862738e+02
3.300000e-07	-6.669206e-06	-5.856053e-09	-4.611529e+01	-3.841166e+02
3.400000e-07	-6.575931e-06	-5.819119e-09	-4.547033e+01	-3.818701e+02
3.500000e-07	-6.480329e-06	-5.774532e-09	-4.480928e+01	-3.795356e+02
3.600000e-07	-6.382275e-06	-5.739728e-09	-4.413127e+01	-3.771157e+02
3.700000e-07	-6.281911e-06	-5.717247e-09	-4.343728e+01	-3.746135e+02
3.800000e-07	-6.179290e-06	-5.685631e-09	-4.272769e+01	-3.720320e+02
3.900000e-07	-6.074386e-06	-5.631559e-09	-4.200232e+01	-3.693726e+02
4.000000e-07	-5.967363e-06	-5.587876e-09	-4.126229e+01	-3.666347e+02
4.100000e-07	-5.858321e-06	-5.543018e-09	-4.050830e+01	-3.638155e+02
4.200000e-07	-5.747193e-06	-5.496576e-09	-3.973989e+01	-3.609101e+02
4.300000e-07	-5.633851e-06	-5.447536e-09	-3.895617e+01	-3.579127e+02
4.400000e-07	-5.518256e-06	-5.407065e-09	-3.815687e+01	-3.548178e+02
4.500000e-07	-5.400500e-06	-5.363015e-09	-3.734262e+01	-3.516210e+02
4.600000e-07	-5.280818e-06	-5.308937e-09	-3.651506e+01	-3.483200e+02
4.700000e-07	-5.159391e-06	-5.251290e-09	-3.567543e+01	-3.449146e+02
4.800000e-07	-5.036139e-06	-5.194580e-09	-3.482319e+01	-3.414061e+02
4.900000e-07	-4.911062e-06	-5.141867e-09	-3.395833e+01	-3.377960e+02
5.000000e-07	-4.784215e-06	-5.085259e-09	-3.308122e+01	-3.340845e+02
5.100000e-07	-4.655644e-06	-5.027487e-09	-3.219220e+01	-3.302693e+02
5.200000e-07	-4.525375e-06	-4.966704e-09	-3.129144e+01	-3.263447e+02
5.300000e-07	-4.393350e-06	-4.904464e-09	-3.037852e+01	-3.223018e+02
5.400000e-07	-4.259697e-06	-4.836266e-09	-2.945436e+01	-3.181292e+02
5.500000e-07	-4.124503e-06	-4.765744e-09	-2.851954e+01	-3.138147e+02
5.600000e-07	-3.987718e-06	-4.697390e-09	-2.757371e+01	-3.093475e+02
5.700000e-07	-3.849357e-06	-4.630704e-09	-2.661700e+01	-3.047193e+02
5.800000e-07	-3.709351e-06	-4.560073e-09	-2.564890e+01	-2.999254e+02
5.900000e-07	-3.567742e-06	-4.484646e-09	-2.466972e+01	-2.949650e+02
6.000000e-07	-3.424711e-06	-4.406602e-09	-2.368071e+01	-2.898394e+02
6.100000e-07	-3.280317e-06	-4.324855e-09	-2.268228e+01	-2.845509e+02
6.200000e-07	-3.134731e-06	-4.239042e-09	-2.167560e+01	-2.791002e+02
6.300000e-07	-2.988105e-06	-4.151783e-09	-2.066174e+01	-2.734850e+02
6.400000e-07	-2.840489e-06	-4.066314e-09	-1.964102e+01	-2.676991e+02
6.500000e-07	-2.691926e-06	-3.975858e-09	-1.861376e+01	-2.617322e+02
6.600000e-07	-2.542484e-06	-3.878498e-09	-1.758041e+01	-2.555710e+02
6.700000e-07	-2.392150e-06	-3.777372e-09	-1.654090e+01	-2.492012e+02
6.800000e-07	-2.240925e-06	-3.676165e-09	-1.549524e+01	-2.426089e+02
6.900000e-07	-2.088870e-06	-3.574915e-09	-1.444383e+01	-2.357819e+02
7.000000e-07	-1.936065e-06	-3.469394e-09	-1.338724e+01	-2.287103e+02
7.100000e-07	-1.782569e-06	-3.359963e-09	-1.232586e+01	-2.213860e+02
7.200000e-07	-1.628486e-06	-3.243582e-09	-1.126043e+01	-2.138009e+02
7.300000e-07	-1.473918e-06	-3.119857e-09	-1.019164e+01	-2.059455e+02
7.400000e-07	-1.318835e-06	-2.990503e-09	-9.119293e+00	-1.978074e+02
7.500000e-07	-1.163271e-06	-2.856585e-09	-8.043623e+00	-1.893704e+02
7.600000e-07	-1.007334e-06	-2.724156e-09	-6.965370e+00	-1.806154e+02
7.700000e-07	-8.510934e-07	-2.593276e-09	-5.885022e+00	-1.715213e+02
7.800000e-07	-6.945559e-07	-2.454251e-09	-4.802618e+00	-1.620669e+02
7.900000e-07	-5.377442e-07	-2.303234e-09	-3.718319e+00	-1.522333e+02
8.000000e-07	-3.807089e-07	-2.143821e-09	-2.632473e+00	-1.420039e+02
8.100000e-07	-2.235268e-07	-1.978759e-09	-1.545612e+00	-1.313643e+02
8.200000e-07	-6.627390e-08	-1.808512e-09	-4.582615e-01	-1.203005e+02
8.300000e-07	9.105419e-08	-1.632067e-09	6.296089e-01	-1.087949e+02
8.400000e-07	2.484192e-07	-1.450446e-09	1.717735e+00	-9.682424e+01
8.500000e-07	4.057108e-07	-1.260368e-09	2.805352e+00	-8.435689e+01
8.600000e-07	5.629089e-07	-1.061602e-09	3.892324e+00	-7.135372e+01
8.700000e-07	7.199610e-07	-8.565615e-10	4.978286e+00	-5.777174e+01
8.800000e-07	8.768133e-07	-6.441304e-10	6.062867e+00	-4.357129e+01
8.900000e-07	1.033417e-06	-4.194240e-10	7.145725e+00	-2.872585e+01
9.000000e-07	1.189609e-06	-1.806122e-10	8.225745e+00	-1.323303e+01
9.100000e-07	1.345303e-06	6.581177e-11	9.302311e+00	2.875359e+00
9.200000e-07	1.500537e-06	3.171820e-10	1.037570e+01	1.952642e+01
9.300000e-07	1.655277e-06	5.760117e-10	1.144568e+01	3.660420e+01
9.400000e-07	1.809400e-06	8.427063e-10	1.251139e+01	5.395377e+01
9.500000e-07	1.962832e-06	1.109911e-09	1.357232e+01	7.139117e+01
9.600000e-07	2.115552e-06	1.370739e-09	1.462832e+01	8.871814e+01
9.700000e-07	2.267459e-06	1.625433e-09	1.567871e+01	1.057392e+02
9.800000e-07	2.418461e-06	1.872970e-09	1.672283e+01	1.222787e+02
9.900000e-07	2.568523e-06	2.111539e-09	1.776047e+01	1.381949e+02
1.000000e-06	2.717584e-06	2.340259e-09	1.879117e+01	1.533886e+02
1.010000e-06	2.865559e-06	2.559363e-09	1.981437e+01	1.678065e+02
1.020000e-06	3.012452e-06	2.766624e-09	2.083008e+01	1.814371e+02
1.030000e-06	3.158310e-06	2.960924e-09	2.183864e+01	1.943026e+02
1.040000e-06	3.303057e-06	3.145593e-09	2.283952e+01	2.064473e+02
1.050000e-06	3.446548e-06	3.321753e-09	2.383171e+01	2.179252e+02
1.060000e-06	3.588695e-06	3.487886e-09	2.481461e+01	2.287898e+02
1.070000e-06	3.729429e-06	3.645027e-09	2.578773e+01	2.390866e+02
1.080000e-06	3.868709e-06	3.794046e-09	2.675081e+01	2.488498e+02
1.090000e-06	4.006574e-06	3.935148e-09	2.770410e+01	2.581024e+02
1.100000e-06	4.142960e-06	4.066800e-09	2.864716e+01	2.668602e+02
1.110000e-06	4.277804e-06	4.190033e-09	2.957956e+01	2.751359e+02
1.120000e-06	4.411117e-06	4.309046e-09	3.050138e+01	2.829444e+02
1.130000e-06	4.542872e-06	4.424291e-09	3.141242e+01	2.903055e+02
1.140000e-06	4.673061e-06	4.532433e-09	3.231263e+01	2.972456e+02
1.150000e-06	4.801655e-06	4.632061e-09	3.320181e+01	3.037969e+02
1.160000e-06	4.928551e-06	4.725927e-09	3.407926e+01	3.099950e+02
1.170000e-06	5.053699e-06	4.814599e-09	3.494461e+01	3.158760e+02
1.180000e-06	5.177113e-06	4.899269e-09	3.579798e+01	3.214735e+02
1.190000e-06	5.298758e-06	4.980048e-09	3.663911e+01	3.268162e+02
1.200000e-06	5.418500e-06	5.056770e-09	3.746709e+01	3.319274e+02
1.210000e-06	5.536198e-06	5.130836e-09	3.828093e+01	3.368251e+02
1.220000e-06	5.651819e-06	5.202791e-09	3.908041e+01	3.415230e+02
1.230000e-06	5.765262e-06	5.272215e-09	3.986483e+01	3.460323e+02
1.240000e-06	5.876417e-06	5.338428e-09	4.063343e+01	3.503626e+02
1.250000e-06	5.985408e-06	5.401464e-09	4.138707e+01	3.545225e+02
1.260000e-06	6.092303e-06	5.461317e-09	4.212621e+01	3.585201e+02
1.270000e-06	6.197018e-06	5.518805e-09	4.285028e+01	3.623623e+02
1.280000e-06	6.299451e-06	5.573648e-09	4.355857e+01	3.660541e+02
1.290000e-06	6.399496e-06	5.626480e-09	4.425035e+01	3.695981e+02
1.300000e-06	6.497134e-06	5.678091e-09	4.492547e+01	3.729951e+02
1.310000e-06	6.592387e-06	5.726262e-09	4.558412e+01	3.762440e+02
1.320000e-06	6.685345e-06	5.769904e-09	4.622689e+01	3.793433e+02
1.330000e-06	6.775973e-06	5.811248e-09	4.685356e+01	3.822918e+02
1.340000e-06	6.864088e-06	5.851863e-09	4.746284e+01	3.850900e+02
1.350000e-06	6.949769e-06	5.890016e-09	4.805529e+01	3.877405e+02
1.360000e-06	7.033150e-06	5.925537e-09	4.863185e+01	3.902475e+02
1.370000e-06	7.114037e-06	5.960557e-09	4.919115e+01	3.926170e+02
1.380000e-06	7.192280e-06	5.994536e-09	4.973217e+01	3.948550e+02
1.390000e-06	7.267857e-06	6.024922e-09	5.025477e+01	3.969676e+02
1.400000e-06	7.340663e-06	6.053196e-09	5.075820e+01	3.989596e+02
1.410000e-06	7.410789e-06	6.081647e-09	5.124309e+01	4.008349e+02
1.420000e-06	7.478353e-06	6.107871e-09	5.171027e+01	4.025969e+02
1.430000e-06	7.543256e-06	6.131679e-09	5.215906e+01	4.042486e+02
1.440000e-06	7.605499e-06	6.152972e-09	5.258944e+01	4.057942e+02
1.450000e-06	7.665151e-06	6.173847e-09	5.300192e+01	4.072385e+02
1.460000e-06	7.722123e-06	6.193821e-09	5.339586e+01	4.085875e+02
1.470000e-06	7.776304e-06	6.210461e-09	5.377050e+01	4.098474e+02
1.480000e-06	7.827421e-06	6.226396e-09	5.412396e+01	4.110238e+02
1.490000e-06	7.875337e-06	6.243480e-09	5.445528e+01	4.121203e+02
1.500000e-06	7.920387e-06	6.261770e-09	5.476679e+01	4.131385e+02
1.510000e-06	7.962700e-06	6.279235e-09	5.505937e+01	4.140773e+02
1.520000e-06	8.002129e-06	6.293417e-09	5.533200e+01	4.149337e+02
1.530000e-06	8.038758e-06	6.303920e-09	5.558528e+01	4.157044e+02
1.540000e-06	8.072570e-06	6.312781e-09	5.581909e+01	4.163870e+02
1.550000e-06	8.103461e-06	6.321309e-09	5.603268e+01	4.169818e+02
1.560000e-06	8.131528e-06	6.329570e-09	5.622676e+01	4.174925e+02
1.570000e-06	8.156631e-06	6.335351e-09	5.640033e+01	4.179261e+02
1.580000e-06	8.178706e-06	6.340369e-09	5.655298e+01	4.182917e+02
1.590000e-06	8.197948e-06	6.347852e-09	5.668603e+01	4.185990e+02
1.600000e-06	8.214227e-06	6.356230e-09	5.679859e+01	4.188556e+02
1.610000e-06	8.227380e-06	6.362108e-09	5.688954e+01	4.190657e+02
1.620000e-06	8.237335e-06	6.364544e-09	5.695838e+01	4.192283e+02
1.630000e-06	8.244201e-06	6.364914e-09	5.700585e+01	4.193376e+02
1.640000e-06	8.248249e-06	6.365131e-09	5.703384e+01	4.193845e+02
1.650000e-06	8.249356e-06	6.366266e-09	5.704150e+01	4.193589e+02
1.660000e-06	8.247565e-06	6.362876e-09	5.702911e+01	4.192523e+02
1.670000e-06	8.243045e-06	6.358730e-09	5.699786e+01	4.190607e+02
1.680000e-06	8.235753e-06	6.358180e-09	5.694744e+01	4.187863e+02
1.690000e-06	8.225752e-06	6.355350e-09	5.687828e+01	4.184379e+02
1.700000e-06	8.212866e-06	6.352457e-09	5.678918e+01	4.180294e+02
1.710000e-06	8.197110e-06	6.351614e-09	5.668024e+01	4.175779e+02
1.720000e-06	8.178830e-06	6.353138e-09	5.655383e+01	4.171001e+02
1.730000e-06	8.158172e-06	6.336283e-09	5.641099e+01	4.166093e+02
1.740000e-06	8.134700e-06	6.276828e-09	5.624869e+01	4.161125e+02
1.750000e-06	8.107603e-06	6.269934e-09	5.606132e+01	4.156091e+02
1.760000e-06	8.076627e-06	6.290174e-09	5.584713e+01	4.150911e+02
1.770000e-06	8.042527e-06	6.288176e-09	5.561135e+01	4.145443e+02
1.780000e-06	8.006114e-06	6.296473e-09	5.535956e+01	4.139509e+02
1.790000e-06	7.967397e-06	6.329609e-09	5.509185e+01	4.132928e+02
1.800000e-06	7.926561e-06	6.283917e-09	5.480948e+01	4.125538e+02
1.810000e-06	7.883564e-06	6.236069e-09	5.451217e+01	4.117222e+02
1.820000e-06	7.837756e-06	6.288039e-09	5.419542e+01	4.107917e+02
1.830000e-06	7.789182e-06	6.241974e-09	5.385955e+01	4.097618e+02
1.840000e-06	7.737640e-06	6.250939e-09	5.350315e+01	4.086361e+02
1.850000e-06	7.682879e-06	6.236763e-09	5.312450e+01	4.074219e+02
1.860000e-06	7.625327e-06	6.200596e-09	5.272655e+01	4.061277e+02
1.870000e-06	7.565003e-06	6.207838e-09	5.230943e+01	4.047619e+02
1.880000e-06	7.501926e-06	6.130457e-09	5.187327e+01	4.033313e+02
1.890000e-06	7.436018e-06	6.164689e-09	5.141754e+01	4.018411e+02
1.900000e-06	7.367200e-06	6.134187e-09	5.094169e+01	4.002934e+02
1.910000e-06	7.295513e-06	6.074499e-09	5.044600e+01	3.986884e+02
1.920000e-06	7.221014e-06	6.088898e-09	4.993086e+01	3.970238e+02
1.930000e-06	7.143749e-06	6.053658e-09	4.939660e+01	3.952958e+02
1.940000e-06	7.063634e-06	6.030192e-09	4.884263e+01	3.934994e+02
1.950000e-06	6.980962e-06	5.962342e-09	4.827098e+01	3.916287e+02
1.960000e-06	6.895748e-06	5.952342e-09	4.768176e+01	3.896785e+02
1.970000e-06	6.807784e-06	5.929886e-09	4.707351e+01	3.876438e+02
1.980000e-06	6.717339e-06	5.886482e-09	4.644812e+01	3.855215e+02
1.990000e-06	6.624646e-06	5.882126e-09	4.580718e+01	3.833099e+02
2.000000e-06	6.529592e-06	5.843438e-09	4.514991e+01	3.810097e+02
2.010000e-06	6.432140e-06	5.795399e-09	4.447606e+01	3.786229e+02
2.020000e-06	6.332480e-06	5.729487e-09	4.378695e+01	3.761525e+02
2.030000e-06	6.230538e-06	5.709015e-09	4.308206e+01	3.736019e+02
2.040000e-06	6.126294e-06	5.677482e-09	4.236124e+01	3.709729e+02
2.050000e-06	6.019969e-06	5.638013e-09	4.162604e+01	3.682660e+02
2.060000e-06	5.911662e-06	5.594777e-09	4.087713e+01	3.654791e+02
2.070000e-06	5.801260e-06	5.550095e-09	4.011375e+01	3.626081e+02
2.080000e-06	5.688653e-06	5.502077e-09	3.933510e+01	3.596475e+02
2.090000e-06	5.573881e-06	5.446796e-09	3.854150e+01	3.565914e+02
2.100000e-06	5.456960e-06	5.409331e-09	3.773302e+01	3.534350e+02
2.110000e-06	5.337940e-06	5.358785e-09	3.691004e+01	3.501750e+02
2.120000e-06	5.216935e-06	5.307809e-09	3.607334e+01	3.468104e+02
2.130000e-06	5.094124e-06	5.253433e-09	3.522414e+01	3.433422e+02
2.140000e-06	4.969546e-06	5.206694e-09	3.436273e+01	3.397717e+02
2.150000e-06	4.843165e-06	5.148121e-09	3.348885e+01	3.361001e+02
2.160000e-06	4.714937e-06	5.088419e-09	3.260219e+01	3.323260e+02
2.170000e-06	4.585004e-06	5.029266e-09	3.170375e+01	3.284453e+02
2.180000e-06	4.453441e-06	4.972433e-09	3.079404e+01	3.244500e+02
2.190000e-06	4.320179e-06	4.916747e-09	2.987257e+01	3.203297e+02
2.200000e-06	4.185306e-06	4.853852e-09	2.893997e+01	3.160723e+02
2.210000e-06	4.048876e-06	4.782432e-09	2.799660e+01	3.116662e+02
2.220000e-06	3.910892e-06	4.702158e-09	2.704249e+01	3.071018e+02
2.230000e-06	3.771326e-06	4.627876e-09	2.607744e+01	3.023733e+02
2.240000e-06	3.630336e-06	4.558328e-09	2.510254e+01	2.974781e+02
2.250000e-06	3.487961e-06	4.490490e-09	2.411807e+01	2.924171e+02
2.260000e-06	3.344192e-06	4.416155e-09	2.312395e+01	2.871923e+02
2.270000e-06	3.199172e-06	4.333611e-09	2.212119e+01	2.818053e+02
2.280000e-06	3.053014e-06	4.241585e-09	2.111056e+01	2.762552e+02
2.290000e-06	2.905709e-06	4.149137e-09	2.009199e+01	2.705373e+02
2.300000e-06	2.757359e-06	4.059803e-09	1.906620e+01	2.646428e+02
2.310000e-06	2.608103e-06	3.970607e-09	1.803415e+01	2.585596e+02
2.320000e-06	2.457929e-06	3.877139e-09	1.699574e+01	2.522734e+02
2.330000e-06	2.306944e-06	3.778819e-09	1.595173e+01	2.457699e+02
2.340000e-06	2.155191e-06	3.679198e-09	1.490241e+01	2.390363e+02
2.350000e-06	2.002688e-06	3.576458e-09	1.384791e+01	2.320618e+02
2.360000e-06	1.849554e-06	3.466502e-09	1.278904e+01	2.248377e+02
2.370000e-06	1.695792e-06	3.348672e-09	1.172583e+01	2.173559e+02
2.380000e-06	1.541437e-06	3.227079e-09	1.065852e+01	2.096079e+02
2.390000e-06	1.386616e-06	3.106578e-09	9.587977e+00	2.015825e+02
2.400000e-06	1.231331e-06	2.983183e-09	8.514238e+00	1.932650e+02
2.410000e-06	1.075606e-06	2.852498e-09	7.437450e+00	1.846373e+02
2.420000e-06	9.194969e-07	2.713506e-09	6.358009e+00	1.756789e+02
2.430000e-06	7.630784e-07	2.567698e-09	5.276428e+00	1.663684e+02
2.440000e-06	6.063812e-07	2.420111e-09	4.192920e+00	1.566858e+02
2.450000e-06	4.493768e-07	2.270435e-09	3.107288e+00	1.466136e+02
2.460000e-06	2.921745e-07	2.116719e-09	2.020287e+00	1.361367e+02
2.470000e-06	1.349028e-07	1.953188e-09	9.328068e-01	1.252413e+02
2.480000e-06	-2.244634e-08	1.777664e-09	-1.552088e-01	1.139116e+02
2.490000e-06	-1.798419e-07	1.594810e-09	-1.243546e+00	1.021268e+02
2.500000e-06	-3.372048e-07	1.406350e-09	-2.331657e+00	8.985881e+01
2.510000e-06	-4.944490e-07	1.211683e-09	-3.418947e+00	7.707110e+01
2.520000e-06	-6.515873e-07	1.006632e-09	-4.505505e+00	6.372153e+01
2.530000e-06	-8.085622e-07	7.893358e-10	-5.590933e+00	4.976810e+01
2.540000e-06	-9.652338e-07	5.649749e-10	-6.674264e+00	3.517783e+01
2.550000e-06	-1.121523e-06	3.358050e-10	-7.754948e+00	1.993755e+01
2.560000e-06	-1.277352e-06	9.768375e-11	-8.832457e+00	4.064596e+00
2.570000e-06	-1.432678e-06	-1.525656e-10	-9.906483e+00	-1.238482e+01
2.580000e-06	-1.587456e-06	-4.134216e-10	-1.097672e+01	-2.931153e+01
2.590000e-06	-1.741699e-06	-6.792473e-10	-1.204326e+01	-4.657502e+01
2.600000e-06	-1.895292e-06	-9.481073e-10	-1.310530e+01	-6.400122e+01
2.610000e-06	-2.048064e-06	-1.218142e-09	-1.416167e+01	-8.139552e+01
2.620000e-06	-2.200040e-06	-1.484786e-09	-1.521253e+01	-9.855924e+01
2.630000e-06	-2.351231e-06	-1.744698e-09	-1.625796e+01	-1.153071e+02
2.640000e-06	-2.501546e-06	-1.993420e-09	-1.729734e+01	-1.314825e+02
2.650000e-06	-2.650981e-06	-2.228639e-09	-1.833063e+01	-1.469690e+02
2.660000e-06	-2.799434e-06	-2.452354e-09	-1.935714e+01	-1.616954e+02
2.670000e-06	-2.946770e-06	-2.666419e-09	-2.037591e+01	-1.756343e+02
2.680000e-06	-3.092957e-06	-2.870284e-09	-2.138674e+01	-1.887962e+02
2.690000e-06	-3.237958e-06	-3.063533e-09	-2.238938e+01	-2.012179e+02
2.700000e-06	-3.381747e-06	-3.244726e-09	-2.338363e+01	-2.129512e+02
2.710000e-06	-3.524273e-06	-3.413974e-09	-2.436915e+01	-2.240509e+02
2.720000e-06	-3.665456e-06	-3.572890e-09	-2.534539e+01	-2.345661e+02
2.730000e-06	-3.805251e-06	-3.724171e-09	-2.631202e+01	-2.445357e+02
2.740000e-06	-3.943620e-06	-3.868399e-09	-2.726879e+01	-2.539867e+02
2.750000e-06	-4.080512e-06	-4.007089e-09	-2.821536e+01	-2.629374e+02
2.760000e-06	-4.215952e-06	-4.138722e-09	-2.915188e+01	-2.714011e+02
2.770000e-06	-4.349947e-06	-4.258928e-09	-3.007840e+01	-2.793912e+02
2.780000e-06	-4.482367e-06	-4.371143e-09	-3.099405e+01	-2.869254e+02
2.790000e-06	-4.613196e-06	-4.478951e-09	-3.189868e+01	-2.940274e+02
2.800000e-06	-4.742429e-06	-4.581835e-09	-3.279229e+01	-3.007273e+02
2.810000e-06	-4.870047e-06	-4.679015e-09	-3.367472e+01	-3.070599e+02
2.820000e-06	-4.996031e-06	-4.772875e-09	-3.454586e+01	-3.130614e+02
2.830000e-06	-5.120239e-06	-4.863295e-09	-3.540472e+01	-3.187667e+02
2.840000e-06	-5.242607e-06	-4.949912e-09	-3.625085e+01	-3.242065e+02
2.850000e-06	-5.363074e-06	-5.030795e-09	-3.708384e+01	-3.294063e+02
2.860000e-06	-5.481537e-06	-5.104654e-09	-3.790297e+01	-3.343861e+02
2.870000e-06	-5.597772e-06	-5.175296e-09	-3.870670e+01	-3.391611e+02
2.880000e-06	-5.711655e-06	-5.243644e-09	-3.949416e+01	-3.437434e+02
2.890000e-06	-5.823345e-06	-5.309407e-09	-4.026645e+01	-3.481430e+02
2.900000e-06	-5.932878e-06	-5.374227e-09	-4.102384e+01	-3.523689e+02
2.910000e-06	-6.040351e-06	-5.439376e-09	-4.176697e+01	-3.564295e+02
2.920000e-06	-6.145717e-06	-5.502596e-09	-4.249555e+01	-3.603321e+02
2.930000e-06	-6.248770e-06	-5.561490e-09	-4.320812e+01	-3.640826e+02
2.940000e-06	-6.349486e-06	-5.617450e-09	-4.390454e+01	-3.676846e+02
