# Temperatura_=_86.1
# Concentracion g/m^3_=_15000.0
# C_Vs_to_Am_M_A/Vsm_=_65563218390.804596
# pendiente_HvsI_1/m_=_3716.3
# ordenada_HvsI_A/m_=_1297.0
# frecuencia_Hz_=_302328.25387708406

Tiempo_(s)	Campo_(V.s)	Magnetizacion_(V.s)	Campo_(kA/m)	Magnetizacion_(A/m)
0.000000e+00	-8.206921e-06	-1.074750e-08	-5.692460e+01	-7.023425e+02
1.000000e-08	-8.204428e-06	-1.074179e-08	-5.690731e+01	-7.020890e+02
2.000000e-08	-8.199193e-06	-1.073758e-08	-5.687100e+01	-7.017146e+02
3.000000e-08	-8.191354e-06	-1.072765e-08	-5.681663e+01	-7.012192e+02
4.000000e-08	-8.180654e-06	-1.071549e-08	-5.674241e+01	-7.006046e+02
5.000000e-08	-8.166982e-06	-1.070303e-08	-5.664758e+01	-6.998745e+02
6.000000e-08	-8.150438e-06	-1.069258e-08	-5.653282e+01	-6.990341e+02
7.000000e-08	-8.131317e-06	-1.067856e-08	-5.640020e+01	-6.980905e+02
8.000000e-08	-8.109830e-06	-1.066144e-08	-5.625116e+01	-6.970521e+02
9.000000e-08	-8.085505e-06	-1.062976e-08	-5.608244e+01	-6.959282e+02
1.000000e-07	-8.057944e-06	-1.064886e-08	-5.589127e+01	-6.947286e+02
1.100000e-07	-8.027179e-06	-1.064581e-08	-5.567788e+01	-6.934627e+02
1.200000e-07	-7.993403e-06	-1.059683e-08	-5.544361e+01	-6.921376e+02
1.300000e-07	-7.956831e-06	-1.055952e-08	-5.518994e+01	-6.907572e+02
1.400000e-07	-7.917779e-06	-1.053116e-08	-5.491907e+01	-6.893199e+02
1.500000e-07	-7.876428e-06	-1.049403e-08	-5.463225e+01	-6.878180e+02
1.600000e-07	-7.832646e-06	-1.043137e-08	-5.432856e+01	-6.862368e+02
1.700000e-07	-7.786095e-06	-1.048447e-08	-5.400568e+01	-6.845560e+02
1.800000e-07	-7.736703e-06	-1.043696e-08	-5.366309e+01	-6.827517e+02
1.900000e-07	-7.684401e-06	-1.035789e-08	-5.330032e+01	-6.807992e+02
2.000000e-07	-7.629106e-06	-1.037391e-08	-5.291678e+01	-6.786773e+02
2.100000e-07	-7.571019e-06	-1.029247e-08	-5.251388e+01	-6.763713e+02
2.200000e-07	-7.510253e-06	-1.025412e-08	-5.209240e+01	-6.738755e+02
2.300000e-07	-7.446834e-06	-1.021328e-08	-5.165251e+01	-6.711938e+02
2.400000e-07	-7.380597e-06	-1.016589e-08	-5.119308e+01	-6.683385e+02
2.500000e-07	-7.311492e-06	-1.014195e-08	-5.071375e+01	-6.653274e+02
2.600000e-07	-7.239540e-06	-1.008628e-08	-5.021468e+01	-6.621790e+02
2.700000e-07	-7.164659e-06	-1.005697e-08	-4.969530e+01	-6.589090e+02
2.800000e-07	-7.086925e-06	-9.992368e-09	-4.915612e+01	-6.555265e+02
2.900000e-07	-7.006461e-06	-9.945110e-09	-4.859800e+01	-6.520320e+02
3.000000e-07	-6.923466e-06	-9.878398e-09	-4.802234e+01	-6.484184e+02
3.100000e-07	-6.838074e-06	-9.811335e-09	-4.743005e+01	-6.446728e+02
3.200000e-07	-6.750223e-06	-9.775796e-09	-4.682070e+01	-6.407810e+02
3.300000e-07	-6.659887e-06	-9.695638e-09	-4.619411e+01	-6.367308e+02
3.400000e-07	-6.567188e-06	-9.634237e-09	-4.555113e+01	-6.325160e+02
3.500000e-07	-6.472104e-06	-9.561499e-09	-4.489162e+01	-6.281377e+02
3.600000e-07	-6.374641e-06	-9.498555e-09	-4.421560e+01	-6.236039e+02
3.700000e-07	-6.274868e-06	-9.423503e-09	-4.352355e+01	-6.189267e+02
3.800000e-07	-6.172773e-06	-9.351681e-09	-4.281540e+01	-6.141187e+02
3.900000e-07	-6.068458e-06	-9.286682e-09	-4.209186e+01	-6.091889e+02
4.000000e-07	-5.962045e-06	-9.202984e-09	-4.135376e+01	-6.041394e+02
4.100000e-07	-5.853604e-06	-9.123301e-09	-4.060159e+01	-5.989644e+02
4.200000e-07	-5.743073e-06	-9.032943e-09	-3.983494e+01	-5.936507e+02
4.300000e-07	-5.630356e-06	-8.957867e-09	-3.905311e+01	-5.881808e+02
4.400000e-07	-5.515446e-06	-8.868944e-09	-3.825607e+01	-5.825367e+02
4.500000e-07	-5.398431e-06	-8.782629e-09	-3.744444e+01	-5.767042e+02
4.600000e-07	-5.279394e-06	-8.692180e-09	-3.661878e+01	-5.706753e+02
4.700000e-07	-5.158531e-06	-8.600663e-09	-3.578045e+01	-5.644497e+02
4.800000e-07	-5.035932e-06	-8.501272e-09	-3.493008e+01	-5.580332e+02
4.900000e-07	-4.911507e-06	-8.396343e-09	-3.406705e+01	-5.514348e+02
5.000000e-07	-4.785232e-06	-8.293929e-09	-3.319118e+01	-5.446628e+02
5.100000e-07	-4.657214e-06	-8.185663e-09	-3.230323e+01	-5.377207e+02
5.200000e-07	-4.527538e-06	-8.079513e-09	-3.140377e+01	-5.306049e+02
5.300000e-07	-4.396146e-06	-7.965357e-09	-3.049242e+01	-5.233043e+02
5.400000e-07	-4.263091e-06	-7.850119e-09	-2.956952e+01	-5.158021e+02
5.500000e-07	-4.128415e-06	-7.728283e-09	-2.863539e+01	-5.080788e+02
5.600000e-07	-3.992180e-06	-7.607569e-09	-2.769044e+01	-5.001163e+02
5.700000e-07	-3.854439e-06	-7.482041e-09	-2.673504e+01	-4.919012e+02
5.800000e-07	-3.715106e-06	-7.350959e-09	-2.576861e+01	-4.834267e+02
5.900000e-07	-3.574206e-06	-7.216655e-09	-2.479130e+01	-4.746920e+02
6.000000e-07	-3.431878e-06	-7.080507e-09	-2.380409e+01	-4.657003e+02
6.100000e-07	-3.288323e-06	-6.942260e-09	-2.280837e+01	-4.564549e+02
6.200000e-07	-3.143582e-06	-6.795991e-09	-2.180442e+01	-4.469559e+02
6.300000e-07	-2.997571e-06	-6.646749e-09	-2.079166e+01	-4.371966e+02
6.400000e-07	-2.850443e-06	-6.491721e-09	-1.977116e+01	-4.271637e+02
6.500000e-07	-2.702353e-06	-6.332688e-09	-1.874398e+01	-4.168375e+02
6.600000e-07	-2.553329e-06	-6.165989e-09	-1.771033e+01	-4.061955e+02
6.700000e-07	-2.403450e-06	-5.996205e-09	-1.667074e+01	-3.952159e+02
6.800000e-07	-2.252771e-06	-5.823194e-09	-1.562561e+01	-3.838812e+02
6.900000e-07	-2.101301e-06	-5.645257e-09	-1.457498e+01	-3.721797e+02
7.000000e-07	-1.949102e-06	-5.462837e-09	-1.351930e+01	-3.601059e+02
7.100000e-07	-1.796253e-06	-5.275163e-09	-1.245912e+01	-3.476574e+02
7.200000e-07	-1.642813e-06	-5.082522e-09	-1.139483e+01	-3.348311e+02
7.300000e-07	-1.488801e-06	-4.878441e-09	-1.032658e+01	-3.216198e+02
7.400000e-07	-1.334252e-06	-4.667036e-09	-9.254600e+00	-3.080083e+02
7.500000e-07	-1.179271e-06	-4.448181e-09	-8.179627e+00	-2.939732e+02
7.600000e-07	-1.023951e-06	-4.226323e-09	-7.102296e+00	-2.794844e+02
7.700000e-07	-8.681933e-07	-4.003018e-09	-6.021937e+00	-2.645080e+02
7.800000e-07	-7.119946e-07	-3.772920e-09	-4.938516e+00	-2.490107e+02
7.900000e-07	-5.555406e-07	-3.529831e-09	-3.853324e+00	-2.329628e+02
8.000000e-07	-3.989072e-07	-3.274794e-09	-2.766888e+00	-2.163381e+02
8.100000e-07	-2.420660e-07	-3.012594e-09	-1.679011e+00	-1.991119e+02
8.200000e-07	-8.507556e-08	-2.740715e-09	-5.900986e-01	-1.812543e+02
8.300000e-07	7.196237e-08	-2.457949e-09	4.991432e-01	-1.627234e+02
8.400000e-07	2.290001e-07	-2.161730e-09	1.588384e+00	-1.434589e+02
8.500000e-07	3.859457e-07	-1.852008e-09	2.676985e+00	-1.233789e+02
8.600000e-07	5.427801e-07	-1.527520e-09	3.764816e+00	-1.023836e+02
8.700000e-07	6.994601e-07	-1.190447e-09	4.851575e+00	-8.036606e+01
8.800000e-07	8.558778e-07	-8.409905e-10	5.936514e+00	-5.722946e+01
8.900000e-07	1.011998e-06	-4.734341e-10	7.019393e+00	-3.290967e+01
9.000000e-07	1.167722e-06	-8.413409e-11	8.099521e+00	-7.398430e+00
9.100000e-07	1.322950e-06	3.210756e-10	9.176205e+00	1.923720e+01
9.200000e-07	1.477632e-06	7.374576e-10	1.024911e+01	4.684350e+01
9.300000e-07	1.631793e-06	1.168545e-09	1.131839e+01	7.518030e+01
9.400000e-07	1.785436e-06	1.610574e-09	1.238409e+01	1.039340e+02
9.500000e-07	1.938452e-06	2.054605e-09	1.344544e+01	1.327422e+02
9.600000e-07	2.090705e-06	2.488102e-09	1.450148e+01	1.612262e+02
9.700000e-07	2.242112e-06	2.907042e-09	1.555167e+01	1.890273e+02
9.800000e-07	2.392700e-06	3.310722e-09	1.659618e+01	2.158391e+02
9.900000e-07	2.542475e-06	3.695334e-09	1.763504e+01	2.414325e+02
1.000000e-06	2.691281e-06	4.060778e-09	1.866718e+01	2.656686e+02
1.010000e-06	2.838982e-06	4.406351e-09	1.969166e+01	2.884984e+02
1.020000e-06	2.985642e-06	4.733279e-09	2.070892e+01	3.099506e+02
1.030000e-06	3.131237e-06	5.041315e-09	2.171879e+01	3.301101e+02
1.040000e-06	3.275586e-06	5.331921e-09	2.272002e+01	3.490934e+02
1.050000e-06	3.418715e-06	5.605962e-09	2.371279e+01	3.670239e+02
1.060000e-06	3.560641e-06	5.866008e-09	2.469721e+01	3.840135e+02
1.070000e-06	3.701167e-06	6.109755e-09	2.567193e+01	4.001509e+02
1.080000e-06	3.840232e-06	6.339195e-09	2.663650e+01	4.154987e+02
1.090000e-06	3.977867e-06	6.558713e-09	2.759116e+01	4.300983e+02
1.100000e-06	4.114042e-06	6.766571e-09	2.853569e+01	4.439778e+02
1.110000e-06	4.248716e-06	6.965568e-09	2.946982e+01	4.571630e+02
1.120000e-06	4.381882e-06	7.156574e-09	3.039348e+01	4.696847e+02
1.130000e-06	4.513453e-06	7.340415e-09	3.130608e+01	4.815833e+02
1.140000e-06	4.643403e-06	7.515477e-09	3.220744e+01	4.929084e+02
1.150000e-06	4.771742e-06	7.680529e-09	3.309762e+01	5.037143e+02
1.160000e-06	4.898439e-06	7.837598e-09	3.397641e+01	5.140537e+02
1.170000e-06	5.023517e-06	7.989140e-09	3.484397e+01	5.239705e+02
1.180000e-06	5.146821e-06	8.135229e-09	3.569923e+01	5.334957e+02
1.190000e-06	5.268232e-06	8.274559e-09	3.654136e+01	5.426450e+02
1.200000e-06	5.387798e-06	8.406963e-09	3.737068e+01	5.514214e+02
1.210000e-06	5.505370e-06	8.533058e-09	3.818619e+01	5.598200e+02
1.220000e-06	5.620793e-06	8.654176e-09	3.898678e+01	5.678338e+02
1.230000e-06	5.734056e-06	8.771218e-09	3.977239e+01	5.754603e+02
1.240000e-06	5.845159e-06	8.881617e-09	4.054302e+01	5.827059e+02
1.250000e-06	5.954175e-06	8.984622e-09	4.129917e+01	5.895872e+02
1.260000e-06	6.061095e-06	9.081022e-09	4.204078e+01	5.961300e+02
1.270000e-06	6.165765e-06	9.173687e-09	4.276680e+01	6.023665e+02
1.280000e-06	6.268192e-06	9.265157e-09	4.347725e+01	6.083299e+02
1.290000e-06	6.368327e-06	9.353341e-09	4.417180e+01	6.140506e+02
1.300000e-06	6.465999e-06	9.437585e-09	4.484927e+01	6.195529e+02
1.310000e-06	6.561228e-06	9.517594e-09	4.550979e+01	6.248533e+02
1.320000e-06	6.654138e-06	9.594222e-09	4.615424e+01	6.299613e+02
1.330000e-06	6.744721e-06	9.667674e-09	4.678253e+01	6.348813e+02
1.340000e-06	6.832861e-06	9.737941e-09	4.739389e+01	6.396150e+02
1.350000e-06	6.918622e-06	9.806272e-09	4.798874e+01	6.441640e+02
1.360000e-06	7.002025e-06	9.872557e-09	4.856724e+01	6.485311e+02
1.370000e-06	7.082864e-06	9.937107e-09	4.912795e+01	6.527209e+02
1.380000e-06	7.161119e-06	9.998896e-09	4.967074e+01	6.567388e+02
1.390000e-06	7.236730e-06	1.005701e-08	5.019519e+01	6.605899e+02
1.400000e-06	7.309587e-06	1.011195e-08	5.070054e+01	6.642775e+02
1.410000e-06	7.379834e-06	1.016329e-08	5.118779e+01	6.678020e+02
1.420000e-06	7.447527e-06	1.021225e-08	5.165732e+01	6.711609e+02
1.430000e-06	7.512530e-06	1.026020e-08	5.210819e+01	6.743497e+02
1.440000e-06	7.574859e-06	1.030565e-08	5.254051e+01	6.773628e+02
1.450000e-06	7.634644e-06	1.034758e-08	5.295519e+01	6.801953e+02
1.460000e-06	7.691776e-06	1.038531e-08	5.335147e+01	6.828444e+02
1.470000e-06	7.746132e-06	1.042042e-08	5.372849e+01	6.853098e+02
1.480000e-06	7.797467e-06	1.045308e-08	5.408456e+01	6.875939e+02
1.490000e-06	7.845625e-06	1.048324e-08	5.441859e+01	6.897012e+02
1.500000e-06	7.890920e-06	1.051297e-08	5.473277e+01	6.916372e+02
1.510000e-06	7.933447e-06	1.054071e-08	5.502774e+01	6.934075e+02
1.520000e-06	7.973044e-06	1.056530e-08	5.530239e+01	6.950171e+02
1.530000e-06	8.009865e-06	1.058642e-08	5.555779e+01	6.964704e+02
1.540000e-06	8.043927e-06	1.060455e-08	5.579405e+01	6.977709e+02
1.550000e-06	8.075038e-06	1.062101e-08	5.600984e+01	6.989226e+02
1.560000e-06	8.103289e-06	1.063497e-08	5.620579e+01	6.999298e+02
1.570000e-06	8.128641e-06	1.064669e-08	5.638164e+01	7.007977e+02
1.580000e-06	8.151006e-06	1.065672e-08	5.653677e+01	7.015322e+02
1.590000e-06	8.170521e-06	1.066756e-08	5.667212e+01	7.021397e+02
1.600000e-06	8.187116e-06	1.067925e-08	5.678723e+01	7.026260e+02
1.610000e-06	8.200643e-06	1.068708e-08	5.688106e+01	7.029957e+02
1.620000e-06	8.210974e-06	1.069180e-08	5.695272e+01	7.032515e+02
1.630000e-06	8.218177e-06	1.069347e-08	5.700267e+01	7.033942e+02
1.640000e-06	8.222431e-06	1.069372e-08	5.703218e+01	7.034228e+02
1.650000e-06	8.223774e-06	1.069261e-08	5.704150e+01	7.033350e+02
1.660000e-06	8.222335e-06	1.069021e-08	5.703152e+01	7.031286e+02
1.670000e-06	8.218178e-06	1.068312e-08	5.700269e+01	7.028015e+02
1.680000e-06	8.211225e-06	1.067559e-08	5.695446e+01	7.023534e+02
1.690000e-06	8.201510e-06	1.066999e-08	5.688707e+01	7.017851e+02
1.700000e-06	8.188971e-06	1.066414e-08	5.680010e+01	7.010996e+02
1.710000e-06	8.173662e-06	1.065510e-08	5.669391e+01	7.003016e+02
1.720000e-06	8.155833e-06	1.064250e-08	5.657025e+01	6.993974e+02
1.730000e-06	8.135541e-06	1.062498e-08	5.642950e+01	6.983950e+02
1.740000e-06	8.112437e-06	1.061645e-08	5.626925e+01	6.973033e+02
1.750000e-06	8.085851e-06	1.055895e-08	5.608484e+01	6.961321e+02
1.760000e-06	8.055450e-06	1.054128e-08	5.587398e+01	6.948911e+02
1.770000e-06	8.021869e-06	1.054397e-08	5.564105e+01	6.935884e+02
1.780000e-06	7.985905e-06	1.052702e-08	5.539160e+01	6.922294e+02
1.790000e-06	7.947639e-06	1.050399e-08	5.512618e+01	6.908148e+02
1.800000e-06	7.907222e-06	1.053535e-08	5.484584e+01	6.893394e+02
1.810000e-06	7.864626e-06	1.048486e-08	5.455039e+01	6.877913e+02
1.820000e-06	7.819285e-06	1.040986e-08	5.423589e+01	6.861522e+02
1.830000e-06	7.771110e-06	1.046056e-08	5.390174e+01	6.843992e+02
1.840000e-06	7.720017e-06	1.038572e-08	5.354735e+01	6.825075e+02
1.850000e-06	7.665793e-06	1.040191e-08	5.317125e+01	6.804542e+02
1.860000e-06	7.608723e-06	1.036803e-08	5.277540e+01	6.782215e+02
1.870000e-06	7.548897e-06	1.031656e-08	5.236043e+01	6.758001e+02
1.880000e-06	7.486400e-06	1.031582e-08	5.192695e+01	6.731902e+02
1.890000e-06	7.421102e-06	1.020833e-08	5.147403e+01	6.704011e+02
1.900000e-06	7.352833e-06	1.020203e-08	5.100050e+01	6.674487e+02
1.910000e-06	7.281725e-06	1.011770e-08	5.050728e+01	6.643519e+02
1.920000e-06	7.207720e-06	1.008587e-08	4.999397e+01	6.611280e+02
1.930000e-06	7.130951e-06	1.006476e-08	4.946149e+01	6.577890e+02
1.940000e-06	7.051468e-06	9.984851e-09	4.891018e+01	6.543388e+02
1.950000e-06	6.969334e-06	9.967767e-09	4.834049e+01	6.507731e+02
1.960000e-06	6.884656e-06	9.856835e-09	4.775315e+01	6.470809e+02
1.970000e-06	6.797328e-06	9.815096e-09	4.714743e+01	6.432479e+02
1.980000e-06	6.707499e-06	9.745913e-09	4.652435e+01	6.392608e+02
1.990000e-06	6.615341e-06	9.695873e-09	4.588513e+01	6.351108e+02
2.000000e-06	6.520909e-06	9.649779e-09	4.523014e+01	6.307960e+02
2.010000e-06	6.424156e-06	9.563268e-09	4.455904e+01	6.263218e+02
2.020000e-06	6.325052e-06	9.506861e-09	4.387164e+01	6.216992e+02
2.030000e-06	6.223672e-06	9.414257e-09	4.316845e+01	6.169410e+02
2.040000e-06	6.120041e-06	9.355488e-09	4.244965e+01	6.120582e+02
2.050000e-06	6.014301e-06	9.265360e-09	4.171621e+01	6.070558e+02
2.060000e-06	5.906472e-06	9.200134e-09	4.096829e+01	6.019311e+02
2.070000e-06	5.796603e-06	9.119007e-09	4.020623e+01	5.966736e+02
2.080000e-06	5.684675e-06	9.034365e-09	3.942988e+01	5.912671e+02
2.090000e-06	5.570515e-06	8.946242e-09	3.863804e+01	5.856933e+02
2.100000e-06	5.454191e-06	8.853383e-09	3.783120e+01	5.799359e+02
2.110000e-06	5.335823e-06	8.763838e-09	3.701018e+01	5.739844e+02
2.120000e-06	5.215485e-06	8.662539e-09	3.617549e+01	5.678355e+02
2.130000e-06	5.093261e-06	8.577698e-09	3.532773e+01	5.614928e+02
2.140000e-06	4.969183e-06	8.480476e-09	3.446710e+01	5.549646e+02
2.150000e-06	4.843344e-06	8.386091e-09	3.359426e+01	5.482599e+02
2.160000e-06	4.715713e-06	8.274857e-09	3.270899e+01	5.413844e+02
2.170000e-06	4.586308e-06	8.168221e-09	3.181142e+01	5.343375e+02
2.180000e-06	4.455279e-06	8.051086e-09	3.090257e+01	5.271111e+02
2.190000e-06	4.322610e-06	7.939256e-09	2.998236e+01	5.196902e+02
2.200000e-06	4.188383e-06	7.824216e-09	2.905133e+01	5.120559e+02
2.210000e-06	4.052592e-06	7.707696e-09	2.810947e+01	5.041891e+02
2.220000e-06	3.915155e-06	7.584941e-09	2.715618e+01	4.960742e+02
2.230000e-06	3.776145e-06	7.458545e-09	2.619198e+01	4.877019e+02
2.240000e-06	3.635792e-06	7.331144e-09	2.521847e+01	4.790689e+02
2.250000e-06	3.494092e-06	7.197004e-09	2.423562e+01	4.701775e+02
2.260000e-06	3.351037e-06	7.059320e-09	2.324336e+01	4.610314e+02
2.270000e-06	3.206703e-06	6.913791e-09	2.224224e+01	4.516321e+02
2.280000e-06	3.061112e-06	6.765652e-09	2.123240e+01	4.419762e+02
2.290000e-06	2.914343e-06	6.610101e-09	2.021438e+01	4.320526e+02
2.300000e-06	2.766500e-06	6.454797e-09	1.918891e+01	4.218441e+02
2.310000e-06	2.617781e-06	6.295800e-09	1.815738e+01	4.113287e+02
2.320000e-06	2.468206e-06	6.133393e-09	1.711990e+01	4.004839e+02
2.330000e-06	2.317831e-06	5.965058e-09	1.607687e+01	3.892902e+02
2.340000e-06	2.166726e-06	5.792655e-09	1.502878e+01	3.777336e+02
2.350000e-06	2.014867e-06	5.613367e-09	1.397546e+01	3.658063e+02
2.360000e-06	1.862238e-06	5.427153e-09	1.291680e+01	3.535050e+02
2.370000e-06	1.708881e-06	5.232619e-09	1.185309e+01	3.408275e+02
2.380000e-06	1.554915e-06	5.030087e-09	1.078516e+01	3.277686e+02
2.390000e-06	1.400441e-06	4.822964e-09	9.713697e+00	3.143164e+02
2.400000e-06	1.245521e-06	4.610968e-09	8.639143e+00	3.004509e+02
2.410000e-06	1.090222e-06	4.391855e-09	7.561962e+00	2.861440e+02
2.420000e-06	9.345439e-07	4.164874e-09	6.482156e+00	2.713631e+02
2.430000e-06	7.785301e-07	3.930789e-09	5.400017e+00	2.560740e+02
2.440000e-06	6.222902e-07	3.690665e-09	4.316311e+00	2.402455e+02
2.450000e-06	4.658306e-07	3.442330e-09	3.231080e+00	2.238502e+02
2.460000e-06	3.092018e-07	3.183741e-09	2.144676e+00	2.068632e+02
2.470000e-06	1.524671e-07	2.915237e-09	1.057538e+00	1.892576e+02
2.480000e-06	-4.349529e-09	2.636466e-09	-3.016907e-02	1.709971e+02
2.490000e-06	-1.612040e-07	2.347384e-09	-1.118139e+00	1.520292e+02
2.500000e-06	-3.180126e-07	2.045955e-09	-2.205789e+00	1.322804e+02
2.510000e-06	-4.747079e-07	1.731596e-09	-3.292655e+00	1.116572e+02
2.520000e-06	-6.312234e-07	1.401648e-09	-4.378273e+00	9.005365e+01
2.530000e-06	-7.875679e-07	1.053080e-09	-5.462705e+00	6.736647e+01
2.540000e-06	-9.436962e-07	6.889463e-10	-6.545638e+00	4.351589e+01
2.550000e-06	-1.099438e-06	3.102906e-10	-7.625888e+00	1.846906e+01
2.560000e-06	-1.254789e-06	-8.456097e-11	-8.703428e+00	-7.738439e+00
2.570000e-06	-1.409753e-06	-4.988052e-10	-9.778289e+00	-3.498760e+01
2.580000e-06	-1.564259e-06	-9.289807e-10	-1.084997e+01	-6.307138e+01
2.590000e-06	-1.718209e-06	-1.368610e-09	-1.191779e+01	-9.170267e+01
2.600000e-06	-1.871465e-06	-1.813585e-09	-1.298080e+01	-1.205347e+02
2.610000e-06	-2.023869e-06	-2.256211e-09	-1.403790e+01	-1.491909e+02
2.620000e-06	-2.175355e-06	-2.689034e-09	-1.508863e+01	-1.773006e+02
2.630000e-06	-2.326032e-06	-3.105901e-09	-1.613376e+01	-2.045333e+02
2.640000e-06	-2.475960e-06	-3.503243e-09	-1.717368e+01	-2.306272e+02
2.650000e-06	-2.625027e-06	-3.881497e-09	-1.820763e+01	-2.554074e+02
2.660000e-06	-2.773101e-06	-4.239870e-09	-1.923470e+01	-2.787904e+02
2.670000e-06	-2.920141e-06	-4.575443e-09	-2.025459e+01	-3.007764e+02
2.680000e-06	-3.066159e-06	-4.890610e-09	-2.126740e+01	-3.214312e+02
2.690000e-06	-3.210967e-06	-5.189219e-09	-2.227182e+01	-3.408619e+02
2.700000e-06	-3.354456e-06	-5.472800e-09	-2.326708e+01	-3.591919e+02
2.710000e-06	-3.496721e-06	-5.741748e-09	-2.425385e+01	-3.765394e+02
2.720000e-06	-3.637664e-06	-5.994596e-09	-2.523146e+01	-3.930028e+02
2.730000e-06	-3.777173e-06	-6.233837e-09	-2.619912e+01	-4.086551e+02
2.740000e-06	-3.915302e-06	-6.460317e-09	-2.715720e+01	-4.235449e+02
2.750000e-06	-4.051956e-06	-6.676969e-09	-2.810506e+01	-4.377045e+02
2.760000e-06	-4.187061e-06	-6.885596e-09	-2.904217e+01	-4.511594e+02
2.770000e-06	-4.320750e-06	-7.080955e-09	-2.996946e+01	-4.639377e+02
2.780000e-06	-4.452965e-06	-7.263745e-09	-3.088653e+01	-4.760758e+02
2.790000e-06	-4.583622e-06	-7.437790e-09	-3.179278e+01	-4.876201e+02
2.800000e-06	-4.712710e-06	-7.607484e-09	-3.268816e+01	-4.986236e+02
2.810000e-06	-4.840100e-06	-7.770895e-09	-3.357176e+01	-5.091406e+02
2.820000e-06	-4.965866e-06	-7.925809e-09	-3.444409e+01	-5.192191e+02
2.830000e-06	-5.090029e-06	-8.073482e-09	-3.530531e+01	-5.288956e+02
2.840000e-06	-5.212348e-06	-8.213457e-09	-3.615374e+01	-5.381918e+02
2.850000e-06	-5.332676e-06	-8.348247e-09	-3.698835e+01	-5.471152e+02
2.860000e-06	-5.450908e-06	-8.478546e-09	-3.780842e+01	-5.556633e+02
2.870000e-06	-5.566961e-06	-8.604695e-09	-3.861339e+01	-5.638291e+02
2.880000e-06	-5.680788e-06	-8.724114e-09	-3.940291e+01	-5.716077e+02
2.890000e-06	-5.792354e-06	-8.835006e-09	-4.017675e+01	-5.790018e+02
2.900000e-06	-5.901758e-06	-8.942386e-09	-4.093560e+01	-5.860237e+02
2.910000e-06	-6.009131e-06	-9.048203e-09	-4.168036e+01	-5.926961e+02
2.920000e-06	-6.114389e-06	-9.150685e-09	-4.241044e+01	-5.990492e+02
2.930000e-06	-6.217390e-06	-9.247581e-09	-4.312488e+01	-6.051161e+02
2.940000e-06	-6.318040e-06	-9.336435e-09	-4.382300e+01	-6.109291e+02
