# Temperatura_=_81.48
# Concentracion g/m^3_=_15000.0
# C_Vs_to_Am_M_A/Vsm_=_65563218390.804596
# pendiente_HvsI_1/m_=_3716.3
# ordenada_HvsI_A/m_=_1297.0
# frecuencia_Hz_=_302327.53093157936

Tiempo_(s)	Campo_(V.s)	Magnetizacion_(V.s)	Campo_(kA/m)	Magnetizacion_(A/m)
0.000000e+00	-8.259108e-06	-1.034065e-08	-5.692370e+01	-6.757386e+02
1.000000e-08	-8.256566e-06	-1.033456e-08	-5.690618e+01	-6.755167e+02
2.000000e-08	-8.251243e-06	-1.032928e-08	-5.686950e+01	-6.751727e+02
3.000000e-08	-8.243236e-06	-1.032228e-08	-5.681431e+01	-6.747112e+02
4.000000e-08	-8.232391e-06	-1.031281e-08	-5.673957e+01	-6.741385e+02
5.000000e-08	-8.218585e-06	-1.030130e-08	-5.664441e+01	-6.734614e+02
6.000000e-08	-8.201845e-06	-1.028888e-08	-5.652903e+01	-6.726865e+02
7.000000e-08	-8.182549e-06	-1.027712e-08	-5.639604e+01	-6.718189e+02
8.000000e-08	-8.160858e-06	-1.026590e-08	-5.624654e+01	-6.708626e+02
9.000000e-08	-8.136248e-06	-1.025268e-08	-5.607693e+01	-6.698207e+02
1.000000e-07	-8.108319e-06	-1.026222e-08	-5.588443e+01	-6.686967e+02
1.100000e-07	-8.077207e-06	-1.024513e-08	-5.567000e+01	-6.674946e+02
1.200000e-07	-8.043098e-06	-1.020093e-08	-5.543491e+01	-6.662192e+02
1.300000e-07	-8.006234e-06	-1.016381e-08	-5.518084e+01	-6.648753e+02
1.400000e-07	-7.966934e-06	-1.013601e-08	-5.490997e+01	-6.634657e+02
1.500000e-07	-7.925230e-06	-1.009751e-08	-5.462254e+01	-6.619894e+02
1.600000e-07	-7.881064e-06	-1.005095e-08	-5.431814e+01	-6.604400e+02
1.700000e-07	-7.834104e-06	-1.008125e-08	-5.399448e+01	-6.588042e+02
1.800000e-07	-7.784117e-06	-1.002068e-08	-5.364996e+01	-6.570629e+02
1.900000e-07	-7.731164e-06	-9.974730e-09	-5.328499e+01	-6.551932e+02
2.000000e-07	-7.675297e-06	-9.985756e-09	-5.289994e+01	-6.531715e+02
2.100000e-07	-7.616673e-06	-9.914669e-09	-5.249589e+01	-6.509783e+02
2.200000e-07	-7.555351e-06	-9.884859e-09	-5.207325e+01	-6.486013e+02
2.300000e-07	-7.491315e-06	-9.834869e-09	-5.163190e+01	-6.460380e+02
2.400000e-07	-7.424493e-06	-9.769757e-09	-5.117134e+01	-6.432962e+02
2.500000e-07	-7.354876e-06	-9.724804e-09	-5.069153e+01	-6.403921e+02
2.600000e-07	-7.282386e-06	-9.704891e-09	-5.019191e+01	-6.373465e+02
2.700000e-07	-7.206921e-06	-9.685195e-09	-4.967179e+01	-6.341801e+02
2.800000e-07	-7.128576e-06	-9.609842e-09	-4.913182e+01	-6.309089e+02
2.900000e-07	-7.047480e-06	-9.554589e-09	-4.857288e+01	-6.275406e+02
3.000000e-07	-6.963917e-06	-9.495846e-09	-4.799695e+01	-6.240737e+02
3.100000e-07	-6.877980e-06	-9.435167e-09	-4.740465e+01	-6.204985e+02
3.200000e-07	-6.789525e-06	-9.392821e-09	-4.679499e+01	-6.168000e+02
3.300000e-07	-6.698571e-06	-9.333152e-09	-4.616812e+01	-6.129624e+02
3.400000e-07	-6.605209e-06	-9.275037e-09	-4.552465e+01	-6.089733e+02
3.500000e-07	-6.509488e-06	-9.202230e-09	-4.486492e+01	-6.048265e+02
3.600000e-07	-6.411385e-06	-9.140338e-09	-4.418877e+01	-6.005233e+02
3.700000e-07	-6.310930e-06	-9.074861e-09	-4.349641e+01	-5.960711e+02
3.800000e-07	-6.208207e-06	-9.005115e-09	-4.278842e+01	-5.914809e+02
3.900000e-07	-6.103171e-06	-8.932872e-09	-4.206449e+01	-5.867629e+02
4.000000e-07	-5.995936e-06	-8.855493e-09	-4.132540e+01	-5.819233e+02
4.100000e-07	-5.886715e-06	-8.784357e-09	-4.057262e+01	-5.769621e+02
4.200000e-07	-5.775419e-06	-8.704119e-09	-3.980554e+01	-5.718722e+02
4.300000e-07	-5.661847e-06	-8.626407e-09	-3.902277e+01	-5.666417e+02
4.400000e-07	-5.546062e-06	-8.535260e-09	-3.822476e+01	-5.612559e+02
4.500000e-07	-5.428252e-06	-8.446114e-09	-3.741278e+01	-5.557017e+02
4.600000e-07	-5.308488e-06	-8.364480e-09	-3.658734e+01	-5.499700e+02
4.700000e-07	-5.186804e-06	-8.285314e-09	-3.574867e+01	-5.440573e+02
4.800000e-07	-5.063283e-06	-8.195977e-09	-3.489733e+01	-5.379653e+02
4.900000e-07	-4.937976e-06	-8.097019e-09	-3.403369e+01	-5.316988e+02
5.000000e-07	-4.810929e-06	-7.992435e-09	-3.315805e+01	-5.252624e+02
5.100000e-07	-4.682099e-06	-7.881442e-09	-3.227012e+01	-5.186579e+02
5.200000e-07	-4.551500e-06	-7.778655e-09	-3.137000e+01	-5.118813e+02
5.300000e-07	-4.419199e-06	-7.679327e-09	-3.045815e+01	-5.049228e+02
5.400000e-07	-4.285209e-06	-7.574944e-09	-2.953466e+01	-4.977679e+02
5.500000e-07	-4.149676e-06	-7.458319e-09	-2.860054e+01	-4.904001e+02
5.600000e-07	-4.012572e-06	-7.341920e-09	-2.765558e+01	-4.828038e+02
5.700000e-07	-3.873808e-06	-7.223553e-09	-2.669919e+01	-4.749676e+02
5.800000e-07	-3.733473e-06	-7.096020e-09	-2.573197e+01	-4.668855e+02
5.900000e-07	-3.591625e-06	-6.967205e-09	-2.475432e+01	-4.585563e+02
6.000000e-07	-3.448282e-06	-6.839219e-09	-2.376636e+01	-4.499820e+02
6.100000e-07	-3.303561e-06	-6.707084e-09	-2.276891e+01	-4.411640e+02
6.200000e-07	-3.157640e-06	-6.566091e-09	-2.176319e+01	-4.321003e+02
6.300000e-07	-3.010603e-06	-6.423519e-09	-2.074978e+01	-4.227832e+02
6.400000e-07	-2.862550e-06	-6.277068e-09	-1.972937e+01	-4.131986e+02
6.500000e-07	-2.713551e-06	-6.120854e-09	-1.870243e+01	-4.033272e+02
6.600000e-07	-2.563645e-06	-5.957966e-09	-1.766924e+01	-3.931474e+02
6.700000e-07	-2.412876e-06	-5.797935e-09	-1.663011e+01	-3.826389e+02
6.800000e-07	-2.261237e-06	-5.638133e-09	-1.558498e+01	-3.717849e+02
6.900000e-07	-2.108853e-06	-5.470223e-09	-1.453471e+01	-3.605742e+02
7.000000e-07	-1.955691e-06	-5.293643e-09	-1.347908e+01	-3.489996e+02
7.100000e-07	-1.801750e-06	-5.111667e-09	-1.241808e+01	-3.370558e+02
7.200000e-07	-1.647166e-06	-4.923322e-09	-1.135265e+01	-3.247357e+02
7.300000e-07	-1.492022e-06	-4.728113e-09	-1.028336e+01	-3.120270e+02
7.400000e-07	-1.336435e-06	-4.529352e-09	-9.211023e+00	-2.989101e+02
7.500000e-07	-1.180436e-06	-4.321330e-09	-8.135841e+00	-2.853580e+02
7.600000e-07	-1.024032e-06	-4.106302e-09	-7.057868e+00	-2.713395e+02
7.700000e-07	-8.672679e-07	-3.887809e-09	-5.977413e+00	-2.568225e+02
7.800000e-07	-7.101711e-07	-3.662979e-09	-4.894665e+00	-2.417783e+02
7.900000e-07	-5.528276e-07	-3.426534e-09	-3.810217e+00	-2.261841e+02
8.000000e-07	-3.952974e-07	-3.178888e-09	-2.724482e+00	-2.100225e+02
8.100000e-07	-2.376290e-07	-2.923831e-09	-1.637794e+00	-1.932772e+02
8.200000e-07	-7.986762e-08	-2.660381e-09	-5.504663e-01	-1.759258e+02
8.300000e-07	7.794129e-08	-2.386510e-09	5.371896e-01	-1.579315e+02
8.400000e-07	2.357337e-07	-2.101840e-09	1.624732e+00	-1.392361e+02
8.500000e-07	3.934615e-07	-1.803850e-09	2.711828e+00	-1.197573e+02
8.600000e-07	5.510613e-07	-1.489626e-09	3.798044e+00	-9.939278e+01
8.700000e-07	7.085494e-07	-1.162058e-09	4.883488e+00	-7.803203e+01
8.800000e-07	8.658653e-07	-8.213997e-10	5.967746e+00	-5.557543e+01
8.900000e-07	1.022924e-06	-4.622333e-10	7.050235e+00	-3.195762e+01
9.000000e-07	1.179689e-06	-8.400527e-11	8.130691e+00	-7.171263e+00
9.100000e-07	1.336096e-06	3.082379e-10	9.208689e+00	1.871366e+01
9.200000e-07	1.492036e-06	7.131139e-10	1.028346e+01	4.553952e+01
9.300000e-07	1.647427e-06	1.133099e-09	1.135445e+01	7.306280e+01
9.400000e-07	1.802206e-06	1.563298e-09	1.242122e+01	1.009688e+02
9.500000e-07	1.956256e-06	1.991702e-09	1.348297e+01	1.288975e+02
9.600000e-07	2.109509e-06	2.410114e-09	1.453923e+01	1.564778e+02
9.700000e-07	2.261954e-06	2.816665e-09	1.558992e+01	1.833620e+02
9.800000e-07	2.413532e-06	3.207548e-09	1.663463e+01	2.092585e+02
9.900000e-07	2.564121e-06	3.578551e-09	1.767252e+01	2.339543e+02
1.000000e-06	2.713695e-06	3.929745e-09	1.870342e+01	2.573254e+02
1.010000e-06	2.862280e-06	4.263344e-09	1.972750e+01	2.793341e+02
1.020000e-06	3.009842e-06	4.578732e-09	2.074453e+01	3.000157e+02
1.030000e-06	3.156271e-06	4.875563e-09	2.175376e+01	3.194558e+02
1.040000e-06	3.301508e-06	5.156307e-09	2.275476e+01	3.377666e+02
1.050000e-06	3.445547e-06	5.418776e-09	2.374751e+01	3.550635e+02
1.060000e-06	3.588264e-06	5.666476e-09	2.473116e+01	3.714485e+02
1.070000e-06	3.729657e-06	5.901497e-09	2.570567e+01	3.870011e+02
1.080000e-06	3.869670e-06	6.125102e-09	2.667067e+01	4.017776e+02
1.090000e-06	4.008118e-06	6.337888e-09	2.762488e+01	4.158163e+02
1.100000e-06	4.145047e-06	6.538342e-09	2.856863e+01	4.291460e+02
1.110000e-06	4.280448e-06	6.729189e-09	2.950185e+01	4.417955e+02
1.120000e-06	4.414282e-06	6.912231e-09	3.042426e+01	4.537999e+02
1.130000e-06	4.546607e-06	7.088532e-09	3.133628e+01	4.652029e+02
1.140000e-06	4.677305e-06	7.256931e-09	3.223708e+01	4.760549e+02
1.150000e-06	4.806369e-06	7.415239e-09	3.312662e+01	4.864080e+02
1.160000e-06	4.933815e-06	7.564931e-09	3.400501e+01	4.963093e+02
1.170000e-06	5.059544e-06	7.708929e-09	3.487156e+01	5.057954e+02
1.180000e-06	5.183567e-06	7.847321e-09	3.572636e+01	5.148892e+02
1.190000e-06	5.305745e-06	7.979732e-09	3.656844e+01	5.236005e+02
1.200000e-06	5.426040e-06	8.106786e-09	3.739754e+01	5.319289e+02
1.210000e-06	5.544382e-06	8.226824e-09	3.821318e+01	5.398702e+02
1.220000e-06	5.660620e-06	8.339740e-09	3.901432e+01	5.474224e+02
1.230000e-06	5.774595e-06	8.447460e-09	3.979986e+01	5.545907e+02
1.240000e-06	5.886274e-06	8.550534e-09	4.056958e+01	5.613905e+02
1.250000e-06	5.995833e-06	8.648197e-09	4.132469e+01	5.678474e+02
1.260000e-06	6.103306e-06	8.739648e-09	4.206541e+01	5.739940e+02
1.270000e-06	6.208573e-06	8.828754e-09	4.279094e+01	5.798660e+02
1.280000e-06	6.311523e-06	8.915582e-09	4.350050e+01	5.854970e+02
1.290000e-06	6.412196e-06	8.998955e-09	4.419435e+01	5.909149e+02
1.300000e-06	6.510511e-06	9.078051e-09	4.487196e+01	5.961393e+02
1.310000e-06	6.606312e-06	9.154207e-09	4.553225e+01	6.011822e+02
1.320000e-06	6.699712e-06	9.228206e-09	4.617598e+01	6.060490e+02
1.330000e-06	6.790768e-06	9.299372e-09	4.680357e+01	6.107415e+02
1.340000e-06	6.879380e-06	9.367139e-09	4.741430e+01	6.152605e+02
1.350000e-06	6.965564e-06	9.431658e-09	4.800830e+01	6.196078e+02
1.360000e-06	7.049373e-06	9.494406e-09	4.858593e+01	6.237872e+02
1.370000e-06	7.130685e-06	9.554584e-09	4.914635e+01	6.278034e+02
1.380000e-06	7.209346e-06	9.611922e-09	4.968850e+01	6.316611e+02
1.390000e-06	7.285281e-06	9.666120e-09	5.021186e+01	6.353630e+02
1.400000e-06	7.358437e-06	9.718870e-09	5.071607e+01	6.389090e+02
1.410000e-06	7.428980e-06	9.771185e-09	5.120227e+01	6.422956e+02
1.420000e-06	7.497055e-06	9.820252e-09	5.167146e+01	6.455169e+02
1.430000e-06	7.562439e-06	9.865074e-09	5.212210e+01	6.485663e+02
1.440000e-06	7.625073e-06	9.906288e-09	5.255379e+01	6.514377e+02
1.450000e-06	7.685155e-06	9.945808e-09	5.296789e+01	6.541282e+02
1.460000e-06	7.742556e-06	9.984104e-09	5.336351e+01	6.566381e+02
1.470000e-06	7.797159e-06	1.001890e-08	5.373985e+01	6.589711e+02
1.480000e-06	7.848701e-06	1.004968e-08	5.409509e+01	6.611336e+02
1.490000e-06	7.896999e-06	1.007824e-08	5.442797e+01	6.631330e+02
1.500000e-06	7.942465e-06	1.010569e-08	5.474133e+01	6.649764e+02
1.510000e-06	7.985176e-06	1.013190e-08	5.503570e+01	6.666695e+02
1.520000e-06	8.024953e-06	1.015624e-08	5.530985e+01	6.682164e+02
1.530000e-06	8.061930e-06	1.017704e-08	5.556471e+01	6.696199e+02
1.540000e-06	8.096082e-06	1.019487e-08	5.580010e+01	6.708825e+02
1.550000e-06	8.127329e-06	1.021067e-08	5.601545e+01	6.720074e+02
1.560000e-06	8.155748e-06	1.022515e-08	5.621132e+01	6.729992e+02
1.570000e-06	8.181190e-06	1.023779e-08	5.638668e+01	6.738637e+02
1.580000e-06	8.203608e-06	1.024858e-08	5.654119e+01	6.746076e+02
1.590000e-06	8.223151e-06	1.025957e-08	5.667588e+01	6.752370e+02
1.600000e-06	8.239726e-06	1.027007e-08	5.679012e+01	6.757563e+02
1.610000e-06	8.253198e-06	1.027797e-08	5.688297e+01	6.761673e+02
1.620000e-06	8.263473e-06	1.028386e-08	5.695379e+01	6.764689e+02
1.630000e-06	8.270626e-06	1.028790e-08	5.700309e+01	6.766578e+02
1.640000e-06	8.274898e-06	1.028899e-08	5.703254e+01	6.767293e+02
1.650000e-06	8.276199e-06	1.028645e-08	5.704150e+01	6.766795e+02
1.660000e-06	8.274582e-06	1.028192e-08	5.703035e+01	6.765060e+02
1.670000e-06	8.270312e-06	1.027564e-08	5.700093e+01	6.762094e+02
1.680000e-06	8.263236e-06	1.027245e-08	5.695215e+01	6.757932e+02
1.690000e-06	8.253348e-06	1.026902e-08	5.688401e+01	6.752632e+02
1.700000e-06	8.240576e-06	1.026269e-08	5.679598e+01	6.746262e+02
1.710000e-06	8.224966e-06	1.025351e-08	5.668839e+01	6.738889e+02
1.720000e-06	8.206906e-06	1.024148e-08	5.656392e+01	6.730570e+02
1.730000e-06	8.186442e-06	1.022118e-08	5.642287e+01	6.721350e+02
1.740000e-06	8.163133e-06	1.019516e-08	5.626222e+01	6.711262e+02
1.750000e-06	8.136261e-06	1.015452e-08	5.607701e+01	6.700339e+02
1.760000e-06	8.105492e-06	1.014166e-08	5.586495e+01	6.688618e+02
1.770000e-06	8.071536e-06	1.013715e-08	5.563092e+01	6.676145e+02
1.780000e-06	8.035244e-06	1.012781e-08	5.538078e+01	6.662968e+02
1.790000e-06	7.996599e-06	1.012167e-08	5.511443e+01	6.649127e+02
1.800000e-06	7.955767e-06	1.013868e-08	5.483301e+01	6.634629e+02
1.810000e-06	7.912807e-06	1.008453e-08	5.453692e+01	6.619433e+02
1.820000e-06	7.867089e-06	1.004592e-08	5.422182e+01	6.603433e+02
1.830000e-06	7.818567e-06	1.006591e-08	5.388739e+01	6.586459e+02
1.840000e-06	7.767085e-06	1.000474e-08	5.353257e+01	6.568294e+02
1.850000e-06	7.712439e-06	9.999211e-09	5.315594e+01	6.548699e+02
1.860000e-06	7.655044e-06	9.949338e-09	5.276036e+01	6.527459e+02
1.870000e-06	7.594784e-06	9.916502e-09	5.234503e+01	6.504418e+02
1.880000e-06	7.531657e-06	9.917482e-09	5.190994e+01	6.479511e+02
1.890000e-06	7.465746e-06	9.877169e-09	5.145567e+01	6.452778e+02
1.900000e-06	7.396909e-06	9.852633e-09	5.098123e+01	6.424350e+02
1.910000e-06	7.325214e-06	9.744598e-09	5.048709e+01	6.394422e+02
1.920000e-06	7.250611e-06	9.699573e-09	4.997291e+01	6.363209e+02
1.930000e-06	7.173161e-06	9.667857e-09	4.943910e+01	6.330893e+02
1.940000e-06	7.093009e-06	9.621173e-09	4.888668e+01	6.297586e+02
1.950000e-06	7.010273e-06	9.603454e-09	4.831644e+01	6.263311e+02
1.960000e-06	6.924939e-06	9.520514e-09	4.772830e+01	6.227999e+02
1.970000e-06	6.836945e-06	9.460479e-09	4.712182e+01	6.191516e+02
1.980000e-06	6.746508e-06	9.380988e-09	4.649852e+01	6.153703e+02
1.990000e-06	6.653698e-06	9.333604e-09	4.585884e+01	6.114417e+02
2.000000e-06	6.558504e-06	9.292089e-09	4.520274e+01	6.073569e+02
2.010000e-06	6.461016e-06	9.223783e-09	4.453084e+01	6.031144e+02
2.020000e-06	6.361281e-06	9.156786e-09	4.384344e+01	5.987195e+02
2.030000e-06	6.259138e-06	9.075341e-09	4.313944e+01	5.941820e+02
2.040000e-06	6.154670e-06	9.011002e-09	4.241942e+01	5.895130e+02
2.050000e-06	6.048136e-06	8.931077e-09	4.168517e+01	5.847206e+02
2.060000e-06	5.939575e-06	8.860747e-09	4.093694e+01	5.798075e+02
2.070000e-06	5.828985e-06	8.782055e-09	4.017473e+01	5.747693e+02
2.080000e-06	5.716229e-06	8.706707e-09	3.939759e+01	5.695955e+02
2.090000e-06	5.601222e-06	8.630697e-09	3.860493e+01	5.642723e+02
2.100000e-06	5.483974e-06	8.551854e-09	3.779683e+01	5.587855e+02
2.110000e-06	5.364690e-06	8.464133e-09	3.697470e+01	5.531242e+02
2.120000e-06	5.243486e-06	8.362754e-09	3.613933e+01	5.472825e+02
2.130000e-06	5.120445e-06	8.260852e-09	3.529131e+01	5.412603e+02
2.140000e-06	4.995601e-06	8.165173e-09	3.443085e+01	5.350615e+02
2.150000e-06	4.868821e-06	8.085803e-09	3.355705e+01	5.286913e+02
2.160000e-06	4.740234e-06	7.996374e-09	3.267080e+01	5.221529e+02
2.170000e-06	4.610030e-06	7.893402e-09	3.177340e+01	5.154446e+02
2.180000e-06	4.478219e-06	7.776858e-09	3.086493e+01	5.085589e+02
2.190000e-06	4.344750e-06	7.666713e-09	2.994503e+01	5.014830e+02
2.200000e-06	4.209662e-06	7.556028e-09	2.901398e+01	4.942006e+02
2.210000e-06	4.072977e-06	7.445009e-09	2.807191e+01	4.866955e+02
2.220000e-06	3.934728e-06	7.330234e-09	2.711906e+01	4.789545e+02
2.230000e-06	3.794916e-06	7.208392e-09	2.615545e+01	4.709692e+02
2.240000e-06	3.653589e-06	7.077176e-09	2.518139e+01	4.627369e+02
2.250000e-06	3.510784e-06	6.944563e-09	2.419714e+01	4.542584e+02
2.260000e-06	3.366648e-06	6.818149e-09	2.320372e+01	4.455360e+02
2.270000e-06	3.221314e-06	6.687855e-09	2.220205e+01	4.365692e+02
2.280000e-06	3.074759e-06	6.549239e-09	2.119196e+01	4.273529e+02
2.290000e-06	2.927068e-06	6.402575e-09	2.017404e+01	4.178753e+02
2.300000e-06	2.778414e-06	6.255785e-09	1.914948e+01	4.081189e+02
2.310000e-06	2.628841e-06	6.103579e-09	1.811859e+01	3.980627e+02
2.320000e-06	2.478273e-06	5.944915e-09	1.708084e+01	3.876854e+02
2.330000e-06	2.326791e-06	5.778618e-09	1.603679e+01	3.769687e+02
2.340000e-06	2.174544e-06	5.605967e-09	1.498747e+01	3.658991e+02
2.350000e-06	2.021584e-06	5.432060e-09	1.393323e+01	3.544679e+02
2.360000e-06	1.867949e-06	5.258682e-09	1.287434e+01	3.426697e+02
2.370000e-06	1.713740e-06	5.080456e-09	1.181150e+01	3.304984e+02
2.380000e-06	1.558970e-06	4.888637e-09	1.074479e+01	3.179442e+02
2.390000e-06	1.403594e-06	4.684772e-09	9.673901e+00	3.049903e+02
2.400000e-06	1.247697e-06	4.474195e-09	8.599421e+00	2.916126e+02
2.410000e-06	1.091428e-06	4.260517e-09	7.522378e+00	2.777811e+02
2.420000e-06	9.348309e-07	4.042340e-09	6.443073e+00	2.634634e+02
2.430000e-06	7.779379e-07	3.816527e-09	5.361730e+00	2.486293e+02
2.440000e-06	6.207984e-07	3.582451e-09	4.278688e+00	2.332533e+02
2.450000e-06	4.634635e-07	3.337729e-09	3.194299e+00	2.173164e+02
2.460000e-06	3.059386e-07	3.086208e-09	2.108601e+00	2.008024e+02
2.470000e-06	1.482235e-07	2.828893e-09	1.021591e+00	1.836923e+02
2.480000e-06	-9.573121e-09	2.560010e-09	-6.598019e-02	1.659561e+02
2.490000e-06	-1.674229e-07	2.277326e-09	-1.153918e+00	1.475445e+02
2.500000e-06	-3.252550e-07	1.981952e-09	-2.241733e+00	1.283846e+02
2.510000e-06	-4.829654e-07	1.674685e-09	-3.328711e+00	1.083810e+02
2.520000e-06	-6.404817e-07	1.354258e-09	-4.414350e+00	8.742440e+01
2.530000e-06	-7.977582e-07	1.018043e-09	-5.498336e+00	6.540840e+01
2.540000e-06	-9.548270e-07	6.653652e-10	-6.580891e+00	4.225122e+01
2.550000e-06	-1.111588e-06	2.964200e-10	-7.661323e+00	1.792008e+01
2.560000e-06	-1.267990e-06	-8.905906e-11	-8.739282e+00	-7.547254e+00
2.570000e-06	-1.423980e-06	-4.901490e-10	-9.814400e+00	-3.402808e+01
2.580000e-06	-1.579427e-06	-9.052343e-10	-1.088578e+01	-6.131158e+01
2.590000e-06	-1.734208e-06	-1.332127e-09	-1.195257e+01	-8.910846e+01
2.600000e-06	-1.888234e-06	-1.765203e-09	-1.301415e+01	-1.170729e+02
2.610000e-06	-2.041570e-06	-2.193990e-09	-1.407098e+01	-1.448337e+02
2.620000e-06	-2.194244e-06	-2.610531e-09	-1.512324e+01	-1.720300e+02
2.630000e-06	-2.346051e-06	-3.011673e-09	-1.616953e+01	-1.983448e+02
2.640000e-06	-2.496846e-06	-3.396471e-09	-1.720885e+01	-2.235323e+02
2.650000e-06	-2.646659e-06	-3.764148e-09	-1.824140e+01	-2.474330e+02
2.660000e-06	-2.795568e-06	-4.111633e-09	-1.926771e+01	-2.699765e+02
2.670000e-06	-2.943530e-06	-4.434912e-09	-2.028750e+01	-2.911716e+02
2.680000e-06	-3.090309e-06	-4.737599e-09	-2.129913e+01	-3.110872e+02
2.690000e-06	-3.235940e-06	-5.025781e-09	-2.230285e+01	-3.298278e+02
2.700000e-06	-3.380443e-06	-5.299848e-09	-2.329881e+01	-3.475099e+02
2.710000e-06	-3.523632e-06	-5.558004e-09	-2.428570e+01	-3.642424e+02
2.720000e-06	-3.665403e-06	-5.800342e-09	-2.526281e+01	-3.801142e+02
2.730000e-06	-3.805803e-06	-6.030889e-09	-2.623049e+01	-3.951904e+02
2.740000e-06	-3.944756e-06	-6.249751e-09	-2.718818e+01	-4.095153e+02
2.750000e-06	-4.082221e-06	-6.458560e-09	-2.813562e+01	-4.231204e+02
2.760000e-06	-4.218213e-06	-6.660317e-09	-2.907291e+01	-4.360336e+02
2.770000e-06	-4.352628e-06	-6.848315e-09	-2.999933e+01	-4.482869e+02
2.780000e-06	-4.485568e-06	-7.021243e-09	-3.091558e+01	-4.599205e+02
2.790000e-06	-4.616981e-06	-7.185913e-09	-3.182132e+01	-4.709829e+02
2.800000e-06	-4.746825e-06	-7.346700e-09	-3.271623e+01	-4.815261e+02
2.810000e-06	-4.875118e-06	-7.502500e-09	-3.360045e+01	-4.915999e+02
2.820000e-06	-5.001642e-06	-7.650980e-09	-3.447249e+01	-5.012458e+02
2.830000e-06	-5.126370e-06	-7.794047e-09	-3.533214e+01	-5.104920e+02
2.840000e-06	-5.249334e-06	-7.931745e-09	-3.617964e+01	-5.193533e+02
2.850000e-06	-5.370417e-06	-8.060359e-09	-3.701417e+01	-5.278327e+02
2.860000e-06	-5.489437e-06	-8.182605e-09	-3.783449e+01	-5.359268e+02
2.870000e-06	-5.606242e-06	-8.300794e-09	-3.863953e+01	-5.436318e+02
2.880000e-06	-5.720787e-06	-8.412659e-09	-3.942900e+01	-5.509498e+02
2.890000e-06	-5.833078e-06	-8.517376e-09	-4.020294e+01	-5.578920e+02
2.900000e-06	-5.943154e-06	-8.617821e-09	-4.096161e+01	-5.644802e+02
2.910000e-06	-6.051125e-06	-8.717772e-09	-4.170577e+01	-5.707447e+02
2.920000e-06	-6.157061e-06	-8.814616e-09	-4.243591e+01	-5.767205e+02
2.930000e-06	-6.260704e-06	-8.904643e-09	-4.315024e+01	-5.824426e+02
2.940000e-06	-6.361938e-06	-8.986873e-09	-4.384797e+01	-5.879415e+02
