# Temperatura_=_54.29
# Concentracion g/m^3_=_15000.0
# C_Vs_to_Am_M_A/Vsm_=_65563218390.804596
# pendiente_HvsI_1/m_=_3716.3
# ordenada_HvsI_A/m_=_1297.0
# frecuencia_Hz_=_302329.56565308163

Tiempo_(s)	Campo_(V.s)	Magnetizacion_(V.s)	Campo_(kA/m)	Magnetizacion_(A/m)
0.000000e+00	-8.251909e-06	-7.497345e-09	-5.692407e+01	-4.896621e+02
1.000000e-08	-8.249267e-06	-7.492126e-09	-5.690585e+01	-4.895021e+02
2.000000e-08	-8.243889e-06	-7.487105e-09	-5.686875e+01	-4.892477e+02
3.000000e-08	-8.235815e-06	-7.479866e-09	-5.681305e+01	-4.889085e+02
4.000000e-08	-8.224851e-06	-7.471646e-09	-5.673742e+01	-4.884986e+02
5.000000e-08	-8.210935e-06	-7.464436e-09	-5.664143e+01	-4.880342e+02
6.000000e-08	-8.194079e-06	-7.460603e-09	-5.652515e+01	-4.875298e+02
7.000000e-08	-8.174698e-06	-7.456419e-09	-5.639145e+01	-4.869950e+02
8.000000e-08	-8.152965e-06	-7.459069e-09	-5.624153e+01	-4.864326e+02
9.000000e-08	-8.128319e-06	-7.436829e-09	-5.607152e+01	-4.858378e+02
1.000000e-07	-8.100395e-06	-7.437624e-09	-5.587888e+01	-4.851994e+02
1.100000e-07	-8.069305e-06	-7.438901e-09	-5.566442e+01	-4.845031e+02
1.200000e-07	-8.035203e-06	-7.406080e-09	-5.542917e+01	-4.837343e+02
1.300000e-07	-7.998297e-06	-7.372909e-09	-5.517458e+01	-4.828819e+02
1.400000e-07	-7.958920e-06	-7.351810e-09	-5.490295e+01	-4.819402e+02
1.500000e-07	-7.917180e-06	-7.347063e-09	-5.461502e+01	-4.809095e+02
1.600000e-07	-7.872950e-06	-7.304150e-09	-5.430990e+01	-4.797949e+02
1.700000e-07	-7.825967e-06	-7.325219e-09	-5.398580e+01	-4.786041e+02
1.800000e-07	-7.776054e-06	-7.312435e-09	-5.364149e+01	-4.773437e+02
1.900000e-07	-7.723175e-06	-7.229226e-09	-5.327671e+01	-4.760173e+02
2.000000e-07	-7.667342e-06	-7.235627e-09	-5.289156e+01	-4.746232e+02
2.100000e-07	-7.608730e-06	-7.207822e-09	-5.248724e+01	-4.731545e+02
2.200000e-07	-7.547481e-06	-7.192839e-09	-5.206473e+01	-4.716011e+02
2.300000e-07	-7.483515e-06	-7.186804e-09	-5.162347e+01	-4.699517e+02
2.400000e-07	-7.416704e-06	-7.127396e-09	-5.116258e+01	-4.681975e+02
2.500000e-07	-7.347064e-06	-7.098320e-09	-5.068219e+01	-4.663339e+02
2.600000e-07	-7.274527e-06	-7.065939e-09	-5.018181e+01	-4.643623e+02
2.700000e-07	-7.199060e-06	-7.058080e-09	-4.966121e+01	-4.622891e+02
2.800000e-07	-7.120723e-06	-7.011174e-09	-4.912083e+01	-4.601242e+02
2.900000e-07	-7.039614e-06	-6.976412e-09	-4.856131e+01	-4.578776e+02
3.000000e-07	-6.956052e-06	-6.944124e-09	-4.798488e+01	-4.555568e+02
3.100000e-07	-6.870175e-06	-6.886417e-09	-4.739247e+01	-4.531641e+02
3.200000e-07	-6.781831e-06	-6.868268e-09	-4.678305e+01	-4.506960e+02
3.300000e-07	-6.690972e-06	-6.826428e-09	-4.615628e+01	-4.481435e+02
3.400000e-07	-6.597668e-06	-6.785433e-09	-4.551264e+01	-4.454948e+02
3.500000e-07	-6.501877e-06	-6.734829e-09	-4.485184e+01	-4.427376e+02
3.600000e-07	-6.403673e-06	-6.703295e-09	-4.417441e+01	-4.398627e+02
3.700000e-07	-6.303201e-06	-6.665632e-09	-4.348132e+01	-4.368657e+02
3.800000e-07	-6.200511e-06	-6.613840e-09	-4.277293e+01	-4.337480e+02
3.900000e-07	-6.095573e-06	-6.565650e-09	-4.204904e+01	-4.305161e+02
4.000000e-07	-5.988401e-06	-6.502187e-09	-4.130974e+01	-4.271791e+02
4.100000e-07	-5.879183e-06	-6.443635e-09	-4.055632e+01	-4.237467e+02
4.200000e-07	-5.767874e-06	-6.385345e-09	-3.978847e+01	-4.202254e+02
4.300000e-07	-5.654364e-06	-6.347960e-09	-3.900545e+01	-4.166176e+02
4.400000e-07	-5.538677e-06	-6.294285e-09	-3.820741e+01	-4.129204e+02
4.500000e-07	-5.420889e-06	-6.228840e-09	-3.739488e+01	-4.091263e+02
4.600000e-07	-5.301103e-06	-6.162783e-09	-3.656856e+01	-4.052252e+02
4.700000e-07	-5.179495e-06	-6.106717e-09	-3.572967e+01	-4.012064e+02
4.800000e-07	-5.056065e-06	-6.047594e-09	-3.487821e+01	-3.970610e+02
4.900000e-07	-4.930816e-06	-5.983029e-09	-3.401421e+01	-3.927830e+02
5.000000e-07	-4.803797e-06	-5.914485e-09	-3.313799e+01	-3.883698e+02
5.100000e-07	-4.675033e-06	-5.835414e-09	-3.224974e+01	-3.838212e+02
5.200000e-07	-4.544517e-06	-5.763628e-09	-3.134941e+01	-3.791377e+02
5.300000e-07	-4.412251e-06	-5.692828e-09	-3.043700e+01	-3.743191e+02
5.400000e-07	-4.278467e-06	-5.619304e-09	-2.951411e+01	-3.693625e+02
5.500000e-07	-4.143082e-06	-5.534618e-09	-2.858019e+01	-3.642620e+02
5.600000e-07	-4.006065e-06	-5.456998e-09	-2.763501e+01	-3.590086e+02
5.700000e-07	-3.867487e-06	-5.380053e-09	-2.667905e+01	-3.535912e+02
5.800000e-07	-3.727229e-06	-5.294607e-09	-2.571151e+01	-3.479979e+02
5.900000e-07	-3.585381e-06	-5.205100e-09	-2.473300e+01	-3.422179e+02
6.000000e-07	-3.442188e-06	-5.114943e-09	-2.374522e+01	-3.362422e+02
6.100000e-07	-3.297732e-06	-5.016912e-09	-2.274872e+01	-3.300642e+02
6.200000e-07	-3.152000e-06	-4.911810e-09	-2.174341e+01	-3.236793e+02
6.300000e-07	-3.005149e-06	-4.814409e-09	-2.073039e+01	-3.170840e+02
6.400000e-07	-2.857245e-06	-4.716824e-09	-1.971011e+01	-3.102752e+02
6.500000e-07	-2.708323e-06	-4.609829e-09	-1.868280e+01	-3.032486e+02
6.600000e-07	-2.558517e-06	-4.491255e-09	-1.764939e+01	-2.959983e+02
6.700000e-07	-2.407814e-06	-4.373236e-09	-1.660980e+01	-2.885166e+02
6.800000e-07	-2.256209e-06	-4.255590e-09	-1.556399e+01	-2.807936e+02
6.900000e-07	-2.103790e-06	-4.135349e-09	-1.451256e+01	-2.728176e+02
7.000000e-07	-1.950717e-06	-4.012214e-09	-1.345662e+01	-2.645752e+02
7.100000e-07	-1.797064e-06	-3.883773e-09	-1.239667e+01	-2.560510e+02
7.200000e-07	-1.642811e-06	-3.746934e-09	-1.133259e+01	-2.472278e+02
7.300000e-07	-1.487946e-06	-3.603098e-09	-1.026429e+01	-2.380863e+02
7.400000e-07	-1.332470e-06	-3.458259e-09	-9.191770e+00	-2.286055e+02
7.500000e-07	-1.176484e-06	-3.305558e-09	-8.115728e+00	-2.187637e+02
7.600000e-07	-1.020116e-06	-3.148281e-09	-7.037061e+00	-2.085395e+02
7.700000e-07	-8.634072e-07	-2.986783e-09	-5.956035e+00	-1.979138e+02
7.800000e-07	-7.064132e-07	-2.821464e-09	-4.873045e+00	-1.868705e+02
7.900000e-07	-5.492096e-07	-2.648313e-09	-3.788608e+00	-1.753971e+02
8.000000e-07	-3.918288e-07	-2.465065e-09	-2.702950e+00	-1.634834e+02
8.100000e-07	-2.343607e-07	-2.275693e-09	-1.616689e+00	-1.511188e+02
8.200000e-07	-7.680139e-08	-2.077904e-09	-5.297984e-01	-1.382883e+02
8.300000e-07	8.087465e-08	-1.874196e-09	5.578969e-01	-1.249678e+02
8.400000e-07	2.385585e-07	-1.664850e-09	1.645646e+00	-1.111208e+02
8.500000e-07	3.961460e-07	-1.447845e-09	2.732731e+00	-9.669687e+01
8.600000e-07	5.536183e-07	-1.217193e-09	3.819021e+00	-8.163401e+01
8.700000e-07	7.109504e-07	-9.753339e-10	4.904343e+00	-6.586572e+01
8.800000e-07	8.681079e-07	-7.240028e-10	5.988461e+00	-4.933174e+01
8.900000e-07	1.025035e-06	-4.616076e-10	7.070990e+00	-3.199190e+01
9.000000e-07	1.181659e-06	-1.864523e-10	8.151426e+00	-1.384064e+01
9.100000e-07	1.337897e-06	9.798382e-11	9.229204e+00	5.080401e+00
9.200000e-07	1.493631e-06	3.904697e-10	1.030350e+01	2.467464e+01
9.300000e-07	1.648754e-06	6.981572e-10	1.137359e+01	4.478954e+01
9.400000e-07	1.803264e-06	1.014888e-09	1.243944e+01	6.522357e+01
9.500000e-07	1.957098e-06	1.332384e-09	1.350063e+01	8.574055e+01
9.600000e-07	2.110123e-06	1.643947e-09	1.455624e+01	1.060896e+02
9.700000e-07	2.262374e-06	1.946623e-09	1.560652e+01	1.260275e+02
9.800000e-07	2.413864e-06	2.238047e-09	1.665153e+01	1.453404e+02
9.900000e-07	2.564466e-06	2.515587e-09	1.769044e+01	1.638611e+02
1.000000e-06	2.714037e-06	2.778964e-09	1.872222e+01	1.814786e+02
1.010000e-06	2.862486e-06	3.028469e-09	1.974626e+01	1.981407e+02
1.020000e-06	3.009865e-06	3.265028e-09	2.076293e+01	2.138478e+02
1.030000e-06	3.156147e-06	3.489551e-09	2.177202e+01	2.286409e+02
1.040000e-06	3.301233e-06	3.704427e-09	2.277287e+01	2.425860e+02
1.050000e-06	3.445085e-06	3.906176e-09	2.376520e+01	2.557588e+02
1.060000e-06	3.587659e-06	4.095168e-09	2.474872e+01	2.682313e+02
1.070000e-06	3.728928e-06	4.273327e-09	2.572324e+01	2.800629e+02
1.080000e-06	3.868763e-06	4.443786e-09	2.668785e+01	2.912971e+02
1.090000e-06	4.007077e-06	4.606329e-09	2.764199e+01	3.019628e+02
1.100000e-06	4.143888e-06	4.759058e-09	2.858575e+01	3.120786e+02
1.110000e-06	4.279173e-06	4.904363e-09	2.951898e+01	3.216587e+02
1.120000e-06	4.412911e-06	5.043340e-09	3.044155e+01	3.307188e+02
1.130000e-06	4.545080e-06	5.176520e-09	3.135329e+01	3.392792e+02
1.140000e-06	4.675653e-06	5.300856e-09	3.225402e+01	3.473663e+02
1.150000e-06	4.804616e-06	5.416138e-09	3.314364e+01	3.550113e+02
1.160000e-06	4.931906e-06	5.524800e-09	3.402172e+01	3.622477e+02
1.170000e-06	5.057460e-06	5.628773e-09	3.488784e+01	3.691080e+02
1.180000e-06	5.181276e-06	5.726487e-09	3.574195e+01	3.756215e+02
1.190000e-06	5.303327e-06	5.817471e-09	3.658390e+01	3.818135e+02
1.200000e-06	5.423515e-06	5.903855e-09	3.741299e+01	3.877055e+02
1.210000e-06	5.541677e-06	5.987733e-09	3.822811e+01	3.933174e+02
1.220000e-06	5.657673e-06	6.071363e-09	3.902828e+01	3.986687e+02
1.230000e-06	5.771450e-06	6.152581e-09	3.981315e+01	4.037807e+02
1.240000e-06	5.883002e-06	6.229205e-09	4.058267e+01	4.086765e+02
1.250000e-06	5.992433e-06	6.301132e-09	4.133755e+01	4.133799e+02
1.260000e-06	6.099796e-06	6.368248e-09	4.207817e+01	4.179132e+02
1.270000e-06	6.204987e-06	6.433587e-09	4.280381e+01	4.222943e+02
1.280000e-06	6.307867e-06	6.498139e-09	4.351351e+01	4.265350e+02
1.290000e-06	6.408345e-06	6.560871e-09	4.420663e+01	4.306387e+02
1.300000e-06	6.506418e-06	6.621619e-09	4.488317e+01	4.346018e+02
1.310000e-06	6.602053e-06	6.678974e-09	4.554289e+01	4.384147e+02
1.320000e-06	6.695319e-06	6.731839e-09	4.618626e+01	4.420656e+02
1.330000e-06	6.786250e-06	6.781824e-09	4.681353e+01	4.455437e+02
1.340000e-06	6.874720e-06	6.829412e-09	4.742382e+01	4.488422e+02
1.350000e-06	6.960775e-06	6.874231e-09	4.801746e+01	4.519603e+02
1.360000e-06	7.044430e-06	6.917411e-09	4.859453e+01	4.549035e+02
1.370000e-06	7.125618e-06	6.960292e-09	4.915459e+01	4.576821e+02
1.380000e-06	7.204248e-06	7.001266e-09	4.969701e+01	4.603093e+02
1.390000e-06	7.280203e-06	7.037765e-09	5.022097e+01	4.627983e+02
1.400000e-06	7.353401e-06	7.070551e-09	5.072590e+01	4.651599e+02
1.410000e-06	7.423866e-06	7.102827e-09	5.121199e+01	4.674014e+02
1.420000e-06	7.491750e-06	7.134440e-09	5.168027e+01	4.695263e+02
1.430000e-06	7.556956e-06	7.163376e-09	5.213009e+01	4.715350e+02
1.440000e-06	7.619497e-06	7.191154e-09	5.256151e+01	4.734269e+02
1.450000e-06	7.679498e-06	7.218446e-09	5.297542e+01	4.752015e+02
1.460000e-06	7.736789e-06	7.244529e-09	5.337063e+01	4.768598e+02
1.470000e-06	7.791281e-06	7.266956e-09	5.374653e+01	4.784047e+02
1.480000e-06	7.842818e-06	7.286322e-09	5.410205e+01	4.798405e+02
1.490000e-06	7.891132e-06	7.305433e-09	5.443533e+01	4.811720e+02
1.500000e-06	7.936458e-06	7.323683e-09	5.474800e+01	4.824032e+02
1.510000e-06	7.979042e-06	7.340821e-09	5.504176e+01	4.835366e+02
1.520000e-06	8.018779e-06	7.356108e-09	5.531587e+01	4.845735e+02
1.530000e-06	8.055685e-06	7.370272e-09	5.557047e+01	4.855138e+02
1.540000e-06	8.089779e-06	7.383438e-09	5.580565e+01	4.863578e+02
1.550000e-06	8.120962e-06	7.394468e-09	5.602077e+01	4.871072e+02
1.560000e-06	8.149255e-06	7.404021e-09	5.621594e+01	4.877659e+02
1.570000e-06	8.174561e-06	7.412716e-09	5.639051e+01	4.883398e+02
1.580000e-06	8.196859e-06	7.419402e-09	5.654432e+01	4.888363e+02
1.590000e-06	8.216352e-06	7.427111e-09	5.667879e+01	4.892623e+02
1.600000e-06	8.232893e-06	7.436278e-09	5.679289e+01	4.896225e+02
1.610000e-06	8.246304e-06	7.442936e-09	5.688541e+01	4.899179e+02
1.620000e-06	8.256479e-06	7.447233e-09	5.695560e+01	4.901452e+02
1.630000e-06	8.263496e-06	7.449514e-09	5.700401e+01	4.902972e+02
1.640000e-06	8.267654e-06	7.451445e-09	5.703269e+01	4.903651e+02
1.650000e-06	8.268931e-06	7.451136e-09	5.704150e+01	4.903404e+02
1.660000e-06	8.267332e-06	7.449108e-09	5.703046e+01	4.902186e+02
1.670000e-06	8.263006e-06	7.447258e-09	5.700063e+01	4.900004e+02
1.680000e-06	8.255902e-06	7.443496e-09	5.695162e+01	4.896930e+02
1.690000e-06	8.246047e-06	7.438743e-09	5.688364e+01	4.893089e+02
1.700000e-06	8.233352e-06	7.434512e-09	5.679606e+01	4.888639e+02
1.710000e-06	8.217759e-06	7.429695e-09	5.668850e+01	4.883736e+02
1.720000e-06	8.199629e-06	7.420950e-09	5.656343e+01	4.878500e+02
1.730000e-06	8.179122e-06	7.393869e-09	5.642197e+01	4.872985e+02
1.740000e-06	8.155744e-06	7.399673e-09	5.626070e+01	4.867173e+02
1.750000e-06	8.128768e-06	7.372161e-09	5.607462e+01	4.860976e+02
1.760000e-06	8.097944e-06	7.356286e-09	5.586198e+01	4.854257e+02
1.770000e-06	8.063934e-06	7.364725e-09	5.562737e+01	4.846869e+02
1.780000e-06	8.027579e-06	7.366449e-09	5.537658e+01	4.838683e+02
1.790000e-06	7.988933e-06	7.338784e-09	5.510999e+01	4.829619e+02
1.800000e-06	7.948192e-06	7.357788e-09	5.482895e+01	4.819656e+02
1.810000e-06	7.905316e-06	7.355431e-09	5.453318e+01	4.808831e+02
1.820000e-06	7.859595e-06	7.262921e-09	5.421778e+01	4.797212e+02
1.830000e-06	7.810991e-06	7.314433e-09	5.388249e+01	4.784874e+02
1.840000e-06	7.759492e-06	7.278132e-09	5.352724e+01	4.771867e+02
1.850000e-06	7.704826e-06	7.268952e-09	5.315014e+01	4.758196e+02
1.860000e-06	7.647337e-06	7.260079e-09	5.275356e+01	4.743812e+02
1.870000e-06	7.587107e-06	7.173787e-09	5.233808e+01	4.728624e+02
1.880000e-06	7.524071e-06	7.193622e-09	5.190324e+01	4.712519e+02
1.890000e-06	7.458203e-06	7.151352e-09	5.144886e+01	4.695396e+02
1.900000e-06	7.389410e-06	7.160752e-09	5.097430e+01	4.677190e+02
1.910000e-06	7.317715e-06	7.123502e-09	5.047973e+01	4.657892e+02
1.920000e-06	7.243137e-06	7.070387e-09	4.996527e+01	4.637548e+02
1.930000e-06	7.165792e-06	7.056043e-09	4.943172e+01	4.616246e+02
1.940000e-06	7.085627e-06	6.990802e-09	4.887872e+01	4.594089e+02
1.950000e-06	7.002902e-06	7.006839e-09	4.830806e+01	4.571165e+02
1.960000e-06	6.917654e-06	6.948798e-09	4.772000e+01	4.547521e+02
1.970000e-06	6.829669e-06	6.903616e-09	4.711305e+01	4.523143e+02
1.980000e-06	6.739197e-06	6.867539e-09	4.648895e+01	4.497962e+02
1.990000e-06	6.646390e-06	6.821989e-09	4.584874e+01	4.471867e+02
2.000000e-06	6.551262e-06	6.798524e-09	4.519251e+01	4.444734e+02
2.010000e-06	6.453834e-06	6.739644e-09	4.452043e+01	4.416455e+02
2.020000e-06	6.354093e-06	6.708144e-09	4.383239e+01	4.386965e+02
2.030000e-06	6.252017e-06	6.640820e-09	4.312824e+01	4.356256e+02
2.040000e-06	6.147653e-06	6.601777e-09	4.240831e+01	4.324374e+02
2.050000e-06	6.041159e-06	6.556582e-09	4.167368e+01	4.291404e+02
2.060000e-06	5.932656e-06	6.516324e-09	4.092519e+01	4.257444e+02
2.070000e-06	5.822112e-06	6.458470e-09	4.016263e+01	4.222574e+02
2.080000e-06	5.709409e-06	6.387774e-09	3.938517e+01	4.186836e+02
2.090000e-06	5.594473e-06	6.335018e-09	3.859230e+01	4.150221e+02
2.100000e-06	5.477384e-06	6.278316e-09	3.778460e+01	4.112670e+02
2.110000e-06	5.358303e-06	6.233694e-09	3.696314e+01	4.074092e+02
2.120000e-06	5.237258e-06	6.174582e-09	3.612813e+01	4.034377e+02
2.130000e-06	5.114299e-06	6.110010e-09	3.527992e+01	3.993428e+02
2.140000e-06	4.989486e-06	6.030643e-09	3.441893e+01	3.951173e+02
2.150000e-06	4.862883e-06	5.967396e-09	3.354559e+01	3.907573e+02
2.160000e-06	4.734438e-06	5.904632e-09	3.265953e+01	3.862617e+02
2.170000e-06	4.604256e-06	5.842253e-09	3.176150e+01	3.816311e+02
2.180000e-06	4.472413e-06	5.766620e-09	3.085201e+01	3.768656e+02
2.190000e-06	4.338925e-06	5.688938e-09	2.993117e+01	3.719636e+02
2.200000e-06	4.203898e-06	5.610279e-09	2.899971e+01	3.669205e+02
2.210000e-06	4.067269e-06	5.529608e-09	2.805721e+01	3.617284e+02
2.220000e-06	3.929038e-06	5.455345e-09	2.710365e+01	3.563767e+02
2.230000e-06	3.789176e-06	5.372935e-09	2.613884e+01	3.508537e+02
2.240000e-06	3.647897e-06	5.281449e-09	2.516425e+01	3.451482e+02
2.250000e-06	3.505291e-06	5.186246e-09	2.418052e+01	3.392502e+02
2.260000e-06	3.361294e-06	5.099253e-09	2.318719e+01	3.331522e+02
2.270000e-06	3.216042e-06	5.007953e-09	2.218520e+01	3.268490e+02
2.280000e-06	3.069637e-06	4.906612e-09	2.117525e+01	3.203366e+02
2.290000e-06	2.922034e-06	4.798309e-09	2.015704e+01	3.136120e+02
2.300000e-06	2.773313e-06	4.691875e-09	1.913112e+01	3.066715e+02
2.310000e-06	2.623743e-06	4.587221e-09	1.809934e+01	2.995098e+02
2.320000e-06	2.473430e-06	4.481647e-09	1.706244e+01	2.921200e+02
2.330000e-06	2.322296e-06	4.371300e-09	1.601987e+01	2.844930e+02
2.340000e-06	2.170203e-06	4.249417e-09	1.497070e+01	2.766178e+02
2.350000e-06	2.017235e-06	4.117185e-09	1.391548e+01	2.684817e+02
2.360000e-06	1.863634e-06	3.986177e-09	1.285589e+01	2.600700e+02
2.370000e-06	1.709543e-06	3.857190e-09	1.179292e+01	2.513664e+02
2.380000e-06	1.554925e-06	3.725173e-09	1.072632e+01	2.423523e+02
2.390000e-06	1.399711e-06	3.584321e-09	9.655616e+00	2.330072e+02
2.400000e-06	1.243998e-06	3.434575e-09	8.581459e+00	2.233097e+02
2.410000e-06	1.087860e-06	3.280631e-09	7.504379e+00	2.132381e+02
2.420000e-06	9.312999e-07	3.123229e-09	6.424378e+00	2.027722e+02
2.430000e-06	7.744391e-07	2.958504e-09	5.342306e+00	1.918946e+02
2.440000e-06	6.173506e-07	2.784826e-09	4.258664e+00	1.805913e+02
2.450000e-06	4.600494e-07	2.603778e-09	3.173555e+00	1.688516e+02
2.460000e-06	3.025499e-07	2.416979e-09	2.087078e+00	1.566655e+02
2.470000e-06	1.448481e-07	2.226254e-09	9.992042e-01	1.440202e+02
2.480000e-06	-1.295286e-08	2.029181e-09	-8.935258e-02	1.308958e+02
2.490000e-06	-1.707435e-07	1.822823e-09	-1.177839e+00	1.172608e+02
2.500000e-06	-3.284631e-07	1.603786e-09	-2.265834e+00	1.030703e+02
2.510000e-06	-4.860927e-07	1.373687e-09	-3.353209e+00	8.826618e+01
2.520000e-06	-6.435824e-07	1.134793e-09	-4.439619e+00	7.278275e+01
2.530000e-06	-8.008181e-07	8.862481e-10	-5.524277e+00	5.655571e+01
2.540000e-06	-9.577696e-07	6.274492e-10	-6.606974e+00	3.953526e+01
2.550000e-06	-1.114365e-06	3.561035e-10	-7.687215e+00	2.170056e+01
2.560000e-06	-1.270574e-06	7.118816e-11	-8.764790e+00	3.073466e+00
2.570000e-06	-1.426342e-06	-2.258622e-10	-9.839322e+00	-1.627156e+01
2.580000e-06	-1.581539e-06	-5.308679e-10	-1.090992e+01	-3.620357e+01
2.590000e-06	-1.736120e-06	-8.402709e-10	-1.197626e+01	-5.653897e+01
2.600000e-06	-1.890043e-06	-1.152718e-09	-1.303807e+01	-7.705306e+01
2.610000e-06	-2.043289e-06	-1.466047e-09	-1.409520e+01	-9.749807e+01
2.620000e-06	-2.195686e-06	-1.775914e-09	-1.514648e+01	-1.176251e+02
2.630000e-06	-2.347169e-06	-2.076179e-09	-1.619146e+01	-1.372066e+02
2.640000e-06	-2.497817e-06	-2.363382e-09	-1.723067e+01	-1.560550e+02
2.650000e-06	-2.647532e-06	-2.638638e-09	-1.826345e+01	-1.740369e+02
2.660000e-06	-2.796318e-06	-2.901945e-09	-1.928981e+01	-1.910771e+02
2.670000e-06	-2.944159e-06	-3.149694e-09	-2.030967e+01	-2.071565e+02
2.680000e-06	-3.090856e-06	-3.382216e-09	-2.132162e+01	-2.223019e+02
2.690000e-06	-3.236373e-06	-3.601973e-09	-2.232544e+01	-2.365714e+02
2.700000e-06	-3.380684e-06	-3.810588e-09	-2.332094e+01	-2.500387e+02
2.710000e-06	-3.523686e-06	-4.008198e-09	-2.430742e+01	-2.627785e+02
2.720000e-06	-3.665323e-06	-4.194749e-09	-2.528447e+01	-2.748559e+02
2.730000e-06	-3.805572e-06	-4.371208e-09	-2.625195e+01	-2.863207e+02
2.740000e-06	-3.944430e-06	-4.534432e-09	-2.720983e+01	-2.972072e+02
2.750000e-06	-4.081779e-06	-4.687622e-09	-2.815730e+01	-3.075373e+02
2.760000e-06	-4.217583e-06	-4.835258e-09	-2.909412e+01	-3.173263e+02
2.770000e-06	-4.351871e-06	-4.976565e-09	-3.002048e+01	-3.265886e+02
2.780000e-06	-4.484675e-06	-5.111037e-09	-3.093660e+01	-3.353426e+02
2.790000e-06	-4.615961e-06	-5.237511e-09	-3.184225e+01	-3.436122e+02
2.800000e-06	-4.745677e-06	-5.358584e-09	-3.273707e+01	-3.514271e+02
2.810000e-06	-4.873783e-06	-5.473662e-09	-3.362077e+01	-3.588201e+02
2.820000e-06	-5.000173e-06	-5.583860e-09	-3.449265e+01	-3.658245e+02
2.830000e-06	-5.124786e-06	-5.688759e-09	-3.535227e+01	-3.724711e+02
2.840000e-06	-5.247540e-06	-5.785964e-09	-3.619906e+01	-3.787867e+02
2.850000e-06	-5.368396e-06	-5.875717e-09	-3.703276e+01	-3.847943e+02
2.860000e-06	-5.487311e-06	-5.960318e-09	-3.785307e+01	-3.905140e+02
2.870000e-06	-5.604110e-06	-6.043598e-09	-3.865879e+01	-3.959653e+02
2.880000e-06	-5.718515e-06	-6.124766e-09	-3.944799e+01	-4.011688e+02
2.890000e-06	-5.830559e-06	-6.200291e-09	-4.022089e+01	-4.061468e+02
2.900000e-06	-5.940463e-06	-6.271708e-09	-4.097905e+01	-4.109231e+02
2.910000e-06	-6.048283e-06	-6.343387e-09	-4.172282e+01	-4.155208e+02
2.920000e-06	-6.154017e-06	-6.414441e-09	-4.245220e+01	-4.199601e+02
2.930000e-06	-6.257520e-06	-6.481467e-09	-4.316620e+01	-4.242551e+02
2.940000e-06	-6.358590e-06	-6.543208e-09	-4.386341e+01	-4.284128e+02
