# Temperatura_=_38.19
# Concentracion g/m^3_=_15000.0
# C_Vs_to_Am_M_A/Vsm_=_65563218390.804596
# pendiente_HvsI_1/m_=_3716.3
# ordenada_HvsI_A/m_=_1297.0
# frecuencia_Hz_=_302311.2387108851

Tiempo_(s)	Campo_(V.s)	Magnetizacion_(V.s)	Campo_(kA/m)	Magnetizacion_(A/m)
0.000000e+00	-8.128710e-06	-5.661558e-09	-5.693074e+01	-3.693955e+02
1.000000e-08	-8.125781e-06	-5.661299e-09	-5.691022e+01	-3.692908e+02
2.000000e-08	-8.120252e-06	-5.657847e-09	-5.687150e+01	-3.691185e+02
3.000000e-08	-8.112044e-06	-5.650265e-09	-5.681401e+01	-3.688676e+02
4.000000e-08	-8.100975e-06	-5.640767e-09	-5.673649e+01	-3.685315e+02
5.000000e-08	-8.087002e-06	-5.632337e-09	-5.663863e+01	-3.681124e+02
6.000000e-08	-8.070203e-06	-5.623256e-09	-5.652097e+01	-3.676227e+02
7.000000e-08	-8.050909e-06	-5.610664e-09	-5.638584e+01	-3.670847e+02
8.000000e-08	-8.029227e-06	-5.601387e-09	-5.623399e+01	-3.665272e+02
9.000000e-08	-8.004666e-06	-5.615723e-09	-5.606197e+01	-3.659790e+02
1.000000e-07	-7.976865e-06	-5.635126e-09	-5.586727e+01	-3.654625e+02
1.100000e-07	-7.945949e-06	-5.620815e-09	-5.565074e+01	-3.649871e+02
1.200000e-07	-7.912078e-06	-5.585999e-09	-5.541352e+01	-3.645459e+02
1.300000e-07	-7.875440e-06	-5.550888e-09	-5.515692e+01	-3.641143e+02
1.400000e-07	-7.836421e-06	-5.515331e-09	-5.488364e+01	-3.636543e+02
1.500000e-07	-7.795181e-06	-5.510784e-09	-5.459481e+01	-3.631207e+02
1.600000e-07	-7.751490e-06	-5.549320e-09	-5.428881e+01	-3.624699e+02
1.700000e-07	-7.705065e-06	-5.538803e-09	-5.396367e+01	-3.616682e+02
1.800000e-07	-7.655751e-06	-5.529817e-09	-5.361829e+01	-3.606986e+02
1.900000e-07	-7.603391e-06	-5.506965e-09	-5.325158e+01	-3.595638e+02
2.000000e-07	-7.548109e-06	-5.438041e-09	-5.286440e+01	-3.582851e+02
2.100000e-07	-7.490124e-06	-5.399736e-09	-5.245829e+01	-3.568972e+02
2.200000e-07	-7.429471e-06	-5.387212e-09	-5.203350e+01	-3.554406e+02
2.300000e-07	-7.366157e-06	-5.390214e-09	-5.159007e+01	-3.539527e+02
2.400000e-07	-7.300026e-06	-5.380801e-09	-5.112691e+01	-3.524605e+02
2.500000e-07	-7.231151e-06	-5.366301e-09	-5.064453e+01	-3.509756e+02
2.600000e-07	-7.159519e-06	-5.345785e-09	-5.014285e+01	-3.494930e+02
2.700000e-07	-7.084970e-06	-5.324554e-09	-4.962073e+01	-3.479938e+02
2.800000e-07	-7.007602e-06	-5.289613e-09	-4.907887e+01	-3.464509e+02
2.900000e-07	-6.927469e-06	-5.269632e-09	-4.851765e+01	-3.448357e+02
3.000000e-07	-6.844814e-06	-5.259040e-09	-4.793876e+01	-3.431251e+02
3.100000e-07	-6.759855e-06	-5.222945e-09	-4.734374e+01	-3.413058e+02
3.200000e-07	-6.672536e-06	-5.179743e-09	-4.673219e+01	-3.393766e+02
3.300000e-07	-6.582709e-06	-5.148751e-09	-4.610307e+01	-3.373470e+02
3.400000e-07	-6.490462e-06	-5.111749e-09	-4.545700e+01	-3.352332e+02
3.500000e-07	-6.395946e-06	-5.062085e-09	-4.479504e+01	-3.330533e+02
3.600000e-07	-6.299075e-06	-5.035414e-09	-4.411659e+01	-3.308219e+02
3.700000e-07	-6.199863e-06	-5.015852e-09	-4.342174e+01	-3.285460e+02
3.800000e-07	-6.098473e-06	-4.984479e-09	-4.271164e+01	-3.262241e+02
3.900000e-07	-5.994942e-06	-4.942623e-09	-4.198655e+01	-3.238463e+02
4.000000e-07	-5.889210e-06	-4.904257e-09	-4.124604e+01	-3.213979e+02
4.100000e-07	-5.781445e-06	-4.858854e-09	-4.049129e+01	-3.188624e+02
4.200000e-07	-5.671746e-06	-4.806843e-09	-3.972299e+01	-3.162267e+02
4.300000e-07	-5.559985e-06	-4.769632e-09	-3.894025e+01	-3.134831e+02
4.400000e-07	-5.445977e-06	-4.744192e-09	-3.814178e+01	-3.106310e+02
4.500000e-07	-5.329767e-06	-4.709735e-09	-3.732789e+01	-3.076761e+02
4.600000e-07	-5.211589e-06	-4.653364e-09	-3.650021e+01	-3.046281e+02
4.700000e-07	-5.091622e-06	-4.599214e-09	-3.566000e+01	-3.014974e+02
4.800000e-07	-4.969829e-06	-4.547382e-09	-3.480700e+01	-2.982919e+02
4.900000e-07	-4.846181e-06	-4.493774e-09	-3.394101e+01	-2.950146e+02
5.000000e-07	-4.720811e-06	-4.440853e-09	-3.306296e+01	-2.916625e+02
5.100000e-07	-4.593836e-06	-4.393476e-09	-3.217367e+01	-2.882270e+02
5.200000e-07	-4.465184e-06	-4.341675e-09	-3.127264e+01	-2.846953e+02
5.300000e-07	-4.334702e-06	-4.280417e-09	-3.035879e+01	-2.810534e+02
5.400000e-07	-4.202632e-06	-4.221102e-09	-2.943381e+01	-2.772881e+02
5.500000e-07	-4.069054e-06	-4.162604e-09	-2.849827e+01	-2.733893e+02
5.600000e-07	-3.933931e-06	-4.101483e-09	-2.755192e+01	-2.693507e+02
5.700000e-07	-3.797386e-06	-4.034906e-09	-2.659561e+01	-2.651699e+02
5.800000e-07	-3.659292e-06	-3.968644e-09	-2.562844e+01	-2.608475e+02
5.900000e-07	-3.519604e-06	-3.900841e-09	-2.465011e+01	-2.563856e+02
6.000000e-07	-3.378514e-06	-3.830856e-09	-2.366197e+01	-2.517861e+02
6.100000e-07	-3.236081e-06	-3.758590e-09	-2.266442e+01	-2.470492e+02
6.200000e-07	-3.092290e-06	-3.683391e-09	-2.165735e+01	-2.421731e+02
6.300000e-07	-2.947332e-06	-3.605995e-09	-2.064212e+01	-2.371535e+02
6.400000e-07	-2.801335e-06	-3.527993e-09	-1.961960e+01	-2.319840e+02
6.500000e-07	-2.654335e-06	-3.449215e-09	-1.859007e+01	-2.266566e+02
6.600000e-07	-2.506508e-06	-3.364621e-09	-1.755474e+01	-2.211629e+02
6.700000e-07	-2.357937e-06	-3.274796e-09	-1.651419e+01	-2.154938e+02
6.800000e-07	-2.208592e-06	-3.181447e-09	-1.546823e+01	-2.096404e+02
6.900000e-07	-2.058498e-06	-3.088654e-09	-1.441702e+01	-2.035939e+02
7.000000e-07	-1.907726e-06	-2.994792e-09	-1.336107e+01	-1.973448e+02
7.100000e-07	-1.756336e-06	-2.899274e-09	-1.230078e+01	-1.908837e+02
7.200000e-07	-1.604416e-06	-2.797764e-09	-1.123679e+01	-1.842002e+02
7.300000e-07	-1.451997e-06	-2.687281e-09	-1.016930e+01	-1.772837e+02
7.400000e-07	-1.299013e-06	-2.572773e-09	-9.097848e+00	-1.701232e+02
7.500000e-07	-1.145486e-06	-2.456371e-09	-8.022599e+00	-1.627078e+02
7.600000e-07	-9.914903e-07	-2.342721e-09	-6.944062e+00	-1.550273e+02
7.700000e-07	-8.371030e-07	-2.226917e-09	-5.862786e+00	-1.470718e+02
7.800000e-07	-6.823853e-07	-2.103048e-09	-4.779196e+00	-1.388319e+02
7.900000e-07	-5.274132e-07	-1.969757e-09	-3.693824e+00	-1.302980e+02
8.000000e-07	-3.722335e-07	-1.831278e-09	-2.606998e+00	-1.214593e+02
8.100000e-07	-2.168631e-07	-1.689880e-09	-1.518836e+00	-1.123030e+02
8.200000e-07	-6.135931e-08	-1.544208e-09	-4.297399e-01	-1.028126e+02
8.300000e-07	9.422510e-08	-1.393032e-09	6.599208e-01	-9.296749e+01
8.400000e-07	2.498236e-07	-1.236844e-09	1.749680e+00	-8.274222e+01
8.500000e-07	4.053346e-07	-1.074953e-09	2.838827e+00	-7.210727e+01
8.600000e-07	5.606752e-07	-9.048298e-10	3.926779e+00	-6.103077e+01
8.700000e-07	7.158415e-07	-7.281028e-10	5.013512e+00	-4.948161e+01
8.800000e-07	8.707777e-07	-5.445504e-10	6.098632e+00	-3.743395e+01
8.900000e-07	1.025396e-06	-3.540153e-10	7.181524e+00	-2.487268e+01
9.000000e-07	1.179613e-06	-1.556080e-10	8.261611e+00	-1.179942e+01
9.100000e-07	1.333312e-06	4.683745e-11	9.338064e+00	1.761879e+00
9.200000e-07	1.486432e-06	2.547112e-10	1.041047e+01	1.576058e+01
9.300000e-07	1.639013e-06	4.731780e-10	1.147910e+01	3.011737e+01
9.400000e-07	1.791004e-06	7.010176e-10	1.254358e+01	4.472533e+01
9.500000e-07	1.942298e-06	9.295740e-10	1.360320e+01	5.945444e+01
9.600000e-07	2.092874e-06	1.151458e-09	1.465778e+01	7.415945e+01
9.700000e-07	2.242688e-06	1.368299e-09	1.570703e+01	8.869029e+01
9.800000e-07	2.391726e-06	1.581599e-09	1.675084e+01	1.029038e+02
9.900000e-07	2.539948e-06	1.790663e-09	1.778894e+01	1.166751e+02
1.000000e-06	2.687173e-06	1.990191e-09	1.882005e+01	1.299066e+02
1.010000e-06	2.833306e-06	2.179857e-09	1.984352e+01	1.425342e+02
1.020000e-06	2.978418e-06	2.359257e-09	2.085984e+01	1.545279e+02
1.030000e-06	3.122395e-06	2.529217e-09	2.186820e+01	1.658890e+02
1.040000e-06	3.265177e-06	2.695025e-09	2.286819e+01	1.766428e+02
1.050000e-06	3.406794e-06	2.853950e-09	2.386003e+01	1.868293e+02
1.060000e-06	3.547138e-06	3.003639e-09	2.484296e+01	1.964929e+02
1.070000e-06	3.686040e-06	3.143884e-09	2.581578e+01	2.056742e+02
1.080000e-06	3.823439e-06	3.277628e-09	2.677807e+01	2.144044e+02
1.090000e-06	3.959435e-06	3.405032e-09	2.773054e+01	2.227028e+02
1.100000e-06	4.094012e-06	3.521878e-09	2.867307e+01	2.305790e+02
1.110000e-06	4.227173e-06	3.631020e-09	2.960569e+01	2.380374e+02
1.120000e-06	4.358881e-06	3.737108e-09	3.052813e+01	2.450826e+02
1.130000e-06	4.488924e-06	3.841168e-09	3.143891e+01	2.517253e+02
1.140000e-06	4.617336e-06	3.939147e-09	3.233826e+01	2.579855e+02
1.150000e-06	4.744223e-06	4.029946e-09	3.322693e+01	2.638936e+02
1.160000e-06	4.869562e-06	4.115137e-09	3.410477e+01	2.694881e+02
1.170000e-06	4.993220e-06	4.195760e-09	3.497082e+01	2.748111e+02
1.180000e-06	5.115002e-06	4.272381e-09	3.582374e+01	2.799030e+02
1.190000e-06	5.234960e-06	4.344692e-09	3.666389e+01	2.847968e+02
1.200000e-06	5.353072e-06	4.414843e-09	3.749110e+01	2.895149e+02
1.210000e-06	5.469142e-06	4.483645e-09	3.830402e+01	2.940682e+02
1.220000e-06	5.583046e-06	4.550116e-09	3.910176e+01	2.984573e+02
1.230000e-06	5.694802e-06	4.614950e-09	3.988447e+01	3.026768e+02
1.240000e-06	5.804544e-06	4.677304e-09	4.065307e+01	3.067196e+02
1.250000e-06	5.912236e-06	4.735149e-09	4.140730e+01	3.105821e+02
1.260000e-06	6.017717e-06	4.789279e-09	4.214606e+01	3.142664e+02
1.270000e-06	6.121008e-06	4.840962e-09	4.286947e+01	3.177814e+02
1.280000e-06	6.222111e-06	4.890087e-09	4.357756e+01	3.211415e+02
1.290000e-06	6.320844e-06	4.936523e-09	4.426905e+01	3.243627e+02
1.300000e-06	6.417231e-06	4.982249e-09	4.494412e+01	3.274589e+02
1.310000e-06	6.511360e-06	5.026029e-09	4.560336e+01	3.304387e+02
1.320000e-06	6.603163e-06	5.066009e-09	4.624632e+01	3.333030e+02
1.330000e-06	6.692580e-06	5.103580e-09	4.687257e+01	3.360458e+02
1.340000e-06	6.779566e-06	5.139990e-09	4.748179e+01	3.386562e+02
1.350000e-06	6.864197e-06	5.175549e-09	4.807452e+01	3.411223e+02
1.360000e-06	6.946413e-06	5.209960e-09	4.865033e+01	3.434351e+02
1.370000e-06	7.026077e-06	5.243530e-09	4.920827e+01	3.455923e+02
1.380000e-06	7.103204e-06	5.273309e-09	4.974844e+01	3.475994e+02
1.390000e-06	7.177672e-06	5.298490e-09	5.026999e+01	3.494694e+02
1.400000e-06	7.249433e-06	5.322337e-09	5.077258e+01	3.512201e+02
1.410000e-06	7.318675e-06	5.345620e-09	5.125753e+01	3.528706e+02
1.420000e-06	7.385345e-06	5.367481e-09	5.172446e+01	3.544372e+02
1.430000e-06	7.449319e-06	5.389650e-09	5.217251e+01	3.559302e+02
1.440000e-06	7.510760e-06	5.410584e-09	5.260282e+01	3.573529e+02
1.450000e-06	7.569662e-06	5.429490e-09	5.301535e+01	3.587022e+02
1.460000e-06	7.625887e-06	5.447444e-09	5.340913e+01	3.599705e+02
1.470000e-06	7.679280e-06	5.464122e-09	5.378308e+01	3.611499e+02
1.480000e-06	7.729548e-06	5.480973e-09	5.413514e+01	3.622348e+02
1.490000e-06	7.776772e-06	5.497186e-09	5.446588e+01	3.632245e+02
1.500000e-06	7.821205e-06	5.511663e-09	5.477708e+01	3.641238e+02
1.510000e-06	7.862818e-06	5.523227e-09	5.506852e+01	3.649418e+02
1.520000e-06	7.901640e-06	5.533729e-09	5.534042e+01	3.656897e+02
1.530000e-06	7.937789e-06	5.544581e-09	5.559359e+01	3.663773e+02
1.540000e-06	7.971082e-06	5.555503e-09	5.582677e+01	3.670112e+02
1.550000e-06	8.001476e-06	5.565638e-09	5.603963e+01	3.675927e+02
1.560000e-06	8.029101e-06	5.572927e-09	5.623311e+01	3.681184e+02
1.570000e-06	8.053782e-06	5.578025e-09	5.640597e+01	3.685819e+02
1.580000e-06	8.075534e-06	5.583939e-09	5.655831e+01	3.689768e+02
1.590000e-06	8.094510e-06	5.592104e-09	5.669121e+01	3.692988e+02
1.600000e-06	8.110548e-06	5.599687e-09	5.680353e+01	3.695478e+02
1.610000e-06	8.123440e-06	5.603317e-09	5.689383e+01	3.697283e+02
1.620000e-06	8.133136e-06	5.606021e-09	5.696174e+01	3.698479e+02
1.630000e-06	8.139778e-06	5.608722e-09	5.700825e+01	3.699145e+02
1.640000e-06	8.143577e-06	5.610231e-09	5.703486e+01	3.699334e+02
1.650000e-06	8.144525e-06	5.610847e-09	5.704150e+01	3.699049e+02
1.660000e-06	8.142690e-06	5.605973e-09	5.702865e+01	3.698235e+02
1.670000e-06	8.138218e-06	5.601766e-09	5.699733e+01	3.696792e+02
1.680000e-06	8.131025e-06	5.600668e-09	5.694695e+01	3.694602e+02
1.690000e-06	8.121121e-06	5.599983e-09	5.687758e+01	3.691578e+02
1.700000e-06	8.108383e-06	5.598002e-09	5.678837e+01	3.687703e+02
1.710000e-06	8.092820e-06	5.595615e-09	5.667937e+01	3.683061e+02
1.720000e-06	8.074778e-06	5.599054e-09	5.655302e+01	3.677838e+02
1.730000e-06	8.054421e-06	5.586724e-09	5.641044e+01	3.672304e+02
1.740000e-06	8.031238e-06	5.548911e-09	5.624807e+01	3.666752e+02
1.750000e-06	8.004415e-06	5.519901e-09	5.606022e+01	3.661442e+02
1.760000e-06	7.973793e-06	5.522984e-09	5.584575e+01	3.656525e+02
1.770000e-06	7.940069e-06	5.534288e-09	5.560956e+01	3.651998e+02
1.780000e-06	7.904047e-06	5.563564e-09	5.535727e+01	3.647683e+02
1.790000e-06	7.865794e-06	5.582372e-09	5.508936e+01	3.643245e+02
1.800000e-06	7.825443e-06	5.536480e-09	5.480675e+01	3.638253e+02
1.810000e-06	7.782890e-06	5.516381e-09	5.450873e+01	3.632252e+02
1.820000e-06	7.737557e-06	5.499534e-09	5.419123e+01	3.624857e+02
1.830000e-06	7.689484e-06	5.498904e-09	5.385454e+01	3.615828e+02
1.840000e-06	7.638537e-06	5.536552e-09	5.349773e+01	3.605113e+02
1.850000e-06	7.584426e-06	5.523882e-09	5.311876e+01	3.592856e+02
1.860000e-06	7.527467e-06	5.513038e-09	5.271983e+01	3.579358e+02
1.870000e-06	7.467908e-06	5.489617e-09	5.230270e+01	3.565012e+02
1.880000e-06	7.405634e-06	5.431523e-09	5.186656e+01	3.550216e+02
1.890000e-06	7.340428e-06	5.403744e-09	5.140988e+01	3.535287e+02
1.900000e-06	7.272413e-06	5.368219e-09	5.093352e+01	3.520406e+02
1.910000e-06	7.201598e-06	5.336196e-09	5.043756e+01	3.505586e+02
1.920000e-06	7.127939e-06	5.345182e-09	4.992168e+01	3.490688e+02
1.930000e-06	7.051583e-06	5.331262e-09	4.938690e+01	3.475465e+02
1.940000e-06	6.972431e-06	5.292005e-09	4.883255e+01	3.459628e+02
1.950000e-06	6.890647e-06	5.242955e-09	4.825976e+01	3.442918e+02
1.960000e-06	6.806452e-06	5.218200e-09	4.767009e+01	3.425160e+02
1.970000e-06	6.719655e-06	5.191347e-09	4.706219e+01	3.406293e+02
1.980000e-06	6.630298e-06	5.163824e-09	4.643637e+01	3.386374e+02
1.990000e-06	6.538691e-06	5.170112e-09	4.579478e+01	3.365544e+02
2.000000e-06	6.444809e-06	5.138996e-09	4.513727e+01	3.343984e+02
2.010000e-06	6.348532e-06	5.079873e-09	4.446297e+01	3.321858e+02
2.020000e-06	6.250029e-06	5.032607e-09	4.377309e+01	3.299270e+02
2.030000e-06	6.149326e-06	5.008248e-09	4.306780e+01	3.276239e+02
2.040000e-06	6.046272e-06	4.980293e-09	4.234605e+01	3.252696e+02
2.050000e-06	5.941032e-06	4.944160e-09	4.160898e+01	3.228508e+02
2.060000e-06	5.833882e-06	4.917245e-09	4.085853e+01	3.203513e+02
2.070000e-06	5.724861e-06	4.876912e-09	4.009499e+01	3.177562e+02
2.080000e-06	5.613759e-06	4.819281e-09	3.931687e+01	3.150554e+02
2.090000e-06	5.500510e-06	4.759523e-09	3.852371e+01	3.122454e+02
2.100000e-06	5.385202e-06	4.719635e-09	3.771614e+01	3.093298e+02
2.110000e-06	5.267800e-06	4.672471e-09	3.689389e+01	3.063171e+02
2.120000e-06	5.148253e-06	4.625229e-09	3.605662e+01	3.032176e+02
2.130000e-06	5.026791e-06	4.594469e-09	3.520594e+01	3.000408e+02
2.140000e-06	4.903625e-06	4.563277e-09	3.434333e+01	2.967917e+02
2.150000e-06	4.778799e-06	4.507520e-09	3.346909e+01	2.934697e+02
2.160000e-06	4.652160e-06	4.439312e-09	3.258215e+01	2.900681e+02
2.170000e-06	4.523681e-06	4.380042e-09	3.168233e+01	2.865758e+02
2.180000e-06	4.393585e-06	4.326317e-09	3.077118e+01	2.829788e+02
2.190000e-06	4.261960e-06	4.276502e-09	2.984933e+01	2.792634e+02
2.200000e-06	4.128841e-06	4.222802e-09	2.891701e+01	2.754179e+02
2.210000e-06	3.994101e-06	4.164469e-09	2.797333e+01	2.714346e+02
2.220000e-06	3.857768e-06	4.095112e-09	2.701850e+01	2.673097e+02
2.230000e-06	3.719960e-06	4.027032e-09	2.605334e+01	2.630427e+02
2.240000e-06	3.580800e-06	3.964763e-09	2.507871e+01	2.586353e+02
2.250000e-06	3.440349e-06	3.904324e-09	2.409504e+01	2.540896e+02
2.260000e-06	3.298516e-06	3.836811e-09	2.310169e+01	2.494067e+02
2.270000e-06	3.155246e-06	3.760812e-09	2.209827e+01	2.445856e+02
2.280000e-06	3.010740e-06	3.678986e-09	2.108620e+01	2.396230e+02
2.290000e-06	2.865189e-06	3.596482e-09	2.006681e+01	2.345131e+02
2.300000e-06	2.718593e-06	3.515498e-09	1.904011e+01	2.292487e+02
2.310000e-06	2.571056e-06	3.431807e-09	1.800680e+01	2.238213e+02
2.320000e-06	2.422742e-06	3.347094e-09	1.696806e+01	2.182221e+02
2.330000e-06	2.273787e-06	3.263611e-09	1.592483e+01	2.124421e+02
2.340000e-06	2.124113e-06	3.181660e-09	1.487657e+01	2.064725e+02
2.350000e-06	1.973532e-06	3.093710e-09	1.382195e+01	2.003041e+02
2.360000e-06	1.822131e-06	2.995186e-09	1.276159e+01	1.939274e+02
2.370000e-06	1.670142e-06	2.888632e-09	1.169711e+01	1.873324e+02
2.380000e-06	1.517646e-06	2.779291e-09	1.062908e+01	1.805087e+02
2.390000e-06	1.364673e-06	2.672197e-09	9.557705e+00	1.734452e+02
2.400000e-06	1.211299e-06	2.564148e-09	8.483528e+00	1.661312e+02
2.410000e-06	1.057517e-06	2.450683e-09	7.406489e+00	1.585560e+02
2.420000e-06	9.033129e-07	2.330027e-09	6.326498e+00	1.507096e+02
2.430000e-06	7.488376e-07	2.202930e-09	5.244606e+00	1.425825e+02
2.440000e-06	5.941198e-07	2.076538e-09	4.161014e+00	1.341652e+02
2.450000e-06	4.391464e-07	1.949041e-09	3.075633e+00	1.254476e+02
2.460000e-06	2.840275e-07	1.815107e-09	1.989232e+00	1.164177e+02
2.470000e-06	1.287754e-07	1.672060e-09	9.018994e-01	1.070607e+02
2.480000e-06	-2.655827e-08	1.521734e-09	-1.860051e-01	9.735766e+01
2.490000e-06	-1.818606e-07	1.368235e-09	-1.273690e+00	8.728498e+01
2.500000e-06	-3.371100e-07	1.210289e-09	-2.361005e+00	7.681464e+01
2.510000e-06	-4.922732e-07	1.045877e-09	-3.447715e+00	6.591537e+01
2.520000e-06	-6.473006e-07	8.729433e-10	-4.533474e+00	5.455532e+01
2.530000e-06	-8.021589e-07	6.895450e-10	-5.618050e+00	4.270596e+01
2.540000e-06	-9.567631e-07	4.982640e-10	-6.700845e+00	3.034727e+01
2.550000e-06	-1.111006e-06	3.024487e-10	-7.781110e+00	1.747357e+01
2.560000e-06	-1.264820e-06	9.914941e-11	-8.858370e+00	4.099444e+00
2.570000e-06	-1.418201e-06	-1.152159e-10	-9.932597e+00	-9.735343e+00
2.580000e-06	-1.571167e-06	-3.351064e-10	-1.100392e+01	-2.396281e+01
2.590000e-06	-1.723643e-06	-5.551898e-10	-1.207181e+01	-3.848654e+01
2.600000e-06	-1.875441e-06	-7.778724e-10	-1.313496e+01	-5.318481e+01
2.610000e-06	-2.026318e-06	-1.004793e-09	-1.419165e+01	-6.791724e+01
2.620000e-06	-2.176273e-06	-1.232237e-09	-1.524188e+01	-8.253429e+01
2.630000e-06	-2.325448e-06	-1.456449e-09	-1.628665e+01	-9.688867e+01
2.640000e-06	-2.473792e-06	-1.673991e-09	-1.732560e+01	-1.108471e+02
2.650000e-06	-2.621246e-06	-1.881264e-09	-1.835832e+01	-1.243003e+02
2.660000e-06	-2.767757e-06	-2.077126e-09	-1.938444e+01	-1.371706e+02
2.670000e-06	-2.913290e-06	-2.261354e-09	-2.040369e+01	-1.494149e+02
2.680000e-06	-3.057827e-06	-2.437680e-09	-2.141599e+01	-1.610227e+02
2.690000e-06	-3.201115e-06	-2.606872e-09	-2.241953e+01	-1.720110e+02
2.700000e-06	-3.342952e-06	-2.766057e-09	-2.341291e+01	-1.824151e+02
2.710000e-06	-3.483466e-06	-2.916897e-09	-2.439701e+01	-1.922790e+02
2.720000e-06	-3.622744e-06	-3.060809e-09	-2.537248e+01	-2.016456e+02
2.730000e-06	-3.760716e-06	-3.198370e-09	-2.633878e+01	-2.105501e+02
2.740000e-06	-3.897339e-06	-3.328056e-09	-2.729565e+01	-2.190166e+02
2.750000e-06	-4.032484e-06	-3.451539e-09	-2.824216e+01	-2.270580e+02
2.760000e-06	-4.166117e-06	-3.568296e-09	-2.917807e+01	-2.346802e+02
2.770000e-06	-4.298309e-06	-3.675207e-09	-3.010390e+01	-2.418870e+02
2.780000e-06	-4.429006e-06	-3.777342e-09	-3.101926e+01	-2.486861e+02
2.790000e-06	-4.558247e-06	-3.876730e-09	-3.192442e+01	-2.550935e+02
2.800000e-06	-4.685901e-06	-3.970453e-09	-3.281847e+01	-2.611358e+02
2.810000e-06	-4.811850e-06	-4.058171e-09	-3.370057e+01	-2.668486e+02
2.820000e-06	-4.936217e-06	-4.143027e-09	-3.457159e+01	-2.722733e+02
2.830000e-06	-5.058906e-06	-4.225654e-09	-3.543087e+01	-2.774516e+02
2.840000e-06	-5.179732e-06	-4.304410e-09	-3.627709e+01	-2.824200e+02
2.850000e-06	-5.298508e-06	-4.377639e-09	-3.710896e+01	-2.872053e+02
2.860000e-06	-5.415175e-06	-4.445665e-09	-3.792605e+01	-2.918228e+02
2.870000e-06	-5.529730e-06	-4.511775e-09	-3.872836e+01	-2.962769e+02
2.880000e-06	-5.642049e-06	-4.576066e-09	-3.951500e+01	-3.005639e+02
2.890000e-06	-5.752220e-06	-4.637814e-09	-4.028661e+01	-3.046769e+02
2.900000e-06	-5.860398e-06	-4.698720e-09	-4.104425e+01	-3.086105e+02
2.910000e-06	-5.966552e-06	-4.758962e-09	-4.178771e+01	-3.123641e+02
2.920000e-06	-6.070509e-06	-4.817570e-09	-4.251579e+01	-3.159442e+02
2.930000e-06	-6.172157e-06	-4.872756e-09	-4.322770e+01	-3.193634e+02
2.940000e-06	-6.271564e-06	-4.923682e-09	-4.392391e+01	-3.226373e+02
