# Temperatura_=_79.76
# Concentracion g/m^3_=_15000.0
# C_Vs_to_Am_M_A/Vsm_=_65563218390.804596
# pendiente_HvsI_1/m_=_3716.3
# ordenada_HvsI_A/m_=_1297.0
# frecuencia_Hz_=_302331.42137879436

Tiempo_(s)	Campo_(V.s)	Magnetizacion_(V.s)	Campo_(kA/m)	Magnetizacion_(A/m)
0.000000e+00	-8.315822e-06	-1.012771e-08	-5.692289e+01	-6.622731e+02
1.000000e-08	-8.313467e-06	-1.012555e-08	-5.690676e+01	-6.620568e+02
2.000000e-08	-8.308313e-06	-1.012135e-08	-5.687149e+01	-6.617318e+02
3.000000e-08	-8.300533e-06	-1.011079e-08	-5.681823e+01	-6.612986e+02
4.000000e-08	-8.289856e-06	-1.009950e-08	-5.674515e+01	-6.607593e+02
5.000000e-08	-8.276164e-06	-1.008646e-08	-5.665142e+01	-6.601181e+02
6.000000e-08	-8.259573e-06	-1.007364e-08	-5.653786e+01	-6.593803e+02
7.000000e-08	-8.240399e-06	-1.006224e-08	-5.640660e+01	-6.585524e+02
8.000000e-08	-8.218803e-06	-1.004812e-08	-5.625878e+01	-6.576414e+02
9.000000e-08	-8.194345e-06	-1.005341e-08	-5.609136e+01	-6.566543e+02
1.000000e-07	-8.166592e-06	-1.007576e-08	-5.590138e+01	-6.555978e+02
1.100000e-07	-8.135613e-06	-1.003708e-08	-5.568933e+01	-6.544774e+02
1.200000e-07	-8.101590e-06	-9.987300e-09	-5.545644e+01	-6.532968e+02
1.300000e-07	-8.064688e-06	-9.959511e-09	-5.520384e+01	-6.520568e+02
1.400000e-07	-8.025276e-06	-9.935742e-09	-5.493406e+01	-6.507545e+02
1.500000e-07	-7.983491e-06	-9.882531e-09	-5.464804e+01	-6.493825e+02
1.600000e-07	-7.939212e-06	-9.846735e-09	-5.434494e+01	-6.479290e+02
1.700000e-07	-7.892119e-06	-9.921175e-09	-5.402258e+01	-6.463780e+02
1.800000e-07	-7.842023e-06	-9.817227e-09	-5.367967e+01	-6.447112e+02
1.900000e-07	-7.789037e-06	-9.795315e-09	-5.331697e+01	-6.429103e+02
2.000000e-07	-7.733161e-06	-9.817298e-09	-5.293449e+01	-6.409594e+02
2.100000e-07	-7.674424e-06	-9.691177e-09	-5.253243e+01	-6.388476e+02
2.200000e-07	-7.612958e-06	-9.670644e-09	-5.211169e+01	-6.365709e+02
2.300000e-07	-7.548800e-06	-9.647140e-09	-5.167252e+01	-6.341325e+02
2.400000e-07	-7.481818e-06	-9.641780e-09	-5.121402e+01	-6.315417e+02
2.500000e-07	-7.411964e-06	-9.577736e-09	-5.073586e+01	-6.288119e+02
2.600000e-07	-7.339146e-06	-9.529679e-09	-5.023741e+01	-6.259570e+02
2.700000e-07	-7.263335e-06	-9.511533e-09	-4.971848e+01	-6.229884e+02
2.800000e-07	-7.184691e-06	-9.437049e-09	-4.918015e+01	-6.199122e+02
2.900000e-07	-7.103300e-06	-9.388317e-09	-4.862301e+01	-6.167277e+02
3.000000e-07	-7.019422e-06	-9.346260e-09	-4.804886e+01	-6.134280e+02
3.100000e-07	-6.933175e-06	-9.316854e-09	-4.745849e+01	-6.100017e+02
3.200000e-07	-6.844394e-06	-9.252600e-09	-4.685077e+01	-6.064363e+02
3.300000e-07	-6.753092e-06	-9.174808e-09	-4.622579e+01	-6.027209e+02
3.400000e-07	-6.659360e-06	-9.128556e-09	-4.558419e+01	-5.988495e+02
3.500000e-07	-6.563159e-06	-9.052852e-09	-4.492568e+01	-5.948222e+02
3.600000e-07	-6.464533e-06	-8.980921e-09	-4.425057e+01	-5.906450e+02
3.700000e-07	-6.363639e-06	-8.921217e-09	-4.355994e+01	-5.863279e+02
3.800000e-07	-6.260457e-06	-8.874458e-09	-4.285364e+01	-5.818820e+02
3.900000e-07	-6.154901e-06	-8.806545e-09	-4.213110e+01	-5.773162e+02
4.000000e-07	-6.047148e-06	-8.723440e-09	-4.139352e+01	-5.726349e+02
4.100000e-07	-5.937345e-06	-8.650607e-09	-4.064190e+01	-5.678363e+02
4.200000e-07	-5.825454e-06	-8.569305e-09	-3.987599e+01	-5.629128e+02
4.300000e-07	-5.711323e-06	-8.490838e-09	-3.909475e+01	-5.578530e+02
4.400000e-07	-5.594979e-06	-8.410555e-09	-3.829836e+01	-5.526440e+02
4.500000e-07	-5.476550e-06	-8.342197e-09	-3.748770e+01	-5.472743e+02
4.600000e-07	-5.356058e-06	-8.263012e-09	-3.666291e+01	-5.417361e+02
4.700000e-07	-5.233699e-06	-8.171703e-09	-3.582535e+01	-5.360254e+02
4.800000e-07	-5.109533e-06	-8.076237e-09	-3.497542e+01	-5.301423e+02
4.900000e-07	-4.983552e-06	-7.983813e-09	-3.411307e+01	-5.240881e+02
5.000000e-07	-4.855771e-06	-7.892292e-09	-3.323838e+01	-5.178639e+02
5.100000e-07	-4.726184e-06	-7.792864e-09	-3.235134e+01	-5.114677e+02
5.200000e-07	-4.594839e-06	-7.692872e-09	-3.145227e+01	-5.048933e+02
5.300000e-07	-4.461778e-06	-7.587115e-09	-3.054145e+01	-4.981307e+02
5.400000e-07	-4.327103e-06	-7.477851e-09	-2.961959e+01	-4.911673e+02
5.500000e-07	-4.190800e-06	-7.362083e-09	-2.868657e+01	-4.839900e+02
5.600000e-07	-4.052824e-06	-7.248555e-09	-2.774211e+01	-4.765878e+02
5.700000e-07	-3.913217e-06	-7.136261e-09	-2.678648e+01	-4.689534e+02
5.800000e-07	-3.771926e-06	-7.016970e-09	-2.581932e+01	-4.610835e+02
5.900000e-07	-3.628980e-06	-6.896133e-09	-2.484084e+01	-4.529780e+02
6.000000e-07	-3.484616e-06	-6.772032e-09	-2.385265e+01	-4.446377e+02
6.100000e-07	-3.339028e-06	-6.644009e-09	-2.285608e+01	-4.360615e+02
6.200000e-07	-3.192322e-06	-6.505607e-09	-2.185186e+01	-4.272443e+02
6.300000e-07	-3.044591e-06	-6.361674e-09	-2.084062e+01	-4.181753e+02
6.400000e-07	-2.895804e-06	-6.217010e-09	-1.982216e+01	-4.088387e+02
6.500000e-07	-2.746007e-06	-6.069171e-09	-1.879677e+01	-3.992150e+02
6.600000e-07	-2.595228e-06	-5.915752e-09	-1.776467e+01	-3.892841e+02
6.700000e-07	-2.443492e-06	-5.757713e-09	-1.672602e+01	-3.790277e+02
6.800000e-07	-2.290838e-06	-5.597539e-09	-1.568108e+01	-3.684316e+02
6.900000e-07	-2.137321e-06	-5.431925e-09	-1.463024e+01	-3.574856e+02
7.000000e-07	-1.983054e-06	-5.259715e-09	-1.357427e+01	-3.461828e+02
7.100000e-07	-1.828073e-06	-5.081398e-09	-1.251340e+01	-3.345163e+02
7.200000e-07	-1.672496e-06	-4.898530e-09	-1.144845e+01	-3.224764e+02
7.300000e-07	-1.516363e-06	-4.708400e-09	-1.037970e+01	-3.100476e+02
7.400000e-07	-1.359682e-06	-4.511637e-09	-9.307198e+00	-2.972078e+02
7.500000e-07	-1.202565e-06	-4.305784e-09	-8.231712e+00	-2.839292e+02
7.600000e-07	-1.045097e-06	-4.093794e-09	-7.153826e+00	-2.701813e+02
7.700000e-07	-8.872968e-07	-3.879284e-09	-6.073662e+00	-2.559344e+02
7.800000e-07	-7.292453e-07	-3.657267e-09	-4.991779e+00	-2.411632e+02
7.900000e-07	-5.709959e-07	-3.424630e-09	-3.908542e+00	-2.258484e+02
8.000000e-07	-4.125443e-07	-3.182620e-09	-2.823919e+00	-2.099747e+02
8.100000e-07	-2.539864e-07	-2.932900e-09	-1.738570e+00	-1.935260e+02
8.200000e-07	-9.534557e-08	-2.673669e-09	-6.526528e-01	-1.764779e+02
8.300000e-07	6.341613e-08	-2.404511e-09	4.340917e-01	-1.587896e+02
8.400000e-07	2.222345e-07	-2.123959e-09	1.521224e+00	-1.403979e+02
8.500000e-07	3.809726e-07	-1.829728e-09	2.607807e+00	-1.212157e+02
8.600000e-07	5.395326e-07	-1.519883e-09	3.693171e+00	-1.011375e+02
8.700000e-07	6.979232e-07	-1.196603e-09	4.777375e+00	-8.005207e+01
8.800000e-07	8.561551e-07	-8.596668e-10	5.860493e+00	-5.786183e+01
8.900000e-07	1.014168e-06	-5.039570e-10	6.942114e+00	-3.450548e+01
9.000000e-07	1.171931e-06	-1.297278e-10	8.022023e+00	-9.980871e+00
9.100000e-07	1.329367e-06	2.598508e-10	9.099690e+00	1.563720e+01
9.200000e-07	1.486386e-06	6.620203e-10	1.017450e+01	4.218806e+01
9.300000e-07	1.642858e-06	1.078061e-09	1.124558e+01	6.942787e+01
9.400000e-07	1.798662e-06	1.503360e-09	1.231208e+01	9.704454e+01
9.500000e-07	1.953815e-06	1.927864e-09	1.337412e+01	1.246833e+02
9.600000e-07	2.108252e-06	2.343686e-09	1.443126e+01	1.519791e+02
9.700000e-07	2.261913e-06	2.745125e-09	1.548309e+01	1.785905e+02
9.800000e-07	2.414771e-06	3.131367e-09	1.652942e+01	2.042301e+02
9.900000e-07	2.566620e-06	3.499819e-09	1.756885e+01	2.286861e+02
1.000000e-06	2.717303e-06	3.849426e-09	1.860029e+01	2.518326e+02
1.010000e-06	2.866934e-06	4.180195e-09	1.962453e+01	2.736279e+02
1.020000e-06	3.015573e-06	4.490608e-09	2.064199e+01	2.941010e+02
1.030000e-06	3.163105e-06	4.783316e-09	2.165187e+01	3.133321e+02
1.040000e-06	3.309465e-06	5.059936e-09	2.265372e+01	3.314291e+02
1.050000e-06	3.454662e-06	5.321344e-09	2.364761e+01	3.485060e+02
1.060000e-06	3.598567e-06	5.568257e-09	2.463266e+01	3.646666e+02
1.070000e-06	3.741070e-06	5.800282e-09	2.560811e+01	3.799948e+02
1.080000e-06	3.882175e-06	6.020209e-09	2.657399e+01	3.945528e+02
1.090000e-06	4.021818e-06	6.229843e-09	2.752987e+01	4.083848e+02
1.100000e-06	4.159979e-06	6.427251e-09	2.847560e+01	4.215243e+02
1.110000e-06	4.296546e-06	6.614237e-09	2.941042e+01	4.340020e+02
1.120000e-06	4.431476e-06	6.793868e-09	3.033403e+01	4.458517e+02
1.130000e-06	4.564907e-06	6.967626e-09	3.124738e+01	4.571131e+02
1.140000e-06	4.696741e-06	7.134770e-09	3.214980e+01	4.678305e+02
1.150000e-06	4.826923e-06	7.292110e-09	3.304092e+01	4.780491e+02
1.160000e-06	4.955419e-06	7.442236e-09	3.392049e+01	4.878099e+02
1.170000e-06	5.082133e-06	7.585884e-09	3.478786e+01	4.971451e+02
1.180000e-06	5.207101e-06	7.721025e-09	3.564329e+01	5.060761e+02
1.190000e-06	5.330281e-06	7.849303e-09	3.648647e+01	5.146132e+02
1.200000e-06	5.451584e-06	7.970315e-09	3.731681e+01	5.227594e+02
1.210000e-06	5.570864e-06	8.084115e-09	3.813329e+01	5.305152e+02
1.220000e-06	5.688069e-06	8.194205e-09	3.893558e+01	5.378837e+02
1.230000e-06	5.803078e-06	8.301486e-09	3.972282e+01	5.448750e+02
1.240000e-06	5.915692e-06	8.404405e-09	4.049368e+01	5.515087e+02
1.250000e-06	6.026130e-06	8.500729e-09	4.124965e+01	5.578126e+02
1.260000e-06	6.134561e-06	8.591820e-09	4.199187e+01	5.638209e+02
1.270000e-06	6.240846e-06	8.679385e-09	4.271940e+01	5.695690e+02
1.280000e-06	6.344777e-06	8.764205e-09	4.343083e+01	5.750894e+02
1.290000e-06	6.446348e-06	8.845719e-09	4.412609e+01	5.804082e+02
1.300000e-06	6.545580e-06	8.922580e-09	4.480535e+01	5.855426e+02
1.310000e-06	6.642309e-06	8.996783e-09	4.546747e+01	5.905015e+02
1.320000e-06	6.736566e-06	9.068326e-09	4.611267e+01	5.952870e+02
1.330000e-06	6.828471e-06	9.137758e-09	4.674177e+01	5.998971e+02
1.340000e-06	6.917987e-06	9.204260e-09	4.735452e+01	6.043291e+02
1.350000e-06	7.004996e-06	9.267895e-09	4.795011e+01	6.085818e+02
1.360000e-06	7.089518e-06	9.330243e-09	4.852868e+01	6.126562e+02
1.370000e-06	7.171601e-06	9.390660e-09	4.909054e+01	6.165560e+02
1.380000e-06	7.251104e-06	9.448418e-09	4.963475e+01	6.202856e+02
1.390000e-06	7.327955e-06	9.500155e-09	5.016081e+01	6.238493e+02
1.400000e-06	7.402056e-06	9.548349e-09	5.066803e+01	6.272494e+02
1.410000e-06	7.473397e-06	9.596196e-09	5.115637e+01	6.304857e+02
1.420000e-06	7.542137e-06	9.642714e-09	5.162691e+01	6.335561e+02
1.430000e-06	7.608197e-06	9.686978e-09	5.207910e+01	6.364572e+02
1.440000e-06	7.671503e-06	9.727116e-09	5.251244e+01	6.391864e+02
1.450000e-06	7.732223e-06	9.765152e-09	5.292808e+01	6.417429e+02
1.460000e-06	7.790292e-06	9.801163e-09	5.332556e+01	6.441290e+02
1.470000e-06	7.845560e-06	9.834617e-09	5.370388e+01	6.463500e+02
1.480000e-06	7.897818e-06	9.864866e-09	5.406159e+01	6.484132e+02
1.490000e-06	7.946809e-06	9.892578e-09	5.439694e+01	6.503271e+02
1.500000e-06	7.992808e-06	9.918710e-09	5.471181e+01	6.520991e+02
1.510000e-06	8.036080e-06	9.942998e-09	5.500802e+01	6.537346e+02
1.520000e-06	8.076423e-06	9.965787e-09	5.528416e+01	6.552367e+02
1.530000e-06	8.113875e-06	9.985261e-09	5.554053e+01	6.566058e+02
1.540000e-06	8.148510e-06	1.000167e-08	5.577761e+01	6.578410e+02
1.550000e-06	8.180190e-06	1.001666e-08	5.599447e+01	6.589414e+02
1.560000e-06	8.209053e-06	1.003200e-08	5.619204e+01	6.599068e+02
1.570000e-06	8.234999e-06	1.004561e-08	5.636964e+01	6.607392e+02
1.580000e-06	8.257876e-06	1.005600e-08	5.652624e+01	6.614428e+02
1.590000e-06	8.277840e-06	1.006586e-08	5.666289e+01	6.620233e+02
1.600000e-06	8.294826e-06	1.007478e-08	5.677916e+01	6.624870e+02
1.610000e-06	8.308727e-06	1.008140e-08	5.687432e+01	6.628398e+02
1.620000e-06	8.319450e-06	1.008555e-08	5.694772e+01	6.630862e+02
1.630000e-06	8.326944e-06	1.008776e-08	5.699902e+01	6.632283e+02
1.640000e-06	8.331503e-06	1.009013e-08	5.703023e+01	6.632665e+02
1.650000e-06	8.333150e-06	1.009103e-08	5.704150e+01	6.631995e+02
1.660000e-06	8.331875e-06	1.008945e-08	5.703277e+01	6.630255e+02
1.670000e-06	8.327844e-06	1.008037e-08	5.700518e+01	6.627431e+02
1.680000e-06	8.321013e-06	1.007504e-08	5.695842e+01	6.623521e+02
1.690000e-06	8.311385e-06	1.007075e-08	5.689251e+01	6.618540e+02
1.700000e-06	8.298863e-06	1.006500e-08	5.680680e+01	6.612521e+02
1.710000e-06	8.283418e-06	1.005865e-08	5.670108e+01	6.605513e+02
1.720000e-06	8.265411e-06	1.005074e-08	5.657782e+01	6.597578e+02
1.730000e-06	8.245016e-06	1.003900e-08	5.643821e+01	6.588785e+02
1.740000e-06	8.221828e-06	9.986054e-09	5.627949e+01	6.579203e+02
1.750000e-06	8.195114e-06	9.942606e-09	5.609662e+01	6.568902e+02
1.760000e-06	8.164477e-06	9.961390e-09	5.588691e+01	6.557942e+02
1.770000e-06	8.130601e-06	9.955873e-09	5.565503e+01	6.546368e+02
1.780000e-06	8.094338e-06	9.935025e-09	5.540680e+01	6.534201e+02
1.790000e-06	8.055646e-06	9.951830e-09	5.514195e+01	6.521427e+02
1.800000e-06	8.014724e-06	9.979654e-09	5.486183e+01	6.507992e+02
1.810000e-06	7.971720e-06	9.850252e-09	5.456746e+01	6.493792e+02
1.820000e-06	7.925908e-06	9.862061e-09	5.425387e+01	6.478684e+02
1.830000e-06	7.877250e-06	9.872919e-09	5.392080e+01	6.462492e+02
1.840000e-06	7.825671e-06	9.784203e-09	5.356774e+01	6.445029e+02
1.850000e-06	7.770847e-06	9.856365e-09	5.319246e+01	6.426124e+02
1.860000e-06	7.713231e-06	9.788754e-09	5.279807e+01	6.405646e+02
1.870000e-06	7.652774e-06	9.786048e-09	5.238423e+01	6.383525e+02
1.880000e-06	7.589436e-06	9.707890e-09	5.195068e+01	6.359767e+02
1.890000e-06	7.523335e-06	9.632348e-09	5.149821e+01	6.334442e+02
1.900000e-06	7.454348e-06	9.666827e-09	5.102598e+01	6.307671e+02
1.910000e-06	7.382454e-06	9.546810e-09	5.053386e+01	6.279596e+02
1.920000e-06	7.307529e-06	9.545479e-09	5.002099e+01	6.250345e+02
1.930000e-06	7.229752e-06	9.516252e-09	4.948859e+01	6.220001e+02
1.940000e-06	7.149286e-06	9.471133e-09	4.893780e+01	6.188584e+02
1.950000e-06	7.066291e-06	9.402712e-09	4.836968e+01	6.156050e+02
1.960000e-06	6.980713e-06	9.307864e-09	4.778389e+01	6.122298e+02
1.970000e-06	6.892373e-06	9.302435e-09	4.717919e+01	6.087204e+02
1.980000e-06	6.801555e-06	9.213072e-09	4.655753e+01	6.050648e+02
1.990000e-06	6.708338e-06	9.183224e-09	4.591944e+01	6.012548e+02
2.000000e-06	6.612736e-06	9.142053e-09	4.526504e+01	5.972882e+02
2.010000e-06	6.514806e-06	9.080707e-09	4.459469e+01	5.931688e+02
2.020000e-06	6.414591e-06	8.986127e-09	4.390871e+01	5.889051e+02
2.030000e-06	6.312063e-06	8.901227e-09	4.320689e+01	5.845084e+02
2.040000e-06	6.207194e-06	8.859790e-09	4.248905e+01	5.799887e+02
2.050000e-06	6.100177e-06	8.788685e-09	4.175651e+01	5.753525e+02
2.060000e-06	5.991049e-06	8.726595e-09	4.100951e+01	5.706004e+02
2.070000e-06	5.879808e-06	8.647508e-09	4.024805e+01	5.657271e+02
2.080000e-06	5.766493e-06	8.578166e-09	3.947240e+01	5.607222e+02
2.090000e-06	5.650966e-06	8.477237e-09	3.868160e+01	5.555731e+02
2.100000e-06	5.533139e-06	8.389876e-09	3.787505e+01	5.502676e+02
2.110000e-06	5.413210e-06	8.308104e-09	3.705413e+01	5.447961e+02
2.120000e-06	5.291427e-06	8.227880e-09	3.622051e+01	5.391532e+02
2.130000e-06	5.167857e-06	8.141182e-09	3.537465e+01	5.333375e+02
2.140000e-06	5.042352e-06	8.054805e-09	3.451556e+01	5.273502e+02
2.150000e-06	4.914914e-06	7.969180e-09	3.364322e+01	5.211927e+02
2.160000e-06	4.785726e-06	7.866906e-09	3.275892e+01	5.148644e+02
2.170000e-06	4.654875e-06	7.762537e-09	3.186323e+01	5.083608e+02
2.180000e-06	4.522354e-06	7.651972e-09	3.095610e+01	5.016734e+02
2.190000e-06	4.388034e-06	7.556764e-09	3.003667e+01	4.947903e+02
2.200000e-06	4.252045e-06	7.455138e-09	2.910580e+01	4.876984e+02
2.210000e-06	4.114526e-06	7.349183e-09	2.816447e+01	4.803855e+02
2.220000e-06	3.975399e-06	7.229608e-09	2.721213e+01	4.728428e+02
2.230000e-06	3.834629e-06	7.106479e-09	2.624854e+01	4.650654e+02
2.240000e-06	3.692324e-06	6.978690e-09	2.527444e+01	4.570522e+02
2.250000e-06	3.548625e-06	6.852695e-09	2.429080e+01	4.488039e+02
2.260000e-06	3.403640e-06	6.729969e-09	2.329836e+01	4.403206e+02
2.270000e-06	3.257525e-06	6.604237e-09	2.229818e+01	4.315989e+02
2.280000e-06	3.110249e-06	6.469557e-09	2.129006e+01	4.226303e+02
2.290000e-06	2.961725e-06	6.321818e-09	2.027339e+01	4.134008e+02
2.300000e-06	2.812075e-06	6.173358e-09	1.924902e+01	4.038922e+02
2.310000e-06	2.661457e-06	6.023193e-09	1.821802e+01	3.940841e+02
2.320000e-06	2.509952e-06	5.870945e-09	1.718095e+01	3.839574e+02
2.330000e-06	2.357633e-06	5.713993e-09	1.613831e+01	3.734960e+02
2.340000e-06	2.204470e-06	5.553221e-09	1.508988e+01	3.626883e+02
2.350000e-06	2.050519e-06	5.387750e-09	1.403607e+01	3.515263e+02
2.360000e-06	1.896009e-06	5.214529e-09	1.297843e+01	3.400034e+02
2.370000e-06	1.740957e-06	5.032223e-09	1.191708e+01	3.281115e+02
2.380000e-06	1.585213e-06	4.840436e-09	1.085099e+01	3.158376e+02
2.390000e-06	1.428833e-06	4.643662e-09	9.780548e+00	3.031622e+02
2.400000e-06	1.271947e-06	4.442912e-09	8.706641e+00	2.900594e+02
2.410000e-06	1.114605e-06	4.236726e-09	7.629618e+00	2.764994e+02
2.420000e-06	9.568867e-07	4.023550e-09	6.550014e+00	2.624516e+02
2.430000e-06	7.988156e-07	3.801108e-09	5.467997e+00	2.478889e+02
2.440000e-06	6.404638e-07	3.570928e-09	4.384058e+00	2.327895e+02
2.450000e-06	4.819093e-07	3.331885e-09	3.298732e+00	2.171370e+02
2.460000e-06	3.231543e-07	3.085475e-09	2.212033e+00	2.009163e+02
2.470000e-06	1.642432e-07	2.832322e-09	1.124266e+00	1.841073e+02
2.480000e-06	5.220793e-09	2.566730e-09	3.573701e-02	1.666766e+02
2.490000e-06	-1.538155e-07	2.287853e-09	-1.052887e+00	1.485701e+02
2.500000e-06	-3.127895e-07	1.997270e-09	-2.141085e+00	1.297100e+02
2.510000e-06	-4.716823e-07	1.694558e-09	-3.228727e+00	1.099970e+02
2.520000e-06	-6.304210e-07	1.378505e-09	-4.315314e+00	8.932001e+01
2.530000e-06	-7.889292e-07	1.047078e-09	-5.400323e+00	6.757352e+01
2.540000e-06	-9.472031e-07	6.994354e-10	-6.483728e+00	4.467912e+01
2.550000e-06	-1.105179e-06	3.352267e-10	-7.565093e+00	2.060896e+01
2.560000e-06	-1.262767e-06	-4.494008e-11	-8.643807e+00	-4.594023e+00
2.570000e-06	-1.419902e-06	-4.408121e-10	-9.719414e+00	-3.080327e+01
2.580000e-06	-1.576459e-06	-8.502608e-10	-1.079107e+01	-5.780648e+01
2.590000e-06	-1.732286e-06	-1.272403e-09	-1.185772e+01	-8.531587e+01
2.600000e-06	-1.887326e-06	-1.701263e-09	-1.291899e+01	-1.129899e+02
2.610000e-06	-2.041676e-06	-2.126252e-09	-1.397554e+01	-1.404633e+02
2.620000e-06	-2.195304e-06	-2.540041e-09	-1.502714e+01	-1.673816e+02
2.630000e-06	-2.348132e-06	-2.938188e-09	-1.607327e+01	-1.934329e+02
2.640000e-06	-2.500040e-06	-3.319069e-09	-1.711310e+01	-2.183739e+02
2.650000e-06	-2.650976e-06	-3.680753e-09	-1.814628e+01	-2.420445e+02
2.660000e-06	-2.801030e-06	-4.021471e-09	-1.917342e+01	-2.643708e+02
2.670000e-06	-2.950095e-06	-4.340351e-09	-2.019379e+01	-2.853562e+02
2.680000e-06	-3.097942e-06	-4.640950e-09	-2.120582e+01	-3.050636e+02
2.690000e-06	-3.244587e-06	-4.927176e-09	-2.220962e+01	-3.235926e+02
2.700000e-06	-3.390171e-06	-5.198355e-09	-2.320616e+01	-3.410572e+02
2.710000e-06	-3.534532e-06	-5.453940e-09	-2.419433e+01	-3.575667e+02
2.720000e-06	-3.677574e-06	-5.693351e-09	-2.517347e+01	-3.732135e+02
2.730000e-06	-3.819285e-06	-5.919956e-09	-2.614350e+01	-3.880681e+02
2.740000e-06	-3.959396e-06	-6.134339e-09	-2.710258e+01	-4.021810e+02
2.750000e-06	-4.097899e-06	-6.339996e-09	-2.805065e+01	-4.155891e+02
2.760000e-06	-4.234952e-06	-6.536920e-09	-2.898880e+01	-4.283232e+02
2.770000e-06	-4.370499e-06	-6.719554e-09	-2.991663e+01	-4.404153e+02
2.780000e-06	-4.504487e-06	-6.891643e-09	-3.083380e+01	-4.519029e+02
2.790000e-06	-4.636843e-06	-7.056673e-09	-3.173979e+01	-4.628287e+02
2.800000e-06	-4.767584e-06	-7.217019e-09	-3.263473e+01	-4.732382e+02
2.810000e-06	-4.896757e-06	-7.369866e-09	-3.351894e+01	-4.831746e+02
2.820000e-06	-5.024272e-06	-7.515113e-09	-3.439179e+01	-4.926740e+02
2.830000e-06	-5.149988e-06	-7.655424e-09	-3.525234e+01	-5.017622e+02
2.840000e-06	-5.273837e-06	-7.790147e-09	-3.610010e+01	-5.104535e+02
2.850000e-06	-5.395846e-06	-7.917794e-09	-3.693527e+01	-5.187533e+02
2.860000e-06	-5.515934e-06	-8.037915e-09	-3.775729e+01	-5.266626e+02
2.870000e-06	-5.633902e-06	-8.152811e-09	-3.856479e+01	-5.341826e+02
2.880000e-06	-5.749507e-06	-8.261116e-09	-3.935612e+01	-5.413205e+02
2.890000e-06	-5.862791e-06	-8.363743e-09	-4.013157e+01	-5.480919e+02
2.900000e-06	-5.973830e-06	-8.462067e-09	-4.089165e+01	-5.545217e+02
2.910000e-06	-6.082683e-06	-8.557556e-09	-4.163676e+01	-5.606421e+02
2.920000e-06	-6.189487e-06	-8.650660e-09	-4.236784e+01	-5.664884e+02
2.930000e-06	-6.294048e-06	-8.739611e-09	-4.308358e+01	-5.720949e+02
2.940000e-06	-6.396169e-06	-8.822511e-09	-4.378261e+01	-5.774905e+02
