# Temperatura_=_57.0
# Concentracion g/m^3_=_15000.0
# C_Vs_to_Am_M_A/Vsm_=_65563218390.804596
# pendiente_HvsI_1/m_=_3716.3
# ordenada_HvsI_A/m_=_1297.0
# frecuencia_Hz_=_302328.32555166946

Tiempo_(s)	Campo_(V.s)	Magnetizacion_(V.s)	Campo_(kA/m)	Magnetizacion_(A/m)
0.000000e+00	-8.242353e-06	-7.837645e-09	-5.692737e+01	-5.122567e+02
1.000000e-08	-8.239684e-06	-7.836312e-09	-5.690894e+01	-5.120872e+02
2.000000e-08	-8.234237e-06	-7.830951e-09	-5.687131e+01	-5.118186e+02
3.000000e-08	-8.226135e-06	-7.822599e-09	-5.681536e+01	-5.114534e+02
4.000000e-08	-8.215165e-06	-7.814322e-09	-5.673959e+01	-5.109980e+02
5.000000e-08	-8.201196e-06	-7.805728e-09	-5.664311e+01	-5.104623e+02
6.000000e-08	-8.184363e-06	-7.796725e-09	-5.652685e+01	-5.098591e+02
7.000000e-08	-8.165008e-06	-7.787160e-09	-5.639317e+01	-5.092027e+02
8.000000e-08	-8.143283e-06	-7.780393e-09	-5.624313e+01	-5.085067e+02
9.000000e-08	-8.118625e-06	-7.780783e-09	-5.607282e+01	-5.077831e+02
1.000000e-07	-8.090668e-06	-7.782423e-09	-5.587973e+01	-5.070394e+02
1.100000e-07	-8.059572e-06	-7.764843e-09	-5.566496e+01	-5.062778e+02
1.200000e-07	-8.025474e-06	-7.734510e-09	-5.542945e+01	-5.054943e+02
1.300000e-07	-7.988566e-06	-7.704863e-09	-5.517454e+01	-5.046781e+02
1.400000e-07	-7.949156e-06	-7.676215e-09	-5.490235e+01	-5.038133e+02
1.500000e-07	-7.907422e-06	-7.646422e-09	-5.461411e+01	-5.028798e+02
1.600000e-07	-7.863260e-06	-7.644403e-09	-5.430909e+01	-5.018564e+02
1.700000e-07	-7.816277e-06	-7.666040e-09	-5.398459e+01	-5.007232e+02
1.800000e-07	-7.766352e-06	-7.616213e-09	-5.363978e+01	-4.994643e+02
1.900000e-07	-7.713525e-06	-7.588987e-09	-5.327492e+01	-4.980703e+02
2.000000e-07	-7.657742e-06	-7.576822e-09	-5.288964e+01	-4.965390e+02
2.100000e-07	-7.599152e-06	-7.518510e-09	-5.248498e+01	-4.948756e+02
2.200000e-07	-7.537900e-06	-7.497960e-09	-5.206193e+01	-4.930915e+02
2.300000e-07	-7.473956e-06	-7.495188e-09	-5.162029e+01	-4.912016e+02
2.400000e-07	-7.407211e-06	-7.467938e-09	-5.115930e+01	-4.892218e+02
2.500000e-07	-7.337641e-06	-7.408328e-09	-5.067880e+01	-4.871656e+02
2.600000e-07	-7.265168e-06	-7.389677e-09	-5.017826e+01	-4.850421e+02
2.700000e-07	-7.189728e-06	-7.376583e-09	-4.965722e+01	-4.828545e+02
2.800000e-07	-7.111367e-06	-7.311516e-09	-4.911600e+01	-4.806001e+02
2.900000e-07	-7.030252e-06	-7.270729e-09	-4.855577e+01	-4.782716e+02
3.000000e-07	-6.946741e-06	-7.256876e-09	-4.797898e+01	-4.758593e+02
3.100000e-07	-6.860856e-06	-7.219273e-09	-4.738580e+01	-4.733536e+02
3.200000e-07	-6.772439e-06	-7.174012e-09	-4.677513e+01	-4.707467e+02
3.300000e-07	-6.681574e-06	-7.139486e-09	-4.614756e+01	-4.680350e+02
3.400000e-07	-6.588343e-06	-7.090024e-09	-4.550364e+01	-4.652182e+02
3.500000e-07	-6.492682e-06	-7.022968e-09	-4.484294e+01	-4.622994e+02
3.600000e-07	-6.394624e-06	-6.981396e-09	-4.416568e+01	-4.592830e+02
3.700000e-07	-6.294313e-06	-6.953734e-09	-4.347286e+01	-4.561724e+02
3.800000e-07	-6.191666e-06	-6.912518e-09	-4.276391e+01	-4.529690e+02
3.900000e-07	-6.086702e-06	-6.856492e-09	-4.203896e+01	-4.496705e+02
4.000000e-07	-5.979664e-06	-6.796134e-09	-4.129968e+01	-4.462716e+02
4.100000e-07	-5.870607e-06	-6.735357e-09	-4.054646e+01	-4.427646e+02
4.200000e-07	-5.759421e-06	-6.671953e-09	-3.977853e+01	-4.391418e+02
4.300000e-07	-5.646023e-06	-6.622496e-09	-3.899533e+01	-4.353966e+02
4.400000e-07	-5.530472e-06	-6.575957e-09	-3.819725e+01	-4.315258e+02
4.500000e-07	-5.412823e-06	-6.515569e-09	-3.738469e+01	-4.275296e+02
4.600000e-07	-5.293156e-06	-6.448085e-09	-3.655818e+01	-4.234109e+02
4.700000e-07	-5.171640e-06	-6.384603e-09	-3.571891e+01	-4.191742e+02
4.800000e-07	-5.048264e-06	-6.318740e-09	-3.486679e+01	-4.148226e+02
4.900000e-07	-4.923009e-06	-6.248683e-09	-3.400169e+01	-4.103563e+02
5.000000e-07	-4.795987e-06	-6.177235e-09	-3.312439e+01	-4.057710e+02
5.100000e-07	-4.667270e-06	-6.101826e-09	-3.223539e+01	-4.010575e+02
5.200000e-07	-4.536836e-06	-6.028438e-09	-3.133452e+01	-3.962030e+02
5.300000e-07	-4.404701e-06	-5.955117e-09	-3.042190e+01	-3.911927e+02
5.400000e-07	-4.271002e-06	-5.874244e-09	-2.949849e+01	-3.860127e+02
5.500000e-07	-4.135735e-06	-5.783286e-09	-2.856423e+01	-3.806523e+02
5.600000e-07	-3.998814e-06	-5.696999e-09	-2.761856e+01	-3.751052e+02
5.700000e-07	-3.860280e-06	-5.618045e-09	-2.666176e+01	-3.693696e+02
5.800000e-07	-3.720171e-06	-5.531893e-09	-2.569406e+01	-3.634470e+02
5.900000e-07	-3.578498e-06	-5.441185e-09	-2.471557e+01	-3.573398e+02
6.000000e-07	-3.435342e-06	-5.349601e-09	-2.372684e+01	-3.510485e+02
6.100000e-07	-3.290970e-06	-5.249094e-09	-2.272971e+01	-3.445698e+02
6.200000e-07	-3.145461e-06	-5.137496e-09	-2.172472e+01	-3.378949e+02
6.300000e-07	-2.998730e-06	-5.027871e-09	-2.071130e+01	-3.310103e+02
6.400000e-07	-2.850951e-06	-4.923394e-09	-1.969063e+01	-3.238992e+02
6.500000e-07	-2.702250e-06	-4.812618e-09	-1.866360e+01	-3.165444e+02
6.600000e-07	-2.552656e-06	-4.691742e-09	-1.763040e+01	-3.089307e+02
6.700000e-07	-2.402178e-06	-4.569643e-09	-1.659110e+01	-3.010469e+02
6.800000e-07	-2.250850e-06	-4.448561e-09	-1.554592e+01	-2.928865e+02
6.900000e-07	-2.098735e-06	-4.321376e-09	-1.449531e+01	-2.844462e+02
7.000000e-07	-1.945888e-06	-4.188548e-09	-1.343965e+01	-2.757231e+02
7.100000e-07	-1.792331e-06	-4.053160e-09	-1.237908e+01	-2.667117e+02
7.200000e-07	-1.638111e-06	-3.910861e-09	-1.131392e+01	-2.574008e+02
7.300000e-07	-1.483392e-06	-3.759864e-09	-1.024533e+01	-2.477720e+02
7.400000e-07	-1.328216e-06	-3.604028e-09	-9.173574e+00	-2.378000e+02
7.500000e-07	-1.172558e-06	-3.442196e-09	-8.098491e+00	-2.274555e+02
7.600000e-07	-1.016496e-06	-3.276405e-09	-7.020620e+00	-2.167090e+02
7.700000e-07	-8.600104e-07	-3.107506e-09	-5.939825e+00	-2.055355e+02
7.800000e-07	-7.031616e-07	-2.932753e-09	-4.856519e+00	-1.939177e+02
7.900000e-07	-5.461248e-07	-2.751155e-09	-3.771914e+00	-1.818473e+02
8.000000e-07	-3.889431e-07	-2.561320e-09	-2.686309e+00	-1.693225e+02
8.100000e-07	-2.315785e-07	-2.363749e-09	-1.599441e+00	-1.563428e+02
8.200000e-07	-7.406181e-08	-2.158988e-09	-5.115219e-01	-1.429017e+02
8.300000e-07	8.348819e-08	-1.945229e-09	5.766270e-01	-1.289789e+02
8.400000e-07	2.409890e-07	-1.723346e-09	1.664436e+00	-1.145345e+02
8.500000e-07	3.984400e-07	-1.493244e-09	2.751901e+00	-9.950760e+01
8.600000e-07	5.558417e-07	-1.252385e-09	3.839026e+00	-8.382013e+01
8.700000e-07	7.131343e-07	-1.001834e-09	4.925397e+00	-6.738702e+01
8.800000e-07	8.702001e-07	-7.415159e-10	6.010201e+00	-5.013120e+01
8.900000e-07	1.026974e-06	-4.681942e-10	7.092992e+00	-3.200143e+01
9.000000e-07	1.183415e-06	-1.799427e-10	8.173478e+00	-1.298972e+01
9.100000e-07	1.339389e-06	1.196979e-10	9.250744e+00	6.854941e+00
9.200000e-07	1.494787e-06	4.309353e-10	1.032403e+01	2.741966e+01
9.300000e-07	1.649637e-06	7.556654e-10	1.139353e+01	4.852932e+01
9.400000e-07	1.803890e-06	1.089189e-09	1.245890e+01	6.995714e+01
9.500000e-07	1.957422e-06	1.422952e-09	1.351931e+01	9.144299e+01
9.600000e-07	2.110252e-06	1.748166e-09	1.457486e+01	1.127165e+02
9.700000e-07	2.262334e-06	2.062352e-09	1.562524e+01	1.335217e+02
9.800000e-07	2.413575e-06	2.365034e-09	1.666981e+01	1.536388e+02
9.900000e-07	2.563893e-06	2.654005e-09	1.770801e+01	1.729003e+02
1.000000e-06	2.713200e-06	2.927836e-09	1.873923e+01	1.911995e+02
1.010000e-06	2.861485e-06	3.187168e-09	1.976339e+01	2.084904e+02
1.020000e-06	3.008684e-06	3.433982e-09	2.078005e+01	2.247797e+02
1.030000e-06	3.154789e-06	3.669845e-09	2.178915e+01	2.401138e+02
1.040000e-06	3.299764e-06	3.893149e-09	2.279045e+01	2.545633e+02
1.050000e-06	3.443482e-06	4.101402e-09	2.378306e+01	2.682075e+02
1.060000e-06	3.585871e-06	4.297267e-09	2.476650e+01	2.811220e+02
1.070000e-06	3.726898e-06	4.480962e-09	2.574052e+01	2.933709e+02
1.080000e-06	3.866489e-06	4.656079e-09	2.670464e+01	3.050029e+02
1.090000e-06	4.004600e-06	4.822434e-09	2.765853e+01	3.160524e+02
1.100000e-06	4.141240e-06	4.979235e-09	2.860226e+01	3.265435e+02
1.110000e-06	4.276341e-06	5.130146e-09	2.953536e+01	3.364941e+02
1.120000e-06	4.409920e-06	5.276118e-09	3.045795e+01	3.459212e+02
1.130000e-06	4.541980e-06	5.416809e-09	3.137004e+01	3.548441e+02
1.140000e-06	4.672379e-06	5.548198e-09	3.227067e+01	3.632856e+02
1.150000e-06	4.801133e-06	5.669533e-09	3.315993e+01	3.712717e+02
1.160000e-06	4.928219e-06	5.784039e-09	3.403767e+01	3.788309e+02
1.170000e-06	5.053621e-06	5.892177e-09	3.490379e+01	3.859914e+02
1.180000e-06	5.177299e-06	5.991695e-09	3.575800e+01	3.927808e+02
1.190000e-06	5.299162e-06	6.083188e-09	3.659967e+01	3.992246e+02
1.200000e-06	5.419140e-06	6.170519e-09	3.742832e+01	4.053469e+02
1.210000e-06	5.537078e-06	6.257216e-09	3.824287e+01	4.111709e+02
1.220000e-06	5.652892e-06	6.344434e-09	3.904277e+01	4.167198e+02
1.230000e-06	5.766521e-06	6.429668e-09	3.982757e+01	4.220173e+02
1.240000e-06	5.877909e-06	6.510189e-09	4.059689e+01	4.270878e+02
1.250000e-06	5.987198e-06	6.585921e-09	4.135172e+01	4.319551e+02
1.260000e-06	6.094435e-06	6.656074e-09	4.209237e+01	4.366410e+02
1.270000e-06	6.199425e-06	6.723917e-09	4.281750e+01	4.411636e+02
1.280000e-06	6.302112e-06	6.790504e-09	4.352673e+01	4.455363e+02
1.290000e-06	6.402478e-06	6.854363e-09	4.421993e+01	4.497662e+02
1.300000e-06	6.500445e-06	6.915032e-09	4.489655e+01	4.538551e+02
1.310000e-06	6.595910e-06	6.972827e-09	4.555590e+01	4.578001e+02
1.320000e-06	6.688988e-06	7.029110e-09	4.619876e+01	4.615959e+02
1.330000e-06	6.779775e-06	7.083960e-09	4.682580e+01	4.652360e+02
1.340000e-06	6.868131e-06	7.137013e-09	4.743605e+01	4.687156e+02
1.350000e-06	6.954071e-06	7.186198e-09	4.802961e+01	4.720322e+02
1.360000e-06	7.037599e-06	7.232325e-09	4.860651e+01	4.751864e+02
1.370000e-06	7.118580e-06	7.276941e-09	4.916582e+01	4.781818e+02
1.380000e-06	7.196979e-06	7.319804e-09	4.970729e+01	4.810239e+02
1.390000e-06	7.272696e-06	7.358773e-09	5.023025e+01	4.837192e+02
1.400000e-06	7.345658e-06	7.393689e-09	5.073418e+01	4.862738e+02
1.410000e-06	7.416001e-06	7.427609e-09	5.122001e+01	4.886931e+02
1.420000e-06	7.483771e-06	7.460589e-09	5.168808e+01	4.909805e+02
1.430000e-06	7.548832e-06	7.492972e-09	5.213743e+01	4.931385e+02
1.440000e-06	7.611239e-06	7.524647e-09	5.256846e+01	4.951683e+02
1.450000e-06	7.671111e-06	7.555117e-09	5.298198e+01	4.970708e+02
1.460000e-06	7.728335e-06	7.582717e-09	5.337721e+01	4.988470e+02
1.470000e-06	7.782724e-06	7.605128e-09	5.375286e+01	5.004986e+02
1.480000e-06	7.834028e-06	7.624180e-09	5.410720e+01	5.020278e+02
1.490000e-06	7.882190e-06	7.643906e-09	5.443984e+01	5.034376e+02
1.500000e-06	7.927518e-06	7.664148e-09	5.475290e+01	5.047315e+02
1.510000e-06	7.970095e-06	7.682731e-09	5.504697e+01	5.059133e+02
1.520000e-06	8.009731e-06	7.698937e-09	5.532072e+01	5.069872e+02
1.530000e-06	8.046503e-06	7.713216e-09	5.557469e+01	5.079578e+02
1.540000e-06	8.080439e-06	7.726721e-09	5.580908e+01	5.088297e+02
1.550000e-06	8.111464e-06	7.739556e-09	5.602336e+01	5.096081e+02
1.560000e-06	8.139703e-06	7.750829e-09	5.621840e+01	5.102982e+02
1.570000e-06	8.164997e-06	7.759993e-09	5.639309e+01	5.109051e+02
1.580000e-06	8.187260e-06	7.766519e-09	5.654686e+01	5.114333e+02
1.590000e-06	8.206675e-06	7.773455e-09	5.668095e+01	5.118861e+02
1.600000e-06	8.223124e-06	7.781917e-09	5.679456e+01	5.122650e+02
1.610000e-06	8.236471e-06	7.789264e-09	5.688674e+01	5.125696e+02
1.620000e-06	8.246601e-06	7.794620e-09	5.695671e+01	5.127971e+02
1.630000e-06	8.253586e-06	7.797276e-09	5.700495e+01	5.129432e+02
1.640000e-06	8.257696e-06	7.799256e-09	5.703334e+01	5.130022e+02
1.650000e-06	8.258878e-06	7.800650e-09	5.704150e+01	5.129686e+02
1.660000e-06	8.257189e-06	7.798340e-09	5.702984e+01	5.128380e+02
1.670000e-06	8.252835e-06	7.793142e-09	5.699977e+01	5.126081e+02
1.680000e-06	8.245671e-06	7.787487e-09	5.695028e+01	5.122802e+02
1.690000e-06	8.235750e-06	7.780860e-09	5.688176e+01	5.118591e+02
1.700000e-06	8.223033e-06	7.775087e-09	5.679393e+01	5.113535e+02
1.710000e-06	8.207429e-06	7.771332e-09	5.668616e+01	5.107750e+02
1.720000e-06	8.189284e-06	7.767451e-09	5.656084e+01	5.101377e+02
1.730000e-06	8.168733e-06	7.750991e-09	5.641890e+01	5.094556e+02
1.740000e-06	8.145330e-06	7.722182e-09	5.625726e+01	5.087416e+02
1.750000e-06	8.118363e-06	7.701241e-09	5.607101e+01	5.080051e+02
1.760000e-06	8.087549e-06	7.696336e-09	5.585819e+01	5.072506e+02
1.770000e-06	8.053585e-06	7.692072e-09	5.562361e+01	5.064764e+02
1.780000e-06	8.017287e-06	7.693643e-09	5.537291e+01	5.056746e+02
1.790000e-06	7.978670e-06	7.708714e-09	5.510619e+01	5.048310e+02
1.800000e-06	7.937914e-06	7.707650e-09	5.482470e+01	5.039269e+02
1.810000e-06	7.895008e-06	7.657524e-09	5.452837e+01	5.029413e+02
1.820000e-06	7.849274e-06	7.645412e-09	5.421249e+01	5.018532e+02
1.830000e-06	7.800735e-06	7.639314e-09	5.387725e+01	5.006451e+02
1.840000e-06	7.749242e-06	7.615394e-09	5.352160e+01	4.993048e+02
1.850000e-06	7.694546e-06	7.613356e-09	5.314384e+01	4.978271e+02
1.860000e-06	7.637101e-06	7.596565e-09	5.274708e+01	4.962144e+02
1.870000e-06	7.576859e-06	7.559541e-09	5.233101e+01	4.944760e+02
1.880000e-06	7.513835e-06	7.488317e-09	5.189572e+01	4.926257e+02
1.890000e-06	7.448026e-06	7.479711e-09	5.144120e+01	4.906793e+02
1.900000e-06	7.379216e-06	7.476155e-09	5.096595e+01	4.886516e+02
1.910000e-06	7.307540e-06	7.413504e-09	5.047091e+01	4.865537e+02
1.920000e-06	7.233101e-06	7.403188e-09	4.995678e+01	4.843912e+02
1.930000e-06	7.155863e-06	7.384462e-09	4.942332e+01	4.821636e+02
1.940000e-06	7.075790e-06	7.330532e-09	4.887028e+01	4.798652e+02
1.950000e-06	6.993079e-06	7.288059e-09	4.829902e+01	4.774869e+02
1.960000e-06	6.907778e-06	7.247320e-09	4.770987e+01	4.750189e+02
1.970000e-06	6.819866e-06	7.202181e-09	4.710270e+01	4.724523e+02
1.980000e-06	6.729528e-06	7.153970e-09	4.647876e+01	4.697819e+02
1.990000e-06	6.636815e-06	7.134990e-09	4.583842e+01	4.670060e+02
2.000000e-06	6.541759e-06	7.110046e-09	4.518190e+01	4.641268e+02
2.010000e-06	6.444429e-06	7.058854e-09	4.450966e+01	4.611480e+02
2.020000e-06	6.344863e-06	6.990593e-09	4.382200e+01	4.580740e+02
2.030000e-06	6.242929e-06	6.932360e-09	4.311797e+01	4.549071e+02
2.040000e-06	6.138644e-06	6.889905e-09	4.239771e+01	4.516463e+02
2.050000e-06	6.032228e-06	6.846112e-09	4.166273e+01	4.482876e+02
2.060000e-06	5.923815e-06	6.811000e-09	4.091395e+01	4.448239e+02
2.070000e-06	5.813378e-06	6.759889e-09	4.015120e+01	4.412473e+02
2.080000e-06	5.700829e-06	6.686536e-09	3.937386e+01	4.375507e+02
2.090000e-06	5.586094e-06	6.614149e-09	3.858141e+01	4.337293e+02
2.100000e-06	5.469092e-06	6.555956e-09	3.777332e+01	4.297820e+02
2.110000e-06	5.349991e-06	6.503713e-09	3.695073e+01	4.257109e+02
2.120000e-06	5.228981e-06	6.444395e-09	3.611495e+01	4.215200e+02
2.130000e-06	5.106098e-06	6.376021e-09	3.526623e+01	4.172131e+02
2.140000e-06	4.981345e-06	6.304664e-09	3.440460e+01	4.127920e+02
2.150000e-06	4.854790e-06	6.235176e-09	3.353052e+01	4.082542e+02
2.160000e-06	4.726496e-06	6.167203e-09	3.264444e+01	4.035923e+02
2.170000e-06	4.596516e-06	6.098415e-09	3.174670e+01	3.987948e+02
2.180000e-06	4.464887e-06	6.020947e-09	3.083759e+01	3.938474e+02
2.190000e-06	4.331584e-06	5.944498e-09	2.991691e+01	3.887355e+02
2.200000e-06	4.196697e-06	5.867152e-09	2.898528e+01	3.834469e+02
2.210000e-06	4.060213e-06	5.784152e-09	2.804263e+01	3.779735e+02
2.220000e-06	3.922118e-06	5.696760e-09	2.708885e+01	3.723118e+02
2.230000e-06	3.782457e-06	5.601837e-09	2.612425e+01	3.664622e+02
2.240000e-06	3.641339e-06	5.499966e-09	2.514960e+01	3.604272e+02
2.250000e-06	3.498845e-06	5.402382e-09	2.416544e+01	3.542083e+02
2.260000e-06	3.355044e-06	5.315735e-09	2.317225e+01	3.478039e+02
2.270000e-06	3.209986e-06	5.229044e-09	2.217037e+01	3.412073e+02
2.280000e-06	3.063688e-06	5.127823e-09	2.115994e+01	3.344068e+02
2.290000e-06	2.916203e-06	5.010242e-09	2.014131e+01	3.273867e+02
2.300000e-06	2.767683e-06	4.891183e-09	1.911552e+01	3.201295e+02
2.310000e-06	2.618223e-06	4.776352e-09	1.808325e+01	3.126190e+02
2.320000e-06	2.467835e-06	4.662460e-09	1.704457e+01	3.048422e+02
2.330000e-06	2.316717e-06	4.546161e-09	1.600085e+01	2.967910e+02
2.340000e-06	2.164899e-06	4.421021e-09	1.495228e+01	2.884608e+02
2.350000e-06	2.012301e-06	4.287075e-09	1.389834e+01	2.798491e+02
2.360000e-06	1.858975e-06	4.149533e-09	1.283937e+01	2.709518e+02
2.370000e-06	1.705018e-06	4.011924e-09	1.177603e+01	2.617603e+02
2.380000e-06	1.550452e-06	3.871385e-09	1.070849e+01	2.522589e+02
2.390000e-06	1.395319e-06	3.721453e-09	9.637036e+00	2.424250e+02
2.400000e-06	1.239722e-06	3.562013e-09	8.562373e+00	2.322304e+02
2.410000e-06	1.083743e-06	3.399950e-09	7.485077e+00	2.216450e+02
2.420000e-06	9.274373e-07	3.235502e-09	6.405521e+00	2.106417e+02
2.430000e-06	7.708312e-07	3.062596e-09	5.323892e+00	1.991998e+02
2.440000e-06	6.139657e-07	2.880193e-09	4.240470e+00	1.873076e+02
2.450000e-06	4.569175e-07	2.689344e-09	3.155787e+00	1.749611e+02
2.460000e-06	2.996921e-07	2.495209e-09	2.069880e+00	1.621603e+02
2.470000e-06	1.423001e-07	2.297253e-09	9.828226e-01	1.489019e+02
2.480000e-06	-1.518249e-08	2.090207e-09	-1.048608e-01	1.351718e+02
2.490000e-06	-1.726567e-07	1.873494e-09	-1.192486e+00	1.209384e+02
2.500000e-06	-3.300531e-07	1.643463e-09	-2.279574e+00	1.061487e+02
2.510000e-06	-4.874039e-07	1.402319e-09	-3.366347e+00	9.073069e+01
2.520000e-06	-6.446341e-07	1.154019e-09	-4.452288e+00	7.460041e+01
2.530000e-06	-8.016174e-07	8.957996e-10	-5.536522e+00	5.767565e+01
2.540000e-06	-9.583621e-07	6.260809e-10	-6.619109e+00	3.989282e+01
2.550000e-06	-1.114798e-06	3.436952e-10	-7.699561e+00	2.122503e+01
2.560000e-06	-1.270810e-06	4.743768e-11	-8.777091e+00	1.697631e+00
2.570000e-06	-1.426325e-06	-2.616089e-10	-9.851184e+00	-1.860190e+01
2.580000e-06	-1.581341e-06	-5.792190e-10	-1.092183e+01	-3.952210e+01
2.590000e-06	-1.735792e-06	-9.032359e-10	-1.198858e+01	-6.085468e+01
2.600000e-06	-1.889586e-06	-1.232243e-09	-1.305078e+01	-8.235006e+01
2.610000e-06	-2.042720e-06	-1.561587e-09	-1.410844e+01	-1.037390e+02
2.620000e-06	-2.195044e-06	-1.885660e-09	-1.516049e+01	-1.247569e+02
2.630000e-06	-2.346442e-06	-2.199314e-09	-1.620614e+01	-1.451676e+02
2.640000e-06	-2.496966e-06	-2.498197e-09	-1.724577e+01	-1.647814e+02
2.650000e-06	-2.646565e-06	-2.782979e-09	-1.827900e+01	-1.834676e+02
2.660000e-06	-2.795200e-06	-3.054031e-09	-1.930558e+01	-2.011566e+02
2.670000e-06	-2.942761e-06	-3.308149e-09	-2.032474e+01	-2.178358e+02
2.680000e-06	-3.089176e-06	-3.546921e-09	-2.133598e+01	-2.335378e+02
2.690000e-06	-3.234554e-06	-3.773912e-09	-2.234006e+01	-2.483256e+02
2.700000e-06	-3.378725e-06	-3.991154e-09	-2.333580e+01	-2.622768e+02
2.710000e-06	-3.521554e-06	-4.198868e-09	-2.432228e+01	-2.754697e+02
2.720000e-06	-3.663019e-06	-4.394470e-09	-2.529933e+01	-2.879736e+02
2.730000e-06	-3.803076e-06	-4.577682e-09	-2.626667e+01	-2.998431e+02
2.740000e-06	-3.941658e-06	-4.746977e-09	-2.722381e+01	-3.111183e+02
2.750000e-06	-4.078776e-06	-4.905807e-09	-2.817084e+01	-3.218265e+02
2.760000e-06	-4.214413e-06	-5.058941e-09	-2.910764e+01	-3.319875e+02
2.770000e-06	-4.348566e-06	-5.204581e-09	-3.003419e+01	-3.416183e+02
2.780000e-06	-4.481263e-06	-5.341833e-09	-3.095069e+01	-3.507369e+02
2.790000e-06	-4.612406e-06	-5.472049e-09	-3.185646e+01	-3.593646e+02
2.800000e-06	-4.742000e-06	-5.598741e-09	-3.275152e+01	-3.675265e+02
2.810000e-06	-4.869932e-06	-5.720449e-09	-3.363510e+01	-3.752500e+02
2.820000e-06	-4.996091e-06	-5.836523e-09	-3.450645e+01	-3.825639e+02
2.830000e-06	-5.120488e-06	-5.947940e-09	-3.536562e+01	-3.894961e+02
2.840000e-06	-5.243154e-06	-6.051461e-09	-3.621283e+01	-3.960728e+02
2.850000e-06	-5.363986e-06	-6.145503e-09	-3.704739e+01	-4.023188e+02
2.860000e-06	-5.482721e-06	-6.233750e-09	-3.786745e+01	-4.082573e+02
2.870000e-06	-5.599258e-06	-6.318950e-09	-3.867234e+01	-4.139115e+02
2.880000e-06	-5.713482e-06	-6.400807e-09	-3.946125e+01	-4.193051e+02
2.890000e-06	-5.825381e-06	-6.478109e-09	-4.023410e+01	-4.244620e+02
2.900000e-06	-5.935115e-06	-6.552764e-09	-4.099199e+01	-4.294064e+02
2.910000e-06	-6.042779e-06	-6.628064e-09	-4.173560e+01	-4.341612e+02
2.920000e-06	-6.148359e-06	-6.701622e-09	-4.246480e+01	-4.387463e+02
2.930000e-06	-6.251651e-06	-6.770553e-09	-4.317821e+01	-4.431767e+02
2.940000e-06	-6.352503e-06	-6.834996e-09	-4.387476e+01	-4.474623e+02
