# Temperatura_=_56.8
# Concentracion g/m^3_=_15000.0
# C_Vs_to_Am_M_A/Vsm_=_65563218390.804596
# pendiente_HvsI_1/m_=_3716.3
# ordenada_HvsI_A/m_=_1297.0
# frecuencia_Hz_=_302329.1606368829

Tiempo_(s)	Campo_(V.s)	Magnetizacion_(V.s)	Campo_(kA/m)	Magnetizacion_(A/m)
0.000000e+00	-8.278908e-06	-7.718438e-09	-5.692109e+01	-5.047372e+02
1.000000e-08	-8.276114e-06	-7.715783e-09	-5.690187e+01	-5.045950e+02
2.000000e-08	-8.270629e-06	-7.711950e-09	-5.686417e+01	-5.043437e+02
3.000000e-08	-8.262438e-06	-7.705368e-09	-5.680785e+01	-5.039926e+02
4.000000e-08	-8.251271e-06	-7.697327e-09	-5.673107e+01	-5.035572e+02
5.000000e-08	-8.237079e-06	-7.689206e-09	-5.663349e+01	-5.030560e+02
6.000000e-08	-8.220072e-06	-7.682043e-09	-5.651656e+01	-5.025052e+02
7.000000e-08	-8.200634e-06	-7.674954e-09	-5.638292e+01	-5.019156e+02
8.000000e-08	-8.178745e-06	-7.677455e-09	-5.623242e+01	-5.012906e+02
9.000000e-08	-8.153852e-06	-7.665993e-09	-5.606127e+01	-5.006266e+02
1.000000e-07	-8.125634e-06	-7.660350e-09	-5.586726e+01	-4.999152e+02
1.100000e-07	-8.094298e-06	-7.653619e-09	-5.565181e+01	-4.991467e+02
1.200000e-07	-8.060027e-06	-7.626393e-09	-5.541618e+01	-4.983137e+02
1.300000e-07	-8.022942e-06	-7.598312e-09	-5.516121e+01	-4.974129e+02
1.400000e-07	-7.983374e-06	-7.572749e-09	-5.488916e+01	-4.964459e+02
1.500000e-07	-7.941425e-06	-7.550921e-09	-5.460074e+01	-4.954172e+02
1.600000e-07	-7.896974e-06	-7.514812e-09	-5.429512e+01	-4.943314e+02
1.700000e-07	-7.849717e-06	-7.529300e-09	-5.397021e+01	-4.931897e+02
1.800000e-07	-7.799448e-06	-7.520257e-09	-5.362459e+01	-4.919872e+02
1.900000e-07	-7.746249e-06	-7.468045e-09	-5.325882e+01	-4.907119e+02
2.000000e-07	-7.690117e-06	-7.476112e-09	-5.287289e+01	-4.893466e+02
2.100000e-07	-7.631192e-06	-7.441742e-09	-5.246776e+01	-4.878716e+02
2.200000e-07	-7.569656e-06	-7.409069e-09	-5.204467e+01	-4.862698e+02
2.300000e-07	-7.505360e-06	-7.400396e-09	-5.160261e+01	-4.845311e+02
2.400000e-07	-7.438210e-06	-7.345775e-09	-5.114092e+01	-4.826550e+02
2.500000e-07	-7.368281e-06	-7.303628e-09	-5.066013e+01	-4.806513e+02
2.600000e-07	-7.295419e-06	-7.282099e-09	-5.015917e+01	-4.785382e+02
2.700000e-07	-7.219585e-06	-7.271413e-09	-4.963778e+01	-4.763377e+02
2.800000e-07	-7.140891e-06	-7.213472e-09	-4.909672e+01	-4.740700e+02
2.900000e-07	-7.059451e-06	-7.178327e-09	-4.853679e+01	-4.717487e+02
3.000000e-07	-6.975551e-06	-7.162836e-09	-4.795994e+01	-4.693769e+02
3.100000e-07	-6.889288e-06	-7.110490e-09	-4.736685e+01	-4.669471e+02
3.200000e-07	-6.800476e-06	-7.081147e-09	-4.675622e+01	-4.644422e+02
3.300000e-07	-6.709155e-06	-7.050001e-09	-4.612835e+01	-4.618411e+02
3.400000e-07	-6.615479e-06	-7.003813e-09	-4.548429e+01	-4.591230e+02
3.500000e-07	-6.519326e-06	-6.941028e-09	-4.482319e+01	-4.562734e+02
3.600000e-07	-6.420744e-06	-6.901830e-09	-4.414540e+01	-4.532867e+02
3.700000e-07	-6.319894e-06	-6.867053e-09	-4.345202e+01	-4.501674e+02
3.800000e-07	-6.216770e-06	-6.815129e-09	-4.274299e+01	-4.469275e+02
3.900000e-07	-6.111361e-06	-6.761390e-09	-4.201826e+01	-4.435833e+02
4.000000e-07	-6.003800e-06	-6.705286e-09	-4.127873e+01	-4.401495e+02
4.100000e-07	-5.894243e-06	-6.651165e-09	-4.052548e+01	-4.366356e+02
4.200000e-07	-5.782557e-06	-6.588190e-09	-3.975759e+01	-4.330430e+02
4.300000e-07	-5.668593e-06	-6.539904e-09	-3.897404e+01	-4.293647e+02
4.400000e-07	-5.552461e-06	-6.489813e-09	-3.817558e+01	-4.255874e+02
4.500000e-07	-5.434255e-06	-6.427720e-09	-3.736286e+01	-4.216953e+02
4.600000e-07	-5.313975e-06	-6.360230e-09	-3.653589e+01	-4.176741e+02
4.700000e-07	-5.191800e-06	-6.302645e-09	-3.569588e+01	-4.135144e+02
4.800000e-07	-5.067823e-06	-6.240290e-09	-3.484348e+01	-4.092131e+02
4.900000e-07	-4.942076e-06	-6.169044e-09	-3.397892e+01	-4.047729e+02
5.000000e-07	-4.814585e-06	-6.097114e-09	-3.310236e+01	-4.001995e+02
5.100000e-07	-4.685290e-06	-6.021956e-09	-3.221340e+01	-3.954984e+02
5.200000e-07	-4.554173e-06	-5.950211e-09	-3.131192e+01	-3.906709e+02
5.300000e-07	-4.421309e-06	-5.875299e-09	-3.039842e+01	-3.857120e+02
5.400000e-07	-4.286965e-06	-5.796930e-09	-2.947475e+01	-3.806102e+02
5.500000e-07	-4.151076e-06	-5.709388e-09	-2.854045e+01	-3.753487e+02
5.600000e-07	-4.013481e-06	-5.626126e-09	-2.759442e+01	-3.699087e+02
5.700000e-07	-3.874316e-06	-5.545102e-09	-2.663761e+01	-3.642730e+02
5.800000e-07	-3.733509e-06	-5.458193e-09	-2.566949e+01	-3.584292e+02
5.900000e-07	-3.591087e-06	-5.369210e-09	-2.469028e+01	-3.523716e+02
6.000000e-07	-3.447262e-06	-5.278606e-09	-2.370143e+01	-3.461005e+02
6.100000e-07	-3.302184e-06	-5.178981e-09	-2.270395e+01	-3.396209e+02
6.200000e-07	-3.155934e-06	-5.067577e-09	-2.169842e+01	-3.329386e+02
6.300000e-07	-3.008560e-06	-4.957582e-09	-2.068516e+01	-3.260574e+02
6.400000e-07	-2.860150e-06	-4.850514e-09	-1.966477e+01	-3.189760e+02
6.500000e-07	-2.710764e-06	-4.737223e-09	-1.863768e+01	-3.116874e+02
6.600000e-07	-2.560466e-06	-4.615788e-09	-1.760432e+01	-3.041788e+02
6.700000e-07	-2.409250e-06	-4.498062e-09	-1.656464e+01	-2.964341e+02
6.800000e-07	-2.257108e-06	-4.381838e-09	-1.551860e+01	-2.884354e+02
6.900000e-07	-2.104144e-06	-4.259101e-09	-1.446690e+01	-2.801657e+02
7.000000e-07	-1.950455e-06	-4.129471e-09	-1.341023e+01	-2.716096e+02
7.100000e-07	-1.796101e-06	-3.996015e-09	-1.234898e+01	-2.627534e+02
7.200000e-07	-1.641183e-06	-3.854701e-09	-1.128385e+01	-2.535836e+02
7.300000e-07	-1.485775e-06	-3.704419e-09	-1.021535e+01	-2.440851e+02
7.400000e-07	-1.329883e-06	-3.550954e-09	-9.143520e+00	-2.342402e+02
7.500000e-07	-1.173483e-06	-3.390736e-09	-8.068202e+00	-2.240283e+02
7.600000e-07	-1.016597e-06	-3.225277e-09	-6.989549e+00	-2.134273e+02
7.700000e-07	-8.593671e-07	-3.056126e-09	-5.908522e+00	-2.024157e+02
7.800000e-07	-7.018986e-07	-2.886205e-09	-4.825857e+00	-1.909753e+02
7.900000e-07	-5.442195e-07	-2.708757e-09	-3.741745e+00	-1.790929e+02
8.000000e-07	-3.863820e-07	-2.520884e-09	-2.656544e+00	-1.667595e+02
8.100000e-07	-2.284244e-07	-2.326361e-09	-1.570517e+00	-1.539679e+02
8.200000e-07	-7.035609e-08	-2.123461e-09	-4.837287e-01	-1.407071e+02
8.300000e-07	8.778807e-08	-1.912006e-09	6.035811e-01	-1.269561e+02
8.400000e-07	2.459544e-07	-1.692695e-09	1.691043e+00	-1.126781e+02
8.500000e-07	4.040756e-07	-1.465969e-09	2.778195e+00	-9.781848e+01
8.600000e-07	5.620862e-07	-1.227518e-09	3.864587e+00	-8.230639e+01
8.700000e-07	7.199116e-07	-9.794082e-10	4.949705e+00	-6.606330e+01
8.800000e-07	8.775450e-07	-7.220430e-10	6.033503e+00	-4.901631e+01
8.900000e-07	1.034949e-06	-4.527564e-10	7.115722e+00	-3.111529e+01
9.000000e-07	1.192061e-06	-1.686364e-10	8.195939e+00	-1.235065e+01
9.100000e-07	1.348763e-06	1.277976e-10	9.273333e+00	7.232016e+00
9.200000e-07	1.504959e-06	4.342981e-10	1.034725e+01	2.752353e+01
9.300000e-07	1.660581e-06	7.539948e-10	1.141721e+01	4.835169e+01
9.400000e-07	1.815543e-06	1.081950e-09	1.248265e+01	6.949134e+01
9.500000e-07	1.969849e-06	1.410181e-09	1.354356e+01	9.068291e+01
9.600000e-07	2.123457e-06	1.731225e-09	1.459969e+01	1.116566e+02
9.700000e-07	2.276316e-06	2.041881e-09	1.565066e+01	1.321579e+02
9.800000e-07	2.428339e-06	2.341059e-09	1.669589e+01	1.519708e+02
9.900000e-07	2.579328e-06	2.625754e-09	1.773400e+01	1.709340e+02
1.000000e-06	2.729208e-06	2.894725e-09	1.876449e+01	1.889489e+02
1.010000e-06	2.878073e-06	3.149294e-09	1.978800e+01	2.059774e+02
1.020000e-06	3.025812e-06	3.392241e-09	2.080377e+01	2.220326e+02
1.030000e-06	3.172424e-06	3.624076e-09	2.181179e+01	2.371637e+02
1.040000e-06	3.318007e-06	3.844040e-09	2.281274e+01	2.514392e+02
1.050000e-06	3.462374e-06	4.051012e-09	2.380532e+01	2.649317e+02
1.060000e-06	3.605429e-06	4.245890e-09	2.478889e+01	2.777070e+02
1.070000e-06	3.747084e-06	4.427860e-09	2.576283e+01	2.898185e+02
1.080000e-06	3.887288e-06	4.600608e-09	2.672679e+01	3.013061e+02
1.090000e-06	4.026025e-06	4.765163e-09	2.768067e+01	3.122000e+02
1.100000e-06	4.163208e-06	4.921276e-09	2.862386e+01	3.225252e+02
1.110000e-06	4.298834e-06	5.069826e-09	2.955635e+01	3.323067e+02
1.120000e-06	4.432888e-06	5.211668e-09	3.047803e+01	3.415718e+02
1.130000e-06	4.565383e-06	5.349131e-09	3.138899e+01	3.503508e+02
1.140000e-06	4.696318e-06	5.478255e-09	3.228922e+01	3.586754e+02
1.150000e-06	4.825645e-06	5.597961e-09	3.317841e+01	3.665761e+02
1.160000e-06	4.953282e-06	5.710064e-09	3.405597e+01	3.740790e+02
1.170000e-06	5.079175e-06	5.816375e-09	3.492153e+01	3.812053e+02
1.180000e-06	5.203294e-06	5.916701e-09	3.577491e+01	3.879712e+02
1.190000e-06	5.325633e-06	6.010679e-09	3.661604e+01	3.943905e+02
1.200000e-06	5.446118e-06	6.100052e-09	3.744443e+01	4.004780e+02
1.210000e-06	5.564581e-06	6.187436e-09	3.825891e+01	4.062522e+02
1.220000e-06	5.680931e-06	6.272634e-09	3.905887e+01	4.117373e+02
1.230000e-06	5.795094e-06	6.353480e-09	3.984379e+01	4.169631e+02
1.240000e-06	5.906982e-06	6.430161e-09	4.061307e+01	4.219622e+02
1.250000e-06	6.016684e-06	6.503935e-09	4.136731e+01	4.267662e+02
1.260000e-06	6.124284e-06	6.574634e-09	4.210711e+01	4.314019e+02
1.270000e-06	6.229682e-06	6.643628e-09	4.283177e+01	4.358871e+02
1.280000e-06	6.332797e-06	6.710699e-09	4.354073e+01	4.402295e+02
1.290000e-06	6.433552e-06	6.774419e-09	4.423346e+01	4.444272e+02
1.300000e-06	6.531897e-06	6.833751e-09	4.490963e+01	4.484715e+02
1.310000e-06	6.627739e-06	6.890172e-09	4.556858e+01	4.523516e+02
1.320000e-06	6.721147e-06	6.944379e-09	4.621080e+01	4.560587e+02
1.330000e-06	6.812266e-06	6.996351e-09	4.683728e+01	4.595892e+02
1.340000e-06	6.900949e-06	7.045918e-09	4.744702e+01	4.629466e+02
1.350000e-06	6.987189e-06	7.093435e-09	4.803996e+01	4.661399e+02
1.360000e-06	7.071010e-06	7.139622e-09	4.861626e+01	4.691817e+02
1.370000e-06	7.152326e-06	7.184201e-09	4.917534e+01	4.720837e+02
1.380000e-06	7.231039e-06	7.226581e-09	4.971653e+01	4.748541e+02
1.390000e-06	7.307103e-06	7.264696e-09	5.023950e+01	4.774954e+02
1.400000e-06	7.380408e-06	7.299291e-09	5.074351e+01	4.800041e+02
1.410000e-06	7.451023e-06	7.333593e-09	5.122902e+01	4.823728e+02
1.420000e-06	7.519071e-06	7.366459e-09	5.169687e+01	4.845939e+02
1.430000e-06	7.584372e-06	7.395788e-09	5.214585e+01	4.866623e+02
1.440000e-06	7.646962e-06	7.422750e-09	5.257618e+01	4.885792e+02
1.450000e-06	7.707025e-06	7.449268e-09	5.298914e+01	4.903521e+02
1.460000e-06	7.764439e-06	7.475008e-09	5.338389e+01	4.919944e+02
1.470000e-06	7.819004e-06	7.497613e-09	5.375905e+01	4.935219e+02
1.480000e-06	7.870549e-06	7.517925e-09	5.411344e+01	4.949496e+02
1.490000e-06	7.918899e-06	7.537403e-09	5.444587e+01	4.962878e+02
1.500000e-06	7.964291e-06	7.556493e-09	5.475796e+01	4.975400e+02
1.510000e-06	8.006910e-06	7.575074e-09	5.505098e+01	4.987025e+02
1.520000e-06	8.046630e-06	7.592431e-09	5.532407e+01	4.997670e+02
1.530000e-06	8.083528e-06	7.606974e-09	5.557776e+01	5.007238e+02
1.540000e-06	8.117619e-06	7.618764e-09	5.581216e+01	5.015657e+02
1.550000e-06	8.148781e-06	7.630123e-09	5.602640e+01	5.022919e+02
1.560000e-06	8.177053e-06	7.641091e-09	5.622079e+01	5.029091e+02
1.570000e-06	8.202381e-06	7.650593e-09	5.639493e+01	5.034310e+02
1.580000e-06	8.224684e-06	7.658438e-09	5.654827e+01	5.038752e+02
1.590000e-06	8.244127e-06	7.666280e-09	5.668195e+01	5.042587e+02
1.600000e-06	8.260653e-06	7.674559e-09	5.679558e+01	5.045942e+02
1.610000e-06	8.274064e-06	7.680452e-09	5.688778e+01	5.048858e+02
1.620000e-06	8.284262e-06	7.683987e-09	5.695790e+01	5.051288e+02
1.630000e-06	8.291274e-06	7.686197e-09	5.700611e+01	5.053104e+02
1.640000e-06	8.295333e-06	7.687767e-09	5.703401e+01	5.054135e+02
1.650000e-06	8.296422e-06	7.687845e-09	5.704150e+01	5.054215e+02
1.660000e-06	8.294622e-06	7.685550e-09	5.702913e+01	5.053226e+02
1.670000e-06	8.290137e-06	7.683451e-09	5.699829e+01	5.051135e+02
1.680000e-06	8.282917e-06	7.679386e-09	5.694865e+01	5.047999e+02
1.690000e-06	8.272943e-06	7.674641e-09	5.688007e+01	5.043955e+02
1.700000e-06	8.260041e-06	7.670414e-09	5.679137e+01	5.039179e+02
1.710000e-06	8.244266e-06	7.665173e-09	5.668290e+01	5.033849e+02
1.720000e-06	8.226019e-06	7.657542e-09	5.655745e+01	5.028097e+02
1.730000e-06	8.205312e-06	7.628631e-09	5.641508e+01	5.021986e+02
1.740000e-06	8.181666e-06	7.619581e-09	5.625251e+01	5.015507e+02
1.750000e-06	8.154430e-06	7.600318e-09	5.606524e+01	5.008590e+02
1.760000e-06	8.123386e-06	7.583870e-09	5.585180e+01	5.001140e+02
1.770000e-06	8.089205e-06	7.582308e-09	5.561680e+01	4.993069e+02
1.780000e-06	8.052635e-06	7.588051e-09	5.536536e+01	4.984327e+02
1.790000e-06	8.013698e-06	7.582189e-09	5.509765e+01	4.974912e+02
1.800000e-06	7.972587e-06	7.590459e-09	5.481500e+01	4.964861e+02
1.810000e-06	7.929380e-06	7.578324e-09	5.451793e+01	4.954223e+02
1.820000e-06	7.883395e-06	7.511006e-09	5.420176e+01	4.943027e+02
1.830000e-06	7.834566e-06	7.539656e-09	5.386604e+01	4.931251e+02
1.840000e-06	7.782771e-06	7.497756e-09	5.350993e+01	4.918802e+02
1.850000e-06	7.727783e-06	7.466821e-09	5.313186e+01	4.905524e+02
1.860000e-06	7.670006e-06	7.479936e-09	5.273462e+01	4.891227e+02
1.870000e-06	7.609396e-06	7.417189e-09	5.231790e+01	4.875724e+02
1.880000e-06	7.546004e-06	7.412032e-09	5.188205e+01	4.858881e+02
1.890000e-06	7.479822e-06	7.398634e-09	5.142702e+01	4.840653e+02
1.900000e-06	7.410630e-06	7.383594e-09	5.095130e+01	4.821099e+02
1.910000e-06	7.338523e-06	7.327795e-09	5.045553e+01	4.800372e+02
1.920000e-06	7.263590e-06	7.285727e-09	4.994033e+01	4.778683e+02
1.930000e-06	7.185830e-06	7.279855e-09	4.940570e+01	4.756248e+02
1.940000e-06	7.105288e-06	7.217592e-09	4.885194e+01	4.733235e+02
1.950000e-06	7.022239e-06	7.206341e-09	4.828094e+01	4.709719e+02
1.960000e-06	6.936631e-06	7.160365e-09	4.769235e+01	4.685664e+02
1.970000e-06	6.848322e-06	7.099059e-09	4.708519e+01	4.660933e+02
1.980000e-06	6.757546e-06	7.058976e-09	4.646106e+01	4.635326e+02
1.990000e-06	6.664367e-06	7.026631e-09	4.582042e+01	4.608626e+02
2.000000e-06	6.568819e-06	7.012890e-09	4.516348e+01	4.580658e+02
2.010000e-06	6.470994e-06	6.955687e-09	4.449089e+01	4.551329e+02
2.020000e-06	6.370880e-06	6.901358e-09	4.380256e+01	4.520646e+02
2.030000e-06	6.268362e-06	6.839145e-09	4.309771e+01	4.488702e+02
2.040000e-06	6.163577e-06	6.794472e-09	4.237727e+01	4.455649e+02
2.050000e-06	6.056734e-06	6.747721e-09	4.164267e+01	4.421647e+02
2.060000e-06	5.947822e-06	6.706943e-09	4.089386e+01	4.386816e+02
2.070000e-06	5.836799e-06	6.659065e-09	4.013053e+01	4.351203e+02
2.080000e-06	5.723649e-06	6.587216e-09	3.935257e+01	4.314769e+02
2.090000e-06	5.608304e-06	6.526396e-09	3.855952e+01	4.277403e+02
2.100000e-06	5.490709e-06	6.467967e-09	3.775101e+01	4.238951e+02
2.110000e-06	5.371013e-06	6.414895e-09	3.692804e+01	4.199260e+02
2.120000e-06	5.249391e-06	6.348063e-09	3.609184e+01	4.158214e+02
2.130000e-06	5.126013e-06	6.280599e-09	3.524357e+01	4.115756e+02
2.140000e-06	5.000799e-06	6.210216e-09	3.438266e+01	4.071894e+02
2.150000e-06	4.873721e-06	6.145858e-09	3.350895e+01	4.026675e+02
2.160000e-06	4.744816e-06	6.081107e-09	3.262267e+01	3.980161e+02
2.170000e-06	4.614204e-06	6.012229e-09	3.172466e+01	3.932383e+02
2.180000e-06	4.481914e-06	5.932898e-09	3.081511e+01	3.883320e+02
2.190000e-06	4.347888e-06	5.853342e-09	2.989362e+01	3.832881e+02
2.200000e-06	4.212292e-06	5.777860e-09	2.896133e+01	3.780915e+02
2.210000e-06	4.075133e-06	5.698642e-09	2.801831e+01	3.727238e+02
2.220000e-06	3.936345e-06	5.616710e-09	2.706408e+01	3.671667e+02
2.230000e-06	3.795884e-06	5.523249e-09	2.609835e+01	3.614057e+02
2.240000e-06	3.653942e-06	5.420369e-09	2.512244e+01	3.554323e+02
2.250000e-06	3.510637e-06	5.319330e-09	2.413715e+01	3.492446e+02
2.260000e-06	3.366066e-06	5.231103e-09	2.314316e+01	3.428462e+02
2.270000e-06	3.220315e-06	5.144938e-09	2.214106e+01	3.362428e+02
2.280000e-06	3.073435e-06	5.046877e-09	2.113120e+01	3.294395e+02
2.290000e-06	2.925369e-06	4.935440e-09	2.011318e+01	3.224372e+02
2.300000e-06	2.776152e-06	4.822918e-09	1.908725e+01	3.152311e+02
2.310000e-06	2.626019e-06	4.710532e-09	1.805502e+01	3.078108e+02
2.320000e-06	2.475039e-06	4.594948e-09	1.701697e+01	3.001608e+02
2.330000e-06	2.323272e-06	4.473974e-09	1.597350e+01	2.922640e+02
2.340000e-06	2.170705e-06	4.347385e-09	1.492454e+01	2.841026e+02
2.350000e-06	2.017369e-06	4.216165e-09	1.387028e+01	2.756607e+02
2.360000e-06	1.863371e-06	4.084320e-09	1.281148e+01	2.669239e+02
2.370000e-06	1.708836e-06	3.952184e-09	1.174899e+01	2.578789e+02
2.380000e-06	1.553755e-06	3.814627e-09	1.068274e+01	2.485114e+02
2.390000e-06	1.398077e-06	3.667221e-09	9.612385e+00	2.388049e+02
2.400000e-06	1.241850e-06	3.510673e-09	8.538258e+00	2.287397e+02
2.410000e-06	1.085138e-06	3.352800e-09	7.460797e+00	2.182941e+02
2.420000e-06	9.280364e-07	3.189755e-09	6.380653e+00	2.074462e+02
2.430000e-06	7.706548e-07	3.016381e-09	5.298586e+00	1.961761e+02
2.440000e-06	6.130112e-07	2.835663e-09	4.214718e+00	1.844686e+02
2.450000e-06	4.551271e-07	2.649490e-09	3.129196e+00	1.723131e+02
2.460000e-06	2.970471e-07	2.459794e-09	2.042328e+00	1.597025e+02
2.470000e-06	1.388159e-07	2.264418e-09	9.544194e-01	1.466278e+02
2.480000e-06	-1.949244e-08	2.060036e-09	-1.340190e-01	1.330727e+02
2.490000e-06	-1.778236e-07	1.846117e-09	-1.222614e+00	1.190072e+02
2.500000e-06	-3.360668e-07	1.620421e-09	-2.310605e+00	1.043837e+02
2.510000e-06	-4.941799e-07	1.383619e-09	-3.397701e+00	8.913702e+01
2.520000e-06	-6.521867e-07	1.136951e-09	-4.484067e+00	7.319042e+01
2.530000e-06	-8.100149e-07	8.795419e-10	-5.569204e+00	5.646683e+01
2.540000e-06	-9.675725e-07	6.110836e-10	-6.652481e+00	3.890503e+01
2.550000e-06	-1.124777e-06	3.319181e-10	-7.733329e+00	2.047750e+01
2.560000e-06	-1.281577e-06	4.099399e-11	-8.811396e+00	1.206734e+00
2.570000e-06	-1.437842e-06	-2.627617e-10	-9.885788e+00	-1.882353e+01
2.580000e-06	-1.593510e-06	-5.768217e-10	-1.095607e+01	-3.946517e+01
2.590000e-06	-1.748592e-06	-8.972547e-10	-1.202233e+01	-6.051205e+01
2.600000e-06	-1.902988e-06	-1.221393e-09	-1.308387e+01	-8.171547e+01
2.610000e-06	-2.056646e-06	-1.546050e-09	-1.414034e+01	-1.028065e+02
2.620000e-06	-2.209543e-06	-1.865224e-09	-1.519157e+01	-1.235218e+02
2.630000e-06	-2.361588e-06	-2.173976e-09	-1.623694e+01	-1.436278e+02
2.640000e-06	-2.512715e-06	-2.469646e-09	-1.727601e+01	-1.629402e+02
2.650000e-06	-2.662937e-06	-2.751091e-09	-1.830885e+01	-1.813354e+02
2.660000e-06	-2.812201e-06	-3.017775e-09	-1.933510e+01	-1.987525e+02
2.670000e-06	-2.960399e-06	-3.267883e-09	-2.035403e+01	-2.151859e+02
2.680000e-06	-3.107454e-06	-3.503309e-09	-2.136510e+01	-2.306726e+02
2.690000e-06	-3.253348e-06	-3.728296e-09	-2.236818e+01	-2.452755e+02
2.700000e-06	-3.398028e-06	-3.942535e-09	-2.336292e+01	-2.590672e+02
2.710000e-06	-3.541410e-06	-4.146119e-09	-2.434873e+01	-2.721173e+02
2.720000e-06	-3.683489e-06	-4.337965e-09	-2.532558e+01	-2.844841e+02
2.730000e-06	-3.824135e-06	-4.519011e-09	-2.629259e+01	-2.962128e+02
2.740000e-06	-3.963246e-06	-4.687517e-09	-2.724904e+01	-3.073368e+02
2.750000e-06	-4.100911e-06	-4.844950e-09	-2.819555e+01	-3.178827e+02
2.760000e-06	-4.237122e-06	-4.995404e-09	-2.913205e+01	-3.278748e+02
2.770000e-06	-4.371837e-06	-5.137487e-09	-3.005828e+01	-3.373393e+02
2.780000e-06	-4.505087e-06	-5.272457e-09	-3.097443e+01	-3.463055e+02
2.790000e-06	-4.636742e-06	-5.401793e-09	-3.187961e+01	-3.548050e+02
2.800000e-06	-4.766762e-06	-5.527517e-09	-3.277356e+01	-3.628688e+02
2.810000e-06	-4.895127e-06	-5.648114e-09	-3.365612e+01	-3.705253e+02
2.820000e-06	-5.021770e-06	-5.763163e-09	-3.452685e+01	-3.777974e+02
2.830000e-06	-5.146697e-06	-5.873340e-09	-3.538578e+01	-3.847032e+02
2.840000e-06	-5.269786e-06	-5.976740e-09	-3.623207e+01	-3.912571e+02
2.850000e-06	-5.390975e-06	-6.070883e-09	-3.706529e+01	-3.974731e+02
2.860000e-06	-5.510201e-06	-6.158067e-09	-3.788502e+01	-4.033678e+02
2.870000e-06	-5.627270e-06	-6.241364e-09	-3.868992e+01	-4.089633e+02
2.880000e-06	-5.741993e-06	-6.321980e-09	-3.947869e+01	-4.142873e+02
2.890000e-06	-5.854393e-06	-6.398983e-09	-4.025149e+01	-4.193715e+02
2.900000e-06	-5.964600e-06	-6.472984e-09	-4.100921e+01	-4.242487e+02
2.910000e-06	-6.072697e-06	-6.547360e-09	-4.175243e+01	-4.289479e+02
2.920000e-06	-6.178668e-06	-6.620710e-09	-4.248102e+01	-4.334908e+02
2.930000e-06	-6.282360e-06	-6.689940e-09	-4.319395e+01	-4.378891e+02
2.940000e-06	-6.383665e-06	-6.754398e-09	-4.389047e+01	-4.421444e+02
