# Temperatura_=_30.8
# Concentracion g/m^3_=_15000.0
# C_Vs_to_Am_M_A/Vsm_=_65563218390.804596
# pendiente_HvsI_1/m_=_3716.3
# ordenada_HvsI_A/m_=_1297.0
# frecuencia_Hz_=_301575.2168767284

Tiempo_(s)	Campo_(V.s)	Magnetizacion_(V.s)	Campo_(kA/m)	Magnetizacion_(A/m)
0.000000e+00	-5.382744e-06	-4.665699e-09	-3.833824e+01	-3.039364e+02
1.000000e-08	-5.379816e-06	-4.664273e-09	-3.831738e+01	-3.037984e+02
2.000000e-08	-5.375145e-06	-4.660655e-09	-3.828412e+01	-3.036262e+02
3.000000e-08	-5.368803e-06	-4.653926e-09	-3.823895e+01	-3.034229e+02
4.000000e-08	-5.360901e-06	-4.645980e-09	-3.818266e+01	-3.031841e+02
5.000000e-08	-5.351178e-06	-4.638350e-09	-3.811342e+01	-3.028987e+02
6.000000e-08	-5.339389e-06	-4.633520e-09	-3.802945e+01	-3.025524e+02
7.000000e-08	-5.325705e-06	-4.630037e-09	-3.793198e+01	-3.021315e+02
8.000000e-08	-5.309908e-06	-4.631293e-09	-3.781947e+01	-3.016273e+02
9.000000e-08	-5.291868e-06	-4.638696e-09	-3.769098e+01	-3.010396e+02
1.000000e-07	-5.271806e-06	-4.631263e-09	-3.754809e+01	-3.003777e+02
1.100000e-07	-5.249872e-06	-4.602706e-09	-3.739187e+01	-2.996591e+02
1.200000e-07	-5.226323e-06	-4.566934e-09	-3.722414e+01	-2.989061e+02
1.300000e-07	-5.201161e-06	-4.542082e-09	-3.704493e+01	-2.981407e+02
1.400000e-07	-5.174270e-06	-4.540400e-09	-3.685340e+01	-2.973786e+02
1.500000e-07	-5.145833e-06	-4.551551e-09	-3.665086e+01	-2.966254e+02
1.600000e-07	-5.116019e-06	-4.544871e-09	-3.643851e+01	-2.958740e+02
1.700000e-07	-5.084505e-06	-4.522646e-09	-3.621406e+01	-2.951051e+02
1.800000e-07	-5.050790e-06	-4.501681e-09	-3.597392e+01	-2.942905e+02
1.900000e-07	-5.015342e-06	-4.467921e-09	-3.572144e+01	-2.933984e+02
2.000000e-07	-4.978456e-06	-4.449151e-09	-3.545873e+01	-2.923997e+02
2.100000e-07	-4.939770e-06	-4.433353e-09	-3.518318e+01	-2.912729e+02
2.200000e-07	-4.899225e-06	-4.408171e-09	-3.489441e+01	-2.900087e+02
2.300000e-07	-4.856724e-06	-4.413024e-09	-3.459170e+01	-2.886104e+02
2.400000e-07	-4.812370e-06	-4.400124e-09	-3.427579e+01	-2.870927e+02
2.500000e-07	-4.766246e-06	-4.353610e-09	-3.394727e+01	-2.854779e+02
2.600000e-07	-4.718191e-06	-4.317992e-09	-3.360501e+01	-2.837905e+02
2.700000e-07	-4.668063e-06	-4.292753e-09	-3.324797e+01	-2.820526e+02
2.800000e-07	-4.615850e-06	-4.272178e-09	-3.287609e+01	-2.802794e+02
2.900000e-07	-4.561831e-06	-4.252346e-09	-3.249134e+01	-2.784776e+02
3.000000e-07	-4.506285e-06	-4.235315e-09	-3.209572e+01	-2.766453e+02
3.100000e-07	-4.448985e-06	-4.200692e-09	-3.168760e+01	-2.747738e+02
3.200000e-07	-4.389885e-06	-4.148578e-09	-3.126667e+01	-2.728512e+02
3.300000e-07	-4.329297e-06	-4.117405e-09	-3.083513e+01	-2.708653e+02
3.400000e-07	-4.267255e-06	-4.094689e-09	-3.039325e+01	-2.688069e+02
3.500000e-07	-4.203874e-06	-4.060762e-09	-2.994182e+01	-2.666710e+02
3.600000e-07	-4.138914e-06	-4.025399e-09	-2.947914e+01	-2.644571e+02
3.700000e-07	-4.072192e-06	-3.996313e-09	-2.900392e+01	-2.621681e+02
3.800000e-07	-4.004001e-06	-3.966682e-09	-2.851824e+01	-2.598083e+02
3.900000e-07	-3.934495e-06	-3.922691e-09	-2.802318e+01	-2.573816e+02
4.000000e-07	-3.863727e-06	-3.878311e-09	-2.751914e+01	-2.548904e+02
4.100000e-07	-3.791742e-06	-3.839157e-09	-2.700644e+01	-2.523344e+02
4.200000e-07	-3.718259e-06	-3.792096e-09	-2.648306e+01	-2.497116e+02
4.300000e-07	-3.643037e-06	-3.750143e-09	-2.594729e+01	-2.470193e+02
4.400000e-07	-3.566349e-06	-3.721209e-09	-2.540109e+01	-2.442549e+02
4.500000e-07	-3.488346e-06	-3.686522e-09	-2.484552e+01	-2.414174e+02
4.600000e-07	-3.408949e-06	-3.629274e-09	-2.428001e+01	-2.385077e+02
4.700000e-07	-3.328253e-06	-3.568625e-09	-2.370526e+01	-2.355282e+02
4.800000e-07	-3.246335e-06	-3.524535e-09	-2.312181e+01	-2.324820e+02
4.900000e-07	-3.163282e-06	-3.485810e-09	-2.253027e+01	-2.293716e+02
5.000000e-07	-3.079298e-06	-3.436294e-09	-2.193210e+01	-2.261978e+02
5.100000e-07	-2.994444e-06	-3.383742e-09	-2.132773e+01	-2.229591e+02
5.200000e-07	-2.908615e-06	-3.331266e-09	-2.071642e+01	-2.196519e+02
5.300000e-07	-2.821759e-06	-3.271888e-09	-2.009779e+01	-2.162708e+02
5.400000e-07	-2.734054e-06	-3.218486e-09	-1.947312e+01	-2.128103e+02
5.500000e-07	-2.645344e-06	-3.168885e-09	-1.884129e+01	-2.092656e+02
5.600000e-07	-2.555374e-06	-3.112777e-09	-1.820049e+01	-2.056337e+02
5.700000e-07	-2.464312e-06	-3.049866e-09	-1.755190e+01	-2.019136e+02
5.800000e-07	-2.372393e-06	-2.987151e-09	-1.689721e+01	-1.981063e+02
5.900000e-07	-2.279621e-06	-2.930693e-09	-1.623645e+01	-1.942133e+02
6.000000e-07	-2.186063e-06	-2.872742e-09	-1.557009e+01	-1.902361e+02
6.100000e-07	-2.091846e-06	-2.808146e-09	-1.489904e+01	-1.861749e+02
6.200000e-07	-1.996939e-06	-2.740849e-09	-1.422307e+01	-1.820281e+02
6.300000e-07	-1.901370e-06	-2.674639e-09	-1.354239e+01	-1.777928e+02
6.400000e-07	-1.805095e-06	-2.610304e-09	-1.285667e+01	-1.734648e+02
6.500000e-07	-1.707999e-06	-2.546578e-09	-1.216511e+01	-1.690406e+02
6.600000e-07	-1.610107e-06	-2.478232e-09	-1.146788e+01	-1.645178e+02
6.700000e-07	-1.511557e-06	-2.402856e-09	-1.076596e+01	-1.598960e+02
6.800000e-07	-1.412524e-06	-2.325416e-09	-1.006061e+01	-1.551771e+02
6.900000e-07	-1.313050e-06	-2.249971e-09	-9.352111e+00	-1.503647e+02
7.000000e-07	-1.213147e-06	-2.176129e-09	-8.640561e+00	-1.454626e+02
7.100000e-07	-1.112873e-06	-2.101793e-09	-7.926365e+00	-1.404735e+02
7.200000e-07	-1.012294e-06	-2.023143e-09	-7.209999e+00	-1.353981e+02
7.300000e-07	-9.114620e-07	-1.940391e-09	-6.491828e+00	-1.302339e+02
7.400000e-07	-8.103097e-07	-1.859385e-09	-5.771378e+00	-1.249751e+02
7.500000e-07	-7.088061e-07	-1.780721e-09	-5.048425e+00	-1.196139e+02
7.600000e-07	-6.070108e-07	-1.699368e-09	-4.323395e+00	-1.141413e+02
7.700000e-07	-5.050151e-07	-1.610169e-09	-3.596937e+00	-1.085487e+02
7.800000e-07	-4.028795e-07	-1.517611e-09	-2.869483e+00	-1.028292e+02
7.900000e-07	-3.006314e-07	-1.428012e-09	-2.141228e+00	-9.697839e+01
8.000000e-07	-1.982916e-07	-1.338822e-09	-1.412319e+00	-9.099411e+01
8.100000e-07	-9.584599e-08	-1.247264e-09	-6.826568e-01	-8.487603e+01
8.200000e-07	6.714545e-09	-1.153116e-09	4.782391e-02	-7.862439e+01
8.300000e-07	1.092688e-07	-1.056151e-09	7.782599e-01	-7.223875e+01
8.400000e-07	2.117479e-07	-9.567628e-10	1.508161e+00	-6.571702e+01
8.500000e-07	3.141829e-07	-8.569824e-10	2.237747e+00	-5.905497e+01
8.600000e-07	4.165600e-07	-7.555680e-10	2.966921e+00	-5.224635e+01
8.700000e-07	5.188236e-07	-6.486673e-10	3.695287e+00	-4.528354e+01
8.800000e-07	6.209186e-07	-5.375614e-10	4.422452e+00	-3.815847e+01
8.900000e-07	7.228279e-07	-4.281588e-10	5.148295e+00	-3.086357e+01
9.000000e-07	8.244778e-07	-3.191527e-10	5.872289e+00	-2.339249e+01
9.100000e-07	9.257742e-07	-2.049096e-10	6.593766e+00	-1.574051e+01
9.200000e-07	1.026672e-06	-8.549545e-11	7.312401e+00	-7.904666e+00
9.300000e-07	1.127194e-06	3.663738e-11	8.028367e+00	1.162565e-01
9.400000e-07	1.227424e-06	1.605743e-10	8.742245e+00	8.321512e+00
9.500000e-07	1.327325e-06	2.867832e-10	9.453787e+00	1.670786e+01
9.600000e-07	1.426792e-06	4.160695e-10	1.016223e+01	2.526859e+01
9.700000e-07	1.525612e-06	5.486170e-10	1.086607e+01	3.399218e+01
9.800000e-07	1.623683e-06	6.839394e-10	1.156458e+01	4.286097e+01
9.900000e-07	1.721118e-06	8.214753e-10	1.225855e+01	5.185016e+01
1.000000e-06	1.817923e-06	9.611307e-10	1.294804e+01	6.092757e+01
1.010000e-06	1.913932e-06	1.100756e-09	1.363186e+01	7.005443e+01
1.020000e-06	2.009115e-06	1.240995e-09	1.430979e+01	7.918722e+01
1.030000e-06	2.103613e-06	1.381461e-09	1.498285e+01	8.828033e+01
1.040000e-06	2.197386e-06	1.519499e-09	1.565074e+01	9.728908e+01
1.050000e-06	2.290408e-06	1.652125e-09	1.631328e+01	1.061726e+02
1.060000e-06	2.382776e-06	1.781138e-09	1.697117e+01	1.148957e+02
1.070000e-06	2.474489e-06	1.908631e-09	1.762438e+01	1.234302e+02
1.080000e-06	2.565315e-06	2.034087e-09	1.827129e+01	1.317544e+02
1.090000e-06	2.655020e-06	2.158026e-09	1.891020e+01	1.398519e+02
1.100000e-06	2.743627e-06	2.281427e-09	1.954130e+01	1.477102e+02
1.110000e-06	2.831227e-06	2.399463e-09	2.016523e+01	1.553187e+02
1.120000e-06	2.917875e-06	2.509703e-09	2.078238e+01	1.626680e+02
1.130000e-06	3.003586e-06	2.616754e-09	2.139284e+01	1.697496e+02
1.140000e-06	3.088361e-06	2.721648e-09	2.199665e+01	1.765569e+02
1.150000e-06	3.172238e-06	2.821779e-09	2.259405e+01	1.830867e+02
1.160000e-06	3.255061e-06	2.916403e-09	2.318396e+01	1.893405e+02
1.170000e-06	3.336636e-06	3.008371e-09	2.376497e+01	1.953259e+02
1.180000e-06	3.416944e-06	3.096332e-09	2.433696e+01	2.010565e+02
1.190000e-06	3.496036e-06	3.180838e-09	2.490028e+01	2.065507e+02
1.200000e-06	3.573911e-06	3.263151e-09	2.545494e+01	2.118292e+02
1.210000e-06	3.650561e-06	3.342748e-09	2.600088e+01	2.169127e+02
1.220000e-06	3.725793e-06	3.420225e-09	2.653672e+01	2.218182e+02
1.230000e-06	3.799407e-06	3.494170e-09	2.706103e+01	2.265574e+02
1.240000e-06	3.871555e-06	3.564146e-09	2.757490e+01	2.311356e+02
1.250000e-06	3.942300e-06	3.631498e-09	2.807877e+01	2.355520e+02
1.260000e-06	4.011590e-06	3.696568e-09	2.857229e+01	2.398020e+02
1.270000e-06	4.079543e-06	3.758784e-09	2.905628e+01	2.438793e+02
1.280000e-06	4.146074e-06	3.817901e-09	2.953014e+01	2.477791e+02
1.290000e-06	4.210958e-06	3.872621e-09	2.999227e+01	2.515001e+02
1.300000e-06	4.274289e-06	3.923859e-09	3.044334e+01	2.550451e+02
1.310000e-06	4.336208e-06	3.973537e-09	3.088436e+01	2.584213e+02
1.320000e-06	4.396752e-06	4.021396e-09	3.131558e+01	2.616382e+02
1.330000e-06	4.455820e-06	4.067374e-09	3.173628e+01	2.647054e+02
1.340000e-06	4.513184e-06	4.110391e-09	3.214486e+01	2.676308e+02
1.350000e-06	4.568815e-06	4.150531e-09	3.254108e+01	2.704189e+02
1.360000e-06	4.622818e-06	4.187884e-09	3.292572e+01	2.730705e+02
1.370000e-06	4.675077e-06	4.222529e-09	3.329793e+01	2.755839e+02
1.380000e-06	4.725330e-06	4.255848e-09	3.365585e+01	2.779565e+02
1.390000e-06	4.773606e-06	4.287902e-09	3.399970e+01	2.801872e+02
1.400000e-06	4.820114e-06	4.317463e-09	3.433094e+01	2.822783e+02
1.410000e-06	4.865054e-06	4.345477e-09	3.465103e+01	2.842364e+02
1.420000e-06	4.908420e-06	4.372806e-09	3.495990e+01	2.860720e+02
1.430000e-06	4.949945e-06	4.397973e-09	3.525566e+01	2.877985e+02
1.440000e-06	4.989626e-06	4.419807e-09	3.553829e+01	2.894291e+02
1.450000e-06	5.027623e-06	4.439435e-09	3.580892e+01	2.909748e+02
1.460000e-06	5.064042e-06	4.459828e-09	3.606831e+01	2.924422e+02
1.470000e-06	5.098738e-06	4.481578e-09	3.631543e+01	2.938328e+02
1.480000e-06	5.131456e-06	4.501041e-09	3.654846e+01	2.951438e+02
1.490000e-06	5.162338e-06	4.518217e-09	3.676842e+01	2.963695e+02
1.500000e-06	5.191558e-06	4.533724e-09	3.697654e+01	2.975040e+02
1.510000e-06	5.219044e-06	4.548395e-09	3.717230e+01	2.985436e+02
1.520000e-06	5.244519e-06	4.563320e-09	3.735375e+01	2.994882e+02
1.530000e-06	5.267982e-06	4.578527e-09	3.752086e+01	3.003423e+02
1.540000e-06	5.289647e-06	4.592398e-09	3.767517e+01	3.011132e+02
1.550000e-06	5.309616e-06	4.604038e-09	3.781739e+01	3.018096e+02
1.560000e-06	5.327685e-06	4.614186e-09	3.794608e+01	3.024391e+02
1.570000e-06	5.343679e-06	4.624285e-09	3.806000e+01	3.030053e+02
1.580000e-06	5.357735e-06	4.633774e-09	3.816012e+01	3.035077e+02
1.590000e-06	5.369823e-06	4.640807e-09	3.824621e+01	3.039413e+02
1.600000e-06	5.379692e-06	4.646593e-09	3.831651e+01	3.042985e+02
1.610000e-06	5.387406e-06	4.651501e-09	3.837144e+01	3.045719e+02
1.620000e-06	5.393296e-06	4.656238e-09	3.841340e+01	3.047574e+02
1.630000e-06	5.397424e-06	4.661052e-09	3.844280e+01	3.048558e+02
1.640000e-06	5.399631e-06	4.664550e-09	3.845852e+01	3.048739e+02
1.650000e-06	5.399839e-06	4.665322e-09	3.846000e+01	3.048235e+02
1.660000e-06	5.398260e-06	4.663013e-09	3.844876e+01	3.047187e+02
1.670000e-06	5.395108e-06	4.659785e-09	3.842630e+01	3.045725e+02
1.680000e-06	5.390227e-06	4.659294e-09	3.839154e+01	3.043934e+02
1.690000e-06	5.383368e-06	4.658677e-09	3.834268e+01	3.041828e+02
1.700000e-06	5.374725e-06	4.656398e-09	3.828113e+01	3.039348e+02
1.710000e-06	5.364495e-06	4.652277e-09	3.820826e+01	3.036374e+02
1.720000e-06	5.352570e-06	4.648197e-09	3.812333e+01	3.032758e+02
1.730000e-06	5.338713e-06	4.636274e-09	3.802463e+01	3.028373e+02
1.740000e-06	5.322668e-06	4.609503e-09	3.791036e+01	3.023146e+02
1.750000e-06	5.304195e-06	4.596772e-09	3.777878e+01	3.017096e+02
1.760000e-06	5.283067e-06	4.607366e-09	3.762830e+01	3.010335e+02
1.770000e-06	5.259710e-06	4.627544e-09	3.746194e+01	3.003054e+02
1.780000e-06	5.235200e-06	4.631105e-09	3.728737e+01	2.995478e+02
1.790000e-06	5.209967e-06	4.589881e-09	3.710765e+01	2.987817e+02
1.800000e-06	5.183202e-06	4.546423e-09	3.691701e+01	2.980212e+02
1.810000e-06	5.154273e-06	4.536488e-09	3.671097e+01	2.972692e+02
1.820000e-06	5.123571e-06	4.516138e-09	3.649230e+01	2.965157e+02
1.830000e-06	5.091145e-06	4.499053e-09	3.626135e+01	2.957393e+02
1.840000e-06	5.056813e-06	4.496213e-09	3.601682e+01	2.949105e+02
1.850000e-06	5.020867e-06	4.471047e-09	3.576080e+01	2.939976e+02
1.860000e-06	4.983069e-06	4.462991e-09	3.549158e+01	2.929726e+02
1.870000e-06	4.943406e-06	4.423625e-09	3.520908e+01	2.918164e+02
1.880000e-06	4.902068e-06	4.357047e-09	3.491466e+01	2.905225e+02
1.890000e-06	4.858925e-06	4.360999e-09	3.460737e+01	2.890968e+02
1.900000e-06	4.814214e-06	4.349798e-09	3.428892e+01	2.875560e+02
1.910000e-06	4.767641e-06	4.321749e-09	3.395721e+01	2.859233e+02
1.920000e-06	4.719037e-06	4.305097e-09	3.361103e+01	2.842231e+02
1.930000e-06	4.668883e-06	4.268327e-09	3.325381e+01	2.824763e+02
1.940000e-06	4.616965e-06	4.248167e-09	3.288403e+01	2.806965e+02
1.950000e-06	4.562937e-06	4.196530e-09	3.249922e+01	2.788884e+02
1.960000e-06	4.506970e-06	4.168672e-09	3.210060e+01	2.770483e+02
1.970000e-06	4.449301e-06	4.176748e-09	3.168986e+01	2.751666e+02
1.980000e-06	4.390237e-06	4.136088e-09	3.126917e+01	2.732311e+02
1.990000e-06	4.329694e-06	4.104408e-09	3.083796e+01	2.712300e+02
2.000000e-06	4.267371e-06	4.068388e-09	3.039407e+01	2.691550e+02
2.010000e-06	4.203438e-06	4.032889e-09	2.993871e+01	2.670020e+02
2.020000e-06	4.138065e-06	3.990646e-09	2.947310e+01	2.647714e+02
2.030000e-06	4.071268e-06	3.945212e-09	2.899734e+01	2.624666e+02
2.040000e-06	4.003137e-06	3.947626e-09	2.851208e+01	2.600919e+02
2.050000e-06	3.933530e-06	3.907447e-09	2.801631e+01	2.576510e+02
2.060000e-06	3.862371e-06	3.853299e-09	2.750948e+01	2.551457e+02
2.070000e-06	3.789830e-06	3.824922e-09	2.699282e+01	2.525753e+02
2.080000e-06	3.715944e-06	3.785558e-09	2.646657e+01	2.499377e+02
2.090000e-06	3.640722e-06	3.738926e-09	2.593081e+01	2.472298e+02
2.100000e-06	3.564005e-06	3.680963e-09	2.538439e+01	2.444494e+02
2.110000e-06	3.485600e-06	3.650245e-09	2.482596e+01	2.415961e+02
2.120000e-06	3.405903e-06	3.619835e-09	2.425832e+01	2.386709e+02
2.130000e-06	3.325134e-06	3.567463e-09	2.368305e+01	2.356766e+02
2.140000e-06	3.243212e-06	3.521387e-09	2.309956e+01	2.326162e+02
2.150000e-06	3.160216e-06	3.479624e-09	2.250843e+01	2.294919e+02
2.160000e-06	3.076245e-06	3.426813e-09	2.191035e+01	2.263041e+02
2.170000e-06	2.991149e-06	3.372835e-09	2.130426e+01	2.230509e+02
2.180000e-06	2.904636e-06	3.335424e-09	2.068808e+01	2.197280e+02
2.190000e-06	2.816953e-06	3.287097e-09	2.006357e+01	2.163301e+02
2.200000e-06	2.728334e-06	3.228746e-09	1.943238e+01	2.128516e+02
2.210000e-06	2.638754e-06	3.168531e-09	1.879436e+01	2.092882e+02
2.220000e-06	2.548232e-06	3.114406e-09	1.814961e+01	2.056371e+02
2.230000e-06	2.456914e-06	3.064716e-09	1.749921e+01	2.018979e+02
2.240000e-06	2.364970e-06	3.006566e-09	1.684435e+01	1.980718e+02
2.250000e-06	2.272247e-06	2.950395e-09	1.618393e+01	1.941604e+02
2.260000e-06	2.178555e-06	2.893023e-09	1.551662e+01	1.901649e+02
2.270000e-06	2.083834e-06	2.828099e-09	1.484197e+01	1.860853e+02
2.280000e-06	1.988188e-06	2.761637e-09	1.416074e+01	1.819196e+02
2.290000e-06	1.891830e-06	2.696574e-09	1.347443e+01	1.776645e+02
2.300000e-06	1.794916e-06	2.628305e-09	1.278417e+01	1.733159e+02
2.310000e-06	1.697449e-06	2.561540e-09	1.208997e+01	1.688704e+02
2.320000e-06	1.599374e-06	2.493502e-09	1.139144e+01	1.643261e+02
2.330000e-06	1.500754e-06	2.424692e-09	1.068902e+01	1.596830e+02
2.340000e-06	1.401678e-06	2.358962e-09	9.983363e+00	1.549435e+02
2.350000e-06	1.302271e-06	2.287592e-09	9.275338e+00	1.501112e+02
2.360000e-06	1.202581e-06	2.212403e-09	8.565307e+00	1.451900e+02
2.370000e-06	1.102658e-06	2.136250e-09	7.853606e+00	1.401822e+02
2.380000e-06	1.002414e-06	2.058121e-09	7.139631e+00	1.350878e+02
2.390000e-06	9.017412e-07	1.980050e-09	6.422592e+00	1.299036e+02
2.400000e-06	8.006087e-07	1.898603e-09	5.702283e+00	1.246234e+02
2.410000e-06	6.991011e-07	1.814094e-09	4.979302e+00	1.192388e+02
2.420000e-06	5.974319e-07	1.730464e-09	4.255169e+00	1.137409e+02
2.430000e-06	4.956121e-07	1.646259e-09	3.529965e+00	1.081213e+02
2.440000e-06	3.934973e-07	1.563838e-09	2.802659e+00	1.023737e+02
2.450000e-06	2.911307e-07	1.480797e-09	2.073559e+00	9.649410e+01
2.460000e-06	1.886896e-07	1.389490e-09	1.343929e+00	9.048086e+01
2.470000e-06	8.616473e-08	1.291542e-09	6.137027e-01	8.433387e+01
2.480000e-06	-1.646086e-08	1.191374e-09	-1.172414e-01	7.805332e+01
2.490000e-06	-1.191033e-07	1.091525e-09	-8.483058e-01	7.163848e+01
2.500000e-06	-2.216450e-07	9.926551e-10	-1.578652e+00	6.508684e+01
2.510000e-06	-3.240707e-07	8.927363e-10	-2.308173e+00	5.839369e+01
2.520000e-06	-4.263985e-07	7.892752e-10	-3.036995e+00	5.155243e+01
2.530000e-06	-5.285497e-07	6.814551e-10	-3.764560e+00	4.455525e+01
2.540000e-06	-6.305166e-07	5.710492e-10	-4.490813e+00	3.739412e+01
2.550000e-06	-7.322420e-07	4.600946e-10	-5.215346e+00	3.006167e+01
2.560000e-06	-8.336199e-07	3.448251e-10	-5.937403e+00	2.255189e+01
2.570000e-06	-9.345754e-07	2.229951e-10	-6.656452e+00	1.486042e+01
2.580000e-06	-1.035131e-06	9.867348e-11	-7.372656e+00	6.984683e+00
2.590000e-06	-1.135315e-06	-2.545673e-11	-8.086204e+00	-1.076151e+00
2.600000e-06	-1.235064e-06	-1.499677e-10	-8.796659e+00	-9.320862e+00
2.610000e-06	-1.334369e-06	-2.782938e-10	-9.503954e+00	-1.774556e+01
2.620000e-06	-1.433240e-06	-4.121312e-10	-1.020816e+01	-2.634262e+01
2.630000e-06	-1.531680e-06	-5.478794e-10	-1.090929e+01	-3.509932e+01
2.640000e-06	-1.629605e-06	-6.808452e-10	-1.160676e+01	-4.399653e+01
2.650000e-06	-1.726953e-06	-8.150874e-10	-1.230011e+01	-5.300785e+01
2.660000e-06	-1.823732e-06	-9.541661e-10	-1.298941e+01	-6.209960e+01
2.670000e-06	-1.919997e-06	-1.096421e-09	-1.367505e+01	-7.123178e+01
2.680000e-06	-2.015668e-06	-1.238151e-09	-1.435646e+01	-8.036020e+01
2.690000e-06	-2.110488e-06	-1.375426e-09	-1.503181e+01	-8.943918e+01
2.700000e-06	-2.204368e-06	-1.509851e-09	-1.570047e+01	-9.842463e+01
2.710000e-06	-2.297361e-06	-1.644728e-09	-1.636280e+01	-1.072768e+02
2.720000e-06	-2.389466e-06	-1.779221e-09	-1.701882e+01	-1.159619e+02
2.730000e-06	-2.480691e-06	-1.911673e-09	-1.766856e+01	-1.244532e+02
2.740000e-06	-2.571049e-06	-2.039703e-09	-1.831213e+01	-1.327303e+02
2.750000e-06	-2.660477e-06	-2.164008e-09	-1.894908e+01	-1.407779e+02
2.760000e-06	-2.749040e-06	-2.284619e-09	-1.957985e+01	-1.485838e+02
2.770000e-06	-2.836804e-06	-2.400043e-09	-2.020495e+01	-1.561378e+02
2.780000e-06	-2.923612e-06	-2.510763e-09	-2.082324e+01	-1.634306e+02
2.790000e-06	-3.009293e-06	-2.616351e-09	-2.143349e+01	-1.704542e+02
2.800000e-06	-3.093806e-06	-2.718370e-09	-2.203543e+01	-1.772024e+02
2.810000e-06	-3.177213e-06	-2.817507e-09	-2.262949e+01	-1.836730e+02
2.820000e-06	-3.259567e-06	-2.912023e-09	-2.321605e+01	-1.898687e+02
2.830000e-06	-3.340864e-06	-3.002515e-09	-2.379509e+01	-1.957985e+02
2.840000e-06	-3.421046e-06	-3.088137e-09	-2.436618e+01	-2.014771e+02
2.850000e-06	-3.499979e-06	-3.168997e-09	-2.492837e+01	-2.069235e+02
2.860000e-06	-3.577431e-06	-3.248330e-09	-2.548002e+01	-2.121588e+02
2.870000e-06	-3.653354e-06	-3.324371e-09	-2.602077e+01	-2.172031e+02
2.880000e-06	-3.727852e-06	-3.397359e-09	-2.655138e+01	-2.220725e+02
2.890000e-06	-3.801036e-06	-3.468002e-09	-2.707263e+01	-2.267773e+02
2.900000e-06	-3.872949e-06	-3.536795e-09	-2.758483e+01	-2.313213e+02
2.910000e-06	-3.943365e-06	-3.603021e-09	-2.808636e+01	-2.357029e+02
2.920000e-06	-4.012180e-06	-3.665990e-09	-2.857649e+01	-2.399166e+02
2.930000e-06	-4.079544e-06	-3.729712e-09	-2.905628e+01	-2.439565e+02
2.940000e-06	-4.145524e-06	-3.792247e-09	-2.952622e+01	-2.478182e+02
