# Temperatura_=_49.82
# Concentracion g/m^3_=_15000.0
# C_Vs_to_Am_M_A/Vsm_=_65563218390.804596
# pendiente_HvsI_1/m_=_3716.3
# ordenada_HvsI_A/m_=_1297.0
# frecuencia_Hz_=_301566.9733807058

Tiempo_(s)	Campo_(V.s)	Magnetizacion_(V.s)	Campo_(kA/m)	Magnetizacion_(A/m)
0.000000e+00	-5.388597e-06	-5.317293e-09	-3.834504e+01	-3.464573e+02
1.000000e-08	-5.385574e-06	-5.317258e-09	-3.832353e+01	-3.462406e+02
2.000000e-08	-5.380784e-06	-5.312729e-09	-3.828945e+01	-3.459711e+02
3.000000e-08	-5.374379e-06	-5.305611e-09	-3.824387e+01	-3.456625e+02
4.000000e-08	-5.366395e-06	-5.296568e-09	-3.818705e+01	-3.453213e+02
5.000000e-08	-5.356494e-06	-5.286596e-09	-3.811660e+01	-3.449444e+02
6.000000e-08	-5.344522e-06	-5.279276e-09	-3.803141e+01	-3.445196e+02
7.000000e-08	-5.330645e-06	-5.271089e-09	-3.793266e+01	-3.440278e+02
8.000000e-08	-5.314605e-06	-5.268837e-09	-3.781852e+01	-3.434483e+02
9.000000e-08	-5.296370e-06	-5.285517e-09	-3.768876e+01	-3.427640e+02
1.000000e-07	-5.276131e-06	-5.279506e-09	-3.754473e+01	-3.419665e+02
1.100000e-07	-5.253979e-06	-5.248866e-09	-3.738710e+01	-3.410594e+02
1.200000e-07	-5.230186e-06	-5.217977e-09	-3.721780e+01	-3.400589e+02
1.300000e-07	-5.204856e-06	-5.164219e-09	-3.703755e+01	-3.389909e+02
1.400000e-07	-5.177920e-06	-5.159894e-09	-3.684587e+01	-3.378860e+02
1.500000e-07	-5.149465e-06	-5.206817e-09	-3.664339e+01	-3.367725e+02
1.600000e-07	-5.119561e-06	-5.152814e-09	-3.643059e+01	-3.356694e+02
1.700000e-07	-5.087962e-06	-5.120582e-09	-3.620573e+01	-3.345815e+02
1.800000e-07	-5.054196e-06	-5.109667e-09	-3.596546e+01	-3.334970e+02
1.900000e-07	-5.018680e-06	-5.053417e-09	-3.571273e+01	-3.323888e+02
2.000000e-07	-4.981732e-06	-5.096642e-09	-3.544980e+01	-3.312191e+02
2.100000e-07	-4.942992e-06	-5.102990e-09	-3.517413e+01	-3.299468e+02
2.200000e-07	-4.902325e-06	-5.038631e-09	-3.488475e+01	-3.285352e+02
2.300000e-07	-4.859695e-06	-5.016323e-09	-3.458139e+01	-3.269595e+02
2.400000e-07	-4.815250e-06	-4.957688e-09	-3.426513e+01	-3.252108e+02
2.500000e-07	-4.769000e-06	-4.915731e-09	-3.393601e+01	-3.232979e+02
2.600000e-07	-4.720757e-06	-4.917181e-09	-3.359271e+01	-3.212442e+02
2.700000e-07	-4.670423e-06	-4.863965e-09	-3.323455e+01	-3.190826e+02
2.800000e-07	-4.618048e-06	-4.831221e-09	-3.286184e+01	-3.168479e+02
2.900000e-07	-4.563911e-06	-4.810265e-09	-3.247661e+01	-3.145698e+02
3.000000e-07	-4.508256e-06	-4.769837e-09	-3.208057e+01	-3.122669e+02
3.100000e-07	-4.450843e-06	-4.746758e-09	-3.167202e+01	-3.099440e+02
3.200000e-07	-4.391652e-06	-4.715451e-09	-3.125082e+01	-3.075919e+02
3.300000e-07	-4.330985e-06	-4.653732e-09	-3.081912e+01	-3.051914e+02
3.400000e-07	-4.268824e-06	-4.597432e-09	-3.037678e+01	-3.027179e+02
3.500000e-07	-4.205229e-06	-4.584198e-09	-2.992424e+01	-3.001479e+02
3.600000e-07	-4.140094e-06	-4.558530e-09	-2.946074e+01	-2.974644e+02
3.700000e-07	-4.073287e-06	-4.512133e-09	-2.898535e+01	-2.946598e+02
3.800000e-07	-4.004994e-06	-4.461691e-09	-2.849938e+01	-2.917376e+02
3.900000e-07	-3.935293e-06	-4.394581e-09	-2.800338e+01	-2.887099e+02
4.000000e-07	-3.864383e-06	-4.346147e-09	-2.749880e+01	-2.855945e+02
4.100000e-07	-3.792261e-06	-4.311748e-09	-2.698557e+01	-2.824099e+02
4.200000e-07	-3.718634e-06	-4.268574e-09	-2.646165e+01	-2.791713e+02
4.300000e-07	-3.643383e-06	-4.219646e-09	-2.592617e+01	-2.758875e+02
4.400000e-07	-3.566538e-06	-4.157799e-09	-2.537934e+01	-2.725595e+02
4.500000e-07	-3.488251e-06	-4.096232e-09	-2.482226e+01	-2.691811e+02
4.600000e-07	-3.408651e-06	-4.047424e-09	-2.425582e+01	-2.657415e+02
4.700000e-07	-3.327834e-06	-3.998944e-09	-2.368073e+01	-2.622281e+02
4.800000e-07	-3.245830e-06	-3.943799e-09	-2.309720e+01	-2.586296e+02
4.900000e-07	-3.162746e-06	-3.888359e-09	-2.250597e+01	-2.549384e+02
5.000000e-07	-3.078693e-06	-3.830131e-09	-2.190786e+01	-2.511520e+02
5.100000e-07	-2.993691e-06	-3.768667e-09	-2.130299e+01	-2.472723e+02
5.200000e-07	-2.907720e-06	-3.710351e-09	-2.069122e+01	-2.433042e+02
5.300000e-07	-2.820782e-06	-3.642876e-09	-2.007257e+01	-2.392541e+02
5.400000e-07	-2.732928e-06	-3.569415e-09	-1.944741e+01	-2.351270e+02
5.500000e-07	-2.644022e-06	-3.500949e-09	-1.881476e+01	-2.309256e+02
5.600000e-07	-2.553883e-06	-3.441189e-09	-1.817333e+01	-2.266493e+02
5.700000e-07	-2.462673e-06	-3.385955e-09	-1.752428e+01	-2.222942e+02
5.800000e-07	-2.370647e-06	-3.320294e-09	-1.686943e+01	-2.178546e+02
5.900000e-07	-2.277824e-06	-3.246206e-09	-1.620891e+01	-2.133240e+02
6.000000e-07	-2.184150e-06	-3.169702e-09	-1.554232e+01	-2.086965e+02
6.100000e-07	-2.089668e-06	-3.093984e-09	-1.486999e+01	-2.039684e+02
6.200000e-07	-1.994544e-06	-3.021258e-09	-1.419309e+01	-1.991378e+02
6.300000e-07	-1.898762e-06	-2.949813e-09	-1.351151e+01	-1.942052e+02
6.400000e-07	-1.802222e-06	-2.874135e-09	-1.282454e+01	-1.891725e+02
6.500000e-07	-1.704950e-06	-2.792046e-09	-1.213236e+01	-1.840419e+02
6.600000e-07	-1.606944e-06	-2.708041e-09	-1.143495e+01	-1.788155e+02
6.700000e-07	-1.508303e-06	-2.625438e-09	-1.073302e+01	-1.734940e+02
6.800000e-07	-1.409143e-06	-2.542967e-09	-1.002741e+01	-1.680768e+02
6.900000e-07	-1.309526e-06	-2.457552e-09	-9.318536e+00	-1.625620e+02
7.000000e-07	-1.209552e-06	-2.371821e-09	-8.607122e+00	-1.569464e+02
7.100000e-07	-1.109258e-06	-2.286123e-09	-7.893437e+00	-1.512267e+02
7.200000e-07	-1.008612e-06	-2.199206e-09	-7.177246e+00	-1.453992e+02
7.300000e-07	-9.076094e-07	-2.109521e-09	-6.458512e+00	-1.394603e+02
7.400000e-07	-8.062783e-07	-2.016841e-09	-5.737444e+00	-1.334068e+02
7.500000e-07	-7.046574e-07	-1.919591e-09	-5.014314e+00	-1.272357e+02
7.600000e-07	-6.027932e-07	-1.818279e-09	-4.289452e+00	-1.209441e+02
7.700000e-07	-5.007466e-07	-1.718092e-09	-3.563293e+00	-1.145287e+02
7.800000e-07	-3.985645e-07	-1.621131e-09	-2.836169e+00	-1.079863e+02
7.900000e-07	-2.962367e-07	-1.522479e-09	-2.108009e+00	-1.013129e+02
8.000000e-07	-1.938063e-07	-1.418285e-09	-1.379118e+00	-9.450442e+01
8.100000e-07	-9.131053e-08	-1.313197e-09	-6.497621e-01	-8.755600e+01
8.200000e-07	1.128273e-08	-1.208675e-09	8.028745e-02	-8.046219e+01
8.300000e-07	1.139204e-07	-1.101718e-09	8.106533e-01	-7.321667e+01
8.400000e-07	2.164880e-07	-9.911465e-10	1.540520e+00	-6.581207e+01
8.500000e-07	3.189732e-07	-8.764237e-10	2.269800e+00	-5.823984e+01
8.600000e-07	4.213556e-07	-7.568593e-10	2.998350e+00	-5.049034e+01
8.700000e-07	5.236756e-07	-6.331035e-10	3.726455e+00	-4.255317e+01
8.800000e-07	6.258942e-07	-5.086826e-10	4.453838e+00	-3.441776e+01
8.900000e-07	7.278645e-07	-3.844862e-10	5.179454e+00	-2.607435e+01
9.000000e-07	8.295303e-07	-2.558677e-10	5.902904e+00	-1.751505e+01
9.100000e-07	9.308594e-07	-1.222836e-10	6.623958e+00	-8.735055e+00
9.200000e-07	1.031873e-06	1.341321e-11	7.342764e+00	2.663156e-01
9.300000e-07	1.132563e-06	1.518475e-10	8.059270e+00	9.484753e+00
9.400000e-07	1.232875e-06	2.945937e-10	8.773088e+00	1.891046e+01
9.500000e-07	1.332765e-06	4.419771e-10	9.483900e+00	2.852797e+01
9.600000e-07	1.432253e-06	5.936953e-10	1.019185e+01	3.831633e+01
9.700000e-07	1.531297e-06	7.481988e-10	1.089664e+01	4.824953e+01
9.800000e-07	1.629718e-06	9.024262e-10	1.159701e+01	5.829705e+01
9.900000e-07	1.727323e-06	1.056554e-09	1.229156e+01	6.842465e+01
1.000000e-06	1.824029e-06	1.212982e-09	1.297972e+01	7.859510e+01
1.010000e-06	1.919991e-06	1.371178e-09	1.366258e+01	8.876909e+01
1.020000e-06	2.015269e-06	1.529242e-09	1.434058e+01	9.890620e+01
1.030000e-06	2.109841e-06	1.683464e-09	1.501354e+01	1.089660e+02
1.040000e-06	2.203688e-06	1.833894e-09	1.568136e+01	1.189089e+02
1.050000e-06	2.296771e-06	1.981672e-09	1.634373e+01	1.286980e+02
1.060000e-06	2.389130e-06	2.125976e-09	1.700095e+01	1.382994e+02
1.070000e-06	2.480828e-06	2.267406e-09	1.765347e+01	1.476832e+02
1.080000e-06	2.571796e-06	2.406897e-09	1.830080e+01	1.568245e+02
1.090000e-06	2.661691e-06	2.543468e-09	1.894049e+01	1.657032e+02
1.100000e-06	2.750333e-06	2.675752e-09	1.957126e+01	1.743038e+02
1.110000e-06	2.837954e-06	2.800366e-09	2.019477e+01	1.826152e+02
1.120000e-06	2.924664e-06	2.919036e-09	2.081179e+01	1.906303e+02
1.130000e-06	3.010412e-06	3.037163e-09	2.142197e+01	1.983452e+02
1.140000e-06	3.095200e-06	3.152835e-09	2.202532e+01	2.057591e+02
1.150000e-06	3.179045e-06	3.261664e-09	2.262195e+01	2.128741e+02
1.160000e-06	3.261919e-06	3.362704e-09	2.321169e+01	2.196950e+02
1.170000e-06	3.343574e-06	3.459100e-09	2.379274e+01	2.262300e+02
1.180000e-06	3.423918e-06	3.551803e-09	2.436446e+01	2.324897e+02
1.190000e-06	3.503029e-06	3.643158e-09	2.492741e+01	2.384875e+02
1.200000e-06	3.580913e-06	3.733845e-09	2.548164e+01	2.442387e+02
1.210000e-06	3.657591e-06	3.820545e-09	2.602727e+01	2.497596e+02
1.220000e-06	3.732988e-06	3.902690e-09	2.656379e+01	2.550662e+02
1.230000e-06	3.806806e-06	3.980607e-09	2.708908e+01	2.601732e+02
1.240000e-06	3.878955e-06	4.055393e-09	2.760249e+01	2.650933e+02
1.250000e-06	3.949631e-06	4.126971e-09	2.810542e+01	2.698362e+02
1.260000e-06	4.018936e-06	4.194572e-09	2.859858e+01	2.744090e+02
1.270000e-06	4.086942e-06	4.260697e-09	2.908252e+01	2.788165e+02
1.280000e-06	4.153571e-06	4.324554e-09	2.955665e+01	2.830620e+02
1.290000e-06	4.218502e-06	4.384799e-09	3.001869e+01	2.871477e+02
1.300000e-06	4.281775e-06	4.443665e-09	3.046894e+01	2.910759e+02
1.310000e-06	4.343595e-06	4.502429e-09	3.090884e+01	2.948485e+02
1.320000e-06	4.404060e-06	4.558196e-09	3.133912e+01	2.984675e+02
1.330000e-06	4.463114e-06	4.607789e-09	3.175934e+01	3.019344e+02
1.340000e-06	4.520395e-06	4.654761e-09	3.216695e+01	3.052497e+02
1.350000e-06	4.575908e-06	4.701960e-09	3.256198e+01	3.084128e+02
1.360000e-06	4.629820e-06	4.745727e-09	3.294562e+01	3.114219e+02
1.370000e-06	4.682037e-06	4.785288e-09	3.331718e+01	3.142749e+02
1.380000e-06	4.732213e-06	4.823356e-09	3.367424e+01	3.169702e+02
1.390000e-06	4.780341e-06	4.859595e-09	3.401672e+01	3.195083e+02
1.400000e-06	4.826780e-06	4.893901e-09	3.434717e+01	3.218923e+02
1.410000e-06	4.871646e-06	4.926077e-09	3.466644e+01	3.241290e+02
1.420000e-06	4.914945e-06	4.956436e-09	3.497455e+01	3.262283e+02
1.430000e-06	4.956389e-06	4.984515e-09	3.526946e+01	3.282020e+02
1.440000e-06	4.996009e-06	5.009215e-09	3.555140e+01	3.300627e+02
1.450000e-06	5.034022e-06	5.032548e-09	3.582190e+01	3.318213e+02
1.460000e-06	5.070425e-06	5.056399e-09	3.608094e+01	3.334856e+02
1.470000e-06	5.105093e-06	5.080145e-09	3.632764e+01	3.350590e+02
1.480000e-06	5.137800e-06	5.101966e-09	3.656038e+01	3.365409e+02
1.490000e-06	5.168645e-06	5.121901e-09	3.677987e+01	3.379272e+02
1.500000e-06	5.197790e-06	5.138756e-09	3.698726e+01	3.392129e+02
1.510000e-06	5.225225e-06	5.153475e-09	3.718249e+01	3.403934e+02
1.520000e-06	5.250689e-06	5.167868e-09	3.736369e+01	3.414675e+02
1.530000e-06	5.274076e-06	5.182188e-09	3.753011e+01	3.424376e+02
1.540000e-06	5.295609e-06	5.195807e-09	3.768334e+01	3.433101e+02
1.550000e-06	5.315427e-06	5.207577e-09	3.782436e+01	3.440940e+02
1.560000e-06	5.333337e-06	5.218289e-09	3.795181e+01	3.447987e+02
1.570000e-06	5.349216e-06	5.229262e-09	3.806480e+01	3.454312e+02
1.580000e-06	5.363172e-06	5.239785e-09	3.816412e+01	3.459946e+02
1.590000e-06	5.375175e-06	5.246535e-09	3.824953e+01	3.464863e+02
1.600000e-06	5.385003e-06	5.249895e-09	3.831946e+01	3.468994e+02
1.610000e-06	5.392670e-06	5.252868e-09	3.837402e+01	3.472240e+02
1.620000e-06	5.398449e-06	5.256929e-09	3.841514e+01	3.474504e+02
1.630000e-06	5.402498e-06	5.261452e-09	3.844396e+01	3.475725e+02
1.640000e-06	5.404636e-06	5.263631e-09	3.845917e+01	3.475902e+02
1.650000e-06	5.404752e-06	5.263538e-09	3.846000e+01	3.475107e+02
1.660000e-06	5.403042e-06	5.259732e-09	3.844783e+01	3.473473e+02
1.670000e-06	5.399703e-06	5.254369e-09	3.842407e+01	3.471175e+02
1.680000e-06	5.394698e-06	5.252390e-09	3.838845e+01	3.468382e+02
1.690000e-06	5.387762e-06	5.250028e-09	3.833910e+01	3.465220e+02
1.700000e-06	5.379037e-06	5.245790e-09	3.827701e+01	3.461733e+02
1.710000e-06	5.368762e-06	5.240060e-09	3.820389e+01	3.457870e+02
1.720000e-06	5.356747e-06	5.235553e-09	3.811840e+01	3.453491e+02
1.730000e-06	5.342711e-06	5.229573e-09	3.801852e+01	3.448398e+02
1.740000e-06	5.326562e-06	5.187373e-09	3.790360e+01	3.442387e+02
1.750000e-06	5.308011e-06	5.165929e-09	3.777160e+01	3.435300e+02
1.760000e-06	5.286798e-06	5.172391e-09	3.762064e+01	3.427079e+02
1.770000e-06	5.263398e-06	5.178351e-09	3.745413e+01	3.417786e+02
1.780000e-06	5.238873e-06	5.219704e-09	3.727961e+01	3.407607e+02
1.790000e-06	5.213650e-06	5.159062e-09	3.710013e+01	3.396818e+02
1.800000e-06	5.186823e-06	5.075364e-09	3.690923e+01	3.385725e+02
1.810000e-06	5.157774e-06	5.132495e-09	3.670251e+01	3.374595e+02
1.820000e-06	5.126991e-06	5.104775e-09	3.648347e+01	3.363594e+02
1.830000e-06	5.094454e-06	5.086618e-09	3.625193e+01	3.352734e+02
1.840000e-06	5.059962e-06	5.134815e-09	3.600648e+01	3.341862e+02
1.850000e-06	5.023900e-06	5.041774e-09	3.574987e+01	3.330677e+02
1.860000e-06	4.985992e-06	5.023108e-09	3.548012e+01	3.318790e+02
1.870000e-06	4.946225e-06	5.031593e-09	3.519714e+01	3.305793e+02
1.880000e-06	4.904805e-06	4.979485e-09	3.490239e+01	3.291337e+02
1.890000e-06	4.861551e-06	5.044543e-09	3.459460e+01	3.275206e+02
1.900000e-06	4.816734e-06	4.991123e-09	3.427569e+01	3.257350e+02
1.910000e-06	4.770042e-06	4.917591e-09	3.394343e+01	3.237891e+02
1.920000e-06	4.721306e-06	4.943829e-09	3.359662e+01	3.217089e+02
1.930000e-06	4.671022e-06	4.852202e-09	3.323880e+01	3.195283e+02
1.940000e-06	4.618942e-06	4.841302e-09	3.286821e+01	3.172817e+02
1.950000e-06	4.564729e-06	4.839606e-09	3.248243e+01	3.149967e+02
1.960000e-06	4.508582e-06	4.759116e-09	3.208289e+01	3.126892e+02
1.970000e-06	4.450780e-06	4.733994e-09	3.167157e+01	3.103608e+02
1.980000e-06	4.391559e-06	4.713506e-09	3.125016e+01	3.079998e+02
1.990000e-06	4.330810e-06	4.700163e-09	3.081787e+01	3.055854e+02
2.000000e-06	4.268383e-06	4.627000e-09	3.037364e+01	3.030926e+02
2.010000e-06	4.204352e-06	4.566257e-09	2.991800e+01	3.004990e+02
2.020000e-06	4.138810e-06	4.543283e-09	2.945160e+01	2.977894e+02
2.030000e-06	4.071848e-06	4.485336e-09	2.897510e+01	2.949586e+02
2.040000e-06	4.003476e-06	4.476301e-09	2.848857e+01	2.920120e+02
2.050000e-06	3.933637e-06	4.433535e-09	2.799160e+01	2.889635e+02
2.060000e-06	3.862322e-06	4.376197e-09	2.748413e+01	2.858313e+02
2.070000e-06	3.789646e-06	4.315478e-09	2.696697e+01	2.826336e+02
2.080000e-06	3.715668e-06	4.243131e-09	2.644054e+01	2.793844e+02
2.090000e-06	3.640335e-06	4.229431e-09	2.590448e+01	2.760909e+02
2.100000e-06	3.563504e-06	4.186365e-09	2.535775e+01	2.727524e+02
2.110000e-06	3.485084e-06	4.127849e-09	2.479972e+01	2.693615e+02
2.120000e-06	3.405327e-06	4.070792e-09	2.423217e+01	2.659067e+02
2.130000e-06	3.324443e-06	4.006336e-09	2.365661e+01	2.623755e+02
2.140000e-06	3.242422e-06	3.946817e-09	2.307294e+01	2.587572e+02
2.150000e-06	3.159339e-06	3.890612e-09	2.248173e+01	2.550452e+02
2.160000e-06	3.075287e-06	3.845797e-09	2.188362e+01	2.512381e+02
2.170000e-06	2.990050e-06	3.784116e-09	2.127708e+01	2.473385e+02
2.180000e-06	2.903457e-06	3.727172e-09	2.066088e+01	2.433519e+02
2.190000e-06	2.815700e-06	3.675753e-09	2.003641e+01	2.392845e+02
2.200000e-06	2.726995e-06	3.620639e-09	1.940518e+01	2.351409e+02
2.210000e-06	2.637407e-06	3.550134e-09	1.876768e+01	2.309232e+02
2.220000e-06	2.546892e-06	3.467871e-09	1.812358e+01	2.266300e+02
2.230000e-06	2.455543e-06	3.398569e-09	1.747355e+01	2.222570e+02
2.240000e-06	2.363468e-06	3.329481e-09	1.681834e+01	2.177980e+02
2.250000e-06	2.270602e-06	3.266321e-09	1.615751e+01	2.132466e+02
2.260000e-06	2.176835e-06	3.205013e-09	1.549027e+01	2.085974e+02
2.270000e-06	2.082007e-06	3.134293e-09	1.481548e+01	2.038469e+02
2.280000e-06	1.986228e-06	3.054870e-09	1.413392e+01	1.989939e+02
2.290000e-06	1.889790e-06	2.977767e-09	1.344767e+01	1.940393e+02
2.300000e-06	1.792794e-06	2.909501e-09	1.275745e+01	1.889850e+02
2.310000e-06	1.695249e-06	2.840117e-09	1.206333e+01	1.838333e+02
2.320000e-06	1.597103e-06	2.757421e-09	1.136492e+01	1.785861e+02
2.330000e-06	1.498403e-06	2.665931e-09	1.066257e+01	1.732438e+02
2.340000e-06	1.399269e-06	2.579433e-09	9.957144e+00	1.678054e+02
2.350000e-06	1.299729e-06	2.495250e-09	9.248822e+00	1.622688e+02
2.360000e-06	1.199909e-06	2.415154e-09	8.538507e+00	1.566309e+02
2.370000e-06	1.099933e-06	2.334825e-09	7.827082e+00	1.508879e+02
2.380000e-06	9.996300e-07	2.246352e-09	7.113327e+00	1.450363e+02
2.390000e-06	8.988737e-07	2.154038e-09	6.396349e+00	1.390727e+02
2.400000e-06	7.976407e-07	2.061065e-09	5.675979e+00	1.329939e+02
2.410000e-06	6.961036e-07	1.968714e-09	4.953446e+00	1.267968e+02
2.420000e-06	5.944209e-07	1.872615e-09	4.229875e+00	1.204785e+02
2.430000e-06	4.924516e-07	1.769021e-09	3.504266e+00	1.140358e+02
2.440000e-06	3.901834e-07	1.665440e-09	2.776529e+00	1.074652e+02
2.450000e-06	2.876570e-07	1.566054e-09	2.046956e+00	1.007628e+02
2.460000e-06	1.849346e-07	1.465260e-09	1.315987e+00	9.392431e+01
2.470000e-06	8.214914e-08	1.360950e-09	5.845700e-01	8.694479e+01
2.480000e-06	-2.061147e-08	1.249093e-09	-1.466704e-01	7.981861e+01
2.490000e-06	-1.233566e-07	1.130867e-09	-8.778004e-01	7.253923e+01
2.500000e-06	-2.260602e-07	1.014448e-09	-1.608636e+00	6.509904e+01
2.510000e-06	-3.286539e-07	9.021197e-10	-2.338688e+00	5.748924e+01
2.520000e-06	-4.311190e-07	7.882202e-10	-3.067826e+00	4.969999e+01
2.530000e-06	-5.334521e-07	6.653313e-10	-3.796024e+00	4.172078e+01
2.540000e-06	-6.356105e-07	5.358452e-10	-4.522979e+00	3.354115e+01
2.550000e-06	-7.374757e-07	4.053365e-10	-5.247848e+00	2.515163e+01
2.560000e-06	-8.389056e-07	2.735745e-10	-5.969618e+00	1.654489e+01
2.570000e-06	-9.398238e-07	1.386309e-10	-6.687748e+00	7.716922e+00
2.580000e-06	-1.040329e-06	6.872222e-13	-7.402940e+00	-1.331936e+00
2.590000e-06	-1.140525e-06	-1.394728e-10	-8.115930e+00	-1.059623e+01
2.600000e-06	-1.240423e-06	-2.821037e-10	-8.826801e+00	-2.006496e+01
2.610000e-06	-1.339956e-06	-4.273614e-10	-9.535072e+00	-2.972146e+01
2.620000e-06	-1.439002e-06	-5.763390e-10	-1.023988e+01	-3.954364e+01
2.630000e-06	-1.537483e-06	-7.297834e-10	-1.094067e+01	-4.950447e+01
2.640000e-06	-1.635396e-06	-8.859736e-10	-1.163742e+01	-5.957258e+01
2.650000e-06	-1.732728e-06	-1.041632e-09	-1.233002e+01	-6.971301e+01
2.660000e-06	-1.829461e-06	-1.195024e-09	-1.301837e+01	-7.988800e+01
2.670000e-06	-1.925691e-06	-1.346543e-09	-1.370314e+01	-9.005794e+01
2.680000e-06	-2.021463e-06	-1.496393e-09	-1.438465e+01	-1.001823e+02
2.690000e-06	-2.116478e-06	-1.645663e-09	-1.506077e+01	-1.102207e+02
2.700000e-06	-2.210388e-06	-1.795859e-09	-1.572903e+01	-1.201342e+02
2.710000e-06	-2.303266e-06	-1.948643e-09	-1.638995e+01	-1.298862e+02
2.720000e-06	-2.395340e-06	-2.099191e-09	-1.704514e+01	-1.394437e+02
2.730000e-06	-2.486617e-06	-2.244455e-09	-1.769467e+01	-1.487779e+02
2.740000e-06	-2.576986e-06	-2.386278e-09	-1.833773e+01	-1.578649e+02
2.750000e-06	-2.666414e-06	-2.524152e-09	-1.897409e+01	-1.666855e+02
2.760000e-06	-2.754978e-06	-2.654716e-09	-1.960431e+01	-1.752254e+02
2.770000e-06	-2.842792e-06	-2.776554e-09	-2.022919e+01	-1.834743e+02
2.780000e-06	-2.929705e-06	-2.894328e-09	-2.084766e+01	-1.914257e+02
2.790000e-06	-3.015376e-06	-3.010526e-09	-2.145730e+01	-1.990765e+02
2.800000e-06	-3.099849e-06	-3.125072e-09	-2.205840e+01	-2.064265e+02
2.810000e-06	-3.183321e-06	-3.236064e-09	-2.265239e+01	-2.134784e+02
2.820000e-06	-3.265772e-06	-3.340896e-09	-2.323910e+01	-2.202377e+02
2.830000e-06	-3.347091e-06	-3.440578e-09	-2.381776e+01	-2.267131e+02
2.840000e-06	-3.427263e-06	-3.536454e-09	-2.438827e+01	-2.329159e+02
2.850000e-06	-3.506230e-06	-3.629311e-09	-2.495019e+01	-2.388599e+02
2.860000e-06	-3.583751e-06	-3.718453e-09	-2.550183e+01	-2.445609e+02
2.870000e-06	-3.659766e-06	-3.800272e-09	-2.604275e+01	-2.500349e+02
2.880000e-06	-3.734370e-06	-3.876401e-09	-2.657363e+01	-2.552980e+02
2.890000e-06	-3.807614e-06	-3.951025e-09	-2.709483e+01	-2.603645e+02
2.900000e-06	-3.879581e-06	-4.026206e-09	-2.760694e+01	-2.652462e+02
2.910000e-06	-3.950081e-06	-4.099792e-09	-2.810862e+01	-2.699526e+02
2.920000e-06	-4.018959e-06	-4.170974e-09	-2.859875e+01	-2.744901e+02
2.930000e-06	-4.086391e-06	-4.241336e-09	-2.907860e+01	-2.788631e+02
2.940000e-06	-4.152461e-06	-4.308892e-09	-2.954874e+01	-2.830746e+02
