# Temperatura_=_31.22
# Concentracion g/m^3_=_15000.0
# C_Vs_to_Am_M_A/Vsm_=_65563218390.804596
# pendiente_HvsI_1/m_=_3716.3
# ordenada_HvsI_A/m_=_1297.0
# frecuencia_Hz_=_301576.1033014211

Tiempo_(s)	Campo_(V.s)	Magnetizacion_(V.s)	Campo_(kA/m)	Magnetizacion_(A/m)
0.000000e+00	-5.394345e-06	-4.670887e-09	-3.833960e+01	-3.048314e+02
1.000000e-08	-5.391341e-06	-4.669810e-09	-3.831825e+01	-3.046460e+02
2.000000e-08	-5.386531e-06	-4.664729e-09	-3.828406e+01	-3.044165e+02
3.000000e-08	-5.380156e-06	-4.656667e-09	-3.823875e+01	-3.041545e+02
4.000000e-08	-5.372178e-06	-4.649352e-09	-3.818205e+01	-3.038650e+02
5.000000e-08	-5.362279e-06	-4.642834e-09	-3.811169e+01	-3.035457e+02
6.000000e-08	-5.350371e-06	-4.641278e-09	-3.802706e+01	-3.031875e+02
7.000000e-08	-5.336575e-06	-4.648985e-09	-3.792901e+01	-3.027768e+02
8.000000e-08	-5.320696e-06	-4.622566e-09	-3.781615e+01	-3.022990e+02
9.000000e-08	-5.302596e-06	-4.615958e-09	-3.768750e+01	-3.017421e+02
1.000000e-07	-5.282427e-06	-4.632116e-09	-3.754416e+01	-3.010997e+02
1.100000e-07	-5.260359e-06	-4.595495e-09	-3.738731e+01	-3.003726e+02
1.200000e-07	-5.236601e-06	-4.593454e-09	-3.721846e+01	-2.995686e+02
1.300000e-07	-5.211290e-06	-4.602746e-09	-3.703856e+01	-2.987010e+02
1.400000e-07	-5.184307e-06	-4.478976e-09	-3.684678e+01	-2.977846e+02
1.500000e-07	-5.155772e-06	-4.553224e-09	-3.664397e+01	-2.968330e+02
1.600000e-07	-5.125834e-06	-4.578191e-09	-3.643120e+01	-2.958547e+02
1.700000e-07	-5.094200e-06	-4.449930e-09	-3.620636e+01	-2.948514e+02
1.800000e-07	-5.060431e-06	-4.544337e-09	-3.596635e+01	-2.938173e+02
1.900000e-07	-5.024867e-06	-4.492291e-09	-3.571358e+01	-2.927403e+02
2.000000e-07	-4.987862e-06	-4.398572e-09	-3.545057e+01	-2.916046e+02
2.100000e-07	-4.949105e-06	-4.484096e-09	-3.517511e+01	-2.903940e+02
2.200000e-07	-4.908495e-06	-4.439749e-09	-3.488648e+01	-2.890950e+02
2.300000e-07	-4.865887e-06	-4.392099e-09	-3.458365e+01	-2.876996e+02
2.400000e-07	-4.821347e-06	-4.406707e-09	-3.426709e+01	-2.862061e+02
2.500000e-07	-4.775065e-06	-4.325523e-09	-3.393815e+01	-2.846192e+02
2.600000e-07	-4.726874e-06	-4.329511e-09	-3.359564e+01	-2.829488e+02
2.700000e-07	-4.676628e-06	-4.300329e-09	-3.323852e+01	-2.812070e+02
2.800000e-07	-4.624296e-06	-4.257736e-09	-3.286658e+01	-2.794063e+02
2.900000e-07	-4.570039e-06	-4.246516e-09	-3.248095e+01	-2.775568e+02
3.000000e-07	-4.514183e-06	-4.220524e-09	-3.208397e+01	-2.756649e+02
3.100000e-07	-4.456626e-06	-4.193210e-09	-3.167488e+01	-2.737323e+02
3.200000e-07	-4.397296e-06	-4.139870e-09	-3.125320e+01	-2.717567e+02
3.300000e-07	-4.336464e-06	-4.127717e-09	-3.082085e+01	-2.697329e+02
3.400000e-07	-4.274179e-06	-4.085931e-09	-3.037817e+01	-2.676539e+02
3.500000e-07	-4.210529e-06	-4.029677e-09	-2.992578e+01	-2.655128e+02
3.600000e-07	-4.145358e-06	-4.020642e-09	-2.946259e+01	-2.633037e+02
3.700000e-07	-4.078470e-06	-3.991190e-09	-2.898719e+01	-2.610232e+02
3.800000e-07	-4.010140e-06	-3.948487e-09	-2.850154e+01	-2.586699e+02
3.900000e-07	-3.940425e-06	-3.905723e-09	-2.800605e+01	-2.562450e+02
4.000000e-07	-3.869400e-06	-3.865248e-09	-2.750125e+01	-2.537510e+02
4.100000e-07	-3.797177e-06	-3.834186e-09	-2.698794e+01	-2.511917e+02
4.200000e-07	-3.723448e-06	-3.779827e-09	-2.646391e+01	-2.485709e+02
4.300000e-07	-3.648068e-06	-3.745895e-09	-2.592816e+01	-2.458921e+02
4.400000e-07	-3.571174e-06	-3.712989e-09	-2.538165e+01	-2.431574e+02
4.500000e-07	-3.492866e-06	-3.667630e-09	-2.482509e+01	-2.403676e+02
4.600000e-07	-3.413207e-06	-3.613026e-09	-2.425892e+01	-2.375216e+02
4.700000e-07	-3.332294e-06	-3.558067e-09	-2.368384e+01	-2.346168e+02
4.800000e-07	-3.250173e-06	-3.526692e-09	-2.310018e+01	-2.316491e+02
4.900000e-07	-3.166933e-06	-3.480010e-09	-2.250856e+01	-2.286134e+02
5.000000e-07	-3.082770e-06	-3.429884e-09	-2.191038e+01	-2.255045e+02
5.100000e-07	-2.997721e-06	-3.379966e-09	-2.130591e+01	-2.223177e+02
5.200000e-07	-2.911648e-06	-3.329441e-09	-2.069415e+01	-2.190494e+02
5.300000e-07	-2.824573e-06	-3.269708e-09	-2.007528e+01	-2.156975e+02
5.400000e-07	-2.736573e-06	-3.208486e-09	-1.944984e+01	-2.122620e+02
5.500000e-07	-2.647512e-06	-3.156206e-09	-1.881685e+01	-2.087438e+02
5.600000e-07	-2.557198e-06	-3.102341e-09	-1.817495e+01	-2.051449e+02
5.700000e-07	-2.465868e-06	-3.050404e-09	-1.752584e+01	-2.014670e+02
5.800000e-07	-2.373801e-06	-2.994057e-09	-1.687148e+01	-1.977108e+02
5.900000e-07	-2.280886e-06	-2.939556e-09	-1.621110e+01	-1.938753e+02
6.000000e-07	-2.187104e-06	-2.877962e-09	-1.554455e+01	-1.899574e+02
6.100000e-07	-2.092554e-06	-2.810566e-09	-1.487255e+01	-1.859524e+02
6.200000e-07	-1.997335e-06	-2.743701e-09	-1.419579e+01	-1.818547e+02
6.300000e-07	-1.901530e-06	-2.679552e-09	-1.351488e+01	-1.776587e+02
6.400000e-07	-1.804990e-06	-2.615869e-09	-1.282873e+01	-1.733600e+02
6.500000e-07	-1.707582e-06	-2.548988e-09	-1.213641e+01	-1.689564e+02
6.600000e-07	-1.609382e-06	-2.481627e-09	-1.143847e+01	-1.644484e+02
6.700000e-07	-1.510535e-06	-2.409762e-09	-1.073593e+01	-1.598383e+02
6.800000e-07	-1.411212e-06	-2.336746e-09	-1.003001e+01	-1.551299e+02
6.900000e-07	-1.311506e-06	-2.261321e-09	-9.321359e+00	-1.503270e+02
7.000000e-07	-1.211476e-06	-2.186296e-09	-8.610407e+00	-1.454320e+02
7.100000e-07	-1.111133e-06	-2.110511e-09	-7.897234e+00	-1.404450e+02
7.200000e-07	-1.010427e-06	-2.031873e-09	-7.181477e+00	-1.353630e+02
7.300000e-07	-9.092979e-07	-1.949990e-09	-6.462716e+00	-1.301803e+02
7.400000e-07	-8.078633e-07	-1.869014e-09	-5.741782e+00	-1.248894e+02
7.500000e-07	-7.061781e-07	-1.789370e-09	-5.019068e+00	-1.194822e+02
7.600000e-07	-6.042070e-07	-1.705092e-09	-4.294322e+00	-1.139520e+02
7.700000e-07	-5.020371e-07	-1.617114e-09	-3.568163e+00	-1.082937e+02
7.800000e-07	-3.997258e-07	-1.527434e-09	-2.840998e+00	-1.025053e+02
7.900000e-07	-2.972901e-07	-1.438763e-09	-2.112950e+00	-9.658709e+01
8.000000e-07	-1.947268e-07	-1.347011e-09	-1.383995e+00	-9.054101e+01
8.100000e-07	-9.210118e-08	-1.253316e-09	-6.545970e-01	-8.436905e+01
8.200000e-07	1.055806e-08	-1.159301e-09	7.504004e-02	-7.807190e+01
8.300000e-07	1.132771e-07	-1.062381e-09	8.051018e-01	-7.164767e+01
8.400000e-07	2.159973e-07	-9.620880e-10	1.535172e+00	-6.509135e+01
8.500000e-07	3.186574e-07	-8.600851e-10	2.264816e+00	-5.839497e+01
8.600000e-07	4.212248e-07	-7.573210e-10	2.993800e+00	-5.154856e+01
8.700000e-07	5.236806e-07	-6.484929e-10	3.721991e+00	-4.454145e+01
8.800000e-07	6.259570e-07	-5.376106e-10	4.448907e+00	-3.736378e+01
8.900000e-07	7.280341e-07	-4.286571e-10	5.174407e+00	-3.000776e+01
9.000000e-07	8.298722e-07	-3.200488e-10	5.898208e+00	-2.246836e+01
9.100000e-07	9.313752e-07	-2.046343e-10	6.619627e+00	-1.474351e+01
9.200000e-07	1.032529e-06	-8.410301e-11	7.338563e+00	-6.833737e+00
9.300000e-07	1.133323e-06	3.722726e-11	8.054943e+00	1.258308e+00
9.400000e-07	1.233754e-06	1.613151e-10	8.768745e+00	9.528306e+00
9.500000e-07	1.333772e-06	2.888084e-10	9.479612e+00	1.797024e+01
9.600000e-07	1.433343e-06	4.208368e-10	1.018730e+01	2.657581e+01
9.700000e-07	1.532420e-06	5.543969e-10	1.089147e+01	3.533333e+01
9.800000e-07	1.630904e-06	6.891510e-10	1.159143e+01	4.422638e+01
9.900000e-07	1.728639e-06	8.247150e-10	1.228608e+01	5.323249e+01
1.000000e-06	1.825543e-06	9.624557e-10	1.297480e+01	6.232240e+01
1.010000e-06	1.921637e-06	1.101650e-09	1.365778e+01	7.146021e+01
1.020000e-06	2.016964e-06	1.243222e-09	1.433530e+01	8.060449e+01
1.030000e-06	2.111669e-06	1.384858e-09	1.500841e+01	8.971036e+01
1.040000e-06	2.205721e-06	1.521181e-09	1.567687e+01	9.873215e+01
1.050000e-06	2.299000e-06	1.653978e-09	1.633984e+01	1.076263e+02
1.060000e-06	2.391519e-06	1.784570e-09	1.699741e+01	1.163537e+02
1.070000e-06	2.483287e-06	1.912561e-09	1.764963e+01	1.248816e+02
1.080000e-06	2.574207e-06	2.037764e-09	1.829584e+01	1.331844e+02
1.090000e-06	2.664070e-06	2.161200e-09	1.893452e+01	1.412433e+02
1.100000e-06	2.752790e-06	2.282175e-09	1.956509e+01	1.490456e+02
1.110000e-06	2.840476e-06	2.395787e-09	2.018831e+01	1.565831e+02
1.120000e-06	2.927240e-06	2.504094e-09	2.080497e+01	1.638512e+02
1.130000e-06	3.013072e-06	2.610815e-09	2.141502e+01	1.708480e+02
1.140000e-06	3.097954e-06	2.716073e-09	2.201830e+01	1.775739e+02
1.150000e-06	3.181887e-06	2.814395e-09	2.261484e+01	1.840314e+02
1.160000e-06	3.264813e-06	2.905802e-09	2.320423e+01	1.902260e+02
1.170000e-06	3.346518e-06	2.994180e-09	2.378494e+01	1.961662e+02
1.180000e-06	3.426877e-06	3.080855e-09	2.435608e+01	2.018632e+02
1.190000e-06	3.506031e-06	3.165667e-09	2.491865e+01	2.073305e+02
1.200000e-06	3.583997e-06	3.248018e-09	2.547279e+01	2.125827e+02
1.210000e-06	3.660716e-06	3.327369e-09	2.601806e+01	2.176344e+02
1.220000e-06	3.736127e-06	3.403802e-09	2.655403e+01	2.224980e+02
1.230000e-06	3.810033e-06	3.476792e-09	2.707931e+01	2.271835e+02
1.240000e-06	3.882303e-06	3.544352e-09	2.759296e+01	2.316976e+02
1.250000e-06	3.953098e-06	3.606981e-09	2.809612e+01	2.360440e+02
1.260000e-06	4.022540e-06	3.667515e-09	2.858967e+01	2.402244e+02
1.270000e-06	4.090611e-06	3.729402e-09	2.907348e+01	2.442400e+02
1.280000e-06	4.157288e-06	3.788456e-09	2.954738e+01	2.480922e+02
1.290000e-06	4.222342e-06	3.843754e-09	3.000974e+01	2.517837e+02
1.300000e-06	4.285768e-06	3.896031e-09	3.046053e+01	2.553185e+02
1.310000e-06	4.347742e-06	3.945302e-09	3.090100e+01	2.587015e+02
1.320000e-06	4.408283e-06	3.991174e-09	3.133129e+01	2.619375e+02
1.330000e-06	4.467402e-06	4.033623e-09	3.175147e+01	2.650301e+02
1.340000e-06	4.524881e-06	4.074428e-09	3.216000e+01	2.679809e+02
1.350000e-06	4.580554e-06	4.114240e-09	3.255569e+01	2.707893e+02
1.360000e-06	4.634544e-06	4.152677e-09	3.293941e+01	2.734533e+02
1.370000e-06	4.686817e-06	4.188971e-09	3.331094e+01	2.759709e+02
1.380000e-06	4.737190e-06	4.223842e-09	3.366896e+01	2.783417e+02
1.390000e-06	4.785580e-06	4.255780e-09	3.401288e+01	2.805684e+02
1.400000e-06	4.832131e-06	4.284641e-09	3.434374e+01	2.826578e+02
1.410000e-06	4.877063e-06	4.310967e-09	3.466309e+01	2.846209e+02
1.420000e-06	4.920402e-06	4.335242e-09	3.497111e+01	2.864716e+02
1.430000e-06	4.961961e-06	4.359510e-09	3.526649e+01	2.882245e+02
1.440000e-06	5.001698e-06	4.383592e-09	3.554891e+01	2.898929e+02
1.450000e-06	5.039739e-06	4.406850e-09	3.581928e+01	2.914857e+02
1.460000e-06	5.076141e-06	4.428969e-09	3.607801e+01	2.930068e+02
1.470000e-06	5.110820e-06	4.451895e-09	3.632448e+01	2.944540e+02
1.480000e-06	5.143546e-06	4.475215e-09	3.655708e+01	2.958209e+02
1.490000e-06	5.174428e-06	4.495020e-09	3.677657e+01	2.970982e+02
1.500000e-06	5.203640e-06	4.510360e-09	3.698419e+01	2.982775e+02
1.510000e-06	5.231127e-06	4.523750e-09	3.717954e+01	2.993532e+02
1.520000e-06	5.256687e-06	4.536635e-09	3.736121e+01	3.003244e+02
1.530000e-06	5.280180e-06	4.550039e-09	3.752819e+01	3.011958e+02
1.540000e-06	5.301750e-06	4.562441e-09	3.768150e+01	3.019765e+02
1.550000e-06	5.321560e-06	4.574017e-09	3.782229e+01	3.026773e+02
1.560000e-06	5.339527e-06	4.585778e-09	3.794998e+01	3.033089e+02
1.570000e-06	5.355529e-06	4.597287e-09	3.806372e+01	3.038783e+02
1.580000e-06	5.369589e-06	4.608073e-09	3.816365e+01	3.043874e+02
1.590000e-06	5.381617e-06	4.615822e-09	3.824914e+01	3.048327e+02
1.600000e-06	5.391361e-06	4.619882e-09	3.831839e+01	3.052064e+02
1.610000e-06	5.399003e-06	4.621376e-09	3.837270e+01	3.054987e+02
1.620000e-06	5.404879e-06	4.624547e-09	3.841447e+01	3.057011e+02
1.630000e-06	5.408946e-06	4.629873e-09	3.844337e+01	3.058092e+02
1.640000e-06	5.411114e-06	4.632392e-09	3.845878e+01	3.058246e+02
1.650000e-06	5.411285e-06	4.633016e-09	3.846000e+01	3.057554e+02
1.660000e-06	5.409596e-06	4.634059e-09	3.844799e+01	3.056147e+02
1.670000e-06	5.406240e-06	4.631343e-09	3.842414e+01	3.054183e+02
1.680000e-06	5.401177e-06	4.631726e-09	3.838815e+01	3.051808e+02
1.690000e-06	5.394215e-06	4.629863e-09	3.833867e+01	3.049123e+02
1.700000e-06	5.385514e-06	4.624513e-09	3.827683e+01	3.046165e+02
1.710000e-06	5.375231e-06	4.616639e-09	3.820375e+01	3.042894e+02
1.720000e-06	5.363163e-06	4.596883e-09	3.811797e+01	3.039208e+02
1.730000e-06	5.349154e-06	4.600693e-09	3.801841e+01	3.034966e+02
1.740000e-06	5.332999e-06	4.598224e-09	3.790359e+01	3.030023e+02
1.750000e-06	5.314409e-06	4.560290e-09	3.777146e+01	3.024270e+02
1.760000e-06	5.293204e-06	4.581972e-09	3.762075e+01	3.017658e+02
1.770000e-06	5.269813e-06	4.557861e-09	3.745450e+01	3.010210e+02
1.780000e-06	5.245277e-06	4.550394e-09	3.728012e+01	3.002018e+02
1.790000e-06	5.220021e-06	4.631326e-09	3.710061e+01	2.993220e+02
1.800000e-06	5.193189e-06	4.467434e-09	3.690991e+01	2.983967e+02
1.810000e-06	5.164118e-06	4.482028e-09	3.670329e+01	2.974385e+02
1.820000e-06	5.133226e-06	4.586489e-09	3.648373e+01	2.964547e+02
1.830000e-06	5.100601e-06	4.404413e-09	3.625185e+01	2.954451e+02
1.840000e-06	5.066026e-06	4.476611e-09	3.600612e+01	2.944026e+02
1.850000e-06	5.029862e-06	4.543206e-09	3.574909e+01	2.933141e+02
1.860000e-06	4.991949e-06	4.387289e-09	3.547962e+01	2.921632e+02
1.870000e-06	4.952165e-06	4.442749e-09	3.519686e+01	2.909343e+02
1.880000e-06	4.910728e-06	4.390361e-09	3.490235e+01	2.896148e+02
1.890000e-06	4.867477e-06	4.353240e-09	3.459496e+01	2.881979e+02
1.900000e-06	4.822535e-06	4.420929e-09	3.427553e+01	2.866834e+02
1.910000e-06	4.775746e-06	4.284427e-09	3.394299e+01	2.850773e+02
1.920000e-06	4.726979e-06	4.338696e-09	3.359639e+01	2.833901e+02
1.930000e-06	4.676638e-06	4.315179e-09	3.323859e+01	2.816344e+02
1.940000e-06	4.624508e-06	4.216719e-09	3.286808e+01	2.798221e+02
1.950000e-06	4.570221e-06	4.254683e-09	3.248224e+01	2.779628e+02
1.960000e-06	4.514013e-06	4.186014e-09	3.208275e+01	2.760617e+02
1.970000e-06	4.456212e-06	4.196046e-09	3.167194e+01	2.741199e+02
1.980000e-06	4.397026e-06	4.143181e-09	3.125129e+01	2.721342e+02
1.990000e-06	4.336305e-06	4.099718e-09	3.081972e+01	2.700988e+02
2.000000e-06	4.273842e-06	4.133535e-09	3.037577e+01	2.680066e+02
2.010000e-06	4.209739e-06	4.018532e-09	2.992016e+01	2.658510e+02
2.020000e-06	4.144138e-06	4.011993e-09	2.945391e+01	2.636265e+02
2.030000e-06	4.077179e-06	3.986587e-09	2.897801e+01	2.613300e+02
2.040000e-06	4.008841e-06	3.950507e-09	2.849231e+01	2.589609e+02
2.050000e-06	3.938966e-06	3.928456e-09	2.799569e+01	2.565205e+02
2.060000e-06	3.867523e-06	3.853633e-09	2.748791e+01	2.540118e+02
2.070000e-06	3.794724e-06	3.865829e-09	2.697050e+01	2.514387e+02
2.080000e-06	3.720672e-06	3.795908e-09	2.644419e+01	2.488048e+02
2.090000e-06	3.645291e-06	3.744674e-09	2.590843e+01	2.461135e+02
2.100000e-06	3.568450e-06	3.711273e-09	2.536229e+01	2.433666e+02
2.110000e-06	3.489940e-06	3.672797e-09	2.480429e+01	2.405646e+02
2.120000e-06	3.410049e-06	3.650885e-09	2.423648e+01	2.377059e+02
2.130000e-06	3.329106e-06	3.570974e-09	2.366118e+01	2.347876e+02
2.140000e-06	3.247019e-06	3.542922e-09	2.307776e+01	2.318054e+02
2.150000e-06	3.163810e-06	3.496320e-09	2.248636e+01	2.287541e+02
2.160000e-06	3.079583e-06	3.444009e-09	2.188773e+01	2.256285e+02
2.170000e-06	2.994265e-06	3.398293e-09	2.128134e+01	2.224241e+02
2.180000e-06	2.907565e-06	3.357242e-09	2.066514e+01	2.191376e+02
2.190000e-06	2.819644e-06	3.321003e-09	2.004025e+01	2.157675e+02
2.200000e-06	2.730908e-06	3.256424e-09	1.940957e+01	2.123137e+02
2.210000e-06	2.641232e-06	3.201987e-09	1.877221e+01	2.087777e+02
2.220000e-06	2.550581e-06	3.143160e-09	1.812792e+01	2.051614e+02
2.230000e-06	2.459145e-06	3.089413e-09	1.747805e+01	2.014663e+02
2.240000e-06	2.366976e-06	3.023006e-09	1.682297e+01	1.976929e+02
2.250000e-06	2.274020e-06	2.966055e-09	1.616230e+01	1.938397e+02
2.260000e-06	2.180147e-06	2.918147e-09	1.549511e+01	1.899032e+02
2.270000e-06	2.085217e-06	2.859285e-09	1.482041e+01	1.858785e+02
2.280000e-06	1.989353e-06	2.794765e-09	1.413907e+01	1.817597e+02
2.290000e-06	1.892835e-06	2.726603e-09	1.345308e+01	1.775416e+02
2.300000e-06	1.795766e-06	2.664179e-09	1.276317e+01	1.732202e+02
2.310000e-06	1.698135e-06	2.597900e-09	1.206927e+01	1.687938e+02
2.320000e-06	1.599932e-06	2.529325e-09	1.137130e+01	1.642632e+02
2.330000e-06	1.501212e-06	2.457440e-09	1.066967e+01	1.596314e+02
2.340000e-06	1.402039e-06	2.389276e-09	9.964811e+00	1.549020e+02
2.350000e-06	1.302473e-06	2.315871e-09	9.257155e+00	1.500789e+02
2.360000e-06	1.202582e-06	2.239711e-09	8.547194e+00	1.451640e+02
2.370000e-06	1.102448e-06	2.167647e-09	7.835504e+00	1.401566e+02
2.380000e-06	1.002027e-06	2.092862e-09	7.121775e+00	1.350532e+02
2.390000e-06	9.011560e-07	2.014497e-09	6.404848e+00	1.298476e+02
2.400000e-06	7.997838e-07	1.931160e-09	5.684358e+00	1.245320e+02
2.410000e-06	6.980953e-07	1.848592e-09	4.961620e+00	1.190987e+02
2.420000e-06	5.962347e-07	1.765161e-09	4.237660e+00	1.135409e+02
2.430000e-06	4.940685e-07	1.676192e-09	3.511527e+00	1.078545e+02
2.440000e-06	3.915775e-07	1.585523e-09	2.783086e+00	1.020378e+02
2.450000e-06	2.888932e-07	1.498668e-09	2.053271e+00	9.609166e+01
2.460000e-06	1.860867e-07	1.408178e-09	1.322587e+00	9.001808e+01
2.470000e-06	8.311838e-08	1.312484e-09	5.907530e-01	8.381895e+01
2.480000e-06	-1.989332e-08	1.213710e-09	-1.413891e-01	7.749446e+01
2.490000e-06	-1.228321e-07	1.113075e-09	-8.730134e-01	7.104208e+01
2.500000e-06	-2.256920e-07	1.012381e-09	-1.604076e+00	6.445614e+01
2.510000e-06	-3.285098e-07	9.099988e-10	-2.334841e+00	5.772813e+01
2.520000e-06	-4.312649e-07	8.074529e-10	-3.065158e+00	5.084780e+01
2.530000e-06	-5.338249e-07	7.002766e-10	-3.794091e+00	4.380455e+01
2.540000e-06	-6.361407e-07	5.870458e-10	-4.521286e+00	3.658887e+01
2.550000e-06	-7.380970e-07	4.716568e-10	-5.245928e+00	2.919350e+01
2.560000e-06	-8.396944e-07	3.536133e-10	-5.968018e+00	2.161407e+01
2.570000e-06	-9.408658e-07	2.327956e-10	-6.687080e+00	1.384909e+01
2.580000e-06	-1.041534e-06	1.089660e-10	-7.402567e+00	5.899614e+00
2.590000e-06	-1.141770e-06	-1.685466e-11	-8.114979e+00	-2.231351e+00
2.600000e-06	-1.241656e-06	-1.430703e-10	-8.824907e+00	-1.053913e+01
2.610000e-06	-1.341174e-06	-2.718085e-10	-9.532218e+00	-1.901729e+01
2.620000e-06	-1.440264e-06	-4.050070e-10	-1.023649e+01	-2.765692e+01
2.630000e-06	-1.538869e-06	-5.403297e-10	-1.093731e+01	-3.644543e+01
2.640000e-06	-1.636924e-06	-6.760406e-10	-1.163422e+01	-4.536519e+01
2.650000e-06	-1.734419e-06	-8.141365e-10	-1.232715e+01	-5.439232e+01
2.660000e-06	-1.831301e-06	-9.546117e-10	-1.301573e+01	-6.349609e+01
2.670000e-06	-1.927632e-06	-1.094769e-09	-1.370039e+01	-7.263930e+01
2.680000e-06	-2.023405e-06	-1.234081e-09	-1.438109e+01	-8.177957e+01
2.690000e-06	-2.118465e-06	-1.371120e-09	-1.505671e+01	-9.087161e+01
2.700000e-06	-2.212669e-06	-1.507050e-09	-1.572625e+01	-9.986996e+01
2.710000e-06	-2.305868e-06	-1.644145e-09	-1.638865e+01	-1.087318e+02
2.720000e-06	-2.398052e-06	-1.778807e-09	-1.704384e+01	-1.174193e+02
2.730000e-06	-2.489359e-06	-1.910917e-09	-1.769279e+01	-1.259013e+02
2.740000e-06	-2.579872e-06	-2.038577e-09	-1.833610e+01	-1.341536e+02
2.750000e-06	-2.669436e-06	-2.161840e-09	-1.897266e+01	-1.421588e+02
2.760000e-06	-2.758038e-06	-2.279921e-09	-1.960240e+01	-1.499052e+02
2.770000e-06	-2.845835e-06	-2.392477e-09	-2.022640e+01	-1.573857e+02
2.780000e-06	-2.932729e-06	-2.501566e-09	-2.084398e+01	-1.645961e+02
2.790000e-06	-3.018468e-06	-2.606581e-09	-2.145336e+01	-1.715351e+02
2.800000e-06	-3.103000e-06	-2.708926e-09	-2.205416e+01	-1.782035e+02
2.810000e-06	-3.186485e-06	-2.808465e-09	-2.264753e+01	-1.846045e+02
2.820000e-06	-3.268957e-06	-2.903414e-09	-2.323368e+01	-1.907442e+02
2.830000e-06	-3.350384e-06	-2.993996e-09	-2.381241e+01	-1.966316e+02
2.840000e-06	-3.430730e-06	-3.079705e-09	-2.438346e+01	-2.022785e+02
2.850000e-06	-3.509905e-06	-3.160987e-09	-2.494619e+01	-2.076988e+02
2.860000e-06	-3.587666e-06	-3.238559e-09	-2.549886e+01	-2.129073e+02
2.870000e-06	-3.663829e-06	-3.312928e-09	-2.604018e+01	-2.179181e+02
2.880000e-06	-3.738506e-06	-3.385660e-09	-2.657094e+01	-2.227432e+02
2.890000e-06	-3.811830e-06	-3.456932e-09	-2.709208e+01	-2.273919e+02
2.900000e-06	-3.883854e-06	-3.526139e-09	-2.760398e+01	-2.318701e+02
2.910000e-06	-3.954461e-06	-3.592092e-09	-2.810582e+01	-2.361812e+02
2.920000e-06	-4.023458e-06	-3.656618e-09	-2.859620e+01	-2.403267e+02
2.930000e-06	-4.090956e-06	-3.720192e-09	-2.907593e+01	-2.443075e+02
2.940000e-06	-4.157097e-06	-3.780337e-09	-2.954602e+01	-2.481253e+02
