# Temperatura_=_62.61
# Concentracion g/m^3_=_15000.0
# C_Vs_to_Am_M_A/Vsm_=_65563218390.804596
# pendiente_HvsI_1/m_=_3716.3
# ordenada_HvsI_A/m_=_1297.0
# frecuencia_Hz_=_301578.6509895723

Tiempo_(s)	Campo_(V.s)	Magnetizacion_(V.s)	Campo_(kA/m)	Magnetizacion_(A/m)
0.000000e+00	-5.378771e-06	-5.596191e-09	-3.834047e+01	-3.645226e+02
1.000000e-08	-5.376167e-06	-5.596636e-09	-3.832191e+01	-3.643062e+02
2.000000e-08	-5.371722e-06	-5.590260e-09	-3.829022e+01	-3.640260e+02
3.000000e-08	-5.365666e-06	-5.581301e-09	-3.824705e+01	-3.636901e+02
4.000000e-08	-5.358089e-06	-5.573290e-09	-3.819304e+01	-3.633012e+02
5.000000e-08	-5.348602e-06	-5.564338e-09	-3.812542e+01	-3.628554e+02
6.000000e-08	-5.337000e-06	-5.555007e-09	-3.804272e+01	-3.623431e+02
7.000000e-08	-5.323511e-06	-5.542808e-09	-3.794657e+01	-3.617509e+02
8.000000e-08	-5.308013e-06	-5.527614e-09	-3.783609e+01	-3.610658e+02
9.000000e-08	-5.290265e-06	-5.547110e-09	-3.770959e+01	-3.602786e+02
1.000000e-07	-5.270433e-06	-5.555797e-09	-3.756823e+01	-3.593871e+02
1.100000e-07	-5.248755e-06	-5.519643e-09	-3.741370e+01	-3.583981e+02
1.200000e-07	-5.225361e-06	-5.494101e-09	-3.724694e+01	-3.573268e+02
1.300000e-07	-5.200381e-06	-5.431576e-09	-3.706888e+01	-3.561948e+02
1.400000e-07	-5.173805e-06	-5.375170e-09	-3.687945e+01	-3.550255e+02
1.500000e-07	-5.145613e-06	-5.459136e-09	-3.667849e+01	-3.538393e+02
1.600000e-07	-5.115954e-06	-5.425174e-09	-3.646708e+01	-3.526491e+02
1.700000e-07	-5.084707e-06	-5.363529e-09	-3.624435e+01	-3.514570e+02
1.800000e-07	-5.051408e-06	-5.395786e-09	-3.600699e+01	-3.502527e+02
1.900000e-07	-5.016251e-06	-5.281616e-09	-3.575638e+01	-3.490152e+02
2.000000e-07	-4.979589e-06	-5.259092e-09	-3.549506e+01	-3.477159e+02
2.100000e-07	-4.941189e-06	-5.334001e-09	-3.522134e+01	-3.463239e+02
2.200000e-07	-4.900888e-06	-5.282296e-09	-3.493406e+01	-3.448111e+02
2.300000e-07	-4.858659e-06	-5.253430e-09	-3.463305e+01	-3.431571e+02
2.400000e-07	-4.814576e-06	-5.216865e-09	-3.431882e+01	-3.413525e+02
2.500000e-07	-4.768777e-06	-5.138412e-09	-3.399236e+01	-3.393993e+02
2.600000e-07	-4.721072e-06	-5.138994e-09	-3.365231e+01	-3.373105e+02
2.700000e-07	-4.671222e-06	-5.107122e-09	-3.329698e+01	-3.351060e+02
2.800000e-07	-4.619293e-06	-5.074640e-09	-3.292683e+01	-3.328085e+02
2.900000e-07	-4.565485e-06	-5.034433e-09	-3.254328e+01	-3.304391e+02
3.000000e-07	-4.510069e-06	-4.979760e-09	-3.214827e+01	-3.280133e+02
3.100000e-07	-4.453055e-06	-4.972736e-09	-3.174186e+01	-3.255389e+02
3.200000e-07	-4.394291e-06	-4.954998e-09	-3.132298e+01	-3.230152e+02
3.300000e-07	-4.333920e-06	-4.901138e-09	-3.089266e+01	-3.204349e+02
3.400000e-07	-4.272094e-06	-4.820227e-09	-3.045195e+01	-3.177857e+02
3.500000e-07	-4.208857e-06	-4.775047e-09	-3.000119e+01	-3.150544e+02
3.600000e-07	-4.144110e-06	-4.759062e-09	-2.953967e+01	-3.122294e+02
3.700000e-07	-4.077735e-06	-4.727679e-09	-2.906654e+01	-3.093033e+02
3.800000e-07	-4.009774e-06	-4.689277e-09	-2.858211e+01	-3.062738e+02
3.900000e-07	-3.940435e-06	-4.618692e-09	-2.808785e+01	-3.031441e+02
4.000000e-07	-3.869885e-06	-4.544454e-09	-2.758496e+01	-2.999210e+02
4.100000e-07	-3.798072e-06	-4.499602e-09	-2.707308e+01	-2.966135e+02
4.200000e-07	-3.724872e-06	-4.463867e-09	-2.655130e+01	-2.932303e+02
4.300000e-07	-3.650119e-06	-4.431029e-09	-2.601845e+01	-2.897784e+02
4.400000e-07	-3.573757e-06	-4.371029e-09	-2.547413e+01	-2.862610e+02
4.500000e-07	-3.495938e-06	-4.297911e-09	-2.491943e+01	-2.826781e+02
4.600000e-07	-3.416768e-06	-4.232775e-09	-2.435509e+01	-2.790261e+02
4.700000e-07	-3.336320e-06	-4.181962e-09	-2.378166e+01	-2.752996e+02
4.800000e-07	-3.254687e-06	-4.138517e-09	-2.319977e+01	-2.714920e+02
4.900000e-07	-3.171917e-06	-4.077682e-09	-2.260977e+01	-2.675974e+02
5.000000e-07	-3.088112e-06	-4.009922e-09	-2.201240e+01	-2.636116e+02
5.100000e-07	-3.003369e-06	-3.940980e-09	-2.140834e+01	-2.595322e+02
5.200000e-07	-2.917692e-06	-3.880878e-09	-2.079763e+01	-2.553588e+02
5.300000e-07	-2.831048e-06	-3.820351e-09	-2.018002e+01	-2.510926e+02
5.400000e-07	-2.743490e-06	-3.748289e-09	-1.955590e+01	-2.467347e+02
5.500000e-07	-2.654965e-06	-3.667214e-09	-1.892488e+01	-2.422858e+02
5.600000e-07	-2.565233e-06	-3.588855e-09	-1.828526e+01	-2.377451e+02
5.700000e-07	-2.474351e-06	-3.528140e-09	-1.763744e+01	-2.331100e+02
5.800000e-07	-2.382595e-06	-3.470809e-09	-1.698340e+01	-2.283759e+02
5.900000e-07	-2.290103e-06	-3.401353e-09	-1.632410e+01	-2.235373e+02
6.000000e-07	-2.196823e-06	-3.316127e-09	-1.565919e+01	-2.185885e+02
6.100000e-07	-2.102693e-06	-3.228715e-09	-1.498823e+01	-2.135253e+02
6.200000e-07	-2.007806e-06	-3.146957e-09	-1.431186e+01	-2.083457e+02
6.300000e-07	-1.912341e-06	-3.070275e-09	-1.363137e+01	-2.030508e+02
6.400000e-07	-1.816257e-06	-2.994230e-09	-1.294648e+01	-1.976451e+02
6.500000e-07	-1.719404e-06	-2.909817e-09	-1.225610e+01	-1.921355e+02
6.600000e-07	-1.621762e-06	-2.816840e-09	-1.156009e+01	-1.865305e+02
6.700000e-07	-1.523392e-06	-2.723739e-09	-1.085890e+01	-1.808379e+02
6.800000e-07	-1.424434e-06	-2.640112e-09	-1.015352e+01	-1.750636e+02
6.900000e-07	-1.325012e-06	-2.557613e-09	-9.444832e+00	-1.692097e+02
7.000000e-07	-1.225226e-06	-2.467192e-09	-8.733548e+00	-1.632737e+02
7.100000e-07	-1.125133e-06	-2.370651e-09	-8.020071e+00	-1.572485e+02
7.200000e-07	-1.024757e-06	-2.274820e-09	-7.304577e+00	-1.511233e+02
7.300000e-07	-9.240619e-07	-2.179976e-09	-6.586814e+00	-1.448856e+02
7.400000e-07	-8.230050e-07	-2.084546e-09	-5.866470e+00	-1.385229e+02
7.500000e-07	-7.216597e-07	-1.986803e-09	-5.144069e+00	-1.320252e+02
7.600000e-07	-6.200901e-07	-1.882551e-09	-4.420070e+00	-1.253862e+02
7.700000e-07	-5.182533e-07	-1.773220e-09	-3.694166e+00	-1.186045e+02
7.800000e-07	-4.161705e-07	-1.664685e-09	-2.966509e+00	-1.116827e+02
7.900000e-07	-3.139633e-07	-1.560501e-09	-2.237965e+00	-1.046258e+02
8.000000e-07	-2.116321e-07	-1.454901e-09	-1.508537e+00	-9.743962e+01
8.100000e-07	-1.092479e-07	-1.343889e-09	-7.787307e-01	-9.012748e+01
8.200000e-07	-6.828441e-09	-1.229751e-09	-4.867387e-02	-8.268848e+01
8.300000e-07	9.562760e-08	-1.114904e-09	6.816440e-01	-7.511595e+01
8.400000e-07	1.980517e-07	-9.996578e-10	1.411734e+00	-6.739729e+01
8.500000e-07	3.004117e-07	-8.825714e-10	2.141367e+00	-5.951501e+01
8.600000e-07	4.027016e-07	-7.604660e-10	2.870501e+00	-5.144884e+01
8.700000e-07	5.048598e-07	-6.306385e-10	3.598696e+00	-4.317844e+01
8.800000e-07	6.068149e-07	-4.982515e-10	4.325443e+00	-3.468625e+01
8.900000e-07	7.086023e-07	-3.658765e-10	5.050995e+00	-2.595977e+01
9.000000e-07	8.101865e-07	-2.310154e-10	5.775098e+00	-1.699302e+01
9.100000e-07	9.114661e-07	-9.195503e-11	6.497030e+00	-7.786971e+00
9.200000e-07	1.012382e-06	5.242804e-11	7.216366e+00	1.651057e+00
9.300000e-07	1.112916e-06	2.016999e-10	7.932988e+00	1.130853e+01
9.400000e-07	1.213081e-06	3.544352e-10	8.646975e+00	2.116910e+01
9.500000e-07	1.312909e-06	5.076864e-10	9.358559e+00	3.121368e+01
9.600000e-07	1.412376e-06	6.620024e-10	1.006757e+01	4.142103e+01
9.700000e-07	1.511372e-06	8.205365e-10	1.077323e+01	5.176755e+01
9.800000e-07	1.609713e-06	9.828717e-10	1.147421e+01	6.222664e+01
9.900000e-07	1.707217e-06	1.146779e-09	1.216923e+01	7.276781e+01
1.000000e-06	1.803837e-06	1.311181e-09	1.285795e+01	8.335605e+01
1.010000e-06	1.899748e-06	1.474081e-09	1.354161e+01	9.395182e+01
1.020000e-06	1.995025e-06	1.636242e-09	1.422076e+01	1.045119e+02
1.030000e-06	2.089594e-06	1.797127e-09	1.489486e+01	1.149910e+02
1.040000e-06	2.183422e-06	1.956096e-09	1.556367e+01	1.253445e+02
1.050000e-06	2.276509e-06	2.112068e-09	1.622721e+01	1.355305e+02
1.060000e-06	2.368877e-06	2.262773e-09	1.688562e+01	1.455125e+02
1.070000e-06	2.460580e-06	2.408772e-09	1.753928e+01	1.552608e+02
1.080000e-06	2.551473e-06	2.552743e-09	1.818718e+01	1.647529e+02
1.090000e-06	2.641236e-06	2.695214e-09	1.882702e+01	1.739731e+02
1.100000e-06	2.729795e-06	2.832784e-09	1.945828e+01	1.829110e+02
1.110000e-06	2.817411e-06	2.963405e-09	2.008281e+01	1.915601e+02
1.120000e-06	2.904180e-06	3.087615e-09	2.070131e+01	1.999155e+02
1.130000e-06	2.989974e-06	3.209238e-09	2.131286e+01	2.079734e+02
1.140000e-06	3.074777e-06	3.330282e-09	2.191734e+01	2.157308e+02
1.150000e-06	3.158674e-06	3.445038e-09	2.251537e+01	2.231855e+02
1.160000e-06	3.241658e-06	3.551521e-09	2.310689e+01	2.303379e+02
1.170000e-06	3.323386e-06	3.651439e-09	2.368946e+01	2.371914e+02
1.180000e-06	3.403762e-06	3.747561e-09	2.426239e+01	2.437542e+02
1.190000e-06	3.482966e-06	3.843460e-09	2.482696e+01	2.500388e+02
1.200000e-06	3.560973e-06	3.938124e-09	2.538300e+01	2.560618e+02
1.210000e-06	3.637717e-06	4.028872e-09	2.593005e+01	2.618426e+02
1.220000e-06	3.713144e-06	4.114842e-09	2.646770e+01	2.674008e+02
1.230000e-06	3.786970e-06	4.196276e-09	2.699394e+01	2.727550e+02
1.240000e-06	3.859181e-06	4.273564e-09	2.750866e+01	2.779204e+02
1.250000e-06	3.930036e-06	4.348564e-09	2.801372e+01	2.829083e+02
1.260000e-06	3.999533e-06	4.422448e-09	2.850911e+01	2.877259e+02
1.270000e-06	4.067671e-06	4.494414e-09	2.899481e+01	2.923770e+02
1.280000e-06	4.134376e-06	4.562714e-09	2.947029e+01	2.968630e+02
1.290000e-06	4.199370e-06	4.627801e-09	2.993357e+01	3.011848e+02
1.300000e-06	4.262756e-06	4.689765e-09	3.038539e+01	3.053434e+02
1.310000e-06	4.324767e-06	4.749236e-09	3.082741e+01	3.093405e+02
1.320000e-06	4.385406e-06	4.806368e-09	3.125966e+01	3.131785e+02
1.330000e-06	4.444689e-06	4.860380e-09	3.168223e+01	3.168596e+02
1.340000e-06	4.502269e-06	4.911376e-09	3.209267e+01	3.203854e+02
1.350000e-06	4.558009e-06	4.961155e-09	3.248999e+01	3.237560e+02
1.360000e-06	4.612113e-06	5.009572e-09	3.287564e+01	3.269698e+02
1.370000e-06	4.664521e-06	5.053509e-09	3.324921e+01	3.300244e+02
1.380000e-06	4.714953e-06	5.093083e-09	3.360870e+01	3.329172e+02
1.390000e-06	4.763375e-06	5.130991e-09	3.395386e+01	3.356473e+02
1.400000e-06	4.810052e-06	5.168214e-09	3.428658e+01	3.382165e+02
1.410000e-06	4.855147e-06	5.203603e-09	3.460802e+01	3.406300e+02
1.420000e-06	4.898734e-06	5.236283e-09	3.491871e+01	3.428967e+02
1.430000e-06	4.940518e-06	5.265763e-09	3.521655e+01	3.450278e+02
1.440000e-06	4.980412e-06	5.293019e-09	3.550092e+01	3.470357e+02
1.450000e-06	5.018643e-06	5.319634e-09	3.577344e+01	3.489315e+02
1.460000e-06	5.055286e-06	5.345765e-09	3.603463e+01	3.507233e+02
1.470000e-06	5.090227e-06	5.371280e-09	3.628369e+01	3.524155e+02
1.480000e-06	5.123187e-06	5.394938e-09	3.651864e+01	3.540082e+02
1.490000e-06	5.154312e-06	5.416235e-09	3.674050e+01	3.554980e+02
1.500000e-06	5.183761e-06	5.434711e-09	3.695041e+01	3.568802e+02
1.510000e-06	5.211480e-06	5.452101e-09	3.714800e+01	3.581506e+02
1.520000e-06	5.237229e-06	5.469375e-09	3.733154e+01	3.593072e+02
1.530000e-06	5.260901e-06	5.485229e-09	3.750028e+01	3.603515e+02
1.540000e-06	5.282731e-06	5.499163e-09	3.765589e+01	3.612885e+02
1.550000e-06	5.302837e-06	5.511679e-09	3.779921e+01	3.621255e+02
1.560000e-06	5.321128e-06	5.523605e-09	3.792959e+01	3.628706e+02
1.570000e-06	5.337430e-06	5.534427e-09	3.804578e+01	3.635303e+02
1.580000e-06	5.351773e-06	5.544742e-09	3.814802e+01	3.641083e+02
1.590000e-06	5.364150e-06	5.553762e-09	3.823625e+01	3.646042e+02
1.600000e-06	5.374301e-06	5.560007e-09	3.830860e+01	3.650141e+02
1.610000e-06	5.382296e-06	5.563971e-09	3.836559e+01	3.653322e+02
1.620000e-06	5.388399e-06	5.567370e-09	3.840910e+01	3.655527e+02
1.630000e-06	5.392713e-06	5.571482e-09	3.843985e+01	3.656723e+02
1.640000e-06	5.395125e-06	5.574165e-09	3.845704e+01	3.656920e+02
1.650000e-06	5.395540e-06	5.574838e-09	3.846000e+01	3.656176e+02
1.660000e-06	5.394134e-06	5.572697e-09	3.844998e+01	3.654588e+02
1.670000e-06	5.391073e-06	5.567910e-09	3.842815e+01	3.652275e+02
1.680000e-06	5.386319e-06	5.566555e-09	3.839427e+01	3.649344e+02
1.690000e-06	5.379687e-06	5.564092e-09	3.834699e+01	3.645867e+02
1.700000e-06	5.371274e-06	5.558333e-09	3.828703e+01	3.641858e+02
1.710000e-06	5.361264e-06	5.551593e-09	3.821568e+01	3.637263e+02
1.720000e-06	5.349541e-06	5.544609e-09	3.813211e+01	3.631976e+02
1.730000e-06	5.335884e-06	5.545950e-09	3.803476e+01	3.625861e+02
1.740000e-06	5.320180e-06	5.508976e-09	3.792282e+01	3.618793e+02
1.750000e-06	5.302123e-06	5.466019e-09	3.779411e+01	3.610692e+02
1.760000e-06	5.281373e-06	5.472825e-09	3.764620e+01	3.601555e+02
1.770000e-06	5.258285e-06	5.464548e-09	3.748163e+01	3.591469e+02
1.780000e-06	5.233887e-06	5.509717e-09	3.730772e+01	3.580603e+02
1.790000e-06	5.208817e-06	5.506043e-09	3.712902e+01	3.569179e+02
1.800000e-06	5.182367e-06	5.376664e-09	3.694048e+01	3.557430e+02
1.810000e-06	5.153748e-06	5.428119e-09	3.673648e+01	3.545548e+02
1.820000e-06	5.123279e-06	5.407792e-09	3.651929e+01	3.533641e+02
1.830000e-06	5.091102e-06	5.296705e-09	3.628993e+01	3.521702e+02
1.840000e-06	5.056996e-06	5.398523e-09	3.604682e+01	3.509604e+02
1.850000e-06	5.021238e-06	5.344275e-09	3.579193e+01	3.497118e+02
1.860000e-06	4.983765e-06	5.235534e-09	3.552482e+01	3.483949e+02
1.870000e-06	4.944393e-06	5.273617e-09	3.524417e+01	3.469787e+02
1.880000e-06	4.903304e-06	5.182599e-09	3.495129e+01	3.454367e+02
1.890000e-06	4.860408e-06	5.203152e-09	3.464552e+01	3.437504e+02
1.900000e-06	4.815856e-06	5.237164e-09	3.432795e+01	3.419129e+02
1.910000e-06	4.769562e-06	5.133515e-09	3.399796e+01	3.399289e+02
1.920000e-06	4.721223e-06	5.154716e-09	3.365339e+01	3.378130e+02
1.930000e-06	4.671237e-06	5.066475e-09	3.329709e+01	3.355863e+02
1.940000e-06	4.619618e-06	5.027529e-09	3.292914e+01	3.332713e+02
1.950000e-06	4.565895e-06	5.066694e-09	3.254620e+01	3.308883e+02
1.960000e-06	4.510202e-06	4.966063e-09	3.214921e+01	3.284513e+02
1.970000e-06	4.452821e-06	4.929708e-09	3.174020e+01	3.259662e+02
1.980000e-06	4.393961e-06	4.887188e-09	3.132063e+01	3.234309e+02
1.990000e-06	4.333690e-06	4.875732e-09	3.089101e+01	3.208365e+02
2.000000e-06	4.271785e-06	4.859423e-09	3.044975e+01	3.181704e+02
2.010000e-06	4.208189e-06	4.763752e-09	2.999643e+01	3.154195e+02
2.020000e-06	4.143048e-06	4.742587e-09	2.953210e+01	3.125728e+02
2.030000e-06	4.076465e-06	4.667852e-09	2.905749e+01	3.096241e+02
2.040000e-06	4.008519e-06	4.627894e-09	2.857316e+01	3.065724e+02
2.050000e-06	3.939158e-06	4.619797e-09	2.807875e+01	3.034215e+02
2.060000e-06	3.868215e-06	4.573226e-09	2.757306e+01	3.001791e+02
2.070000e-06	3.795818e-06	4.531492e-09	2.705700e+01	2.968543e+02
2.080000e-06	3.722111e-06	4.426088e-09	2.653162e+01	2.934555e+02
2.090000e-06	3.647072e-06	4.381916e-09	2.599673e+01	2.899890e+02
2.100000e-06	3.570615e-06	4.349165e-09	2.545174e+01	2.864573e+02
2.110000e-06	3.492562e-06	4.303227e-09	2.489536e+01	2.828595e+02
2.120000e-06	3.413090e-06	4.255424e-09	2.432888e+01	2.791917e+02
2.130000e-06	3.332491e-06	4.173174e-09	2.375436e+01	2.754479e+02
2.140000e-06	3.250774e-06	4.115729e-09	2.317187e+01	2.716217e+02
2.150000e-06	3.167991e-06	4.047223e-09	2.258178e+01	2.677075e+02
2.160000e-06	3.084194e-06	4.002764e-09	2.198447e+01	2.637013e+02
2.170000e-06	2.999353e-06	3.951039e-09	2.137971e+01	2.596013e+02
2.180000e-06	2.913198e-06	3.878514e-09	2.076560e+01	2.554076e+02
2.190000e-06	2.825728e-06	3.809720e-09	2.014210e+01	2.511211e+02
2.200000e-06	2.737272e-06	3.748314e-09	1.951158e+01	2.467433e+02
2.210000e-06	2.647882e-06	3.699119e-09	1.887440e+01	2.422745e+02
2.220000e-06	2.557608e-06	3.623996e-09	1.823091e+01	2.377135e+02
2.230000e-06	2.466508e-06	3.540730e-09	1.758154e+01	2.330571e+02
2.240000e-06	2.374630e-06	3.455948e-09	1.692662e+01	2.283007e+02
2.250000e-06	2.282017e-06	3.383122e-09	1.626647e+01	2.234385e+02
2.260000e-06	2.188593e-06	3.317513e-09	1.560053e+01	2.184651e+02
2.270000e-06	2.094196e-06	3.252388e-09	1.492766e+01	2.133766e+02
2.280000e-06	1.998797e-06	3.177332e-09	1.424765e+01	2.081717e+02
2.290000e-06	1.902610e-06	3.081471e-09	1.356201e+01	2.028522e+02
2.300000e-06	1.805831e-06	2.990697e-09	1.287216e+01	1.974231e+02
2.310000e-06	1.708563e-06	2.916430e-09	1.217882e+01	1.918920e+02
2.320000e-06	1.610771e-06	2.846137e-09	1.148175e+01	1.862671e+02
2.330000e-06	1.512430e-06	2.757852e-09	1.078077e+01	1.805562e+02
2.340000e-06	1.413591e-06	2.660406e-09	1.007623e+01	1.747644e+02
2.350000e-06	1.314310e-06	2.564417e-09	9.368547e+00	1.688929e+02
2.360000e-06	1.214714e-06	2.473329e-09	8.658611e+00	1.629381e+02
2.370000e-06	1.114889e-06	2.387261e-09	7.947048e+00	1.568920e+02
2.380000e-06	1.014820e-06	2.299398e-09	7.233750e+00	1.507434e+02
2.390000e-06	9.143950e-07	2.204336e-09	6.517907e+00	1.444795e+02
2.400000e-06	8.135700e-07	2.101026e-09	5.799216e+00	1.380882e+02
2.410000e-06	7.123784e-07	2.000723e-09	5.077911e+00	1.315602e+02
2.420000e-06	6.109189e-07	1.905755e-09	4.354697e+00	1.248902e+02
2.430000e-06	5.092256e-07	1.806304e-09	3.629816e+00	1.180777e+02
2.440000e-06	4.072691e-07	1.697321e-09	2.903058e+00	1.111260e+02
2.450000e-06	3.051593e-07	1.584709e-09	2.175208e+00	1.040406e+02
2.460000e-06	2.028078e-07	1.472311e-09	1.445636e+00	9.682683e+01
2.470000e-06	1.001959e-07	1.361723e-09	7.142072e-01	8.948735e+01
2.480000e-06	-2.430131e-09	1.251055e-09	-1.732224e-02	8.202008e+01
2.490000e-06	-1.050581e-07	1.134892e-09	-7.488659e-01	7.441708e+01
2.500000e-06	-2.076735e-07	1.012143e-09	-1.480320e+00	6.666455e+01
2.510000e-06	-3.102067e-07	8.875081e-10	-2.211187e+00	5.874420e+01
2.520000e-06	-4.126003e-07	7.660135e-10	-2.941060e+00	5.063551e+01
2.530000e-06	-5.147581e-07	6.433232e-10	-3.669252e+00	4.231851e+01
2.540000e-06	-6.166931e-07	5.152930e-10	-4.395856e+00	3.377655e+01
2.550000e-06	-7.183022e-07	3.796907e-10	-5.120136e+00	2.499843e+01
2.560000e-06	-8.194906e-07	2.369333e-10	-5.841419e+00	1.597968e+01
2.570000e-06	-9.202986e-07	9.298623e-11	-6.559989e+00	6.722686e+00
2.580000e-06	-1.020750e-06	-4.835090e-11	-7.276020e+00	-2.763985e+00
2.590000e-06	-1.120864e-06	-1.903770e-10	-7.989641e+00	-1.246688e+01
2.600000e-06	-1.220644e-06	-3.383652e-10	-8.700883e+00	-2.236897e+01
2.610000e-06	-1.320035e-06	-4.935955e-10	-9.409356e+00	-3.245071e+01
2.620000e-06	-1.418986e-06	-6.520587e-10	-1.011469e+01	-4.269037e+01
2.630000e-06	-1.517398e-06	-8.095987e-10	-1.081618e+01	-5.306379e+01
2.640000e-06	-1.615272e-06	-9.662715e-10	-1.151384e+01	-6.354359e+01
2.650000e-06	-1.712586e-06	-1.124159e-09	-1.220750e+01	-7.409837e+01
2.660000e-06	-1.809326e-06	-1.285088e-09	-1.289708e+01	-8.469212e+01
2.670000e-06	-1.905576e-06	-1.447035e-09	-1.358315e+01	-9.528438e+01
2.680000e-06	-2.001322e-06	-1.606453e-09	-1.426564e+01	-1.058313e+02
2.690000e-06	-2.096352e-06	-1.761933e-09	-1.494302e+01	-1.162877e+02
2.700000e-06	-2.190312e-06	-1.916291e-09	-1.561278e+01	-1.266090e+02
2.710000e-06	-2.283160e-06	-2.072373e-09	-1.627462e+01	-1.367546e+02
2.720000e-06	-2.375156e-06	-2.228050e-09	-1.693037e+01	-1.466892e+02
2.730000e-06	-2.466421e-06	-2.377807e-09	-1.758092e+01	-1.563846e+02
2.740000e-06	-2.556836e-06	-2.520483e-09	-1.822541e+01	-1.658200e+02
2.750000e-06	-2.646282e-06	-2.658999e-09	-1.886298e+01	-1.749809e+02
2.760000e-06	-2.734814e-06	-2.794297e-09	-1.949406e+01	-1.838578e+02
2.770000e-06	-2.822661e-06	-2.926486e-09	-2.012024e+01	-1.924447e+02
2.780000e-06	-2.909636e-06	-3.055016e-09	-2.074020e+01	-2.007370e+02
2.790000e-06	-2.995286e-06	-3.177094e-09	-2.135072e+01	-2.087312e+02
2.800000e-06	-3.079738e-06	-3.293909e-09	-2.195271e+01	-2.164243e+02
2.810000e-06	-3.163226e-06	-3.407461e-09	-2.254782e+01	-2.238145e+02
2.820000e-06	-3.245690e-06	-3.517901e-09	-2.313563e+01	-2.309028e+02
2.830000e-06	-3.327025e-06	-3.624663e-09	-2.371540e+01	-2.376936e+02
2.840000e-06	-3.407294e-06	-3.725065e-09	-2.428756e+01	-2.441960e+02
2.850000e-06	-3.486380e-06	-3.819058e-09	-2.485130e+01	-2.504234e+02
2.860000e-06	-3.563941e-06	-3.908299e-09	-2.540416e+01	-2.563933e+02
2.870000e-06	-3.640022e-06	-3.994449e-09	-2.594647e+01	-2.621252e+02
2.880000e-06	-3.714679e-06	-4.078798e-09	-2.647864e+01	-2.676386e+02
2.890000e-06	-3.787911e-06	-4.160701e-09	-2.700064e+01	-2.729516e+02
2.900000e-06	-3.859898e-06	-4.239649e-09	-2.751378e+01	-2.780786e+02
2.910000e-06	-3.930489e-06	-4.315371e-09	-2.801696e+01	-2.830299e+02
2.920000e-06	-3.999483e-06	-4.388595e-09	-2.850875e+01	-2.878120e+02
2.930000e-06	-4.067020e-06	-4.460197e-09	-2.899017e+01	-2.924281e+02
2.940000e-06	-4.133183e-06	-4.529269e-09	-2.946178e+01	-2.968793e+02
