# Temperatura_=_77.74
# Concentracion g/m^3_=_15000.0
# C_Vs_to_Am_M_A/Vsm_=_65563218390.804596
# pendiente_HvsI_1/m_=_3716.3
# ordenada_HvsI_A/m_=_1297.0
# frecuencia_Hz_=_301578.984409237

Tiempo_(s)	Campo_(V.s)	Magnetizacion_(V.s)	Campo_(kA/m)	Magnetizacion_(A/m)
0.000000e+00	-5.382618e-06	-6.961362e-09	-3.834279e+01	-4.547994e+02
1.000000e-08	-5.379568e-06	-6.958836e-09	-3.832106e+01	-4.545144e+02
2.000000e-08	-5.374790e-06	-6.952764e-09	-3.828702e+01	-4.541556e+02
3.000000e-08	-5.368418e-06	-6.943541e-09	-3.824164e+01	-4.537277e+02
4.000000e-08	-5.360465e-06	-6.932821e-09	-3.818498e+01	-4.532279e+02
5.000000e-08	-5.350562e-06	-6.920992e-09	-3.811444e+01	-4.526466e+02
6.000000e-08	-5.338641e-06	-6.910159e-09	-3.802952e+01	-4.519709e+02
7.000000e-08	-5.324876e-06	-6.898720e-09	-3.793147e+01	-4.511883e+02
8.000000e-08	-5.308987e-06	-6.887185e-09	-3.781828e+01	-4.502910e+02
9.000000e-08	-5.290874e-06	-6.892262e-09	-3.768925e+01	-4.492785e+02
1.000000e-07	-5.270716e-06	-6.897447e-09	-3.754566e+01	-4.481598e+02
1.100000e-07	-5.248650e-06	-6.874261e-09	-3.738847e+01	-4.469511e+02
1.200000e-07	-5.224985e-06	-6.839142e-09	-3.721990e+01	-4.456734e+02
1.300000e-07	-5.199836e-06	-6.776823e-09	-3.704075e+01	-4.443476e+02
1.400000e-07	-5.173038e-06	-6.725716e-09	-3.684985e+01	-4.429895e+02
1.500000e-07	-5.144596e-06	-6.764096e-09	-3.664725e+01	-4.416057e+02
1.600000e-07	-5.114658e-06	-6.752339e-09	-3.643399e+01	-4.401916e+02
1.700000e-07	-5.083032e-06	-6.696200e-09	-3.620870e+01	-4.387314e+02
1.800000e-07	-5.049351e-06	-6.697920e-09	-3.596877e+01	-4.372009e+02
1.900000e-07	-5.013925e-06	-6.646960e-09	-3.571642e+01	-4.355717e+02
2.000000e-07	-4.976953e-06	-6.610505e-09	-3.545305e+01	-4.338167e+02
2.100000e-07	-4.938202e-06	-6.619604e-09	-3.517701e+01	-4.319145e+02
2.200000e-07	-4.897640e-06	-6.569018e-09	-3.488807e+01	-4.298536e+02
2.300000e-07	-4.855109e-06	-6.521679e-09	-3.458511e+01	-4.276331e+02
2.400000e-07	-4.810666e-06	-6.479206e-09	-3.426852e+01	-4.252623e+02
2.500000e-07	-4.764460e-06	-6.441135e-09	-3.393937e+01	-4.227576e+02
2.600000e-07	-4.716282e-06	-6.433274e-09	-3.359618e+01	-4.201388e+02
2.700000e-07	-4.666025e-06	-6.371624e-09	-3.323818e+01	-4.174246e+02
2.800000e-07	-4.613790e-06	-6.313148e-09	-3.286608e+01	-4.146291e+02
2.900000e-07	-4.559755e-06	-6.285029e-09	-3.248117e+01	-4.117601e+02
3.000000e-07	-4.504148e-06	-6.242836e-09	-3.208505e+01	-4.088182e+02
3.100000e-07	-4.446833e-06	-6.208055e-09	-3.167677e+01	-4.057980e+02
3.200000e-07	-4.387696e-06	-6.159481e-09	-3.125551e+01	-4.026906e+02
3.300000e-07	-4.327006e-06	-6.095128e-09	-3.082319e+01	-3.994862e+02
3.400000e-07	-4.264885e-06	-6.029480e-09	-3.038068e+01	-3.961762e+02
3.500000e-07	-4.201376e-06	-5.981663e-09	-2.992828e+01	-3.927553e+02
3.600000e-07	-4.136361e-06	-5.950773e-09	-2.946514e+01	-3.892219e+02
3.700000e-07	-4.069698e-06	-5.904889e-09	-2.899027e+01	-3.855778e+02
3.800000e-07	-4.001495e-06	-5.839680e-09	-2.850443e+01	-3.818268e+02
3.900000e-07	-3.931930e-06	-5.764987e-09	-2.800889e+01	-3.779738e+02
4.000000e-07	-3.861097e-06	-5.707546e-09	-2.750432e+01	-3.740232e+02
4.100000e-07	-3.788970e-06	-5.653147e-09	-2.699052e+01	-3.699778e+02
4.200000e-07	-3.715390e-06	-5.578201e-09	-2.646638e+01	-3.658388e+02
4.300000e-07	-3.640246e-06	-5.516349e-09	-2.593110e+01	-3.616058e+02
4.400000e-07	-3.563594e-06	-5.453671e-09	-2.538507e+01	-3.572774e+02
4.500000e-07	-3.485461e-06	-5.379593e-09	-2.482849e+01	-3.528516e+02
4.600000e-07	-3.405944e-06	-5.311667e-09	-2.426206e+01	-3.483265e+02
4.700000e-07	-3.325220e-06	-5.246353e-09	-2.368703e+01	-3.437004e+02
4.800000e-07	-3.243323e-06	-5.177358e-09	-2.310363e+01	-3.389718e+02
4.900000e-07	-3.160308e-06	-5.097546e-09	-2.251228e+01	-3.341392e+02
5.000000e-07	-3.076321e-06	-5.016172e-09	-2.191400e+01	-3.292010e+02
5.100000e-07	-2.991446e-06	-4.942199e-09	-2.130940e+01	-3.241552e+02
5.200000e-07	-2.905600e-06	-4.867021e-09	-2.069788e+01	-3.189993e+02
5.300000e-07	-2.818723e-06	-4.776265e-09	-2.007902e+01	-3.137311e+02
5.400000e-07	-2.730917e-06	-4.682971e-09	-1.945354e+01	-3.083485e+02
5.500000e-07	-2.642115e-06	-4.596437e-09	-1.882096e+01	-3.028498e+02
5.600000e-07	-2.552156e-06	-4.515141e-09	-1.818014e+01	-2.972342e+02
5.700000e-07	-2.461121e-06	-4.438075e-09	-1.753166e+01	-2.915011e+02
5.800000e-07	-2.369159e-06	-4.352475e-09	-1.687658e+01	-2.856501e+02
5.900000e-07	-2.276441e-06	-4.257915e-09	-1.621610e+01	-2.796803e+02
6.000000e-07	-2.183015e-06	-4.159363e-09	-1.555059e+01	-2.735900e+02
6.100000e-07	-2.088805e-06	-4.060697e-09	-1.487949e+01	-2.673764e+02
6.200000e-07	-1.993904e-06	-3.963589e-09	-1.420347e+01	-2.610361e+02
6.300000e-07	-1.898362e-06	-3.864002e-09	-1.352288e+01	-2.545649e+02
6.400000e-07	-1.802002e-06	-3.761303e-09	-1.283646e+01	-2.479589e+02
6.500000e-07	-1.704800e-06	-3.660089e-09	-1.214405e+01	-2.412152e+02
6.600000e-07	-1.606892e-06	-3.559058e-09	-1.144661e+01	-2.343321e+02
6.700000e-07	-1.508365e-06	-3.454456e-09	-1.074475e+01	-2.273097e+02
6.800000e-07	-1.409334e-06	-3.344135e-09	-1.003932e+01	-2.201494e+02
6.900000e-07	-1.309858e-06	-3.226936e-09	-9.330699e+00	-2.128530e+02
7.000000e-07	-1.209937e-06	-3.110006e-09	-8.618922e+00	-2.054224e+02
7.100000e-07	-1.109669e-06	-2.995465e-09	-7.904668e+00	-1.978576e+02
7.200000e-07	-1.009145e-06	-2.879370e-09	-7.188589e+00	-1.901566e+02
7.300000e-07	-9.083779e-07	-2.760060e-09	-6.470780e+00	-1.823146e+02
7.400000e-07	-8.073099e-07	-2.636118e-09	-5.750828e+00	-1.743240e+02
7.500000e-07	-7.058619e-07	-2.509053e-09	-5.028169e+00	-1.661749e+02
7.600000e-07	-6.041103e-07	-2.380931e-09	-4.303347e+00	-1.578559e+02
7.700000e-07	-5.021612e-07	-2.252303e-09	-3.577118e+00	-1.493548e+02
7.800000e-07	-4.000983e-07	-2.122025e-09	-2.850079e+00	-1.406603e+02
7.900000e-07	-2.979390e-07	-1.984864e-09	-2.122352e+00	-1.317616e+02
8.000000e-07	-1.956217e-07	-1.840139e-09	-1.393500e+00	-1.226501e+02
8.100000e-07	-9.319284e-08	-1.694555e-09	-6.638541e-01	-1.133186e+02
8.200000e-07	9.245792e-09	-1.548512e-09	6.586190e-02	-1.037615e+02
8.300000e-07	1.117239e-07	-1.398329e-09	7.958594e-01	-9.397490e+01
8.400000e-07	2.142364e-07	-1.243746e-09	1.526101e+00	-8.395553e+01
8.500000e-07	3.167036e-07	-1.086689e-09	2.256021e+00	-7.370091e+01
8.600000e-07	4.190794e-07	-9.273413e-10	2.985289e+00	-6.320869e+01
8.700000e-07	5.212958e-07	-7.622191e-10	3.713423e+00	-5.247634e+01
8.800000e-07	6.233860e-07	-5.927818e-10	4.440656e+00	-4.150072e+01
8.900000e-07	7.253225e-07	-4.188351e-10	5.166795e+00	-3.027789e+01
9.000000e-07	8.269600e-07	-2.421951e-10	5.890804e+00	-1.880302e+01
9.100000e-07	9.282270e-07	-6.275054e-11	6.612174e+00	-7.070805e+00
9.200000e-07	1.029161e-06	1.192750e-10	7.331170e+00	4.923708e+00
9.300000e-07	1.129775e-06	3.040286e-10	8.047893e+00	1.718352e+01
9.400000e-07	1.230006e-06	4.945554e-10	8.761883e+00	2.970754e+01
9.500000e-07	1.329867e-06	6.893096e-10	9.473238e+00	4.248809e+01
9.600000e-07	1.429298e-06	8.862375e-10	1.018153e+01	5.550822e+01
9.700000e-07	1.528209e-06	1.085228e-09	1.088611e+01	6.873968e+01
9.800000e-07	1.626477e-06	1.286080e-09	1.158612e+01	8.214167e+01
9.900000e-07	1.724001e-06	1.488414e-09	1.228083e+01	9.566107e+01
1.000000e-06	1.820723e-06	1.693018e-09	1.296982e+01	1.092343e+02
1.010000e-06	1.916606e-06	1.899084e-09	1.365284e+01	1.227904e+02
1.020000e-06	2.011766e-06	2.105464e-09	1.433071e+01	1.362558e+02
1.030000e-06	2.106231e-06	2.308476e-09	1.500362e+01	1.495591e+02
1.040000e-06	2.199953e-06	2.506301e-09	1.567124e+01	1.626358e+02
1.050000e-06	2.292973e-06	2.698685e-09	1.633387e+01	1.754319e+02
1.060000e-06	2.385328e-06	2.885577e-09	1.699176e+01	1.879063e+02
1.070000e-06	2.477026e-06	3.068648e-09	1.764496e+01	2.000309e+02
1.080000e-06	2.567925e-06	3.247291e-09	1.829247e+01	2.117896e+02
1.090000e-06	2.657713e-06	3.422166e-09	1.893207e+01	2.231756e+02
1.100000e-06	2.746267e-06	3.592293e-09	1.956289e+01	2.341880e+02
1.110000e-06	2.833793e-06	3.755834e-09	2.018637e+01	2.448293e+02
1.120000e-06	2.920421e-06	3.912575e-09	2.080346e+01	2.551021e+02
1.130000e-06	3.006099e-06	4.064706e-09	2.141378e+01	2.650085e+02
1.140000e-06	3.090796e-06	4.213356e-09	2.201711e+01	2.745495e+02
1.150000e-06	3.174556e-06	4.354357e-09	2.261378e+01	2.837259e+02
1.160000e-06	3.257332e-06	4.486341e-09	2.320343e+01	2.925391e+02
1.170000e-06	3.338880e-06	4.612234e-09	2.378433e+01	3.009928e+02
1.180000e-06	3.419174e-06	4.733582e-09	2.435630e+01	3.090933e+02
1.190000e-06	3.498267e-06	4.850865e-09	2.491972e+01	3.168501e+02
1.200000e-06	3.576081e-06	4.964458e-09	2.547402e+01	3.242753e+02
1.210000e-06	3.652676e-06	5.073128e-09	2.601964e+01	3.313827e+02
1.220000e-06	3.728000e-06	5.176646e-09	2.655621e+01	3.381868e+02
1.230000e-06	3.801720e-06	5.274829e-09	2.708135e+01	3.447020e+02
1.240000e-06	3.873782e-06	5.369914e-09	2.759468e+01	3.509424e+02
1.250000e-06	3.944457e-06	5.461523e-09	2.809812e+01	3.569216e+02
1.260000e-06	4.013761e-06	5.549666e-09	2.859181e+01	3.626533e+02
1.270000e-06	4.081736e-06	5.634979e-09	2.907602e+01	3.681514e+02
1.280000e-06	4.148217e-06	5.715549e-09	2.954960e+01	3.734306e+02
1.290000e-06	4.212983e-06	5.791256e-09	3.001096e+01	3.785057e+02
1.300000e-06	4.276237e-06	5.863867e-09	3.046154e+01	3.833906e+02
1.310000e-06	4.338034e-06	5.934951e-09	3.090175e+01	3.880975e+02
1.320000e-06	4.398425e-06	6.004094e-09	3.133194e+01	3.926353e+02
1.330000e-06	4.457461e-06	6.071265e-09	3.175248e+01	3.970087e+02
1.340000e-06	4.514769e-06	6.136588e-09	3.216071e+01	4.012178e+02
1.350000e-06	4.570276e-06	6.198754e-09	3.255611e+01	4.052591e+02
1.360000e-06	4.624208e-06	6.257371e-09	3.294030e+01	4.091269e+02
1.370000e-06	4.676389e-06	6.311753e-09	3.331201e+01	4.128153e+02
1.380000e-06	4.726549e-06	6.363599e-09	3.366931e+01	4.163204e+02
1.390000e-06	4.774722e-06	6.413615e-09	3.401247e+01	4.196419e+02
1.400000e-06	4.821177e-06	6.458762e-09	3.434339e+01	4.227837e+02
1.410000e-06	4.866074e-06	6.501060e-09	3.466321e+01	4.257537e+02
1.420000e-06	4.909382e-06	6.543327e-09	3.497171e+01	4.285619e+02
1.430000e-06	4.950790e-06	6.584492e-09	3.526668e+01	4.312183e+02
1.440000e-06	4.990347e-06	6.623303e-09	3.554847e+01	4.337309e+02
1.450000e-06	5.028304e-06	6.657882e-09	3.581885e+01	4.361041e+02
1.460000e-06	5.064675e-06	6.689700e-09	3.607794e+01	4.383378e+02
1.470000e-06	5.099263e-06	6.720197e-09	3.632432e+01	4.404286e+02
1.480000e-06	5.131878e-06	6.747571e-09	3.655665e+01	4.423713e+02
1.490000e-06	5.162702e-06	6.772032e-09	3.677622e+01	4.441618e+02
1.500000e-06	5.191863e-06	6.794724e-09	3.698395e+01	4.457989e+02
1.510000e-06	5.219349e-06	6.816473e-09	3.717975e+01	4.472866e+02
1.520000e-06	5.244828e-06	6.836852e-09	3.736124e+01	4.486338e+02
1.530000e-06	5.268210e-06	6.856287e-09	3.752780e+01	4.498535e+02
1.540000e-06	5.289796e-06	6.874083e-09	3.768157e+01	4.509600e+02
1.550000e-06	5.309712e-06	6.889273e-09	3.782344e+01	4.519661e+02
1.560000e-06	5.327715e-06	6.903179e-09	3.795168e+01	4.528804e+02
1.570000e-06	5.343634e-06	6.917466e-09	3.806508e+01	4.537048e+02
1.580000e-06	5.357613e-06	6.930139e-09	3.816467e+01	4.544350e+02
1.590000e-06	5.369579e-06	6.939741e-09	3.824990e+01	4.550612e+02
1.600000e-06	5.379327e-06	6.946717e-09	3.831934e+01	4.555714e+02
1.610000e-06	5.387011e-06	6.952040e-09	3.837408e+01	4.559545e+02
1.620000e-06	5.392829e-06	6.957244e-09	3.841552e+01	4.562042e+02
1.630000e-06	5.396872e-06	6.961427e-09	3.844433e+01	4.563204e+02
1.640000e-06	5.398987e-06	6.963275e-09	3.845939e+01	4.563107e+02
1.650000e-06	5.399073e-06	6.962640e-09	3.846000e+01	4.561881e+02
1.660000e-06	5.397411e-06	6.959738e-09	3.844816e+01	4.559683e+02
1.670000e-06	5.394137e-06	6.954864e-09	3.842484e+01	4.556661e+02
1.680000e-06	5.389160e-06	6.949526e-09	3.838939e+01	4.552918e+02
1.690000e-06	5.382237e-06	6.943133e-09	3.834007e+01	4.548484e+02
1.700000e-06	5.373527e-06	6.935430e-09	3.827803e+01	4.543315e+02
1.710000e-06	5.363268e-06	6.926807e-09	3.820495e+01	4.537306e+02
1.720000e-06	5.351303e-06	6.918596e-09	3.811971e+01	4.530324e+02
1.730000e-06	5.337365e-06	6.909386e-09	3.802043e+01	4.522251e+02
1.740000e-06	5.321312e-06	6.878131e-09	3.790608e+01	4.513022e+02
1.750000e-06	5.302853e-06	6.839030e-09	3.777459e+01	4.502654e+02
1.760000e-06	5.281590e-06	6.825067e-09	3.762312e+01	4.491251e+02
1.770000e-06	5.258107e-06	6.821302e-09	3.745584e+01	4.478993e+02
1.780000e-06	5.233598e-06	6.850826e-09	3.728125e+01	4.466090e+02
1.790000e-06	5.208400e-06	6.837394e-09	3.710175e+01	4.452747e+02
1.800000e-06	5.181611e-06	6.742937e-09	3.691093e+01	4.439103e+02
1.810000e-06	5.152554e-06	6.748576e-09	3.670394e+01	4.425202e+02
1.820000e-06	5.121752e-06	6.742164e-09	3.648452e+01	4.410973e+02
1.830000e-06	5.089272e-06	6.662928e-09	3.625315e+01	4.396238e+02
1.840000e-06	5.054848e-06	6.687263e-09	3.600793e+01	4.380740e+02
1.850000e-06	5.018824e-06	6.666243e-09	3.575132e+01	4.364194e+02
1.860000e-06	4.980963e-06	6.594983e-09	3.548162e+01	4.346337e+02
1.870000e-06	4.941216e-06	6.575815e-09	3.519848e+01	4.326976e+02
1.880000e-06	4.899861e-06	6.528753e-09	3.490389e+01	4.306016e+02
1.890000e-06	4.856703e-06	6.529762e-09	3.459646e+01	4.283473e+02
1.900000e-06	4.811955e-06	6.479548e-09	3.427770e+01	4.259457e+02
1.910000e-06	4.765328e-06	6.386826e-09	3.394555e+01	4.234143e+02
1.920000e-06	4.716659e-06	6.414729e-09	3.359887e+01	4.207730e+02
1.930000e-06	4.666460e-06	6.363183e-09	3.324127e+01	4.180398e+02
1.940000e-06	4.614482e-06	6.295827e-09	3.287101e+01	4.152276e+02
1.950000e-06	4.560443e-06	6.291122e-09	3.248607e+01	4.123426e+02
1.960000e-06	4.504441e-06	6.216499e-09	3.208714e+01	4.093839e+02
1.970000e-06	4.446721e-06	6.160673e-09	3.167597e+01	4.063453e+02
1.980000e-06	4.387591e-06	6.115906e-09	3.125477e+01	4.032173e+02
1.990000e-06	4.326965e-06	6.085977e-09	3.082290e+01	3.999903e+02
2.000000e-06	4.264703e-06	6.043729e-09	3.037938e+01	3.966563e+02
2.010000e-06	4.200820e-06	5.949474e-09	2.992431e+01	3.932108e+02
2.020000e-06	4.135389e-06	5.898850e-09	2.945822e+01	3.896528e+02
2.030000e-06	4.068543e-06	5.849946e-09	2.898204e+01	3.859848e+02
2.040000e-06	4.000287e-06	5.808904e-09	2.849582e+01	3.822110e+02
2.050000e-06	3.930568e-06	5.751439e-09	2.799919e+01	3.783362e+02
2.060000e-06	3.859305e-06	5.686255e-09	2.749155e+01	3.743645e+02
2.070000e-06	3.786639e-06	5.642023e-09	2.697392e+01	3.702985e+02
2.080000e-06	3.712683e-06	5.546049e-09	2.644709e+01	3.661388e+02
2.090000e-06	3.637381e-06	5.484248e-09	2.591069e+01	3.618850e+02
2.100000e-06	3.560672e-06	5.432613e-09	2.536425e+01	3.575353e+02
2.110000e-06	3.482390e-06	5.360426e-09	2.480661e+01	3.530878e+02
2.120000e-06	3.402724e-06	5.292483e-09	2.423912e+01	3.485406e+02
2.130000e-06	3.321935e-06	5.210289e-09	2.366362e+01	3.438921e+02
2.140000e-06	3.240001e-06	5.155030e-09	2.307997e+01	3.391408e+02
2.150000e-06	3.156991e-06	5.090596e-09	2.248865e+01	3.342852e+02
2.160000e-06	3.072970e-06	5.008574e-09	2.189013e+01	3.293235e+02
2.170000e-06	2.987812e-06	4.923603e-09	2.128351e+01	3.242537e+02
2.180000e-06	2.901361e-06	4.845232e-09	2.066768e+01	3.190734e+02
2.190000e-06	2.813682e-06	4.772291e-09	2.004311e+01	3.137802e+02
2.200000e-06	2.725031e-06	4.695158e-09	1.941161e+01	3.083723e+02
2.210000e-06	2.635537e-06	4.614790e-09	1.877411e+01	3.028480e+02
2.220000e-06	2.545142e-06	4.521850e-09	1.813018e+01	2.972067e+02
2.230000e-06	2.453869e-06	4.431825e-09	1.748000e+01	2.914478e+02
2.240000e-06	2.361853e-06	4.339637e-09	1.682453e+01	2.855709e+02
2.250000e-06	2.269079e-06	4.256036e-09	1.616366e+01	2.795748e+02
2.260000e-06	2.175407e-06	4.175169e-09	1.549639e+01	2.734578e+02
2.270000e-06	2.080714e-06	4.077086e-09	1.482185e+01	2.672169e+02
2.280000e-06	1.985069e-06	3.970222e-09	1.414053e+01	2.608483e+02
2.290000e-06	1.888719e-06	3.864574e-09	1.345419e+01	2.543479e+02
2.300000e-06	1.791861e-06	3.768637e-09	1.276423e+01	2.477121e+02
2.310000e-06	1.694513e-06	3.673616e-09	1.207077e+01	2.409380e+02
2.320000e-06	1.596585e-06	3.567483e-09	1.137319e+01	2.340244e+02
2.330000e-06	1.498096e-06	3.455587e-09	1.067161e+01	2.269717e+02
2.340000e-06	1.399127e-06	3.347877e-09	9.966604e+00	2.197815e+02
2.350000e-06	1.299749e-06	3.238206e-09	9.258692e+00	2.124557e+02
2.360000e-06	1.200094e-06	3.127915e-09	8.548803e+00	2.049958e+02
2.370000e-06	1.100118e-06	3.015678e-09	7.836630e+00	1.974015e+02
2.380000e-06	9.997568e-07	2.893500e-09	7.121713e+00	1.896702e+02
2.390000e-06	8.990263e-07	2.769079e-09	6.404165e+00	1.817965e+02
2.400000e-06	7.978957e-07	2.647221e-09	5.683767e+00	1.737723e+02
2.410000e-06	6.964351e-07	2.527306e-09	4.961018e+00	1.655872e+02
2.420000e-06	5.947460e-07	2.401938e-09	4.236641e+00	1.572296e+02
2.430000e-06	4.928562e-07	2.267711e-09	3.510834e+00	1.486875e+02
2.440000e-06	3.907813e-07	2.134347e-09	2.783710e+00	1.399494e+02
2.450000e-06	2.885947e-07	2.004662e-09	2.055789e+00	1.310053e+02
2.460000e-06	1.862408e-07	1.871359e-09	1.326676e+00	1.218466e+02
2.470000e-06	8.368469e-08	1.731186e-09	5.961233e-01	1.124666e+02
2.480000e-06	-1.894566e-08	1.583217e-09	-1.349584e-01	1.028601e+02
2.490000e-06	-1.216074e-07	1.427969e-09	-8.662637e-01	9.302323e+01
2.500000e-06	-2.242547e-07	1.270693e-09	-1.597466e+00	8.295308e+01
2.510000e-06	-3.267750e-07	1.115255e-09	-2.327764e+00	7.264717e+01
2.520000e-06	-4.291224e-07	9.619902e-10	-3.056830e+00	6.210315e+01
2.530000e-06	-5.313373e-07	8.028215e-10	-3.784952e+00	5.131838e+01
2.540000e-06	-6.333331e-07	6.342182e-10	-4.511514e+00	4.028958e+01
2.550000e-06	-7.350160e-07	4.634822e-10	-5.235847e+00	2.901260e+01
2.560000e-06	-8.363365e-07	2.899957e-10	-5.957598e+00	1.748247e+01
2.570000e-06	-9.372630e-07	1.101261e-10	-6.676542e+00	5.693845e+00
2.580000e-06	-1.037830e-06	-7.577511e-11	-7.392926e+00	-6.357939e+00
2.590000e-06	-1.137983e-06	-2.668652e-10	-8.106361e+00	-1.867522e+01
2.600000e-06	-1.237693e-06	-4.621647e-10	-8.816636e+00	-3.125571e+01
2.610000e-06	-1.337038e-06	-6.594795e-10	-9.524317e+00	-4.408995e+01
2.620000e-06	-1.435975e-06	-8.586831e-10	-1.022909e+01	-5.715874e+01
2.630000e-06	-1.534380e-06	-1.061011e-09	-1.093007e+01	-7.043118e+01
2.640000e-06	-1.632242e-06	-1.268079e-09	-1.162719e+01	-8.386377e+01
2.650000e-06	-1.729488e-06	-1.478618e-09	-1.231992e+01	-9.740093e+01
2.660000e-06	-1.826186e-06	-1.687403e-09	-1.300874e+01	-1.109772e+02
2.670000e-06	-1.922388e-06	-1.894051e-09	-1.369403e+01	-1.245206e+02
2.680000e-06	-2.017963e-06	-2.100709e-09	-1.437485e+01	-1.379577e+02
2.690000e-06	-2.112781e-06	-2.305472e-09	-1.505028e+01	-1.512182e+02
2.700000e-06	-2.206675e-06	-2.507575e-09	-1.571913e+01	-1.642394e+02
2.710000e-06	-2.299569e-06	-2.705845e-09	-1.638086e+01	-1.769702e+02
2.720000e-06	-2.391526e-06	-2.896304e-09	-1.703591e+01	-1.893721e+02
2.730000e-06	-2.482662e-06	-3.078956e-09	-1.768511e+01	-2.014199e+02
2.740000e-06	-2.572922e-06	-3.255666e-09	-1.832807e+01	-2.130996e+02
2.750000e-06	-2.662264e-06	-3.428826e-09	-1.896449e+01	-2.244060e+02
2.760000e-06	-2.750779e-06	-3.595480e-09	-1.959502e+01	-2.353393e+02
2.770000e-06	-2.838534e-06	-3.753927e-09	-2.022014e+01	-2.459019e+02
2.780000e-06	-2.925380e-06	-3.906550e-09	-2.083878e+01	-2.560966e+02
2.790000e-06	-3.010969e-06	-4.054258e-09	-2.144848e+01	-2.659252e+02
2.800000e-06	-3.095306e-06	-4.199710e-09	-2.204924e+01	-2.753886e+02
2.810000e-06	-3.178658e-06	-4.341266e-09	-2.264300e+01	-2.844876e+02
2.820000e-06	-3.261032e-06	-4.475736e-09	-2.322978e+01	-2.932240e+02
2.830000e-06	-3.342317e-06	-4.603076e-09	-2.380882e+01	-3.016019e+02
2.840000e-06	-3.422530e-06	-4.725177e-09	-2.438020e+01	-3.096284e+02
2.850000e-06	-3.501437e-06	-4.843287e-09	-2.494230e+01	-3.173137e+02
2.860000e-06	-3.578774e-06	-4.956772e-09	-2.549320e+01	-3.246702e+02
2.870000e-06	-3.654639e-06	-5.064575e-09	-2.603362e+01	-3.317119e+02
2.880000e-06	-3.729114e-06	-5.166577e-09	-2.656414e+01	-3.384534e+02
2.890000e-06	-3.802266e-06	-5.265069e-09	-2.708523e+01	-3.449092e+02
2.900000e-06	-3.874129e-06	-5.361811e-09	-2.759715e+01	-3.510930e+02
2.910000e-06	-3.944528e-06	-5.454672e-09	-2.809863e+01	-3.570186e+02
2.920000e-06	-4.013354e-06	-5.541884e-09	-2.858891e+01	-3.626996e+02
2.930000e-06	-4.080695e-06	-5.624480e-09	-2.906861e+01	-3.681502e+02
2.940000e-06	-4.146642e-06	-5.703018e-09	-2.953838e+01	-3.733850e+02
