# Temperatura_=_78.9
# Concentracion g/m^3_=_15000.0
# C_Vs_to_Am_M_A/Vsm_=_65563218390.804596
# pendiente_HvsI_1/m_=_3716.3
# ordenada_HvsI_A/m_=_1297.0
# frecuencia_Hz_=_301581.5016752755

Tiempo_(s)	Campo_(V.s)	Magnetizacion_(V.s)	Campo_(kA/m)	Magnetizacion_(A/m)
0.000000e+00	-5.386478e-06	-6.997343e-09	-3.834106e+01	-4.570214e+02
1.000000e-08	-5.383601e-06	-6.994800e-09	-3.832058e+01	-4.567759e+02
2.000000e-08	-5.378991e-06	-6.988537e-09	-3.828777e+01	-4.564604e+02
3.000000e-08	-5.372687e-06	-6.980501e-09	-3.824290e+01	-4.560768e+02
4.000000e-08	-5.364760e-06	-6.969941e-09	-3.818647e+01	-4.556189e+02
5.000000e-08	-5.355051e-06	-6.958082e-09	-3.811736e+01	-4.550740e+02
6.000000e-08	-5.343283e-06	-6.947748e-09	-3.803359e+01	-4.544263e+02
7.000000e-08	-5.329567e-06	-6.935489e-09	-3.793597e+01	-4.536621e+02
8.000000e-08	-5.313769e-06	-6.916843e-09	-3.782351e+01	-4.527744e+02
9.000000e-08	-5.295795e-06	-6.938510e-09	-3.769558e+01	-4.517655e+02
1.000000e-07	-5.275820e-06	-6.955296e-09	-3.755339e+01	-4.506482e+02
1.100000e-07	-5.253934e-06	-6.920311e-09	-3.739761e+01	-4.494437e+02
1.200000e-07	-5.230332e-06	-6.893548e-09	-3.722961e+01	-4.481773e+02
1.300000e-07	-5.205197e-06	-6.819195e-09	-3.705070e+01	-4.468726e+02
1.400000e-07	-5.178439e-06	-6.728405e-09	-3.686023e+01	-4.455462e+02
1.500000e-07	-5.150081e-06	-6.823909e-09	-3.665838e+01	-4.442029e+02
1.600000e-07	-5.120304e-06	-6.797277e-09	-3.644643e+01	-4.428342e+02
1.700000e-07	-5.088934e-06	-6.726358e-09	-3.622314e+01	-4.414194e+02
1.800000e-07	-5.055420e-06	-6.788866e-09	-3.598458e+01	-4.399290e+02
1.900000e-07	-5.020026e-06	-6.668674e-09	-3.573265e+01	-4.383304e+02
2.000000e-07	-4.983170e-06	-6.621141e-09	-3.547031e+01	-4.365940e+02
2.100000e-07	-4.944539e-06	-6.674978e-09	-3.519533e+01	-4.346983e+02
2.200000e-07	-4.904110e-06	-6.596242e-09	-3.490755e+01	-4.326333e+02
2.300000e-07	-4.861737e-06	-6.570320e-09	-3.460594e+01	-4.304011e+02
2.400000e-07	-4.817459e-06	-6.534520e-09	-3.429077e+01	-4.280142e+02
2.500000e-07	-4.771428e-06	-6.458181e-09	-3.396312e+01	-4.254918e+02
2.600000e-07	-4.723404e-06	-6.479117e-09	-3.362129e+01	-4.228550e+02
2.700000e-07	-4.673318e-06	-6.401643e-09	-3.326477e+01	-4.201224e+02
2.800000e-07	-4.621192e-06	-6.341051e-09	-3.289374e+01	-4.173073e+02
2.900000e-07	-4.567191e-06	-6.332621e-09	-3.250936e+01	-4.144158e+02
3.000000e-07	-4.511637e-06	-6.275052e-09	-3.211393e+01	-4.114472e+02
3.100000e-07	-4.454438e-06	-6.232490e-09	-3.170678e+01	-4.083962e+02
3.200000e-07	-4.395417e-06	-6.193410e-09	-3.128667e+01	-4.052551e+02
3.300000e-07	-4.334812e-06	-6.134576e-09	-3.085528e+01	-4.020164e+02
3.400000e-07	-4.272817e-06	-6.045270e-09	-3.041400e+01	-3.986747e+02
3.500000e-07	-4.209454e-06	-6.000572e-09	-2.996298e+01	-3.952276e+02
3.600000e-07	-4.144581e-06	-5.977932e-09	-2.950121e+01	-3.916752e+02
3.700000e-07	-4.077989e-06	-5.923592e-09	-2.902721e+01	-3.880194e+02
3.800000e-07	-4.009779e-06	-5.872406e-09	-2.854169e+01	-3.842623e+02
3.900000e-07	-3.940207e-06	-5.800169e-09	-2.804647e+01	-3.804055e+02
4.000000e-07	-3.869424e-06	-5.729337e-09	-2.754264e+01	-3.764495e+02
4.100000e-07	-3.797417e-06	-5.670666e-09	-2.703009e+01	-3.723936e+02
4.200000e-07	-3.723942e-06	-5.596116e-09	-2.650709e+01	-3.682369e+02
4.300000e-07	-3.648878e-06	-5.545647e-09	-2.597279e+01	-3.639789e+02
4.400000e-07	-3.572294e-06	-5.484360e-09	-2.542766e+01	-3.596200e+02
4.500000e-07	-3.494274e-06	-5.409840e-09	-2.487232e+01	-3.551617e+02
4.600000e-07	-3.414837e-06	-5.341145e-09	-2.430688e+01	-3.506059e+02
4.700000e-07	-3.334082e-06	-5.270792e-09	-2.373206e+01	-3.459543e+02
4.800000e-07	-3.252170e-06	-5.198838e-09	-2.314901e+01	-3.412070e+02
4.900000e-07	-3.169123e-06	-5.119425e-09	-2.255788e+01	-3.363624e+02
5.000000e-07	-3.085127e-06	-5.046174e-09	-2.196000e+01	-3.314164e+02
5.100000e-07	-3.000321e-06	-4.969160e-09	-2.135634e+01	-3.263634e+02
5.200000e-07	-2.914532e-06	-4.895521e-09	-2.074569e+01	-3.211975e+02
5.300000e-07	-2.827650e-06	-4.809317e-09	-2.012727e+01	-3.159134e+02
5.400000e-07	-2.739832e-06	-4.713589e-09	-1.950218e+01	-3.105081e+02
5.500000e-07	-2.651080e-06	-4.625186e-09	-1.887044e+01	-3.049811e+02
5.600000e-07	-2.561178e-06	-4.541494e-09	-1.823052e+01	-2.993346e+02
5.700000e-07	-2.470145e-06	-4.462713e-09	-1.758254e+01	-2.935722e+02
5.800000e-07	-2.378242e-06	-4.375437e-09	-1.692837e+01	-2.876971e+02
5.900000e-07	-2.285579e-06	-4.285779e-09	-1.626880e+01	-2.817110e+02
6.000000e-07	-2.192099e-06	-4.191612e-09	-1.560341e+01	-2.756125e+02
6.100000e-07	-2.097864e-06	-4.091215e-09	-1.493264e+01	-2.693969e+02
6.200000e-07	-2.002905e-06	-3.988635e-09	-1.425672e+01	-2.630568e+02
6.300000e-07	-1.907248e-06	-3.889926e-09	-1.357583e+01	-2.565838e+02
6.400000e-07	-1.810924e-06	-3.794181e-09	-1.289019e+01	-2.499706e+02
6.500000e-07	-1.713844e-06	-3.694427e-09	-1.219917e+01	-2.432124e+02
6.600000e-07	-1.616034e-06	-3.590059e-09	-1.150296e+01	-2.363088e+02
6.700000e-07	-1.517546e-06	-3.480905e-09	-1.080193e+01	-2.292635e+02
6.800000e-07	-1.418410e-06	-3.370558e-09	-1.009627e+01	-2.220829e+02
6.900000e-07	-1.318782e-06	-3.256616e-09	-9.387120e+00	-2.147744e+02
7.000000e-07	-1.218838e-06	-3.143763e-09	-8.675715e+00	-2.073436e+02
7.100000e-07	-1.118584e-06	-3.030835e-09	-7.962102e+00	-1.997917e+02
7.200000e-07	-1.017968e-06	-2.913634e-09	-7.245919e+00	-1.921142e+02
7.300000e-07	-9.170598e-07	-2.792616e-09	-6.527650e+00	-1.843007e+02
7.400000e-07	-8.158590e-07	-2.669751e-09	-5.807301e+00	-1.763359e+02
7.500000e-07	-7.143220e-07	-2.544802e-09	-5.084558e+00	-1.682023e+02
7.600000e-07	-6.125062e-07	-2.415955e-09	-4.359832e+00	-1.598822e+02
7.700000e-07	-5.104662e-07	-2.284053e-09	-3.633509e+00	-1.513611e+02
7.800000e-07	-4.082503e-07	-2.151026e-09	-2.905934e+00	-1.426287e+02
7.900000e-07	-3.059476e-07	-2.016276e-09	-2.177741e+00	-1.336799e+02
8.000000e-07	-2.035509e-07	-1.875627e-09	-1.448879e+00	-1.245135e+02
8.100000e-07	-1.010370e-07	-1.733545e-09	-7.191834e-01	-1.151305e+02
8.200000e-07	1.543095e-09	-1.588366e-09	1.098378e-02	-1.055321e+02
8.300000e-07	1.041599e-07	-1.436756e-09	7.414120e-01	-9.571703e+01
8.400000e-07	2.067386e-07	-1.280681e-09	1.471570e+00	-8.568088e+01
8.500000e-07	3.091655e-07	-1.122419e-09	2.200646e+00	-7.541576e+01
8.600000e-07	4.115146e-07	-9.623002e-10	2.929169e+00	-6.491127e+01
8.700000e-07	5.138200e-07	-7.968925e-10	3.657381e+00	-5.415635e+01
8.800000e-07	6.159581e-07	-6.277809e-10	4.384402e+00	-4.314119e+01
8.900000e-07	7.178946e-07	-4.560686e-10	5.109988e+00	-3.185894e+01
9.000000e-07	8.196083e-07	-2.810122e-10	5.833989e+00	-2.030668e+01
9.100000e-07	9.209963e-07	-1.007799e-10	6.555670e+00	-8.485469e+00
9.200000e-07	1.022024e-06	8.314407e-11	7.274790e+00	3.600100e+00
9.300000e-07	1.122666e-06	2.711851e-10	7.991163e+00	1.594267e+01
9.400000e-07	1.222989e-06	4.640312e-10	8.705262e+00	2.853251e+01
9.500000e-07	1.323004e-06	6.592848e-10	9.417169e+00	4.135713e+01
9.600000e-07	1.422526e-06	8.550749e-10	1.012557e+01	5.439998e+01
9.700000e-07	1.521501e-06	1.051922e-09	1.083007e+01	6.763837e+01
9.800000e-07	1.619894e-06	1.252970e-09	1.153044e+01	8.104105e+01
9.900000e-07	1.717580e-06	1.456560e-09	1.222577e+01	9.456635e+01
1.000000e-06	1.814448e-06	1.661581e-09	1.291528e+01	1.081615e+02
1.010000e-06	1.910454e-06	1.865550e-09	1.359865e+01	1.217634e+02
1.020000e-06	2.005727e-06	2.070194e-09	1.427681e+01	1.353019e+02
1.030000e-06	2.100350e-06	2.274470e-09	1.495033e+01	1.487040e+02
1.040000e-06	2.194184e-06	2.474104e-09	1.561825e+01	1.618994e+02
1.050000e-06	2.287300e-06	2.668776e-09	1.628104e+01	1.748259e+02
1.060000e-06	2.379745e-06	2.856227e-09	1.693907e+01	1.874335e+02
1.070000e-06	2.471464e-06	3.039201e-09	1.759193e+01	1.996868e+02
1.080000e-06	2.562380e-06	3.219121e-09	1.823907e+01	2.115654e+02
1.090000e-06	2.652276e-06	3.396376e-09	1.887895e+01	2.230617e+02
1.100000e-06	2.740994e-06	3.569074e-09	1.951045e+01	2.341772e+02
1.110000e-06	2.828628e-06	3.734306e-09	2.013423e+01	2.449187e+02
1.120000e-06	2.915372e-06	3.892891e-09	2.075168e+01	2.552940e+02
1.130000e-06	3.001193e-06	4.046702e-09	2.136255e+01	2.653089e+02
1.140000e-06	3.086061e-06	4.196443e-09	2.196664e+01	2.749660e+02
1.150000e-06	3.169993e-06	4.339326e-09	2.256407e+01	2.842652e+02
1.160000e-06	3.252922e-06	4.474295e-09	2.315437e+01	2.932045e+02
1.170000e-06	3.334668e-06	4.601226e-09	2.373624e+01	3.017825e+02
1.180000e-06	3.415128e-06	4.723257e-09	2.430895e+01	3.100005e+02
1.190000e-06	3.494376e-06	4.842177e-09	2.487304e+01	3.178634e+02
1.200000e-06	3.572397e-06	4.956841e-09	2.542840e+01	3.253804e+02
1.210000e-06	3.649170e-06	5.065542e-09	2.597487e+01	3.325645e+02
1.220000e-06	3.724583e-06	5.168285e-09	2.651165e+01	3.394309e+02
1.230000e-06	3.798488e-06	5.267548e-09	2.703771e+01	3.459965e+02
1.240000e-06	3.870853e-06	5.363693e-09	2.755281e+01	3.522779e+02
1.250000e-06	3.941720e-06	5.454276e-09	2.805725e+01	3.582914e+02
1.260000e-06	4.011161e-06	5.539395e-09	2.855153e+01	3.640526e+02
1.270000e-06	4.079303e-06	5.622669e-09	2.903656e+01	3.695769e+02
1.280000e-06	4.146113e-06	5.703599e-09	2.951212e+01	3.748797e+02
1.290000e-06	4.211221e-06	5.780838e-09	2.997555e+01	3.799764e+02
1.300000e-06	4.274606e-06	5.854869e-09	3.042673e+01	3.848818e+02
1.310000e-06	4.336524e-06	5.927903e-09	3.086747e+01	3.896091e+02
1.320000e-06	4.397134e-06	5.998847e-09	3.129889e+01	3.941682e+02
1.330000e-06	4.456371e-06	6.065042e-09	3.172054e+01	3.985652e+02
1.340000e-06	4.513909e-06	6.128226e-09	3.213009e+01	4.028010e+02
1.350000e-06	4.569670e-06	6.190491e-09	3.252700e+01	4.068720e+02
1.360000e-06	4.623730e-06	6.250387e-09	3.291180e+01	4.107714e+02
1.370000e-06	4.676053e-06	6.305536e-09	3.328424e+01	4.144915e+02
1.380000e-06	4.726399e-06	6.358037e-09	3.364260e+01	4.180260e+02
1.390000e-06	4.774727e-06	6.408844e-09	3.398661e+01	4.213721e+02
1.400000e-06	4.821320e-06	6.455313e-09	3.431826e+01	4.245322e+02
1.410000e-06	4.866353e-06	6.497132e-09	3.463880e+01	4.275136e+02
1.420000e-06	4.909872e-06	6.537001e-09	3.494857e+01	4.303272e+02
1.430000e-06	4.951563e-06	6.575467e-09	3.524532e+01	4.329853e+02
1.440000e-06	4.991351e-06	6.612164e-09	3.552854e+01	4.354990e+02
1.450000e-06	5.029464e-06	6.646382e-09	3.579983e+01	4.378756e+02
1.460000e-06	5.065972e-06	6.679634e-09	3.605969e+01	4.401180e+02
1.470000e-06	5.100727e-06	6.712259e-09	3.630708e+01	4.422241e+02
1.480000e-06	5.133502e-06	6.741918e-09	3.654037e+01	4.441892e+02
1.490000e-06	5.164456e-06	6.768227e-09	3.676071e+01	4.460078e+02
1.500000e-06	5.193771e-06	6.790588e-09	3.696937e+01	4.476770e+02
1.510000e-06	5.221378e-06	6.810594e-09	3.716587e+01	4.491982e+02
1.520000e-06	5.246986e-06	6.828718e-09	3.734816e+01	4.505778e+02
1.530000e-06	5.270542e-06	6.846388e-09	3.751582e+01	4.518269e+02
1.540000e-06	5.292275e-06	6.864509e-09	3.767052e+01	4.529590e+02
1.550000e-06	5.312286e-06	6.881661e-09	3.781296e+01	4.539867e+02
1.560000e-06	5.330398e-06	6.897739e-09	3.794188e+01	4.549189e+02
1.570000e-06	5.346449e-06	6.913050e-09	3.805613e+01	4.557583e+02
1.580000e-06	5.360565e-06	6.926357e-09	3.815661e+01	4.565017e+02
1.590000e-06	5.372740e-06	6.935795e-09	3.824327e+01	4.571401e+02
1.600000e-06	5.382721e-06	6.941899e-09	3.831432e+01	4.576626e+02
1.610000e-06	5.390582e-06	6.945744e-09	3.837027e+01	4.580591e+02
1.620000e-06	5.396545e-06	6.949692e-09	3.841271e+01	4.583244e+02
1.630000e-06	5.400682e-06	6.954651e-09	3.844216e+01	4.584598e+02
1.640000e-06	5.402922e-06	6.958361e-09	3.845811e+01	4.584740e+02
1.650000e-06	5.403188e-06	6.960294e-09	3.846000e+01	4.583808e+02
1.660000e-06	5.401648e-06	6.958788e-09	3.844904e+01	4.581965e+02
1.670000e-06	5.398475e-06	6.952533e-09	3.842645e+01	4.579349e+02
1.680000e-06	5.393641e-06	6.948012e-09	3.839205e+01	4.576044e+02
1.690000e-06	5.386841e-06	6.941619e-09	3.834364e+01	4.572052e+02
1.700000e-06	5.378240e-06	6.932525e-09	3.828242e+01	4.567294e+02
1.710000e-06	5.368111e-06	6.921973e-09	3.821033e+01	4.561633e+02
1.720000e-06	5.356233e-06	6.913108e-09	3.812577e+01	4.554912e+02
1.730000e-06	5.342364e-06	6.917415e-09	3.802705e+01	4.547004e+02
1.740000e-06	5.326420e-06	6.876851e-09	3.791356e+01	4.537856e+02
1.750000e-06	5.308179e-06	6.821170e-09	3.778373e+01	4.527516e+02
1.760000e-06	5.287262e-06	6.818463e-09	3.763484e+01	4.516131e+02
1.770000e-06	5.264034e-06	6.802176e-09	3.746950e+01	4.503927e+02
1.780000e-06	5.239582e-06	6.859302e-09	3.729545e+01	4.491158e+02
1.790000e-06	5.214412e-06	6.870470e-09	3.711629e+01	4.478050e+02
1.800000e-06	5.187750e-06	6.699969e-09	3.692651e+01	4.464745e+02
1.810000e-06	5.158870e-06	6.762498e-09	3.672094e+01	4.451264e+02
1.820000e-06	5.128194e-06	6.770435e-09	3.650258e+01	4.437495e+02
1.830000e-06	5.095814e-06	6.637666e-09	3.627210e+01	4.423207e+02
1.840000e-06	5.061506e-06	6.778403e-09	3.602790e+01	4.408094e+02
1.850000e-06	5.025620e-06	6.749989e-09	3.577246e+01	4.391830e+02
1.860000e-06	4.987933e-06	6.628504e-09	3.550421e+01	4.374134e+02
1.870000e-06	4.948307e-06	6.676853e-09	3.522215e+01	4.354814e+02
1.880000e-06	4.907020e-06	6.563998e-09	3.492827e+01	4.333795e+02
1.890000e-06	4.863941e-06	6.579004e-09	3.462163e+01	4.311124e+02
1.900000e-06	4.819268e-06	6.582190e-09	3.430365e+01	4.286942e+02
1.910000e-06	4.772814e-06	6.431391e-09	3.397298e+01	4.261450e+02
1.920000e-06	4.724324e-06	6.517127e-09	3.362784e+01	4.234858e+02
1.930000e-06	4.674207e-06	6.427881e-09	3.327110e+01	4.207342e+02
1.940000e-06	4.622320e-06	6.338421e-09	3.290177e+01	4.179019e+02
1.950000e-06	4.568374e-06	6.386962e-09	3.251778e+01	4.149937e+02
1.960000e-06	4.512471e-06	6.277277e-09	3.211986e+01	4.120076e+02
1.970000e-06	4.454896e-06	6.239328e-09	3.171004e+01	4.089374e+02
1.980000e-06	4.395913e-06	6.187759e-09	3.129020e+01	4.057755e+02
1.990000e-06	4.335353e-06	6.167368e-09	3.085913e+01	4.025146e+02
2.000000e-06	4.273028e-06	6.135856e-09	3.041550e+01	3.991499e+02
2.010000e-06	4.209152e-06	6.009925e-09	2.996083e+01	3.956797e+02
2.020000e-06	4.143792e-06	5.994056e-09	2.949560e+01	3.921045e+02
2.030000e-06	4.076982e-06	5.910424e-09	2.902004e+01	3.884263e+02
2.040000e-06	4.008779e-06	5.869058e-09	2.853457e+01	3.846473e+02
2.050000e-06	3.939089e-06	5.842767e-09	2.803851e+01	3.807687e+02
2.060000e-06	3.867874e-06	5.771050e-09	2.753160e+01	3.767909e+02
2.070000e-06	3.795267e-06	5.736423e-09	2.701479e+01	3.727130e+02
2.080000e-06	3.721407e-06	5.609925e-09	2.648905e+01	3.685341e+02
2.090000e-06	3.646178e-06	5.556534e-09	2.595357e+01	3.642540e+02
2.100000e-06	3.569474e-06	5.501902e-09	2.540759e+01	3.598732e+02
2.110000e-06	3.491169e-06	5.426291e-09	2.485021e+01	3.553933e+02
2.120000e-06	3.411449e-06	5.373275e-09	2.428276e+01	3.508164e+02
2.130000e-06	3.330648e-06	5.284911e-09	2.370762e+01	3.461438e+02
2.140000e-06	3.248738e-06	5.228134e-09	2.312458e+01	3.413754e+02
2.150000e-06	3.165701e-06	5.149188e-09	2.253353e+01	3.365090e+02
2.160000e-06	3.081679e-06	5.082211e-09	2.193545e+01	3.315401e+02
2.170000e-06	2.996628e-06	4.996645e-09	2.133006e+01	3.264630e+02
2.180000e-06	2.910229e-06	4.911780e-09	2.071507e+01	3.212716e+02
2.190000e-06	2.822561e-06	4.842891e-09	2.009105e+01	3.159612e+02
2.200000e-06	2.733966e-06	4.762324e-09	1.946043e+01	3.105293e+02
2.210000e-06	2.644452e-06	4.684381e-09	1.882326e+01	3.049760e+02
2.220000e-06	2.554020e-06	4.584565e-09	1.817957e+01	2.993039e+02
2.230000e-06	2.462780e-06	4.496518e-09	1.753012e+01	2.935165e+02
2.240000e-06	2.370754e-06	4.401867e-09	1.687508e+01	2.876171e+02
2.250000e-06	2.277919e-06	4.317180e-09	1.621428e+01	2.816067e+02
2.260000e-06	2.184242e-06	4.239885e-09	1.554748e+01	2.754832e+02
2.270000e-06	2.089576e-06	4.147855e-09	1.487365e+01	2.692411e+02
2.280000e-06	1.993923e-06	4.040788e-09	1.419279e+01	2.628727e+02
2.290000e-06	1.897532e-06	3.926648e-09	1.350667e+01	2.563698e+02
2.300000e-06	1.800634e-06	3.826718e-09	1.281695e+01	2.497252e+02
2.310000e-06	1.703241e-06	3.729592e-09	1.212370e+01	2.429353e+02
2.320000e-06	1.605281e-06	3.626509e-09	1.142643e+01	2.360004e+02
2.330000e-06	1.506782e-06	3.516429e-09	1.072531e+01	2.289250e+02
2.340000e-06	1.407803e-06	3.411452e-09	1.002077e+01	2.217159e+02
2.350000e-06	1.308417e-06	3.300597e-09	9.313338e+00	2.143804e+02
2.360000e-06	1.208679e-06	3.185649e-09	8.603399e+00	2.069232e+02
2.370000e-06	1.108659e-06	3.072641e-09	7.891457e+00	1.993445e+02
2.380000e-06	1.008288e-06	2.952314e-09	7.177013e+00	1.916385e+02
2.390000e-06	9.075460e-07	2.829596e-09	6.459931e+00	1.837935e+02
2.400000e-06	8.064589e-07	2.708069e-09	5.740391e+00	1.757936e+02
2.410000e-06	7.050054e-07	2.587657e-09	5.018242e+00	1.676209e+02
2.420000e-06	6.032781e-07	2.461330e-09	4.294145e+00	1.592584e+02
2.430000e-06	5.013316e-07	2.327133e-09	3.568488e+00	1.506922e+02
2.440000e-06	3.991896e-07	2.192941e-09	2.841440e+00	1.419132e+02
2.450000e-06	2.968557e-07	2.062717e-09	2.113025e+00	1.329173e+02
2.460000e-06	1.943306e-07	1.927189e-09	1.383249e+00	1.237039e+02
2.470000e-06	9.162933e-08	1.784815e-09	6.522194e-01	1.142742e+02
2.480000e-06	-1.114349e-08	1.635714e-09	-7.931958e-02	1.046291e+02
2.490000e-06	-1.138839e-07	1.480027e-09	-8.106276e-01	9.476666e+01
2.500000e-06	-2.165827e-07	1.322378e-09	-1.541640e+00	8.468174e+01
2.510000e-06	-3.191936e-07	1.165703e-09	-2.272026e+00	7.436577e+01
2.520000e-06	-4.216916e-07	1.010847e-09	-3.001609e+00	6.380805e+01
2.530000e-06	-5.240445e-07	8.502476e-10	-3.730159e+00	5.299763e+01
2.540000e-06	-6.261512e-07	6.824382e-10	-4.456957e+00	4.192521e+01
2.550000e-06	-7.279273e-07	5.114719e-10	-5.181401e+00	3.058473e+01
2.560000e-06	-8.293848e-07	3.362255e-10	-5.903578e+00	1.897413e+01
2.570000e-06	-9.304357e-07	1.537356e-10	-6.622860e+00	7.095300e+00
2.580000e-06	-1.031064e-06	-3.428940e-11	-7.339132e+00	-5.046525e+00
2.590000e-06	-1.131328e-06	-2.260105e-10	-8.052815e+00	-1.744346e+01
2.600000e-06	-1.231134e-06	-4.216625e-10	-8.763239e+00	-3.008526e+01
2.610000e-06	-1.330479e-06	-6.189539e-10	-9.470375e+00	-4.295869e+01
2.620000e-06	-1.429469e-06	-8.198241e-10	-1.017499e+01	-5.604609e+01
2.630000e-06	-1.528026e-06	-1.025123e-09	-1.087652e+01	-6.932312e+01
2.640000e-06	-1.626004e-06	-1.232191e-09	-1.157393e+01	-8.275645e+01
2.650000e-06	-1.723396e-06	-1.440546e-09	-1.226716e+01	-9.630202e+01
2.660000e-06	-1.820265e-06	-1.649553e-09	-1.295668e+01	-1.099047e+02
2.670000e-06	-1.916563e-06	-1.859826e-09	-1.364213e+01	-1.234996e+02
2.680000e-06	-2.012211e-06	-2.069019e-09	-1.432296e+01	-1.370155e+02
2.690000e-06	-2.107149e-06	-2.276325e-09	-1.499873e+01	-1.503795e+02
2.700000e-06	-2.201257e-06	-2.482149e-09	-1.566859e+01	-1.635227e+02
2.710000e-06	-2.294389e-06	-2.684113e-09	-1.633151e+01	-1.763850e+02
2.720000e-06	-2.386517e-06	-2.877990e-09	-1.698728e+01	-1.889196e+02
2.730000e-06	-2.477804e-06	-3.062931e-09	-1.763706e+01	-2.010944e+02
2.740000e-06	-2.568256e-06	-3.240238e-09	-1.828090e+01	-2.128918e+02
2.750000e-06	-2.657801e-06	-3.412455e-09	-1.891828e+01	-2.243066e+02
2.760000e-06	-2.746479e-06	-3.580159e-09	-1.954949e+01	-2.353418e+02
2.770000e-06	-2.834328e-06	-3.741387e-09	-2.017480e+01	-2.460047e+02
2.780000e-06	-2.921234e-06	-3.898721e-09	-2.079340e+01	-2.563028e+02
2.790000e-06	-3.007012e-06	-4.051407e-09	-2.140397e+01	-2.662414e+02
2.800000e-06	-3.091561e-06	-4.198917e-09	-2.200579e+01	-2.758224e+02
2.810000e-06	-3.175014e-06	-4.341450e-09	-2.259981e+01	-2.850451e+02
2.820000e-06	-3.257471e-06	-4.476956e-09	-2.318674e+01	-2.939075e+02
2.830000e-06	-3.338786e-06	-4.607110e-09	-2.376555e+01	-3.024087e+02
2.840000e-06	-3.419019e-06	-4.731314e-09	-2.433664e+01	-3.105505e+02
2.850000e-06	-3.498174e-06	-4.849402e-09	-2.490007e+01	-3.183389e+02
2.860000e-06	-3.575845e-06	-4.963871e-09	-2.545293e+01	-3.257838e+02
2.870000e-06	-3.651909e-06	-5.074300e-09	-2.599436e+01	-3.328989e+02
2.880000e-06	-3.726528e-06	-5.180676e-09	-2.652550e+01	-3.397000e+02
2.890000e-06	-3.799794e-06	-5.282115e-09	-2.704701e+01	-3.462037e+02
2.900000e-06	-3.871819e-06	-5.379783e-09	-2.755969e+01	-3.524268e+02
2.910000e-06	-3.942488e-06	-5.474527e-09	-2.806271e+01	-3.583854e+02
2.920000e-06	-4.011566e-06	-5.563404e-09	-2.855441e+01	-3.640951e+02
2.930000e-06	-4.079113e-06	-5.645675e-09	-2.903521e+01	-3.695711e+02
2.940000e-06	-4.145216e-06	-5.723932e-09	-2.950573e+01	-3.748290e+02
