# Temperatura_=_57.58
# Concentracion g/m^3_=_15000.0
# C_Vs_to_Am_M_A/Vsm_=_65563218390.804596
# pendiente_HvsI_1/m_=_3716.3
# ordenada_HvsI_A/m_=_1297.0
# frecuencia_Hz_=_301575.63391293713

Tiempo_(s)	Campo_(V.s)	Magnetizacion_(V.s)	Campo_(kA/m)	Magnetizacion_(A/m)
0.000000e+00	-5.386763e-06	-5.512907e-09	-3.834382e+01	-3.595083e+02
1.000000e-08	-5.383908e-06	-5.512457e-09	-3.832349e+01	-3.593172e+02
2.000000e-08	-5.379287e-06	-5.504603e-09	-3.829061e+01	-3.590684e+02
3.000000e-08	-5.373068e-06	-5.496614e-09	-3.824633e+01	-3.587641e+02
4.000000e-08	-5.365268e-06	-5.489738e-09	-3.819081e+01	-3.584017e+02
5.000000e-08	-5.355584e-06	-5.481974e-09	-3.812188e+01	-3.579752e+02
6.000000e-08	-5.343801e-06	-5.473460e-09	-3.803801e+01	-3.574769e+02
7.000000e-08	-5.330207e-06	-5.456991e-09	-3.794124e+01	-3.569007e+02
8.000000e-08	-5.314558e-06	-5.451171e-09	-3.782985e+01	-3.562432e+02
9.000000e-08	-5.296559e-06	-5.502133e-09	-3.770174e+01	-3.555052e+02
1.000000e-07	-5.276540e-06	-5.487887e-09	-3.755923e+01	-3.546909e+02
1.100000e-07	-5.254684e-06	-5.429693e-09	-3.740366e+01	-3.538070e+02
1.200000e-07	-5.231131e-06	-5.409431e-09	-3.723601e+01	-3.528602e+02
1.300000e-07	-5.206029e-06	-5.295431e-09	-3.705732e+01	-3.518551e+02
1.400000e-07	-5.179284e-06	-5.315031e-09	-3.686695e+01	-3.507928e+02
1.500000e-07	-5.150885e-06	-5.456316e-09	-3.666480e+01	-3.496704e+02
1.600000e-07	-5.121041e-06	-5.308310e-09	-3.645237e+01	-3.484812e+02
1.700000e-07	-5.089653e-06	-5.334011e-09	-3.622894e+01	-3.472167e+02
1.800000e-07	-5.056095e-06	-5.380282e-09	-3.599007e+01	-3.458682e+02
1.900000e-07	-5.020703e-06	-5.157177e-09	-3.573815e+01	-3.444290e+02
2.000000e-07	-4.983887e-06	-5.232284e-09	-3.547609e+01	-3.428957e+02
2.100000e-07	-4.945265e-06	-5.263995e-09	-3.520117e+01	-3.412684e+02
2.200000e-07	-4.904781e-06	-5.135501e-09	-3.491299e+01	-3.395502e+02
2.300000e-07	-4.862337e-06	-5.190811e-09	-3.461088e+01	-3.377459e+02
2.400000e-07	-4.818050e-06	-5.170833e-09	-3.429563e+01	-3.358605e+02
2.500000e-07	-4.772059e-06	-5.097825e-09	-3.396826e+01	-3.338971e+02
2.600000e-07	-4.724040e-06	-5.086122e-09	-3.362645e+01	-3.318570e+02
2.700000e-07	-4.673894e-06	-5.031898e-09	-3.326950e+01	-3.297390e+02
2.800000e-07	-4.621727e-06	-5.016707e-09	-3.289817e+01	-3.275408e+02
2.900000e-07	-4.567698e-06	-4.967115e-09	-3.251359e+01	-3.252595e+02
3.000000e-07	-4.512153e-06	-4.931623e-09	-3.211821e+01	-3.228938e+02
3.100000e-07	-4.454925e-06	-4.916554e-09	-3.171085e+01	-3.204441e+02
3.200000e-07	-4.395863e-06	-4.875809e-09	-3.129044e+01	-3.179129e+02
3.300000e-07	-4.335275e-06	-4.826442e-09	-3.085917e+01	-3.153044e+02
3.400000e-07	-4.273201e-06	-4.743100e-09	-3.041731e+01	-3.126230e+02
3.500000e-07	-4.209803e-06	-4.727475e-09	-2.996603e+01	-3.098721e+02
3.600000e-07	-4.144913e-06	-4.700880e-09	-2.950414e+01	-3.070529e+02
3.700000e-07	-4.078215e-06	-4.644843e-09	-2.902937e+01	-3.041638e+02
3.800000e-07	-4.009995e-06	-4.616636e-09	-2.854377e+01	-3.012008e+02
3.900000e-07	-3.940469e-06	-4.554253e-09	-2.804888e+01	-2.981585e+02
4.000000e-07	-3.869734e-06	-4.491000e-09	-2.754537e+01	-2.950318e+02
4.100000e-07	-3.797772e-06	-4.434735e-09	-2.703313e+01	-2.918175e+02
4.200000e-07	-3.724271e-06	-4.398108e-09	-2.650994e+01	-2.885149e+02
4.300000e-07	-3.649157e-06	-4.360130e-09	-2.597527e+01	-2.851266e+02
4.400000e-07	-3.572614e-06	-4.303138e-09	-2.543042e+01	-2.816576e+02
4.500000e-07	-3.494638e-06	-4.245847e-09	-2.487538e+01	-2.781137e+02
4.600000e-07	-3.415204e-06	-4.180846e-09	-2.430995e+01	-2.744999e+02
4.700000e-07	-3.334510e-06	-4.123802e-09	-2.373556e+01	-2.708189e+02
4.800000e-07	-3.252624e-06	-4.064776e-09	-2.315269e+01	-2.670694e+02
4.900000e-07	-3.169622e-06	-4.005378e-09	-2.256186e+01	-2.632469e+02
5.000000e-07	-3.085667e-06	-3.952015e-09	-2.196426e+01	-2.593437e+02
5.100000e-07	-3.000808e-06	-3.888543e-09	-2.136022e+01	-2.553510e+02
5.200000e-07	-2.914976e-06	-3.821350e-09	-2.074925e+01	-2.512609e+02
5.300000e-07	-2.828150e-06	-3.754084e-09	-2.013121e+01	-2.470678e+02
5.400000e-07	-2.740449e-06	-3.687445e-09	-1.950694e+01	-2.427695e+02
5.500000e-07	-2.651728e-06	-3.617656e-09	-1.887541e+01	-2.383675e+02
5.600000e-07	-2.561732e-06	-3.542307e-09	-1.823481e+01	-2.338657e+02
5.700000e-07	-2.470621e-06	-3.476209e-09	-1.758627e+01	-2.292696e+02
5.800000e-07	-2.378720e-06	-3.411057e-09	-1.693210e+01	-2.245837e+02
5.900000e-07	-2.286057e-06	-3.338440e-09	-1.627251e+01	-2.198107e+02
6.000000e-07	-2.192550e-06	-3.257678e-09	-1.560691e+01	-2.149506e+02
6.100000e-07	-2.098265e-06	-3.177424e-09	-1.493578e+01	-2.100008e+02
6.200000e-07	-2.003272e-06	-3.099273e-09	-1.425961e+01	-2.049570e+02
6.300000e-07	-1.907598e-06	-3.020782e-09	-1.357858e+01	-1.998146e+02
6.400000e-07	-1.811239e-06	-2.947338e-09	-1.289268e+01	-1.945700e+02
6.500000e-07	-1.714071e-06	-2.871823e-09	-1.220103e+01	-1.892219e+02
6.600000e-07	-1.616096e-06	-2.786538e-09	-1.150363e+01	-1.837708e+02
6.700000e-07	-1.517472e-06	-2.693764e-09	-1.080161e+01	-1.782192e+02
6.800000e-07	-1.418340e-06	-2.606905e-09	-1.009596e+01	-1.725696e+02
6.900000e-07	-1.318767e-06	-2.522361e-09	-9.387186e+00	-1.668236e+02
7.000000e-07	-1.218813e-06	-2.432283e-09	-8.675701e+00	-1.609806e+02
7.100000e-07	-1.118545e-06	-2.338920e-09	-7.961979e+00	-1.550370e+02
7.200000e-07	-1.017972e-06	-2.243285e-09	-7.246083e+00	-1.489867e+02
7.300000e-07	-9.170677e-07	-2.147314e-09	-6.527831e+00	-1.428221e+02
7.400000e-07	-8.158400e-07	-2.053722e-09	-5.807276e+00	-1.365358e+02
7.500000e-07	-7.142675e-07	-1.961396e-09	-5.084268e+00	-1.301218e+02
7.600000e-07	-6.124378e-07	-1.863575e-09	-4.359428e+00	-1.235770e+02
7.700000e-07	-5.104375e-07	-1.757617e-09	-3.633374e+00	-1.169011e+02
7.800000e-07	-4.082856e-07	-1.649530e-09	-2.906240e+00	-1.100957e+02
7.900000e-07	-3.060356e-07	-1.543860e-09	-2.178409e+00	-1.031630e+02
8.000000e-07	-2.036624e-07	-1.436257e-09	-1.449701e+00	-9.610381e+01
8.100000e-07	-1.011769e-07	-1.326810e-09	-7.201926e-01	-8.891532e+01
8.200000e-07	1.365106e-09	-1.217927e-09	9.717035e-03	-8.159036e+01
8.300000e-07	1.039077e-07	-1.106229e-09	7.396315e-01	-7.411713e+01
8.400000e-07	2.064505e-07	-9.925030e-10	1.469547e+00	-6.648024e+01
8.500000e-07	3.089526e-07	-8.758140e-10	2.199172e+00	-5.866260e+01
8.600000e-07	4.113220e-07	-7.533074e-10	2.927854e+00	-5.064782e+01
8.700000e-07	5.135958e-07	-6.241752e-10	3.655855e+00	-4.242234e+01
8.800000e-07	6.157751e-07	-4.932096e-10	4.383183e+00	-3.397710e+01
8.900000e-07	7.177373e-07	-3.632479e-10	5.108966e+00	-2.530807e+01
9.000000e-07	8.193852e-07	-2.300827e-10	5.832511e+00	-1.641595e+01
9.100000e-07	9.207012e-07	-9.380264e-11	6.553694e+00	-7.305090e+00
9.200000e-07	1.021701e-06	4.679763e-11	7.272630e+00	2.017769e+00
9.300000e-07	1.122347e-06	1.941864e-10	7.989041e+00	1.154450e+01
9.400000e-07	1.222667e-06	3.460385e-10	8.703136e+00	2.126586e+01
9.500000e-07	1.322648e-06	4.974967e-10	9.414812e+00	3.117086e+01
9.600000e-07	1.422186e-06	6.494241e-10	1.012334e+01	4.124538e+01
9.700000e-07	1.521208e-06	8.047710e-10	1.082820e+01	5.147038e+01
9.800000e-07	1.619628e-06	9.637669e-10	1.152876e+01	6.182038e+01
9.900000e-07	1.717299e-06	1.124645e-09	1.222400e+01	7.226257e+01
1.000000e-06	1.814146e-06	1.287478e-09	1.291338e+01	8.275718e+01
1.010000e-06	1.910172e-06	1.450998e-09	1.359690e+01	9.325902e+01
1.020000e-06	2.005432e-06	1.612811e-09	1.427498e+01	1.037201e+02
1.030000e-06	2.100022e-06	1.772299e-09	1.494828e+01	1.140928e+02
1.040000e-06	2.193889e-06	1.928452e-09	1.561644e+01	1.243329e+02
1.050000e-06	2.287010e-06	2.081100e-09	1.627929e+01	1.344018e+02
1.060000e-06	2.379418e-06	2.230089e-09	1.693707e+01	1.442678e+02
1.070000e-06	2.471097e-06	2.375111e-09	1.758965e+01	1.539058e+02
1.080000e-06	2.561979e-06	2.519868e-09	1.823656e+01	1.632967e+02
1.090000e-06	2.651869e-06	2.662951e-09	1.887641e+01	1.724250e+02
1.100000e-06	2.740587e-06	2.801231e-09	1.950792e+01	1.812776e+02
1.110000e-06	2.828211e-06	2.928865e-09	2.013164e+01	1.898425e+02
1.120000e-06	2.914937e-06	3.049360e-09	2.074897e+01	1.981087e+02
1.130000e-06	3.000795e-06	3.169121e-09	2.136013e+01	2.060666e+02
1.140000e-06	3.085691e-06	3.288215e-09	2.196443e+01	2.137100e+02
1.150000e-06	3.169606e-06	3.400216e-09	2.256175e+01	2.210369e+02
1.160000e-06	3.252514e-06	3.503788e-09	2.315190e+01	2.280514e+02
1.170000e-06	3.334282e-06	3.603427e-09	2.373394e+01	2.347636e+02
1.180000e-06	3.414717e-06	3.698740e-09	2.430649e+01	2.411891e+02
1.190000e-06	3.493888e-06	3.792487e-09	2.487004e+01	2.473471e+02
1.200000e-06	3.571892e-06	3.884579e-09	2.542529e+01	2.532588e+02
1.210000e-06	3.648662e-06	3.974743e-09	2.597174e+01	2.589443e+02
1.220000e-06	3.724125e-06	4.061166e-09	2.650890e+01	2.644208e+02
1.230000e-06	3.798038e-06	4.143062e-09	2.703502e+01	2.697020e+02
1.240000e-06	3.870295e-06	4.220414e-09	2.754937e+01	2.747977e+02
1.250000e-06	3.941085e-06	4.294245e-09	2.805326e+01	2.797142e+02
1.260000e-06	4.010534e-06	4.365262e-09	2.854761e+01	2.844563e+02
1.270000e-06	4.078667e-06	4.435988e-09	2.903259e+01	2.890278e+02
1.280000e-06	4.145394e-06	4.504087e-09	2.950756e+01	2.934332e+02
1.290000e-06	4.210419e-06	4.568406e-09	2.997042e+01	2.976767e+02
1.300000e-06	4.273821e-06	4.629924e-09	3.042173e+01	3.017629e+02
1.310000e-06	4.335835e-06	4.689029e-09	3.086315e+01	3.056948e+02
1.320000e-06	4.396450e-06	4.745199e-09	3.129461e+01	3.094733e+02
1.330000e-06	4.455662e-06	4.798111e-09	3.171610e+01	3.130965e+02
1.340000e-06	4.513120e-06	4.848645e-09	3.212509e+01	3.165600e+02
1.350000e-06	4.568734e-06	4.898065e-09	3.252096e+01	3.198578e+02
1.360000e-06	4.622773e-06	4.946425e-09	3.290562e+01	3.229845e+02
1.370000e-06	4.675178e-06	4.990309e-09	3.327864e+01	3.259370e+02
1.380000e-06	4.725628e-06	5.029366e-09	3.363775e+01	3.287164e+02
1.390000e-06	4.774000e-06	5.067043e-09	3.398208e+01	3.313287e+02
1.400000e-06	4.820612e-06	5.103029e-09	3.431387e+01	3.337848e+02
1.410000e-06	4.865611e-06	5.136094e-09	3.463418e+01	3.360987e+02
1.420000e-06	4.909031e-06	5.166206e-09	3.494325e+01	3.382854e+02
1.430000e-06	4.950614e-06	5.194949e-09	3.523924e+01	3.403580e+02
1.440000e-06	4.990310e-06	5.222560e-09	3.552181e+01	3.423257e+02
1.450000e-06	5.028382e-06	5.248104e-09	3.579281e+01	3.441924e+02
1.460000e-06	5.064878e-06	5.272367e-09	3.605259e+01	3.459569e+02
1.470000e-06	5.099758e-06	5.297178e-09	3.630087e+01	3.476146e+02
1.480000e-06	5.132650e-06	5.321559e-09	3.653500e+01	3.491593e+02
1.490000e-06	5.163636e-06	5.343130e-09	3.675556e+01	3.505866e+02
1.500000e-06	5.192943e-06	5.360892e-09	3.696418e+01	3.518956e+02
1.510000e-06	5.220593e-06	5.375309e-09	3.716100e+01	3.530900e+02
1.520000e-06	5.246302e-06	5.389268e-09	3.734399e+01	3.541784e+02
1.530000e-06	5.269911e-06	5.403706e-09	3.751205e+01	3.551718e+02
1.540000e-06	5.291631e-06	5.418691e-09	3.766665e+01	3.560819e+02
1.550000e-06	5.311596e-06	5.431941e-09	3.780877e+01	3.569175e+02
1.560000e-06	5.329753e-06	5.443825e-09	3.793802e+01	3.576833e+02
1.570000e-06	5.345879e-06	5.455895e-09	3.805280e+01	3.583780e+02
1.580000e-06	5.360031e-06	5.466542e-09	3.815354e+01	3.589953e+02
1.590000e-06	5.372266e-06	5.474183e-09	3.824063e+01	3.595256e+02
1.600000e-06	5.382331e-06	5.478613e-09	3.831227e+01	3.599589e+02
1.610000e-06	5.390221e-06	5.481268e-09	3.836843e+01	3.602873e+02
1.620000e-06	5.396185e-06	5.484682e-09	3.841089e+01	3.605079e+02
1.630000e-06	5.400395e-06	5.489322e-09	3.844085e+01	3.606233e+02
1.640000e-06	5.402757e-06	5.492148e-09	3.845766e+01	3.606414e+02
1.650000e-06	5.403085e-06	5.495361e-09	3.846000e+01	3.605737e+02
1.660000e-06	5.401565e-06	5.492700e-09	3.844918e+01	3.604325e+02
1.670000e-06	5.398367e-06	5.485967e-09	3.842642e+01	3.602282e+02
1.680000e-06	5.393510e-06	5.484992e-09	3.839185e+01	3.599670e+02
1.690000e-06	5.386737e-06	5.482136e-09	3.834364e+01	3.596503e+02
1.700000e-06	5.378104e-06	5.476488e-09	3.828218e+01	3.592744e+02
1.710000e-06	5.367946e-06	5.470284e-09	3.820987e+01	3.588328e+02
1.720000e-06	5.356145e-06	5.468742e-09	3.812587e+01	3.583179e+02
1.730000e-06	5.342340e-06	5.478946e-09	3.802761e+01	3.577241e+02
1.740000e-06	5.326392e-06	5.392406e-09	3.791409e+01	3.570488e+02
1.750000e-06	5.308065e-06	5.367378e-09	3.778364e+01	3.562935e+02
1.760000e-06	5.287084e-06	5.402675e-09	3.763429e+01	3.554634e+02
1.770000e-06	5.263844e-06	5.389736e-09	3.746886e+01	3.545651e+02
1.780000e-06	5.239358e-06	5.514827e-09	3.729457e+01	3.536051e+02
1.790000e-06	5.214277e-06	5.416843e-09	3.711603e+01	3.525874e+02
1.800000e-06	5.187748e-06	5.252184e-09	3.692720e+01	3.515123e+02
1.810000e-06	5.158891e-06	5.412585e-09	3.672179e+01	3.503758e+02
1.820000e-06	5.128263e-06	5.272510e-09	3.650377e+01	3.491709e+02
1.830000e-06	5.095970e-06	5.215081e-09	3.627391e+01	3.478887e+02
1.840000e-06	5.061648e-06	5.416120e-09	3.602960e+01	3.465209e+02
1.850000e-06	5.025726e-06	5.208006e-09	3.577390e+01	3.450613e+02
1.860000e-06	4.988020e-06	5.194454e-09	3.550550e+01	3.435074e+02
1.870000e-06	4.948401e-06	5.277104e-09	3.522349e+01	3.418599e+02
1.880000e-06	4.907154e-06	5.059562e-09	3.492989e+01	3.401224e+02
1.890000e-06	4.864066e-06	5.130972e-09	3.462318e+01	3.383001e+02
1.900000e-06	4.819416e-06	5.109554e-09	3.430535e+01	3.363973e+02
1.910000e-06	4.772996e-06	5.043987e-09	3.397493e+01	3.344171e+02
1.920000e-06	4.724450e-06	5.109528e-09	3.362937e+01	3.323601e+02
1.930000e-06	4.674348e-06	4.930302e-09	3.327274e+01	3.302248e+02
1.940000e-06	4.622633e-06	4.992181e-09	3.290462e+01	3.280086e+02
1.950000e-06	4.568773e-06	4.975836e-09	3.252124e+01	3.257090e+02
1.960000e-06	4.512896e-06	4.846660e-09	3.212350e+01	3.233248e+02
1.970000e-06	4.455303e-06	4.870759e-09	3.171354e+01	3.208569e+02
1.980000e-06	4.396279e-06	4.797158e-09	3.129340e+01	3.183084e+02
1.990000e-06	4.335845e-06	4.841192e-09	3.086322e+01	3.156835e+02
2.000000e-06	4.273677e-06	4.753056e-09	3.042070e+01	3.129867e+02
2.010000e-06	4.209837e-06	4.675643e-09	2.996627e+01	3.102208e+02
2.020000e-06	4.144485e-06	4.701745e-09	2.950109e+01	3.073865e+02
2.030000e-06	4.077710e-06	4.567383e-09	2.902577e+01	3.044815e+02
2.040000e-06	4.009576e-06	4.573187e-09	2.854079e+01	3.015016e+02
2.050000e-06	3.939936e-06	4.545179e-09	2.804508e+01	2.984413e+02
2.060000e-06	3.868684e-06	4.508968e-09	2.753789e+01	2.952957e+02
2.070000e-06	3.796058e-06	4.456037e-09	2.702093e+01	2.920620e+02
2.080000e-06	3.722183e-06	4.343225e-09	2.649508e+01	2.887404e+02
2.090000e-06	3.646934e-06	4.337760e-09	2.595945e+01	2.853339e+02
2.100000e-06	3.570262e-06	4.272392e-09	2.541368e+01	2.818480e+02
2.110000e-06	3.491934e-06	4.230926e-09	2.485613e+01	2.782884e+02
2.120000e-06	3.412175e-06	4.171441e-09	2.428840e+01	2.746597e+02
2.130000e-06	3.331394e-06	4.117846e-09	2.371338e+01	2.709639e+02
2.140000e-06	3.249529e-06	4.073658e-09	2.313065e+01	2.671989e+02
2.150000e-06	3.166593e-06	3.987442e-09	2.254030e+01	2.633594e+02
2.160000e-06	3.082661e-06	3.948417e-09	2.194286e+01	2.594374e+02
2.170000e-06	2.997645e-06	3.885359e-09	2.133770e+01	2.554241e+02
2.180000e-06	2.911253e-06	3.826500e-09	2.072275e+01	2.513120e+02
2.190000e-06	2.823580e-06	3.754196e-09	2.009868e+01	2.470960e+02
2.200000e-06	2.734963e-06	3.696315e-09	1.946789e+01	2.427749e+02
2.210000e-06	2.645451e-06	3.645872e-09	1.883073e+01	2.383507e+02
2.220000e-06	2.555015e-06	3.561882e-09	1.818699e+01	2.338279e+02
2.230000e-06	2.463701e-06	3.484845e-09	1.753701e+01	2.292118e+02
2.240000e-06	2.371635e-06	3.411053e-09	1.688167e+01	2.245067e+02
2.250000e-06	2.278828e-06	3.351686e-09	1.622105e+01	2.197148e+02
2.260000e-06	2.185151e-06	3.279243e-09	1.555425e+01	2.148355e+02
2.270000e-06	2.090467e-06	3.206039e-09	1.488027e+01	2.098655e+02
2.280000e-06	1.994760e-06	3.128226e-09	1.419901e+01	2.048006e+02
2.290000e-06	1.898297e-06	3.040696e-09	1.351237e+01	1.996362e+02
2.300000e-06	1.801394e-06	2.954970e-09	1.282260e+01	1.943691e+02
2.310000e-06	1.704005e-06	2.879317e-09	1.212938e+01	1.889984e+02
2.320000e-06	1.605999e-06	2.807552e-09	1.143175e+01	1.835251e+02
2.330000e-06	1.507439e-06	2.717795e-09	1.073018e+01	1.779519e+02
2.340000e-06	1.408377e-06	2.628167e-09	1.002505e+01	1.722812e+02
2.350000e-06	1.308859e-06	2.541648e-09	9.316660e+00	1.665143e+02
2.360000e-06	1.209034e-06	2.456449e-09	8.606092e+00	1.606498e+02
2.370000e-06	1.109007e-06	2.367250e-09	7.894085e+00	1.546835e+02
2.380000e-06	1.008704e-06	2.274914e-09	7.180111e+00	1.486090e+02
2.390000e-06	9.079952e-07	2.181195e-09	6.463252e+00	1.424185e+02
2.400000e-06	8.069003e-07	2.082394e-09	5.743642e+00	1.361049e+02
2.410000e-06	7.055086e-07	1.982106e-09	5.021920e+00	1.296627e+02
2.420000e-06	6.039225e-07	1.881943e-09	4.298815e+00	1.230894e+02
2.430000e-06	5.020598e-07	1.780403e-09	3.573740e+00	1.163851e+02
2.440000e-06	3.998708e-07	1.677714e-09	2.846343e+00	1.095519e+02
2.450000e-06	2.975022e-07	1.575315e-09	2.117667e+00	1.025918e+02
2.460000e-06	1.949913e-07	1.468074e-09	1.387978e+00	9.550491e+01
2.470000e-06	9.232559e-08	1.356704e-09	6.571880e-01	8.828758e+01
2.480000e-06	-1.047094e-08	1.241360e-09	-7.453381e-02	8.093162e+01
2.490000e-06	-1.132648e-07	1.121486e-09	-8.062365e-01	7.342434e+01
2.500000e-06	-2.160004e-07	1.002517e-09	-1.537525e+00	6.574980e+01
2.510000e-06	-3.186238e-07	8.864302e-10	-2.268014e+00	5.789086e+01
2.520000e-06	-4.210607e-07	7.676615e-10	-2.997176e+00	4.983157e+01
2.530000e-06	-5.233504e-07	6.419217e-10	-3.725289e+00	4.155923e+01
2.540000e-06	-6.254782e-07	5.119803e-10	-4.452251e+00	3.306583e+01
2.550000e-06	-7.272939e-07	3.781561e-10	-5.176991e+00	2.434842e+01
2.560000e-06	-8.286732e-07	2.388063e-10	-5.898625e+00	1.540859e+01
2.570000e-06	-9.296388e-07	9.514248e-11	-6.617314e+00	6.251308e+00
2.580000e-06	-1.030219e-06	-4.792136e-11	-7.333259e+00	-3.116328e+00
2.590000e-06	-1.130423e-06	-1.898835e-10	-8.046528e+00	-1.268596e+01
2.600000e-06	-1.230251e-06	-3.357518e-10	-8.757119e+00	-2.244805e+01
2.610000e-06	-1.329670e-06	-4.865226e-10	-9.464797e+00	-3.239107e+01
2.620000e-06	-1.428659e-06	-6.416659e-10	-1.016942e+01	-4.250000e+01
2.630000e-06	-1.527150e-06	-7.997129e-10	-1.087049e+01	-5.275454e+01
2.640000e-06	-1.625061e-06	-9.582008e-10	-1.156744e+01	-6.312768e+01
2.650000e-06	-1.722403e-06	-1.115280e-09	-1.226033e+01	-7.358503e+01
2.660000e-06	-1.819216e-06	-1.271247e-09	-1.294947e+01	-8.408551e+01
2.670000e-06	-1.915539e-06	-1.430186e-09	-1.363510e+01	-9.458307e+01
2.680000e-06	-2.011306e-06	-1.589512e-09	-1.431679e+01	-1.050295e+02
2.690000e-06	-2.106325e-06	-1.745530e-09	-1.499315e+01	-1.153778e+02
2.700000e-06	-2.200436e-06	-1.899123e-09	-1.566305e+01	-1.255846e+02
2.710000e-06	-2.293553e-06	-2.053054e-09	-1.632587e+01	-1.356127e+02
2.720000e-06	-2.385708e-06	-2.205669e-09	-1.698184e+01	-1.454321e+02
2.730000e-06	-2.477038e-06	-2.352312e-09	-1.763194e+01	-1.550191e+02
2.740000e-06	-2.567505e-06	-2.493682e-09	-1.827590e+01	-1.643552e+02
2.750000e-06	-2.657048e-06	-2.632317e-09	-1.891328e+01	-1.734259e+02
2.760000e-06	-2.745715e-06	-2.767699e-09	-1.954443e+01	-1.822182e+02
2.770000e-06	-2.833570e-06	-2.898287e-09	-2.016979e+01	-1.907203e+02
2.780000e-06	-2.920537e-06	-3.023934e-09	-2.078883e+01	-1.989215e+02
2.790000e-06	-3.006286e-06	-3.144504e-09	-2.139921e+01	-2.068128e+02
2.800000e-06	-3.090774e-06	-3.260615e-09	-2.200061e+01	-2.143887e+02
2.810000e-06	-3.174275e-06	-3.372833e-09	-2.259499e+01	-2.216485e+02
2.820000e-06	-3.256765e-06	-3.480033e-09	-2.318216e+01	-2.285976e+02
2.830000e-06	-3.338159e-06	-3.583906e-09	-2.376154e+01	-2.352472e+02
2.840000e-06	-3.418513e-06	-3.684805e-09	-2.433351e+01	-2.416140e+02
2.850000e-06	-3.497653e-06	-3.777789e-09	-2.489684e+01	-2.477179e+02
2.860000e-06	-3.575296e-06	-3.864059e-09	-2.544951e+01	-2.535798e+02
2.870000e-06	-3.651393e-06	-3.947151e-09	-2.599118e+01	-2.592195e+02
2.880000e-06	-3.726035e-06	-4.027430e-09	-2.652250e+01	-2.646536e+02
2.890000e-06	-3.799341e-06	-4.106476e-09	-2.704430e+01	-2.698947e+02
2.900000e-06	-3.871395e-06	-4.184566e-09	-2.755719e+01	-2.749519e+02
2.910000e-06	-3.942048e-06	-4.260882e-09	-2.806011e+01	-2.798310e+02
2.920000e-06	-4.011080e-06	-4.333971e-09	-2.855150e+01	-2.845366e+02
2.930000e-06	-4.078618e-06	-4.403931e-09	-2.903224e+01	-2.890726e+02
2.940000e-06	-4.144818e-06	-4.471330e-09	-2.950346e+01	-2.934432e+02
