# Temperatura_=_75.49
# Concentracion g/m^3_=_15000.0
# C_Vs_to_Am_M_A/Vsm_=_65563218390.804596
# pendiente_HvsI_1/m_=_3716.3
# ordenada_HvsI_A/m_=_1297.0
# frecuencia_Hz_=_301574.14737246925

Tiempo_(s)	Campo_(V.s)	Magnetizacion_(V.s)	Campo_(kA/m)	Magnetizacion_(A/m)
0.000000e+00	-5.377295e-06	-6.699515e-09	-3.834134e+01	-4.376399e+02
1.000000e-08	-5.374409e-06	-6.698720e-09	-3.832077e+01	-4.373990e+02
2.000000e-08	-5.369778e-06	-6.693063e-09	-3.828774e+01	-4.370971e+02
3.000000e-08	-5.363524e-06	-6.685631e-09	-3.824315e+01	-4.367390e+02
4.000000e-08	-5.355695e-06	-6.678535e-09	-3.818733e+01	-4.363207e+02
5.000000e-08	-5.346043e-06	-6.669476e-09	-3.811851e+01	-4.358299e+02
6.000000e-08	-5.334319e-06	-6.660443e-09	-3.803491e+01	-4.352491e+02
7.000000e-08	-5.320638e-06	-6.645875e-09	-3.793737e+01	-4.345602e+02
8.000000e-08	-5.304862e-06	-6.618652e-09	-3.782488e+01	-4.337498e+02
9.000000e-08	-5.286869e-06	-6.647661e-09	-3.769658e+01	-4.328131e+02
1.000000e-07	-5.266842e-06	-6.665079e-09	-3.755379e+01	-4.317559e+02
1.100000e-07	-5.244913e-06	-6.622359e-09	-3.739743e+01	-4.305946e+02
1.200000e-07	-5.221338e-06	-6.612600e-09	-3.722933e+01	-4.293531e+02
1.300000e-07	-5.196241e-06	-6.527356e-09	-3.705038e+01	-4.280570e+02
1.400000e-07	-5.169472e-06	-6.433403e-09	-3.685952e+01	-4.267280e+02
1.500000e-07	-5.141100e-06	-6.571231e-09	-3.665721e+01	-4.253787e+02
1.600000e-07	-5.111330e-06	-6.503706e-09	-3.644495e+01	-4.240083e+02
1.700000e-07	-5.080005e-06	-6.421493e-09	-3.622159e+01	-4.226027e+02
1.800000e-07	-5.046567e-06	-6.518971e-09	-3.598317e+01	-4.211361e+02
1.900000e-07	-5.011247e-06	-6.355115e-09	-3.573133e+01	-4.195763e+02
2.000000e-07	-4.974486e-06	-6.328665e-09	-3.546922e+01	-4.178906e+02
2.100000e-07	-4.935970e-06	-6.424939e-09	-3.519459e+01	-4.160525e+02
2.200000e-07	-4.895609e-06	-6.315657e-09	-3.490681e+01	-4.140462e+02
2.300000e-07	-4.853288e-06	-6.286893e-09	-3.460505e+01	-4.118695e+02
2.400000e-07	-4.809030e-06	-6.266435e-09	-3.428948e+01	-4.095334e+02
2.500000e-07	-4.763080e-06	-6.176041e-09	-3.396185e+01	-4.070585e+02
2.600000e-07	-4.715200e-06	-6.193610e-09	-3.362045e+01	-4.044706e+02
2.700000e-07	-4.665204e-06	-6.136766e-09	-3.326397e+01	-4.017949e+02
2.800000e-07	-4.613152e-06	-6.082412e-09	-3.289283e+01	-3.990507e+02
2.900000e-07	-4.559243e-06	-6.050469e-09	-3.250845e+01	-3.962487e+02
3.000000e-07	-4.503808e-06	-5.996522e-09	-3.211318e+01	-3.933895e+02
3.100000e-07	-4.446673e-06	-5.956230e-09	-3.170579e+01	-3.904650e+02
3.200000e-07	-4.387697e-06	-5.914981e-09	-3.128528e+01	-3.874617e+02
3.300000e-07	-4.327194e-06	-5.881603e-09	-3.085388e+01	-3.843646e+02
3.400000e-07	-4.265247e-06	-5.792144e-09	-3.041218e+01	-3.811608e+02
3.500000e-07	-4.201901e-06	-5.741977e-09	-2.996051e+01	-3.778427e+02
3.600000e-07	-4.137021e-06	-5.724666e-09	-2.949791e+01	-3.744087e+02
3.700000e-07	-4.070429e-06	-5.662215e-09	-2.902309e+01	-3.708632e+02
3.800000e-07	-4.002336e-06	-5.604469e-09	-2.853757e+01	-3.672145e+02
3.900000e-07	-3.932884e-06	-5.537219e-09	-2.804236e+01	-3.634720e+02
4.000000e-07	-3.862158e-06	-5.475669e-09	-2.753807e+01	-3.596441e+02
4.100000e-07	-3.790242e-06	-5.422360e-09	-2.702529e+01	-3.557357e+02
4.200000e-07	-3.716847e-06	-5.359322e-09	-2.650197e+01	-3.517478e+02
4.300000e-07	-3.641876e-06	-5.311841e-09	-2.596741e+01	-3.476772e+02
4.400000e-07	-3.565454e-06	-5.246781e-09	-2.542250e+01	-3.435182e+02
4.500000e-07	-3.487555e-06	-5.169399e-09	-2.486707e+01	-3.392638e+02
4.600000e-07	-3.408250e-06	-5.097108e-09	-2.430160e+01	-3.349076e+02
4.700000e-07	-3.327659e-06	-5.034060e-09	-2.372697e+01	-3.304454e+02
4.800000e-07	-3.245852e-06	-4.972522e-09	-2.314366e+01	-3.258750e+02
4.900000e-07	-3.162994e-06	-4.892775e-09	-2.255287e+01	-3.211967e+02
5.000000e-07	-3.079174e-06	-4.818128e-09	-2.195521e+01	-3.164123e+02
5.100000e-07	-2.994403e-06	-4.743857e-09	-2.135078e+01	-3.115243e+02
5.200000e-07	-2.908637e-06	-4.669310e-09	-2.073925e+01	-3.065348e+02
5.300000e-07	-2.821835e-06	-4.587448e-09	-2.012033e+01	-3.014445e+02
5.400000e-07	-2.734180e-06	-4.501418e-09	-1.949533e+01	-2.962530e+02
5.500000e-07	-2.645562e-06	-4.419587e-09	-1.886346e+01	-2.909579e+02
5.600000e-07	-2.555723e-06	-4.336525e-09	-1.822289e+01	-2.855561e+02
5.700000e-07	-2.464813e-06	-4.257615e-09	-1.757468e+01	-2.800434e+02
5.800000e-07	-2.373039e-06	-4.171696e-09	-1.692031e+01	-2.744154e+02
5.900000e-07	-2.280456e-06	-4.082745e-09	-1.626017e+01	-2.686679e+02
6.000000e-07	-2.187145e-06	-3.988674e-09	-1.559484e+01	-2.627969e+02
6.100000e-07	-2.093057e-06	-3.895131e-09	-1.492397e+01	-2.567992e+02
6.200000e-07	-1.998223e-06	-3.804351e-09	-1.424779e+01	-2.506729e+02
6.300000e-07	-1.902780e-06	-3.711306e-09	-1.356725e+01	-2.444170e+02
6.400000e-07	-1.806654e-06	-3.614587e-09	-1.288185e+01	-2.380322e+02
6.500000e-07	-1.709692e-06	-3.512080e-09	-1.219049e+01	-2.315208e+02
6.600000e-07	-1.611903e-06	-3.408294e-09	-1.149324e+01	-2.248865e+02
6.700000e-07	-1.513482e-06	-3.302248e-09	-1.079147e+01	-2.181333e+02
6.800000e-07	-1.414568e-06	-3.199081e-09	-1.008619e+01	-2.112653e+02
6.900000e-07	-1.315200e-06	-3.092715e-09	-9.377679e+00	-2.042849e+02
7.000000e-07	-1.215426e-06	-2.983760e-09	-8.666267e+00	-1.971920e+02
7.100000e-07	-1.115258e-06	-2.875543e-09	-7.952041e+00	-1.899826e+02
7.200000e-07	-1.014716e-06	-2.764421e-09	-7.235154e+00	-1.826490e+02
7.300000e-07	-9.138667e-07	-2.650213e-09	-6.516078e+00	-1.751796e+02
7.400000e-07	-8.128087e-07	-2.532482e-09	-5.795512e+00	-1.675604e+02
7.500000e-07	-7.115253e-07	-2.411914e-09	-5.073338e+00	-1.597765e+02
7.600000e-07	-6.099136e-07	-2.287826e-09	-4.348824e+00	-1.518138e+02
7.700000e-07	-5.080257e-07	-2.162102e-09	-3.622340e+00	-1.436607e+02
7.800000e-07	-4.059518e-07	-2.035100e-09	-2.894529e+00	-1.353090e+02
7.900000e-07	-3.037368e-07	-1.905476e-09	-2.165713e+00	-1.267545e+02
8.000000e-07	-2.014545e-07	-1.769418e-09	-1.436416e+00	-1.179957e+02
8.100000e-07	-9.911198e-08	-1.631459e-09	-7.066910e-01	-1.090328e+02
8.200000e-07	3.306973e-09	-1.493952e-09	2.357947e-02	-9.986617e+01
8.300000e-07	1.057435e-07	-1.351867e-09	7.539753e-01	-9.049424e+01
8.400000e-07	2.081608e-07	-1.204541e-09	1.484234e+00	-8.091284e+01
8.500000e-07	3.104878e-07	-1.051667e-09	2.213849e+00	-7.111479e+01
8.600000e-07	4.127174e-07	-8.947656e-10	2.942769e+00	-6.109055e+01
8.700000e-07	5.148969e-07	-7.339251e-10	3.671333e+00	-5.082950e+01
8.800000e-07	6.168974e-07	-5.723642e-10	4.398619e+00	-4.032160e+01
8.900000e-07	7.186885e-07	-4.107047e-10	5.124414e+00	-2.955898e+01
9.000000e-07	8.202593e-07	-2.448249e-10	5.848636e+00	-1.853723e+01
9.100000e-07	9.214477e-07	-7.290658e-11	6.570132e+00	-7.256006e+00
9.200000e-07	1.022265e-06	1.028539e-10	7.288982e+00	4.280829e+00
9.300000e-07	1.122777e-06	2.822221e-10	8.005660e+00	1.606549e+01
9.400000e-07	1.222978e-06	4.669270e-10	8.720113e+00	2.808650e+01
9.500000e-07	1.322814e-06	6.561226e-10	9.431968e+00	4.032869e+01
9.600000e-07	1.422241e-06	8.465564e-10	1.014090e+01	5.277262e+01
9.700000e-07	1.521146e-06	1.036489e-09	1.084612e+01	6.539354e+01
9.800000e-07	1.619316e-06	1.227935e-09	1.154609e+01	7.816005e+01
9.900000e-07	1.716667e-06	1.419674e-09	1.224023e+01	9.103295e+01
1.000000e-06	1.813224e-06	1.612720e-09	1.292870e+01	1.039648e+02
1.010000e-06	1.909082e-06	1.807293e-09	1.361219e+01	1.169003e+02
1.020000e-06	2.004268e-06	2.002602e-09	1.429089e+01	1.297784e+02
1.030000e-06	2.098769e-06	2.196525e-09	1.496471e+01	1.425355e+02
1.040000e-06	2.192533e-06	2.387024e-09	1.563326e+01	1.551091e+02
1.050000e-06	2.285549e-06	2.574335e-09	1.629648e+01	1.674422e+02
1.060000e-06	2.377879e-06	2.756031e-09	1.695482e+01	1.794867e+02
1.070000e-06	2.469512e-06	2.932964e-09	1.760819e+01	1.912061e+02
1.080000e-06	2.560301e-06	3.107004e-09	1.825553e+01	2.025761e+02
1.090000e-06	2.649985e-06	3.277511e-09	1.889500e+01	2.135839e+02
1.100000e-06	2.738471e-06	3.442432e-09	1.952592e+01	2.242257e+02
1.110000e-06	2.825924e-06	3.599723e-09	2.014949e+01	2.345038e+02
1.120000e-06	2.912491e-06	3.752268e-09	2.076672e+01	2.444229e+02
1.130000e-06	2.998119e-06	3.900407e-09	2.137727e+01	2.539881e+02
1.140000e-06	3.082791e-06	4.043457e-09	2.198101e+01	2.632027e+02
1.150000e-06	3.166551e-06	4.178016e-09	2.257823e+01	2.720679e+02
1.160000e-06	3.249315e-06	4.303779e-09	2.316836e+01	2.805839e+02
1.170000e-06	3.330870e-06	4.424663e-09	2.374986e+01	2.887510e+02
1.180000e-06	3.411110e-06	4.541810e-09	2.432199e+01	2.965719e+02
1.190000e-06	3.490135e-06	4.655916e-09	2.488546e+01	3.040526e+02
1.200000e-06	3.567972e-06	4.766032e-09	2.544046e+01	3.112033e+02
1.210000e-06	3.644587e-06	4.871828e-09	2.598674e+01	3.180385e+02
1.220000e-06	3.719877e-06	4.972391e-09	2.652357e+01	3.245759e+02
1.230000e-06	3.793592e-06	5.066440e-09	2.704918e+01	3.308346e+02
1.240000e-06	3.865691e-06	5.154979e-09	2.756326e+01	3.368342e+02
1.250000e-06	3.936347e-06	5.240390e-09	2.806706e+01	3.425934e+02
1.260000e-06	4.005662e-06	5.325114e-09	2.856129e+01	3.481284e+02
1.270000e-06	4.073655e-06	5.408964e-09	2.904609e+01	3.534537e+02
1.280000e-06	4.140226e-06	5.488027e-09	2.952076e+01	3.585810e+02
1.290000e-06	4.205083e-06	5.562270e-09	2.998320e+01	3.635202e+02
1.300000e-06	4.268306e-06	5.633539e-09	3.043400e+01	3.682792e+02
1.310000e-06	4.330146e-06	5.704341e-09	3.087493e+01	3.728641e+02
1.320000e-06	4.390591e-06	5.773448e-09	3.130592e+01	3.772789e+02
1.330000e-06	4.449650e-06	5.837868e-09	3.172702e+01	3.815252e+02
1.340000e-06	4.507042e-06	5.898835e-09	3.213624e+01	3.856029e+02
1.350000e-06	4.562608e-06	5.956774e-09	3.253244e+01	3.895095e+02
1.360000e-06	4.616505e-06	6.011379e-09	3.291674e+01	3.932419e+02
1.370000e-06	4.668667e-06	6.063808e-09	3.328866e+01	3.967968e+02
1.380000e-06	4.718901e-06	6.114027e-09	3.364684e+01	4.001728e+02
1.390000e-06	4.767150e-06	6.162664e-09	3.399087e+01	4.033708e+02
1.400000e-06	4.813628e-06	6.207727e-09	3.432227e+01	4.063951e+02
1.410000e-06	4.858560e-06	6.247853e-09	3.464264e+01	4.092532e+02
1.420000e-06	4.901942e-06	6.285753e-09	3.495196e+01	4.119547e+02
1.430000e-06	4.943490e-06	6.321718e-09	3.524821e+01	4.145097e+02
1.440000e-06	4.983189e-06	6.355636e-09	3.553128e+01	4.169271e+02
1.450000e-06	5.021226e-06	6.388424e-09	3.580249e+01	4.192128e+02
1.460000e-06	5.057663e-06	6.420022e-09	3.606229e+01	4.213689e+02
1.470000e-06	5.092351e-06	6.452346e-09	3.630963e+01	4.233943e+02
1.480000e-06	5.125042e-06	6.482354e-09	3.654272e+01	4.252851e+02
1.490000e-06	5.155891e-06	6.507966e-09	3.676268e+01	4.270374e+02
1.500000e-06	5.185088e-06	6.529948e-09	3.697086e+01	4.286488e+02
1.510000e-06	5.212635e-06	6.548477e-09	3.716728e+01	4.301206e+02
1.520000e-06	5.238205e-06	6.565304e-09	3.734960e+01	4.314582e+02
1.530000e-06	5.261671e-06	6.582180e-09	3.751692e+01	4.326707e+02
1.540000e-06	5.283322e-06	6.600446e-09	3.767129e+01	4.337696e+02
1.550000e-06	5.303308e-06	6.616885e-09	3.781380e+01	4.347655e+02
1.560000e-06	5.321457e-06	6.631026e-09	3.794320e+01	4.356664e+02
1.570000e-06	5.337533e-06	6.644913e-09	3.805783e+01	4.364749e+02
1.580000e-06	5.351592e-06	6.657618e-09	3.815807e+01	4.371883e+02
1.590000e-06	5.363680e-06	6.667827e-09	3.824426e+01	4.377990e+02
1.600000e-06	5.373578e-06	6.673836e-09	3.831484e+01	4.382969e+02
1.610000e-06	5.381355e-06	6.677006e-09	3.837029e+01	4.386728e+02
1.620000e-06	5.387284e-06	6.681209e-09	3.841256e+01	4.389215e+02
1.630000e-06	5.391443e-06	6.686323e-09	3.844222e+01	4.390442e+02
1.640000e-06	5.393698e-06	6.689203e-09	3.845830e+01	4.390491e+02
1.650000e-06	5.393937e-06	6.690437e-09	3.846000e+01	4.389505e+02
1.660000e-06	5.392363e-06	6.688659e-09	3.844878e+01	4.387655e+02
1.670000e-06	5.389133e-06	6.681996e-09	3.842575e+01	4.385101e+02
1.680000e-06	5.384203e-06	6.679734e-09	3.839060e+01	4.381956e+02
1.690000e-06	5.377394e-06	6.676889e-09	3.834205e+01	4.378248e+02
1.700000e-06	5.368787e-06	6.670509e-09	3.828068e+01	4.373917e+02
1.710000e-06	5.358609e-06	6.661828e-09	3.820811e+01	4.368827e+02
1.720000e-06	5.346756e-06	6.650237e-09	3.812359e+01	4.362797e+02
1.730000e-06	5.332936e-06	6.663782e-09	3.802506e+01	4.355652e+02
1.740000e-06	5.317011e-06	6.614206e-09	3.791150e+01	4.347273e+02
1.750000e-06	5.298721e-06	6.557040e-09	3.778109e+01	4.337634e+02
1.760000e-06	5.277758e-06	6.567216e-09	3.763162e+01	4.326817e+02
1.770000e-06	5.254520e-06	6.532671e-09	3.746593e+01	4.315006e+02
1.780000e-06	5.230083e-06	6.613244e-09	3.729169e+01	4.302448e+02
1.790000e-06	5.204929e-06	6.626915e-09	3.711233e+01	4.289395e+02
1.800000e-06	5.178295e-06	6.419119e-09	3.692243e+01	4.276051e+02
1.810000e-06	5.149408e-06	6.516186e-09	3.671646e+01	4.262513e+02
1.820000e-06	5.118680e-06	6.508370e-09	3.649736e+01	4.248745e+02
1.830000e-06	5.086356e-06	6.341774e-09	3.626688e+01	4.234579e+02
1.840000e-06	5.052091e-06	6.511800e-09	3.602257e+01	4.219736e+02
1.850000e-06	5.016166e-06	6.440817e-09	3.576641e+01	4.203890e+02
1.860000e-06	4.978497e-06	6.302042e-09	3.549782e+01	4.186721e+02
1.870000e-06	4.938941e-06	6.396368e-09	3.521578e+01	4.167983e+02
1.880000e-06	4.897692e-06	6.262509e-09	3.492166e+01	4.147547e+02
1.890000e-06	4.854642e-06	6.275208e-09	3.461470e+01	4.125421e+02
1.900000e-06	4.809996e-06	6.291702e-09	3.429637e+01	4.101737e+02
1.910000e-06	4.763542e-06	6.133521e-09	3.396514e+01	4.076719e+02
1.920000e-06	4.715018e-06	6.211500e-09	3.361915e+01	4.050627e+02
1.930000e-06	4.664878e-06	6.102682e-09	3.326164e+01	4.023705e+02
1.940000e-06	4.613021e-06	6.046355e-09	3.289189e+01	3.996129e+02
1.950000e-06	4.559108e-06	6.092088e-09	3.250748e+01	3.967985e+02
1.960000e-06	4.503271e-06	5.977100e-09	3.210935e+01	3.939257e+02
1.970000e-06	4.445765e-06	5.956585e-09	3.169932e+01	3.909851e+02
1.980000e-06	4.386835e-06	5.873890e-09	3.127914e+01	3.879624e+02
1.990000e-06	4.326411e-06	5.869575e-09	3.084830e+01	3.848429e+02
2.000000e-06	4.264262e-06	5.840445e-09	3.040516e+01	3.816146e+02
2.010000e-06	4.200469e-06	5.708306e-09	2.995030e+01	3.782710e+02
2.020000e-06	4.135197e-06	5.721782e-09	2.948490e+01	3.748121e+02
2.030000e-06	4.068513e-06	5.631051e-09	2.900943e+01	3.712433e+02
2.040000e-06	4.000402e-06	5.584581e-09	2.852378e+01	3.675732e+02
2.050000e-06	3.930837e-06	5.545875e-09	2.802777e+01	3.638113e+02
2.060000e-06	3.859808e-06	5.472944e-09	2.752131e+01	3.599654e+02
2.070000e-06	3.787368e-06	5.447129e-09	2.700480e+01	3.560396e+02
2.080000e-06	3.713603e-06	5.322109e-09	2.647884e+01	3.520338e+02
2.090000e-06	3.638488e-06	5.281257e-09	2.594325e+01	3.479444e+02
2.100000e-06	3.561911e-06	5.232745e-09	2.539724e+01	3.437650e+02
2.110000e-06	3.483737e-06	5.167479e-09	2.483984e+01	3.394887e+02
2.120000e-06	3.404219e-06	5.103763e-09	2.427286e+01	3.351097e+02
2.130000e-06	3.323614e-06	5.010226e-09	2.369813e+01	3.306239e+02
2.140000e-06	3.241841e-06	4.962928e-09	2.311507e+01	3.260297e+02
2.150000e-06	3.158968e-06	4.880450e-09	2.252416e+01	3.213280e+02
2.160000e-06	3.075121e-06	4.817025e-09	2.192632e+01	3.165208e+02
2.170000e-06	2.990178e-06	4.744514e-09	2.132065e+01	3.116104e+02
2.180000e-06	2.903919e-06	4.668418e-09	2.070561e+01	3.065988e+02
2.190000e-06	2.816475e-06	4.592714e-09	2.008211e+01	3.014865e+02
2.200000e-06	2.728017e-06	4.509087e-09	1.945138e+01	2.962725e+02
2.210000e-06	2.638632e-06	4.439326e-09	1.881405e+01	2.909544e+02
2.220000e-06	2.548313e-06	4.346680e-09	1.817005e+01	2.855287e+02
2.230000e-06	2.457129e-06	4.261877e-09	1.751989e+01	2.799912e+02
2.240000e-06	2.365252e-06	4.169691e-09	1.686479e+01	2.743374e+02
2.250000e-06	2.272555e-06	4.088504e-09	1.620384e+01	2.685632e+02
2.260000e-06	2.178961e-06	4.009753e-09	1.553649e+01	2.626648e+02
2.270000e-06	2.084438e-06	3.918837e-09	1.486252e+01	2.566393e+02
2.280000e-06	1.988978e-06	3.820555e-09	1.418187e+01	2.504847e+02
2.290000e-06	1.892739e-06	3.715718e-09	1.349566e+01	2.442006e+02
2.300000e-06	1.795954e-06	3.619728e-09	1.280556e+01	2.377880e+02
2.310000e-06	1.698742e-06	3.527164e-09	1.211242e+01	2.312494e+02
2.320000e-06	1.600996e-06	3.430497e-09	1.141547e+01	2.245887e+02
2.330000e-06	1.502684e-06	3.321201e-09	1.071448e+01	2.178102e+02
2.340000e-06	1.403816e-06	3.215484e-09	1.000953e+01	2.109175e+02
2.350000e-06	1.304535e-06	3.109404e-09	9.301633e+00	2.039126e+02
2.360000e-06	1.205003e-06	3.003348e-09	8.591943e+00	1.967947e+02
2.370000e-06	1.105222e-06	2.898431e-09	7.880489e+00	1.895590e+02
2.380000e-06	1.005107e-06	2.786147e-09	7.166646e+00	1.821969e+02
2.390000e-06	9.045625e-07	2.668390e-09	6.449738e+00	1.746962e+02
2.400000e-06	8.036159e-07	2.547225e-09	5.729965e+00	1.670425e+02
2.410000e-06	7.023206e-07	2.429009e-09	5.007707e+00	1.592209e+02
2.420000e-06	6.007350e-07	2.310113e-09	4.283378e+00	1.512177e+02
2.430000e-06	4.989274e-07	2.184043e-09	3.557466e+00	1.430221e+02
2.440000e-06	3.969496e-07	2.054886e-09	2.830341e+00	1.346268e+02
2.450000e-06	2.948374e-07	1.929508e-09	2.102258e+00	1.260280e+02
2.460000e-06	1.925499e-07	1.799918e-09	1.372925e+00	1.172250e+02
2.470000e-06	9.009778e-08	1.663151e-09	6.424177e-01	1.082180e+02
2.480000e-06	-1.238466e-08	1.521557e-09	-8.830548e-02	9.900707e+01
2.490000e-06	-1.148899e-07	1.375455e-09	-8.191909e-01	8.959022e+01
2.500000e-06	-2.173711e-07	1.227710e-09	-1.549906e+00	7.996261e+01
2.510000e-06	-3.196922e-07	1.079515e-09	-2.279479e+00	7.011647e+01
2.520000e-06	-4.218994e-07	9.315835e-10	-3.008239e+00	6.004190e+01
2.530000e-06	-5.240091e-07	7.779040e-10	-3.736304e+00	4.972827e+01
2.540000e-06	-6.259412e-07	6.158874e-10	-4.463104e+00	3.916585e+01
2.550000e-06	-7.275712e-07	4.497914e-10	-5.187749e+00	2.834746e+01
2.560000e-06	-8.288310e-07	2.807253e-10	-5.909754e+00	1.726951e+01
2.570000e-06	-9.297132e-07	1.076139e-10	-6.629068e+00	5.932568e+00
2.580000e-06	-1.030184e-06	-6.842696e-11	-7.345444e+00	-5.658641e+00
2.590000e-06	-1.130269e-06	-2.473045e-10	-8.059080e+00	-1.749552e+01
2.600000e-06	-1.229941e-06	-4.315267e-10	-8.769762e+00	-2.956582e+01
2.610000e-06	-1.329182e-06	-6.197546e-10	-9.477373e+00	-4.185353e+01
2.620000e-06	-1.427989e-06	-8.106794e-10	-1.018189e+01	-5.433816e+01
2.630000e-06	-1.526332e-06	-1.004719e-09	-1.088310e+01	-6.699365e+01
2.640000e-06	-1.624164e-06	-1.202873e-09	-1.158066e+01	-7.978702e+01
2.650000e-06	-1.721407e-06	-1.404444e-09	-1.227403e+01	-9.267731e+01
2.660000e-06	-1.818110e-06	-1.605767e-09	-1.296354e+01	-1.056153e+02
2.670000e-06	-1.914320e-06	-1.804704e-09	-1.364954e+01	-1.185443e+02
2.680000e-06	-2.009903e-06	-2.000921e-09	-1.433107e+01	-1.314023e+02
2.690000e-06	-2.104671e-06	-2.195550e-09	-1.500678e+01	-1.441258e+02
2.700000e-06	-2.198480e-06	-2.389060e-09	-1.567567e+01	-1.566528e+02
2.710000e-06	-2.291363e-06	-2.580271e-09	-1.633794e+01	-1.689282e+02
2.720000e-06	-2.383360e-06	-2.764979e-09	-1.699390e+01	-1.809062e+02
2.730000e-06	-2.474535e-06	-2.941285e-09	-1.764400e+01	-1.925529e+02
2.740000e-06	-2.564825e-06	-3.112547e-09	-1.828779e+01	-2.038465e+02
2.750000e-06	-2.654159e-06	-3.280152e-09	-1.892476e+01	-2.147764e+02
2.760000e-06	-2.742694e-06	-3.440940e-09	-1.955604e+01	-2.253404e+02
2.770000e-06	-2.830428e-06	-3.593830e-09	-2.018160e+01	-2.355416e+02
2.780000e-06	-2.917165e-06	-3.741235e-09	-2.080005e+01	-2.453850e+02
2.790000e-06	-3.002706e-06	-3.883459e-09	-2.140998e+01	-2.548754e+02
2.800000e-06	-3.087069e-06	-4.021778e-09	-2.201151e+01	-2.640155e+02
2.810000e-06	-3.170440e-06	-4.158255e-09	-2.260596e+01	-2.728063e+02
2.820000e-06	-3.252804e-06	-4.289803e-09	-2.319324e+01	-2.812479e+02
2.830000e-06	-3.334027e-06	-4.416443e-09	-2.377237e+01	-2.893411e+02
2.840000e-06	-3.414122e-06	-4.538413e-09	-2.434347e+01	-2.970889e+02
2.850000e-06	-3.493014e-06	-4.653850e-09	-2.490599e+01	-3.044983e+02
2.860000e-06	-3.570510e-06	-4.762796e-09	-2.545856e+01	-3.115806e+02
2.870000e-06	-3.646500e-06	-4.863278e-09	-2.600038e+01	-3.183509e+02
2.880000e-06	-3.721034e-06	-4.958035e-09	-2.653182e+01	-3.248274e+02
2.890000e-06	-3.794219e-06	-5.050740e-09	-2.705365e+01	-3.310294e+02
2.900000e-06	-3.866117e-06	-5.143438e-09	-2.756630e+01	-3.369765e+02
2.910000e-06	-3.936559e-06	-5.236007e-09	-2.806856e+01	-3.426868e+02
2.920000e-06	-4.005456e-06	-5.323899e-09	-2.855982e+01	-3.481763e+02
2.930000e-06	-4.072959e-06	-5.405406e-09	-2.904113e+01	-3.534587e+02
2.940000e-06	-4.139052e-06	-5.480820e-09	-2.951239e+01	-3.585454e+02
