# Temperatura_=_65.89
# Concentracion g/m^3_=_15000.0
# C_Vs_to_Am_M_A/Vsm_=_65563218390.804596
# pendiente_HvsI_1/m_=_3716.3
# ordenada_HvsI_A/m_=_1297.0
# frecuencia_Hz_=_301580.85229270166

Tiempo_(s)	Campo_(V.s)	Magnetizacion_(V.s)	Campo_(kA/m)	Magnetizacion_(A/m)
0.000000e+00	-5.393361e-06	-5.746544e-09	-3.833985e+01	-3.749872e+02
1.000000e-08	-5.390630e-06	-5.747928e-09	-3.832043e+01	-3.747329e+02
2.000000e-08	-5.386068e-06	-5.742553e-09	-3.828800e+01	-3.744130e+02
3.000000e-08	-5.379879e-06	-5.734653e-09	-3.824401e+01	-3.740406e+02
4.000000e-08	-5.372141e-06	-5.725584e-09	-3.818900e+01	-3.736224e+02
5.000000e-08	-5.362572e-06	-5.714545e-09	-3.812098e+01	-3.731568e+02
6.000000e-08	-5.350900e-06	-5.704321e-09	-3.803801e+01	-3.726345e+02
7.000000e-08	-5.337366e-06	-5.689951e-09	-3.794180e+01	-3.720405e+02
8.000000e-08	-5.321748e-06	-5.673233e-09	-3.783077e+01	-3.713587e+02
9.000000e-08	-5.303857e-06	-5.716920e-09	-3.770359e+01	-3.705764e+02
1.000000e-07	-5.283935e-06	-5.723842e-09	-3.756197e+01	-3.696886e+02
1.100000e-07	-5.262108e-06	-5.671734e-09	-3.740681e+01	-3.687007e+02
1.200000e-07	-5.238585e-06	-5.660286e-09	-3.723959e+01	-3.676279e+02
1.300000e-07	-5.213513e-06	-5.566094e-09	-3.706136e+01	-3.664926e+02
1.400000e-07	-5.186810e-06	-5.508022e-09	-3.687153e+01	-3.653194e+02
1.500000e-07	-5.158501e-06	-5.660353e-09	-3.667030e+01	-3.641292e+02
1.600000e-07	-5.128731e-06	-5.551895e-09	-3.645867e+01	-3.629336e+02
1.700000e-07	-5.097397e-06	-5.494543e-09	-3.623592e+01	-3.617314e+02
1.800000e-07	-5.063946e-06	-5.587096e-09	-3.599813e+01	-3.605069e+02
1.900000e-07	-5.028611e-06	-5.412365e-09	-3.574694e+01	-3.592330e+02
2.000000e-07	-4.991861e-06	-5.463393e-09	-3.548570e+01	-3.578753e+02
2.100000e-07	-4.953366e-06	-5.570216e-09	-3.521205e+01	-3.563989e+02
2.200000e-07	-4.913018e-06	-5.430535e-09	-3.492522e+01	-3.547752e+02
2.300000e-07	-4.870676e-06	-5.387459e-09	-3.462423e+01	-3.529869e+02
2.400000e-07	-4.826386e-06	-5.347996e-09	-3.430938e+01	-3.510314e+02
2.500000e-07	-4.780403e-06	-5.283621e-09	-3.398250e+01	-3.489204e+02
2.600000e-07	-4.732503e-06	-5.323565e-09	-3.364200e+01	-3.466770e+02
2.700000e-07	-4.682477e-06	-5.268665e-09	-3.328637e+01	-3.443301e+02
2.800000e-07	-4.630367e-06	-5.221796e-09	-3.291594e+01	-3.419091e+02
2.900000e-07	-4.576387e-06	-5.165586e-09	-3.253221e+01	-3.394371e+02
3.000000e-07	-4.520887e-06	-5.115164e-09	-3.213768e+01	-3.369275e+02
3.100000e-07	-4.463723e-06	-5.124121e-09	-3.173132e+01	-3.343822e+02
3.200000e-07	-4.404703e-06	-5.110002e-09	-3.131176e+01	-3.317924e+02
3.300000e-07	-4.344096e-06	-5.053902e-09	-3.088092e+01	-3.291417e+02
3.400000e-07	-4.282042e-06	-4.943038e-09	-3.043980e+01	-3.264106e+02
3.500000e-07	-4.218680e-06	-4.911875e-09	-2.998938e+01	-3.235808e+02
3.600000e-07	-4.153778e-06	-4.914004e-09	-2.952801e+01	-3.206391e+02
3.700000e-07	-4.087101e-06	-4.869636e-09	-2.905402e+01	-3.175796e+02
3.800000e-07	-4.018919e-06	-4.819264e-09	-2.856934e+01	-3.144041e+02
3.900000e-07	-3.949381e-06	-4.744397e-09	-2.807501e+01	-3.111207e+02
4.000000e-07	-3.878579e-06	-4.685163e-09	-2.757170e+01	-3.077410e+02
4.100000e-07	-3.806614e-06	-4.643467e-09	-2.706012e+01	-3.042779e+02
4.200000e-07	-3.733204e-06	-4.603141e-09	-2.653827e+01	-3.007423e+02
4.300000e-07	-3.658138e-06	-4.560268e-09	-2.600465e+01	-2.971412e+02
4.400000e-07	-3.581587e-06	-4.479947e-09	-2.546047e+01	-2.934774e+02
4.500000e-07	-3.503623e-06	-4.398216e-09	-2.490625e+01	-2.897494e+02
4.600000e-07	-3.424225e-06	-4.342901e-09	-2.434183e+01	-2.859525e+02
4.700000e-07	-3.343559e-06	-4.313157e-09	-2.376840e+01	-2.820803e+02
4.800000e-07	-3.261670e-06	-4.268881e-09	-2.318627e+01	-2.781260e+02
4.900000e-07	-3.178601e-06	-4.186023e-09	-2.259576e+01	-2.740836e+02
5.000000e-07	-3.094567e-06	-4.111111e-09	-2.199838e+01	-2.699485e+02
5.100000e-07	-3.009664e-06	-4.047932e-09	-2.139483e+01	-2.657175e+02
5.200000e-07	-2.923809e-06	-3.991887e-09	-2.078451e+01	-2.613885e+02
5.300000e-07	-2.836978e-06	-3.927019e-09	-2.016726e+01	-2.569604e+02
5.400000e-07	-2.749249e-06	-3.847961e-09	-1.954362e+01	-2.524327e+02
5.500000e-07	-2.660428e-06	-3.762733e-09	-1.891222e+01	-2.478050e+02
5.600000e-07	-2.570358e-06	-3.682813e-09	-1.827193e+01	-2.430770e+02
5.700000e-07	-2.479215e-06	-3.626953e-09	-1.762403e+01	-2.382486e+02
5.800000e-07	-2.387257e-06	-3.570224e-09	-1.697032e+01	-2.333196e+02
5.900000e-07	-2.294547e-06	-3.493695e-09	-1.631127e+01	-2.282903e+02
6.000000e-07	-2.200968e-06	-3.398172e-09	-1.564605e+01	-2.231605e+02
6.100000e-07	-2.106537e-06	-3.309963e-09	-1.497477e+01	-2.179303e+02
6.200000e-07	-2.011446e-06	-3.233127e-09	-1.429879e+01	-2.125996e+02
6.300000e-07	-1.915801e-06	-3.152889e-09	-1.361888e+01	-2.071683e+02
6.400000e-07	-1.819473e-06	-3.068532e-09	-1.293411e+01	-2.016363e+02
6.500000e-07	-1.722268e-06	-2.978954e-09	-1.224311e+01	-1.960037e+02
6.600000e-07	-1.624236e-06	-2.888849e-09	-1.154622e+01	-1.902712e+02
6.700000e-07	-1.525510e-06	-2.799203e-09	-1.084441e+01	-1.844398e+02
6.800000e-07	-1.426272e-06	-2.716815e-09	-1.013896e+01	-1.785103e+02
6.900000e-07	-1.326653e-06	-2.630803e-09	-9.430792e+00	-1.724835e+02
7.000000e-07	-1.226629e-06	-2.531940e-09	-8.719752e+00	-1.663587e+02
7.100000e-07	-1.126281e-06	-2.428624e-09	-8.006405e+00	-1.601339e+02
7.200000e-07	-1.025647e-06	-2.331042e-09	-7.291027e+00	-1.538050e+02
7.300000e-07	-9.246526e-07	-2.236564e-09	-6.573088e+00	-1.473657e+02
7.400000e-07	-8.233111e-07	-2.138353e-09	-5.852681e+00	-1.408085e+02
7.500000e-07	-7.216756e-07	-2.035757e-09	-5.130183e+00	-1.341251e+02
7.600000e-07	-6.197513e-07	-1.927343e-09	-4.405633e+00	-1.273078e+02
7.700000e-07	-5.175877e-07	-1.817169e-09	-3.679381e+00	-1.203504e+02
7.800000e-07	-4.152741e-07	-1.710219e-09	-2.952063e+00	-1.132491e+02
7.900000e-07	-3.128289e-07	-1.605972e-09	-2.223810e+00	-1.060023e+02
8.000000e-07	-2.102714e-07	-1.495744e-09	-1.494759e+00	-9.861001e+01
8.100000e-07	-1.076720e-07	-1.378829e-09	-7.654089e-01	-9.107238e+01
8.200000e-07	-5.057787e-09	-1.260205e-09	-3.595435e-02	-8.338826e+01
8.300000e-07	9.757906e-08	-1.141063e-09	6.936614e-01	-7.555346e+01
8.400000e-07	2.002446e-07	-1.022032e-09	1.423481e+00	-6.755976e+01
8.500000e-07	3.028945e-07	-9.006033e-10	2.153190e+00	-5.939465e+01
8.600000e-07	4.054869e-07	-7.737151e-10	2.882489e+00	-5.104219e+01
8.700000e-07	5.079735e-07	-6.392795e-10	3.611037e+00	-4.248479e+01
8.800000e-07	6.102732e-07	-5.024742e-10	4.338256e+00	-3.370554e+01
8.900000e-07	7.123978e-07	-3.659993e-10	5.064231e+00	-2.469081e+01
9.000000e-07	8.142533e-07	-2.269874e-10	5.788292e+00	-1.543238e+01
9.100000e-07	9.157464e-07	-8.277032e-11	6.509777e+00	-5.928955e+00
9.200000e-07	1.016905e-06	6.620867e-11	7.228885e+00	3.813373e+00
9.300000e-07	1.117698e-06	2.183087e-10	7.945394e+00	1.378158e+01
9.400000e-07	1.218128e-06	3.741939e-10	8.659322e+00	2.395684e+01
9.500000e-07	1.318238e-06	5.321805e-10	9.370971e+00	3.431594e+01
9.600000e-07	1.417979e-06	6.936257e-10	1.008001e+01	4.483257e+01
9.700000e-07	1.517121e-06	8.589064e-10	1.078478e+01	5.547822e+01
9.800000e-07	1.615619e-06	1.026708e-09	1.148497e+01	6.622248e+01
9.900000e-07	1.713455e-06	1.193031e-09	1.218045e+01	7.703281e+01
1.000000e-06	1.810501e-06	1.357254e-09	1.287033e+01	8.787426e+01
1.010000e-06	1.906687e-06	1.521733e-09	1.355409e+01	9.870917e+01
1.020000e-06	2.002121e-06	1.687988e-09	1.423250e+01	1.094975e+02
1.030000e-06	2.096930e-06	1.853827e-09	1.490647e+01	1.201977e+02
1.040000e-06	2.191029e-06	2.015822e-09	1.557539e+01	1.307683e+02
1.050000e-06	2.284366e-06	2.174646e-09	1.623890e+01	1.411700e+02
1.060000e-06	2.376934e-06	2.330071e-09	1.689694e+01	1.513674e+02
1.070000e-06	2.468807e-06	2.481784e-09	1.755004e+01	1.613308e+02
1.080000e-06	2.559867e-06	2.630611e-09	1.819736e+01	1.710368e+02
1.090000e-06	2.649914e-06	2.776147e-09	1.883748e+01	1.804683e+02
1.100000e-06	2.738833e-06	2.916728e-09	1.946957e+01	1.896134e+02
1.110000e-06	2.826654e-06	3.048991e-09	2.009386e+01	1.984639e+02
1.120000e-06	2.913540e-06	3.176073e-09	2.071152e+01	2.070140e+02
1.130000e-06	2.999484e-06	3.301137e-09	2.132246e+01	2.152591e+02
1.140000e-06	3.084499e-06	3.424870e-09	2.192681e+01	2.231953e+02
1.150000e-06	3.168608e-06	3.542532e-09	2.252472e+01	2.308201e+02
1.160000e-06	3.251709e-06	3.651283e-09	2.311546e+01	2.381332e+02
1.170000e-06	3.333630e-06	3.754230e-09	2.369781e+01	2.451378e+02
1.180000e-06	3.414237e-06	3.853450e-09	2.427083e+01	2.518419e+02
1.190000e-06	3.493626e-06	3.950127e-09	2.483518e+01	2.582583e+02
1.200000e-06	3.571803e-06	4.044515e-09	2.539092e+01	2.644047e+02
1.210000e-06	3.648689e-06	4.136650e-09	2.593748e+01	2.703013e+02
1.220000e-06	3.724320e-06	4.224386e-09	2.647511e+01	2.759696e+02
1.230000e-06	3.798467e-06	4.308116e-09	2.700220e+01	2.814292e+02
1.240000e-06	3.870914e-06	4.388608e-09	2.751721e+01	2.866966e+02
1.250000e-06	3.941869e-06	4.466483e-09	2.802161e+01	2.917836e+02
1.260000e-06	4.011494e-06	4.541417e-09	2.851655e+01	2.966973e+02
1.270000e-06	4.079770e-06	4.613512e-09	2.900191e+01	3.014412e+02
1.280000e-06	4.146579e-06	4.682030e-09	2.947683e+01	3.060165e+02
1.290000e-06	4.211724e-06	4.748164e-09	2.993993e+01	3.104240e+02
1.300000e-06	4.275312e-06	4.810927e-09	3.039196e+01	3.146654e+02
1.310000e-06	4.337440e-06	4.872042e-09	3.083361e+01	3.187441e+02
1.320000e-06	4.398145e-06	4.934541e-09	3.126514e+01	3.226645e+02
1.330000e-06	4.457516e-06	4.993125e-09	3.168719e+01	3.264312e+02
1.340000e-06	4.515228e-06	5.046672e-09	3.209745e+01	3.300475e+02
1.350000e-06	4.571061e-06	5.096777e-09	3.249435e+01	3.335142e+02
1.360000e-06	4.625243e-06	5.143746e-09	3.287952e+01	3.368286e+02
1.370000e-06	4.677796e-06	5.187521e-09	3.325310e+01	3.399857e+02
1.380000e-06	4.728412e-06	5.228762e-09	3.361291e+01	3.429787e+02
1.390000e-06	4.776981e-06	5.269981e-09	3.395818e+01	3.458018e+02
1.400000e-06	4.823797e-06	5.309668e-09	3.429098e+01	3.484521e+02
1.410000e-06	4.869070e-06	5.346638e-09	3.461281e+01	3.509314e+02
1.420000e-06	4.912760e-06	5.380803e-09	3.492339e+01	3.532469e+02
1.430000e-06	4.954584e-06	5.411590e-09	3.522071e+01	3.554107e+02
1.440000e-06	4.994506e-06	5.439515e-09	3.550450e+01	3.574378e+02
1.450000e-06	5.032774e-06	5.464327e-09	3.577654e+01	3.593433e+02
1.460000e-06	5.069430e-06	5.487175e-09	3.603711e+01	3.611403e+02
1.470000e-06	5.104427e-06	5.510848e-09	3.628590e+01	3.628370e+02
1.480000e-06	5.137532e-06	5.534871e-09	3.652123e+01	3.644363e+02
1.490000e-06	5.168709e-06	5.557310e-09	3.674286e+01	3.659362e+02
1.500000e-06	5.198186e-06	5.577478e-09	3.695240e+01	3.673313e+02
1.510000e-06	5.226014e-06	5.596568e-09	3.715023e+01	3.686159e+02
1.520000e-06	5.251903e-06	5.613889e-09	3.733426e+01	3.697860e+02
1.530000e-06	5.275695e-06	5.628051e-09	3.750339e+01	3.708415e+02
1.540000e-06	5.297574e-06	5.639821e-09	3.765893e+01	3.717869e+02
1.550000e-06	5.317682e-06	5.651804e-09	3.780187e+01	3.726301e+02
1.560000e-06	5.335935e-06	5.663517e-09	3.793162e+01	3.733808e+02
1.570000e-06	5.352178e-06	5.674269e-09	3.804709e+01	3.740471e+02
1.580000e-06	5.366470e-06	5.684142e-09	3.814869e+01	3.746340e+02
1.590000e-06	5.378794e-06	5.692401e-09	3.823629e+01	3.751412e+02
1.600000e-06	5.388905e-06	5.698895e-09	3.830817e+01	3.755635e+02
1.610000e-06	5.396884e-06	5.703223e-09	3.836489e+01	3.758921e+02
1.620000e-06	5.403027e-06	5.706699e-09	3.840856e+01	3.761181e+02
1.630000e-06	5.407403e-06	5.710449e-09	3.843966e+01	3.762348e+02
1.640000e-06	5.409859e-06	5.711151e-09	3.845712e+01	3.762410e+02
1.650000e-06	5.410263e-06	5.710697e-09	3.846000e+01	3.761422e+02
1.660000e-06	5.408833e-06	5.707415e-09	3.844983e+01	3.759501e+02
1.670000e-06	5.405775e-06	5.699608e-09	3.842809e+01	3.756799e+02
1.680000e-06	5.401054e-06	5.698147e-09	3.839454e+01	3.753473e+02
1.690000e-06	5.394412e-06	5.696360e-09	3.834732e+01	3.749643e+02
1.700000e-06	5.385941e-06	5.691094e-09	3.828710e+01	3.745358e+02
1.710000e-06	5.375881e-06	5.683707e-09	3.821559e+01	3.740586e+02
1.720000e-06	5.364113e-06	5.676788e-09	3.813193e+01	3.735218e+02
1.730000e-06	5.350381e-06	5.687191e-09	3.803431e+01	3.729098e+02
1.740000e-06	5.334568e-06	5.618297e-09	3.792190e+01	3.722068e+02
1.750000e-06	5.316406e-06	5.569286e-09	3.779280e+01	3.714015e+02
1.760000e-06	5.295565e-06	5.593152e-09	3.764464e+01	3.704910e+02
1.770000e-06	5.272434e-06	5.571240e-09	3.748021e+01	3.694828e+02
1.780000e-06	5.248005e-06	5.673644e-09	3.730655e+01	3.683940e+02
1.790000e-06	5.222914e-06	5.650504e-09	3.712819e+01	3.672480e+02
1.800000e-06	5.196420e-06	5.446246e-09	3.693985e+01	3.660692e+02
1.810000e-06	5.167641e-06	5.594440e-09	3.673527e+01	3.648768e+02
1.820000e-06	5.136998e-06	5.564591e-09	3.651743e+01	3.636799e+02
1.830000e-06	5.104732e-06	5.438305e-09	3.628807e+01	3.624741e+02
1.840000e-06	5.070533e-06	5.629167e-09	3.604496e+01	3.612411e+02
1.850000e-06	5.034718e-06	5.479661e-09	3.579036e+01	3.599518e+02
1.860000e-06	4.997101e-06	5.365228e-09	3.552295e+01	3.585710e+02
1.870000e-06	4.957518e-06	5.491546e-09	3.524156e+01	3.570646e+02
1.880000e-06	4.916279e-06	5.368987e-09	3.494841e+01	3.554061e+02
1.890000e-06	4.873237e-06	5.428026e-09	3.464243e+01	3.535813e+02
1.900000e-06	4.828596e-06	5.413104e-09	3.432509e+01	3.515905e+02
1.910000e-06	4.782151e-06	5.267012e-09	3.399493e+01	3.494484e+02
1.920000e-06	4.733604e-06	5.349698e-09	3.364983e+01	3.471797e+02
1.930000e-06	4.683473e-06	5.201835e-09	3.329346e+01	3.448141e+02
1.940000e-06	4.631622e-06	5.220294e-09	3.292486e+01	3.423800e+02
1.950000e-06	4.577634e-06	5.276174e-09	3.254108e+01	3.398987e+02
1.960000e-06	4.521735e-06	5.118209e-09	3.214371e+01	3.373812e+02
1.970000e-06	4.464110e-06	5.093604e-09	3.173407e+01	3.348269e+02
1.980000e-06	4.405012e-06	5.021116e-09	3.131396e+01	3.322251e+02
1.990000e-06	4.344459e-06	5.059830e-09	3.088351e+01	3.295584e+02
2.000000e-06	4.282149e-06	5.026815e-09	3.044056e+01	3.268070e+02
2.010000e-06	4.218227e-06	4.900665e-09	2.998616e+01	3.239536e+02
2.020000e-06	4.152867e-06	4.921374e-09	2.952153e+01	3.209864e+02
2.030000e-06	4.086095e-06	4.815833e-09	2.904687e+01	3.179012e+02
2.040000e-06	4.017962e-06	4.782587e-09	2.856253e+01	3.147012e+02
2.050000e-06	3.948282e-06	4.757450e-09	2.806720e+01	3.113955e+02
2.060000e-06	3.876998e-06	4.715377e-09	2.756046e+01	3.079965e+02
2.070000e-06	3.804357e-06	4.679549e-09	2.704408e+01	3.045165e+02
2.080000e-06	3.730479e-06	4.548608e-09	2.651890e+01	3.009659e+02
2.090000e-06	3.655225e-06	4.535407e-09	2.598394e+01	2.973508e+02
2.100000e-06	3.578519e-06	4.501900e-09	2.543866e+01	2.936730e+02
2.110000e-06	3.500236e-06	4.448954e-09	2.488217e+01	2.899302e+02
2.120000e-06	3.420607e-06	4.367510e-09	2.431610e+01	2.861172e+02
2.130000e-06	3.339931e-06	4.281047e-09	2.374261e+01	2.822274e+02
2.140000e-06	3.258031e-06	4.248472e-09	2.316040e+01	2.782543e+02
2.150000e-06	3.175013e-06	4.173175e-09	2.257025e+01	2.741919e+02
2.160000e-06	3.091027e-06	4.132143e-09	2.197322e+01	2.700359e+02
2.170000e-06	3.005857e-06	4.072037e-09	2.136777e+01	2.657835e+02
2.180000e-06	2.919344e-06	3.998069e-09	2.075277e+01	2.614329e+02
2.190000e-06	2.831705e-06	3.916532e-09	2.012977e+01	2.569830e+02
2.200000e-06	2.743129e-06	3.853006e-09	1.950011e+01	2.524334e+02
2.210000e-06	2.653609e-06	3.813942e-09	1.886374e+01	2.477837e+02
2.220000e-06	2.563180e-06	3.731703e-09	1.822091e+01	2.430337e+02
2.230000e-06	2.471911e-06	3.635364e-09	1.757210e+01	2.381832e+02
2.240000e-06	2.379899e-06	3.542342e-09	1.691801e+01	2.332323e+02
2.250000e-06	2.287046e-06	3.479491e-09	1.625795e+01	2.281809e+02
2.260000e-06	2.193246e-06	3.413340e-09	1.559115e+01	2.230291e+02
2.270000e-06	2.098463e-06	3.341668e-09	1.491737e+01	2.177769e+02
2.280000e-06	2.002772e-06	3.261783e-09	1.423713e+01	2.124241e+02
2.290000e-06	1.906372e-06	3.168400e-09	1.355185e+01	2.069707e+02
2.300000e-06	1.809402e-06	3.077614e-09	1.286252e+01	2.014166e+02
2.310000e-06	1.711957e-06	2.997888e-09	1.216981e+01	1.957621e+02
2.320000e-06	1.613978e-06	2.924993e-09	1.147331e+01	1.900078e+02
2.330000e-06	1.515431e-06	2.828636e-09	1.077276e+01	1.841548e+02
2.340000e-06	1.416341e-06	2.723536e-09	1.006836e+01	1.782039e+02
2.350000e-06	1.316812e-06	2.624940e-09	9.360839e+00	1.721557e+02
2.360000e-06	1.216955e-06	2.541564e-09	8.650980e+00	1.660092e+02
2.370000e-06	1.116907e-06	2.458349e-09	7.939770e+00	1.597620e+02
2.380000e-06	1.016623e-06	2.362036e-09	7.226877e+00	1.534095e+02
2.390000e-06	9.158710e-07	2.258126e-09	6.510662e+00	1.469452e+02
2.400000e-06	8.146035e-07	2.152472e-09	5.790781e+00	1.403611e+02
2.410000e-06	7.128976e-07	2.052704e-09	5.067783e+00	1.336491e+02
2.420000e-06	6.109265e-07	1.955200e-09	4.342900e+00	1.268017e+02
2.430000e-06	5.087764e-07	1.851539e-09	3.616744e+00	1.198133e+02
2.440000e-06	4.064060e-07	1.736978e-09	2.889023e+00	1.126804e+02
2.450000e-06	3.038318e-07	1.618040e-09	2.159853e+00	1.054019e+02
2.460000e-06	2.011471e-07	1.502093e-09	1.429897e+00	9.797789e+01
2.470000e-06	9.834786e-08	1.393669e-09	6.991265e-01	9.040854e+01
2.480000e-06	-4.546876e-09	1.282849e-09	-3.232243e-02	8.269211e+01
2.490000e-06	-1.074774e-07	1.159852e-09	-7.640257e-01	7.482361e+01
2.500000e-06	-2.104141e-07	1.029193e-09	-1.495773e+00	6.679386e+01
2.510000e-06	-3.132263e-07	9.017488e-10	-2.226635e+00	5.858953e+01
2.520000e-06	-4.158772e-07	7.793104e-10	-2.956351e+00	5.019415e+01
2.530000e-06	-5.183951e-07	6.520146e-10	-3.685121e+00	4.159006e+01
2.540000e-06	-6.207648e-07	5.176673e-10	-4.412837e+00	3.276084e+01
2.550000e-06	-7.228618e-07	3.778937e-10	-5.138616e+00	2.369385e+01
2.560000e-06	-8.245171e-07	2.324772e-10	-5.861254e+00	1.438228e+01
2.570000e-06	-9.256456e-07	8.452335e-11	-6.580147e+00	4.826402e+00
2.580000e-06	-1.026342e-06	-6.127208e-11	-7.295972e+00	-4.966146e+00
2.590000e-06	-1.126708e-06	-2.087537e-10	-8.009443e+00	-1.498098e+01
2.600000e-06	-1.226656e-06	-3.652657e-10	-8.719945e+00	-2.519822e+01
2.610000e-06	-1.326192e-06	-5.265737e-10	-9.427517e+00	-3.559387e+01
2.620000e-06	-1.425360e-06	-6.855781e-10	-1.013247e+01	-4.614112e+01
2.630000e-06	-1.524072e-06	-8.438036e-10	-1.083419e+01	-5.681103e+01
2.640000e-06	-1.622202e-06	-1.006601e-09	-1.153177e+01	-6.757276e+01
2.650000e-06	-1.719706e-06	-1.173308e-09	-1.222489e+01	-7.839330e+01
2.660000e-06	-1.816628e-06	-1.338749e-09	-1.291389e+01	-8.923711e+01
2.670000e-06	-1.913056e-06	-1.502565e-09	-1.359936e+01	-1.000660e+02
2.680000e-06	-2.008943e-06	-1.664066e-09	-1.428100e+01	-1.108394e+02
2.690000e-06	-2.104100e-06	-1.821638e-09	-1.495744e+01	-1.215158e+02
2.700000e-06	-2.198410e-06	-1.979053e-09	-1.562786e+01	-1.320539e+02
2.710000e-06	-2.291674e-06	-2.140611e-09	-1.629085e+01	-1.424151e+02
2.720000e-06	-2.383946e-06	-2.300389e-09	-1.694679e+01	-1.525652e+02
2.730000e-06	-2.475390e-06	-2.451909e-09	-1.759683e+01	-1.624757e+02
2.740000e-06	-2.565954e-06	-2.596415e-09	-1.824063e+01	-1.721247e+02
2.750000e-06	-2.655580e-06	-2.738246e-09	-1.887775e+01	-1.814962e+02
2.760000e-06	-2.744302e-06	-2.876981e-09	-1.950845e+01	-1.905792e+02
2.770000e-06	-2.832251e-06	-3.011557e-09	-2.013366e+01	-1.993662e+02
2.780000e-06	-2.919375e-06	-3.143222e-09	-2.075300e+01	-2.078518e+02
2.790000e-06	-3.005353e-06	-3.268002e-09	-2.136419e+01	-2.160315e+02
2.800000e-06	-3.089995e-06	-3.387511e-09	-2.196588e+01	-2.239017e+02
2.810000e-06	-3.173552e-06	-3.504667e-09	-2.255986e+01	-2.314602e+02
2.820000e-06	-3.256134e-06	-3.618584e-09	-2.314692e+01	-2.387072e+02
2.830000e-06	-3.337646e-06	-3.727262e-09	-2.372636e+01	-2.456471e+02
2.840000e-06	-3.418084e-06	-3.829170e-09	-2.429817e+01	-2.522887e+02
2.850000e-06	-3.497357e-06	-3.926799e-09	-2.486170e+01	-2.586462e+02
2.860000e-06	-3.575202e-06	-4.020126e-09	-2.541508e+01	-2.647378e+02
2.870000e-06	-3.651489e-06	-4.108336e-09	-2.595738e+01	-2.705842e+02
2.880000e-06	-3.726285e-06	-4.193587e-09	-2.648908e+01	-2.762067e+02
2.890000e-06	-3.799707e-06	-4.276122e-09	-2.701102e+01	-2.816244e+02
2.900000e-06	-3.871865e-06	-4.355784e-09	-2.752397e+01	-2.868528e+02
2.910000e-06	-3.942674e-06	-4.432997e-09	-2.802733e+01	-2.919027e+02
2.920000e-06	-4.011881e-06	-4.508756e-09	-2.851930e+01	-2.967804e+02
2.930000e-06	-4.079579e-06	-4.583429e-09	-2.900055e+01	-3.014886e+02
2.940000e-06	-4.145917e-06	-4.653260e-09	-2.947213e+01	-3.060283e+02
