# Temperatura_=_67.06
# Concentracion g/m^3_=_15000.0
# C_Vs_to_Am_M_A/Vsm_=_65563218390.804596
# pendiente_HvsI_1/m_=_3716.3
# ordenada_HvsI_A/m_=_1297.0
# frecuencia_Hz_=_301572.00141661847

Tiempo_(s)	Campo_(V.s)	Magnetizacion_(V.s)	Campo_(kA/m)	Magnetizacion_(A/m)
0.000000e+00	-5.374511e-06	-5.789532e-09	-3.834494e+01	-3.776069e+02
1.000000e-08	-5.372037e-06	-5.789544e-09	-3.832728e+01	-3.774046e+02
2.000000e-08	-5.367767e-06	-5.783631e-09	-3.829682e+01	-3.771382e+02
3.000000e-08	-5.361897e-06	-5.777617e-09	-3.825494e+01	-3.768093e+02
4.000000e-08	-5.354433e-06	-5.770243e-09	-3.820169e+01	-3.764139e+02
5.000000e-08	-5.345152e-06	-5.758865e-09	-3.813547e+01	-3.759445e+02
6.000000e-08	-5.333806e-06	-5.746201e-09	-3.805452e+01	-3.753923e+02
7.000000e-08	-5.320618e-06	-5.724548e-09	-3.796043e+01	-3.747505e+02
8.000000e-08	-5.305449e-06	-5.714013e-09	-3.785221e+01	-3.740169e+02
9.000000e-08	-5.287992e-06	-5.777863e-09	-3.772766e+01	-3.731953e+02
1.000000e-07	-5.268431e-06	-5.778200e-09	-3.758809e+01	-3.722953e+02
1.100000e-07	-5.246963e-06	-5.720304e-09	-3.743493e+01	-3.713306e+02
1.200000e-07	-5.223787e-06	-5.702266e-09	-3.726958e+01	-3.703155e+02
1.300000e-07	-5.199052e-06	-5.564861e-09	-3.709311e+01	-3.692612e+02
1.400000e-07	-5.172680e-06	-5.551285e-09	-3.690495e+01	-3.681732e+02
1.500000e-07	-5.144724e-06	-5.722914e-09	-3.670550e+01	-3.670484e+02
1.600000e-07	-5.115322e-06	-5.571671e-09	-3.649573e+01	-3.658760e+02
1.700000e-07	-5.084395e-06	-5.586536e-09	-3.627508e+01	-3.646385e+02
1.800000e-07	-5.051380e-06	-5.669587e-09	-3.603953e+01	-3.633152e+02
1.900000e-07	-5.016377e-06	-5.420967e-09	-3.578980e+01	-3.618861e+02
2.000000e-07	-4.979904e-06	-5.488609e-09	-3.552957e+01	-3.603357e+02
2.100000e-07	-4.941754e-06	-5.544726e-09	-3.525739e+01	-3.586555e+02
2.200000e-07	-4.901852e-06	-5.387027e-09	-3.497271e+01	-3.568449e+02
2.300000e-07	-4.859996e-06	-5.429035e-09	-3.467408e+01	-3.549110e+02
2.400000e-07	-4.816148e-06	-5.408283e-09	-3.436124e+01	-3.528659e+02
2.500000e-07	-4.770554e-06	-5.332772e-09	-3.403595e+01	-3.507238e+02
2.600000e-07	-4.723098e-06	-5.347535e-09	-3.369737e+01	-3.484983e+02
2.700000e-07	-4.673529e-06	-5.279458e-09	-3.334372e+01	-3.461993e+02
2.800000e-07	-4.621884e-06	-5.258972e-09	-3.297525e+01	-3.438321e+02
2.900000e-07	-4.568397e-06	-5.226234e-09	-3.259364e+01	-3.413973e+02
3.000000e-07	-4.513321e-06	-5.170203e-09	-3.220070e+01	-3.388919e+02
3.100000e-07	-4.456569e-06	-5.137784e-09	-3.179579e+01	-3.363112e+02
3.200000e-07	-4.397967e-06	-5.109524e-09	-3.137769e+01	-3.336503e+02
3.300000e-07	-4.337771e-06	-5.061518e-09	-3.094822e+01	-3.309055e+02
3.400000e-07	-4.276102e-06	-4.958857e-09	-3.050823e+01	-3.280751e+02
3.500000e-07	-4.213132e-06	-4.951180e-09	-3.005897e+01	-3.251593e+02
3.600000e-07	-4.148701e-06	-4.939192e-09	-2.959928e+01	-3.221591e+02
3.700000e-07	-4.082540e-06	-4.871821e-09	-2.912725e+01	-3.190753e+02
3.800000e-07	-4.014814e-06	-4.838011e-09	-2.864405e+01	-3.159081e+02
3.900000e-07	-3.945728e-06	-4.775347e-09	-2.815116e+01	-3.126562e+02
4.000000e-07	-3.875379e-06	-4.706799e-09	-2.764924e+01	-3.093177e+02
4.100000e-07	-3.803755e-06	-4.645702e-09	-2.713823e+01	-3.058902e+02
4.200000e-07	-3.730727e-06	-4.605684e-09	-2.661721e+01	-3.023725e+02
4.300000e-07	-3.656216e-06	-4.568857e-09	-2.608560e+01	-2.987647e+02
4.400000e-07	-3.580170e-06	-4.503862e-09	-2.554305e+01	-2.950691e+02
4.500000e-07	-3.502594e-06	-4.438960e-09	-2.498958e+01	-2.912896e+02
4.600000e-07	-3.423625e-06	-4.375011e-09	-2.442616e+01	-2.874307e+02
4.700000e-07	-3.343379e-06	-4.321967e-09	-2.385364e+01	-2.834967e+02
4.800000e-07	-3.261913e-06	-4.259268e-09	-2.327241e+01	-2.794899e+02
4.900000e-07	-3.179330e-06	-4.189583e-09	-2.268322e+01	-2.754098e+02
5.000000e-07	-3.095747e-06	-4.136301e-09	-2.208689e+01	-2.712534e+02
5.100000e-07	-3.011215e-06	-4.069920e-09	-2.148379e+01	-2.670150e+02
5.200000e-07	-2.925757e-06	-3.995803e-09	-2.087408e+01	-2.626875e+02
5.300000e-07	-2.839320e-06	-3.922392e-09	-2.025739e+01	-2.582642e+02
5.400000e-07	-2.751953e-06	-3.850062e-09	-1.963405e+01	-2.537398e+02
5.500000e-07	-2.663655e-06	-3.779403e-09	-1.900409e+01	-2.491110e+02
5.600000e-07	-2.574262e-06	-3.704715e-09	-1.836631e+01	-2.443775e+02
5.700000e-07	-2.483730e-06	-3.636847e-09	-1.772040e+01	-2.395407e+02
5.800000e-07	-2.392253e-06	-3.567870e-09	-1.706775e+01	-2.346033e+02
5.900000e-07	-2.299962e-06	-3.491023e-09	-1.640929e+01	-2.295677e+02
6.000000e-07	-2.206857e-06	-3.401502e-09	-1.574502e+01	-2.244353e+02
6.100000e-07	-2.112981e-06	-3.315354e-09	-1.507526e+01	-2.192057e+02
6.200000e-07	-2.018388e-06	-3.235773e-09	-1.440037e+01	-2.138772e+02
6.300000e-07	-1.923095e-06	-3.154356e-09	-1.372050e+01	-2.084471e+02
6.400000e-07	-1.827059e-06	-3.075783e-09	-1.303532e+01	-2.029126e+02
6.500000e-07	-1.730276e-06	-2.995034e-09	-1.234481e+01	-1.972717e+02
6.600000e-07	-1.632808e-06	-2.907332e-09	-1.164942e+01	-1.915240e+02
6.700000e-07	-1.534688e-06	-2.810144e-09	-1.094937e+01	-1.856704e+02
6.800000e-07	-1.435973e-06	-2.716626e-09	-1.024508e+01	-1.797123e+02
6.900000e-07	-1.336691e-06	-2.626982e-09	-9.536740e+00	-1.736511e+02
7.000000e-07	-1.236942e-06	-2.534448e-09	-8.825071e+00	-1.674868e+02
7.100000e-07	-1.136871e-06	-2.436260e-09	-8.111109e+00	-1.612176e+02
7.200000e-07	-1.036519e-06	-2.334770e-09	-7.395138e+00	-1.548393e+02
7.300000e-07	-9.359031e-07	-2.235196e-09	-6.677286e+00	-1.483459e+02
7.400000e-07	-8.349670e-07	-2.134468e-09	-5.957147e+00	-1.417308e+02
7.500000e-07	-7.336647e-07	-2.034251e-09	-5.234397e+00	-1.349882e+02
7.600000e-07	-6.321024e-07	-1.932182e-09	-4.509792e+00	-1.281137e+02
7.700000e-07	-5.303493e-07	-1.825113e-09	-3.783825e+00	-1.211055e+02
7.800000e-07	-4.284181e-07	-1.714764e-09	-3.056588e+00	-1.139639e+02
7.900000e-07	-3.263911e-07	-1.603964e-09	-2.328667e+00	-1.066903e+02
8.000000e-07	-2.242775e-07	-1.491526e-09	-1.600128e+00	-9.928557e+01
8.100000e-07	-1.220855e-07	-1.375905e-09	-8.710299e-01	-9.174844e+01
8.200000e-07	-1.984516e-08	-1.259650e-09	-1.415871e-01	-8.407380e+01
8.300000e-07	8.246073e-08	-1.142180e-09	5.883235e-01	-7.625206e+01
8.400000e-07	1.847941e-07	-1.023211e-09	1.318430e+00	-6.826935e+01
8.500000e-07	2.870548e-07	-9.022248e-10	2.048018e+00	-6.010879e+01
8.600000e-07	3.892114e-07	-7.751044e-10	2.776864e+00	-5.175251e+01
8.700000e-07	4.912764e-07	-6.389031e-10	3.505056e+00	-4.318396e+01
8.800000e-07	5.932094e-07	-5.005964e-10	4.232306e+00	-3.439005e+01
8.900000e-07	6.949793e-07	-3.632118e-10	4.958392e+00	-2.536261e+01
9.000000e-07	7.965215e-07	-2.238354e-10	5.682855e+00	-1.609899e+01
9.100000e-07	8.977504e-07	-8.150489e-11	6.405081e+00	-6.601836e+00
9.200000e-07	9.986493e-07	6.667045e-11	7.124954e+00	3.121786e+00
9.300000e-07	1.099213e-06	2.195363e-10	7.842434e+00	1.306139e+01
9.400000e-07	1.199465e-06	3.765987e-10	8.557689e+00	2.320385e+01
9.500000e-07	1.299388e-06	5.361362e-10	9.270600e+00	3.353359e+01
9.600000e-07	1.398868e-06	6.971633e-10	9.980347e+00	4.403213e+01
9.700000e-07	1.497735e-06	8.593829e-10	1.068572e+01	5.467705e+01
9.800000e-07	1.595872e-06	1.023840e-09	1.138589e+01	6.544091e+01
9.900000e-07	1.693301e-06	1.190148e-09	1.208101e+01	7.629041e+01
1.000000e-06	1.790044e-06	1.356593e-09	1.277123e+01	8.718644e+01
1.010000e-06	1.886100e-06	1.524215e-09	1.345655e+01	9.808506e+01
1.020000e-06	1.981390e-06	1.692749e-09	1.413641e+01	1.089395e+02
1.030000e-06	2.075919e-06	1.859580e-09	1.481083e+01	1.197030e+02
1.040000e-06	2.169759e-06	2.022115e-09	1.548034e+01	1.303316e+02
1.050000e-06	2.262874e-06	2.180361e-09	1.614468e+01	1.407866e+02
1.060000e-06	2.355285e-06	2.336066e-09	1.680399e+01	1.510365e+02
1.070000e-06	2.446965e-06	2.488197e-09	1.745809e+01	1.610569e+02
1.080000e-06	2.537748e-06	2.637372e-09	1.810579e+01	1.708299e+02
1.090000e-06	2.627518e-06	2.783785e-09	1.874626e+01	1.803423e+02
1.100000e-06	2.716264e-06	2.927144e-09	1.937943e+01	1.895836e+02
1.110000e-06	2.803986e-06	3.062278e-09	2.000529e+01	1.985443e+02
1.120000e-06	2.890740e-06	3.190231e-09	2.062425e+01	2.072143e+02
1.130000e-06	2.976557e-06	3.315244e-09	2.123651e+01	2.155835e+02
1.140000e-06	3.061450e-06	3.440062e-09	2.184219e+01	2.236421e+02
1.150000e-06	3.145440e-06	3.559233e-09	2.244142e+01	2.313829e+02
1.160000e-06	3.228449e-06	3.669841e-09	2.303366e+01	2.388027e+02
1.170000e-06	3.310318e-06	3.775357e-09	2.361776e+01	2.459035e+02
1.180000e-06	3.390863e-06	3.875300e-09	2.419242e+01	2.526939e+02
1.190000e-06	3.470140e-06	3.972358e-09	2.475803e+01	2.591877e+02
1.200000e-06	3.548232e-06	4.067422e-09	2.531518e+01	2.654031e+02
1.210000e-06	3.625056e-06	4.160498e-09	2.586329e+01	2.713608e+02
1.220000e-06	3.700552e-06	4.249354e-09	2.640192e+01	2.770812e+02
1.230000e-06	3.774598e-06	4.334122e-09	2.693021e+01	2.825830e+02
1.240000e-06	3.846986e-06	4.414583e-09	2.744667e+01	2.878823e+02
1.250000e-06	3.917880e-06	4.492500e-09	2.795247e+01	2.929915e+02
1.260000e-06	3.987457e-06	4.567470e-09	2.844887e+01	2.979204e+02
1.270000e-06	4.055679e-06	4.638761e-09	2.893561e+01	3.026769e+02
1.280000e-06	4.122492e-06	4.707052e-09	2.941229e+01	3.072675e+02
1.290000e-06	4.187736e-06	4.773754e-09	2.987778e+01	3.116981e+02
1.300000e-06	4.251381e-06	4.838223e-09	3.033186e+01	3.159738e+02
1.310000e-06	4.313537e-06	4.899996e-09	3.077532e+01	3.200985e+02
1.320000e-06	4.374313e-06	4.959652e-09	3.120893e+01	3.240743e+02
1.330000e-06	4.433687e-06	5.015573e-09	3.163254e+01	3.279007e+02
1.340000e-06	4.491448e-06	5.069134e-09	3.204464e+01	3.315743e+02
1.350000e-06	4.547396e-06	5.121393e-09	3.244381e+01	3.350899e+02
1.360000e-06	4.601665e-06	5.171237e-09	3.283100e+01	3.384414e+02
1.370000e-06	4.654262e-06	5.216294e-09	3.320625e+01	3.416236e+02
1.380000e-06	4.704880e-06	5.258258e-09	3.356739e+01	3.446340e+02
1.390000e-06	4.753456e-06	5.300258e-09	3.391396e+01	3.474739e+02
1.400000e-06	4.800261e-06	5.340439e-09	3.424790e+01	3.501494e+02
1.410000e-06	4.845495e-06	5.377036e-09	3.457062e+01	3.526700e+02
1.420000e-06	4.889190e-06	5.410786e-09	3.488237e+01	3.550474e+02
1.430000e-06	4.931111e-06	5.443464e-09	3.518146e+01	3.572934e+02
1.440000e-06	4.971147e-06	5.473532e-09	3.546710e+01	3.594175e+02
1.450000e-06	5.009493e-06	5.500822e-09	3.574068e+01	3.614255e+02
1.460000e-06	5.046281e-06	5.527337e-09	3.600315e+01	3.633186e+02
1.470000e-06	5.081421e-06	5.553920e-09	3.625386e+01	3.650947e+02
1.480000e-06	5.114588e-06	5.578579e-09	3.649049e+01	3.667492e+02
1.490000e-06	5.145838e-06	5.599787e-09	3.671345e+01	3.682781e+02
1.500000e-06	5.175419e-06	5.618632e-09	3.692450e+01	3.696798e+02
1.510000e-06	5.203376e-06	5.636688e-09	3.712396e+01	3.709565e+02
1.520000e-06	5.229425e-06	5.652769e-09	3.730980e+01	3.721149e+02
1.530000e-06	5.253305e-06	5.667299e-09	3.748018e+01	3.731650e+02
1.540000e-06	5.275266e-06	5.682351e-09	3.763686e+01	3.741183e+02
1.550000e-06	5.295556e-06	5.696902e-09	3.778162e+01	3.749850e+02
1.560000e-06	5.314085e-06	5.709507e-09	3.791382e+01	3.757717e+02
1.570000e-06	5.330612e-06	5.721195e-09	3.803173e+01	3.764802e+02
1.580000e-06	5.345102e-06	5.731763e-09	3.813511e+01	3.771073e+02
1.590000e-06	5.357657e-06	5.739898e-09	3.822469e+01	3.776458e+02
1.600000e-06	5.368088e-06	5.745154e-09	3.829911e+01	3.780871e+02
1.610000e-06	5.376337e-06	5.748126e-09	3.835797e+01	3.784237e+02
1.620000e-06	5.382656e-06	5.751012e-09	3.840304e+01	3.786520e+02
1.630000e-06	5.387240e-06	5.754821e-09	3.843575e+01	3.787733e+02
1.640000e-06	5.389973e-06	5.758395e-09	3.845525e+01	3.787943e+02
1.650000e-06	5.390639e-06	5.763712e-09	3.846000e+01	3.787251e+02
1.660000e-06	5.389442e-06	5.761546e-09	3.845146e+01	3.785773e+02
1.670000e-06	5.386597e-06	5.751851e-09	3.843116e+01	3.783605e+02
1.680000e-06	5.382115e-06	5.749750e-09	3.839919e+01	3.780804e+02
1.690000e-06	5.375738e-06	5.746115e-09	3.835369e+01	3.777373e+02
1.700000e-06	5.367473e-06	5.738169e-09	3.829472e+01	3.773264e+02
1.710000e-06	5.357589e-06	5.731767e-09	3.822420e+01	3.768396e+02
1.720000e-06	5.346049e-06	5.734533e-09	3.814187e+01	3.762683e+02
1.730000e-06	5.332651e-06	5.754172e-09	3.804628e+01	3.756064e+02
1.740000e-06	5.317248e-06	5.660649e-09	3.793639e+01	3.748530e+02
1.750000e-06	5.299537e-06	5.615764e-09	3.781002e+01	3.740132e+02
1.760000e-06	5.279127e-06	5.646604e-09	3.766441e+01	3.730978e+02
1.770000e-06	5.256303e-06	5.627388e-09	3.750157e+01	3.721208e+02
1.780000e-06	5.232001e-06	5.772043e-09	3.732818e+01	3.710961e+02
1.790000e-06	5.206997e-06	5.695238e-09	3.714979e+01	3.700340e+02
1.800000e-06	5.180820e-06	5.491774e-09	3.696303e+01	3.689382e+02
1.810000e-06	5.152522e-06	5.662602e-09	3.676114e+01	3.678040e+02
1.820000e-06	5.122335e-06	5.527556e-09	3.654576e+01	3.666189e+02
1.830000e-06	5.090525e-06	5.438321e-09	3.631881e+01	3.653644e+02
1.840000e-06	5.056726e-06	5.691749e-09	3.607767e+01	3.640196e+02
1.850000e-06	5.021247e-06	5.488793e-09	3.582454e+01	3.625653e+02
1.860000e-06	4.984063e-06	5.442552e-09	3.555925e+01	3.609871e+02
1.870000e-06	4.944905e-06	5.572693e-09	3.527987e+01	3.592783e+02
1.880000e-06	4.904110e-06	5.350952e-09	3.498881e+01	3.574401e+02
1.890000e-06	4.861499e-06	5.411715e-09	3.468480e+01	3.554809e+02
1.900000e-06	4.817156e-06	5.390407e-09	3.436844e+01	3.534134e+02
1.910000e-06	4.771120e-06	5.290792e-09	3.403998e+01	3.512520e+02
1.920000e-06	4.723045e-06	5.390464e-09	3.369699e+01	3.490097e+02
1.930000e-06	4.673267e-06	5.189536e-09	3.334184e+01	3.466954e+02
1.940000e-06	4.621857e-06	5.228215e-09	3.297506e+01	3.443134e+02
1.950000e-06	4.568509e-06	5.264557e-09	3.259444e+01	3.418634e+02
1.960000e-06	4.513182e-06	5.119349e-09	3.219971e+01	3.393420e+02
1.970000e-06	4.456074e-06	5.124987e-09	3.179226e+01	3.367441e+02
1.980000e-06	4.397461e-06	5.046638e-09	3.137408e+01	3.340650e+02
1.990000e-06	4.337435e-06	5.093270e-09	3.094582e+01	3.313016e+02
2.000000e-06	4.275758e-06	5.005684e-09	3.050578e+01	3.284525e+02
2.010000e-06	4.212350e-06	4.898891e-09	3.005339e+01	3.255181e+02
2.020000e-06	4.147436e-06	4.946191e-09	2.959026e+01	3.224995e+02
2.030000e-06	4.081074e-06	4.810255e-09	2.911679e+01	3.193975e+02
2.040000e-06	4.013302e-06	4.800574e-09	2.863326e+01	3.162119e+02
2.050000e-06	3.944104e-06	4.781525e-09	2.813956e+01	3.129413e+02
2.060000e-06	3.873373e-06	4.743014e-09	2.763493e+01	3.095835e+02
2.070000e-06	3.801189e-06	4.689712e-09	2.711993e+01	3.061364e+02
2.080000e-06	3.727744e-06	4.553224e-09	2.659592e+01	3.025989e+02
2.090000e-06	3.653000e-06	4.547057e-09	2.606266e+01	2.989716e+02
2.100000e-06	3.576867e-06	4.490621e-09	2.551948e+01	2.952573e+02
2.110000e-06	3.499165e-06	4.442920e-09	2.496511e+01	2.914600e+02
2.120000e-06	3.419938e-06	4.374467e-09	2.439986e+01	2.875843e+02
2.130000e-06	3.339531e-06	4.312925e-09	2.382619e+01	2.836342e+02
2.140000e-06	3.258006e-06	4.275602e-09	2.324454e+01	2.796114e+02
2.150000e-06	3.175388e-06	4.179981e-09	2.265509e+01	2.755150e+02
2.160000e-06	3.091751e-06	4.139197e-09	2.205838e+01	2.713412e+02
2.170000e-06	3.007137e-06	4.076699e-09	2.145469e+01	2.670839e+02
2.180000e-06	2.921315e-06	4.012007e-09	2.084238e+01	2.627360e+02
2.190000e-06	2.834158e-06	3.931855e-09	2.022055e+01	2.582911e+02
2.200000e-06	2.745930e-06	3.859983e-09	1.959109e+01	2.537440e+02
2.210000e-06	2.656813e-06	3.810427e-09	1.895527e+01	2.490924e+02
2.220000e-06	2.566787e-06	3.726843e-09	1.831297e+01	2.443362e+02
2.230000e-06	2.475866e-06	3.644723e-09	1.766429e+01	2.394773e+02
2.240000e-06	2.384194e-06	3.569084e-09	1.701025e+01	2.345182e+02
2.250000e-06	2.291744e-06	3.513904e-09	1.635065e+01	2.294614e+02
2.260000e-06	2.198445e-06	3.438062e-09	1.568501e+01	2.243078e+02
2.270000e-06	2.104236e-06	3.352281e-09	1.501286e+01	2.190569e+02
2.280000e-06	2.009027e-06	3.264610e-09	1.433358e+01	2.137065e+02
2.290000e-06	1.912975e-06	3.170967e-09	1.364829e+01	2.082538e+02
2.300000e-06	1.816330e-06	3.080027e-09	1.295877e+01	2.026962e+02
2.310000e-06	1.719215e-06	2.998032e-09	1.226589e+01	1.970321e+02
2.320000e-06	1.621550e-06	2.927278e-09	1.156910e+01	1.912612e+02
2.330000e-06	1.523346e-06	2.838737e-09	1.086845e+01	1.853847e+02
2.340000e-06	1.424672e-06	2.741877e-09	1.016445e+01	1.794040e+02
2.350000e-06	1.325538e-06	2.646759e-09	9.457171e+00	1.733204e+02
2.360000e-06	1.225995e-06	2.558875e-09	8.746972e+00	1.671335e+02
2.370000e-06	1.126190e-06	2.466328e-09	8.034904e+00	1.608410e+02
2.380000e-06	1.026174e-06	2.364660e-09	7.321331e+00	1.544381e+02
2.390000e-06	9.257514e-07	2.262989e-09	6.604857e+00	1.479188e+02
2.400000e-06	8.248740e-07	2.160638e-09	5.885138e+00	1.412765e+02
2.410000e-06	7.237218e-07	2.055758e-09	5.163458e+00	1.345055e+02
2.420000e-06	6.224323e-07	1.948888e-09	4.440800e+00	1.276021e+02
2.430000e-06	5.209217e-07	1.842979e-09	3.716563e+00	1.205648e+02
2.440000e-06	4.191401e-07	1.737171e-09	2.990393e+00	1.133944e+02
2.450000e-06	3.171939e-07	1.630626e-09	2.263048e+00	1.060923e+02
2.460000e-06	2.151015e-07	1.518589e-09	1.534661e+00	9.865900e+01
2.470000e-06	1.128818e-07	1.403153e-09	8.053651e-01	9.109259e+01
2.480000e-06	1.061515e-08	1.281521e-09	7.573475e-02	8.338702e+01
2.490000e-06	-9.163859e-08	1.152246e-09	-6.538038e-01	7.553169e+01
2.500000e-06	-1.939159e-07	1.024395e-09	-1.383510e+00	6.751197e+01
2.510000e-06	-2.961661e-07	9.030641e-10	-2.113024e+00	5.931058e+01
2.520000e-06	-3.982438e-07	7.827013e-10	-2.841307e+00	5.090973e+01
2.530000e-06	-5.001529e-07	6.540586e-10	-3.568386e+00	4.229346e+01
2.540000e-06	-6.019270e-07	5.199557e-10	-4.294503e+00	3.344963e+01
2.550000e-06	-7.035401e-07	3.836716e-10	-5.019470e+00	2.437123e+01
2.560000e-06	-8.048936e-07	2.421839e-10	-5.742586e+00	1.505679e+01
2.570000e-06	-9.058510e-07	9.342480e-11	-6.462876e+00	5.509993e+00
2.580000e-06	-1.006388e-06	-5.859300e-11	-7.180167e+00	-4.261277e+00
2.590000e-06	-1.106538e-06	-2.099872e-10	-7.894692e+00	-1.424592e+01
2.600000e-06	-1.206322e-06	-3.645696e-10	-8.606611e+00	-2.443030e+01
2.610000e-06	-1.305721e-06	-5.216732e-10	-9.315785e+00	-3.479827e+01
2.620000e-06	-1.404660e-06	-6.806483e-10	-1.002167e+01	-4.533061e+01
2.630000e-06	-1.503099e-06	-8.402663e-10	-1.072399e+01	-5.600390e+01
2.640000e-06	-1.600956e-06	-1.001908e-09	-1.142216e+01	-6.678950e+01
2.650000e-06	-1.698247e-06	-1.165160e-09	-1.211630e+01	-7.765284e+01
2.660000e-06	-1.795028e-06	-1.329046e-09	-1.280679e+01	-8.855364e+01
2.670000e-06	-1.891266e-06	-1.497276e-09	-1.349341e+01	-9.944716e+01
2.680000e-06	-1.986928e-06	-1.665375e-09	-1.417591e+01	-1.102864e+02
2.690000e-06	-2.081811e-06	-1.829356e-09	-1.485287e+01	-1.210249e+02
2.700000e-06	-2.175787e-06	-1.988550e-09	-1.552335e+01	-1.316197e+02
2.710000e-06	-2.268842e-06	-2.145771e-09	-1.618726e+01	-1.420336e+02
2.720000e-06	-2.360979e-06	-2.301053e-09	-1.684462e+01	-1.522365e+02
2.730000e-06	-2.452287e-06	-2.451891e-09	-1.749607e+01	-1.622056e+02
2.740000e-06	-2.542741e-06	-2.599512e-09	-1.814141e+01	-1.719241e+02
2.750000e-06	-2.632259e-06	-2.744322e-09	-1.878009e+01	-1.813796e+02
2.760000e-06	-2.720907e-06	-2.885693e-09	-1.941256e+01	-1.905620e+02
2.770000e-06	-2.808744e-06	-3.022103e-09	-2.003924e+01	-1.994616e+02
2.780000e-06	-2.895623e-06	-3.153936e-09	-2.065908e+01	-2.080684e+02
2.790000e-06	-2.981323e-06	-3.281623e-09	-2.127052e+01	-2.163722e+02
2.800000e-06	-3.065845e-06	-3.405311e-09	-2.187355e+01	-2.243636e+02
2.810000e-06	-3.149360e-06	-3.525153e-09	-2.246939e+01	-2.320361e+02
2.820000e-06	-3.231870e-06	-3.639330e-09	-2.305807e+01	-2.393875e+02
2.830000e-06	-3.313322e-06	-3.746500e-09	-2.363919e+01	-2.464213e+02
2.840000e-06	-3.393690e-06	-3.848872e-09	-2.421259e+01	-2.531472e+02
2.850000e-06	-3.472840e-06	-3.947993e-09	-2.477729e+01	-2.595801e+02
2.860000e-06	-3.550551e-06	-4.041814e-09	-2.533173e+01	-2.657389e+02
2.870000e-06	-3.626757e-06	-4.130997e-09	-2.587543e+01	-2.716444e+02
2.880000e-06	-3.701526e-06	-4.217700e-09	-2.640887e+01	-2.773168e+02
2.890000e-06	-3.774940e-06	-4.302134e-09	-2.693265e+01	-2.827745e+02
2.900000e-06	-3.847071e-06	-4.384035e-09	-2.744728e+01	-2.880324e+02
2.910000e-06	-3.917802e-06	-4.462254e-09	-2.795191e+01	-2.931026e+02
2.920000e-06	-3.986992e-06	-4.535966e-09	-2.844555e+01	-2.979944e+02
2.930000e-06	-4.054700e-06	-4.607306e-09	-2.892862e+01	-3.027152e+02
2.940000e-06	-4.121031e-06	-4.677301e-09	-2.940187e+01	-3.072714e+02
