# Temperatura_=_65.49
# Concentracion g/m^3_=_15000.0
# C_Vs_to_Am_M_A/Vsm_=_65563218390.804596
# pendiente_HvsI_1/m_=_3716.3
# ordenada_HvsI_A/m_=_1297.0
# frecuencia_Hz_=_301580.95423451863

Tiempo_(s)	Campo_(V.s)	Magnetizacion_(V.s)	Campo_(kA/m)	Magnetizacion_(A/m)
0.000000e+00	-5.394519e-06	-5.715358e-09	-3.834724e+01	-3.729957e+02
1.000000e-08	-5.393161e-06	-5.715281e-09	-3.833759e+01	-3.728168e+02
2.000000e-08	-5.389851e-06	-5.713524e-09	-3.831406e+01	-3.725758e+02
3.000000e-08	-5.384810e-06	-5.708935e-09	-3.827822e+01	-3.722852e+02
4.000000e-08	-5.378122e-06	-5.702563e-09	-3.823068e+01	-3.719506e+02
5.000000e-08	-5.369846e-06	-5.694268e-09	-3.817185e+01	-3.715694e+02
6.000000e-08	-5.359688e-06	-5.683771e-09	-3.809964e+01	-3.711312e+02
7.000000e-08	-5.347488e-06	-5.673335e-09	-3.801292e+01	-3.706208e+02
8.000000e-08	-5.333426e-06	-5.665571e-09	-3.791296e+01	-3.700223e+02
9.000000e-08	-5.317181e-06	-5.668831e-09	-3.779748e+01	-3.693237e+02
1.000000e-07	-5.298683e-06	-5.676793e-09	-3.766599e+01	-3.685202e+02
1.100000e-07	-5.278229e-06	-5.668976e-09	-3.752058e+01	-3.676169e+02
1.200000e-07	-5.255918e-06	-5.645624e-09	-3.736198e+01	-3.666273e+02
1.300000e-07	-5.231965e-06	-5.601184e-09	-3.719172e+01	-3.655710e+02
1.400000e-07	-5.206450e-06	-5.550009e-09	-3.701034e+01	-3.644687e+02
1.500000e-07	-5.179287e-06	-5.544405e-09	-3.681725e+01	-3.633368e+02
1.600000e-07	-5.150520e-06	-5.558791e-09	-3.661276e+01	-3.621833e+02
1.700000e-07	-5.120314e-06	-5.543559e-09	-3.639804e+01	-3.610046e+02
1.800000e-07	-5.088400e-06	-5.528831e-09	-3.617118e+01	-3.597859e+02
1.900000e-07	-5.054322e-06	-5.491522e-09	-3.592893e+01	-3.585036e+02
2.000000e-07	-5.018508e-06	-5.432183e-09	-3.567434e+01	-3.571301e+02
2.100000e-07	-4.981197e-06	-5.418150e-09	-3.540912e+01	-3.556391e+02
2.200000e-07	-4.942086e-06	-5.420750e-09	-3.513110e+01	-3.540109e+02
2.300000e-07	-4.901140e-06	-5.402510e-09	-3.484003e+01	-3.522361e+02
2.400000e-07	-4.858218e-06	-5.367529e-09	-3.453491e+01	-3.503169e+02
2.500000e-07	-4.813436e-06	-5.310575e-09	-3.421658e+01	-3.482658e+02
2.600000e-07	-4.766949e-06	-5.266271e-09	-3.388612e+01	-3.461023e+02
2.700000e-07	-4.718466e-06	-5.246550e-09	-3.354148e+01	-3.438485e+02
2.800000e-07	-4.667836e-06	-5.216620e-09	-3.318157e+01	-3.415243e+02
2.900000e-07	-4.615144e-06	-5.182638e-09	-3.280701e+01	-3.391439e+02
3.000000e-07	-4.560668e-06	-5.138825e-09	-3.241977e+01	-3.367136e+02
3.100000e-07	-4.504648e-06	-5.095319e-09	-3.202154e+01	-3.342318e+02
3.200000e-07	-4.446927e-06	-5.075520e-09	-3.161123e+01	-3.316910e+02
3.300000e-07	-4.387466e-06	-5.042390e-09	-3.118854e+01	-3.290798e+02
3.400000e-07	-4.326441e-06	-4.981144e-09	-3.075475e+01	-3.263869e+02
3.500000e-07	-4.264012e-06	-4.923785e-09	-3.031097e+01	-3.236027e+02
3.600000e-07	-4.200226e-06	-4.880852e-09	-2.985754e+01	-3.207212e+02
3.700000e-07	-4.134813e-06	-4.850672e-09	-2.939255e+01	-3.177404e+02
3.800000e-07	-4.067706e-06	-4.824512e-09	-2.891552e+01	-3.146616e+02
3.900000e-07	-3.999112e-06	-4.772396e-09	-2.842791e+01	-3.114880e+02
4.000000e-07	-3.929180e-06	-4.697560e-09	-2.793079e+01	-3.082233e+02
4.100000e-07	-3.858055e-06	-4.636020e-09	-2.742520e+01	-3.048710e+02
4.200000e-07	-3.785613e-06	-4.592096e-09	-2.691024e+01	-3.014335e+02
4.300000e-07	-3.711658e-06	-4.545678e-09	-2.638453e+01	-2.979129e+02
4.400000e-07	-3.636129e-06	-4.498909e-09	-2.584763e+01	-2.943107e+02
4.500000e-07	-3.559068e-06	-4.443629e-09	-2.529983e+01	-2.906290e+02
4.600000e-07	-3.480608e-06	-4.373111e-09	-2.474210e+01	-2.868700e+02
4.700000e-07	-3.400842e-06	-4.304790e-09	-2.417508e+01	-2.830362e+02
4.800000e-07	-3.319787e-06	-4.250656e-09	-2.359889e+01	-2.791295e+02
4.900000e-07	-3.237488e-06	-4.202986e-09	-2.301386e+01	-2.751501e+02
5.000000e-07	-3.154110e-06	-4.141576e-09	-2.242117e+01	-2.710963e+02
5.100000e-07	-3.069748e-06	-4.068724e-09	-2.182148e+01	-2.669639e+02
5.200000e-07	-2.984478e-06	-4.001189e-09	-2.121533e+01	-2.627467e+02
5.300000e-07	-2.898277e-06	-3.936830e-09	-2.060256e+01	-2.584377e+02
5.400000e-07	-2.811080e-06	-3.866926e-09	-1.998272e+01	-2.540304e+02
5.500000e-07	-2.722938e-06	-3.795413e-09	-1.935616e+01	-2.495202e+02
5.600000e-07	-2.633736e-06	-3.720201e-09	-1.872206e+01	-2.449054e+02
5.700000e-07	-2.543403e-06	-3.644609e-09	-1.807992e+01	-2.401870e+02
5.800000e-07	-2.452103e-06	-3.578477e-09	-1.743091e+01	-2.353685e+02
5.900000e-07	-2.359939e-06	-3.514081e-09	-1.677576e+01	-2.304542e+02
6.000000e-07	-2.266954e-06	-3.436720e-09	-1.611477e+01	-2.254476e+02
6.100000e-07	-2.173176e-06	-3.347111e-09	-1.544814e+01	-2.203500e+02
6.200000e-07	-2.078609e-06	-3.261018e-09	-1.477591e+01	-2.151596e+02
6.300000e-07	-1.983340e-06	-3.181619e-09	-1.409868e+01	-2.098722e+02
6.400000e-07	-1.887363e-06	-3.103244e-09	-1.341643e+01	-2.044816e+02
6.500000e-07	-1.790626e-06	-3.023769e-09	-1.272877e+01	-1.989820e+02
6.600000e-07	-1.693151e-06	-2.939064e-09	-1.203586e+01	-1.933694e+02
6.700000e-07	-1.594986e-06	-2.845985e-09	-1.133805e+01	-1.876433e+02
6.800000e-07	-1.496198e-06	-2.751242e-09	-1.063581e+01	-1.818066e+02
6.900000e-07	-1.396858e-06	-2.663338e-09	-9.929646e+00	-1.758654e+02
7.000000e-07	-1.297038e-06	-2.576776e-09	-9.220066e+00	-1.698269e+02
7.100000e-07	-1.196843e-06	-2.483632e-09	-8.507823e+00	-1.636971e+02
7.200000e-07	-1.096325e-06	-2.385146e-09	-7.793288e+00	-1.574789e+02
7.300000e-07	-9.954856e-07	-2.286803e-09	-7.076465e+00	-1.511702e+02
7.400000e-07	-8.943491e-07	-2.187713e-09	-6.357530e+00	-1.447638e+02
7.500000e-07	-7.928689e-07	-2.088187e-09	-5.636153e+00	-1.382484e+02
7.600000e-07	-6.910604e-07	-1.989092e-09	-4.912442e+00	-1.316108e+02
7.700000e-07	-5.889843e-07	-1.885352e-09	-4.186828e+00	-1.248381e+02
7.800000e-07	-4.867118e-07	-1.776415e-09	-3.459818e+00	-1.179204e+02
7.900000e-07	-3.843122e-07	-1.668038e-09	-2.731905e+00	-1.108524e+02
8.000000e-07	-2.818068e-07	-1.561286e-09	-2.003239e+00	-1.036330e+02
8.100000e-07	-1.791796e-07	-1.450751e-09	-1.273708e+00	-9.626436e+01
8.200000e-07	-7.646855e-08	-1.336450e-09	-5.435809e-01	-8.874927e+01
8.300000e-07	2.624260e-08	-1.220271e-09	1.865470e-01	-8.108850e+01
8.400000e-07	1.289133e-07	-1.102620e-09	9.163873e-01	-7.327817e+01
8.500000e-07	2.315621e-07	-9.838092e-10	1.646072e+00	-6.530841e+01
8.600000e-07	3.342042e-07	-8.628040e-10	2.375709e+00	-5.716355e+01
8.700000e-07	4.367226e-07	-7.356688e-10	3.104467e+00	-4.882389e+01
8.800000e-07	5.391137e-07	-6.016668e-10	3.832320e+00	-4.026868e+01
8.900000e-07	6.413944e-07	-4.663098e-10	4.559388e+00	-3.147965e+01
9.000000e-07	7.434458e-07	-3.293194e-10	5.284826e+00	-2.244423e+01
9.100000e-07	8.452074e-07	-1.897239e-10	6.008204e+00	-1.315772e+01
9.200000e-07	9.466271e-07	-4.632647e-11	6.729152e+00	-3.624054e+00
9.300000e-07	1.047731e-06	1.024115e-10	7.447854e+00	6.144892e+00
9.400000e-07	1.148503e-06	2.558469e-10	8.164200e+00	1.613117e+01
9.500000e-07	1.248912e-06	4.129946e-10	8.877964e+00	2.631301e+01
9.600000e-07	1.348967e-06	5.715495e-10	9.589210e+00	3.666685e+01
9.700000e-07	1.448555e-06	7.315296e-10	1.029714e+01	4.716849e+01
9.800000e-07	1.547582e-06	8.953001e-10	1.100107e+01	5.779317e+01
9.900000e-07	1.645953e-06	1.062435e-09	1.170035e+01	6.851454e+01
1.000000e-06	1.743470e-06	1.229070e-09	1.239355e+01	7.930319e+01
1.010000e-06	1.840134e-06	1.394343e-09	1.308070e+01	9.012521e+01
1.020000e-06	1.936064e-06	1.559200e-09	1.376262e+01	1.009415e+02
1.030000e-06	2.031343e-06	1.725012e-09	1.443992e+01	1.117083e+02
1.040000e-06	2.125946e-06	1.890202e-09	1.511241e+01	1.223790e+02
1.050000e-06	2.219789e-06	2.052089e-09	1.577949e+01	1.329072e+02
1.060000e-06	2.312901e-06	2.210113e-09	1.644138e+01	1.432497e+02
1.070000e-06	2.405289e-06	2.362298e-09	1.709813e+01	1.533696e+02
1.080000e-06	2.496978e-06	2.510909e-09	1.774990e+01	1.632382e+02
1.090000e-06	2.587795e-06	2.659125e-09	1.839549e+01	1.728355e+02
1.100000e-06	2.677469e-06	2.805109e-09	1.903294e+01	1.821490e+02
1.110000e-06	2.765961e-06	2.942263e-09	1.966199e+01	1.911717e+02
1.120000e-06	2.853445e-06	3.071220e-09	2.028387e+01	1.998998e+02
1.130000e-06	2.940026e-06	3.197073e-09	2.089934e+01	2.083297e+02
1.140000e-06	3.025703e-06	3.322701e-09	2.150838e+01	2.164574e+02
1.150000e-06	3.110478e-06	3.444695e-09	2.211101e+01	2.242781e+02
1.160000e-06	3.194378e-06	3.558673e-09	2.270741e+01	2.317872e+02
1.170000e-06	3.277235e-06	3.665974e-09	2.329641e+01	2.389824e+02
1.180000e-06	3.358770e-06	3.767223e-09	2.387601e+01	2.458660e+02
1.190000e-06	3.439059e-06	3.863533e-09	2.444674e+01	2.524460e+02
1.200000e-06	3.518111e-06	3.958397e-09	2.500869e+01	2.587369e+02
1.210000e-06	3.595873e-06	4.052507e-09	2.556147e+01	2.647583e+02
1.220000e-06	3.672422e-06	4.142687e-09	2.610562e+01	2.705330e+02
1.230000e-06	3.747629e-06	4.229259e-09	2.664023e+01	2.760842e+02
1.240000e-06	3.821216e-06	4.312017e-09	2.716332e+01	2.814326e+02
1.250000e-06	3.893213e-06	4.390987e-09	2.767512e+01	2.865939e+02
1.260000e-06	3.963772e-06	4.466130e-09	2.817669e+01	2.915786e+02
1.270000e-06	4.032928e-06	4.538819e-09	2.866829e+01	2.963916e+02
1.280000e-06	4.100820e-06	4.609223e-09	2.915091e+01	3.010346e+02
1.290000e-06	4.167259e-06	4.675782e-09	2.962319e+01	3.055072e+02
1.300000e-06	4.231975e-06	4.739013e-09	3.008323e+01	3.098099e+02
1.310000e-06	4.295124e-06	4.801163e-09	3.053213e+01	3.139448e+02
1.320000e-06	4.356847e-06	4.861679e-09	3.097089e+01	3.179160e+02
1.330000e-06	4.417167e-06	4.919573e-09	3.139968e+01	3.217291e+02
1.340000e-06	4.475960e-06	4.974142e-09	3.181761e+01	3.253896e+02
1.350000e-06	4.532993e-06	5.025594e-09	3.222303e+01	3.289014e+02
1.360000e-06	4.588342e-06	5.074887e-09	3.261648e+01	3.322653e+02
1.370000e-06	4.642107e-06	5.120314e-09	3.299867e+01	3.354795e+02
1.380000e-06	4.694077e-06	5.162843e-09	3.336811e+01	3.385393e+02
1.390000e-06	4.743990e-06	5.203897e-09	3.372292e+01	3.414400e+02
1.400000e-06	4.791963e-06	5.243162e-09	3.406394e+01	3.441782e+02
1.410000e-06	4.838273e-06	5.279835e-09	3.439313e+01	3.467539e+02
1.420000e-06	4.883006e-06	5.315104e-09	3.471112e+01	3.491716e+02
1.430000e-06	4.926164e-06	5.349245e-09	3.501791e+01	3.514403e+02
1.440000e-06	4.967441e-06	5.379535e-09	3.531133e+01	3.535718e+02
1.450000e-06	5.006856e-06	5.406238e-09	3.559151e+01	3.555789e+02
1.460000e-06	5.044689e-06	5.431240e-09	3.586045e+01	3.574725e+02
1.470000e-06	5.080906e-06	5.455891e-09	3.611791e+01	3.592602e+02
1.480000e-06	5.115273e-06	5.480442e-09	3.636220e+01	3.609447e+02
1.490000e-06	5.147648e-06	5.503320e-09	3.659234e+01	3.625246e+02
1.500000e-06	5.178218e-06	5.524391e-09	3.680965e+01	3.639957e+02
1.510000e-06	5.207167e-06	5.543378e-09	3.701544e+01	3.653536e+02
1.520000e-06	5.234409e-06	5.560663e-09	3.720909e+01	3.665959e+02
1.530000e-06	5.259569e-06	5.576039e-09	3.738794e+01	3.677237e+02
1.540000e-06	5.282681e-06	5.590661e-09	3.755223e+01	3.687424e+02
1.550000e-06	5.304018e-06	5.604878e-09	3.770391e+01	3.696602e+02
1.560000e-06	5.323645e-06	5.617235e-09	3.784342e+01	3.704866e+02
1.570000e-06	5.341329e-06	5.628903e-09	3.796913e+01	3.712295e+02
1.580000e-06	5.356930e-06	5.640307e-09	3.808003e+01	3.718929e+02
1.590000e-06	5.370607e-06	5.650140e-09	3.817726e+01	3.724757e+02
1.600000e-06	5.382270e-06	5.656780e-09	3.826016e+01	3.729721e+02
1.610000e-06	5.391745e-06	5.661438e-09	3.832752e+01	3.733733e+02
1.620000e-06	5.399191e-06	5.665332e-09	3.838045e+01	3.736705e+02
1.630000e-06	5.404809e-06	5.670202e-09	3.842039e+01	3.738580e+02
1.640000e-06	5.408609e-06	5.675458e-09	3.844740e+01	3.739357e+02
1.650000e-06	5.410382e-06	5.678634e-09	3.846000e+01	3.739101e+02
1.660000e-06	5.410163e-06	5.677779e-09	3.845844e+01	3.737936e+02
1.670000e-06	5.408224e-06	5.672116e-09	3.844466e+01	3.736022e+02
1.680000e-06	5.404667e-06	5.665617e-09	3.841937e+01	3.733514e+02
1.690000e-06	5.399349e-06	5.661176e-09	3.838157e+01	3.730525e+02
1.700000e-06	5.392100e-06	5.658319e-09	3.833004e+01	3.727097e+02
1.710000e-06	5.383124e-06	5.654498e-09	3.826624e+01	3.723190e+02
1.720000e-06	5.372548e-06	5.649225e-09	3.819106e+01	3.718688e+02
1.730000e-06	5.360198e-06	5.643179e-09	3.810326e+01	3.713436e+02
1.740000e-06	5.345769e-06	5.622490e-09	3.800070e+01	3.707277e+02
1.750000e-06	5.329209e-06	5.591749e-09	3.788298e+01	3.700102e+02
1.760000e-06	5.310252e-06	5.572623e-09	3.774823e+01	3.691880e+02
1.770000e-06	5.288594e-06	5.565728e-09	3.759427e+01	3.682677e+02
1.780000e-06	5.264926e-06	5.580213e-09	3.742602e+01	3.672645e+02
1.790000e-06	5.240258e-06	5.593016e-09	3.725066e+01	3.661982e+02
1.800000e-06	5.214805e-06	5.552100e-09	3.706974e+01	3.650894e+02
1.810000e-06	5.187653e-06	5.504092e-09	3.687672e+01	3.639531e+02
1.820000e-06	5.158195e-06	5.494072e-09	3.666732e+01	3.627954e+02
1.830000e-06	5.127067e-06	5.477916e-09	3.644604e+01	3.616107e+02
1.840000e-06	5.094271e-06	5.474617e-09	3.621291e+01	3.603823e+02
1.850000e-06	5.059541e-06	5.486605e-09	3.596603e+01	3.590856e+02
1.860000e-06	5.023201e-06	5.464630e-09	3.570771e+01	3.576927e+02
1.870000e-06	4.984977e-06	5.424514e-09	3.543599e+01	3.561781e+02
1.880000e-06	4.944900e-06	5.373718e-09	3.515110e+01	3.545238e+02
1.890000e-06	4.903184e-06	5.343287e-09	3.485456e+01	3.527225e+02
1.900000e-06	4.859641e-06	5.349058e-09	3.454503e+01	3.507783e+02
1.910000e-06	4.814499e-06	5.325414e-09	3.422413e+01	3.487053e+02
1.920000e-06	4.767528e-06	5.284556e-09	3.389024e+01	3.465238e+02
1.930000e-06	4.718557e-06	5.247012e-09	3.354213e+01	3.442558e+02
1.940000e-06	4.667950e-06	5.200916e-09	3.318238e+01	3.419205e+02
1.950000e-06	4.615478e-06	5.175605e-09	3.280938e+01	3.395307e+02
1.960000e-06	4.560937e-06	5.146617e-09	3.242167e+01	3.370912e+02
1.970000e-06	4.504497e-06	5.096196e-09	3.202047e+01	3.345994e+02
1.980000e-06	4.446444e-06	5.051453e-09	3.160779e+01	3.320466e+02
1.990000e-06	4.387018e-06	5.015055e-09	3.118536e+01	3.294214e+02
2.000000e-06	4.325988e-06	4.987881e-09	3.075153e+01	3.267125e+02
2.010000e-06	4.263254e-06	4.951626e-09	3.030558e+01	3.239110e+02
2.020000e-06	4.198940e-06	4.886127e-09	2.984840e+01	3.210115e+02
2.030000e-06	4.133145e-06	4.823641e-09	2.938069e+01	3.180129e+02
2.040000e-06	4.065926e-06	4.787049e-09	2.890286e+01	3.149166e+02
2.050000e-06	3.997236e-06	4.758242e-09	2.841458e+01	3.117262e+02
2.060000e-06	3.927053e-06	4.715395e-09	2.791568e+01	3.084454e+02
2.070000e-06	3.855375e-06	4.665581e-09	2.740615e+01	3.050774e+02
2.080000e-06	3.782365e-06	4.610177e-09	2.688715e+01	3.016247e+02
2.090000e-06	3.708072e-06	4.532708e-09	2.635904e+01	2.980892e+02
2.100000e-06	3.632370e-06	4.469684e-09	2.582090e+01	2.944724e+02
2.110000e-06	3.555167e-06	4.431342e-09	2.527210e+01	2.907764e+02
2.120000e-06	3.476475e-06	4.389989e-09	2.471271e+01	2.870037e+02
2.130000e-06	3.396552e-06	4.329538e-09	2.414458e+01	2.831565e+02
2.140000e-06	3.315521e-06	4.254312e-09	2.356857e+01	2.792365e+02
2.150000e-06	3.233341e-06	4.196901e-09	2.298438e+01	2.752438e+02
2.160000e-06	3.150113e-06	4.140135e-09	2.239276e+01	2.711761e+02
2.170000e-06	3.065811e-06	4.075194e-09	2.179349e+01	2.670288e+02
2.180000e-06	2.980315e-06	4.016781e-09	2.118574e+01	2.627954e+02
2.190000e-06	2.893558e-06	3.949986e-09	2.056902e+01	2.584691e+02
2.200000e-06	2.805634e-06	3.877687e-09	1.994401e+01	2.540434e+02
2.210000e-06	2.716757e-06	3.814937e-09	1.931222e+01	2.495143e+02
2.220000e-06	2.626986e-06	3.754021e-09	1.867408e+01	2.448806e+02
2.230000e-06	2.536321e-06	3.678424e-09	1.802958e+01	2.401437e+02
2.240000e-06	2.444809e-06	3.594527e-09	1.737906e+01	2.353076e+02
2.250000e-06	2.352435e-06	3.518363e-09	1.672241e+01	2.303764e+02
2.260000e-06	2.259188e-06	3.449140e-09	1.605956e+01	2.253532e+02
2.270000e-06	2.165129e-06	3.377074e-09	1.539094e+01	2.202390e+02
2.280000e-06	2.070145e-06	3.299790e-09	1.471574e+01	2.150315e+02
2.290000e-06	1.974221e-06	3.217354e-09	1.403386e+01	2.097258e+02
2.300000e-06	1.877601e-06	3.124763e-09	1.334703e+01	2.043159e+02
2.310000e-06	1.780464e-06	3.036552e-09	1.265653e+01	1.987961e+02
2.320000e-06	1.682830e-06	2.962594e-09	1.196249e+01	1.931629e+02
2.330000e-06	1.584641e-06	2.885043e-09	1.126451e+01	1.874164e+02
2.340000e-06	1.485928e-06	2.791904e-09	1.056280e+01	1.815603e+02
2.350000e-06	1.386803e-06	2.693162e-09	9.858168e+00	1.756010e+02
2.360000e-06	1.287276e-06	2.598300e-09	9.150677e+00	1.695455e+02
2.370000e-06	1.187353e-06	2.506840e-09	8.440364e+00	1.633996e+02
2.380000e-06	1.087143e-06	2.415319e-09	7.728018e+00	1.571653e+02
2.390000e-06	9.865619e-07	2.321994e-09	7.013030e+00	1.508395e+02
2.400000e-06	8.854947e-07	2.225084e-09	6.294589e+00	1.444143e+02
2.410000e-06	7.840276e-07	2.120640e-09	5.573304e+00	1.378779e+02
2.420000e-06	6.822347e-07	2.017769e-09	4.849703e+00	1.312167e+02
2.430000e-06	5.802111e-07	1.918520e-09	4.124463e+00	1.244185e+02
2.440000e-06	4.780025e-07	1.814737e-09	3.397908e+00	1.174740e+02
2.450000e-06	3.756169e-07	1.706261e-09	2.670094e+00	1.103787e+02
2.460000e-06	2.730967e-07	1.594233e-09	1.941323e+00	1.031322e+02
2.470000e-06	1.703915e-07	1.479612e-09	1.211238e+00	9.573691e+01
2.480000e-06	6.752356e-08	1.363479e-09	4.799950e-01	8.819560e+01
2.490000e-06	-3.541998e-08	1.244188e-09	-2.517849e-01	8.050831e+01
2.500000e-06	-1.382727e-07	1.121128e-09	-9.829192e-01	7.267016e+01
2.510000e-06	-2.409935e-07	9.957419e-10	-1.713116e+00	6.467017e+01
2.520000e-06	-3.436463e-07	8.706462e-10	-2.442829e+00	5.649179e+01
2.530000e-06	-4.462065e-07	7.453576e-10	-3.171884e+00	4.811488e+01
2.540000e-06	-5.486413e-07	6.164230e-10	-3.900048e+00	3.951888e+01
2.550000e-06	-6.508189e-07	4.834235e-10	-4.626383e+00	3.068631e+01
2.560000e-06	-7.526858e-07	3.449824e-10	-5.350509e+00	2.160589e+01
2.570000e-06	-8.542317e-07	1.988162e-10	-6.072353e+00	1.227445e+01
2.580000e-06	-9.553720e-07	4.817853e-11	-6.791315e+00	2.697443e+00
2.590000e-06	-1.056118e-06	-1.018550e-10	-7.507470e+00	-7.112025e+00
2.600000e-06	-1.156459e-06	-2.518236e-10	-8.220755e+00	-1.713515e+01
2.610000e-06	-1.256331e-06	-4.055360e-10	-8.930702e+00	-2.734972e+01
2.620000e-06	-1.355727e-06	-5.629355e-10	-9.637263e+00	-3.773199e+01
2.630000e-06	-1.454651e-06	-7.225551e-10	-1.034047e+01	-4.825770e+01
2.640000e-06	-1.553128e-06	-8.823914e-10	-1.104050e+01	-5.890190e+01
2.650000e-06	-1.651115e-06	-1.042903e-09	-1.173704e+01	-6.963782e+01
2.660000e-06	-1.748497e-06	-1.206264e-09	-1.242929e+01	-8.043532e+01
2.670000e-06	-1.845281e-06	-1.371547e-09	-1.311728e+01	-9.125958e+01
2.680000e-06	-1.941540e-06	-1.537542e-09	-1.380155e+01	-1.020706e+02
2.690000e-06	-2.037246e-06	-1.701813e-09	-1.448188e+01	-1.128239e+02
2.700000e-06	-2.132204e-06	-1.861390e-09	-1.515689e+01	-1.234728e+02
2.710000e-06	-2.226215e-06	-2.018574e-09	-1.582518e+01	-1.339711e+02
2.720000e-06	-2.319179e-06	-2.175798e-09	-1.648601e+01	-1.442766e+02
2.730000e-06	-2.411199e-06	-2.329789e-09	-1.714014e+01	-1.543538e+02
2.740000e-06	-2.502426e-06	-2.478277e-09	-1.778863e+01	-1.641755e+02
2.750000e-06	-2.592784e-06	-2.623535e-09	-1.843095e+01	-1.737230e+02
2.760000e-06	-2.682190e-06	-2.767375e-09	-1.906650e+01	-1.829852e+02
2.770000e-06	-2.770696e-06	-2.906014e-09	-1.969565e+01	-1.919558e+02
2.780000e-06	-2.858419e-06	-3.038195e-09	-2.031923e+01	-2.006311e+02
2.790000e-06	-2.945231e-06	-3.165894e-09	-2.093634e+01	-2.090077e+02
2.800000e-06	-3.030787e-06	-3.288785e-09	-2.154452e+01	-2.170812e+02
2.810000e-06	-3.115105e-06	-3.407186e-09	-2.214389e+01	-2.248468e+02
2.820000e-06	-3.198405e-06	-3.521965e-09	-2.273604e+01	-2.323002e+02
2.830000e-06	-3.280726e-06	-3.632874e-09	-2.332122e+01	-2.394397e+02
2.840000e-06	-3.362005e-06	-3.739382e-09	-2.389900e+01	-2.462686e+02
2.850000e-06	-3.442203e-06	-3.839881e-09	-2.446909e+01	-2.527960e+02
2.860000e-06	-3.521150e-06	-3.935217e-09	-2.503029e+01	-2.590374e+02
2.870000e-06	-3.598557e-06	-4.027425e-09	-2.558054e+01	-2.650133e+02
2.880000e-06	-3.674433e-06	-4.115285e-09	-2.611991e+01	-2.707467e+02
2.890000e-06	-3.748923e-06	-4.196811e-09	-2.664943e+01	-2.762605e+02
2.900000e-06	-3.822055e-06	-4.275565e-09	-2.716929e+01	-2.815747e+02
2.910000e-06	-3.893892e-06	-4.354220e-09	-2.767995e+01	-2.867042e+02
2.920000e-06	-3.964243e-06	-4.429819e-09	-2.818005e+01	-2.916582e+02
2.930000e-06	-4.032950e-06	-4.502246e-09	-2.866845e+01	-2.964411e+02
2.940000e-06	-4.100196e-06	-4.572854e-09	-2.914647e+01	-3.010539e+02
