# Temperatura_=_71.24
# Concentracion g/m^3_=_15000.0
# C_Vs_to_Am_M_A/Vsm_=_65563218390.804596
# pendiente_HvsI_1/m_=_3716.3
# ordenada_HvsI_A/m_=_1297.0
# frecuencia_Hz_=_301578.5863356198

Tiempo_(s)	Campo_(V.s)	Magnetizacion_(V.s)	Campo_(kA/m)	Magnetizacion_(A/m)
0.000000e+00	-5.363823e-06	-5.886938e-09	-3.834491e+01	-3.846131e+02
1.000000e-08	-5.360957e-06	-5.886770e-09	-3.832441e+01	-3.843846e+02
2.000000e-08	-5.356257e-06	-5.882360e-09	-3.829081e+01	-3.840833e+02
3.000000e-08	-5.349958e-06	-5.875620e-09	-3.824578e+01	-3.837177e+02
4.000000e-08	-5.342085e-06	-5.866687e-09	-3.818950e+01	-3.832923e+02
5.000000e-08	-5.332298e-06	-5.855233e-09	-3.811954e+01	-3.828063e+02
6.000000e-08	-5.320525e-06	-5.844242e-09	-3.803537e+01	-3.822535e+02
7.000000e-08	-5.306918e-06	-5.829414e-09	-3.793810e+01	-3.816238e+02
8.000000e-08	-5.291194e-06	-5.817248e-09	-3.782569e+01	-3.809056e+02
9.000000e-08	-5.273239e-06	-5.847816e-09	-3.769734e+01	-3.800893e+02
1.000000e-07	-5.253283e-06	-5.854001e-09	-3.755468e+01	-3.791701e+02
1.100000e-07	-5.231422e-06	-5.814575e-09	-3.739840e+01	-3.781500e+02
1.200000e-07	-5.207866e-06	-5.788037e-09	-3.723000e+01	-3.770383e+02
1.300000e-07	-5.182767e-06	-5.704969e-09	-3.705057e+01	-3.758504e+02
1.400000e-07	-5.156056e-06	-5.672001e-09	-3.685962e+01	-3.746043e+02
1.500000e-07	-5.127785e-06	-5.770288e-09	-3.665752e+01	-3.733171e+02
1.600000e-07	-5.098063e-06	-5.693558e-09	-3.644504e+01	-3.720003e+02
1.700000e-07	-5.066714e-06	-5.650351e-09	-3.622093e+01	-3.706572e+02
1.800000e-07	-5.033204e-06	-5.689393e-09	-3.598137e+01	-3.692807e+02
1.900000e-07	-4.997886e-06	-5.563101e-09	-3.572889e+01	-3.678543e+02
2.000000e-07	-4.961126e-06	-5.580298e-09	-3.546610e+01	-3.663546e+02
2.100000e-07	-4.922609e-06	-5.627261e-09	-3.519075e+01	-3.647554e+02
2.200000e-07	-4.882272e-06	-5.534426e-09	-3.490239e+01	-3.630327e+02
2.300000e-07	-4.839976e-06	-5.517446e-09	-3.460002e+01	-3.611692e+02
2.400000e-07	-4.795804e-06	-5.484332e-09	-3.428425e+01	-3.591575e+02
2.500000e-07	-4.749903e-06	-5.425566e-09	-3.395611e+01	-3.570007e+02
2.600000e-07	-4.702124e-06	-5.423736e-09	-3.361455e+01	-3.547120e+02
2.700000e-07	-4.652276e-06	-5.364868e-09	-3.325820e+01	-3.523113e+02
2.800000e-07	-4.600335e-06	-5.336041e-09	-3.288688e+01	-3.498207e+02
2.900000e-07	-4.546521e-06	-5.312426e-09	-3.250218e+01	-3.472603e+02
3.000000e-07	-4.491239e-06	-5.264902e-09	-3.210697e+01	-3.446443e+02
3.100000e-07	-4.434350e-06	-5.230020e-09	-3.170029e+01	-3.419791e+02
3.200000e-07	-4.375595e-06	-5.183479e-09	-3.128026e+01	-3.392621e+02
3.300000e-07	-4.315201e-06	-5.131858e-09	-3.084851e+01	-3.364842e+02
3.400000e-07	-4.253346e-06	-5.064172e-09	-3.040632e+01	-3.336320e+02
3.500000e-07	-4.190210e-06	-5.041440e-09	-2.995498e+01	-3.306917e+02
3.600000e-07	-4.125598e-06	-5.021207e-09	-2.949308e+01	-3.276519e+02
3.700000e-07	-4.059225e-06	-4.961737e-09	-2.901859e+01	-3.245065e+02
3.800000e-07	-3.991252e-06	-4.907681e-09	-2.853267e+01	-3.212550e+02
3.900000e-07	-3.921939e-06	-4.842694e-09	-2.803716e+01	-3.179021e+02
4.000000e-07	-3.851381e-06	-4.787749e-09	-2.753276e+01	-3.144562e+02
4.100000e-07	-3.779608e-06	-4.740755e-09	-2.701967e+01	-3.109264e+02
4.200000e-07	-3.706456e-06	-4.688847e-09	-2.649672e+01	-3.073203e+02
4.300000e-07	-3.631687e-06	-4.643335e-09	-2.596221e+01	-3.036423e+02
4.400000e-07	-3.555343e-06	-4.582973e-09	-2.541644e+01	-2.998924e+02
4.500000e-07	-3.477600e-06	-4.519811e-09	-2.486067e+01	-2.960670e+02
4.600000e-07	-3.398484e-06	-4.459927e-09	-2.429508e+01	-2.921598e+02
4.700000e-07	-3.318093e-06	-4.396926e-09	-2.372039e+01	-2.881636e+02
4.800000e-07	-3.236546e-06	-4.331461e-09	-2.313742e+01	-2.840728e+02
4.900000e-07	-3.153824e-06	-4.266777e-09	-2.254606e+01	-2.798836e+02
5.000000e-07	-3.070106e-06	-4.208322e-09	-2.194758e+01	-2.755959e+02
5.100000e-07	-2.985528e-06	-4.143706e-09	-2.134295e+01	-2.712118e+02
5.200000e-07	-2.899976e-06	-4.074314e-09	-2.073135e+01	-2.667355e+02
5.300000e-07	-2.813417e-06	-3.994827e-09	-2.011256e+01	-2.621709e+02
5.400000e-07	-2.725987e-06	-3.913461e-09	-1.948754e+01	-2.575210e+02
5.500000e-07	-2.637620e-06	-3.840971e-09	-1.885582e+01	-2.527859e+02
5.600000e-07	-2.548090e-06	-3.773658e-09	-1.821579e+01	-2.479630e+02
5.700000e-07	-2.457386e-06	-3.707965e-09	-1.756737e+01	-2.430471e+02
5.800000e-07	-2.365808e-06	-3.630423e-09	-1.691269e+01	-2.380312e+02
5.900000e-07	-2.273524e-06	-3.547776e-09	-1.625297e+01	-2.329087e+02
6.000000e-07	-2.180388e-06	-3.463667e-09	-1.558716e+01	-2.276739e+02
6.100000e-07	-2.086418e-06	-3.378949e-09	-1.491539e+01	-2.223239e+02
6.200000e-07	-1.991784e-06	-3.296143e-09	-1.423887e+01	-2.168589e+02
6.300000e-07	-1.896544e-06	-3.212644e-09	-1.355802e+01	-2.112817e+02
6.400000e-07	-1.800644e-06	-3.126897e-09	-1.287245e+01	-2.055973e+02
6.500000e-07	-1.704034e-06	-3.038718e-09	-1.218180e+01	-1.998116e+02
6.600000e-07	-1.606643e-06	-2.949512e-09	-1.148557e+01	-1.939295e+02
6.700000e-07	-1.508543e-06	-2.858002e-09	-1.078427e+01	-1.879540e+02
6.800000e-07	-1.409834e-06	-2.765266e-09	-1.007862e+01	-1.818851e+02
6.900000e-07	-1.310559e-06	-2.669554e-09	-9.368929e+00	-1.757199e+02
7.000000e-07	-1.210905e-06	-2.573468e-09	-8.656519e+00	-1.694527e+02
7.100000e-07	-1.110980e-06	-2.477566e-09	-7.942174e+00	-1.630763e+02
7.200000e-07	-1.010722e-06	-2.378576e-09	-7.225448e+00	-1.565828e+02
7.300000e-07	-9.101802e-07	-2.276805e-09	-6.506697e+00	-1.499649e+02
7.400000e-07	-8.093887e-07	-2.172688e-09	-5.786159e+00	-1.432174e+02
7.500000e-07	-7.082748e-07	-2.066690e-09	-5.063316e+00	-1.363366e+02
7.600000e-07	-6.068770e-07	-1.960315e-09	-4.338443e+00	-1.293214e+02
7.700000e-07	-5.052575e-07	-1.851705e-09	-3.611985e+00	-1.221716e+02
7.800000e-07	-4.035198e-07	-1.740058e-09	-2.884683e+00	-1.148874e+02
7.900000e-07	-3.016568e-07	-1.626657e-09	-2.156484e+00	-1.074682e+02
8.000000e-07	-1.996484e-07	-1.509545e-09	-1.427247e+00	-9.991109e+01
8.100000e-07	-9.757224e-08	-1.392809e-09	-6.975245e-01	-9.221036e+01
8.200000e-07	4.535069e-09	-1.276686e-09	3.242031e-02	-8.435705e+01
8.300000e-07	1.066616e-07	-1.157292e-09	7.625028e-01	-7.633927e+01
8.400000e-07	2.087558e-07	-1.033333e-09	1.492354e+00	-6.814298e+01
8.500000e-07	3.107889e-07	-9.050729e-10	2.221768e+00	-5.975324e+01
8.600000e-07	4.127883e-07	-7.731220e-10	2.950941e+00	-5.115553e+01
8.700000e-07	5.146976e-07	-6.366810e-10	3.679471e+00	-4.233718e+01
8.800000e-07	6.164598e-07	-4.991687e-10	4.406948e+00	-3.328844e+01
8.900000e-07	7.180101e-07	-3.578473e-10	5.132911e+00	-2.400325e+01
9.000000e-07	8.192387e-07	-2.108698e-10	5.856575e+00	-1.447956e+01
9.100000e-07	9.201301e-07	-5.994927e-11	6.577827e+00	-4.719344e+00
9.200000e-07	1.020751e-06	9.283322e-11	7.297143e+00	5.271554e+00
9.300000e-07	1.121020e-06	2.471971e-10	8.013948e+00	1.548364e+01
9.400000e-07	1.220922e-06	4.059467e-10	8.728131e+00	2.590378e+01
9.500000e-07	1.320542e-06	5.692611e-10	9.440293e+00	3.651503e+01
9.600000e-07	1.419751e-06	7.351897e-10	1.014952e+01	4.729618e+01
9.700000e-07	1.518405e-06	9.027785e-10	1.085477e+01	5.822120e+01
9.800000e-07	1.616313e-06	1.073062e-09	1.155470e+01	6.925877e+01
9.900000e-07	1.713342e-06	1.243947e-09	1.224834e+01	8.037219e+01
1.000000e-06	1.809606e-06	1.415304e-09	1.293651e+01	9.151976e+01
1.010000e-06	1.905256e-06	1.586387e-09	1.362030e+01	1.026559e+02
1.020000e-06	2.000242e-06	1.756282e-09	1.429933e+01	1.137331e+02
1.030000e-06	2.094482e-06	1.923540e-09	1.497304e+01	1.247038e+02
1.040000e-06	2.187983e-06	2.087453e-09	1.564146e+01	1.355233e+02
1.050000e-06	2.280733e-06	2.249986e-09	1.630450e+01	1.461518e+02
1.060000e-06	2.372817e-06	2.410571e-09	1.696279e+01	1.565561e+02
1.070000e-06	2.464221e-06	2.566475e-09	1.761623e+01	1.667105e+02
1.080000e-06	2.554674e-06	2.716568e-09	1.826286e+01	1.765966e+02
1.090000e-06	2.643977e-06	2.863803e-09	1.890127e+01	1.862023e+02
1.100000e-06	2.732196e-06	3.008312e-09	1.953192e+01	1.955202e+02
1.110000e-06	2.819487e-06	3.146452e-09	2.015595e+01	2.045454e+02
1.120000e-06	2.905847e-06	3.277634e-09	2.077333e+01	2.132741e+02
1.130000e-06	2.991225e-06	3.405854e-09	2.138367e+01	2.217021e+02
1.140000e-06	3.075697e-06	3.530673e-09	2.198754e+01	2.298250e+02
1.150000e-06	3.159311e-06	3.647834e-09	2.258529e+01	2.376383e+02
1.160000e-06	3.241988e-06	3.758700e-09	2.317632e+01	2.451388e+02
1.170000e-06	3.323406e-06	3.865791e-09	2.375837e+01	2.523261e+02
1.180000e-06	3.403496e-06	3.968585e-09	2.433092e+01	2.592038e+02
1.190000e-06	3.482371e-06	4.068555e-09	2.489478e+01	2.657809e+02
1.200000e-06	3.560012e-06	4.165574e-09	2.544982e+01	2.720710e+02
1.210000e-06	3.636405e-06	4.258596e-09	2.599594e+01	2.780921e+02
1.220000e-06	3.711425e-06	4.347901e-09	2.653224e+01	2.838650e+02
1.230000e-06	3.784841e-06	4.433857e-09	2.705707e+01	2.894107e+02
1.240000e-06	3.856657e-06	4.515370e-09	2.757047e+01	2.947491e+02
1.250000e-06	3.927091e-06	4.592028e-09	2.807399e+01	2.998967e+02
1.260000e-06	3.996199e-06	4.666244e-09	2.856803e+01	3.048661e+02
1.270000e-06	4.064014e-06	4.739978e-09	2.905283e+01	3.096652e+02
1.280000e-06	4.130380e-06	4.812292e-09	2.952726e+01	3.142982e+02
1.290000e-06	4.195061e-06	4.879940e-09	2.998966e+01	3.187667e+02
1.300000e-06	4.258176e-06	4.943727e-09	3.044086e+01	3.230703e+02
1.310000e-06	4.319858e-06	5.006953e-09	3.088181e+01	3.272084e+02
1.320000e-06	4.380157e-06	5.069048e-09	3.131287e+01	3.311807e+02
1.330000e-06	4.439121e-06	5.127346e-09	3.173439e+01	3.349876e+02
1.340000e-06	4.496343e-06	5.181703e-09	3.214346e+01	3.386300e+02
1.350000e-06	4.551738e-06	5.233157e-09	3.253947e+01	3.421092e+02
1.360000e-06	4.605585e-06	5.282281e-09	3.292441e+01	3.454267e+02
1.370000e-06	4.657750e-06	5.327256e-09	3.329733e+01	3.485837e+02
1.380000e-06	4.707930e-06	5.368974e-09	3.365605e+01	3.515816e+02
1.390000e-06	4.756062e-06	5.410076e-09	3.400014e+01	3.544224e+02
1.400000e-06	4.802435e-06	5.450039e-09	3.433165e+01	3.571090e+02
1.410000e-06	4.847219e-06	5.486769e-09	3.465181e+01	3.596456e+02
1.420000e-06	4.890430e-06	5.520291e-09	3.496071e+01	3.620381e+02
1.430000e-06	4.931817e-06	5.551880e-09	3.525658e+01	3.642933e+02
1.440000e-06	4.971364e-06	5.582304e-09	3.553929e+01	3.664188e+02
1.450000e-06	5.009255e-06	5.610476e-09	3.581017e+01	3.684215e+02
1.460000e-06	5.045528e-06	5.636434e-09	3.606948e+01	3.703070e+02
1.470000e-06	5.080104e-06	5.661489e-09	3.631665e+01	3.720787e+02
1.480000e-06	5.112695e-06	5.685129e-09	3.654964e+01	3.737377e+02
1.490000e-06	5.143432e-06	5.707614e-09	3.676937e+01	3.752832e+02
1.500000e-06	5.172509e-06	5.728190e-09	3.697724e+01	3.767136e+02
1.510000e-06	5.199917e-06	5.746801e-09	3.717317e+01	3.780275e+02
1.520000e-06	5.225334e-06	5.763817e-09	3.735487e+01	3.792249e+02
1.530000e-06	5.248673e-06	5.779579e-09	3.752172e+01	3.803080e+02
1.540000e-06	5.270222e-06	5.794374e-09	3.767577e+01	3.812816e+02
1.550000e-06	5.290073e-06	5.807442e-09	3.781768e+01	3.821518e+02
1.560000e-06	5.308053e-06	5.819454e-09	3.794621e+01	3.829256e+02
1.570000e-06	5.323959e-06	5.830178e-09	3.805992e+01	3.836086e+02
1.580000e-06	5.337950e-06	5.839625e-09	3.815994e+01	3.842046e+02
1.590000e-06	5.350035e-06	5.847394e-09	3.824634e+01	3.847138e+02
1.600000e-06	5.359902e-06	5.852841e-09	3.831688e+01	3.851339e+02
1.610000e-06	5.367613e-06	5.857515e-09	3.837200e+01	3.854604e+02
1.620000e-06	5.373487e-06	5.862452e-09	3.841399e+01	3.856884e+02
1.630000e-06	5.377593e-06	5.867112e-09	3.844334e+01	3.858147e+02
1.640000e-06	5.379769e-06	5.869757e-09	3.845890e+01	3.858390e+02
1.650000e-06	5.379923e-06	5.870108e-09	3.846000e+01	3.857651e+02
1.660000e-06	5.378285e-06	5.866300e-09	3.844829e+01	3.856005e+02
1.670000e-06	5.375036e-06	5.860314e-09	3.842506e+01	3.853552e+02
1.680000e-06	5.370145e-06	5.857440e-09	3.839010e+01	3.850391e+02
1.690000e-06	5.363346e-06	5.853768e-09	3.834149e+01	3.846600e+02
1.700000e-06	5.354745e-06	5.848379e-09	3.828001e+01	3.842215e+02
1.710000e-06	5.344617e-06	5.843145e-09	3.820760e+01	3.837214e+02
1.720000e-06	5.332825e-06	5.839145e-09	3.812331e+01	3.831527e+02
1.730000e-06	5.319062e-06	5.842318e-09	3.802492e+01	3.825045e+02
1.740000e-06	5.303133e-06	5.786654e-09	3.791105e+01	3.817656e+02
1.750000e-06	5.284867e-06	5.742941e-09	3.778046e+01	3.809270e+02
1.760000e-06	5.263961e-06	5.748454e-09	3.763101e+01	3.799853e+02
1.770000e-06	5.240732e-06	5.742294e-09	3.746495e+01	3.789441e+02
1.780000e-06	5.216290e-06	5.821924e-09	3.729022e+01	3.778142e+02
1.790000e-06	5.191225e-06	5.781398e-09	3.711103e+01	3.766119e+02
1.800000e-06	5.164656e-06	5.636692e-09	3.692110e+01	3.753552e+02
1.810000e-06	5.135897e-06	5.720309e-09	3.671550e+01	3.740605e+02
1.820000e-06	5.105473e-06	5.674932e-09	3.649801e+01	3.727378e+02
1.830000e-06	5.073292e-06	5.597996e-09	3.626796e+01	3.713880e+02
1.840000e-06	5.039051e-06	5.715892e-09	3.602317e+01	3.700021e+02
1.850000e-06	5.003233e-06	5.611401e-09	3.576711e+01	3.685617e+02
1.860000e-06	4.965644e-06	5.549160e-09	3.549840e+01	3.670424e+02
1.870000e-06	4.926134e-06	5.603616e-09	3.521595e+01	3.654181e+02
1.880000e-06	4.884934e-06	5.496276e-09	3.492142e+01	3.636660e+02
1.890000e-06	4.841931e-06	5.529926e-09	3.461400e+01	3.617706e+02
1.900000e-06	4.797333e-06	5.502246e-09	3.429518e+01	3.597267e+02
1.910000e-06	4.750886e-06	5.410923e-09	3.396314e+01	3.575399e+02
1.920000e-06	4.702384e-06	5.463442e-09	3.361640e+01	3.552249e+02
1.930000e-06	4.652318e-06	5.344020e-09	3.325850e+01	3.528026e+02
1.940000e-06	4.600581e-06	5.327840e-09	3.288864e+01	3.502951e+02
1.950000e-06	4.546815e-06	5.336080e-09	3.250428e+01	3.477214e+02
1.960000e-06	4.491108e-06	5.227054e-09	3.210604e+01	3.450943e+02
1.970000e-06	4.433720e-06	5.221995e-09	3.169578e+01	3.424179e+02
1.980000e-06	4.374921e-06	5.173527e-09	3.127544e+01	3.396885e+02
1.990000e-06	4.314664e-06	5.162232e-09	3.084467e+01	3.368954e+02
2.000000e-06	4.252725e-06	5.097982e-09	3.040189e+01	3.340251e+02
2.010000e-06	4.189087e-06	5.005319e-09	2.994695e+01	3.310638e+02
2.020000e-06	4.123896e-06	5.008613e-09	2.948091e+01	3.280013e+02
2.030000e-06	4.057244e-06	4.930061e-09	2.900443e+01	3.248325e+02
2.040000e-06	3.989218e-06	4.912185e-09	2.851813e+01	3.215583e+02
2.050000e-06	3.919891e-06	4.870969e-09	2.802252e+01	3.181843e+02
2.060000e-06	3.849011e-06	4.801386e-09	2.751581e+01	3.147193e+02
2.070000e-06	3.776649e-06	4.753819e-09	2.699852e+01	3.111721e+02
2.080000e-06	3.703064e-06	4.654365e-09	2.647247e+01	3.075500e+02
2.090000e-06	3.628110e-06	4.630400e-09	2.593664e+01	3.038563e+02
2.100000e-06	3.551742e-06	4.575295e-09	2.539070e+01	3.000902e+02
2.110000e-06	3.473865e-06	4.515577e-09	2.483397e+01	2.962474e+02
2.120000e-06	3.394526e-06	4.461595e-09	2.426679e+01	2.923212e+02
2.130000e-06	3.313990e-06	4.386045e-09	2.369105e+01	2.883048e+02
2.140000e-06	3.232282e-06	4.334282e-09	2.310694e+01	2.841926e+02
2.150000e-06	3.149487e-06	4.261252e-09	2.251506e+01	2.799819e+02
2.160000e-06	3.065729e-06	4.200173e-09	2.191628e+01	2.756728e+02
2.170000e-06	2.980985e-06	4.127895e-09	2.131047e+01	2.712682e+02
2.180000e-06	2.894939e-06	4.067816e-09	2.069534e+01	2.667722e+02
2.190000e-06	2.807500e-06	4.008916e-09	2.007026e+01	2.621888e+02
2.200000e-06	2.719088e-06	3.938301e-09	1.943822e+01	2.575202e+02
2.210000e-06	2.629909e-06	3.865238e-09	1.880069e+01	2.527662e+02
2.220000e-06	2.539819e-06	3.775203e-09	1.815666e+01	2.479235e+02
2.230000e-06	2.448839e-06	3.697359e-09	1.750626e+01	2.429863e+02
2.240000e-06	2.357094e-06	3.618776e-09	1.685039e+01	2.379477e+02
2.250000e-06	2.264627e-06	3.553611e-09	1.618936e+01	2.328010e+02
2.260000e-06	2.171494e-06	3.485587e-09	1.552358e+01	2.275413e+02
2.270000e-06	2.077414e-06	3.399229e-09	1.485102e+01	2.221661e+02
2.280000e-06	1.982192e-06	3.306124e-09	1.417030e+01	2.166763e+02
2.290000e-06	1.886118e-06	3.215609e-09	1.348348e+01	2.110752e+02
2.300000e-06	1.789538e-06	3.133441e-09	1.279305e+01	2.053683e+02
2.310000e-06	1.692550e-06	3.051055e-09	1.209970e+01	1.995611e+02
2.320000e-06	1.594974e-06	2.962555e-09	1.140215e+01	1.936584e+02
2.330000e-06	1.496808e-06	2.865737e-09	1.070038e+01	1.876625e+02
2.340000e-06	1.398135e-06	2.772990e-09	9.994986e+00	1.815729e+02
2.350000e-06	1.298990e-06	2.678535e-09	9.286223e+00	1.753860e+02
2.360000e-06	1.199487e-06	2.583700e-09	8.574892e+00	1.690956e+02
2.370000e-06	1.099716e-06	2.487056e-09	7.861652e+00	1.626943e+02
2.380000e-06	9.996851e-07	2.384639e-09	7.146550e+00	1.561743e+02
2.390000e-06	8.993271e-07	2.284724e-09	6.429111e+00	1.495286e+02
2.400000e-06	7.986995e-07	2.184835e-09	5.709744e+00	1.427523e+02
2.410000e-06	6.978173e-07	2.082065e-09	4.988557e+00	1.358424e+02
2.420000e-06	5.967240e-07	1.972925e-09	4.265861e+00	1.287978e+02
2.430000e-06	4.954426e-07	1.856916e-09	3.541820e+00	1.216188e+02
2.440000e-06	3.939361e-07	1.743672e-09	2.816171e+00	1.143054e+02
2.450000e-06	2.922212e-07	1.635558e-09	2.089031e+00	1.068565e+02
2.460000e-06	1.903895e-07	1.523709e-09	1.361056e+00	9.926880e+01
2.470000e-06	8.841964e-08	1.405912e-09	6.320944e-01	9.153581e+01
2.480000e-06	-1.369295e-08	1.281151e-09	-9.788817e-02	8.364791e+01
2.490000e-06	-1.157531e-07	1.152251e-09	-8.274958e-01	7.559268e+01
2.500000e-06	-2.177650e-07	1.025103e-09	-1.556759e+00	6.735578e+01
2.510000e-06	-3.197463e-07	8.998096e-10	-2.285803e+00	5.892222e+01
2.520000e-06	-4.215856e-07	7.724101e-10	-3.013832e+00	5.027778e+01
2.530000e-06	-5.231991e-07	6.379913e-10	-3.740246e+00	4.141034e+01
2.540000e-06	-6.245768e-07	4.981977e-10	-4.464975e+00	3.231089e+01
2.550000e-06	-7.257220e-07	3.568540e-10	-5.188042e+00	2.297419e+01
2.560000e-06	-8.265972e-07	2.129293e-10	-5.909179e+00	1.339908e+01
2.570000e-06	-9.271903e-07	6.205339e-11	-6.628299e+00	3.588390e+00
2.580000e-06	-1.027461e-06	-9.313379e-11	-7.345114e+00	-6.451255e+00
2.590000e-06	-1.127382e-06	-2.490230e-10	-8.059432e+00	-1.670958e+01
2.600000e-06	-1.226894e-06	-4.055884e-10	-8.770819e+00	-2.717267e+01
2.610000e-06	-1.325976e-06	-5.633541e-10	-9.479137e+00	-3.782270e+01
2.620000e-06	-1.424673e-06	-7.250279e-10	-1.018470e+01	-4.863747e+01
2.630000e-06	-1.522857e-06	-8.909442e-10	-1.088660e+01	-5.958985e+01
2.640000e-06	-1.620455e-06	-1.060478e-09	-1.158431e+01	-7.064738e+01
2.650000e-06	-1.717489e-06	-1.232205e-09	-1.227799e+01	-8.177221e+01
2.660000e-06	-1.814010e-06	-1.401587e-09	-1.296800e+01	-9.292170e+01
2.670000e-06	-1.910082e-06	-1.569663e-09	-1.365479e+01	-1.040497e+02
2.680000e-06	-2.005545e-06	-1.737539e-09	-1.433724e+01	-1.151084e+02
2.690000e-06	-2.100119e-06	-1.903563e-09	-1.501333e+01	-1.260508e+02
2.700000e-06	-2.193618e-06	-2.067705e-09	-1.568174e+01	-1.368330e+02
2.710000e-06	-2.286164e-06	-2.229525e-09	-1.634333e+01	-1.474164e+02
2.720000e-06	-2.377927e-06	-2.386951e-09	-1.699933e+01	-1.577694e+02
2.730000e-06	-2.468917e-06	-2.538487e-09	-1.764980e+01	-1.678681e+02
2.740000e-06	-2.559073e-06	-2.687034e-09	-1.829431e+01	-1.776954e+02
2.750000e-06	-2.648277e-06	-2.834376e-09	-1.893201e+01	-1.872404e+02
2.760000e-06	-2.736660e-06	-2.977784e-09	-1.956384e+01	-1.964963e+02
2.770000e-06	-2.824250e-06	-3.113668e-09	-2.019000e+01	-2.054587e+02
2.780000e-06	-2.910742e-06	-3.244593e-09	-2.080832e+01	-2.141238e+02
2.790000e-06	-2.995956e-06	-3.371940e-09	-2.141749e+01	-2.224872e+02
2.800000e-06	-3.080055e-06	-3.495963e-09	-2.201870e+01	-2.305446e+02
2.810000e-06	-3.163192e-06	-3.616994e-09	-2.261303e+01	-2.382914e+02
2.820000e-06	-3.245311e-06	-3.733106e-09	-2.320008e+01	-2.457251e+02
2.830000e-06	-3.326380e-06	-3.844299e-09	-2.377963e+01	-2.528460e+02
2.840000e-06	-3.406409e-06	-3.949340e-09	-2.435174e+01	-2.596589e+02
2.850000e-06	-3.485158e-06	-4.048962e-09	-2.491470e+01	-2.661735e+02
2.860000e-06	-3.562300e-06	-4.145087e-09	-2.546617e+01	-2.724048e+02
2.870000e-06	-3.637927e-06	-4.236129e-09	-2.600682e+01	-2.783714e+02
2.880000e-06	-3.712210e-06	-4.321928e-09	-2.653785e+01	-2.840942e+02
2.890000e-06	-3.785210e-06	-4.404534e-09	-2.705971e+01	-2.895944e+02
2.900000e-06	-3.856965e-06	-4.485869e-09	-2.757267e+01	-2.948911e+02
2.910000e-06	-3.927207e-06	-4.564847e-09	-2.807482e+01	-3.000000e+02
2.920000e-06	-3.995872e-06	-4.640194e-09	-2.856569e+01	-3.049328e+02
2.930000e-06	-4.063132e-06	-4.713548e-09	-2.904652e+01	-3.096965e+02
2.940000e-06	-4.128993e-06	-4.784785e-09	-2.951735e+01	-3.142947e+02
