# Temperatura_=_29.71
# Concentracion g/m^3_=_15000.0
# C_Vs_to_Am_M_A/Vsm_=_65563218390.804596
# pendiente_HvsI_1/m_=_3716.3
# ordenada_HvsI_A/m_=_1297.0
# frecuencia_Hz_=_301572.37016047304

Tiempo_(s)	Campo_(V.s)	Magnetizacion_(V.s)	Campo_(kA/m)	Magnetizacion_(A/m)
0.000000e+00	-5.376001e-06	-4.625084e-09	-3.834559e+01	-3.014914e+02
1.000000e-08	-5.373548e-06	-4.623483e-09	-3.832810e+01	-3.013675e+02
2.000000e-08	-5.369369e-06	-4.618956e-09	-3.829829e+01	-3.011936e+02
3.000000e-08	-5.363600e-06	-4.613883e-09	-3.825714e+01	-3.009710e+02
4.000000e-08	-5.356184e-06	-4.609147e-09	-3.820424e+01	-3.006987e+02
5.000000e-08	-5.346927e-06	-4.602954e-09	-3.813821e+01	-3.003734e+02
6.000000e-08	-5.335655e-06	-4.596144e-09	-3.805781e+01	-2.999908e+02
7.000000e-08	-5.322515e-06	-4.587306e-09	-3.796409e+01	-2.995473e+02
8.000000e-08	-5.307350e-06	-4.583496e-09	-3.785592e+01	-2.990410e+02
9.000000e-08	-5.289929e-06	-4.604183e-09	-3.773166e+01	-2.984722e+02
1.000000e-07	-5.270413e-06	-4.601282e-09	-3.759246e+01	-2.978438e+02
1.100000e-07	-5.248959e-06	-4.566114e-09	-3.743943e+01	-2.971603e+02
1.200000e-07	-5.225808e-06	-4.538550e-09	-3.727431e+01	-2.964273e+02
1.300000e-07	-5.201121e-06	-4.484054e-09	-3.709822e+01	-2.956496e+02
1.400000e-07	-5.174723e-06	-4.480443e-09	-3.690993e+01	-2.948301e+02
1.500000e-07	-5.146718e-06	-4.533344e-09	-3.671018e+01	-2.939696e+02
1.600000e-07	-5.117332e-06	-4.486211e-09	-3.650058e+01	-2.930658e+02
1.700000e-07	-5.086355e-06	-4.480724e-09	-3.627962e+01	-2.921142e+02
1.800000e-07	-5.053355e-06	-4.490885e-09	-3.604424e+01	-2.911086e+02
1.900000e-07	-5.018449e-06	-4.392308e-09	-3.579527e+01	-2.900422e+02
2.000000e-07	-4.982047e-06	-4.386111e-09	-3.553562e+01	-2.889089e+02
2.100000e-07	-4.944001e-06	-4.412406e-09	-3.526425e+01	-2.877038e+02
2.200000e-07	-4.904084e-06	-4.381075e-09	-3.497953e+01	-2.864240e+02
2.300000e-07	-4.862169e-06	-4.377513e-09	-3.468057e+01	-2.850685e+02
2.400000e-07	-4.818335e-06	-4.347279e-09	-3.436791e+01	-2.836378e+02
2.500000e-07	-4.772777e-06	-4.299985e-09	-3.404296e+01	-2.821341e+02
2.600000e-07	-4.725334e-06	-4.269861e-09	-3.370456e+01	-2.805599e+02
2.700000e-07	-4.675789e-06	-4.254236e-09	-3.335117e+01	-2.789182e+02
2.800000e-07	-4.624172e-06	-4.266103e-09	-3.298299e+01	-2.772118e+02
2.900000e-07	-4.570699e-06	-4.216460e-09	-3.260159e+01	-2.754431e+02
3.000000e-07	-4.515635e-06	-4.163119e-09	-3.220883e+01	-2.736141e+02
3.100000e-07	-4.458913e-06	-4.162379e-09	-3.180424e+01	-2.717260e+02
3.200000e-07	-4.400342e-06	-4.135308e-09	-3.138647e+01	-2.697794e+02
3.300000e-07	-4.340185e-06	-4.092698e-09	-3.095739e+01	-2.677745e+02
3.400000e-07	-4.278643e-06	-4.052158e-09	-3.051843e+01	-2.657103e+02
3.500000e-07	-4.215668e-06	-4.016949e-09	-3.006924e+01	-2.635854e+02
3.600000e-07	-4.151177e-06	-3.985147e-09	-2.960925e+01	-2.613980e+02
3.700000e-07	-4.085030e-06	-3.966146e-09	-2.913744e+01	-2.591461e+02
3.800000e-07	-4.017327e-06	-3.945241e-09	-2.865453e+01	-2.568282e+02
3.900000e-07	-3.948225e-06	-3.889220e-09	-2.816164e+01	-2.544434e+02
4.000000e-07	-3.877864e-06	-3.830443e-09	-2.765978e+01	-2.519920e+02
4.100000e-07	-3.806351e-06	-3.787510e-09	-2.714969e+01	-2.494752e+02
4.200000e-07	-3.733446e-06	-3.762782e-09	-2.662968e+01	-2.468954e+02
4.300000e-07	-3.658909e-06	-3.736832e-09	-2.609803e+01	-2.442552e+02
4.400000e-07	-3.582807e-06	-3.694581e-09	-2.555521e+01	-2.415570e+02
4.500000e-07	-3.505292e-06	-3.645999e-09	-2.500232e+01	-2.388022e+02
4.600000e-07	-3.426431e-06	-3.587826e-09	-2.443983e+01	-2.359902e+02
4.700000e-07	-3.346250e-06	-3.538764e-09	-2.386791e+01	-2.331186e+02
4.800000e-07	-3.264822e-06	-3.509161e-09	-2.328711e+01	-2.301833e+02
4.900000e-07	-3.182247e-06	-3.472662e-09	-2.269813e+01	-2.271787e+02
5.000000e-07	-3.098675e-06	-3.417993e-09	-2.210203e+01	-2.240989e+02
5.100000e-07	-3.014194e-06	-3.358248e-09	-2.149945e+01	-2.209387e+02
5.200000e-07	-2.928749e-06	-3.304937e-09	-2.088999e+01	-2.176943e+02
5.300000e-07	-2.842294e-06	-3.252726e-09	-2.027333e+01	-2.143640e+02
5.400000e-07	-2.754924e-06	-3.202524e-09	-1.965014e+01	-2.109479e+02
5.500000e-07	-2.666581e-06	-3.150424e-09	-1.902001e+01	-2.074478e+02
5.600000e-07	-2.577014e-06	-3.087711e-09	-1.838116e+01	-2.038663e+02
5.700000e-07	-2.486303e-06	-3.028888e-09	-1.773414e+01	-2.002055e+02
5.800000e-07	-2.394723e-06	-2.981053e-09	-1.708093e+01	-1.964664e+02
5.900000e-07	-2.302405e-06	-2.929841e-09	-1.642245e+01	-1.926483e+02
6.000000e-07	-2.209281e-06	-2.861960e-09	-1.575821e+01	-1.887487e+02
6.100000e-07	-2.115326e-06	-2.788874e-09	-1.508806e+01	-1.847638e+02
6.200000e-07	-2.020691e-06	-2.724383e-09	-1.441306e+01	-1.806896e+02
6.300000e-07	-1.925470e-06	-2.664816e-09	-1.373387e+01	-1.765226e+02
6.400000e-07	-1.829568e-06	-2.605239e-09	-1.304982e+01	-1.722606e+02
6.500000e-07	-1.732838e-06	-2.541821e-09	-1.235988e+01	-1.679037e+02
6.600000e-07	-1.635296e-06	-2.470461e-09	-1.166413e+01	-1.634538e+02
6.700000e-07	-1.537049e-06	-2.391440e-09	-1.096336e+01	-1.589142e+02
6.800000e-07	-1.438219e-06	-2.316632e-09	-1.025844e+01	-1.542884e+02
6.900000e-07	-1.338934e-06	-2.250857e-09	-9.550261e+00	-1.495793e+02
7.000000e-07	-1.239299e-06	-2.182121e-09	-8.839595e+00	-1.447878e+02
7.100000e-07	-1.139320e-06	-2.103809e-09	-8.126466e+00	-1.399123e+02
7.200000e-07	-1.038965e-06	-2.022016e-09	-7.410661e+00	-1.349483e+02
7.300000e-07	-9.383051e-07	-1.942396e-09	-6.692682e+00	-1.298891e+02
7.400000e-07	-8.373687e-07	-1.864152e-09	-5.972729e+00	-1.247265e+02
7.500000e-07	-7.361089e-07	-1.785741e-09	-5.250470e+00	-1.194519e+02
7.600000e-07	-6.344968e-07	-1.704188e-09	-4.525698e+00	-1.140576e+02
7.700000e-07	-5.326620e-07	-1.616437e-09	-3.799337e+00	-1.085376e+02
7.800000e-07	-4.307094e-07	-1.525577e-09	-3.072136e+00	-1.028879e+02
7.900000e-07	-3.286354e-07	-1.437723e-09	-2.344069e+00	-9.710675e+01
8.000000e-07	-2.264894e-07	-1.350762e-09	-1.615489e+00	-9.119395e+01
8.100000e-07	-1.242989e-07	-1.259608e-09	-8.865909e-01	-8.515024e+01
8.200000e-07	-2.201767e-08	-1.164103e-09	-1.570462e-01	-7.897645e+01
8.300000e-07	8.034456e-08	-1.066858e-09	5.730765e-01	-7.267273e+01
8.400000e-07	1.827001e-07	-9.701357e-10	1.303152e+00	-6.623801e+01
8.500000e-07	2.849498e-07	-8.726081e-10	2.032471e+00	-5.966975e+01
8.600000e-07	3.870932e-07	-7.722854e-10	2.761033e+00	-5.296387e+01
8.700000e-07	4.891897e-07	-6.662045e-10	3.489260e+00	-4.611490e+01
8.800000e-07	5.911855e-07	-5.565858e-10	4.216769e+00	-3.911626e+01
8.900000e-07	6.929926e-07	-4.486237e-10	4.942933e+00	-3.196056e+01
9.000000e-07	7.945643e-07	-3.422200e-10	5.667417e+00	-2.464005e+01
9.100000e-07	8.958244e-07	-2.330340e-10	6.389678e+00	-1.714710e+01
9.200000e-07	9.967245e-07	-1.182013e-10	7.109372e+00	-9.474901e+00
9.300000e-07	1.097236e-06	2.000389e-12	7.826293e+00	-1.618364e+00
9.400000e-07	1.197407e-06	1.256516e-10	8.540788e+00	6.424783e+00
9.500000e-07	1.297256e-06	2.498285e-10	9.252980e+00	1.465279e+01
9.600000e-07	1.396723e-06	3.746535e-10	9.962459e+00	2.305872e+01
9.700000e-07	1.495753e-06	5.021116e-10	1.066881e+01	3.162952e+01
9.800000e-07	1.594124e-06	6.341921e-10	1.137046e+01	4.034558e+01
9.900000e-07	1.691616e-06	7.699735e-10	1.206585e+01	4.918080e+01
1.000000e-06	1.788317e-06	9.073264e-10	1.275559e+01	5.810340e+01
1.010000e-06	1.884363e-06	1.043964e-09	1.344066e+01	6.707721e+01
1.020000e-06	1.979674e-06	1.180053e-09	1.412049e+01	7.606345e+01
1.030000e-06	2.074234e-06	1.318692e-09	1.479496e+01	8.502256e+01
1.040000e-06	2.168092e-06	1.457210e-09	1.546442e+01	9.391596e+01
1.050000e-06	2.261240e-06	1.590906e-09	1.612883e+01	1.027074e+02
1.060000e-06	2.353643e-06	1.719261e-09	1.678792e+01	1.113641e+02
1.070000e-06	2.445361e-06	1.844636e-09	1.744212e+01	1.198567e+02
1.080000e-06	2.536389e-06	1.969081e-09	1.809140e+01	1.281597e+02
1.090000e-06	2.626367e-06	2.092511e-09	1.873318e+01	1.362511e+02
1.100000e-06	2.715091e-06	2.215119e-09	1.936603e+01	1.441125e+02
1.110000e-06	2.802794e-06	2.333352e-09	1.999159e+01	1.517284e+02
1.120000e-06	2.889603e-06	2.444203e-09	2.061077e+01	1.590868e+02
1.130000e-06	2.975492e-06	2.550362e-09	2.122340e+01	1.661797e+02
1.140000e-06	3.060389e-06	2.656941e-09	2.182895e+01	1.730027e+02
1.150000e-06	3.144325e-06	2.760830e-09	2.242764e+01	1.795558e+02
1.160000e-06	3.227352e-06	2.857240e-09	2.301985e+01	1.858434e+02
1.170000e-06	3.309163e-06	2.947689e-09	2.360338e+01	1.918732e+02
1.180000e-06	3.389696e-06	3.034287e-09	2.417781e+01	1.976561e+02
1.190000e-06	3.469050e-06	3.118379e-09	2.474381e+01	2.032049e+02
1.200000e-06	3.547113e-06	3.200156e-09	2.530062e+01	2.085329e+02
1.210000e-06	3.623921e-06	3.280314e-09	2.584847e+01	2.136531e+02
1.220000e-06	3.699488e-06	3.357297e-09	2.638747e+01	2.185775e+02
1.230000e-06	3.773533e-06	3.430791e-09	2.691562e+01	2.233163e+02
1.240000e-06	3.845969e-06	3.500267e-09	2.743228e+01	2.278783e+02
1.250000e-06	3.916958e-06	3.565816e-09	2.793862e+01	2.322708e+02
1.260000e-06	3.986546e-06	3.629964e-09	2.843498e+01	2.364999e+02
1.270000e-06	4.054845e-06	3.694141e-09	2.892214e+01	2.405708e+02
1.280000e-06	4.121818e-06	3.754434e-09	2.939983e+01	2.444877e+02
1.290000e-06	4.187202e-06	3.810023e-09	2.986621e+01	2.482540e+02
1.300000e-06	4.250885e-06	3.862399e-09	3.032044e+01	2.518713e+02
1.310000e-06	4.313020e-06	3.913155e-09	3.076363e+01	2.553400e+02
1.320000e-06	4.373821e-06	3.961457e-09	3.119730e+01	2.586587e+02
1.330000e-06	4.433296e-06	4.005315e-09	3.162153e+01	2.618247e+02
1.340000e-06	4.491066e-06	4.047363e-09	3.203359e+01	2.648351e+02
1.350000e-06	4.546994e-06	4.089838e-09	3.243251e+01	2.676873e+02
1.360000e-06	4.601299e-06	4.133445e-09	3.281985e+01	2.703804e+02
1.370000e-06	4.653976e-06	4.173215e-09	3.319558e+01	2.729164e+02
1.380000e-06	4.704704e-06	4.206378e-09	3.355741e+01	2.753003e+02
1.390000e-06	4.753392e-06	4.235532e-09	3.390469e+01	2.775403e+02
1.400000e-06	4.800311e-06	4.262456e-09	3.423935e+01	2.796471e+02
1.410000e-06	4.845585e-06	4.289571e-09	3.456228e+01	2.816322e+02
1.420000e-06	4.889354e-06	4.317364e-09	3.487447e+01	2.835069e+02
1.430000e-06	4.931406e-06	4.344008e-09	3.517441e+01	2.852802e+02
1.440000e-06	4.971515e-06	4.369309e-09	3.546050e+01	2.869581e+02
1.450000e-06	5.009883e-06	4.392326e-09	3.573417e+01	2.885435e+02
1.460000e-06	5.046694e-06	4.413569e-09	3.599673e+01	2.900358e+02
1.470000e-06	5.081876e-06	4.434228e-09	3.624768e+01	2.914329e+02
1.480000e-06	5.115164e-06	4.453531e-09	3.648511e+01	2.927322e+02
1.490000e-06	5.146501e-06	4.470411e-09	3.670863e+01	2.939323e+02
1.500000e-06	5.176074e-06	4.484567e-09	3.691957e+01	2.950341e+02
1.510000e-06	5.203985e-06	4.498305e-09	3.711865e+01	2.960411e+02
1.520000e-06	5.230028e-06	4.512274e-09	3.730440e+01	2.969595e+02
1.530000e-06	5.254012e-06	4.525115e-09	3.747547e+01	2.977968e+02
1.540000e-06	5.276071e-06	4.536681e-09	3.763282e+01	2.985605e+02
1.550000e-06	5.296418e-06	4.547463e-09	3.777794e+01	2.992565e+02
1.560000e-06	5.314966e-06	4.558536e-09	3.791024e+01	2.998882e+02
1.570000e-06	5.331503e-06	4.569342e-09	3.802820e+01	3.004556e+02
1.580000e-06	5.346067e-06	4.578906e-09	3.813208e+01	3.009564e+02
1.590000e-06	5.358721e-06	4.585770e-09	3.822234e+01	3.013860e+02
1.600000e-06	5.369234e-06	4.590252e-09	3.829733e+01	3.017399e+02
1.610000e-06	5.377543e-06	4.592257e-09	3.835659e+01	3.020147e+02
1.620000e-06	5.383918e-06	4.594109e-09	3.840206e+01	3.022096e+02
1.630000e-06	5.388517e-06	4.598049e-09	3.843487e+01	3.023266e+02
1.640000e-06	5.391271e-06	4.601553e-09	3.845451e+01	3.023705e+02
1.650000e-06	5.392041e-06	4.604125e-09	3.846000e+01	3.023481e+02
1.660000e-06	5.390864e-06	4.604025e-09	3.845161e+01	3.022663e+02
1.670000e-06	5.387973e-06	4.601587e-09	3.843098e+01	3.021313e+02
1.680000e-06	5.383454e-06	4.599712e-09	3.839875e+01	3.019466e+02
1.690000e-06	5.377116e-06	4.596672e-09	3.835354e+01	3.017134e+02
1.700000e-06	5.368925e-06	4.591727e-09	3.829512e+01	3.014298e+02
1.710000e-06	5.359102e-06	4.587623e-09	3.822505e+01	3.010924e+02
1.720000e-06	5.347673e-06	4.586499e-09	3.814354e+01	3.006968e+02
1.730000e-06	5.334418e-06	4.586147e-09	3.804899e+01	3.002397e+02
1.740000e-06	5.319072e-06	4.543280e-09	3.793953e+01	2.997197e+02
1.750000e-06	5.301333e-06	4.518769e-09	3.781301e+01	2.991376e+02
1.760000e-06	5.280975e-06	4.531472e-09	3.766780e+01	2.984967e+02
1.770000e-06	5.258295e-06	4.537528e-09	3.750602e+01	2.978020e+02
1.780000e-06	5.234170e-06	4.584934e-09	3.733395e+01	2.970588e+02
1.790000e-06	5.209237e-06	4.543747e-09	3.715611e+01	2.962717e+02
1.800000e-06	5.183064e-06	4.471146e-09	3.696942e+01	2.954433e+02
1.810000e-06	5.154868e-06	4.514580e-09	3.676831e+01	2.945736e+02
1.820000e-06	5.124804e-06	4.458766e-09	3.655387e+01	2.936598e+02
1.830000e-06	5.093008e-06	4.424726e-09	3.632708e+01	2.926969e+02
1.840000e-06	5.059186e-06	4.492699e-09	3.608584e+01	2.916787e+02
1.850000e-06	5.023637e-06	4.423809e-09	3.583227e+01	2.905982e+02
1.860000e-06	4.986390e-06	4.396930e-09	3.556660e+01	2.894497e+02
1.870000e-06	4.947274e-06	4.394065e-09	3.528759e+01	2.882286e+02
1.880000e-06	4.906470e-06	4.303567e-09	3.499655e+01	2.869323e+02
1.890000e-06	4.863862e-06	4.328762e-09	3.469264e+01	2.855603e+02
1.900000e-06	4.819578e-06	4.326081e-09	3.437678e+01	2.841136e+02
1.910000e-06	4.773572e-06	4.305000e-09	3.404862e+01	2.825943e+02
1.920000e-06	4.725513e-06	4.297136e-09	3.370584e+01	2.810052e+02
1.930000e-06	4.675731e-06	4.182609e-09	3.335075e+01	2.793492e+02
1.940000e-06	4.624370e-06	4.204843e-09	3.298441e+01	2.776291e+02
1.950000e-06	4.571094e-06	4.210192e-09	3.260441e+01	2.758471e+02
1.960000e-06	4.515788e-06	4.132445e-09	3.220992e+01	2.740051e+02
1.970000e-06	4.458652e-06	4.138404e-09	3.180239e+01	2.721042e+02
1.980000e-06	4.400026e-06	4.091372e-09	3.138422e+01	2.701450e+02
1.990000e-06	4.340007e-06	4.068608e-09	3.095612e+01	2.681272e+02
2.000000e-06	4.278403e-06	4.042135e-09	3.051671e+01	2.660499e+02
2.010000e-06	4.215080e-06	3.997113e-09	3.006505e+01	2.639116e+02
2.020000e-06	4.150167e-06	3.975434e-09	2.960204e+01	2.617103e+02
2.030000e-06	4.083814e-06	3.904302e-09	2.912876e+01	2.594442e+02
2.040000e-06	4.016121e-06	3.892213e-09	2.864593e+01	2.571118e+02
2.050000e-06	3.947061e-06	3.878206e-09	2.815334e+01	2.547125e+02
2.060000e-06	3.876406e-06	3.844216e-09	2.764938e+01	2.522466e+02
2.070000e-06	3.804274e-06	3.805822e-09	2.713488e+01	2.497159e+02
2.080000e-06	3.730847e-06	3.738301e-09	2.661115e+01	2.471227e+02
2.090000e-06	3.656053e-06	3.701781e-09	2.607766e+01	2.444697e+02
2.100000e-06	3.579862e-06	3.656901e-09	2.553421e+01	2.417592e+02
2.110000e-06	3.502115e-06	3.638509e-09	2.497966e+01	2.389919e+02
2.120000e-06	3.422881e-06	3.605765e-09	2.441450e+01	2.361672e+02
2.130000e-06	3.342472e-06	3.541952e-09	2.384097e+01	2.332822e+02
2.140000e-06	3.260931e-06	3.490884e-09	2.325936e+01	2.303323e+02
2.150000e-06	3.178270e-06	3.439570e-09	2.266976e+01	2.273119e+02
2.160000e-06	3.094625e-06	3.407240e-09	2.207314e+01	2.242151e+02
2.170000e-06	3.010039e-06	3.368768e-09	2.146981e+01	2.210369e+02
2.180000e-06	2.924200e-06	3.327632e-09	2.085755e+01	2.177739e+02
2.190000e-06	2.836990e-06	3.266313e-09	2.023550e+01	2.144249e+02
2.200000e-06	2.748727e-06	3.202353e-09	1.960594e+01	2.109904e+02
2.210000e-06	2.659595e-06	3.159610e-09	1.897019e+01	2.074725e+02
2.220000e-06	2.569502e-06	3.110151e-09	1.832758e+01	2.038736e+02
2.230000e-06	2.478494e-06	3.051035e-09	1.767844e+01	2.001958e+02
2.240000e-06	2.386818e-06	2.986736e-09	1.702454e+01	1.964397e+02
2.250000e-06	2.294455e-06	2.934073e-09	1.636574e+01	1.926041e+02
2.260000e-06	2.201310e-06	2.879994e-09	1.570136e+01	1.886864e+02
2.270000e-06	2.107177e-06	2.822124e-09	1.502993e+01	1.846825e+02
2.280000e-06	2.011915e-06	2.762801e-09	1.435046e+01	1.805885e+02
2.290000e-06	1.915824e-06	2.695157e-09	1.366506e+01	1.764010e+02
2.300000e-06	1.819124e-06	2.621278e-09	1.297533e+01	1.721184e+02
2.310000e-06	1.721919e-06	2.554710e-09	1.228199e+01	1.677411e+02
2.320000e-06	1.624249e-06	2.501090e-09	1.158534e+01	1.632715e+02
2.330000e-06	1.526032e-06	2.438590e-09	1.088478e+01	1.587128e+02
2.340000e-06	1.427269e-06	2.362076e-09	1.018033e+01	1.540688e+02
2.350000e-06	1.328031e-06	2.282820e-09	9.472490e+00	1.493419e+02
2.360000e-06	1.228437e-06	2.211498e-09	8.762113e+00	1.445324e+02
2.370000e-06	1.128580e-06	2.144072e-09	8.049863e+00	1.396382e+02
2.380000e-06	1.028519e-06	2.074007e-09	7.336156e+00	1.346542e+02
2.390000e-06	9.281881e-07	1.998931e-09	6.620520e+00	1.295734e+02
2.400000e-06	8.274608e-07	1.914357e-09	5.902059e+00	1.243872e+02
2.410000e-06	7.263551e-07	1.825041e-09	5.180899e+00	1.190874e+02
2.420000e-06	6.250516e-07	1.741451e-09	4.458328e+00	1.136664e+02
2.430000e-06	5.235450e-07	1.665265e-09	3.734308e+00	1.081186e+02
2.440000e-06	4.217665e-07	1.586400e-09	3.008349e+00	1.024406e+02
2.450000e-06	3.197394e-07	1.499556e-09	2.280617e+00	9.663101e+01
2.460000e-06	2.175529e-07	1.406302e-09	1.551747e+00	9.068986e+01
2.470000e-06	1.152758e-07	1.311601e-09	8.222317e-01	8.461801e+01
2.480000e-06	1.290261e-08	1.216145e-09	9.203091e-02	7.841619e+01
2.490000e-06	-8.953385e-08	1.117774e-09	-6.386213e-01	7.208432e+01
2.500000e-06	-1.920071e-07	1.016297e-09	-1.369536e+00	6.562104e+01
2.510000e-06	-2.943711e-07	9.139981e-10	-2.099671e+00	5.902347e+01
2.520000e-06	-3.965483e-07	8.135316e-10	-2.828474e+00	5.228722e+01
2.530000e-06	-4.985507e-07	7.125625e-10	-3.556030e+00	4.540655e+01
2.540000e-06	-6.003328e-07	6.081098e-10	-4.282015e+00	3.837468e+01
2.550000e-06	-7.018757e-07	4.971497e-10	-5.006294e+00	3.118411e+01
2.560000e-06	-8.030698e-07	3.784521e-10	-5.728084e+00	2.382706e+01
2.570000e-06	-9.038671e-07	2.565719e-10	-6.447045e+00	1.629602e+01
2.580000e-06	-1.004367e-06	1.383656e-10	-7.163886e+00	8.584454e+00
2.590000e-06	-1.104559e-06	2.078640e-11	-7.878530e+00	6.877884e-01
2.600000e-06	-1.204393e-06	-1.025629e-10	-8.590619e+00	-7.395492e+00
2.610000e-06	-1.303818e-06	-2.320627e-10	-9.299791e+00	-1.566262e+01
2.620000e-06	-1.402793e-06	-3.658393e-10	-1.000575e+01	-2.410541e+01
2.630000e-06	-1.501270e-06	-4.987727e-10	-1.070817e+01	-3.270943e+01
2.640000e-06	-1.599161e-06	-6.285564e-10	-1.140639e+01	-4.145365e+01
2.650000e-06	-1.696431e-06	-7.596615e-10	-1.210019e+01	-5.031065e+01
2.660000e-06	-1.793178e-06	-8.966389e-10	-1.279026e+01	-5.924760e+01
2.670000e-06	-1.889475e-06	-1.037688e-09	-1.347712e+01	-6.822761e+01
2.680000e-06	-1.985246e-06	-1.176748e-09	-1.416024e+01	-7.721157e+01
2.690000e-06	-2.080190e-06	-1.311091e-09	-1.483745e+01	-8.615999e+01
2.700000e-06	-2.174087e-06	-1.442656e-09	-1.550719e+01	-9.503472e+01
2.710000e-06	-2.267061e-06	-1.576327e-09	-1.617034e+01	-1.038002e+02
2.720000e-06	-2.359244e-06	-1.711689e-09	-1.682786e+01	-1.124242e+02
2.730000e-06	-2.450583e-06	-1.844458e-09	-1.747936e+01	-1.208784e+02
2.740000e-06	-2.541019e-06	-1.971653e-09	-1.812442e+01	-1.291380e+02
2.750000e-06	-2.630555e-06	-2.094112e-09	-1.876305e+01	-1.371818e+02
2.760000e-06	-2.719288e-06	-2.213829e-09	-1.939596e+01	-1.449920e+02
2.770000e-06	-2.807284e-06	-2.329491e-09	-2.002361e+01	-1.525538e+02
2.780000e-06	-2.894270e-06	-2.441104e-09	-2.064406e+01	-1.598561e+02
2.790000e-06	-2.980017e-06	-2.548271e-09	-2.125567e+01	-1.668916e+02
2.800000e-06	-3.064660e-06	-2.649259e-09	-2.185941e+01	-1.736568e+02
2.810000e-06	-3.148289e-06	-2.746263e-09	-2.245591e+01	-1.801528e+02
2.820000e-06	-3.230859e-06	-2.842025e-09	-2.304486e+01	-1.863845e+02
2.830000e-06	-3.312350e-06	-2.936234e-09	-2.362612e+01	-1.923606e+02
2.840000e-06	-3.392796e-06	-3.025531e-09	-2.419992e+01	-1.980925e+02
2.850000e-06	-3.472021e-06	-3.107691e-09	-2.476501e+01	-2.035931e+02
2.860000e-06	-3.549815e-06	-3.185681e-09	-2.531989e+01	-2.088757e+02
2.870000e-06	-3.626111e-06	-3.261258e-09	-2.586409e+01	-2.139532e+02
2.880000e-06	-3.700944e-06	-3.334432e-09	-2.639785e+01	-2.188372e+02
2.890000e-06	-3.774462e-06	-3.406409e-09	-2.692224e+01	-2.235377e+02
2.900000e-06	-3.846759e-06	-3.476827e-09	-2.743791e+01	-2.280630e+02
2.910000e-06	-3.917592e-06	-3.543341e-09	-2.794314e+01	-2.324202e+02
2.920000e-06	-3.986787e-06	-3.606523e-09	-2.843669e+01	-2.366152e+02
2.930000e-06	-4.054548e-06	-3.668761e-09	-2.892002e+01	-2.406530e+02
2.940000e-06	-4.120971e-06	-3.731216e-09	-2.939379e+01	-2.445376e+02
