# Temperatura_=_24.69
# Concentracion g/m^3_=_15000.0
# C_Vs_to_Am_M_A/Vsm_=_65563218390.804596
# pendiente_HvsI_1/m_=_3716.3
# ordenada_HvsI_A/m_=_1297.0
# frecuencia_Hz_=_301580.1377465939

Tiempo_(s)	Campo_(V.s)	Magnetizacion_(V.s)	Campo_(kA/m)	Magnetizacion_(A/m)
0.000000e+00	-5.391895e-06	-4.524138e-09	-3.834305e+01	-2.942936e+02
1.000000e-08	-5.389007e-06	-4.526330e-09	-3.832252e+01	-2.941780e+02
2.000000e-08	-5.384386e-06	-4.522126e-09	-3.828966e+01	-2.940176e+02
3.000000e-08	-5.378113e-06	-4.517142e-09	-3.824505e+01	-2.938122e+02
4.000000e-08	-5.370187e-06	-4.512277e-09	-3.818868e+01	-2.935597e+02
5.000000e-08	-5.360431e-06	-4.505838e-09	-3.811931e+01	-2.932586e+02
6.000000e-08	-5.348599e-06	-4.498914e-09	-3.803517e+01	-2.929086e+02
7.000000e-08	-5.334869e-06	-4.488434e-09	-3.793753e+01	-2.925113e+02
8.000000e-08	-5.318999e-06	-4.484568e-09	-3.782467e+01	-2.920692e+02
9.000000e-08	-5.300884e-06	-4.531329e-09	-3.769585e+01	-2.915844e+02
1.000000e-07	-5.280797e-06	-4.522968e-09	-3.755301e+01	-2.910563e+02
1.100000e-07	-5.258826e-06	-4.474431e-09	-3.739677e+01	-2.904803e+02
1.200000e-07	-5.235201e-06	-4.460254e-09	-3.722877e+01	-2.898472e+02
1.300000e-07	-5.210048e-06	-4.348733e-09	-3.704990e+01	-2.891435e+02
1.400000e-07	-5.183239e-06	-4.347708e-09	-3.685925e+01	-2.883544e+02
1.500000e-07	-5.154782e-06	-4.479428e-09	-3.665688e+01	-2.874663e+02
1.600000e-07	-5.124892e-06	-4.367914e-09	-3.644433e+01	-2.864705e+02
1.700000e-07	-5.093375e-06	-4.420992e-09	-3.622021e+01	-2.853662e+02
1.800000e-07	-5.059654e-06	-4.459854e-09	-3.598041e+01	-2.841614e+02
1.900000e-07	-5.024146e-06	-4.212231e-09	-3.572790e+01	-2.828724e+02
2.000000e-07	-4.987191e-06	-4.261141e-09	-3.546511e+01	-2.815210e+02
2.100000e-07	-4.948417e-06	-4.324722e-09	-3.518938e+01	-2.801305e+02
2.200000e-07	-4.907893e-06	-4.256307e-09	-3.490120e+01	-2.787207e+02
2.300000e-07	-4.865416e-06	-4.295345e-09	-3.459914e+01	-2.773042e+02
2.400000e-07	-4.821047e-06	-4.223532e-09	-3.428362e+01	-2.758836e+02
2.500000e-07	-4.774951e-06	-4.149116e-09	-3.395582e+01	-2.744513e+02
2.600000e-07	-4.726846e-06	-4.189145e-09	-3.361374e+01	-2.729913e+02
2.700000e-07	-4.676637e-06	-4.182524e-09	-3.325668e+01	-2.714832e+02
2.800000e-07	-4.624401e-06	-4.178522e-09	-3.288522e+01	-2.699067e+02
2.900000e-07	-4.570313e-06	-4.091514e-09	-3.250059e+01	-2.682461e+02
3.000000e-07	-4.514640e-06	-4.014093e-09	-3.210469e+01	-2.664933e+02
3.100000e-07	-4.457289e-06	-4.039739e-09	-3.169685e+01	-2.646488e+02
3.200000e-07	-4.398115e-06	-4.067266e-09	-3.127605e+01	-2.627204e+02
3.300000e-07	-4.337424e-06	-4.030206e-09	-3.084446e+01	-2.607205e+02
3.400000e-07	-4.275315e-06	-3.922719e-09	-3.040279e+01	-2.586623e+02
3.500000e-07	-4.211822e-06	-3.884189e-09	-2.995127e+01	-2.565557e+02
3.600000e-07	-4.146825e-06	-3.871055e-09	-2.948906e+01	-2.544049e+02
3.700000e-07	-4.080127e-06	-3.867553e-09	-2.901476e+01	-2.522080e+02
3.800000e-07	-4.011899e-06	-3.870744e-09	-2.852958e+01	-2.499575e+02
3.900000e-07	-3.942331e-06	-3.798789e-09	-2.803486e+01	-2.476433e+02
4.000000e-07	-3.871484e-06	-3.717207e-09	-2.753105e+01	-2.452557e+02
4.100000e-07	-3.799346e-06	-3.660104e-09	-2.701806e+01	-2.427889e+02
4.200000e-07	-3.725767e-06	-3.648883e-09	-2.649482e+01	-2.402424e+02
4.300000e-07	-3.650611e-06	-3.652803e-09	-2.596037e+01	-2.376214e+02
4.400000e-07	-3.573969e-06	-3.614573e-09	-2.541535e+01	-2.349350e+02
4.500000e-07	-3.495918e-06	-3.540591e-09	-2.486031e+01	-2.321938e+02
4.600000e-07	-3.416419e-06	-3.466923e-09	-2.429498e+01	-2.294064e+02
4.700000e-07	-3.335650e-06	-3.438654e-09	-2.372060e+01	-2.265767e+02
4.800000e-07	-3.253766e-06	-3.424837e-09	-2.313831e+01	-2.237024e+02
4.900000e-07	-3.170776e-06	-3.379456e-09	-2.254815e+01	-2.207755e+02
5.000000e-07	-3.086737e-06	-3.315732e-09	-2.195052e+01	-2.177838e+02
5.100000e-07	-3.001748e-06	-3.250451e-09	-2.134615e+01	-2.147141e+02
5.200000e-07	-2.915816e-06	-3.201356e-09	-2.073506e+01	-2.115550e+02
5.300000e-07	-2.828842e-06	-3.166518e-09	-2.011658e+01	-2.083002e+02
5.400000e-07	-2.740900e-06	-3.127995e-09	-1.949119e+01	-2.049489e+02
5.500000e-07	-2.651974e-06	-3.065948e-09	-1.885882e+01	-2.015060e+02
5.600000e-07	-2.561884e-06	-2.982684e-09	-1.821817e+01	-1.979799e+02
5.700000e-07	-2.470715e-06	-2.924912e-09	-1.756985e+01	-1.943797e+02
5.800000e-07	-2.378661e-06	-2.893402e-09	-1.691523e+01	-1.907124e+02
5.900000e-07	-2.285833e-06	-2.852144e-09	-1.625511e+01	-1.869803e+02
6.000000e-07	-2.192280e-06	-2.779431e-09	-1.558983e+01	-1.831807e+02
6.100000e-07	-2.097916e-06	-2.701857e-09	-1.491878e+01	-1.793060e+02
6.200000e-07	-2.002782e-06	-2.635257e-09	-1.424226e+01	-1.753464e+02
6.300000e-07	-1.907010e-06	-2.573376e-09	-1.356120e+01	-1.712923e+02
6.400000e-07	-1.810485e-06	-2.523304e-09	-1.287479e+01	-1.671372e+02
6.500000e-07	-1.713123e-06	-2.471805e-09	-1.218243e+01	-1.628794e+02
6.600000e-07	-1.615050e-06	-2.402044e-09	-1.148501e+01	-1.585227e+02
6.700000e-07	-1.516410e-06	-2.316167e-09	-1.078355e+01	-1.540751e+02
6.800000e-07	-1.417246e-06	-2.240885e-09	-1.007838e+01	-1.495464e+02
6.900000e-07	-1.317641e-06	-2.179642e-09	-9.370060e+00	-1.449448e+02
7.000000e-07	-1.217644e-06	-2.113914e-09	-8.658958e+00	-1.402749e+02
7.100000e-07	-1.117249e-06	-2.036322e-09	-7.945027e+00	-1.355349e+02
7.200000e-07	-1.016527e-06	-1.954717e-09	-7.228770e+00	-1.307171e+02
7.300000e-07	-9.155338e-07	-1.876232e-09	-6.510580e+00	-1.258087e+02
7.400000e-07	-8.142320e-07	-1.802104e-09	-5.790199e+00	-1.207945e+02
7.500000e-07	-7.125739e-07	-1.730559e-09	-5.067283e+00	-1.156600e+02
7.600000e-07	-6.106490e-07	-1.652189e-09	-4.342471e+00	-1.103946e+02
7.700000e-07	-5.085099e-07	-1.562810e-09	-3.616135e+00	-1.049930e+02
7.800000e-07	-4.061836e-07	-1.469375e-09	-2.888469e+00	-9.945614e+01
7.900000e-07	-3.037185e-07	-1.382619e-09	-2.159815e+00	-9.379027e+01
8.000000e-07	-2.011711e-07	-1.298916e-09	-1.430576e+00	-8.800432e+01
8.100000e-07	-9.863188e-08	-1.211078e-09	-7.013949e-01	-8.210720e+01
8.200000e-07	3.960242e-09	-1.119057e-09	2.816223e-02	-7.610494e+01
8.300000e-07	1.066150e-07	-1.023961e-09	7.581647e-01	-6.999868e+01
8.400000e-07	2.092631e-07	-9.298601e-10	1.488120e+00	-6.378384e+01
8.500000e-07	3.118878e-07	-8.361611e-10	2.217909e+00	-5.745067e+01
8.600000e-07	4.143830e-07	-7.414866e-10	2.946777e+00	-5.098590e+01
8.700000e-07	5.167747e-07	-6.405402e-10	3.674909e+00	-4.437500e+01
8.800000e-07	6.190227e-07	-5.344962e-10	4.402019e+00	-3.760456e+01
8.900000e-07	7.210210e-07	-4.273980e-10	5.127353e+00	-3.066408e+01
9.000000e-07	8.227664e-07	-3.194791e-10	5.850889e+00	-2.354705e+01
9.100000e-07	9.241975e-07	-2.127318e-10	6.572189e+00	-1.625106e+01
9.200000e-07	1.025293e-06	-1.047659e-10	7.291105e+00	-8.777236e+00
9.300000e-07	1.126043e-06	8.595891e-12	8.007561e+00	-1.129342e+00
9.400000e-07	1.226449e-06	1.305048e-10	8.721571e+00	6.687084e+00
9.500000e-07	1.326457e-06	2.541294e-10	9.432756e+00	1.466515e+01
9.600000e-07	1.426038e-06	3.758431e-10	1.014090e+01	2.279646e+01
9.700000e-07	1.525153e-06	4.990303e-10	1.084573e+01	3.107044e+01
9.800000e-07	1.623666e-06	6.260845e-10	1.154628e+01	3.947331e+01
9.900000e-07	1.721435e-06	7.558310e-10	1.224153e+01	4.798704e+01
1.000000e-06	1.818355e-06	8.877205e-10	1.293076e+01	5.658871e+01
1.010000e-06	1.914423e-06	1.019867e-09	1.361392e+01	6.525040e+01
1.020000e-06	2.009800e-06	1.150390e-09	1.429217e+01	7.393970e+01
1.030000e-06	2.104507e-06	1.281533e-09	1.496565e+01	8.262089e+01
1.040000e-06	2.198465e-06	1.414414e-09	1.563381e+01	9.125646e+01
1.050000e-06	2.291682e-06	1.546195e-09	1.629670e+01	9.980875e+01
1.060000e-06	2.384152e-06	1.672341e-09	1.695428e+01	1.082415e+02
1.070000e-06	2.475932e-06	1.793173e-09	1.760695e+01	1.165213e+02
1.080000e-06	2.566911e-06	1.913631e-09	1.825392e+01	1.246181e+02
1.090000e-06	2.656862e-06	2.035045e-09	1.889358e+01	1.325064e+02
1.100000e-06	2.745616e-06	2.156178e-09	1.952473e+01	1.401652e+02
1.110000e-06	2.833291e-06	2.270617e-09	2.014821e+01	1.475786e+02
1.120000e-06	2.920122e-06	2.378187e-09	2.076568e+01	1.547361e+02
1.130000e-06	3.006080e-06	2.481590e-09	2.137695e+01	1.616321e+02
1.140000e-06	3.091056e-06	2.583851e-09	2.198124e+01	1.682665e+02
1.150000e-06	3.175088e-06	2.683458e-09	2.257881e+01	1.746434e+02
1.160000e-06	3.258181e-06	2.778504e-09	2.316971e+01	1.807710e+02
1.170000e-06	3.339995e-06	2.868377e-09	2.375151e+01	1.866600e+02
1.180000e-06	3.420441e-06	2.952555e-09	2.432357e+01	1.923224e+02
1.190000e-06	3.499683e-06	3.034491e-09	2.488709e+01	1.977698e+02
1.200000e-06	3.577680e-06	3.115684e-09	2.544174e+01	2.030130e+02
1.210000e-06	3.654429e-06	3.197364e-09	2.598752e+01	2.080608e+02
1.220000e-06	3.729943e-06	3.274517e-09	2.652452e+01	2.129201e+02
1.230000e-06	3.803904e-06	3.345802e-09	2.705047e+01	2.175965e+02
1.240000e-06	3.876156e-06	3.411695e-09	2.756427e+01	2.220948e+02
1.250000e-06	3.946972e-06	3.477051e-09	2.806786e+01	2.264196e+02
1.260000e-06	4.016437e-06	3.541999e-09	2.856185e+01	2.305760e+02
1.270000e-06	4.084594e-06	3.603631e-09	2.904653e+01	2.345695e+02
1.280000e-06	4.151374e-06	3.659527e-09	2.952142e+01	2.384055e+02
1.290000e-06	4.216469e-06	3.711897e-09	2.998432e+01	2.420886e+02
1.300000e-06	4.279905e-06	3.761880e-09	3.043543e+01	2.456217e+02
1.310000e-06	4.341874e-06	3.810994e-09	3.087610e+01	2.490053e+02
1.320000e-06	4.402439e-06	3.860602e-09	3.130679e+01	2.522378e+02
1.330000e-06	4.461637e-06	3.907263e-09	3.172777e+01	2.553158e+02
1.340000e-06	4.519130e-06	3.948701e-09	3.213661e+01	2.582358e+02
1.350000e-06	4.574829e-06	3.987054e-09	3.253271e+01	2.609957e+02
1.360000e-06	4.628942e-06	4.025692e-09	3.291751e+01	2.635963e+02
1.370000e-06	4.681346e-06	4.061305e-09	3.329017e+01	2.660424e+02
1.380000e-06	4.731727e-06	4.092773e-09	3.364844e+01	2.683430e+02
1.390000e-06	4.780052e-06	4.120721e-09	3.399210e+01	2.705101e+02
1.400000e-06	4.826705e-06	4.147861e-09	3.432385e+01	2.725573e+02
1.410000e-06	4.871772e-06	4.174836e-09	3.464434e+01	2.744976e+02
1.420000e-06	4.915285e-06	4.201417e-09	3.495377e+01	2.763409e+02
1.430000e-06	4.956958e-06	4.227824e-09	3.525012e+01	2.780932e+02
1.440000e-06	4.996704e-06	4.252371e-09	3.553275e+01	2.797555e+02
1.450000e-06	5.034818e-06	4.273803e-09	3.580380e+01	2.813251e+02
1.460000e-06	5.071342e-06	4.292787e-09	3.606353e+01	2.827975e+02
1.470000e-06	5.106183e-06	4.312820e-09	3.631129e+01	2.841681e+02
1.480000e-06	5.139069e-06	4.332534e-09	3.654515e+01	2.854349e+02
1.490000e-06	5.170069e-06	4.349077e-09	3.676560e+01	2.866002e+02
1.500000e-06	5.199391e-06	4.362520e-09	3.697411e+01	2.876703e+02
1.510000e-06	5.227052e-06	4.375029e-09	3.717082e+01	2.886551e+02
1.520000e-06	5.252668e-06	4.388073e-09	3.735298e+01	2.895659e+02
1.530000e-06	5.276137e-06	4.402081e-09	3.751987e+01	2.904129e+02
1.540000e-06	5.297813e-06	4.416055e-09	3.767401e+01	2.912030e+02
1.550000e-06	5.317794e-06	4.428135e-09	3.781611e+01	2.919382e+02
1.560000e-06	5.335926e-06	4.438732e-09	3.794505e+01	2.926150e+02
1.570000e-06	5.352044e-06	4.449133e-09	3.805966e+01	2.932260e+02
1.580000e-06	5.366166e-06	4.459174e-09	3.816009e+01	2.937616e+02
1.590000e-06	5.378281e-06	4.466456e-09	3.824624e+01	2.942130e+02
1.600000e-06	5.388173e-06	4.469868e-09	3.831659e+01	2.945740e+02
1.610000e-06	5.395922e-06	4.471265e-09	3.837169e+01	2.948433e+02
1.620000e-06	5.401829e-06	4.474591e-09	3.841370e+01	2.950248e+02
1.630000e-06	5.405978e-06	4.479925e-09	3.844320e+01	2.951262e+02
1.640000e-06	5.408169e-06	4.483009e-09	3.845878e+01	2.951578e+02
1.650000e-06	5.408340e-06	4.486123e-09	3.846000e+01	2.951298e+02
1.660000e-06	5.406754e-06	4.484600e-09	3.844872e+01	2.950505e+02
1.670000e-06	5.403556e-06	4.478812e-09	3.842598e+01	2.949250e+02
1.680000e-06	5.398721e-06	4.479146e-09	3.839160e+01	2.947550e+02
1.690000e-06	5.391922e-06	4.478337e-09	3.834325e+01	2.945394e+02
1.700000e-06	5.383254e-06	4.474661e-09	3.828161e+01	2.942764e+02
1.710000e-06	5.373048e-06	4.471558e-09	3.820903e+01	2.939645e+02
1.720000e-06	5.361204e-06	4.471407e-09	3.812481e+01	2.936040e+02
1.730000e-06	5.347404e-06	4.483682e-09	3.802667e+01	2.931967e+02
1.740000e-06	5.331489e-06	4.408104e-09	3.791349e+01	2.927451e+02
1.750000e-06	5.313150e-06	4.386755e-09	3.778308e+01	2.922510e+02
1.760000e-06	5.292039e-06	4.419589e-09	3.763296e+01	2.917130e+02
1.770000e-06	5.268691e-06	4.406159e-09	3.746692e+01	2.911255e+02
1.780000e-06	5.244167e-06	4.525406e-09	3.729253e+01	2.904782e+02
1.790000e-06	5.219001e-06	4.462173e-09	3.711357e+01	2.897573e+02
1.800000e-06	5.192338e-06	4.327982e-09	3.692396e+01	2.889478e+02
1.810000e-06	5.163366e-06	4.467030e-09	3.671793e+01	2.880369e+02
1.820000e-06	5.132644e-06	4.332373e-09	3.649946e+01	2.870175e+02
1.830000e-06	5.100246e-06	4.264959e-09	3.626907e+01	2.858905e+02
1.840000e-06	5.065825e-06	4.469404e-09	3.602430e+01	2.846658e+02
1.850000e-06	5.029848e-06	4.322495e-09	3.576845e+01	2.833613e+02
1.860000e-06	4.992095e-06	4.285347e-09	3.549998e+01	2.819994e+02
1.870000e-06	4.952393e-06	4.311356e-09	3.521765e+01	2.806030e+02
1.880000e-06	4.911068e-06	4.122808e-09	3.492378e+01	2.791908e+02
1.890000e-06	4.867949e-06	4.230977e-09	3.461715e+01	2.777734e+02
1.900000e-06	4.823262e-06	4.237905e-09	3.429937e+01	2.763511e+02
1.910000e-06	4.776717e-06	4.171934e-09	3.396838e+01	2.749142e+02
1.920000e-06	4.728039e-06	4.208609e-09	3.362222e+01	2.734455e+02
1.930000e-06	4.677821e-06	4.022022e-09	3.326511e+01	2.719241e+02
1.940000e-06	4.625866e-06	4.104347e-09	3.289564e+01	2.703305e+02
1.950000e-06	4.571830e-06	4.155000e-09	3.251138e+01	2.686503e+02
1.960000e-06	4.515867e-06	4.042808e-09	3.211341e+01	2.668773e+02
1.970000e-06	4.458138e-06	4.025616e-09	3.170289e+01	2.650137e+02
1.980000e-06	4.398967e-06	3.925873e-09	3.128211e+01	2.630687e+02
1.990000e-06	4.338323e-06	3.979809e-09	3.085085e+01	2.610551e+02
2.000000e-06	4.275982e-06	3.960401e-09	3.040753e+01	2.589856e+02
2.010000e-06	4.212021e-06	3.903965e-09	2.995269e+01	2.568691e+02
2.020000e-06	4.146576e-06	3.909547e-09	2.948730e+01	2.547087e+02
2.030000e-06	4.079691e-06	3.774657e-09	2.901166e+01	2.525009e+02
2.040000e-06	4.011385e-06	3.761472e-09	2.852592e+01	2.502374e+02
2.050000e-06	3.941661e-06	3.760775e-09	2.803009e+01	2.479079e+02
2.060000e-06	3.870425e-06	3.789199e-09	2.752352e+01	2.455035e+02
2.070000e-06	3.797781e-06	3.764773e-09	2.700693e+01	2.430193e+02
2.080000e-06	3.723838e-06	3.614187e-09	2.648110e+01	2.404560e+02
2.090000e-06	3.648489e-06	3.572204e-09	2.594528e+01	2.378199e+02
2.100000e-06	3.571705e-06	3.544714e-09	2.539925e+01	2.351207e+02
2.110000e-06	3.493299e-06	3.562900e-09	2.484168e+01	2.323688e+02
2.120000e-06	3.413500e-06	3.522780e-09	2.427421e+01	2.295720e+02
2.130000e-06	3.332638e-06	3.453770e-09	2.369919e+01	2.267329e+02
2.140000e-06	3.250620e-06	3.408072e-09	2.311593e+01	2.238480e+02
2.150000e-06	3.167526e-06	3.326090e-09	2.252504e+01	2.209081e+02
2.160000e-06	3.083453e-06	3.313612e-09	2.192717e+01	2.179006e+02
2.170000e-06	2.998236e-06	3.298700e-09	2.132117e+01	2.148123e+02
2.180000e-06	2.911722e-06	3.248792e-09	2.070595e+01	2.116329e+02
2.190000e-06	2.824013e-06	3.151922e-09	2.008223e+01	2.083571e+02
2.200000e-06	2.735283e-06	3.090513e-09	1.945125e+01	2.049854e+02
2.210000e-06	2.645620e-06	3.089224e-09	1.881363e+01	2.015236e+02
2.220000e-06	2.555094e-06	3.053947e-09	1.816989e+01	1.979807e+02
2.230000e-06	2.463750e-06	2.980502e-09	1.752032e+01	1.943655e+02
2.240000e-06	2.371623e-06	2.895828e-09	1.686518e+01	1.906840e+02
2.250000e-06	2.278677e-06	2.841963e-09	1.620422e+01	1.869377e+02
2.260000e-06	2.184844e-06	2.789399e-09	1.553695e+01	1.831225e+02
2.270000e-06	2.090006e-06	2.753408e-09	1.486254e+01	1.792304e+02
2.280000e-06	1.994207e-06	2.716241e-09	1.418128e+01	1.752510e+02
2.290000e-06	1.897705e-06	2.634371e-09	1.349503e+01	1.711755e+02
2.300000e-06	1.800637e-06	2.531780e-09	1.280476e+01	1.669980e+02
2.310000e-06	1.703077e-06	2.460092e-09	1.211098e+01	1.627184e+02
2.320000e-06	1.604994e-06	2.432069e-09	1.141350e+01	1.583413e+02
2.330000e-06	1.506402e-06	2.387854e-09	1.071239e+01	1.538753e+02
2.340000e-06	1.407343e-06	2.308290e-09	1.000795e+01	1.493301e+02
2.350000e-06	1.307804e-06	2.217250e-09	9.300106e+00	1.447135e+02
2.360000e-06	1.207842e-06	2.143415e-09	8.589252e+00	1.400287e+02
2.370000e-06	1.107661e-06	2.081234e-09	7.876846e+00	1.352727e+02
2.380000e-06	1.007295e-06	2.020936e-09	7.163118e+00	1.304364e+02
2.390000e-06	9.064930e-07	1.952084e-09	6.446289e+00	1.255065e+02
2.400000e-06	8.052198e-07	1.861207e-09	5.726110e+00	1.204674e+02
2.410000e-06	7.035921e-07	1.767471e-09	5.003412e+00	1.153054e+02
2.420000e-06	6.017597e-07	1.692368e-09	4.279257e+00	1.100108e+02
2.430000e-06	4.997396e-07	1.631018e-09	3.553768e+00	1.045797e+02
2.440000e-06	3.974398e-07	1.558642e-09	2.826290e+00	9.901440e+01
2.450000e-06	2.948834e-07	1.464174e-09	2.096987e+00	9.332180e+01
2.460000e-06	1.921716e-07	1.361020e-09	1.366579e+00	8.751113e+01
2.470000e-06	8.934455e-08	1.270104e-09	6.353505e-01	8.159090e+01
2.480000e-06	-1.357334e-08	1.187303e-09	-9.652326e-02	7.556625e+01
2.490000e-06	-1.164803e-07	1.097828e-09	-8.283196e-01	6.943710e+01
2.500000e-06	-2.193546e-07	9.967252e-10	-1.559883e+00	6.319767e+01
2.510000e-06	-3.221520e-07	8.906171e-10	-2.290900e+00	5.683729e+01
2.520000e-06	-4.248121e-07	7.901484e-10	-3.020941e+00	5.034221e+01
2.530000e-06	-5.272689e-07	6.947995e-10	-3.749536e+00	4.369797e+01
2.540000e-06	-6.295304e-07	6.018892e-10	-4.476741e+00	3.689164e+01
2.550000e-06	-7.315127e-07	4.997276e-10	-5.201962e+00	2.991353e+01
2.560000e-06	-8.330433e-07	3.795381e-10	-5.923971e+00	2.275802e+01
2.570000e-06	-9.341556e-07	2.525035e-10	-6.643004e+00	1.542351e+01
2.580000e-06	-1.034833e-06	1.349812e-10	-7.358944e+00	7.911794e+00
2.590000e-06	-1.135121e-06	2.610027e-11	-8.072116e+00	2.270641e-01
2.600000e-06	-1.235061e-06	-8.973640e-11	-8.782813e+00	-7.624829e+00
2.610000e-06	-1.334608e-06	-2.161331e-10	-9.490719e+00	-1.563671e+01
2.620000e-06	-1.433730e-06	-3.470019e-10	-1.019560e+01	-2.379978e+01
2.630000e-06	-1.532380e-06	-4.753662e-10	-1.089712e+01	-3.210288e+01
2.640000e-06	-1.630454e-06	-6.002425e-10	-1.159455e+01	-4.053138e+01
2.650000e-06	-1.727855e-06	-7.252277e-10	-1.228719e+01	-4.906627e+01
2.660000e-06	-1.824650e-06	-8.569259e-10	-1.297552e+01	-5.768353e+01
2.670000e-06	-1.920938e-06	-9.979575e-10	-1.366025e+01	-6.635420e+01
2.680000e-06	-2.016718e-06	-1.137417e-09	-1.434136e+01	-7.504506e+01
2.690000e-06	-2.111889e-06	-1.267686e-09	-1.501815e+01	-8.371987e+01
2.700000e-06	-2.206096e-06	-1.393759e-09	-1.568807e+01	-9.234094e+01
2.710000e-06	-2.299134e-06	-1.524773e-09	-1.634969e+01	-1.008708e+02
2.720000e-06	-2.391273e-06	-1.658392e-09	-1.700492e+01	-1.092737e+02
2.730000e-06	-2.482622e-06	-1.787767e-09	-1.765452e+01	-1.175169e+02
2.740000e-06	-2.573119e-06	-1.910698e-09	-1.829806e+01	-1.255712e+02
2.750000e-06	-2.662712e-06	-2.030155e-09	-1.893518e+01	-1.334121e+02
2.760000e-06	-2.751440e-06	-2.145416e-09	-1.956615e+01	-1.410197e+02
2.770000e-06	-2.839386e-06	-2.257950e-09	-2.019155e+01	-1.483792e+02
2.780000e-06	-2.926399e-06	-2.370823e-09	-2.081032e+01	-1.554811e+02
2.790000e-06	-3.012154e-06	-2.477011e-09	-2.142015e+01	-1.623211e+02
2.800000e-06	-3.096666e-06	-2.573400e-09	-2.202113e+01	-1.689000e+02
2.810000e-06	-3.180164e-06	-2.666032e-09	-2.261490e+01	-1.752230e+02
2.820000e-06	-3.262608e-06	-2.759604e-09	-2.320119e+01	-1.812987e+02
2.830000e-06	-3.343968e-06	-2.851364e-09	-2.377975e+01	-1.871383e+02
2.840000e-06	-3.424335e-06	-2.937147e-09	-2.435127e+01	-1.927538e+02
2.850000e-06	-3.503507e-06	-3.017856e-09	-2.491427e+01	-1.981569e+02
2.860000e-06	-3.581128e-06	-3.096673e-09	-2.546626e+01	-2.033577e+02
2.870000e-06	-3.657233e-06	-3.171958e-09	-2.600746e+01	-2.083648e+02
2.880000e-06	-3.731961e-06	-3.244404e-09	-2.653886e+01	-2.131847e+02
2.890000e-06	-3.805329e-06	-3.316673e-09	-2.706061e+01	-2.178228e+02
2.900000e-06	-3.877444e-06	-3.386702e-09	-2.757343e+01	-2.222837e+02
2.910000e-06	-3.948113e-06	-3.451958e-09	-2.807597e+01	-2.265721e+02
2.920000e-06	-4.017103e-06	-3.513827e-09	-2.856658e+01	-2.306933e+02
2.930000e-06	-4.084640e-06	-3.575866e-09	-2.904685e+01	-2.346529e+02
2.940000e-06	-4.150832e-06	-3.637133e-09	-2.951756e+01	-2.384560e+02
