# Temperatura_=_39.53
# Concentracion g/m^3_=_15000.0
# C_Vs_to_Am_M_A/Vsm_=_65563218390.804596
# pendiente_HvsI_1/m_=_3716.3
# ordenada_HvsI_A/m_=_1297.0
# frecuencia_Hz_=_301578.5167526892

Tiempo_(s)	Campo_(V.s)	Magnetizacion_(V.s)	Campo_(kA/m)	Magnetizacion_(A/m)
0.000000e+00	-5.365664e-06	-4.948324e-09	-3.834356e+01	-3.225992e+02
1.000000e-08	-5.362947e-06	-4.949170e-09	-3.832414e+01	-3.223977e+02
2.000000e-08	-5.358484e-06	-4.944804e-09	-3.829225e+01	-3.221475e+02
3.000000e-08	-5.352423e-06	-4.937844e-09	-3.824894e+01	-3.218640e+02
4.000000e-08	-5.344740e-06	-4.928499e-09	-3.819403e+01	-3.215545e+02
5.000000e-08	-5.335227e-06	-4.918724e-09	-3.812605e+01	-3.212168e+02
6.000000e-08	-5.323685e-06	-4.911066e-09	-3.804357e+01	-3.208396e+02
7.000000e-08	-5.310213e-06	-4.898723e-09	-3.794730e+01	-3.204054e+02
8.000000e-08	-5.294665e-06	-4.898348e-09	-3.783619e+01	-3.198957e+02
9.000000e-08	-5.276909e-06	-4.943474e-09	-3.770930e+01	-3.192959e+02
1.000000e-07	-5.257100e-06	-4.934189e-09	-3.756775e+01	-3.185995e+02
1.100000e-07	-5.235365e-06	-4.880829e-09	-3.741243e+01	-3.178103e+02
1.200000e-07	-5.211977e-06	-4.848510e-09	-3.724530e+01	-3.169421e+02
1.300000e-07	-5.187090e-06	-4.760986e-09	-3.706746e+01	-3.160154e+02
1.400000e-07	-5.160546e-06	-4.790856e-09	-3.687776e+01	-3.150528e+02
1.500000e-07	-5.132345e-06	-4.894998e-09	-3.667624e+01	-3.140730e+02
1.600000e-07	-5.102713e-06	-4.771863e-09	-3.646449e+01	-3.130865e+02
1.700000e-07	-5.071524e-06	-4.784533e-09	-3.624161e+01	-3.120921e+02
1.800000e-07	-5.038197e-06	-4.811257e-09	-3.600345e+01	-3.110769e+02
1.900000e-07	-5.003051e-06	-4.662341e-09	-3.575229e+01	-3.100188e+02
2.000000e-07	-4.966483e-06	-4.742217e-09	-3.549097e+01	-3.088908e+02
2.100000e-07	-4.928114e-06	-4.748672e-09	-3.521678e+01	-3.076668e+02
2.200000e-07	-4.887900e-06	-4.633496e-09	-3.492941e+01	-3.063263e+02
2.300000e-07	-4.845754e-06	-4.670759e-09	-3.462824e+01	-3.048589e+02
2.400000e-07	-4.801702e-06	-4.647153e-09	-3.431343e+01	-3.032648e+02
2.500000e-07	-4.755927e-06	-4.606533e-09	-3.398632e+01	-3.015547e+02
2.600000e-07	-4.708285e-06	-4.592324e-09	-3.364587e+01	-2.997461e+02
2.700000e-07	-4.658502e-06	-4.515112e-09	-3.329011e+01	-2.978592e+02
2.800000e-07	-4.606587e-06	-4.519739e-09	-3.291912e+01	-2.959122e+02
2.900000e-07	-4.552878e-06	-4.509521e-09	-3.253531e+01	-2.939182e+02
3.000000e-07	-4.497631e-06	-4.470978e-09	-3.214051e+01	-2.918825e+02
3.100000e-07	-4.440700e-06	-4.448600e-09	-3.173368e+01	-2.898032e+02
3.200000e-07	-4.381976e-06	-4.397901e-09	-3.131403e+01	-2.876724e+02
3.300000e-07	-4.321710e-06	-4.336429e-09	-3.088336e+01	-2.854790e+02
3.400000e-07	-4.259966e-06	-4.286938e-09	-3.044213e+01	-2.832121e+02
3.500000e-07	-4.196833e-06	-4.297969e-09	-2.999098e+01	-2.808628e+02
3.600000e-07	-4.132203e-06	-4.268903e-09	-2.952913e+01	-2.784267e+02
3.700000e-07	-4.065862e-06	-4.206602e-09	-2.905505e+01	-2.759034e+02
3.800000e-07	-3.997956e-06	-4.176682e-09	-2.856978e+01	-2.732964e+02
3.900000e-07	-3.928734e-06	-4.124604e-09	-2.807512e+01	-2.706110e+02
4.000000e-07	-3.858271e-06	-4.077942e-09	-2.757158e+01	-2.678533e+02
4.100000e-07	-3.786631e-06	-4.034315e-09	-2.705964e+01	-2.650278e+02
4.200000e-07	-3.713624e-06	-3.994860e-09	-2.653792e+01	-2.621373e+02
4.300000e-07	-3.638916e-06	-3.956241e-09	-2.600405e+01	-2.591825e+02
4.400000e-07	-3.562633e-06	-3.904316e-09	-2.545892e+01	-2.561622e+02
4.500000e-07	-3.485052e-06	-3.862038e-09	-2.490452e+01	-2.530741e+02
4.600000e-07	-3.406116e-06	-3.816334e-09	-2.434043e+01	-2.499158e+02
4.700000e-07	-3.325848e-06	-3.756638e-09	-2.376683e+01	-2.466851e+02
4.800000e-07	-3.244353e-06	-3.692781e-09	-2.318447e+01	-2.433804e+02
4.900000e-07	-3.161615e-06	-3.647667e-09	-2.259321e+01	-2.400004e+02
5.000000e-07	-3.077920e-06	-3.608657e-09	-2.199512e+01	-2.365441e+02
5.100000e-07	-2.993412e-06	-3.552187e-09	-2.139121e+01	-2.330105e+02
5.200000e-07	-2.907927e-06	-3.490775e-09	-2.078033e+01	-2.293983e+02
5.300000e-07	-2.821405e-06	-3.420569e-09	-2.016203e+01	-2.257062e+02
5.400000e-07	-2.734047e-06	-3.354306e-09	-1.953776e+01	-2.219331e+02
5.500000e-07	-2.645758e-06	-3.302300e-09	-1.890685e+01	-2.180784e+02
5.600000e-07	-2.556155e-06	-3.251265e-09	-1.826654e+01	-2.141418e+02
5.700000e-07	-2.465363e-06	-3.194289e-09	-1.761772e+01	-2.101235e+02
5.800000e-07	-2.373764e-06	-3.125006e-09	-1.696315e+01	-2.060236e+02
5.900000e-07	-2.281452e-06	-3.057472e-09	-1.630348e+01	-2.018415e+02
6.000000e-07	-2.188373e-06	-2.991831e-09	-1.563833e+01	-1.975759e+02
6.100000e-07	-2.094519e-06	-2.922782e-09	-1.496764e+01	-1.932239e+02
6.200000e-07	-1.999917e-06	-2.853527e-09	-1.429160e+01	-1.887818e+02
6.300000e-07	-1.904693e-06	-2.785809e-09	-1.361112e+01	-1.842453e+02
6.400000e-07	-1.808890e-06	-2.717594e-09	-1.292651e+01	-1.796108e+02
6.500000e-07	-1.712384e-06	-2.646600e-09	-1.223686e+01	-1.748758e+02
6.600000e-07	-1.615032e-06	-2.573939e-09	-1.154118e+01	-1.700401e+02
6.700000e-07	-1.516793e-06	-2.494977e-09	-1.083915e+01	-1.651057e+02
6.800000e-07	-1.417890e-06	-2.413296e-09	-1.013238e+01	-1.600763e+02
6.900000e-07	-1.318587e-06	-2.332351e-09	-9.422753e+00	-1.549560e+02
7.000000e-07	-1.219001e-06	-2.253476e-09	-8.711099e+00	-1.497483e+02
7.100000e-07	-1.119163e-06	-2.174127e-09	-7.997647e+00	-1.444541e+02
7.200000e-07	-1.019033e-06	-2.091125e-09	-7.282110e+00	-1.390713e+02
7.300000e-07	-9.185914e-07	-2.005901e-09	-6.564344e+00	-1.335945e+02
7.400000e-07	-8.177837e-07	-1.919585e-09	-5.843962e+00	-1.280155e+02
7.500000e-07	-7.165626e-07	-1.832894e-09	-5.120627e+00	-1.223251e+02
7.600000e-07	-6.151101e-07	-1.745364e-09	-4.395637e+00	-1.165145e+02
7.700000e-07	-5.135512e-07	-1.654688e-09	-3.669887e+00	-1.105776e+02
7.800000e-07	-4.117993e-07	-1.559525e-09	-2.942758e+00	-1.045115e+02
7.900000e-07	-3.098840e-07	-1.462819e-09	-2.214462e+00	-9.831696e+01
8.000000e-07	-2.078833e-07	-1.365374e-09	-1.485555e+00	-9.199733e+01
8.100000e-07	-1.057829e-07	-1.269038e-09	-7.559351e-01	-8.555649e+01
8.200000e-07	-3.641937e-09	-1.173309e-09	-2.602564e-02	-7.899666e+01
8.300000e-07	9.849488e-08	-1.074621e-09	7.038540e-01	-7.231628e+01
8.400000e-07	2.006558e-07	-9.730575e-10	1.433906e+00	-6.550854e+01
8.500000e-07	3.027411e-07	-8.679727e-10	2.163418e+00	-5.856124e+01
8.600000e-07	4.046940e-07	-7.592534e-10	2.891983e+00	-5.145779e+01
8.700000e-07	5.066270e-07	-6.455348e-10	3.620406e+00	-4.417943e+01
8.800000e-07	6.084509e-07	-5.303889e-10	4.348050e+00	-3.670797e+01
8.900000e-07	7.100328e-07	-4.154250e-10	5.073964e+00	-2.902852e+01
9.000000e-07	8.113913e-07	-2.981235e-10	5.798281e+00	-2.113169e+01
9.100000e-07	9.124276e-07	-1.780618e-10	6.520297e+00	-1.301464e+01
9.200000e-07	1.013061e-06	-5.480534e-11	7.239436e+00	-4.681146e+00
9.300000e-07	1.113382e-06	7.346641e-11	7.956339e+00	3.859498e+00
9.400000e-07	1.213366e-06	2.086918e-10	8.670834e+00	1.259395e+01
9.500000e-07	1.312995e-06	3.464027e-10	9.382794e+00	2.150636e+01
9.600000e-07	1.412285e-06	4.846388e-10	1.009232e+01	3.057940e+01
9.700000e-07	1.511029e-06	6.253510e-10	1.079796e+01	3.979451e+01
9.800000e-07	1.609015e-06	7.681381e-10	1.149818e+01	4.913125e+01
9.900000e-07	1.706137e-06	9.128687e-10	1.219222e+01	5.856622e+01
1.000000e-06	1.802462e-06	1.059392e-09	1.288057e+01	6.807178e+01
1.010000e-06	1.898134e-06	1.206293e-09	1.356425e+01	7.761529e+01
1.020000e-06	1.993165e-06	1.352354e-09	1.424335e+01	8.715912e+01
1.030000e-06	2.087475e-06	1.496723e-09	1.491730e+01	9.666177e+01
1.040000e-06	2.181051e-06	1.639118e-09	1.558601e+01	1.060799e+02
1.050000e-06	2.273912e-06	1.779355e-09	1.624960e+01	1.153708e+02
1.060000e-06	2.366102e-06	1.917037e-09	1.690839e+01	1.244954e+02
1.070000e-06	2.457657e-06	2.051046e-09	1.756265e+01	1.334199e+02
1.080000e-06	2.548372e-06	2.183299e-09	1.821092e+01	1.421173e+02
1.090000e-06	2.637913e-06	2.313894e-09	1.885078e+01	1.505678e+02
1.100000e-06	2.726232e-06	2.440897e-09	1.948192e+01	1.587574e+02
1.110000e-06	2.813613e-06	2.560174e-09	2.010635e+01	1.666775e+02
1.120000e-06	2.900173e-06	2.674285e-09	2.072492e+01	1.743225e+02
1.130000e-06	2.985743e-06	2.786371e-09	2.133641e+01	1.816896e+02
1.140000e-06	3.070297e-06	2.895352e-09	2.194065e+01	1.887776e+02
1.150000e-06	3.153970e-06	2.998714e-09	2.253858e+01	1.955875e+02
1.160000e-06	3.236609e-06	3.096025e-09	2.312912e+01	2.021228e+02
1.170000e-06	3.318013e-06	3.190015e-09	2.371084e+01	2.083904e+02
1.180000e-06	3.398175e-06	3.281150e-09	2.428369e+01	2.144005e+02
1.190000e-06	3.477086e-06	3.371129e-09	2.484760e+01	2.201664e+02
1.200000e-06	3.554773e-06	3.458978e-09	2.540276e+01	2.257032e+02
1.210000e-06	3.631243e-06	3.543509e-09	2.594922e+01	2.310263e+02
1.220000e-06	3.706413e-06	3.623337e-09	2.648639e+01	2.361496e+02
1.230000e-06	3.780041e-06	3.697963e-09	2.701255e+01	2.410838e+02
1.240000e-06	3.852066e-06	3.769587e-09	2.752724e+01	2.458355e+02
1.250000e-06	3.922683e-06	3.838265e-09	2.803188e+01	2.504080e+02
1.260000e-06	3.991934e-06	3.903942e-09	2.852675e+01	2.548022e+02
1.270000e-06	4.059883e-06	3.969040e-09	2.901232e+01	2.590182e+02
1.280000e-06	4.126417e-06	4.031294e-09	2.948778e+01	2.630575e+02
1.290000e-06	4.191238e-06	4.089326e-09	2.995100e+01	2.669243e+02
1.300000e-06	4.254469e-06	4.142436e-09	3.040285e+01	2.706256e+02
1.310000e-06	4.316312e-06	4.194082e-09	3.084479e+01	2.741708e+02
1.320000e-06	4.376814e-06	4.245427e-09	3.127714e+01	2.775698e+02
1.330000e-06	4.435928e-06	4.293160e-09	3.169957e+01	2.808309e+02
1.340000e-06	4.493285e-06	4.338197e-09	3.210946e+01	2.839588e+02
1.350000e-06	4.548845e-06	4.381834e-09	3.250649e+01	2.869535e+02
1.360000e-06	4.602809e-06	4.423997e-09	3.289212e+01	2.898104e+02
1.370000e-06	4.655023e-06	4.462497e-09	3.326525e+01	2.925221e+02
1.380000e-06	4.705239e-06	4.497399e-09	3.362410e+01	2.950805e+02
1.390000e-06	4.753517e-06	4.531003e-09	3.396910e+01	2.974800e+02
1.400000e-06	4.800101e-06	4.562385e-09	3.430199e+01	2.997200e+02
1.410000e-06	4.845079e-06	4.591063e-09	3.462341e+01	3.018065e+02
1.420000e-06	4.888506e-06	4.618374e-09	3.493374e+01	3.037514e+02
1.430000e-06	4.930138e-06	4.644738e-09	3.523125e+01	3.055710e+02
1.440000e-06	4.969870e-06	4.668756e-09	3.551518e+01	3.072829e+02
1.450000e-06	5.007989e-06	4.690672e-09	3.578758e+01	3.089026e+02
1.460000e-06	5.044499e-06	4.712499e-09	3.604849e+01	3.104405e+02
1.470000e-06	5.079195e-06	4.735377e-09	3.629642e+01	3.119004e+02
1.480000e-06	5.111921e-06	4.757121e-09	3.653028e+01	3.132794e+02
1.490000e-06	5.142799e-06	4.775609e-09	3.675094e+01	3.145702e+02
1.500000e-06	5.172050e-06	4.790912e-09	3.695998e+01	3.157639e+02
1.510000e-06	5.199651e-06	4.803888e-09	3.715721e+01	3.168536e+02
1.520000e-06	5.225244e-06	4.816560e-09	3.734010e+01	3.178374e+02
1.530000e-06	5.248737e-06	4.829569e-09	3.750799e+01	3.187194e+02
1.540000e-06	5.270387e-06	4.842698e-09	3.766270e+01	3.195096e+02
1.550000e-06	5.290364e-06	4.854845e-09	3.780546e+01	3.202214e+02
1.560000e-06	5.308501e-06	4.865450e-09	3.793506e+01	3.208683e+02
1.570000e-06	5.324592e-06	4.875387e-09	3.805006e+01	3.214600e+02
1.580000e-06	5.338749e-06	4.885071e-09	3.815122e+01	3.219998e+02
1.590000e-06	5.350965e-06	4.892918e-09	3.823852e+01	3.224835e+02
1.600000e-06	5.360946e-06	4.898531e-09	3.830984e+01	3.229004e+02
1.610000e-06	5.368753e-06	4.902618e-09	3.836563e+01	3.232361e+02
1.620000e-06	5.374758e-06	4.906878e-09	3.840855e+01	3.234769e+02
1.630000e-06	5.379081e-06	4.911629e-09	3.843944e+01	3.236136e+02
1.640000e-06	5.381537e-06	4.915155e-09	3.845699e+01	3.236448e+02
1.650000e-06	5.381958e-06	4.918268e-09	3.846000e+01	3.235778e+02
1.660000e-06	5.380520e-06	4.916254e-09	3.844972e+01	3.234278e+02
1.670000e-06	5.377400e-06	4.909729e-09	3.842742e+01	3.232139e+02
1.680000e-06	5.372605e-06	4.906836e-09	3.839316e+01	3.229551e+02
1.690000e-06	5.365914e-06	4.904140e-09	3.834535e+01	3.226653e+02
1.700000e-06	5.357435e-06	4.901059e-09	3.828475e+01	3.223499e+02
1.710000e-06	5.347438e-06	4.898259e-09	3.821331e+01	3.220046e+02
1.720000e-06	5.335777e-06	4.898556e-09	3.812999e+01	3.216163e+02
1.730000e-06	5.322158e-06	4.903315e-09	3.803266e+01	3.211671e+02
1.740000e-06	5.306387e-06	4.830320e-09	3.791996e+01	3.206387e+02
1.750000e-06	5.288231e-06	4.806939e-09	3.779022e+01	3.200180e+02
1.760000e-06	5.267435e-06	4.838368e-09	3.764161e+01	3.193006e+02
1.770000e-06	5.244337e-06	4.846894e-09	3.747655e+01	3.184926e+02
1.780000e-06	5.220001e-06	4.939447e-09	3.730264e+01	3.176096e+02
1.790000e-06	5.195025e-06	4.840519e-09	3.712415e+01	3.166730e+02
1.800000e-06	5.168590e-06	4.715248e-09	3.693525e+01	3.157049e+02
1.810000e-06	5.139996e-06	4.843050e-09	3.673092e+01	3.147228e+02
1.820000e-06	5.109704e-06	4.745469e-09	3.651445e+01	3.137347e+02
1.830000e-06	5.077695e-06	4.718578e-09	3.628570e+01	3.127369e+02
1.840000e-06	5.043625e-06	4.855330e-09	3.604224e+01	3.117142e+02
1.850000e-06	5.007961e-06	4.679245e-09	3.578738e+01	3.106431e+02
1.860000e-06	4.970497e-06	4.692809e-09	3.551965e+01	3.094962e+02
1.870000e-06	4.931040e-06	4.767152e-09	3.523770e+01	3.082483e+02
1.880000e-06	4.889946e-06	4.606137e-09	3.494403e+01	3.068808e+02
1.890000e-06	4.847042e-06	4.664395e-09	3.463744e+01	3.053853e+02
1.900000e-06	4.802588e-06	4.612610e-09	3.431976e+01	3.037648e+02
1.910000e-06	4.756438e-06	4.567729e-09	3.398997e+01	3.020316e+02
1.920000e-06	4.708165e-06	4.643014e-09	3.364501e+01	3.002041e+02
1.930000e-06	4.658224e-06	4.476813e-09	3.328812e+01	2.983025e+02
1.940000e-06	4.606643e-06	4.521736e-09	3.291952e+01	2.963442e+02
1.950000e-06	4.553082e-06	4.511836e-09	3.253677e+01	2.943407e+02
1.960000e-06	4.497549e-06	4.386172e-09	3.213993e+01	2.922957e+02
1.970000e-06	4.440241e-06	4.428807e-09	3.173039e+01	2.902057e+02
1.980000e-06	4.381491e-06	4.395201e-09	3.131057e+01	2.880621e+02
1.990000e-06	4.321326e-06	4.400754e-09	3.088062e+01	2.858535e+02
2.000000e-06	4.259488e-06	4.300333e-09	3.043872e+01	2.835691e+02
2.010000e-06	4.195964e-06	4.239069e-09	2.998477e+01	2.812011e+02
2.020000e-06	4.130902e-06	4.269035e-09	2.951983e+01	2.787457e+02
2.030000e-06	4.064384e-06	4.159810e-09	2.904449e+01	2.762037e+02
2.040000e-06	3.996550e-06	4.178513e-09	2.855974e+01	2.735790e+02
2.050000e-06	3.927308e-06	4.155657e-09	2.806493e+01	2.708773e+02
2.060000e-06	3.856477e-06	4.099611e-09	2.755876e+01	2.681043e+02
2.070000e-06	3.784236e-06	4.045813e-09	2.704252e+01	2.652643e+02
2.080000e-06	3.710671e-06	3.962034e-09	2.651682e+01	2.623597e+02
2.090000e-06	3.635757e-06	3.970708e-09	2.598148e+01	2.593906e+02
2.100000e-06	3.559527e-06	3.898158e-09	2.543673e+01	2.563555e+02
2.110000e-06	3.481632e-06	3.843229e-09	2.488008e+01	2.532522e+02
2.120000e-06	3.402202e-06	3.807673e-09	2.431247e+01	2.500782e+02
2.130000e-06	3.321714e-06	3.764452e-09	2.373729e+01	2.468314e+02
2.140000e-06	3.240148e-06	3.721645e-09	2.315441e+01	2.435102e+02
2.150000e-06	3.157441e-06	3.652714e-09	2.256338e+01	2.401136e+02
2.160000e-06	3.073746e-06	3.611456e-09	2.196529e+01	2.366404e+02
2.170000e-06	2.989138e-06	3.541807e-09	2.136067e+01	2.330897e+02
2.180000e-06	2.903138e-06	3.499114e-09	2.074610e+01	2.294600e+02
2.190000e-06	2.815771e-06	3.455637e-09	2.012178e+01	2.257503e+02
2.200000e-06	2.727526e-06	3.399582e-09	1.949117e+01	2.219594e+02
2.210000e-06	2.638380e-06	3.335615e-09	1.885412e+01	2.180867e+02
2.220000e-06	2.548219e-06	3.255412e-09	1.820982e+01	2.141322e+02
2.230000e-06	2.457137e-06	3.198591e-09	1.755894e+01	2.100960e+02
2.240000e-06	2.365359e-06	3.139175e-09	1.690309e+01	2.059782e+02
2.250000e-06	2.273015e-06	3.090073e-09	1.624319e+01	2.017780e+02
2.260000e-06	2.179968e-06	3.031058e-09	1.557827e+01	1.974937e+02
2.270000e-06	2.085802e-06	2.956834e-09	1.490535e+01	1.931224e+02
2.280000e-06	1.990442e-06	2.878081e-09	1.422389e+01	1.886600e+02
2.290000e-06	1.894307e-06	2.807755e-09	1.353690e+01	1.841024e+02
2.300000e-06	1.797723e-06	2.743516e-09	1.284670e+01	1.794461e+02
2.310000e-06	1.700703e-06	2.674997e-09	1.215339e+01	1.746890e+02
2.320000e-06	1.603097e-06	2.602319e-09	1.145589e+01	1.698316e+02
2.330000e-06	1.504900e-06	2.522902e-09	1.075417e+01	1.648761e+02
2.340000e-06	1.406172e-06	2.450483e-09	1.004864e+01	1.598265e+02
2.350000e-06	1.307013e-06	2.376018e-09	9.340041e+00	1.546868e+02
2.360000e-06	1.207530e-06	2.298774e-09	8.629127e+00	1.494602e+02
2.370000e-06	1.107777e-06	2.215761e-09	7.916280e+00	1.441469e+02
2.380000e-06	1.007806e-06	2.128872e-09	7.201877e+00	1.387442e+02
2.390000e-06	9.075789e-07	2.048379e-09	6.485647e+00	1.332458e+02
2.400000e-06	8.070398e-07	1.970275e-09	5.767186e+00	1.276433e+02
2.410000e-06	7.061758e-07	1.885239e-09	5.046402e+00	1.219274e+02
2.420000e-06	6.050970e-07	1.791386e-09	4.324082e+00	1.160898e+02
2.430000e-06	5.037675e-07	1.693723e-09	3.599972e+00	1.101249e+02
2.440000e-06	4.021532e-07	1.601669e-09	2.873826e+00	1.040307e+02
2.450000e-06	3.003597e-07	1.517615e-09	2.146400e+00	9.780865e+01
2.460000e-06	1.984276e-07	1.427623e-09	1.417983e+00	9.146234e+01
2.470000e-06	9.630160e-08	1.328054e-09	6.881806e-01	8.499552e+01
2.480000e-06	-6.043614e-09	1.218437e-09	-4.318826e-02	7.840976e+01
2.490000e-06	-1.083250e-07	1.105840e-09	-7.741012e-01	7.170246e+01
2.500000e-06	-2.104977e-07	1.001184e-09	-1.504237e+00	6.486562e+01
2.510000e-06	-3.125841e-07	9.008674e-10	-2.233756e+00	5.788597e+01
2.520000e-06	-4.144765e-07	7.957597e-10	-2.961890e+00	5.074625e+01
2.530000e-06	-5.161864e-07	6.821728e-10	-3.688719e+00	4.342758e+01
2.540000e-06	-6.176642e-07	5.649143e-10	-4.413889e+00	3.591224e+01
2.550000e-06	-7.187917e-07	4.475261e-10	-5.136556e+00	2.818639e+01
2.560000e-06	-8.196001e-07	3.264810e-10	-5.856943e+00	2.024198e+01
2.570000e-06	-9.201454e-07	1.988676e-10	-6.575449e+00	1.207763e+01
2.580000e-06	-1.020372e-06	6.709420e-11	-7.291676e+00	3.698404e+00
2.590000e-06	-1.120284e-06	-6.651544e-11	-8.005658e+00	-4.885395e+00
2.600000e-06	-1.219905e-06	-1.996551e-10	-8.717559e+00	-1.365977e+01
2.610000e-06	-1.319134e-06	-3.327865e-10	-9.426663e+00	-2.260849e+01
2.620000e-06	-1.417849e-06	-4.700505e-10	-1.013209e+01	-3.171399e+01
2.630000e-06	-1.516035e-06	-6.125817e-10	-1.083373e+01	-4.095736e+01
2.640000e-06	-1.613656e-06	-7.565991e-10	-1.153134e+01	-5.031764e+01
2.650000e-06	-1.710714e-06	-8.986735e-10	-1.222493e+01	-5.977062e+01
2.660000e-06	-1.807250e-06	-1.040247e-09	-1.291478e+01	-6.928764e+01
2.670000e-06	-1.903342e-06	-1.184700e-09	-1.360147e+01	-7.883493e+01
2.680000e-06	-1.998896e-06	-1.333086e-09	-1.428431e+01	-8.837392e+01
2.690000e-06	-2.093564e-06	-1.480330e-09	-1.496081e+01	-9.786252e+01
2.700000e-06	-2.187099e-06	-1.624691e-09	-1.562922e+01	-1.072573e+02
2.710000e-06	-2.279674e-06	-1.766283e-09	-1.629078e+01	-1.165161e+02
2.720000e-06	-2.371505e-06	-1.903307e-09	-1.694701e+01	-1.256008e+02
2.730000e-06	-2.462524e-06	-2.038807e-09	-1.759743e+01	-1.344791e+02
2.740000e-06	-2.552622e-06	-2.172171e-09	-1.824129e+01	-1.431255e+02
2.750000e-06	-2.641809e-06	-2.302702e-09	-1.887863e+01	-1.515214e+02
2.760000e-06	-2.730196e-06	-2.427784e-09	-1.951025e+01	-1.596543e+02
2.770000e-06	-2.817815e-06	-2.546850e-09	-2.013638e+01	-1.675161e+02
2.780000e-06	-2.904411e-06	-2.662741e-09	-2.075520e+01	-1.751022e+02
2.790000e-06	-2.989759e-06	-2.775347e-09	-2.136511e+01	-1.824099e+02
2.800000e-06	-3.074028e-06	-2.884607e-09	-2.196730e+01	-1.894385e+02
2.810000e-06	-3.157281e-06	-2.989450e-09	-2.256224e+01	-1.961896e+02
2.820000e-06	-3.239471e-06	-3.087758e-09	-2.314957e+01	-2.026672e+02
2.830000e-06	-3.320594e-06	-3.181325e-09	-2.372929e+01	-2.088791e+02
2.840000e-06	-3.400703e-06	-3.272289e-09	-2.430176e+01	-2.148360e+02
2.850000e-06	-3.479597e-06	-3.359686e-09	-2.486554e+01	-2.205519e+02
2.860000e-06	-3.556907e-06	-3.443449e-09	-2.541800e+01	-2.260420e+02
2.870000e-06	-3.632719e-06	-3.521706e-09	-2.595977e+01	-2.313217e+02
2.880000e-06	-3.707197e-06	-3.596202e-09	-2.649199e+01	-2.364041e+02
2.890000e-06	-3.780368e-06	-3.670201e-09	-2.701488e+01	-2.412991e+02
2.900000e-06	-3.852223e-06	-3.744469e-09	-2.752837e+01	-2.460126e+02
2.910000e-06	-3.922575e-06	-3.816438e-09	-2.803111e+01	-2.505473e+02
2.920000e-06	-3.991327e-06	-3.883052e-09	-2.852241e+01	-2.549037e+02
2.930000e-06	-4.058691e-06	-3.946036e-09	-2.900380e+01	-2.590820e+02
2.940000e-06	-4.124723e-06	-4.008240e-09	-2.947567e+01	-2.630843e+02
