# Temperatura_=_24.96
# Concentracion g/m^3_=_15000.0
# C_Vs_to_Am_M_A/Vsm_=_65563218390.804596
# pendiente_HvsI_1/m_=_3716.3
# ordenada_HvsI_A/m_=_1297.0
# frecuencia_Hz_=_301579.18402252824

Tiempo_(s)	Campo_(V.s)	Magnetizacion_(V.s)	Campo_(kA/m)	Magnetizacion_(A/m)
0.000000e+00	-5.379317e-06	-4.511121e-09	-3.834167e+01	-2.939886e+02
1.000000e-08	-5.376422e-06	-4.512275e-09	-3.832103e+01	-2.939147e+02
2.000000e-08	-5.371781e-06	-4.506716e-09	-3.828795e+01	-2.937909e+02
3.000000e-08	-5.365556e-06	-4.498899e-09	-3.824358e+01	-2.936071e+02
4.000000e-08	-5.357716e-06	-4.492788e-09	-3.818770e+01	-2.933544e+02
5.000000e-08	-5.348039e-06	-4.486606e-09	-3.811873e+01	-2.930287e+02
6.000000e-08	-5.336346e-06	-4.481158e-09	-3.803538e+01	-2.926326e+02
7.000000e-08	-5.322722e-06	-4.479211e-09	-3.793828e+01	-2.921757e+02
8.000000e-08	-5.306928e-06	-4.470576e-09	-3.782570e+01	-2.916723e+02
9.000000e-08	-5.288880e-06	-4.483052e-09	-3.769707e+01	-2.911382e+02
1.000000e-07	-5.268812e-06	-4.490870e-09	-3.755403e+01	-2.905855e+02
1.100000e-07	-5.246883e-06	-4.460477e-09	-3.739773e+01	-2.900192e+02
1.200000e-07	-5.223307e-06	-4.435794e-09	-3.722969e+01	-2.894338e+02
1.300000e-07	-5.198180e-06	-4.393530e-09	-3.705059e+01	-2.888136e+02
1.400000e-07	-5.171425e-06	-4.338247e-09	-3.685989e+01	-2.881353e+02
1.500000e-07	-5.143044e-06	-4.411299e-09	-3.665761e+01	-2.873720e+02
1.600000e-07	-5.113239e-06	-4.419924e-09	-3.644517e+01	-2.864997e+02
1.700000e-07	-5.081842e-06	-4.393078e-09	-3.622138e+01	-2.855024e+02
1.800000e-07	-5.048340e-06	-4.420239e-09	-3.598259e+01	-2.843761e+02
1.900000e-07	-5.013010e-06	-4.287883e-09	-3.573077e+01	-2.831302e+02
2.000000e-07	-4.976190e-06	-4.230219e-09	-3.546833e+01	-2.817855e+02
2.100000e-07	-4.937602e-06	-4.296293e-09	-3.519329e+01	-2.803700e+02
2.200000e-07	-4.897163e-06	-4.266681e-09	-3.490506e+01	-2.789129e+02
2.300000e-07	-4.854758e-06	-4.256817e-09	-3.460281e+01	-2.774383e+02
2.400000e-07	-4.810445e-06	-4.239712e-09	-3.428697e+01	-2.759603e+02
2.500000e-07	-4.764385e-06	-4.161069e-09	-3.395867e+01	-2.744805e+02
2.600000e-07	-4.716433e-06	-4.178415e-09	-3.361689e+01	-2.729886e+02
2.700000e-07	-4.666407e-06	-4.176126e-09	-3.326032e+01	-2.714655e+02
2.800000e-07	-4.614314e-06	-4.138304e-09	-3.288902e+01	-2.698881e+02
2.900000e-07	-4.560363e-06	-4.088141e-09	-3.250448e+01	-2.682355e+02
3.000000e-07	-4.504834e-06	-4.043897e-09	-3.210869e+01	-2.664931e+02
3.100000e-07	-4.447687e-06	-4.043242e-09	-3.170137e+01	-2.646561e+02
3.200000e-07	-4.388760e-06	-4.035742e-09	-3.128136e+01	-2.627291e+02
3.300000e-07	-4.328262e-06	-4.007881e-09	-3.085015e+01	-2.607245e+02
3.400000e-07	-4.266322e-06	-3.934293e-09	-3.040867e+01	-2.586581e+02
3.500000e-07	-4.202950e-06	-3.876878e-09	-2.995698e+01	-2.565451e+02
3.600000e-07	-4.138107e-06	-3.872318e-09	-2.949480e+01	-2.543957e+02
3.700000e-07	-4.071533e-06	-3.870874e-09	-2.902029e+01	-2.522129e+02
3.800000e-07	-4.003352e-06	-3.852756e-09	-2.853432e+01	-2.499922e+02
3.900000e-07	-3.933897e-06	-3.794977e-09	-2.803928e+01	-2.477231e+02
4.000000e-07	-3.863213e-06	-3.723356e-09	-2.753547e+01	-2.453926e+02
4.100000e-07	-3.791216e-06	-3.679588e-09	-2.702230e+01	-2.429882e+02
4.200000e-07	-3.717811e-06	-3.648085e-09	-2.649910e+01	-2.405015e+02
4.300000e-07	-3.642892e-06	-3.638304e-09	-2.596510e+01	-2.379295e+02
4.400000e-07	-3.566460e-06	-3.610513e-09	-2.542033e+01	-2.352751e+02
4.500000e-07	-3.488595e-06	-3.551137e-09	-2.486534e+01	-2.325453e+02
4.600000e-07	-3.409302e-06	-3.486238e-09	-2.430017e+01	-2.297488e+02
4.700000e-07	-3.328696e-06	-3.446608e-09	-2.372564e+01	-2.268932e+02
4.800000e-07	-3.246908e-06	-3.425632e-09	-2.314269e+01	-2.239829e+02
4.900000e-07	-3.163957e-06	-3.374782e-09	-2.255144e+01	-2.210179e+02
5.000000e-07	-3.079969e-06	-3.313543e-09	-2.195281e+01	-2.179939e+02
5.100000e-07	-2.995107e-06	-3.258861e-09	-2.134795e+01	-2.149041e+02
5.200000e-07	-2.909312e-06	-3.214827e-09	-2.073643e+01	-2.117408e+02
5.300000e-07	-2.822511e-06	-3.173305e-09	-2.011775e+01	-2.084975e+02
5.400000e-07	-2.734756e-06	-3.126326e-09	-1.949227e+01	-2.051705e+02
5.500000e-07	-2.646047e-06	-3.064882e-09	-1.885999e+01	-2.017592e+02
5.600000e-07	-2.556267e-06	-2.992596e-09	-1.822007e+01	-1.982654e+02
5.700000e-07	-2.465341e-06	-2.938847e-09	-1.757198e+01	-1.946922e+02
5.800000e-07	-2.373484e-06	-2.900520e-09	-1.691726e+01	-1.910418e+02
5.900000e-07	-2.280941e-06	-2.851726e-09	-1.625766e+01	-1.873149e+02
6.000000e-07	-2.187626e-06	-2.780206e-09	-1.559254e+01	-1.835094e+02
6.100000e-07	-2.093480e-06	-2.707752e-09	-1.492151e+01	-1.796212e+02
6.200000e-07	-1.998613e-06	-2.643521e-09	-1.424533e+01	-1.756451e+02
6.300000e-07	-1.903030e-06	-2.585054e-09	-1.356405e+01	-1.715765e+02
6.400000e-07	-1.806724e-06	-2.533249e-09	-1.287762e+01	-1.674127e+02
6.500000e-07	-1.709767e-06	-2.477852e-09	-1.218655e+01	-1.631541e+02
6.600000e-07	-1.612215e-06	-2.406670e-09	-1.149124e+01	-1.588037e+02
6.700000e-07	-1.513918e-06	-2.324450e-09	-1.079062e+01	-1.543668e+02
6.800000e-07	-1.414885e-06	-2.251418e-09	-1.008475e+01	-1.498489e+02
6.900000e-07	-1.315327e-06	-2.186546e-09	-9.375138e+00	-1.452537e+02
7.000000e-07	-1.215385e-06	-2.118232e-09	-8.662785e+00	-1.405823e+02
7.100000e-07	-1.115195e-06	-2.042229e-09	-7.948677e+00	-1.358314e+02
7.200000e-07	-1.014757e-06	-1.965133e-09	-7.232791e+00	-1.309942e+02
7.300000e-07	-9.140481e-07	-1.889021e-09	-6.514977e+00	-1.260614e+02
7.400000e-07	-8.130231e-07	-1.816059e-09	-5.794910e+00	-1.210227e+02
7.500000e-07	-7.116535e-07	-1.743063e-09	-5.072388e+00	-1.158690e+02
7.600000e-07	-6.100197e-07	-1.662348e-09	-4.347981e+00	-1.105938e+02
7.700000e-07	-5.081376e-07	-1.573240e-09	-3.621805e+00	-1.051941e+02
7.800000e-07	-4.060898e-07	-1.481988e-09	-2.894449e+00	-9.967000e+01
7.900000e-07	-3.039288e-07	-1.398085e-09	-2.166285e+00	-9.402400e+01
8.000000e-07	-2.016495e-07	-1.314989e-09	-1.437279e+00	-8.825927e+01
8.100000e-07	-9.929580e-08	-1.227662e-09	-7.077415e-01	-8.237821e+01
8.200000e-07	3.093271e-09	-1.135538e-09	2.204763e-02	-7.638122e+01
8.300000e-07	1.054965e-07	-1.040963e-09	7.519376e-01	-7.026621e+01
8.400000e-07	2.079026e-07	-9.469631e-10	1.481849e+00	-6.402880e+01
8.500000e-07	3.102849e-07	-8.538952e-10	2.211589e+00	-5.766312e+01
8.600000e-07	4.126041e-07	-7.596078e-10	2.940880e+00	-5.116282e+01
8.700000e-07	5.148059e-07	-6.576518e-10	3.669335e+00	-4.452194e+01
8.800000e-07	6.168485e-07	-5.517891e-10	4.396655e+00	-3.773537e+01
8.900000e-07	7.186835e-07	-4.464716e-10	5.122494e+00	-3.079879e+01
9.000000e-07	8.202640e-07	-3.415668e-10	5.846520e+00	-2.370815e+01
9.100000e-07	9.215659e-07	-2.337461e-10	6.568561e+00	-1.645911e+01
9.200000e-07	1.022529e-06	-1.234775e-10	7.288184e+00	-9.046581e+00
9.300000e-07	1.123085e-06	-1.037165e-11	8.004909e+00	-1.465033e+00
9.400000e-07	1.223291e-06	1.082173e-10	8.719137e+00	6.290544e+00
9.500000e-07	1.323165e-06	2.286133e-10	9.431005e+00	1.422292e+01
9.600000e-07	1.422601e-06	3.482127e-10	1.013974e+01	2.233050e+01
9.700000e-07	1.521422e-06	4.694647e-10	1.084410e+01	3.060531e+01
9.800000e-07	1.619503e-06	5.971499e-10	1.154319e+01	3.903149e+01
9.900000e-07	1.716817e-06	7.286709e-10	1.223680e+01	4.758483e+01
1.000000e-06	1.813396e-06	8.614137e-10	1.292518e+01	5.623355e+01
1.010000e-06	1.909294e-06	9.924269e-10	1.360870e+01	6.494006e+01
1.020000e-06	2.004464e-06	1.122946e-09	1.428704e+01	7.366362e+01
1.030000e-06	2.098907e-06	1.255013e-09	1.496019e+01	8.236311e+01
1.040000e-06	2.192704e-06	1.388170e-09	1.562873e+01	9.099955e+01
1.050000e-06	2.285794e-06	1.519598e-09	1.629224e+01	9.953784e+01
1.060000e-06	2.378152e-06	1.643961e-09	1.695054e+01	1.079475e+02
1.070000e-06	2.469824e-06	1.763087e-09	1.760394e+01	1.162026e+02
1.080000e-06	2.560632e-06	1.880895e-09	1.825118e+01	1.242807e+02
1.090000e-06	2.650304e-06	2.001453e-09	1.889033e+01	1.321624e+02
1.100000e-06	2.738810e-06	2.123412e-09	1.952116e+01	1.398298e+02
1.110000e-06	2.826348e-06	2.239443e-09	2.014510e+01	1.472672e+02
1.120000e-06	2.912953e-06	2.346324e-09	2.076239e+01	1.544610e+02
1.130000e-06	2.998614e-06	2.449623e-09	2.137294e+01	1.614007e+02
1.140000e-06	3.083355e-06	2.553104e-09	2.197695e+01	1.680802e+02
1.150000e-06	3.167213e-06	2.652659e-09	2.257466e+01	1.744984e+02
1.160000e-06	3.250067e-06	2.746382e-09	2.316520e+01	1.806597e+02
1.170000e-06	3.331627e-06	2.834948e-09	2.374653e+01	1.865730e+02
1.180000e-06	3.411888e-06	2.919752e-09	2.431860e+01	1.922509e+02
1.190000e-06	3.490919e-06	3.003323e-09	2.488190e+01	1.977075e+02
1.200000e-06	3.568718e-06	3.086996e-09	2.543642e+01	2.029567e+02
1.210000e-06	3.645344e-06	3.167945e-09	2.598258e+01	2.080109e+02
1.220000e-06	3.720677e-06	3.243803e-09	2.651953e+01	2.128796e+02
1.230000e-06	3.794400e-06	3.313747e-09	2.704500e+01	2.175698e+02
1.240000e-06	3.866518e-06	3.379884e-09	2.755902e+01	2.220861e+02
1.250000e-06	3.937247e-06	3.444183e-09	2.806316e+01	2.264321e+02
1.260000e-06	4.006579e-06	3.506684e-09	2.855732e+01	2.306109e+02
1.270000e-06	4.074622e-06	3.567056e-09	2.904231e+01	2.346261e+02
1.280000e-06	4.141241e-06	3.624382e-09	2.951715e+01	2.384814e+02
1.290000e-06	4.206083e-06	3.680089e-09	2.997931e+01	2.421805e+02
1.300000e-06	4.269345e-06	3.732332e-09	3.043022e+01	2.457266e+02
1.310000e-06	4.331205e-06	3.782048e-09	3.087113e+01	2.491210e+02
1.320000e-06	4.391710e-06	3.830917e-09	3.130239e+01	2.523635e+02
1.330000e-06	4.450820e-06	3.875667e-09	3.172370e+01	2.554523e+02
1.340000e-06	4.508175e-06	3.915191e-09	3.213250e+01	2.583852e+02
1.350000e-06	4.563748e-06	3.952535e-09	3.252861e+01	2.611606e+02
1.360000e-06	4.617711e-06	3.990349e-09	3.291323e+01	2.637789e+02
1.370000e-06	4.669943e-06	4.027013e-09	3.328553e+01	2.662439e+02
1.380000e-06	4.720216e-06	4.060482e-09	3.364385e+01	2.685627e+02
1.390000e-06	4.768468e-06	4.091104e-09	3.398778e+01	2.707452e+02
1.400000e-06	4.814953e-06	4.119911e-09	3.431910e+01	2.728027e+02
1.410000e-06	4.859893e-06	4.148286e-09	3.463941e+01	2.747462e+02
1.420000e-06	4.903308e-06	4.175421e-09	3.494886e+01	2.765847e+02
1.430000e-06	4.944872e-06	4.200745e-09	3.524511e+01	2.783235e+02
1.440000e-06	4.984577e-06	4.223953e-09	3.552811e+01	2.799646e+02
1.450000e-06	5.022655e-06	4.243372e-09	3.579952e+01	2.815071e+02
1.460000e-06	5.059132e-06	4.261829e-09	3.605951e+01	2.829489e+02
1.470000e-06	5.093916e-06	4.281633e-09	3.630744e+01	2.842883e+02
1.480000e-06	5.126745e-06	4.301579e-09	3.654143e+01	2.855265e+02
1.490000e-06	5.157671e-06	4.319226e-09	3.676186e+01	2.866676e+02
1.500000e-06	5.186922e-06	4.333331e-09	3.697035e+01	2.877191e+02
1.510000e-06	5.214478e-06	4.347415e-09	3.716676e+01	2.886905e+02
1.520000e-06	5.240063e-06	4.361179e-09	3.734912e+01	2.895908e+02
1.530000e-06	5.263591e-06	4.373446e-09	3.751682e+01	2.904270e+02
1.540000e-06	5.285242e-06	4.385063e-09	3.767113e+01	2.912019e+02
1.550000e-06	5.305205e-06	4.394855e-09	3.781342e+01	2.919135e+02
1.560000e-06	5.323322e-06	4.404341e-09	3.794255e+01	2.925560e+02
1.570000e-06	5.339361e-06	4.414925e-09	3.805687e+01	2.931211e+02
1.580000e-06	5.353449e-06	4.424850e-09	3.815729e+01	2.936013e+02
1.590000e-06	5.365586e-06	4.431910e-09	3.824379e+01	2.939922e+02
1.600000e-06	5.375547e-06	4.435679e-09	3.831480e+01	2.942943e+02
1.610000e-06	5.383401e-06	4.437793e-09	3.837077e+01	2.945137e+02
1.620000e-06	5.389368e-06	4.441346e-09	3.841331e+01	2.946608e+02
1.630000e-06	5.393518e-06	4.446076e-09	3.844288e+01	2.947482e+02
1.640000e-06	5.395717e-06	4.449353e-09	3.845856e+01	2.947873e+02
1.650000e-06	5.395919e-06	4.450532e-09	3.846000e+01	2.947857e+02
1.660000e-06	5.394324e-06	4.449491e-09	3.844863e+01	2.947451e+02
1.670000e-06	5.391123e-06	4.445093e-09	3.842582e+01	2.946611e+02
1.680000e-06	5.386270e-06	4.444649e-09	3.839123e+01	2.945252e+02
1.690000e-06	5.379522e-06	4.444524e-09	3.834313e+01	2.943272e+02
1.700000e-06	5.370953e-06	4.441448e-09	3.828205e+01	2.940589e+02
1.710000e-06	5.360799e-06	4.438121e-09	3.820968e+01	2.937175e+02
1.720000e-06	5.348930e-06	4.432948e-09	3.812508e+01	2.933073e+02
1.730000e-06	5.335028e-06	4.429781e-09	3.802599e+01	2.928390e+02
1.740000e-06	5.319046e-06	4.404452e-09	3.791208e+01	2.923276e+02
1.750000e-06	5.300754e-06	4.371585e-09	3.778170e+01	2.917886e+02
1.760000e-06	5.279784e-06	4.384769e-09	3.763223e+01	2.912328e+02
1.770000e-06	5.256559e-06	4.391546e-09	3.746669e+01	2.906631e+02
1.780000e-06	5.232144e-06	4.421635e-09	3.729267e+01	2.900718e+02
1.790000e-06	5.206996e-06	4.433656e-09	3.711343e+01	2.894412e+02
1.800000e-06	5.180293e-06	4.316662e-09	3.692310e+01	2.887468e+02
1.810000e-06	5.151455e-06	4.335984e-09	3.671755e+01	2.879619e+02
1.820000e-06	5.120893e-06	4.343216e-09	3.649972e+01	2.870637e+02
1.830000e-06	5.088579e-06	4.264169e-09	3.626940e+01	2.860386e+02
1.840000e-06	5.054300e-06	4.388426e-09	3.602507e+01	2.848853e+02
1.850000e-06	5.018431e-06	4.406050e-09	3.576941e+01	2.836161e+02
1.860000e-06	4.980833e-06	4.295815e-09	3.550143e+01	2.822536e+02
1.870000e-06	4.941305e-06	4.301963e-09	3.521969e+01	2.808267e+02
1.880000e-06	4.900057e-06	4.212643e-09	3.492569e+01	2.793640e+02
1.890000e-06	4.857010e-06	4.213171e-09	3.461887e+01	2.778878e+02
1.900000e-06	4.812355e-06	4.276033e-09	3.430058e+01	2.764096e+02
1.910000e-06	4.765912e-06	4.182925e-09	3.396956e+01	2.749284e+02
1.920000e-06	4.717420e-06	4.189243e-09	3.362392e+01	2.734315e+02
1.930000e-06	4.667284e-06	4.142887e-09	3.326657e+01	2.718986e+02
1.940000e-06	4.615381e-06	4.109031e-09	3.289662e+01	2.703066e+02
1.950000e-06	4.561416e-06	4.148436e-09	3.251198e+01	2.686355e+02
1.960000e-06	4.505504e-06	4.080513e-09	3.211347e+01	2.668729e+02
1.970000e-06	4.447923e-06	4.045957e-09	3.170306e+01	2.650157e+02
1.980000e-06	4.388978e-06	3.989491e-09	3.128292e+01	2.630708e+02
1.990000e-06	4.328503e-06	3.990106e-09	3.085188e+01	2.610514e+02
2.000000e-06	4.266303e-06	4.019778e-09	3.040853e+01	2.589739e+02
2.010000e-06	4.202501e-06	3.929796e-09	2.995378e+01	2.568523e+02
2.020000e-06	4.137216e-06	3.898178e-09	2.948845e+01	2.546957e+02
2.030000e-06	4.070517e-06	3.840214e-09	2.901305e+01	2.525053e+02
2.040000e-06	4.002415e-06	3.806024e-09	2.852765e+01	2.502751e+02
2.050000e-06	3.932884e-06	3.812026e-09	2.803205e+01	2.479939e+02
2.060000e-06	3.861810e-06	3.792604e-09	2.752547e+01	2.456483e+02
2.070000e-06	3.789319e-06	3.783921e-09	2.700878e+01	2.432267e+02
2.080000e-06	3.715511e-06	3.674056e-09	2.648271e+01	2.407217e+02
2.090000e-06	3.640306e-06	3.604724e-09	2.594668e+01	2.381315e+02
2.100000e-06	3.563705e-06	3.594441e-09	2.540069e+01	2.354602e+02
2.110000e-06	3.485564e-06	3.584752e-09	2.484374e+01	2.327153e+02
2.120000e-06	3.406032e-06	3.551773e-09	2.427686e+01	2.299054e+02
2.130000e-06	3.325367e-06	3.476422e-09	2.370192e+01	2.270378e+02
2.140000e-06	3.243547e-06	3.441879e-09	2.311874e+01	2.241158e+02
2.150000e-06	3.160618e-06	3.387602e-09	2.252765e+01	2.211385e+02
2.160000e-06	3.076657e-06	3.348835e-09	2.192921e+01	2.181010e+02
2.170000e-06	2.991629e-06	3.321446e-09	2.132316e+01	2.149960e+02
2.180000e-06	2.905339e-06	3.265150e-09	2.070812e+01	2.118159e+02
2.190000e-06	2.817765e-06	3.193287e-09	2.008393e+01	2.085547e+02
2.200000e-06	2.729219e-06	3.135692e-09	1.945280e+01	2.052095e+02
2.210000e-06	2.639797e-06	3.117195e-09	1.881544e+01	2.017802e+02
2.220000e-06	2.549432e-06	3.075470e-09	1.817135e+01	1.982691e+02
2.230000e-06	2.458255e-06	3.008485e-09	1.752148e+01	1.946790e+02
2.240000e-06	2.366337e-06	2.937924e-09	1.686632e+01	1.910122e+02
2.250000e-06	2.273595e-06	2.884931e-09	1.620530e+01	1.872686e+02
2.260000e-06	2.180042e-06	2.836764e-09	1.553849e+01	1.834457e+02
2.270000e-06	2.085566e-06	2.789509e-09	1.486510e+01	1.795390e+02
2.280000e-06	1.990038e-06	2.737553e-09	1.418421e+01	1.755433e+02
2.290000e-06	1.893699e-06	2.656420e-09	1.349755e+01	1.714543e+02
2.300000e-06	1.796861e-06	2.569356e-09	1.280732e+01	1.672700e+02
2.310000e-06	1.699523e-06	2.505343e-09	1.211353e+01	1.629913e+02
2.320000e-06	1.601648e-06	2.464188e-09	1.141592e+01	1.586218e+02
2.330000e-06	1.503289e-06	2.410342e-09	1.071486e+01	1.541670e+02
2.340000e-06	1.404478e-06	2.337174e-09	1.001057e+01	1.496321e+02
2.350000e-06	1.305150e-06	2.258086e-09	9.302600e+00	1.450206e+02
2.360000e-06	1.205360e-06	2.183966e-09	8.591337e+00	1.403324e+02
2.370000e-06	1.105344e-06	2.116818e-09	7.878459e+00	1.355636e+02
2.380000e-06	1.005097e-06	2.048749e-09	7.163940e+00	1.307067e+02
2.390000e-06	9.044766e-07	1.972088e-09	6.446755e+00	1.257520e+02
2.400000e-06	8.034384e-07	1.883276e-09	5.726595e+00	1.206892e+02
2.410000e-06	7.020701e-07	1.797057e-09	5.004081e+00	1.155098e+02
2.420000e-06	6.005399e-07	1.722895e-09	4.280413e+00	1.102080e+02
2.430000e-06	4.988371e-07	1.653262e-09	3.555516e+00	1.047814e+02
2.440000e-06	3.969134e-07	1.575465e-09	2.829043e+00	9.923080e+01
2.450000e-06	2.947551e-07	1.486836e-09	2.100899e+00	9.355899e+01
2.460000e-06	1.924612e-07	1.391050e-09	1.371788e+00	8.776909e+01
2.470000e-06	9.007451e-08	1.297542e-09	6.420158e-01	8.186313e+01
2.480000e-06	-1.242028e-08	1.208229e-09	-8.852686e-02	7.584100e+01
2.490000e-06	-1.149513e-07	1.115636e-09	-8.193280e-01	6.970009e+01
2.500000e-06	-2.174771e-07	1.014448e-09	-1.550091e+00	6.343562e+01
2.510000e-06	-3.198967e-07	9.102357e-10	-2.280098e+00	5.704153e+01
2.520000e-06	-4.222194e-07	8.123777e-10	-3.009415e+00	5.051148e+01
2.530000e-06	-5.243792e-07	7.174985e-10	-3.737570e+00	4.383967e+01
2.540000e-06	-6.263128e-07	6.193420e-10	-4.464112e+00	3.702119e+01
2.550000e-06	-7.279706e-07	5.131075e-10	-5.188689e+00	3.005184e+01
2.560000e-06	-8.292925e-07	3.962891e-10	-5.910872e+00	2.292755e+01
2.570000e-06	-9.302518e-07	2.747412e-10	-6.630470e+00	1.564382e+01
2.580000e-06	-1.030817e-06	1.579842e-10	-7.347257e+00	8.195440e+00
2.590000e-06	-1.130995e-06	4.506308e-11	-8.061290e+00	5.768719e-01
2.600000e-06	-1.230752e-06	-7.164600e-11	-8.772318e+00	-7.216575e+00
2.610000e-06	-1.330077e-06	-1.967329e-10	-9.480266e+00	-1.518692e+01
2.620000e-06	-1.428956e-06	-3.273583e-10	-1.018504e+01	-2.333137e+01
2.630000e-06	-1.527365e-06	-4.557605e-10	-1.088646e+01	-3.164033e+01
2.640000e-06	-1.625218e-06	-5.806517e-10	-1.158392e+01	-4.009617e+01
2.650000e-06	-1.722442e-06	-7.082485e-10	-1.227689e+01	-4.867297e+01
2.660000e-06	-1.819100e-06	-8.432352e-10	-1.296583e+01	-5.733749e+01
2.670000e-06	-1.915254e-06	-9.829420e-10	-1.365118e+01	-6.605124e+01
2.680000e-06	-2.010842e-06	-1.121189e-09	-1.433250e+01	-7.477317e+01
2.690000e-06	-2.105666e-06	-1.252888e-09	-1.500836e+01	-8.346241e+01
2.700000e-06	-2.199493e-06	-1.380339e-09	-1.567712e+01	-9.208073e+01
2.710000e-06	-2.292358e-06	-1.509915e-09	-1.633903e+01	-1.005940e+02
2.720000e-06	-2.384403e-06	-1.641287e-09	-1.699509e+01	-1.089727e+02
2.730000e-06	-2.475609e-06	-1.769759e-09	-1.764517e+01	-1.171917e+02
2.740000e-06	-2.565948e-06	-1.891871e-09	-1.828907e+01	-1.252294e+02
2.750000e-06	-2.655372e-06	-2.010266e-09	-1.892645e+01	-1.330667e+02
2.760000e-06	-2.743930e-06	-2.128158e-09	-1.955766e+01	-1.406862e+02
2.770000e-06	-2.831730e-06	-2.245122e-09	-2.018346e+01	-1.480725e+02
2.780000e-06	-2.918559e-06	-2.358231e-09	-2.080235e+01	-1.552127e+02
2.790000e-06	-3.004134e-06	-2.463090e-09	-2.141229e+01	-1.620971e+02
2.800000e-06	-3.088530e-06	-2.560701e-09	-2.201383e+01	-1.687206e+02
2.810000e-06	-3.171897e-06	-2.655239e-09	-2.260804e+01	-1.750834e+02
2.820000e-06	-3.254234e-06	-2.746963e-09	-2.319490e+01	-1.811907e+02
2.830000e-06	-3.335489e-06	-2.836610e-09	-2.377406e+01	-1.870525e+02
2.840000e-06	-3.415683e-06	-2.923517e-09	-2.434565e+01	-1.926819e+02
2.850000e-06	-3.494704e-06	-3.006427e-09	-2.490888e+01	-1.980930e+02
2.860000e-06	-3.572247e-06	-3.086213e-09	-2.546158e+01	-2.032997e+02
2.870000e-06	-3.648241e-06	-3.162345e-09	-2.600323e+01	-2.083135e+02
2.880000e-06	-3.722810e-06	-3.236974e-09	-2.653473e+01	-2.131435e+02
2.890000e-06	-3.795989e-06	-3.309332e-09	-2.705633e+01	-2.177962e+02
2.900000e-06	-3.867880e-06	-3.377194e-09	-2.756873e+01	-2.222758e+02
2.910000e-06	-3.938398e-06	-3.440484e-09	-2.807136e+01	-2.265859e+02
2.920000e-06	-4.007272e-06	-3.502615e-09	-2.856227e+01	-2.307294e+02
2.930000e-06	-4.074670e-06	-3.566272e-09	-2.904265e+01	-2.347101e+02
2.940000e-06	-4.140710e-06	-3.628648e-09	-2.951336e+01	-2.385317e+02
