# Temperatura_=_77.59
# Concentracion g/m^3_=_15000.0
# C_Vs_to_Am_M_A/Vsm_=_65563218390.804596
# pendiente_HvsI_1/m_=_3716.3
# ordenada_HvsI_A/m_=_1297.0
# frecuencia_Hz_=_301579.2263211007

Tiempo_(s)	Campo_(V.s)	Magnetizacion_(V.s)	Campo_(kA/m)	Magnetizacion_(A/m)
0.000000e+00	-5.383211e-06	-6.947374e-09	-3.833979e+01	-4.542531e+02
1.000000e-08	-5.380473e-06	-6.947856e-09	-3.832030e+01	-4.540172e+02
2.000000e-08	-5.375903e-06	-6.942227e-09	-3.828775e+01	-4.537080e+02
3.000000e-08	-5.369766e-06	-6.934355e-09	-3.824404e+01	-4.533311e+02
4.000000e-08	-5.362111e-06	-6.925529e-09	-3.818952e+01	-4.528856e+02
5.000000e-08	-5.352617e-06	-6.913884e-09	-3.812190e+01	-4.523640e+02
6.000000e-08	-5.341052e-06	-6.902022e-09	-3.803954e+01	-4.517542e+02
7.000000e-08	-5.327627e-06	-6.884167e-09	-3.794392e+01	-4.510430e+02
8.000000e-08	-5.312155e-06	-6.860775e-09	-3.783372e+01	-4.502199e+02
9.000000e-08	-5.294408e-06	-6.913698e-09	-3.770733e+01	-4.492808e+02
1.000000e-07	-5.274553e-06	-6.927507e-09	-3.756592e+01	-4.482294e+02
1.100000e-07	-5.252796e-06	-6.869597e-09	-3.741097e+01	-4.470770e+02
1.200000e-07	-5.229321e-06	-6.860126e-09	-3.724377e+01	-4.458409e+02
1.300000e-07	-5.204303e-06	-6.743703e-09	-3.706559e+01	-4.445399e+02
1.400000e-07	-5.177689e-06	-6.664026e-09	-3.687605e+01	-4.431899e+02
1.500000e-07	-5.149446e-06	-6.853228e-09	-3.667490e+01	-4.418001e+02
1.600000e-07	-5.119742e-06	-6.729624e-09	-3.646334e+01	-4.403695e+02
1.700000e-07	-5.088490e-06	-6.668963e-09	-3.624076e+01	-4.388871e+02
1.800000e-07	-5.055107e-06	-6.799617e-09	-3.600301e+01	-4.373330e+02
1.900000e-07	-5.019817e-06	-6.581012e-09	-3.575166e+01	-4.356824e+02
2.000000e-07	-4.983135e-06	-6.599156e-09	-3.549041e+01	-4.339099e+02
2.100000e-07	-4.944700e-06	-6.687389e-09	-3.521668e+01	-4.319947e+02
2.200000e-07	-4.904449e-06	-6.529035e-09	-3.493000e+01	-4.299237e+02
2.300000e-07	-4.862209e-06	-6.529911e-09	-3.462917e+01	-4.276940e+02
2.400000e-07	-4.817977e-06	-6.512860e-09	-3.431414e+01	-4.253124e+02
2.500000e-07	-4.772076e-06	-6.438974e-09	-3.398723e+01	-4.227934e+02
2.600000e-07	-4.724302e-06	-6.468159e-09	-3.364697e+01	-4.201555e+02
2.700000e-07	-4.674409e-06	-6.355817e-09	-3.329163e+01	-4.174176e+02
2.800000e-07	-4.622441e-06	-6.312498e-09	-3.292151e+01	-4.145952e+02
2.900000e-07	-4.568638e-06	-6.298600e-09	-3.253832e+01	-4.116981e+02
3.000000e-07	-4.513305e-06	-6.237211e-09	-3.214424e+01	-4.087291e+02
3.100000e-07	-4.456260e-06	-6.215920e-09	-3.173795e+01	-4.056850e+02
3.200000e-07	-4.397303e-06	-6.177563e-09	-3.131806e+01	-4.025581e+02
3.300000e-07	-4.336771e-06	-6.111690e-09	-3.088694e+01	-3.993385e+02
3.400000e-07	-4.274801e-06	-6.001745e-09	-3.044559e+01	-3.960165e+02
3.500000e-07	-4.211499e-06	-5.980682e-09	-2.999474e+01	-3.925848e+02
3.600000e-07	-4.146732e-06	-5.966581e-09	-2.953346e+01	-3.890390e+02
3.700000e-07	-4.080228e-06	-5.890749e-09	-2.905981e+01	-3.853787e+02
3.800000e-07	-4.012190e-06	-5.840833e-09	-2.857524e+01	-3.816063e+02
3.900000e-07	-3.942797e-06	-5.770414e-09	-2.808102e+01	-3.777263e+02
4.000000e-07	-3.872166e-06	-5.702937e-09	-2.757797e+01	-3.737445e+02
4.100000e-07	-3.800341e-06	-5.640299e-09	-2.706643e+01	-3.696666e+02
4.200000e-07	-3.727053e-06	-5.571063e-09	-2.654447e+01	-3.654975e+02
4.300000e-07	-3.652117e-06	-5.521629e-09	-2.601076e+01	-3.612408e+02
4.400000e-07	-3.575649e-06	-5.448324e-09	-2.546615e+01	-3.568986e+02
4.500000e-07	-3.497770e-06	-5.377073e-09	-2.491149e+01	-3.524709e+02
4.600000e-07	-3.418459e-06	-5.318409e-09	-2.434663e+01	-3.479559e+02
4.700000e-07	-3.337889e-06	-5.252297e-09	-2.377280e+01	-3.433500e+02
4.800000e-07	-3.256165e-06	-5.170931e-09	-2.319075e+01	-3.386480e+02
4.900000e-07	-3.173295e-06	-5.081859e-09	-2.260054e+01	-3.338436e+02
5.000000e-07	-3.089439e-06	-5.013857e-09	-2.200331e+01	-3.289303e+02
5.100000e-07	-3.004666e-06	-4.940715e-09	-2.139955e+01	-3.239022e+02
5.200000e-07	-2.918956e-06	-4.869262e-09	-2.078911e+01	-3.187550e+02
5.300000e-07	-2.832248e-06	-4.784125e-09	-2.017157e+01	-3.134869e+02
5.400000e-07	-2.744613e-06	-4.686635e-09	-1.954742e+01	-3.080984e+02
5.500000e-07	-2.656011e-06	-4.600098e-09	-1.891639e+01	-3.025923e+02
5.600000e-07	-2.566174e-06	-4.517549e-09	-1.827656e+01	-2.969726e+02
5.700000e-07	-2.475225e-06	-4.441295e-09	-1.762881e+01	-2.912433e+02
5.800000e-07	-2.383418e-06	-4.352892e-09	-1.697496e+01	-2.854068e+02
5.900000e-07	-2.290823e-06	-4.260081e-09	-1.631548e+01	-2.794625e+02
6.000000e-07	-2.197484e-06	-4.163556e-09	-1.565071e+01	-2.734070e+02
6.100000e-07	-2.103346e-06	-4.064982e-09	-1.498025e+01	-2.672336e+02
6.200000e-07	-2.008444e-06	-3.966368e-09	-1.430435e+01	-2.609339e+02
6.300000e-07	-1.912969e-06	-3.867952e-09	-1.362437e+01	-2.544997e+02
6.400000e-07	-1.816810e-06	-3.769941e-09	-1.293951e+01	-2.479247e+02
6.500000e-07	-1.719813e-06	-3.668426e-09	-1.224869e+01	-2.412060e+02
6.600000e-07	-1.622006e-06	-3.568235e-09	-1.155210e+01	-2.343451e+02
6.700000e-07	-1.523486e-06	-3.461148e-09	-1.085043e+01	-2.273472e+02
6.800000e-07	-1.424461e-06	-3.349682e-09	-1.014516e+01	-2.202201e+02
6.900000e-07	-1.325001e-06	-3.233601e-09	-9.436800e+00	-2.129716e+02
7.000000e-07	-1.225132e-06	-3.119135e-09	-8.725518e+00	-2.056069e+02
7.100000e-07	-1.124940e-06	-3.006260e-09	-8.011938e+00	-1.981269e+02
7.200000e-07	-1.024448e-06	-2.891878e-09	-7.296230e+00	-1.905265e+02
7.300000e-07	-9.236830e-07	-2.776516e-09	-6.578568e+00	-1.827944e+02
7.400000e-07	-8.225901e-07	-2.656285e-09	-5.858574e+00	-1.749152e+02
7.500000e-07	-7.211180e-07	-2.531962e-09	-5.135878e+00	-1.668705e+02
7.600000e-07	-6.194044e-07	-2.403561e-09	-4.411464e+00	-1.586424e+02
7.700000e-07	-5.174919e-07	-2.273076e-09	-3.685632e+00	-1.502155e+02
7.800000e-07	-4.153855e-07	-2.139929e-09	-2.958419e+00	-1.415789e+02
7.900000e-07	-3.131429e-07	-2.004383e-09	-2.230236e+00	-1.327262e+02
8.000000e-07	-2.107634e-07	-1.863558e-09	-1.501079e+00	-1.236554e+02
8.100000e-07	-1.082957e-07	-1.721280e-09	-7.712933e-01	-1.143667e+02
8.200000e-07	-5.814084e-09	-1.578193e-09	-4.140852e-02	-1.048609e+02
8.300000e-07	9.665579e-08	-1.429316e-09	6.883928e-01	-9.513763e+01
8.400000e-07	1.991515e-07	-1.277457e-09	1.418378e+00	-8.519338e+01
8.500000e-07	3.016419e-07	-1.123368e-09	2.148326e+00	-7.502181e+01
8.600000e-07	4.040659e-07	-9.652725e-10	2.877800e+00	-6.461408e+01
8.700000e-07	5.063460e-07	-7.996939e-10	3.606249e+00	-5.396020e+01
8.800000e-07	6.084336e-07	-6.296039e-10	4.333328e+00	-4.305057e+01
8.900000e-07	7.103691e-07	-4.563959e-10	5.059324e+00	-3.187742e+01
9.000000e-07	8.120527e-07	-2.807438e-10	5.783525e+00	-2.043579e+01
9.100000e-07	9.133784e-07	-1.033326e-10	6.505177e+00	-8.723936e+00
9.200000e-07	1.014359e-06	7.676018e-11	7.224369e+00	3.256735e+00
9.300000e-07	1.115020e-06	2.599014e-10	7.941290e+00	1.550173e+01
9.400000e-07	1.215346e-06	4.491937e-10	8.655823e+00	2.800329e+01
9.500000e-07	1.315273e-06	6.430257e-10	9.367516e+00	4.074965e+01
9.600000e-07	1.414747e-06	8.393524e-10	1.007598e+01	5.372351e+01
9.700000e-07	1.513716e-06	1.038451e-09	1.078085e+01	6.690015e+01
9.800000e-07	1.612043e-06	1.241547e-09	1.148114e+01	8.024551e+01
9.900000e-07	1.709653e-06	1.444975e-09	1.217633e+01	9.371485e+01
1.000000e-06	1.806537e-06	1.648262e-09	1.286635e+01	1.072527e+02
1.010000e-06	1.902549e-06	1.851662e-09	1.355016e+01	1.207943e+02
1.020000e-06	1.997807e-06	2.054722e-09	1.422859e+01	1.342689e+02
1.030000e-06	2.092440e-06	2.256628e-09	1.490258e+01	1.476044e+02
1.040000e-06	2.186306e-06	2.454630e-09	1.557110e+01	1.607322e+02
1.050000e-06	2.279378e-06	2.647892e-09	1.623397e+01	1.735924e+02
1.060000e-06	2.371764e-06	2.835762e-09	1.689196e+01	1.861372e+02
1.070000e-06	2.463475e-06	3.019106e-09	1.754513e+01	1.983331e+02
1.080000e-06	2.554422e-06	3.199078e-09	1.819286e+01	2.101604e+02
1.090000e-06	2.644383e-06	3.376753e-09	1.883357e+01	2.216111e+02
1.100000e-06	2.733111e-06	3.550270e-09	1.946550e+01	2.326854e+02
1.110000e-06	2.820743e-06	3.714488e-09	2.008963e+01	2.433877e+02
1.120000e-06	2.907499e-06	3.870994e-09	2.070751e+01	2.537230e+02
1.130000e-06	2.993317e-06	4.023220e-09	2.131872e+01	2.636947e+02
1.140000e-06	3.078195e-06	4.172448e-09	2.192323e+01	2.733035e+02
1.150000e-06	3.162174e-06	4.313029e-09	2.252134e+01	2.825481e+02
1.160000e-06	3.245174e-06	4.444925e-09	2.311247e+01	2.914271e+02
1.170000e-06	3.326986e-06	4.572280e-09	2.369515e+01	2.999408e+02
1.180000e-06	3.407467e-06	4.695229e-09	2.426834e+01	3.080928e+02
1.190000e-06	3.486763e-06	4.814165e-09	2.483309e+01	3.158917e+02
1.200000e-06	3.564894e-06	4.927844e-09	2.538955e+01	3.233500e+02
1.210000e-06	3.641753e-06	5.035782e-09	2.593695e+01	3.304838e+02
1.220000e-06	3.717288e-06	5.137865e-09	2.647491e+01	3.373105e+02
1.230000e-06	3.791266e-06	5.235751e-09	2.700180e+01	3.438475e+02
1.240000e-06	3.863591e-06	5.329815e-09	2.751690e+01	3.501105e+02
1.250000e-06	3.934492e-06	5.420520e-09	2.802187e+01	3.561133e+02
1.260000e-06	4.004025e-06	5.507385e-09	2.851709e+01	3.618680e+02
1.270000e-06	4.072157e-06	5.591872e-09	2.900233e+01	3.673857e+02
1.280000e-06	4.138863e-06	5.673424e-09	2.947742e+01	3.726782e+02
1.290000e-06	4.203889e-06	5.751547e-09	2.994054e+01	3.777580e+02
1.300000e-06	4.267287e-06	5.825865e-09	3.039207e+01	3.826388e+02
1.310000e-06	4.329281e-06	5.898441e-09	3.083359e+01	3.873342e+02
1.320000e-06	4.389897e-06	5.968926e-09	3.126531e+01	3.918567e+02
1.330000e-06	4.449127e-06	6.034545e-09	3.168715e+01	3.962156e+02
1.340000e-06	4.506680e-06	6.097723e-09	3.209705e+01	4.004155e+02
1.350000e-06	4.562448e-06	6.159190e-09	3.249424e+01	4.044560e+02
1.360000e-06	4.616623e-06	6.217656e-09	3.288007e+01	4.083320e+02
1.370000e-06	4.669100e-06	6.272010e-09	3.325382e+01	4.120356e+02
1.380000e-06	4.719620e-06	6.324198e-09	3.361363e+01	4.155586e+02
1.390000e-06	4.768095e-06	6.375565e-09	3.395887e+01	4.188949e+02
1.400000e-06	4.814771e-06	6.423624e-09	3.429131e+01	4.220428e+02
1.410000e-06	4.859869e-06	6.466174e-09	3.461250e+01	4.250064e+02
1.420000e-06	4.903430e-06	6.505525e-09	3.492274e+01	4.277948e+02
1.430000e-06	4.945198e-06	6.543914e-09	3.522022e+01	4.304203e+02
1.440000e-06	4.985076e-06	6.579498e-09	3.550424e+01	4.328967e+02
1.450000e-06	5.023272e-06	6.612265e-09	3.577627e+01	4.352355e+02
1.460000e-06	5.059861e-06	6.644419e-09	3.603686e+01	4.374445e+02
1.470000e-06	5.094765e-06	6.675910e-09	3.628545e+01	4.395262e+02
1.480000e-06	5.127646e-06	6.704304e-09	3.651963e+01	4.414789e+02
1.490000e-06	5.158644e-06	6.729759e-09	3.674040e+01	4.432974e+02
1.500000e-06	5.188038e-06	6.753275e-09	3.694975e+01	4.449765e+02
1.510000e-06	5.215789e-06	6.775643e-09	3.714740e+01	4.465127e+02
1.520000e-06	5.241601e-06	6.795738e-09	3.733123e+01	4.479068e+02
1.530000e-06	5.265322e-06	6.813831e-09	3.750018e+01	4.491641e+02
1.540000e-06	5.287166e-06	6.829185e-09	3.765576e+01	4.502934e+02
1.550000e-06	5.307303e-06	6.842617e-09	3.779917e+01	4.513058e+02
1.560000e-06	5.325594e-06	6.857233e-09	3.792944e+01	4.522114e+02
1.570000e-06	5.341842e-06	6.871392e-09	3.804516e+01	4.530171e+02
1.580000e-06	5.356137e-06	6.884582e-09	3.814697e+01	4.537252e+02
1.590000e-06	5.368487e-06	6.895073e-09	3.823493e+01	4.543330e+02
1.600000e-06	5.378666e-06	6.901745e-09	3.830742e+01	4.548343e+02
1.610000e-06	5.386676e-06	6.905932e-09	3.836448e+01	4.552219e+02
1.620000e-06	5.392781e-06	6.910334e-09	3.840795e+01	4.554900e+02
1.630000e-06	5.397129e-06	6.914687e-09	3.843892e+01	4.556374e+02
1.640000e-06	5.399641e-06	6.916422e-09	3.845681e+01	4.556682e+02
1.650000e-06	5.400089e-06	6.918788e-09	3.846000e+01	4.555917e+02
1.660000e-06	5.398615e-06	6.917029e-09	3.844950e+01	4.554205e+02
1.670000e-06	5.395514e-06	6.908296e-09	3.842742e+01	4.551677e+02
1.680000e-06	5.390837e-06	6.904646e-09	3.839411e+01	4.548433e+02
1.690000e-06	5.384251e-06	6.900684e-09	3.834720e+01	4.544516e+02
1.700000e-06	5.375785e-06	6.895182e-09	3.828691e+01	4.539902e+02
1.710000e-06	5.365764e-06	6.889008e-09	3.821554e+01	4.534503e+02
1.720000e-06	5.354089e-06	6.884083e-09	3.813238e+01	4.528194e+02
1.730000e-06	5.340483e-06	6.904159e-09	3.803548e+01	4.520845e+02
1.740000e-06	5.324750e-06	6.823858e-09	3.792343e+01	4.512363e+02
1.750000e-06	5.306612e-06	6.758926e-09	3.779425e+01	4.502720e+02
1.760000e-06	5.285797e-06	6.781095e-09	3.764600e+01	4.491973e+02
1.770000e-06	5.262683e-06	6.747874e-09	3.748138e+01	4.480249e+02
1.780000e-06	5.238255e-06	6.879400e-09	3.730740e+01	4.467729e+02
1.790000e-06	5.213155e-06	6.860596e-09	3.712864e+01	4.454598e+02
1.800000e-06	5.186685e-06	6.603233e-09	3.694011e+01	4.441004e+02
1.810000e-06	5.157953e-06	6.781516e-09	3.673549e+01	4.427018e+02
1.820000e-06	5.127328e-06	6.736420e-09	3.651737e+01	4.412609e+02
1.830000e-06	5.095103e-06	6.568449e-09	3.628786e+01	4.397646e+02
1.840000e-06	5.060951e-06	6.825615e-09	3.604463e+01	4.381916e+02
1.850000e-06	5.025159e-06	6.679841e-09	3.578971e+01	4.365165e+02
1.860000e-06	4.987604e-06	6.559087e-09	3.552224e+01	4.347145e+02
1.870000e-06	4.948072e-06	6.702946e-09	3.524069e+01	4.327662e+02
1.880000e-06	4.906937e-06	6.506624e-09	3.494772e+01	4.306607e+02
1.890000e-06	4.864039e-06	6.551778e-09	3.464220e+01	4.283971e+02
1.900000e-06	4.819515e-06	6.536058e-09	3.432509e+01	4.259842e+02
1.910000e-06	4.773222e-06	6.379282e-09	3.399539e+01	4.234376e+02
1.920000e-06	4.724775e-06	6.534873e-09	3.365034e+01	4.207763e+02
1.930000e-06	4.674705e-06	6.343965e-09	3.329374e+01	4.180188e+02
1.940000e-06	4.623057e-06	6.316341e-09	3.292590e+01	4.151793e+02
1.950000e-06	4.569344e-06	6.382250e-09	3.254335e+01	4.122663e+02
1.960000e-06	4.513589e-06	6.191208e-09	3.214626e+01	4.092813e+02
1.970000e-06	4.456084e-06	6.193762e-09	3.173670e+01	4.062198e+02
1.980000e-06	4.397126e-06	6.131116e-09	3.131679e+01	4.030734e+02
1.990000e-06	4.336707e-06	6.150321e-09	3.088648e+01	3.998321e+02
2.000000e-06	4.274626e-06	6.094610e-09	3.044434e+01	3.964867e+02
2.010000e-06	4.210941e-06	5.952207e-09	2.999076e+01	3.930303e+02
2.020000e-06	4.145727e-06	5.992672e-09	2.952630e+01	3.894595e+02
2.030000e-06	4.079014e-06	5.850601e-09	2.905116e+01	3.857745e+02
2.040000e-06	4.010905e-06	5.814019e-09	2.856609e+01	3.819781e+02
2.050000e-06	3.941330e-06	5.797502e-09	2.807057e+01	3.780754e+02
2.060000e-06	3.870161e-06	5.731461e-09	2.756369e+01	3.740720e+02
2.070000e-06	3.797615e-06	5.696474e-09	2.704701e+01	3.699737e+02
2.080000e-06	3.723882e-06	5.546282e-09	2.652188e+01	3.657852e+02
2.090000e-06	3.648792e-06	5.531701e-09	2.598708e+01	3.615096e+02
2.100000e-06	3.572258e-06	5.466523e-09	2.544200e+01	3.571487e+02
2.110000e-06	3.494071e-06	5.384373e-09	2.488514e+01	3.527020e+02
2.120000e-06	3.414480e-06	5.325363e-09	2.431829e+01	3.481675e+02
2.130000e-06	3.333852e-06	5.241805e-09	2.374405e+01	3.435411e+02
2.140000e-06	3.252071e-06	5.196748e-09	2.316159e+01	3.388172e+02
2.150000e-06	3.169180e-06	5.101639e-09	2.257123e+01	3.339896e+02
2.160000e-06	3.085297e-06	5.044896e-09	2.197381e+01	3.290517e+02
2.170000e-06	3.000407e-06	4.953141e-09	2.136921e+01	3.239979e+02
2.180000e-06	2.914189e-06	4.869135e-09	2.075516e+01	3.188245e+02
2.190000e-06	2.826661e-06	4.800924e-09	2.013178e+01	3.135299e+02
2.200000e-06	2.738156e-06	4.723559e-09	1.950143e+01	3.081155e+02
2.210000e-06	2.648763e-06	4.656128e-09	1.886477e+01	3.025842e+02
2.220000e-06	2.558443e-06	4.550494e-09	1.822150e+01	2.969403e+02
2.230000e-06	2.467252e-06	4.456539e-09	1.757203e+01	2.911875e+02
2.240000e-06	2.375359e-06	4.355775e-09	1.691756e+01	2.853276e+02
2.250000e-06	2.282745e-06	4.274703e-09	1.625795e+01	2.793595e+02
2.260000e-06	2.189257e-06	4.198150e-09	1.559212e+01	2.732789e+02
2.270000e-06	2.094735e-06	4.108711e-09	1.491892e+01	2.670786e+02
2.280000e-06	1.999234e-06	4.006600e-09	1.423875e+01	2.607504e+02
2.290000e-06	1.902991e-06	3.899330e-09	1.355331e+01	2.542860e+02
2.300000e-06	1.806159e-06	3.800362e-09	1.286365e+01	2.476798e+02
2.310000e-06	1.708806e-06	3.699064e-09	1.217029e+01	2.409299e+02
2.320000e-06	1.610933e-06	3.598337e-09	1.147324e+01	2.340387e+02
2.330000e-06	1.512521e-06	3.485867e-09	1.077234e+01	2.270120e+02
2.340000e-06	1.413611e-06	3.379098e-09	1.006789e+01	2.198578e+02
2.350000e-06	1.314281e-06	3.270416e-09	9.360445e+00	2.125836e+02
2.360000e-06	1.214615e-06	3.160748e-09	8.650614e+00	2.051939e+02
2.370000e-06	1.114722e-06	3.049559e-09	7.939166e+00	1.976883e+02
2.380000e-06	1.014625e-06	2.928640e-09	7.226268e+00	1.900603e+02
2.390000e-06	9.141525e-07	2.806758e-09	6.510691e+00	1.822977e+02
2.400000e-06	8.131803e-07	2.686686e-09	5.791556e+00	1.743841e+02
2.410000e-06	7.117752e-07	2.569316e-09	5.069338e+00	1.663012e+02
2.420000e-06	6.101330e-07	2.445793e-09	4.345432e+00	1.580312e+02
2.430000e-06	5.082481e-07	2.313340e-09	3.619797e+00	1.495597e+02
2.440000e-06	4.061101e-07	2.177521e-09	2.892359e+00	1.408767e+02
2.450000e-06	3.038189e-07	2.045374e-09	2.163830e+00	1.319769e+02
2.460000e-06	2.013763e-07	1.910888e-09	1.434223e+00	1.228588e+02
2.470000e-06	9.882037e-08	1.771887e-09	7.038091e-01	1.135231e+02
2.480000e-06	-3.833555e-09	1.627008e-09	-2.730298e-02	1.039705e+02
2.490000e-06	-1.065110e-07	1.474411e-09	-7.585828e-01	9.419974e+01
2.500000e-06	-2.091852e-07	1.319653e-09	-1.489839e+00	8.420697e+01
2.510000e-06	-3.118043e-07	1.165194e-09	-2.220703e+00	7.398515e+01
2.520000e-06	-4.142407e-07	1.010728e-09	-2.950266e+00	6.352509e+01
2.530000e-06	-5.165106e-07	8.503406e-10	-3.678643e+00	5.281672e+01
2.540000e-06	-6.185854e-07	6.838951e-10	-4.405630e+00	4.185074e+01
2.550000e-06	-7.203006e-07	5.138312e-10	-5.130057e+00	3.061993e+01
2.560000e-06	-8.216286e-07	3.390420e-10	-5.851726e+00	1.911998e+01
2.570000e-06	-9.225800e-07	1.584336e-10	-6.570712e+00	7.349852e+00
2.580000e-06	-1.023087e-06	-2.633377e-11	-7.286537e+00	-4.688389e+00
2.590000e-06	-1.123215e-06	-2.150399e-10	-7.999652e+00	-1.698958e+01
2.600000e-06	-1.223059e-06	-4.090961e-10	-8.710754e+00	-2.954520e+01
2.610000e-06	-1.322537e-06	-6.048821e-10	-9.419249e+00	-4.234243e+01
2.620000e-06	-1.421512e-06	-8.041914e-10	-1.012416e+01	-5.536256e+01
2.630000e-06	-1.519993e-06	-1.008271e-09	-1.082555e+01	-6.857903e+01
2.640000e-06	-1.617915e-06	-1.215547e-09	-1.152296e+01	-8.195554e+01
2.650000e-06	-1.715220e-06	-1.424984e-09	-1.221597e+01	-9.544502e+01
2.660000e-06	-1.812005e-06	-1.633955e-09	-1.290529e+01	-1.089898e+02
2.670000e-06	-1.908290e-06	-1.843214e-09	-1.359104e+01	-1.225236e+02
2.680000e-06	-2.003997e-06	-2.052080e-09	-1.427268e+01	-1.359749e+02
2.690000e-06	-2.098915e-06	-2.257687e-09	-1.494869e+01	-1.492719e+02
2.700000e-06	-2.192887e-06	-2.459911e-09	-1.561797e+01	-1.623474e+02
2.710000e-06	-2.285887e-06	-2.658894e-09	-1.628033e+01	-1.751440e+02
2.720000e-06	-2.377930e-06	-2.851941e-09	-1.693587e+01	-1.876169e+02
2.730000e-06	-2.469198e-06	-3.036926e-09	-1.758589e+01	-1.997355e+02
2.740000e-06	-2.559683e-06	-3.215299e-09	-1.823034e+01	-2.114828e+02
2.750000e-06	-2.649222e-06	-3.388789e-09	-1.886804e+01	-2.228531e+02
2.760000e-06	-2.737846e-06	-3.555704e-09	-1.949923e+01	-2.338477e+02
2.770000e-06	-2.825677e-06	-3.716152e-09	-2.012477e+01	-2.444714e+02
2.780000e-06	-2.912667e-06	-3.872614e-09	-2.074432e+01	-2.547290e+02
2.790000e-06	-2.998476e-06	-4.023504e-09	-2.135546e+01	-2.646234e+02
2.800000e-06	-3.083013e-06	-4.169218e-09	-2.195754e+01	-2.741548e+02
2.810000e-06	-3.166499e-06	-4.309557e-09	-2.255214e+01	-2.833216e+02
2.820000e-06	-3.249029e-06	-4.443458e-09	-2.313992e+01	-2.921227e+02
2.830000e-06	-3.330475e-06	-4.573752e-09	-2.372000e+01	-3.005588e+02
2.840000e-06	-3.410798e-06	-4.699650e-09	-2.429207e+01	-3.086348e+02
2.850000e-06	-3.489949e-06	-4.819969e-09	-2.485578e+01	-3.163599e+02
2.860000e-06	-3.567596e-06	-4.934808e-09	-2.540879e+01	-3.237477e+02
2.870000e-06	-3.643676e-06	-5.044767e-09	-2.595065e+01	-3.308146e+02
2.880000e-06	-3.718389e-06	-5.150670e-09	-2.648276e+01	-3.375783e+02
2.890000e-06	-3.791760e-06	-5.250396e-09	-2.700531e+01	-3.440558e+02
2.900000e-06	-3.863831e-06	-5.345249e-09	-2.751861e+01	-3.502624e+02
2.910000e-06	-3.934530e-06	-5.436574e-09	-2.802214e+01	-3.562115e+02
2.920000e-06	-4.003635e-06	-5.523847e-09	-2.851431e+01	-3.619149e+02
2.930000e-06	-4.071231e-06	-5.606845e-09	-2.899574e+01	-3.673838e+02
2.940000e-06	-4.137414e-06	-5.686548e-09	-2.946710e+01	-3.726300e+02
