# Temperatura_=_24.64
# Concentracion g/m^3_=_15000.0
# C_Vs_to_Am_M_A/Vsm_=_65563218390.804596
# pendiente_HvsI_1/m_=_3716.3
# ordenada_HvsI_A/m_=_1297.0
# frecuencia_Hz_=_301577.35675730335

Tiempo_(s)	Campo_(V.s)	Magnetizacion_(V.s)	Campo_(kA/m)	Magnetizacion_(A/m)
0.000000e+00	-5.401333e-06	-4.505179e-09	-3.834232e+01	-2.931201e+02
1.000000e-08	-5.398533e-06	-4.509399e-09	-3.832244e+01	-2.930386e+02
2.000000e-08	-5.393982e-06	-4.504238e-09	-3.829014e+01	-2.929147e+02
3.000000e-08	-5.387838e-06	-4.497498e-09	-3.824652e+01	-2.927427e+02
4.000000e-08	-5.380134e-06	-4.491709e-09	-3.819184e+01	-2.925157e+02
5.000000e-08	-5.370556e-06	-4.483886e-09	-3.812384e+01	-2.922279e+02
6.000000e-08	-5.358851e-06	-4.474393e-09	-3.804075e+01	-2.918769e+02
7.000000e-08	-5.345232e-06	-4.459771e-09	-3.794407e+01	-2.914642e+02
8.000000e-08	-5.329547e-06	-4.458803e-09	-3.783273e+01	-2.909952e+02
9.000000e-08	-5.311608e-06	-4.509560e-09	-3.770539e+01	-2.904772e+02
1.000000e-07	-5.291576e-06	-4.502132e-09	-3.756319e+01	-2.899170e+02
1.100000e-07	-5.269651e-06	-4.454305e-09	-3.740755e+01	-2.893178e+02
1.200000e-07	-5.246069e-06	-4.436250e-09	-3.724015e+01	-2.886781e+02
1.300000e-07	-5.220966e-06	-4.327669e-09	-3.706195e+01	-2.879906e+02
1.400000e-07	-5.194219e-06	-4.327509e-09	-3.687209e+01	-2.872438e+02
1.500000e-07	-5.165818e-06	-4.455059e-09	-3.667048e+01	-2.864243e+02
1.600000e-07	-5.135986e-06	-4.354061e-09	-3.645871e+01	-2.855205e+02
1.700000e-07	-5.104548e-06	-4.393813e-09	-3.623554e+01	-2.845252e+02
1.800000e-07	-5.070913e-06	-4.424026e-09	-3.599678e+01	-2.834385e+02
1.900000e-07	-5.035436e-06	-4.190790e-09	-3.574493e+01	-2.822675e+02
2.000000e-07	-4.998528e-06	-4.242160e-09	-3.548294e+01	-2.810256e+02
2.100000e-07	-4.959828e-06	-4.326659e-09	-3.520822e+01	-2.797292e+02
2.200000e-07	-4.919338e-06	-4.275496e-09	-3.492080e+01	-2.783936e+02
2.300000e-07	-4.876851e-06	-4.300199e-09	-3.461919e+01	-2.770300e+02
2.400000e-07	-4.832411e-06	-4.208289e-09	-3.430372e+01	-2.756423e+02
2.500000e-07	-4.786292e-06	-4.117642e-09	-3.397634e+01	-2.742265e+02
2.600000e-07	-4.738291e-06	-4.153626e-09	-3.363560e+01	-2.727717e+02
2.700000e-07	-4.688143e-06	-4.173130e-09	-3.327962e+01	-2.712632e+02
2.800000e-07	-4.635890e-06	-4.181793e-09	-3.290869e+01	-2.696859e+02
2.900000e-07	-4.581808e-06	-4.081446e-09	-3.252477e+01	-2.680280e+02
3.000000e-07	-4.526164e-06	-3.997031e-09	-3.212978e+01	-2.662837e+02
3.100000e-07	-4.468850e-06	-4.020506e-09	-3.172292e+01	-2.644543e+02
3.200000e-07	-4.409699e-06	-4.052535e-09	-3.130303e+01	-2.625471e+02
3.300000e-07	-4.348987e-06	-4.030961e-09	-3.087205e+01	-2.605729e+02
3.400000e-07	-4.286819e-06	-3.928337e-09	-3.043074e+01	-2.585428e+02
3.500000e-07	-4.223297e-06	-3.874911e-09	-2.997982e+01	-2.564650e+02
3.600000e-07	-4.158266e-06	-3.856570e-09	-2.951819e+01	-2.543425e+02
3.700000e-07	-4.091495e-06	-3.860820e-09	-2.904421e+01	-2.521728e+02
3.800000e-07	-4.023204e-06	-3.870657e-09	-2.855943e+01	-2.499483e+02
3.900000e-07	-3.953544e-06	-3.802010e-09	-2.806493e+01	-2.476594e+02
4.000000e-07	-3.882575e-06	-3.717822e-09	-2.756115e+01	-2.452971e+02
4.100000e-07	-3.810390e-06	-3.655505e-09	-2.704873e+01	-2.428558e+02
4.200000e-07	-3.736747e-06	-3.645072e-09	-2.652596e+01	-2.403352e+02
4.300000e-07	-3.661489e-06	-3.653434e-09	-2.599173e+01	-2.377398e+02
4.400000e-07	-3.584798e-06	-3.615099e-09	-2.544732e+01	-2.350782e+02
4.500000e-07	-3.506652e-06	-3.536193e-09	-2.489259e+01	-2.323600e+02
4.600000e-07	-3.426911e-06	-3.454737e-09	-2.432654e+01	-2.295931e+02
4.700000e-07	-3.345942e-06	-3.429024e-09	-2.375176e+01	-2.267812e+02
4.800000e-07	-3.263916e-06	-3.425486e-09	-2.316949e+01	-2.239225e+02
4.900000e-07	-3.180734e-06	-3.385903e-09	-2.257901e+01	-2.210099e+02
5.000000e-07	-3.096624e-06	-3.320858e-09	-2.198193e+01	-2.180331e+02
5.100000e-07	-3.011606e-06	-3.250682e-09	-2.137842e+01	-2.149807e+02
5.200000e-07	-2.925608e-06	-3.198330e-09	-2.076795e+01	-2.118433e+02
5.300000e-07	-2.838604e-06	-3.166503e-09	-2.015033e+01	-2.086157e+02
5.400000e-07	-2.750628e-06	-3.136819e-09	-1.952582e+01	-2.052979e+02
5.500000e-07	-2.661604e-06	-3.078312e-09	-1.889387e+01	-2.018942e+02
5.600000e-07	-2.571310e-06	-2.991129e-09	-1.825290e+01	-1.984117e+02
5.700000e-07	-2.479926e-06	-2.927382e-09	-1.760420e+01	-1.948571e+02
5.800000e-07	-2.387755e-06	-2.896853e-09	-1.694990e+01	-1.912347e+02
5.900000e-07	-2.294858e-06	-2.862535e-09	-1.629046e+01	-1.875443e+02
6.000000e-07	-2.201162e-06	-2.793911e-09	-1.562534e+01	-1.837805e+02
6.100000e-07	-2.106693e-06	-2.716154e-09	-1.495474e+01	-1.799343e+02
6.200000e-07	-2.011552e-06	-2.648525e-09	-1.427936e+01	-1.759947e+02
6.300000e-07	-1.915707e-06	-2.587400e-09	-1.359899e+01	-1.719523e+02
6.400000e-07	-1.819111e-06	-2.537642e-09	-1.291328e+01	-1.678012e+02
6.500000e-07	-1.721718e-06	-2.485689e-09	-1.222192e+01	-1.635411e+02
6.600000e-07	-1.623505e-06	-2.414079e-09	-1.152474e+01	-1.591770e+02
6.700000e-07	-1.524613e-06	-2.325587e-09	-1.082274e+01	-1.547183e+02
6.800000e-07	-1.425256e-06	-2.250480e-09	-1.011743e+01	-1.501762e+02
6.900000e-07	-1.325492e-06	-2.193228e-09	-9.409241e+00	-1.455602e+02
7.000000e-07	-1.225326e-06	-2.132245e-09	-8.698191e+00	-1.408760e+02
7.100000e-07	-1.124809e-06	-2.055937e-09	-7.984658e+00	-1.361235e+02
7.200000e-07	-1.023921e-06	-1.972218e-09	-7.268488e+00	-1.312965e+02
7.300000e-07	-9.226711e-07	-1.892412e-09	-6.549744e+00	-1.263843e+02
7.400000e-07	-8.211297e-07	-1.818289e-09	-5.828934e+00	-1.213739e+02
7.500000e-07	-7.193197e-07	-1.746775e-09	-5.106219e+00	-1.162526e+02
7.600000e-07	-6.172475e-07	-1.667740e-09	-4.381640e+00	-1.110112e+02
7.700000e-07	-5.149828e-07	-1.577011e-09	-3.655697e+00	-1.056446e+02
7.800000e-07	-4.125788e-07	-1.483054e-09	-2.928763e+00	-1.001529e+02
7.900000e-07	-3.100412e-07	-1.397663e-09	-2.200882e+00	-9.453961e+01
8.000000e-07	-2.074189e-07	-1.317496e-09	-1.472400e+00	-8.880986e+01
8.100000e-07	-1.047330e-07	-1.232074e-09	-7.434658e-01	-8.296788e+01
8.200000e-07	-1.981017e-09	-1.140348e-09	-1.406260e-02	-7.701498e+01
8.300000e-07	1.008193e-07	-1.044585e-09	7.156836e-01	-7.094832e+01
8.400000e-07	2.036068e-07	-9.487212e-10	1.445339e+00	-6.476096e+01
8.500000e-07	3.063080e-07	-8.545148e-10	2.174382e+00	-5.844295e+01
8.600000e-07	4.089231e-07	-7.592792e-10	2.902813e+00	-5.198316e+01
8.700000e-07	5.114714e-07	-6.579249e-10	3.630770e+00	-4.537135e+01
8.800000e-07	6.138820e-07	-5.521948e-10	4.357750e+00	-3.859977e+01
8.900000e-07	7.161169e-07	-4.464199e-10	5.083483e+00	-3.166401e+01
9.000000e-07	8.180719e-07	-3.407622e-10	5.807228e+00	-2.456287e+01
9.100000e-07	9.196450e-07	-2.338689e-10	6.528263e+00	-1.729751e+01
9.200000e-07	1.020881e-06	-1.243480e-10	7.246908e+00	-9.870144e+00
9.300000e-07	1.121805e-06	-1.016429e-11	7.963328e+00	-2.282876e+00
9.400000e-07	1.222386e-06	1.108079e-10	8.677326e+00	5.462800e+00
9.500000e-07	1.322635e-06	2.325131e-10	9.388962e+00	1.336567e+01
9.600000e-07	1.422487e-06	3.521079e-10	1.009778e+01	2.142355e+01
9.700000e-07	1.521840e-06	4.716805e-10	1.080305e+01	2.963140e+01
9.800000e-07	1.620554e-06	5.967285e-10	1.150379e+01	3.797930e+01
9.900000e-07	1.718485e-06	7.275682e-10	1.219897e+01	4.645080e+01
1.000000e-06	1.815611e-06	8.600903e-10	1.288843e+01	5.502211e+01
1.010000e-06	1.911965e-06	9.928046e-10	1.357242e+01	6.366238e+01
1.020000e-06	2.007574e-06	1.124441e-09	1.425112e+01	7.233510e+01
1.030000e-06	2.102459e-06	1.255314e-09	1.492467e+01	8.100025e+01
1.040000e-06	2.196639e-06	1.385303e-09	1.559323e+01	8.961686e+01
1.050000e-06	2.290080e-06	1.513936e-09	1.625654e+01	9.814541e+01
1.060000e-06	2.382761e-06	1.639896e-09	1.691445e+01	1.065498e+02
1.070000e-06	2.474743e-06	1.761074e-09	1.756740e+01	1.147983e+02
1.080000e-06	2.565932e-06	1.880504e-09	1.821472e+01	1.228642e+02
1.090000e-06	2.656078e-06	2.002026e-09	1.885464e+01	1.307255e+02
1.100000e-06	2.745152e-06	2.125753e-09	1.948695e+01	1.383642e+02
1.110000e-06	2.833176e-06	2.242205e-09	2.011180e+01	1.457662e+02
1.120000e-06	2.920211e-06	2.349056e-09	2.072963e+01	1.529210e+02
1.130000e-06	3.006328e-06	2.450399e-09	2.134095e+01	1.598215e+02
1.140000e-06	3.091455e-06	2.550632e-09	2.194524e+01	1.664645e+02
1.150000e-06	3.175629e-06	2.649620e-09	2.254277e+01	1.728507e+02
1.160000e-06	3.258811e-06	2.744948e-09	2.313324e+01	1.789850e+02
1.170000e-06	3.340758e-06	2.837124e-09	2.371496e+01	1.848760e+02
1.180000e-06	3.421444e-06	2.922365e-09	2.428773e+01	1.905348e+02
1.190000e-06	3.500912e-06	3.004379e-09	2.485184e+01	1.959742e+02
1.200000e-06	3.579084e-06	3.085957e-09	2.540676e+01	2.012071e+02
1.210000e-06	3.656047e-06	3.166700e-09	2.595310e+01	2.062457e+02
1.220000e-06	3.731811e-06	3.243197e-09	2.649092e+01	2.110998e+02
1.230000e-06	3.806066e-06	3.312783e-09	2.701803e+01	2.157775e+02
1.240000e-06	3.878619e-06	3.377331e-09	2.753306e+01	2.202846e+02
1.250000e-06	3.949649e-06	3.442111e-09	2.803728e+01	2.246254e+02
1.260000e-06	4.019315e-06	3.508531e-09	2.853182e+01	2.288031e+02
1.270000e-06	4.087674e-06	3.573803e-09	2.901708e+01	2.328202e+02
1.280000e-06	4.154649e-06	3.631867e-09	2.949251e+01	2.366790e+02
1.290000e-06	4.219981e-06	3.684097e-09	2.995629e+01	2.403810e+02
1.300000e-06	4.283651e-06	3.734223e-09	3.040825e+01	2.439271e+02
1.310000e-06	4.345826e-06	3.783632e-09	3.084962e+01	2.473171e+02
1.320000e-06	4.406643e-06	3.832330e-09	3.128134e+01	2.505501e+02
1.330000e-06	4.466078e-06	3.877164e-09	3.170325e+01	2.536246e+02
1.340000e-06	4.523769e-06	3.917839e-09	3.211278e+01	2.565399e+02
1.350000e-06	4.579586e-06	3.956433e-09	3.250900e+01	2.592968e+02
1.360000e-06	4.633772e-06	3.995218e-09	3.289365e+01	2.618987e+02
1.370000e-06	4.686355e-06	4.032650e-09	3.326692e+01	2.643525e+02
1.380000e-06	4.736974e-06	4.066088e-09	3.362625e+01	2.666680e+02
1.390000e-06	4.785536e-06	4.094737e-09	3.397098e+01	2.688573e+02
1.400000e-06	4.832371e-06	4.121402e-09	3.430344e+01	2.709333e+02
1.410000e-06	4.877601e-06	4.148299e-09	3.462452e+01	2.729074e+02
1.420000e-06	4.921246e-06	4.175104e-09	3.493434e+01	2.747883e+02
1.430000e-06	4.963065e-06	4.201302e-09	3.523120e+01	2.765801e+02
1.440000e-06	5.002996e-06	4.226265e-09	3.551465e+01	2.782829e+02
1.450000e-06	5.041234e-06	4.249262e-09	3.578609e+01	2.798932e+02
1.460000e-06	5.077850e-06	4.271594e-09	3.604602e+01	2.814059e+02
1.470000e-06	5.112766e-06	4.293820e-09	3.629387e+01	2.828160e+02
1.480000e-06	5.145763e-06	4.313901e-09	3.652811e+01	2.841216e+02
1.490000e-06	5.176933e-06	4.330103e-09	3.674938e+01	2.853241e+02
1.500000e-06	5.206395e-06	4.343680e-09	3.695852e+01	2.864293e+02
1.510000e-06	5.234184e-06	4.357228e-09	3.715578e+01	2.874460e+02
1.520000e-06	5.260053e-06	4.370501e-09	3.733942e+01	2.883842e+02
1.530000e-06	5.283819e-06	4.383979e-09	3.750812e+01	2.892527e+02
1.540000e-06	5.305713e-06	4.398835e-09	3.766354e+01	2.900571e+02
1.550000e-06	5.325909e-06	4.412705e-09	3.780691e+01	2.907985e+02
1.560000e-06	5.344228e-06	4.423484e-09	3.793695e+01	2.914733e+02
1.570000e-06	5.360452e-06	4.433231e-09	3.805212e+01	2.920747e+02
1.580000e-06	5.374696e-06	4.442693e-09	3.815323e+01	2.925946e+02
1.590000e-06	5.386992e-06	4.449712e-09	3.824051e+01	2.930265e+02
1.600000e-06	5.397031e-06	4.453205e-09	3.831178e+01	2.933676e+02
1.610000e-06	5.404900e-06	4.454791e-09	3.836764e+01	2.936201e+02
1.620000e-06	5.410919e-06	4.458836e-09	3.841037e+01	2.937911e+02
1.630000e-06	5.415183e-06	4.465442e-09	3.844064e+01	2.938912e+02
1.640000e-06	5.417569e-06	4.470407e-09	3.845757e+01	2.939322e+02
1.650000e-06	5.417911e-06	4.472764e-09	3.846000e+01	2.939244e+02
1.660000e-06	5.416359e-06	4.467867e-09	3.844898e+01	2.938745e+02
1.670000e-06	5.413181e-06	4.460431e-09	3.842643e+01	2.937841e+02
1.680000e-06	5.408469e-06	4.460536e-09	3.839298e+01	2.936503e+02
1.690000e-06	5.401825e-06	4.460334e-09	3.834581e+01	2.934670e+02
1.700000e-06	5.393262e-06	4.458580e-09	3.828502e+01	2.932273e+02
1.710000e-06	5.383161e-06	4.458051e-09	3.821332e+01	2.929259e+02
1.720000e-06	5.371392e-06	4.461273e-09	3.812978e+01	2.925612e+02
1.730000e-06	5.357622e-06	4.471669e-09	3.803203e+01	2.921357e+02
1.740000e-06	5.341731e-06	4.393524e-09	3.791923e+01	2.916555e+02
1.750000e-06	5.323456e-06	4.369535e-09	3.778949e+01	2.911279e+02
1.760000e-06	5.302424e-06	4.402543e-09	3.764020e+01	2.905590e+02
1.770000e-06	5.279084e-06	4.396936e-09	3.747451e+01	2.899513e+02
1.780000e-06	5.254511e-06	4.506434e-09	3.730008e+01	2.893020e+02
1.790000e-06	5.229311e-06	4.434879e-09	3.712119e+01	2.886028e+02
1.800000e-06	5.202742e-06	4.312000e-09	3.693259e+01	2.878414e+02
1.810000e-06	5.173900e-06	4.449772e-09	3.672785e+01	2.870046e+02
1.820000e-06	5.143230e-06	4.317947e-09	3.651013e+01	2.860814e+02
1.830000e-06	5.110922e-06	4.268585e-09	3.628079e+01	2.850662e+02
1.840000e-06	5.076632e-06	4.467330e-09	3.603737e+01	2.839604e+02
1.850000e-06	5.040711e-06	4.303305e-09	3.578238e+01	2.827729e+02
1.860000e-06	5.003036e-06	4.260023e-09	3.551494e+01	2.815177e+02
1.870000e-06	4.963458e-06	4.281774e-09	3.523399e+01	2.802115e+02
1.880000e-06	4.922179e-06	4.107134e-09	3.494096e+01	2.788691e+02
1.890000e-06	4.879020e-06	4.235642e-09	3.463459e+01	2.775002e+02
1.900000e-06	4.834233e-06	4.253723e-09	3.431666e+01	2.761069e+02
1.910000e-06	4.787661e-06	4.183689e-09	3.398606e+01	2.746837e+02
1.920000e-06	4.739001e-06	4.196725e-09	3.364063e+01	2.732187e+02
1.930000e-06	4.688737e-06	4.009447e-09	3.328383e+01	2.716965e+02
1.940000e-06	4.636761e-06	4.102912e-09	3.291487e+01	2.701026e+02
1.950000e-06	4.582662e-06	4.158200e-09	3.253084e+01	2.684262e+02
1.960000e-06	4.526625e-06	4.059964e-09	3.213305e+01	2.666633e+02
1.970000e-06	4.468931e-06	4.035476e-09	3.172350e+01	2.648163e+02
1.980000e-06	4.409817e-06	3.918510e-09	3.130387e+01	2.628936e+02
1.990000e-06	4.349189e-06	3.972245e-09	3.087349e+01	2.609064e+02
2.000000e-06	4.286788e-06	3.955150e-09	3.043052e+01	2.588654e+02
2.010000e-06	4.222804e-06	3.909614e-09	2.997632e+01	2.567779e+02
2.020000e-06	4.157390e-06	3.917581e-09	2.951197e+01	2.546456e+02
2.030000e-06	4.090526e-06	3.779484e-09	2.903733e+01	2.524647e+02
2.040000e-06	4.022277e-06	3.764094e-09	2.855285e+01	2.502271e+02
2.050000e-06	3.952546e-06	3.754187e-09	2.805785e+01	2.479230e+02
2.060000e-06	3.881222e-06	3.786620e-09	2.755154e+01	2.455440e+02
2.070000e-06	3.808477e-06	3.767044e-09	2.703515e+01	2.430855e+02
2.080000e-06	3.734506e-06	3.622009e-09	2.651005e+01	2.405481e+02
2.090000e-06	3.659182e-06	3.581086e-09	2.597535e+01	2.379376e+02
2.100000e-06	3.582335e-06	3.554105e-09	2.542984e+01	2.352630e+02
2.110000e-06	3.503869e-06	3.579292e-09	2.487283e+01	2.325337e+02
2.120000e-06	3.424079e-06	3.535994e-09	2.430643e+01	2.297568e+02
2.130000e-06	3.343184e-06	3.464878e-09	2.373218e+01	2.269351e+02
2.140000e-06	3.261100e-06	3.414806e-09	2.314950e+01	2.240655e+02
2.150000e-06	3.177952e-06	3.330770e-09	2.255926e+01	2.211400e+02
2.160000e-06	3.093845e-06	3.320799e-09	2.196221e+01	2.181478e+02
2.170000e-06	3.008648e-06	3.312148e-09	2.135742e+01	2.150777e+02
2.180000e-06	2.922046e-06	3.267273e-09	2.074266e+01	2.119211e+02
2.190000e-06	2.834232e-06	3.161801e-09	2.011930e+01	2.086739e+02
2.200000e-06	2.745455e-06	3.092662e-09	1.948910e+01	2.053371e+02
2.210000e-06	2.655730e-06	3.092142e-09	1.885217e+01	2.019157e+02
2.220000e-06	2.565103e-06	3.065529e-09	1.820884e+01	1.984171e+02
2.230000e-06	2.473639e-06	2.998016e-09	1.755956e+01	1.948476e+02
2.240000e-06	2.381495e-06	2.911322e-09	1.690547e+01	1.912107e+02
2.250000e-06	2.288517e-06	2.852537e-09	1.624544e+01	1.875051e+02
2.260000e-06	2.194522e-06	2.794367e-09	1.557820e+01	1.837244e+02
2.270000e-06	2.099507e-06	2.756168e-09	1.490373e+01	1.798589e+02
2.280000e-06	2.003629e-06	2.723086e-09	1.422311e+01	1.758979e+02
2.290000e-06	1.907100e-06	2.648184e-09	1.353789e+01	1.718324e+02
2.300000e-06	1.809937e-06	2.544950e-09	1.284816e+01	1.676576e+02
2.310000e-06	1.712186e-06	2.469052e-09	1.215425e+01	1.633744e+02
2.320000e-06	1.613903e-06	2.439538e-09	1.145658e+01	1.589891e+02
2.330000e-06	1.515146e-06	2.397194e-09	1.075553e+01	1.545115e+02
2.340000e-06	1.415956e-06	2.318520e-09	1.005141e+01	1.499527e+02
2.350000e-06	1.316354e-06	2.223148e-09	9.344371e+00	1.453217e+02
2.360000e-06	1.216380e-06	2.145171e-09	8.634689e+00	1.406229e+02
2.370000e-06	1.116109e-06	2.080599e-09	7.922894e+00	1.358550e+02
2.380000e-06	1.015652e-06	2.019088e-09	7.209787e+00	1.310107e+02
2.390000e-06	9.148084e-07	1.950734e-09	6.493929e+00	1.260784e+02
2.400000e-06	8.133616e-07	1.862714e-09	5.773791e+00	1.210451e+02
2.410000e-06	7.114248e-07	1.770987e-09	5.050175e+00	1.158986e+02
2.420000e-06	6.092572e-07	1.694744e-09	4.324920e+00	1.106304e+02
2.430000e-06	5.068745e-07	1.634433e-09	3.598139e+00	1.052368e+02
2.440000e-06	4.042272e-07	1.566173e-09	2.869479e+00	9.971851e+01
2.450000e-06	3.014722e-07	1.473098e-09	2.140053e+00	9.407969e+01
2.460000e-06	1.986074e-07	1.365985e-09	1.409850e+00	8.832548e+01
2.470000e-06	9.562255e-08	1.270084e-09	6.787936e-01	8.245962e+01
2.480000e-06	-7.446111e-09	1.188488e-09	-5.285754e-02	7.648260e+01
2.490000e-06	-1.105358e-07	1.105034e-09	-7.846583e-01	7.039066e+01
2.500000e-06	-2.135571e-07	1.008815e-09	-1.515973e+00	6.417608e+01
2.510000e-06	-3.165217e-07	9.032878e-10	-2.246886e+00	5.782850e+01
2.520000e-06	-4.194174e-07	8.001710e-10	-2.977309e+00	5.133680e+01
2.530000e-06	-5.221426e-07	7.032507e-10	-3.706522e+00	4.469117e+01
2.540000e-06	-6.245872e-07	6.110841e-10	-4.433743e+00	3.788453e+01
2.550000e-06	-7.267293e-07	5.108357e-10	-5.158817e+00	3.091320e+01
2.560000e-06	-8.285441e-07	3.918526e-10	-5.881567e+00	2.377659e+01
2.570000e-06	-9.299749e-07	2.639635e-10	-6.601591e+00	1.647619e+01
2.580000e-06	-1.030959e-06	1.454449e-10	-7.318446e+00	9.014273e+00
2.590000e-06	-1.131507e-06	3.766631e-11	-8.032206e+00	1.392827e+00
2.600000e-06	-1.231632e-06	-7.475976e-11	-8.742960e+00	-6.386775e+00
2.610000e-06	-1.331302e-06	-1.984060e-10	-9.450485e+00	-1.432324e+01
2.620000e-06	-1.430539e-06	-3.279838e-10	-1.015494e+01	-2.241395e+01
2.630000e-06	-1.529291e-06	-4.561340e-10	-1.085595e+01	-3.065298e+01
2.640000e-06	-1.627509e-06	-5.816256e-10	-1.155316e+01	-3.902912e+01
2.650000e-06	-1.725101e-06	-7.085808e-10	-1.224594e+01	-4.752439e+01
2.660000e-06	-1.822122e-06	-8.410960e-10	-1.293465e+01	-5.611342e+01
2.670000e-06	-1.918665e-06	-9.801636e-10	-1.361998e+01	-6.476401e+01
2.680000e-06	-2.014627e-06	-1.119243e-09	-1.430119e+01	-7.343868e+01
2.690000e-06	-2.109881e-06	-1.249071e-09	-1.497737e+01	-8.209699e+01
2.700000e-06	-2.204246e-06	-1.372910e-09	-1.564723e+01	-9.069809e+01
2.710000e-06	-2.297621e-06	-1.502287e-09	-1.631007e+01	-9.920306e+01
2.720000e-06	-2.390079e-06	-1.636678e-09	-1.696640e+01	-1.075766e+02
2.730000e-06	-2.481640e-06	-1.766661e-09	-1.761636e+01	-1.157883e+02
2.740000e-06	-2.572330e-06	-1.889337e-09	-1.826014e+01	-1.238121e+02
2.750000e-06	-2.662146e-06	-2.007503e-09	-1.889771e+01	-1.316272e+02
2.760000e-06	-2.751067e-06	-2.122386e-09	-1.952893e+01	-1.392164e+02
2.770000e-06	-2.839167e-06	-2.234955e-09	-2.015433e+01	-1.465664e+02
2.780000e-06	-2.926326e-06	-2.346589e-09	-2.077305e+01	-1.536673e+02
2.790000e-06	-3.012316e-06	-2.452411e-09	-2.138346e+01	-1.605129e+02
2.800000e-06	-3.097164e-06	-2.550152e-09	-2.198577e+01	-1.671007e+02
2.810000e-06	-3.180938e-06	-2.642528e-09	-2.258045e+01	-1.734326e+02
2.820000e-06	-3.263662e-06	-2.733837e-09	-2.316769e+01	-1.795140e+02
2.830000e-06	-3.345298e-06	-2.824988e-09	-2.374719e+01	-1.853543e+02
2.840000e-06	-3.425863e-06	-2.911438e-09	-2.431910e+01	-1.909652e+02
2.850000e-06	-3.505265e-06	-2.992213e-09	-2.488274e+01	-1.963594e+02
2.860000e-06	-3.583171e-06	-3.069491e-09	-2.543578e+01	-2.015499e+02
2.870000e-06	-3.659498e-06	-3.144575e-09	-2.597759e+01	-2.065482e+02
2.880000e-06	-3.734364e-06	-3.218442e-09	-2.650904e+01	-2.113641e+02
2.890000e-06	-3.807845e-06	-3.291250e-09	-2.703067e+01	-2.160050e+02
2.900000e-06	-3.880059e-06	-3.360404e-09	-2.754329e+01	-2.204763e+02
2.910000e-06	-3.950915e-06	-3.424540e-09	-2.804627e+01	-2.247820e+02
2.920000e-06	-4.020125e-06	-3.486147e-09	-2.853757e+01	-2.289252e+02
2.930000e-06	-4.087808e-06	-3.548357e-09	-2.901803e+01	-2.329083e+02
2.940000e-06	-4.154118e-06	-3.610003e-09	-2.948875e+01	-2.367335e+02
