# Temperatura_=_24.3
# Concentracion g/m^3_=_15000.0
# C_Vs_to_Am_M_A/Vsm_=_65563218390.804596
# pendiente_HvsI_1/m_=_3716.3
# ordenada_HvsI_A/m_=_1297.0
# frecuencia_Hz_=_301575.85940802697

Tiempo_(s)	Campo_(V.s)	Magnetizacion_(V.s)	Campo_(kA/m)	Magnetizacion_(A/m)
0.000000e+00	-5.382791e-06	-4.482175e-09	-3.834083e+01	-2.910958e+02
1.000000e-08	-5.379923e-06	-4.482578e-09	-3.832040e+01	-2.910111e+02
2.000000e-08	-5.375325e-06	-4.478479e-09	-3.828765e+01	-2.908768e+02
3.000000e-08	-5.369105e-06	-4.473268e-09	-3.824334e+01	-2.906891e+02
4.000000e-08	-5.361349e-06	-4.467022e-09	-3.818810e+01	-2.904434e+02
5.000000e-08	-5.351709e-06	-4.459830e-09	-3.811944e+01	-2.901370e+02
6.000000e-08	-5.339996e-06	-4.451018e-09	-3.803601e+01	-2.897703e+02
7.000000e-08	-5.326469e-06	-4.437012e-09	-3.793966e+01	-2.893470e+02
8.000000e-08	-5.310797e-06	-4.444477e-09	-3.782802e+01	-2.888733e+02
9.000000e-08	-5.292837e-06	-4.478140e-09	-3.770010e+01	-2.883562e+02
1.000000e-07	-5.272899e-06	-4.465312e-09	-3.755808e+01	-2.878009e+02
1.100000e-07	-5.251114e-06	-4.433593e-09	-3.740291e+01	-2.872086e+02
1.200000e-07	-5.227664e-06	-4.399089e-09	-3.723588e+01	-2.865751e+02
1.300000e-07	-5.202608e-06	-4.305427e-09	-3.705741e+01	-2.858909e+02
1.400000e-07	-5.175887e-06	-4.330969e-09	-3.686708e+01	-2.851426e+02
1.500000e-07	-5.147576e-06	-4.385581e-09	-3.666542e+01	-2.843159e+02
1.600000e-07	-5.117820e-06	-4.331375e-09	-3.645348e+01	-2.833993e+02
1.700000e-07	-5.086460e-06	-4.393395e-09	-3.623011e+01	-2.823864e+02
1.800000e-07	-5.052979e-06	-4.352584e-09	-3.599163e+01	-2.812789e+02
1.900000e-07	-5.017665e-06	-4.190397e-09	-3.574009e+01	-2.800859e+02
2.000000e-07	-4.980900e-06	-4.227788e-09	-3.547822e+01	-2.788226e+02
2.100000e-07	-4.942368e-06	-4.257093e-09	-3.520376e+01	-2.775067e+02
2.200000e-07	-4.902018e-06	-4.250806e-09	-3.491635e+01	-2.761544e+02
2.300000e-07	-4.859728e-06	-4.265528e-09	-3.461513e+01	-2.747767e+02
2.400000e-07	-4.815534e-06	-4.160090e-09	-3.430034e+01	-2.733767e+02
2.500000e-07	-4.769579e-06	-4.100174e-09	-3.397301e+01	-2.719486e+02
2.600000e-07	-4.721697e-06	-4.122029e-09	-3.363195e+01	-2.704800e+02
2.700000e-07	-4.671690e-06	-4.149339e-09	-3.327576e+01	-2.689543e+02
2.800000e-07	-4.619576e-06	-4.145055e-09	-3.290456e+01	-2.673553e+02
2.900000e-07	-4.565623e-06	-4.046032e-09	-3.252026e+01	-2.656714e+02
3.000000e-07	-4.510093e-06	-3.971535e-09	-3.212473e+01	-2.638979e+02
3.100000e-07	-4.452887e-06	-3.988424e-09	-3.171726e+01	-2.620386e+02
3.200000e-07	-4.393920e-06	-4.019554e-09	-3.129724e+01	-2.601038e+02
3.300000e-07	-4.333454e-06	-3.984877e-09	-3.086656e+01	-2.581079e+02
3.400000e-07	-4.271538e-06	-3.898293e-09	-3.042553e+01	-2.560652e+02
3.500000e-07	-4.208196e-06	-3.845742e-09	-2.997436e+01	-2.539859e+02
3.600000e-07	-4.143331e-06	-3.818955e-09	-2.951234e+01	-2.518734e+02
3.700000e-07	-4.076766e-06	-3.829739e-09	-2.903820e+01	-2.497238e+02
3.800000e-07	-4.008637e-06	-3.832832e-09	-2.855293e+01	-2.475264e+02
3.900000e-07	-3.939126e-06	-3.762496e-09	-2.805781e+01	-2.452670e+02
4.000000e-07	-3.868366e-06	-3.682250e-09	-2.755380e+01	-2.429318e+02
4.100000e-07	-3.796458e-06	-3.625091e-09	-2.704161e+01	-2.405105e+02
4.200000e-07	-3.723141e-06	-3.617232e-09	-2.651938e+01	-2.379993e+02
4.300000e-07	-3.648174e-06	-3.618008e-09	-2.598541e+01	-2.354014e+02
4.400000e-07	-3.571682e-06	-3.578746e-09	-2.544056e+01	-2.327260e+02
4.500000e-07	-3.493760e-06	-3.498569e-09	-2.488554e+01	-2.299856e+02
4.600000e-07	-3.414339e-06	-3.420251e-09	-2.431983e+01	-2.271921e+02
4.700000e-07	-3.333634e-06	-3.396746e-09	-2.374498e+01	-2.243541e+02
4.800000e-07	-3.251804e-06	-3.389944e-09	-2.316212e+01	-2.214743e+02
4.900000e-07	-3.168850e-06	-3.353131e-09	-2.257125e+01	-2.185489e+02
5.000000e-07	-3.084908e-06	-3.283893e-09	-2.197335e+01	-2.155689e+02
5.100000e-07	-3.000063e-06	-3.211924e-09	-2.136901e+01	-2.125225e+02
5.200000e-07	-2.914261e-06	-3.159739e-09	-2.075785e+01	-2.093981e+02
5.300000e-07	-2.827437e-06	-3.129206e-09	-2.013942e+01	-2.061872e+02
5.400000e-07	-2.739735e-06	-3.101188e-09	-1.951473e+01	-2.028861e+02
5.500000e-07	-2.651070e-06	-3.040663e-09	-1.888318e+01	-1.994963e+02
5.600000e-07	-2.561158e-06	-2.954232e-09	-1.824275e+01	-1.960229e+02
5.700000e-07	-2.470079e-06	-2.890684e-09	-1.759401e+01	-1.924728e+02
5.800000e-07	-2.378163e-06	-2.859244e-09	-1.693931e+01	-1.888516e+02
5.900000e-07	-2.285545e-06	-2.818339e-09	-1.627960e+01	-1.851617e+02
6.000000e-07	-2.192156e-06	-2.747438e-09	-1.561440e+01	-1.814012e+02
6.100000e-07	-2.097980e-06	-2.671737e-09	-1.494360e+01	-1.775640e+02
6.200000e-07	-2.003101e-06	-2.607053e-09	-1.426780e+01	-1.736417e+02
6.300000e-07	-1.907584e-06	-2.548179e-09	-1.358744e+01	-1.696260e+02
6.400000e-07	-1.811370e-06	-2.497486e-09	-1.290212e+01	-1.655107e+02
6.500000e-07	-1.714319e-06	-2.444401e-09	-1.221084e+01	-1.612938e+02
6.600000e-07	-1.616439e-06	-2.370305e-09	-1.151365e+01	-1.569777e+02
6.700000e-07	-1.517914e-06	-2.282358e-09	-1.081187e+01	-1.525687e+02
6.800000e-07	-1.418874e-06	-2.208282e-09	-1.010643e+01	-1.480748e+02
6.900000e-07	-1.319386e-06	-2.152086e-09	-9.397794e+00	-1.435030e+02
7.000000e-07	-1.219514e-06	-2.090783e-09	-8.686418e+00	-1.388569e+02
7.100000e-07	-1.119285e-06	-2.013936e-09	-7.972503e+00	-1.341354e+02
7.200000e-07	-1.018758e-06	-1.930581e-09	-7.256463e+00	-1.293320e+02
7.300000e-07	-9.179606e-07	-1.851411e-09	-6.538498e+00	-1.244364e+02
7.400000e-07	-8.168448e-07	-1.778477e-09	-5.818265e+00	-1.194365e+02
7.500000e-07	-7.154038e-07	-1.707040e-09	-5.095716e+00	-1.143208e+02
7.600000e-07	-6.136774e-07	-1.627703e-09	-4.371134e+00	-1.090813e+02
7.700000e-07	-5.117098e-07	-1.535814e-09	-3.644834e+00	-1.037146e+02
7.800000e-07	-4.095571e-07	-1.441206e-09	-2.917215e+00	-9.822236e+01
7.900000e-07	-3.072840e-07	-1.355010e-09	-2.188739e+00	-9.261020e+01
8.000000e-07	-2.049005e-07	-1.274807e-09	-1.459476e+00	-8.688548e+01
8.100000e-07	-1.024304e-07	-1.190465e-09	-7.295966e-01	-8.105495e+01
8.200000e-07	7.929358e-11	-1.099850e-09	5.647965e-04	-7.512256e+01
8.300000e-07	1.026602e-07	-1.006028e-09	7.312333e-01	-6.908803e+01
8.400000e-07	2.052116e-07	-9.125867e-10	1.461692e+00	-6.294667e+01
8.500000e-07	3.076449e-07	-8.194477e-10	2.191309e+00	-5.669017e+01
8.600000e-07	4.099442e-07	-7.233225e-10	2.919972e+00	-5.030824e+01
8.700000e-07	5.120822e-07	-6.222487e-10	3.647486e+00	-4.379046e+01
8.800000e-07	6.140678e-07	-5.178080e-10	4.373914e+00	-3.712784e+01
8.900000e-07	7.159098e-07	-4.129243e-10	5.099320e+00	-3.031378e+01
9.000000e-07	8.175394e-07	-3.080714e-10	5.823212e+00	-2.334414e+01
9.100000e-07	9.188440e-07	-2.043485e-10	6.544790e+00	-1.621667e+01
9.200000e-07	1.019839e-06	-9.859203e-11	7.264164e+00	-8.930208e+00
9.300000e-07	1.120487e-06	1.349074e-11	7.981066e+00	-1.483889e+00
9.400000e-07	1.220777e-06	1.322673e-10	8.695415e+00	6.122917e+00
9.500000e-07	1.320706e-06	2.526977e-10	9.407195e+00	1.388998e+01
9.600000e-07	1.420171e-06	3.708064e-10	1.011567e+01	2.181485e+01
9.700000e-07	1.519117e-06	4.896352e-10	1.082045e+01	2.989101e+01
9.800000e-07	1.617462e-06	6.119144e-10	1.152094e+01	3.810626e+01
9.900000e-07	1.715021e-06	7.391043e-10	1.221584e+01	4.644150e+01
1.000000e-06	1.811747e-06	8.694930e-10	1.290481e+01	5.487061e+01
1.010000e-06	1.907724e-06	9.986161e-10	1.358844e+01	6.336144e+01
1.020000e-06	2.002986e-06	1.126010e-09	1.426698e+01	7.187764e+01
1.030000e-06	2.097567e-06	1.253416e-09	1.494066e+01	8.038124e+01
1.040000e-06	2.191440e-06	1.383289e-09	1.560931e+01	8.883508e+01
1.050000e-06	2.284554e-06	1.513076e-09	1.627254e+01	9.720491e+01
1.060000e-06	2.376985e-06	1.638895e-09	1.693092e+01	1.054605e+02
1.070000e-06	2.468768e-06	1.758435e-09	1.758467e+01	1.135759e+02
1.080000e-06	2.559696e-06	1.877494e-09	1.823234e+01	1.215289e+02
1.090000e-06	2.649485e-06	1.998157e-09	1.887189e+01	1.293000e+02
1.100000e-06	2.738097e-06	2.118464e-09	1.950306e+01	1.368714e+02
1.110000e-06	2.825725e-06	2.232299e-09	2.012722e+01	1.442269e+02
1.120000e-06	2.912442e-06	2.337554e-09	2.074489e+01	1.513516e+02
1.130000e-06	2.998253e-06	2.439219e-09	2.135611e+01	1.582335e+02
1.140000e-06	3.083120e-06	2.541393e-09	2.196061e+01	1.648642e+02
1.150000e-06	3.167005e-06	2.642567e-09	2.255811e+01	1.712406e+02
1.160000e-06	3.249880e-06	2.739077e-09	2.314842e+01	1.773651e+02
1.170000e-06	3.331553e-06	2.830491e-09	2.373016e+01	1.832460e+02
1.180000e-06	3.411954e-06	2.915421e-09	2.430285e+01	1.888958e+02
1.190000e-06	3.491147e-06	2.997690e-09	2.486693e+01	1.943298e+02
1.200000e-06	3.569128e-06	3.078278e-09	2.542238e+01	1.995633e+02
1.210000e-06	3.645854e-06	3.158241e-09	2.596888e+01	2.046097e+02
1.220000e-06	3.721212e-06	3.234699e-09	2.650565e+01	2.094786e+02
1.230000e-06	3.794998e-06	3.305431e-09	2.703121e+01	2.141754e+02
1.240000e-06	3.867193e-06	3.371177e-09	2.754545e+01	2.187014e+02
1.250000e-06	3.937962e-06	3.436612e-09	2.804952e+01	2.230557e+02
1.260000e-06	4.007346e-06	3.503890e-09	2.854373e+01	2.272363e+02
1.270000e-06	4.075420e-06	3.568915e-09	2.902861e+01	2.312421e+02
1.280000e-06	4.142071e-06	3.626097e-09	2.950336e+01	2.350741e+02
1.290000e-06	4.207059e-06	3.677662e-09	2.996626e+01	2.387357e+02
1.300000e-06	4.270445e-06	3.727631e-09	3.041775e+01	2.422327e+02
1.310000e-06	4.332366e-06	3.774866e-09	3.085880e+01	2.455715e+02
1.320000e-06	4.392925e-06	3.820733e-09	3.129016e+01	2.487587e+02
1.330000e-06	4.452118e-06	3.865496e-09	3.171178e+01	2.517994e+02
1.340000e-06	4.509621e-06	3.906570e-09	3.212137e+01	2.546967e+02
1.350000e-06	4.565300e-06	3.944745e-09	3.251796e+01	2.574524e+02
1.360000e-06	4.619361e-06	3.982946e-09	3.290303e+01	2.600670e+02
1.370000e-06	4.671718e-06	4.021725e-09	3.327596e+01	2.625414e+02
1.380000e-06	4.722033e-06	4.058289e-09	3.363434e+01	2.648779e+02
1.390000e-06	4.770358e-06	4.089757e-09	3.397856e+01	2.670805e+02
1.400000e-06	4.816939e-06	4.116995e-09	3.431035e+01	2.691559e+02
1.410000e-06	4.861947e-06	4.141816e-09	3.463093e+01	2.711119e+02
1.420000e-06	4.905480e-06	4.166322e-09	3.494101e+01	2.729572e+02
1.430000e-06	4.947158e-06	4.190253e-09	3.523788e+01	2.746999e+02
1.440000e-06	4.986906e-06	4.213769e-09	3.552100e+01	2.763460e+02
1.450000e-06	5.025004e-06	4.236802e-09	3.579236e+01	2.778999e+02
1.460000e-06	5.061528e-06	4.258856e-09	3.605252e+01	2.793637e+02
1.470000e-06	5.096302e-06	4.281427e-09	3.630021e+01	2.807381e+02
1.480000e-06	5.129144e-06	4.301855e-09	3.653414e+01	2.820238e+02
1.490000e-06	5.160187e-06	4.318207e-09	3.675525e+01	2.832220e+02
1.500000e-06	5.189525e-06	4.331387e-09	3.696422e+01	2.843352e+02
1.510000e-06	5.217212e-06	4.343471e-09	3.716143e+01	2.853672e+02
1.520000e-06	5.242932e-06	4.356179e-09	3.734463e+01	2.863222e+02
1.530000e-06	5.266513e-06	4.369998e-09	3.751259e+01	2.872041e+02
1.540000e-06	5.288189e-06	4.384304e-09	3.766699e+01	2.880153e+02
1.550000e-06	5.308202e-06	4.397176e-09	3.780954e+01	2.887556e+02
1.560000e-06	5.326439e-06	4.409152e-09	3.793944e+01	2.894229e+02
1.570000e-06	5.342575e-06	4.420344e-09	3.805438e+01	2.900132e+02
1.580000e-06	5.356710e-06	4.429476e-09	3.815505e+01	2.905221e+02
1.590000e-06	5.368903e-06	4.436203e-09	3.824190e+01	2.909465e+02
1.600000e-06	5.378876e-06	4.439733e-09	3.831294e+01	2.912860e+02
1.610000e-06	5.386701e-06	4.441589e-09	3.836868e+01	2.915434e+02
1.620000e-06	5.392649e-06	4.444206e-09	3.841105e+01	2.917245e+02
1.630000e-06	5.396882e-06	4.448578e-09	3.844120e+01	2.918375e+02
1.640000e-06	5.399246e-06	4.453361e-09	3.845803e+01	2.918909e+02
1.650000e-06	5.399522e-06	4.456945e-09	3.846000e+01	2.918918e+02
1.660000e-06	5.397994e-06	4.455494e-09	3.844912e+01	2.918444e+02
1.670000e-06	5.394848e-06	4.453137e-09	3.842671e+01	2.917492e+02
1.680000e-06	5.390067e-06	4.452930e-09	3.839265e+01	2.916037e+02
1.690000e-06	5.383362e-06	4.450744e-09	3.834490e+01	2.914037e+02
1.700000e-06	5.374783e-06	4.446948e-09	3.828379e+01	2.911451e+02
1.710000e-06	5.364653e-06	4.444092e-09	3.821163e+01	2.908255e+02
1.720000e-06	5.352839e-06	4.447252e-09	3.812749e+01	2.904462e+02
1.730000e-06	5.339110e-06	4.445468e-09	3.802970e+01	2.900113e+02
1.740000e-06	5.323259e-06	4.385179e-09	3.791679e+01	2.895276e+02
1.750000e-06	5.304974e-06	4.377403e-09	3.778655e+01	2.890019e+02
1.760000e-06	5.283993e-06	4.393349e-09	3.763710e+01	2.884386e+02
1.770000e-06	5.260802e-06	4.403148e-09	3.747192e+01	2.878379e+02
1.780000e-06	5.236442e-06	4.477688e-09	3.729840e+01	2.871944e+02
1.790000e-06	5.211355e-06	4.399015e-09	3.711971e+01	2.864975e+02
1.800000e-06	5.184758e-06	4.363463e-09	3.693026e+01	2.857334e+02
1.810000e-06	5.155935e-06	4.415371e-09	3.672497e+01	2.848882e+02
1.820000e-06	5.125394e-06	4.270769e-09	3.650743e+01	2.839511e+02
1.830000e-06	5.093115e-06	4.283551e-09	3.627751e+01	2.829175e+02
1.840000e-06	5.058822e-06	4.374988e-09	3.603325e+01	2.817905e+02
1.850000e-06	5.022996e-06	4.245356e-09	3.577806e+01	2.805809e+02
1.860000e-06	4.985319e-06	4.251521e-09	3.550969e+01	2.793047e+02
1.870000e-06	4.945683e-06	4.197773e-09	3.522737e+01	2.779796e+02
1.880000e-06	4.904419e-06	4.081676e-09	3.493346e+01	2.766211e+02
1.890000e-06	4.861350e-06	4.194344e-09	3.462668e+01	2.752385e+02
1.900000e-06	4.816754e-06	4.176975e-09	3.430903e+01	2.738331e+02
1.910000e-06	4.770348e-06	4.152789e-09	3.397849e+01	2.723975e+02
1.920000e-06	4.721775e-06	4.108964e-09	3.363251e+01	2.709179e+02
1.930000e-06	4.671595e-06	3.969110e-09	3.327509e+01	2.693777e+02
1.940000e-06	4.619793e-06	4.057491e-09	3.290611e+01	2.677611e+02
1.950000e-06	4.565967e-06	4.078558e-09	3.252271e+01	2.660580e+02
1.960000e-06	4.510127e-06	4.023911e-09	3.212497e+01	2.642655e+02
1.970000e-06	4.452549e-06	3.968734e-09	3.171485e+01	2.623888e+02
1.980000e-06	4.393554e-06	3.874886e-09	3.129464e+01	2.604395e+02
1.990000e-06	4.333127e-06	3.914093e-09	3.086422e+01	2.584323e+02
2.000000e-06	4.271014e-06	3.886961e-09	3.042180e+01	2.563810e+02
2.010000e-06	4.207239e-06	3.874946e-09	2.996754e+01	2.542944e+02
2.020000e-06	4.141928e-06	3.840314e-09	2.950234e+01	2.521745e+02
2.030000e-06	4.075185e-06	3.730951e-09	2.902694e+01	2.500155e+02
2.040000e-06	4.007151e-06	3.713892e-09	2.854235e+01	2.478060e+02
2.050000e-06	3.937704e-06	3.694272e-09	2.804768e+01	2.455313e+02
2.060000e-06	3.866610e-06	3.736375e-09	2.754129e+01	2.431782e+02
2.070000e-06	3.794088e-06	3.698141e-09	2.702473e+01	2.407376e+02
2.080000e-06	3.720325e-06	3.580838e-09	2.649933e+01	2.382072e+02
2.090000e-06	3.645191e-06	3.527882e-09	2.596416e+01	2.355916e+02
2.100000e-06	3.568612e-06	3.504082e-09	2.541870e+01	2.329011e+02
2.110000e-06	3.490352e-06	3.526230e-09	2.486126e+01	2.301482e+02
2.120000e-06	3.410691e-06	3.474169e-09	2.429385e+01	2.273446e+02
2.130000e-06	3.329993e-06	3.409317e-09	2.371905e+01	2.244975e+02
2.140000e-06	3.248140e-06	3.345172e-09	2.313602e+01	2.216083e+02
2.150000e-06	3.165181e-06	3.277182e-09	2.254512e+01	2.186720e+02
2.160000e-06	3.081273e-06	3.267634e-09	2.194745e+01	2.156787e+02
2.170000e-06	2.996319e-06	3.259060e-09	2.134234e+01	2.126163e+02
2.180000e-06	2.909943e-06	3.209920e-09	2.072709e+01	2.094738e+02
2.190000e-06	2.822252e-06	3.102881e-09	2.010249e+01	2.062436e+02
2.200000e-06	2.733651e-06	3.041077e-09	1.947139e+01	2.029231e+02
2.210000e-06	2.644188e-06	3.035065e-09	1.883416e+01	1.995147e+02
2.220000e-06	2.553824e-06	3.009740e-09	1.819051e+01	1.960242e+02
2.230000e-06	2.462606e-06	2.941588e-09	1.754078e+01	1.924584e+02
2.240000e-06	2.370702e-06	2.862216e-09	1.688616e+01	1.888223e+02
2.250000e-06	2.278130e-06	2.801772e-09	1.622679e+01	1.851174e+02
2.260000e-06	2.184641e-06	2.740278e-09	1.556088e+01	1.813409e+02
2.270000e-06	2.090036e-06	2.705322e-09	1.488702e+01	1.774862e+02
2.280000e-06	1.994427e-06	2.675453e-09	1.420601e+01	1.735444e+02
2.290000e-06	1.898115e-06	2.601906e-09	1.352000e+01	1.695077e+02
2.300000e-06	1.801269e-06	2.499816e-09	1.283018e+01	1.653705e+02
2.310000e-06	1.703890e-06	2.428050e-09	1.213656e+01	1.611318e+02
2.320000e-06	1.605927e-06	2.397467e-09	1.143878e+01	1.567951e+02
2.330000e-06	1.507431e-06	2.351177e-09	1.073721e+01	1.523671e+02
2.340000e-06	1.408461e-06	2.268453e-09	1.003226e+01	1.478559e+02
2.350000e-06	1.309045e-06	2.176840e-09	9.324136e+00	1.432678e+02
2.360000e-06	1.209253e-06	2.103769e-09	8.613332e+00	1.386057e+02
2.370000e-06	1.109261e-06	2.043161e-09	7.901101e+00	1.338672e+02
2.380000e-06	1.009066e-06	1.985646e-09	7.187431e+00	1.290450e+02
2.390000e-06	9.084955e-07	1.919195e-09	6.471080e+00	1.241280e+02
2.400000e-06	8.074535e-07	1.829376e-09	5.751372e+00	1.191040e+02
2.410000e-06	7.060478e-07	1.731491e-09	5.029075e+00	1.139621e+02
2.420000e-06	6.044836e-07	1.653141e-09	4.305648e+00	1.086953e+02
2.430000e-06	5.027534e-07	1.593864e-09	3.581038e+00	1.033013e+02
2.440000e-06	4.007697e-07	1.527227e-09	2.854624e+00	9.778273e+01
2.450000e-06	2.984776e-07	1.433156e-09	2.126012e+00	9.214569e+01
2.460000e-06	1.959760e-07	1.328194e-09	1.395908e+00	8.639767e+01
2.470000e-06	9.337737e-08	1.236560e-09	6.651133e-01	8.054499e+01
2.480000e-06	-9.258900e-09	1.154897e-09	-6.594978e-02	7.459076e+01
2.490000e-06	-1.119226e-07	1.069663e-09	-7.972082e-01	6.853376e+01
2.500000e-06	-2.146252e-07	9.729068e-10	-1.528744e+00	6.236840e+01
2.510000e-06	-3.171954e-07	8.693710e-10	-2.259336e+00	5.608580e+01
2.520000e-06	-4.195441e-07	7.670113e-10	-2.988351e+00	4.967549e+01
2.530000e-06	-5.217269e-07	6.702759e-10	-3.716184e+00	4.312723e+01
2.540000e-06	-6.237188e-07	5.787961e-10	-4.442657e+00	3.643250e+01
2.550000e-06	-7.254389e-07	4.804649e-10	-5.167194e+00	2.958525e+01
2.560000e-06	-8.267714e-07	3.638178e-10	-5.888971e+00	2.258181e+01
2.570000e-06	-9.277329e-07	2.392392e-10	-6.608105e+00	1.542023e+01
2.580000e-06	-1.028317e-06	1.257519e-10	-7.324552e+00	8.099454e+00
2.590000e-06	-1.128476e-06	2.227565e-11	-8.037966e+00	6.186621e-01
2.600000e-06	-1.228258e-06	-8.754136e-11	-8.748700e+00	-7.022679e+00
2.610000e-06	-1.327708e-06	-2.113454e-10	-9.457068e+00	-1.482400e+01
2.620000e-06	-1.426712e-06	-3.439149e-10	-1.016226e+01	-2.278212e+01
2.630000e-06	-1.525184e-06	-4.734058e-10	-1.086366e+01	-3.088947e+01
2.640000e-06	-1.623115e-06	-5.968988e-10	-1.156121e+01	-3.913240e+01
2.650000e-06	-1.720433e-06	-7.192233e-10	-1.225439e+01	-4.749030e+01
2.660000e-06	-1.817173e-06	-8.475090e-10	-1.294345e+01	-5.593565e+01
2.670000e-06	-1.913441e-06	-9.854304e-10	-1.362916e+01	-6.443519e+01
2.680000e-06	-2.009192e-06	-1.122481e-09	-1.431118e+01	-7.295202e+01
2.690000e-06	-2.104140e-06	-1.249085e-09	-1.498748e+01	-8.144813e+01
2.700000e-06	-2.198085e-06	-1.369693e-09	-1.565663e+01	-8.988685e+01
2.710000e-06	-2.291050e-06	-1.497377e-09	-1.631881e+01	-9.823472e+01
2.720000e-06	-2.383118e-06	-1.631463e-09	-1.697460e+01	-1.064625e+02
2.730000e-06	-2.474338e-06	-1.760191e-09	-1.762435e+01	-1.145450e+02
2.740000e-06	-2.564689e-06	-1.882395e-09	-1.826790e+01	-1.224607e+02
2.750000e-06	-2.654104e-06	-2.000906e-09	-1.890479e+01	-1.301905e+02
2.760000e-06	-2.742706e-06	-2.114460e-09	-1.953589e+01	-1.377171e+02
2.770000e-06	-2.830588e-06	-2.223995e-09	-2.016186e+01	-1.450244e+02
2.780000e-06	-2.917515e-06	-2.332632e-09	-2.078103e+01	-1.520981e+02
2.790000e-06	-3.003244e-06	-2.437152e-09	-2.139167e+01	-1.589269e+02
2.800000e-06	-3.087778e-06	-2.533197e-09	-2.199379e+01	-1.655033e+02
2.810000e-06	-3.171228e-06	-2.624832e-09	-2.258819e+01	-1.718254e+02
2.820000e-06	-3.253682e-06	-2.717381e-09	-2.317549e+01	-1.778970e+02
2.830000e-06	-3.335102e-06	-2.810650e-09	-2.375544e+01	-1.837273e+02
2.840000e-06	-3.415439e-06	-2.899507e-09	-2.432767e+01	-1.893297e+02
2.850000e-06	-3.494491e-06	-2.980855e-09	-2.489075e+01	-1.947196e+02
2.860000e-06	-3.572027e-06	-3.056852e-09	-2.544302e+01	-1.999121e+02
2.870000e-06	-3.648113e-06	-3.130328e-09	-2.598497e+01	-2.049199e+02
2.880000e-06	-3.722752e-06	-3.202733e-09	-2.651662e+01	-2.097517e+02
2.890000e-06	-3.795992e-06	-3.274485e-09	-2.703829e+01	-2.144120e+02
2.900000e-06	-3.867990e-06	-3.343194e-09	-2.755112e+01	-2.189015e+02
2.910000e-06	-3.938579e-06	-3.407693e-09	-2.805391e+01	-2.232189e+02
2.920000e-06	-4.007587e-06	-3.470935e-09	-2.854545e+01	-2.273622e+02
2.930000e-06	-4.075105e-06	-3.534742e-09	-2.902637e+01	-2.313307e+02
2.940000e-06	-4.141202e-06	-3.596953e-09	-2.949717e+01	-2.351259e+02
