# Temperatura_=_36.65
# Concentracion g/m^3_=_15000.0
# C_Vs_to_Am_M_A/Vsm_=_65563218390.804596
# pendiente_HvsI_1/m_=_3716.3
# ordenada_HvsI_A/m_=_1297.0
# frecuencia_Hz_=_301576.332603502

Tiempo_(s)	Campo_(V.s)	Magnetizacion_(V.s)	Campo_(kA/m)	Magnetizacion_(A/m)
0.000000e+00	-5.385908e-06	-4.842166e-09	-3.833977e+01	-3.156762e+02
1.000000e-08	-5.383027e-06	-4.841459e-09	-3.831926e+01	-3.154837e+02
2.000000e-08	-5.378385e-06	-4.835847e-09	-3.828622e+01	-3.152406e+02
3.000000e-08	-5.372136e-06	-4.828254e-09	-3.824173e+01	-3.149522e+02
4.000000e-08	-5.364327e-06	-4.819922e-09	-3.818615e+01	-3.146176e+02
5.000000e-08	-5.354704e-06	-4.810543e-09	-3.811764e+01	-3.142299e+02
6.000000e-08	-5.342986e-06	-4.802746e-09	-3.803423e+01	-3.137785e+02
7.000000e-08	-5.329315e-06	-4.796540e-09	-3.793691e+01	-3.132521e+02
8.000000e-08	-5.313540e-06	-4.791296e-09	-3.782462e+01	-3.126429e+02
9.000000e-08	-5.295544e-06	-4.808198e-09	-3.769651e+01	-3.119500e+02
1.000000e-07	-5.275568e-06	-4.804812e-09	-3.755431e+01	-3.111808e+02
1.100000e-07	-5.253669e-06	-4.766738e-09	-3.739842e+01	-3.103508e+02
1.200000e-07	-5.230053e-06	-4.736078e-09	-3.723031e+01	-3.094806e+02
1.300000e-07	-5.204949e-06	-4.699486e-09	-3.705161e+01	-3.085919e+02
1.400000e-07	-5.178183e-06	-4.679827e-09	-3.686107e+01	-3.077016e+02
1.500000e-07	-5.149800e-06	-4.733518e-09	-3.665902e+01	-3.068178e+02
1.600000e-07	-5.119992e-06	-4.693035e-09	-3.644684e+01	-3.059363e+02
1.700000e-07	-5.088489e-06	-4.654382e-09	-3.622258e+01	-3.050412e+02
1.800000e-07	-5.054849e-06	-4.680149e-09	-3.598311e+01	-3.041063e+02
1.900000e-07	-5.019439e-06	-4.623202e-09	-3.573105e+01	-3.031007e+02
2.000000e-07	-4.982572e-06	-4.638049e-09	-3.546861e+01	-3.019946e+02
2.100000e-07	-4.943939e-06	-4.638438e-09	-3.519360e+01	-3.007647e+02
2.200000e-07	-4.903500e-06	-4.548258e-09	-3.490573e+01	-2.993991e+02
2.300000e-07	-4.861105e-06	-4.542286e-09	-3.460394e+01	-2.978990e+02
2.400000e-07	-4.816807e-06	-4.529773e-09	-3.428861e+01	-2.962775e+02
2.500000e-07	-4.770719e-06	-4.492796e-09	-3.396053e+01	-2.945565e+02
2.600000e-07	-4.722625e-06	-4.507553e-09	-3.361817e+01	-2.927610e+02
2.700000e-07	-4.672455e-06	-4.441998e-09	-3.326103e+01	-2.909141e+02
2.800000e-07	-4.620275e-06	-4.392906e-09	-3.288959e+01	-2.890322e+02
2.900000e-07	-4.566305e-06	-4.387380e-09	-3.250540e+01	-2.871226e+02
3.000000e-07	-4.510756e-06	-4.365397e-09	-3.210997e+01	-2.851828e+02
3.100000e-07	-4.453439e-06	-4.340366e-09	-3.170196e+01	-2.832032e+02
3.200000e-07	-4.394340e-06	-4.300758e-09	-3.128126e+01	-2.811702e+02
3.300000e-07	-4.333700e-06	-4.256576e-09	-3.084959e+01	-2.790706e+02
3.400000e-07	-4.271591e-06	-4.211568e-09	-3.040747e+01	-2.768950e+02
3.500000e-07	-4.208123e-06	-4.195980e-09	-2.995567e+01	-2.746396e+02
3.600000e-07	-4.143139e-06	-4.171727e-09	-2.949308e+01	-2.723067e+02
3.700000e-07	-4.076474e-06	-4.118634e-09	-2.901852e+01	-2.699029e+02
3.800000e-07	-4.008235e-06	-4.079841e-09	-2.853276e+01	-2.674367e+02
3.900000e-07	-3.938667e-06	-4.043303e-09	-2.803754e+01	-2.649152e+02
4.000000e-07	-3.867928e-06	-4.010788e-09	-2.753398e+01	-2.623416e+02
4.100000e-07	-3.795955e-06	-3.977981e-09	-2.702164e+01	-2.597149e+02
4.200000e-07	-3.722489e-06	-3.922466e-09	-2.649866e+01	-2.570294e+02
4.300000e-07	-3.647353e-06	-3.870738e-09	-2.596381e+01	-2.542767e+02
4.400000e-07	-3.570732e-06	-3.824322e-09	-2.541838e+01	-2.514483e+02
4.500000e-07	-3.492697e-06	-3.789798e-09	-2.486288e+01	-2.485377e+02
4.600000e-07	-3.413203e-06	-3.757004e-09	-2.429700e+01	-2.455418e+02
4.700000e-07	-3.332463e-06	-3.706290e-09	-2.372225e+01	-2.424619e+02
4.800000e-07	-3.250598e-06	-3.647561e-09	-2.313949e+01	-2.393020e+02
4.900000e-07	-3.167607e-06	-3.593597e-09	-2.254872e+01	-2.360674e+02
5.000000e-07	-3.083634e-06	-3.548643e-09	-2.195096e+01	-2.327624e+02
5.100000e-07	-2.998759e-06	-3.496081e-09	-2.134677e+01	-2.293884e+02
5.200000e-07	-2.912926e-06	-3.441988e-09	-2.073576e+01	-2.259427e+02
5.300000e-07	-2.826082e-06	-3.382060e-09	-2.011756e+01	-2.224190e+02
5.400000e-07	-2.738311e-06	-3.320488e-09	-1.949276e+01	-2.188085e+02
5.500000e-07	-2.649495e-06	-3.266013e-09	-1.886052e+01	-2.151023e+02
5.600000e-07	-2.559477e-06	-3.215424e-09	-1.821973e+01	-2.112934e+02
5.700000e-07	-2.468449e-06	-3.159899e-09	-1.757174e+01	-2.073788e+02
5.800000e-07	-2.376595e-06	-3.089120e-09	-1.691787e+01	-2.033600e+02
5.900000e-07	-2.283875e-06	-3.020934e-09	-1.625784e+01	-1.992425e+02
6.000000e-07	-2.190278e-06	-2.960951e-09	-1.559157e+01	-1.950345e+02
6.100000e-07	-2.095926e-06	-2.900943e-09	-1.491992e+01	-1.907441e+02
6.200000e-07	-2.000947e-06	-2.832901e-09	-1.424381e+01	-1.863777e+02
6.300000e-07	-1.905396e-06	-2.759542e-09	-1.356363e+01	-1.819377e+02
6.400000e-07	-1.809116e-06	-2.686320e-09	-1.287826e+01	-1.774223e+02
6.500000e-07	-1.711962e-06	-2.615960e-09	-1.218666e+01	-1.728256e+02
6.600000e-07	-1.614000e-06	-2.549751e-09	-1.148932e+01	-1.681395e+02
6.700000e-07	-1.515379e-06	-2.481880e-09	-1.078728e+01	-1.633552e+02
6.800000e-07	-1.416252e-06	-2.407155e-09	-1.008164e+01	-1.584655e+02
6.900000e-07	-1.316714e-06	-2.323197e-09	-9.373074e+00	-1.534661e+02
7.000000e-07	-1.216780e-06	-2.239340e-09	-8.661692e+00	-1.483560e+02
7.100000e-07	-1.116484e-06	-2.159509e-09	-7.947730e+00	-1.431372e+02
7.200000e-07	-1.015873e-06	-2.078687e-09	-7.231527e+00	-1.378132e+02
7.300000e-07	-9.150034e-07	-1.993817e-09	-6.513483e+00	-1.323876e+02
7.400000e-07	-8.138462e-07	-1.908590e-09	-5.793392e+00	-1.268624e+02
7.500000e-07	-7.123376e-07	-1.824790e-09	-5.070800e+00	-1.212368e+02
7.600000e-07	-6.105090e-07	-1.739714e-09	-4.345930e+00	-1.155077e+02
7.700000e-07	-5.084477e-07	-1.651192e-09	-3.619402e+00	-1.096692e+02
7.800000e-07	-4.062358e-07	-1.558097e-09	-2.891804e+00	-1.037145e+02
7.900000e-07	-3.039375e-07	-1.463373e-09	-2.163590e+00	-9.763666e+01
8.000000e-07	-2.015476e-07	-1.366924e-09	-1.434723e+00	-9.142965e+01
8.100000e-07	-9.901861e-08	-1.271343e-09	-7.048673e-01	-8.508888e+01
8.200000e-07	3.610012e-09	-1.176432e-09	2.569799e-02	-7.861095e+01
8.300000e-07	1.062143e-07	-1.077471e-09	7.560901e-01	-7.199298e+01
8.400000e-07	2.087546e-07	-9.729295e-10	1.486027e+00	-6.523164e+01
8.500000e-07	3.112550e-07	-8.659053e-10	2.215679e+00	-5.832230e+01
8.600000e-07	4.136524e-07	-7.586082e-10	2.944599e+00	-5.125853e+01
8.700000e-07	5.159260e-07	-6.495328e-10	3.672637e+00	-4.403225e+01
8.800000e-07	6.180571e-07	-5.398322e-10	4.399661e+00	-3.663444e+01
8.900000e-07	7.199909e-07	-4.269655e-10	5.125280e+00	-2.905622e+01
9.000000e-07	8.216536e-07	-3.098800e-10	5.848969e+00	-2.129018e+01
9.100000e-07	9.229842e-07	-1.889945e-10	6.570295e+00	-1.333153e+01
9.200000e-07	1.023964e-06	-6.573792e-11	7.289125e+00	-5.178854e+00
9.300000e-07	1.124591e-06	6.075314e-11	8.005442e+00	3.165478e+00
9.400000e-07	1.224863e-06	1.917851e-10	8.719227e+00	1.169533e+01
9.500000e-07	1.324779e-06	3.240669e-10	9.430484e+00	2.040094e+01
9.600000e-07	1.424336e-06	4.576409e-10	1.013919e+01	2.926905e+01
9.700000e-07	1.523416e-06	5.939027e-10	1.084449e+01	3.828279e+01
9.800000e-07	1.621816e-06	7.328679e-10	1.154495e+01	4.742136e+01
9.900000e-07	1.719410e-06	8.738189e-10	1.223968e+01	5.665948e+01
1.000000e-06	1.816209e-06	1.018094e-09	1.292875e+01	6.596705e+01
1.010000e-06	1.912222e-06	1.163352e-09	1.361222e+01	7.530917e+01
1.020000e-06	2.007473e-06	1.308018e-09	1.429026e+01	8.464677e+01
1.030000e-06	2.102060e-06	1.450098e-09	1.496359e+01	9.393802e+01
1.040000e-06	2.195951e-06	1.587748e-09	1.563195e+01	1.031404e+02
1.050000e-06	2.289056e-06	1.721849e-09	1.629473e+01	1.122130e+02
1.060000e-06	2.381424e-06	1.853574e-09	1.695225e+01	1.211191e+02
1.070000e-06	2.473150e-06	1.983084e-09	1.760520e+01	1.298276e+02
1.080000e-06	2.564105e-06	2.110420e-09	1.825267e+01	1.383143e+02
1.090000e-06	2.653994e-06	2.236291e-09	1.889255e+01	1.465619e+02
1.100000e-06	2.742701e-06	2.360126e-09	1.952401e+01	1.545588e+02
1.110000e-06	2.830332e-06	2.478187e-09	2.014782e+01	1.622977e+02
1.120000e-06	2.917046e-06	2.589590e-09	2.076509e+01	1.697743e+02
1.130000e-06	3.002862e-06	2.697761e-09	2.137597e+01	1.769854e+02
1.140000e-06	3.087677e-06	2.804851e-09	2.197974e+01	1.839287e+02
1.150000e-06	3.171529e-06	2.907106e-09	2.257663e+01	1.906027e+02
1.160000e-06	3.254404e-06	3.002031e-09	2.316659e+01	1.970077e+02
1.170000e-06	3.336069e-06	3.092753e-09	2.374792e+01	2.031468e+02
1.180000e-06	3.416450e-06	3.180910e-09	2.432012e+01	2.090267e+02
1.190000e-06	3.495590e-06	3.267266e-09	2.488348e+01	2.146584e+02
1.200000e-06	3.573503e-06	3.351647e-09	2.543810e+01	2.200566e+02
1.210000e-06	3.650241e-06	3.434700e-09	2.598437e+01	2.252383e+02
1.220000e-06	3.725659e-06	3.513979e-09	2.652123e+01	2.302213e+02
1.230000e-06	3.799434e-06	3.588324e-09	2.704640e+01	2.350219e+02
1.240000e-06	3.871567e-06	3.657562e-09	2.755988e+01	2.396532e+02
1.250000e-06	3.942282e-06	3.723437e-09	2.806327e+01	2.441240e+02
1.260000e-06	4.011598e-06	3.787465e-09	2.855670e+01	2.484388e+02
1.270000e-06	4.079627e-06	3.849628e-09	2.904096e+01	2.525987e+02
1.280000e-06	4.146325e-06	3.910203e-09	2.951576e+01	2.566027e+02
1.290000e-06	4.211353e-06	3.968333e-09	2.997866e+01	2.604496e+02
1.300000e-06	4.274765e-06	4.023189e-09	3.043006e+01	2.641392e+02
1.310000e-06	4.336723e-06	4.075582e-09	3.087111e+01	2.676732e+02
1.320000e-06	4.397314e-06	4.125619e-09	3.130243e+01	2.710552e+02
1.330000e-06	4.456521e-06	4.172289e-09	3.172390e+01	2.742899e+02
1.340000e-06	4.514036e-06	4.216467e-09	3.213332e+01	2.773818e+02
1.350000e-06	4.569767e-06	4.258841e-09	3.253004e+01	2.803346e+02
1.360000e-06	4.623853e-06	4.300253e-09	3.291506e+01	2.831499e+02
1.370000e-06	4.676219e-06	4.339718e-09	3.328783e+01	2.858275e+02
1.380000e-06	4.726556e-06	4.376370e-09	3.364615e+01	2.883663e+02
1.390000e-06	4.774865e-06	4.410518e-09	3.399004e+01	2.907651e+02
1.400000e-06	4.821430e-06	4.441980e-09	3.432151e+01	2.930241e+02
1.410000e-06	4.866427e-06	4.471499e-09	3.464183e+01	2.951460e+02
1.420000e-06	4.909856e-06	4.500235e-09	3.495098e+01	2.971363e+02
1.430000e-06	4.951478e-06	4.527560e-09	3.524726e+01	2.990029e+02
1.440000e-06	4.991235e-06	4.553336e-09	3.553027e+01	3.007546e+02
1.450000e-06	5.029275e-06	4.576797e-09	3.580107e+01	3.024002e+02
1.460000e-06	5.065755e-06	4.598561e-09	3.606075e+01	3.039462e+02
1.470000e-06	5.100615e-06	4.620758e-09	3.630890e+01	3.053968e+02
1.480000e-06	5.133518e-06	4.640589e-09	3.654312e+01	3.067529e+02
1.490000e-06	5.164494e-06	4.657486e-09	3.676363e+01	3.080136e+02
1.500000e-06	5.193753e-06	4.672716e-09	3.697191e+01	3.091773e+02
1.510000e-06	5.221322e-06	4.687038e-09	3.716816e+01	3.102432e+02
1.520000e-06	5.246913e-06	4.700593e-09	3.735033e+01	3.112132e+02
1.530000e-06	5.270408e-06	4.714355e-09	3.751758e+01	3.120914e+02
1.540000e-06	5.292054e-06	4.727736e-09	3.767167e+01	3.128848e+02
1.550000e-06	5.311988e-06	4.739001e-09	3.781357e+01	3.136008e+02
1.560000e-06	5.330121e-06	4.748987e-09	3.794265e+01	3.142462e+02
1.570000e-06	5.346255e-06	4.758767e-09	3.805750e+01	3.148250e+02
1.580000e-06	5.360401e-06	4.767958e-09	3.815820e+01	3.153371e+02
1.590000e-06	5.372562e-06	4.774678e-09	3.824477e+01	3.157786e+02
1.600000e-06	5.382450e-06	4.779190e-09	3.831516e+01	3.161425e+02
1.610000e-06	5.390180e-06	4.782888e-09	3.837018e+01	3.164213e+02
1.620000e-06	5.396113e-06	4.787306e-09	3.841242e+01	3.166092e+02
1.630000e-06	5.400286e-06	4.792415e-09	3.844212e+01	3.167042e+02
1.640000e-06	5.402545e-06	4.795885e-09	3.845820e+01	3.167096e+02
1.650000e-06	5.402798e-06	4.797035e-09	3.846000e+01	3.166335e+02
1.660000e-06	5.401222e-06	4.794862e-09	3.844878e+01	3.164874e+02
1.670000e-06	5.397990e-06	4.789229e-09	3.842577e+01	3.162830e+02
1.680000e-06	5.393054e-06	4.786758e-09	3.839064e+01	3.160295e+02
1.690000e-06	5.386189e-06	4.783490e-09	3.834177e+01	3.157311e+02
1.700000e-06	5.377545e-06	4.779404e-09	3.828024e+01	3.153855e+02
1.710000e-06	5.367362e-06	4.773975e-09	3.820775e+01	3.149847e+02
1.720000e-06	5.355464e-06	4.766595e-09	3.812305e+01	3.145177e+02
1.730000e-06	5.341600e-06	4.757962e-09	3.802436e+01	3.139737e+02
1.740000e-06	5.325603e-06	4.721082e-09	3.791049e+01	3.133460e+02
1.750000e-06	5.307200e-06	4.696716e-09	3.777948e+01	3.126355e+02
1.760000e-06	5.286108e-06	4.713396e-09	3.762934e+01	3.118513e+02
1.770000e-06	5.262785e-06	4.723589e-09	3.746332e+01	3.110105e+02
1.780000e-06	5.238353e-06	4.747012e-09	3.728940e+01	3.101342e+02
1.790000e-06	5.213206e-06	4.709125e-09	3.711038e+01	3.092436e+02
1.800000e-06	5.186518e-06	4.611854e-09	3.692041e+01	3.083540e+02
1.810000e-06	5.157601e-06	4.668736e-09	3.671456e+01	3.074710e+02
1.820000e-06	5.126912e-06	4.667124e-09	3.649610e+01	3.065881e+02
1.830000e-06	5.094538e-06	4.608729e-09	3.626564e+01	3.056864e+02
1.840000e-06	5.060146e-06	4.674114e-09	3.602082e+01	3.047387e+02
1.850000e-06	5.024130e-06	4.625504e-09	3.576444e+01	3.037136e+02
1.860000e-06	4.986328e-06	4.595552e-09	3.549535e+01	3.025821e+02
1.870000e-06	4.946647e-06	4.634367e-09	3.521287e+01	3.013233e+02
1.880000e-06	4.905336e-06	4.555983e-09	3.491880e+01	2.999280e+02
1.890000e-06	4.862241e-06	4.579223e-09	3.461203e+01	2.984001e+02
1.900000e-06	4.817555e-06	4.549760e-09	3.429393e+01	2.967548e+02
1.910000e-06	4.771015e-06	4.446935e-09	3.396263e+01	2.950153e+02
1.920000e-06	4.722364e-06	4.505125e-09	3.361631e+01	2.932066e+02
1.930000e-06	4.672116e-06	4.458785e-09	3.325862e+01	2.913508e+02
1.940000e-06	4.620167e-06	4.430241e-09	3.288882e+01	2.894623e+02
1.950000e-06	4.566146e-06	4.427579e-09	3.250427e+01	2.875463e+02
1.960000e-06	4.510190e-06	4.341355e-09	3.210594e+01	2.855987e+02
1.970000e-06	4.452530e-06	4.335143e-09	3.169549e+01	2.836084e+02
1.980000e-06	4.393451e-06	4.304927e-09	3.127493e+01	2.815618e+02
1.990000e-06	4.332913e-06	4.287860e-09	3.084399e+01	2.794462e+02
2.000000e-06	4.270632e-06	4.250337e-09	3.040064e+01	2.772531e+02
2.010000e-06	4.206737e-06	4.184510e-09	2.994580e+01	2.749804e+02
2.020000e-06	4.141404e-06	4.183123e-09	2.948072e+01	2.726312e+02
2.030000e-06	4.074653e-06	4.119697e-09	2.900556e+01	2.702130e+02
2.040000e-06	4.006547e-06	4.101181e-09	2.852074e+01	2.677341e+02
2.050000e-06	3.936931e-06	4.074170e-09	2.802518e+01	2.652009e+02
2.060000e-06	3.865701e-06	4.012995e-09	2.751812e+01	2.626158e+02
2.070000e-06	3.793100e-06	3.988142e-09	2.700131e+01	2.599767e+02
2.080000e-06	3.719218e-06	3.931134e-09	2.647538e+01	2.572771e+02
2.090000e-06	3.643998e-06	3.914965e-09	2.593992e+01	2.545085e+02
2.100000e-06	3.567325e-06	3.862737e-09	2.539413e+01	2.516626e+02
2.110000e-06	3.489002e-06	3.798768e-09	2.483658e+01	2.487334e+02
2.120000e-06	3.409329e-06	3.760724e-09	2.426942e+01	2.457190e+02
2.130000e-06	3.328610e-06	3.710588e-09	2.369483e+01	2.426211e+02
2.140000e-06	3.246727e-06	3.677444e-09	2.311194e+01	2.394443e+02
2.150000e-06	3.163720e-06	3.629513e-09	2.252105e+01	2.361940e+02
2.160000e-06	3.079771e-06	3.587142e-09	2.192346e+01	2.328738e+02
2.170000e-06	2.994682e-06	3.522353e-09	2.131774e+01	2.294845e+02
2.180000e-06	2.908159e-06	3.462347e-09	2.070183e+01	2.260223e+02
2.190000e-06	2.820495e-06	3.419699e-09	2.007779e+01	2.224804e+02
2.200000e-06	2.731943e-06	3.369346e-09	1.944743e+01	2.188497e+02
2.210000e-06	2.642415e-06	3.312162e-09	1.881012e+01	2.151216e+02
2.220000e-06	2.551934e-06	3.244219e-09	1.816603e+01	2.112898e+02
2.230000e-06	2.460668e-06	3.191103e-09	1.751635e+01	2.073522e+02
2.240000e-06	2.368743e-06	3.130257e-09	1.686198e+01	2.033113e+02
2.250000e-06	2.276043e-06	3.067410e-09	1.620209e+01	1.991733e+02
2.260000e-06	2.182418e-06	3.005925e-09	1.553562e+01	1.949466e+02
2.270000e-06	2.087717e-06	2.938854e-09	1.486149e+01	1.906391e+02
2.280000e-06	1.992059e-06	2.867806e-09	1.418054e+01	1.862565e+02
2.290000e-06	1.895732e-06	2.799628e-09	1.349483e+01	1.818002e+02
2.300000e-06	1.798855e-06	2.738717e-09	1.280521e+01	1.772676e+02
2.310000e-06	1.701455e-06	2.670432e-09	1.211186e+01	1.726522e+02
2.320000e-06	1.603454e-06	2.591513e-09	1.141424e+01	1.679454e+02
2.330000e-06	1.504888e-06	2.512062e-09	1.071260e+01	1.631386e+02
2.340000e-06	1.405821e-06	2.443562e-09	1.000738e+01	1.582253e+02
2.350000e-06	1.306364e-06	2.373152e-09	9.299398e+00	1.532017e+02
2.360000e-06	1.206652e-06	2.298477e-09	8.589595e+00	1.480677e+02
2.370000e-06	1.106720e-06	2.221370e-09	7.878222e+00	1.428257e+02
2.380000e-06	1.006487e-06	2.136383e-09	7.164710e+00	1.374793e+02
2.390000e-06	9.057925e-07	2.048931e-09	6.447915e+00	1.320318e+02
2.400000e-06	8.046119e-07	1.964336e-09	5.727658e+00	1.264849e+02
2.410000e-06	7.031201e-07	1.881964e-09	5.005184e+00	1.208371e+02
2.420000e-06	6.014631e-07	1.795199e-09	4.281536e+00	1.150847e+02
2.430000e-06	4.995649e-07	1.701770e-09	3.556170e+00	1.092216e+02
2.440000e-06	3.973871e-07	1.609682e-09	2.828814e+00	1.032406e+02
2.450000e-06	2.950023e-07	1.522700e-09	2.099984e+00	9.713519e+01
2.460000e-06	1.924678e-07	1.430919e-09	1.370089e+00	9.089947e+01
2.470000e-06	8.983830e-08	1.331673e-09	6.395170e-01	8.452918e+01
2.480000e-06	-1.286439e-08	1.226522e-09	-9.157563e-02	7.802111e+01
2.490000e-06	-1.155889e-07	1.119815e-09	-8.228238e-01	7.137235e+01
2.500000e-06	-2.183264e-07	1.016613e-09	-1.554164e+00	6.457936e+01
2.510000e-06	-3.209912e-07	9.142039e-10	-2.284987e+00	5.763714e+01
2.520000e-06	-4.234519e-07	8.088600e-10	-3.014357e+00	5.053890e+01
2.530000e-06	-5.256775e-07	6.955308e-10	-3.742054e+00	4.327626e+01
2.540000e-06	-6.276728e-07	5.775580e-10	-4.468110e+00	3.584012e+01
2.550000e-06	-7.293762e-07	4.603763e-10	-5.192090e+00	2.822182e+01
2.560000e-06	-8.307004e-07	3.405589e-10	-5.913369e+00	2.041442e+01
2.570000e-06	-9.316854e-07	2.158300e-10	-6.632235e+00	1.241381e+01
2.580000e-06	-1.032308e-06	8.712375e-11	-7.348522e+00	4.219350e+00
2.590000e-06	-1.132527e-06	-4.389460e-11	-8.061936e+00	-4.165761e+00
2.600000e-06	-1.232379e-06	-1.744949e-10	-8.772732e+00	-1.273460e+01
2.610000e-06	-1.331801e-06	-3.045316e-10	-9.480470e+00	-2.147664e+01
2.620000e-06	-1.430762e-06	-4.379612e-10	-1.018493e+01	-3.037789e+01
2.630000e-06	-1.529257e-06	-5.768551e-10	-1.088607e+01	-3.942067e+01
2.640000e-06	-1.627223e-06	-7.171079e-10	-1.158344e+01	-4.858323e+01
2.650000e-06	-1.724597e-06	-8.573651e-10	-1.227661e+01	-5.783932e+01
2.660000e-06	-1.821374e-06	-9.990459e-10	-1.296551e+01	-6.715777e+01
2.670000e-06	-1.917618e-06	-1.142349e-09	-1.365063e+01	-7.650271e+01
2.680000e-06	-2.013337e-06	-1.286322e-09	-1.433201e+01	-8.583434e+01
2.690000e-06	-2.108341e-06	-1.428110e-09	-1.500830e+01	-9.511049e+01
2.700000e-06	-2.202320e-06	-1.567134e-09	-1.567729e+01	-1.042888e+02
2.710000e-06	-2.295280e-06	-1.705088e-09	-1.633903e+01	-1.133290e+02
2.720000e-06	-2.387352e-06	-1.841363e-09	-1.699445e+01	-1.221955e+02
2.730000e-06	-2.478565e-06	-1.976352e-09	-1.764375e+01	-1.308587e+02
2.740000e-06	-2.568960e-06	-2.109043e-09	-1.828723e+01	-1.392958e+02
2.750000e-06	-2.658460e-06	-2.237007e-09	-1.892434e+01	-1.474908e+02
2.760000e-06	-2.747090e-06	-2.358897e-09	-1.955525e+01	-1.554333e+02
2.770000e-06	-2.834937e-06	-2.476269e-09	-2.018060e+01	-1.631167e+02
2.780000e-06	-2.921805e-06	-2.590394e-09	-2.079897e+01	-1.705370e+02
2.790000e-06	-3.007432e-06	-2.699816e-09	-2.140851e+01	-1.776913e+02
2.800000e-06	-3.091917e-06	-2.806534e-09	-2.200992e+01	-1.845773e+02
2.810000e-06	-3.175387e-06	-2.910800e-09	-2.260410e+01	-1.911940e+02
2.820000e-06	-3.257824e-06	-3.007964e-09	-2.319093e+01	-1.975421e+02
2.830000e-06	-3.339195e-06	-3.098991e-09	-2.377018e+01	-2.036253e+02
2.840000e-06	-3.419515e-06	-3.186185e-09	-2.434193e+01	-2.094513e+02
2.850000e-06	-3.498629e-06	-3.270117e-09	-2.490511e+01	-2.150320e+02
2.860000e-06	-3.576178e-06	-3.351555e-09	-2.545715e+01	-2.203826e+02
2.870000e-06	-3.652137e-06	-3.428542e-09	-2.599786e+01	-2.255207e+02
2.880000e-06	-3.726755e-06	-3.502388e-09	-2.652903e+01	-2.304637e+02
2.890000e-06	-3.800078e-06	-3.575263e-09	-2.705099e+01	-2.352274e+02
2.900000e-06	-3.872116e-06	-3.647768e-09	-2.756379e+01	-2.398241e+02
2.910000e-06	-3.942736e-06	-3.716332e-09	-2.806650e+01	-2.442616e+02
2.920000e-06	-4.011755e-06	-3.780029e-09	-2.855782e+01	-2.485436e+02
2.930000e-06	-4.079318e-06	-3.841876e-09	-2.903877e+01	-2.526706e+02
2.940000e-06	-4.145474e-06	-3.903317e-09	-2.950970e+01	-2.566415e+02
