# Temperatura_=_62.51
# Concentracion g/m^3_=_15000.0
# C_Vs_to_Am_M_A/Vsm_=_65563218390.804596
# pendiente_HvsI_1/m_=_3716.3
# ordenada_HvsI_A/m_=_1297.0
# frecuencia_Hz_=_301579.2702939084

Tiempo_(s)	Campo_(V.s)	Magnetizacion_(V.s)	Campo_(kA/m)	Magnetizacion_(A/m)
0.000000e+00	-5.403706e-06	-5.588357e-09	-3.833956e+01	-3.655102e+02
1.000000e-08	-5.401012e-06	-5.590329e-09	-3.832044e+01	-3.653265e+02
2.000000e-08	-5.396494e-06	-5.586217e-09	-3.828839e+01	-3.650790e+02
3.000000e-08	-5.390385e-06	-5.579480e-09	-3.824505e+01	-3.647713e+02
4.000000e-08	-5.382714e-06	-5.571862e-09	-3.819062e+01	-3.644036e+02
5.000000e-08	-5.373189e-06	-5.560390e-09	-3.812304e+01	-3.639725e+02
6.000000e-08	-5.361583e-06	-5.550646e-09	-3.804069e+01	-3.634712e+02
7.000000e-08	-5.348105e-06	-5.538441e-09	-3.794506e+01	-3.628911e+02
8.000000e-08	-5.332578e-06	-5.524890e-09	-3.783490e+01	-3.622237e+02
9.000000e-08	-5.314782e-06	-5.568911e-09	-3.770864e+01	-3.614628e+02
1.000000e-07	-5.294928e-06	-5.574926e-09	-3.756777e+01	-3.606065e+02
1.100000e-07	-5.273158e-06	-5.522388e-09	-3.741331e+01	-3.596585e+02
1.200000e-07	-5.249710e-06	-5.507479e-09	-3.724695e+01	-3.586277e+02
1.300000e-07	-5.224674e-06	-5.409867e-09	-3.706932e+01	-3.575273e+02
1.400000e-07	-5.197965e-06	-5.358190e-09	-3.687982e+01	-3.563722e+02
1.500000e-07	-5.169671e-06	-5.514271e-09	-3.667907e+01	-3.551762e+02
1.600000e-07	-5.139932e-06	-5.418572e-09	-3.646807e+01	-3.539485e+02
1.700000e-07	-5.108641e-06	-5.368564e-09	-3.624606e+01	-3.526917e+02
1.800000e-07	-5.075202e-06	-5.455749e-09	-3.600880e+01	-3.514004e+02
1.900000e-07	-5.039838e-06	-5.268543e-09	-3.575789e+01	-3.500616e+02
2.000000e-07	-5.003042e-06	-5.282616e-09	-3.549683e+01	-3.486566e+02
2.100000e-07	-4.964524e-06	-5.381150e-09	-3.522354e+01	-3.471645e+02
2.200000e-07	-4.924188e-06	-5.271137e-09	-3.493736e+01	-3.455654e+02
2.300000e-07	-4.881879e-06	-5.257594e-09	-3.463717e+01	-3.438445e+02
2.400000e-07	-4.837595e-06	-5.239823e-09	-3.432297e+01	-3.419945e+02
2.500000e-07	-4.791556e-06	-5.162028e-09	-3.399632e+01	-3.400165e+02
2.600000e-07	-4.743550e-06	-5.167119e-09	-3.365572e+01	-3.379194e+02
2.700000e-07	-4.693405e-06	-5.119437e-09	-3.329994e+01	-3.357179e+02
2.800000e-07	-4.641255e-06	-5.099903e-09	-3.292993e+01	-3.334290e+02
2.900000e-07	-4.587274e-06	-5.054674e-09	-3.254693e+01	-3.310685e+02
3.000000e-07	-4.531698e-06	-4.998481e-09	-3.215262e+01	-3.286479e+02
3.100000e-07	-4.474446e-06	-4.992622e-09	-3.174642e+01	-3.261722e+02
3.200000e-07	-4.415355e-06	-4.965598e-09	-3.132716e+01	-3.236396e+02
3.300000e-07	-4.354692e-06	-4.917719e-09	-3.089675e+01	-3.210423e+02
3.400000e-07	-4.292600e-06	-4.828943e-09	-3.045620e+01	-3.183692e+02
3.500000e-07	-4.229125e-06	-4.796492e-09	-3.000585e+01	-3.156084e+02
3.600000e-07	-4.164128e-06	-4.788527e-09	-2.954469e+01	-3.127502e+02
3.700000e-07	-4.097429e-06	-4.745882e-09	-2.907146e+01	-3.097892e+02
3.800000e-07	-4.029201e-06	-4.707177e-09	-2.858738e+01	-3.067253e+02
3.900000e-07	-3.959619e-06	-4.641465e-09	-2.809369e+01	-3.035636e+02
4.000000e-07	-3.888753e-06	-4.574226e-09	-2.759089e+01	-3.003124e+02
4.100000e-07	-3.816580e-06	-4.521077e-09	-2.707882e+01	-2.969816e+02
4.200000e-07	-3.742955e-06	-4.479331e-09	-2.655645e+01	-2.935796e+02
4.300000e-07	-3.667753e-06	-4.448615e-09	-2.602288e+01	-2.901123e+02
4.400000e-07	-3.591071e-06	-4.388939e-09	-2.547882e+01	-2.865809e+02
4.500000e-07	-3.512961e-06	-4.318876e-09	-2.492463e+01	-2.829830e+02
4.600000e-07	-3.433457e-06	-4.254184e-09	-2.436055e+01	-2.793126e+02
4.700000e-07	-3.352710e-06	-4.204718e-09	-2.378764e+01	-2.755621e+02
4.800000e-07	-3.270743e-06	-4.157815e-09	-2.320608e+01	-2.717242e+02
4.900000e-07	-3.187609e-06	-4.087521e-09	-2.261624e+01	-2.677932e+02
5.000000e-07	-3.103464e-06	-4.022014e-09	-2.201923e+01	-2.637663e+02
5.100000e-07	-3.018406e-06	-3.959175e-09	-2.141574e+01	-2.596434e+02
5.200000e-07	-2.932369e-06	-3.897945e-09	-2.080530e+01	-2.554269e+02
5.300000e-07	-2.845338e-06	-3.832737e-09	-2.018781e+01	-2.511200e+02
5.400000e-07	-2.757456e-06	-3.761276e-09	-1.956428e+01	-2.467257e+02
5.500000e-07	-2.668546e-06	-3.684867e-09	-1.893346e+01	-2.422456e+02
5.600000e-07	-2.578370e-06	-3.604130e-09	-1.829366e+01	-2.376789e+02
5.700000e-07	-2.487111e-06	-3.540138e-09	-1.764617e+01	-2.330227e+02
5.800000e-07	-2.395027e-06	-3.483232e-09	-1.699283e+01	-2.282722e+02
5.900000e-07	-2.302177e-06	-3.414934e-09	-1.633406e+01	-2.234222e+02
6.000000e-07	-2.208488e-06	-3.324910e-09	-1.566933e+01	-2.184681e+02
6.100000e-07	-2.113990e-06	-3.236622e-09	-1.499886e+01	-2.134070e+02
6.200000e-07	-2.018813e-06	-3.159545e-09	-1.432357e+01	-2.082385e+02
6.300000e-07	-1.922991e-06	-3.082924e-09	-1.364372e+01	-2.029645e+02
6.400000e-07	-1.826427e-06	-3.004610e-09	-1.295859e+01	-1.975892e+02
6.500000e-07	-1.729008e-06	-2.921887e-09	-1.226740e+01	-1.921174e+02
6.600000e-07	-1.630764e-06	-2.835369e-09	-1.157035e+01	-1.865541e+02
6.700000e-07	-1.531920e-06	-2.744564e-09	-1.086905e+01	-1.809026e+02
6.800000e-07	-1.432594e-06	-2.660042e-09	-1.016432e+01	-1.751640e+02
6.900000e-07	-1.332795e-06	-2.576291e-09	-9.456244e+00	-1.693368e+02
7.000000e-07	-1.232621e-06	-2.484358e-09	-8.745508e+00	-1.634166e+02
7.100000e-07	-1.132131e-06	-2.386874e-09	-8.032528e+00	-1.573973e+02
7.200000e-07	-1.031281e-06	-2.290937e-09	-7.316988e+00	-1.512715e+02
7.300000e-07	-9.301037e-07	-2.195926e-09	-6.599132e+00	-1.450315e+02
7.400000e-07	-8.286388e-07	-2.098631e-09	-5.879233e+00	-1.386707e+02
7.500000e-07	-7.268071e-07	-1.999685e-09	-5.156732e+00	-1.321835e+02
7.600000e-07	-6.246754e-07	-1.898301e-09	-4.432102e+00	-1.255660e+02
7.700000e-07	-5.223586e-07	-1.794292e-09	-3.706160e+00	-1.188158e+02
7.800000e-07	-4.198670e-07	-1.690044e-09	-2.978977e+00	-1.119312e+02
7.900000e-07	-3.172312e-07	-1.587967e-09	-2.250771e+00	-1.049105e+02
8.000000e-07	-2.144860e-07	-1.481420e-09	-1.521788e+00	-9.775148e+01
8.100000e-07	-1.116756e-07	-1.369795e-09	-7.923441e-01	-9.045011e+01
8.200000e-07	-8.843541e-09	-1.255193e-09	-6.274536e-02	-8.300043e+01
8.300000e-07	9.404597e-08	-1.136564e-09	6.672608e-01	-7.539414e+01
8.400000e-07	1.969145e-07	-1.017117e-09	1.397118e+00	-6.762073e+01
8.500000e-07	2.997041e-07	-8.985941e-10	2.126415e+00	-5.966798e+01
8.600000e-07	4.024689e-07	-7.784493e-10	2.855537e+00	-5.152277e+01
8.700000e-07	5.051156e-07	-6.510696e-10	3.583820e+00	-4.317205e+01
8.800000e-07	6.076192e-07	-5.201578e-10	4.311088e+00	-3.460400e+01
8.900000e-07	7.099644e-07	-3.888440e-10	5.037232e+00	-2.580917e+01
9.000000e-07	8.120465e-07	-2.524988e-10	5.761510e+00	-1.678146e+01
9.100000e-07	9.138397e-07	-1.099293e-10	6.483737e+00	-7.519016e+00
9.200000e-07	1.015253e-06	3.712815e-11	7.203268e+00	1.975231e+00
9.300000e-07	1.116241e-06	1.868604e-10	7.919786e+00	1.169319e+01
9.400000e-07	1.216855e-06	3.394860e-10	8.633646e+00	2.162156e+01
9.500000e-07	1.317096e-06	4.941766e-10	9.344858e+00	3.174194e+01
9.600000e-07	1.416930e-06	6.513601e-10	1.005318e+01	4.203111e+01
9.700000e-07	1.516329e-06	8.107335e-10	1.075842e+01	5.246148e+01
9.800000e-07	1.615248e-06	9.730836e-10	1.146026e+01	6.300149e+01
9.900000e-07	1.713432e-06	1.135942e-09	1.215688e+01	7.361622e+01
1.000000e-06	1.810661e-06	1.299024e-09	1.284673e+01	8.426794e+01
1.010000e-06	1.907036e-06	1.463244e-09	1.353051e+01	9.491694e+01
1.020000e-06	2.002735e-06	1.627767e-09	1.420950e+01	1.055223e+02
1.030000e-06	2.097755e-06	1.791188e-09	1.488367e+01	1.160430e+02
1.040000e-06	2.192012e-06	1.951255e-09	1.555243e+01	1.264389e+02
1.050000e-06	2.285499e-06	2.107534e-09	1.621572e+01	1.366721e+02
1.060000e-06	2.378232e-06	2.258783e-09	1.687367e+01	1.467080e+02
1.070000e-06	2.470265e-06	2.406516e-09	1.752665e+01	1.565162e+02
1.080000e-06	2.561591e-06	2.552920e-09	1.817461e+01	1.660710e+02
1.090000e-06	2.652010e-06	2.696780e-09	1.881614e+01	1.753521e+02
1.100000e-06	2.741156e-06	2.835783e-09	1.944863e+01	1.843441e+02
1.110000e-06	2.829101e-06	2.966187e-09	2.007261e+01	1.930363e+02
1.120000e-06	2.916171e-06	3.092040e-09	2.069037e+01	2.014220e+02
1.130000e-06	3.002351e-06	3.214973e-09	2.130182e+01	2.094980e+02
1.140000e-06	3.087580e-06	3.335403e-09	2.190653e+01	2.172635e+02
1.150000e-06	3.171852e-06	3.450650e-09	2.250444e+01	2.247204e+02
1.160000e-06	3.255193e-06	3.558343e-09	2.309576e+01	2.318727e+02
1.170000e-06	3.337351e-06	3.660868e-09	2.367867e+01	2.387265e+02
1.180000e-06	3.418093e-06	3.757973e-09	2.425154e+01	2.452907e+02
1.190000e-06	3.497631e-06	3.852988e-09	2.481586e+01	2.515766e+02
1.200000e-06	3.576005e-06	3.945579e-09	2.537193e+01	2.575982e+02
1.210000e-06	3.653122e-06	4.034395e-09	2.591908e+01	2.633717e+02
1.220000e-06	3.728999e-06	4.120752e-09	2.645743e+01	2.689148e+02
1.230000e-06	3.803373e-06	4.203998e-09	2.698512e+01	2.742458e+02
1.240000e-06	3.875990e-06	4.282900e-09	2.750034e+01	2.793819e+02
1.250000e-06	3.947126e-06	4.357977e-09	2.800505e+01	2.843386e+02
1.260000e-06	4.016960e-06	4.429150e-09	2.850053e+01	2.891282e+02
1.270000e-06	4.085414e-06	4.499507e-09	2.898621e+01	2.937592e+02
1.280000e-06	4.152495e-06	4.567961e-09	2.946215e+01	2.982362e+02
1.290000e-06	4.217917e-06	4.632669e-09	2.992633e+01	3.025604e+02
1.300000e-06	4.281631e-06	4.694036e-09	3.037838e+01	3.067302e+02
1.310000e-06	4.343930e-06	4.754089e-09	3.082040e+01	3.107421e+02
1.320000e-06	4.404850e-06	4.813301e-09	3.125263e+01	3.145921e+02
1.330000e-06	4.464433e-06	4.869655e-09	3.167537e+01	3.182765e+02
1.340000e-06	4.522361e-06	4.921711e-09	3.208637e+01	3.217927e+02
1.350000e-06	4.578396e-06	4.971716e-09	3.248394e+01	3.251396e+02
1.360000e-06	4.632789e-06	5.019245e-09	3.286987e+01	3.283176e+02
1.370000e-06	4.685551e-06	5.061420e-09	3.324421e+01	3.313290e+02
1.380000e-06	4.736421e-06	5.100230e-09	3.360514e+01	3.341771e+02
1.390000e-06	4.785244e-06	5.138006e-09	3.395154e+01	3.368665e+02
1.400000e-06	4.832197e-06	5.175359e-09	3.428468e+01	3.394024e+02
1.410000e-06	4.877498e-06	5.210615e-09	3.460609e+01	3.417909e+02
1.420000e-06	4.921255e-06	5.243959e-09	3.491655e+01	3.440384e+02
1.430000e-06	4.963212e-06	5.275923e-09	3.521423e+01	3.461516e+02
1.440000e-06	5.003229e-06	5.303856e-09	3.549816e+01	3.481374e+02
1.450000e-06	5.041615e-06	5.329093e-09	3.577051e+01	3.500026e+02
1.460000e-06	5.078434e-06	5.353774e-09	3.603173e+01	3.517535e+02
1.470000e-06	5.113546e-06	5.378553e-09	3.628086e+01	3.533957e+02
1.480000e-06	5.146708e-06	5.402718e-09	3.651614e+01	3.549341e+02
1.490000e-06	5.177984e-06	5.422859e-09	3.673805e+01	3.563723e+02
1.500000e-06	5.207592e-06	5.440011e-09	3.694812e+01	3.577132e+02
1.510000e-06	5.235476e-06	5.456369e-09	3.714596e+01	3.589585e+02
1.520000e-06	5.261349e-06	5.472348e-09	3.732953e+01	3.601097e+02
1.530000e-06	5.285149e-06	5.489361e-09	3.749839e+01	3.611676e+02
1.540000e-06	5.307087e-06	5.505600e-09	3.765404e+01	3.621327e+02
1.550000e-06	5.327289e-06	5.519567e-09	3.779737e+01	3.630054e+02
1.560000e-06	5.345685e-06	5.532523e-09	3.792790e+01	3.637856e+02
1.570000e-06	5.362103e-06	5.544050e-09	3.804439e+01	3.644730e+02
1.580000e-06	5.376521e-06	5.552982e-09	3.814668e+01	3.650667e+02
1.590000e-06	5.388912e-06	5.558573e-09	3.823460e+01	3.655656e+02
1.600000e-06	5.399059e-06	5.562193e-09	3.830659e+01	3.659686e+02
1.610000e-06	5.407051e-06	5.564864e-09	3.836329e+01	3.662753e+02
1.620000e-06	5.413207e-06	5.569240e-09	3.840697e+01	3.664863e+02
1.630000e-06	5.417627e-06	5.576101e-09	3.843833e+01	3.666041e+02
1.640000e-06	5.420190e-06	5.581458e-09	3.845652e+01	3.666329e+02
1.650000e-06	5.420681e-06	5.585166e-09	3.846000e+01	3.665789e+02
1.660000e-06	5.419281e-06	5.582690e-09	3.845006e+01	3.664493e+02
1.670000e-06	5.416204e-06	5.574238e-09	3.842824e+01	3.662512e+02
1.680000e-06	5.411451e-06	5.571042e-09	3.839451e+01	3.659902e+02
1.690000e-06	5.404827e-06	5.566153e-09	3.834751e+01	3.656694e+02
1.700000e-06	5.396392e-06	5.559518e-09	3.828766e+01	3.652883e+02
1.710000e-06	5.386347e-06	5.554129e-09	3.821640e+01	3.648424e+02
1.720000e-06	5.374577e-06	5.551107e-09	3.813288e+01	3.643247e+02
1.730000e-06	5.360857e-06	5.563506e-09	3.803554e+01	3.637262e+02
1.740000e-06	5.345091e-06	5.498594e-09	3.792368e+01	3.630388e+02
1.750000e-06	5.326985e-06	5.451963e-09	3.779522e+01	3.622571e+02
1.760000e-06	5.306220e-06	5.475091e-09	3.764789e+01	3.613803e+02
1.770000e-06	5.283156e-06	5.456446e-09	3.748425e+01	3.604133e+02
1.780000e-06	5.258722e-06	5.556686e-09	3.731089e+01	3.593660e+02
1.790000e-06	5.233559e-06	5.526769e-09	3.713236e+01	3.582523e+02
1.800000e-06	5.207048e-06	5.324595e-09	3.694426e+01	3.570871e+02
1.810000e-06	5.178311e-06	5.451703e-09	3.674037e+01	3.558834e+02
1.820000e-06	5.147648e-06	5.403312e-09	3.652281e+01	3.546491e+02
1.830000e-06	5.115329e-06	5.281586e-09	3.629351e+01	3.533854e+02
1.840000e-06	5.081103e-06	5.476740e-09	3.605068e+01	3.520849e+02
1.850000e-06	5.045263e-06	5.353047e-09	3.579639e+01	3.507332e+02
1.860000e-06	5.007709e-06	5.249587e-09	3.552994e+01	3.493110e+02
1.870000e-06	4.968183e-06	5.354089e-09	3.524950e+01	3.477972e+02
1.880000e-06	4.926997e-06	5.204650e-09	3.495728e+01	3.461727e+02
1.890000e-06	4.884026e-06	5.238909e-09	3.465241e+01	3.444242e+02
1.900000e-06	4.839362e-06	5.253384e-09	3.433551e+01	3.425460e+02
1.910000e-06	4.792954e-06	5.142853e-09	3.400625e+01	3.405411e+02
1.920000e-06	4.744444e-06	5.211066e-09	3.366206e+01	3.384199e+02
1.930000e-06	4.694219e-06	5.059903e-09	3.330571e+01	3.361979e+02
1.940000e-06	4.642279e-06	5.066380e-09	3.293719e+01	3.338921e+02
1.950000e-06	4.588252e-06	5.120789e-09	3.255387e+01	3.315177e+02
1.960000e-06	4.532302e-06	4.982969e-09	3.215691e+01	3.290847e+02
1.970000e-06	4.474699e-06	4.971240e-09	3.174821e+01	3.265969e+02
1.980000e-06	4.415646e-06	4.906421e-09	3.132923e+01	3.240508e+02
1.990000e-06	4.355100e-06	4.922595e-09	3.089965e+01	3.214380e+02
2.000000e-06	4.292840e-06	4.883434e-09	3.045791e+01	3.187468e+02
2.010000e-06	4.228982e-06	4.768128e-09	3.000483e+01	3.159654e+02
2.020000e-06	4.163634e-06	4.788698e-09	2.954118e+01	3.130851e+02
2.030000e-06	4.096813e-06	4.688448e-09	2.906709e+01	3.101015e+02
2.040000e-06	4.028551e-06	4.655258e-09	2.858277e+01	3.070158e+02
2.050000e-06	3.958796e-06	4.640747e-09	2.808785e+01	3.038338e+02
2.060000e-06	3.887499e-06	4.597050e-09	2.758200e+01	3.005644e+02
2.070000e-06	3.814785e-06	4.559323e-09	2.706609e+01	2.972173e+02
2.080000e-06	3.740791e-06	4.432441e-09	2.654109e+01	2.938007e+02
2.090000e-06	3.665370e-06	4.405596e-09	2.600598e+01	2.903193e+02
2.100000e-06	3.588437e-06	4.367397e-09	2.546014e+01	2.867737e+02
2.110000e-06	3.509975e-06	4.321049e-09	2.490345e+01	2.831605e+02
2.120000e-06	3.430202e-06	4.262335e-09	2.433745e+01	2.794733e+02
2.130000e-06	3.349377e-06	4.186616e-09	2.376400e+01	2.757043e+02
2.140000e-06	3.267449e-06	4.149346e-09	2.318271e+01	2.718465e+02
2.150000e-06	3.184447e-06	4.069742e-09	2.259381e+01	2.678947e+02
2.160000e-06	3.100379e-06	4.021942e-09	2.199734e+01	2.638468e+02
2.170000e-06	3.015147e-06	3.965994e-09	2.139261e+01	2.597033e+02
2.180000e-06	2.928621e-06	3.899408e-09	2.077871e+01	2.554668e+02
2.190000e-06	2.840870e-06	3.823025e-09	2.015611e+01	2.511406e+02
2.200000e-06	2.752143e-06	3.753501e-09	1.952659e+01	2.467276e+02
2.210000e-06	2.662475e-06	3.709499e-09	1.889039e+01	2.422287e+02
2.220000e-06	2.571906e-06	3.633285e-09	1.824780e+01	2.376428e+02
2.230000e-06	2.480527e-06	3.549902e-09	1.759946e+01	2.329664e+02
2.240000e-06	2.388344e-06	3.469511e-09	1.694542e+01	2.281947e+02
2.250000e-06	2.295292e-06	3.408931e-09	1.628521e+01	2.233224e+02
2.260000e-06	2.201309e-06	3.340877e-09	1.561840e+01	2.183452e+02
2.270000e-06	2.106387e-06	3.266199e-09	1.494492e+01	2.132607e+02
2.280000e-06	2.010538e-06	3.188291e-09	1.426487e+01	2.080690e+02
2.290000e-06	1.913955e-06	3.096987e-09	1.357961e+01	2.027726e+02
2.300000e-06	1.816808e-06	3.004944e-09	1.289034e+01	1.973758e+02
2.310000e-06	1.719129e-06	2.924419e-09	1.219731e+01	1.918838e+02
2.320000e-06	1.620903e-06	2.854977e-09	1.150038e+01	1.863010e+02
2.330000e-06	1.522156e-06	2.767893e-09	1.079977e+01	1.806305e+02
2.340000e-06	1.422968e-06	2.673599e-09	1.009603e+01	1.748728e+02
2.350000e-06	1.323353e-06	2.581625e-09	9.389253e+00	1.690258e+02
2.360000e-06	1.223408e-06	2.494978e-09	8.680139e+00	1.630846e+02
2.370000e-06	1.123211e-06	2.407995e-09	7.969238e+00	1.570428e+02
2.380000e-06	1.022640e-06	2.314692e-09	7.255684e+00	1.508927e+02
2.390000e-06	9.215391e-07	2.216845e-09	6.538365e+00	1.446271e+02
2.400000e-06	8.199761e-07	2.113857e-09	5.817770e+00	1.382392e+02
2.410000e-06	7.180391e-07	2.013699e-09	5.094522e+00	1.317241e+02
2.420000e-06	6.158026e-07	1.917073e-09	4.369150e+00	1.250780e+02
2.430000e-06	5.133660e-07	1.817623e-09	3.642357e+00	1.182988e+02
2.440000e-06	4.107880e-07	1.710949e-09	2.914561e+00	1.113848e+02
2.450000e-06	3.081038e-07	1.601079e-09	2.186012e+00	1.043344e+02
2.460000e-06	2.051965e-07	1.489956e-09	1.455879e+00	9.714492e+01
2.470000e-06	1.020947e-07	1.380028e-09	7.243666e-01	8.981201e+01
2.480000e-06	-1.034106e-09	1.268240e-09	-7.337033e-03	8.232922e+01
2.490000e-06	-1.041514e-07	1.147997e-09	-7.389594e-01	7.468773e+01
2.500000e-06	-2.072451e-07	1.022676e-09	-1.470414e+00	6.687662e+01
2.510000e-06	-3.103247e-07	8.986873e-10	-2.201769e+00	5.888341e+01
2.520000e-06	-4.132876e-07	7.776122e-10	-2.932296e+00	5.069490e+01
2.530000e-06	-5.160616e-07	6.529562e-10	-3.661482e+00	4.229820e+01
2.540000e-06	-6.186771e-07	5.228114e-10	-4.389544e+00	3.368192e+01
2.550000e-06	-7.209816e-07	3.873300e-10	-5.115400e+00	2.483723e+01
2.560000e-06	-8.228541e-07	2.454081e-10	-5.838190e+00	1.575889e+01
2.570000e-06	-9.242565e-07	9.971099e-11	-6.557645e+00	6.446009e+00
2.580000e-06	-1.025208e-06	-4.502696e-11	-7.273904e+00	-3.097373e+00
2.590000e-06	-1.125744e-06	-1.906497e-10	-7.987206e+00	-1.286206e+01
2.600000e-06	-1.225846e-06	-3.418570e-10	-8.697436e+00	-2.283362e+01
2.610000e-06	-1.325566e-06	-4.973023e-10	-9.404954e+00	-3.299262e+01
2.620000e-06	-1.424899e-06	-6.541540e-10	-1.010973e+01	-4.331485e+01
2.630000e-06	-1.523734e-06	-8.103934e-10	-1.081097e+01	-5.377183e+01
2.640000e-06	-1.622039e-06	-9.679346e-10	-1.150845e+01	-6.433124e+01
2.650000e-06	-1.719774e-06	-1.128654e-09	-1.220188e+01	-7.495748e+01
2.660000e-06	-1.816867e-06	-1.291151e-09	-1.289076e+01	-8.561236e+01
2.670000e-06	-1.913344e-06	-1.454948e-09	-1.357527e+01	-9.625581e+01
2.680000e-06	-2.009305e-06	-1.617176e-09	-1.425612e+01	-1.068468e+02
2.690000e-06	-2.104725e-06	-1.774357e-09	-1.493313e+01	-1.173444e+02
2.700000e-06	-2.199292e-06	-1.929989e-09	-1.560408e+01	-1.277089e+02
2.710000e-06	-2.292762e-06	-2.086790e-09	-1.626726e+01	-1.379030e+02
2.720000e-06	-2.385232e-06	-2.240758e-09	-1.692334e+01	-1.478928e+02
2.730000e-06	-2.476906e-06	-2.388453e-09	-1.757377e+01	-1.576490e+02
2.740000e-06	-2.567768e-06	-2.530607e-09	-1.821844e+01	-1.671470e+02
2.750000e-06	-2.657672e-06	-2.671030e-09	-1.885631e+01	-1.763676e+02
2.760000e-06	-2.746586e-06	-2.808236e-09	-1.948716e+01	-1.852965e+02
2.770000e-06	-2.834680e-06	-2.939910e-09	-2.011220e+01	-1.939238e+02
2.780000e-06	-2.921972e-06	-3.068609e-09	-2.073154e+01	-2.022436e+02
2.790000e-06	-3.008143e-06	-3.192171e-09	-2.134292e+01	-2.102534e+02
2.800000e-06	-3.093037e-06	-3.309894e-09	-2.194525e+01	-2.179529e+02
2.810000e-06	-3.176830e-06	-3.423165e-09	-2.253976e+01	-2.253445e+02
2.820000e-06	-3.259655e-06	-3.532641e-09	-2.312741e+01	-2.324325e+02
2.830000e-06	-3.341382e-06	-3.637458e-09	-2.370727e+01	-2.392238e+02
2.840000e-06	-3.422019e-06	-3.736741e-09	-2.427939e+01	-2.457276e+02
2.850000e-06	-3.501584e-06	-3.831590e-09	-2.484391e+01	-2.519559e+02
2.860000e-06	-3.579735e-06	-3.921826e-09	-2.539839e+01	-2.579233e+02
2.870000e-06	-3.656249e-06	-4.007409e-09	-2.594126e+01	-2.636462e+02
2.880000e-06	-3.731264e-06	-4.090912e-09	-2.647350e+01	-2.691427e+02
2.890000e-06	-3.804917e-06	-4.173331e-09	-2.699607e+01	-2.744308e+02
2.900000e-06	-3.877303e-06	-4.252486e-09	-2.750965e+01	-2.795277e+02
2.910000e-06	-3.948342e-06	-4.327725e-09	-2.801368e+01	-2.844480e+02
2.920000e-06	-4.017758e-06	-4.400289e-09	-2.850619e+01	-2.892033e+02
2.930000e-06	-4.085598e-06	-4.471553e-09	-2.898752e+01	-2.938014e+02
2.940000e-06	-4.152070e-06	-4.539521e-09	-2.945914e+01	-2.982460e+02
