# Temperatura_=_70.84
# Concentracion g/m^3_=_15000.0
# C_Vs_to_Am_M_A/Vsm_=_65563218390.804596
# pendiente_HvsI_1/m_=_3716.3
# ordenada_HvsI_A/m_=_1297.0
# frecuencia_Hz_=_301575.64904815063

Tiempo_(s)	Campo_(V.s)	Magnetizacion_(V.s)	Campo_(kA/m)	Magnetizacion_(A/m)
0.000000e+00	-5.381442e-06	-5.940313e-09	-3.834151e+01	-3.879414e+02
1.000000e-08	-5.378691e-06	-5.939602e-09	-3.832191e+01	-3.877260e+02
2.000000e-08	-5.374165e-06	-5.934246e-09	-3.828966e+01	-3.874452e+02
3.000000e-08	-5.367975e-06	-5.927906e-09	-3.824556e+01	-3.871062e+02
4.000000e-08	-5.360233e-06	-5.920223e-09	-3.819040e+01	-3.867095e+02
5.000000e-08	-5.350612e-06	-5.909283e-09	-3.812185e+01	-3.862491e+02
6.000000e-08	-5.338955e-06	-5.896707e-09	-3.803880e+01	-3.857134e+02
7.000000e-08	-5.325462e-06	-5.875568e-09	-3.794266e+01	-3.850878e+02
8.000000e-08	-5.309859e-06	-5.865180e-09	-3.783150e+01	-3.843588e+02
9.000000e-08	-5.292044e-06	-5.913032e-09	-3.770456e+01	-3.835176e+02
1.000000e-07	-5.272206e-06	-5.916040e-09	-3.756322e+01	-3.825632e+02
1.100000e-07	-5.250417e-06	-5.868358e-09	-3.740798e+01	-3.815036e+02
1.200000e-07	-5.226924e-06	-5.842600e-09	-3.724060e+01	-3.803545e+02
1.300000e-07	-5.201896e-06	-5.725620e-09	-3.706229e+01	-3.791370e+02
1.400000e-07	-5.175236e-06	-5.710853e-09	-3.687234e+01	-3.778726e+02
1.500000e-07	-5.147010e-06	-5.846806e-09	-3.667123e+01	-3.765790e+02
1.600000e-07	-5.117338e-06	-5.725900e-09	-3.645983e+01	-3.752657e+02
1.700000e-07	-5.086067e-06	-5.706868e-09	-3.623703e+01	-3.739318e+02
1.800000e-07	-5.052714e-06	-5.764431e-09	-3.599940e+01	-3.725653e+02
1.900000e-07	-5.017454e-06	-5.588720e-09	-3.574818e+01	-3.711459e+02
2.000000e-07	-4.980692e-06	-5.637489e-09	-3.548626e+01	-3.696480e+02
2.100000e-07	-4.942228e-06	-5.684672e-09	-3.521221e+01	-3.680458e+02
2.200000e-07	-4.901971e-06	-5.553354e-09	-3.492539e+01	-3.663176e+02
2.300000e-07	-4.859758e-06	-5.566064e-09	-3.462464e+01	-3.644493e+02
2.400000e-07	-4.815600e-06	-5.544430e-09	-3.431002e+01	-3.624365e+02
2.500000e-07	-4.769666e-06	-5.477313e-09	-3.398275e+01	-3.602832e+02
2.600000e-07	-4.721823e-06	-5.476103e-09	-3.364188e+01	-3.580010e+02
2.700000e-07	-4.671952e-06	-5.408319e-09	-3.328656e+01	-3.556049e+02
2.800000e-07	-4.620039e-06	-5.376269e-09	-3.291669e+01	-3.531108e+02
2.900000e-07	-4.566211e-06	-5.351251e-09	-3.253318e+01	-3.505320e+02
3.000000e-07	-4.510796e-06	-5.312311e-09	-3.213836e+01	-3.478779e+02
3.100000e-07	-4.453787e-06	-5.280029e-09	-3.173218e+01	-3.451530e+02
3.200000e-07	-4.394938e-06	-5.231412e-09	-3.131290e+01	-3.423577e+02
3.300000e-07	-4.334435e-06	-5.173209e-09	-3.088183e+01	-3.394895e+02
3.400000e-07	-4.272519e-06	-5.091898e-09	-3.044069e+01	-3.365451e+02
3.500000e-07	-4.209267e-06	-5.077399e-09	-2.999003e+01	-3.335211e+02
3.600000e-07	-4.144548e-06	-5.058938e-09	-2.952893e+01	-3.304149e+02
3.700000e-07	-4.078150e-06	-4.994023e-09	-2.905586e+01	-3.272252e+02
3.800000e-07	-4.010177e-06	-4.949880e-09	-2.857157e+01	-3.239513e+02
3.900000e-07	-3.940809e-06	-4.887881e-09	-2.807733e+01	-3.205924e+02
4.000000e-07	-3.870215e-06	-4.826707e-09	-2.757437e+01	-3.171476e+02
4.100000e-07	-3.798348e-06	-4.772037e-09	-2.706234e+01	-3.136155e+02
4.200000e-07	-3.725008e-06	-4.721420e-09	-2.653981e+01	-3.099945e+02
4.300000e-07	-3.650131e-06	-4.673960e-09	-2.600632e+01	-3.062836e+02
4.400000e-07	-3.573721e-06	-4.610416e-09	-2.546192e+01	-3.024830e+02
4.500000e-07	-3.495875e-06	-4.549253e-09	-2.490729e+01	-2.985945e+02
4.600000e-07	-3.416706e-06	-4.490550e-09	-2.434323e+01	-2.946208e+02
4.700000e-07	-3.336189e-06	-4.429584e-09	-2.376956e+01	-2.905657e+02
4.800000e-07	-3.254392e-06	-4.357971e-09	-2.318678e+01	-2.864319e+02
4.900000e-07	-3.171571e-06	-4.286954e-09	-2.259670e+01	-2.822206e+02
5.000000e-07	-3.087770e-06	-4.230126e-09	-2.199963e+01	-2.779300e+02
5.100000e-07	-3.003014e-06	-4.166821e-09	-2.139577e+01	-2.735552e+02
5.200000e-07	-2.917286e-06	-4.098336e-09	-2.078498e+01	-2.690887e+02
5.300000e-07	-2.830536e-06	-4.022136e-09	-2.016690e+01	-2.645216e+02
5.400000e-07	-2.742846e-06	-3.942814e-09	-1.954213e+01	-2.598456e+02
5.500000e-07	-2.654216e-06	-3.868892e-09	-1.891066e+01	-2.550548e+02
5.600000e-07	-2.564443e-06	-3.796765e-09	-1.827105e+01	-2.501469e+02
5.700000e-07	-2.473537e-06	-3.726764e-09	-1.762337e+01	-2.451238e+02
5.800000e-07	-2.381772e-06	-3.646593e-09	-1.696957e+01	-2.399912e+02
5.900000e-07	-2.289267e-06	-3.561924e-09	-1.631049e+01	-2.347572e+02
6.000000e-07	-2.195935e-06	-3.476633e-09	-1.564552e+01	-2.294299e+02
6.100000e-07	-2.101777e-06	-3.391499e-09	-1.497466e+01	-2.240154e+02
6.200000e-07	-2.006983e-06	-3.307622e-09	-1.429928e+01	-2.185166e+02
6.300000e-07	-1.911588e-06	-3.224577e-09	-1.361961e+01	-2.129318e+02
6.400000e-07	-1.815392e-06	-3.142206e-09	-1.293424e+01	-2.072555e+02
6.500000e-07	-1.718315e-06	-3.056225e-09	-1.224259e+01	-2.014799e+02
6.600000e-07	-1.620499e-06	-2.966174e-09	-1.154567e+01	-1.955966e+02
6.700000e-07	-1.522069e-06	-2.871637e-09	-1.084438e+01	-1.895987e+02
6.800000e-07	-1.423085e-06	-2.776549e-09	-1.013915e+01	-1.834823e+02
6.900000e-07	-1.323626e-06	-2.679395e-09	-9.430525e+00	-1.772472e+02
7.000000e-07	-1.223774e-06	-2.581475e-09	-8.719099e+00	-1.708962e+02
7.100000e-07	-1.123584e-06	-2.484880e-09	-8.005273e+00	-1.644336e+02
7.200000e-07	-1.023110e-06	-2.386336e-09	-7.289415e+00	-1.578637e+02
7.300000e-07	-9.223375e-07	-2.284410e-09	-6.571437e+00	-1.511881e+02
7.400000e-07	-8.212298e-07	-2.179350e-09	-5.851069e+00	-1.444051e+02
7.500000e-07	-7.198575e-07	-2.074682e-09	-5.128815e+00	-1.375087e+02
7.600000e-07	-6.182290e-07	-1.969268e-09	-4.404736e+00	-1.304897e+02
7.700000e-07	-5.163174e-07	-1.859455e-09	-3.678640e+00	-1.233364e+02
7.800000e-07	-4.142299e-07	-1.747002e-09	-2.951291e+00	-1.160370e+02
7.900000e-07	-3.120512e-07	-1.633217e-09	-2.223291e+00	-1.085812e+02
8.000000e-07	-2.097480e-07	-1.515582e-09	-1.494405e+00	-1.009612e+02
8.100000e-07	-1.073551e-07	-1.397049e-09	-7.648796e-01	-9.317210e+01
8.200000e-07	-4.940675e-09	-1.279394e-09	-3.520115e-02	-8.521116e+01
8.300000e-07	9.752807e-08	-1.157865e-09	6.948646e-01	-7.707635e+01
8.400000e-07	1.999810e-07	-1.032419e-09	1.424817e+00	-6.876472e+01
8.500000e-07	3.023439e-07	-9.042058e-10	2.154129e+00	-6.027088e+01
8.600000e-07	4.046461e-07	-7.725659e-10	2.883008e+00	-5.158629e+01
8.700000e-07	5.068668e-07	-6.351750e-10	3.611307e+00	-4.269945e+01
8.800000e-07	6.089354e-07	-4.941646e-10	4.338522e+00	-3.359705e+01
8.900000e-07	7.107666e-07	-3.512201e-10	5.064045e+00	-2.426598e+01
9.000000e-07	8.123322e-07	-2.052086e-10	5.787676e+00	-1.469562e+01
9.100000e-07	9.136302e-07	-5.579590e-11	6.509400e+00	-4.879997e+00
9.200000e-07	1.014581e-06	9.719219e-11	7.228648e+00	5.180478e+00
9.300000e-07	1.115176e-06	2.546773e-10	7.945366e+00	1.547817e+01
9.400000e-07	1.215429e-06	4.161271e-10	8.659644e+00	2.599814e+01
9.500000e-07	1.315348e-06	5.805679e-10	9.371547e+00	3.671873e+01
9.600000e-07	1.414895e-06	7.476208e-10	1.008079e+01	4.761264e+01
9.700000e-07	1.513925e-06	9.153254e-10	1.078636e+01	5.864797e+01
9.800000e-07	1.612286e-06	1.085312e-09	1.148716e+01	6.978928e+01
9.900000e-07	1.709854e-06	1.257032e-09	1.218231e+01	8.099831e+01
1.000000e-06	1.806643e-06	1.429852e-09	1.287190e+01	9.223462e+01
1.010000e-06	1.902663e-06	1.602907e-09	1.355602e+01	1.034561e+02
1.020000e-06	1.997973e-06	1.774984e-09	1.423509e+01	1.146197e+02
1.030000e-06	2.092575e-06	1.945332e-09	1.490910e+01	1.256824e+02
1.040000e-06	2.186422e-06	2.111888e-09	1.557774e+01	1.366027e+02
1.050000e-06	2.279536e-06	2.273569e-09	1.624116e+01	1.473418e+02
1.060000e-06	2.371894e-06	2.431031e-09	1.689919e+01	1.578654e+02
1.070000e-06	2.463592e-06	2.586970e-09	1.755251e+01	1.681443e+02
1.080000e-06	2.554551e-06	2.742694e-09	1.820057e+01	1.781556e+02
1.090000e-06	2.644405e-06	2.894588e-09	1.884076e+01	1.878820e+02
1.100000e-06	2.733064e-06	3.040716e-09	1.947244e+01	1.973112e+02
1.110000e-06	2.820722e-06	3.179620e-09	2.009698e+01	2.064347e+02
1.120000e-06	2.907446e-06	3.311786e-09	2.071487e+01	2.152465e+02
1.130000e-06	2.993220e-06	3.439965e-09	2.132599e+01	2.237426e+02
1.140000e-06	3.078041e-06	3.565388e-09	2.193031e+01	2.319197e+02
1.150000e-06	3.161992e-06	3.684325e-09	2.252845e+01	2.397764e+02
1.160000e-06	3.244985e-06	3.795317e-09	2.311975e+01	2.473132e+02
1.170000e-06	3.326728e-06	3.903180e-09	2.370216e+01	2.545339e+02
1.180000e-06	3.407161e-06	4.008338e-09	2.427522e+01	2.614462e+02
1.190000e-06	3.486363e-06	4.110682e-09	2.483951e+01	2.680623e+02
1.200000e-06	3.564354e-06	4.208624e-09	2.539518e+01	2.743982e+02
1.210000e-06	3.641119e-06	4.301363e-09	2.594211e+01	2.804724e+02
1.220000e-06	3.716598e-06	4.390736e-09	2.647988e+01	2.863050e+02
1.230000e-06	3.790529e-06	4.476382e-09	2.700662e+01	2.919146e+02
1.240000e-06	3.862792e-06	4.559715e-09	2.752149e+01	2.973177e+02
1.250000e-06	3.933582e-06	4.639556e-09	2.802585e+01	3.025267e+02
1.260000e-06	4.002989e-06	4.715553e-09	2.852036e+01	3.075505e+02
1.270000e-06	4.071102e-06	4.789783e-09	2.900565e+01	3.123940e+02
1.280000e-06	4.137842e-06	4.861012e-09	2.948115e+01	3.170603e+02
1.290000e-06	4.202915e-06	4.929490e-09	2.994478e+01	3.215512e+02
1.300000e-06	4.266368e-06	4.995676e-09	3.039687e+01	3.258688e+02
1.310000e-06	4.328392e-06	5.059832e-09	3.083878e+01	3.300162e+02
1.320000e-06	4.389033e-06	5.120407e-09	3.127082e+01	3.339972e+02
1.330000e-06	4.448318e-06	5.175918e-09	3.169322e+01	3.378160e+02
1.340000e-06	4.505867e-06	5.229378e-09	3.210324e+01	3.414765e+02
1.350000e-06	4.561569e-06	5.281832e-09	3.250011e+01	3.449808e+02
1.360000e-06	4.615720e-06	5.331595e-09	3.288592e+01	3.483296e+02
1.370000e-06	4.668224e-06	5.377890e-09	3.325999e+01	3.515215e+02
1.380000e-06	4.718744e-06	5.422018e-09	3.361994e+01	3.545546e+02
1.390000e-06	4.767246e-06	5.465356e-09	3.396551e+01	3.574273e+02
1.400000e-06	4.813972e-06	5.505149e-09	3.429842e+01	3.601395e+02
1.410000e-06	4.859050e-06	5.540535e-09	3.461959e+01	3.626941e+02
1.420000e-06	4.902600e-06	5.573971e-09	3.492987e+01	3.650971e+02
1.430000e-06	4.944300e-06	5.605963e-09	3.522697e+01	3.673568e+02
1.440000e-06	4.984066e-06	5.636895e-09	3.551030e+01	3.694833e+02
1.450000e-06	5.022178e-06	5.666196e-09	3.578184e+01	3.714861e+02
1.460000e-06	5.058718e-06	5.693446e-09	3.604218e+01	3.733730e+02
1.470000e-06	5.093616e-06	5.718802e-09	3.629081e+01	3.751489e+02
1.480000e-06	5.126603e-06	5.742008e-09	3.652584e+01	3.768153e+02
1.490000e-06	5.157690e-06	5.763398e-09	3.674733e+01	3.783711e+02
1.500000e-06	5.187026e-06	5.783082e-09	3.695634e+01	3.798137e+02
1.510000e-06	5.214677e-06	5.801723e-09	3.715335e+01	3.811412e+02
1.520000e-06	5.240391e-06	5.818894e-09	3.733655e+01	3.823534e+02
1.530000e-06	5.264008e-06	5.835339e-09	3.750482e+01	3.834527e+02
1.540000e-06	5.285757e-06	5.851283e-09	3.765977e+01	3.844443e+02
1.550000e-06	5.305800e-06	5.865649e-09	3.780258e+01	3.853353e+02
1.560000e-06	5.324049e-06	5.878274e-09	3.793260e+01	3.861324e+02
1.570000e-06	5.340346e-06	5.889763e-09	3.804871e+01	3.868408e+02
1.580000e-06	5.354651e-06	5.900512e-09	3.815063e+01	3.874623e+02
1.590000e-06	5.366958e-06	5.910002e-09	3.823832e+01	3.879954e+02
1.600000e-06	5.377041e-06	5.916661e-09	3.831015e+01	3.884351e+02
1.610000e-06	5.384955e-06	5.920698e-09	3.836654e+01	3.887756e+02
1.620000e-06	5.390998e-06	5.924862e-09	3.840959e+01	3.890115e+02
1.630000e-06	5.395276e-06	5.929513e-09	3.844007e+01	3.891410e+02
1.640000e-06	5.397687e-06	5.932869e-09	3.845725e+01	3.891664e+02
1.650000e-06	5.398073e-06	5.936142e-09	3.846000e+01	3.890952e+02
1.660000e-06	5.396595e-06	5.934727e-09	3.844947e+01	3.889381e+02
1.670000e-06	5.393488e-06	5.929417e-09	3.842733e+01	3.887075e+02
1.680000e-06	5.388837e-06	5.927238e-09	3.839420e+01	3.884134e+02
1.690000e-06	5.382266e-06	5.923513e-09	3.834738e+01	3.880618e+02
1.700000e-06	5.373756e-06	5.918268e-09	3.828675e+01	3.876518e+02
1.710000e-06	5.363634e-06	5.912998e-09	3.821463e+01	3.871760e+02
1.720000e-06	5.351909e-06	5.912706e-09	3.813109e+01	3.866218e+02
1.730000e-06	5.338301e-06	5.921728e-09	3.803414e+01	3.859747e+02
1.740000e-06	5.322532e-06	5.848078e-09	3.792179e+01	3.852217e+02
1.750000e-06	5.304365e-06	5.805566e-09	3.779235e+01	3.843557e+02
1.760000e-06	5.283533e-06	5.820088e-09	3.764393e+01	3.833774e+02
1.770000e-06	5.260434e-06	5.810214e-09	3.747935e+01	3.822966e+02
1.780000e-06	5.236098e-06	5.924530e-09	3.730596e+01	3.811306e+02
1.790000e-06	5.211027e-06	5.855343e-09	3.712734e+01	3.799008e+02
1.800000e-06	5.184507e-06	5.685450e-09	3.693839e+01	3.786285e+02
1.810000e-06	5.155837e-06	5.815648e-09	3.673412e+01	3.773298e+02
1.820000e-06	5.125377e-06	5.724191e-09	3.651710e+01	3.760122e+02
1.830000e-06	5.093187e-06	5.642827e-09	3.628776e+01	3.746722e+02
1.840000e-06	5.058969e-06	5.805771e-09	3.604397e+01	3.732960e+02
1.850000e-06	5.023154e-06	5.635253e-09	3.578879e+01	3.718616e+02
1.860000e-06	4.985600e-06	5.588082e-09	3.552123e+01	3.703430e+02
1.870000e-06	4.946088e-06	5.679917e-09	3.523971e+01	3.687149e+02
1.880000e-06	4.904916e-06	5.517589e-09	3.494638e+01	3.669572e+02
1.890000e-06	4.861937e-06	5.569012e-09	3.464016e+01	3.650576e+02
1.900000e-06	4.817318e-06	5.540866e-09	3.432226e+01	3.630136e+02
1.910000e-06	4.770979e-06	5.438789e-09	3.399210e+01	3.608312e+02
1.920000e-06	4.722615e-06	5.510959e-09	3.364752e+01	3.585228e+02
1.930000e-06	4.672616e-06	5.370106e-09	3.329129e+01	3.561040e+02
1.940000e-06	4.620922e-06	5.377833e-09	3.292298e+01	3.535903e+02
1.950000e-06	4.567172e-06	5.385126e-09	3.254003e+01	3.509944e+02
1.960000e-06	4.511456e-06	5.258560e-09	3.214307e+01	3.483245e+02
1.970000e-06	4.453971e-06	5.255014e-09	3.173350e+01	3.455841e+02
1.980000e-06	4.395012e-06	5.200177e-09	3.131343e+01	3.427730e+02
1.990000e-06	4.334615e-06	5.214858e-09	3.088311e+01	3.398885e+02
2.000000e-06	4.272562e-06	5.130506e-09	3.044100e+01	3.369269e+02
2.010000e-06	4.208856e-06	5.034031e-09	2.998711e+01	3.338850e+02
2.020000e-06	4.143573e-06	5.052004e-09	2.952198e+01	3.307606e+02
2.030000e-06	4.076875e-06	4.939967e-09	2.904677e+01	3.275525e+02
2.040000e-06	4.008825e-06	4.927283e-09	2.856194e+01	3.242600e+02
2.050000e-06	3.939323e-06	4.902522e-09	2.806675e+01	3.208824e+02
2.060000e-06	3.868338e-06	4.843253e-09	2.756100e+01	3.174186e+02
2.070000e-06	3.795931e-06	4.786846e-09	2.704512e+01	3.138671e+02
2.080000e-06	3.722186e-06	4.674461e-09	2.651970e+01	3.102265e+02
2.090000e-06	3.647110e-06	4.661825e-09	2.598480e+01	3.064959e+02
2.100000e-06	3.570623e-06	4.602107e-09	2.543985e+01	3.026759e+02
2.110000e-06	3.492536e-06	4.536104e-09	2.488349e+01	2.987684e+02
2.120000e-06	3.413001e-06	4.479659e-09	2.431683e+01	2.947766e+02
2.130000e-06	3.332347e-06	4.417130e-09	2.374219e+01	2.907040e+02
2.140000e-06	3.250557e-06	4.366619e-09	2.315945e+01	2.865532e+02
2.150000e-06	3.167684e-06	4.283271e-09	2.256900e+01	2.823248e+02
2.160000e-06	3.083830e-06	4.231137e-09	2.197156e+01	2.780162e+02
2.170000e-06	2.998902e-06	4.156019e-09	2.136647e+01	2.736220e+02
2.180000e-06	2.912649e-06	4.085699e-09	2.075194e+01	2.691343e+02
2.190000e-06	2.825125e-06	4.020794e-09	2.012835e+01	2.645441e+02
2.200000e-06	2.736593e-06	3.956436e-09	1.949758e+01	2.598436e+02
2.210000e-06	2.647172e-06	3.891167e-09	1.886048e+01	2.550273e+02
2.220000e-06	2.556844e-06	3.798561e-09	1.821691e+01	2.500939e+02
2.230000e-06	2.465634e-06	3.719948e-09	1.756706e+01	2.450464e+02
2.240000e-06	2.373705e-06	3.641096e-09	1.691209e+01	2.398910e+02
2.250000e-06	2.281015e-06	3.571446e-09	1.625170e+01	2.346359e+02
2.260000e-06	2.187500e-06	3.498571e-09	1.558542e+01	2.292891e+02
2.270000e-06	2.093015e-06	3.416431e-09	1.491224e+01	2.238561e+02
2.280000e-06	1.997522e-06	3.326011e-09	1.423188e+01	2.183387e+02
2.290000e-06	1.901268e-06	3.230399e-09	1.354609e+01	2.127344e+02
2.300000e-06	1.804444e-06	3.143949e-09	1.285624e+01	2.070371e+02
2.310000e-06	1.707137e-06	3.064084e-09	1.216295e+01	2.012387e+02
2.320000e-06	1.609287e-06	2.979505e-09	1.146579e+01	1.953310e+02
2.330000e-06	1.510840e-06	2.881077e-09	1.076438e+01	1.893075e+02
2.340000e-06	1.411901e-06	2.786894e-09	1.005946e+01	1.831652e+02
2.350000e-06	1.312584e-06	2.693418e-09	9.351855e+00	1.769045e+02
2.360000e-06	1.212919e-06	2.598920e-09	8.641761e+00	1.705288e+02
2.370000e-06	1.113002e-06	2.501770e-09	7.929879e+00	1.640425e+02
2.380000e-06	1.012875e-06	2.397692e-09	7.216496e+00	1.574494e+02
2.390000e-06	9.123381e-07	2.293250e-09	6.500194e+00	1.507507e+02
2.400000e-06	8.113772e-07	2.189640e-09	5.780871e+00	1.439436e+02
2.410000e-06	7.101472e-07	2.086887e-09	5.059631e+00	1.370215e+02
2.420000e-06	6.086310e-07	1.980536e-09	4.336353e+00	1.299743e+02
2.430000e-06	5.068407e-07	1.867344e-09	3.611121e+00	1.227902e+02
2.440000e-06	4.048100e-07	1.754182e-09	2.884176e+00	1.154577e+02
2.450000e-06	3.026171e-07	1.645713e-09	2.156075e+00	1.079668e+02
2.460000e-06	2.002866e-07	1.532562e-09	1.426995e+00	1.003105e+02
2.470000e-06	9.777653e-08	1.412395e-09	6.966348e-01	9.248437e+01
2.480000e-06	-4.789878e-09	1.285789e-09	-3.412676e-02	8.448594e+01
2.490000e-06	-1.073333e-07	1.154717e-09	-7.647247e-01	7.631315e+01
2.500000e-06	-2.098220e-07	1.024983e-09	-1.494932e+00	6.796261e+01
2.510000e-06	-3.122353e-07	8.986207e-10	-2.224603e+00	5.942832e+01
2.520000e-06	-4.145416e-07	7.720513e-10	-2.953511e+00	5.070104e+01
2.530000e-06	-5.167009e-07	6.365486e-10	-3.681372e+00	4.176874e+01
2.540000e-06	-6.186489e-07	4.939894e-10	-4.407728e+00	3.261799e+01
2.550000e-06	-7.202744e-07	3.506176e-10	-5.131786e+00	2.323600e+01
2.560000e-06	-8.215272e-07	2.048987e-10	-5.853188e+00	1.361297e+01
2.570000e-06	-9.224348e-07	5.356985e-11	-6.572131e+00	3.744200e+00
2.580000e-06	-1.022974e-06	-1.009121e-10	-7.288446e+00	-6.368414e+00
2.590000e-06	-1.123175e-06	-2.568041e-10	-8.002358e+00	-1.671565e+01
2.600000e-06	-1.223023e-06	-4.160054e-10	-8.713752e+00	-2.728105e+01
2.610000e-06	-1.322415e-06	-5.774128e-10	-9.421894e+00	-3.804166e+01
2.620000e-06	-1.421373e-06	-7.415063e-10	-1.012695e+01	-4.896911e+01
2.630000e-06	-1.519818e-06	-9.108653e-10	-1.082835e+01	-6.003065e+01
2.640000e-06	-1.617688e-06	-1.082861e-09	-1.152565e+01	-7.119018e+01
2.650000e-06	-1.715003e-06	-1.255234e-09	-1.221899e+01	-8.240894e+01
2.660000e-06	-1.811787e-06	-1.426210e-09	-1.290856e+01	-9.364607e+01
2.670000e-06	-1.908123e-06	-1.595266e-09	-1.359493e+01	-1.048592e+02
2.680000e-06	-2.003921e-06	-1.763253e-09	-1.427746e+01	-1.160052e+02
2.690000e-06	-2.098891e-06	-1.930106e-09	-1.495411e+01	-1.270412e+02
2.700000e-06	-2.192867e-06	-2.096649e-09	-1.562366e+01	-1.379262e+02
2.710000e-06	-2.285883e-06	-2.261645e-09	-1.628638e+01	-1.486223e+02
2.720000e-06	-2.378023e-06	-2.422027e-09	-1.694285e+01	-1.590961e+02
2.730000e-06	-2.469347e-06	-2.576726e-09	-1.759352e+01	-1.693198e+02
2.740000e-06	-2.559766e-06	-2.727201e-09	-1.823773e+01	-1.792717e+02
2.750000e-06	-2.649226e-06	-2.875097e-09	-1.887511e+01	-1.889357e+02
2.760000e-06	-2.737885e-06	-3.018134e-09	-1.950678e+01	-1.983004e+02
2.770000e-06	-2.825769e-06	-3.156014e-09	-2.013294e+01	-2.073580e+02
2.780000e-06	-2.912675e-06	-3.289732e-09	-2.075213e+01	-2.161029e+02
2.790000e-06	-2.998373e-06	-3.419156e-09	-2.136270e+01	-2.245312e+02
2.800000e-06	-3.082934e-06	-3.544646e-09	-2.196518e+01	-2.326402e+02
2.810000e-06	-3.166480e-06	-3.666082e-09	-2.256043e+01	-2.404286e+02
2.820000e-06	-3.248972e-06	-3.781571e-09	-2.314816e+01	-2.478976e+02
2.830000e-06	-3.330393e-06	-3.890866e-09	-2.372827e+01	-2.550518e+02
2.840000e-06	-3.410771e-06	-3.996248e-09	-2.430094e+01	-2.618999e+02
2.850000e-06	-3.489884e-06	-4.096731e-09	-2.486460e+01	-2.684549e+02
2.860000e-06	-3.567450e-06	-4.191456e-09	-2.541724e+01	-2.747335e+02
2.870000e-06	-3.643538e-06	-4.282948e-09	-2.595935e+01	-2.807547e+02
2.880000e-06	-3.718267e-06	-4.371490e-09	-2.649178e+01	-2.865384e+02
2.890000e-06	-3.791625e-06	-4.456159e-09	-2.701444e+01	-2.921029e+02
2.900000e-06	-3.863694e-06	-4.538285e-09	-2.752791e+01	-2.974639e+02
2.910000e-06	-3.934321e-06	-4.617689e-09	-2.803111e+01	-3.026330e+02
2.920000e-06	-4.003308e-06	-4.693846e-09	-2.852262e+01	-3.076182e+02
2.930000e-06	-4.070865e-06	-4.767153e-09	-2.900396e+01	-3.124240e+02
2.940000e-06	-4.137058e-06	-4.837874e-09	-2.947557e+01	-3.170529e+02
