# Temperatura_=_31.38
# Concentracion g/m^3_=_15000.0
# C_Vs_to_Am_M_A/Vsm_=_65563218390.804596
# pendiente_HvsI_1/m_=_3716.3
# ordenada_HvsI_A/m_=_1297.0
# frecuencia_Hz_=_301574.82410164387

Tiempo_(s)	Campo_(V.s)	Magnetizacion_(V.s)	Campo_(kA/m)	Magnetizacion_(A/m)
0.000000e+00	-5.400475e-06	-4.671135e-09	-3.834003e+01	-3.048200e+02
1.000000e-08	-5.397661e-06	-4.674456e-09	-3.832005e+01	-3.046899e+02
2.000000e-08	-5.393091e-06	-4.670318e-09	-3.828760e+01	-3.045228e+02
3.000000e-08	-5.386835e-06	-4.664706e-09	-3.824319e+01	-3.043253e+02
4.000000e-08	-5.379016e-06	-4.657446e-09	-3.818768e+01	-3.040967e+02
5.000000e-08	-5.369407e-06	-4.648487e-09	-3.811946e+01	-3.038294e+02
6.000000e-08	-5.357717e-06	-4.641118e-09	-3.803647e+01	-3.035109e+02
7.000000e-08	-5.344169e-06	-4.626827e-09	-3.794029e+01	-3.031266e+02
8.000000e-08	-5.328463e-06	-4.625630e-09	-3.782878e+01	-3.026637e+02
9.000000e-08	-5.310457e-06	-4.683442e-09	-3.770095e+01	-3.021140e+02
1.000000e-07	-5.290491e-06	-4.673600e-09	-3.755920e+01	-3.014766e+02
1.100000e-07	-5.268630e-06	-4.614259e-09	-3.740401e+01	-3.007575e+02
1.200000e-07	-5.244979e-06	-4.593901e-09	-3.723610e+01	-2.999683e+02
1.300000e-07	-5.219734e-06	-4.488076e-09	-3.705688e+01	-2.991232e+02
1.400000e-07	-5.192897e-06	-4.505201e-09	-3.686635e+01	-2.982359e+02
1.500000e-07	-5.164480e-06	-4.657085e-09	-3.666461e+01	-2.973154e+02
1.600000e-07	-5.134634e-06	-4.513844e-09	-3.645272e+01	-2.963648e+02
1.700000e-07	-5.103192e-06	-4.529063e-09	-3.622950e+01	-2.953798e+02
1.800000e-07	-5.069563e-06	-4.597012e-09	-3.599075e+01	-2.943504e+02
1.900000e-07	-5.034142e-06	-4.389616e-09	-3.573929e+01	-2.932629e+02
2.000000e-07	-4.997382e-06	-4.460815e-09	-3.547831e+01	-2.921030e+02
2.100000e-07	-4.958784e-06	-4.487491e-09	-3.520429e+01	-2.908594e+02
2.200000e-07	-4.918245e-06	-4.359795e-09	-3.491649e+01	-2.895256e+02
2.300000e-07	-4.875705e-06	-4.442868e-09	-3.461448e+01	-2.881008e+02
2.400000e-07	-4.831299e-06	-4.440298e-09	-3.429923e+01	-2.865898e+02
2.500000e-07	-4.785214e-06	-4.353605e-09	-3.397205e+01	-2.850014e+02
2.600000e-07	-4.737148e-06	-4.336540e-09	-3.363081e+01	-2.833454e+02
2.700000e-07	-4.686936e-06	-4.280039e-09	-3.327434e+01	-2.816312e+02
2.800000e-07	-4.634695e-06	-4.285843e-09	-3.290346e+01	-2.798651e+02
2.900000e-07	-4.580635e-06	-4.277975e-09	-3.251967e+01	-2.780497e+02
3.000000e-07	-4.525050e-06	-4.248161e-09	-3.212505e+01	-2.761842e+02
3.100000e-07	-4.467789e-06	-4.200820e-09	-3.171853e+01	-2.742651e+02
3.200000e-07	-4.408640e-06	-4.149001e-09	-3.129861e+01	-2.722878e+02
3.300000e-07	-4.347885e-06	-4.126201e-09	-3.086729e+01	-2.702482e+02
3.400000e-07	-4.285641e-06	-4.069633e-09	-3.042539e+01	-2.681437e+02
3.500000e-07	-4.222031e-06	-4.069773e-09	-2.997380e+01	-2.659738e+02
3.600000e-07	-4.156884e-06	-4.046149e-09	-2.951130e+01	-2.637399e+02
3.700000e-07	-4.090008e-06	-3.986876e-09	-2.903652e+01	-2.614443e+02
3.800000e-07	-4.021675e-06	-3.968858e-09	-2.855140e+01	-2.590896e+02
3.900000e-07	-3.952017e-06	-3.925115e-09	-2.805687e+01	-2.566772e+02
4.000000e-07	-3.881167e-06	-3.874460e-09	-2.755388e+01	-2.542074e+02
4.100000e-07	-3.809058e-06	-3.823938e-09	-2.704195e+01	-2.516789e+02
4.200000e-07	-3.735397e-06	-3.789430e-09	-2.651900e+01	-2.490890e+02
4.300000e-07	-3.660084e-06	-3.764514e-09	-2.598432e+01	-2.464345e+02
4.400000e-07	-3.583294e-06	-3.729522e-09	-2.543917e+01	-2.437125e+02
4.500000e-07	-3.505138e-06	-3.686723e-09	-2.488430e+01	-2.409206e+02
4.600000e-07	-3.425556e-06	-3.623422e-09	-2.431933e+01	-2.380574e+02
4.700000e-07	-3.344720e-06	-3.565460e-09	-2.374544e+01	-2.351224e+02
4.800000e-07	-3.262719e-06	-3.517990e-09	-2.316328e+01	-2.321158e+02
4.900000e-07	-3.179614e-06	-3.481842e-09	-2.257329e+01	-2.290379e+02
5.000000e-07	-3.095551e-06	-3.448400e-09	-2.197649e+01	-2.258888e+02
5.100000e-07	-3.010492e-06	-3.392139e-09	-2.137263e+01	-2.226682e+02
5.200000e-07	-2.924403e-06	-3.327390e-09	-2.076145e+01	-2.193757e+02
5.300000e-07	-2.837374e-06	-3.266205e-09	-2.014360e+01	-2.160100e+02
5.400000e-07	-2.749479e-06	-3.215977e-09	-1.951960e+01	-2.125702e+02
5.500000e-07	-2.660516e-06	-3.170892e-09	-1.888801e+01	-2.090550e+02
5.600000e-07	-2.570309e-06	-3.114220e-09	-1.824760e+01	-2.054629e+02
5.700000e-07	-2.479085e-06	-3.054751e-09	-1.759997e+01	-2.017922e+02
5.800000e-07	-2.387016e-06	-2.995072e-09	-1.694634e+01	-1.980407e+02
5.900000e-07	-2.294128e-06	-2.938469e-09	-1.628689e+01	-1.942055e+02
6.000000e-07	-2.200445e-06	-2.877145e-09	-1.562179e+01	-1.902835e+02
6.100000e-07	-2.105991e-06	-2.811066e-09	-1.495123e+01	-1.862713e+02
6.200000e-07	-2.010865e-06	-2.745058e-09	-1.427590e+01	-1.821659e+02
6.300000e-07	-1.915081e-06	-2.682653e-09	-1.359589e+01	-1.779655e+02
6.400000e-07	-1.818485e-06	-2.625346e-09	-1.291011e+01	-1.736697e+02
6.500000e-07	-1.721033e-06	-2.563146e-09	-1.221827e+01	-1.692798e+02
6.600000e-07	-1.622882e-06	-2.490885e-09	-1.152145e+01	-1.647981e+02
6.700000e-07	-1.524097e-06	-2.409505e-09	-1.082015e+01	-1.602277e+02
6.800000e-07	-1.424732e-06	-2.333374e-09	-1.011472e+01	-1.555706e+02
6.900000e-07	-1.324904e-06	-2.262951e-09	-9.406000e+00	-1.508273e+02
7.000000e-07	-1.224745e-06	-2.192740e-09	-8.694929e+00	-1.459954e+02
7.100000e-07	-1.124300e-06	-2.119304e-09	-7.981836e+00	-1.410698e+02
7.200000e-07	-1.023551e-06	-2.039254e-09	-7.266580e+00	-1.360430e+02
7.300000e-07	-9.224484e-07	-1.956515e-09	-6.548812e+00	-1.309061e+02
7.400000e-07	-8.209989e-07	-1.876223e-09	-5.828583e+00	-1.256508e+02
7.500000e-07	-7.192235e-07	-1.798143e-09	-5.106041e+00	-1.202705e+02
7.600000e-07	-6.171395e-07	-1.716635e-09	-4.381308e+00	-1.147618e+02
7.700000e-07	-5.148496e-07	-1.627947e-09	-3.655113e+00	-1.091247e+02
7.800000e-07	-4.124835e-07	-1.536648e-09	-2.928377e+00	-1.033619e+02
7.900000e-07	-3.100267e-07	-1.447183e-09	-2.200997e+00	-9.747790e+01
8.000000e-07	-2.074204e-07	-1.356485e-09	-1.472556e+00	-9.147651e+01
8.100000e-07	-1.047465e-07	-1.263864e-09	-7.436352e-01	-8.535936e+01
8.200000e-07	-2.049207e-09	-1.169937e-09	-1.454810e-02	-7.912430e+01
8.300000e-07	1.007059e-07	-1.073205e-09	7.149496e-01	-7.276487e+01
8.400000e-07	2.034388e-07	-9.756364e-10	1.444290e+00	-6.627085e+01
8.500000e-07	3.060835e-07	-8.772364e-10	2.173003e+00	-5.962967e+01
8.600000e-07	4.086947e-07	-7.748272e-10	2.901479e+00	-5.282845e+01
8.700000e-07	5.112138e-07	-6.659882e-10	3.629301e+00	-4.585600e+01
8.800000e-07	6.135996e-07	-5.556471e-10	4.356177e+00	-3.870438e+01
8.900000e-07	7.157849e-07	-4.481631e-10	5.081629e+00	-3.136951e+01
9.000000e-07	8.177223e-07	-3.384235e-10	5.805321e+00	-2.385080e+01
9.100000e-07	9.193944e-07	-2.223215e-10	6.527130e+00	-1.614996e+01
9.200000e-07	1.020721e-06	-1.020266e-10	7.246483e+00	-8.269499e+00
9.300000e-07	1.121634e-06	1.963688e-11	7.962909e+00	-2.113944e-01
9.400000e-07	1.222194e-06	1.439169e-10	8.676820e+00	8.023343e+00
9.500000e-07	1.322452e-06	2.696511e-10	9.388590e+00	1.643403e+01
9.600000e-07	1.422280e-06	3.990620e-10	1.009731e+01	2.501851e+01
9.700000e-07	1.521505e-06	5.320455e-10	1.080174e+01	3.377048e+01
9.800000e-07	1.620075e-06	6.677817e-10	1.150153e+01	4.267679e+01
9.900000e-07	1.717991e-06	8.058433e-10	1.219667e+01	5.171510e+01
1.000000e-06	1.815153e-06	9.448073e-10	1.288646e+01	6.085304e+01
1.010000e-06	1.911522e-06	1.085086e-09	1.357062e+01	7.004882e+01
1.020000e-06	2.007082e-06	1.226460e-09	1.424903e+01	7.925372e+01
1.030000e-06	2.101936e-06	1.367125e-09	1.492244e+01	8.841574e+01
1.040000e-06	2.196153e-06	1.505231e-09	1.559133e+01	9.748398e+01
1.050000e-06	2.289566e-06	1.639762e-09	1.625450e+01	1.064126e+02
1.060000e-06	2.382183e-06	1.771034e-09	1.691202e+01	1.151639e+02
1.070000e-06	2.474079e-06	1.899041e-09	1.756442e+01	1.237095e+02
1.080000e-06	2.565180e-06	2.024476e-09	1.821119e+01	1.320303e+02
1.090000e-06	2.655320e-06	2.147999e-09	1.885112e+01	1.401141e+02
1.100000e-06	2.744366e-06	2.270191e-09	1.948329e+01	1.479537e+02
1.110000e-06	2.832325e-06	2.385815e-09	2.010775e+01	1.555436e+02
1.120000e-06	2.919313e-06	2.495489e-09	2.072532e+01	1.628787e+02
1.130000e-06	3.005398e-06	2.602813e-09	2.133646e+01	1.699529e+02
1.140000e-06	3.090527e-06	2.708881e-09	2.194082e+01	1.767602e+02
1.150000e-06	3.174672e-06	2.809038e-09	2.253820e+01	1.832961e+02
1.160000e-06	3.257804e-06	2.901899e-09	2.312839e+01	1.895594e+02
1.170000e-06	3.339812e-06	2.993066e-09	2.371060e+01	1.955540e+02
1.180000e-06	3.420511e-06	3.080700e-09	2.428351e+01	2.012896e+02
1.190000e-06	3.499944e-06	3.164671e-09	2.484743e+01	2.067817e+02
1.200000e-06	3.578172e-06	3.246774e-09	2.540281e+01	2.120489e+02
1.210000e-06	3.655149e-06	3.326486e-09	2.594929e+01	2.171114e+02
1.220000e-06	3.730795e-06	3.402656e-09	2.648633e+01	2.219874e+02
1.230000e-06	3.804936e-06	3.475494e-09	2.701268e+01	2.266913e+02
1.240000e-06	3.877478e-06	3.544173e-09	2.752769e+01	2.312318e+02
1.250000e-06	3.948539e-06	3.609084e-09	2.803218e+01	2.356125e+02
1.260000e-06	4.018214e-06	3.671036e-09	2.852683e+01	2.398325e+02
1.270000e-06	4.086507e-06	3.734051e-09	2.901167e+01	2.438889e+02
1.280000e-06	4.153396e-06	3.795181e-09	2.948654e+01	2.477790e+02
1.290000e-06	4.218623e-06	3.850727e-09	2.994960e+01	2.515018e+02
1.300000e-06	4.282194e-06	3.900272e-09	3.040092e+01	2.550594e+02
1.310000e-06	4.344385e-06	3.947882e-09	3.084244e+01	2.584566e+02
1.320000e-06	4.405201e-06	3.997605e-09	3.127420e+01	2.616999e+02
1.330000e-06	4.464573e-06	4.044876e-09	3.169570e+01	2.647959e+02
1.340000e-06	4.522311e-06	4.086677e-09	3.210560e+01	2.677497e+02
1.350000e-06	4.578276e-06	4.125294e-09	3.250292e+01	2.705637e+02
1.360000e-06	4.632575e-06	4.162531e-09	3.288841e+01	2.732382e+02
1.370000e-06	4.685190e-06	4.199167e-09	3.326194e+01	2.757718e+02
1.380000e-06	4.735889e-06	4.234597e-09	3.362188e+01	2.781632e+02
1.390000e-06	4.784541e-06	4.266768e-09	3.396727e+01	2.804130e+02
1.400000e-06	4.831382e-06	4.296121e-09	3.429982e+01	2.825252e+02
1.410000e-06	4.876619e-06	4.322609e-09	3.462097e+01	2.845075e+02
1.420000e-06	4.920331e-06	4.347994e-09	3.493130e+01	2.863710e+02
1.430000e-06	4.962305e-06	4.373222e-09	3.522929e+01	2.881283e+02
1.440000e-06	5.002344e-06	4.397269e-09	3.551354e+01	2.897914e+02
1.450000e-06	5.040633e-06	4.420100e-09	3.578537e+01	2.913698e+02
1.460000e-06	5.077312e-06	4.441936e-09	3.604577e+01	2.928684e+02
1.470000e-06	5.112306e-06	4.464508e-09	3.629421e+01	2.942875e+02
1.480000e-06	5.145327e-06	4.485976e-09	3.652863e+01	2.956237e+02
1.490000e-06	5.176450e-06	4.504390e-09	3.674959e+01	2.968714e+02
1.500000e-06	5.205897e-06	4.519124e-09	3.695864e+01	2.980253e+02
1.510000e-06	5.233685e-06	4.531885e-09	3.715592e+01	2.990827e+02
1.520000e-06	5.259500e-06	4.544449e-09	3.733919e+01	3.000448e+02
1.530000e-06	5.283255e-06	4.558478e-09	3.750783e+01	3.009169e+02
1.540000e-06	5.305159e-06	4.573291e-09	3.766334e+01	3.017072e+02
1.550000e-06	5.325314e-06	4.586164e-09	3.780643e+01	3.024250e+02
1.560000e-06	5.343630e-06	4.597402e-09	3.793646e+01	3.030778e+02
1.570000e-06	5.359859e-06	4.607891e-09	3.805168e+01	3.036695e+02
1.580000e-06	5.374058e-06	4.617581e-09	3.815248e+01	3.041991e+02
1.590000e-06	5.386312e-06	4.624986e-09	3.823948e+01	3.046615e+02
1.600000e-06	5.396384e-06	4.629874e-09	3.831098e+01	3.050485e+02
1.610000e-06	5.404281e-06	4.634252e-09	3.836704e+01	3.053520e+02
1.620000e-06	5.410284e-06	4.639252e-09	3.840966e+01	3.055663e+02
1.630000e-06	5.414560e-06	4.644173e-09	3.844002e+01	3.056910e+02
1.640000e-06	5.416999e-06	4.647748e-09	3.845734e+01	3.057311e+02
1.650000e-06	5.417374e-06	4.651550e-09	3.846000e+01	3.056976e+02
1.660000e-06	5.415890e-06	4.650049e-09	3.844946e+01	3.056042e+02
1.670000e-06	5.412765e-06	4.643817e-09	3.842728e+01	3.054651e+02
1.680000e-06	5.408017e-06	4.642916e-09	3.839357e+01	3.052909e+02
1.690000e-06	5.401338e-06	4.641834e-09	3.834615e+01	3.050868e+02
1.700000e-06	5.392828e-06	4.640696e-09	3.828574e+01	3.048505e+02
1.710000e-06	5.382778e-06	4.639980e-09	3.821439e+01	3.045732e+02
1.720000e-06	5.371010e-06	4.642090e-09	3.813084e+01	3.042416e+02
1.730000e-06	5.357196e-06	4.651559e-09	3.803277e+01	3.038412e+02
1.740000e-06	5.341236e-06	4.565811e-09	3.791947e+01	3.033598e+02
1.750000e-06	5.323005e-06	4.543373e-09	3.779004e+01	3.027910e+02
1.760000e-06	5.302101e-06	4.587557e-09	3.764163e+01	3.021351e+02
1.770000e-06	5.278847e-06	4.588580e-09	3.747654e+01	3.013996e+02
1.780000e-06	5.254366e-06	4.707322e-09	3.730274e+01	3.005969e+02
1.790000e-06	5.229203e-06	4.599270e-09	3.712410e+01	2.997415e+02
1.800000e-06	5.202559e-06	4.428755e-09	3.693494e+01	2.988462e+02
1.810000e-06	5.173672e-06	4.588258e-09	3.672986e+01	2.979190e+02
1.820000e-06	5.142961e-06	4.466313e-09	3.651184e+01	2.969614e+02
1.830000e-06	5.110551e-06	4.423934e-09	3.628174e+01	2.959677e+02
1.840000e-06	5.076149e-06	4.624386e-09	3.603751e+01	2.949268e+02
1.850000e-06	5.040190e-06	4.426265e-09	3.578223e+01	2.938246e+02
1.860000e-06	5.002518e-06	4.434628e-09	3.551477e+01	2.926474e+02
1.870000e-06	4.962944e-06	4.516265e-09	3.523383e+01	2.913846e+02
1.880000e-06	4.921698e-06	4.293521e-09	3.494100e+01	2.900309e+02
1.890000e-06	4.878607e-06	4.379010e-09	3.463509e+01	2.885868e+02
1.900000e-06	4.833889e-06	4.364358e-09	3.431761e+01	2.870582e+02
1.910000e-06	4.787320e-06	4.307074e-09	3.398700e+01	2.854541e+02
1.920000e-06	4.738639e-06	4.390046e-09	3.364140e+01	2.837848e+02
1.930000e-06	4.688359e-06	4.206704e-09	3.328444e+01	2.820588e+02
1.940000e-06	4.636364e-06	4.253926e-09	3.291531e+01	2.802818e+02
1.950000e-06	4.582304e-06	4.243370e-09	3.253152e+01	2.784556e+02
1.960000e-06	4.526314e-06	4.146465e-09	3.213402e+01	2.765787e+02
1.970000e-06	4.468597e-06	4.204359e-09	3.172426e+01	2.746473e+02
1.980000e-06	4.409435e-06	4.133951e-09	3.130425e+01	2.726567e+02
1.990000e-06	4.348775e-06	4.161031e-09	3.087361e+01	2.706031e+02
2.000000e-06	4.286395e-06	4.063674e-09	3.043075e+01	2.684843e+02
2.010000e-06	4.222399e-06	4.001676e-09	2.997641e+01	2.663003e+02
2.020000e-06	4.156900e-06	4.046976e-09	2.951141e+01	2.640527e+02
2.030000e-06	4.090011e-06	3.928127e-09	2.903654e+01	2.617440e+02
2.040000e-06	4.021735e-06	3.957413e-09	2.855182e+01	2.593765e+02
2.050000e-06	3.951911e-06	3.933807e-09	2.805612e+01	2.569517e+02
2.060000e-06	3.880488e-06	3.889917e-09	2.754906e+01	2.544692e+02
2.070000e-06	3.807736e-06	3.846466e-09	2.703256e+01	2.519275e+02
2.080000e-06	3.733766e-06	3.751780e-09	2.650742e+01	2.493238e+02
2.090000e-06	3.658424e-06	3.755551e-09	2.597254e+01	2.466548e+02
2.100000e-06	3.581571e-06	3.696033e-09	2.542693e+01	2.439177e+02
2.110000e-06	3.503051e-06	3.671781e-09	2.486949e+01	2.411104e+02
2.120000e-06	3.423173e-06	3.636656e-09	2.430241e+01	2.382316e+02
2.130000e-06	3.342241e-06	3.596570e-09	2.372784e+01	2.352810e+02
2.140000e-06	3.260159e-06	3.556520e-09	2.314511e+01	2.322588e+02
2.150000e-06	3.176985e-06	3.478670e-09	2.255462e+01	2.291654e+02
2.160000e-06	3.092828e-06	3.445719e-09	2.195716e+01	2.260008e+02
2.170000e-06	3.007544e-06	3.392356e-09	2.135169e+01	2.227647e+02
2.180000e-06	2.920915e-06	3.358976e-09	2.073669e+01	2.194563e+02
2.190000e-06	2.833078e-06	3.305500e-09	2.011310e+01	2.160746e+02
2.200000e-06	2.744306e-06	3.246992e-09	1.948287e+01	2.126185e+02
2.210000e-06	2.654612e-06	3.196472e-09	1.884610e+01	2.090867e+02
2.220000e-06	2.563934e-06	3.132028e-09	1.820234e+01	2.054776e+02
2.230000e-06	2.472467e-06	3.083062e-09	1.755298e+01	2.017896e+02
2.240000e-06	2.380315e-06	3.029306e-09	1.689876e+01	1.980201e+02
2.250000e-06	2.287297e-06	2.984838e-09	1.623839e+01	1.941664e+02
2.260000e-06	2.193357e-06	2.924167e-09	1.557148e+01	1.902251e+02
2.270000e-06	2.098469e-06	2.854466e-09	1.489783e+01	1.861929e+02
2.280000e-06	2.002606e-06	2.783561e-09	1.421726e+01	1.820670e+02
2.290000e-06	1.905972e-06	2.716765e-09	1.353122e+01	1.778459e+02
2.300000e-06	1.808834e-06	2.652052e-09	1.284160e+01	1.735295e+02
2.310000e-06	1.711202e-06	2.590062e-09	1.214847e+01	1.691195e+02
2.320000e-06	1.612968e-06	2.531689e-09	1.145107e+01	1.646183e+02
2.330000e-06	1.514216e-06	2.462106e-09	1.074999e+01	1.600289e+02
2.340000e-06	1.415028e-06	2.393075e-09	1.004582e+01	1.553532e+02
2.350000e-06	1.315411e-06	2.318288e-09	9.338599e+00	1.505909e+02
2.360000e-06	1.215440e-06	2.243756e-09	8.628872e+00	1.457392e+02
2.370000e-06	1.115230e-06	2.170727e-09	7.917439e+00	1.407924e+02
2.380000e-06	1.014678e-06	2.095348e-09	7.203583e+00	1.357424e+02
2.390000e-06	9.136478e-07	2.019133e-09	6.486333e+00	1.305806e+02
2.400000e-06	8.121426e-07	1.938221e-09	5.765709e+00	1.252987e+02
2.410000e-06	7.102435e-07	1.852195e-09	5.042288e+00	1.198909e+02
2.420000e-06	6.081376e-07	1.764421e-09	4.317400e+00	1.143543e+02
2.430000e-06	5.058164e-07	1.677892e-09	3.590983e+00	1.086897e+02
2.440000e-06	4.032459e-07	1.594831e-09	2.862796e+00	1.029003e+02
2.450000e-06	3.005356e-07	1.514382e-09	2.133617e+00	9.699062e+01
2.460000e-06	1.977285e-07	1.425299e-09	1.403750e+00	9.096416e+01
2.470000e-06	9.478904e-08	1.328113e-09	6.729434e-01	8.482182e+01
2.480000e-06	-8.235928e-09	1.225735e-09	-5.846999e-02	7.856055e+01
2.490000e-06	-1.112178e-07	1.120949e-09	-7.895778e-01	7.217301e+01
2.500000e-06	-2.140964e-07	1.021140e-09	-1.519952e+00	6.564830e+01
2.510000e-06	-3.169045e-07	9.255997e-10	-2.249825e+00	5.897364e+01
2.520000e-06	-4.196303e-07	8.265555e-10	-2.979115e+00	5.213632e+01
2.530000e-06	-5.222085e-07	7.170904e-10	-3.707357e+00	4.512577e+01
2.540000e-06	-6.245954e-07	6.031192e-10	-4.434240e+00	3.793485e+01
2.550000e-06	-7.266893e-07	4.902506e-10	-5.159043e+00	3.056029e+01
2.560000e-06	-8.284448e-07	3.746692e-10	-5.881445e+00	2.300211e+01
2.570000e-06	-9.298229e-07	2.519788e-10	-6.601166e+00	1.526233e+01
2.580000e-06	-1.030757e-06	1.270971e-10	-7.317736e+00	7.343417e+00
2.590000e-06	-1.131290e-06	2.705849e-12	-8.031458e+00	-7.528397e-01
2.600000e-06	-1.231455e-06	-1.242151e-10	-8.742565e+00	-9.025602e+00
2.610000e-06	-1.331126e-06	-2.528632e-10	-9.450167e+00	-1.747406e+01
2.620000e-06	-1.430285e-06	-3.857648e-10	-1.015414e+01	-2.609539e+01
2.630000e-06	-1.528975e-06	-5.228147e-10	-1.085478e+01	-3.488208e+01
2.640000e-06	-1.627180e-06	-6.599287e-10	-1.155197e+01	-4.381914e+01
2.650000e-06	-1.724794e-06	-7.957002e-10	-1.224497e+01	-5.288211e+01
2.660000e-06	-1.821758e-06	-9.324921e-10	-1.293335e+01	-6.203649e+01
2.670000e-06	-1.918224e-06	-1.074105e-09	-1.361820e+01	-7.123875e+01
2.680000e-06	-2.014146e-06	-1.218249e-09	-1.429919e+01	-8.043912e+01
2.690000e-06	-2.109352e-06	-1.360485e-09	-1.497509e+01	-8.958546e+01
2.700000e-06	-2.203670e-06	-1.498219e-09	-1.564469e+01	-9.862765e+01
2.710000e-06	-2.297033e-06	-1.633255e-09	-1.630751e+01	-1.075214e+02
2.720000e-06	-2.389450e-06	-1.767387e-09	-1.696361e+01	-1.162309e+02
2.730000e-06	-2.480973e-06	-1.898493e-09	-1.761337e+01	-1.247299e+02
2.740000e-06	-2.571639e-06	-2.026392e-09	-1.825704e+01	-1.330010e+02
2.750000e-06	-2.661366e-06	-2.150354e-09	-1.889405e+01	-1.410332e+02
2.760000e-06	-2.750235e-06	-2.269340e-09	-1.952496e+01	-1.488200e+02
2.770000e-06	-2.838277e-06	-2.382707e-09	-2.015000e+01	-1.563560e+02
2.780000e-06	-2.925373e-06	-2.491163e-09	-2.076834e+01	-1.636359e+02
2.790000e-06	-3.011374e-06	-2.598462e-09	-2.137888e+01	-1.706537e+02
2.800000e-06	-3.096193e-06	-2.703815e-09	-2.198105e+01	-1.774034e+02
2.810000e-06	-3.179908e-06	-2.805129e-09	-2.257537e+01	-1.838811e+02
2.820000e-06	-3.262597e-06	-2.900872e-09	-2.316242e+01	-1.900865e+02
2.830000e-06	-3.344262e-06	-2.991874e-09	-2.374218e+01	-1.960248e+02
2.840000e-06	-3.424839e-06	-3.079019e-09	-2.431423e+01	-2.017071e+02
2.850000e-06	-3.504160e-06	-3.158774e-09	-2.487736e+01	-2.071495e+02
2.860000e-06	-3.582033e-06	-3.234796e-09	-2.543021e+01	-2.123714e+02
2.870000e-06	-3.658412e-06	-3.309326e-09	-2.597246e+01	-2.173928e+02
2.880000e-06	-3.733352e-06	-3.381749e-09	-2.650449e+01	-2.222312e+02
2.890000e-06	-3.806937e-06	-3.453444e-09	-2.702689e+01	-2.268997e+02
2.900000e-06	-3.879211e-06	-3.524019e-09	-2.753999e+01	-2.314061e+02
2.910000e-06	-3.950057e-06	-3.592556e-09	-2.804295e+01	-2.357528e+02
2.920000e-06	-4.019323e-06	-3.657256e-09	-2.853470e+01	-2.399382e+02
2.930000e-06	-4.087080e-06	-3.719072e-09	-2.901573e+01	-2.439595e+02
2.940000e-06	-4.153449e-06	-3.779084e-09	-2.948691e+01	-2.478139e+02
