# Temperatura_=_25.03
# Concentracion g/m^3_=_15000.0
# C_Vs_to_Am_M_A/Vsm_=_65563218390.804596
# pendiente_HvsI_1/m_=_3716.3
# ordenada_HvsI_A/m_=_1297.0
# frecuencia_Hz_=_301577.2377396253

Tiempo_(s)	Campo_(V.s)	Magnetizacion_(V.s)	Campo_(kA/m)	Magnetizacion_(A/m)
0.000000e+00	-5.388153e-06	-4.537201e-09	-3.834445e+01	-2.952674e+02
1.000000e-08	-5.385362e-06	-4.538678e-09	-3.832459e+01	-2.951669e+02
2.000000e-08	-5.380787e-06	-4.534449e-09	-3.829204e+01	-2.950150e+02
3.000000e-08	-5.374559e-06	-4.529349e-09	-3.824771e+01	-2.948075e+02
4.000000e-08	-5.366795e-06	-4.522991e-09	-3.819246e+01	-2.945394e+02
5.000000e-08	-5.357168e-06	-4.514671e-09	-3.812395e+01	-2.942072e+02
6.000000e-08	-5.345458e-06	-4.506077e-09	-3.804062e+01	-2.938107e+02
7.000000e-08	-5.331902e-06	-4.493347e-09	-3.794414e+01	-2.933542e+02
8.000000e-08	-5.316248e-06	-4.497231e-09	-3.783275e+01	-2.928454e+02
9.000000e-08	-5.298338e-06	-4.539419e-09	-3.770529e+01	-2.922937e+02
1.000000e-07	-5.278419e-06	-4.527692e-09	-3.756354e+01	-2.917074e+02
1.100000e-07	-5.256611e-06	-4.486691e-09	-3.740834e+01	-2.910901e+02
1.200000e-07	-5.233122e-06	-4.458476e-09	-3.724119e+01	-2.904392e+02
1.300000e-07	-5.208050e-06	-4.353521e-09	-3.706276e+01	-2.897453e+02
1.400000e-07	-5.181294e-06	-4.377512e-09	-3.687236e+01	-2.889934e+02
1.500000e-07	-5.152953e-06	-4.475413e-09	-3.667066e+01	-2.881664e+02
1.600000e-07	-5.123185e-06	-4.384173e-09	-3.645882e+01	-2.872492e+02
1.700000e-07	-5.091800e-06	-4.441815e-09	-3.623548e+01	-2.862326e+02
1.800000e-07	-5.058248e-06	-4.433829e-09	-3.599670e+01	-2.851165e+02
1.900000e-07	-5.022849e-06	-4.227654e-09	-3.574479e+01	-2.839105e+02
2.000000e-07	-4.986016e-06	-4.282467e-09	-3.548267e+01	-2.826318e+02
2.100000e-07	-4.947422e-06	-4.317007e-09	-3.520802e+01	-2.813021e+02
2.200000e-07	-4.906975e-06	-4.270718e-09	-3.492018e+01	-2.799419e+02
2.300000e-07	-4.864537e-06	-4.313760e-09	-3.461817e+01	-2.785661e+02
2.400000e-07	-4.820254e-06	-4.233199e-09	-3.430304e+01	-2.771798e+02
2.500000e-07	-4.774285e-06	-4.168331e-09	-3.397590e+01	-2.757777e+02
2.600000e-07	-4.726351e-06	-4.193549e-09	-3.363478e+01	-2.743449e+02
2.700000e-07	-4.676267e-06	-4.185017e-09	-3.327836e+01	-2.728611e+02
2.800000e-07	-4.624124e-06	-4.182900e-09	-3.290729e+01	-2.713056e+02
2.900000e-07	-4.570207e-06	-4.111858e-09	-3.252359e+01	-2.696623e+02
3.000000e-07	-4.514718e-06	-4.043832e-09	-3.212871e+01	-2.679240e+02
3.100000e-07	-4.457467e-06	-4.054432e-09	-3.172129e+01	-2.660935e+02
3.200000e-07	-4.398415e-06	-4.073744e-09	-3.130104e+01	-2.641826e+02
3.300000e-07	-4.337854e-06	-4.033325e-09	-3.087006e+01	-2.622085e+02
3.400000e-07	-4.275873e-06	-3.941249e-09	-3.042898e+01	-2.601884e+02
3.500000e-07	-4.212497e-06	-3.910580e-09	-2.997797e+01	-2.581350e+02
3.600000e-07	-4.147558e-06	-3.892454e-09	-2.951584e+01	-2.560525e+02
3.700000e-07	-4.080941e-06	-3.886933e-09	-2.904176e+01	-2.539353e+02
3.800000e-07	-4.012824e-06	-3.889417e-09	-2.855701e+01	-2.517697e+02
3.900000e-07	-3.943344e-06	-3.820429e-09	-2.806256e+01	-2.495369e+02
4.000000e-07	-3.872621e-06	-3.740569e-09	-2.755927e+01	-2.472186e+02
4.100000e-07	-3.800619e-06	-3.686253e-09	-2.704686e+01	-2.448016e+02
4.200000e-07	-3.727104e-06	-3.675071e-09	-2.652370e+01	-2.422811e+02
4.300000e-07	-3.651975e-06	-3.675588e-09	-2.598905e+01	-2.396622e+02
4.400000e-07	-3.575411e-06	-3.640652e-09	-2.544419e+01	-2.369578e+02
4.500000e-07	-3.497496e-06	-3.569064e-09	-2.488971e+01	-2.341856e+02
4.600000e-07	-3.418200e-06	-3.496873e-09	-2.432541e+01	-2.313624e+02
4.700000e-07	-3.337563e-06	-3.463136e-09	-2.375156e+01	-2.285002e+02
4.800000e-07	-3.255712e-06	-3.438853e-09	-2.316907e+01	-2.256026e+02
4.900000e-07	-3.172755e-06	-3.397992e-09	-2.257872e+01	-2.226637e+02
5.000000e-07	-3.088745e-06	-3.341524e-09	-2.198086e+01	-2.196702e+02
5.100000e-07	-3.003825e-06	-3.278603e-09	-2.137653e+01	-2.166047e+02
5.200000e-07	-2.917946e-06	-3.230762e-09	-2.076538e+01	-2.134502e+02
5.300000e-07	-2.831058e-06	-3.194835e-09	-2.014705e+01	-2.101946e+02
5.400000e-07	-2.743247e-06	-3.153681e-09	-1.952215e+01	-2.068335e+02
5.500000e-07	-2.654489e-06	-3.089921e-09	-1.889051e+01	-2.033707e+02
5.600000e-07	-2.564486e-06	-3.007492e-09	-1.825001e+01	-1.998164e+02
5.700000e-07	-2.473320e-06	-2.946739e-09	-1.760123e+01	-1.961841e+02
5.800000e-07	-2.381384e-06	-2.910177e-09	-1.694697e+01	-1.924856e+02
5.900000e-07	-2.288713e-06	-2.865892e-09	-1.628748e+01	-1.887283e+02
6.000000e-07	-2.195231e-06	-2.798437e-09	-1.562222e+01	-1.849119e+02
6.100000e-07	-2.100955e-06	-2.725593e-09	-1.495132e+01	-1.810293e+02
6.200000e-07	-2.005970e-06	-2.659622e-09	-1.427536e+01	-1.770680e+02
6.300000e-07	-1.910302e-06	-2.600904e-09	-1.359455e+01	-1.730139e+02
6.400000e-07	-1.813925e-06	-2.549653e-09	-1.290868e+01	-1.688552e+02
6.500000e-07	-1.716809e-06	-2.493411e-09	-1.221756e+01	-1.645859e+02
6.600000e-07	-1.618940e-06	-2.419075e-09	-1.152109e+01	-1.602071e+02
6.700000e-07	-1.520342e-06	-2.332207e-09	-1.081942e+01	-1.557271e+02
6.800000e-07	-1.421124e-06	-2.257580e-09	-1.011334e+01	-1.511580e+02
6.900000e-07	-1.321511e-06	-2.196646e-09	-9.404447e+00	-1.465128e+02
7.000000e-07	-1.221595e-06	-2.132803e-09	-8.693408e+00	-1.418008e+02
7.100000e-07	-1.121379e-06	-2.058369e-09	-7.980221e+00	-1.370247e+02
7.200000e-07	-1.020815e-06	-1.976667e-09	-7.264564e+00	-1.321792e+02
7.300000e-07	-9.198664e-07	-1.896774e-09	-6.546172e+00	-1.272512e+02
7.400000e-07	-8.186076e-07	-1.822334e-09	-5.825570e+00	-1.222233e+02
7.500000e-07	-7.170476e-07	-1.749501e-09	-5.102825e+00	-1.170770e+02
7.600000e-07	-6.151872e-07	-1.668671e-09	-4.377941e+00	-1.117969e+02
7.700000e-07	-5.131221e-07	-1.575621e-09	-3.651602e+00	-1.063741e+02
7.800000e-07	-4.109642e-07	-1.481000e-09	-2.924601e+00	-1.008075e+02
7.900000e-07	-3.087046e-07	-1.395450e-09	-2.196877e+00	-9.510347e+01
8.000000e-07	-2.062949e-07	-1.313737e-09	-1.468085e+00	-8.927317e+01
8.100000e-07	-1.038133e-07	-1.227481e-09	-7.387808e-01	-8.332950e+01
8.200000e-07	-1.300589e-09	-1.134466e-09	-9.255560e-03	-7.728306e+01
8.300000e-07	1.012490e-07	-1.036980e-09	7.205322e-01	-7.113922e+01
8.400000e-07	2.037807e-07	-9.402738e-10	1.450193e+00	-6.489641e+01
8.500000e-07	3.062531e-07	-8.452916e-10	2.179431e+00	-5.854620e+01
8.600000e-07	4.086341e-07	-7.498233e-10	2.908019e+00	-5.207482e+01
8.700000e-07	5.109015e-07	-6.482269e-10	3.635799e+00	-4.546572e+01
8.800000e-07	6.130426e-07	-5.424093e-10	4.362679e+00	-3.870239e+01
8.900000e-07	7.150194e-07	-4.366454e-10	5.088391e+00	-3.177077e+01
9.000000e-07	8.167484e-07	-3.308142e-10	5.812339e+00	-2.466074e+01
9.100000e-07	9.181636e-07	-2.248691e-10	6.534054e+00	-1.736653e+01
9.200000e-07	1.019209e-06	-1.159540e-10	7.253138e+00	-9.886376e+00
9.300000e-07	1.119847e-06	-7.842422e-13	7.969319e+00	-2.221593e+00
9.400000e-07	1.220155e-06	1.231018e-10	8.683156e+00	5.624148e+00
9.500000e-07	1.320135e-06	2.483294e-10	9.394657e+00	1.364511e+01
9.600000e-07	1.419717e-06	3.711788e-10	1.010332e+01	2.183310e+01
9.700000e-07	1.518808e-06	4.951819e-10	1.080850e+01	3.017644e+01
9.800000e-07	1.617214e-06	6.225467e-10	1.150880e+01	3.865882e+01
9.900000e-07	1.714876e-06	7.542992e-10	1.220381e+01	4.725823e+01
1.000000e-06	1.811787e-06	8.883894e-10	1.289347e+01	5.594671e+01
1.010000e-06	1.907937e-06	1.021480e-09	1.357771e+01	6.469089e+01
1.020000e-06	2.003297e-06	1.153536e-09	1.425634e+01	7.345348e+01
1.030000e-06	2.097941e-06	1.285592e-09	1.492987e+01	8.219545e+01
1.040000e-06	2.191926e-06	1.418218e-09	1.559870e+01	9.087833e+01
1.050000e-06	2.285116e-06	1.550843e-09	1.626189e+01	9.946621e+01
1.060000e-06	2.377554e-06	1.679428e-09	1.691971e+01	1.079271e+02
1.070000e-06	2.469296e-06	1.802095e-09	1.757259e+01	1.162332e+02
1.080000e-06	2.560257e-06	1.922001e-09	1.821991e+01	1.243610e+02
1.090000e-06	2.650209e-06	2.042428e-09	1.886005e+01	1.322899e+02
1.100000e-06	2.739027e-06	2.163353e-09	1.949212e+01	1.400017e+02
1.110000e-06	2.826768e-06	2.277851e-09	2.011652e+01	1.474803e+02
1.120000e-06	2.913511e-06	2.384244e-09	2.073382e+01	1.547115e+02
1.130000e-06	2.999314e-06	2.487321e-09	2.134443e+01	1.616843e+02
1.140000e-06	3.084141e-06	2.591534e-09	2.194810e+01	1.683914e+02
1.150000e-06	3.168091e-06	2.694086e-09	2.254552e+01	1.748311e+02
1.160000e-06	3.251106e-06	2.791801e-09	2.313629e+01	1.810071e+02
1.170000e-06	3.332901e-06	2.884371e-09	2.371838e+01	1.869291e+02
1.180000e-06	3.413405e-06	2.969403e-09	2.429128e+01	1.926110e+02
1.190000e-06	3.492626e-06	3.051198e-09	2.485505e+01	1.980693e+02
1.200000e-06	3.570624e-06	3.132601e-09	2.541012e+01	2.033210e+02
1.210000e-06	3.647431e-06	3.212592e-09	2.595672e+01	2.083809e+02
1.220000e-06	3.722926e-06	3.288434e-09	2.649397e+01	2.132608e+02
1.230000e-06	3.796843e-06	3.359463e-09	2.701999e+01	2.179683e+02
1.240000e-06	3.869115e-06	3.426692e-09	2.753431e+01	2.225076e+02
1.250000e-06	3.939955e-06	3.492174e-09	2.803844e+01	2.268804e+02
1.260000e-06	4.009421e-06	3.555761e-09	2.853280e+01	2.310879e+02
1.270000e-06	4.077600e-06	3.618829e-09	2.901799e+01	2.351314e+02
1.280000e-06	4.144390e-06	3.679021e-09	2.949330e+01	2.390136e+02
1.290000e-06	4.209495e-06	3.733167e-09	2.995661e+01	2.427383e+02
1.300000e-06	4.272978e-06	3.782720e-09	3.040838e+01	2.463098e+02
1.310000e-06	4.335025e-06	3.831038e-09	3.084993e+01	2.497314e+02
1.320000e-06	4.395689e-06	3.880251e-09	3.128165e+01	2.530046e+02
1.330000e-06	4.454986e-06	3.926215e-09	3.170363e+01	2.561287e+02
1.340000e-06	4.512603e-06	3.967701e-09	3.211366e+01	2.591008e+02
1.350000e-06	4.568388e-06	4.007595e-09	3.251065e+01	2.619169e+02
1.360000e-06	4.622564e-06	4.047483e-09	3.289619e+01	2.645742e+02
1.370000e-06	4.675074e-06	4.084514e-09	3.326987e+01	2.670724e+02
1.380000e-06	4.725574e-06	4.117810e-09	3.362925e+01	2.694155e+02
1.390000e-06	4.773996e-06	4.149123e-09	3.397384e+01	2.716120e+02
1.400000e-06	4.820635e-06	4.177308e-09	3.430575e+01	2.736742e+02
1.410000e-06	4.865720e-06	4.202685e-09	3.462659e+01	2.756165e+02
1.420000e-06	4.909301e-06	4.228611e-09	3.493673e+01	2.774532e+02
1.430000e-06	4.951045e-06	4.255333e-09	3.523380e+01	2.791958e+02
1.440000e-06	4.990891e-06	4.279884e-09	3.551736e+01	2.808510e+02
1.450000e-06	5.029067e-06	4.300606e-09	3.578904e+01	2.824208e+02
1.460000e-06	5.065649e-06	4.320111e-09	3.604937e+01	2.839026e+02
1.470000e-06	5.100485e-06	4.341800e-09	3.629728e+01	2.852911e+02
1.480000e-06	5.133404e-06	4.363239e-09	3.653155e+01	2.865810e+02
1.490000e-06	5.164491e-06	4.381291e-09	3.675277e+01	2.877690e+02
1.500000e-06	5.193834e-06	4.395154e-09	3.696160e+01	2.888559e+02
1.510000e-06	5.221523e-06	4.407360e-09	3.715864e+01	2.898464e+02
1.520000e-06	5.247267e-06	4.418905e-09	3.734185e+01	2.907491e+02
1.530000e-06	5.270892e-06	4.430306e-09	3.750997e+01	2.915736e+02
1.540000e-06	5.292606e-06	4.442776e-09	3.766450e+01	2.923290e+02
1.550000e-06	5.312632e-06	4.454431e-09	3.780702e+01	2.930214e+02
1.560000e-06	5.330866e-06	4.464647e-09	3.793677e+01	2.936527e+02
1.570000e-06	5.347040e-06	4.474793e-09	3.805188e+01	2.942205e+02
1.580000e-06	5.361206e-06	4.484739e-09	3.815269e+01	2.947196e+02
1.590000e-06	5.373440e-06	4.492048e-09	3.823975e+01	2.951438e+02
1.600000e-06	5.383542e-06	4.496219e-09	3.831164e+01	2.954885e+02
1.610000e-06	5.391479e-06	4.498329e-09	3.836812e+01	2.957521e+02
1.620000e-06	5.397499e-06	4.500973e-09	3.841096e+01	2.959371e+02
1.630000e-06	5.401772e-06	4.505341e-09	3.844137e+01	2.960495e+02
1.640000e-06	5.404090e-06	4.509305e-09	3.845787e+01	2.960972e+02
1.650000e-06	5.404390e-06	4.513304e-09	3.846000e+01	2.960878e+02
1.660000e-06	5.402933e-06	4.511808e-09	3.844963e+01	2.960265e+02
1.670000e-06	5.399793e-06	4.506688e-09	3.842729e+01	2.959151e+02
1.680000e-06	5.394993e-06	4.505891e-09	3.839313e+01	2.957515e+02
1.690000e-06	5.388309e-06	4.504939e-09	3.834556e+01	2.955313e+02
1.700000e-06	5.379775e-06	4.502414e-09	3.828483e+01	2.952495e+02
1.710000e-06	5.369668e-06	4.499711e-09	3.821291e+01	2.949032e+02
1.720000e-06	5.357885e-06	4.500752e-09	3.812906e+01	2.944933e+02
1.730000e-06	5.344168e-06	4.502726e-09	3.803144e+01	2.940246e+02
1.740000e-06	5.328342e-06	4.429864e-09	3.791881e+01	2.935057e+02
1.750000e-06	5.310115e-06	4.413380e-09	3.778910e+01	2.929458e+02
1.760000e-06	5.289161e-06	4.437723e-09	3.763998e+01	2.923525e+02
1.770000e-06	5.265893e-06	4.442429e-09	3.747440e+01	2.917283e+02
1.780000e-06	5.241393e-06	4.543607e-09	3.730005e+01	2.910691e+02
1.790000e-06	5.216206e-06	4.456947e-09	3.712080e+01	2.903640e+02
1.800000e-06	5.189557e-06	4.364037e-09	3.693116e+01	2.895973e+02
1.810000e-06	5.160774e-06	4.463832e-09	3.672633e+01	2.887520e+02
1.820000e-06	5.130302e-06	4.321218e-09	3.650947e+01	2.878138e+02
1.830000e-06	5.098072e-06	4.307625e-09	3.628011e+01	2.867754e+02
1.840000e-06	5.063815e-06	4.458484e-09	3.603632e+01	2.856388e+02
1.850000e-06	5.027969e-06	4.305309e-09	3.578123e+01	2.844153e+02
1.860000e-06	4.990332e-06	4.303826e-09	3.551338e+01	2.831237e+02
1.870000e-06	4.950790e-06	4.292247e-09	3.523199e+01	2.817857e+02
1.880000e-06	4.909626e-06	4.126842e-09	3.493905e+01	2.804210e+02
1.890000e-06	4.866608e-06	4.243638e-09	3.463291e+01	2.790427e+02
1.900000e-06	4.821947e-06	4.227631e-09	3.431508e+01	2.776537e+02
1.910000e-06	4.775492e-06	4.184103e-09	3.398449e+01	2.762464e+02
1.920000e-06	4.726958e-06	4.206828e-09	3.363910e+01	2.748043e+02
1.930000e-06	4.676865e-06	4.038845e-09	3.328262e+01	2.733067e+02
1.940000e-06	4.625055e-06	4.111915e-09	3.291392e+01	2.717332e+02
1.950000e-06	4.571141e-06	4.143699e-09	3.253024e+01	2.700697e+02
1.960000e-06	4.515223e-06	4.054292e-09	3.213230e+01	2.683109e+02
1.970000e-06	4.457592e-06	4.025646e-09	3.172217e+01	2.664618e+02
1.980000e-06	4.398609e-06	3.948220e-09	3.130243e+01	2.645357e+02
1.990000e-06	4.338213e-06	3.997352e-09	3.087262e+01	2.625502e+02
2.000000e-06	4.276064e-06	3.954663e-09	3.043034e+01	2.605220e+02
2.010000e-06	4.212198e-06	3.918784e-09	2.997584e+01	2.584621e+02
2.020000e-06	4.146836e-06	3.910930e-09	2.951070e+01	2.563728e+02
2.030000e-06	4.080047e-06	3.788327e-09	2.903540e+01	2.542465e+02
2.040000e-06	4.011869e-06	3.787504e-09	2.855021e+01	2.520680e+02
2.050000e-06	3.942262e-06	3.779186e-09	2.805486e+01	2.498181e+02
2.060000e-06	3.871074e-06	3.800019e-09	2.754825e+01	2.474794e+02
2.070000e-06	3.798464e-06	3.765426e-09	2.703153e+01	2.450401e+02
2.080000e-06	3.724637e-06	3.633627e-09	2.650615e+01	2.424977e+02
2.090000e-06	3.649431e-06	3.593946e-09	2.597095e+01	2.398589e+02
2.100000e-06	3.572796e-06	3.567217e-09	2.542558e+01	2.371384e+02
2.110000e-06	3.494577e-06	3.574240e-09	2.486894e+01	2.343537e+02
2.120000e-06	3.414905e-06	3.531673e-09	2.430196e+01	2.315213e+02
2.130000e-06	3.334096e-06	3.474644e-09	2.372689e+01	2.286514e+02
2.140000e-06	3.252168e-06	3.417513e-09	2.314385e+01	2.257455e+02
2.150000e-06	3.169168e-06	3.344058e-09	2.255318e+01	2.227961e+02
2.160000e-06	3.085139e-06	3.329372e-09	2.195520e+01	2.197885e+02
2.170000e-06	3.000098e-06	3.305203e-09	2.135001e+01	2.167051e+02
2.180000e-06	2.913793e-06	3.260135e-09	2.073583e+01	2.135296e+02
2.190000e-06	2.826174e-06	3.170287e-09	2.011229e+01	2.102513e+02
2.200000e-06	2.737596e-06	3.112568e-09	1.948193e+01	2.068677e+02
2.210000e-06	2.648114e-06	3.101305e-09	1.884513e+01	2.033841e+02
2.220000e-06	2.557692e-06	3.060899e-09	1.820165e+01	1.998118e+02
2.230000e-06	2.466422e-06	2.992971e-09	1.755214e+01	1.961642e+02
2.240000e-06	2.374373e-06	2.915927e-09	1.689708e+01	1.924526e+02
2.250000e-06	2.281597e-06	2.859882e-09	1.623684e+01	1.886827e+02
2.260000e-06	2.188005e-06	2.806195e-09	1.557080e+01	1.848528e+02
2.270000e-06	2.093386e-06	2.765264e-09	1.489745e+01	1.809544e+02
2.280000e-06	1.997716e-06	2.720479e-09	1.421662e+01	1.769742e+02
2.290000e-06	1.901294e-06	2.643413e-09	1.353044e+01	1.728983e+02
2.300000e-06	1.804321e-06	2.548259e-09	1.284034e+01	1.687160e+02
2.310000e-06	1.706838e-06	2.479099e-09	1.214660e+01	1.644227e+02
2.320000e-06	1.608858e-06	2.443884e-09	1.144934e+01	1.600213e+02
2.330000e-06	1.510370e-06	2.393128e-09	1.074846e+01	1.555208e+02
2.340000e-06	1.411401e-06	2.315977e-09	1.004415e+01	1.509342e+02
2.350000e-06	1.311938e-06	2.227887e-09	9.336326e+00	1.462740e+02
2.360000e-06	1.212065e-06	2.152842e-09	8.625588e+00	1.415482e+02
2.370000e-06	1.111957e-06	2.089524e-09	7.913176e+00	1.367578e+02
2.380000e-06	1.011611e-06	2.025176e-09	7.199069e+00	1.318957e+02
2.390000e-06	9.109230e-07	1.951727e-09	6.482527e+00	1.269477e+02
2.400000e-06	8.098389e-07	1.864442e-09	5.763168e+00	1.218958e+02
2.410000e-06	7.083645e-07	1.775484e-09	5.041032e+00	1.167218e+02
2.420000e-06	6.066862e-07	1.699147e-09	4.317444e+00	1.114115e+02
2.430000e-06	5.048493e-07	1.633322e-09	3.592728e+00	1.059575e+02
2.440000e-06	4.026974e-07	1.559375e-09	2.865771e+00	1.003606e+02
2.450000e-06	3.002769e-07	1.467280e-09	2.136902e+00	9.462822e+01
2.460000e-06	1.977086e-07	1.364796e-09	1.406981e+00	8.877242e+01
2.470000e-06	9.505833e-08	1.270939e-09	6.764767e-01	8.280581e+01
2.480000e-06	-7.686933e-09	1.186722e-09	-5.470358e-02	7.673811e+01
2.490000e-06	-1.104462e-07	1.097528e-09	-7.859836e-01	7.057328e+01
2.500000e-06	-2.131262e-07	9.986110e-10	-1.516699e+00	6.430823e+01
2.510000e-06	-3.157081e-07	8.957727e-10	-2.246717e+00	5.793319e+01
2.520000e-06	-4.181035e-07	7.953834e-10	-2.975407e+00	5.143357e+01
2.530000e-06	-5.203399e-07	6.970711e-10	-3.702967e+00	4.479260e+01
2.540000e-06	-6.224414e-07	5.996755e-10	-4.429565e+00	3.799412e+01
2.550000e-06	-7.243432e-07	4.964746e-10	-5.154743e+00	3.102481e+01
2.560000e-06	-8.259089e-07	3.800194e-10	-5.877529e+00	2.387549e+01
2.570000e-06	-9.270050e-07	2.561104e-10	-6.596973e+00	1.654131e+01
2.580000e-06	-1.027685e-06	1.388441e-10	-7.313457e+00	9.021230e+00
2.590000e-06	-1.127972e-06	2.937839e-11	-8.027141e+00	1.317133e+00
2.600000e-06	-1.227860e-06	-8.593085e-11	-8.737986e+00	-6.566872e+00
2.610000e-06	-1.327385e-06	-2.121707e-10	-9.446253e+00	-1.462458e+01
2.620000e-06	-1.426469e-06	-3.443898e-10	-1.015138e+01	-2.284713e+01
2.630000e-06	-1.525064e-06	-4.747981e-10	-1.085303e+01	-3.122198e+01
2.640000e-06	-1.623115e-06	-6.014637e-10	-1.155079e+01	-3.973165e+01
2.650000e-06	-1.720539e-06	-7.284305e-10	-1.224411e+01	-4.835287e+01
2.660000e-06	-1.817378e-06	-8.610517e-10	-1.293326e+01	-5.705641e+01
2.670000e-06	-1.913730e-06	-1.000667e-09	-1.361894e+01	-6.580793e+01
2.680000e-06	-2.009548e-06	-1.138971e-09	-1.430082e+01	-7.456956e+01
2.690000e-06	-2.104584e-06	-1.269149e-09	-1.497714e+01	-8.330221e+01
2.700000e-06	-2.198641e-06	-1.395519e-09	-1.564649e+01	-9.196779e+01
2.710000e-06	-2.291703e-06	-1.525885e-09	-1.630876e+01	-1.005312e+02
2.720000e-06	-2.383876e-06	-1.659455e-09	-1.696471e+01	-1.089612e+02
2.730000e-06	-2.475195e-06	-1.790995e-09	-1.761457e+01	-1.172312e+02
2.740000e-06	-2.565620e-06	-1.916731e-09	-1.825808e+01	-1.253181e+02
2.750000e-06	-2.655209e-06	-2.036217e-09	-1.889563e+01	-1.332021e+02
2.760000e-06	-2.743930e-06	-2.152053e-09	-1.952701e+01	-1.408654e+02
2.770000e-06	-2.831814e-06	-2.265816e-09	-2.015242e+01	-1.482922e+02
2.780000e-06	-2.918823e-06	-2.377150e-09	-2.077162e+01	-1.554691e+02
2.790000e-06	-3.004654e-06	-2.481376e-09	-2.138244e+01	-1.623855e+02
2.800000e-06	-3.089245e-06	-2.579646e-09	-2.198442e+01	-1.690355e+02
2.810000e-06	-3.172794e-06	-2.676778e-09	-2.257899e+01	-1.754183e+02
2.820000e-06	-3.255351e-06	-2.770849e-09	-2.316650e+01	-1.815390e+02
2.830000e-06	-3.336809e-06	-2.861556e-09	-2.374619e+01	-1.874084e+02
2.840000e-06	-3.417151e-06	-2.947467e-09	-2.431794e+01	-1.930411e+02
2.850000e-06	-3.496302e-06	-3.027549e-09	-2.488122e+01	-1.984539e+02
2.860000e-06	-3.573958e-06	-3.103931e-09	-2.543385e+01	-2.036635e+02
2.870000e-06	-3.650109e-06	-3.178224e-09	-2.597577e+01	-2.086842e+02
2.880000e-06	-3.724888e-06	-3.252535e-09	-2.650793e+01	-2.135268e+02
2.890000e-06	-3.798289e-06	-3.326315e-09	-2.703029e+01	-2.181981e+02
2.900000e-06	-3.870440e-06	-3.397709e-09	-2.754374e+01	-2.227018e+02
2.910000e-06	-3.941173e-06	-3.464508e-09	-2.804711e+01	-2.270393e+02
2.920000e-06	-4.010270e-06	-3.528062e-09	-2.853884e+01	-2.312116e+02
2.930000e-06	-4.077901e-06	-3.591153e-09	-2.902012e+01	-2.352204e+02
2.940000e-06	-4.144144e-06	-3.651202e-09	-2.949154e+01	-2.390687e+02
