# Temperatura_=_59.43
# Concentracion g/m^3_=_15000.0
# C_Vs_to_Am_M_A/Vsm_=_65563218390.804596
# pendiente_HvsI_1/m_=_3716.3
# ordenada_HvsI_A/m_=_1297.0
# frecuencia_Hz_=_301576.6329119648

Tiempo_(s)	Campo_(V.s)	Magnetizacion_(V.s)	Campo_(kA/m)	Magnetizacion_(A/m)
0.000000e+00	-5.377479e-06	-5.528682e-09	-3.834092e+01	-3.602909e+02
1.000000e-08	-5.374733e-06	-5.528911e-09	-3.832134e+01	-3.600881e+02
2.000000e-08	-5.370259e-06	-5.522437e-09	-3.828943e+01	-3.598222e+02
3.000000e-08	-5.364179e-06	-5.515438e-09	-3.824609e+01	-3.594929e+02
4.000000e-08	-5.356533e-06	-5.507253e-09	-3.819157e+01	-3.590965e+02
5.000000e-08	-5.347094e-06	-5.496047e-09	-3.812427e+01	-3.586264e+02
6.000000e-08	-5.335558e-06	-5.485005e-09	-3.804202e+01	-3.580759e+02
7.000000e-08	-5.322111e-06	-5.467594e-09	-3.794615e+01	-3.574399e+02
8.000000e-08	-5.306613e-06	-5.460788e-09	-3.783565e+01	-3.567166e+02
9.000000e-08	-5.288853e-06	-5.514847e-09	-3.770901e+01	-3.559079e+02
1.000000e-07	-5.269037e-06	-5.507617e-09	-3.756773e+01	-3.550195e+02
1.100000e-07	-5.247389e-06	-5.449510e-09	-3.741338e+01	-3.540591e+02
1.200000e-07	-5.224025e-06	-5.430180e-09	-3.724680e+01	-3.530353e+02
1.300000e-07	-5.199051e-06	-5.304353e-09	-3.706874e+01	-3.519556e+02
1.400000e-07	-5.172460e-06	-5.301254e-09	-3.687915e+01	-3.508249e+02
1.500000e-07	-5.144280e-06	-5.459541e-09	-3.667823e+01	-3.496451e+02
1.600000e-07	-5.114675e-06	-5.313280e-09	-3.646714e+01	-3.484152e+02
1.700000e-07	-5.083460e-06	-5.331739e-09	-3.624458e+01	-3.471313e+02
1.800000e-07	-5.050120e-06	-5.398760e-09	-3.600687e+01	-3.457881e+02
1.900000e-07	-5.014938e-06	-5.156994e-09	-3.575603e+01	-3.443797e+02
2.000000e-07	-4.978335e-06	-5.212673e-09	-3.549505e+01	-3.429001e+02
2.100000e-07	-4.940006e-06	-5.269455e-09	-3.522177e+01	-3.413439e+02
2.200000e-07	-4.899867e-06	-5.144211e-09	-3.493558e+01	-3.397060e+02
2.300000e-07	-4.857799e-06	-5.182378e-09	-3.463564e+01	-3.379823e+02
2.400000e-07	-4.813751e-06	-5.157194e-09	-3.432158e+01	-3.361689e+02
2.500000e-07	-4.767920e-06	-5.093095e-09	-3.399481e+01	-3.342626e+02
2.600000e-07	-4.720214e-06	-5.088531e-09	-3.365467e+01	-3.322615e+02
2.700000e-07	-4.670424e-06	-5.016648e-09	-3.329968e+01	-3.301649e+02
2.800000e-07	-4.618538e-06	-5.020528e-09	-3.292974e+01	-3.279745e+02
2.900000e-07	-4.564771e-06	-4.979227e-09	-3.254638e+01	-3.256937e+02
3.000000e-07	-4.509416e-06	-4.911757e-09	-3.215171e+01	-3.233282e+02
3.100000e-07	-4.452427e-06	-4.911508e-09	-3.174538e+01	-3.208842e+02
3.200000e-07	-4.393632e-06	-4.888959e-09	-3.132618e+01	-3.183682e+02
3.300000e-07	-4.333245e-06	-4.819268e-09	-3.089562e+01	-3.157852e+02
3.400000e-07	-4.271455e-06	-4.724733e-09	-3.045507e+01	-3.131376e+02
3.500000e-07	-4.208272e-06	-4.716696e-09	-3.000458e+01	-3.104249e+02
3.600000e-07	-4.143601e-06	-4.702121e-09	-2.954348e+01	-3.076436e+02
3.700000e-07	-4.077231e-06	-4.652755e-09	-2.907027e+01	-3.047885e+02
3.800000e-07	-4.009282e-06	-4.625398e-09	-2.858580e+01	-3.018537e+02
3.900000e-07	-3.939969e-06	-4.557452e-09	-2.809160e+01	-2.988344e+02
4.000000e-07	-3.869377e-06	-4.484267e-09	-2.758829e+01	-2.957284e+02
4.100000e-07	-3.797568e-06	-4.425007e-09	-2.707630e+01	-2.925363e+02
4.200000e-07	-3.724381e-06	-4.397322e-09	-2.655448e+01	-2.892619e+02
4.300000e-07	-3.649597e-06	-4.375415e-09	-2.602128e+01	-2.859109e+02
4.400000e-07	-3.573300e-06	-4.315414e-09	-2.547729e+01	-2.824894e+02
4.500000e-07	-3.495598e-06	-4.250174e-09	-2.492328e+01	-2.790019e+02
4.600000e-07	-3.416446e-06	-4.186089e-09	-2.435894e+01	-2.754504e+02
4.700000e-07	-3.336047e-06	-4.131912e-09	-2.378570e+01	-2.718331e+02
4.800000e-07	-3.254493e-06	-4.079007e-09	-2.320423e+01	-2.681452e+02
4.900000e-07	-3.171710e-06	-4.019233e-09	-2.261399e+01	-2.643793e+02
5.000000e-07	-3.087900e-06	-3.965990e-09	-2.201643e+01	-2.605276e+02
5.100000e-07	-3.003218e-06	-3.903584e-09	-2.141266e+01	-2.565830e+02
5.200000e-07	-2.917586e-06	-3.837785e-09	-2.080211e+01	-2.525411e+02
5.300000e-07	-2.830957e-06	-3.771091e-09	-2.018446e+01	-2.483999e+02
5.400000e-07	-2.743378e-06	-3.702741e-09	-1.956002e+01	-2.441601e+02
5.500000e-07	-2.654887e-06	-3.633050e-09	-1.892909e+01	-2.398236e+02
5.600000e-07	-2.565289e-06	-3.559473e-09	-1.829027e+01	-2.353919e+02
5.700000e-07	-2.474479e-06	-3.498923e-09	-1.764280e+01	-2.308651e+02
5.800000e-07	-2.382718e-06	-3.441398e-09	-1.698855e+01	-2.262405e+02
5.900000e-07	-2.290235e-06	-3.370728e-09	-1.632915e+01	-2.215131e+02
6.000000e-07	-2.196983e-06	-3.282673e-09	-1.566428e+01	-2.166765e+02
6.100000e-07	-2.102919e-06	-3.198246e-09	-1.499361e+01	-2.117241e+02
6.200000e-07	-2.008106e-06	-3.121853e-09	-1.431760e+01	-2.066518e+02
6.300000e-07	-1.912545e-06	-3.045699e-09	-1.363627e+01	-2.014589e+02
6.400000e-07	-1.816299e-06	-2.974355e-09	-1.295004e+01	-1.961493e+02
6.500000e-07	-1.719457e-06	-2.898844e-09	-1.225956e+01	-1.907303e+02
6.600000e-07	-1.621921e-06	-2.811785e-09	-1.156414e+01	-1.852119e+02
6.700000e-07	-1.523595e-06	-2.713871e-09	-1.086309e+01	-1.796039e+02
6.800000e-07	-1.424609e-06	-2.623083e-09	-1.015732e+01	-1.739134e+02
6.900000e-07	-1.325141e-06	-2.541316e-09	-9.448129e+00	-1.681430e+02
7.000000e-07	-1.225356e-06	-2.455954e-09	-8.736670e+00	-1.622893e+02
7.100000e-07	-1.125279e-06	-2.362914e-09	-8.023134e+00	-1.563437e+02
7.200000e-07	-1.024887e-06	-2.266836e-09	-7.307346e+00	-1.502939e+02
7.300000e-07	-9.242345e-07	-2.170122e-09	-6.589704e+00	-1.441259e+02
7.400000e-07	-8.232524e-07	-2.073105e-09	-5.869711e+00	-1.378276e+02
7.500000e-07	-7.218922e-07	-1.978057e-09	-5.147022e+00	-1.313903e+02
7.600000e-07	-6.202856e-07	-1.880220e-09	-4.422577e+00	-1.248105e+02
7.700000e-07	-5.185039e-07	-1.776250e-09	-3.696883e+00	-1.180896e+02
7.800000e-07	-4.165640e-07	-1.668603e-09	-2.970061e+00	-1.112323e+02
7.900000e-07	-3.144784e-07	-1.562450e-09	-2.242201e+00	-1.042445e+02
8.000000e-07	-2.123196e-07	-1.455096e-09	-1.513819e+00	-9.713016e+01
8.100000e-07	-1.101112e-07	-1.344977e-09	-7.850826e-01	-8.988908e+01
8.200000e-07	-7.806714e-09	-1.233614e-09	-5.566112e-02	-8.251563e+01
8.300000e-07	9.452391e-08	-1.120919e-09	6.739464e-01	-7.499855e+01
8.400000e-07	1.968437e-07	-1.008365e-09	1.403477e+00	-6.732226e+01
8.500000e-07	2.991489e-07	-8.937995e-10	2.132903e+00	-5.946910e+01
8.600000e-07	4.013644e-07	-7.730786e-10	2.861690e+00	-5.142195e+01
8.700000e-07	5.034505e-07	-6.424073e-10	3.589554e+00	-4.316667e+01
8.800000e-07	6.054150e-07	-5.088560e-10	4.316551e+00	-3.469376e+01
8.900000e-07	7.071956e-07	-3.755985e-10	5.042237e+00	-2.599903e+01
9.000000e-07	8.087161e-07	-2.412411e-10	5.766069e+00	-1.708327e+01
9.100000e-07	9.099849e-07	-1.058015e-10	6.488105e+00	-7.951207e+00
9.200000e-07	1.010884e-06	3.420952e-11	7.207508e+00	1.389741e+00
9.300000e-07	1.111349e-06	1.816908e-10	7.923812e+00	1.093042e+01
9.400000e-07	1.211513e-06	3.353141e-10	8.637969e+00	2.066026e+01
9.500000e-07	1.311384e-06	4.879456e-10	9.350046e+00	3.056684e+01
9.600000e-07	1.410876e-06	6.401398e-10	1.005941e+01	4.063475e+01
9.700000e-07	1.509860e-06	7.950881e-10	1.076516e+01	5.084425e+01
9.800000e-07	1.608095e-06	9.543551e-10	1.146556e+01	6.117008e+01
9.900000e-07	1.705532e-06	1.114816e-09	1.216028e+01	7.158092e+01
1.000000e-06	1.802281e-06	1.276627e-09	1.285009e+01	8.203973e+01
1.010000e-06	1.898305e-06	1.440329e-09	1.353474e+01	9.250511e+01
1.020000e-06	1.993542e-06	1.603003e-09	1.421376e+01	1.029333e+02
1.030000e-06	2.088031e-06	1.763718e-09	1.488746e+01	1.132805e+02
1.040000e-06	2.181815e-06	1.920332e-09	1.555613e+01	1.235051e+02
1.050000e-06	2.274861e-06	2.073388e-09	1.621954e+01	1.335696e+02
1.060000e-06	2.367222e-06	2.221444e-09	1.687807e+01	1.434409e+02
1.070000e-06	2.458903e-06	2.364472e-09	1.753174e+01	1.530909e+02
1.080000e-06	2.549795e-06	2.508133e-09	1.817979e+01	1.624959e+02
1.090000e-06	2.639639e-06	2.652806e-09	1.882038e+01	1.716359e+02
1.100000e-06	2.728326e-06	2.793271e-09	1.945270e+01	1.804938e+02
1.110000e-06	2.816019e-06	2.923463e-09	2.007795e+01	1.890556e+02
1.120000e-06	2.902791e-06	3.045907e-09	2.069662e+01	1.973105e+02
1.130000e-06	2.988600e-06	3.165563e-09	2.130843e+01	2.052516e+02
1.140000e-06	3.073439e-06	3.282739e-09	2.191333e+01	2.128767e+02
1.150000e-06	3.157360e-06	3.393368e-09	2.251167e+01	2.201886e+02
1.160000e-06	3.240260e-06	3.496197e-09	2.310275e+01	2.271953e+02
1.170000e-06	3.321942e-06	3.594079e-09	2.368513e+01	2.339090e+02
1.180000e-06	3.402354e-06	3.688998e-09	2.425846e+01	2.403450e+02
1.190000e-06	3.481543e-06	3.783466e-09	2.482307e+01	2.465198e+02
1.200000e-06	3.559485e-06	3.877531e-09	2.537879e+01	2.524495e+02
1.210000e-06	3.636180e-06	3.968547e-09	2.592562e+01	2.581486e+02
1.220000e-06	3.711601e-06	4.054746e-09	2.646336e+01	2.636296e+02
1.230000e-06	3.785466e-06	4.136159e-09	2.699001e+01	2.689028e+02
1.240000e-06	3.857684e-06	4.211483e-09	2.750492e+01	2.739776e+02
1.250000e-06	3.928505e-06	4.282751e-09	2.800987e+01	2.788630e+02
1.260000e-06	3.997990e-06	4.352023e-09	2.850529e+01	2.835686e+02
1.270000e-06	4.066108e-06	4.420440e-09	2.899096e+01	2.881050e+02
1.280000e-06	4.132881e-06	4.486976e-09	2.946705e+01	2.924830e+02
1.290000e-06	4.198023e-06	4.552855e-09	2.993150e+01	2.967125e+02
1.300000e-06	4.261463e-06	4.617059e-09	3.038383e+01	3.008012e+02
1.310000e-06	4.323429e-06	4.678132e-09	3.082564e+01	3.047533e+02
1.320000e-06	4.383971e-06	4.735559e-09	3.125729e+01	3.085680e+02
1.330000e-06	4.443194e-06	4.788794e-09	3.167955e+01	3.122407e+02
1.340000e-06	4.500807e-06	4.839677e-09	3.209032e+01	3.157631e+02
1.350000e-06	4.556597e-06	4.888301e-09	3.248810e+01	3.191264e+02
1.360000e-06	4.610757e-06	4.934442e-09	3.287426e+01	3.223229e+02
1.370000e-06	4.663226e-06	4.976787e-09	3.324836e+01	3.253489e+02
1.380000e-06	4.713753e-06	5.016619e-09	3.360861e+01	3.282058e+02
1.390000e-06	4.762203e-06	5.055354e-09	3.395405e+01	3.309008e+02
1.400000e-06	4.808846e-06	5.092828e-09	3.428661e+01	3.334457e+02
1.410000e-06	4.853920e-06	5.129123e-09	3.460799e+01	3.358547e+02
1.420000e-06	4.897495e-06	5.163461e-09	3.491868e+01	3.381416e+02
1.430000e-06	4.939258e-06	5.193709e-09	3.521644e+01	3.403176e+02
1.440000e-06	4.979111e-06	5.220498e-09	3.550058e+01	3.423888e+02
1.450000e-06	5.017329e-06	5.245755e-09	3.577308e+01	3.443562e+02
1.460000e-06	5.053932e-06	5.271256e-09	3.603405e+01	3.462159e+02
1.470000e-06	5.088843e-06	5.297332e-09	3.628296e+01	3.479616e+02
1.480000e-06	5.121767e-06	5.321591e-09	3.651771e+01	3.495869e+02
1.490000e-06	5.152787e-06	5.343124e-09	3.673888e+01	3.510876e+02
1.500000e-06	5.182179e-06	5.362602e-09	3.694845e+01	3.524640e+02
1.510000e-06	5.209949e-06	5.381299e-09	3.714644e+01	3.537207e+02
1.520000e-06	5.235747e-06	5.398654e-09	3.733038e+01	3.548664e+02
1.530000e-06	5.259383e-06	5.415567e-09	3.749890e+01	3.559120e+02
1.540000e-06	5.281158e-06	5.430912e-09	3.765415e+01	3.568674e+02
1.550000e-06	5.301250e-06	5.442827e-09	3.779741e+01	3.577399e+02
1.560000e-06	5.319510e-06	5.453043e-09	3.792760e+01	3.585323e+02
1.570000e-06	5.335754e-06	5.463630e-09	3.804342e+01	3.592426e+02
1.580000e-06	5.350034e-06	5.474242e-09	3.814523e+01	3.598647e+02
1.590000e-06	5.362402e-06	5.483530e-09	3.823341e+01	3.603906e+02
1.600000e-06	5.372629e-06	5.491480e-09	3.830633e+01	3.608129e+02
1.610000e-06	5.380654e-06	5.497868e-09	3.836355e+01	3.611272e+02
1.620000e-06	5.386783e-06	5.503661e-09	3.840725e+01	3.613333e+02
1.630000e-06	5.391167e-06	5.508376e-09	3.843851e+01	3.614360e+02
1.640000e-06	5.393683e-06	5.509623e-09	3.845645e+01	3.614438e+02
1.650000e-06	5.394182e-06	5.510240e-09	3.846000e+01	3.613673e+02
1.660000e-06	5.392805e-06	5.505611e-09	3.845019e+01	3.612168e+02
1.670000e-06	5.389747e-06	5.498213e-09	3.842838e+01	3.609998e+02
1.680000e-06	5.385083e-06	5.496785e-09	3.839513e+01	3.607201e+02
1.690000e-06	5.378539e-06	5.493629e-09	3.834847e+01	3.603765e+02
1.700000e-06	5.370104e-06	5.489299e-09	3.828833e+01	3.599644e+02
1.710000e-06	5.360126e-06	5.485105e-09	3.821719e+01	3.594773e+02
1.720000e-06	5.348491e-06	5.486005e-09	3.813423e+01	3.589084e+02
1.730000e-06	5.334937e-06	5.498460e-09	3.803759e+01	3.582533e+02
1.740000e-06	5.319270e-06	5.411397e-09	3.792589e+01	3.575110e+02
1.750000e-06	5.301219e-06	5.370348e-09	3.779719e+01	3.566843e+02
1.760000e-06	5.280461e-06	5.398025e-09	3.764918e+01	3.557794e+02
1.770000e-06	5.257281e-06	5.380714e-09	3.748391e+01	3.548043e+02
1.780000e-06	5.232819e-06	5.510786e-09	3.730950e+01	3.537676e+02
1.790000e-06	5.207787e-06	5.429974e-09	3.713102e+01	3.526762e+02
1.800000e-06	5.181387e-06	5.247426e-09	3.694279e+01	3.515346e+02
1.810000e-06	5.152741e-06	5.417930e-09	3.673855e+01	3.503439e+02
1.820000e-06	5.122319e-06	5.284540e-09	3.652165e+01	3.491023e+02
1.830000e-06	5.090217e-06	5.198026e-09	3.629276e+01	3.478058e+02
1.840000e-06	5.056035e-06	5.434787e-09	3.604905e+01	3.464488e+02
1.850000e-06	5.020248e-06	5.238020e-09	3.579389e+01	3.450252e+02
1.860000e-06	4.982776e-06	5.176540e-09	3.552672e+01	3.435293e+02
1.870000e-06	4.943335e-06	5.279885e-09	3.524551e+01	3.419555e+02
1.880000e-06	4.902283e-06	5.078284e-09	3.495281e+01	3.402993e+02
1.890000e-06	4.859411e-06	5.138893e-09	3.464714e+01	3.385562e+02
1.900000e-06	4.814896e-06	5.130680e-09	3.432975e+01	3.367227e+02
1.910000e-06	4.768679e-06	5.065700e-09	3.400023e+01	3.347959e+02
1.920000e-06	4.720378e-06	5.148883e-09	3.365585e+01	3.327739e+02
1.930000e-06	4.670438e-06	4.940045e-09	3.329978e+01	3.306566e+02
1.940000e-06	4.618835e-06	4.984637e-09	3.293185e+01	3.284461e+02
1.950000e-06	4.565199e-06	5.023717e-09	3.254944e+01	3.261463e+02
1.960000e-06	4.509544e-06	4.868142e-09	3.215262e+01	3.237629e+02
1.970000e-06	4.452139e-06	4.874337e-09	3.174332e+01	3.213026e+02
1.980000e-06	4.393326e-06	4.813725e-09	3.132399e+01	3.187715e+02
1.990000e-06	4.333073e-06	4.853057e-09	3.089440e+01	3.161742e+02
2.000000e-06	4.271138e-06	4.782879e-09	3.045281e+01	3.135124e+02
2.010000e-06	4.207564e-06	4.680807e-09	2.999953e+01	3.107849e+02
2.020000e-06	4.142434e-06	4.715988e-09	2.953516e+01	3.079880e+02
2.030000e-06	4.075827e-06	4.592111e-09	2.906026e+01	3.051159e+02
2.040000e-06	4.007828e-06	4.577215e-09	2.857543e+01	3.021629e+02
2.050000e-06	3.938459e-06	4.571238e-09	2.808084e+01	2.991248e+02
2.060000e-06	3.867513e-06	4.542813e-09	2.757500e+01	2.959997e+02
2.070000e-06	3.795074e-06	4.484378e-09	2.705851e+01	2.927892e+02
2.080000e-06	3.721428e-06	4.343882e-09	2.653343e+01	2.894975e+02
2.090000e-06	3.646435e-06	4.331397e-09	2.599874e+01	2.861305e+02
2.100000e-06	3.570002e-06	4.287647e-09	2.545377e+01	2.826941e+02
2.110000e-06	3.491981e-06	4.256209e-09	2.489749e+01	2.791925e+02
2.120000e-06	3.412489e-06	4.205102e-09	2.433072e+01	2.756267e+02
2.130000e-06	3.331911e-06	4.140935e-09	2.375621e+01	2.719945e+02
2.140000e-06	3.250219e-06	4.096581e-09	2.317375e+01	2.682901e+02
2.150000e-06	3.167388e-06	3.999132e-09	2.258317e+01	2.645061e+02
2.160000e-06	3.083520e-06	3.959512e-09	2.198520e+01	2.606346e+02
2.170000e-06	2.998721e-06	3.911664e-09	2.138059e+01	2.566691e+02
2.180000e-06	2.912700e-06	3.850839e-09	2.076727e+01	2.526056e+02
2.190000e-06	2.825261e-06	3.774277e-09	2.014384e+01	2.484428e+02
2.200000e-06	2.736810e-06	3.710577e-09	1.951319e+01	2.441816e+02
2.210000e-06	2.647479e-06	3.671996e-09	1.887627e+01	2.398242e+02
2.220000e-06	2.557219e-06	3.596158e-09	1.823273e+01	2.353718e+02
2.230000e-06	2.466101e-06	3.512687e-09	1.758307e+01	2.308240e+02
2.240000e-06	2.374185e-06	3.435531e-09	1.692772e+01	2.261775e+02
2.250000e-06	2.281538e-06	3.380482e-09	1.626715e+01	2.214269e+02
2.260000e-06	2.188226e-06	3.309339e-09	1.560184e+01	2.165655e+02
2.270000e-06	2.093990e-06	3.234241e-09	1.492995e+01	2.115873e+02
2.280000e-06	1.998599e-06	3.156843e-09	1.424982e+01	2.064887e+02
2.290000e-06	1.902350e-06	3.061427e-09	1.356357e+01	2.012700e+02
2.300000e-06	1.805572e-06	2.967754e-09	1.287356e+01	1.959357e+02
2.310000e-06	1.708344e-06	2.893144e-09	1.218033e+01	1.904942e+02
2.320000e-06	1.610583e-06	2.835910e-09	1.148330e+01	1.849555e+02
2.330000e-06	1.512279e-06	2.755158e-09	1.078240e+01	1.793289e+02
2.340000e-06	1.413502e-06	2.655381e-09	1.007814e+01	1.736209e+02
2.350000e-06	1.314192e-06	2.556781e-09	9.370065e+00	1.678327e+02
2.360000e-06	1.214451e-06	2.468808e-09	8.658921e+00	1.619598e+02
2.370000e-06	1.114489e-06	2.381693e-09	7.946198e+00	1.559926e+02
2.380000e-06	1.014212e-06	2.292157e-09	7.231236e+00	1.499182e+02
2.390000e-06	9.135197e-07	2.201011e-09	6.513308e+00	1.437229e+02
2.400000e-06	8.125310e-07	2.101457e-09	5.793268e+00	1.373949e+02
2.410000e-06	7.113173e-07	1.999462e-09	5.071624e+00	1.309268e+02
2.420000e-06	6.099430e-07	1.900681e-09	4.348835e+00	1.243161e+02
2.430000e-06	5.084132e-07	1.803655e-09	3.624937e+00	1.175651e+02
2.440000e-06	4.066951e-07	1.699402e-09	2.899698e+00	1.106791e+02
2.450000e-06	3.047602e-07	1.588024e-09	2.172911e+00	1.036635e+02
2.460000e-06	2.026395e-07	1.475207e-09	1.444800e+00	9.652180e+01
2.470000e-06	1.003971e-07	1.365478e-09	7.158217e-01	8.925264e+01
2.480000e-06	-1.944819e-09	1.251914e-09	-1.386637e-02	8.184914e+01
2.490000e-06	-1.043135e-07	1.130887e-09	-7.437455e-01	7.429897e+01
2.500000e-06	-2.065722e-07	1.008092e-09	-1.472840e+00	6.658590e+01
2.510000e-06	-3.087111e-07	8.876409e-10	-2.201081e+00	5.869216e+01
2.520000e-06	-4.107400e-07	7.689680e-10	-2.928537e+00	5.060107e+01
2.530000e-06	-5.125534e-07	6.454730e-10	-3.654457e+00	4.229938e+01
2.540000e-06	-6.142165e-07	5.164289e-10	-4.379305e+00	3.377872e+01
2.550000e-06	-7.157565e-07	3.814528e-10	-5.103276e+00	2.503602e+01
2.560000e-06	-8.170102e-07	2.388490e-10	-5.825205e+00	1.607301e+01
2.570000e-06	-9.179327e-07	9.285273e-11	-6.544773e+00	6.895096e+00
2.580000e-06	-1.018520e-06	-4.920560e-11	-7.261949e+00	-2.489861e+00
2.590000e-06	-1.118740e-06	-1.887341e-10	-7.976511e+00	-1.207241e+01
2.600000e-06	-1.218589e-06	-3.341406e-10	-8.688421e+00	-2.184164e+01
2.610000e-06	-1.317952e-06	-4.862522e-10	-9.396871e+00	-3.178460e+01
2.620000e-06	-1.416832e-06	-6.423897e-10	-1.010188e+01	-4.188508e+01
2.630000e-06	-1.515244e-06	-7.986922e-10	-1.080355e+01	-5.212223e+01
2.640000e-06	-1.613113e-06	-9.541302e-10	-1.150134e+01	-6.246951e+01
2.650000e-06	-1.710432e-06	-1.109262e-09	-1.219522e+01	-7.289432e+01
2.660000e-06	-1.807195e-06	-1.265591e-09	-1.288513e+01	-8.335853e+01
2.670000e-06	-1.903498e-06	-1.426158e-09	-1.357176e+01	-9.382005e+01
2.680000e-06	-1.999251e-06	-1.586961e-09	-1.425447e+01	-1.042349e+02
2.690000e-06	-2.094110e-06	-1.742576e-09	-1.493080e+01	-1.145596e+02
2.700000e-06	-2.187976e-06	-1.893656e-09	-1.560006e+01	-1.247533e+02
2.710000e-06	-2.280932e-06	-2.045348e-09	-1.626283e+01	-1.347794e+02
2.720000e-06	-2.373030e-06	-2.196842e-09	-1.691948e+01	-1.446059e+02
2.730000e-06	-2.464263e-06	-2.344145e-09	-1.756996e+01	-1.542057e+02
2.740000e-06	-2.554628e-06	-2.485389e-09	-1.821425e+01	-1.635559e+02
2.750000e-06	-2.644074e-06	-2.621625e-09	-1.885199e+01	-1.726371e+02
2.760000e-06	-2.732669e-06	-2.755055e-09	-1.948367e+01	-1.814330e+02
2.770000e-06	-2.820521e-06	-2.886334e-09	-2.011005e+01	-1.899303e+02
2.780000e-06	-2.907419e-06	-3.014828e-09	-2.072962e+01	-1.981188e+02
2.790000e-06	-2.993080e-06	-3.135719e-09	-2.134037e+01	-2.059926e+02
2.800000e-06	-3.077544e-06	-3.249327e-09	-2.194259e+01	-2.135505e+02
2.810000e-06	-3.161010e-06	-3.360394e-09	-2.253770e+01	-2.207965e+02
2.820000e-06	-3.243476e-06	-3.467621e-09	-2.312567e+01	-2.277396e+02
2.830000e-06	-3.324877e-06	-3.570970e-09	-2.370606e+01	-2.343929e+02
2.840000e-06	-3.405232e-06	-3.669612e-09	-2.427898e+01	-2.407719e+02
2.850000e-06	-3.484362e-06	-3.762205e-09	-2.484317e+01	-2.468932e+02
2.860000e-06	-3.561966e-06	-3.851054e-09	-2.539648e+01	-2.527728e+02
2.870000e-06	-3.638061e-06	-3.936485e-09	-2.593902e+01	-2.584246e+02
2.880000e-06	-3.712736e-06	-4.020022e-09	-2.647146e+01	-2.638606e+02
2.890000e-06	-3.786073e-06	-4.101584e-09	-2.699434e+01	-2.690910e+02
2.900000e-06	-3.858153e-06	-4.179122e-09	-2.750827e+01	-2.741248e+02
2.910000e-06	-3.928760e-06	-4.251754e-09	-2.801168e+01	-2.789712e+02
2.920000e-06	-3.997765e-06	-4.320222e-09	-2.850369e+01	-2.836401e+02
2.930000e-06	-4.065339e-06	-4.388040e-09	-2.898548e+01	-2.881420e+02
2.940000e-06	-4.131503e-06	-4.455442e-09	-2.945722e+01	-2.924877e+02
