# Temperatura_=_67.01
# Concentracion g/m^3_=_15000.0
# C_Vs_to_Am_M_A/Vsm_=_65563218390.804596
# pendiente_HvsI_1/m_=_3716.3
# ordenada_HvsI_A/m_=_1297.0
# frecuencia_Hz_=_301573.8315986008

Tiempo_(s)	Campo_(V.s)	Magnetizacion_(V.s)	Campo_(kA/m)	Magnetizacion_(A/m)
0.000000e+00	-5.381544e-06	-5.773607e-09	-3.834420e+01	-3.766926e+02
1.000000e-08	-5.379054e-06	-5.774129e-09	-3.832646e+01	-3.764480e+02
2.000000e-08	-5.374749e-06	-5.768337e-09	-3.829579e+01	-3.761372e+02
3.000000e-08	-5.368757e-06	-5.760270e-09	-3.825309e+01	-3.757722e+02
4.000000e-08	-5.361116e-06	-5.752402e-09	-3.819865e+01	-3.753592e+02
5.000000e-08	-5.351685e-06	-5.742085e-09	-3.813145e+01	-3.748967e+02
6.000000e-08	-5.340249e-06	-5.731755e-09	-3.804997e+01	-3.743761e+02
7.000000e-08	-5.326904e-06	-5.717552e-09	-3.795489e+01	-3.737844e+02
8.000000e-08	-5.311505e-06	-5.695185e-09	-3.784517e+01	-3.731068e+02
9.000000e-08	-5.293888e-06	-5.735754e-09	-3.771964e+01	-3.723312e+02
1.000000e-07	-5.274176e-06	-5.752194e-09	-3.757919e+01	-3.714511e+02
1.100000e-07	-5.252578e-06	-5.699894e-09	-3.742530e+01	-3.704678e+02
1.200000e-07	-5.229294e-06	-5.687695e-09	-3.725940e+01	-3.693898e+02
1.300000e-07	-5.204426e-06	-5.597580e-09	-3.708221e+01	-3.682313e+02
1.400000e-07	-5.177936e-06	-5.516174e-09	-3.689347e+01	-3.670087e+02
1.500000e-07	-5.149873e-06	-5.670899e-09	-3.669352e+01	-3.657367e+02
1.600000e-07	-5.120316e-06	-5.595305e-09	-3.648292e+01	-3.644246e+02
1.700000e-07	-5.089198e-06	-5.526602e-09	-3.626120e+01	-3.630744e+02
1.800000e-07	-5.056057e-06	-5.634120e-09	-3.602506e+01	-3.616800e+02
1.900000e-07	-5.020935e-06	-5.447335e-09	-3.577482e+01	-3.602284e+02
2.000000e-07	-4.984359e-06	-5.424607e-09	-3.551420e+01	-3.587030e+02
2.100000e-07	-4.946139e-06	-5.533794e-09	-3.524188e+01	-3.570866e+02
2.200000e-07	-4.906096e-06	-5.424922e-09	-3.495657e+01	-3.553651e+02
2.300000e-07	-4.864068e-06	-5.407313e-09	-3.465712e+01	-3.535300e+02
2.400000e-07	-4.820142e-06	-5.405756e-09	-3.434414e+01	-3.515790e+02
2.500000e-07	-4.774520e-06	-5.318807e-09	-3.401908e+01	-3.495163e+02
2.600000e-07	-4.726960e-06	-5.316548e-09	-3.368021e+01	-3.473500e+02
2.700000e-07	-4.677225e-06	-5.275067e-09	-3.332584e+01	-3.450899e+02
2.800000e-07	-4.625337e-06	-5.253410e-09	-3.295613e+01	-3.427451e+02
2.900000e-07	-4.571653e-06	-5.201981e-09	-3.257362e+01	-3.403219e+02
3.000000e-07	-4.516481e-06	-5.143503e-09	-3.218052e+01	-3.378231e+02
3.100000e-07	-4.459664e-06	-5.132168e-09	-3.177568e+01	-3.352480e+02
3.200000e-07	-4.400988e-06	-5.096787e-09	-3.135761e+01	-3.325939e+02
3.300000e-07	-4.340682e-06	-5.057882e-09	-3.092792e+01	-3.298573e+02
3.400000e-07	-4.278939e-06	-4.967569e-09	-3.048800e+01	-3.270358e+02
3.500000e-07	-4.215861e-06	-4.918924e-09	-3.003856e+01	-3.241286e+02
3.600000e-07	-4.151281e-06	-4.909265e-09	-2.957842e+01	-3.211370e+02
3.700000e-07	-4.084957e-06	-4.866362e-09	-2.910585e+01	-3.180634e+02
3.800000e-07	-4.017060e-06	-4.828564e-09	-2.862208e+01	-3.149106e+02
3.900000e-07	-3.947768e-06	-4.766341e-09	-2.812836e+01	-3.116800e+02
4.000000e-07	-3.877185e-06	-4.694906e-09	-2.762545e+01	-3.083713e+02
4.100000e-07	-3.805416e-06	-4.635657e-09	-2.711408e+01	-3.049821e+02
4.200000e-07	-3.732267e-06	-4.590053e-09	-2.659289e+01	-3.015083e+02
4.300000e-07	-3.657533e-06	-4.558374e-09	-2.606040e+01	-2.979454e+02
4.400000e-07	-3.581302e-06	-4.499102e-09	-2.551725e+01	-2.942896e+02
4.500000e-07	-3.503654e-06	-4.429668e-09	-2.496399e+01	-2.905394e+02
4.600000e-07	-3.424574e-06	-4.358962e-09	-2.440054e+01	-2.866958e+02
4.700000e-07	-3.344176e-06	-4.303815e-09	-2.382769e+01	-2.827624e+02
4.800000e-07	-3.262573e-06	-4.256423e-09	-2.324626e+01	-2.787441e+02
4.900000e-07	-3.179806e-06	-4.185499e-09	-2.265653e+01	-2.746460e+02
5.000000e-07	-3.096075e-06	-4.119718e-09	-2.205994e+01	-2.704719e+02
5.100000e-07	-3.011486e-06	-4.054919e-09	-2.145723e+01	-2.662225e+02
5.200000e-07	-2.925910e-06	-3.989437e-09	-2.084749e+01	-2.618952e+02
5.300000e-07	-2.839255e-06	-3.920374e-09	-2.023006e+01	-2.574846e+02
5.400000e-07	-2.751684e-06	-3.850228e-09	-1.960611e+01	-2.529832e+02
5.500000e-07	-2.663224e-06	-3.775869e-09	-1.897582e+01	-2.483829e+02
5.600000e-07	-2.573584e-06	-3.692154e-09	-1.833712e+01	-2.436768e+02
5.700000e-07	-2.482772e-06	-3.621194e-09	-1.769007e+01	-2.388606e+02
5.800000e-07	-2.391069e-06	-3.557693e-09	-1.703668e+01	-2.339330e+02
5.900000e-07	-2.298569e-06	-3.487122e-09	-1.637760e+01	-2.288955e+02
6.000000e-07	-2.205267e-06	-3.397307e-09	-1.571282e+01	-2.237517e+02
6.100000e-07	-2.111176e-06	-3.307403e-09	-1.504240e+01	-2.185060e+02
6.200000e-07	-2.016351e-06	-3.225166e-09	-1.436676e+01	-2.131620e+02
6.300000e-07	-1.920887e-06	-3.143094e-09	-1.368657e+01	-2.077219e+02
6.400000e-07	-1.824770e-06	-3.063996e-09	-1.300172e+01	-2.021860e+02
6.500000e-07	-1.727887e-06	-2.982992e-09	-1.231142e+01	-1.965526e+02
6.600000e-07	-1.630166e-06	-2.894363e-09	-1.161515e+01	-1.908194e+02
6.700000e-07	-1.531761e-06	-2.795736e-09	-1.091400e+01	-1.849838e+02
6.800000e-07	-1.432812e-06	-2.703344e-09	-1.020897e+01	-1.790440e+02
6.900000e-07	-1.333353e-06	-2.616072e-09	-9.500315e+00	-1.729998e+02
7.000000e-07	-1.233531e-06	-2.523172e-09	-8.789069e+00	-1.668519e+02
7.100000e-07	-1.133454e-06	-2.423744e-09	-8.076006e+00	-1.606014e+02
7.200000e-07	-1.033087e-06	-2.324550e-09	-7.360877e+00	-1.542490e+02
7.300000e-07	-9.323800e-07	-2.226995e-09	-6.643329e+00	-1.477939e+02
7.400000e-07	-8.313189e-07	-2.127732e-09	-5.923256e+00	-1.412327e+02
7.500000e-07	-7.299281e-07	-2.028649e-09	-5.200833e+00	-1.345594e+02
7.600000e-07	-6.282912e-07	-1.926008e-09	-4.476657e+00	-1.277660e+02
7.700000e-07	-5.264730e-07	-1.816956e-09	-3.751189e+00	-1.208429e+02
7.800000e-07	-4.244782e-07	-1.704710e-09	-3.024462e+00	-1.137803e+02
7.900000e-07	-3.223480e-07	-1.595421e-09	-2.296772e+00	-1.065692e+02
8.000000e-07	-2.201143e-07	-1.486632e-09	-1.568343e+00	-9.920220e+01
8.100000e-07	-1.177709e-07	-1.373892e-09	-8.391331e-01	-9.167380e+01
8.200000e-07	-1.534457e-08	-1.258108e-09	-1.093321e-01	-8.397968e+01
8.300000e-07	8.711995e-08	-1.139353e-09	6.207410e-01	-7.611603e+01
8.400000e-07	1.895569e-07	-1.018668e-09	1.350618e+00	-6.807841e+01
8.500000e-07	2.919504e-07	-8.956568e-10	2.080185e+00	-5.986085e+01
8.600000e-07	3.942311e-07	-7.676023e-10	2.808948e+00	-5.145536e+01
8.700000e-07	4.963674e-07	-6.315112e-10	3.536683e+00	-4.285212e+01
8.800000e-07	5.983996e-07	-4.930849e-10	4.263675e+00	-3.404035e+01
8.900000e-07	7.002750e-07	-3.549181e-10	4.989551e+00	-2.500966e+01
9.000000e-07	8.018913e-07	-2.154104e-10	5.713580e+00	-1.575175e+01
9.100000e-07	9.032296e-07	-7.324968e-11	6.435629e+00	-6.262066e+00
9.200000e-07	1.004255e-06	7.354487e-11	7.155451e+00	3.458872e+00
9.300000e-07	1.104899e-06	2.253442e-10	7.872552e+00	1.340461e+01
9.400000e-07	1.205190e-06	3.834340e-10	8.587134e+00	2.356248e+01
9.500000e-07	1.305146e-06	5.437545e-10	9.299333e+00	3.391380e+01
9.600000e-07	1.404697e-06	7.044757e-10	1.000865e+01	4.443444e+01
9.700000e-07	1.503705e-06	8.674069e-10	1.071410e+01	5.509564e+01
9.800000e-07	1.602055e-06	1.034612e-09	1.141485e+01	6.586480e+01
9.900000e-07	1.699675e-06	1.202009e-09	1.211041e+01	7.670633e+01
1.000000e-06	1.796511e-06	1.369394e-09	1.280037e+01	8.758238e+01
1.010000e-06	1.892605e-06	1.536225e-09	1.348506e+01	9.845367e+01
1.020000e-06	1.988050e-06	1.702392e-09	1.416512e+01	1.092803e+02
1.030000e-06	2.082800e-06	1.868931e-09	1.484022e+01	1.200229e+02
1.040000e-06	2.176785e-06	2.033476e-09	1.550988e+01	1.306431e+02
1.050000e-06	2.269977e-06	2.194317e-09	1.617389e+01	1.411051e+02
1.060000e-06	2.362406e-06	2.349580e-09	1.683245e+01	1.513763e+02
1.070000e-06	2.454197e-06	2.500321e-09	1.748648e+01	1.614276e+02
1.080000e-06	2.545189e-06	2.649507e-09	1.813480e+01	1.712340e+02
1.090000e-06	2.635074e-06	2.798044e-09	1.877525e+01	1.807742e+02
1.100000e-06	2.723810e-06	2.943594e-09	1.940750e+01	1.900304e+02
1.110000e-06	2.811593e-06	3.079402e-09	2.003297e+01	1.989880e+02
1.120000e-06	2.898427e-06	3.207375e-09	2.065167e+01	2.076354e+02
1.130000e-06	2.984296e-06	3.332610e-09	2.126350e+01	2.159635e+02
1.140000e-06	3.069276e-06	3.457290e-09	2.186899e+01	2.239668e+02
1.150000e-06	3.153371e-06	3.575457e-09	2.246818e+01	2.316434e+02
1.160000e-06	3.236484e-06	3.684363e-09	2.306037e+01	2.389960e+02
1.170000e-06	3.318321e-06	3.788585e-09	2.364347e+01	2.460317e+02
1.180000e-06	3.398838e-06	3.888815e-09	2.421717e+01	2.527627e+02
1.190000e-06	3.478134e-06	3.985962e-09	2.478216e+01	2.592049e+02
1.200000e-06	3.556229e-06	4.080696e-09	2.533860e+01	2.653775e+02
1.210000e-06	3.633108e-06	4.173208e-09	2.588637e+01	2.713007e+02
1.220000e-06	3.708696e-06	4.260951e-09	2.642494e+01	2.769945e+02
1.230000e-06	3.782753e-06	4.343759e-09	2.695261e+01	2.824768e+02
1.240000e-06	3.855163e-06	4.422986e-09	2.746854e+01	2.877623e+02
1.250000e-06	3.926127e-06	4.501237e-09	2.797417e+01	2.928625e+02
1.260000e-06	3.995740e-06	4.576853e-09	2.847017e+01	2.977856e+02
1.270000e-06	4.063968e-06	4.650396e-09	2.895630e+01	3.025373e+02
1.280000e-06	4.130800e-06	4.720704e-09	2.943249e+01	3.071219e+02
1.290000e-06	4.196037e-06	4.786485e-09	2.989731e+01	3.115432e+02
1.300000e-06	4.259629e-06	4.849424e-09	3.035041e+01	3.158048e+02
1.310000e-06	4.321771e-06	4.910454e-09	3.079318e+01	3.199103e+02
1.320000e-06	4.382571e-06	4.970637e-09	3.122639e+01	3.238625e+02
1.330000e-06	4.441956e-06	5.028464e-09	3.164952e+01	3.276629e+02
1.340000e-06	4.499718e-06	5.081261e-09	3.206108e+01	3.313110e+02
1.350000e-06	4.555680e-06	5.132506e-09	3.245981e+01	3.348040e+02
1.360000e-06	4.609922e-06	5.184403e-09	3.284630e+01	3.381375e+02
1.370000e-06	4.662448e-06	5.231655e-09	3.322055e+01	3.413063e+02
1.380000e-06	4.713029e-06	5.273141e-09	3.358094e+01	3.443060e+02
1.390000e-06	4.761672e-06	5.311430e-09	3.392753e+01	3.471346e+02
1.400000e-06	4.808530e-06	5.349070e-09	3.426141e+01	3.497938e+02
1.410000e-06	4.853747e-06	5.385994e-09	3.458358e+01	3.522893e+02
1.420000e-06	4.897418e-06	5.420456e-09	3.489474e+01	3.546307e+02
1.430000e-06	4.939356e-06	5.451289e-09	3.519356e+01	3.568300e+02
1.440000e-06	4.979408e-06	5.479609e-09	3.547893e+01	3.588993e+02
1.450000e-06	5.017751e-06	5.507860e-09	3.575213e+01	3.608491e+02
1.460000e-06	5.054481e-06	5.535235e-09	3.601384e+01	3.626866e+02
1.470000e-06	5.089562e-06	5.561257e-09	3.626379e+01	3.644147e+02
1.480000e-06	5.122738e-06	5.585801e-09	3.650017e+01	3.660324e+02
1.490000e-06	5.153982e-06	5.606997e-09	3.672279e+01	3.675365e+02
1.500000e-06	5.183528e-06	5.624705e-09	3.693332e+01	3.689233e+02
1.510000e-06	5.211430e-06	5.640659e-09	3.713212e+01	3.701909e+02
1.520000e-06	5.237397e-06	5.656412e-09	3.731714e+01	3.713410e+02
1.530000e-06	5.261231e-06	5.672595e-09	3.748696e+01	3.723791e+02
1.540000e-06	5.283225e-06	5.688052e-09	3.764366e+01	3.733144e+02
1.550000e-06	5.303520e-06	5.701324e-09	3.778827e+01	3.741575e+02
1.560000e-06	5.321974e-06	5.713050e-09	3.791976e+01	3.749183e+02
1.570000e-06	5.338389e-06	5.724680e-09	3.803672e+01	3.756032e+02
1.580000e-06	5.352806e-06	5.735710e-09	3.813944e+01	3.762140e+02
1.590000e-06	5.365298e-06	5.744061e-09	3.822845e+01	3.767466e+02
1.600000e-06	5.375599e-06	5.749425e-09	3.830185e+01	3.771927e+02
1.610000e-06	5.383732e-06	5.753577e-09	3.835979e+01	3.775418e+02
1.620000e-06	5.389974e-06	5.758302e-09	3.840427e+01	3.777841e+02
1.630000e-06	5.394493e-06	5.764688e-09	3.843647e+01	3.779137e+02
1.640000e-06	5.397179e-06	5.767939e-09	3.845560e+01	3.779308e+02
1.650000e-06	5.397796e-06	5.768624e-09	3.846000e+01	3.778421e+02
1.660000e-06	5.396504e-06	5.765699e-09	3.845079e+01	3.776598e+02
1.670000e-06	5.393545e-06	5.756888e-09	3.842971e+01	3.773993e+02
1.680000e-06	5.388928e-06	5.754065e-09	3.839681e+01	3.770756e+02
1.690000e-06	5.382416e-06	5.751057e-09	3.835041e+01	3.766996e+02
1.700000e-06	5.374061e-06	5.745954e-09	3.829089e+01	3.762758e+02
1.710000e-06	5.364142e-06	5.739746e-09	3.822021e+01	3.758013e+02
1.720000e-06	5.352613e-06	5.733862e-09	3.813806e+01	3.752663e+02
1.730000e-06	5.339167e-06	5.751380e-09	3.804226e+01	3.746569e+02
1.740000e-06	5.323603e-06	5.692032e-09	3.793136e+01	3.739587e+02
1.750000e-06	5.305721e-06	5.632285e-09	3.780395e+01	3.731605e+02
1.760000e-06	5.285180e-06	5.653693e-09	3.765760e+01	3.722575e+02
1.770000e-06	5.262255e-06	5.629383e-09	3.749425e+01	3.712524e+02
1.780000e-06	5.237932e-06	5.723437e-09	3.732095e+01	3.701554e+02
1.790000e-06	5.212878e-06	5.731625e-09	3.714244e+01	3.689813e+02
1.800000e-06	5.186567e-06	5.519099e-09	3.695497e+01	3.677465e+02
1.810000e-06	5.158165e-06	5.631681e-09	3.675259e+01	3.664649e+02
1.820000e-06	5.127798e-06	5.600214e-09	3.653623e+01	3.651443e+02
1.830000e-06	5.095741e-06	5.429126e-09	3.630782e+01	3.637849e+02
1.840000e-06	5.061766e-06	5.623221e-09	3.606575e+01	3.623790e+02
1.850000e-06	5.026156e-06	5.524044e-09	3.581202e+01	3.609126e+02
1.860000e-06	4.988886e-06	5.380754e-09	3.554646e+01	3.593686e+02
1.870000e-06	4.949661e-06	5.496469e-09	3.526698e+01	3.577303e+02
1.880000e-06	4.908741e-06	5.342343e-09	3.497542e+01	3.559844e+02
1.890000e-06	4.866070e-06	5.343556e-09	3.467139e+01	3.541239e+02
1.900000e-06	4.821758e-06	5.378861e-09	3.435565e+01	3.521481e+02
1.910000e-06	4.775687e-06	5.261093e-09	3.402740e+01	3.500619e+02
1.920000e-06	4.727476e-06	5.328989e-09	3.368388e+01	3.478741e+02
1.930000e-06	4.677570e-06	5.181619e-09	3.332829e+01	3.455947e+02
1.940000e-06	4.626092e-06	5.174914e-09	3.296151e+01	3.432323e+02
1.950000e-06	4.572543e-06	5.235469e-09	3.257997e+01	3.407923e+02
1.960000e-06	4.517004e-06	5.096021e-09	3.218425e+01	3.382768e+02
1.970000e-06	4.459749e-06	5.095339e-09	3.177630e+01	3.356846e+02
1.980000e-06	4.400975e-06	5.016328e-09	3.135752e+01	3.330126e+02
1.990000e-06	4.340802e-06	5.024839e-09	3.092878e+01	3.302575e+02
2.000000e-06	4.278999e-06	5.004629e-09	3.048843e+01	3.274171e+02
2.010000e-06	4.215520e-06	4.875317e-09	3.003613e+01	3.244912e+02
2.020000e-06	4.150517e-06	4.897582e-09	2.957298e+01	3.214813e+02
2.030000e-06	4.084041e-06	4.795245e-09	2.909933e+01	3.183901e+02
2.040000e-06	4.016209e-06	4.754892e-09	2.861601e+01	3.152200e+02
2.050000e-06	3.946910e-06	4.743154e-09	2.812225e+01	3.119723e+02
2.060000e-06	3.875957e-06	4.699151e-09	2.761670e+01	3.086462e+02
2.070000e-06	3.803569e-06	4.673031e-09	2.710092e+01	3.052388e+02
2.080000e-06	3.729946e-06	4.542314e-09	2.657635e+01	3.017458e+02
2.090000e-06	3.655017e-06	4.506578e-09	2.604247e+01	2.981627e+02
2.100000e-06	3.578672e-06	4.463220e-09	2.549850e+01	2.944863e+02
2.110000e-06	3.500700e-06	4.421065e-09	2.494294e+01	2.907154e+02
2.120000e-06	3.421281e-06	4.364145e-09	2.437707e+01	2.868517e+02
2.130000e-06	3.340770e-06	4.280835e-09	2.380342e+01	2.828992e+02
2.140000e-06	3.259132e-06	4.244587e-09	2.322174e+01	2.788629e+02
2.150000e-06	3.176361e-06	4.158903e-09	2.263199e+01	2.747479e+02
2.160000e-06	3.092595e-06	4.105669e-09	2.203514e+01	2.705571e+02
2.170000e-06	3.007789e-06	4.048303e-09	2.143089e+01	2.662909e+02
2.180000e-06	2.921647e-06	3.982871e-09	2.081711e+01	2.619459e+02
2.190000e-06	2.834277e-06	3.903969e-09	2.019459e+01	2.575160e+02
2.200000e-06	2.745956e-06	3.827819e-09	1.956529e+01	2.529936e+02
2.210000e-06	2.656735e-06	3.785075e-09	1.892958e+01	2.483706e+02
2.220000e-06	2.566564e-06	3.711302e-09	1.828710e+01	2.436407e+02
2.230000e-06	2.475471e-06	3.625817e-09	1.763805e+01	2.388002e+02
2.240000e-06	2.383721e-06	3.539383e-09	1.698432e+01	2.338483e+02
2.250000e-06	2.291284e-06	3.476234e-09	1.632570e+01	2.287872e+02
2.260000e-06	2.197922e-06	3.406974e-09	1.566048e+01	2.236208e+02
2.270000e-06	2.103502e-06	3.329978e-09	1.498773e+01	2.183532e+02
2.280000e-06	2.008088e-06	3.249377e-09	1.430789e+01	2.129881e+02
2.290000e-06	1.911937e-06	3.154905e-09	1.362280e+01	2.075270e+02
2.300000e-06	1.815206e-06	3.059091e-09	1.293358e+01	2.019699e+02
2.310000e-06	1.717992e-06	2.974907e-09	1.224092e+01	1.963149e+02
2.320000e-06	1.620184e-06	2.906253e-09	1.154402e+01	1.905594e+02
2.330000e-06	1.521774e-06	2.821169e-09	1.084284e+01	1.847011e+02
2.340000e-06	1.422904e-06	2.725091e-09	1.013838e+01	1.787385e+02
2.350000e-06	1.323558e-06	2.627396e-09	9.430524e+00	1.726715e+02
2.360000e-06	1.223831e-06	2.535092e-09	8.719956e+00	1.665010e+02
2.370000e-06	1.123902e-06	2.444576e-09	8.007945e+00	1.602282e+02
2.380000e-06	1.023799e-06	2.349308e-09	7.294698e+00	1.538535e+02
2.390000e-06	9.233023e-07	2.249598e-09	6.578649e+00	1.473755e+02
2.400000e-06	8.223688e-07	2.143618e-09	5.859485e+00	1.407904e+02
2.410000e-06	7.211436e-07	2.039088e-09	5.138242e+00	1.340917e+02
2.420000e-06	6.197082e-07	1.937925e-09	4.415502e+00	1.272709e+02
2.430000e-06	5.180300e-07	1.836494e-09	3.691032e+00	1.203182e+02
2.440000e-06	4.160506e-07	1.728904e-09	2.964415e+00	1.132240e+02
2.450000e-06	3.137680e-07	1.617067e-09	2.235638e+00	1.059795e+02
2.460000e-06	2.113118e-07	1.501472e-09	1.505624e+00	9.857790e+01
2.470000e-06	1.087695e-07	1.385237e-09	7.749968e-01	9.101384e+01
2.480000e-06	6.090275e-09	1.268311e-09	4.339400e-02	8.328324e+01
2.490000e-06	-9.669487e-08	1.145592e-09	-6.889636e-01	7.538225e+01
2.500000e-06	-1.994164e-07	1.017475e-09	-1.420868e+00	6.730617e+01
2.510000e-06	-3.019713e-07	8.895207e-10	-2.151585e+00	5.904860e+01
2.520000e-06	-4.043525e-07	7.653489e-10	-2.881065e+00	5.060113e+01
2.530000e-06	-5.065398e-07	6.388595e-10	-3.609162e+00	4.195365e+01
2.540000e-06	-6.085175e-07	5.060079e-10	-4.335767e+00	3.309532e+01
2.550000e-06	-7.101828e-07	3.676135e-10	-5.060145e+00	2.401606e+01
2.560000e-06	-8.115133e-07	2.232488e-10	-5.782138e+00	1.470824e+01
2.570000e-06	-9.125052e-07	7.315803e-11	-6.501719e+00	5.168286e+00
2.580000e-06	-1.013156e-06	-7.638070e-11	-7.218870e+00	-4.602055e+00
2.590000e-06	-1.113466e-06	-2.235133e-10	-7.933589e+00	-1.459501e+01
2.600000e-06	-1.213382e-06	-3.752618e-10	-8.645505e+00	-2.479657e+01
2.610000e-06	-1.312835e-06	-5.337576e-10	-9.354121e+00	-3.518685e+01
2.620000e-06	-1.411789e-06	-6.950457e-10	-1.005918e+01	-4.574065e+01
2.630000e-06	-1.510246e-06	-8.559148e-10	-1.076070e+01	-5.642832e+01
2.640000e-06	-1.608205e-06	-1.018237e-09	-1.145867e+01	-6.721656e+01
2.650000e-06	-1.705603e-06	-1.182624e-09	-1.215264e+01	-7.806920e+01
2.660000e-06	-1.802378e-06	-1.347104e-09	-1.284218e+01	-8.894805e+01
2.670000e-06	-1.898641e-06	-1.513365e-09	-1.352807e+01	-9.981361e+01
2.680000e-06	-1.994403e-06	-1.679163e-09	-1.421038e+01	-1.106260e+02
2.690000e-06	-2.089435e-06	-1.840698e-09	-1.488749e+01	-1.213460e+02
2.700000e-06	-2.183550e-06	-1.998061e-09	-1.555808e+01	-1.319357e+02
2.710000e-06	-2.276651e-06	-2.155772e-09	-1.622143e+01	-1.423599e+02
2.720000e-06	-2.368820e-06	-2.314712e-09	-1.687815e+01	-1.525868e+02
2.730000e-06	-2.460136e-06	-2.469759e-09	-1.752879e+01	-1.625881e+02
2.740000e-06	-2.550564e-06	-2.617290e-09	-1.817310e+01	-1.723395e+02
2.750000e-06	-2.640108e-06	-2.760167e-09	-1.881111e+01	-1.818207e+02
2.760000e-06	-2.728778e-06	-2.900585e-09	-1.944290e+01	-1.910146e+02
2.770000e-06	-2.816673e-06	-3.036507e-09	-2.006916e+01	-1.999071e+02
2.780000e-06	-2.903702e-06	-3.167619e-09	-2.068926e+01	-2.084871e+02
2.790000e-06	-2.989596e-06	-3.293266e-09	-2.130126e+01	-2.167465e+02
2.800000e-06	-3.074295e-06	-3.414247e-09	-2.190475e+01	-2.246803e+02
2.810000e-06	-3.157910e-06	-3.532108e-09	-2.250052e+01	-2.322876e+02
2.820000e-06	-3.240474e-06	-3.646009e-09	-2.308880e+01	-2.395720e+02
2.830000e-06	-3.321968e-06	-3.756098e-09	-2.366946e+01	-2.465417e+02
2.840000e-06	-3.402429e-06	-3.861479e-09	-2.424275e+01	-2.532098e+02
2.850000e-06	-3.481708e-06	-3.958468e-09	-2.480763e+01	-2.595930e+02
2.860000e-06	-3.559511e-06	-4.048584e-09	-2.536198e+01	-2.657109e+02
2.870000e-06	-3.635763e-06	-4.136815e-09	-2.590528e+01	-2.715839e+02
2.880000e-06	-3.710578e-06	-4.223660e-09	-2.643835e+01	-2.772314e+02
2.890000e-06	-3.784059e-06	-4.307046e-09	-2.696191e+01	-2.826708e+02
2.900000e-06	-3.856234e-06	-4.388489e-09	-2.747617e+01	-2.879163e+02
2.910000e-06	-3.927000e-06	-4.467566e-09	-2.798039e+01	-2.929784e+02
2.920000e-06	-3.996207e-06	-4.542313e-09	-2.847350e+01	-2.978648e+02
2.930000e-06	-4.063913e-06	-4.614541e-09	-2.895591e+01	-3.025809e+02
2.940000e-06	-4.130213e-06	-4.684663e-09	-2.942831e+01	-3.071306e+02
