# Temperatura_=_56.91
# Concentracion g/m^3_=_15000.0
# C_Vs_to_Am_M_A/Vsm_=_65563218390.804596
# pendiente_HvsI_1/m_=_3716.3
# ordenada_HvsI_A/m_=_1297.0
# frecuencia_Hz_=_301574.73315961513

Tiempo_(s)	Campo_(V.s)	Magnetizacion_(V.s)	Campo_(kA/m)	Magnetizacion_(A/m)
0.000000e+00	-5.371740e-06	-5.465360e-09	-3.834595e+01	-3.561347e+02
1.000000e-08	-5.368957e-06	-5.465855e-09	-3.832608e+01	-3.559585e+02
2.000000e-08	-5.364447e-06	-5.463204e-09	-3.829388e+01	-3.557214e+02
3.000000e-08	-5.358324e-06	-5.457739e-09	-3.825018e+01	-3.554253e+02
4.000000e-08	-5.350536e-06	-5.449990e-09	-3.819458e+01	-3.550672e+02
5.000000e-08	-5.340897e-06	-5.441052e-09	-3.812577e+01	-3.546404e+02
6.000000e-08	-5.329287e-06	-5.433664e-09	-3.804290e+01	-3.541360e+02
7.000000e-08	-5.315794e-06	-5.425957e-09	-3.794658e+01	-3.535455e+02
8.000000e-08	-5.300234e-06	-5.418470e-09	-3.783550e+01	-3.528635e+02
9.000000e-08	-5.282467e-06	-5.427480e-09	-3.770867e+01	-3.520897e+02
1.000000e-07	-5.262629e-06	-5.428151e-09	-3.756706e+01	-3.512298e+02
1.100000e-07	-5.240876e-06	-5.399352e-09	-3.741178e+01	-3.502952e+02
1.200000e-07	-5.217474e-06	-5.363995e-09	-3.724473e+01	-3.493014e+02
1.300000e-07	-5.192528e-06	-5.323401e-09	-3.706665e+01	-3.482646e+02
1.400000e-07	-5.165926e-06	-5.294741e-09	-3.687675e+01	-3.471985e+02
1.500000e-07	-5.137719e-06	-5.336791e-09	-3.667539e+01	-3.461113e+02
1.600000e-07	-5.108082e-06	-5.324699e-09	-3.646383e+01	-3.450029e+02
1.700000e-07	-5.076807e-06	-5.274746e-09	-3.624058e+01	-3.438647e+02
1.800000e-07	-5.043403e-06	-5.259639e-09	-3.600212e+01	-3.426802e+02
1.900000e-07	-5.008176e-06	-5.189727e-09	-3.575066e+01	-3.414271e+02
2.000000e-07	-4.971462e-06	-5.175030e-09	-3.548858e+01	-3.400818e+02
2.100000e-07	-4.933031e-06	-5.206399e-09	-3.521424e+01	-3.386222e+02
2.200000e-07	-4.892782e-06	-5.177019e-09	-3.492692e+01	-3.370321e+02
2.300000e-07	-4.850584e-06	-5.157590e-09	-3.462570e+01	-3.353032e+02
2.400000e-07	-4.806424e-06	-5.106997e-09	-3.431046e+01	-3.334366e+02
2.500000e-07	-4.760506e-06	-5.034448e-09	-3.398268e+01	-3.314415e+02
2.600000e-07	-4.712724e-06	-5.028067e-09	-3.364159e+01	-3.293335e+02
2.700000e-07	-4.662917e-06	-4.993856e-09	-3.328604e+01	-3.271314e+02
2.800000e-07	-4.611061e-06	-4.961313e-09	-3.291587e+01	-3.248540e+02
2.900000e-07	-4.557304e-06	-4.933816e-09	-3.253213e+01	-3.225166e+02
3.000000e-07	-4.501964e-06	-4.880574e-09	-3.213708e+01	-3.201288e+02
3.100000e-07	-4.444948e-06	-4.856848e-09	-3.173008e+01	-3.176939e+02
3.200000e-07	-4.386125e-06	-4.834978e-09	-3.131017e+01	-3.152087e+02
3.300000e-07	-4.325767e-06	-4.778878e-09	-3.087931e+01	-3.126650e+02
3.400000e-07	-4.263992e-06	-4.714753e-09	-3.043833e+01	-3.100520e+02
3.500000e-07	-4.200782e-06	-4.678959e-09	-2.998711e+01	-3.073586e+02
3.600000e-07	-4.136056e-06	-4.653921e-09	-2.952506e+01	-3.045757e+02
3.700000e-07	-4.069661e-06	-4.620950e-09	-2.905111e+01	-3.016978e+02
3.800000e-07	-4.001719e-06	-4.581246e-09	-2.856610e+01	-2.987239e+02
3.900000e-07	-3.932424e-06	-4.510515e-09	-2.807144e+01	-2.956573e+02
4.000000e-07	-3.861888e-06	-4.438619e-09	-2.756793e+01	-2.925047e+02
4.100000e-07	-3.790129e-06	-4.398154e-09	-2.705568e+01	-2.892746e+02
4.200000e-07	-3.716998e-06	-4.361780e-09	-2.653364e+01	-2.859758e+02
4.300000e-07	-3.642269e-06	-4.328647e-09	-2.600019e+01	-2.826153e+02
4.400000e-07	-3.565963e-06	-4.275850e-09	-2.545548e+01	-2.791974e+02
4.500000e-07	-3.488229e-06	-4.205696e-09	-2.490058e+01	-2.757230e+02
4.600000e-07	-3.409106e-06	-4.141270e-09	-2.433576e+01	-2.721894e+02
4.700000e-07	-3.328737e-06	-4.086851e-09	-2.376205e+01	-2.685912e+02
4.800000e-07	-3.247196e-06	-4.040365e-09	-2.317998e+01	-2.649214e+02
4.900000e-07	-3.164452e-06	-3.985796e-09	-2.258931e+01	-2.611727e+02
5.000000e-07	-3.080684e-06	-3.923198e-09	-2.199134e+01	-2.573387e+02
5.100000e-07	-2.996020e-06	-3.855827e-09	-2.138697e+01	-2.534148e+02
5.200000e-07	-2.910433e-06	-3.795190e-09	-2.077601e+01	-2.493989e+02
5.300000e-07	-2.823856e-06	-3.736028e-09	-2.015798e+01	-2.452908e+02
5.400000e-07	-2.736352e-06	-3.669355e-09	-1.953334e+01	-2.410919e+02
5.500000e-07	-2.647960e-06	-3.595138e-09	-1.890236e+01	-2.368037e+02
5.600000e-07	-2.558385e-06	-3.522568e-09	-1.826293e+01	-2.324273e+02
5.700000e-07	-2.467615e-06	-3.461494e-09	-1.761497e+01	-2.279620e+02
5.800000e-07	-2.376003e-06	-3.401323e-09	-1.696100e+01	-2.234054e+02
5.900000e-07	-2.283611e-06	-3.331274e-09	-1.630147e+01	-2.187530e+02
6.000000e-07	-2.190414e-06	-3.248835e-09	-1.563618e+01	-2.139992e+02
6.100000e-07	-2.096449e-06	-3.165705e-09	-1.496542e+01	-2.091385e+02
6.200000e-07	-2.001700e-06	-3.089500e-09	-1.428905e+01	-2.041666e+02
6.300000e-07	-1.906262e-06	-3.019741e-09	-1.360778e+01	-1.990817e+02
6.400000e-07	-1.810238e-06	-2.949186e-09	-1.292231e+01	-1.938848e+02
6.500000e-07	-1.713537e-06	-2.868065e-09	-1.223202e+01	-1.885795e+02
6.600000e-07	-1.616030e-06	-2.776389e-09	-1.153596e+01	-1.831717e+02
6.700000e-07	-1.517721e-06	-2.684496e-09	-1.083419e+01	-1.776672e+02
6.800000e-07	-1.418765e-06	-2.601205e-09	-1.012780e+01	-1.720710e+02
6.900000e-07	-1.319380e-06	-2.518362e-09	-9.418339e+00	-1.663851e+02
7.000000e-07	-1.219719e-06	-2.429748e-09	-8.706911e+00	-1.606079e+02
7.100000e-07	-1.119804e-06	-2.336966e-09	-7.993671e+00	-1.547338e+02
7.200000e-07	-1.019534e-06	-2.244576e-09	-7.277902e+00	-1.487543e+02
7.300000e-07	-9.189300e-07	-2.153457e-09	-6.559744e+00	-1.426590e+02
7.400000e-07	-8.180084e-07	-2.063444e-09	-5.839319e+00	-1.364380e+02
7.500000e-07	-7.167418e-07	-1.968895e-09	-5.116432e+00	-1.300834e+02
7.600000e-07	-6.152214e-07	-1.865271e-09	-4.391733e+00	-1.235907e+02
7.700000e-07	-5.135499e-07	-1.757654e-09	-3.665955e+00	-1.169593e+02
7.800000e-07	-4.117507e-07	-1.652647e-09	-2.939266e+00	-1.101917e+02
7.900000e-07	-3.097569e-07	-1.551285e-09	-2.211187e+00	-1.032919e+02
8.000000e-07	-2.076500e-07	-1.445832e-09	-1.482301e+00	-9.626349e+01
8.100000e-07	-1.054387e-07	-1.336088e-09	-7.526700e-01	-8.910710e+01
8.200000e-07	-3.155871e-09	-1.226066e-09	-2.252805e-02	-8.181883e+01
8.300000e-07	9.909315e-08	-1.116900e-09	7.073724e-01	-7.438940e+01
8.400000e-07	2.012972e-07	-1.005650e-09	1.436952e+00	-6.680446e+01
8.500000e-07	3.034542e-07	-8.902998e-10	2.166195e+00	-5.904608e+01
8.600000e-07	4.055359e-07	-7.683828e-10	2.894901e+00	-5.109509e+01
8.700000e-07	5.075014e-07	-6.389507e-10	3.622778e+00	-4.293372e+01
8.800000e-07	6.093385e-07	-5.086220e-10	4.349738e+00	-3.454806e+01
8.900000e-07	7.110185e-07	-3.798418e-10	5.075576e+00	-2.592984e+01
9.000000e-07	8.124951e-07	-2.488331e-10	5.799963e+00	-1.707723e+01
9.100000e-07	9.136214e-07	-1.114575e-10	6.521849e+00	-7.994625e+00
9.200000e-07	1.014338e-06	3.201566e-11	7.240810e+00	1.308351e+00
9.300000e-07	1.114714e-06	1.799100e-10	7.957341e+00	1.081823e+01
9.400000e-07	1.214771e-06	3.302488e-10	8.671589e+00	2.051899e+01
9.500000e-07	1.314509e-06	4.803513e-10	9.383570e+00	3.039289e+01
9.600000e-07	1.413891e-06	6.322091e-10	1.009300e+01	4.042058e+01
9.700000e-07	1.512758e-06	7.886088e-10	1.079876e+01	5.058051e+01
9.800000e-07	1.610969e-06	9.488758e-10	1.149984e+01	6.084792e+01
9.900000e-07	1.708330e-06	1.109278e-09	1.219484e+01	7.119384e+01
1.000000e-06	1.804826e-06	1.268600e-09	1.288368e+01	8.158443e+01
1.010000e-06	1.900580e-06	1.429014e-09	1.356721e+01	9.198113e+01
1.020000e-06	1.995650e-06	1.591458e-09	1.424586e+01	1.023417e+02
1.030000e-06	2.090071e-06	1.751151e-09	1.491989e+01	1.126223e+02
1.040000e-06	2.183781e-06	1.904994e-09	1.558883e+01	1.227795e+02
1.050000e-06	2.276725e-06	2.054598e-09	1.625231e+01	1.327732e+02
1.060000e-06	2.368921e-06	2.202238e-09	1.691044e+01	1.425684e+02
1.070000e-06	2.460466e-06	2.347370e-09	1.756394e+01	1.521363e+02
1.080000e-06	2.551267e-06	2.489696e-09	1.821212e+01	1.614546e+02
1.090000e-06	2.640942e-06	2.630375e-09	1.885226e+01	1.705066e+02
1.100000e-06	2.729396e-06	2.766131e-09	1.948368e+01	1.792802e+02
1.110000e-06	2.816876e-06	2.893611e-09	2.010816e+01	1.877657e+02
1.120000e-06	2.903481e-06	3.016029e-09	2.072638e+01	1.959551e+02
1.130000e-06	2.989146e-06	3.137012e-09	2.133790e+01	2.038416e+02
1.140000e-06	3.073832e-06	3.254132e-09	2.194242e+01	2.114192e+02
1.150000e-06	3.157585e-06	3.363887e-09	2.254029e+01	2.186845e+02
1.160000e-06	3.240341e-06	3.467237e-09	2.313104e+01	2.256377e+02
1.170000e-06	3.321925e-06	3.566101e-09	2.371343e+01	2.322836e+02
1.180000e-06	3.402199e-06	3.660525e-09	2.428646e+01	2.386329e+02
1.190000e-06	3.481213e-06	3.752838e-09	2.485050e+01	2.447019e+02
1.200000e-06	3.559021e-06	3.843769e-09	2.540592e+01	2.505113e+02
1.210000e-06	3.635610e-06	3.930663e-09	2.595265e+01	2.560845e+02
1.220000e-06	3.710910e-06	4.012702e-09	2.649018e+01	2.614448e+02
1.230000e-06	3.784643e-06	4.091595e-09	2.701652e+01	2.666135e+02
1.240000e-06	3.856738e-06	4.167687e-09	2.753117e+01	2.716074e+02
1.250000e-06	3.927427e-06	4.240354e-09	2.803578e+01	2.764379e+02
1.260000e-06	3.996760e-06	4.311050e-09	2.853071e+01	2.811111e+02
1.270000e-06	4.064713e-06	4.381035e-09	2.901579e+01	2.856284e+02
1.280000e-06	4.131230e-06	4.447924e-09	2.949061e+01	2.899878e+02
1.290000e-06	4.196094e-06	4.510496e-09	2.995364e+01	2.941866e+02
1.300000e-06	4.259368e-06	4.569031e-09	3.040532e+01	2.982219e+02
1.310000e-06	4.321178e-06	4.625493e-09	3.084655e+01	3.020927e+02
1.320000e-06	4.381651e-06	4.680310e-09	3.127823e+01	3.057996e+02
1.330000e-06	4.440792e-06	4.732336e-09	3.170041e+01	3.093451e+02
1.340000e-06	4.498275e-06	4.781807e-09	3.211075e+01	3.127329e+02
1.350000e-06	4.553942e-06	4.829985e-09	3.250813e+01	3.159668e+02
1.360000e-06	4.607916e-06	4.875196e-09	3.289342e+01	3.190502e+02
1.370000e-06	4.660180e-06	4.915281e-09	3.326650e+01	3.219856e+02
1.380000e-06	4.710437e-06	4.952626e-09	3.362526e+01	3.247750e+02
1.390000e-06	4.758672e-06	4.990930e-09	3.396958e+01	3.274197e+02
1.400000e-06	4.805168e-06	5.028342e-09	3.430150e+01	3.299216e+02
1.410000e-06	4.850156e-06	5.061887e-09	3.462264e+01	3.322832e+02
1.420000e-06	4.893592e-06	5.093560e-09	3.493271e+01	3.345083e+02
1.430000e-06	4.935158e-06	5.123513e-09	3.522942e+01	3.366019e+02
1.440000e-06	4.974869e-06	5.150567e-09	3.551290e+01	3.385700e+02
1.450000e-06	5.012946e-06	5.174496e-09	3.578471e+01	3.404188e+02
1.460000e-06	5.049461e-06	5.198430e-09	3.604537e+01	3.421546e+02
1.470000e-06	5.084290e-06	5.223779e-09	3.629399e+01	3.437827e+02
1.480000e-06	5.117197e-06	5.247823e-09	3.652890e+01	3.453081e+02
1.490000e-06	5.148169e-06	5.269091e-09	3.674999e+01	3.467346e+02
1.500000e-06	5.177435e-06	5.287375e-09	3.695890e+01	3.480657e+02
1.510000e-06	5.205089e-06	5.303208e-09	3.715631e+01	3.493045e+02
1.520000e-06	5.230764e-06	5.317811e-09	3.733959e+01	3.504540e+02
1.530000e-06	5.254319e-06	5.332979e-09	3.750774e+01	3.515168e+02
1.540000e-06	5.276033e-06	5.348045e-09	3.766274e+01	3.524949e+02
1.550000e-06	5.296016e-06	5.361497e-09	3.780540e+01	3.533890e+02
1.560000e-06	5.314135e-06	5.373192e-09	3.793474e+01	3.541981e+02
1.570000e-06	5.330240e-06	5.385640e-09	3.804970e+01	3.549197e+02
1.580000e-06	5.344392e-06	5.397514e-09	3.815073e+01	3.555496e+02
1.590000e-06	5.356617e-06	5.406563e-09	3.823799e+01	3.560829e+02
1.600000e-06	5.366684e-06	5.411839e-09	3.830985e+01	3.565151e+02
1.610000e-06	5.374602e-06	5.414662e-09	3.836637e+01	3.568435e+02
1.620000e-06	5.380652e-06	5.418687e-09	3.840956e+01	3.570684e+02
1.630000e-06	5.384950e-06	5.423156e-09	3.844024e+01	3.571935e+02
1.640000e-06	5.387343e-06	5.425475e-09	3.845733e+01	3.572259e+02
1.650000e-06	5.387717e-06	5.425463e-09	3.846000e+01	3.571747e+02
1.660000e-06	5.386240e-06	5.422591e-09	3.844946e+01	3.570499e+02
1.670000e-06	5.383104e-06	5.417418e-09	3.842706e+01	3.568599e+02
1.680000e-06	5.378325e-06	5.415321e-09	3.839295e+01	3.566099e+02
1.690000e-06	5.371659e-06	5.413067e-09	3.834537e+01	3.563006e+02
1.700000e-06	5.363156e-06	5.408528e-09	3.828467e+01	3.559281e+02
1.710000e-06	5.353063e-06	5.402176e-09	3.821262e+01	3.554851e+02
1.720000e-06	5.341322e-06	5.395697e-09	3.812881e+01	3.549626e+02
1.730000e-06	5.327725e-06	5.386637e-09	3.803175e+01	3.543525e+02
1.740000e-06	5.311950e-06	5.356450e-09	3.791914e+01	3.536503e+02
1.750000e-06	5.293761e-06	5.326874e-09	3.778929e+01	3.528570e+02
1.760000e-06	5.272933e-06	5.330819e-09	3.764062e+01	3.519797e+02
1.770000e-06	5.249806e-06	5.339230e-09	3.747552e+01	3.510307e+02
1.780000e-06	5.225459e-06	5.357978e-09	3.730172e+01	3.500261e+02
1.790000e-06	5.200413e-06	5.330241e-09	3.712293e+01	3.489816e+02
1.800000e-06	5.173896e-06	5.239957e-09	3.693364e+01	3.479103e+02
1.810000e-06	5.145254e-06	5.261898e-09	3.672918e+01	3.468185e+02
1.820000e-06	5.114817e-06	5.255932e-09	3.651191e+01	3.457044e+02
1.830000e-06	5.082649e-06	5.206555e-09	3.628228e+01	3.445576e+02
1.840000e-06	5.048540e-06	5.264591e-09	3.603879e+01	3.433600e+02
1.850000e-06	5.012778e-06	5.222156e-09	3.578351e+01	3.420889e+02
1.860000e-06	4.975242e-06	5.150653e-09	3.551556e+01	3.407204e+02
1.870000e-06	4.935791e-06	5.144700e-09	3.523394e+01	3.392336e+02
1.880000e-06	4.894681e-06	5.075954e-09	3.494048e+01	3.376139e+02
1.890000e-06	4.851800e-06	5.107247e-09	3.463438e+01	3.358548e+02
1.900000e-06	4.807315e-06	5.118902e-09	3.431682e+01	3.339593e+02
1.910000e-06	4.761054e-06	5.031129e-09	3.398659e+01	3.319381e+02
1.920000e-06	4.712724e-06	5.038164e-09	3.364158e+01	3.298080e+02
1.930000e-06	4.662763e-06	4.971197e-09	3.328494e+01	3.275880e+02
1.940000e-06	4.611127e-06	4.925583e-09	3.291634e+01	3.252963e+02
1.950000e-06	4.557436e-06	4.949949e-09	3.253307e+01	3.229471e+02
1.960000e-06	4.501748e-06	4.877375e-09	3.213554e+01	3.205489e+02
1.970000e-06	4.444336e-06	4.831149e-09	3.172571e+01	3.181034e+02
1.980000e-06	4.385509e-06	4.801868e-09	3.130577e+01	3.156061e+02
1.990000e-06	4.325237e-06	4.775223e-09	3.087552e+01	3.130482e+02
2.000000e-06	4.263288e-06	4.737694e-09	3.043331e+01	3.104185e+02
2.010000e-06	4.199660e-06	4.664327e-09	2.997910e+01	3.077063e+02
2.020000e-06	4.134511e-06	4.632606e-09	2.951403e+01	3.049030e+02
2.030000e-06	4.067957e-06	4.581560e-09	2.903894e+01	3.020042e+02
2.040000e-06	4.000067e-06	4.555325e-09	2.855432e+01	2.990096e+02
2.050000e-06	3.930752e-06	4.532561e-09	2.805951e+01	2.959236e+02
2.060000e-06	3.859833e-06	4.476392e-09	2.755326e+01	2.927533e+02
2.070000e-06	3.787519e-06	4.419503e-09	2.703705e+01	2.895075e+02
2.080000e-06	3.713963e-06	4.328001e-09	2.651197e+01	2.861946e+02
2.090000e-06	3.639023e-06	4.285649e-09	2.597702e+01	2.828213e+02
2.100000e-06	3.562644e-06	4.258814e-09	2.543179e+01	2.793910e+02
2.110000e-06	3.484743e-06	4.215243e-09	2.487570e+01	2.759039e+02
2.120000e-06	3.405413e-06	4.167982e-09	2.430940e+01	2.723566e+02
2.130000e-06	3.324881e-06	4.095234e-09	2.373453e+01	2.687434e+02
2.140000e-06	3.243253e-06	4.030990e-09	2.315183e+01	2.650570e+02
2.150000e-06	3.160533e-06	3.968769e-09	2.256133e+01	2.612901e+02
2.160000e-06	3.076799e-06	3.923751e-09	2.196361e+01	2.574369e+02
2.170000e-06	2.992048e-06	3.872331e-09	2.135861e+01	2.534931e+02
2.180000e-06	2.905971e-06	3.805360e-09	2.074415e+01	2.494570e+02
2.190000e-06	2.818594e-06	3.740966e-09	2.012042e+01	2.453290e+02
2.200000e-06	2.730264e-06	3.682295e-09	1.948988e+01	2.411105e+02
2.210000e-06	2.641045e-06	3.625821e-09	1.885299e+01	2.368030e+02
2.220000e-06	2.550886e-06	3.552605e-09	1.820940e+01	2.324074e+02
2.230000e-06	2.459836e-06	3.478682e-09	1.755944e+01	2.279225e+02
2.240000e-06	2.368032e-06	3.406768e-09	1.690410e+01	2.233455e+02
2.250000e-06	2.275540e-06	3.338210e-09	1.624385e+01	2.186715e+02
2.260000e-06	2.182280e-06	3.271705e-09	1.557811e+01	2.138949e+02
2.270000e-06	2.087982e-06	3.203069e-09	1.490498e+01	2.090103e+02
2.280000e-06	1.992539e-06	3.123420e-09	1.422365e+01	2.040140e+02
2.290000e-06	1.896331e-06	3.032529e-09	1.353688e+01	1.989045e+02
2.300000e-06	1.799693e-06	2.952045e-09	1.284704e+01	1.936837e+02
2.310000e-06	1.702604e-06	2.884844e-09	1.215397e+01	1.883556e+02
2.320000e-06	1.604937e-06	2.813948e-09	1.145678e+01	1.829262e+02
2.330000e-06	1.506749e-06	2.727854e-09	1.075587e+01	1.774014e+02
2.340000e-06	1.408029e-06	2.635703e-09	1.005116e+01	1.717856e+02
2.350000e-06	1.308709e-06	2.543882e-09	9.342166e+00	1.660801e+02
2.360000e-06	1.208993e-06	2.455500e-09	8.630344e+00	1.602824e+02
2.370000e-06	1.109083e-06	2.370415e-09	7.917147e+00	1.543862e+02
2.380000e-06	1.008966e-06	2.283903e-09	7.202460e+00	1.483825e+02
2.390000e-06	9.085317e-07	2.190545e-09	6.485516e+00	1.422607e+02
2.400000e-06	8.077674e-07	2.089378e-09	5.766214e+00	1.360113e+02
2.410000e-06	7.067669e-07	1.990439e-09	5.045226e+00	1.296271e+02
2.420000e-06	6.056257e-07	1.895446e-09	4.323234e+00	1.231043e+02
2.430000e-06	5.043017e-07	1.797577e-09	3.599937e+00	1.164430e+02
2.440000e-06	4.026483e-07	1.693324e-09	2.874288e+00	1.096464e+02
2.450000e-06	3.007186e-07	1.585956e-09	2.146667e+00	1.027185e+02
2.460000e-06	1.986454e-07	1.478006e-09	1.418022e+00	9.566240e+01
2.470000e-06	9.643658e-08	1.369561e-09	6.884086e-01	8.847793e+01
2.480000e-06	-5.943810e-09	1.257046e-09	-4.242965e-02	8.116006e+01
2.490000e-06	-1.083956e-07	1.139107e-09	-7.737777e-01	7.369834e+01
2.500000e-06	-2.107099e-07	1.017763e-09	-1.504144e+00	6.607749e+01
2.510000e-06	-3.128649e-07	8.972134e-10	-2.233373e+00	5.827912e+01
2.520000e-06	-4.148851e-07	7.794226e-10	-2.961640e+00	5.028413e+01
2.530000e-06	-5.166837e-07	6.588182e-10	-3.688325e+00	4.207537e+01
2.540000e-06	-6.182531e-07	5.320622e-10	-4.413375e+00	3.364003e+01
2.550000e-06	-7.195717e-07	3.983276e-10	-5.136633e+00	2.497119e+01
2.560000e-06	-8.205796e-07	2.589691e-10	-5.857674e+00	1.606840e+01
2.570000e-06	-9.212470e-07	1.157642e-10	-6.576284e+00	6.937288e+00
2.580000e-06	-1.021588e-06	-2.643993e-11	-7.292563e+00	-2.411588e+00
2.590000e-06	-1.121654e-06	-1.685511e-10	-8.006883e+00	-1.196411e+01
2.600000e-06	-1.221361e-06	-3.145939e-10	-8.718633e+00	-2.170384e+01
2.610000e-06	-1.320654e-06	-4.654041e-10	-9.427434e+00	-3.161272e+01
2.620000e-06	-1.419501e-06	-6.202664e-10	-1.013305e+01	-4.167097e+01
2.630000e-06	-1.517815e-06	-7.746634e-10	-1.083486e+01	-5.185647e+01
2.640000e-06	-1.615559e-06	-9.270895e-10	-1.153260e+01	-6.214363e+01
2.650000e-06	-1.712722e-06	-1.081427e-09	-1.222620e+01	-7.250247e+01
2.660000e-06	-1.809334e-06	-1.240149e-09	-1.291586e+01	-8.289809e+01
2.670000e-06	-1.905489e-06	-1.401703e-09	-1.360225e+01	-9.329102e+01
2.680000e-06	-2.001091e-06	-1.560598e-09	-1.428470e+01	-1.036385e+02
2.690000e-06	-2.095845e-06	-1.713837e-09	-1.496110e+01	-1.138965e+02
2.700000e-06	-2.189569e-06	-1.864679e-09	-1.563015e+01	-1.240223e+02
2.710000e-06	-2.282317e-06	-2.016486e-09	-1.629222e+01	-1.339765e+02
2.720000e-06	-2.374234e-06	-2.167754e-09	-1.694837e+01	-1.437255e+02
2.730000e-06	-2.465336e-06	-2.314456e-09	-1.759870e+01	-1.532419e+02
2.740000e-06	-2.555536e-06	-2.455653e-09	-1.824259e+01	-1.625047e+02
2.750000e-06	-2.644844e-06	-2.593032e-09	-1.888011e+01	-1.714983e+02
2.760000e-06	-2.733353e-06	-2.727086e-09	-1.951193e+01	-1.802112e+02
2.770000e-06	-2.821056e-06	-2.856546e-09	-2.013799e+01	-1.886342e+02
2.780000e-06	-2.907757e-06	-2.980740e-09	-2.075690e+01	-1.967596e+02
2.790000e-06	-2.993284e-06	-3.099649e-09	-2.136743e+01	-2.045806e+02
2.800000e-06	-3.077699e-06	-3.213352e-09	-2.197003e+01	-2.120919e+02
2.810000e-06	-3.161072e-06	-3.324415e-09	-2.256519e+01	-2.192905e+02
2.820000e-06	-3.243391e-06	-3.433280e-09	-2.315281e+01	-2.261775e+02
2.830000e-06	-3.324635e-06	-3.536901e-09	-2.373277e+01	-2.327591e+02
2.840000e-06	-3.404767e-06	-3.632470e-09	-2.430479e+01	-2.390471e+02
2.850000e-06	-3.483680e-06	-3.720545e-09	-2.486811e+01	-2.450590e+02
2.860000e-06	-3.561138e-06	-3.806824e-09	-2.542104e+01	-2.508161e+02
2.870000e-06	-3.637057e-06	-3.891877e-09	-2.596298e+01	-2.563420e+02
2.880000e-06	-3.711570e-06	-3.973945e-09	-2.649489e+01	-2.616600e+02
2.890000e-06	-3.784755e-06	-4.052752e-09	-2.701732e+01	-2.667903e+02
2.900000e-06	-3.856673e-06	-4.129220e-09	-2.753070e+01	-2.717487e+02
2.910000e-06	-3.927138e-06	-4.202528e-09	-2.803371e+01	-2.765455e+02
2.920000e-06	-3.995963e-06	-4.272486e-09	-2.852502e+01	-2.811856e+02
2.930000e-06	-4.063409e-06	-4.341569e-09	-2.900648e+01	-2.856696e+02
2.940000e-06	-4.129537e-06	-4.408682e-09	-2.947853e+01	-2.899952e+02
