# Temperatura_=_44.11
# Concentracion g/m^3_=_15000.0
# C_Vs_to_Am_M_A/Vsm_=_65563218390.804596
# pendiente_HvsI_1/m_=_3716.3
# ordenada_HvsI_A/m_=_1297.0
# frecuencia_Hz_=_302363.65466348385

Tiempo_(s)	Campo_(V.s)	Magnetizacion_(V.s)	Campo_(kA/m)	Magnetizacion_(A/m)
0.000000e+00	-8.146421e-06	-8.848705e-09	-5.691133e+01	-5.793519e+02
1.000000e-08	-8.144246e-06	-8.849869e-09	-5.689613e+01	-5.792613e+02
2.000000e-08	-8.139353e-06	-8.849183e-09	-5.686195e+01	-5.790579e+02
3.000000e-08	-8.131893e-06	-8.844041e-09	-5.680983e+01	-5.787353e+02
4.000000e-08	-8.121612e-06	-8.838023e-09	-5.673801e+01	-5.782977e+02
5.000000e-08	-8.108366e-06	-8.829258e-09	-5.664547e+01	-5.777595e+02
6.000000e-08	-8.092195e-06	-8.816732e-09	-5.653250e+01	-5.771418e+02
7.000000e-08	-8.073404e-06	-8.802399e-09	-5.640123e+01	-5.764679e+02
8.000000e-08	-8.052241e-06	-8.785237e-09	-5.625338e+01	-5.757573e+02
9.000000e-08	-8.028409e-06	-8.813585e-09	-5.608689e+01	-5.750217e+02
1.000000e-07	-8.001463e-06	-8.834144e-09	-5.589864e+01	-5.742623e+02
1.100000e-07	-7.971362e-06	-8.781759e-09	-5.568835e+01	-5.734704e+02
1.200000e-07	-7.938250e-06	-8.742769e-09	-5.545703e+01	-5.726301e+02
1.300000e-07	-7.902275e-06	-8.727061e-09	-5.520571e+01	-5.717224e+02
1.400000e-07	-7.863812e-06	-8.702390e-09	-5.493701e+01	-5.707297e+02
1.500000e-07	-7.822998e-06	-8.664470e-09	-5.465187e+01	-5.696396e+02
1.600000e-07	-7.779778e-06	-8.677098e-09	-5.434994e+01	-5.684463e+02
1.700000e-07	-7.734006e-06	-8.689056e-09	-5.403017e+01	-5.671500e+02
1.800000e-07	-7.685359e-06	-8.574632e-09	-5.369033e+01	-5.657550e+02
1.900000e-07	-7.633719e-06	-8.594570e-09	-5.332956e+01	-5.642660e+02
2.000000e-07	-7.579150e-06	-8.602601e-09	-5.294834e+01	-5.626855e+02
2.100000e-07	-7.521696e-06	-8.515666e-09	-5.254697e+01	-5.610118e+02
2.200000e-07	-7.461562e-06	-8.525481e-09	-5.212686e+01	-5.592385e+02
2.300000e-07	-7.398887e-06	-8.506990e-09	-5.168902e+01	-5.573567e+02
2.400000e-07	-7.333483e-06	-8.481478e-09	-5.123210e+01	-5.553571e+02
2.500000e-07	-7.265268e-06	-8.414203e-09	-5.075555e+01	-5.532332e+02
2.600000e-07	-7.194333e-06	-8.395661e-09	-5.025999e+01	-5.509835e+02
2.700000e-07	-7.120463e-06	-8.371981e-09	-4.974393e+01	-5.486117e+02
2.800000e-07	-7.043680e-06	-8.297514e-09	-4.920752e+01	-5.461267e+02
2.900000e-07	-6.964125e-06	-8.258024e-09	-4.865174e+01	-5.435393e+02
3.000000e-07	-6.881914e-06	-8.227438e-09	-4.807742e+01	-5.408596e+02
3.100000e-07	-6.797372e-06	-8.207144e-09	-4.748680e+01	-5.380937e+02
3.200000e-07	-6.710510e-06	-8.146804e-09	-4.687998e+01	-5.352427e+02
3.300000e-07	-6.621160e-06	-8.098841e-09	-4.625577e+01	-5.323015e+02
3.400000e-07	-6.529350e-06	-8.070008e-09	-4.561438e+01	-5.292611e+02
3.500000e-07	-6.435233e-06	-8.016713e-09	-4.495688e+01	-5.261106e+02
3.600000e-07	-6.338798e-06	-7.963099e-09	-4.428318e+01	-5.228402e+02
3.700000e-07	-6.240039e-06	-7.912281e-09	-4.359324e+01	-5.194435e+02
3.800000e-07	-6.139066e-06	-7.863772e-09	-4.288784e+01	-5.159186e+02
3.900000e-07	-6.035867e-06	-7.796485e-09	-4.216689e+01	-5.122675e+02
4.000000e-07	-5.930494e-06	-7.738761e-09	-4.143075e+01	-5.084945e+02
4.100000e-07	-5.823037e-06	-7.691188e-09	-4.068004e+01	-5.046036e+02
4.200000e-07	-5.713567e-06	-7.629314e-09	-3.991528e+01	-5.005961e+02
4.300000e-07	-5.602087e-06	-7.559837e-09	-3.913647e+01	-4.964694e+02
4.400000e-07	-5.488382e-06	-7.489352e-09	-3.834212e+01	-4.922164e+02
4.500000e-07	-5.372424e-06	-7.423196e-09	-3.753204e+01	-4.878270e+02
4.600000e-07	-5.254490e-06	-7.354348e-09	-3.670815e+01	-4.832901e+02
4.700000e-07	-5.134770e-06	-7.283876e-09	-3.587177e+01	-4.785959e+02
4.800000e-07	-5.013239e-06	-7.210708e-09	-3.502275e+01	-4.737375e+02
4.900000e-07	-4.889833e-06	-7.135706e-09	-3.416063e+01	-4.687119e+02
5.000000e-07	-4.764642e-06	-7.057338e-09	-3.328604e+01	-4.635187e+02
5.100000e-07	-4.637769e-06	-6.971472e-09	-3.239970e+01	-4.581589e+02
5.200000e-07	-4.509246e-06	-6.883239e-09	-3.150183e+01	-4.526322e+02
5.300000e-07	-4.379026e-06	-6.798929e-09	-3.059211e+01	-4.469356e+02
5.400000e-07	-4.247040e-06	-6.712603e-09	-2.967004e+01	-4.410623e+02
5.500000e-07	-4.113520e-06	-6.616490e-09	-2.873727e+01	-4.350019e+02
5.600000e-07	-3.978523e-06	-6.518616e-09	-2.779417e+01	-4.287429e+02
5.700000e-07	-3.841959e-06	-6.423881e-09	-2.684013e+01	-4.222741e+02
5.800000e-07	-3.703933e-06	-6.322123e-09	-2.587587e+01	-4.155878e+02
5.900000e-07	-3.564395e-06	-6.213716e-09	-2.490105e+01	-4.086803e+02
6.000000e-07	-3.423305e-06	-6.106447e-09	-2.391539e+01	-4.015517e+02
6.100000e-07	-3.280791e-06	-5.998341e-09	-2.291978e+01	-3.942048e+02
6.200000e-07	-3.137009e-06	-5.880392e-09	-2.191531e+01	-3.866413e+02
6.300000e-07	-2.992041e-06	-5.756221e-09	-2.090256e+01	-3.788594e+02
6.400000e-07	-2.845964e-06	-5.633026e-09	-1.988205e+01	-3.708510e+02
6.500000e-07	-2.698962e-06	-5.507818e-09	-1.885509e+01	-3.626012e+02
6.600000e-07	-2.551090e-06	-5.376072e-09	-1.782205e+01	-3.540892e+02
6.700000e-07	-2.402369e-06	-5.242009e-09	-1.678308e+01	-3.452911e+02
6.800000e-07	-2.252873e-06	-5.105419e-09	-1.573869e+01	-3.361838e+02
6.900000e-07	-2.102608e-06	-4.958313e-09	-1.468893e+01	-3.267481e+02
7.000000e-07	-1.951627e-06	-4.809423e-09	-1.363417e+01	-3.169712e+02
7.100000e-07	-1.799942e-06	-4.656888e-09	-1.257449e+01	-3.068464e+02
7.200000e-07	-1.647599e-06	-4.495530e-09	-1.151021e+01	-2.963711e+02
7.300000e-07	-1.494703e-06	-4.326440e-09	-1.044208e+01	-2.855433e+02
7.400000e-07	-1.341299e-06	-4.154500e-09	-9.370387e+00	-2.743575e+02
7.500000e-07	-1.187427e-06	-3.980533e-09	-8.295427e+00	-2.628015e+02
7.600000e-07	-1.033151e-06	-3.798681e-09	-7.217647e+00	-2.508552e+02
7.700000e-07	-8.785083e-07	-3.610758e-09	-6.137305e+00	-2.384920e+02
7.800000e-07	-7.234901e-07	-3.413121e-09	-5.054340e+00	-2.256822e+02
7.900000e-07	-5.681749e-07	-3.208709e-09	-3.969300e+00	-2.123973e+02
8.000000e-07	-4.127119e-07	-3.001619e-09	-2.883227e+00	-1.986139e+02
8.100000e-07	-2.571451e-07	-2.790041e-09	-1.796429e+00	-1.843150e+02
8.200000e-07	-1.014132e-07	-2.566589e-09	-7.084781e-01	-1.694888e+02
8.300000e-07	5.440168e-08	-2.329345e-09	3.800530e-01	-1.541237e+02
8.400000e-07	2.101694e-07	-2.085577e-09	1.468255e+00	-1.382013e+02
8.500000e-07	3.659294e-07	-1.835121e-09	2.556402e+00	-1.216897e+02
8.600000e-07	5.216504e-07	-1.574742e-09	3.644277e+00	-1.045392e+02
8.700000e-07	6.771427e-07	-1.302659e-09	4.730555e+00	-8.668343e+01
8.800000e-07	8.323802e-07	-1.020290e-09	5.815052e+00	-6.804617e+01
8.900000e-07	9.873843e-07	-7.229578e-10	6.897919e+00	-4.855535e+01
9.000000e-07	1.142064e-06	-4.102077e-10	7.978520e+00	-2.816112e+01
9.100000e-07	1.296339e-06	-8.649706e-11	9.056295e+00	-6.855411e+00
9.200000e-07	1.450194e-06	2.485365e-10	1.013113e+01	1.531133e+01
9.300000e-07	1.603561e-06	5.961146e-10	1.120256e+01	3.822021e+01
9.400000e-07	1.756296e-06	9.543500e-10	1.226957e+01	6.168377e+01
9.500000e-07	1.908368e-06	1.314543e-09	1.333196e+01	8.545655e+01
9.600000e-07	2.059745e-06	1.675132e-09	1.438949e+01	1.092556e+02
9.700000e-07	2.210358e-06	2.033261e-09	1.544167e+01	1.327873e+02
9.800000e-07	2.360056e-06	2.383061e-09	1.648748e+01	1.557763e+02
9.900000e-07	2.508764e-06	2.722841e-09	1.752635e+01	1.779913e+02
1.000000e-06	2.656531e-06	3.048066e-09	1.855867e+01	1.992630e+02
1.010000e-06	2.803348e-06	3.356890e-09	1.958434e+01	2.194923e+02
1.020000e-06	2.949128e-06	3.647680e-09	2.060277e+01	2.386470e+02
1.030000e-06	3.093833e-06	3.918573e-09	2.161368e+01	2.567499e+02
1.040000e-06	3.237456e-06	4.174908e-09	2.261704e+01	2.738603e+02
1.050000e-06	3.379829e-06	4.420477e-09	2.361166e+01	2.900544e+02
1.060000e-06	3.520879e-06	4.654570e-09	2.459705e+01	3.054083e+02
1.070000e-06	3.660549e-06	4.876393e-09	2.557279e+01	3.199860e+02
1.080000e-06	3.798807e-06	5.088697e-09	2.653867e+01	3.338354e+02
1.090000e-06	3.935626e-06	5.291298e-09	2.749449e+01	3.469896e+02
1.100000e-06	4.070922e-06	5.481097e-09	2.843968e+01	3.594729e+02
1.110000e-06	4.204719e-06	5.658424e-09	2.937439e+01	3.713089e+02
1.120000e-06	4.337048e-06	5.825387e-09	3.029884e+01	3.825268e+02
1.130000e-06	4.467874e-06	5.984258e-09	3.121280e+01	3.931641e+02
1.140000e-06	4.597140e-06	6.136774e-09	3.211586e+01	4.032653e+02
1.150000e-06	4.724833e-06	6.284704e-09	3.300793e+01	4.128779e+02
1.160000e-06	4.850874e-06	6.429320e-09	3.388846e+01	4.220453e+02
1.170000e-06	4.975241e-06	6.566564e-09	3.475730e+01	4.308008e+02
1.180000e-06	5.097884e-06	6.694356e-09	3.561408e+01	4.391648e+02
1.190000e-06	5.218715e-06	6.814420e-09	3.645822e+01	4.471442e+02
1.200000e-06	5.337645e-06	6.928323e-09	3.728907e+01	4.547364e+02
1.210000e-06	5.454569e-06	7.035515e-09	3.810591e+01	4.619364e+02
1.220000e-06	5.569382e-06	7.135675e-09	3.890800e+01	4.687433e+02
1.230000e-06	5.682028e-06	7.232483e-09	3.969494e+01	4.751670e+02
1.240000e-06	5.792573e-06	7.325062e-09	4.046722e+01	4.812304e+02
1.250000e-06	5.901088e-06	7.412920e-09	4.122531e+01	4.869688e+02
1.260000e-06	6.007535e-06	7.496898e-09	4.196896e+01	4.924255e+02
1.270000e-06	6.111735e-06	7.576588e-09	4.269690e+01	4.976448e+02
1.280000e-06	6.213603e-06	7.651511e-09	4.340856e+01	5.026649e+02
1.290000e-06	6.313163e-06	7.724164e-09	4.410409e+01	5.075127e+02
1.300000e-06	6.410399e-06	7.796424e-09	4.478338e+01	5.122010e+02
1.310000e-06	6.505293e-06	7.866239e-09	4.544632e+01	5.167298e+02
1.320000e-06	6.597864e-06	7.931499e-09	4.609303e+01	5.210902e+02
1.330000e-06	6.688071e-06	7.992983e-09	4.672322e+01	5.252704e+02
1.340000e-06	6.775813e-06	8.052724e-09	4.733619e+01	5.292616e+02
1.350000e-06	6.861182e-06	8.111022e-09	4.793258e+01	5.330616e+02
1.360000e-06	6.944227e-06	8.166302e-09	4.851273e+01	5.366764e+02
1.370000e-06	7.024782e-06	8.216572e-09	4.907550e+01	5.401187e+02
1.380000e-06	7.102724e-06	8.265380e-09	4.962000e+01	5.434036e+02
1.390000e-06	7.177986e-06	8.314950e-09	5.014579e+01	5.465440e+02
1.400000e-06	7.250518e-06	8.362156e-09	5.065250e+01	5.495466e+02
1.410000e-06	7.320460e-06	8.405719e-09	5.114112e+01	5.524100e+02
1.420000e-06	7.387863e-06	8.444793e-09	5.161200e+01	5.551250e+02
1.430000e-06	7.452567e-06	8.481314e-09	5.206403e+01	5.576784e+02
1.440000e-06	7.514705e-06	8.517218e-09	5.249812e+01	5.600570e+02
1.450000e-06	7.574381e-06	8.551190e-09	5.291503e+01	5.622530e+02
1.460000e-06	7.631427e-06	8.581417e-09	5.331355e+01	5.642669e+02
1.470000e-06	7.685660e-06	8.608254e-09	5.369243e+01	5.661086e+02
1.480000e-06	7.736826e-06	8.632653e-09	5.404987e+01	5.677957e+02
1.490000e-06	7.784861e-06	8.656475e-09	5.438545e+01	5.693495e+02
1.500000e-06	7.830107e-06	8.679640e-09	5.470154e+01	5.707897e+02
1.510000e-06	7.872636e-06	8.699928e-09	5.499865e+01	5.721303e+02
1.520000e-06	7.912267e-06	8.717411e-09	5.527552e+01	5.733764e+02
1.530000e-06	7.949129e-06	8.732916e-09	5.553303e+01	5.745246e+02
1.540000e-06	7.983254e-06	8.748636e-09	5.577143e+01	5.755653e+02
1.550000e-06	8.014514e-06	8.764030e-09	5.598981e+01	5.764868e+02
1.560000e-06	8.042929e-06	8.777068e-09	5.618833e+01	5.772809e+02
1.570000e-06	8.068358e-06	8.787157e-09	5.636597e+01	5.779462e+02
1.580000e-06	8.090794e-06	8.795865e-09	5.652271e+01	5.784898e+02
1.590000e-06	8.110469e-06	8.805331e-09	5.666016e+01	5.789270e+02
1.600000e-06	8.127260e-06	8.813643e-09	5.677746e+01	5.792767e+02
1.610000e-06	8.140992e-06	8.819758e-09	5.687340e+01	5.795575e+02
1.620000e-06	8.151554e-06	8.824666e-09	5.694719e+01	5.797824e+02
1.630000e-06	8.158933e-06	8.828758e-09	5.699874e+01	5.799549e+02
1.640000e-06	8.163409e-06	8.831578e-09	5.703001e+01	5.800690e+02
1.650000e-06	8.165054e-06	8.832868e-09	5.704150e+01	5.801102e+02
1.660000e-06	8.163821e-06	8.830038e-09	5.703289e+01	5.800602e+02
1.670000e-06	8.159909e-06	8.822282e-09	5.700555e+01	5.799024e+02
1.680000e-06	8.153345e-06	8.818946e-09	5.695970e+01	5.796267e+02
1.690000e-06	8.144032e-06	8.815794e-09	5.689463e+01	5.792331e+02
1.700000e-06	8.131862e-06	8.811091e-09	5.680961e+01	5.787322e+02
1.710000e-06	8.116822e-06	8.808635e-09	5.670455e+01	5.781429e+02
1.720000e-06	8.099205e-06	8.807829e-09	5.658147e+01	5.774885e+02
1.730000e-06	8.079262e-06	8.801892e-09	5.644215e+01	5.767904e+02
1.740000e-06	8.056686e-06	8.730298e-09	5.628443e+01	5.760639e+02
1.750000e-06	8.030773e-06	8.701622e-09	5.610340e+01	5.753143e+02
1.760000e-06	8.001075e-06	8.733014e-09	5.589593e+01	5.745368e+02
1.770000e-06	7.967963e-06	8.724621e-09	5.566461e+01	5.737177e+02
1.780000e-06	7.932404e-06	8.713536e-09	5.541619e+01	5.728387e+02
1.790000e-06	7.894560e-06	8.744764e-09	5.515181e+01	5.718813e+02
1.800000e-06	7.854453e-06	8.730164e-09	5.487162e+01	5.708305e+02
1.810000e-06	7.812373e-06	8.624122e-09	5.457765e+01	5.696781e+02
1.820000e-06	7.767740e-06	8.689857e-09	5.426584e+01	5.684219e+02
1.830000e-06	7.720211e-06	8.677898e-09	5.393380e+01	5.670650e+02
1.840000e-06	7.669899e-06	8.624227e-09	5.358232e+01	5.656125e+02
1.850000e-06	7.616486e-06	8.659857e-09	5.320917e+01	5.640679e+02
1.860000e-06	7.560178e-06	8.561951e-09	5.281580e+01	5.624313e+02
1.870000e-06	7.501186e-06	8.547747e-09	5.240368e+01	5.606981e+02
1.880000e-06	7.439344e-06	8.489984e-09	5.197165e+01	5.588601e+02
1.890000e-06	7.374770e-06	8.496332e-09	5.152053e+01	5.569078e+02
1.900000e-06	7.307423e-06	8.516208e-09	5.105004e+01	5.548332e+02
1.910000e-06	7.237213e-06	8.412344e-09	5.055955e+01	5.526327e+02
1.920000e-06	7.164122e-06	8.424773e-09	5.004893e+01	5.503081e+02
1.930000e-06	7.088263e-06	8.363216e-09	4.951898e+01	5.478664e+02
1.940000e-06	7.009599e-06	8.332478e-09	4.896942e+01	5.453179e+02
1.950000e-06	6.928210e-06	8.297895e-09	4.840084e+01	5.426734e+02
1.960000e-06	6.844443e-06	8.245220e-09	4.781564e+01	5.399409e+02
1.970000e-06	6.758093e-06	8.226514e-09	4.721239e+01	5.371236e+02
1.980000e-06	6.669140e-06	8.137540e-09	4.659096e+01	5.342188e+02
1.990000e-06	6.577833e-06	8.112365e-09	4.595308e+01	5.312186e+02
2.000000e-06	6.484234e-06	8.064408e-09	4.529920e+01	5.281127e+02
2.010000e-06	6.388319e-06	8.024474e-09	4.462914e+01	5.248904e+02
2.020000e-06	6.290140e-06	7.961524e-09	4.394325e+01	5.215438e+02
2.030000e-06	6.189741e-06	7.907760e-09	4.324186e+01	5.180692e+02
2.040000e-06	6.086967e-06	7.860985e-09	4.252387e+01	5.144672e+02
2.050000e-06	5.981996e-06	7.795935e-09	4.179054e+01	5.107416e+02
2.060000e-06	5.875072e-06	7.747684e-09	4.104356e+01	5.068966e+02
2.070000e-06	5.766221e-06	7.675928e-09	4.028312e+01	5.029350e+02
2.080000e-06	5.655303e-06	7.619425e-09	3.950825e+01	4.988558e+02
2.090000e-06	5.542232e-06	7.552291e-09	3.871832e+01	4.946535e+02
2.100000e-06	5.427055e-06	7.499910e-09	3.791369e+01	4.903190e+02
2.110000e-06	5.309809e-06	7.428887e-09	3.709460e+01	4.858413e+02
2.120000e-06	5.190537e-06	7.359932e-09	3.626136e+01	4.812099e+02
2.130000e-06	5.069337e-06	7.281633e-09	3.541466e+01	4.764166e+02
2.140000e-06	4.946330e-06	7.197359e-09	3.455532e+01	4.714568e+02
2.150000e-06	4.821546e-06	7.121700e-09	3.368358e+01	4.663294e+02
2.160000e-06	4.695017e-06	7.051167e-09	3.279964e+01	4.610349e+02
2.170000e-06	4.566695e-06	6.974437e-09	3.190317e+01	4.555740e+02
2.180000e-06	4.436712e-06	6.878254e-09	3.099510e+01	4.499448e+02
2.190000e-06	4.305178e-06	6.789052e-09	3.007620e+01	4.441419e+02
2.200000e-06	4.172048e-06	6.696978e-09	2.914614e+01	4.381564e+02
2.210000e-06	4.037347e-06	6.606296e-09	2.820512e+01	4.319768e+02
2.220000e-06	3.901125e-06	6.508581e-09	2.725347e+01	4.255916e+02
2.230000e-06	3.763369e-06	6.412907e-09	2.629110e+01	4.189915e+02
2.240000e-06	3.624145e-06	6.305567e-09	2.531846e+01	4.121710e+02
2.250000e-06	3.483526e-06	6.193173e-09	2.433610e+01	4.051290e+02
2.260000e-06	3.341535e-06	6.084269e-09	2.334414e+01	3.978676e+02
2.270000e-06	3.198253e-06	5.975737e-09	2.234316e+01	3.903891e+02
2.280000e-06	3.053665e-06	5.857391e-09	2.133306e+01	3.826936e+02
2.290000e-06	2.907968e-06	5.732786e-09	2.031522e+01	3.747756e+02
2.300000e-06	2.761323e-06	5.612898e-09	1.929074e+01	3.666229e+02
2.310000e-06	2.613755e-06	5.489675e-09	1.825983e+01	3.582166e+02
2.320000e-06	2.465313e-06	5.359099e-09	1.722281e+01	3.495337e+02
2.330000e-06	2.316022e-06	5.220346e-09	1.617985e+01	3.405505e+02
2.340000e-06	2.165946e-06	5.073868e-09	1.513141e+01	3.312457e+02
2.350000e-06	2.015184e-06	4.923293e-09	1.407818e+01	3.216040e+02
2.360000e-06	1.863749e-06	4.774601e-09	1.302025e+01	3.116163e+02
2.370000e-06	1.711640e-06	4.623696e-09	1.195761e+01	3.012789e+02
2.380000e-06	1.558921e-06	4.462779e-09	1.089071e+01	2.905900e+02
2.390000e-06	1.405673e-06	4.292579e-09	9.820105e+00	2.795459e+02
2.400000e-06	1.251998e-06	4.117523e-09	8.746526e+00	2.681372e+02
2.410000e-06	1.097914e-06	3.937125e-09	7.670086e+00	2.563471e+02
2.420000e-06	9.434426e-07	3.751127e-09	6.590940e+00	2.441512e+02
2.430000e-06	7.887093e-07	3.558496e-09	5.509965e+00	2.315204e+02
2.440000e-06	6.337327e-07	3.358946e-09	4.427290e+00	2.184253e+02
2.450000e-06	4.784970e-07	3.149736e-09	3.342805e+00	2.048401e+02
2.460000e-06	3.230859e-07	2.931278e-09	2.257095e+00	1.907453e+02
2.470000e-06	1.674551e-07	2.707865e-09	1.169850e+00	1.761276e+02
2.480000e-06	1.165879e-08	2.476947e-09	8.144894e-02	1.609759e+02
2.490000e-06	-1.441387e-07	2.236644e-09	-1.006960e+00	1.452753e+02
2.500000e-06	-2.999060e-07	1.988987e-09	-2.095159e+00	1.290000e+02
2.510000e-06	-4.556398e-07	1.732546e-09	-3.183124e+00	1.121076e+02
2.520000e-06	-6.112120e-07	1.463619e-09	-4.269959e+00	9.453774e+01
2.530000e-06	-7.665189e-07	1.180349e-09	-5.354942e+00	7.621668e+01
2.540000e-06	-9.215839e-07	8.851611e-10	-6.438234e+00	5.706881e+01
2.550000e-06	-1.076309e-06	5.791478e-10	-7.519150e+00	3.703319e+01
2.560000e-06	-1.230589e-06	2.604118e-10	-8.596958e+00	1.608309e+01
2.570000e-06	-1.384403e-06	-7.161292e-11	-9.671510e+00	-5.755653e+00
2.580000e-06	-1.537713e-06	-4.152027e-10	-1.074254e+01	-2.839166e+01
2.590000e-06	-1.690491e-06	-7.699422e-10	-1.180986e+01	-5.166373e+01
2.600000e-06	-1.842617e-06	-1.134512e-09	-1.287262e+01	-7.534725e+01
2.610000e-06	-1.994036e-06	-1.502991e-09	-1.393044e+01	-9.917105e+01
2.620000e-06	-2.144742e-06	-1.869381e-09	-1.498328e+01	-1.228422e+02
2.630000e-06	-2.294610e-06	-2.226394e-09	-1.603026e+01	-1.460750e+02
2.640000e-06	-2.443606e-06	-2.568808e-09	-1.707116e+01	-1.686180e+02
2.650000e-06	-2.591729e-06	-2.897574e-09	-1.810596e+01	-1.902760e+02
2.660000e-06	-2.738875e-06	-3.213113e-09	-1.913393e+01	-2.109221e+02
2.670000e-06	-2.884944e-06	-3.513053e-09	-2.015437e+01	-2.304990e+02
2.680000e-06	-3.029950e-06	-3.796377e-09	-2.116739e+01	-2.490097e+02
2.690000e-06	-3.173849e-06	-4.063146e-09	-2.217268e+01	-2.665014e+02
2.700000e-06	-3.316498e-06	-4.314489e-09	-2.316923e+01	-2.830460e+02
2.710000e-06	-3.457849e-06	-4.555848e-09	-2.415672e+01	-2.987215e+02
2.720000e-06	-3.597866e-06	-4.786777e-09	-2.513488e+01	-3.135975e+02
2.730000e-06	-3.736541e-06	-5.006782e-09	-2.610367e+01	-3.277284e+02
2.740000e-06	-3.873834e-06	-5.215115e-09	-2.706281e+01	-3.411525e+02
2.750000e-06	-4.009661e-06	-5.409224e-09	-2.801170e+01	-3.538966e+02
2.760000e-06	-4.143988e-06	-5.592828e-09	-2.895012e+01	-3.659839e+02
2.770000e-06	-4.276907e-06	-5.765080e-09	-2.987870e+01	-3.774407e+02
2.780000e-06	-4.408334e-06	-5.928767e-09	-3.079685e+01	-3.883010e+02
2.790000e-06	-4.538224e-06	-6.085555e-09	-3.170427e+01	-3.986072e+02
2.800000e-06	-4.666629e-06	-6.235317e-09	-3.260131e+01	-4.084062e+02
2.810000e-06	-4.793380e-06	-6.379279e-09	-3.348681e+01	-4.177438e+02
2.820000e-06	-4.918427e-06	-6.517052e-09	-3.436039e+01	-4.266580e+02
2.830000e-06	-5.041754e-06	-6.649001e-09	-3.522196e+01	-4.351743e+02
2.840000e-06	-5.163275e-06	-6.774285e-09	-3.607091e+01	-4.433046e+02
2.850000e-06	-5.282882e-06	-6.892144e-09	-3.690649e+01	-4.510496e+02
2.860000e-06	-5.400464e-06	-7.002965e-09	-3.772792e+01	-4.584041e+02
2.870000e-06	-5.515851e-06	-7.108816e-09	-3.853403e+01	-4.653650e+02
2.880000e-06	-5.629012e-06	-7.209397e-09	-3.932457e+01	-4.719373e+02
2.890000e-06	-5.740005e-06	-7.305296e-09	-4.009998e+01	-4.781386e+02
2.900000e-06	-5.848890e-06	-7.396269e-09	-4.086066e+01	-4.839998e+02
2.910000e-06	-5.955770e-06	-7.482119e-09	-4.160732e+01	-4.895618e+02
2.920000e-06	-6.060557e-06	-7.563836e-09	-4.233937e+01	-4.948693e+02
2.930000e-06	-6.163063e-06	-7.641836e-09	-4.305548e+01	-4.999638e+02
2.940000e-06	-6.263206e-06	-7.718215e-09	-4.375508e+01	-5.048770e+02
