# Temperatura_=_61.02
# Concentracion g/m^3_=_15000.0
# C_Vs_to_Am_M_A/Vsm_=_65563218390.804596
# pendiente_HvsI_1/m_=_3716.3
# ordenada_HvsI_A/m_=_1297.0
# frecuencia_Hz_=_302363.840707679

Tiempo_(s)	Campo_(V.s)	Magnetizacion_(V.s)	Campo_(kA/m)	Magnetizacion_(A/m)
0.000000e+00	-8.162016e-06	-1.084001e-08	-5.689948e+01	-7.094195e+02
1.000000e-08	-8.157499e-06	-1.083879e-08	-5.686799e+01	-7.091861e+02
2.000000e-08	-8.150406e-06	-1.083133e-08	-5.681854e+01	-7.088231e+02
3.000000e-08	-8.140533e-06	-1.082223e-08	-5.674972e+01	-7.083246e+02
4.000000e-08	-8.127672e-06	-1.081379e-08	-5.666006e+01	-7.076930e+02
5.000000e-08	-8.111840e-06	-1.080244e-08	-5.654969e+01	-7.069390e+02
6.000000e-08	-8.093400e-06	-1.078886e-08	-5.642113e+01	-7.060789e+02
7.000000e-08	-8.072699e-06	-1.077412e-08	-5.627682e+01	-7.051316e+02
8.000000e-08	-8.049392e-06	-1.076241e-08	-5.611435e+01	-7.041146e+02
9.000000e-08	-8.022956e-06	-1.079049e-08	-5.593006e+01	-7.030405e+02
1.000000e-07	-7.993259e-06	-1.077203e-08	-5.572303e+01	-7.019153e+02
1.100000e-07	-7.960543e-06	-1.071816e-08	-5.549496e+01	-7.007370e+02
1.200000e-07	-7.925003e-06	-1.068656e-08	-5.524720e+01	-6.994976e+02
1.300000e-07	-7.886858e-06	-1.065777e-08	-5.498128e+01	-6.981841e+02
1.400000e-07	-7.846297e-06	-1.063083e-08	-5.469852e+01	-6.967811e+02
1.500000e-07	-7.803339e-06	-1.057844e-08	-5.439905e+01	-6.952732e+02
1.600000e-07	-7.757839e-06	-1.059907e-08	-5.408186e+01	-6.936460e+02
1.700000e-07	-7.709483e-06	-1.056630e-08	-5.374475e+01	-6.918873e+02
1.800000e-07	-7.658189e-06	-1.048447e-08	-5.338717e+01	-6.899869e+02
1.900000e-07	-7.604003e-06	-1.051976e-08	-5.300943e+01	-6.879367e+02
2.000000e-07	-7.546964e-06	-1.044852e-08	-5.261180e+01	-6.857307e+02
2.100000e-07	-7.487223e-06	-1.038931e-08	-5.219533e+01	-6.833648e+02
2.200000e-07	-7.424864e-06	-1.037610e-08	-5.176060e+01	-6.808377e+02
2.300000e-07	-7.359778e-06	-1.032017e-08	-5.130687e+01	-6.781510e+02
2.400000e-07	-7.291897e-06	-1.029747e-08	-5.083366e+01	-6.753093e+02
2.500000e-07	-7.221225e-06	-1.023835e-08	-5.034099e+01	-6.723205e+02
2.600000e-07	-7.147648e-06	-1.021054e-08	-4.982806e+01	-6.691940e+02
2.700000e-07	-7.071189e-06	-1.014676e-08	-4.929504e+01	-6.659396e+02
2.800000e-07	-6.991929e-06	-1.008850e-08	-4.874251e+01	-6.625656e+02
2.900000e-07	-6.910043e-06	-1.003257e-08	-4.817166e+01	-6.590767e+02
3.000000e-07	-6.825774e-06	-9.976803e-09	-4.758419e+01	-6.554733e+02
3.100000e-07	-6.739131e-06	-9.944148e-09	-4.698019e+01	-6.517516e+02
3.200000e-07	-6.650008e-06	-9.866206e-09	-4.635889e+01	-6.479044e+02
3.300000e-07	-6.558436e-06	-9.815578e-09	-4.572052e+01	-6.439228e+02
3.400000e-07	-6.464554e-06	-9.756871e-09	-4.506604e+01	-6.397988e+02
3.500000e-07	-6.368333e-06	-9.683343e-09	-4.439526e+01	-6.355267e+02
3.600000e-07	-6.269747e-06	-9.601035e-09	-4.370799e+01	-6.311043e+02
3.700000e-07	-6.168889e-06	-9.531502e-09	-4.300488e+01	-6.265326e+02
3.800000e-07	-6.065787e-06	-9.473947e-09	-4.228614e+01	-6.218147e+02
3.900000e-07	-5.960436e-06	-9.401268e-09	-4.155170e+01	-6.169534e+02
4.000000e-07	-5.853016e-06	-9.333152e-09	-4.080285e+01	-6.119498e+02
4.100000e-07	-5.743671e-06	-9.249784e-09	-4.004059e+01	-6.068010e+02
4.200000e-07	-5.632272e-06	-9.165364e-09	-3.926399e+01	-6.015000e+02
4.300000e-07	-5.518657e-06	-9.068787e-09	-3.847195e+01	-5.960364e+02
4.400000e-07	-5.402823e-06	-8.980660e-09	-3.766444e+01	-5.903983e+02
4.500000e-07	-5.284963e-06	-8.898491e-09	-3.684281e+01	-5.845742e+02
4.600000e-07	-5.165238e-06	-8.813757e-09	-3.600818e+01	-5.785554e+02
4.700000e-07	-5.043694e-06	-8.718536e-09	-3.516087e+01	-5.723371e+02
4.800000e-07	-4.920318e-06	-8.617594e-09	-3.430078e+01	-5.659183e+02
4.900000e-07	-4.795168e-06	-8.514438e-09	-3.342833e+01	-5.593008e+02
5.000000e-07	-4.668370e-06	-8.402334e-09	-3.254439e+01	-5.524867e+02
5.100000e-07	-4.539933e-06	-8.293103e-09	-3.164902e+01	-5.454763e+02
5.200000e-07	-4.409772e-06	-8.186137e-09	-3.074164e+01	-5.382663e+02
5.300000e-07	-4.277887e-06	-8.080552e-09	-2.982223e+01	-5.308489e+02
5.400000e-07	-4.144417e-06	-7.963047e-09	-2.889178e+01	-5.232126e+02
5.500000e-07	-4.009397e-06	-7.841452e-09	-2.795052e+01	-5.153440e+02
5.600000e-07	-3.872838e-06	-7.712538e-09	-2.699853e+01	-5.072303e+02
5.700000e-07	-3.734729e-06	-7.579123e-09	-2.603574e+01	-4.988611e+02
5.800000e-07	-3.594974e-06	-7.444330e-09	-2.506147e+01	-4.902303e+02
5.900000e-07	-3.453722e-06	-7.312042e-09	-2.407677e+01	-4.813354e+02
6.000000e-07	-3.311161e-06	-7.178557e-09	-2.308294e+01	-4.721761e+02
6.100000e-07	-3.167327e-06	-7.034410e-09	-2.208024e+01	-4.627519e+02
6.200000e-07	-3.022240e-06	-6.883887e-09	-2.106880e+01	-4.530593e+02
6.300000e-07	-2.876004e-06	-6.727799e-09	-2.004935e+01	-4.430896e+02
6.400000e-07	-2.728811e-06	-6.569566e-09	-1.902323e+01	-4.328282e+02
6.500000e-07	-2.580772e-06	-6.405540e-09	-1.799121e+01	-4.222560e+02
6.600000e-07	-2.431913e-06	-6.240546e-09	-1.695348e+01	-4.113509e+02
6.700000e-07	-2.282262e-06	-6.071626e-09	-1.591023e+01	-4.000919e+02
6.800000e-07	-2.131824e-06	-5.893581e-09	-1.486148e+01	-3.884610e+02
6.900000e-07	-1.980599e-06	-5.709905e-09	-1.380726e+01	-3.764458e+02
7.000000e-07	-1.828695e-06	-5.519993e-09	-1.274829e+01	-3.640382e+02
7.100000e-07	-1.676225e-06	-5.323615e-09	-1.168539e+01	-3.512333e+02
7.200000e-07	-1.523178e-06	-5.121053e-09	-1.061846e+01	-3.380258e+02
7.300000e-07	-1.369558e-06	-4.917745e-09	-9.547533e+00	-3.244061e+02
7.400000e-07	-1.215431e-06	-4.708148e-09	-8.473078e+00	-3.103581e+02
7.500000e-07	-1.060860e-06	-4.488249e-09	-7.395524e+00	-2.958579e+02
7.600000e-07	-9.059197e-07	-4.257315e-09	-6.315395e+00	-2.808750e+02
7.700000e-07	-7.506304e-07	-4.017454e-09	-5.232834e+00	-2.653754e+02
7.800000e-07	-5.950545e-07	-3.770542e-09	-4.148276e+00	-2.493246e+02
7.900000e-07	-4.392859e-07	-3.518184e-09	-3.062373e+00	-2.326906e+02
8.000000e-07	-2.833514e-07	-3.260930e-09	-1.975314e+00	-2.154448e+02
8.100000e-07	-1.272890e-07	-2.992303e-09	-8.873640e-01	-1.975593e+02
8.200000e-07	2.882264e-08	-2.710604e-09	2.009299e-01	-1.790030e+02
8.300000e-07	1.849363e-07	-2.416349e-09	1.289238e+00	-1.597348e+02
8.400000e-07	3.409879e-07	-2.109222e-09	2.377113e+00	-1.396990e+02
8.500000e-07	4.969207e-07	-1.786617e-09	3.464160e+00	-1.188234e+02
8.600000e-07	6.527189e-07	-1.449148e-09	4.550268e+00	-9.702290e+01
8.700000e-07	8.083675e-07	-1.101864e-09	5.635334e+00	-7.420956e+01
8.800000e-07	9.638177e-07	-7.407067e-10	6.719017e+00	-5.030917e+01
8.900000e-07	1.118981e-06	-3.602968e-10	7.800702e+00	-2.528154e+01
9.000000e-07	1.273720e-06	3.573853e-11	8.879426e+00	8.587660e-01
9.100000e-07	1.427946e-06	4.460011e-10	9.954569e+00	2.802544e+01
9.200000e-07	1.581693e-06	8.716226e-10	1.102638e+01	5.605158e+01
9.300000e-07	1.734857e-06	1.310378e-09	1.209413e+01	8.469169e+01
9.400000e-07	1.887327e-06	1.753906e-09	1.315703e+01	1.136357e+02
9.500000e-07	2.039090e-06	2.193460e-09	1.421501e+01	1.425337e+02
9.600000e-07	2.190029e-06	2.625808e-09	1.526725e+01	1.710271e+02
9.700000e-07	2.340144e-06	3.046089e-09	1.631373e+01	1.987830e+02
9.800000e-07	2.489363e-06	3.449848e-09	1.735398e+01	2.255234e+02
9.900000e-07	2.637617e-06	3.834779e-09	1.838749e+01	2.510471e+02
1.000000e-06	2.784903e-06	4.201392e-09	1.941427e+01	2.752393e+02
1.010000e-06	2.931115e-06	4.550535e-09	2.043354e+01	2.980682e+02
1.020000e-06	3.076298e-06	4.878526e-09	2.144565e+01	3.195713e+02
1.030000e-06	3.220409e-06	5.189006e-09	2.245029e+01	3.398333e+02
1.040000e-06	3.363292e-06	5.481767e-09	2.344636e+01	3.589625e+02
1.050000e-06	3.504849e-06	5.755757e-09	2.443319e+01	3.770685e+02
1.060000e-06	3.645018e-06	6.013604e-09	2.541034e+01	3.942462e+02
1.070000e-06	3.783792e-06	6.258910e-09	2.637777e+01	4.105681e+02
1.080000e-06	3.921145e-06	6.494732e-09	2.733529e+01	4.260844e+02
1.090000e-06	4.056998e-06	6.719412e-09	2.828236e+01	4.408295e+02
1.100000e-06	4.191331e-06	6.931117e-09	2.921883e+01	4.548318e+02
1.110000e-06	4.324156e-06	7.129782e-09	3.014478e+01	4.681226e+02
1.120000e-06	4.455469e-06	7.319482e-09	3.106020e+01	4.807421e+02
1.130000e-06	4.585292e-06	7.501210e-09	3.196523e+01	4.927415e+02
1.140000e-06	4.713535e-06	7.675219e-09	3.285925e+01	5.041786e+02
1.150000e-06	4.840115e-06	7.843807e-09	3.374167e+01	5.151117e+02
1.160000e-06	4.965003e-06	8.006850e-09	3.461229e+01	5.255914e+02
1.170000e-06	5.088176e-06	8.161403e-09	3.547096e+01	5.356541e+02
1.180000e-06	5.209587e-06	8.307999e-09	3.631735e+01	5.453189e+02
1.190000e-06	5.329094e-06	8.448547e-09	3.715046e+01	5.545883e+02
1.200000e-06	5.446577e-06	8.583361e-09	3.796946e+01	5.634533e+02
1.210000e-06	5.562012e-06	8.710971e-09	3.877419e+01	5.719009e+02
1.220000e-06	5.675323e-06	8.833327e-09	3.956411e+01	5.799220e+02
1.230000e-06	5.786475e-06	8.951452e-09	4.033898e+01	5.875175e+02
1.240000e-06	5.895556e-06	9.062176e-09	4.109941e+01	5.947018e+02
1.250000e-06	6.002526e-06	9.165161e-09	4.184513e+01	6.015022e+02
1.260000e-06	6.107240e-06	9.261592e-09	4.257511e+01	6.079550e+02
1.270000e-06	6.209702e-06	9.352186e-09	4.328940e+01	6.140997e+02
1.280000e-06	6.309904e-06	9.439057e-09	4.398794e+01	6.199733e+02
1.290000e-06	6.407770e-06	9.524543e-09	4.467019e+01	6.256055e+02
1.300000e-06	6.503274e-06	9.608437e-09	4.533597e+01	6.310163e+02
1.310000e-06	6.596406e-06	9.690248e-09	4.598521e+01	6.362170e+02
1.320000e-06	6.687166e-06	9.768199e-09	4.661792e+01	6.412128e+02
1.330000e-06	6.775512e-06	9.840037e-09	4.723380e+01	6.460066e+02
1.340000e-06	6.861507e-06	9.907630e-09	4.783330e+01	6.506023e+02
1.350000e-06	6.945140e-06	9.973294e-09	4.841632e+01	6.550073e+02
1.360000e-06	7.026253e-06	1.003706e-08	4.898178e+01	6.592322e+02
1.370000e-06	7.104810e-06	1.009749e-08	4.952943e+01	6.632889e+02
1.380000e-06	7.180771e-06	1.015683e-08	5.005897e+01	6.671875e+02
1.390000e-06	7.254022e-06	1.021554e-08	5.056962e+01	6.709333e+02
1.400000e-06	7.324612e-06	1.027143e-08	5.106172e+01	6.745249e+02
1.410000e-06	7.392652e-06	1.032336e-08	5.153605e+01	6.779539e+02
1.420000e-06	7.458064e-06	1.037022e-08	5.199205e+01	6.812073e+02
1.430000e-06	7.520810e-06	1.041531e-08	5.242947e+01	6.842708e+02
1.440000e-06	7.580996e-06	1.045790e-08	5.284904e+01	6.871329e+02
1.450000e-06	7.638542e-06	1.049703e-08	5.325020e+01	6.897887e+02
1.460000e-06	7.693345e-06	1.053321e-08	5.363225e+01	6.922414e+02
1.470000e-06	7.745214e-06	1.056705e-08	5.399384e+01	6.945018e+02
1.480000e-06	7.793888e-06	1.059850e-08	5.433316e+01	6.965861e+02
1.490000e-06	7.839614e-06	1.062831e-08	5.465193e+01	6.985117e+02
1.500000e-06	7.882658e-06	1.065593e-08	5.495200e+01	7.002934e+02
1.510000e-06	7.922826e-06	1.067978e-08	5.523202e+01	7.019397e+02
1.520000e-06	7.960154e-06	1.070073e-08	5.549225e+01	7.034519e+02
1.530000e-06	7.994759e-06	1.071954e-08	5.573349e+01	7.048247e+02
1.540000e-06	8.026493e-06	1.073756e-08	5.595471e+01	7.060495e+02
1.550000e-06	8.055384e-06	1.075478e-08	5.615612e+01	7.071181e+02
1.560000e-06	8.081399e-06	1.076991e-08	5.633747e+01	7.080264e+02
1.570000e-06	8.104446e-06	1.078307e-08	5.649814e+01	7.087775e+02
1.580000e-06	8.124690e-06	1.079408e-08	5.663927e+01	7.093819e+02
1.590000e-06	8.142062e-06	1.080289e-08	5.676037e+01	7.098560e+02
1.600000e-06	8.156310e-06	1.080786e-08	5.685970e+01	7.102185e+02
1.610000e-06	8.167353e-06	1.081089e-08	5.693668e+01	7.104865e+02
1.620000e-06	8.175251e-06	1.081449e-08	5.699174e+01	7.106714e+02
1.630000e-06	8.180260e-06	1.081723e-08	5.702666e+01	7.107763e+02
1.640000e-06	8.182389e-06	1.081924e-08	5.704150e+01	7.107958e+02
1.650000e-06	8.181617e-06	1.082236e-08	5.703612e+01	7.107180e+02
1.660000e-06	8.178160e-06	1.081716e-08	5.701202e+01	7.105280e+02
1.670000e-06	8.171969e-06	1.080992e-08	5.696886e+01	7.102121e+02
1.680000e-06	8.163012e-06	1.080257e-08	5.690642e+01	7.097619e+02
1.690000e-06	8.151275e-06	1.079353e-08	5.682460e+01	7.091768e+02
1.700000e-06	8.136621e-06	1.078615e-08	5.672244e+01	7.084647e+02
1.710000e-06	8.119349e-06	1.077922e-08	5.660203e+01	7.076401e+02
1.720000e-06	8.099794e-06	1.076843e-08	5.646571e+01	7.067215e+02
1.730000e-06	8.077640e-06	1.073887e-08	5.631127e+01	7.057274e+02
1.740000e-06	8.052240e-06	1.067308e-08	5.613420e+01	7.046725e+02
1.750000e-06	8.023051e-06	1.067787e-08	5.593071e+01	7.035651e+02
1.760000e-06	7.990352e-06	1.068775e-08	5.570277e+01	7.024062e+02
1.770000e-06	7.955118e-06	1.067102e-08	5.545714e+01	7.011897e+02
1.780000e-06	7.917547e-06	1.065814e-08	5.519522e+01	6.999041e+02
1.790000e-06	7.877620e-06	1.068349e-08	5.491688e+01	6.985347e+02
1.800000e-06	7.835708e-06	1.061771e-08	5.462470e+01	6.970658e+02
1.810000e-06	7.791435e-06	1.053765e-08	5.431606e+01	6.954825e+02
1.820000e-06	7.744345e-06	1.061598e-08	5.398779e+01	6.937718e+02
1.830000e-06	7.694533e-06	1.053133e-08	5.364053e+01	6.919228e+02
1.840000e-06	7.641616e-06	1.054280e-08	5.327164e+01	6.899267e+02
1.850000e-06	7.585641e-06	1.051361e-08	5.288142e+01	6.877766e+02
1.860000e-06	7.526988e-06	1.043402e-08	5.247254e+01	6.854679e+02
1.870000e-06	7.465534e-06	1.045721e-08	5.204413e+01	6.829982e+02
1.880000e-06	7.401324e-06	1.036538e-08	5.159650e+01	6.803678e+02
1.890000e-06	7.334256e-06	1.037512e-08	5.112895e+01	6.775806e+02
1.900000e-06	7.264287e-06	1.029280e-08	5.064118e+01	6.746430e+02
1.910000e-06	7.191485e-06	1.022501e-08	5.013366e+01	6.715643e+02
1.920000e-06	7.115886e-06	1.020441e-08	4.960664e+01	6.683544e+02
1.930000e-06	7.037501e-06	1.014383e-08	4.906020e+01	6.650221e+02
1.940000e-06	6.956403e-06	1.014713e-08	4.849484e+01	6.615737e+02
1.950000e-06	6.872848e-06	1.004345e-08	4.791236e+01	6.580112e+02
1.960000e-06	6.786704e-06	9.996777e-09	4.731183e+01	6.543322e+02
1.970000e-06	6.697944e-06	9.921691e-09	4.669306e+01	6.505306e+02
1.980000e-06	6.606834e-06	9.841533e-09	4.605791e+01	6.465978e+02
1.990000e-06	6.513465e-06	9.808811e-09	4.540701e+01	6.425252e+02
2.000000e-06	6.417781e-06	9.749678e-09	4.473997e+01	6.383062e+02
2.010000e-06	6.319824e-06	9.700120e-09	4.405709e+01	6.339373e+02
2.020000e-06	6.219679e-06	9.602710e-09	4.335896e+01	6.294184e+02
2.030000e-06	6.117187e-06	9.538044e-09	4.264446e+01	6.247521e+02
2.040000e-06	6.012417e-06	9.456434e-09	4.191408e+01	6.199416e+02
2.050000e-06	5.905620e-06	9.385700e-09	4.116957e+01	6.149887e+02
2.060000e-06	5.796852e-06	9.306135e-09	4.041132e+01	6.098921e+02
2.070000e-06	5.685980e-06	9.232616e-09	3.963841e+01	6.046462e+02
2.080000e-06	5.572991e-06	9.159238e-09	3.885073e+01	5.992419e+02
2.090000e-06	5.457935e-06	9.067369e-09	3.804864e+01	5.936673e+02
2.100000e-06	5.340734e-06	8.975898e-09	3.723161e+01	5.879105e+02
2.110000e-06	5.221430e-06	8.876726e-09	3.639991e+01	5.819618e+02
2.120000e-06	5.100249e-06	8.786726e-09	3.555512e+01	5.758148e+02
2.130000e-06	4.977322e-06	8.688556e-09	3.469817e+01	5.694673e+02
2.140000e-06	4.852577e-06	8.606889e-09	3.382854e+01	5.629203e+02
2.150000e-06	4.726050e-06	8.514341e-09	3.294649e+01	5.561760e+02
2.160000e-06	4.597743e-06	8.407938e-09	3.205203e+01	5.492357e+02
2.170000e-06	4.467767e-06	8.281750e-09	3.114593e+01	5.420974e+02
2.180000e-06	4.336198e-06	8.159853e-09	3.022873e+01	5.347550e+02
2.190000e-06	4.203035e-06	8.044558e-09	2.930042e+01	5.271981e+02
2.200000e-06	4.068358e-06	7.933663e-09	2.836155e+01	5.194138e+02
2.210000e-06	3.932114e-06	7.822571e-09	2.741176e+01	5.113888e+02
2.220000e-06	3.794283e-06	7.702463e-09	2.645091e+01	5.031116e+02
2.230000e-06	3.654949e-06	7.570652e-09	2.547958e+01	4.945744e+02
2.240000e-06	3.514247e-06	7.428661e-09	2.449871e+01	4.857737e+02
2.250000e-06	3.372153e-06	7.289073e-09	2.350813e+01	4.767086e+02
2.260000e-06	3.228728e-06	7.149544e-09	2.250828e+01	4.673790e+02
2.270000e-06	3.084124e-06	7.007395e-09	2.150021e+01	4.577827e+02
2.280000e-06	2.938390e-06	6.857028e-09	2.048426e+01	4.479131e+02
2.290000e-06	2.791615e-06	6.705013e-09	1.946105e+01	4.377577e+02
2.300000e-06	2.643852e-06	6.544976e-09	1.843096e+01	4.272987e+02
2.310000e-06	2.495217e-06	6.376782e-09	1.739479e+01	4.165148e+02
2.320000e-06	2.345739e-06	6.203888e-09	1.635274e+01	4.053842e+02
2.330000e-06	2.195421e-06	6.028357e-09	1.530484e+01	3.938877e+02
2.340000e-06	2.044381e-06	5.851228e-09	1.425190e+01	3.820106e+02
2.350000e-06	1.892646e-06	5.672721e-09	1.319411e+01	3.697436e+02
2.360000e-06	1.740281e-06	5.485289e-09	1.213194e+01	3.570809e+02
2.370000e-06	1.587367e-06	5.282468e-09	1.106594e+01	3.440178e+02
2.380000e-06	1.433901e-06	5.069569e-09	9.996088e+00	3.305465e+02
2.390000e-06	1.279967e-06	4.852249e-09	8.922973e+00	3.166536e+02
2.400000e-06	1.125593e-06	4.631926e-09	7.846791e+00	3.023178e+02
2.410000e-06	9.707984e-07	4.406594e-09	6.767681e+00	2.875110e+02
2.420000e-06	8.156784e-07	4.177357e-09	5.686301e+00	2.721997e+02
2.430000e-06	6.603514e-07	3.940321e-09	4.603476e+00	2.563493e+02
2.440000e-06	5.048165e-07	3.689380e-09	3.519203e+00	2.399269e+02
2.450000e-06	3.490702e-07	3.426962e-09	2.433456e+00	2.229025e+02
2.460000e-06	1.931882e-07	3.156671e-09	1.346764e+00	2.052485e+02
2.470000e-06	3.715294e-08	2.876210e-09	2.590025e-01	1.869356e+02
2.480000e-06	-1.189476e-07	2.584652e-09	-8.292140e-01	1.679270e+02
2.490000e-06	-2.750182e-07	2.284622e-09	-1.917222e+00	1.481725e+02
2.500000e-06	-4.309792e-07	1.973762e-09	-3.004465e+00	1.276059e+02
2.510000e-06	-5.868013e-07	1.647141e-09	-4.090740e+00	1.061458e+02
2.520000e-06	-7.424763e-07	1.301627e-09	-5.175990e+00	8.370357e+01
2.530000e-06	-8.979052e-07	9.390638e-10	-6.259524e+00	6.019803e+01
2.540000e-06	-1.053011e-06	5.644282e-10	-7.340803e+00	3.557435e+01
2.550000e-06	-1.207713e-06	1.768119e-10	-8.419270e+00	9.825312e+00
2.560000e-06	-1.361981e-06	-2.291392e-10	-9.494714e+00	-1.698992e+01
2.570000e-06	-1.515766e-06	-6.528987e-10	-1.056679e+01	-4.473361e+01
2.580000e-06	-1.668907e-06	-1.090457e-09	-1.163437e+01	-7.318734e+01
2.590000e-06	-1.821396e-06	-1.536776e-09	-1.269741e+01	-1.020618e+02
2.600000e-06	-1.973257e-06	-1.985108e-09	-1.375607e+01	-1.310178e+02
2.610000e-06	-2.124368e-06	-2.427683e-09	-1.480951e+01	-1.596962e+02
2.620000e-06	-2.274652e-06	-2.857060e-09	-1.585718e+01	-1.877510e+02
2.630000e-06	-2.424108e-06	-3.267898e-09	-1.689907e+01	-2.148817e+02
2.640000e-06	-2.572711e-06	-3.660959e-09	-1.793502e+01	-2.408580e+02
2.650000e-06	-2.720330e-06	-4.038348e-09	-1.896411e+01	-2.655337e+02
2.660000e-06	-2.866889e-06	-4.396951e-09	-1.998581e+01	-2.888486e+02
2.670000e-06	-3.012379e-06	-4.735624e-09	-2.100005e+01	-3.108176e+02
2.680000e-06	-3.156755e-06	-5.054361e-09	-2.200654e+01	-3.315114e+02
2.690000e-06	-3.299917e-06	-5.353821e-09	-2.300455e+01	-3.510325e+02
2.700000e-06	-3.441847e-06	-5.636134e-09	-2.399398e+01	-3.694922e+02
2.710000e-06	-3.582438e-06	-5.904002e-09	-2.497408e+01	-3.869921e+02
2.720000e-06	-3.721585e-06	-6.159620e-09	-2.594411e+01	-4.036130e+02
2.730000e-06	-3.859321e-06	-6.402262e-09	-2.690431e+01	-4.194127e+02
2.740000e-06	-3.995605e-06	-6.632039e-09	-2.785437e+01	-4.344301e+02
2.750000e-06	-4.130463e-06	-6.851145e-09	-2.879450e+01	-4.486947e+02
2.760000e-06	-4.263902e-06	-7.061012e-09	-2.972474e+01	-4.622357e+02
2.770000e-06	-4.395817e-06	-7.259808e-09	-3.064435e+01	-4.750898e+02
2.780000e-06	-4.526203e-06	-7.447717e-09	-3.155331e+01	-4.873045e+02
2.790000e-06	-4.655084e-06	-7.626838e-09	-3.245177e+01	-4.989358e+02
2.800000e-06	-4.782381e-06	-7.797090e-09	-3.333919e+01	-5.100427e+02
2.810000e-06	-4.908012e-06	-7.958936e-09	-3.421499e+01	-5.206795e+02
2.820000e-06	-5.031864e-06	-8.114125e-09	-3.507840e+01	-5.308883e+02
2.830000e-06	-5.153963e-06	-8.263587e-09	-3.592958e+01	-5.406944e+02
2.840000e-06	-5.274253e-06	-8.405426e-09	-3.676815e+01	-5.501058e+02
2.850000e-06	-5.392498e-06	-8.540204e-09	-3.759246e+01	-5.591169e+02
2.860000e-06	-5.508530e-06	-8.671701e-09	-3.840136e+01	-5.677152e+02
2.870000e-06	-5.622291e-06	-8.798515e-09	-3.919441e+01	-5.758893e+02
2.880000e-06	-5.733813e-06	-8.918858e-09	-3.997186e+01	-5.836361e+02
2.890000e-06	-5.843211e-06	-9.033065e-09	-4.073450e+01	-5.909650e+02
2.900000e-06	-5.950636e-06	-9.140246e-09	-4.148339e+01	-5.978990e+02
2.910000e-06	-6.055973e-06	-9.240022e-09	-4.221772e+01	-6.044716e+02
2.920000e-06	-6.159047e-06	-9.333261e-09	-4.293628e+01	-6.107220e+02
2.930000e-06	-6.259802e-06	-9.425171e-09	-4.363866e+01	-6.166889e+02
2.940000e-06	-6.358287e-06	-9.514694e-09	-4.432523e+01	-6.224046e+02
