# Temperatura_=_42.29
# Concentracion g/m^3_=_15000.0
# C_Vs_to_Am_M_A/Vsm_=_65563218390.804596
# pendiente_HvsI_1/m_=_3716.3
# ordenada_HvsI_A/m_=_1297.0
# frecuencia_Hz_=_302363.7569497445

Tiempo_(s)	Campo_(V.s)	Magnetizacion_(V.s)	Campo_(kA/m)	Magnetizacion_(A/m)
0.000000e+00	-8.158091e-06	-8.876787e-09	-5.689530e+01	-5.806774e+02
1.000000e-08	-8.153480e-06	-8.874972e-09	-5.686314e+01	-5.805133e+02
2.000000e-08	-8.146253e-06	-8.868308e-09	-5.681274e+01	-5.802499e+02
3.000000e-08	-8.136235e-06	-8.859650e-09	-5.674287e+01	-5.798848e+02
4.000000e-08	-8.123290e-06	-8.851604e-09	-5.665259e+01	-5.794227e+02
5.000000e-08	-8.107427e-06	-8.844054e-09	-5.654196e+01	-5.788743e+02
6.000000e-08	-8.088925e-06	-8.835114e-09	-5.641293e+01	-5.782544e+02
7.000000e-08	-8.068115e-06	-8.825396e-09	-5.626779e+01	-5.775783e+02
8.000000e-08	-8.044691e-06	-8.827730e-09	-5.610444e+01	-5.768582e+02
9.000000e-08	-8.018130e-06	-8.844757e-09	-5.591919e+01	-5.761010e+02
1.000000e-07	-7.988382e-06	-8.824582e-09	-5.571173e+01	-5.753065e+02
1.100000e-07	-7.955626e-06	-8.785809e-09	-5.548329e+01	-5.744677e+02
1.200000e-07	-7.919970e-06	-8.758283e-09	-5.523462e+01	-5.735722e+02
1.300000e-07	-7.881760e-06	-8.731999e-09	-5.496814e+01	-5.726049e+02
1.400000e-07	-7.841165e-06	-8.707879e-09	-5.468503e+01	-5.715505e+02
1.500000e-07	-7.798186e-06	-8.688439e-09	-5.438528e+01	-5.703958e+02
1.600000e-07	-7.752679e-06	-8.697074e-09	-5.406792e+01	-5.691312e+02
1.700000e-07	-7.704267e-06	-8.664028e-09	-5.373029e+01	-5.677514e+02
1.800000e-07	-7.652853e-06	-8.624384e-09	-5.337172e+01	-5.662550e+02
1.900000e-07	-7.598536e-06	-8.629445e-09	-5.299291e+01	-5.646436e+02
2.000000e-07	-7.541382e-06	-8.568604e-09	-5.259431e+01	-5.629209e+02
2.100000e-07	-7.481563e-06	-8.529784e-09	-5.217713e+01	-5.610913e+02
2.200000e-07	-7.419159e-06	-8.520438e-09	-5.174191e+01	-5.591589e+02
2.300000e-07	-7.353961e-06	-8.487374e-09	-5.128722e+01	-5.571270e+02
2.400000e-07	-7.285905e-06	-8.462484e-09	-5.081258e+01	-5.549979e+02
2.500000e-07	-7.215124e-06	-8.431993e-09	-5.031895e+01	-5.527723e+02
2.600000e-07	-7.141469e-06	-8.406931e-09	-4.980528e+01	-5.504491e+02
2.700000e-07	-7.064965e-06	-8.349535e-09	-4.927173e+01	-5.480259e+02
2.800000e-07	-6.985723e-06	-8.306275e-09	-4.871909e+01	-5.454989e+02
2.900000e-07	-6.903811e-06	-8.270627e-09	-4.814783e+01	-5.428635e+02
3.000000e-07	-6.819456e-06	-8.231114e-09	-4.755953e+01	-5.401150e+02
3.100000e-07	-6.732712e-06	-8.191704e-09	-4.695457e+01	-5.372499e+02
3.200000e-07	-6.643493e-06	-8.138438e-09	-4.633234e+01	-5.342663e+02
3.300000e-07	-6.551868e-06	-8.098151e-09	-4.569334e+01	-5.311649e+02
3.400000e-07	-6.457896e-06	-8.046770e-09	-4.503797e+01	-5.279489e+02
3.500000e-07	-6.361541e-06	-7.988678e-09	-4.436599e+01	-5.246228e+02
3.600000e-07	-6.262839e-06	-7.933524e-09	-4.367763e+01	-5.211919e+02
3.700000e-07	-6.161892e-06	-7.884676e-09	-4.297361e+01	-5.176596e+02
3.800000e-07	-6.058712e-06	-7.832739e-09	-4.225403e+01	-5.140260e+02
3.900000e-07	-5.953315e-06	-7.777411e-09	-4.151898e+01	-5.102868e+02
4.000000e-07	-5.845870e-06	-7.723640e-09	-4.076965e+01	-5.064332e+02
4.100000e-07	-5.736468e-06	-7.655810e-09	-4.000667e+01	-5.024530e+02
4.200000e-07	-5.625004e-06	-7.586082e-09	-3.922930e+01	-4.983324e+02
4.300000e-07	-5.511355e-06	-7.517034e-09	-3.843671e+01	-4.940592e+02
4.400000e-07	-5.395564e-06	-7.450874e-09	-3.762917e+01	-4.896250e+02
4.500000e-07	-5.277744e-06	-7.383390e-09	-3.680748e+01	-4.850268e+02
4.600000e-07	-5.158042e-06	-7.314004e-09	-3.597267e+01	-4.802671e+02
4.700000e-07	-5.036530e-06	-7.238628e-09	-3.512524e+01	-4.753528e+02
4.800000e-07	-4.913124e-06	-7.157013e-09	-3.426459e+01	-4.702917e+02
4.900000e-07	-4.787908e-06	-7.072855e-09	-3.339132e+01	-4.650896e+02
5.000000e-07	-4.661019e-06	-6.990646e-09	-3.250638e+01	-4.597471e+02
5.100000e-07	-4.532449e-06	-6.909539e-09	-3.160972e+01	-4.542573e+02
5.200000e-07	-4.402136e-06	-6.827493e-09	-3.070091e+01	-4.486065e+02
5.300000e-07	-4.270112e-06	-6.741901e-09	-2.978017e+01	-4.427757e+02
5.400000e-07	-4.136592e-06	-6.647741e-09	-2.884898e+01	-4.367442e+02
5.500000e-07	-4.001562e-06	-6.548956e-09	-2.790727e+01	-4.304942e+02
5.600000e-07	-3.865031e-06	-6.444395e-09	-2.695509e+01	-4.240143e+02
5.700000e-07	-3.726988e-06	-6.338047e-09	-2.599237e+01	-4.173012e+02
5.800000e-07	-3.587309e-06	-6.229680e-09	-2.501823e+01	-4.103598e+02
5.900000e-07	-3.446158e-06	-6.124174e-09	-2.403383e+01	-4.032002e+02
6.000000e-07	-3.303626e-06	-6.016133e-09	-2.303980e+01	-3.958332e+02
6.100000e-07	-3.159755e-06	-5.898403e-09	-2.203643e+01	-3.882657e+02
6.200000e-07	-3.014658e-06	-5.777586e-09	-2.102451e+01	-3.804962e+02
6.300000e-07	-2.868419e-06	-5.655606e-09	-2.000463e+01	-3.725125e+02
6.400000e-07	-2.721261e-06	-5.531188e-09	-1.897833e+01	-3.642928e+02
6.500000e-07	-2.573243e-06	-5.400784e-09	-1.794604e+01	-3.558087e+02
6.600000e-07	-2.424397e-06	-5.267278e-09	-1.690797e+01	-3.470302e+02
6.700000e-07	-2.274817e-06	-5.128160e-09	-1.586479e+01	-3.379312e+02
6.800000e-07	-2.124383e-06	-4.980432e-09	-1.481565e+01	-3.284936e+02
6.900000e-07	-1.973102e-06	-4.830321e-09	-1.376060e+01	-3.187091e+02
7.000000e-07	-1.821209e-06	-4.677572e-09	-1.270128e+01	-3.085780e+02
7.100000e-07	-1.668795e-06	-4.518373e-09	-1.163833e+01	-2.981054e+02
7.200000e-07	-1.515812e-06	-4.352226e-09	-1.057142e+01	-2.872951e+02
7.300000e-07	-1.362222e-06	-4.183267e-09	-9.500265e+00	-2.761445e+02
7.400000e-07	-1.208120e-06	-4.009054e-09	-8.425546e+00	-2.646408e+02
7.500000e-07	-1.053625e-06	-3.825299e-09	-7.348079e+00	-2.527599e+02
7.600000e-07	-8.987310e-07	-3.635716e-09	-6.267835e+00	-2.404690e+02
7.700000e-07	-7.434452e-07	-3.442594e-09	-5.184857e+00	-2.277320e+02
7.800000e-07	-5.879069e-07	-3.242374e-09	-4.100118e+00	-2.145150e+02
7.900000e-07	-4.322178e-07	-3.034858e-09	-3.014328e+00	-2.007919e+02
8.000000e-07	-2.763694e-07	-2.820754e-09	-1.927426e+00	-1.865466e+02
8.100000e-07	-1.203812e-07	-2.596682e-09	-8.395501e-01	-1.717709e+02
8.200000e-07	3.568593e-08	-2.361240e-09	2.488770e-01	-1.564591e+02
8.300000e-07	1.917878e-07	-2.119025e-09	1.337546e+00	-1.405993e+02
8.400000e-07	3.478673e-07	-1.870483e-09	2.426059e+00	-1.241654e+02
8.500000e-07	5.038194e-07	-1.611576e-09	3.513684e+00	-1.071114e+02
8.600000e-07	6.596158e-07	-1.340455e-09	4.600222e+00	-8.937110e+01
8.700000e-07	8.152025e-07	-1.059173e-09	5.685299e+00	-7.086556e+01
8.800000e-07	9.705105e-07	-7.667913e-10	6.768432e+00	-5.151664e+01
8.900000e-07	1.125495e-06	-4.581525e-10	7.849310e+00	-3.126615e+01
9.000000e-07	1.280023e-06	-1.349178e-10	8.927003e+00	-1.009631e+01
9.100000e-07	1.434084e-06	2.006013e-10	1.000144e+01	1.195235e+01
9.200000e-07	1.587664e-06	5.479364e-10	1.107252e+01	3.477014e+01
9.300000e-07	1.740573e-06	9.052482e-10	1.213892e+01	5.817714e+01
9.400000e-07	1.892795e-06	1.266733e-09	1.320053e+01	8.193320e+01
9.500000e-07	2.044428e-06	1.629236e-09	1.425803e+01	1.057580e+02
9.600000e-07	2.195384e-06	1.989152e-09	1.531082e+01	1.293577e+02
9.700000e-07	2.345509e-06	2.340568e-09	1.635780e+01	1.524540e+02
9.800000e-07	2.494713e-06	2.679109e-09	1.739836e+01	1.748100e+02
9.900000e-07	2.642915e-06	3.002723e-09	1.843194e+01	1.962491e+02
1.000000e-06	2.790080e-06	3.311960e-09	1.945828e+01	2.166635e+02
1.010000e-06	2.936185e-06	3.606689e-09	2.047723e+01	2.360124e+02
1.020000e-06	3.081184e-06	3.883324e-09	2.148847e+01	2.543107e+02
1.030000e-06	3.225105e-06	4.142490e-09	2.249218e+01	2.716116e+02
1.040000e-06	3.367889e-06	4.390331e-09	2.348798e+01	2.879876e+02
1.050000e-06	3.509381e-06	4.628591e-09	2.447475e+01	3.035135e+02
1.060000e-06	3.649498e-06	4.854019e-09	2.545194e+01	3.182545e+02
1.070000e-06	3.788168e-06	5.064618e-09	2.641904e+01	3.322609e+02
1.080000e-06	3.925368e-06	5.264127e-09	2.737588e+01	3.455686e+02
1.090000e-06	4.061122e-06	5.454191e-09	2.832265e+01	3.582046e+02
1.100000e-06	4.195392e-06	5.635344e-09	2.925906e+01	3.701936e+02
1.110000e-06	4.328137e-06	5.807678e-09	3.018484e+01	3.815643e+02
1.120000e-06	4.459314e-06	5.971043e-09	3.109967e+01	3.923522e+02
1.130000e-06	4.588944e-06	6.127572e-09	3.200373e+01	4.025993e+02
1.140000e-06	4.717035e-06	6.277844e-09	3.289705e+01	4.123498e+02
1.150000e-06	4.843465e-06	6.422767e-09	3.377878e+01	4.216451e+02
1.160000e-06	4.968226e-06	6.560934e-09	3.464888e+01	4.305181e+02
1.170000e-06	5.091268e-06	6.690188e-09	3.550698e+01	4.389897e+02
1.180000e-06	5.212521e-06	6.811419e-09	3.635261e+01	4.470691e+02
1.190000e-06	5.331933e-06	6.925702e-09	3.718540e+01	4.547569e+02
1.200000e-06	5.449323e-06	7.034511e-09	3.800409e+01	4.620502e+02
1.210000e-06	5.564598e-06	7.138353e-09	3.880803e+01	4.689500e+02
1.220000e-06	5.677719e-06	7.236915e-09	3.959695e+01	4.754658e+02
1.230000e-06	5.788641e-06	7.331238e-09	4.037052e+01	4.816190e+02
1.240000e-06	5.897443e-06	7.421285e-09	4.112932e+01	4.874422e+02
1.250000e-06	6.004211e-06	7.507370e-09	4.187393e+01	4.929756e+02
1.260000e-06	6.108854e-06	7.588728e-09	4.260372e+01	4.982612e+02
1.270000e-06	6.211232e-06	7.664429e-09	4.331772e+01	5.033366e+02
1.280000e-06	6.311249e-06	7.736452e-09	4.401524e+01	5.082299e+02
1.290000e-06	6.408929e-06	7.806746e-09	4.469648e+01	5.129568e+02
1.300000e-06	6.504246e-06	7.875771e-09	4.536122e+01	5.175214e+02
1.310000e-06	6.597191e-06	7.943205e-09	4.600943e+01	5.219191e+02
1.320000e-06	6.687817e-06	8.007659e-09	4.664147e+01	5.261415e+02
1.330000e-06	6.776043e-06	8.068026e-09	4.725676e+01	5.301815e+02
1.340000e-06	6.861891e-06	8.125432e-09	4.785547e+01	5.340366e+02
1.350000e-06	6.945344e-06	8.180489e-09	4.843748e+01	5.377110e+02
1.360000e-06	7.026283e-06	8.232318e-09	4.900196e+01	5.412142e+02
1.370000e-06	7.104637e-06	8.282145e-09	4.954841e+01	5.445581e+02
1.380000e-06	7.180369e-06	8.330950e-09	5.007657e+01	5.477529e+02
1.390000e-06	7.253434e-06	8.377613e-09	5.058613e+01	5.508040e+02
1.400000e-06	7.323898e-06	8.421213e-09	5.107755e+01	5.537099e+02
1.410000e-06	7.391835e-06	8.462217e-09	5.155135e+01	5.564624e+02
1.420000e-06	7.457092e-06	8.501145e-09	5.200646e+01	5.590495e+02
1.430000e-06	7.519681e-06	8.538053e-09	5.244296e+01	5.614588e+02
1.440000e-06	7.579708e-06	8.571252e-09	5.286159e+01	5.636825e+02
1.450000e-06	7.637134e-06	8.600149e-09	5.326209e+01	5.657200e+02
1.460000e-06	7.691877e-06	8.626406e-09	5.364387e+01	5.675797e+02
1.470000e-06	7.743640e-06	8.651232e-09	5.400487e+01	5.692777e+02
1.480000e-06	7.792178e-06	8.676090e-09	5.434338e+01	5.708346e+02
1.490000e-06	7.837784e-06	8.699708e-09	5.466144e+01	5.722716e+02
1.500000e-06	7.880698e-06	8.721283e-09	5.496073e+01	5.736058e+02
1.510000e-06	7.920775e-06	8.739833e-09	5.524023e+01	5.748469e+02
1.520000e-06	7.958032e-06	8.754592e-09	5.550006e+01	5.759965e+02
1.530000e-06	7.992530e-06	8.768551e-09	5.574066e+01	5.770492e+02
1.540000e-06	8.024163e-06	8.783151e-09	5.596126e+01	5.779956e+02
1.550000e-06	8.052935e-06	8.796754e-09	5.616193e+01	5.788261e+02
1.560000e-06	8.078860e-06	8.808386e-09	5.634273e+01	5.795352e+02
1.570000e-06	8.101825e-06	8.818687e-09	5.650289e+01	5.801237e+02
1.580000e-06	8.121949e-06	8.827778e-09	5.664324e+01	5.805993e+02
1.590000e-06	8.139178e-06	8.834929e-09	5.676339e+01	5.809749e+02
1.600000e-06	8.153329e-06	8.839791e-09	5.686208e+01	5.812658e+02
1.610000e-06	8.164307e-06	8.843470e-09	5.693865e+01	5.814857e+02
1.620000e-06	8.172145e-06	8.847133e-09	5.699331e+01	5.816433e+02
1.630000e-06	8.177065e-06	8.850221e-09	5.702762e+01	5.817405e+02
1.640000e-06	8.179055e-06	8.852338e-09	5.704150e+01	5.817724e+02
1.650000e-06	8.178174e-06	8.852770e-09	5.703535e+01	5.817288e+02
1.660000e-06	8.174655e-06	8.848530e-09	5.701082e+01	5.815982e+02
1.670000e-06	8.168349e-06	8.844303e-09	5.696683e+01	5.813707e+02
1.680000e-06	8.159266e-06	8.840866e-09	5.690349e+01	5.810416e+02
1.690000e-06	8.147501e-06	8.835543e-09	5.682144e+01	5.806131e+02
1.700000e-06	8.132871e-06	8.831483e-09	5.671941e+01	5.800938e+02
1.710000e-06	8.115557e-06	8.827859e-09	5.659866e+01	5.794975e+02
1.720000e-06	8.095863e-06	8.819008e-09	5.646131e+01	5.788397e+02
1.730000e-06	8.073560e-06	8.787102e-09	5.630577e+01	5.781341e+02
1.740000e-06	8.048041e-06	8.745994e-09	5.612779e+01	5.773896e+02
1.750000e-06	8.018796e-06	8.752295e-09	5.592384e+01	5.766088e+02
1.760000e-06	7.986044e-06	8.755279e-09	5.569542e+01	5.757868e+02
1.770000e-06	7.950715e-06	8.749017e-09	5.544904e+01	5.749130e+02
1.780000e-06	7.913054e-06	8.752465e-09	5.518638e+01	5.739731e+02
1.790000e-06	7.873112e-06	8.759302e-09	5.490782e+01	5.729513e+02
1.800000e-06	7.831200e-06	8.712081e-09	5.461552e+01	5.718336e+02
1.810000e-06	7.786816e-06	8.667831e-09	5.430599e+01	5.706090e+02
1.820000e-06	7.739556e-06	8.694691e-09	5.397639e+01	5.692705e+02
1.830000e-06	7.689509e-06	8.645205e-09	5.362736e+01	5.678155e+02
1.840000e-06	7.636341e-06	8.649983e-09	5.325656e+01	5.662447e+02
1.850000e-06	7.580221e-06	8.628341e-09	5.286517e+01	5.645612e+02
1.860000e-06	7.521487e-06	8.577691e-09	5.245556e+01	5.627691e+02
1.870000e-06	7.459970e-06	8.571858e-09	5.202653e+01	5.608728e+02
1.880000e-06	7.395613e-06	8.519218e-09	5.157770e+01	5.588760e+02
1.890000e-06	7.328425e-06	8.508489e-09	5.110913e+01	5.567813e+02
1.900000e-06	7.258445e-06	8.446875e-09	5.062108e+01	5.545900e+02
1.910000e-06	7.185598e-06	8.414953e-09	5.011304e+01	5.523017e+02
1.920000e-06	7.109960e-06	8.396215e-09	4.958553e+01	5.499144e+02
1.930000e-06	7.031535e-06	8.354197e-09	4.903859e+01	5.474249e+02
1.940000e-06	6.950362e-06	8.338782e-09	4.847248e+01	5.448286e+02
1.950000e-06	6.866760e-06	8.270918e-09	4.788943e+01	5.421209e+02
1.960000e-06	6.780578e-06	8.235042e-09	4.728839e+01	5.392976e+02
1.970000e-06	6.691791e-06	8.181721e-09	4.666918e+01	5.363562e+02
1.980000e-06	6.600621e-06	8.133259e-09	4.603335e+01	5.332965e+02
1.990000e-06	6.507148e-06	8.101783e-09	4.538147e+01	5.301208e+02
2.000000e-06	6.411385e-06	8.051041e-09	4.471360e+01	5.268333e+02
2.010000e-06	6.313354e-06	8.001846e-09	4.402992e+01	5.234392e+02
2.020000e-06	6.213136e-06	7.935917e-09	4.333100e+01	5.199427e+02
2.030000e-06	6.110577e-06	7.884596e-09	4.261574e+01	5.163454e+02
2.040000e-06	6.005787e-06	7.824996e-09	4.188492e+01	5.126445e+02
2.050000e-06	5.898958e-06	7.775078e-09	4.113989e+01	5.088329e+02
2.060000e-06	5.790166e-06	7.716647e-09	4.038116e+01	5.048993e+02
2.070000e-06	5.679339e-06	7.655599e-09	3.960824e+01	5.008303e+02
2.080000e-06	5.566345e-06	7.589939e-09	3.882021e+01	4.966126e+02
2.090000e-06	5.451229e-06	7.517798e-09	3.801738e+01	4.922365e+02
2.100000e-06	5.334035e-06	7.445396e-09	3.720006e+01	4.876966e+02
2.110000e-06	5.214758e-06	7.374547e-09	3.636822e+01	4.829939e+02
2.120000e-06	5.093560e-06	7.306862e-09	3.552296e+01	4.781337e+02
2.130000e-06	4.970573e-06	7.231789e-09	3.466525e+01	4.731240e+02
2.140000e-06	4.845753e-06	7.161316e-09	3.379474e+01	4.679718e+02
2.150000e-06	4.719193e-06	7.083064e-09	3.291209e+01	4.626797e+02
2.160000e-06	4.590890e-06	6.995272e-09	3.201730e+01	4.572436e+02
2.170000e-06	4.460938e-06	6.899148e-09	3.111100e+01	4.516521e+02
2.180000e-06	4.329371e-06	6.808746e-09	3.019344e+01	4.458878e+02
2.190000e-06	4.196236e-06	6.719604e-09	2.926494e+01	4.399301e+02
2.200000e-06	4.061558e-06	6.630333e-09	2.832569e+01	4.337597e+02
2.210000e-06	3.925241e-06	6.539873e-09	2.737500e+01	4.273626e+02
2.220000e-06	3.787351e-06	6.444257e-09	2.641334e+01	4.207325e+02
2.230000e-06	3.647995e-06	6.338129e-09	2.544146e+01	4.138715e+02
2.240000e-06	3.507262e-06	6.225607e-09	2.445998e+01	4.067884e+02
2.250000e-06	3.365162e-06	6.116583e-09	2.346895e+01	3.994942e+02
2.260000e-06	3.221766e-06	6.006564e-09	2.246890e+01	3.919979e+02
2.270000e-06	3.077124e-06	5.888437e-09	2.146015e+01	3.843011e+02
2.280000e-06	2.931386e-06	5.763685e-09	2.044376e+01	3.763958e+02
2.290000e-06	2.784630e-06	5.638982e-09	1.942027e+01	3.682633e+02
2.300000e-06	2.636851e-06	5.509474e-09	1.838964e+01	3.598770e+02
2.310000e-06	2.488206e-06	5.376604e-09	1.735298e+01	3.512068e+02
2.320000e-06	2.338723e-06	5.242923e-09	1.631048e+01	3.422247e+02
2.330000e-06	2.188459e-06	5.104867e-09	1.526252e+01	3.329093e+02
2.340000e-06	2.037515e-06	4.959626e-09	1.420982e+01	3.232489e+02
2.350000e-06	1.885915e-06	4.810146e-09	1.315255e+01	3.132410e+02
2.360000e-06	1.733652e-06	4.654940e-09	1.209065e+01	3.028896e+02
2.370000e-06	1.580753e-06	4.488876e-09	1.102432e+01	2.921996e+02
2.380000e-06	1.427330e-06	4.316662e-09	9.954334e+00	2.811713e+02
2.390000e-06	1.273455e-06	4.143454e-09	8.881198e+00	2.697958e+02
2.400000e-06	1.119167e-06	3.966422e-09	7.805174e+00	2.580528e+02
2.410000e-06	9.644692e-07	3.781901e-09	6.726299e+00	2.459123e+02
2.420000e-06	8.093621e-07	3.589599e-09	5.644567e+00	2.333386e+02
2.430000e-06	6.539641e-07	3.391710e-09	4.560807e+00	2.202964e+02
2.440000e-06	4.983396e-07	3.184620e-09	3.475468e+00	2.067563e+02
2.450000e-06	3.424547e-07	2.967125e-09	2.388312e+00	1.926986e+02
2.460000e-06	1.863976e-07	2.744004e-09	1.299954e+00	1.781128e+02
2.470000e-06	3.028391e-08	2.514105e-09	2.112028e-01	1.629932e+02
2.480000e-06	-1.258066e-07	2.275499e-09	-8.773869e-01	1.473310e+02
2.490000e-06	-2.818564e-07	2.029079e-09	-1.965693e+00	1.311062e+02
2.500000e-06	-4.378269e-07	1.773212e-09	-3.053446e+00	1.142801e+02
2.510000e-06	-5.936988e-07	1.503745e-09	-4.140511e+00	9.679344e+01
2.520000e-06	-7.494411e-07	1.220213e-09	-5.226673e+00	7.857046e+01
2.530000e-06	-9.049561e-07	9.260032e-10	-6.311249e+00	5.953076e+01
2.540000e-06	-1.060102e-06	6.215583e-10	-7.393252e+00	3.960667e+01
2.550000e-06	-1.214743e-06	3.044002e-10	-8.471731e+00	1.876373e+01
2.560000e-06	-1.368854e-06	-2.420356e-11	-9.546515e+00	-2.980083e+00
2.570000e-06	-1.522451e-06	-3.637896e-10	-1.061772e+01	-2.554044e+01
2.580000e-06	-1.675542e-06	-7.160417e-10	-1.168539e+01	-4.876193e+01
2.590000e-06	-1.828084e-06	-1.078805e-09	-1.274923e+01	-7.242408e+01
2.600000e-06	-1.979884e-06	-1.446706e-09	-1.380790e+01	-9.625812e+01
2.610000e-06	-2.130846e-06	-1.813160e-09	-1.486072e+01	-1.199717e+02
2.620000e-06	-2.281011e-06	-2.171422e-09	-1.590798e+01	-1.432778e+02
2.630000e-06	-2.430315e-06	-2.517981e-09	-1.694925e+01	-1.659221e+02
2.640000e-06	-2.578760e-06	-2.849979e-09	-1.798451e+01	-1.877047e+02
2.650000e-06	-2.726325e-06	-3.167259e-09	-1.901365e+01	-2.084932e+02
2.660000e-06	-2.872834e-06	-3.468825e-09	-2.003542e+01	-2.282237e+02
2.670000e-06	-3.018239e-06	-3.753658e-09	-2.104948e+01	-2.468928e+02
2.680000e-06	-3.162527e-06	-4.024695e-09	-2.205576e+01	-2.645424e+02
2.690000e-06	-3.305548e-06	-4.281142e-09	-2.305320e+01	-2.812400e+02
2.700000e-06	-3.447267e-06	-4.524894e-09	-2.404156e+01	-2.970615e+02
2.710000e-06	-3.587691e-06	-4.756538e-09	-2.502090e+01	-3.120764e+02
2.720000e-06	-3.726705e-06	-4.978052e-09	-2.599039e+01	-3.263405e+02
2.730000e-06	-3.864297e-06	-5.189853e-09	-2.694997e+01	-3.398945e+02
2.740000e-06	-4.000524e-06	-5.389719e-09	-2.790003e+01	-3.527677e+02
2.750000e-06	-4.135290e-06	-5.576928e-09	-2.883990e+01	-3.649849e+02
2.760000e-06	-4.268596e-06	-5.750812e-09	-2.976959e+01	-3.765729e+02
2.770000e-06	-4.400394e-06	-5.914422e-09	-3.068877e+01	-3.875646e+02
2.780000e-06	-4.530666e-06	-6.070983e-09	-3.159729e+01	-3.979999e+02
2.790000e-06	-4.659417e-06	-6.222337e-09	-3.249521e+01	-4.079228e+02
2.800000e-06	-4.786510e-06	-6.369873e-09	-3.338157e+01	-4.173766e+02
2.810000e-06	-4.911984e-06	-6.510784e-09	-3.425664e+01	-4.263974e+02
2.820000e-06	-5.035739e-06	-6.644393e-09	-3.511971e+01	-4.350109e+02
2.830000e-06	-5.157706e-06	-6.771717e-09	-3.597033e+01	-4.432302e+02
2.840000e-06	-5.277776e-06	-6.891164e-09	-3.680771e+01	-4.510582e+02
2.850000e-06	-5.395792e-06	-7.002883e-09	-3.763076e+01	-4.584928e+02
2.860000e-06	-5.511692e-06	-7.108724e-09	-3.843906e+01	-4.655327e+02
2.870000e-06	-5.625268e-06	-7.210003e-09	-3.923115e+01	-4.721840e+02
2.880000e-06	-5.736558e-06	-7.307378e-09	-4.000730e+01	-4.784636e+02
2.890000e-06	-5.845783e-06	-7.400838e-09	-4.076904e+01	-4.844005e+02
2.900000e-06	-5.953016e-06	-7.488583e-09	-4.151689e+01	-4.900326e+02
2.910000e-06	-6.058221e-06	-7.571827e-09	-4.225061e+01	-4.954022e+02
2.920000e-06	-6.161237e-06	-7.650764e-09	-4.296905e+01	-5.005491e+02
2.930000e-06	-6.261870e-06	-7.728355e-09	-4.367087e+01	-5.055051e+02
2.940000e-06	-6.360200e-06	-7.803136e-09	-4.435664e+01	-5.102905e+02
