# Temperatura_=_47.75
# Concentracion g/m^3_=_15000.0
# C_Vs_to_Am_M_A/Vsm_=_65563218390.804596
# pendiente_HvsI_1/m_=_3716.3
# ordenada_HvsI_A/m_=_1297.0
# frecuencia_Hz_=_302363.1688870545

Tiempo_(s)	Campo_(V.s)	Magnetizacion_(V.s)	Campo_(kA/m)	Magnetizacion_(A/m)
0.000000e+00	-8.134979e-06	-9.139777e-09	-5.689490e+01	-5.977763e+02
1.000000e-08	-8.130129e-06	-9.139503e-09	-5.686098e+01	-5.975632e+02
2.000000e-08	-8.122744e-06	-9.133294e-09	-5.680933e+01	-5.972405e+02
3.000000e-08	-8.112506e-06	-9.125485e-09	-5.673772e+01	-5.968099e+02
4.000000e-08	-8.099315e-06	-9.116371e-09	-5.664547e+01	-5.962796e+02
5.000000e-08	-8.083195e-06	-9.105376e-09	-5.653272e+01	-5.956626e+02
6.000000e-08	-8.064483e-06	-9.090608e-09	-5.640186e+01	-5.949742e+02
7.000000e-08	-8.043475e-06	-9.073318e-09	-5.625493e+01	-5.942284e+02
8.000000e-08	-8.019820e-06	-9.089086e-09	-5.608949e+01	-5.934357e+02
9.000000e-08	-7.993040e-06	-9.114879e-09	-5.590220e+01	-5.926011e+02
1.000000e-07	-7.963043e-06	-9.076905e-09	-5.569240e+01	-5.917236e+02
1.100000e-07	-7.930024e-06	-9.033725e-09	-5.546147e+01	-5.907973e+02
1.200000e-07	-7.894192e-06	-9.011258e-09	-5.521087e+01	-5.898127e+02
1.300000e-07	-7.855850e-06	-8.983440e-09	-5.494271e+01	-5.887590e+02
1.400000e-07	-7.815122e-06	-8.950714e-09	-5.465786e+01	-5.876254e+02
1.500000e-07	-7.772006e-06	-8.953851e-09	-5.435632e+01	-5.864026e+02
1.600000e-07	-7.726337e-06	-8.969035e-09	-5.403691e+01	-5.850828e+02
1.700000e-07	-7.677784e-06	-8.879366e-09	-5.369734e+01	-5.836596e+02
1.800000e-07	-7.626276e-06	-8.873661e-09	-5.333710e+01	-5.821277e+02
1.900000e-07	-7.571890e-06	-8.876155e-09	-5.295673e+01	-5.804823e+02
2.000000e-07	-7.514665e-06	-8.792497e-09	-5.255651e+01	-5.787195e+02
2.100000e-07	-7.454748e-06	-8.791965e-09	-5.213746e+01	-5.768366e+02
2.200000e-07	-7.392212e-06	-8.780951e-09	-5.170009e+01	-5.748325e+02
2.300000e-07	-7.326933e-06	-8.747662e-09	-5.124354e+01	-5.727087e+02
2.400000e-07	-7.258813e-06	-8.694922e-09	-5.076712e+01	-5.704688e+02
2.500000e-07	-7.187925e-06	-8.664956e-09	-5.027133e+01	-5.681183e+02
2.600000e-07	-7.114155e-06	-8.637458e-09	-4.975540e+01	-5.656635e+02
2.700000e-07	-7.037503e-06	-8.570789e-09	-4.921931e+01	-5.631094e+02
2.800000e-07	-6.958044e-06	-8.532782e-09	-4.866358e+01	-5.604587e+02
2.900000e-07	-6.875948e-06	-8.497933e-09	-4.808941e+01	-5.577107e+02
3.000000e-07	-6.791603e-06	-8.464710e-09	-4.749952e+01	-5.548610e+02
3.100000e-07	-6.704953e-06	-8.411679e-09	-4.689350e+01	-5.519026e+02
3.200000e-07	-6.615824e-06	-8.354855e-09	-4.627014e+01	-5.488279e+02
3.300000e-07	-6.524247e-06	-8.320404e-09	-4.562966e+01	-5.456301e+02
3.400000e-07	-6.430321e-06	-8.268149e-09	-4.497276e+01	-5.423054e+02
3.500000e-07	-6.334014e-06	-8.211944e-09	-4.429920e+01	-5.388536e+02
3.600000e-07	-6.235370e-06	-8.154727e-09	-4.360930e+01	-5.352778e+02
3.700000e-07	-6.134514e-06	-8.100763e-09	-4.290393e+01	-5.315831e+02
3.800000e-07	-6.031409e-06	-8.038067e-09	-4.218283e+01	-5.277738e+02
3.900000e-07	-5.926103e-06	-7.978161e-09	-4.144633e+01	-5.238520e+02
4.000000e-07	-5.818779e-06	-7.926316e-09	-4.069572e+01	-5.198151e+02
4.100000e-07	-5.709524e-06	-7.860672e-09	-3.993161e+01	-5.156558e+02
4.200000e-07	-5.598191e-06	-7.794354e-09	-3.915296e+01	-5.113629e+02
4.300000e-07	-5.484630e-06	-7.723295e-09	-3.835873e+01	-5.069235e+02
4.400000e-07	-5.368892e-06	-7.651718e-09	-3.754927e+01	-5.023257e+02
4.500000e-07	-5.251140e-06	-7.576542e-09	-3.672573e+01	-4.975610e+02
4.600000e-07	-5.131508e-06	-7.500067e-09	-3.588904e+01	-4.926260e+02
4.700000e-07	-5.010080e-06	-7.422157e-09	-3.503979e+01	-4.875226e+02
4.800000e-07	-4.886831e-06	-7.342918e-09	-3.417781e+01	-4.822556e+02
4.900000e-07	-4.761825e-06	-7.261966e-09	-3.330353e+01	-4.768310e+02
5.000000e-07	-4.635208e-06	-7.173060e-09	-3.241800e+01	-4.712523e+02
5.100000e-07	-4.506890e-06	-7.081648e-09	-3.152056e+01	-4.655179e+02
5.200000e-07	-4.376871e-06	-6.993231e-09	-3.061122e+01	-4.596202e+02
5.300000e-07	-4.245156e-06	-6.905015e-09	-2.969003e+01	-4.535462e+02
5.400000e-07	-4.111855e-06	-6.806945e-09	-2.875774e+01	-4.472796e+02
5.500000e-07	-3.977128e-06	-6.703993e-09	-2.781547e+01	-4.408043e+02
5.600000e-07	-3.840863e-06	-6.600521e-09	-2.686245e+01	-4.341075e+02
5.700000e-07	-3.703017e-06	-6.491997e-09	-2.589838e+01	-4.271821e+02
5.800000e-07	-3.563656e-06	-6.379405e-09	-2.492371e+01	-4.200272e+02
5.900000e-07	-3.422807e-06	-6.267865e-09	-2.393863e+01	-4.126464e+02
6.000000e-07	-3.280535e-06	-6.155833e-09	-2.294360e+01	-4.050448e+02
6.100000e-07	-3.136977e-06	-6.037042e-09	-2.193957e+01	-3.972249e+02
6.200000e-07	-2.992184e-06	-5.915242e-09	-2.092692e+01	-3.891832e+02
6.300000e-07	-2.846273e-06	-5.791343e-09	-1.990643e+01	-3.809083e+02
6.400000e-07	-2.699398e-06	-5.658631e-09	-1.887921e+01	-3.723808e+02
6.500000e-07	-2.551659e-06	-5.516055e-09	-1.784595e+01	-3.635762e+02
6.600000e-07	-2.403155e-06	-5.372540e-09	-1.680733e+01	-3.544690e+02
6.700000e-07	-2.253886e-06	-5.229623e-09	-1.576336e+01	-3.450368e+02
6.800000e-07	-2.103828e-06	-5.081134e-09	-1.471387e+01	-3.352642e+02
6.900000e-07	-1.953049e-06	-4.928119e-09	-1.365935e+01	-3.251438e+02
7.000000e-07	-1.801550e-06	-4.769193e-09	-1.259979e+01	-3.146752e+02
7.100000e-07	-1.649363e-06	-4.604071e-09	-1.153541e+01	-3.038610e+02
7.200000e-07	-1.496660e-06	-4.432935e-09	-1.046743e+01	-2.927021e+02
7.300000e-07	-1.343535e-06	-4.258443e-09	-9.396497e+00	-2.811924e+02
7.400000e-07	-1.189977e-06	-4.076500e-09	-8.322532e+00	-2.693157e+02
7.500000e-07	-1.035926e-06	-3.885597e-09	-7.245123e+00	-2.570454e+02
7.600000e-07	-8.814136e-07	-3.691211e-09	-6.164483e+00	-2.443469e+02
7.700000e-07	-7.265466e-07	-3.490210e-09	-5.081365e+00	-2.311828e+02
7.800000e-07	-5.714189e-07	-3.281139e-09	-3.996424e+00	-2.175183e+02
7.900000e-07	-4.161059e-07	-3.066750e-09	-2.910186e+00	-2.033263e+02
8.000000e-07	-2.606310e-07	-2.846997e-09	-1.822817e+00	-1.885886e+02
8.100000e-07	-1.050265e-07	-2.617329e-09	-7.345405e-01	-1.732945e+02
8.200000e-07	5.065361e-08	-2.376225e-09	3.542642e-01	-1.574342e+02
8.300000e-07	2.063413e-07	-2.127051e-09	1.443122e+00	-1.409913e+02
8.400000e-07	3.620299e-07	-1.869689e-09	2.531986e+00	-1.239347e+02
8.500000e-07	5.176090e-07	-1.599050e-09	3.620085e+00	-1.062139e+02
8.600000e-07	6.730019e-07	-1.314341e-09	4.706881e+00	-8.776017e+01
8.700000e-07	8.282243e-07	-1.020042e-09	5.792484e+00	-6.849420e+01
8.800000e-07	9.831061e-07	-7.127252e-10	6.875706e+00	-4.834124e+01
8.900000e-07	1.137596e-06	-3.906827e-10	7.956189e+00	-2.725044e+01
9.000000e-07	1.291692e-06	-5.674867e-11	9.033911e+00	-5.215477e+00
9.100000e-07	1.445266e-06	2.881182e-10	1.010798e+01	1.770811e+01
9.200000e-07	1.598299e-06	6.457779e-10	1.117828e+01	4.139304e+01
9.300000e-07	1.750797e-06	1.016336e-09	1.224483e+01	6.564072e+01
9.400000e-07	1.902645e-06	1.392011e-09	1.330683e+01	9.019303e+01
9.500000e-07	2.053779e-06	1.768014e-09	1.436384e+01	1.147540e+02
9.600000e-07	2.204183e-06	2.139683e-09	1.541575e+01	1.390183e+02
9.700000e-07	2.353711e-06	2.501909e-09	1.646152e+01	1.627009e+02
9.800000e-07	2.502299e-06	2.849401e-09	1.750073e+01	1.855636e+02
9.900000e-07	2.650014e-06	3.179409e-09	1.853383e+01	2.074338e+02
1.000000e-06	2.796738e-06	3.492763e-09	1.955999e+01	2.282119e+02
1.010000e-06	2.942370e-06	3.790334e-09	2.057852e+01	2.478680e+02
1.020000e-06	3.086988e-06	4.070835e-09	2.158996e+01	2.664290e+02
1.030000e-06	3.230443e-06	4.335855e-09	2.259326e+01	2.839598e+02
1.040000e-06	3.372577e-06	4.589794e-09	2.358733e+01	3.005424e+02
1.050000e-06	3.513432e-06	4.831211e-09	2.457245e+01	3.162587e+02
1.060000e-06	3.652956e-06	5.057648e-09	2.554826e+01	3.311776e+02
1.070000e-06	3.791025e-06	5.272066e-09	2.651389e+01	3.453508e+02
1.080000e-06	3.927678e-06	5.476014e-09	2.746963e+01	3.588134e+02
1.090000e-06	4.062897e-06	5.667904e-09	2.841533e+01	3.715912e+02
1.100000e-06	4.196603e-06	5.848787e-09	2.935045e+01	3.837078e+02
1.110000e-06	4.328864e-06	6.021290e-09	3.027547e+01	3.951919e+02
1.120000e-06	4.459572e-06	6.186803e-09	3.118962e+01	4.060809e+02
1.130000e-06	4.588657e-06	6.346310e-09	3.209242e+01	4.164201e+02
1.140000e-06	4.716123e-06	6.499145e-09	3.298390e+01	4.262587e+02
1.150000e-06	4.841993e-06	6.645504e-09	3.386422e+01	4.356432e+02
1.160000e-06	4.966268e-06	6.785289e-09	3.473338e+01	4.446111e+02
1.170000e-06	5.088735e-06	6.916805e-09	3.558990e+01	4.531866e+02
1.180000e-06	5.209347e-06	7.040648e-09	3.643344e+01	4.613803e+02
1.190000e-06	5.328123e-06	7.158061e-09	3.726414e+01	4.691916e+02
1.200000e-06	5.444940e-06	7.268984e-09	3.808114e+01	4.766146e+02
1.210000e-06	5.559674e-06	7.372041e-09	3.888358e+01	4.836457e+02
1.220000e-06	5.672233e-06	7.471019e-09	3.967080e+01	4.902895e+02
1.230000e-06	5.782706e-06	7.567664e-09	4.044343e+01	4.965628e+02
1.240000e-06	5.891197e-06	7.660617e-09	4.120220e+01	5.024953e+02
1.250000e-06	5.997537e-06	7.748345e-09	4.194593e+01	5.081262e+02
1.260000e-06	6.101628e-06	7.830843e-09	4.267393e+01	5.134988e+02
1.270000e-06	6.203529e-06	7.908120e-09	4.338661e+01	5.186538e+02
1.280000e-06	6.303137e-06	7.981910e-09	4.408325e+01	5.236239e+02
1.290000e-06	6.400368e-06	8.054731e-09	4.476328e+01	5.284294e+02
1.300000e-06	6.495206e-06	8.126172e-09	4.542656e+01	5.330784e+02
1.310000e-06	6.587705e-06	8.195544e-09	4.607348e+01	5.375688e+02
1.320000e-06	6.677856e-06	8.260986e-09	4.670398e+01	5.418922e+02
1.330000e-06	6.765612e-06	8.322987e-09	4.731774e+01	5.460393e+02
1.340000e-06	6.851014e-06	8.381744e-09	4.791503e+01	5.500039e+02
1.350000e-06	6.933989e-06	8.437646e-09	4.849534e+01	5.537851e+02
1.360000e-06	7.014478e-06	8.491651e-09	4.905827e+01	5.573875e+02
1.370000e-06	7.092435e-06	8.543968e-09	4.960349e+01	5.608191e+02
1.380000e-06	7.167712e-06	8.595076e-09	5.012997e+01	5.640886e+02
1.390000e-06	7.240322e-06	8.644109e-09	5.063780e+01	5.672021e+02
1.400000e-06	7.310405e-06	8.688738e-09	5.112794e+01	5.701611e+02
1.410000e-06	7.377925e-06	8.728232e-09	5.160017e+01	5.729622e+02
1.420000e-06	7.442763e-06	8.764651e-09	5.205364e+01	5.755987e+02
1.430000e-06	7.504971e-06	8.800888e-09	5.248871e+01	5.780634e+02
1.440000e-06	7.564616e-06	8.835014e-09	5.290586e+01	5.803512e+02
1.450000e-06	7.621650e-06	8.865964e-09	5.330474e+01	5.824624e+02
1.460000e-06	7.675902e-06	8.894647e-09	5.368418e+01	5.844030e+02
1.470000e-06	7.727025e-06	8.921309e-09	5.404173e+01	5.861842e+02
1.480000e-06	7.775035e-06	8.947011e-09	5.437750e+01	5.878207e+02
1.490000e-06	7.820269e-06	8.970214e-09	5.469386e+01	5.893268e+02
1.500000e-06	7.862800e-06	8.989314e-09	5.499132e+01	5.907142e+02
1.510000e-06	7.902475e-06	9.005720e-09	5.526879e+01	5.919897e+02
1.520000e-06	7.939344e-06	9.020588e-09	5.552666e+01	5.931549e+02
1.530000e-06	7.973437e-06	9.036203e-09	5.576510e+01	5.942071e+02
1.540000e-06	8.004673e-06	9.051546e-09	5.598356e+01	5.951423e+02
1.550000e-06	8.033116e-06	9.064141e-09	5.618248e+01	5.959579e+02
1.560000e-06	8.058637e-06	9.074441e-09	5.636097e+01	5.966547e+02
1.570000e-06	8.081174e-06	9.083771e-09	5.651860e+01	5.972384e+02
1.580000e-06	8.100911e-06	9.093163e-09	5.665663e+01	5.977190e+02
1.590000e-06	8.117737e-06	9.101330e-09	5.677431e+01	5.981088e+02
1.600000e-06	8.131527e-06	9.107633e-09	5.687076e+01	5.984196e+02
1.610000e-06	8.142135e-06	9.111101e-09	5.694494e+01	5.986594e+02
1.620000e-06	8.149580e-06	9.113619e-09	5.699701e+01	5.988309e+02
1.630000e-06	8.154198e-06	9.115396e-09	5.702931e+01	5.989304e+02
1.640000e-06	8.155941e-06	9.116390e-09	5.704150e+01	5.989495e+02
1.650000e-06	8.154798e-06	9.115703e-09	5.703351e+01	5.988767e+02
1.660000e-06	8.150988e-06	9.109425e-09	5.700686e+01	5.987019e+02
1.670000e-06	8.144431e-06	9.107373e-09	5.696100e+01	5.984182e+02
1.680000e-06	8.135130e-06	9.105254e-09	5.689596e+01	5.980253e+02
1.690000e-06	8.123063e-06	9.099379e-09	5.681156e+01	5.975291e+02
1.700000e-06	8.108118e-06	9.093454e-09	5.670704e+01	5.969412e+02
1.710000e-06	8.090597e-06	9.088238e-09	5.658449e+01	5.962763e+02
1.720000e-06	8.070746e-06	9.077682e-09	5.644566e+01	5.955494e+02
1.730000e-06	8.048282e-06	9.022135e-09	5.628855e+01	5.947724e+02
1.740000e-06	8.022523e-06	8.984628e-09	5.610840e+01	5.939523e+02
1.750000e-06	7.992957e-06	9.008890e-09	5.590162e+01	5.930904e+02
1.760000e-06	7.959987e-06	9.007582e-09	5.567103e+01	5.921822e+02
1.770000e-06	7.924555e-06	8.996928e-09	5.542322e+01	5.912195e+02
1.780000e-06	7.886823e-06	9.013390e-09	5.515933e+01	5.901915e+02
1.790000e-06	7.846783e-06	9.005677e-09	5.487929e+01	5.890874e+02
1.800000e-06	7.804721e-06	8.912532e-09	5.458512e+01	5.878973e+02
1.810000e-06	7.760154e-06	8.924445e-09	5.427343e+01	5.866127e+02
1.820000e-06	7.712721e-06	8.924754e-09	5.394168e+01	5.852269e+02
1.830000e-06	7.662526e-06	8.869577e-09	5.359063e+01	5.837341e+02
1.840000e-06	7.609224e-06	8.914642e-09	5.321784e+01	5.821295e+02
1.850000e-06	7.552977e-06	8.841139e-09	5.282446e+01	5.804088e+02
1.860000e-06	7.494083e-06	8.806714e-09	5.241256e+01	5.785688e+02
1.870000e-06	7.432465e-06	8.773540e-09	5.198161e+01	5.766078e+02
1.880000e-06	7.368072e-06	8.744794e-09	5.153126e+01	5.745262e+02
1.890000e-06	7.300824e-06	8.761586e-09	5.106093e+01	5.723270e+02
1.900000e-06	7.230696e-06	8.668482e-09	5.057047e+01	5.700151e+02
1.910000e-06	7.157705e-06	8.656763e-09	5.005998e+01	5.675967e+02
1.920000e-06	7.082032e-06	8.609922e-09	4.953073e+01	5.650774e+02
1.930000e-06	7.003585e-06	8.568905e-09	4.898209e+01	5.624609e+02
1.940000e-06	6.922405e-06	8.550209e-09	4.841432e+01	5.597477e+02
1.950000e-06	6.838779e-06	8.488680e-09	4.782946e+01	5.569348e+02
1.960000e-06	6.752572e-06	8.470717e-09	4.722654e+01	5.540159e+02
1.970000e-06	6.663762e-06	8.391317e-09	4.660542e+01	5.509834e+02
1.980000e-06	6.572622e-06	8.350422e-09	4.596799e+01	5.478300e+02
1.990000e-06	6.479203e-06	8.306673e-09	4.531463e+01	5.445506e+02
2.000000e-06	6.383450e-06	8.256538e-09	4.464495e+01	5.411438e+02
2.010000e-06	6.285437e-06	8.202008e-09	4.395946e+01	5.376116e+02
2.020000e-06	6.185184e-06	8.139368e-09	4.325831e+01	5.339585e+02
2.030000e-06	6.082628e-06	8.093702e-09	4.254105e+01	5.301895e+02
2.040000e-06	5.977893e-06	8.027813e-09	4.180854e+01	5.263078e+02
2.050000e-06	5.871187e-06	7.974882e-09	4.106226e+01	5.223123e+02
2.060000e-06	5.762505e-06	7.900149e-09	4.030215e+01	5.181976e+02
2.070000e-06	5.651744e-06	7.837361e-09	3.952750e+01	5.139537e+02
2.080000e-06	5.538905e-06	7.771800e-09	3.873832e+01	5.095679e+02
2.090000e-06	5.423946e-06	7.710588e-09	3.793431e+01	5.050276e+02
2.100000e-06	5.306853e-06	7.639319e-09	3.711538e+01	5.003230e+02
2.110000e-06	5.187675e-06	7.564598e-09	3.628187e+01	4.954487e+02
2.120000e-06	5.066617e-06	7.485356e-09	3.543520e+01	4.904048e+02
2.130000e-06	4.943839e-06	7.396213e-09	3.457651e+01	4.851953e+02
2.140000e-06	4.819245e-06	7.319014e-09	3.370512e+01	4.798262e+02
2.150000e-06	4.692895e-06	7.244376e-09	3.282145e+01	4.743022e+02
2.160000e-06	4.564824e-06	7.165021e-09	3.192573e+01	4.686237e+02
2.170000e-06	4.435076e-06	7.070017e-09	3.101830e+01	4.627854e+02
2.180000e-06	4.303740e-06	6.979004e-09	3.009975e+01	4.567759e+02
2.190000e-06	4.170839e-06	6.881586e-09	2.917026e+01	4.505798e+02
2.200000e-06	4.036336e-06	6.782676e-09	2.822956e+01	4.441806e+02
2.210000e-06	3.900274e-06	6.681811e-09	2.727797e+01	4.375638e+02
2.220000e-06	3.762674e-06	6.583982e-09	2.631562e+01	4.307203e+02
2.230000e-06	3.623633e-06	6.478262e-09	2.534318e+01	4.236469e+02
2.240000e-06	3.483223e-06	6.365384e-09	2.436117e+01	4.163459e+02
2.250000e-06	3.341466e-06	6.253890e-09	2.336974e+01	4.088225e+02
2.260000e-06	3.198474e-06	6.138629e-09	2.236968e+01	4.010803e+02
2.270000e-06	3.054154e-06	6.013845e-09	2.136033e+01	3.931186e+02
2.280000e-06	2.908630e-06	5.883230e-09	2.034255e+01	3.849286e+02
2.290000e-06	2.762108e-06	5.757448e-09	1.931780e+01	3.764937e+02
2.300000e-06	2.614704e-06	5.629764e-09	1.828687e+01	3.677908e+02
2.310000e-06	2.466407e-06	5.495879e-09	1.724970e+01	3.587943e+02
2.320000e-06	2.317270e-06	5.352628e-09	1.620666e+01	3.494802e+02
2.330000e-06	2.167406e-06	5.201848e-09	1.515853e+01	3.398302e+02
2.340000e-06	2.016823e-06	5.046686e-09	1.410537e+01	3.298342e+02
2.350000e-06	1.865525e-06	4.892899e-09	1.304722e+01	3.194895e+02
2.360000e-06	1.713525e-06	4.737581e-09	1.198415e+01	3.087982e+02
2.370000e-06	1.560975e-06	4.572659e-09	1.091724e+01	2.977624e+02
2.380000e-06	1.407966e-06	4.398339e-09	9.847118e+00	2.863791e+02
2.390000e-06	1.254481e-06	4.215978e-09	8.773666e+00	2.746357e+02
2.400000e-06	1.100596e-06	4.027032e-09	7.697414e+00	2.625094e+02
2.410000e-06	9.463754e-07	3.833381e-09	6.618816e+00	2.499680e+02
2.420000e-06	7.917805e-07	3.637127e-09	5.537601e+00	2.369742e+02
2.430000e-06	6.368713e-07	3.436704e-09	4.454189e+00	2.234918e+02
2.440000e-06	4.817586e-07	3.224692e-09	3.369352e+00	2.094905e+02
2.450000e-06	3.265276e-07	3.002067e-09	2.283688e+00	1.949491e+02
2.460000e-06	1.711103e-07	2.771431e-09	1.196721e+00	1.798545e+02
2.470000e-06	1.550410e-08	2.529672e-09	1.084335e-01	1.641975e+02
2.480000e-06	-1.400918e-07	2.278920e-09	-9.797824e-01	1.479651e+02
2.490000e-06	-2.956058e-07	2.021308e-09	-2.067426e+00	1.311323e+02
2.500000e-06	-4.510319e-07	1.754461e-09	-3.154454e+00	1.136555e+02
2.510000e-06	-6.063292e-07	1.474854e-09	-4.240581e+00	9.547215e+01
2.520000e-06	-7.614474e-07	1.183645e-09	-5.325456e+00	7.650524e+01
2.530000e-06	-9.163491e-07	8.819237e-10	-6.408816e+00	5.667638e+01
2.540000e-06	-1.070968e-06	5.659757e-10	-7.490197e+00	3.592377e+01
2.550000e-06	-1.225165e-06	2.346022e-10	-8.568635e+00	1.422294e+01
2.560000e-06	-1.378856e-06	-1.088484e-10	-9.643526e+00	-8.394270e+00
2.570000e-06	-1.532010e-06	-4.638090e-10	-1.071467e+01	-3.182673e+01
2.580000e-06	-1.684613e-06	-8.318048e-10	-1.178195e+01	-5.590056e+01
2.590000e-06	-1.836654e-06	-1.208649e-09	-1.284530e+01	-8.037684e+01
2.600000e-06	-1.987995e-06	-1.586625e-09	-1.390375e+01	-1.049702e+02
2.610000e-06	-2.138498e-06	-1.962105e-09	-1.495636e+01	-1.293750e+02
2.620000e-06	-2.288145e-06	-2.329061e-09	-1.600296e+01	-1.532958e+02
2.630000e-06	-2.437001e-06	-2.682525e-09	-1.704404e+01	-1.764750e+02
2.640000e-06	-2.585029e-06	-3.020384e-09	-1.807933e+01	-1.987152e+02
2.650000e-06	-2.732095e-06	-3.341784e-09	-1.910788e+01	-2.198903e+02
2.660000e-06	-2.878078e-06	-3.648335e-09	-2.012887e+01	-2.399469e+02
2.670000e-06	-3.023007e-06	-3.939456e-09	-2.114248e+01	-2.588933e+02
2.680000e-06	-3.166833e-06	-4.215940e-09	-2.214838e+01	-2.767833e+02
2.690000e-06	-3.309312e-06	-4.476549e-09	-2.314486e+01	-2.936950e+02
2.700000e-06	-3.450453e-06	-4.721918e-09	-2.413198e+01	-3.097122e+02
2.710000e-06	-3.590326e-06	-4.955267e-09	-2.511023e+01	-3.249092e+02
2.720000e-06	-3.728852e-06	-5.178677e-09	-2.607907e+01	-3.393441e+02
2.730000e-06	-3.865995e-06	-5.391314e-09	-2.703823e+01	-3.530575e+02
2.740000e-06	-4.001707e-06	-5.592917e-09	-2.798737e+01	-3.660774e+02
2.750000e-06	-4.135913e-06	-5.782414e-09	-2.892600e+01	-3.784274e+02
2.760000e-06	-4.268723e-06	-5.959312e-09	-2.985485e+01	-3.901338e+02
2.770000e-06	-4.400069e-06	-6.125754e-09	-3.077346e+01	-4.012307e+02
2.780000e-06	-4.529903e-06	-6.283854e-09	-3.168151e+01	-4.117609e+02
2.790000e-06	-4.658240e-06	-6.435471e-09	-3.257908e+01	-4.217729e+02
2.800000e-06	-4.784844e-06	-6.582069e-09	-3.346453e+01	-4.313149e+02
2.810000e-06	-4.909807e-06	-6.722576e-09	-3.433850e+01	-4.404282e+02
2.820000e-06	-5.033143e-06	-6.857937e-09	-3.520109e+01	-4.491422e+02
2.830000e-06	-5.154616e-06	-6.987294e-09	-3.605066e+01	-4.574721e+02
2.840000e-06	-5.274099e-06	-7.108406e-09	-3.688631e+01	-4.654207e+02
2.850000e-06	-5.391521e-06	-7.223180e-09	-3.770754e+01	-4.729832e+02
2.860000e-06	-5.506808e-06	-7.331996e-09	-3.851384e+01	-4.801545e+02
2.870000e-06	-5.619844e-06	-7.434808e-09	-3.930440e+01	-4.869356e+02
2.880000e-06	-5.730700e-06	-7.532262e-09	-4.007971e+01	-4.933387e+02
2.890000e-06	-5.839518e-06	-7.626340e-09	-4.084077e+01	-4.993890e+02
2.900000e-06	-5.946367e-06	-7.716307e-09	-4.158806e+01	-5.051229e+02
2.910000e-06	-6.051155e-06	-7.800848e-09	-4.232093e+01	-5.105830e+02
2.920000e-06	-6.153652e-06	-7.879675e-09	-4.303778e+01	-5.158117e+02
2.930000e-06	-6.253835e-06	-7.957039e-09	-4.373844e+01	-5.208450e+02
2.940000e-06	-6.351778e-06	-8.033566e-09	-4.442344e+01	-5.257079e+02
