# Temperatura_=_42.75
# Concentracion g/m^3_=_15000.0
# C_Vs_to_Am_M_A/Vsm_=_65563218390.804596
# pendiente_HvsI_1/m_=_3716.3
# ordenada_HvsI_A/m_=_1297.0
# frecuencia_Hz_=_302366.72796037915

Tiempo_(s)	Campo_(V.s)	Magnetizacion_(V.s)	Campo_(kA/m)	Magnetizacion_(A/m)
0.000000e+00	-8.207804e-06	-8.909838e-09	-5.689295e+01	-5.830827e+02
1.000000e-08	-8.203010e-06	-8.907173e-09	-5.685972e+01	-5.828623e+02
2.000000e-08	-8.195566e-06	-8.901715e-09	-5.680812e+01	-5.825365e+02
3.000000e-08	-8.185267e-06	-8.894729e-09	-5.673673e+01	-5.821152e+02
4.000000e-08	-8.171996e-06	-8.886629e-09	-5.664474e+01	-5.816140e+02
5.000000e-08	-8.155813e-06	-8.876761e-09	-5.653257e+01	-5.810502e+02
6.000000e-08	-8.137070e-06	-8.864583e-09	-5.640265e+01	-5.804376e+02
7.000000e-08	-8.116005e-06	-8.853084e-09	-5.625663e+01	-5.797837e+02
8.000000e-08	-8.092259e-06	-8.876930e-09	-5.609204e+01	-5.790866e+02
9.000000e-08	-8.065318e-06	-8.881337e-09	-5.590530e+01	-5.783365e+02
1.000000e-07	-8.035142e-06	-8.838555e-09	-5.569613e+01	-5.775186e+02
1.100000e-07	-8.001920e-06	-8.807244e-09	-5.546585e+01	-5.766166e+02
1.200000e-07	-7.965826e-06	-8.786981e-09	-5.521566e+01	-5.756183e+02
1.300000e-07	-7.927216e-06	-8.767750e-09	-5.494803e+01	-5.745179e+02
1.400000e-07	-7.886198e-06	-8.732092e-09	-5.466371e+01	-5.733175e+02
1.500000e-07	-7.842786e-06	-8.720525e-09	-5.436280e+01	-5.720255e+02
1.600000e-07	-7.796743e-06	-8.715055e-09	-5.404364e+01	-5.706533e+02
1.700000e-07	-7.747735e-06	-8.640048e-09	-5.370395e+01	-5.692110e+02
1.800000e-07	-7.695822e-06	-8.658526e-09	-5.334411e+01	-5.677030e+02
1.900000e-07	-7.641000e-06	-8.664591e-09	-5.296410e+01	-5.661261e+02
2.000000e-07	-7.583361e-06	-8.599613e-09	-5.256458e+01	-5.644695e+02
2.100000e-07	-7.523090e-06	-8.587701e-09	-5.214680e+01	-5.627171e+02
2.200000e-07	-7.460090e-06	-8.555663e-09	-5.171012e+01	-5.608517e+02
2.300000e-07	-7.394260e-06	-8.529174e-09	-5.125381e+01	-5.588598e+02
2.400000e-07	-7.325654e-06	-8.477672e-09	-5.077826e+01	-5.567350e+02
2.500000e-07	-7.254255e-06	-8.455014e-09	-5.028335e+01	-5.544800e+02
2.600000e-07	-7.179951e-06	-8.421102e-09	-4.976831e+01	-5.521054e+02
2.700000e-07	-7.102738e-06	-8.364348e-09	-4.923310e+01	-5.496264e+02
2.800000e-07	-7.022684e-06	-8.323044e-09	-4.867821e+01	-5.470582e+02
2.900000e-07	-6.940083e-06	-8.287215e-09	-4.810565e+01	-5.444113e+02
3.000000e-07	-6.855147e-06	-8.266919e-09	-4.751691e+01	-5.416883e+02
3.100000e-07	-6.767755e-06	-8.210966e-09	-4.691115e+01	-5.388824e+02
3.200000e-07	-6.677915e-06	-8.163044e-09	-4.628842e+01	-5.359796e+02
3.300000e-07	-6.585658e-06	-8.130618e-09	-4.564893e+01	-5.329621e+02
3.400000e-07	-6.490958e-06	-8.083546e-09	-4.499251e+01	-5.298133e+02
3.500000e-07	-6.393856e-06	-8.021345e-09	-4.431944e+01	-5.265223e+02
3.600000e-07	-6.294476e-06	-7.966063e-09	-4.363058e+01	-5.230865e+02
3.700000e-07	-6.192834e-06	-7.918509e-09	-4.292604e+01	-5.195121e+02
3.800000e-07	-6.088842e-06	-7.855451e-09	-4.220522e+01	-5.158113e+02
3.900000e-07	-5.982699e-06	-7.801168e-09	-4.146948e+01	-5.119986e+02
4.000000e-07	-5.874571e-06	-7.753679e-09	-4.071999e+01	-5.080852e+02
4.100000e-07	-5.764429e-06	-7.693640e-09	-3.995653e+01	-5.040756e+02
4.200000e-07	-5.652070e-06	-7.617404e-09	-3.917770e+01	-4.999648e+02
4.300000e-07	-5.537425e-06	-7.543929e-09	-3.838303e+01	-4.957389e+02
4.400000e-07	-5.420691e-06	-7.479922e-09	-3.757388e+01	-4.913781e+02
4.500000e-07	-5.301972e-06	-7.414972e-09	-3.675097e+01	-4.868611e+02
4.600000e-07	-5.181310e-06	-7.342782e-09	-3.591460e+01	-4.821698e+02
4.700000e-07	-5.058849e-06	-7.271271e-09	-3.506575e+01	-4.772931e+02
4.800000e-07	-4.934632e-06	-7.199195e-09	-3.420473e+01	-4.722283e+02
4.900000e-07	-4.808670e-06	-7.117054e-09	-3.333162e+01	-4.669800e+02
5.000000e-07	-4.680931e-06	-7.029964e-09	-3.244619e+01	-4.615574e+02
5.100000e-07	-4.551395e-06	-6.942440e-09	-3.154830e+01	-4.559696e+02
5.200000e-07	-4.420191e-06	-6.855604e-09	-3.063885e+01	-4.502215e+02
5.300000e-07	-4.287354e-06	-6.762914e-09	-2.971808e+01	-4.443113e+02
5.400000e-07	-4.152957e-06	-6.668581e-09	-2.878650e+01	-4.382293e+02
5.500000e-07	-4.016942e-06	-6.572833e-09	-2.784370e+01	-4.319603e+02
5.600000e-07	-3.879335e-06	-6.473787e-09	-2.688987e+01	-4.254863e+02
5.700000e-07	-3.740272e-06	-6.368381e-09	-2.592595e+01	-4.187907e+02
5.800000e-07	-3.599611e-06	-6.261854e-09	-2.495095e+01	-4.118619e+02
5.900000e-07	-3.457342e-06	-6.156781e-09	-2.396480e+01	-4.046944e+02
6.000000e-07	-3.313708e-06	-6.047316e-09	-2.296919e+01	-3.972888e+02
6.100000e-07	-3.168888e-06	-5.930261e-09	-2.196536e+01	-3.896490e+02
6.200000e-07	-3.022914e-06	-5.807027e-09	-2.095353e+01	-3.817790e+02
6.300000e-07	-2.875884e-06	-5.680958e-09	-1.993438e+01	-3.736785e+02
6.400000e-07	-2.727927e-06	-5.548978e-09	-1.890881e+01	-3.653411e+02
6.500000e-07	-2.579049e-06	-5.414132e-09	-1.787685e+01	-3.567533e+02
6.600000e-07	-2.429308e-06	-5.279205e-09	-1.683891e+01	-3.478955e+02
6.700000e-07	-2.278729e-06	-5.142582e-09	-1.579516e+01	-3.387456e+02
6.800000e-07	-2.127269e-06	-4.999303e-09	-1.474531e+01	-3.292817e+02
6.900000e-07	-1.974957e-06	-4.852018e-09	-1.368955e+01	-3.194852e+02
7.000000e-07	-1.821938e-06	-4.698964e-09	-1.262888e+01	-3.093421e+02
7.100000e-07	-1.668348e-06	-4.537763e-09	-1.156427e+01	-2.988423e+02
7.200000e-07	-1.514202e-06	-4.370309e-09	-1.049580e+01	-2.879772e+02
7.300000e-07	-1.359559e-06	-4.197793e-09	-9.423873e+00	-2.767371e+02
7.400000e-07	-1.204488e-06	-4.019776e-09	-8.348987e+00	-2.651082e+02
7.500000e-07	-1.049041e-06	-3.832650e-09	-7.271500e+00	-2.530718e+02
7.600000e-07	-8.932296e-07	-3.641195e-09	-6.191481e+00	-2.406045e+02
7.700000e-07	-7.370645e-07	-3.444003e-09	-5.109012e+00	-2.276811e+02
7.800000e-07	-5.806811e-07	-3.240437e-09	-4.025030e+00	-2.142776e+02
7.900000e-07	-4.241509e-07	-3.031867e-09	-2.940031e+00	-2.003742e+02
8.000000e-07	-2.674884e-07	-2.815937e-09	-1.854114e+00	-1.859559e+02
8.100000e-07	-1.107215e-07	-2.591186e-09	-7.674737e-01	-1.710109e+02
8.200000e-07	4.614415e-08	-2.355441e-09	3.198513e-01	-1.555257e+02
8.300000e-07	2.030623e-07	-2.112111e-09	1.407540e+00	-1.394790e+02
8.400000e-07	3.599448e-07	-1.860305e-09	2.494982e+00	-1.228354e+02
8.500000e-07	5.167463e-07	-1.595598e-09	3.581862e+00	-1.055426e+02
8.600000e-07	6.734168e-07	-1.318116e-09	4.667834e+00	-8.753257e+01
8.700000e-07	8.298917e-07	-1.030656e-09	5.752450e+00	-6.872958e+01
8.800000e-07	9.860799e-07	-7.320590e-10	6.835079e+00	-4.906389e+01
8.900000e-07	1.141913e-06	-4.189574e-10	7.915244e+00	-2.848957e+01
9.000000e-07	1.297358e-06	-9.205534e-11	8.992725e+00	-7.003363e+00
9.100000e-07	1.452346e-06	2.465910e-10	1.006704e+01	1.533962e+01
9.200000e-07	1.606817e-06	5.966825e-10	1.113776e+01	3.841686e+01
9.300000e-07	1.760708e-06	9.566975e-10	1.220447e+01	6.203900e+01
9.400000e-07	1.914034e-06	1.320740e-09	1.326725e+01	8.596079e+01
9.500000e-07	2.066721e-06	1.685628e-09	1.432562e+01	1.099013e+02
9.600000e-07	2.218597e-06	2.046000e-09	1.537835e+01	1.335703e+02
9.700000e-07	2.369539e-06	2.397227e-09	1.642462e+01	1.566958e+02
9.800000e-07	2.519484e-06	2.736038e-09	1.746397e+01	1.790490e+02
9.900000e-07	2.668496e-06	3.061066e-09	1.849686e+01	2.004618e+02
1.000000e-06	2.816462e-06	3.371358e-09	1.952249e+01	2.208333e+02
1.010000e-06	2.963415e-06	3.665596e-09	2.054111e+01	2.401280e+02
1.020000e-06	3.109330e-06	3.941599e-09	2.155253e+01	2.583635e+02
1.030000e-06	3.254110e-06	4.200532e-09	2.255608e+01	2.755934e+02
1.040000e-06	3.397688e-06	4.446600e-09	2.355130e+01	2.918896e+02
1.050000e-06	3.539907e-06	4.680998e-09	2.453711e+01	3.073255e+02
1.060000e-06	3.680744e-06	4.903366e-09	2.551332e+01	3.219655e+02
1.070000e-06	3.820130e-06	5.113556e-09	2.647949e+01	3.358609e+02
1.080000e-06	3.958082e-06	5.312823e-09	2.743571e+01	3.490502e+02
1.090000e-06	4.094587e-06	5.501415e-09	2.838190e+01	3.615648e+02
1.100000e-06	4.229559e-06	5.680287e-09	2.931747e+01	3.734353e+02
1.110000e-06	4.363033e-06	5.849952e-09	3.024266e+01	3.846959e+02
1.120000e-06	4.494951e-06	6.011336e-09	3.115705e+01	3.953869e+02
1.130000e-06	4.625265e-06	6.166956e-09	3.206033e+01	4.055527e+02
1.140000e-06	4.754007e-06	6.316767e-09	3.295272e+01	4.152379e+02
1.150000e-06	4.881060e-06	6.459442e-09	3.383339e+01	4.244813e+02
1.160000e-06	5.006472e-06	6.594974e-09	3.470270e+01	4.333116e+02
1.170000e-06	5.130179e-06	6.723248e-09	3.556018e+01	4.417449e+02
1.180000e-06	5.252092e-06	6.844557e-09	3.640523e+01	4.497859e+02
1.190000e-06	5.372148e-06	6.958985e-09	3.723740e+01	4.574323e+02
1.200000e-06	5.490185e-06	7.067219e-09	3.805559e+01	4.646810e+02
1.210000e-06	5.606091e-06	7.169103e-09	3.885900e+01	4.715345e+02
1.220000e-06	5.719796e-06	7.267153e-09	3.964715e+01	4.780056e+02
1.230000e-06	5.831276e-06	7.362191e-09	4.041988e+01	4.841196e+02
1.240000e-06	5.940646e-06	7.451777e-09	4.117799e+01	4.899124e+02
1.250000e-06	6.047946e-06	7.535464e-09	4.192175e+01	4.954257e+02
1.260000e-06	6.153034e-06	7.614672e-09	4.265017e+01	5.007010e+02
1.270000e-06	6.255878e-06	7.690773e-09	4.336304e+01	5.057733e+02
1.280000e-06	6.356436e-06	7.764959e-09	4.406006e+01	5.106667e+02
1.290000e-06	6.454625e-06	7.837890e-09	4.474067e+01	5.153930e+02
1.300000e-06	6.550382e-06	7.908214e-09	4.540441e+01	5.199535e+02
1.310000e-06	6.643766e-06	7.975643e-09	4.605171e+01	5.243426e+02
1.320000e-06	6.734799e-06	8.039254e-09	4.668271e+01	5.285532e+02
1.330000e-06	6.823391e-06	8.098173e-09	4.729680e+01	5.325811e+02
1.340000e-06	6.909553e-06	8.154420e-09	4.789403e+01	5.364282e+02
1.350000e-06	6.993300e-06	8.208783e-09	4.847453e+01	5.401017e+02
1.360000e-06	7.074549e-06	8.261079e-09	4.903771e+01	5.436131e+02
1.370000e-06	7.153239e-06	8.312392e-09	4.958316e+01	5.469734e+02
1.380000e-06	7.229319e-06	8.363051e-09	5.011051e+01	5.501900e+02
1.390000e-06	7.302686e-06	8.412189e-09	5.061906e+01	5.532635e+02
1.400000e-06	7.373376e-06	8.457352e-09	5.110905e+01	5.561873e+02
1.410000e-06	7.441488e-06	8.498827e-09	5.158117e+01	5.589493e+02
1.420000e-06	7.506977e-06	8.536711e-09	5.203511e+01	5.615358e+02
1.430000e-06	7.569841e-06	8.571484e-09	5.247086e+01	5.639361e+02
1.440000e-06	7.630172e-06	8.603766e-09	5.288905e+01	5.661462e+02
1.450000e-06	7.687845e-06	8.632273e-09	5.328882e+01	5.681710e+02
1.460000e-06	7.742725e-06	8.658509e-09	5.366922e+01	5.700243e+02
1.470000e-06	7.794585e-06	8.683133e-09	5.402869e+01	5.717259e+02
1.480000e-06	7.843232e-06	8.708488e-09	5.436589e+01	5.732968e+02
1.490000e-06	7.888942e-06	8.733584e-09	5.468273e+01	5.747553e+02
1.500000e-06	7.931924e-06	8.755362e-09	5.498066e+01	5.761128e+02
1.510000e-06	7.972060e-06	8.773993e-09	5.525887e+01	5.773723e+02
1.520000e-06	8.009380e-06	8.789384e-09	5.551756e+01	5.785294e+02
1.530000e-06	8.043924e-06	8.803294e-09	5.575700e+01	5.795752e+02
1.540000e-06	8.075571e-06	8.816031e-09	5.597637e+01	5.805008e+02
1.550000e-06	8.104398e-06	8.827006e-09	5.617618e+01	5.813011e+02
1.560000e-06	8.130294e-06	8.837729e-09	5.635568e+01	5.819779e+02
1.570000e-06	8.153148e-06	8.848388e-09	5.651409e+01	5.825402e+02
1.580000e-06	8.173159e-06	8.858469e-09	5.665280e+01	5.830023e+02
1.590000e-06	8.190234e-06	8.867659e-09	5.677116e+01	5.833802e+02
1.600000e-06	8.204218e-06	8.875644e-09	5.686809e+01	5.836871e+02
1.610000e-06	8.215034e-06	8.880868e-09	5.694306e+01	5.839304e+02
1.620000e-06	8.222670e-06	8.883645e-09	5.699599e+01	5.841092e+02
1.630000e-06	8.227392e-06	8.884960e-09	5.702872e+01	5.842156e+02
1.640000e-06	8.229236e-06	8.885321e-09	5.704150e+01	5.842371e+02
1.650000e-06	8.228193e-06	8.882624e-09	5.703428e+01	5.841610e+02
1.660000e-06	8.224441e-06	8.877271e-09	5.700826e+01	5.839790e+02
1.670000e-06	8.217907e-06	8.874274e-09	5.696297e+01	5.836899e+02
1.680000e-06	8.208599e-06	8.871804e-09	5.689845e+01	5.833009e+02
1.690000e-06	8.196481e-06	8.868392e-09	5.681446e+01	5.828260e+02
1.700000e-06	8.181461e-06	8.865861e-09	5.671035e+01	5.822825e+02
1.710000e-06	8.163840e-06	8.862027e-09	5.658820e+01	5.816858e+02
1.720000e-06	8.143871e-06	8.849354e-09	5.644979e+01	5.810462e+02
1.730000e-06	8.121207e-06	8.790218e-09	5.629269e+01	5.803650e+02
1.740000e-06	8.095245e-06	8.774068e-09	5.611274e+01	5.796352e+02
1.750000e-06	8.065561e-06	8.792820e-09	5.590698e+01	5.788431e+02
1.760000e-06	8.032455e-06	8.781478e-09	5.567750e+01	5.779727e+02
1.770000e-06	7.996789e-06	8.769904e-09	5.543028e+01	5.770096e+02
1.780000e-06	7.958752e-06	8.791059e-09	5.516663e+01	5.759456e+02
1.790000e-06	7.918451e-06	8.782160e-09	5.488728e+01	5.747800e+02
1.800000e-06	7.876168e-06	8.711397e-09	5.459419e+01	5.735192e+02
1.810000e-06	7.831349e-06	8.753953e-09	5.428352e+01	5.721742e+02
1.820000e-06	7.783648e-06	8.730201e-09	5.395288e+01	5.707558e+02
1.830000e-06	7.733117e-06	8.683572e-09	5.360262e+01	5.692710e+02
1.840000e-06	7.679403e-06	8.681929e-09	5.323030e+01	5.677194e+02
1.850000e-06	7.622792e-06	8.610695e-09	5.283790e+01	5.660927e+02
1.860000e-06	7.563491e-06	8.610126e-09	5.242685e+01	5.643762e+02
1.870000e-06	7.501311e-06	8.574333e-09	5.199584e+01	5.625528e+02
1.880000e-06	7.436414e-06	8.573541e-09	5.154600e+01	5.606070e+02
1.890000e-06	7.368700e-06	8.562970e-09	5.107664e+01	5.585296e+02
1.900000e-06	7.298046e-06	8.480572e-09	5.058690e+01	5.563201e+02
1.910000e-06	7.224524e-06	8.458081e-09	5.007727e+01	5.539864e+02
1.920000e-06	7.148229e-06	8.414266e-09	4.954843e+01	5.515426e+02
1.930000e-06	7.069155e-06	8.401713e-09	4.900032e+01	5.490045e+02
1.940000e-06	6.987403e-06	8.354561e-09	4.843365e+01	5.463848e+02
1.950000e-06	6.903195e-06	8.308228e-09	4.784996e+01	5.436890e+02
1.960000e-06	6.816353e-06	8.279710e-09	4.724801e+01	5.409138e+02
1.970000e-06	6.726887e-06	8.209098e-09	4.662787e+01	5.380473e+02
1.980000e-06	6.635039e-06	8.168627e-09	4.599122e+01	5.350726e+02
1.990000e-06	6.540866e-06	8.127628e-09	4.533845e+01	5.319721e+02
2.000000e-06	6.444323e-06	8.087406e-09	4.466926e+01	5.287324e+02
2.010000e-06	6.345471e-06	8.018296e-09	4.398406e+01	5.253479e+02
2.020000e-06	6.244355e-06	7.968787e-09	4.328316e+01	5.218216e+02
2.030000e-06	6.140948e-06	7.920809e-09	4.256640e+01	5.181641e+02
2.040000e-06	6.035415e-06	7.863187e-09	4.183488e+01	5.143895e+02
2.050000e-06	5.927830e-06	7.799235e-09	4.108915e+01	5.105109e+02
2.060000e-06	5.818188e-06	7.735314e-09	4.032916e+01	5.065356e+02
2.070000e-06	5.706484e-06	7.685662e-09	3.955488e+01	5.024618e+02
2.080000e-06	5.592640e-06	7.622479e-09	3.876576e+01	4.982788e+02
2.090000e-06	5.476538e-06	7.560451e-09	3.796099e+01	4.939685e+02
2.100000e-06	5.358317e-06	7.487349e-09	3.714153e+01	4.895094e+02
2.110000e-06	5.238150e-06	7.413359e-09	3.630859e+01	4.848818e+02
2.120000e-06	5.116124e-06	7.327679e-09	3.546276e+01	4.800719e+02
2.130000e-06	4.992313e-06	7.252770e-09	3.460455e+01	4.750738e+02
2.140000e-06	4.866662e-06	7.186186e-09	3.373360e+01	4.698900e+02
2.150000e-06	4.739219e-06	7.115931e-09	3.285022e+01	4.645283e+02
2.160000e-06	4.610079e-06	7.030407e-09	3.195507e+01	4.589984e+02
2.170000e-06	4.479291e-06	6.936975e-09	3.104851e+01	4.533071e+02
2.180000e-06	4.346753e-06	6.846517e-09	3.012981e+01	4.474553e+02
2.190000e-06	4.212559e-06	6.754243e-09	2.919964e+01	4.414360e+02
2.200000e-06	4.076894e-06	6.661592e-09	2.825926e+01	4.352356e+02
2.210000e-06	3.939771e-06	6.564306e-09	2.730879e+01	4.288366e+02
2.220000e-06	3.801010e-06	6.465778e-09	2.634696e+01	4.222216e+02
2.230000e-06	3.660602e-06	6.359834e-09	2.537371e+01	4.153768e+02
2.240000e-06	3.518805e-06	6.252755e-09	2.439083e+01	4.082945e+02
2.250000e-06	3.375765e-06	6.144351e-09	2.339934e+01	4.009733e+02
2.260000e-06	3.231516e-06	6.032393e-09	2.239947e+01	3.934165e+02
2.270000e-06	3.086038e-06	5.912052e-09	2.139108e+01	3.856282e+02
2.280000e-06	2.939443e-06	5.787138e-09	2.037495e+01	3.776102e+02
2.290000e-06	2.791780e-06	5.663442e-09	1.935141e+01	3.693584e+02
2.300000e-06	2.643076e-06	5.536043e-09	1.832066e+01	3.608617e+02
2.310000e-06	2.493426e-06	5.402145e-09	1.728335e+01	3.521026e+02
2.320000e-06	2.342956e-06	5.262412e-09	1.624036e+01	3.430594e+02
2.330000e-06	2.191683e-06	5.119067e-09	1.519180e+01	3.337098e+02
2.340000e-06	2.039686e-06	4.974544e-09	1.413822e+01	3.240338e+02
2.350000e-06	1.887107e-06	4.828035e-09	1.308061e+01	3.140156e+02
2.360000e-06	1.733937e-06	4.674836e-09	1.201890e+01	3.036439e+02
2.370000e-06	1.580262e-06	4.508437e-09	1.095369e+01	2.929100e+02
2.380000e-06	1.426085e-06	4.334228e-09	9.885001e+00	2.818049e+02
2.390000e-06	1.271363e-06	4.158273e-09	8.812538e+00	2.703166e+02
2.400000e-06	1.116112e-06	3.978687e-09	7.736403e+00	2.584280e+02
2.410000e-06	9.604221e-07	3.793324e-09	6.657230e+00	2.461172e+02
2.420000e-06	8.044170e-07	3.599033e-09	5.575871e+00	2.333594e+02
2.430000e-06	6.480736e-07	3.397033e-09	4.492165e+00	2.201297e+02
2.440000e-06	4.914625e-07	3.186751e-09	3.406605e+00	2.064066e+02
2.450000e-06	3.346054e-07	2.968438e-09	2.319340e+00	1.921734e+02
2.460000e-06	1.775359e-07	2.743402e-09	1.230602e+00	1.774176e+02
2.470000e-06	2.041675e-08	2.508474e-09	1.415201e-01	1.621270e+02
2.480000e-06	-1.366916e-07	2.263942e-09	-9.474871e-01	1.462838e+02
2.490000e-06	-2.937939e-07	2.012404e-09	-2.036452e+00	1.298583e+02
2.500000e-06	-4.508494e-07	1.752731e-09	-3.125093e+00	1.128043e+02
2.510000e-06	-6.077259e-07	1.481209e-09	-4.212493e+00	9.505868e+01
2.520000e-06	-7.644109e-07	1.195548e-09	-5.298565e+00	7.654733e+01
2.530000e-06	-9.208648e-07	8.979038e-10	-6.383036e+00	5.719644e+01
2.540000e-06	-1.076938e-06	5.900619e-10	-7.464867e+00	3.694939e+01
2.550000e-06	-1.232523e-06	2.713226e-10	-8.543318e+00	1.578562e+01
2.560000e-06	-1.387534e-06	-5.994280e-11	-9.617786e+00	-6.262067e+00
2.570000e-06	-1.542020e-06	-4.069564e-10	-1.068862e+01	-2.909569e+01
2.580000e-06	-1.695952e-06	-7.679310e-10	-1.175561e+01	-5.254904e+01
2.590000e-06	-1.849233e-06	-1.136681e-09	-1.281809e+01	-7.639494e+01
2.600000e-06	-2.001808e-06	-1.506461e-09	-1.387567e+01	-1.003624e+02
2.610000e-06	-2.153661e-06	-1.872518e-09	-1.492825e+01	-1.241613e+02
2.620000e-06	-2.304717e-06	-2.230716e-09	-1.597530e+01	-1.475101e+02
2.630000e-06	-2.454880e-06	-2.576383e-09	-1.701616e+01	-1.701621e+02
2.640000e-06	-2.604194e-06	-2.906869e-09	-1.805114e+01	-1.919261e+02
2.650000e-06	-2.752573e-06	-3.222270e-09	-1.907964e+01	-2.126770e+02
2.660000e-06	-2.899857e-06	-3.523204e-09	-2.010056e+01	-2.323570e+02
2.670000e-06	-3.046004e-06	-3.809565e-09	-2.111358e+01	-2.509662e+02
2.680000e-06	-3.190989e-06	-4.081490e-09	-2.211855e+01	-2.685478e+02
2.690000e-06	-3.334776e-06	-4.338047e-09	-2.311523e+01	-2.851691e+02
2.700000e-06	-3.477337e-06	-4.579618e-09	-2.410340e+01	-3.009044e+02
2.710000e-06	-3.618637e-06	-4.809228e-09	-2.508282e+01	-3.158223e+02
2.720000e-06	-3.758498e-06	-5.029068e-09	-2.605228e+01	-3.299788e+02
2.730000e-06	-3.896888e-06	-5.239678e-09	-2.701154e+01	-3.434166e+02
2.740000e-06	-4.033850e-06	-5.438208e-09	-2.796091e+01	-3.561690e+02
2.750000e-06	-4.169312e-06	-5.622672e-09	-2.889987e+01	-3.682662e+02
2.760000e-06	-4.303325e-06	-5.795347e-09	-2.982879e+01	-3.797405e+02
2.770000e-06	-4.435854e-06	-5.959506e-09	-3.074742e+01	-3.906302e+02
2.780000e-06	-4.566812e-06	-6.116430e-09	-3.165516e+01	-4.009785e+02
2.790000e-06	-4.696176e-06	-6.266587e-09	-3.255186e+01	-4.108307e+02
2.800000e-06	-4.823931e-06	-6.412380e-09	-3.343740e+01	-4.202282e+02
2.810000e-06	-4.950108e-06	-6.552804e-09	-3.431200e+01	-4.292037e+02
2.820000e-06	-5.074546e-06	-6.686422e-09	-3.517456e+01	-4.377780e+02
2.830000e-06	-5.197088e-06	-6.812566e-09	-3.602396e+01	-4.459593e+02
2.840000e-06	-5.317731e-06	-6.931204e-09	-3.686021e+01	-4.537474e+02
2.850000e-06	-5.436431e-06	-7.043421e-09	-3.768299e+01	-4.611385e+02
2.860000e-06	-5.552992e-06	-7.149676e-09	-3.849094e+01	-4.681324e+02
2.870000e-06	-5.667247e-06	-7.250493e-09	-3.928291e+01	-4.747380e+02
2.880000e-06	-5.779272e-06	-7.346788e-09	-4.005941e+01	-4.809762e+02
2.890000e-06	-5.889103e-06	-7.438267e-09	-4.082072e+01	-4.868793e+02
2.900000e-06	-5.996852e-06	-7.525000e-09	-4.156758e+01	-4.924877e+02
2.910000e-06	-6.102534e-06	-7.607290e-09	-4.230012e+01	-4.978438e+02
2.920000e-06	-6.206005e-06	-7.685230e-09	-4.301734e+01	-5.029854e+02
2.930000e-06	-6.307126e-06	-7.761620e-09	-4.371827e+01	-5.079409e+02
2.940000e-06	-6.405908e-06	-7.836165e-09	-4.440298e+01	-5.127265e+02
