# Temperatura_=_48.38
# Concentracion g/m^3_=_15000.0
# C_Vs_to_Am_M_A/Vsm_=_65563218390.804596
# pendiente_HvsI_1/m_=_3716.3
# ordenada_HvsI_A/m_=_1297.0
# frecuencia_Hz_=_302363.06626950216

Tiempo_(s)	Campo_(V.s)	Magnetizacion_(V.s)	Campo_(kA/m)	Magnetizacion_(A/m)
0.000000e+00	-8.132719e-06	-9.175011e-09	-5.691386e+01	-6.002178e+02
1.000000e-08	-8.130454e-06	-9.178421e-09	-5.689801e+01	-6.000948e+02
2.000000e-08	-8.125409e-06	-9.177211e-09	-5.686270e+01	-5.998714e+02
3.000000e-08	-8.117739e-06	-9.171809e-09	-5.680903e+01	-5.995441e+02
4.000000e-08	-8.107273e-06	-9.165060e-09	-5.673579e+01	-5.991148e+02
5.000000e-08	-8.093848e-06	-9.153789e-09	-5.664184e+01	-5.985906e+02
6.000000e-08	-8.077515e-06	-9.138743e-09	-5.652754e+01	-5.979825e+02
7.000000e-08	-8.058696e-06	-9.121773e-09	-5.639584e+01	-5.973023e+02
8.000000e-08	-8.037560e-06	-9.098880e-09	-5.624793e+01	-5.965606e+02
9.000000e-08	-8.013692e-06	-9.151685e-09	-5.608089e+01	-5.957647e+02
1.000000e-07	-7.986644e-06	-9.173723e-09	-5.589161e+01	-5.949181e+02
1.100000e-07	-7.956441e-06	-9.099592e-09	-5.568024e+01	-5.940211e+02
1.200000e-07	-7.923259e-06	-9.059244e-09	-5.544803e+01	-5.930712e+02
1.300000e-07	-7.887205e-06	-9.042729e-09	-5.519572e+01	-5.920652e+02
1.400000e-07	-7.848666e-06	-9.011643e-09	-5.492602e+01	-5.909993e+02
1.500000e-07	-7.807824e-06	-8.951350e-09	-5.464020e+01	-5.898696e+02
1.600000e-07	-7.764613e-06	-8.996021e-09	-5.433781e+01	-5.886710e+02
1.700000e-07	-7.718769e-06	-9.012303e-09	-5.401698e+01	-5.873962e+02
1.800000e-07	-7.670043e-06	-8.858224e-09	-5.367599e+01	-5.860351e+02
1.900000e-07	-7.618418e-06	-8.939784e-09	-5.331471e+01	-5.845742e+02
2.000000e-07	-7.563894e-06	-8.931805e-09	-5.293315e+01	-5.829979e+02
2.100000e-07	-7.506513e-06	-8.821137e-09	-5.253159e+01	-5.812906e+02
2.200000e-07	-7.446407e-06	-8.835154e-09	-5.211096e+01	-5.794399e+02
2.300000e-07	-7.383749e-06	-8.781427e-09	-5.167247e+01	-5.774387e+02
2.400000e-07	-7.318374e-06	-8.783620e-09	-5.121497e+01	-5.752877e+02
2.500000e-07	-7.250114e-06	-8.713308e-09	-5.073727e+01	-5.729953e+02
2.600000e-07	-7.179048e-06	-8.700512e-09	-5.023994e+01	-5.705761e+02
2.700000e-07	-7.105119e-06	-8.674017e-09	-4.972258e+01	-5.680474e+02
2.800000e-07	-7.028393e-06	-8.598879e-09	-4.918564e+01	-5.654252e+02
2.900000e-07	-6.948889e-06	-8.545211e-09	-4.862926e+01	-5.627200e+02
3.000000e-07	-6.866688e-06	-8.509486e-09	-4.805401e+01	-5.599343e+02
3.100000e-07	-6.782131e-06	-8.515630e-09	-4.746227e+01	-5.570619e+02
3.200000e-07	-6.695243e-06	-8.434130e-09	-4.685421e+01	-5.540895e+02
3.300000e-07	-6.605886e-06	-8.381853e-09	-4.622888e+01	-5.510006e+02
3.400000e-07	-6.514156e-06	-8.361495e-09	-4.558694e+01	-5.477796e+02
3.500000e-07	-6.420113e-06	-8.300671e-09	-4.492881e+01	-5.444162e+02
3.600000e-07	-6.323742e-06	-8.228413e-09	-4.425440e+01	-5.409079e+02
3.700000e-07	-6.225069e-06	-8.174446e-09	-4.356387e+01	-5.372601e+02
3.800000e-07	-6.124109e-06	-8.133950e-09	-4.285734e+01	-5.334847e+02
3.900000e-07	-6.020899e-06	-8.058177e-09	-4.213506e+01	-5.295953e+02
4.000000e-07	-5.915469e-06	-7.998502e-09	-4.139725e+01	-5.256032e+02
4.100000e-07	-5.808000e-06	-7.954907e-09	-4.064516e+01	-5.215135e+02
4.200000e-07	-5.698596e-06	-7.894431e-09	-3.987954e+01	-5.173221e+02
4.300000e-07	-5.587190e-06	-7.807662e-09	-3.909991e+01	-5.130167e+02
4.400000e-07	-5.473701e-06	-7.729389e-09	-3.830570e+01	-5.085792e+02
4.500000e-07	-5.358013e-06	-7.670128e-09	-3.749610e+01	-5.039894e+02
4.600000e-07	-5.240222e-06	-7.602697e-09	-3.667178e+01	-4.992301e+02
4.700000e-07	-5.120570e-06	-7.522563e-09	-3.583444e+01	-4.942902e+02
4.800000e-07	-4.999122e-06	-7.445269e-09	-3.498453e+01	-4.891668e+02
4.900000e-07	-4.875841e-06	-7.367236e-09	-3.412179e+01	-4.838638e+02
5.000000e-07	-4.750775e-06	-7.278749e-09	-3.324656e+01	-4.783892e+02
5.100000e-07	-4.623990e-06	-7.190349e-09	-3.235930e+01	-4.727508e+02
5.200000e-07	-4.495543e-06	-7.101674e-09	-3.146041e+01	-4.669517e+02
5.300000e-07	-4.365378e-06	-7.011698e-09	-3.054950e+01	-4.609881e+02
5.400000e-07	-4.233555e-06	-6.916330e-09	-2.962698e+01	-4.548481e+02
5.500000e-07	-4.100247e-06	-6.820486e-09	-2.869408e+01	-4.485141e+02
5.600000e-07	-3.965381e-06	-6.719293e-09	-2.775027e+01	-4.419666e+02
5.700000e-07	-3.828992e-06	-6.615113e-09	-2.679580e+01	-4.351883e+02
5.800000e-07	-3.691110e-06	-6.504875e-09	-2.583088e+01	-4.281683e+02
5.900000e-07	-3.551697e-06	-6.392550e-09	-2.485525e+01	-4.209038e+02
6.000000e-07	-3.410821e-06	-6.280345e-09	-2.386939e+01	-4.133996e+02
6.100000e-07	-3.268571e-06	-6.166797e-09	-2.287390e+01	-4.056649e+02
6.200000e-07	-3.125028e-06	-6.046478e-09	-2.186937e+01	-3.977087e+02
6.300000e-07	-2.980208e-06	-5.916380e-09	-2.085589e+01	-3.895349e+02
6.400000e-07	-2.834256e-06	-5.785699e-09	-1.983451e+01	-3.811390e+02
6.500000e-07	-2.687362e-06	-5.652416e-09	-1.880652e+01	-3.725067e+02
6.600000e-07	-2.539602e-06	-5.515709e-09	-1.777247e+01	-3.636154e+02
6.700000e-07	-2.391060e-06	-5.373523e-09	-1.673296e+01	-3.544383e+02
6.800000e-07	-2.241773e-06	-5.230092e-09	-1.568823e+01	-3.449489e+02
6.900000e-07	-2.091685e-06	-5.081972e-09	-1.463789e+01	-3.351260e+02
7.000000e-07	-1.940856e-06	-4.928150e-09	-1.358237e+01	-3.249562e+02
7.100000e-07	-1.789384e-06	-4.768007e-09	-1.252235e+01	-3.144339e+02
7.200000e-07	-1.637351e-06	-4.600398e-09	-1.145840e+01	-3.035582e+02
7.300000e-07	-1.484825e-06	-4.427480e-09	-1.039101e+01	-2.923289e+02
7.400000e-07	-1.331802e-06	-4.249396e-09	-9.320126e+00	-2.807407e+02
7.500000e-07	-1.178317e-06	-4.067339e-09	-8.246021e+00	-2.687798e+02
7.600000e-07	-1.024371e-06	-3.877603e-09	-7.168684e+00	-2.564223e+02
7.700000e-07	-8.699785e-07	-3.682830e-09	-6.088227e+00	-2.436364e+02
7.800000e-07	-7.152515e-07	-3.479119e-09	-5.005426e+00	-2.303860e+02
7.900000e-07	-5.602377e-07	-3.268864e-09	-3.920619e+00	-2.166367e+02
8.000000e-07	-4.049970e-07	-3.054026e-09	-2.834223e+00	-2.023603e+02
8.100000e-07	-2.496112e-07	-2.831808e-09	-1.746813e+00	-1.875365e+02
8.200000e-07	-9.409298e-08	-2.599445e-09	-6.584753e-01	-1.721516e+02
8.300000e-07	6.151533e-08	-2.356519e-09	4.304926e-01	-1.561929e+02
8.400000e-07	2.171002e-07	-2.105847e-09	1.519296e+00	-1.396411e+02
8.500000e-07	3.726133e-07	-1.845329e-09	2.607598e+00	-1.224626e+02
8.600000e-07	5.280539e-07	-1.574086e-09	3.695392e+00	-1.046056e+02
8.700000e-07	6.833486e-07	-1.289413e-09	4.782166e+00	-8.600089e+01
8.800000e-07	8.384387e-07	-9.940626e-10	5.867507e+00	-6.657033e+01
8.900000e-07	9.931809e-07	-6.853474e-10	6.950414e+00	-4.624208e+01
9.000000e-07	1.147466e-06	-3.625175e-10	8.030118e+00	-2.497006e+01
9.100000e-07	1.301308e-06	-2.688204e-11	9.106727e+00	-2.754484e+00
9.200000e-07	1.454714e-06	3.230890e-10	1.018028e+01	2.034124e+01
9.300000e-07	1.607586e-06	6.860934e-10	1.125010e+01	4.418145e+01
9.400000e-07	1.759875e-06	1.059692e-09	1.231584e+01	6.855970e+01
9.500000e-07	1.911601e-06	1.436027e-09	1.337764e+01	9.321178e+01
9.600000e-07	2.062650e-06	1.811794e-09	1.443470e+01	1.178385e+02
9.700000e-07	2.212944e-06	2.181605e-09	1.548648e+01	1.421346e+02
9.800000e-07	2.362418e-06	2.540146e-09	1.653252e+01	1.658190e+02
9.900000e-07	2.511028e-06	2.885666e-09	1.757251e+01	1.886602e+02
1.000000e-06	2.658651e-06	3.216563e-09	1.860560e+01	2.104939e+02
1.010000e-06	2.805173e-06	3.532031e-09	1.963098e+01	2.312292e+02
1.020000e-06	2.950576e-06	3.831779e-09	2.064852e+01	2.508432e+02
1.030000e-06	3.094918e-06	4.112692e-09	2.165865e+01	2.693673e+02
1.040000e-06	3.238168e-06	4.376355e-09	2.266114e+01	2.868672e+02
1.050000e-06	3.380185e-06	4.626599e-09	2.365499e+01	3.034232e+02
1.060000e-06	3.520871e-06	4.864010e-09	2.463953e+01	3.191129e+02
1.070000e-06	3.660109e-06	5.088014e-09	2.561394e+01	3.340008e+02
1.080000e-06	3.797961e-06	5.301689e-09	2.657864e+01	3.481347e+02
1.090000e-06	3.934471e-06	5.507165e-09	2.753396e+01	3.615489e+02
1.100000e-06	4.069524e-06	5.702356e-09	2.847908e+01	3.742705e+02
1.110000e-06	4.203099e-06	5.886434e-09	2.941385e+01	3.863280e+02
1.120000e-06	4.335226e-06	6.059401e-09	3.033850e+01	3.977564e+02
1.130000e-06	4.465756e-06	6.222702e-09	3.125196e+01	4.085999e+02
1.140000e-06	4.594676e-06	6.379356e-09	3.215416e+01	4.189090e+02
1.150000e-06	4.722086e-06	6.528763e-09	3.304579e+01	4.287356e+02
1.160000e-06	4.847904e-06	6.672320e-09	3.392629e+01	4.381255e+02
1.170000e-06	4.972049e-06	6.811415e-09	3.479506e+01	4.471122e+02
1.180000e-06	5.094413e-06	6.943933e-09	3.565138e+01	4.557141e+02
1.190000e-06	5.214954e-06	7.069868e-09	3.649495e+01	4.639349e+02
1.200000e-06	5.333619e-06	7.189194e-09	3.732538e+01	4.717680e+02
1.210000e-06	5.450251e-06	7.302753e-09	3.814159e+01	4.792041e+02
1.220000e-06	5.564704e-06	7.407470e-09	3.894255e+01	4.862388e+02
1.230000e-06	5.677026e-06	7.505498e-09	3.972859e+01	4.928786e+02
1.240000e-06	5.787335e-06	7.599352e-09	4.050055e+01	4.991439e+02
1.250000e-06	5.895621e-06	7.689629e-09	4.125835e+01	5.050684e+02
1.260000e-06	6.001765e-06	7.775892e-09	4.200116e+01	5.106943e+02
1.270000e-06	6.105648e-06	7.857850e-09	4.272815e+01	5.160657e+02
1.280000e-06	6.207315e-06	7.934913e-09	4.343963e+01	5.212221e+02
1.290000e-06	6.306653e-06	8.009372e-09	4.413480e+01	5.261922e+02
1.300000e-06	6.403537e-06	8.084354e-09	4.481281e+01	5.309925e+02
1.310000e-06	6.498076e-06	8.158634e-09	4.547441e+01	5.356271e+02
1.320000e-06	6.590350e-06	8.228271e-09	4.612016e+01	5.400920e+02
1.330000e-06	6.680279e-06	8.290857e-09	4.674949e+01	5.443799e+02
1.340000e-06	6.767814e-06	8.349712e-09	4.736207e+01	5.484853e+02
1.350000e-06	6.853026e-06	8.407111e-09	4.795840e+01	5.524081e+02
1.360000e-06	6.935813e-06	8.462831e-09	4.853776e+01	5.561539e+02
1.370000e-06	7.016072e-06	8.516275e-09	4.909942e+01	5.597333e+02
1.380000e-06	7.093804e-06	8.568437e-09	4.964339e+01	5.631576e+02
1.390000e-06	7.168846e-06	8.621061e-09	5.016855e+01	5.664356e+02
1.400000e-06	7.241172e-06	8.672560e-09	5.067469e+01	5.695698e+02
1.410000e-06	7.310947e-06	8.719266e-09	5.116299e+01	5.725553e+02
1.420000e-06	7.378194e-06	8.760129e-09	5.163360e+01	5.753812e+02
1.430000e-06	7.442779e-06	8.797139e-09	5.208557e+01	5.780335e+02
1.440000e-06	7.504752e-06	8.831953e-09	5.251926e+01	5.804997e+02
1.450000e-06	7.564188e-06	8.864962e-09	5.293520e+01	5.827728e+02
1.460000e-06	7.621010e-06	8.895161e-09	5.333285e+01	5.848542e+02
1.470000e-06	7.675075e-06	8.921736e-09	5.371121e+01	5.867544e+02
1.480000e-06	7.726003e-06	8.945944e-09	5.406761e+01	5.884910e+02
1.490000e-06	7.773763e-06	8.970469e-09	5.440184e+01	5.900848e+02
1.500000e-06	7.818739e-06	8.994841e-09	5.471659e+01	5.915559e+02
1.510000e-06	7.860948e-06	9.016737e-09	5.501197e+01	5.929192e+02
1.520000e-06	7.900291e-06	9.035096e-09	5.528730e+01	5.941820e+02
1.530000e-06	7.936945e-06	9.049545e-09	5.554381e+01	5.953441e+02
1.540000e-06	7.970827e-06	9.062077e-09	5.578092e+01	5.963996e+02
1.550000e-06	8.001816e-06	9.073969e-09	5.599778e+01	5.973404e+02
1.560000e-06	8.030041e-06	9.086672e-09	5.619531e+01	5.981599e+02
1.570000e-06	8.055333e-06	9.098161e-09	5.637230e+01	5.988564e+02
1.580000e-06	8.077624e-06	9.107943e-09	5.652830e+01	5.994342e+02
1.590000e-06	8.097142e-06	9.117783e-09	5.666489e+01	5.999035e+02
1.600000e-06	8.113745e-06	9.126676e-09	5.678108e+01	6.002773e+02
1.610000e-06	8.127301e-06	9.134210e-09	5.687595e+01	6.005691e+02
1.620000e-06	8.137713e-06	9.137967e-09	5.694881e+01	6.007884e+02
1.630000e-06	8.144979e-06	9.138782e-09	5.699966e+01	6.009395e+02
1.640000e-06	8.149406e-06	9.139399e-09	5.703064e+01	6.010199e+02
1.650000e-06	8.150958e-06	9.141627e-09	5.704150e+01	6.010222e+02
1.660000e-06	8.149633e-06	9.137888e-09	5.703223e+01	6.009365e+02
1.670000e-06	8.145672e-06	9.129877e-09	5.700451e+01	6.007532e+02
1.680000e-06	8.138930e-06	9.128368e-09	5.695732e+01	6.004668e+02
1.690000e-06	8.129424e-06	9.126042e-09	5.689080e+01	6.000769e+02
1.700000e-06	8.117190e-06	9.121247e-09	5.680519e+01	5.995888e+02
1.710000e-06	8.102085e-06	9.119963e-09	5.669948e+01	5.990122e+02
1.720000e-06	8.084411e-06	9.124288e-09	5.657580e+01	5.983589e+02
1.730000e-06	8.064413e-06	9.123412e-09	5.643584e+01	5.976402e+02
1.740000e-06	8.041726e-06	9.019008e-09	5.627708e+01	5.968649e+02
1.750000e-06	8.015668e-06	9.000275e-09	5.609473e+01	5.960380e+02
1.760000e-06	7.985850e-06	9.045497e-09	5.588605e+01	5.951609e+02
1.770000e-06	7.952698e-06	9.024329e-09	5.565405e+01	5.942321e+02
1.780000e-06	7.917128e-06	9.012139e-09	5.540513e+01	5.932485e+02
1.790000e-06	7.879248e-06	9.084284e-09	5.514004e+01	5.922066e+02
1.800000e-06	7.839104e-06	9.049790e-09	5.485910e+01	5.911024e+02
1.810000e-06	7.796967e-06	8.894433e-09	5.456422e+01	5.899315e+02
1.820000e-06	7.752279e-06	9.036541e-09	5.425149e+01	5.886877e+02
1.830000e-06	7.704781e-06	8.959000e-09	5.391909e+01	5.873619e+02
1.840000e-06	7.654477e-06	8.916510e-09	5.356706e+01	5.859419e+02
1.850000e-06	7.600948e-06	8.969514e-09	5.319246e+01	5.844128e+02
1.860000e-06	7.544495e-06	8.840090e-09	5.279739e+01	5.827586e+02
1.870000e-06	7.485456e-06	8.906275e-09	5.238423e+01	5.809654e+02
1.880000e-06	7.423736e-06	8.799096e-09	5.195230e+01	5.790236e+02
1.890000e-06	7.359257e-06	8.813187e-09	5.150107e+01	5.769308e+02
1.900000e-06	7.291901e-06	8.826029e-09	5.102970e+01	5.746925e+02
1.910000e-06	7.221699e-06	8.683721e-09	5.053842e+01	5.723210e+02
1.920000e-06	7.148612e-06	8.715097e-09	5.002695e+01	5.698333e+02
1.930000e-06	7.072795e-06	8.656104e-09	4.949637e+01	5.672461e+02
1.940000e-06	6.994208e-06	8.657400e-09	4.894641e+01	5.645727e+02
1.950000e-06	6.912883e-06	8.573945e-09	4.837728e+01	5.618189e+02
1.960000e-06	6.829135e-06	8.524404e-09	4.779120e+01	5.589817e+02
1.970000e-06	6.742801e-06	8.522624e-09	4.718703e+01	5.560504e+02
1.980000e-06	6.653860e-06	8.407379e-09	4.656460e+01	5.530092e+02
1.990000e-06	6.562601e-06	8.398147e-09	4.592596e+01	5.498417e+02
2.000000e-06	6.469082e-06	8.350883e-09	4.527151e+01	5.465350e+02
2.010000e-06	6.373241e-06	8.316415e-09	4.460080e+01	5.430833e+02
2.020000e-06	6.275173e-06	8.223022e-09	4.391450e+01	5.394891e+02
2.030000e-06	6.174915e-06	8.171677e-09	4.321288e+01	5.357622e+02
2.040000e-06	6.072313e-06	8.132098e-09	4.249487e+01	5.319159e+02
2.050000e-06	5.967465e-06	8.059821e-09	4.176112e+01	5.279631e+02
2.060000e-06	5.860608e-06	8.002966e-09	4.101333e+01	5.239116e+02
2.070000e-06	5.751830e-06	7.932376e-09	4.025208e+01	5.197611e+02
2.080000e-06	5.641034e-06	7.886332e-09	3.947671e+01	5.155025e+02
2.090000e-06	5.528111e-06	7.804096e-09	3.868646e+01	5.111192e+02
2.100000e-06	5.413024e-06	7.747096e-09	3.788107e+01	5.065915e+02
2.110000e-06	5.295868e-06	7.672436e-09	3.706120e+01	5.019004e+02
2.120000e-06	5.176703e-06	7.595204e-09	3.622726e+01	4.970322e+02
2.130000e-06	5.055621e-06	7.505264e-09	3.537991e+01	4.919807e+02
2.140000e-06	4.932761e-06	7.431960e-09	3.452013e+01	4.867474e+02
2.150000e-06	4.808153e-06	7.362954e-09	3.364810e+01	4.813392e+02
2.160000e-06	4.681839e-06	7.283173e-09	3.276414e+01	4.757644e+02
2.170000e-06	4.553746e-06	7.195585e-09	3.186772e+01	4.700284e+02
2.180000e-06	4.423960e-06	7.095958e-09	3.095947e+01	4.641303e+02
2.190000e-06	4.292533e-06	7.005829e-09	3.003973e+01	4.580614e+02
2.200000e-06	4.159542e-06	6.909436e-09	2.910903e+01	4.518059e+02
2.210000e-06	4.025070e-06	6.816511e-09	2.816798e+01	4.453445e+02
2.220000e-06	3.889044e-06	6.710843e-09	2.721605e+01	4.386586e+02
2.230000e-06	3.751371e-06	6.605379e-09	2.625260e+01	4.317343e+02
2.240000e-06	3.612226e-06	6.493603e-09	2.527884e+01	4.245656e+02
2.250000e-06	3.471799e-06	6.383976e-09	2.429612e+01	4.171546e+02
2.260000e-06	3.330074e-06	6.272247e-09	2.330431e+01	4.095092e+02
2.270000e-06	3.187032e-06	6.156682e-09	2.230328e+01	4.016390e+02
2.280000e-06	3.042673e-06	6.031215e-09	2.129303e+01	3.935507e+02
2.290000e-06	2.897176e-06	5.900096e-09	2.027483e+01	3.852432e+02
2.300000e-06	2.750652e-06	5.771548e-09	1.924943e+01	3.767060e+02
2.310000e-06	2.603194e-06	5.640543e-09	1.821750e+01	3.679195e+02
2.320000e-06	2.454900e-06	5.503571e-09	1.717972e+01	3.588579e+02
2.330000e-06	2.305800e-06	5.356085e-09	1.613630e+01	3.494940e+02
2.340000e-06	2.155960e-06	5.205570e-09	1.508770e+01	3.398042e+02
2.350000e-06	2.005426e-06	5.055993e-09	1.403424e+01	3.297717e+02
2.360000e-06	1.854191e-06	4.904460e-09	1.297588e+01	3.193881e+02
2.370000e-06	1.702292e-06	4.744856e-09	1.191287e+01	3.086511e+02
2.380000e-06	1.549830e-06	4.572546e-09	1.084592e+01	2.975609e+02
2.390000e-06	1.396895e-06	4.394143e-09	9.775658e+00	2.861148e+02
2.400000e-06	1.243502e-06	4.214469e-09	8.702192e+00	2.743025e+02
2.410000e-06	1.089676e-06	4.029052e-09	7.625698e+00	2.621043e+02
2.420000e-06	9.354723e-07	3.836721e-09	6.546561e+00	2.494908e+02
2.430000e-06	7.809253e-07	3.636140e-09	5.465020e+00	2.364271e+02
2.440000e-06	6.261193e-07	3.429263e-09	4.381667e+00	2.228776e+02
2.450000e-06	4.710482e-07	3.214572e-09	3.296458e+00	2.088111e+02
2.460000e-06	3.157320e-07	2.993328e-09	2.209535e+00	1.942041e+02
2.470000e-06	1.602925e-07	2.763893e-09	1.121748e+00	1.790410e+02
2.480000e-06	4.842659e-09	2.521465e-09	3.388958e-02	1.633095e+02
2.490000e-06	-1.506488e-07	2.268031e-09	-1.054261e+00	1.469937e+02
2.500000e-06	-3.061688e-07	2.007417e-09	-2.142610e+00	1.300665e+02
2.510000e-06	-4.616065e-07	1.738952e-09	-3.230384e+00	1.124834e+02
2.520000e-06	-6.169232e-07	1.457484e-09	-4.317312e+00	9.418149e+01
2.530000e-06	-7.720223e-07	1.162454e-09	-5.402716e+00	7.508462e+01
2.540000e-06	-9.268477e-07	8.557019e-10	-6.486205e+00	5.511637e+01
2.550000e-06	-1.081356e-06	5.365614e-10	-7.567474e+00	3.421804e+01
2.560000e-06	-1.235452e-06	2.047758e-10	-8.645859e+00	1.236934e+01
2.570000e-06	-1.389087e-06	-1.402184e-10	-9.721021e+00	-1.039275e+01
2.580000e-06	-1.542224e-06	-4.998287e-10	-1.079269e+01	-3.396140e+01
2.590000e-06	-1.694780e-06	-8.705709e-10	-1.186030e+01	-5.815706e+01
2.600000e-06	-1.846655e-06	-1.247311e-09	-1.292314e+01	-8.273596e+01
2.610000e-06	-1.997775e-06	-1.625982e-09	-1.398070e+01	-1.074094e+02
2.620000e-06	-2.148133e-06	-2.001831e-09	-1.503293e+01	-1.318710e+02
2.630000e-06	-2.297678e-06	-2.371197e-09	-1.607946e+01	-1.558266e+02
2.640000e-06	-2.446378e-06	-2.727605e-09	-1.712008e+01	-1.790226e+02
2.650000e-06	-2.594242e-06	-3.067018e-09	-1.815485e+01	-2.012671e+02
2.660000e-06	-2.741093e-06	-3.388335e-09	-1.918254e+01	-2.224402e+02
2.670000e-06	-2.886937e-06	-3.693174e-09	-2.020317e+01	-2.424937e+02
2.680000e-06	-3.031788e-06	-3.984651e-09	-2.121686e+01	-2.614396e+02
2.690000e-06	-3.175401e-06	-4.260560e-09	-2.222189e+01	-2.793327e+02
2.700000e-06	-3.317684e-06	-4.520782e-09	-2.321760e+01	-2.962499e+02
2.710000e-06	-3.458680e-06	-4.765936e-09	-2.420431e+01	-3.122714e+02
2.720000e-06	-3.598370e-06	-4.999034e-09	-2.518188e+01	-3.274677e+02
2.730000e-06	-3.736679e-06	-5.222214e-09	-2.614978e+01	-3.418932e+02
2.740000e-06	-3.873649e-06	-5.434316e-09	-2.710832e+01	-3.555867e+02
2.750000e-06	-4.009179e-06	-5.635432e-09	-2.805678e+01	-3.685773e+02
2.760000e-06	-4.143222e-06	-5.824037e-09	-2.899483e+01	-3.808920e+02
2.770000e-06	-4.275863e-06	-5.999502e-09	-2.992306e+01	-3.925629e+02
2.780000e-06	-4.406988e-06	-6.163878e-09	-3.084069e+01	-4.036304e+02
2.790000e-06	-4.536615e-06	-6.322242e-09	-3.174785e+01	-4.141432e+02
2.800000e-06	-4.664679e-06	-6.475730e-09	-3.264405e+01	-4.241535e+02
2.810000e-06	-4.791088e-06	-6.623522e-09	-3.352868e+01	-4.337102e+02
2.820000e-06	-4.915906e-06	-6.765100e-09	-3.440217e+01	-4.428523e+02
2.830000e-06	-5.038992e-06	-6.899385e-09	-3.526355e+01	-4.516043e+02
2.840000e-06	-5.160234e-06	-7.026539e-09	-3.611201e+01	-4.599751e+02
2.850000e-06	-5.279525e-06	-7.148003e-09	-3.694683e+01	-4.679617e+02
2.860000e-06	-5.396768e-06	-7.263742e-09	-3.776731e+01	-4.755548e+02
2.870000e-06	-5.511853e-06	-7.373870e-09	-3.857269e+01	-4.827472e+02
2.880000e-06	-5.624644e-06	-7.477364e-09	-3.936202e+01	-4.895405e+02
2.890000e-06	-5.735234e-06	-7.575946e-09	-4.013594e+01	-4.959497e+02
2.900000e-06	-5.843786e-06	-7.670846e-09	-4.089560e+01	-5.020034e+02
2.910000e-06	-5.950382e-06	-7.759382e-09	-4.164157e+01	-5.077414e+02
2.920000e-06	-6.054853e-06	-7.841596e-09	-4.237267e+01	-5.132077e+02
2.930000e-06	-6.156986e-06	-7.920276e-09	-4.308742e+01	-5.184445e+02
2.940000e-06	-6.256861e-06	-7.999006e-09	-4.378635e+01	-5.234852e+02
