# Temperatura_=_41.18
# Concentracion g/m^3_=_15000.0
# C_Vs_to_Am_M_A/Vsm_=_65563218390.804596
# pendiente_HvsI_1/m_=_3716.3
# ordenada_HvsI_A/m_=_1297.0
# frecuencia_Hz_=_302361.7422654025

Tiempo_(s)	Campo_(V.s)	Magnetizacion_(V.s)	Campo_(kA/m)	Magnetizacion_(A/m)
0.000000e+00	-8.102574e-06	-8.773456e-09	-5.689448e+01	-5.735213e+02
1.000000e-08	-8.097926e-06	-8.771288e-09	-5.686184e+01	-5.733495e+02
2.000000e-08	-8.090761e-06	-8.764430e-09	-5.681153e+01	-5.730823e+02
3.000000e-08	-8.080830e-06	-8.755620e-09	-5.674180e+01	-5.727095e+02
4.000000e-08	-8.067937e-06	-8.745662e-09	-5.665127e+01	-5.722270e+02
5.000000e-08	-8.052105e-06	-8.735770e-09	-5.654009e+01	-5.716395e+02
6.000000e-08	-8.033660e-06	-8.725122e-09	-5.641058e+01	-5.709603e+02
7.000000e-08	-8.012943e-06	-8.709209e-09	-5.626511e+01	-5.702101e+02
8.000000e-08	-7.989620e-06	-8.715436e-09	-5.610134e+01	-5.694129e+02
9.000000e-08	-7.963166e-06	-8.742964e-09	-5.591559e+01	-5.685913e+02
1.000000e-07	-7.933540e-06	-8.717299e-09	-5.570756e+01	-5.677612e+02
1.100000e-07	-7.900964e-06	-8.675393e-09	-5.547882e+01	-5.669283e+02
1.200000e-07	-7.865546e-06	-8.647484e-09	-5.523012e+01	-5.660858e+02
1.300000e-07	-7.827579e-06	-8.617166e-09	-5.496352e+01	-5.652152e+02
1.400000e-07	-7.787199e-06	-8.585701e-09	-5.467999e+01	-5.642888e+02
1.500000e-07	-7.744415e-06	-8.579702e-09	-5.437956e+01	-5.632751e+02
1.600000e-07	-7.699142e-06	-8.608847e-09	-5.406167e+01	-5.621435e+02
1.700000e-07	-7.651092e-06	-8.550138e-09	-5.372427e+01	-5.608704e+02
1.800000e-07	-7.600086e-06	-8.532514e-09	-5.336612e+01	-5.594420e+02
1.900000e-07	-7.546133e-06	-8.527007e-09	-5.298727e+01	-5.578570e+02
2.000000e-07	-7.489425e-06	-8.446628e-09	-5.258908e+01	-5.561249e+02
2.100000e-07	-7.430027e-06	-8.430164e-09	-5.217200e+01	-5.542637e+02
2.200000e-07	-7.367974e-06	-8.398542e-09	-5.173628e+01	-5.522952e+02
2.300000e-07	-7.303175e-06	-8.375725e-09	-5.128128e+01	-5.502401e+02
2.400000e-07	-7.235567e-06	-8.357662e-09	-5.080655e+01	-5.481141e+02
2.500000e-07	-7.165268e-06	-8.326445e-09	-5.031292e+01	-5.459244e+02
2.600000e-07	-7.092088e-06	-8.308539e-09	-4.979907e+01	-5.436695e+02
2.700000e-07	-7.016031e-06	-8.260722e-09	-4.926502e+01	-5.413399e+02
2.800000e-07	-6.937147e-06	-8.209843e-09	-4.871111e+01	-5.389211e+02
2.900000e-07	-6.855576e-06	-8.164298e-09	-4.813834e+01	-5.363973e+02
3.000000e-07	-6.771705e-06	-8.142007e-09	-4.754942e+01	-5.337548e+02
3.100000e-07	-6.685502e-06	-8.095778e-09	-4.694411e+01	-5.309853e+02
3.200000e-07	-6.596818e-06	-8.033270e-09	-4.632140e+01	-5.280873e+02
3.300000e-07	-6.505724e-06	-8.007828e-09	-4.568175e+01	-5.250654e+02
3.400000e-07	-6.412330e-06	-7.956945e-09	-4.502596e+01	-5.219292e+02
3.500000e-07	-6.316693e-06	-7.895728e-09	-4.435442e+01	-5.186894e+02
3.600000e-07	-6.218717e-06	-7.846354e-09	-4.366645e+01	-5.153555e+02
3.700000e-07	-6.118412e-06	-7.802696e-09	-4.296213e+01	-5.119323e+02
3.800000e-07	-6.015904e-06	-7.744889e-09	-4.224234e+01	-5.084185e+02
3.900000e-07	-5.911234e-06	-7.685161e-09	-4.150737e+01	-5.048064e+02
4.000000e-07	-5.804457e-06	-7.639488e-09	-4.075761e+01	-5.010833e+02
4.100000e-07	-5.695688e-06	-7.579603e-09	-3.999386e+01	-4.972339e+02
4.200000e-07	-5.584971e-06	-7.512141e-09	-3.921643e+01	-4.932433e+02
4.300000e-07	-5.472197e-06	-7.443659e-09	-3.842456e+01	-4.890994e+02
4.400000e-07	-5.357227e-06	-7.385431e-09	-3.761726e+01	-4.847953e+02
4.500000e-07	-5.240102e-06	-7.317993e-09	-3.679483e+01	-4.803292e+02
4.600000e-07	-5.121077e-06	-7.242112e-09	-3.595907e+01	-4.757036e+02
4.700000e-07	-5.000311e-06	-7.171614e-09	-3.511108e+01	-4.709231e+02
4.800000e-07	-4.877707e-06	-7.099059e-09	-3.425018e+01	-4.659917e+02
4.900000e-07	-4.753338e-06	-7.015335e-09	-3.337689e+01	-4.609102e+02
5.000000e-07	-4.627342e-06	-6.929643e-09	-3.249217e+01	-4.556744e+02
5.100000e-07	-4.499687e-06	-6.849954e-09	-3.159581e+01	-4.502751e+02
5.200000e-07	-4.370310e-06	-6.765193e-09	-3.068735e+01	-4.446989e+02
5.300000e-07	-4.239230e-06	-6.677133e-09	-2.976693e+01	-4.389307e+02
5.400000e-07	-4.106624e-06	-6.587619e-09	-2.883581e+01	-4.329567e+02
5.500000e-07	-3.972526e-06	-6.495399e-09	-2.789419e+01	-4.267670e+02
5.600000e-07	-3.836907e-06	-6.393703e-09	-2.694191e+01	-4.203573e+02
5.700000e-07	-3.699785e-06	-6.286069e-09	-2.597907e+01	-4.137293e+02
5.800000e-07	-3.561107e-06	-6.180730e-09	-2.500531e+01	-4.068889e+02
5.900000e-07	-3.420907e-06	-6.075471e-09	-2.402085e+01	-3.998435e+02
6.000000e-07	-3.279338e-06	-5.966128e-09	-2.302679e+01	-3.925985e+02
6.100000e-07	-3.136504e-06	-5.851964e-09	-2.202383e+01	-3.851541e+02
6.200000e-07	-2.992417e-06	-5.736511e-09	-2.101209e+01	-3.775030e+02
6.300000e-07	-2.847130e-06	-5.617921e-09	-1.999192e+01	-3.696304e+02
6.400000e-07	-2.700821e-06	-5.494935e-09	-1.896457e+01	-3.615149e+02
6.500000e-07	-2.553626e-06	-5.365570e-09	-1.793099e+01	-3.531318e+02
6.600000e-07	-2.405648e-06	-5.230923e-09	-1.689192e+01	-3.444571e+02
6.700000e-07	-2.256955e-06	-5.091086e-09	-1.584784e+01	-3.354704e+02
6.800000e-07	-2.107581e-06	-4.945469e-09	-1.479897e+01	-3.261573e+02
6.900000e-07	-1.957479e-06	-4.798352e-09	-1.374499e+01	-3.165097e+02
7.000000e-07	-1.806666e-06	-4.646937e-09	-1.268601e+01	-3.065244e+02
7.100000e-07	-1.655279e-06	-4.487976e-09	-1.162300e+01	-2.961995e+02
7.200000e-07	-1.503385e-06	-4.322603e-09	-1.055644e+01	-2.855305e+02
7.300000e-07	-1.350917e-06	-4.154854e-09	-9.485839e+00	-2.745078e+02
7.400000e-07	-1.197892e-06	-3.982874e-09	-8.411335e+00	-2.631144e+02
7.500000e-07	-1.044414e-06	-3.803239e-09	-7.333645e+00	-2.513265e+02
7.600000e-07	-8.905278e-07	-3.616036e-09	-6.253089e+00	-2.391165e+02
7.700000e-07	-7.363758e-07	-3.421355e-09	-5.170668e+00	-2.264569e+02
7.800000e-07	-5.820209e-07	-3.219790e-09	-4.086821e+00	-2.133244e+02
7.900000e-07	-4.275003e-07	-3.013163e-09	-3.001813e+00	-1.997025e+02
8.000000e-07	-2.728052e-07	-2.799223e-09	-1.915578e+00	-1.855825e+02
8.100000e-07	-1.179728e-07	-2.575048e-09	-8.283790e-01	-1.709600e+02
8.200000e-07	3.687987e-08	-2.343595e-09	2.589623e-01	-1.558293e+02
8.300000e-07	1.917379e-07	-2.106829e-09	1.346341e+00	-1.401768e+02
8.400000e-07	3.465994e-07	-1.862761e-09	2.433744e+00	-1.239739e+02
8.500000e-07	5.014055e-07	-1.608213e-09	3.520758e+00	-1.071735e+02
8.600000e-07	6.560392e-07	-1.340425e-09	4.606562e+00	-8.971081e+01
8.700000e-07	8.104965e-07	-1.061916e-09	5.691127e+00	-7.151063e+01
8.800000e-07	9.647865e-07	-7.718849e-10	6.774517e+00	-5.249969e+01
8.900000e-07	1.118767e-06	-4.683274e-10	7.855736e+00	-3.262353e+01
9.000000e-07	1.272347e-06	-1.524920e-10	8.934138e+00	-1.186459e+01
9.100000e-07	1.425436e-06	1.760026e-10	1.000909e+01	9.741984e+00
9.200000e-07	1.577876e-06	5.160305e-10	1.107950e+01	3.209809e+01
9.300000e-07	1.729684e-06	8.651695e-10	1.214546e+01	5.504083e+01
9.400000e-07	1.880935e-06	1.217797e-09	1.320751e+01	7.835018e+01
9.500000e-07	2.031514e-06	1.572467e-09	1.426484e+01	1.017655e+02
9.600000e-07	2.181375e-06	1.926800e-09	1.531713e+01	1.250089e+02
9.700000e-07	2.330459e-06	2.275268e-09	1.636397e+01	1.478109e+02
9.800000e-07	2.478591e-06	2.612668e-09	1.740411e+01	1.699352e+02
9.900000e-07	2.625753e-06	2.934774e-09	1.843746e+01	1.911982e+02
1.000000e-06	2.772005e-06	3.242590e-09	1.946440e+01	2.114794e+02
1.010000e-06	2.917195e-06	3.535455e-09	2.048389e+01	2.307232e+02
1.020000e-06	3.061229e-06	3.810430e-09	2.149527e+01	2.489308e+02
1.030000e-06	3.204172e-06	4.068247e-09	2.249898e+01	2.661462e+02
1.040000e-06	3.345949e-06	4.312032e-09	2.349452e+01	2.824382e+02
1.050000e-06	3.486412e-06	4.545091e-09	2.448081e+01	2.978834e+02
1.060000e-06	3.625484e-06	4.767695e-09	2.545734e+01	3.125520e+02
1.070000e-06	3.763185e-06	4.981280e-09	2.642425e+01	3.264997e+02
1.080000e-06	3.899421e-06	5.185793e-09	2.738087e+01	3.397656e+02
1.090000e-06	4.034190e-06	5.378231e-09	2.832719e+01	3.523752e+02
1.100000e-06	4.167540e-06	5.558799e-09	2.926354e+01	3.643468e+02
1.110000e-06	4.299375e-06	5.729076e-09	3.018926e+01	3.756991e+02
1.120000e-06	4.429693e-06	5.890711e-09	3.110432e+01	3.864562e+02
1.130000e-06	4.558478e-06	6.044819e-09	3.200862e+01	3.966511e+02
1.140000e-06	4.685630e-06	6.191416e-09	3.290145e+01	4.063239e+02
1.150000e-06	4.811178e-06	6.332997e-09	3.378303e+01	4.155184e+02
1.160000e-06	4.935090e-06	6.469184e-09	3.465311e+01	4.242762e+02
1.170000e-06	5.057300e-06	6.598160e-09	3.551124e+01	4.326317e+02
1.180000e-06	5.177761e-06	6.720164e-09	3.635709e+01	4.406084e+02
1.190000e-06	5.296332e-06	6.835469e-09	3.718967e+01	4.482185e+02
1.200000e-06	5.412900e-06	6.943776e-09	3.800818e+01	4.554656e+02
1.210000e-06	5.527360e-06	7.044548e-09	3.881190e+01	4.623496e+02
1.220000e-06	5.639656e-06	7.141407e-09	3.960041e+01	4.688723e+02
1.230000e-06	5.749891e-06	7.235447e-09	4.037446e+01	4.750429e+02
1.240000e-06	5.858095e-06	7.324435e-09	4.113425e+01	4.808806e+02
1.250000e-06	5.964187e-06	7.407645e-09	4.187920e+01	4.864151e+02
1.260000e-06	6.068077e-06	7.486523e-09	4.260869e+01	4.916835e+02
1.270000e-06	6.169763e-06	7.561750e-09	4.332271e+01	4.967250e+02
1.280000e-06	6.269179e-06	7.635601e-09	4.402078e+01	5.015758e+02
1.290000e-06	6.366190e-06	7.710696e-09	4.470197e+01	5.062630e+02
1.300000e-06	6.460849e-06	7.783934e-09	4.536665e+01	5.108023e+02
1.310000e-06	6.553137e-06	7.851728e-09	4.601468e+01	5.151968e+02
1.320000e-06	6.643073e-06	7.913377e-09	4.664619e+01	5.194400e+02
1.330000e-06	6.730658e-06	7.971411e-09	4.726119e+01	5.235192e+02
1.340000e-06	6.815909e-06	8.028148e-09	4.785980e+01	5.274211e+02
1.350000e-06	6.898836e-06	8.083487e-09	4.844210e+01	5.311358e+02
1.360000e-06	6.979271e-06	8.136678e-09	4.900690e+01	5.346601e+02
1.370000e-06	7.057128e-06	8.186491e-09	4.955359e+01	5.379976e+02
1.380000e-06	7.132337e-06	8.234851e-09	5.008169e+01	5.411574e+02
1.390000e-06	7.204874e-06	8.282619e-09	5.059103e+01	5.441510e+02
1.400000e-06	7.274894e-06	8.328103e-09	5.108270e+01	5.469890e+02
1.410000e-06	7.342391e-06	8.369121e-09	5.155664e+01	5.496776e+02
1.420000e-06	7.407193e-06	8.405098e-09	5.201167e+01	5.522180e+02
1.430000e-06	7.469372e-06	8.439054e-09	5.244828e+01	5.546063e+02
1.440000e-06	7.529035e-06	8.472332e-09	5.286722e+01	5.568357e+02
1.450000e-06	7.586118e-06	8.502819e-09	5.326804e+01	5.588995e+02
1.460000e-06	7.640463e-06	8.529547e-09	5.364964e+01	5.607945e+02
1.470000e-06	7.691788e-06	8.554041e-09	5.401003e+01	5.625227e+02
1.480000e-06	7.739972e-06	8.578255e-09	5.434837e+01	5.640926e+02
1.490000e-06	7.785312e-06	8.601877e-09	5.466674e+01	5.655177e+02
1.500000e-06	7.827927e-06	8.622854e-09	5.496597e+01	5.668140e+02
1.510000e-06	7.867657e-06	8.639776e-09	5.524495e+01	5.679972e+02
1.520000e-06	7.904624e-06	8.653261e-09	5.550452e+01	5.690796e+02
1.530000e-06	7.938830e-06	8.665219e-09	5.574470e+01	5.700680e+02
1.540000e-06	7.970174e-06	8.678022e-09	5.596480e+01	5.709636e+02
1.550000e-06	7.998754e-06	8.691188e-09	5.616548e+01	5.717631e+02
1.560000e-06	8.024429e-06	8.703610e-09	5.634576e+01	5.724612e+02
1.570000e-06	8.047110e-06	8.714190e-09	5.650502e+01	5.730539e+02
1.580000e-06	8.066998e-06	8.723544e-09	5.664467e+01	5.735402e+02
1.590000e-06	8.084049e-06	8.731927e-09	5.676440e+01	5.739242e+02
1.600000e-06	8.098067e-06	8.736725e-09	5.686283e+01	5.742142e+02
1.610000e-06	8.108947e-06	8.739936e-09	5.693923e+01	5.744210e+02
1.620000e-06	8.116713e-06	8.742336e-09	5.699376e+01	5.745553e+02
1.630000e-06	8.121562e-06	8.744446e-09	5.702781e+01	5.746243e+02
1.640000e-06	8.123512e-06	8.745163e-09	5.704150e+01	5.746298e+02
1.650000e-06	8.122594e-06	8.744395e-09	5.703505e+01	5.745671e+02
1.660000e-06	8.119006e-06	8.739476e-09	5.700986e+01	5.744261e+02
1.670000e-06	8.112710e-06	8.736882e-09	5.696566e+01	5.741942e+02
1.680000e-06	8.103697e-06	8.733631e-09	5.690237e+01	5.738598e+02
1.690000e-06	8.091953e-06	8.728588e-09	5.681990e+01	5.734162e+02
1.700000e-06	8.077326e-06	8.724971e-09	5.671720e+01	5.728649e+02
1.710000e-06	8.060069e-06	8.722560e-09	5.659602e+01	5.722162e+02
1.720000e-06	8.040554e-06	8.719750e-09	5.645899e+01	5.714886e+02
1.730000e-06	8.018488e-06	8.671368e-09	5.630405e+01	5.707052e+02
1.740000e-06	7.993134e-06	8.624359e-09	5.612601e+01	5.698899e+02
1.750000e-06	7.964037e-06	8.641004e-09	5.592170e+01	5.690614e+02
1.760000e-06	7.931462e-06	8.643970e-09	5.569297e+01	5.682294e+02
1.770000e-06	7.896339e-06	8.638108e-09	5.544635e+01	5.673918e+02
1.780000e-06	7.858958e-06	8.656521e-09	5.518386e+01	5.665338e+02
1.790000e-06	7.819303e-06	8.657558e-09	5.490541e+01	5.656307e+02
1.800000e-06	7.777651e-06	8.570477e-09	5.461294e+01	5.646517e+02
1.810000e-06	7.733500e-06	8.572880e-09	5.430293e+01	5.635653e+02
1.820000e-06	7.686544e-06	8.584648e-09	5.397321e+01	5.623446e+02
1.830000e-06	7.636875e-06	8.527287e-09	5.362444e+01	5.609723e+02
1.840000e-06	7.584035e-06	8.566796e-09	5.325341e+01	5.594425e+02
1.850000e-06	7.528218e-06	8.505960e-09	5.286148e+01	5.577611e+02
1.860000e-06	7.469814e-06	8.490930e-09	5.245138e+01	5.559434e+02
1.870000e-06	7.408721e-06	8.471449e-09	5.202239e+01	5.540105e+02
1.880000e-06	7.344903e-06	8.403441e-09	5.157428e+01	5.519841e+02
1.890000e-06	7.278228e-06	8.403122e-09	5.110611e+01	5.498819e+02
1.900000e-06	7.208650e-06	8.316887e-09	5.061755e+01	5.477145e+02
1.910000e-06	7.136201e-06	8.304786e-09	5.010882e+01	5.454834e+02
1.920000e-06	7.060996e-06	8.277121e-09	4.958075e+01	5.431818e+02
1.930000e-06	6.983008e-06	8.246480e-09	4.903314e+01	5.407966e+02
1.940000e-06	6.902296e-06	8.224005e-09	4.846639e+01	5.383118e+02
1.950000e-06	6.819163e-06	8.152815e-09	4.788265e+01	5.357128e+02
1.960000e-06	6.733486e-06	8.142920e-09	4.728105e+01	5.329890e+02
1.970000e-06	6.645224e-06	8.066723e-09	4.666129e+01	5.301365e+02
1.980000e-06	6.554593e-06	8.028995e-09	4.602490e+01	5.271578e+02
1.990000e-06	6.461756e-06	7.996625e-09	4.537302e+01	5.240610e+02
2.000000e-06	6.366630e-06	7.946320e-09	4.470506e+01	5.208568e+02
2.010000e-06	6.269184e-06	7.896816e-09	4.402082e+01	5.175556e+02
2.020000e-06	6.169613e-06	7.838004e-09	4.332165e+01	5.141639e+02
2.030000e-06	6.067736e-06	7.797240e-09	4.260630e+01	5.106828e+02
2.040000e-06	5.963547e-06	7.730011e-09	4.187471e+01	5.071069e+02
2.050000e-06	5.857304e-06	7.681188e-09	4.112869e+01	5.034250e+02
2.060000e-06	5.749201e-06	7.618617e-09	4.036961e+01	4.996223e+02
2.070000e-06	5.639096e-06	7.565154e-09	3.959648e+01	4.956835e+02
2.080000e-06	5.526829e-06	7.495852e-09	3.880817e+01	4.915953e+02
2.090000e-06	5.412524e-06	7.429916e-09	3.800554e+01	4.873487e+02
2.100000e-06	5.296184e-06	7.364607e-09	3.718863e+01	4.829402e+02
2.110000e-06	5.177771e-06	7.294563e-09	3.635716e+01	4.783709e+02
2.120000e-06	5.057348e-06	7.224023e-09	3.551158e+01	4.736450e+02
2.130000e-06	4.935061e-06	7.150329e-09	3.465291e+01	4.687670e+02
2.140000e-06	4.811041e-06	7.084347e-09	3.378206e+01	4.637391e+02
2.150000e-06	4.685376e-06	7.005342e-09	3.289968e+01	4.585591e+02
2.160000e-06	4.557932e-06	6.924025e-09	3.200479e+01	4.532194e+02
2.170000e-06	4.428789e-06	6.833729e-09	3.109798e+01	4.477080e+02
2.180000e-06	4.298096e-06	6.748606e-09	3.018028e+01	4.420099e+02
2.190000e-06	4.165897e-06	6.655720e-09	2.925201e+01	4.361106e+02
2.200000e-06	4.032209e-06	6.563989e-09	2.831328e+01	4.299985e+02
2.210000e-06	3.896855e-06	6.471068e-09	2.736285e+01	4.236673e+02
2.220000e-06	3.759890e-06	6.377513e-09	2.640112e+01	4.171166e+02
2.230000e-06	3.621550e-06	6.275638e-09	2.542972e+01	4.103510e+02
2.240000e-06	3.481888e-06	6.168342e-09	2.444905e+01	4.033779e+02
2.250000e-06	3.340877e-06	6.061871e-09	2.345890e+01	3.962036e+02
2.260000e-06	3.198531e-06	5.949726e-09	2.245938e+01	3.888307e+02
2.270000e-06	3.054851e-06	5.831190e-09	2.145049e+01	3.812546e+02
2.280000e-06	2.909986e-06	5.707816e-09	2.043328e+01	3.734631e+02
2.290000e-06	2.764068e-06	5.586227e-09	1.940868e+01	3.654369e+02
2.300000e-06	2.617248e-06	5.460339e-09	1.837774e+01	3.571521e+02
2.310000e-06	2.469611e-06	5.332067e-09	1.734106e+01	3.485840e+02
2.320000e-06	2.321152e-06	5.199223e-09	1.629861e+01	3.397105e+02
2.330000e-06	2.171903e-06	5.060562e-09	1.525062e+01	3.305150e+02
2.340000e-06	2.021921e-06	4.916813e-09	1.419748e+01	3.209873e+02
2.350000e-06	1.871314e-06	4.770640e-09	1.313995e+01	3.111227e+02
2.360000e-06	1.720079e-06	4.619014e-09	1.207801e+01	3.009192e+02
2.370000e-06	1.568244e-06	4.457503e-09	1.101186e+01	2.903737e+02
2.380000e-06	1.415806e-06	4.289844e-09	9.941479e+00	2.794787e+02
2.390000e-06	1.262818e-06	4.118562e-09	8.867227e+00	2.682199e+02
2.400000e-06	1.109445e-06	3.940097e-09	7.790275e+00	2.565758e+02
2.410000e-06	9.557433e-07	3.754751e-09	6.711017e+00	2.445197e+02
2.420000e-06	8.017596e-07	3.564232e-09	5.629779e+00	2.320235e+02
2.430000e-06	6.475357e-07	3.369784e-09	4.546852e+00	2.190619e+02
2.440000e-06	4.930544e-07	3.166633e-09	3.462119e+00	2.056160e+02
2.450000e-06	3.383538e-07	2.952463e-09	2.375845e+00	1.916744e+02
2.460000e-06	1.834722e-07	2.730443e-09	1.288301e+00	1.772316e+02
2.470000e-06	2.852350e-08	2.500153e-09	2.002857e-01	1.622832e+02
2.480000e-06	-1.264079e-07	2.263618e-09	-8.876083e-01	1.468193e+02
2.490000e-06	-2.813142e-07	2.021100e-09	-1.975326e+00	1.308172e+02
2.500000e-06	-4.361430e-07	1.770634e-09	-3.062500e+00	1.142366e+02
2.510000e-06	-5.908521e-07	1.508872e-09	-4.148833e+00	9.701862e+01
2.520000e-06	-7.453387e-07	1.232398e-09	-5.233603e+00	7.909052e+01
2.530000e-06	-8.995978e-07	9.431917e-10	-6.316776e+00	6.037658e+01
2.540000e-06	-1.053620e-06	6.418820e-10	-7.398288e+00	4.081357e+01
2.550000e-06	-1.207292e-06	3.299659e-10	-8.477336e+00	2.036872e+01
2.560000e-06	-1.360546e-06	7.504313e-12	-9.553454e+00	-9.431562e-01
2.570000e-06	-1.513268e-06	-3.266340e-10	-1.062583e+01	-2.304714e+01
2.580000e-06	-1.665297e-06	-6.719305e-10	-1.169334e+01	-4.580310e+01
2.590000e-06	-1.816626e-06	-1.027032e-09	-1.275594e+01	-6.900994e+01
2.600000e-06	-1.967383e-06	-1.386929e-09	-1.381453e+01	-9.241917e+01
2.610000e-06	-2.117487e-06	-1.747858e-09	-1.486852e+01	-1.157561e+02
2.620000e-06	-2.266730e-06	-2.103202e-09	-1.591648e+01	-1.387451e+02
2.630000e-06	-2.415095e-06	-2.446688e-09	-1.695826e+01	-1.611358e+02
2.640000e-06	-2.562605e-06	-2.775055e-09	-1.799404e+01	-1.827238e+02
2.650000e-06	-2.709210e-06	-3.087692e-09	-1.902347e+01	-2.033655e+02
2.660000e-06	-2.854827e-06	-3.387705e-09	-2.004596e+01	-2.229826e+02
2.670000e-06	-2.999307e-06	-3.673809e-09	-2.106047e+01	-2.415572e+02
2.680000e-06	-3.142593e-06	-3.944742e-09	-2.206659e+01	-2.591201e+02
2.690000e-06	-3.284652e-06	-4.199877e-09	-2.306410e+01	-2.757333e+02
2.700000e-06	-3.425337e-06	-4.440049e-09	-2.405196e+01	-2.914725e+02
2.710000e-06	-3.564705e-06	-4.670018e-09	-2.503057e+01	-3.064114e+02
2.720000e-06	-3.702811e-06	-4.890530e-09	-2.600032e+01	-3.206114e+02
2.730000e-06	-3.839496e-06	-5.100363e-09	-2.696009e+01	-3.341174e+02
2.740000e-06	-3.974708e-06	-5.298307e-09	-2.790952e+01	-3.469593e+02
2.750000e-06	-4.108525e-06	-5.485059e-09	-2.884915e+01	-3.591569e+02
2.760000e-06	-4.240885e-06	-5.660990e-09	-2.977856e+01	-3.707282e+02
2.770000e-06	-4.371767e-06	-5.826877e-09	-3.069758e+01	-3.816947e+02
2.780000e-06	-4.501218e-06	-5.984952e-09	-3.160655e+01	-3.920863e+02
2.790000e-06	-4.629110e-06	-6.134620e-09	-3.250459e+01	-4.019408e+02
2.800000e-06	-4.755411e-06	-6.277363e-09	-3.339144e+01	-4.113012e+02
2.810000e-06	-4.880088e-06	-6.414219e-09	-3.426690e+01	-4.202108e+02
2.820000e-06	-5.003016e-06	-6.546591e-09	-3.513007e+01	-4.287068e+02
2.830000e-06	-5.124142e-06	-6.673901e-09	-3.598059e+01	-4.368170e+02
2.840000e-06	-5.243345e-06	-6.791752e-09	-3.681761e+01	-4.445574e+02
2.850000e-06	-5.360532e-06	-6.902213e-09	-3.764047e+01	-4.519343e+02
2.860000e-06	-5.475559e-06	-7.008680e-09	-3.844816e+01	-4.589481e+02
2.870000e-06	-5.588311e-06	-7.111411e-09	-3.923988e+01	-4.655995e+02
2.880000e-06	-5.698929e-06	-7.208519e-09	-4.001662e+01	-4.718943e+02
2.890000e-06	-5.807539e-06	-7.301024e-09	-4.077925e+01	-4.778482e+02
2.900000e-06	-5.914136e-06	-7.389555e-09	-4.152776e+01	-4.834872e+02
2.910000e-06	-6.018588e-06	-7.472079e-09	-4.226119e+01	-4.888463e+02
2.920000e-06	-6.120772e-06	-7.548857e-09	-4.297870e+01	-4.939646e+02
2.930000e-06	-6.220684e-06	-7.623045e-09	-4.368027e+01	-4.988800e+02
2.940000e-06	-6.318379e-06	-7.697086e-09	-4.436626e+01	-5.036233e+02
