# Temperatura_=_33.73
# Concentracion g/m^3_=_15000.0
# C_Vs_to_Am_M_A/Vsm_=_65563218390.804596
# pendiente_HvsI_1/m_=_3716.3
# ordenada_HvsI_A/m_=_1297.0
# frecuencia_Hz_=_302361.28947330324

Tiempo_(s)	Campo_(V.s)	Magnetizacion_(V.s)	Campo_(kA/m)	Magnetizacion_(A/m)
0.000000e+00	-8.153917e-06	-8.616995e-09	-5.689835e+01	-5.638421e+02
1.000000e-08	-8.149347e-06	-8.616536e-09	-5.686646e+01	-5.636484e+02
2.000000e-08	-8.142270e-06	-8.610332e-09	-5.681708e+01	-5.633536e+02
3.000000e-08	-8.132402e-06	-8.605162e-09	-5.674822e+01	-5.629621e+02
4.000000e-08	-8.119503e-06	-8.598310e-09	-5.665821e+01	-5.624858e+02
5.000000e-08	-8.103611e-06	-8.587673e-09	-5.654732e+01	-5.619408e+02
6.000000e-08	-8.085129e-06	-8.574182e-09	-5.641834e+01	-5.613440e+02
7.000000e-08	-8.064383e-06	-8.554972e-09	-5.627358e+01	-5.607089e+02
8.000000e-08	-8.040977e-06	-8.566432e-09	-5.611026e+01	-5.600425e+02
9.000000e-08	-8.014414e-06	-8.612072e-09	-5.592489e+01	-5.593442e+02
1.000000e-07	-7.984655e-06	-8.572839e-09	-5.571724e+01	-5.586059e+02
1.100000e-07	-7.951862e-06	-8.521019e-09	-5.548841e+01	-5.578147e+02
1.200000e-07	-7.916204e-06	-8.505085e-09	-5.523958e+01	-5.569558e+02
1.300000e-07	-7.877982e-06	-8.486135e-09	-5.497287e+01	-5.560161e+02
1.400000e-07	-7.837366e-06	-8.451819e-09	-5.468945e+01	-5.549865e+02
1.500000e-07	-7.794394e-06	-8.421877e-09	-5.438959e+01	-5.538633e+02
1.600000e-07	-7.748810e-06	-8.485325e-09	-5.407150e+01	-5.526472e+02
1.700000e-07	-7.700355e-06	-8.387176e-09	-5.373338e+01	-5.513419e+02
1.800000e-07	-7.649014e-06	-8.355660e-09	-5.337512e+01	-5.499514e+02
1.900000e-07	-7.594756e-06	-8.410213e-09	-5.299651e+01	-5.484778e+02
2.000000e-07	-7.537635e-06	-8.311240e-09	-5.259791e+01	-5.469198e+02
2.100000e-07	-7.477813e-06	-8.320348e-09	-5.218047e+01	-5.452729e+02
2.200000e-07	-7.415345e-06	-8.303399e-09	-5.174457e+01	-5.435300e+02
2.300000e-07	-7.350179e-06	-8.260962e-09	-5.128984e+01	-5.416838e+02
2.400000e-07	-7.282216e-06	-8.217375e-09	-5.081559e+01	-5.397287e+02
2.500000e-07	-7.211457e-06	-8.174522e-09	-5.032183e+01	-5.376624e+02
2.600000e-07	-7.137872e-06	-8.172293e-09	-4.980835e+01	-5.354864e+02
2.700000e-07	-7.061373e-06	-8.125352e-09	-4.927453e+01	-5.332053e+02
2.800000e-07	-6.982012e-06	-8.087466e-09	-4.872076e+01	-5.308254e+02
2.900000e-07	-6.900032e-06	-8.032911e-09	-4.814870e+01	-5.283525e+02
3.000000e-07	-6.815760e-06	-8.010995e-09	-4.756064e+01	-5.257901e+02
3.100000e-07	-6.729169e-06	-7.978781e-09	-4.695640e+01	-5.231382e+02
3.200000e-07	-6.640054e-06	-7.906261e-09	-4.633456e+01	-5.203935e+02
3.300000e-07	-6.548499e-06	-7.889482e-09	-4.569568e+01	-5.175501e+02
3.400000e-07	-6.454631e-06	-7.853342e-09	-4.504067e+01	-5.146014e+02
3.500000e-07	-6.358394e-06	-7.799018e-09	-4.436912e+01	-5.115416e+02
3.600000e-07	-6.259740e-06	-7.738849e-09	-4.368071e+01	-5.083672e+02
3.700000e-07	-6.158809e-06	-7.697217e-09	-4.297641e+01	-5.050771e+02
3.800000e-07	-6.055730e-06	-7.647049e-09	-4.225712e+01	-5.016723e+02
3.900000e-07	-5.950493e-06	-7.578625e-09	-4.152277e+01	-4.981543e+02
4.000000e-07	-5.843159e-06	-7.531044e-09	-4.077379e+01	-4.945232e+02
4.100000e-07	-5.733791e-06	-7.479687e-09	-4.001062e+01	-4.907768e+02
4.200000e-07	-5.622373e-06	-7.428457e-09	-3.923314e+01	-4.869097e+02
4.300000e-07	-5.508840e-06	-7.352235e-09	-3.844090e+01	-4.829138e+02
4.400000e-07	-5.393119e-06	-7.285655e-09	-3.763340e+01	-4.787794e+02
4.500000e-07	-5.275261e-06	-7.224761e-09	-3.681098e+01	-4.744971e+02
4.600000e-07	-5.155535e-06	-7.157705e-09	-3.597553e+01	-4.700593e+02
4.700000e-07	-5.034133e-06	-7.086232e-09	-3.512837e+01	-4.654612e+02
4.800000e-07	-4.910892e-06	-7.018528e-09	-3.426840e+01	-4.607008e+02
4.900000e-07	-4.785754e-06	-6.947332e-09	-3.339518e+01	-4.557778e+02
5.000000e-07	-4.658913e-06	-6.858970e-09	-3.251008e+01	-4.506918e+02
5.100000e-07	-4.530443e-06	-6.775180e-09	-3.161361e+01	-4.454403e+02
5.200000e-07	-4.400265e-06	-6.696679e-09	-3.070522e+01	-4.400176e+02
5.300000e-07	-4.268366e-06	-6.618193e-09	-2.978482e+01	-4.344146e+02
5.400000e-07	-4.134875e-06	-6.525714e-09	-2.885332e+01	-4.286193e+02
5.500000e-07	-3.999890e-06	-6.432400e-09	-2.791139e+01	-4.226192e+02
5.600000e-07	-3.863372e-06	-6.338298e-09	-2.695876e+01	-4.164031e+02
5.700000e-07	-3.725341e-06	-6.235800e-09	-2.599557e+01	-4.099636e+02
5.800000e-07	-3.585735e-06	-6.129498e-09	-2.502140e+01	-4.032980e+02
5.900000e-07	-3.444574e-06	-6.025009e-09	-2.403637e+01	-3.964076e+02
6.000000e-07	-3.302090e-06	-5.920018e-09	-2.304211e+01	-3.892964e+02
6.100000e-07	-3.158400e-06	-5.805982e-09	-2.203944e+01	-3.819681e+02
6.200000e-07	-3.013509e-06	-5.691987e-09	-2.102839e+01	-3.744232e+02
6.300000e-07	-2.867433e-06	-5.576751e-09	-2.000906e+01	-3.666569e+02
6.400000e-07	-2.720344e-06	-5.454632e-09	-1.898267e+01	-3.586582e+02
6.500000e-07	-2.572418e-06	-5.322770e-09	-1.795043e+01	-3.504105e+02
6.600000e-07	-2.423638e-06	-5.189182e-09	-1.691224e+01	-3.418939e+02
6.700000e-07	-2.273999e-06	-5.054761e-09	-1.586806e+01	-3.330882e+02
6.800000e-07	-2.123578e-06	-4.914903e-09	-1.481841e+01	-3.239754e+02
6.900000e-07	-1.972461e-06	-4.773142e-09	-1.376391e+01	-3.145412e+02
7.000000e-07	-1.820690e-06	-4.624710e-09	-1.270485e+01	-3.047757e+02
7.100000e-07	-1.668258e-06	-4.468949e-09	-1.164117e+01	-2.946711e+02
7.200000e-07	-1.515246e-06	-4.306698e-09	-1.057345e+01	-2.842195e+02
7.300000e-07	-1.361708e-06	-4.143038e-09	-9.502054e+00	-2.734100e+02
7.400000e-07	-1.207719e-06	-3.973805e-09	-8.427512e+00	-2.622263e+02
7.500000e-07	-1.053350e-06	-3.794760e-09	-7.350319e+00	-2.506470e+02
7.600000e-07	-8.985750e-07	-3.608362e-09	-6.270292e+00	-2.386469e+02
7.700000e-07	-7.434670e-07	-3.415952e-09	-5.187942e+00	-2.262003e+02
7.800000e-07	-5.881044e-07	-3.219216e-09	-4.103815e+00	-2.132847e+02
7.900000e-07	-4.325733e-07	-3.017651e-09	-3.018513e+00	-1.998837e+02
8.000000e-07	-2.769079e-07	-2.810757e-09	-1.932274e+00	-1.859877e+02
8.100000e-07	-1.210753e-07	-2.592428e-09	-8.448684e-01	-1.715917e+02
8.200000e-07	3.485548e-08	-2.364154e-09	2.432229e-01	-1.566900e+02
8.300000e-07	1.908098e-07	-2.130183e-09	1.331478e+00	-1.412691e+02
8.400000e-07	3.467148e-07	-1.888537e-09	2.419390e+00	-1.253017e+02
8.500000e-07	5.024760e-07	-1.636513e-09	3.506297e+00	-1.087417e+02
8.600000e-07	6.580881e-07	-1.371905e-09	4.592165e+00	-9.152535e+01
8.700000e-07	8.135644e-07	-1.098804e-09	5.677084e+00	-7.357760e+01
8.800000e-07	9.688304e-07	-8.149312e-10	6.760536e+00	-5.482457e+01
8.900000e-07	1.123790e-06	-5.168927e-10	7.841851e+00	-3.521042e+01
9.000000e-07	1.278338e-06	-2.057196e-10	8.920289e+00	-1.471573e+01
9.100000e-07	1.432386e-06	1.191160e-10	9.995247e+00	6.626323e+00
9.200000e-07	1.585895e-06	4.558580e-10	1.106644e+01	2.871959e+01
9.300000e-07	1.738860e-06	8.012035e-10	1.213383e+01	5.140309e+01
9.400000e-07	1.891211e-06	1.150570e-09	1.319694e+01	7.445894e+01
9.500000e-07	2.042841e-06	1.502890e-09	1.425502e+01	9.762928e+01
9.600000e-07	2.193662e-06	1.857008e-09	1.530746e+01	1.206398e+02
9.700000e-07	2.343602e-06	2.204374e-09	1.635374e+01	1.432256e+02
9.800000e-07	2.492599e-06	2.538778e-09	1.739345e+01	1.651553e+02
9.900000e-07	2.640653e-06	2.857587e-09	1.842658e+01	1.862498e+02
1.000000e-06	2.787781e-06	3.160869e-09	1.945325e+01	2.063912e+02
1.010000e-06	2.933882e-06	3.451659e-09	2.047275e+01	2.255235e+02
1.020000e-06	3.078851e-06	3.726963e-09	2.148435e+01	2.436442e+02
1.030000e-06	3.222709e-06	3.985505e-09	2.248819e+01	2.607899e+02
1.040000e-06	3.365406e-06	4.230564e-09	2.348394e+01	2.770194e+02
1.050000e-06	3.506764e-06	4.464834e-09	2.447033e+01	2.923987e+02
1.060000e-06	3.646746e-06	4.687787e-09	2.544714e+01	3.069887e+02
1.070000e-06	3.785405e-06	4.897238e-09	2.641471e+01	3.208395e+02
1.080000e-06	3.922618e-06	5.095623e-09	2.737218e+01	3.339895e+02
1.090000e-06	4.058312e-06	5.284034e-09	2.831906e+01	3.464690e+02
1.100000e-06	4.192503e-06	5.463703e-09	2.925545e+01	3.583055e+02
1.110000e-06	4.325162e-06	5.634240e-09	3.018115e+01	3.695290e+02
1.120000e-06	4.456343e-06	5.794425e-09	3.109654e+01	3.801748e+02
1.130000e-06	4.586004e-06	5.948028e-09	3.200132e+01	3.902831e+02
1.140000e-06	4.714034e-06	6.094356e-09	3.289472e+01	3.998962e+02
1.150000e-06	4.840382e-06	6.234137e-09	3.377637e+01	4.090540e+02
1.160000e-06	4.965050e-06	6.368882e-09	3.464632e+01	4.177886e+02
1.170000e-06	5.088023e-06	6.497096e-09	3.550443e+01	4.261219e+02
1.180000e-06	5.209242e-06	6.618802e-09	3.635030e+01	4.340645e+02
1.190000e-06	5.328567e-06	6.733767e-09	3.718295e+01	4.416187e+02
1.200000e-06	5.445827e-06	6.841757e-09	3.800120e+01	4.487833e+02
1.210000e-06	5.561028e-06	6.941467e-09	3.880507e+01	4.555592e+02
1.220000e-06	5.674125e-06	7.035710e-09	3.959427e+01	4.619550e+02
1.230000e-06	5.785089e-06	7.126550e-09	4.036858e+01	4.679898e+02
1.240000e-06	5.894016e-06	7.213027e-09	4.112867e+01	4.736937e+02
1.250000e-06	6.000842e-06	7.295520e-09	4.187411e+01	4.791047e+02
1.260000e-06	6.105444e-06	7.375586e-09	4.260403e+01	4.842642e+02
1.270000e-06	6.207783e-06	7.452253e-09	4.331816e+01	4.892108e+02
1.280000e-06	6.307841e-06	7.524162e-09	4.401636e+01	4.939756e+02
1.290000e-06	6.405538e-06	7.593956e-09	4.469810e+01	4.985789e+02
1.300000e-06	6.500815e-06	7.660674e-09	4.536294e+01	5.030295e+02
1.310000e-06	6.593735e-06	7.724754e-09	4.601134e+01	5.073267e+02
1.320000e-06	6.684360e-06	7.786978e-09	4.664373e+01	5.114640e+02
1.330000e-06	6.772583e-06	7.846278e-09	4.725935e+01	5.154332e+02
1.340000e-06	6.858386e-06	7.903764e-09	4.785809e+01	5.192281e+02
1.350000e-06	6.941792e-06	7.957946e-09	4.844010e+01	5.228469e+02
1.360000e-06	7.022664e-06	8.009035e-09	4.900443e+01	5.262920e+02
1.370000e-06	7.100989e-06	8.058107e-09	4.955098e+01	5.295687e+02
1.380000e-06	7.176719e-06	8.107003e-09	5.007942e+01	5.326831e+02
1.390000e-06	7.249765e-06	8.154066e-09	5.058914e+01	5.356396e+02
1.400000e-06	7.320166e-06	8.195582e-09	5.108040e+01	5.384390e+02
1.410000e-06	7.388016e-06	8.234364e-09	5.155386e+01	5.410792e+02
1.420000e-06	7.453210e-06	8.270733e-09	5.200879e+01	5.435559e+02
1.430000e-06	7.515730e-06	8.304492e-09	5.244506e+01	5.458650e+02
1.440000e-06	7.575728e-06	8.335426e-09	5.286373e+01	5.480051e+02
1.450000e-06	7.633148e-06	8.363438e-09	5.326441e+01	5.499791e+02
1.460000e-06	7.687856e-06	8.390537e-09	5.364616e+01	5.517947e+02
1.470000e-06	7.739552e-06	8.417056e-09	5.400690e+01	5.534630e+02
1.480000e-06	7.788037e-06	8.441143e-09	5.434523e+01	5.549968e+02
1.490000e-06	7.833609e-06	8.461882e-09	5.466323e+01	5.564074e+02
1.500000e-06	7.876486e-06	8.480091e-09	5.496243e+01	5.577024e+02
1.510000e-06	7.916537e-06	8.497178e-09	5.524190e+01	5.588848e+02
1.520000e-06	7.953790e-06	8.513433e-09	5.550186e+01	5.599531e+02
1.530000e-06	7.988272e-06	8.528345e-09	5.574248e+01	5.609034e+02
1.540000e-06	8.019828e-06	8.542926e-09	5.596267e+01	5.617324e+02
1.550000e-06	8.048572e-06	8.554731e-09	5.616325e+01	5.624397e+02
1.560000e-06	8.074490e-06	8.562148e-09	5.634411e+01	5.630302e+02
1.570000e-06	8.097376e-06	8.568730e-09	5.650381e+01	5.635143e+02
1.580000e-06	8.117396e-06	8.576903e-09	5.664351e+01	5.639068e+02
1.590000e-06	8.134579e-06	8.584206e-09	5.676341e+01	5.642236e+02
1.600000e-06	8.148734e-06	8.589102e-09	5.686219e+01	5.644784e+02
1.610000e-06	8.159690e-06	8.593147e-09	5.693864e+01	5.646798e+02
1.620000e-06	8.167476e-06	8.596913e-09	5.699297e+01	5.648289e+02
1.630000e-06	8.172373e-06	8.599036e-09	5.702714e+01	5.649195e+02
1.640000e-06	8.174431e-06	8.599795e-09	5.704150e+01	5.649400e+02
1.650000e-06	8.173598e-06	8.601195e-09	5.703569e+01	5.648769e+02
1.660000e-06	8.170047e-06	8.593634e-09	5.701091e+01	5.647188e+02
1.670000e-06	8.163750e-06	8.591842e-09	5.696697e+01	5.644597e+02
1.680000e-06	8.154664e-06	8.589512e-09	5.690357e+01	5.641016e+02
1.690000e-06	8.142788e-06	8.583166e-09	5.682069e+01	5.636537e+02
1.700000e-06	8.128009e-06	8.579151e-09	5.671757e+01	5.631311e+02
1.710000e-06	8.110644e-06	8.577438e-09	5.659639e+01	5.625508e+02
1.720000e-06	8.091031e-06	8.579927e-09	5.645953e+01	5.619279e+02
1.730000e-06	8.068888e-06	8.519819e-09	5.630502e+01	5.612722e+02
1.740000e-06	8.043497e-06	8.461767e-09	5.612784e+01	5.605857e+02
1.750000e-06	8.014292e-06	8.501933e-09	5.592404e+01	5.598628e+02
1.760000e-06	7.981543e-06	8.508234e-09	5.569552e+01	5.590920e+02
1.770000e-06	7.946241e-06	8.487420e-09	5.544918e+01	5.582588e+02
1.780000e-06	7.908645e-06	8.507640e-09	5.518683e+01	5.573490e+02
1.790000e-06	7.868759e-06	8.546220e-09	5.490851e+01	5.563520e+02
1.800000e-06	7.826893e-06	8.407260e-09	5.461637e+01	5.552622e+02
1.810000e-06	7.782508e-06	8.417935e-09	5.430665e+01	5.540788e+02
1.820000e-06	7.735236e-06	8.474118e-09	5.397678e+01	5.528047e+02
1.830000e-06	7.685246e-06	8.361822e-09	5.362795e+01	5.514440e+02
1.840000e-06	7.632146e-06	8.435831e-09	5.325741e+01	5.499999e+02
1.850000e-06	7.576073e-06	8.326305e-09	5.286613e+01	5.484722e+02
1.860000e-06	7.517311e-06	8.301193e-09	5.245609e+01	5.468575e+02
1.870000e-06	7.455773e-06	8.314793e-09	5.202668e+01	5.451496e+02
1.880000e-06	7.391557e-06	8.261925e-09	5.157858e+01	5.433409e+02
1.890000e-06	7.324494e-06	8.332435e-09	5.111061e+01	5.414250e+02
1.900000e-06	7.254475e-06	8.213432e-09	5.062201e+01	5.393982e+02
1.910000e-06	7.181575e-06	8.187160e-09	5.011331e+01	5.372608e+02
1.920000e-06	7.105979e-06	8.137213e-09	4.958580e+01	5.350164e+02
1.930000e-06	7.027606e-06	8.112979e-09	4.903891e+01	5.326709e+02
1.940000e-06	6.946478e-06	8.123352e-09	4.847280e+01	5.302304e+02
1.950000e-06	6.862907e-06	8.035821e-09	4.788963e+01	5.276996e+02
1.960000e-06	6.776730e-06	8.050743e-09	4.728829e+01	5.250797e+02
1.970000e-06	6.687957e-06	7.959228e-09	4.666883e+01	5.223685e+02
1.980000e-06	6.596787e-06	7.911753e-09	4.603264e+01	5.195609e+02
1.990000e-06	6.503352e-06	7.876330e-09	4.538065e+01	5.166504e+02
2.000000e-06	6.407666e-06	7.842916e-09	4.471294e+01	5.136306e+02
2.010000e-06	6.309696e-06	7.797821e-09	4.402931e+01	5.104972e+02
2.020000e-06	6.209504e-06	7.723259e-09	4.333016e+01	5.072482e+02
2.030000e-06	6.107018e-06	7.695966e-09	4.261501e+01	5.038841e+02
2.040000e-06	6.002302e-06	7.636046e-09	4.188430e+01	5.004061e+02
2.050000e-06	5.895484e-06	7.591907e-09	4.113892e+01	4.968153e+02
2.060000e-06	5.786727e-06	7.510385e-09	4.038001e+01	4.931104e+02
2.070000e-06	5.675970e-06	7.463507e-09	3.960714e+01	4.892871e+02
2.080000e-06	5.563108e-06	7.408086e-09	3.881958e+01	4.853381e+02
2.090000e-06	5.448132e-06	7.351461e-09	3.801728e+01	4.812541e+02
2.100000e-06	5.331037e-06	7.291282e-09	3.720019e+01	4.770254e+02
2.110000e-06	5.211865e-06	7.224424e-09	3.636860e+01	4.726436e+02
2.120000e-06	5.090755e-06	7.145844e-09	3.552348e+01	4.681029e+02
2.130000e-06	4.967837e-06	7.055598e-09	3.466576e+01	4.634004e+02
2.140000e-06	4.843079e-06	6.996364e-09	3.379520e+01	4.585353e+02
2.150000e-06	4.716612e-06	6.934033e-09	3.291271e+01	4.535075e+02
2.160000e-06	4.588412e-06	6.863079e-09	3.201812e+01	4.483153e+02
2.170000e-06	4.458507e-06	6.766604e-09	3.111164e+01	4.429545e+02
2.180000e-06	4.327008e-06	6.681189e-09	3.019403e+01	4.374170e+02
2.190000e-06	4.193905e-06	6.590488e-09	2.926523e+01	4.316916e+02
2.200000e-06	4.059275e-06	6.503322e-09	2.832578e+01	4.257658e+02
2.210000e-06	3.923139e-06	6.415472e-09	2.737582e+01	4.196278e+02
2.220000e-06	3.785381e-06	6.326592e-09	2.641454e+01	4.132684e+02
2.230000e-06	3.646094e-06	6.224048e-09	2.544259e+01	4.066834e+02
2.240000e-06	3.505457e-06	6.113307e-09	2.446121e+01	3.998728e+02
2.250000e-06	3.363506e-06	6.009631e-09	2.347068e+01	3.928398e+02
2.260000e-06	3.220354e-06	5.902626e-09	2.247176e+01	3.855886e+02
2.270000e-06	3.075959e-06	5.787610e-09	2.146416e+01	3.781211e+02
2.280000e-06	2.930322e-06	5.665184e-09	2.044790e+01	3.704346e+02
2.290000e-06	2.783553e-06	5.549107e-09	1.942374e+01	3.625204e+02
2.300000e-06	2.635856e-06	5.429811e-09	1.839311e+01	3.543635e+02
2.310000e-06	2.487341e-06	5.304986e-09	1.735676e+01	3.459452e+02
2.320000e-06	2.337920e-06	5.171124e-09	1.631410e+01	3.372448e+02
2.330000e-06	2.187652e-06	5.027335e-09	1.526552e+01	3.282433e+02
2.340000e-06	2.036705e-06	4.879472e-09	1.421221e+01	3.189250e+02
2.350000e-06	1.885155e-06	4.737203e-09	1.315469e+01	3.092786e+02
2.360000e-06	1.733017e-06	4.594863e-09	1.209306e+01	2.992958e+02
2.370000e-06	1.580362e-06	4.441366e-09	1.102783e+01	2.889690e+02
2.380000e-06	1.427152e-06	4.277133e-09	9.958726e+00	2.782887e+02
2.390000e-06	1.273347e-06	4.106653e-09	8.885469e+00	2.672406e+02
2.400000e-06	1.119020e-06	3.929172e-09	7.808562e+00	2.558052e+02
2.410000e-06	9.643332e-07	3.747941e-09	6.729155e+00	2.439582e+02
2.420000e-06	8.094119e-07	3.564726e-09	5.648108e+00	2.316737e+02
2.430000e-06	6.542017e-07	3.372469e-09	4.565045e+00	2.189276e+02
2.440000e-06	4.987395e-07	3.167642e-09	3.480224e+00	2.057012e+02
2.450000e-06	3.430992e-07	2.955188e-09	2.394159e+00	1.919826e+02
2.460000e-06	1.873205e-07	2.739564e-09	1.307130e+00	1.777655e+02
2.470000e-06	3.146516e-08	2.514987e-09	2.195651e-01	1.630452e+02
2.480000e-06	-1.244204e-07	2.280431e-09	-8.682101e-01	1.478118e+02
2.490000e-06	-2.803445e-07	2.039515e-09	-1.956255e+00	1.320437e+02
2.500000e-06	-4.362421e-07	1.792231e-09	-3.044114e+00	1.157016e+02
2.510000e-06	-5.919908e-07	1.533411e-09	-4.130935e+00	9.872772e+01
2.520000e-06	-7.475843e-07	1.259801e-09	-5.216672e+00	8.104987e+01
2.530000e-06	-9.029607e-07	9.743773e-10	-6.300895e+00	6.259199e+01
2.540000e-06	-1.057973e-06	6.782612e-10	-7.382579e+00	4.328970e+01
2.550000e-06	-1.212543e-06	3.700714e-10	-8.461172e+00	2.310852e+01
2.560000e-06	-1.366607e-06	5.114166e-11	-9.536239e+00	2.061280e+00
2.570000e-06	-1.520141e-06	-2.786554e-10	-1.060761e+01	-1.977907e+01
2.580000e-06	-1.673102e-06	-6.199528e-10	-1.167497e+01	-4.227429e+01
2.590000e-06	-1.825423e-06	-9.718875e-10	-1.273787e+01	-6.522532e+01
2.600000e-06	-1.977151e-06	-1.328805e-09	-1.379664e+01	-8.838614e+01
2.610000e-06	-2.128232e-06	-1.684422e-09	-1.485089e+01	-1.114854e+02
2.620000e-06	-2.278537e-06	-2.033495e-09	-1.589972e+01	-1.342518e+02
2.630000e-06	-2.427913e-06	-2.370273e-09	-1.694207e+01	-1.564396e+02
2.640000e-06	-2.576297e-06	-2.694953e-09	-1.797750e+01	-1.778494e+02
2.650000e-06	-2.723707e-06	-3.008078e-09	-1.900613e+01	-1.983409e+02
2.660000e-06	-2.870103e-06	-3.308209e-09	-2.002769e+01	-2.178366e+02
2.670000e-06	-3.015404e-06	-3.592382e-09	-2.104161e+01	-2.363163e+02
2.680000e-06	-3.159524e-06	-3.859537e-09	-2.204729e+01	-2.538044e+02
2.690000e-06	-3.302440e-06	-4.112521e-09	-2.304455e+01	-2.703538e+02
2.700000e-06	-3.444108e-06	-4.353446e-09	-2.403312e+01	-2.860295e+02
2.710000e-06	-3.584438e-06	-4.583575e-09	-2.501235e+01	-3.008952e+02
2.720000e-06	-3.723395e-06	-4.802944e-09	-2.598200e+01	-3.150052e+02
2.730000e-06	-3.860965e-06	-5.010071e-09	-2.694196e+01	-3.284019e+02
2.740000e-06	-3.997086e-06	-5.205138e-09	-2.789183e+01	-3.411178e+02
2.750000e-06	-4.131777e-06	-5.389819e-09	-2.883170e+01	-3.531809e+02
2.760000e-06	-4.265028e-06	-5.564557e-09	-2.976153e+01	-3.646198e+02
2.770000e-06	-4.396758e-06	-5.728720e-09	-3.068075e+01	-3.754677e+02
2.780000e-06	-4.527008e-06	-5.883479e-09	-3.158964e+01	-3.857633e+02
2.790000e-06	-4.655744e-06	-6.031782e-09	-3.248797e+01	-3.955487e+02
2.800000e-06	-4.782840e-06	-6.176282e-09	-3.337485e+01	-4.048651e+02
2.810000e-06	-4.908284e-06	-6.315505e-09	-3.425020e+01	-4.137479e+02
2.820000e-06	-5.032005e-06	-6.446977e-09	-3.511353e+01	-4.222230e+02
2.830000e-06	-5.153886e-06	-6.571097e-09	-3.596402e+01	-4.303046e+02
2.840000e-06	-5.273904e-06	-6.687522e-09	-3.680151e+01	-4.379978e+02
2.850000e-06	-5.391914e-06	-6.798038e-09	-3.762499e+01	-4.453019e+02
2.860000e-06	-5.507712e-06	-6.905377e-09	-3.843303e+01	-4.522163e+02
2.870000e-06	-5.621302e-06	-7.006858e-09	-3.922567e+01	-4.587464e+02
2.880000e-06	-5.732739e-06	-7.101243e-09	-4.000328e+01	-4.649074e+02
2.890000e-06	-5.842045e-06	-7.190243e-09	-4.076602e+01	-4.707257e+02
2.900000e-06	-5.949294e-06	-7.275880e-09	-4.151441e+01	-4.762368e+02
2.910000e-06	-6.054481e-06	-7.358878e-09	-4.224840e+01	-4.814815e+02
2.920000e-06	-6.157455e-06	-7.435691e-09	-4.296697e+01	-4.865003e+02
2.930000e-06	-6.258059e-06	-7.509054e-09	-4.366898e+01	-4.913273e+02
2.940000e-06	-6.356366e-06	-7.581389e-09	-4.435497e+01	-4.959868e+02
