# Temperatura_=_74.64
# Concentracion g/m^3_=_15000.0
# C_Vs_to_Am_M_A/Vsm_=_65563218390.804596
# pendiente_HvsI_1/m_=_3716.3
# ordenada_HvsI_A/m_=_1297.0
# frecuencia_Hz_=_302363.0119935924

Tiempo_(s)	Campo_(V.s)	Magnetizacion_(V.s)	Campo_(kA/m)	Magnetizacion_(A/m)
0.000000e+00	-8.133386e-06	-1.254055e-08	-5.689762e+01	-8.206305e+02
1.000000e-08	-8.128726e-06	-1.253883e-08	-5.686501e+01	-8.202915e+02
2.000000e-08	-8.121541e-06	-1.253025e-08	-5.681476e+01	-8.197934e+02
3.000000e-08	-8.111565e-06	-1.251787e-08	-5.674497e+01	-8.191337e+02
4.000000e-08	-8.098690e-06	-1.250413e-08	-5.665490e+01	-8.183163e+02
5.000000e-08	-8.082910e-06	-1.248923e-08	-5.654451e+01	-8.173518e+02
6.000000e-08	-8.064450e-06	-1.247089e-08	-5.641537e+01	-8.162557e+02
7.000000e-08	-8.043664e-06	-1.245244e-08	-5.626996e+01	-8.150468e+02
8.000000e-08	-8.020268e-06	-1.243981e-08	-5.610629e+01	-8.137444e+02
9.000000e-08	-7.993747e-06	-1.245561e-08	-5.592076e+01	-8.123656e+02
1.000000e-07	-7.964015e-06	-1.243327e-08	-5.571277e+01	-8.109235e+02
1.100000e-07	-7.931297e-06	-1.237832e-08	-5.548389e+01	-8.094248e+02
1.200000e-07	-7.895681e-06	-1.234029e-08	-5.523474e+01	-8.078689e+02
1.300000e-07	-7.857483e-06	-1.230080e-08	-5.496752e+01	-8.062472e+02
1.400000e-07	-7.816979e-06	-1.225240e-08	-5.468417e+01	-8.045436e+02
1.500000e-07	-7.774127e-06	-1.221874e-08	-5.438440e+01	-8.027356e+02
1.600000e-07	-7.728646e-06	-1.224078e-08	-5.406623e+01	-8.007961e+02
1.700000e-07	-7.680382e-06	-1.218577e-08	-5.372860e+01	-7.986972e+02
1.800000e-07	-7.629252e-06	-1.211209e-08	-5.337091e+01	-7.964125e+02
1.900000e-07	-7.575146e-06	-1.211753e-08	-5.299241e+01	-7.939214e+02
2.000000e-07	-7.518194e-06	-1.204227e-08	-5.259401e+01	-7.912116e+02
2.100000e-07	-7.458565e-06	-1.197737e-08	-5.217687e+01	-7.882805e+02
2.200000e-07	-7.396310e-06	-1.195154e-08	-5.174136e+01	-7.851361e+02
2.300000e-07	-7.331327e-06	-1.190300e-08	-5.128677e+01	-7.817942e+02
2.400000e-07	-7.263520e-06	-1.185608e-08	-5.081241e+01	-7.782761e+02
2.500000e-07	-7.192875e-06	-1.179485e-08	-5.031821e+01	-7.746034e+02
2.600000e-07	-7.119398e-06	-1.175649e-08	-4.980420e+01	-7.707945e+02
2.700000e-07	-7.043124e-06	-1.167742e-08	-4.927062e+01	-7.668602e+02
2.800000e-07	-6.964103e-06	-1.159688e-08	-4.871782e+01	-7.628027e+02
2.900000e-07	-6.882404e-06	-1.153407e-08	-4.814629e+01	-7.586151e+02
3.000000e-07	-6.798263e-06	-1.147774e-08	-4.755768e+01	-7.542841e+02
3.100000e-07	-6.711756e-06	-1.142933e-08	-4.695251e+01	-7.497934e+02
3.200000e-07	-6.622807e-06	-1.134693e-08	-4.633027e+01	-7.451279e+02
3.300000e-07	-6.531424e-06	-1.127204e-08	-4.569099e+01	-7.402773e+02
3.400000e-07	-6.437696e-06	-1.119048e-08	-4.503531e+01	-7.352380e+02
3.500000e-07	-6.341692e-06	-1.111225e-08	-4.436371e+01	-7.300131e+02
3.600000e-07	-6.243371e-06	-1.102945e-08	-4.367590e+01	-7.246107e+02
3.700000e-07	-6.142790e-06	-1.094464e-08	-4.297228e+01	-7.190402e+02
3.800000e-07	-6.039980e-06	-1.086640e-08	-4.225306e+01	-7.133091e+02
3.900000e-07	-5.934953e-06	-1.077519e-08	-4.151834e+01	-7.074194e+02
4.000000e-07	-5.827860e-06	-1.067996e-08	-4.076917e+01	-7.013668e+02
4.100000e-07	-5.718757e-06	-1.057772e-08	-4.000593e+01	-6.951409e+02
4.200000e-07	-5.607559e-06	-1.048822e-08	-3.922803e+01	-6.887274e+02
4.300000e-07	-5.494252e-06	-1.038736e-08	-3.843539e+01	-6.821114e+02
4.400000e-07	-5.378901e-06	-1.027533e-08	-3.762844e+01	-6.752809e+02
4.500000e-07	-5.261523e-06	-1.017023e-08	-3.680732e+01	-6.682293e+02
4.600000e-07	-5.142141e-06	-1.006828e-08	-3.597217e+01	-6.609553e+02
4.700000e-07	-5.020881e-06	-9.949871e-09	-3.512389e+01	-6.534625e+02
4.800000e-07	-4.897865e-06	-9.824523e-09	-3.426333e+01	-6.457557e+02
4.900000e-07	-4.773128e-06	-9.708651e-09	-3.339072e+01	-6.378381e+02
5.000000e-07	-4.646678e-06	-9.585339e-09	-3.250613e+01	-6.297078e+02
5.100000e-07	-4.518501e-06	-9.453704e-09	-3.160946e+01	-6.213568e+02
5.200000e-07	-4.388635e-06	-9.326204e-09	-3.070098e+01	-6.127709e+02
5.300000e-07	-4.257092e-06	-9.199147e-09	-2.978076e+01	-6.039327e+02
5.400000e-07	-4.124023e-06	-9.050908e-09	-2.884987e+01	-5.948250e+02
5.500000e-07	-3.989459e-06	-8.896454e-09	-2.790851e+01	-5.854347e+02
5.600000e-07	-3.853270e-06	-8.750164e-09	-2.695579e+01	-5.757549e+02
5.700000e-07	-3.715579e-06	-8.603028e-09	-2.599257e+01	-5.657862e+02
5.800000e-07	-3.576461e-06	-8.444348e-09	-2.501936e+01	-5.555343e+02
5.900000e-07	-3.435827e-06	-8.284098e-09	-2.403554e+01	-5.450064e+02
6.000000e-07	-3.293737e-06	-8.122943e-09	-2.304155e+01	-5.342065e+02
6.100000e-07	-3.150308e-06	-7.949038e-09	-2.203818e+01	-5.231311e+02
6.200000e-07	-3.005666e-06	-7.771671e-09	-2.102633e+01	-5.117673e+02
6.300000e-07	-2.859987e-06	-7.595883e-09	-2.000722e+01	-5.000926e+02
6.400000e-07	-2.713297e-06	-7.416642e-09	-1.898104e+01	-4.880789e+02
6.500000e-07	-2.565655e-06	-7.225616e-09	-1.794820e+01	-4.756974e+02
6.600000e-07	-2.417148e-06	-7.027769e-09	-1.690931e+01	-4.629240e+02
6.700000e-07	-2.267861e-06	-6.825802e-09	-1.586496e+01	-4.497444e+02
6.800000e-07	-2.117856e-06	-6.614906e-09	-1.481559e+01	-4.361548e+02
6.900000e-07	-1.967110e-06	-6.399917e-09	-1.376104e+01	-4.221611e+02
7.000000e-07	-1.815641e-06	-6.182408e-09	-1.270143e+01	-4.077727e+02
7.100000e-07	-1.663523e-06	-5.959262e-09	-1.163728e+01	-3.929957e+02
7.200000e-07	-1.510873e-06	-5.729518e-09	-1.056941e+01	-3.778260e+02
7.300000e-07	-1.357740e-06	-5.494680e-09	-9.498160e+00	-3.622432e+02
7.400000e-07	-1.204113e-06	-5.250146e-09	-8.423451e+00	-3.462102e+02
7.500000e-07	-1.050029e-06	-4.992994e-09	-7.345547e+00	-3.296754e+02
7.600000e-07	-8.955990e-07	-4.727337e-09	-6.265220e+00	-3.125795e+02
7.700000e-07	-7.409224e-07	-4.455736e-09	-5.183170e+00	-2.948643e+02
7.800000e-07	-5.859931e-07	-4.175898e-09	-4.099352e+00	-2.764800e+02
7.900000e-07	-4.308673e-07	-3.887577e-09	-3.014160e+00	-2.573902e+02
8.000000e-07	-2.755881e-07	-3.590637e-09	-1.927894e+00	-2.375710e+02
8.100000e-07	-1.202114e-07	-3.278935e-09	-8.409462e-01	-2.170050e+02
8.200000e-07	3.519246e-08	-2.952205e-09	2.461911e-01	-1.956715e+02
8.300000e-07	1.906388e-07	-2.615841e-09	1.333626e+00	-1.735346e+02
8.400000e-07	3.460964e-07	-2.268115e-09	2.421139e+00	-1.505343e+02
8.500000e-07	5.014703e-07	-1.902379e-09	3.508067e+00	-1.265839e+02
8.600000e-07	6.567368e-07	-1.516796e-09	4.594244e+00	-1.015756e+02
8.700000e-07	8.118575e-07	-1.115579e-09	5.679401e+00	-7.539659e+01
8.800000e-07	9.667048e-07	-6.987468e-10	6.762645e+00	-4.795221e+01
8.900000e-07	1.121227e-06	-2.629667e-10	7.843615e+00	-1.919373e+01
9.000000e-07	1.275302e-06	1.913459e-10	8.921458e+00	1.085512e+01
9.100000e-07	1.428872e-06	6.630367e-10	9.995762e+00	4.207873e+01
9.200000e-07	1.582009e-06	1.152563e-09	1.106704e+01	7.426183e+01
9.300000e-07	1.734654e-06	1.655971e-09	1.213488e+01	1.070963e+02
9.400000e-07	1.886659e-06	2.161630e-09	1.319824e+01	1.402027e+02
9.500000e-07	2.037912e-06	2.663157e-09	1.425635e+01	1.731631e+02
9.600000e-07	2.188406e-06	3.157285e-09	1.530914e+01	2.055610e+02
9.700000e-07	2.338055e-06	3.636987e-09	1.635601e+01	2.370205e+02
9.800000e-07	2.486738e-06	4.094655e-09	1.739613e+01	2.672390e+02
9.900000e-07	2.634466e-06	4.526686e-09	1.842957e+01	2.960086e+02
1.000000e-06	2.781226e-06	4.935987e-09	1.945624e+01	3.232225e+02
1.010000e-06	2.926931e-06	5.324672e-09	2.047553e+01	3.488673e+02
1.020000e-06	3.071579e-06	5.690088e-09	2.148742e+01	3.730042e+02
1.030000e-06	3.215118e-06	6.035019e-09	2.249156e+01	3.957431e+02
1.040000e-06	3.357409e-06	6.363876e-09	2.348697e+01	4.172150e+02
1.050000e-06	3.498319e-06	6.675814e-09	2.447272e+01	4.375489e+02
1.060000e-06	3.637795e-06	6.969357e-09	2.544843e+01	4.568556e+02
1.070000e-06	3.775909e-06	7.247412e-09	2.641461e+01	4.752205e+02
1.080000e-06	3.912697e-06	7.513390e-09	2.737152e+01	4.927039e+02
1.090000e-06	4.048026e-06	7.766326e-09	2.831822e+01	5.093485e+02
1.100000e-06	4.181883e-06	8.005287e-09	2.925463e+01	5.251883e+02
1.110000e-06	4.314310e-06	8.231586e-09	3.018103e+01	5.402576e+02
1.120000e-06	4.445187e-06	8.446870e-09	3.109658e+01	5.545969e+02
1.130000e-06	4.574455e-06	8.651442e-09	3.200089e+01	5.682545e+02
1.140000e-06	4.702145e-06	8.847152e-09	3.289415e+01	5.812843e+02
1.150000e-06	4.828259e-06	9.036116e-09	3.377639e+01	5.937410e+02
1.160000e-06	4.952703e-06	9.218975e-09	3.464695e+01	6.056742e+02
1.170000e-06	5.075385e-06	9.394332e-09	3.550518e+01	6.171242e+02
1.180000e-06	5.196334e-06	9.562488e-09	3.635128e+01	6.281196e+02
1.190000e-06	5.315423e-06	9.724658e-09	3.718438e+01	6.386784e+02
1.200000e-06	5.432441e-06	9.880422e-09	3.800298e+01	6.488106e+02
1.210000e-06	5.547320e-06	1.002828e-08	3.880663e+01	6.585228e+02
1.220000e-06	5.660086e-06	1.016838e-08	3.959549e+01	6.678214e+02
1.230000e-06	5.770821e-06	1.030353e-08	4.037014e+01	6.767159e+02
1.240000e-06	5.879467e-06	1.043335e-08	4.113019e+01	6.852191e+02
1.250000e-06	5.985973e-06	1.055823e-08	4.187526e+01	6.933464e+02
1.260000e-06	6.090296e-06	1.067794e-08	4.260505e+01	7.011131e+02
1.270000e-06	6.192395e-06	1.079067e-08	4.331929e+01	7.085328e+02
1.280000e-06	6.292193e-06	1.089813e-08	4.401743e+01	7.156159e+02
1.290000e-06	6.389588e-06	1.100149e-08	4.469877e+01	7.223697e+02
1.300000e-06	6.484550e-06	1.110008e-08	4.536308e+01	7.288005e+02
1.310000e-06	6.577185e-06	1.119271e-08	4.601111e+01	7.349162e+02
1.320000e-06	6.667530e-06	1.127924e-08	4.664313e+01	7.407290e+02
1.330000e-06	6.755515e-06	1.136120e-08	4.725863e+01	7.462571e+02
1.340000e-06	6.841155e-06	1.144053e-08	4.785774e+01	7.515249e+02
1.350000e-06	6.924383e-06	1.151883e-08	4.843996e+01	7.565606e+02
1.360000e-06	7.005072e-06	1.159524e-08	4.900442e+01	7.613930e+02
1.370000e-06	7.083214e-06	1.166782e-08	4.955107e+01	7.660467e+02
1.380000e-06	7.158761e-06	1.173739e-08	5.007957e+01	7.705384e+02
1.390000e-06	7.231610e-06	1.180466e-08	5.058918e+01	7.748746e+02
1.400000e-06	7.301855e-06	1.186800e-08	5.108059e+01	7.790509e+02
1.410000e-06	7.369527e-06	1.192714e-08	5.155399e+01	7.830547e+02
1.420000e-06	7.434546e-06	1.198369e-08	5.200884e+01	7.868686e+02
1.430000e-06	7.496973e-06	1.203899e-08	5.244555e+01	7.904752e+02
1.440000e-06	7.556869e-06	1.209171e-08	5.286456e+01	7.938613e+02
1.450000e-06	7.614148e-06	1.214025e-08	5.326525e+01	7.970210e+02
1.460000e-06	7.668682e-06	1.218485e-08	5.364675e+01	7.999563e+02
1.470000e-06	7.720183e-06	1.222595e-08	5.400703e+01	8.026759e+02
1.480000e-06	7.768504e-06	1.226457e-08	5.434507e+01	8.051925e+02
1.490000e-06	7.813970e-06	1.230032e-08	5.466312e+01	8.075189e+02
1.500000e-06	7.856744e-06	1.233268e-08	5.496235e+01	8.096654e+02
1.510000e-06	7.896674e-06	1.236188e-08	5.524168e+01	8.116374e+02
1.520000e-06	7.933801e-06	1.238633e-08	5.550141e+01	8.134355e+02
1.530000e-06	7.968163e-06	1.240764e-08	5.574179e+01	8.150571e+02
1.540000e-06	7.999641e-06	1.242892e-08	5.596200e+01	8.164986e+02
1.550000e-06	8.028321e-06	1.244907e-08	5.616263e+01	8.177586e+02
1.560000e-06	8.054161e-06	1.246560e-08	5.634339e+01	8.188397e+02
1.570000e-06	8.077014e-06	1.247939e-08	5.650327e+01	8.197496e+02
1.580000e-06	8.096990e-06	1.249269e-08	5.664300e+01	8.205005e+02
1.590000e-06	8.114083e-06	1.250427e-08	5.676259e+01	8.211069e+02
1.600000e-06	8.128158e-06	1.251215e-08	5.686104e+01	8.215826e+02
1.610000e-06	8.139112e-06	1.251742e-08	5.693767e+01	8.219380e+02
1.620000e-06	8.146932e-06	1.252163e-08	5.699238e+01	8.221780e+02
1.630000e-06	8.151877e-06	1.252523e-08	5.702697e+01	8.223008e+02
1.640000e-06	8.153954e-06	1.252599e-08	5.704150e+01	8.222992e+02
1.650000e-06	8.153082e-06	1.252335e-08	5.703540e+01	8.221622e+02
1.660000e-06	8.149504e-06	1.251557e-08	5.701037e+01	8.218779e+02
1.670000e-06	8.143200e-06	1.250895e-08	5.696627e+01	8.214368e+02
1.680000e-06	8.134167e-06	1.250240e-08	5.690308e+01	8.208344e+02
1.690000e-06	8.122398e-06	1.249300e-08	5.682075e+01	8.200721e+02
1.700000e-06	8.107709e-06	1.248269e-08	5.671799e+01	8.191582e+02
1.710000e-06	8.090385e-06	1.247247e-08	5.659680e+01	8.181067e+02
1.720000e-06	8.070791e-06	1.245685e-08	5.645973e+01	8.169355e+02
1.730000e-06	8.048629e-06	1.241981e-08	5.630469e+01	8.156640e+02
1.740000e-06	8.023169e-06	1.235672e-08	5.612659e+01	8.143104e+02
1.750000e-06	7.993930e-06	1.235307e-08	5.592204e+01	8.128894e+02
1.760000e-06	7.961275e-06	1.235271e-08	5.569360e+01	8.114102e+02
1.770000e-06	7.926082e-06	1.233028e-08	5.544741e+01	8.098749e+02
1.780000e-06	7.888631e-06	1.233055e-08	5.518542e+01	8.082779e+02
1.790000e-06	7.848893e-06	1.234285e-08	5.490743e+01	8.066055e+02
1.800000e-06	7.807118e-06	1.227063e-08	5.461519e+01	8.048373e+02
1.810000e-06	7.762862e-06	1.221177e-08	5.430559e+01	8.029476e+02
1.820000e-06	7.715700e-06	1.224848e-08	5.397567e+01	8.009085e+02
1.830000e-06	7.665812e-06	1.217263e-08	5.362667e+01	7.986925e+02
1.840000e-06	7.612860e-06	1.216889e-08	5.325624e+01	7.962767e+02
1.850000e-06	7.556916e-06	1.213746e-08	5.286489e+01	7.936454e+02
1.860000e-06	7.498275e-06	1.206181e-08	5.245466e+01	7.907926e+02
1.870000e-06	7.436850e-06	1.203614e-08	5.202496e+01	7.877226e+02
1.880000e-06	7.372676e-06	1.194847e-08	5.157602e+01	7.844486e+02
1.890000e-06	7.305672e-06	1.193657e-08	5.110729e+01	7.809905e+02
1.900000e-06	7.235883e-06	1.185980e-08	5.061908e+01	7.773703e+02
1.910000e-06	7.163276e-06	1.179998e-08	5.011115e+01	7.736080e+02
1.920000e-06	7.087838e-06	1.176205e-08	4.958342e+01	7.697174e+02
1.930000e-06	7.009662e-06	1.168180e-08	4.903653e+01	7.657039e+02
1.940000e-06	6.928767e-06	1.166051e-08	4.847063e+01	7.615637e+02
1.950000e-06	6.845327e-06	1.155517e-08	4.788692e+01	7.572853e+02
1.960000e-06	6.759370e-06	1.148565e-08	4.728560e+01	7.528532e+02
1.970000e-06	6.670850e-06	1.141559e-08	4.666636e+01	7.482513e+02
1.980000e-06	6.579930e-06	1.134017e-08	4.603032e+01	7.434672e+02
1.990000e-06	6.486752e-06	1.128210e-08	4.537849e+01	7.384949e+02
2.000000e-06	6.391228e-06	1.119950e-08	4.471024e+01	7.333352e+02
2.010000e-06	6.293377e-06	1.112994e-08	4.402572e+01	7.279948e+02
2.020000e-06	6.193354e-06	1.101279e-08	4.332600e+01	7.224829e+02
2.030000e-06	6.091065e-06	1.092596e-08	4.261043e+01	7.168082e+02
2.040000e-06	5.986534e-06	1.084538e-08	4.187918e+01	7.109749e+02
2.050000e-06	5.879960e-06	1.077855e-08	4.113363e+01	7.049811e+02
2.060000e-06	5.771435e-06	1.068076e-08	4.037444e+01	6.988183e+02
2.070000e-06	5.660892e-06	1.056817e-08	3.960113e+01	6.924731e+02
2.080000e-06	5.548237e-06	1.047100e-08	3.881304e+01	6.859307e+02
2.090000e-06	5.433449e-06	1.036069e-08	3.801004e+01	6.791775e+02
2.100000e-06	5.316584e-06	1.025310e-08	3.719250e+01	6.722049e+02
2.110000e-06	5.197720e-06	1.015034e-08	3.636098e+01	6.650098e+02
2.120000e-06	5.076930e-06	1.005135e-08	3.551599e+01	6.575942e+02
2.130000e-06	4.954354e-06	9.921282e-09	3.465850e+01	6.499630e+02
2.140000e-06	4.829948e-06	9.800763e-09	3.378821e+01	6.421202e+02
2.150000e-06	4.703781e-06	9.686239e-09	3.290560e+01	6.340661e+02
2.160000e-06	4.575927e-06	9.565424e-09	3.201119e+01	6.257949e+02
2.170000e-06	4.446408e-06	9.423304e-09	3.110513e+01	6.172944e+02
2.180000e-06	4.315272e-06	9.285927e-09	3.018776e+01	6.085481e+02
2.190000e-06	4.182493e-06	9.156052e-09	2.925890e+01	5.995381e+02
2.200000e-06	4.048184e-06	9.017214e-09	2.831933e+01	5.902494e+02
2.210000e-06	3.912359e-06	8.874550e-09	2.736916e+01	5.806730e+02
2.220000e-06	3.774997e-06	8.727579e-09	2.640823e+01	5.708066e+02
2.230000e-06	3.636138e-06	8.570016e-09	2.543684e+01	5.606547e+02
2.240000e-06	3.495866e-06	8.403968e-09	2.445555e+01	5.502243e+02
2.250000e-06	3.354279e-06	8.247556e-09	2.346507e+01	5.395211e+02
2.260000e-06	3.211452e-06	8.092746e-09	2.246591e+01	5.285448e+02
2.270000e-06	3.067449e-06	7.925476e-09	2.145854e+01	5.172857e+02
2.280000e-06	2.922242e-06	7.737813e-09	2.044273e+01	5.057247e+02
2.290000e-06	2.775931e-06	7.546360e-09	1.941920e+01	4.938351e+02
2.300000e-06	2.628699e-06	7.356920e-09	1.838923e+01	4.815877e+02
2.310000e-06	2.480498e-06	7.169392e-09	1.735248e+01	4.689562e+02
2.320000e-06	2.331383e-06	6.979863e-09	1.630934e+01	4.559222e+02
2.330000e-06	2.181517e-06	6.779746e-09	1.526094e+01	4.424785e+02
2.340000e-06	2.030950e-06	6.565791e-09	1.420764e+01	4.286277e+02
2.350000e-06	1.879752e-06	6.347188e-09	1.314992e+01	4.143788e+02
2.360000e-06	1.728022e-06	6.125810e-09	1.208849e+01	3.997401e+02
2.370000e-06	1.575750e-06	5.896234e-09	1.102326e+01	3.847117e+02
2.380000e-06	1.422856e-06	5.658961e-09	9.953678e+00	3.692795e+02
2.390000e-06	1.269368e-06	5.414537e-09	8.879945e+00	3.534122e+02
2.400000e-06	1.115416e-06	5.163643e-09	7.802961e+00	3.370628e+02
2.410000e-06	9.611506e-07	4.906797e-09	6.723790e+00	3.201739e+02
2.420000e-06	8.066454e-07	4.643709e-09	5.642939e+00	3.026858e+02
2.430000e-06	6.518740e-07	4.369259e-09	4.560226e+00	2.845451e+02
2.440000e-06	4.968762e-07	4.080309e-09	3.475929e+00	2.657102e+02
2.450000e-06	3.416753e-07	3.779002e-09	2.390211e+00	2.461532e+02
2.460000e-06	1.863289e-07	3.472003e-09	1.303476e+00	2.258556e+02
2.470000e-06	3.088624e-08	3.155330e-09	2.160667e-01	2.047990e+02
2.480000e-06	-1.246107e-07	2.821589e-09	-8.717223e-01	1.829541e+02
2.490000e-06	-2.800574e-07	2.471716e-09	-1.959160e+00	1.602704e+02
2.500000e-06	-4.354135e-07	2.106525e-09	-3.045963e+00	1.366704e+02
2.510000e-06	-5.906836e-07	1.726810e-09	-4.132165e+00	1.120527e+02
2.520000e-06	-7.458185e-07	1.331705e-09	-5.217421e+00	8.630387e+01
2.530000e-06	-9.007049e-07	9.218063e-10	-6.300938e+00	5.931963e+01
2.540000e-06	-1.055273e-06	4.943446e-10	-7.382227e+00	3.103167e+01
2.550000e-06	-1.209479e-06	4.492578e-11	-8.460986e+00	1.435108e+00
2.560000e-06	-1.363245e-06	-4.248624e-10	-9.536668e+00	-2.938884e+01
2.570000e-06	-1.516494e-06	-9.096888e-10	-1.060873e+01	-6.126048e+01
2.580000e-06	-1.669103e-06	-1.408269e-09	-1.167631e+01	-9.390314e+01
2.590000e-06	-1.820985e-06	-1.918217e-09	-1.273881e+01	-1.269595e+02
2.600000e-06	-1.972212e-06	-2.429942e-09	-1.379674e+01	-1.600212e+02
2.610000e-06	-2.122783e-06	-2.933058e-09	-1.485006e+01	-1.926664e+02
2.620000e-06	-2.272635e-06	-3.420526e-09	-1.589836e+01	-2.245005e+02
2.630000e-06	-2.421668e-06	-3.888380e-09	-1.694093e+01	-2.551917e+02
2.640000e-06	-2.569749e-06	-4.334849e-09	-1.797684e+01	-2.844966e+02
2.650000e-06	-2.716789e-06	-4.758851e-09	-1.900547e+01	-3.122725e+02
2.660000e-06	-2.862804e-06	-5.160893e-09	-2.002693e+01	-3.384744e+02
2.670000e-06	-3.007737e-06	-5.541668e-09	-2.104082e+01	-3.631396e+02
2.680000e-06	-3.151481e-06	-5.900747e-09	-2.204639e+01	-3.863636e+02
2.690000e-06	-3.294015e-06	-6.237996e-09	-2.304349e+01	-4.082730e+02
2.700000e-06	-3.435343e-06	-6.555640e-09	-2.403216e+01	-4.289997e+02
2.710000e-06	-3.575394e-06	-6.858218e-09	-2.501189e+01	-4.486625e+02
2.720000e-06	-3.714089e-06	-7.147214e-09	-2.598214e+01	-4.673560e+02
2.730000e-06	-3.851391e-06	-7.420919e-09	-2.694265e+01	-4.851490e+02
2.740000e-06	-3.987226e-06	-7.676312e-09	-2.789289e+01	-5.020894e+02
2.750000e-06	-4.121654e-06	-7.917633e-09	-2.883329e+01	-5.182132e+02
2.760000e-06	-4.254623e-06	-8.151828e-09	-2.976348e+01	-5.335538e+02
2.770000e-06	-4.386090e-06	-8.379625e-09	-3.068317e+01	-5.481490e+02
2.780000e-06	-4.516112e-06	-8.598064e-09	-3.159275e+01	-5.620444e+02
2.790000e-06	-4.644566e-06	-8.803899e-09	-3.249136e+01	-5.752924e+02
2.800000e-06	-4.771346e-06	-9.000088e-09	-3.337825e+01	-5.879481e+02
2.810000e-06	-4.896467e-06	-9.187869e-09	-3.425355e+01	-6.000635e+02
2.820000e-06	-5.019886e-06	-9.367086e-09	-3.511693e+01	-6.116825e+02
2.830000e-06	-5.141494e-06	-9.538007e-09	-3.596765e+01	-6.228380e+02
2.840000e-06	-5.261152e-06	-9.697753e-09	-3.680472e+01	-6.335516e+02
2.850000e-06	-5.378764e-06	-9.848120e-09	-3.762749e+01	-6.438357e+02
2.860000e-06	-5.494275e-06	-9.995486e-09	-3.843555e+01	-6.536976e+02
2.870000e-06	-5.607552e-06	-1.014135e-08	-3.922798e+01	-6.631433e+02
2.880000e-06	-5.718636e-06	-1.028230e-08	-4.000508e+01	-6.721812e+02
2.890000e-06	-5.827671e-06	-1.041623e-08	-4.076784e+01	-6.808229e+02
2.900000e-06	-5.934664e-06	-1.054379e-08	-4.151632e+01	-6.890830e+02
2.910000e-06	-6.039496e-06	-1.066481e-08	-4.224968e+01	-6.969771e+02
2.920000e-06	-6.142028e-06	-1.077812e-08	-4.296695e+01	-7.045198e+02
2.930000e-06	-6.242305e-06	-1.088755e-08	-4.366844e+01	-7.117224e+02
2.940000e-06	-6.340423e-06	-1.099278e-08	-4.435483e+01	-7.185935e+02
