# Temperatura_=_29.65
# Concentracion g/m^3_=_15000.0
# C_Vs_to_Am_M_A/Vsm_=_65563218390.804596
# pendiente_HvsI_1/m_=_3716.3
# ordenada_HvsI_A/m_=_1297.0
# frecuencia_Hz_=_302361.0699578072

Tiempo_(s)	Campo_(V.s)	Magnetizacion_(V.s)	Campo_(kA/m)	Magnetizacion_(A/m)
0.000000e+00	-8.125203e-06	-8.616599e-09	-5.689463e+01	-5.633636e+02
1.000000e-08	-8.120613e-06	-8.616134e-09	-5.686249e+01	-5.632080e+02
2.000000e-08	-8.113409e-06	-8.609710e-09	-5.681205e+01	-5.629603e+02
3.000000e-08	-8.103420e-06	-8.602523e-09	-5.674210e+01	-5.626122e+02
4.000000e-08	-8.090503e-06	-8.594647e-09	-5.665165e+01	-5.621613e+02
5.000000e-08	-8.074626e-06	-8.585268e-09	-5.654048e+01	-5.616131e+02
6.000000e-08	-8.056151e-06	-8.571890e-09	-5.641111e+01	-5.609806e+02
7.000000e-08	-8.035425e-06	-8.556669e-09	-5.626598e+01	-5.602824e+02
8.000000e-08	-8.012094e-06	-8.560644e-09	-5.610261e+01	-5.595392e+02
9.000000e-08	-7.985617e-06	-8.599156e-09	-5.591722e+01	-5.587694e+02
1.000000e-07	-7.955907e-06	-8.574452e-09	-5.570918e+01	-5.579851e+02
1.100000e-07	-7.923155e-06	-8.525764e-09	-5.547984e+01	-5.571895e+02
1.200000e-07	-7.887575e-06	-8.504595e-09	-5.523070e+01	-5.563752e+02
1.300000e-07	-7.849439e-06	-8.476119e-09	-5.496367e+01	-5.555254e+02
1.400000e-07	-7.808924e-06	-8.427972e-09	-5.467997e+01	-5.546164e+02
1.500000e-07	-7.766055e-06	-8.404610e-09	-5.437979e+01	-5.536218e+02
1.600000e-07	-7.720569e-06	-8.483707e-09	-5.406128e+01	-5.525166e+02
1.700000e-07	-7.672260e-06	-8.409275e-09	-5.372301e+01	-5.512822e+02
1.800000e-07	-7.621071e-06	-8.362409e-09	-5.336458e+01	-5.499083e+02
1.900000e-07	-7.566975e-06	-8.406802e-09	-5.298579e+01	-5.483947e+02
2.000000e-07	-7.510108e-06	-8.310936e-09	-5.258759e+01	-5.467500e+02
2.100000e-07	-7.450531e-06	-8.286097e-09	-5.217042e+01	-5.449894e+02
2.200000e-07	-7.388318e-06	-8.269820e-09	-5.173478e+01	-5.431308e+02
2.300000e-07	-7.323489e-06	-8.237818e-09	-5.128083e+01	-5.411906e+02
2.400000e-07	-7.255861e-06	-8.210095e-09	-5.080729e+01	-5.391804e+02
2.500000e-07	-7.185379e-06	-8.181733e-09	-5.031375e+01	-5.371045e+02
2.600000e-07	-7.112054e-06	-8.189178e-09	-4.980032e+01	-5.349595e+02
2.700000e-07	-7.035848e-06	-8.135337e-09	-4.926671e+01	-5.327354e+02
2.800000e-07	-6.956846e-06	-8.073712e-09	-4.871351e+01	-5.304181e+02
2.900000e-07	-6.875202e-06	-8.024944e-09	-4.814182e+01	-5.279925e+02
3.000000e-07	-6.791106e-06	-8.004434e-09	-4.755296e+01	-5.254466e+02
3.100000e-07	-6.704661e-06	-7.977367e-09	-4.694765e+01	-5.227734e+02
3.200000e-07	-6.615812e-06	-7.914305e-09	-4.632551e+01	-5.199725e+02
3.300000e-07	-6.524565e-06	-7.888208e-09	-4.568658e+01	-5.170495e+02
3.400000e-07	-6.430987e-06	-7.836832e-09	-4.503132e+01	-5.140142e+02
3.500000e-07	-6.335109e-06	-7.777918e-09	-4.435996e+01	-5.108778e+02
3.600000e-07	-6.236852e-06	-7.726270e-09	-4.367194e+01	-5.076491e+02
3.700000e-07	-6.136266e-06	-7.683931e-09	-4.296762e+01	-5.043321e+02
3.800000e-07	-6.033517e-06	-7.637966e-09	-4.224814e+01	-5.009246e+02
3.900000e-07	-5.928631e-06	-7.576208e-09	-4.151370e+01	-4.974176e+02
4.000000e-07	-5.821642e-06	-7.526971e-09	-4.076454e+01	-4.937973e+02
4.100000e-07	-5.712591e-06	-7.467044e-09	-4.000094e+01	-4.900480e+02
4.200000e-07	-5.601459e-06	-7.411049e-09	-3.922276e+01	-4.861552e+02
4.300000e-07	-5.488307e-06	-7.339592e-09	-3.843045e+01	-4.821084e+02
4.400000e-07	-5.373036e-06	-7.269724e-09	-3.762329e+01	-4.779032e+02
4.500000e-07	-5.255608e-06	-7.206414e-09	-3.680103e+01	-4.735413e+02
4.600000e-07	-5.136260e-06	-7.144650e-09	-3.596533e+01	-4.690288e+02
4.700000e-07	-5.015237e-06	-7.073997e-09	-3.511790e+01	-4.643735e+02
4.800000e-07	-4.892442e-06	-7.000346e-09	-3.425806e+01	-4.595813e+02
4.900000e-07	-4.767753e-06	-6.927852e-09	-3.338495e+01	-4.546532e+02
5.000000e-07	-4.641343e-06	-6.840073e-09	-3.249980e+01	-4.495834e+02
5.100000e-07	-4.513275e-06	-6.754558e-09	-3.160304e+01	-4.443591e+02
5.200000e-07	-4.383538e-06	-6.678024e-09	-3.069459e+01	-4.389624e+02
5.300000e-07	-4.252145e-06	-6.603637e-09	-2.977454e+01	-4.333739e+02
5.400000e-07	-4.119215e-06	-6.509297e-09	-2.884374e+01	-4.275759e+02
5.500000e-07	-3.984751e-06	-6.410929e-09	-2.790219e+01	-4.215567e+02
5.600000e-07	-3.848720e-06	-6.317201e-09	-2.694967e+01	-4.153122e+02
5.700000e-07	-3.711192e-06	-6.216879e-09	-2.598666e+01	-4.088460e+02
5.800000e-07	-3.572177e-06	-6.109095e-09	-2.501324e+01	-4.021677e+02
5.900000e-07	-3.431640e-06	-6.006046e-09	-2.402917e+01	-3.952885e+02
6.000000e-07	-3.289657e-06	-5.904808e-09	-2.303497e+01	-3.882171e+02
6.100000e-07	-3.146424e-06	-5.788462e-09	-2.203202e+01	-3.809553e+02
6.200000e-07	-3.001961e-06	-5.671007e-09	-2.102046e+01	-3.734954e+02
6.300000e-07	-2.856310e-06	-5.559798e-09	-2.000057e+01	-3.658200e+02
6.400000e-07	-2.709677e-06	-5.444184e-09	-1.897381e+01	-3.579044e+02
6.500000e-07	-2.562166e-06	-5.314767e-09	-1.794090e+01	-3.497200e+02
6.600000e-07	-2.413749e-06	-5.182966e-09	-1.690165e+01	-3.412398e+02
6.700000e-07	-2.264547e-06	-5.049383e-09	-1.585691e+01	-3.324428e+02
6.800000e-07	-2.114722e-06	-4.907168e-09	-1.480779e+01	-3.233161e+02
6.900000e-07	-1.964260e-06	-4.763023e-09	-1.375422e+01	-3.138559e+02
7.000000e-07	-1.813035e-06	-4.614069e-09	-1.269531e+01	-3.040643e+02
7.100000e-07	-1.661095e-06	-4.457719e-09	-1.163139e+01	-2.939457e+02
7.200000e-07	-1.508645e-06	-4.295125e-09	-1.056389e+01	-2.835008e+02
7.300000e-07	-1.355779e-06	-4.133116e-09	-9.493494e+00	-2.727230e+02
7.400000e-07	-1.202423e-06	-3.966491e-09	-8.419654e+00	-2.615957e+02
7.500000e-07	-1.048565e-06	-3.788306e-09	-7.342304e+00	-2.500930e+02
7.600000e-07	-8.943061e-07	-3.602793e-09	-6.262147e+00	-2.381827e+02
7.700000e-07	-7.396866e-07	-3.413187e-09	-5.179464e+00	-2.258319e+02
7.800000e-07	-5.847889e-07	-3.219183e-09	-4.094833e+00	-2.130125e+02
7.900000e-07	-4.297143e-07	-3.018909e-09	-3.008963e+00	-1.997050e+02
8.000000e-07	-2.745116e-07	-2.812444e-09	-1.922197e+00	-1.859003e+02
8.100000e-07	-1.192072e-07	-2.594355e-09	-8.347175e-01	-1.715964e+02
8.200000e-07	3.613739e-08	-2.364749e-09	2.530427e-01	-1.567935e+02
8.300000e-07	1.915040e-07	-2.130656e-09	1.340957e+00	-1.414852e+02
8.400000e-07	3.468422e-07	-1.892199e-09	2.428672e+00	-1.256513e+02
8.500000e-07	5.021185e-07	-1.644767e-09	3.515955e+00	-1.092525e+02
8.600000e-07	6.572735e-07	-1.385525e-09	4.602388e+00	-9.223016e+01
8.700000e-07	8.122459e-07	-1.116533e-09	5.687542e+00	-7.451244e+01
8.800000e-07	9.669715e-07	-8.353201e-10	6.770968e+00	-5.602616e+01
8.900000e-07	1.121334e-06	-5.379892e-10	7.851851e+00	-3.671329e+01
9.000000e-07	1.275263e-06	-2.284549e-10	8.929697e+00	-1.654885e+01
9.100000e-07	1.428680e-06	9.024110e-11	1.000396e+01	4.443001e+00
9.200000e-07	1.581552e-06	4.202276e-10	1.107441e+01	2.617840e+01
9.300000e-07	1.733903e-06	7.596821e-10	1.214121e+01	4.851128e+01
9.400000e-07	1.885667e-06	1.103509e-09	1.320389e+01	7.124002e+01
9.500000e-07	2.036709e-06	1.450124e-09	1.426152e+01	9.412268e+01
9.600000e-07	2.186960e-06	1.798762e-09	1.531362e+01	1.168985e+02
9.700000e-07	2.336386e-06	2.144785e-09	1.635994e+01	1.393122e+02
9.800000e-07	2.484908e-06	2.480570e-09	1.739993e+01	1.611365e+02
9.900000e-07	2.632504e-06	2.801296e-09	1.843343e+01	1.821903e+02
1.000000e-06	2.779165e-06	3.106864e-09	1.946038e+01	2.023487e+02
1.010000e-06	2.924760e-06	3.397060e-09	2.047987e+01	2.215444e+02
1.020000e-06	3.069223e-06	3.670922e-09	2.149144e+01	2.397620e+02
1.030000e-06	3.212588e-06	3.929947e-09	2.249532e+01	2.570251e+02
1.040000e-06	3.354742e-06	4.177488e-09	2.349071e+01	2.733821e+02
1.050000e-06	3.495554e-06	4.413669e-09	2.447671e+01	2.888916e+02
1.060000e-06	3.634999e-06	4.638102e-09	2.545314e+01	3.036112e+02
1.070000e-06	3.773040e-06	4.850626e-09	2.641974e+01	3.175903e+02
1.080000e-06	3.909643e-06	5.053556e-09	2.737626e+01	3.308686e+02
1.090000e-06	4.044762e-06	5.245904e-09	2.832240e+01	3.434781e+02
1.100000e-06	4.178397e-06	5.427303e-09	2.925815e+01	3.554469e+02
1.110000e-06	4.310577e-06	5.598772e-09	3.018370e+01	3.668037e+02
1.120000e-06	4.441269e-06	5.761078e-09	3.109884e+01	3.775809e+02
1.130000e-06	4.570401e-06	5.916157e-09	3.200305e+01	3.878147e+02
1.140000e-06	4.697912e-06	6.063491e-09	3.289591e+01	3.975435e+02
1.150000e-06	4.823780e-06	6.204847e-09	3.377727e+01	4.068041e+02
1.160000e-06	4.948014e-06	6.339724e-09	3.464718e+01	4.156276e+02
1.170000e-06	5.070545e-06	6.468301e-09	3.550518e+01	4.240369e+02
1.180000e-06	5.191290e-06	6.590654e-09	3.635066e+01	4.320457e+02
1.190000e-06	5.310196e-06	6.707536e-09	3.718327e+01	4.396598e+02
1.200000e-06	5.427151e-06	6.817780e-09	3.800222e+01	4.468816e+02
1.210000e-06	5.542001e-06	6.920491e-09	3.880642e+01	4.537144e+02
1.220000e-06	5.654616e-06	7.016949e-09	3.959498e+01	4.601673e+02
1.230000e-06	5.765108e-06	7.109207e-09	4.036868e+01	4.662586e+02
1.240000e-06	5.873671e-06	7.195238e-09	4.112886e+01	4.720163e+02
1.250000e-06	5.980148e-06	7.275889e-09	4.187444e+01	4.774764e+02
1.260000e-06	6.084354e-06	7.353886e-09	4.260411e+01	4.826785e+02
1.270000e-06	6.186311e-06	7.428652e-09	4.331804e+01	4.876614e+02
1.280000e-06	6.286030e-06	7.502349e-09	4.401630e+01	4.924571e+02
1.290000e-06	6.383364e-06	7.575559e-09	4.469785e+01	4.970880e+02
1.300000e-06	6.478254e-06	7.647217e-09	4.536230e+01	5.015654e+02
1.310000e-06	6.570857e-06	7.714434e-09	4.601072e+01	5.058900e+02
1.320000e-06	6.661149e-06	7.775071e-09	4.664297e+01	5.100556e+02
1.330000e-06	6.749029e-06	7.830938e-09	4.725833e+01	5.140531e+02
1.340000e-06	6.834559e-06	7.884463e-09	4.785723e+01	5.178743e+02
1.350000e-06	6.917751e-06	7.936342e-09	4.843976e+01	5.215152e+02
1.360000e-06	6.998424e-06	7.986425e-09	4.900466e+01	5.249771e+02
1.370000e-06	7.076481e-06	8.036695e-09	4.955123e+01	5.282661e+02
1.380000e-06	7.151950e-06	8.087498e-09	5.007968e+01	5.313906e+02
1.390000e-06	7.224734e-06	8.136067e-09	5.058933e+01	5.343589e+02
1.400000e-06	7.294904e-06	8.179153e-09	5.108068e+01	5.371764e+02
1.410000e-06	7.362568e-06	8.216562e-09	5.155447e+01	5.398444e+02
1.420000e-06	7.427545e-06	8.250677e-09	5.200946e+01	5.423596e+02
1.430000e-06	7.489880e-06	8.283551e-09	5.244595e+01	5.447163e+02
1.440000e-06	7.549761e-06	8.315084e-09	5.286525e+01	5.469081e+02
1.450000e-06	7.607012e-06	8.344305e-09	5.326613e+01	5.489317e+02
1.460000e-06	7.661507e-06	8.372086e-09	5.364772e+01	5.507879e+02
1.470000e-06	7.712995e-06	8.397985e-09	5.400825e+01	5.524835e+02
1.480000e-06	7.761313e-06	8.422521e-09	5.434658e+01	5.540300e+02
1.490000e-06	7.806785e-06	8.445961e-09	5.466499e+01	5.554420e+02
1.500000e-06	7.849538e-06	8.466479e-09	5.496436e+01	5.567343e+02
1.510000e-06	7.889427e-06	8.483363e-09	5.524367e+01	5.579192e+02
1.520000e-06	7.926481e-06	8.497038e-09	5.550313e+01	5.590043e+02
1.530000e-06	7.960791e-06	8.510015e-09	5.574338e+01	5.599922e+02
1.540000e-06	7.992259e-06	8.522238e-09	5.596372e+01	5.608808e+02
1.550000e-06	8.020932e-06	8.532494e-09	5.616450e+01	5.616656e+02
1.560000e-06	8.046740e-06	8.542328e-09	5.634521e+01	5.623426e+02
1.570000e-06	8.069544e-06	8.552599e-09	5.650490e+01	5.629102e+02
1.580000e-06	8.089528e-06	8.562951e-09	5.664482e+01	5.633715e+02
1.590000e-06	8.106620e-06	8.571914e-09	5.676451e+01	5.637342e+02
1.600000e-06	8.120630e-06	8.578190e-09	5.686261e+01	5.640092e+02
1.610000e-06	8.131506e-06	8.581524e-09	5.693877e+01	5.642088e+02
1.620000e-06	8.139270e-06	8.583235e-09	5.699313e+01	5.643432e+02
1.630000e-06	8.144164e-06	8.584887e-09	5.702740e+01	5.644184e+02
1.640000e-06	8.146178e-06	8.585736e-09	5.704150e+01	5.644342e+02
1.650000e-06	8.145309e-06	8.585351e-09	5.703542e+01	5.643846e+02
1.660000e-06	8.141820e-06	8.577382e-09	5.701099e+01	5.642589e+02
1.670000e-06	8.135588e-06	8.574128e-09	5.696735e+01	5.640452e+02
1.680000e-06	8.126560e-06	8.574754e-09	5.690414e+01	5.637334e+02
1.690000e-06	8.114788e-06	8.574020e-09	5.682170e+01	5.633189e+02
1.700000e-06	8.100119e-06	8.571479e-09	5.671899e+01	5.628041e+02
1.710000e-06	8.082814e-06	8.568297e-09	5.659781e+01	5.621997e+02
1.720000e-06	8.063197e-06	8.564074e-09	5.646045e+01	5.615225e+02
1.730000e-06	8.040959e-06	8.522310e-09	5.630474e+01	5.607929e+02
1.740000e-06	8.015454e-06	8.461559e-09	5.612614e+01	5.600306e+02
1.750000e-06	7.986236e-06	8.484178e-09	5.592155e+01	5.592505e+02
1.760000e-06	7.953525e-06	8.491111e-09	5.569250e+01	5.584591e+02
1.770000e-06	7.918200e-06	8.469037e-09	5.544515e+01	5.576528e+02
1.780000e-06	7.880673e-06	8.496048e-09	5.518237e+01	5.568180e+02
1.790000e-06	7.840953e-06	8.544397e-09	5.490424e+01	5.559330e+02
1.800000e-06	7.799217e-06	8.437793e-09	5.461200e+01	5.549718e+02
1.810000e-06	7.755013e-06	8.421016e-09	5.430247e+01	5.539085e+02
1.820000e-06	7.707929e-06	8.460616e-09	5.397278e+01	5.527218e+02
1.830000e-06	7.658080e-06	8.350312e-09	5.362372e+01	5.513981e+02
1.840000e-06	7.605145e-06	8.425588e-09	5.325306e+01	5.499337e+02
1.850000e-06	7.549273e-06	8.379136e-09	5.286183e+01	5.483342e+02
1.860000e-06	7.490731e-06	8.337169e-09	5.245190e+01	5.466129e+02
1.870000e-06	7.429413e-06	8.332173e-09	5.202254e+01	5.447871e+02
1.880000e-06	7.365397e-06	8.249511e-09	5.157429e+01	5.428742e+02
1.890000e-06	7.298510e-06	8.293435e-09	5.110592e+01	5.408879e+02
1.900000e-06	7.228698e-06	8.206133e-09	5.061708e+01	5.388353e+02
1.910000e-06	7.156057e-06	8.170756e-09	5.010843e+01	5.367158e+02
1.920000e-06	7.080685e-06	8.148704e-09	4.958066e+01	5.345213e+02
1.930000e-06	7.002591e-06	8.111055e-09	4.903383e+01	5.322388e+02
1.940000e-06	6.921760e-06	8.126806e-09	4.846783e+01	5.298534e+02
1.950000e-06	6.838408e-06	8.045747e-09	4.788418e+01	5.273514e+02
1.960000e-06	6.752512e-06	8.026127e-09	4.728272e+01	5.247239e+02
1.970000e-06	6.664064e-06	7.945936e-09	4.666339e+01	5.219681e+02
1.980000e-06	6.573202e-06	7.890818e-09	4.602715e+01	5.190876e+02
1.990000e-06	6.480093e-06	7.874943e-09	4.537518e+01	5.160910e+02
2.000000e-06	6.384711e-06	7.842758e-09	4.470728e+01	5.129893e+02
2.010000e-06	6.286935e-06	7.807200e-09	4.402263e+01	5.097927e+02
2.020000e-06	6.186937e-06	7.720771e-09	4.332242e+01	5.065070e+02
2.030000e-06	6.084721e-06	7.674182e-09	4.260668e+01	5.031324e+02
2.040000e-06	5.980328e-06	7.615514e-09	4.187570e+01	4.996621e+02
2.050000e-06	5.873840e-06	7.580011e-09	4.113005e+01	4.960839e+02
2.060000e-06	5.765415e-06	7.520339e-09	4.037082e+01	4.923824e+02
2.070000e-06	5.655027e-06	7.456666e-09	3.959786e+01	4.885421e+02
2.080000e-06	5.542468e-06	7.395717e-09	3.880970e+01	4.845510e+02
2.090000e-06	5.427756e-06	7.327436e-09	3.800645e+01	4.804024e+02
2.100000e-06	5.311050e-06	7.268401e-09	3.718925e+01	4.760958e+02
2.110000e-06	5.192318e-06	7.207077e-09	3.635786e+01	4.716360e+02
2.120000e-06	5.071584e-06	7.136118e-09	3.551245e+01	4.670307e+02
2.130000e-06	4.949074e-06	7.042489e-09	3.465461e+01	4.622869e+02
2.140000e-06	4.824735e-06	6.976294e-09	3.378396e+01	4.574074e+02
2.150000e-06	4.698661e-06	6.916061e-09	3.290116e+01	4.523892e+02
2.160000e-06	4.570885e-06	6.846569e-09	3.200644e+01	4.472218e+02
2.170000e-06	4.441422e-06	6.749534e-09	3.109991e+01	4.418888e+02
2.180000e-06	4.310361e-06	6.656506e-09	3.018219e+01	4.363708e+02
2.190000e-06	4.177713e-06	6.568359e-09	2.925335e+01	4.306493e+02
2.200000e-06	4.043570e-06	6.479682e-09	2.831405e+01	4.247098e+02
2.210000e-06	3.907837e-06	6.397239e-09	2.736362e+01	4.185455e+02
2.220000e-06	3.770450e-06	6.312056e-09	2.640160e+01	4.121575e+02
2.230000e-06	3.631657e-06	6.207219e-09	2.542974e+01	4.055535e+02
2.240000e-06	3.491588e-06	6.089283e-09	2.444894e+01	3.987447e+02
2.250000e-06	3.350211e-06	5.986916e-09	2.345898e+01	3.917411e+02
2.260000e-06	3.207509e-06	5.888513e-09	2.245975e+01	3.845475e+02
2.270000e-06	3.063471e-06	5.777158e-09	2.145116e+01	3.771597e+02
2.280000e-06	2.918225e-06	5.650003e-09	2.043411e+01	3.695637e+02
2.290000e-06	2.771958e-06	5.526395e-09	1.940992e+01	3.617369e+02
2.300000e-06	2.624849e-06	5.404736e-09	1.837982e+01	3.536517e+02
2.310000e-06	2.476855e-06	5.281098e-09	1.734353e+01	3.452798e+02
2.320000e-06	2.327928e-06	5.154812e-09	1.630071e+01	3.365977e+02
2.330000e-06	2.178272e-06	5.019235e-09	1.525279e+01	3.275895e+02
2.340000e-06	2.027934e-06	4.871613e-09	1.420008e+01	3.182483e+02
2.350000e-06	1.876880e-06	4.723534e-09	1.314237e+01	3.085744e+02
2.360000e-06	1.725252e-06	4.577699e-09	1.208063e+01	2.985721e+02
2.370000e-06	1.573075e-06	4.424677e-09	1.101505e+01	2.882438e+02
2.380000e-06	1.420311e-06	4.259623e-09	9.945363e+00	2.775862e+02
2.390000e-06	1.267009e-06	4.087246e-09	8.871906e+00	2.665861e+02
2.400000e-06	1.113213e-06	3.912565e-09	7.794985e+00	2.552208e+02
2.410000e-06	9.590079e-07	3.735606e-09	6.715204e+00	2.434597e+02
2.420000e-06	8.045278e-07	3.555131e-09	5.633498e+00	2.312697e+02
2.430000e-06	6.498156e-07	3.365710e-09	4.550165e+00	2.186203e+02
2.440000e-06	4.948800e-07	3.161798e-09	3.465269e+00	2.054886e+02
2.450000e-06	3.398415e-07	2.948441e-09	2.379652e+00	1.918617e+02
2.460000e-06	1.847340e-07	2.733211e-09	1.293552e+00	1.777359e+02
2.470000e-06	2.953563e-08	2.511564e-09	2.068156e-01	1.631113e+02
2.480000e-06	-1.257220e-07	2.281071e-09	-8.803357e-01	1.479848e+02
2.490000e-06	-2.809921e-07	2.042179e-09	-1.967575e+00	1.323420e+02
2.500000e-06	-4.361906e-07	1.794291e-09	-3.054312e+00	1.161506e+02
2.510000e-06	-5.912827e-07	1.537556e-09	-4.140304e+00	9.935851e+01
2.520000e-06	-7.462074e-07	1.270828e-09	-5.225124e+00	8.189764e+01
2.530000e-06	-9.008992e-07	9.926946e-10	-6.308313e+00	6.369353e+01
2.540000e-06	-1.055337e-06	7.009226e-10	-7.389725e+00	4.468069e+01
2.550000e-06	-1.209440e-06	3.948552e-10	-8.468787e+00	2.482031e+01
2.560000e-06	-1.363081e-06	7.855991e-11	-9.544620e+00	4.117434e+00
2.570000e-06	-1.516177e-06	-2.442297e-10	-1.061664e+01	-1.736614e+01
2.580000e-06	-1.668706e-06	-5.774069e-10	-1.168468e+01	-3.950629e+01
2.590000e-06	-1.820566e-06	-9.234974e-10	-1.274804e+01	-6.211988e+01
2.600000e-06	-1.971722e-06	-1.275844e-09	-1.380647e+01	-8.497718e+01
2.610000e-06	-2.122171e-06	-1.628467e-09	-1.485995e+01	-1.078214e+02
2.620000e-06	-2.271772e-06	-1.975207e-09	-1.590750e+01	-1.303926e+02
2.630000e-06	-2.420508e-06	-2.309988e-09	-1.694898e+01	-1.524510e+02
2.640000e-06	-2.568376e-06	-2.633233e-09	-1.798439e+01	-1.737975e+02
2.650000e-06	-2.715290e-06	-2.946439e-09	-1.901311e+01	-1.942865e+02
2.660000e-06	-2.861244e-06	-3.247384e-09	-2.003512e+01	-2.138304e+02
2.670000e-06	-3.006116e-06	-3.532430e-09	-2.104955e+01	-2.323965e+02
2.680000e-06	-3.149800e-06	-3.801567e-09	-2.205566e+01	-2.499960e+02
2.690000e-06	-3.292257e-06	-4.056637e-09	-2.305318e+01	-2.666703e+02
2.700000e-06	-3.433363e-06	-4.298726e-09	-2.404123e+01	-2.824758e+02
2.710000e-06	-3.573092e-06	-4.530345e-09	-2.501965e+01	-2.974715e+02
2.720000e-06	-3.711507e-06	-4.752944e-09	-2.598887e+01	-3.117101e+02
2.730000e-06	-3.848626e-06	-4.963634e-09	-2.694901e+01	-3.252348e+02
2.740000e-06	-3.984359e-06	-5.160454e-09	-2.789944e+01	-3.380800e+02
2.750000e-06	-4.118588e-06	-5.345681e-09	-2.883935e+01	-3.502746e+02
2.760000e-06	-4.251320e-06	-5.521239e-09	-2.976876e+01	-3.618466e+02
2.770000e-06	-4.382610e-06	-5.687469e-09	-3.068809e+01	-3.728270e+02
2.780000e-06	-4.512469e-06	-5.845209e-09	-3.159740e+01	-3.832507e+02
2.790000e-06	-4.640787e-06	-5.996247e-09	-3.249591e+01	-3.931556e+02
2.800000e-06	-4.767425e-06	-6.142340e-09	-3.338266e+01	-4.025795e+02
2.810000e-06	-4.892403e-06	-6.283085e-09	-3.425779e+01	-4.115562e+02
2.820000e-06	-5.015681e-06	-6.416819e-09	-3.512101e+01	-4.201116e+02
2.830000e-06	-5.137181e-06	-6.542074e-09	-3.597178e+01	-4.282625e+02
2.840000e-06	-5.256792e-06	-6.657353e-09	-3.680932e+01	-4.360174e+02
2.850000e-06	-5.374363e-06	-6.766019e-09	-3.763259e+01	-4.433792e+02
2.860000e-06	-5.489762e-06	-6.873325e-09	-3.844063e+01	-4.503504e+02
2.870000e-06	-5.602834e-06	-6.975617e-09	-3.923239e+01	-4.569376e+02
2.880000e-06	-5.713655e-06	-7.072653e-09	-4.000839e+01	-4.631555e+02
2.890000e-06	-5.822454e-06	-7.164806e-09	-4.077023e+01	-4.690287e+02
2.900000e-06	-5.929313e-06	-7.250814e-09	-4.151848e+01	-4.745907e+02
2.910000e-06	-6.034054e-06	-7.332764e-09	-4.225190e+01	-4.798805e+02
2.920000e-06	-6.136521e-06	-7.409993e-09	-4.296940e+01	-4.849377e+02
2.930000e-06	-6.236708e-06	-7.485068e-09	-4.367094e+01	-4.897972e+02
2.940000e-06	-6.334641e-06	-7.556240e-09	-4.435668e+01	-4.944853e+02
