# Temperatura_=_40.03
# Concentracion g/m^3_=_15000.0
# C_Vs_to_Am_M_A/Vsm_=_65563218390.804596
# pendiente_HvsI_1/m_=_3716.3
# ordenada_HvsI_A/m_=_1297.0
# frecuencia_Hz_=_301895.0229240359

Tiempo_(s)	Campo_(V.s)	Magnetizacion_(V.s)	Campo_(kA/m)	Magnetizacion_(A/m)
0.000000e+00	-6.859058e-06	-8.462736e-09	-4.750096e+01	-5.528360e+02
1.000000e-08	-6.856053e-06	-8.460425e-09	-4.748015e+01	-5.526757e+02
2.000000e-08	-6.850795e-06	-8.459882e-09	-4.744374e+01	-5.524042e+02
3.000000e-08	-6.843469e-06	-8.457195e-09	-4.739301e+01	-5.520235e+02
4.000000e-08	-6.833797e-06	-8.449030e-09	-4.732603e+01	-5.515396e+02
5.000000e-08	-6.821581e-06	-8.439640e-09	-4.724143e+01	-5.509616e+02
6.000000e-08	-6.806829e-06	-8.425503e-09	-4.713927e+01	-5.503014e+02
7.000000e-08	-6.789709e-06	-8.412780e-09	-4.702071e+01	-5.495724e+02
8.000000e-08	-6.770437e-06	-8.420493e-09	-4.688724e+01	-5.487883e+02
9.000000e-08	-6.748819e-06	-8.406438e-09	-4.673753e+01	-5.479617e+02
1.000000e-07	-6.724435e-06	-8.383706e-09	-4.656867e+01	-5.471022e+02
1.100000e-07	-6.697265e-06	-8.373647e-09	-4.638050e+01	-5.462158e+02
1.200000e-07	-6.667743e-06	-8.350844e-09	-4.617605e+01	-5.453037e+02
1.300000e-07	-6.636277e-06	-8.303732e-09	-4.595814e+01	-5.443622e+02
1.400000e-07	-6.602940e-06	-8.316165e-09	-4.572727e+01	-5.433828e+02
1.500000e-07	-6.567636e-06	-8.309132e-09	-4.548278e+01	-5.423529e+02
1.600000e-07	-6.530254e-06	-8.229228e-09	-4.522390e+01	-5.412571e+02
1.700000e-07	-6.490764e-06	-8.264070e-09	-4.495042e+01	-5.400780e+02
1.800000e-07	-6.448924e-06	-8.216548e-09	-4.466067e+01	-5.387987e+02
1.900000e-07	-6.404541e-06	-8.165210e-09	-4.435330e+01	-5.374031e+02
2.000000e-07	-6.357823e-06	-8.216763e-09	-4.402977e+01	-5.358781e+02
2.100000e-07	-6.308579e-06	-8.205912e-09	-4.368874e+01	-5.342140e+02
2.200000e-07	-6.256682e-06	-8.188749e-09	-4.332934e+01	-5.324050e+02
2.300000e-07	-6.202325e-06	-8.122399e-09	-4.295290e+01	-5.304496e+02
2.400000e-07	-6.145579e-06	-8.055250e-09	-4.255992e+01	-5.283501e+02
2.500000e-07	-6.086519e-06	-8.007205e-09	-4.215091e+01	-5.261119e+02
2.600000e-07	-6.025254e-06	-7.957935e-09	-4.172663e+01	-5.237424e+02
2.700000e-07	-5.961847e-06	-7.952974e-09	-4.128752e+01	-5.212505e+02
2.800000e-07	-5.896182e-06	-7.913680e-09	-4.083277e+01	-5.186449e+02
2.900000e-07	-5.828275e-06	-7.865288e-09	-4.036250e+01	-5.159335e+02
3.000000e-07	-5.758229e-06	-7.822700e-09	-3.987741e+01	-5.131225e+02
3.100000e-07	-5.686028e-06	-7.781531e-09	-3.937739e+01	-5.102160e+02
3.200000e-07	-5.611586e-06	-7.752645e-09	-3.886186e+01	-5.072156e+02
3.300000e-07	-5.534827e-06	-7.687557e-09	-3.833028e+01	-5.041207e+02
3.400000e-07	-5.455901e-06	-7.636515e-09	-3.778370e+01	-5.009284e+02
3.500000e-07	-5.374953e-06	-7.593370e-09	-3.722311e+01	-4.976343e+02
3.600000e-07	-5.292073e-06	-7.552326e-09	-3.664914e+01	-4.942326e+02
3.700000e-07	-5.207430e-06	-7.503706e-09	-3.606296e+01	-4.907175e+02
3.800000e-07	-5.121073e-06	-7.434645e-09	-3.546491e+01	-4.870829e+02
3.900000e-07	-5.032960e-06	-7.367384e-09	-3.485471e+01	-4.833235e+02
4.000000e-07	-4.943042e-06	-7.294132e-09	-3.423200e+01	-4.794349e+02
4.100000e-07	-4.851351e-06	-7.246002e-09	-3.359701e+01	-4.754139e+02
4.200000e-07	-4.758042e-06	-7.196331e-09	-3.295082e+01	-4.712588e+02
4.300000e-07	-4.663085e-06	-7.126435e-09	-3.229322e+01	-4.669687e+02
4.400000e-07	-4.566426e-06	-7.049530e-09	-3.162382e+01	-4.625439e+02
4.500000e-07	-4.468006e-06	-6.966550e-09	-3.094224e+01	-4.579852e+02
4.600000e-07	-4.367923e-06	-6.893584e-09	-3.024914e+01	-4.532935e+02
4.700000e-07	-4.266368e-06	-6.828879e-09	-2.954584e+01	-4.484694e+02
4.800000e-07	-4.163355e-06	-6.767113e-09	-2.883244e+01	-4.435130e+02
4.900000e-07	-4.058920e-06	-6.687935e-09	-2.810920e+01	-4.384229e+02
5.000000e-07	-3.952974e-06	-6.599319e-09	-2.737549e+01	-4.331969e+02
5.100000e-07	-3.845419e-06	-6.516362e-09	-2.663064e+01	-4.278310e+02
5.200000e-07	-3.736526e-06	-6.433100e-09	-2.587653e+01	-4.223200e+02
5.300000e-07	-3.626471e-06	-6.341331e-09	-2.511436e+01	-4.166577e+02
5.400000e-07	-3.515083e-06	-6.241099e-09	-2.434297e+01	-4.108371e+02
5.500000e-07	-3.402179e-06	-6.144972e-09	-2.356108e+01	-4.048509e+02
5.600000e-07	-3.287757e-06	-6.051547e-09	-2.276867e+01	-3.986921e+02
5.700000e-07	-3.171949e-06	-5.963677e-09	-2.196667e+01	-3.923545e+02
5.800000e-07	-3.054900e-06	-5.873080e-09	-2.115607e+01	-3.858329e+02
5.900000e-07	-2.936783e-06	-5.771095e-09	-2.033808e+01	-3.791235e+02
6.000000e-07	-2.817637e-06	-5.656983e-09	-1.951295e+01	-3.722240e+02
6.100000e-07	-2.697480e-06	-5.542384e-09	-1.868083e+01	-3.651331e+02
6.200000e-07	-2.576336e-06	-5.434477e-09	-1.784187e+01	-3.578501e+02
6.300000e-07	-2.454141e-06	-5.321476e-09	-1.699564e+01	-3.503746e+02
6.400000e-07	-2.330910e-06	-5.198098e-09	-1.614223e+01	-3.427051e+02
6.500000e-07	-2.206787e-06	-5.069345e-09	-1.528264e+01	-3.348387e+02
6.600000e-07	-2.081967e-06	-4.942546e-09	-1.441822e+01	-3.267702e+02
6.700000e-07	-1.956597e-06	-4.818296e-09	-1.355000e+01	-3.184917e+02
6.800000e-07	-1.830623e-06	-4.696472e-09	-1.267760e+01	-3.099924e+02
6.900000e-07	-1.703953e-06	-4.569139e-09	-1.180037e+01	-3.012588e+02
7.000000e-07	-1.576643e-06	-4.429799e-09	-1.091871e+01	-2.922753e+02
7.100000e-07	-1.448768e-06	-4.283525e-09	-1.003314e+01	-2.830252e+02
7.200000e-07	-1.320370e-06	-4.135680e-09	-9.143943e+00	-2.734916e+02
7.300000e-07	-1.191576e-06	-3.984613e-09	-8.252011e+00	-2.636589e+02
7.400000e-07	-1.062434e-06	-3.826103e-09	-7.357661e+00	-2.535137e+02
7.500000e-07	-9.329225e-07	-3.662227e-09	-6.460759e+00	-2.430456e+02
7.600000e-07	-8.030682e-07	-3.494364e-09	-5.561480e+00	-2.322478e+02
7.700000e-07	-6.729352e-07	-3.324989e-09	-4.660272e+00	-2.211166e+02
7.800000e-07	-5.425979e-07	-3.155027e-09	-3.757648e+00	-2.096504e+02
7.900000e-07	-4.120350e-07	-2.980561e-09	-2.853462e+00	-1.978488e+02
8.000000e-07	-2.813093e-07	-2.797239e-09	-1.948149e+00	-1.857105e+02
8.100000e-07	-1.504420e-07	-2.605384e-09	-1.041855e+00	-1.732309e+02
8.200000e-07	-1.951102e-08	-2.408580e-09	-1.351195e-01	-1.604005e+02
8.300000e-07	1.114205e-07	-2.209309e-09	7.716190e-01	-1.472036e+02
8.400000e-07	2.424096e-07	-2.005172e-09	1.678757e+00	-1.336167e+02
8.500000e-07	3.733363e-07	-1.791587e-09	2.585462e+00	-1.196096e+02
8.600000e-07	5.041577e-07	-1.569635e-09	3.491438e+00	-1.051458e+02
8.700000e-07	6.348722e-07	-1.338922e-09	4.396674e+00	-9.018608e+01
8.800000e-07	7.653651e-07	-1.101957e-09	5.300375e+00	-7.469120e+01
8.900000e-07	8.955524e-07	-8.593802e-10	6.201960e+00	-5.862699e+01
9.000000e-07	1.025416e-06	-6.090174e-10	7.101300e+00	-4.196912e+01
9.100000e-07	1.154940e-06	-3.487131e-10	7.998294e+00	-2.470811e+01
9.200000e-07	1.284082e-06	-7.960882e-11	8.892640e+00	-6.853692e+00
9.300000e-07	1.412779e-06	1.961092e-10	9.783904e+00	1.156172e+01
9.400000e-07	1.540951e-06	4.801711e-10	1.067153e+01	3.048124e+01
9.500000e-07	1.668531e-06	7.736681e-10	1.155506e+01	4.982336e+01
9.600000e-07	1.795470e-06	1.076059e-09	1.243415e+01	6.948389e+01
9.700000e-07	1.921742e-06	1.383583e-09	1.330862e+01	8.933970e+01
9.800000e-07	2.047387e-06	1.690741e-09	1.417875e+01	1.092542e+02
9.900000e-07	2.172380e-06	1.995117e-09	1.504436e+01	1.290839e+02
1.000000e-06	2.296594e-06	2.295388e-09	1.590458e+01	1.486859e+02
1.010000e-06	2.419931e-06	2.589390e-09	1.675872e+01	1.679252e+02
1.020000e-06	2.542336e-06	2.874364e-09	1.760641e+01	1.866810e+02
1.030000e-06	2.663796e-06	3.146992e-09	1.844756e+01	2.048529e+02
1.040000e-06	2.784259e-06	3.407837e-09	1.928180e+01	2.223641e+02
1.050000e-06	2.903607e-06	3.658741e-09	2.010832e+01	2.391636e+02
1.060000e-06	3.021868e-06	3.899201e-09	2.092731e+01	2.552256e+02
1.070000e-06	3.139116e-06	4.130476e-09	2.173929e+01	2.705478e+02
1.080000e-06	3.255193e-06	4.350576e-09	2.254316e+01	2.851473e+02
1.090000e-06	3.369924e-06	4.559189e-09	2.333770e+01	2.990557e+02
1.100000e-06	3.483303e-06	4.758290e-09	2.412288e+01	3.123141e+02
1.110000e-06	3.595280e-06	4.952160e-09	2.489835e+01	3.249672e+02
1.120000e-06	3.705956e-06	5.139208e-09	2.566482e+01	3.370586e+02
1.130000e-06	3.815468e-06	5.316543e-09	2.642322e+01	3.486271e+02
1.140000e-06	3.923787e-06	5.486726e-09	2.717336e+01	3.597042e+02
1.150000e-06	4.030800e-06	5.648565e-09	2.791446e+01	3.703129e+02
1.160000e-06	4.136337e-06	5.802592e-09	2.864533e+01	3.804684e+02
1.170000e-06	4.240303e-06	5.949963e-09	2.936532e+01	3.901789e+02
1.180000e-06	4.342724e-06	6.090093e-09	3.007462e+01	3.994486e+02
1.190000e-06	4.443718e-06	6.223073e-09	3.077403e+01	4.082803e+02
1.200000e-06	4.543183e-06	6.348125e-09	3.146286e+01	4.166774e+02
1.210000e-06	4.640924e-06	6.466580e-09	3.213974e+01	4.246473e+02
1.220000e-06	4.736901e-06	6.581217e-09	3.280441e+01	4.322019e+02
1.230000e-06	4.831166e-06	6.691334e-09	3.345723e+01	4.393590e+02
1.240000e-06	4.923800e-06	6.795980e-09	3.409874e+01	4.461417e+02
1.250000e-06	5.014722e-06	6.894151e-09	3.472840e+01	4.525774e+02
1.260000e-06	5.103756e-06	6.987580e-09	3.534499e+01	4.586962e+02
1.270000e-06	5.190882e-06	7.076150e-09	3.594836e+01	4.645286e+02
1.280000e-06	5.276217e-06	7.161186e-09	3.653934e+01	4.701035e+02
1.290000e-06	5.359739e-06	7.242780e-09	3.711775e+01	4.754465e+02
1.300000e-06	5.441312e-06	7.320313e-09	3.768267e+01	4.805782e+02
1.310000e-06	5.520892e-06	7.393666e-09	3.823378e+01	4.855136e+02
1.320000e-06	5.598452e-06	7.463665e-09	3.877090e+01	4.902622e+02
1.330000e-06	5.673923e-06	7.531972e-09	3.929356e+01	4.948283e+02
1.340000e-06	5.747219e-06	7.599360e-09	3.980116e+01	4.992123e+02
1.350000e-06	5.818358e-06	7.663450e-09	4.029382e+01	5.034119e+02
1.360000e-06	5.887479e-06	7.723120e-09	4.077250e+01	5.074241e+02
1.370000e-06	5.954540e-06	7.780390e-09	4.123691e+01	5.112461e+02
1.380000e-06	6.019317e-06	7.835569e-09	4.168552e+01	5.148762e+02
1.390000e-06	6.081918e-06	7.888712e-09	4.211905e+01	5.183154e+02
1.400000e-06	6.142600e-06	7.938208e-09	4.253929e+01	5.215664e+02
1.410000e-06	6.201205e-06	7.984460e-09	4.294514e+01	5.246341e+02
1.420000e-06	6.257532e-06	8.027832e-09	4.333522e+01	5.275248e+02
1.430000e-06	6.311638e-06	8.068493e-09	4.370992e+01	5.302453e+02
1.440000e-06	6.363274e-06	8.107437e-09	4.406752e+01	5.328023e+02
1.450000e-06	6.412223e-06	8.142914e-09	4.440651e+01	5.352016e+02
1.460000e-06	6.458808e-06	8.174873e-09	4.472912e+01	5.374477e+02
1.470000e-06	6.503303e-06	8.204222e-09	4.503726e+01	5.395435e+02
1.480000e-06	6.545499e-06	8.232058e-09	4.532948e+01	5.414910e+02
1.490000e-06	6.585261e-06	8.258956e-09	4.560484e+01	5.432912e+02
1.500000e-06	6.622773e-06	8.282682e-09	4.586463e+01	5.449454e+02
1.510000e-06	6.657947e-06	8.304310e-09	4.610821e+01	5.464553e+02
1.520000e-06	6.690650e-06	8.324424e-09	4.633469e+01	5.478241e+02
1.530000e-06	6.721048e-06	8.341804e-09	4.654521e+01	5.490562e+02
1.540000e-06	6.749241e-06	8.357597e-09	4.674045e+01	5.501582e+02
1.550000e-06	6.774969e-06	8.371757e-09	4.691863e+01	5.511378e+02
1.560000e-06	6.798116e-06	8.385567e-09	4.707893e+01	5.520037e+02
1.570000e-06	6.818946e-06	8.398389e-09	4.722318e+01	5.527643e+02
1.580000e-06	6.837415e-06	8.409224e-09	4.735108e+01	5.534276e+02
1.590000e-06	6.853318e-06	8.418205e-09	4.746121e+01	5.539995e+02
1.600000e-06	6.866706e-06	8.425755e-09	4.755393e+01	5.544836e+02
1.610000e-06	6.877435e-06	8.431149e-09	4.762824e+01	5.548809e+02
1.620000e-06	6.885461e-06	8.434009e-09	4.768381e+01	5.551896e+02
1.630000e-06	6.891072e-06	8.437289e-09	4.772267e+01	5.554058e+02
1.640000e-06	6.894329e-06	8.441333e-09	4.774523e+01	5.555241e+02
1.650000e-06	6.895126e-06	8.445186e-09	4.775075e+01	5.555390e+02
1.660000e-06	6.893568e-06	8.444023e-09	4.773996e+01	5.554456e+02
1.670000e-06	6.889858e-06	8.442758e-09	4.771426e+01	5.552411e+02
1.680000e-06	6.883802e-06	8.436201e-09	4.767232e+01	5.549258e+02
1.690000e-06	6.875399e-06	8.427471e-09	4.761413e+01	5.545033e+02
1.700000e-06	6.864832e-06	8.420446e-09	4.754095e+01	5.539807e+02
1.710000e-06	6.851884e-06	8.414797e-09	4.745129e+01	5.533684e+02
1.720000e-06	6.836538e-06	8.410793e-09	4.734501e+01	5.526790e+02
1.730000e-06	6.819055e-06	8.372198e-09	4.722394e+01	5.519264e+02
1.740000e-06	6.799233e-06	8.361847e-09	4.708666e+01	5.511238e+02
1.750000e-06	6.776282e-06	8.361247e-09	4.692772e+01	5.502829e+02
1.760000e-06	6.750099e-06	8.336717e-09	4.674639e+01	5.494119e+02
1.770000e-06	6.721414e-06	8.340848e-09	4.654774e+01	5.485151e+02
1.780000e-06	6.690669e-06	8.355560e-09	4.633482e+01	5.475918e+02
1.790000e-06	6.658343e-06	8.283535e-09	4.611096e+01	5.466362e+02
1.800000e-06	6.624463e-06	8.322156e-09	4.587633e+01	5.456382e+02
1.810000e-06	6.588170e-06	8.322556e-09	4.562499e+01	5.445839e+02
1.820000e-06	6.549422e-06	8.270322e-09	4.535665e+01	5.434570e+02
1.830000e-06	6.508603e-06	8.342655e-09	4.507396e+01	5.422401e+02
1.840000e-06	6.465595e-06	8.231169e-09	4.477612e+01	5.409165e+02
1.850000e-06	6.420442e-06	8.175046e-09	4.446342e+01	5.394710e+02
1.860000e-06	6.372922e-06	8.177602e-09	4.413433e+01	5.378919e+02
1.870000e-06	6.322969e-06	8.091963e-09	4.378840e+01	5.361708e+02
1.880000e-06	6.270618e-06	8.145143e-09	4.342585e+01	5.343038e+02
1.890000e-06	6.215560e-06	8.136991e-09	4.304456e+01	5.322910e+02
1.900000e-06	6.158083e-06	8.120562e-09	4.264651e+01	5.301357e+02
1.910000e-06	6.098296e-06	8.092530e-09	4.223247e+01	5.278445e+02
1.920000e-06	6.036164e-06	7.967291e-09	4.180219e+01	5.254254e+02
1.930000e-06	5.971904e-06	7.975028e-09	4.135717e+01	5.228874e+02
1.940000e-06	5.905494e-06	7.925625e-09	4.089726e+01	5.202389e+02
1.950000e-06	5.836912e-06	7.898904e-09	4.042231e+01	5.174873e+02
1.960000e-06	5.765919e-06	7.866699e-09	3.993066e+01	5.146380e+02
1.970000e-06	5.692674e-06	7.798125e-09	3.942342e+01	5.116941e+02
1.980000e-06	5.617349e-06	7.786671e-09	3.890177e+01	5.086564e+02
1.990000e-06	5.539700e-06	7.703551e-09	3.836403e+01	5.055232e+02
2.000000e-06	5.459905e-06	7.665705e-09	3.781143e+01	5.022911e+02
2.010000e-06	5.378265e-06	7.605110e-09	3.724604e+01	4.989550e+02
2.020000e-06	5.294875e-06	7.543022e-09	3.666855e+01	4.955090e+02
2.030000e-06	5.209541e-06	7.501129e-09	3.607758e+01	4.919472e+02
2.040000e-06	5.122187e-06	7.451715e-09	3.547263e+01	4.882637e+02
2.050000e-06	5.033096e-06	7.414744e-09	3.485565e+01	4.844536e+02
2.060000e-06	4.942424e-06	7.323883e-09	3.422772e+01	4.805128e+02
2.070000e-06	4.850112e-06	7.261893e-09	3.358844e+01	4.764389e+02
2.080000e-06	4.756001e-06	7.196065e-09	3.293668e+01	4.722303e+02
2.090000e-06	4.660107e-06	7.146619e-09	3.227259e+01	4.678868e+02
2.100000e-06	4.562640e-06	7.089013e-09	3.159760e+01	4.634088e+02
2.110000e-06	4.463667e-06	7.018395e-09	3.091219e+01	4.587973e+02
2.120000e-06	4.363124e-06	6.947156e-09	3.021590e+01	4.540531e+02
2.130000e-06	4.260989e-06	6.852727e-09	2.950858e+01	4.491767e+02
2.140000e-06	4.157216e-06	6.773116e-09	2.878993e+01	4.441675e+02
2.150000e-06	4.051886e-06	6.696083e-09	2.806048e+01	4.390240e+02
2.160000e-06	3.945202e-06	6.633338e-09	2.732167e+01	4.337431e+02
2.170000e-06	3.837163e-06	6.556865e-09	2.657347e+01	4.283205e+02
2.180000e-06	3.727808e-06	6.471179e-09	2.581615e+01	4.227504e+02
2.190000e-06	3.617019e-06	6.380338e-09	2.504891e+01	4.170264e+02
2.200000e-06	3.504820e-06	6.294321e-09	2.427190e+01	4.111411e+02
2.210000e-06	3.391346e-06	6.202039e-09	2.348606e+01	4.050875e+02
2.220000e-06	3.276508e-06	6.099969e-09	2.269077e+01	3.988587e+02
2.230000e-06	3.160258e-06	5.999683e-09	2.188570e+01	3.924489e+02
2.240000e-06	3.042696e-06	5.900306e-09	2.107156e+01	3.858534e+02
2.250000e-06	2.924002e-06	5.803459e-09	2.024956e+01	3.790691e+02
2.260000e-06	2.804116e-06	5.697887e-09	1.941931e+01	3.720941e+02
2.270000e-06	2.683112e-06	5.591159e-09	1.858133e+01	3.649273e+02
2.280000e-06	2.561234e-06	5.479886e-09	1.773729e+01	3.575684e+02
2.290000e-06	2.438488e-06	5.364474e-09	1.688724e+01	3.500164e+02
2.300000e-06	2.314823e-06	5.249882e-09	1.603082e+01	3.422696e+02
2.310000e-06	2.190421e-06	5.138263e-09	1.516930e+01	3.343241e+02
2.320000e-06	2.065322e-06	5.015810e-09	1.430295e+01	3.261738e+02
2.330000e-06	1.939496e-06	4.880716e-09	1.343157e+01	3.178095e+02
2.340000e-06	1.812985e-06	4.741378e-09	1.255544e+01	3.092195e+02
2.350000e-06	1.685748e-06	4.603607e-09	1.167430e+01	3.003892e+02
2.360000e-06	1.557897e-06	4.468720e-09	1.078889e+01	2.913026e+02
2.370000e-06	1.429547e-06	4.332288e-09	9.900025e+00	2.819427e+02
2.380000e-06	1.300710e-06	4.191689e-09	9.007797e+00	2.722929e+02
2.390000e-06	1.171450e-06	4.041678e-09	8.112632e+00	2.623384e+02
2.400000e-06	1.041892e-06	3.882820e-09	7.215407e+00	2.520670e+02
2.410000e-06	9.121002e-07	3.721237e-09	6.316559e+00	2.414696e+02
2.420000e-06	7.820285e-07	3.556139e-09	5.415774e+00	2.305406e+02
2.430000e-06	6.516821e-07	3.383613e-09	4.513087e+00	2.192774e+02
2.440000e-06	5.211739e-07	3.204380e-09	3.609281e+00	2.076791e+02
2.450000e-06	3.904843e-07	3.021123e-09	2.704217e+00	1.957451e+02
2.460000e-06	2.595799e-07	2.836478e-09	1.797666e+00	1.834730e+02
2.470000e-06	1.285792e-07	2.646055e-09	8.904482e-01	1.708566e+02
2.480000e-06	-2.430187e-09	2.448374e-09	-1.682975e-02	1.578841e+02
2.490000e-06	-1.334431e-07	2.244685e-09	-9.241319e-01	1.445367e+02
2.500000e-06	-2.644307e-07	2.030971e-09	-1.831259e+00	1.307883e+02
2.510000e-06	-3.953305e-07	1.807434e-09	-2.737778e+00	1.166059e+02
2.520000e-06	-5.261617e-07	1.579741e-09	-3.643822e+00	1.019517e+02
2.530000e-06	-6.568341e-07	1.348830e-09	-4.548767e+00	8.678575e+01
2.540000e-06	-7.872511e-07	1.110456e-09	-5.451942e+00	7.107041e+01
2.550000e-06	-9.174256e-07	8.605366e-10	-6.353439e+00	5.477472e+01
2.560000e-06	-1.047326e-06	6.017301e-10	-7.253035e+00	3.787962e+01
2.570000e-06	-1.176885e-06	3.375224e-10	-8.150267e+00	2.038269e+01
2.580000e-06	-1.306097e-06	6.391291e-11	-9.045097e+00	2.302247e+00
2.590000e-06	-1.434929e-06	-2.209379e-10	-9.937301e+00	-1.631981e+01
2.600000e-06	-1.563241e-06	-5.139612e-10	-1.082590e+01	-3.541683e+01
2.610000e-06	-1.690913e-06	-8.132052e-10	-1.171006e+01	-5.489806e+01
2.620000e-06	-1.817809e-06	-1.116596e-09	-1.258885e+01	-7.465131e+01
2.630000e-06	-1.943941e-06	-1.421996e-09	-1.346235e+01	-9.454744e+01
2.640000e-06	-2.069358e-06	-1.726083e-09	-1.433090e+01	-1.144463e+02
2.650000e-06	-2.193993e-06	-2.027317e-09	-1.519404e+01	-1.342038e+02
2.660000e-06	-2.317756e-06	-2.326510e-09	-1.605113e+01	-1.536792e+02
2.670000e-06	-2.440587e-06	-2.618385e-09	-1.690177e+01	-1.727423e+02
2.680000e-06	-2.562527e-06	-2.897873e-09	-1.774624e+01	-1.912799e+02
2.690000e-06	-2.683575e-06	-3.167895e-09	-1.858453e+01	-2.092005e+02
2.700000e-06	-2.803662e-06	-3.431077e-09	-1.941617e+01	-2.264372e+02
2.710000e-06	-2.922622e-06	-3.686975e-09	-2.024001e+01	-2.429491e+02
2.720000e-06	-3.040433e-06	-3.932021e-09	-2.105588e+01	-2.587200e+02
2.730000e-06	-3.157146e-06	-4.164383e-09	-2.186415e+01	-2.737557e+02
2.740000e-06	-3.272545e-06	-4.386477e-09	-2.266332e+01	-2.880798e+02
2.750000e-06	-3.386557e-06	-4.599672e-09	-2.345289e+01	-3.017281e+02
2.760000e-06	-3.499198e-06	-4.803257e-09	-2.423296e+01	-3.147437e+02
2.770000e-06	-3.610426e-06	-4.994073e-09	-2.500324e+01	-3.271715e+02
2.780000e-06	-3.720333e-06	-5.173455e-09	-2.576439e+01	-3.390537e+02
2.790000e-06	-3.828976e-06	-5.344320e-09	-2.651677e+01	-3.504263e+02
2.800000e-06	-3.936390e-06	-5.510699e-09	-2.726064e+01	-3.613175e+02
2.810000e-06	-4.042582e-06	-5.671698e-09	-2.799605e+01	-3.717473e+02
2.820000e-06	-4.147446e-06	-5.825252e-09	-2.872227e+01	-3.817276e+02
2.830000e-06	-4.250761e-06	-5.971190e-09	-2.943775e+01	-3.912651e+02
2.840000e-06	-4.352363e-06	-6.108729e-09	-3.014137e+01	-4.003629e+02
2.850000e-06	-4.452352e-06	-6.239279e-09	-3.083383e+01	-4.090236e+02
2.860000e-06	-4.550880e-06	-6.364372e-09	-3.151616e+01	-4.172523e+02
2.870000e-06	-4.647921e-06	-6.485748e-09	-3.218820e+01	-4.250577e+02
2.880000e-06	-4.743301e-06	-6.600891e-09	-3.284874e+01	-4.324541e+02
2.890000e-06	-4.836914e-06	-6.711250e-09	-3.349703e+01	-4.394616e+02
2.900000e-06	-4.928770e-06	-6.817225e-09	-3.413316e+01	-4.461049e+02
2.910000e-06	-5.018967e-06	-6.916324e-09	-3.475780e+01	-4.524129e+02
2.920000e-06	-5.107394e-06	-7.009738e-09	-3.537018e+01	-4.584160e+02
2.930000e-06	-5.193835e-06	-7.097499e-09	-3.596881e+01	-4.641444e+02
2.940000e-06	-5.278323e-06	-7.180291e-09	-3.655392e+01	-4.696259e+02
