# Temperatura_=_61.38
# Concentracion g/m^3_=_15000.0
# C_Vs_to_Am_M_A/Vsm_=_65563218390.804596
# pendiente_HvsI_1/m_=_3716.3
# ordenada_HvsI_A/m_=_1297.0
# frecuencia_Hz_=_301894.90862624

Tiempo_(s)	Campo_(V.s)	Magnetizacion_(V.s)	Campo_(kA/m)	Magnetizacion_(A/m)
0.000000e+00	-6.860108e-06	-9.350125e-09	-4.749941e+01	-6.115826e+02
1.000000e-08	-6.857221e-06	-9.346819e-09	-4.747943e+01	-6.113454e+02
2.000000e-08	-6.852060e-06	-9.343072e-09	-4.744369e+01	-6.109728e+02
3.000000e-08	-6.844798e-06	-9.338850e-09	-4.739340e+01	-6.104713e+02
4.000000e-08	-6.835225e-06	-9.330949e-09	-4.732713e+01	-6.098514e+02
5.000000e-08	-6.823116e-06	-9.319631e-09	-4.724328e+01	-6.091265e+02
6.000000e-08	-6.808457e-06	-9.303817e-09	-4.714178e+01	-6.083122e+02
7.000000e-08	-6.791433e-06	-9.287735e-09	-4.702390e+01	-6.074243e+02
8.000000e-08	-6.772289e-06	-9.285743e-09	-4.689136e+01	-6.064770e+02
9.000000e-08	-6.750787e-06	-9.281727e-09	-4.674248e+01	-6.054816e+02
1.000000e-07	-6.726508e-06	-9.263639e-09	-4.657436e+01	-6.044451e+02
1.100000e-07	-6.699462e-06	-9.240537e-09	-4.638710e+01	-6.033692e+02
1.200000e-07	-6.669996e-06	-9.214798e-09	-4.618307e+01	-6.022501e+02
1.300000e-07	-6.638509e-06	-9.168677e-09	-4.596506e+01	-6.010787e+02
1.400000e-07	-6.605180e-06	-9.134895e-09	-4.573429e+01	-5.998415e+02
1.500000e-07	-6.569932e-06	-9.124473e-09	-4.549024e+01	-5.985217e+02
1.600000e-07	-6.532598e-06	-9.102490e-09	-4.523174e+01	-5.971010e+02
1.700000e-07	-6.493211e-06	-9.093737e-09	-4.495901e+01	-5.955608e+02
1.800000e-07	-6.451514e-06	-9.054048e-09	-4.467031e+01	-5.938842e+02
1.900000e-07	-6.407301e-06	-9.012714e-09	-4.436418e+01	-5.920572e+02
2.000000e-07	-6.360785e-06	-8.990695e-09	-4.404210e+01	-5.900698e+02
2.100000e-07	-6.311678e-06	-8.970096e-09	-4.370208e+01	-5.879160e+02
2.200000e-07	-6.259868e-06	-8.971196e-09	-4.334335e+01	-5.855947e+02
2.300000e-07	-6.205570e-06	-8.922303e-09	-4.296739e+01	-5.831086e+02
2.400000e-07	-6.148880e-06	-8.842907e-09	-4.257486e+01	-5.804640e+02
2.500000e-07	-6.089904e-06	-8.792106e-09	-4.216652e+01	-5.776693e+02
2.600000e-07	-6.028685e-06	-8.750427e-09	-4.174264e+01	-5.747345e+02
2.700000e-07	-5.965340e-06	-8.709698e-09	-4.130403e+01	-5.716694e+02
2.800000e-07	-5.899811e-06	-8.665532e-09	-4.085032e+01	-5.684832e+02
2.900000e-07	-5.831981e-06	-8.606560e-09	-4.038066e+01	-5.651833e+02
3.000000e-07	-5.761984e-06	-8.537585e-09	-3.989600e+01	-5.617750e+02
3.100000e-07	-5.689844e-06	-8.503542e-09	-3.939650e+01	-5.582610e+02
3.200000e-07	-5.615476e-06	-8.484477e-09	-3.888157e+01	-5.546416e+02
3.300000e-07	-5.538809e-06	-8.416367e-09	-3.835074e+01	-5.509148e+02
3.400000e-07	-5.459938e-06	-8.333297e-09	-3.780463e+01	-5.470767e+02
3.500000e-07	-5.379000e-06	-8.263602e-09	-3.724422e+01	-5.431220e+02
3.600000e-07	-5.296169e-06	-8.207967e-09	-3.667069e+01	-5.390448e+02
3.700000e-07	-5.211589e-06	-8.161210e-09	-3.608506e+01	-5.348387e+02
3.800000e-07	-5.125286e-06	-8.100874e-09	-3.548750e+01	-5.304980e+02
3.900000e-07	-5.037264e-06	-8.019655e-09	-3.487803e+01	-5.260173e+02
4.000000e-07	-4.947362e-06	-7.924739e-09	-3.425556e+01	-5.213926e+02
4.100000e-07	-4.855649e-06	-7.846649e-09	-3.362053e+01	-5.166209e+02
4.200000e-07	-4.762288e-06	-7.791498e-09	-3.297410e+01	-5.117004e+02
4.300000e-07	-4.667313e-06	-7.726854e-09	-3.231649e+01	-5.066308e+02
4.400000e-07	-4.570646e-06	-7.637320e-09	-3.164717e+01	-5.014124e+02
4.500000e-07	-4.472227e-06	-7.542557e-09	-3.096572e+01	-4.960463e+02
4.600000e-07	-4.372232e-06	-7.456488e-09	-3.027335e+01	-4.905338e+02
4.700000e-07	-4.270757e-06	-7.374203e-09	-2.957074e+01	-4.848760e+02
4.800000e-07	-4.167821e-06	-7.299484e-09	-2.885801e+01	-4.790733e+02
4.900000e-07	-4.063387e-06	-7.213213e-09	-2.813491e+01	-4.731252e+02
5.000000e-07	-3.957401e-06	-7.105274e-09	-2.740106e+01	-4.670298e+02
5.100000e-07	-3.849907e-06	-7.000820e-09	-2.665677e+01	-4.607839e+02
5.200000e-07	-3.741031e-06	-6.909846e-09	-2.590291e+01	-4.543827e+02
5.300000e-07	-3.630919e-06	-6.816777e-09	-2.514050e+01	-4.478201e+02
5.400000e-07	-3.519571e-06	-6.705275e-09	-2.436952e+01	-4.410894e+02
5.500000e-07	-3.406825e-06	-6.587032e-09	-2.358887e+01	-4.341831e+02
5.600000e-07	-3.292498e-06	-6.473012e-09	-2.279727e+01	-4.270938e+02
5.700000e-07	-3.176656e-06	-6.365365e-09	-2.199518e+01	-4.198148e+02
5.800000e-07	-3.059538e-06	-6.265143e-09	-2.118425e+01	-4.123404e+02
5.900000e-07	-2.941350e-06	-6.160990e-09	-2.036592e+01	-4.046660e+02
6.000000e-07	-2.822229e-06	-6.035300e-09	-1.954112e+01	-3.967884e+02
6.100000e-07	-2.702152e-06	-5.897551e-09	-1.870971e+01	-3.887056e+02
6.200000e-07	-2.580962e-06	-5.768232e-09	-1.787059e+01	-3.804163e+02
6.300000e-07	-2.458669e-06	-5.643262e-09	-1.702384e+01	-3.719191e+02
6.400000e-07	-2.335440e-06	-5.511471e-09	-1.617059e+01	-3.632121e+02
6.500000e-07	-2.211366e-06	-5.370962e-09	-1.531150e+01	-3.542919e+02
6.600000e-07	-2.086533e-06	-5.225614e-09	-1.444716e+01	-3.451531e+02
6.700000e-07	-1.961024e-06	-5.079035e-09	-1.357814e+01	-3.357875e+02
6.800000e-07	-1.834941e-06	-4.934986e-09	-1.270514e+01	-3.261848e+02
6.900000e-07	-1.708316e-06	-4.792586e-09	-1.182838e+01	-3.163321e+02
7.000000e-07	-1.581072e-06	-4.640603e-09	-1.094735e+01	-3.062148e+02
7.100000e-07	-1.453269e-06	-4.475915e-09	-1.006244e+01	-2.958178e+02
7.200000e-07	-1.325004e-06	-4.307729e-09	-9.174331e+00	-2.851261e+02
7.300000e-07	-1.196291e-06	-4.141019e-09	-8.283122e+00	-2.741263e+02
7.400000e-07	-1.067111e-06	-3.971970e-09	-7.388684e+00	-2.628075e+02
7.500000e-07	-9.374894e-07	-3.794857e-09	-6.491180e+00	-2.511613e+02
7.600000e-07	-8.075416e-07	-3.609471e-09	-5.591421e+00	-2.391825e+02
7.700000e-07	-6.773013e-07	-3.418972e-09	-4.689637e+00	-2.268679e+02
7.800000e-07	-5.468440e-07	-3.226691e-09	-3.786350e+00	-2.142155e+02
7.900000e-07	-4.162599e-07	-3.035311e-09	-2.882185e+00	-2.012225e+02
8.000000e-07	-2.854978e-07	-2.839320e-09	-1.976788e+00	-1.878833e+02
8.100000e-07	-1.545819e-07	-2.631752e-09	-1.070326e+00	-1.741876e+02
8.200000e-07	-2.361764e-08	-2.413330e-09	-1.635286e-01	-1.601183e+02
8.300000e-07	1.074219e-07	-2.190042e-09	7.437897e-01	-1.456507e+02
8.400000e-07	2.384673e-07	-1.964113e-09	1.651148e+00	-1.307522e+02
8.500000e-07	3.694196e-07	-1.731479e-09	2.557862e+00	-1.153833e+02
8.600000e-07	5.002812e-07	-1.490214e-09	3.463949e+00	-9.949989e+01
8.700000e-07	6.310114e-07	-1.238424e-09	4.369126e+00	-8.305680e+01
8.800000e-07	7.615405e-07	-9.788857e-10	5.272909e+00	-6.601234e+01
8.900000e-07	8.918087e-07	-7.133783e-10	6.174887e+00	-4.833355e+01
9.000000e-07	1.021747e-06	-4.397830e-10	7.074583e+00	-3.000162e+01
9.100000e-07	1.151343e-06	-1.544353e-10	7.971900e+00	-1.101700e+01
9.200000e-07	1.280539e-06	1.442195e-10	8.866456e+00	8.596475e+00
9.300000e-07	1.409222e-06	4.529594e-10	9.757462e+00	2.878879e+01
9.400000e-07	1.537374e-06	7.678781e-10	1.064478e+01	4.948286e+01
9.500000e-07	1.664931e-06	1.087617e-09	1.152799e+01	7.057568e+01
9.600000e-07	1.791787e-06	1.412318e-09	1.240634e+01	9.194159e+01
9.700000e-07	1.918038e-06	1.741332e-09	1.328050e+01	1.134374e+02
9.800000e-07	2.043736e-06	2.071263e-09	1.415083e+01	1.349093e+02
9.900000e-07	2.168730e-06	2.400161e-09	1.501629e+01	1.562003e+02
1.000000e-06	2.292964e-06	2.722349e-09	1.587649e+01	1.771585e+02
1.010000e-06	2.416371e-06	3.034363e-09	1.673096e+01	1.976446e+02
1.020000e-06	2.538851e-06	3.336963e-09	1.757901e+01	2.175389e+02
1.030000e-06	2.660317e-06	3.626334e-09	1.842005e+01	2.367457e+02
1.040000e-06	2.780750e-06	3.902808e-09	1.925392e+01	2.551972e+02
1.050000e-06	2.900099e-06	4.165519e-09	2.008030e+01	2.728536e+02
1.060000e-06	3.018418e-06	4.416109e-09	2.089953e+01	2.897022e+02
1.070000e-06	3.135757e-06	4.657918e-09	2.171199e+01	3.057542e+02
1.080000e-06	3.251939e-06	4.889866e-09	2.251644e+01	3.210397e+02
1.090000e-06	3.366803e-06	5.112890e-09	2.331176e+01	3.356026e+02
1.100000e-06	3.480266e-06	5.324968e-09	2.409737e+01	3.494941e+02
1.110000e-06	3.592324e-06	5.527900e-09	2.487326e+01	3.627673e+02
1.120000e-06	3.703097e-06	5.721765e-09	2.564026e+01	3.754724e+02
1.130000e-06	3.812698e-06	5.906023e-09	2.639914e+01	3.876531e+02
1.140000e-06	3.921117e-06	6.083810e-09	2.714983e+01	3.993441e+02
1.150000e-06	4.028229e-06	6.254597e-09	2.789148e+01	4.105707e+02
1.160000e-06	4.133889e-06	6.417469e-09	2.862306e+01	4.213493e+02
1.170000e-06	4.237964e-06	6.573041e-09	2.934368e+01	4.316891e+02
1.180000e-06	4.340512e-06	6.722512e-09	3.005372e+01	4.415944e+02
1.190000e-06	4.441611e-06	6.866943e-09	3.075373e+01	4.510675e+02
1.200000e-06	4.541145e-06	7.005420e-09	3.144291e+01	4.601110e+02
1.210000e-06	4.638987e-06	7.136330e-09	3.212036e+01	4.687304e+02
1.220000e-06	4.735015e-06	7.261428e-09	3.278526e+01	4.769350e+02
1.230000e-06	4.829283e-06	7.381508e-09	3.343797e+01	4.847388e+02
1.240000e-06	4.921936e-06	7.496688e-09	3.407950e+01	4.921603e+02
1.250000e-06	5.012972e-06	7.605905e-09	3.470983e+01	4.992216e+02
1.260000e-06	5.102158e-06	7.709752e-09	3.532736e+01	5.059472e+02
1.270000e-06	5.189464e-06	7.808568e-09	3.593187e+01	5.123622e+02
1.280000e-06	5.274970e-06	7.902031e-09	3.652391e+01	5.184909e+02
1.290000e-06	5.358601e-06	7.990652e-09	3.710298e+01	5.243555e+02
1.300000e-06	5.440260e-06	8.074152e-09	3.766838e+01	5.299752e+02
1.310000e-06	5.519891e-06	8.153608e-09	3.821974e+01	5.353658e+02
1.320000e-06	5.597565e-06	8.228621e-09	3.875756e+01	5.405395e+02
1.330000e-06	5.673173e-06	8.301469e-09	3.928107e+01	5.455056e+02
1.340000e-06	5.746520e-06	8.375670e-09	3.978893e+01	5.502712e+02
1.350000e-06	5.817648e-06	8.448423e-09	4.028142e+01	5.548419e+02
1.360000e-06	5.886736e-06	8.516946e-09	4.075978e+01	5.592224e+02
1.370000e-06	5.953789e-06	8.580497e-09	4.122406e+01	5.634172e+02
1.380000e-06	6.018631e-06	8.640056e-09	4.167303e+01	5.674308e+02
1.390000e-06	6.081351e-06	8.697672e-09	4.210730e+01	5.712678e+02
1.400000e-06	6.142128e-06	8.754201e-09	4.252812e+01	5.749324e+02
1.410000e-06	6.200831e-06	8.808455e-09	4.293457e+01	5.784281e+02
1.420000e-06	6.257260e-06	8.859035e-09	4.332529e+01	5.817571e+02
1.430000e-06	6.311442e-06	8.906451e-09	4.370045e+01	5.849205e+02
1.440000e-06	6.363206e-06	8.950877e-09	4.405886e+01	5.879175e+02
1.450000e-06	6.412301e-06	8.993478e-09	4.439880e+01	5.907457e+02
1.460000e-06	6.458940e-06	9.034864e-09	4.472173e+01	5.934020e+02
1.470000e-06	6.503432e-06	9.072857e-09	4.502979e+01	5.958827e+02
1.480000e-06	6.545659e-06	9.106804e-09	4.532217e+01	5.981848e+02
1.490000e-06	6.585431e-06	9.139128e-09	4.559755e+01	6.003067e+02
1.500000e-06	6.622947e-06	9.169379e-09	4.585731e+01	6.022489e+02
1.510000e-06	6.658243e-06	9.195536e-09	4.610170e+01	6.040147e+02
1.520000e-06	6.691048e-06	9.218769e-09	4.632884e+01	6.056102e+02
1.530000e-06	6.721436e-06	9.238634e-09	4.653925e+01	6.070443e+02
1.540000e-06	6.749676e-06	9.256957e-09	4.673478e+01	6.083278e+02
1.550000e-06	6.775540e-06	9.274057e-09	4.691387e+01	6.094723e+02
1.560000e-06	6.798798e-06	9.288587e-09	4.707490e+01	6.104894e+02
1.570000e-06	6.819673e-06	9.302328e-09	4.721944e+01	6.113894e+02
1.580000e-06	6.838182e-06	9.316450e-09	4.734760e+01	6.121797e+02
1.590000e-06	6.854161e-06	9.328824e-09	4.745824e+01	6.128650e+02
1.600000e-06	6.867621e-06	9.338641e-09	4.755143e+01	6.134459e+02
1.610000e-06	6.878416e-06	9.345596e-09	4.762618e+01	6.139200e+02
1.620000e-06	6.886501e-06	9.349587e-09	4.768216e+01	6.142817e+02
1.630000e-06	6.892168e-06	9.352539e-09	4.772139e+01	6.145241e+02
1.640000e-06	6.895514e-06	9.354316e-09	4.774457e+01	6.146397e+02
1.650000e-06	6.896407e-06	9.355393e-09	4.775075e+01	6.146222e+02
1.660000e-06	6.894877e-06	9.352478e-09	4.774015e+01	6.144678e+02
1.670000e-06	6.891176e-06	9.349673e-09	4.771452e+01	6.141762e+02
1.680000e-06	6.885183e-06	9.345884e-09	4.767303e+01	6.137512e+02
1.690000e-06	6.876825e-06	9.338917e-09	4.761516e+01	6.132010e+02
1.700000e-06	6.866270e-06	9.330590e-09	4.754208e+01	6.125374e+02
1.710000e-06	6.853338e-06	9.322816e-09	4.745253e+01	6.117747e+02
1.720000e-06	6.838034e-06	9.316287e-09	4.734657e+01	6.109290e+02
1.730000e-06	6.820651e-06	9.287110e-09	4.722621e+01	6.100154e+02
1.740000e-06	6.801035e-06	9.256769e-09	4.709039e+01	6.090473e+02
1.750000e-06	6.778326e-06	9.242433e-09	4.693315e+01	6.080345e+02
1.760000e-06	6.752273e-06	9.224867e-09	4.675276e+01	6.069819e+02
1.770000e-06	6.723652e-06	9.210655e-09	4.655459e+01	6.058890e+02
1.780000e-06	6.692934e-06	9.220442e-09	4.634190e+01	6.047500e+02
1.790000e-06	6.660632e-06	9.204955e-09	4.611824e+01	6.035539e+02
1.800000e-06	6.626871e-06	9.195711e-09	4.588448e+01	6.022856e+02
1.810000e-06	6.590733e-06	9.161615e-09	4.563426e+01	6.009277e+02
1.820000e-06	6.552036e-06	9.128444e-09	4.536632e+01	5.994614e+02
1.830000e-06	6.511212e-06	9.146031e-09	4.508366e+01	5.978688e+02
1.840000e-06	6.468215e-06	9.107853e-09	4.478594e+01	5.961339e+02
1.850000e-06	6.423011e-06	9.078081e-09	4.447295e+01	5.942441e+02
1.860000e-06	6.375396e-06	9.037362e-09	4.414326e+01	5.921910e+02
1.870000e-06	6.325440e-06	8.943608e-09	4.379737e+01	5.899706e+02
1.880000e-06	6.273190e-06	8.924307e-09	4.343559e+01	5.875833e+02
1.890000e-06	6.218215e-06	8.927461e-09	4.305494e+01	5.850333e+02
1.900000e-06	6.160800e-06	8.905826e-09	4.265740e+01	5.823279e+02
1.910000e-06	6.101134e-06	8.872525e-09	4.224428e+01	5.794763e+02
1.920000e-06	6.039084e-06	8.781757e-09	4.181464e+01	5.764884e+02
1.930000e-06	5.974883e-06	8.724757e-09	4.137011e+01	5.733740e+02
1.940000e-06	5.908522e-06	8.699382e-09	4.091063e+01	5.701416e+02
1.950000e-06	5.840021e-06	8.667219e-09	4.043633e+01	5.667979e+02
1.960000e-06	5.769148e-06	8.606815e-09	3.994560e+01	5.633471e+02
1.970000e-06	5.695915e-06	8.530606e-09	3.943853e+01	5.597911e+02
1.980000e-06	5.620626e-06	8.477498e-09	3.891723e+01	5.561291e+02
1.990000e-06	5.543014e-06	8.420378e-09	3.837985e+01	5.523584e+02
2.000000e-06	5.463228e-06	8.385951e-09	3.782741e+01	5.484745e+02
2.010000e-06	5.381567e-06	8.326332e-09	3.726199e+01	5.444717e+02
2.020000e-06	5.298175e-06	8.234894e-09	3.668459e+01	5.403438e+02
2.030000e-06	5.212917e-06	8.162107e-09	3.609426e+01	5.360848e+02
2.040000e-06	5.125594e-06	8.100001e-09	3.548963e+01	5.316890e+02
2.050000e-06	5.036471e-06	8.055267e-09	3.487254e+01	5.271514e+02
2.060000e-06	4.945778e-06	7.991534e-09	3.424459e+01	5.224685e+02
2.070000e-06	4.853544e-06	7.907659e-09	3.360595e+01	5.176377e+02
2.080000e-06	4.759488e-06	7.817499e-09	3.295472e+01	5.126579e+02
2.090000e-06	4.663592e-06	7.731573e-09	3.229073e+01	5.075291e+02
2.100000e-06	4.566155e-06	7.662994e-09	3.161607e+01	5.022518e+02
2.110000e-06	4.467249e-06	7.604945e-09	3.093125e+01	4.968273e+02
2.120000e-06	4.366810e-06	7.525580e-09	3.023581e+01	4.912569e+02
2.130000e-06	4.264709e-06	7.413825e-09	2.952886e+01	4.855414e+02
2.140000e-06	4.160949e-06	7.310034e-09	2.881043e+01	4.796810e+02
2.150000e-06	4.055666e-06	7.221079e-09	2.808145e+01	4.736746e+02
2.160000e-06	3.949039e-06	7.143943e-09	2.734316e+01	4.675198e+02
2.170000e-06	3.841152e-06	7.059421e-09	2.659615e+01	4.612128e+02
2.180000e-06	3.731898e-06	6.954748e-09	2.583967e+01	4.547482e+02
2.190000e-06	3.621102e-06	6.843078e-09	2.507252e+01	4.481197e+02
2.200000e-06	3.508903e-06	6.738682e-09	2.429566e+01	4.413202e+02
2.210000e-06	3.395429e-06	6.646575e-09	2.350997e+01	4.343421e+02
2.220000e-06	3.280611e-06	6.543457e-09	2.271496e+01	4.271784e+02
2.230000e-06	3.164410e-06	6.416916e-09	2.191039e+01	4.198225e+02
2.240000e-06	3.046858e-06	6.286330e-09	2.109646e+01	4.122692e+02
2.250000e-06	2.928047e-06	6.168733e-09	2.027381e+01	4.045146e+02
2.260000e-06	2.808079e-06	6.058757e-09	1.944315e+01	3.965558e+02
2.270000e-06	2.687112e-06	5.950617e-09	1.860557e+01	3.883913e+02
2.280000e-06	2.565234e-06	5.829881e-09	1.776169e+01	3.800198e+02
2.290000e-06	2.442517e-06	5.689802e-09	1.691199e+01	3.714398e+02
2.300000e-06	2.318977e-06	5.545802e-09	1.605660e+01	3.626488e+02
2.310000e-06	2.194693e-06	5.413112e-09	1.519606e+01	3.536427e+02
2.320000e-06	2.069629e-06	5.287770e-09	1.433012e+01	3.444152e+02
2.330000e-06	1.943757e-06	5.147396e-09	1.345858e+01	3.349571e+02
2.340000e-06	1.817190e-06	4.986257e-09	1.258223e+01	3.252571e+02
2.350000e-06	1.689964e-06	4.822990e-09	1.170132e+01	3.153015e+02
2.360000e-06	1.562167e-06	4.667747e-09	1.081645e+01	3.050754e+02
2.370000e-06	1.433838e-06	4.516463e-09	9.927896e+00	2.945636e+02
2.380000e-06	1.305022e-06	4.359254e-09	9.035978e+00	2.837517e+02
2.390000e-06	1.175815e-06	4.188148e-09	8.141347e+00	2.726270e+02
2.400000e-06	1.046237e-06	4.007315e-09	7.244152e+00	2.611796e+02
2.410000e-06	9.163560e-07	3.827554e-09	6.344852e+00	2.494025e+02
2.420000e-06	7.862478e-07	3.650138e-09	5.443983e+00	2.372914e+02
2.430000e-06	6.559271e-07	3.467521e-09	4.541642e+00	2.248436e+02
2.440000e-06	5.254228e-07	3.271418e-09	3.638029e+00	2.120571e+02
2.450000e-06	3.947455e-07	3.060927e-09	2.733219e+00	1.989283e+02
2.460000e-06	2.639168e-07	2.846975e-09	1.827361e+00	1.854499e+02
2.470000e-06	1.330227e-07	2.635094e-09	9.210499e-01	1.716091e+02
2.480000e-06	2.100734e-09	2.422653e-09	1.454549e-02	1.573860e+02
2.490000e-06	-1.288587e-07	2.202024e-09	-8.922183e-01	1.427527e+02
2.500000e-06	-2.598299e-07	1.965669e-09	-1.799063e+00	1.276737e+02
2.510000e-06	-3.907091e-07	1.720118e-09	-2.705272e+00	1.121073e+02
2.520000e-06	-5.214209e-07	1.474146e-09	-3.610320e+00	9.600860e+01
2.530000e-06	-6.519837e-07	1.224281e-09	-4.514338e+00	7.933313e+01
2.540000e-06	-7.824245e-07	9.643134e-10	-5.417510e+00	6.204201e+01
2.550000e-06	-9.127229e-07	6.884983e-10	-6.319696e+00	4.410719e+01
2.560000e-06	-1.042708e-06	3.993551e-10	-7.219715e+00	2.551685e+01
2.570000e-06	-1.172327e-06	1.053317e-10	-8.117195e+00	6.280196e+00
2.580000e-06	-1.301592e-06	-1.924362e-10	-9.012228e+00	-1.356887e+01
2.590000e-06	-1.430404e-06	-4.995066e-10	-9.904123e+00	-3.396971e+01
2.600000e-06	-1.558766e-06	-8.198954e-10	-1.079290e+01	-5.483480e+01
2.610000e-06	-1.686541e-06	-1.152013e-09	-1.167761e+01	-7.605172e+01
2.620000e-06	-1.813576e-06	-1.486806e-09	-1.255721e+01	-9.748724e+01
2.630000e-06	-1.939944e-06	-1.816566e-09	-1.343218e+01	-1.189931e+02
2.640000e-06	-2.065558e-06	-2.140168e-09	-1.430193e+01	-1.404133e+02
2.650000e-06	-2.190370e-06	-2.460827e-09	-1.516613e+01	-1.615918e+02
2.660000e-06	-2.314313e-06	-2.779687e-09	-1.602431e+01	-1.823810e+02
2.670000e-06	-2.437228e-06	-3.087584e-09	-1.687538e+01	-2.026483e+02
2.680000e-06	-2.559193e-06	-3.381981e-09	-1.771986e+01	-2.222831e+02
2.690000e-06	-2.680290e-06	-3.666929e-09	-1.855834e+01	-2.412005e+02
2.700000e-06	-2.800429e-06	-3.944420e-09	-1.939018e+01	-2.593436e+02
2.710000e-06	-2.919492e-06	-4.214550e-09	-2.021458e+01	-2.766834e+02
2.720000e-06	-3.037436e-06	-4.472636e-09	-2.103122e+01	-2.932173e+02
2.730000e-06	-3.154149e-06	-4.716649e-09	-2.183934e+01	-3.089644e+02
2.740000e-06	-3.269551e-06	-4.947379e-09	-2.263838e+01	-3.239611e+02
2.750000e-06	-3.383637e-06	-5.168474e-09	-2.342831e+01	-3.382546e+02
2.760000e-06	-3.496381e-06	-5.381572e-09	-2.420895e+01	-3.518976e+02
2.770000e-06	-3.607704e-06	-5.584680e-09	-2.497976e+01	-3.649427e+02
2.780000e-06	-3.717665e-06	-5.776714e-09	-2.574113e+01	-3.774377e+02
2.790000e-06	-3.826387e-06	-5.956858e-09	-2.649391e+01	-3.894231e+02
2.800000e-06	-3.933848e-06	-6.130045e-09	-2.723798e+01	-4.009299e+02
2.810000e-06	-4.040046e-06	-6.298570e-09	-2.797329e+01	-4.119798e+02
2.820000e-06	-4.144892e-06	-6.462763e-09	-2.869924e+01	-4.225859e+02
2.830000e-06	-4.248209e-06	-6.620170e-09	-2.941462e+01	-4.327554e+02
2.840000e-06	-4.349910e-06	-6.767725e-09	-3.011879e+01	-4.424914e+02
2.850000e-06	-4.449967e-06	-6.907637e-09	-3.081159e+01	-4.517960e+02
2.860000e-06	-4.548508e-06	-7.041613e-09	-3.149389e+01	-4.606729e+02
2.870000e-06	-4.645604e-06	-7.170211e-09	-3.216618e+01	-4.691287e+02
2.880000e-06	-4.741049e-06	-7.292753e-09	-3.282704e+01	-4.771746e+02
2.890000e-06	-4.834690e-06	-7.409820e-09	-3.347541e+01	-4.848265e+02
2.900000e-06	-4.926605e-06	-7.523725e-09	-3.411183e+01	-4.921044e+02
2.910000e-06	-5.016824e-06	-7.633127e-09	-3.473651e+01	-4.990316e+02
2.920000e-06	-5.105239e-06	-7.737093e-09	-3.534870e+01	-5.056329e+02
2.930000e-06	-5.191744e-06	-7.834321e-09	-3.594766e+01	-5.119333e+02
2.940000e-06	-5.276300e-06	-7.924989e-09	-3.653312e+01	-5.179565e+02
