# Temperatura_=_49.43
# Concentracion g/m^3_=_15000.0
# C_Vs_to_Am_M_A/Vsm_=_65563218390.804596
# pendiente_HvsI_1/m_=_3716.3
# ordenada_HvsI_A/m_=_1297.0
# frecuencia_Hz_=_301896.9017780557

Tiempo_(s)	Campo_(V.s)	Magnetizacion_(V.s)	Campo_(kA/m)	Magnetizacion_(A/m)
0.000000e+00	-6.902391e-06	-8.797119e-09	-4.750386e+01	-5.759871e+02
1.000000e-08	-6.899956e-06	-8.800512e-09	-4.748711e+01	-5.758397e+02
2.000000e-08	-6.895272e-06	-8.799006e-09	-4.745487e+01	-5.755806e+02
3.000000e-08	-6.888551e-06	-8.794970e-09	-4.740861e+01	-5.752053e+02
4.000000e-08	-6.879514e-06	-8.791053e-09	-4.734641e+01	-5.747122e+02
5.000000e-08	-6.867887e-06	-8.782437e-09	-4.726640e+01	-5.741042e+02
6.000000e-08	-6.853715e-06	-8.770183e-09	-4.716886e+01	-5.733880e+02
7.000000e-08	-6.837146e-06	-8.749172e-09	-4.705483e+01	-5.725748e+02
8.000000e-08	-6.818418e-06	-8.729443e-09	-4.692594e+01	-5.716787e+02
9.000000e-08	-6.797404e-06	-8.771983e-09	-4.678131e+01	-5.707159e+02
1.000000e-07	-6.773636e-06	-8.767615e-09	-4.661774e+01	-5.697030e+02
1.100000e-07	-6.747010e-06	-8.701551e-09	-4.643450e+01	-5.686548e+02
1.200000e-07	-6.717915e-06	-8.679037e-09	-4.623426e+01	-5.675825e+02
1.300000e-07	-6.686796e-06	-8.667766e-09	-4.602008e+01	-5.664928e+02
1.400000e-07	-6.653693e-06	-8.575628e-09	-4.579227e+01	-5.653859e+02
1.500000e-07	-6.618633e-06	-8.590661e-09	-4.555097e+01	-5.642559e+02
1.600000e-07	-6.581575e-06	-8.671018e-09	-4.529593e+01	-5.630903e+02
1.700000e-07	-6.542497e-06	-8.501989e-09	-4.502698e+01	-5.618714e+02
1.800000e-07	-6.501099e-06	-8.531967e-09	-4.474208e+01	-5.605777e+02
1.900000e-07	-6.457072e-06	-8.551017e-09	-4.443907e+01	-5.591855e+02
2.000000e-07	-6.410729e-06	-8.467686e-09	-4.412013e+01	-5.576715e+02
2.100000e-07	-6.361914e-06	-8.567595e-09	-4.378417e+01	-5.560144e+02
2.200000e-07	-6.310371e-06	-8.516927e-09	-4.342944e+01	-5.541973e+02
2.300000e-07	-6.256297e-06	-8.433259e-09	-4.305729e+01	-5.522085e+02
2.400000e-07	-6.199780e-06	-8.365110e-09	-4.266833e+01	-5.500428e+02
2.500000e-07	-6.140905e-06	-8.300568e-09	-4.226314e+01	-5.477014e+02
2.600000e-07	-6.079827e-06	-8.299769e-09	-4.184278e+01	-5.451916e+02
2.700000e-07	-6.016549e-06	-8.265300e-09	-4.140729e+01	-5.425251e+02
2.800000e-07	-5.951028e-06	-8.218851e-09	-4.095636e+01	-5.397170e+02
2.900000e-07	-5.883254e-06	-8.135274e-09	-4.048992e+01	-5.367837e+02
3.000000e-07	-5.813308e-06	-8.097974e-09	-4.000854e+01	-5.337410e+02
3.100000e-07	-5.741206e-06	-8.085548e-09	-3.951232e+01	-5.306023e+02
3.200000e-07	-5.666793e-06	-8.029902e-09	-3.900019e+01	-5.273774e+02
3.300000e-07	-5.590035e-06	-8.008265e-09	-3.847192e+01	-5.240715e+02
3.400000e-07	-5.511050e-06	-7.935677e-09	-3.792833e+01	-5.206851e+02
3.500000e-07	-5.429988e-06	-7.868858e-09	-3.737044e+01	-5.172139e+02
3.600000e-07	-5.347069e-06	-7.828349e-09	-3.679977e+01	-5.136499e+02
3.700000e-07	-5.262411e-06	-7.786677e-09	-3.621714e+01	-5.099826e+02
3.800000e-07	-5.176069e-06	-7.727626e-09	-3.562291e+01	-5.061999e+02
3.900000e-07	-5.087860e-06	-7.638180e-09	-3.501584e+01	-5.022902e+02
4.000000e-07	-4.997700e-06	-7.574258e-09	-3.439533e+01	-4.982430e+02
4.100000e-07	-4.905833e-06	-7.519200e-09	-3.376308e+01	-4.940505e+02
4.200000e-07	-4.812363e-06	-7.471232e-09	-3.311980e+01	-4.897076e+02
4.300000e-07	-4.717286e-06	-7.394903e-09	-3.246546e+01	-4.852125e+02
4.400000e-07	-4.620410e-06	-7.305965e-09	-3.179873e+01	-4.805660e+02
4.500000e-07	-4.521784e-06	-7.224957e-09	-3.111997e+01	-4.757712e+02
4.600000e-07	-4.421588e-06	-7.145340e-09	-3.043040e+01	-4.708321e+02
4.700000e-07	-4.319873e-06	-7.087197e-09	-2.973037e+01	-4.657527e+02
4.800000e-07	-4.216701e-06	-7.025115e-09	-2.902032e+01	-4.605362e+02
4.900000e-07	-4.111892e-06	-6.940080e-09	-2.829900e+01	-4.551837e+02
5.000000e-07	-4.005517e-06	-6.834862e-09	-2.756690e+01	-4.496939e+02
5.100000e-07	-3.897662e-06	-6.745701e-09	-2.682462e+01	-4.440629e+02
5.200000e-07	-3.788409e-06	-6.668541e-09	-2.607271e+01	-4.382842e+02
5.300000e-07	-3.678030e-06	-6.581673e-09	-2.531306e+01	-4.323493e+02
5.400000e-07	-3.566309e-06	-6.480808e-09	-2.454417e+01	-4.262487e+02
5.500000e-07	-3.452961e-06	-6.373242e-09	-2.376408e+01	-4.199727e+02
5.600000e-07	-3.338075e-06	-6.270875e-09	-2.297341e+01	-4.135120e+02
5.700000e-07	-3.221807e-06	-6.171608e-09	-2.217322e+01	-4.068594e+02
5.800000e-07	-3.104299e-06	-6.079760e-09	-2.136451e+01	-4.000093e+02
5.900000e-07	-2.985769e-06	-5.978159e-09	-2.054876e+01	-3.929586e+02
6.000000e-07	-2.866209e-06	-5.862937e-09	-1.972592e+01	-3.857064e+02
6.100000e-07	-2.745440e-06	-5.742057e-09	-1.889476e+01	-3.782531e+02
6.200000e-07	-2.623610e-06	-5.627899e-09	-1.805629e+01	-3.706000e+02
6.300000e-07	-2.500855e-06	-5.512673e-09	-1.721146e+01	-3.627478e+02
6.400000e-07	-2.377125e-06	-5.383940e-09	-1.635993e+01	-3.546958e+02
6.500000e-07	-2.252515e-06	-5.250520e-09	-1.550233e+01	-3.464409e+02
6.600000e-07	-2.127189e-06	-5.117789e-09	-1.463981e+01	-3.379770e+02
6.700000e-07	-2.001259e-06	-4.988527e-09	-1.377313e+01	-3.292944e+02
6.800000e-07	-1.874783e-06	-4.859507e-09	-1.290270e+01	-3.203804e+02
6.900000e-07	-1.747619e-06	-4.726327e-09	-1.202752e+01	-3.112196e+02
7.000000e-07	-1.619678e-06	-4.579299e-09	-1.114700e+01	-3.017951e+02
7.100000e-07	-1.491026e-06	-4.423025e-09	-1.026159e+01	-2.920897e+02
7.200000e-07	-1.361848e-06	-4.266354e-09	-9.372552e+00	-2.820873e+02
7.300000e-07	-1.232273e-06	-4.109885e-09	-8.480792e+00	-2.717742e+02
7.400000e-07	-1.102338e-06	-3.950284e-09	-7.586544e+00	-2.611400e+02
7.500000e-07	-9.721341e-07	-3.781060e-09	-6.690453e+00	-2.501780e+02
7.600000e-07	-8.416777e-07	-3.606880e-09	-5.792622e+00	-2.388853e+02
7.700000e-07	-7.109236e-07	-3.429082e-09	-4.892742e+00	-2.272615e+02
7.800000e-07	-5.799181e-07	-3.249438e-09	-3.991131e+00	-2.153077e+02
7.900000e-07	-4.486858e-07	-3.068569e-09	-3.087960e+00	-2.030245e+02
8.000000e-07	-3.172030e-07	-2.881974e-09	-2.183065e+00	-1.904097e+02
8.100000e-07	-1.855810e-07	-2.683936e-09	-1.277212e+00	-1.774562e+02
8.200000e-07	-5.386030e-08	-2.476611e-09	-3.706791e-01	-1.641503e+02
8.300000e-07	7.790778e-08	-2.266752e-09	5.361794e-01	-1.504704e+02
8.400000e-07	2.097025e-07	-2.052502e-09	1.443221e+00	-1.363870e+02
8.500000e-07	3.414364e-07	-1.831296e-09	2.349844e+00	-1.218633e+02
8.600000e-07	4.730373e-07	-1.602515e-09	3.255553e+00	-1.068574e+02
8.700000e-07	6.045314e-07	-1.366838e-09	4.160526e+00	-9.132568e+01
8.800000e-07	7.358466e-07	-1.123306e-09	5.064267e+00	-7.522653e+01
8.900000e-07	8.668958e-07	-8.723978e-10	5.966178e+00	-5.852557e+01
9.000000e-07	9.976178e-07	-6.134579e-10	6.865838e+00	-4.120049e+01
9.100000e-07	1.128018e-06	-3.419899e-10	7.763284e+00	-2.324583e+01
9.200000e-07	1.258129e-06	-5.829134e-11	8.658739e+00	-4.677090e+00
9.300000e-07	1.387892e-06	2.318665e-10	9.551798e+00	1.446647e+01
9.400000e-07	1.517171e-06	5.264555e-10	1.044153e+01	3.412048e+01
9.500000e-07	1.645850e-06	8.288547e-10	1.132713e+01	5.419596e+01
9.600000e-07	1.773755e-06	1.140261e-09	1.220740e+01	7.458166e+01
9.700000e-07	1.900849e-06	1.459343e-09	1.308208e+01	9.514822e+01
9.800000e-07	2.027283e-06	1.778891e-09	1.395223e+01	1.157537e+02
9.900000e-07	2.153092e-06	2.095775e-09	1.481808e+01	1.362505e+02
1.000000e-06	2.278169e-06	2.407727e-09	1.567889e+01	1.564921e+02
1.010000e-06	2.402439e-06	2.710873e-09	1.653414e+01	1.763408e+02
1.020000e-06	2.525830e-06	3.007066e-09	1.738335e+01	1.956739e+02
1.030000e-06	2.648329e-06	3.288939e-09	1.822642e+01	2.143893e+02
1.040000e-06	2.769887e-06	3.556421e-09	1.906301e+01	2.324087e+02
1.050000e-06	2.890252e-06	3.812313e-09	1.989138e+01	2.496803e+02
1.060000e-06	3.009411e-06	4.059266e-09	2.071146e+01	2.661780e+02
1.070000e-06	3.127600e-06	4.298545e-09	2.152487e+01	2.818999e+02
1.080000e-06	3.244808e-06	4.526527e-09	2.233152e+01	2.968645e+02
1.090000e-06	3.360807e-06	4.741869e-09	2.312985e+01	3.111063e+02
1.100000e-06	3.475459e-06	4.946656e-09	2.391892e+01	3.246702e+02
1.110000e-06	3.588655e-06	5.143787e-09	2.469796e+01	3.376064e+02
1.120000e-06	3.700341e-06	5.333158e-09	2.546661e+01	3.499648e+02
1.130000e-06	3.810731e-06	5.513964e-09	2.622634e+01	3.617913e+02
1.140000e-06	3.919996e-06	5.686710e-09	2.697833e+01	3.731246e+02
1.150000e-06	4.027998e-06	5.853010e-09	2.772162e+01	3.839943e+02
1.160000e-06	4.134625e-06	6.012560e-09	2.845545e+01	3.944209e+02
1.170000e-06	4.239755e-06	6.165158e-09	2.917898e+01	4.044165e+02
1.180000e-06	4.343266e-06	6.309070e-09	2.989137e+01	4.139871e+02
1.190000e-06	4.445247e-06	6.447445e-09	3.059323e+01	4.231344e+02
1.200000e-06	4.545682e-06	6.580111e-09	3.128444e+01	4.318594e+02
1.210000e-06	4.644538e-06	6.704354e-09	3.196479e+01	4.401645e+02
1.220000e-06	4.741637e-06	6.823292e-09	3.263305e+01	4.480558e+02
1.230000e-06	4.836826e-06	6.938207e-09	3.328816e+01	4.555442e+02
1.240000e-06	4.930331e-06	7.046331e-09	3.393168e+01	4.626467e+02
1.250000e-06	5.022272e-06	7.148367e-09	3.456444e+01	4.693853e+02
1.260000e-06	5.112511e-06	7.246310e-09	3.518549e+01	4.757862e+02
1.270000e-06	5.200805e-06	7.339622e-09	3.579315e+01	4.818782e+02
1.280000e-06	5.287120e-06	7.429516e-09	3.638719e+01	4.876908e+02
1.290000e-06	5.371600e-06	7.515626e-09	3.696860e+01	4.932519e+02
1.300000e-06	5.454221e-06	7.596676e-09	3.753722e+01	4.985864e+02
1.310000e-06	5.534792e-06	7.672359e-09	3.809173e+01	5.037144e+02
1.320000e-06	5.613310e-06	7.743599e-09	3.863211e+01	5.086512e+02
1.330000e-06	5.689853e-06	7.814393e-09	3.915889e+01	5.134062e+02
1.340000e-06	5.764197e-06	7.883837e-09	3.967054e+01	5.179845e+02
1.350000e-06	5.836300e-06	7.950982e-09	4.016677e+01	5.223868e+02
1.360000e-06	5.906348e-06	8.015713e-09	4.064886e+01	5.266116e+02
1.370000e-06	5.974353e-06	8.078381e-09	4.111689e+01	5.306560e+02
1.380000e-06	6.040091e-06	8.138233e-09	4.156931e+01	5.345172e+02
1.390000e-06	6.103603e-06	8.193856e-09	4.200641e+01	5.381934e+02
1.400000e-06	6.165154e-06	8.246640e-09	4.243002e+01	5.416848e+02
1.410000e-06	6.224735e-06	8.295711e-09	4.284007e+01	5.449932e+02
1.420000e-06	6.282084e-06	8.341020e-09	4.323477e+01	5.481223e+02
1.430000e-06	6.337166e-06	8.385112e-09	4.361385e+01	5.510772e+02
1.440000e-06	6.389928e-06	8.428892e-09	4.397697e+01	5.538631e+02
1.450000e-06	6.439980e-06	8.469468e-09	4.432144e+01	5.564852e+02
1.460000e-06	6.487421e-06	8.506144e-09	4.464794e+01	5.589476e+02
1.470000e-06	6.532631e-06	8.540806e-09	4.495908e+01	5.612530e+02
1.480000e-06	6.575695e-06	8.573555e-09	4.525546e+01	5.634028e+02
1.490000e-06	6.616384e-06	8.603731e-09	4.553549e+01	5.653967e+02
1.500000e-06	6.654645e-06	8.630663e-09	4.579882e+01	5.672339e+02
1.510000e-06	6.690728e-06	8.654964e-09	4.604715e+01	5.689136e+02
1.520000e-06	6.724397e-06	8.677645e-09	4.627886e+01	5.704356e+02
1.530000e-06	6.755533e-06	8.696601e-09	4.649315e+01	5.718013e+02
1.540000e-06	6.784461e-06	8.713249e-09	4.669224e+01	5.730141e+02
1.550000e-06	6.811070e-06	8.729899e-09	4.687537e+01	5.740798e+02
1.560000e-06	6.835049e-06	8.745620e-09	4.704040e+01	5.750065e+02
1.570000e-06	6.856525e-06	8.758285e-09	4.718820e+01	5.758037e+02
1.580000e-06	6.875734e-06	8.769178e-09	4.732040e+01	5.764823e+02
1.590000e-06	6.892424e-06	8.779254e-09	4.743527e+01	5.770526e+02
1.600000e-06	6.906505e-06	8.786506e-09	4.753218e+01	5.775240e+02
1.610000e-06	6.917988e-06	8.790654e-09	4.761120e+01	5.779035e+02
1.620000e-06	6.926733e-06	8.793877e-09	4.767139e+01	5.781954e+02
1.630000e-06	6.932920e-06	8.798234e-09	4.771397e+01	5.784003e+02
1.640000e-06	6.936801e-06	8.802418e-09	4.774068e+01	5.785161e+02
1.650000e-06	6.938264e-06	8.805621e-09	4.775075e+01	5.785377e+02
1.660000e-06	6.937222e-06	8.806445e-09	4.774357e+01	5.784585e+02
1.670000e-06	6.933992e-06	8.798227e-09	4.772134e+01	5.782716e+02
1.680000e-06	6.928454e-06	8.793180e-09	4.768323e+01	5.779710e+02
1.690000e-06	6.920533e-06	8.786895e-09	4.762872e+01	5.775532e+02
1.700000e-06	6.910452e-06	8.776661e-09	4.755934e+01	5.770182e+02
1.710000e-06	6.898077e-06	8.768669e-09	4.747417e+01	5.763702e+02
1.720000e-06	6.883250e-06	8.766904e-09	4.737213e+01	5.756176e+02
1.730000e-06	6.866178e-06	8.770695e-09	4.725463e+01	5.747726e+02
1.740000e-06	6.846984e-06	8.689214e-09	4.712253e+01	5.738505e+02
1.750000e-06	6.824878e-06	8.659409e-09	4.697040e+01	5.728677e+02
1.760000e-06	6.799339e-06	8.695935e-09	4.679463e+01	5.718402e+02
1.770000e-06	6.771073e-06	8.663935e-09	4.660010e+01	5.707820e+02
1.780000e-06	6.740598e-06	8.664258e-09	4.639036e+01	5.697027e+02
1.790000e-06	6.708408e-06	8.742759e-09	4.616883e+01	5.686068e+02
1.800000e-06	6.674844e-06	8.599997e-09	4.593783e+01	5.674924e+02
1.810000e-06	6.639040e-06	8.588429e-09	4.569142e+01	5.663510e+02
1.820000e-06	6.600640e-06	8.679394e-09	4.542714e+01	5.651683e+02
1.830000e-06	6.560168e-06	8.554475e-09	4.514861e+01	5.639250e+02
1.840000e-06	6.517488e-06	8.643109e-09	4.485487e+01	5.625986e+02
1.850000e-06	6.472562e-06	8.537984e-09	4.454568e+01	5.611652e+02
1.860000e-06	6.425302e-06	8.437509e-09	4.422042e+01	5.596020e+02
1.870000e-06	6.375538e-06	8.521427e-09	4.387794e+01	5.578891e+02
1.880000e-06	6.323519e-06	8.415343e-09	4.351993e+01	5.560113e+02
1.890000e-06	6.268849e-06	8.514546e-09	4.314368e+01	5.539592e+02
1.900000e-06	6.211575e-06	8.479650e-09	4.274950e+01	5.517300e+02
1.910000e-06	6.152061e-06	8.361687e-09	4.233991e+01	5.493271e+02
1.920000e-06	6.090147e-06	8.356331e-09	4.191381e+01	5.467593e+02
1.930000e-06	6.025984e-06	8.244976e-09	4.147223e+01	5.440401e+02
1.940000e-06	5.959661e-06	8.302968e-09	4.101578e+01	5.411851e+02
1.950000e-06	5.891193e-06	8.227963e-09	4.054456e+01	5.382107e+02
1.960000e-06	5.820388e-06	8.184520e-09	4.005726e+01	5.351319e+02
1.970000e-06	5.747196e-06	8.136882e-09	3.955354e+01	5.319612e+02
1.980000e-06	5.671866e-06	8.018227e-09	3.903510e+01	5.287067e+02
1.990000e-06	5.594246e-06	8.051236e-09	3.850090e+01	5.253719e+02
2.000000e-06	5.514514e-06	7.970753e-09	3.795217e+01	5.219556e+02
2.010000e-06	5.432895e-06	7.929717e-09	3.739044e+01	5.184520e+02
2.020000e-06	5.349481e-06	7.850508e-09	3.681638e+01	5.148521e+02
2.030000e-06	5.264121e-06	7.779223e-09	3.622890e+01	5.111447e+02
2.040000e-06	5.176621e-06	7.741089e-09	3.562671e+01	5.073176e+02
2.050000e-06	5.087354e-06	7.671319e-09	3.501236e+01	5.033595e+02
2.060000e-06	4.996587e-06	7.637889e-09	3.438767e+01	4.992609e+02
2.070000e-06	4.904144e-06	7.544340e-09	3.375146e+01	4.950147e+02
2.080000e-06	4.809842e-06	7.480246e-09	3.310245e+01	4.906172e+02
2.090000e-06	4.713789e-06	7.409173e-09	3.244139e+01	4.860675e+02
2.100000e-06	4.616103e-06	7.369658e-09	3.176909e+01	4.813672e+02
2.110000e-06	4.516963e-06	7.305226e-09	3.108679e+01	4.765200e+02
2.120000e-06	4.416241e-06	7.202742e-09	3.039360e+01	4.715300e+02
2.130000e-06	4.313790e-06	7.111072e-09	2.968851e+01	4.664011e+02
2.140000e-06	4.209736e-06	7.025562e-09	2.897238e+01	4.611357e+02
2.150000e-06	4.104104e-06	6.962314e-09	2.824540e+01	4.557341e+02
2.160000e-06	3.997159e-06	6.886804e-09	2.750938e+01	4.501941e+02
2.170000e-06	3.888885e-06	6.811970e-09	2.676421e+01	4.445109e+02
2.180000e-06	3.779105e-06	6.706722e-09	2.600868e+01	4.386771e+02
2.190000e-06	3.667894e-06	6.605209e-09	2.524330e+01	4.326839e+02
2.200000e-06	3.555322e-06	6.515364e-09	2.446855e+01	4.265214e+02
2.210000e-06	3.441467e-06	6.438332e-09	2.368498e+01	4.201800e+02
2.220000e-06	3.326329e-06	6.339613e-09	2.289257e+01	4.136512e+02
2.230000e-06	3.209690e-06	6.220619e-09	2.208983e+01	4.069282e+02
2.240000e-06	3.091570e-06	6.103983e-09	2.127690e+01	4.000064e+02
2.250000e-06	2.972285e-06	5.994716e-09	2.045596e+01	3.928834e+02
2.260000e-06	2.851909e-06	5.893843e-09	1.962750e+01	3.855590e+02
2.270000e-06	2.730464e-06	5.785381e-09	1.879169e+01	3.780339e+02
2.280000e-06	2.608087e-06	5.672725e-09	1.794946e+01	3.703093e+02
2.290000e-06	2.484934e-06	5.547704e-09	1.710190e+01	3.623855e+02
2.300000e-06	2.360955e-06	5.425289e-09	1.624864e+01	3.542613e+02
2.310000e-06	2.236060e-06	5.307249e-09	1.538908e+01	3.459323e+02
2.320000e-06	2.110255e-06	5.183969e-09	1.452327e+01	3.373912e+02
2.330000e-06	1.983660e-06	5.040002e-09	1.365201e+01	3.286273e+02
2.340000e-06	1.856445e-06	4.888676e-09	1.277648e+01	3.196267e+02
2.350000e-06	1.728620e-06	4.743770e-09	1.189677e+01	3.103733e+02
2.360000e-06	1.600190e-06	4.605654e-09	1.101288e+01	3.008501e+02
2.370000e-06	1.471216e-06	4.465740e-09	1.012525e+01	2.910400e+02
2.380000e-06	1.341765e-06	4.312253e-09	9.234340e+00	2.809277e+02
2.390000e-06	1.211898e-06	4.147928e-09	8.340562e+00	2.705006e+02
2.400000e-06	1.081672e-06	3.978467e-09	7.444318e+00	2.597496e+02
2.410000e-06	9.511332e-07	3.814117e-09	6.545920e+00	2.486694e+02
2.420000e-06	8.203629e-07	3.650973e-09	5.645928e+00	2.372580e+02
2.430000e-06	6.893718e-07	3.475769e-09	4.744417e+00	2.255159e+02
2.440000e-06	5.581987e-07	3.285849e-09	3.841653e+00	2.134441e+02
2.450000e-06	4.268878e-07	3.088381e-09	2.937941e+00	2.010426e+02
2.460000e-06	2.954300e-07	2.892475e-09	2.033218e+00	1.883076e+02
2.470000e-06	1.638652e-07	2.697060e-09	1.127758e+00	1.752299e+02
2.480000e-06	3.223874e-08	2.495094e-09	2.218745e-01	1.617930e+02
2.490000e-06	-9.940369e-08	2.284657e-09	-6.841193e-01	1.479725e+02
2.500000e-06	-2.310215e-07	2.062384e-09	-1.589943e+00	1.337360e+02
2.510000e-06	-3.625859e-07	1.830835e-09	-2.495401e+00	1.190448e+02
2.520000e-06	-4.940930e-07	1.597150e-09	-3.400463e+00	1.038557e+02
2.530000e-06	-6.254900e-07	1.357365e-09	-4.304768e+00	8.812549e+01
2.540000e-06	-7.567199e-07	1.105367e-09	-5.207922e+00	7.181450e+01
2.550000e-06	-8.877251e-07	8.424138e-10	-6.109531e+00	5.489209e+01
2.560000e-06	-1.018460e-06	5.737058e-10	-7.009275e+00	3.734144e+01
2.570000e-06	-1.148891e-06	3.019234e-10	-7.906936e+00	1.916417e+01
2.580000e-06	-1.278978e-06	2.122480e-11	-8.802223e+00	3.839949e-01
2.590000e-06	-1.408643e-06	-2.722558e-10	-9.694607e+00	-1.895090e+01
2.600000e-06	-1.537819e-06	-5.783111e-10	-1.058363e+01	-3.876721e+01
2.610000e-06	-1.666371e-06	-8.919015e-10	-1.146835e+01	-5.896763e+01
2.620000e-06	-1.794231e-06	-1.206627e-09	-1.234832e+01	-7.943390e+01
2.630000e-06	-1.921509e-06	-1.521499e-09	-1.322427e+01	-1.000314e+02
2.640000e-06	-2.048156e-06	-1.836749e-09	-1.409588e+01	-1.206155e+02
2.650000e-06	-2.174043e-06	-2.150424e-09	-1.496227e+01	-1.410379e+02
2.660000e-06	-2.298974e-06	-2.458125e-09	-1.582207e+01	-1.611547e+02
2.670000e-06	-2.422834e-06	-2.756196e-09	-1.667451e+01	-1.808328e+02
2.680000e-06	-2.545778e-06	-3.042345e-09	-1.752063e+01	-1.999561e+02
2.690000e-06	-2.667862e-06	-3.319673e-09	-1.836085e+01	-2.184309e+02
2.700000e-06	-2.788938e-06	-3.590781e-09	-1.919412e+01	-2.361882e+02
2.710000e-06	-2.908910e-06	-3.854365e-09	-2.001980e+01	-2.531854e+02
2.720000e-06	-3.027864e-06	-4.106062e-09	-2.083846e+01	-2.694054e+02
2.730000e-06	-3.145703e-06	-4.343820e-09	-2.164946e+01	-2.848541e+02
2.740000e-06	-3.262199e-06	-4.570919e-09	-2.245121e+01	-2.995563e+02
2.750000e-06	-3.377354e-06	-4.790179e-09	-2.324374e+01	-3.135508e+02
2.760000e-06	-3.491146e-06	-4.998930e-09	-2.402688e+01	-3.268850e+02
2.770000e-06	-3.603523e-06	-5.194024e-09	-2.480028e+01	-3.396096e+02
2.780000e-06	-3.714481e-06	-5.378328e-09	-2.556392e+01	-3.517734e+02
2.790000e-06	-3.824114e-06	-5.554725e-09	-2.631844e+01	-3.634201e+02
2.800000e-06	-3.932534e-06	-5.725319e-09	-2.706462e+01	-3.745853e+02
2.810000e-06	-4.039699e-06	-5.889689e-09	-2.780215e+01	-3.852951e+02
2.820000e-06	-4.145520e-06	-6.046390e-09	-2.853043e+01	-3.955671e+02
2.830000e-06	-4.249878e-06	-6.194864e-09	-2.924865e+01	-4.054109e+02
2.840000e-06	-4.352647e-06	-6.334945e-09	-2.995593e+01	-4.148305e+02
2.850000e-06	-4.453713e-06	-6.469989e-09	-3.065149e+01	-4.238273e+02
2.860000e-06	-4.553167e-06	-6.602029e-09	-3.133596e+01	-4.324022e+02
2.870000e-06	-4.651170e-06	-6.729276e-09	-3.201043e+01	-4.405589e+02
2.880000e-06	-4.747612e-06	-6.847836e-09	-3.267417e+01	-4.483051e+02
2.890000e-06	-4.842301e-06	-6.959939e-09	-3.332584e+01	-4.556538e+02
2.900000e-06	-4.935162e-06	-7.068712e-09	-3.396493e+01	-4.626239e+02
2.910000e-06	-5.026314e-06	-7.172935e-09	-3.459227e+01	-4.692390e+02
2.920000e-06	-5.115763e-06	-7.271954e-09	-3.520787e+01	-4.755265e+02
2.930000e-06	-5.203311e-06	-7.363285e-09	-3.581039e+01	-4.815158e+02
2.940000e-06	-5.288793e-06	-7.448301e-09	-3.639870e+01	-4.872358e+02
