# Temperatura_=_54.24
# Concentracion g/m^3_=_15000.0
# C_Vs_to_Am_M_A/Vsm_=_65563218390.804596
# pendiente_HvsI_1/m_=_3716.3
# ordenada_HvsI_A/m_=_1297.0
# frecuencia_Hz_=_301895.2523852086

Tiempo_(s)	Campo_(V.s)	Magnetizacion_(V.s)	Campo_(kA/m)	Magnetizacion_(A/m)
0.000000e+00	-6.843973e-06	-8.973113e-09	-4.750336e+01	-5.869886e+02
1.000000e-08	-6.841430e-06	-8.971815e-09	-4.748571e+01	-5.867807e+02
2.000000e-08	-6.836570e-06	-8.968679e-09	-4.745198e+01	-5.864541e+02
3.000000e-08	-6.829599e-06	-8.963853e-09	-4.740360e+01	-5.860126e+02
4.000000e-08	-6.820364e-06	-8.957653e-09	-4.733950e+01	-5.854632e+02
5.000000e-08	-6.808634e-06	-8.946889e-09	-4.725808e+01	-5.848155e+02
6.000000e-08	-6.794374e-06	-8.934000e-09	-4.715910e+01	-5.840811e+02
7.000000e-08	-6.777711e-06	-8.919159e-09	-4.704344e+01	-5.832722e+02
8.000000e-08	-6.758870e-06	-8.901562e-09	-4.691267e+01	-5.824006e+02
9.000000e-08	-6.737746e-06	-8.912590e-09	-4.676605e+01	-5.814764e+02
1.000000e-07	-6.713909e-06	-8.916259e-09	-4.660060e+01	-5.805069e+02
1.100000e-07	-6.687241e-06	-8.878025e-09	-4.641550e+01	-5.794958e+02
1.200000e-07	-6.658151e-06	-8.844483e-09	-4.621359e+01	-5.784425e+02
1.300000e-07	-6.627046e-06	-8.822815e-09	-4.599770e+01	-5.773426e+02
1.400000e-07	-6.594030e-06	-8.769935e-09	-4.576853e+01	-5.761874e+02
1.500000e-07	-6.559128e-06	-8.748264e-09	-4.552628e+01	-5.749654e+02
1.600000e-07	-6.522171e-06	-8.799345e-09	-4.526976e+01	-5.736626e+02
1.700000e-07	-6.483151e-06	-8.717500e-09	-4.499893e+01	-5.722641e+02
1.800000e-07	-6.441884e-06	-8.685769e-09	-4.471250e+01	-5.707549e+02
1.900000e-07	-6.398039e-06	-8.694112e-09	-4.440818e+01	-5.691214e+02
2.000000e-07	-6.351891e-06	-8.631808e-09	-4.408787e+01	-5.673517e+02
2.100000e-07	-6.303315e-06	-8.669264e-09	-4.375071e+01	-5.654369e+02
2.200000e-07	-6.252045e-06	-8.643514e-09	-4.339485e+01	-5.633714e+02
2.300000e-07	-6.198217e-06	-8.568623e-09	-4.302123e+01	-5.611526e+02
2.400000e-07	-6.141941e-06	-8.506863e-09	-4.263063e+01	-5.587811e+02
2.500000e-07	-6.083355e-06	-8.451518e-09	-4.222398e+01	-5.562602e+02
2.600000e-07	-6.022580e-06	-8.437140e-09	-4.180215e+01	-5.535955e+02
2.700000e-07	-5.959675e-06	-8.396951e-09	-4.136553e+01	-5.507938e+02
2.800000e-07	-5.894577e-06	-8.349195e-09	-4.091370e+01	-5.478629e+02
2.900000e-07	-5.827194e-06	-8.285164e-09	-4.044600e+01	-5.448104e+02
3.000000e-07	-5.757648e-06	-8.221741e-09	-3.996328e+01	-5.416434e+02
3.100000e-07	-5.685995e-06	-8.203219e-09	-3.946595e+01	-5.383678e+02
3.200000e-07	-5.612123e-06	-8.166165e-09	-3.895321e+01	-5.349878e+02
3.300000e-07	-5.535963e-06	-8.119077e-09	-3.842459e+01	-5.315057e+02
3.400000e-07	-5.457507e-06	-8.045487e-09	-3.788004e+01	-5.279219e+02
3.500000e-07	-5.376944e-06	-7.981440e-09	-3.732086e+01	-5.242348e+02
3.600000e-07	-5.294484e-06	-7.938770e-09	-3.674851e+01	-5.204409e+02
3.700000e-07	-5.210285e-06	-7.885933e-09	-3.616409e+01	-5.165355e+02
3.800000e-07	-5.124422e-06	-7.827203e-09	-3.556812e+01	-5.125126e+02
3.900000e-07	-5.036800e-06	-7.742177e-09	-3.495994e+01	-5.083659e+02
4.000000e-07	-4.947373e-06	-7.664582e-09	-3.433924e+01	-5.040893e+02
4.100000e-07	-4.856141e-06	-7.602949e-09	-3.370601e+01	-4.996769e+02
4.200000e-07	-4.763201e-06	-7.553538e-09	-3.306092e+01	-4.951241e+02
4.300000e-07	-4.668648e-06	-7.486574e-09	-3.240464e+01	-4.904272e+02
4.400000e-07	-4.572426e-06	-7.395257e-09	-3.173677e+01	-4.855842e+02
4.500000e-07	-4.474514e-06	-7.306772e-09	-3.105717e+01	-4.805941e+02
4.600000e-07	-4.374976e-06	-7.225557e-09	-3.036629e+01	-4.754571e+02
4.700000e-07	-4.273903e-06	-7.157883e-09	-2.966475e+01	-4.701740e+02
4.800000e-07	-4.171414e-06	-7.088795e-09	-2.895339e+01	-4.647455e+02
4.900000e-07	-4.067405e-06	-7.007099e-09	-2.823147e+01	-4.591718e+02
5.000000e-07	-3.961820e-06	-6.905167e-09	-2.749862e+01	-4.534523e+02
5.100000e-07	-3.854701e-06	-6.807998e-09	-2.675511e+01	-4.475847e+02
5.200000e-07	-3.746176e-06	-6.722639e-09	-2.600185e+01	-4.415650e+02
5.300000e-07	-3.636504e-06	-6.631885e-09	-2.524063e+01	-4.353877e+02
5.400000e-07	-3.525582e-06	-6.528581e-09	-2.447073e+01	-4.290459e+02
5.500000e-07	-3.413184e-06	-6.418049e-09	-2.369058e+01	-4.225316e+02
5.600000e-07	-3.299340e-06	-6.313155e-09	-2.290040e+01	-4.158367e+02
5.700000e-07	-3.184142e-06	-6.213211e-09	-2.210082e+01	-4.089536e+02
5.800000e-07	-3.067552e-06	-6.115886e-09	-2.129159e+01	-4.018756e+02
5.900000e-07	-2.949749e-06	-6.007592e-09	-2.047393e+01	-3.945979e+02
6.000000e-07	-2.830985e-06	-5.886622e-09	-1.964959e+01	-3.871172e+02
6.100000e-07	-2.711231e-06	-5.760921e-09	-1.881840e+01	-3.794323e+02
6.200000e-07	-2.590385e-06	-5.642906e-09	-1.797962e+01	-3.715433e+02
6.300000e-07	-2.468532e-06	-5.526541e-09	-1.713384e+01	-3.634508e+02
6.400000e-07	-2.345788e-06	-5.398622e-09	-1.628189e+01	-3.551552e+02
6.500000e-07	-2.222131e-06	-5.262135e-09	-1.542360e+01	-3.466558e+02
6.600000e-07	-2.097642e-06	-5.122524e-09	-1.455953e+01	-3.379494e+02
6.700000e-07	-1.972496e-06	-4.986263e-09	-1.369091e+01	-3.290298e+02
6.800000e-07	-1.846777e-06	-4.851931e-09	-1.281830e+01	-3.198877e+02
6.900000e-07	-1.720471e-06	-4.716382e-09	-1.194163e+01	-3.105102e+02
7.000000e-07	-1.593584e-06	-4.570295e-09	-1.106091e+01	-3.008821e+02
7.100000e-07	-1.466151e-06	-4.413743e-09	-1.017641e+01	-2.909861e+02
7.200000e-07	-1.338209e-06	-4.254455e-09	-9.288380e+00	-2.808047e+02
7.300000e-07	-1.209749e-06	-4.093125e-09	-8.396750e+00	-2.703215e+02
7.400000e-07	-1.080796e-06	-3.928052e-09	-7.501704e+00	-2.595223e+02
7.500000e-07	-9.514474e-07	-3.757189e-09	-6.603905e+00	-2.483962e+02
7.600000e-07	-8.218037e-07	-3.581026e-09	-5.704061e+00	-2.369361e+02
7.700000e-07	-6.919506e-07	-3.400161e-09	-4.802763e+00	-2.251383e+02
7.800000e-07	-5.619440e-07	-3.215943e-09	-3.900400e+00	-2.130017e+02
7.900000e-07	-4.317539e-07	-3.029882e-09	-2.996762e+00	-2.005259e+02
8.000000e-07	-3.014113e-07	-2.838718e-09	-2.092067e+00	-1.877095e+02
8.100000e-07	-1.709549e-07	-2.638002e-09	-1.186582e+00	-1.745472e+02
8.200000e-07	-4.040621e-08	-2.429543e-09	-2.804556e-01	-1.610282e+02
8.300000e-07	9.014248e-08	-2.217953e-09	6.256703e-01	-1.471339e+02
8.400000e-07	2.206658e-07	-2.002520e-09	1.531620e+00	-1.328378e+02
8.500000e-07	3.511947e-07	-1.777488e-09	2.437609e+00	-1.181053e+02
8.600000e-07	4.816994e-07	-1.543493e-09	3.343429e+00	-1.028956e+02
8.700000e-07	6.120602e-07	-1.301353e-09	4.248251e+00	-8.716468e+01
8.800000e-07	7.422301e-07	-1.051960e-09	5.151748e+00	-7.086978e+01
8.900000e-07	8.722452e-07	-7.973556e-10	6.054171e+00	-5.397426e+01
9.000000e-07	1.002071e-06	-5.364492e-10	6.955276e+00	-3.645320e+01
9.100000e-07	1.131538e-06	-2.671009e-10	7.853900e+00	-1.829883e+01
9.200000e-07	1.260537e-06	1.597172e-11	8.749268e+00	4.748550e-01
9.300000e-07	1.388957e-06	3.105911e-10	9.640616e+00	1.982873e+01
9.400000e-07	1.516760e-06	6.133528e-10	1.052768e+01	3.969692e+01
9.500000e-07	1.644039e-06	9.238632e-10	1.141112e+01	5.998725e+01
9.600000e-07	1.770780e-06	1.239602e-09	1.229082e+01	8.058384e+01
9.700000e-07	1.896936e-06	1.561379e-09	1.316645e+01	1.013517e+02
9.800000e-07	2.022445e-06	1.883443e-09	1.403760e+01	1.221431e+02
9.900000e-07	2.147287e-06	2.202337e-09	1.490411e+01	1.428049e+02
1.000000e-06	2.271385e-06	2.514895e-09	1.576546e+01	1.631868e+02
1.010000e-06	2.394588e-06	2.818505e-09	1.662061e+01	1.831489e+02
1.020000e-06	2.516928e-06	3.112695e-09	1.746976e+01	2.025687e+02
1.030000e-06	2.638349e-06	3.393708e-09	1.831253e+01	2.213467e+02
1.040000e-06	2.758653e-06	3.663419e-09	1.914755e+01	2.394097e+02
1.050000e-06	2.877884e-06	3.923595e-09	1.997511e+01	2.567123e+02
1.060000e-06	2.996120e-06	4.173055e-09	2.079578e+01	2.732358e+02
1.070000e-06	3.113295e-06	4.410709e-09	2.160908e+01	2.889859e+02
1.080000e-06	3.229293e-06	4.637912e-09	2.241422e+01	3.039878e+02
1.090000e-06	3.344005e-06	4.855560e-09	2.321042e+01	3.182809e+02
1.100000e-06	3.457360e-06	5.062791e-09	2.399720e+01	3.319131e+02
1.110000e-06	3.569337e-06	5.260903e-09	2.477443e+01	3.449349e+02
1.120000e-06	3.680021e-06	5.450698e-09	2.554268e+01	3.573945e+02
1.130000e-06	3.789548e-06	5.632428e-09	2.630289e+01	3.693342e+02
1.140000e-06	3.897854e-06	5.807679e-09	2.705463e+01	3.807877e+02
1.150000e-06	4.004834e-06	5.975800e-09	2.779717e+01	3.917795e+02
1.160000e-06	4.110382e-06	6.136519e-09	2.852977e+01	4.023253e+02
1.170000e-06	4.214306e-06	6.291065e-09	2.925110e+01	4.124336e+02
1.180000e-06	4.316729e-06	6.438224e-09	2.996200e+01	4.221084e+02
1.190000e-06	4.417741e-06	6.577811e-09	3.066312e+01	4.313514e+02
1.200000e-06	4.517245e-06	6.710895e-09	3.135377e+01	4.401652e+02
1.210000e-06	4.615018e-06	6.838197e-09	3.203240e+01	4.485552e+02
1.220000e-06	4.710943e-06	6.958895e-09	3.269820e+01	4.565313e+02
1.230000e-06	4.805190e-06	7.073470e-09	3.335237e+01	4.641086e+02
1.240000e-06	4.897841e-06	7.183329e-09	3.399545e+01	4.713070e+02
1.250000e-06	4.988898e-06	7.288793e-09	3.462746e+01	4.781507e+02
1.260000e-06	5.078122e-06	7.390065e-09	3.524676e+01	4.846662e+02
1.270000e-06	5.165381e-06	7.485460e-09	3.585241e+01	4.908809e+02
1.280000e-06	5.250798e-06	7.576157e-09	3.644529e+01	4.968213e+02
1.290000e-06	5.334438e-06	7.662501e-09	3.702583e+01	5.025113e+02
1.300000e-06	5.416158e-06	7.744060e-09	3.759303e+01	5.079710e+02
1.310000e-06	5.495805e-06	7.821103e-09	3.814586e+01	5.132166e+02
1.320000e-06	5.573466e-06	7.893638e-09	3.868489e+01	5.182596e+02
1.330000e-06	5.649100e-06	7.963942e-09	3.920986e+01	5.231078e+02
1.340000e-06	5.722494e-06	8.034509e-09	3.971928e+01	5.277658e+02
1.350000e-06	5.793749e-06	8.104917e-09	4.021386e+01	5.322364e+02
1.360000e-06	5.862996e-06	8.172768e-09	4.069449e+01	5.365209e+02
1.370000e-06	5.930166e-06	8.236809e-09	4.116072e+01	5.406206e+02
1.380000e-06	5.995148e-06	8.296646e-09	4.161175e+01	5.445371e+02
1.390000e-06	6.057969e-06	8.354327e-09	4.204778e+01	5.482726e+02
1.400000e-06	6.118849e-06	8.409398e-09	4.247035e+01	5.518299e+02
1.410000e-06	6.177730e-06	8.460579e-09	4.287904e+01	5.552121e+02
1.420000e-06	6.234368e-06	8.507290e-09	4.327215e+01	5.584223e+02
1.430000e-06	6.288734e-06	8.550086e-09	4.364950e+01	5.614629e+02
1.440000e-06	6.340682e-06	8.591865e-09	4.401007e+01	5.643355e+02
1.450000e-06	6.389958e-06	8.632633e-09	4.435209e+01	5.670405e+02
1.460000e-06	6.436816e-06	8.671843e-09	4.467732e+01	5.695775e+02
1.470000e-06	6.481581e-06	8.708282e-09	4.498803e+01	5.719453e+02
1.480000e-06	6.524078e-06	8.742140e-09	4.528300e+01	5.741429e+02
1.490000e-06	6.564094e-06	8.773986e-09	4.556075e+01	5.761696e+02
1.500000e-06	6.601794e-06	8.802853e-09	4.582242e+01	5.780262e+02
1.510000e-06	6.637385e-06	8.827229e-09	4.606945e+01	5.797153e+02
1.520000e-06	6.670609e-06	8.847566e-09	4.630006e+01	5.812414e+02
1.530000e-06	6.701302e-06	8.865939e-09	4.651310e+01	5.826113e+02
1.540000e-06	6.729781e-06	8.883367e-09	4.671077e+01	5.838337e+02
1.550000e-06	6.755882e-06	8.899468e-09	4.689193e+01	5.849183e+02
1.560000e-06	6.779369e-06	8.914946e-09	4.705495e+01	5.858751e+02
1.570000e-06	6.800465e-06	8.930108e-09	4.720138e+01	5.867139e+02
1.580000e-06	6.819291e-06	8.944190e-09	4.733205e+01	5.874426e+02
1.590000e-06	6.835618e-06	8.955263e-09	4.744537e+01	5.880670e+02
1.600000e-06	6.849350e-06	8.963039e-09	4.754068e+01	5.885905e+02
1.610000e-06	6.860399e-06	8.968744e-09	4.761737e+01	5.890133e+02
1.620000e-06	6.868767e-06	8.971539e-09	4.767545e+01	5.893336e+02
1.630000e-06	6.874720e-06	8.973427e-09	4.771677e+01	5.895474e+02
1.640000e-06	6.878378e-06	8.975882e-09	4.774216e+01	5.896502e+02
1.650000e-06	6.879615e-06	8.978026e-09	4.775075e+01	5.896374e+02
1.660000e-06	6.878416e-06	8.978927e-09	4.774243e+01	5.895060e+02
1.670000e-06	6.875043e-06	8.973638e-09	4.771901e+01	5.892549e+02
1.680000e-06	6.869362e-06	8.967517e-09	4.767958e+01	5.888861e+02
1.690000e-06	6.861314e-06	8.960607e-09	4.762372e+01	5.884045e+02
1.700000e-06	6.851079e-06	8.954187e-09	4.755268e+01	5.878183e+02
1.710000e-06	6.838569e-06	8.947854e-09	4.746586e+01	5.871377e+02
1.720000e-06	6.823633e-06	8.940367e-09	4.736219e+01	5.863747e+02
1.730000e-06	6.806489e-06	8.934688e-09	4.724319e+01	5.855415e+02
1.740000e-06	6.787178e-06	8.888678e-09	4.710915e+01	5.846495e+02
1.750000e-06	6.764877e-06	8.851803e-09	4.695436e+01	5.837079e+02
1.760000e-06	6.739252e-06	8.858188e-09	4.677650e+01	5.827228e+02
1.770000e-06	6.711033e-06	8.847096e-09	4.658064e+01	5.816963e+02
1.780000e-06	6.680692e-06	8.834848e-09	4.637004e+01	5.806266e+02
1.790000e-06	6.648709e-06	8.879144e-09	4.614806e+01	5.795075e+02
1.800000e-06	6.615320e-06	8.816715e-09	4.591631e+01	5.783294e+02
1.810000e-06	6.579643e-06	8.763661e-09	4.566867e+01	5.770796e+02
1.820000e-06	6.541363e-06	8.811726e-09	4.540298e+01	5.757438e+02
1.830000e-06	6.500968e-06	8.743789e-09	4.512260e+01	5.743069e+02
1.840000e-06	6.458387e-06	8.758246e-09	4.482705e+01	5.727542e+02
1.850000e-06	6.413618e-06	8.717025e-09	4.451631e+01	5.710727e+02
1.860000e-06	6.366560e-06	8.615448e-09	4.418968e+01	5.692515e+02
1.870000e-06	6.317055e-06	8.631569e-09	4.384608e+01	5.672828e+02
1.880000e-06	6.265239e-06	8.566780e-09	4.348642e+01	5.651621e+02
1.890000e-06	6.210736e-06	8.600527e-09	4.310813e+01	5.628880e+02
1.900000e-06	6.153732e-06	8.589791e-09	4.271247e+01	5.604621e+02
1.910000e-06	6.094529e-06	8.497918e-09	4.230155e+01	5.578885e+02
1.920000e-06	6.032934e-06	8.479558e-09	4.187402e+01	5.551735e+02
1.930000e-06	5.969125e-06	8.385230e-09	4.143113e+01	5.523242e+02
1.940000e-06	5.903194e-06	8.392876e-09	4.097351e+01	5.493484e+02
1.950000e-06	5.835191e-06	8.356948e-09	4.050150e+01	5.462537e+02
1.960000e-06	5.764842e-06	8.281222e-09	4.001322e+01	5.430467e+02
1.970000e-06	5.692071e-06	8.237777e-09	3.950812e+01	5.397329e+02
1.980000e-06	5.617264e-06	8.141123e-09	3.898890e+01	5.363157e+02
1.990000e-06	5.540257e-06	8.132829e-09	3.845440e+01	5.327968e+02
2.000000e-06	5.461047e-06	8.074775e-09	3.790460e+01	5.291759e+02
2.010000e-06	5.379846e-06	8.017449e-09	3.734099e+01	5.254505e+02
2.020000e-06	5.296886e-06	7.953368e-09	3.676518e+01	5.216168e+02
2.030000e-06	5.212140e-06	7.875296e-09	3.617697e+01	5.176696e+02
2.040000e-06	5.125309e-06	7.836812e-09	3.557428e+01	5.136027e+02
2.050000e-06	5.036581e-06	7.766085e-09	3.495843e+01	5.094097e+02
2.060000e-06	4.946284e-06	7.715566e-09	3.433169e+01	5.050847e+02
2.070000e-06	4.854480e-06	7.628609e-09	3.369448e+01	5.006220e+02
2.080000e-06	4.760906e-06	7.550542e-09	3.304499e+01	4.960175e+02
2.090000e-06	4.665503e-06	7.483046e-09	3.238281e+01	4.912681e+02
2.100000e-06	4.568460e-06	7.426501e-09	3.170924e+01	4.863720e+02
2.110000e-06	4.469981e-06	7.369957e-09	3.102571e+01	4.813288e+02
2.120000e-06	4.370001e-06	7.276280e-09	3.033176e+01	4.761390e+02
2.130000e-06	4.268377e-06	7.177068e-09	2.962640e+01	4.708033e+02
2.140000e-06	4.165142e-06	7.079517e-09	2.890985e+01	4.653224e+02
2.150000e-06	4.060329e-06	7.005899e-09	2.818236e+01	4.596963e+02
2.160000e-06	3.954134e-06	6.930392e-09	2.744526e+01	4.539236e+02
2.170000e-06	3.846637e-06	6.852927e-09	2.669914e+01	4.480017e+02
2.180000e-06	3.737831e-06	6.755460e-09	2.594393e+01	4.419259e+02
2.190000e-06	3.627595e-06	6.649778e-09	2.517879e+01	4.356901e+02
2.200000e-06	3.515888e-06	6.550729e-09	2.440344e+01	4.292871e+02
2.210000e-06	3.402799e-06	6.461465e-09	2.361850e+01	4.227086e+02
2.220000e-06	3.288457e-06	6.364542e-09	2.282487e+01	4.159468e+02
2.230000e-06	3.172766e-06	6.248110e-09	2.202186e+01	4.089942e+02
2.240000e-06	3.055625e-06	6.130884e-09	2.120880e+01	4.018448e+02
2.250000e-06	2.937306e-06	6.017964e-09	2.038756e+01	3.944943e+02
2.260000e-06	2.817836e-06	5.911759e-09	1.955833e+01	3.869402e+02
2.270000e-06	2.697260e-06	5.799861e-09	1.872142e+01	3.791817e+02
2.280000e-06	2.575749e-06	5.684020e-09	1.787803e+01	3.712194e+02
2.290000e-06	2.453407e-06	5.555335e-09	1.702887e+01	3.630538e+02
2.300000e-06	2.330293e-06	5.424118e-09	1.617434e+01	3.546851e+02
2.310000e-06	2.206487e-06	5.299912e-09	1.531501e+01	3.461117e+02
2.320000e-06	2.081877e-06	5.176616e-09	1.445011e+01	3.373294e+02
2.330000e-06	1.956421e-06	5.037829e-09	1.357933e+01	3.283311e+02
2.340000e-06	1.830314e-06	4.882669e-09	1.270403e+01	3.191060e+02
2.350000e-06	1.703578e-06	4.727638e-09	1.182437e+01	3.096403e+02
2.360000e-06	1.576207e-06	4.579545e-09	1.094030e+01	2.999179e+02
2.370000e-06	1.448256e-06	4.438340e-09	1.005221e+01	2.899214e+02
2.380000e-06	1.319799e-06	4.290425e-09	9.160601e+00	2.796335e+02
2.390000e-06	1.190900e-06	4.128470e-09	8.265920e+00	2.690384e+02
2.400000e-06	1.061611e-06	3.956180e-09	7.368539e+00	2.581229e+02
2.410000e-06	9.320131e-07	3.784376e-09	6.469014e+00	2.468776e+02
2.420000e-06	8.021670e-07	3.614886e-09	5.567764e+00	2.352966e+02
2.430000e-06	6.721196e-07	3.438190e-09	4.665118e+00	2.233772e+02
2.440000e-06	5.419327e-07	3.249070e-09	3.761503e+00	2.111190e+02
2.450000e-06	4.115851e-07	3.049740e-09	2.856773e+00	1.985213e+02
2.460000e-06	2.810178e-07	2.847239e-09	1.950518e+00	1.855816e+02
2.470000e-06	1.502732e-07	2.646580e-09	1.043032e+00	1.722930e+02
2.480000e-06	1.947102e-08	2.443635e-09	1.351465e-01	1.586419e+02
2.490000e-06	-1.113046e-07	2.232999e-09	-7.725544e-01	1.446071e+02
2.500000e-06	-2.420487e-07	2.008601e-09	-1.680037e+00	1.301589e+02
2.510000e-06	-3.727265e-07	1.773006e-09	-2.587059e+00	1.152603e+02
2.520000e-06	-5.032564e-07	1.534141e-09	-3.493055e+00	9.986896e+01
2.530000e-06	-6.336784e-07	1.291213e-09	-4.398301e+00	8.394078e+01
2.540000e-06	-7.639962e-07	1.041254e-09	-5.302824e+00	6.743453e+01
2.550000e-06	-8.940771e-07	7.783788e-10	-6.205703e+00	5.031712e+01
2.560000e-06	-1.023818e-06	5.038865e-10	-7.106224e+00	3.256916e+01
2.570000e-06	-1.153221e-06	2.244715e-10	-8.004394e+00	1.419019e+01
2.580000e-06	-1.282279e-06	-5.902165e-11	-8.900174e+00	-4.797139e+00
2.590000e-06	-1.410915e-06	-3.507888e-10	-9.793027e+00	-2.434422e+01
2.600000e-06	-1.538971e-06	-6.549898e-10	-1.068185e+01	-4.437563e+01
2.610000e-06	-1.666355e-06	-9.712932e-10	-1.156601e+01	-6.479031e+01
2.620000e-06	-1.793133e-06	-1.292709e-09	-1.244596e+01	-8.546495e+01
2.630000e-06	-1.919332e-06	-1.612218e-09	-1.332190e+01	-1.062592e+02
2.640000e-06	-2.044776e-06	-1.929080e-09	-1.419259e+01	-1.270225e+02
2.650000e-06	-2.169303e-06	-2.242657e-09	-1.505693e+01	-1.476018e+02
2.660000e-06	-2.292892e-06	-2.551730e-09	-1.591474e+01	-1.678496e+02
2.670000e-06	-2.415612e-06	-2.853488e-09	-1.676653e+01	-1.876315e+02
2.680000e-06	-2.537470e-06	-3.143279e-09	-1.761234e+01	-2.068328e+02
2.690000e-06	-2.658452e-06	-3.422129e-09	-1.845206e+01	-2.253630e+02
2.700000e-06	-2.778481e-06	-3.691385e-09	-1.928517e+01	-2.431587e+02
2.710000e-06	-2.897410e-06	-3.954598e-09	-2.011065e+01	-2.601844e+02
2.720000e-06	-3.015213e-06	-4.209673e-09	-2.092831e+01	-2.764305e+02
2.730000e-06	-3.131783e-06	-4.450104e-09	-2.173741e+01	-2.919102e+02
2.740000e-06	-3.247039e-06	-4.676595e-09	-2.253739e+01	-3.066545e+02
2.750000e-06	-3.360953e-06	-4.892098e-09	-2.332805e+01	-3.207064e+02
2.760000e-06	-3.473513e-06	-5.100658e-09	-2.410932e+01	-3.341153e+02
2.770000e-06	-3.584733e-06	-5.299848e-09	-2.488129e+01	-3.469316e+02
2.780000e-06	-3.694629e-06	-5.489300e-09	-2.564407e+01	-3.592017e+02
2.790000e-06	-3.803264e-06	-5.668611e-09	-2.639809e+01	-3.709648e+02
2.800000e-06	-3.910651e-06	-5.839753e-09	-2.714346e+01	-3.822517e+02
2.810000e-06	-4.016801e-06	-6.005009e-09	-2.788023e+01	-3.930834e+02
2.820000e-06	-4.121591e-06	-6.163550e-09	-2.860757e+01	-4.034728e+02
2.830000e-06	-4.224829e-06	-6.314548e-09	-2.932413e+01	-4.134266e+02
2.840000e-06	-4.326406e-06	-6.456419e-09	-3.002917e+01	-4.229475e+02
2.850000e-06	-4.426394e-06	-6.591845e-09	-3.072318e+01	-4.320374e+02
2.860000e-06	-4.524961e-06	-6.723471e-09	-3.140732e+01	-4.406996e+02
2.870000e-06	-4.622040e-06	-6.851210e-09	-3.208114e+01	-4.489409e+02
2.880000e-06	-4.717505e-06	-6.972855e-09	-3.274375e+01	-4.567731e+02
2.890000e-06	-4.811182e-06	-7.087671e-09	-3.339395e+01	-4.642132e+02
2.900000e-06	-4.903083e-06	-7.197398e-09	-3.403183e+01	-4.712825e+02
2.910000e-06	-4.993258e-06	-7.302466e-09	-3.465773e+01	-4.780064e+02
2.920000e-06	-5.081660e-06	-7.403855e-09	-3.527131e+01	-4.844119e+02
2.930000e-06	-5.168131e-06	-7.500453e-09	-3.587150e+01	-4.905263e+02
2.940000e-06	-5.252609e-06	-7.589710e-09	-3.645785e+01	-4.963753e+02
