# Temperatura_=_55.88
# Concentracion g/m^3_=_15000.0
# C_Vs_to_Am_M_A/Vsm_=_65563218390.804596
# pendiente_HvsI_1/m_=_3716.3
# ordenada_HvsI_A/m_=_1297.0
# frecuencia_Hz_=_301897.03818325786

Tiempo_(s)	Campo_(V.s)	Magnetizacion_(V.s)	Campo_(kA/m)	Magnetizacion_(A/m)
0.000000e+00	-6.871290e-06	-9.033867e-09	-4.749842e+01	-5.913548e+02
1.000000e-08	-6.868744e-06	-9.032982e-09	-4.748082e+01	-5.911447e+02
2.000000e-08	-6.863904e-06	-9.030886e-09	-4.744736e+01	-5.908161e+02
3.000000e-08	-6.856934e-06	-9.026002e-09	-4.739918e+01	-5.903704e+02
4.000000e-08	-6.847622e-06	-9.020161e-09	-4.733481e+01	-5.898125e+02
5.000000e-08	-6.835864e-06	-9.011329e-09	-4.725354e+01	-5.891505e+02
6.000000e-08	-6.821627e-06	-8.998224e-09	-4.715512e+01	-5.883952e+02
7.000000e-08	-6.805002e-06	-8.983045e-09	-4.704019e+01	-5.875593e+02
8.000000e-08	-6.786218e-06	-8.964839e-09	-4.691035e+01	-5.866562e+02
9.000000e-08	-6.765109e-06	-8.961255e-09	-4.676444e+01	-5.856985e+02
1.000000e-07	-6.741270e-06	-8.966333e-09	-4.659965e+01	-5.846969e+02
1.100000e-07	-6.714618e-06	-8.936464e-09	-4.641541e+01	-5.836588e+02
1.200000e-07	-6.685520e-06	-8.902449e-09	-4.621426e+01	-5.825873e+02
1.300000e-07	-6.654374e-06	-8.893046e-09	-4.599897e+01	-5.814809e+02
1.400000e-07	-6.621225e-06	-8.856959e-09	-4.576982e+01	-5.803333e+02
1.500000e-07	-6.586133e-06	-8.793905e-09	-4.552725e+01	-5.791335e+02
1.600000e-07	-6.549062e-06	-8.837278e-09	-4.527099e+01	-5.778669e+02
1.700000e-07	-6.509950e-06	-8.774454e-09	-4.500062e+01	-5.765167e+02
1.800000e-07	-6.468560e-06	-8.714040e-09	-4.471451e+01	-5.750644e+02
1.900000e-07	-6.424628e-06	-8.769119e-09	-4.441083e+01	-5.734922e+02
2.000000e-07	-6.378386e-06	-8.720236e-09	-4.409117e+01	-5.717838e+02
2.100000e-07	-6.329671e-06	-8.730788e-09	-4.375443e+01	-5.699258e+02
2.200000e-07	-6.278221e-06	-8.709018e-09	-4.339878e+01	-5.679084e+02
2.300000e-07	-6.224236e-06	-8.622762e-09	-4.302560e+01	-5.657264e+02
2.400000e-07	-6.167837e-06	-8.569869e-09	-4.263574e+01	-5.633786e+02
2.500000e-07	-6.109129e-06	-8.522984e-09	-4.222991e+01	-5.608679e+02
2.600000e-07	-6.048224e-06	-8.497823e-09	-4.180890e+01	-5.582007e+02
2.700000e-07	-5.985104e-06	-8.452599e-09	-4.137258e+01	-5.553858e+02
2.800000e-07	-5.919721e-06	-8.398472e-09	-4.092061e+01	-5.524334e+02
2.900000e-07	-5.852121e-06	-8.339997e-09	-4.045332e+01	-5.493540e+02
3.000000e-07	-5.782389e-06	-8.286629e-09	-3.997129e+01	-5.461570e+02
3.100000e-07	-5.710550e-06	-8.280044e-09	-3.947470e+01	-5.428504e+02
3.200000e-07	-5.636453e-06	-8.230824e-09	-3.896250e+01	-5.394395e+02
3.300000e-07	-5.559989e-06	-8.171172e-09	-3.843393e+01	-5.359269e+02
3.400000e-07	-5.481274e-06	-8.112135e-09	-3.788981e+01	-5.323122e+02
3.500000e-07	-5.400477e-06	-8.046405e-09	-3.733129e+01	-5.285926e+02
3.600000e-07	-5.317833e-06	-8.000570e-09	-3.676001e+01	-5.247628e+02
3.700000e-07	-5.233438e-06	-7.942925e-09	-3.617662e+01	-5.208164e+02
3.800000e-07	-5.147307e-06	-7.879716e-09	-3.558123e+01	-5.167459e+02
3.900000e-07	-5.059389e-06	-7.798008e-09	-3.497349e+01	-5.125441e+02
4.000000e-07	-4.969605e-06	-7.730619e-09	-3.435285e+01	-5.082048e+02
4.100000e-07	-4.878091e-06	-7.671674e-09	-3.372025e+01	-5.037227e+02
4.200000e-07	-4.784992e-06	-7.607052e-09	-3.307669e+01	-4.990944e+02
4.300000e-07	-4.690246e-06	-7.529324e-09	-3.242176e+01	-4.943185e+02
4.400000e-07	-4.593719e-06	-7.438161e-09	-3.175450e+01	-4.893947e+02
4.500000e-07	-4.495394e-06	-7.355573e-09	-3.107482e+01	-4.843242e+02
4.600000e-07	-4.395458e-06	-7.281762e-09	-3.038401e+01	-4.791085e+02
4.700000e-07	-4.294068e-06	-7.215449e-09	-2.968314e+01	-4.737494e+02
4.800000e-07	-4.191265e-06	-7.138079e-09	-2.897250e+01	-4.682475e+02
4.900000e-07	-4.086940e-06	-7.048597e-09	-2.825135e+01	-4.626022e+02
5.000000e-07	-3.980951e-06	-6.951925e-09	-2.751869e+01	-4.568113e+02
5.100000e-07	-3.873420e-06	-6.862717e-09	-2.677537e+01	-4.508705e+02
5.200000e-07	-3.764584e-06	-6.775537e-09	-2.602303e+01	-4.447737e+02
5.300000e-07	-3.654561e-06	-6.676458e-09	-2.526248e+01	-4.385134e+02
5.400000e-07	-3.543268e-06	-6.566192e-09	-2.449316e+01	-4.320813e+02
5.500000e-07	-3.430404e-06	-6.453443e-09	-2.371298e+01	-4.254689e+02
5.600000e-07	-3.315898e-06	-6.348240e-09	-2.292145e+01	-4.186684e+02
5.700000e-07	-3.200066e-06	-6.250191e-09	-2.212075e+01	-4.116733e+02
5.800000e-07	-3.083061e-06	-6.153217e-09	-2.131194e+01	-4.044792e+02
5.900000e-07	-2.964918e-06	-6.043365e-09	-2.049527e+01	-3.970836e+02
6.000000e-07	-2.845754e-06	-5.925298e-09	-1.967153e+01	-3.894860e+02
6.100000e-07	-2.725611e-06	-5.804134e-09	-1.884104e+01	-3.816878e+02
6.200000e-07	-2.604420e-06	-5.683393e-09	-1.800329e+01	-3.736909e+02
6.300000e-07	-2.482121e-06	-5.557210e-09	-1.715789e+01	-3.654973e+02
6.400000e-07	-2.358851e-06	-5.421642e-09	-1.630577e+01	-3.571074e+02
6.500000e-07	-2.234744e-06	-5.283836e-09	-1.544787e+01	-3.485198e+02
6.600000e-07	-2.109912e-06	-5.145782e-09	-1.458496e+01	-3.397296e+02
6.700000e-07	-1.984424e-06	-5.010282e-09	-1.371751e+01	-3.307289e+02
6.800000e-07	-1.858293e-06	-4.874243e-09	-1.284562e+01	-3.215056e+02
6.900000e-07	-1.731555e-06	-4.733672e-09	-1.196953e+01	-3.120451e+02
7.000000e-07	-1.604182e-06	-4.584987e-09	-1.108905e+01	-3.023301e+02
7.100000e-07	-1.476214e-06	-4.431518e-09	-1.020446e+01	-2.923428e+02
7.200000e-07	-1.347734e-06	-4.274711e-09	-9.316333e+00	-2.820655e+02
7.300000e-07	-1.218795e-06	-4.112919e-09	-8.425033e+00	-2.714826e+02
7.400000e-07	-1.089416e-06	-3.944969e-09	-7.530688e+00	-2.605817e+02
7.500000e-07	-9.596822e-07	-3.768783e-09	-6.633890e+00	-2.493540e+02
7.600000e-07	-8.296466e-07	-3.588723e-09	-5.735007e+00	-2.377945e+02
7.700000e-07	-6.992589e-07	-3.406944e-09	-4.833691e+00	-2.259016e+02
7.800000e-07	-5.686314e-07	-3.223147e-09	-3.930717e+00	-2.136756e+02
7.900000e-07	-4.378546e-07	-3.036850e-09	-3.026710e+00	-2.011164e+02
8.000000e-07	-3.068846e-07	-2.846030e-09	-2.121368e+00	-1.882221e+02
8.100000e-07	-1.757594e-07	-2.646346e-09	-1.214953e+00	-1.749857e+02
8.200000e-07	-4.450792e-08	-2.438930e-09	-3.076650e-01	-1.613937e+02
8.300000e-07	8.680003e-08	-2.225404e-09	6.000131e-01	-1.474243e+02
8.400000e-07	2.180416e-07	-2.005963e-09	1.507232e+00	-1.330472e+02
8.500000e-07	3.492663e-07	-1.778758e-09	2.414335e+00	-1.182241e+02
8.600000e-07	4.803979e-07	-1.542685e-09	3.320794e+00	-1.029112e+02
8.700000e-07	6.113391e-07	-1.299509e-09	4.225937e+00	-8.706205e+01
8.800000e-07	7.421349e-07	-1.050624e-09	5.130075e+00	-7.063262e+01
8.900000e-07	8.726984e-07	-7.963968e-10	6.032607e+00	-5.358603e+01
9.000000e-07	1.002963e-06	-5.338493e-10	6.933071e+00	-3.589836e+01
9.100000e-07	1.132847e-06	-2.609267e-10	7.830908e+00	-1.756376e+01
9.200000e-07	1.262267e-06	2.440980e-11	8.725538e+00	1.401066e+00
9.300000e-07	1.391248e-06	3.215708e-10	9.617129e+00	2.095383e+01
9.400000e-07	1.519726e-06	6.278648e-10	1.050525e+01	4.102532e+01
9.500000e-07	1.647615e-06	9.413568e-10	1.138929e+01	6.152014e+01
9.600000e-07	1.774816e-06	1.260350e-09	1.226858e+01	8.231951e+01
9.700000e-07	1.901379e-06	1.583288e-09	1.314346e+01	1.032860e+02
9.800000e-07	2.027389e-06	1.905886e-09	1.401451e+01	1.242698e+02
9.900000e-07	2.152687e-06	2.226408e-09	1.488064e+01	1.451165e+02
1.000000e-06	2.277203e-06	2.541665e-09	1.574138e+01	1.656744e+02
1.010000e-06	2.400997e-06	2.849648e-09	1.659711e+01	1.858027e+02
1.020000e-06	2.523922e-06	3.149491e-09	1.744684e+01	2.053782e+02
1.030000e-06	2.645807e-06	3.436650e-09	1.828939e+01	2.243005e+02
1.040000e-06	2.766639e-06	3.710616e-09	1.912465e+01	2.424956e+02
1.050000e-06	2.886311e-06	3.971900e-09	1.995189e+01	2.599174e+02
1.060000e-06	3.004890e-06	4.220788e-09	2.077158e+01	2.765467e+02
1.070000e-06	3.122543e-06	4.459948e-09	2.158486e+01	2.923886e+02
1.080000e-06	3.239120e-06	4.689109e-09	2.239071e+01	3.074686e+02
1.090000e-06	3.354480e-06	4.906350e-09	2.318815e+01	3.218266e+02
1.100000e-06	3.468456e-06	5.113060e-09	2.397602e+01	3.355116e+02
1.110000e-06	3.580938e-06	5.313285e-09	2.475356e+01	3.485760e+02
1.120000e-06	3.692052e-06	5.506231e-09	2.552164e+01	3.610703e+02
1.130000e-06	3.801984e-06	5.689239e-09	2.628156e+01	3.730393e+02
1.140000e-06	3.910778e-06	5.865035e-09	2.703361e+01	3.845196e+02
1.150000e-06	4.018302e-06	6.034192e-09	2.777688e+01	3.955382e+02
1.160000e-06	4.124366e-06	6.194628e-09	2.851005e+01	4.061130e+02
1.170000e-06	4.228827e-06	6.347858e-09	2.923215e+01	4.162541e+02
1.180000e-06	4.331681e-06	6.493519e-09	2.994314e+01	4.259660e+02
1.190000e-06	4.433042e-06	6.633844e-09	3.064380e+01	4.352506e+02
1.200000e-06	4.532996e-06	6.767572e-09	3.133475e+01	4.441093e+02
1.210000e-06	4.631286e-06	6.894020e-09	3.201419e+01	4.525461e+02
1.220000e-06	4.727734e-06	7.016189e-09	3.268089e+01	4.605691e+02
1.230000e-06	4.822432e-06	7.132316e-09	3.333550e+01	4.681910e+02
1.240000e-06	4.915490e-06	7.242669e-09	3.397877e+01	4.754303e+02
1.250000e-06	5.006909e-06	7.347369e-09	3.461071e+01	4.823094e+02
1.260000e-06	5.096527e-06	7.447951e-09	3.523021e+01	4.888544e+02
1.270000e-06	5.184212e-06	7.544313e-09	3.583634e+01	4.950926e+02
1.280000e-06	5.269994e-06	7.635530e-09	3.642931e+01	5.010514e+02
1.290000e-06	5.354017e-06	7.720940e-09	3.701013e+01	5.067560e+02
1.300000e-06	5.436166e-06	7.801330e-09	3.757799e+01	5.122285e+02
1.310000e-06	5.516236e-06	7.878091e-09	3.813148e+01	5.174869e+02
1.320000e-06	5.594278e-06	7.951440e-09	3.867096e+01	5.225446e+02
1.330000e-06	5.670326e-06	8.022429e-09	3.919664e+01	5.274109e+02
1.340000e-06	5.744150e-06	8.093543e-09	3.970696e+01	5.320912e+02
1.350000e-06	5.815754e-06	8.164170e-09	4.020193e+01	5.365885e+02
1.360000e-06	5.885320e-06	8.231978e-09	4.068281e+01	5.409036e+02
1.370000e-06	5.952857e-06	8.295674e-09	4.114967e+01	5.450367e+02
1.380000e-06	6.018242e-06	8.355343e-09	4.160165e+01	5.489879e+02
1.390000e-06	6.081414e-06	8.412062e-09	4.203833e+01	5.527579e+02
1.400000e-06	6.142555e-06	8.465405e-09	4.246097e+01	5.563478e+02
1.410000e-06	6.201693e-06	8.516561e-09	4.286977e+01	5.597596e+02
1.420000e-06	6.258608e-06	8.564948e-09	4.326320e+01	5.629953e+02
1.430000e-06	6.313224e-06	8.609780e-09	4.364074e+01	5.660570e+02
1.440000e-06	6.365442e-06	8.652994e-09	4.400170e+01	5.689463e+02
1.450000e-06	6.415025e-06	8.695241e-09	4.434444e+01	5.716643e+02
1.460000e-06	6.462121e-06	8.735577e-09	4.467000e+01	5.742110e+02
1.470000e-06	6.507024e-06	8.771694e-09	4.498040e+01	5.765860e+02
1.480000e-06	6.549714e-06	8.804506e-09	4.527549e+01	5.787888e+02
1.490000e-06	6.589955e-06	8.834947e-09	4.555367e+01	5.808190e+02
1.500000e-06	6.627831e-06	8.862130e-09	4.581549e+01	5.826772e+02
1.510000e-06	6.663600e-06	8.885343e-09	4.606274e+01	5.843655e+02
1.520000e-06	6.696991e-06	8.905255e-09	4.629356e+01	5.858879e+02
1.530000e-06	6.727868e-06	8.922973e-09	4.650700e+01	5.872504e+02
1.540000e-06	6.756528e-06	8.940618e-09	4.670511e+01	5.884608e+02
1.550000e-06	6.782860e-06	8.958678e-09	4.688714e+01	5.895285e+02
1.560000e-06	6.806572e-06	8.974561e-09	4.705105e+01	5.904638e+02
1.570000e-06	6.827800e-06	8.987589e-09	4.719779e+01	5.912769e+02
1.580000e-06	6.846746e-06	8.998678e-09	4.732876e+01	5.919770e+02
1.590000e-06	6.863221e-06	9.008390e-09	4.744264e+01	5.925716e+02
1.600000e-06	6.877120e-06	9.016259e-09	4.753872e+01	5.930657e+02
1.610000e-06	6.888343e-06	9.022165e-09	4.761630e+01	5.934618e+02
1.620000e-06	6.896834e-06	9.025785e-09	4.767499e+01	5.937594e+02
1.630000e-06	6.902839e-06	9.027931e-09	4.771650e+01	5.939556e+02
1.640000e-06	6.906552e-06	9.030077e-09	4.774217e+01	5.940462e+02
1.650000e-06	6.907793e-06	9.031692e-09	4.775075e+01	5.940263e+02
1.660000e-06	6.906558e-06	9.031860e-09	4.774221e+01	5.938913e+02
1.670000e-06	6.903179e-06	9.026962e-09	4.771885e+01	5.936383e+02
1.680000e-06	6.897561e-06	9.020159e-09	4.768002e+01	5.932669e+02
1.690000e-06	6.889611e-06	9.012693e-09	4.762506e+01	5.927798e+02
1.700000e-06	6.879464e-06	9.004064e-09	4.755492e+01	5.921831e+02
1.710000e-06	6.866999e-06	8.994331e-09	4.746875e+01	5.914859e+02
1.720000e-06	6.852079e-06	8.982722e-09	4.736562e+01	5.906997e+02
1.730000e-06	6.834983e-06	8.971741e-09	4.724744e+01	5.898377e+02
1.740000e-06	6.815651e-06	8.945167e-09	4.711381e+01	5.889131e+02
1.750000e-06	6.793270e-06	8.907021e-09	4.695909e+01	5.879381e+02
1.760000e-06	6.767564e-06	8.907686e-09	4.678140e+01	5.869222e+02
1.770000e-06	6.739271e-06	8.903756e-09	4.658582e+01	5.858715e+02
1.780000e-06	6.708856e-06	8.867481e-09	4.637558e+01	5.847874e+02
1.790000e-06	6.676782e-06	8.905268e-09	4.615386e+01	5.836667e+02
1.800000e-06	6.643270e-06	8.890391e-09	4.592221e+01	5.825013e+02
1.810000e-06	6.607503e-06	8.812512e-09	4.567497e+01	5.812789e+02
1.820000e-06	6.569114e-06	8.870634e-09	4.540960e+01	5.799839e+02
1.830000e-06	6.528557e-06	8.815803e-09	4.512924e+01	5.785987e+02
1.840000e-06	6.485883e-06	8.776630e-09	4.483426e+01	5.771051e+02
1.850000e-06	6.440991e-06	8.783682e-09	4.452394e+01	5.754854e+02
1.860000e-06	6.393732e-06	8.688008e-09	4.419726e+01	5.737243e+02
1.870000e-06	6.344066e-06	8.710519e-09	4.385394e+01	5.718097e+02
1.880000e-06	6.292090e-06	8.679066e-09	4.349465e+01	5.697334e+02
1.890000e-06	6.237424e-06	8.673982e-09	4.311676e+01	5.674915e+02
1.900000e-06	6.180205e-06	8.666417e-09	4.272123e+01	5.650844e+02
1.910000e-06	6.120715e-06	8.560503e-09	4.231000e+01	5.625163e+02
1.920000e-06	6.058813e-06	8.548001e-09	4.188210e+01	5.597947e+02
1.930000e-06	5.994704e-06	8.488111e-09	4.143894e+01	5.569289e+02
1.940000e-06	5.928482e-06	8.465196e-09	4.098117e+01	5.539294e+02
1.950000e-06	5.860179e-06	8.429930e-09	4.050902e+01	5.508064e+02
1.960000e-06	5.789622e-06	8.340156e-09	4.002129e+01	5.475689e+02
1.970000e-06	5.716690e-06	8.315749e-09	3.951714e+01	5.442240e+02
1.980000e-06	5.641683e-06	8.228371e-09	3.899865e+01	5.407761e+02
1.990000e-06	5.564403e-06	8.203454e-09	3.846445e+01	5.372266e+02
2.000000e-06	5.484873e-06	8.157596e-09	3.791469e+01	5.335743e+02
2.010000e-06	5.403387e-06	8.085370e-09	3.735140e+01	5.298155e+02
2.020000e-06	5.320150e-06	8.029068e-09	3.677602e+01	5.259443e+02
2.030000e-06	5.235059e-06	7.950021e-09	3.618783e+01	5.219538e+02
2.040000e-06	5.147871e-06	7.908849e-09	3.558513e+01	5.178366e+02
2.050000e-06	5.058856e-06	7.827998e-09	3.496981e+01	5.135858e+02
2.060000e-06	4.968266e-06	7.766993e-09	3.434359e+01	5.091954e+02
2.070000e-06	4.876116e-06	7.697248e-09	3.370660e+01	5.046608e+02
2.080000e-06	4.782102e-06	7.626604e-09	3.305672e+01	4.999794e+02
2.090000e-06	4.686236e-06	7.566370e-09	3.239404e+01	4.951500e+02
2.100000e-06	4.588824e-06	7.496252e-09	3.172066e+01	4.901731e+02
2.110000e-06	4.489981e-06	7.426353e-09	3.103740e+01	4.850499e+02
2.120000e-06	4.389664e-06	7.329192e-09	3.034396e+01	4.797823e+02
2.130000e-06	4.287605e-06	7.236528e-09	2.963846e+01	4.743716e+02
2.140000e-06	4.183858e-06	7.146445e-09	2.892130e+01	4.688180e+02
2.150000e-06	4.078603e-06	7.070688e-09	2.819371e+01	4.631205e+02
2.160000e-06	3.971985e-06	6.987475e-09	2.745671e+01	4.572761e+02
2.170000e-06	3.864067e-06	6.899633e-09	2.671071e+01	4.512798e+02
2.180000e-06	3.754824e-06	6.803738e-09	2.595556e+01	4.451249e+02
2.190000e-06	3.644131e-06	6.705768e-09	2.519039e+01	4.388037e+02
2.200000e-06	3.531998e-06	6.615204e-09	2.441526e+01	4.323075e+02
2.210000e-06	3.418580e-06	6.517957e-09	2.363124e+01	4.256282e+02
2.220000e-06	3.303810e-06	6.410080e-09	2.283789e+01	4.187583e+02
2.230000e-06	3.187631e-06	6.288770e-09	2.203479e+01	4.116920e+02
2.240000e-06	3.070065e-06	6.170313e-09	2.122210e+01	4.044255e+02
2.250000e-06	2.951218e-06	6.055338e-09	2.040057e+01	3.969571e+02
2.260000e-06	2.831217e-06	5.946820e-09	1.957104e+01	3.892872e+02
2.270000e-06	2.710201e-06	5.835776e-09	1.873451e+01	3.814172e+02
2.280000e-06	2.588260e-06	5.719180e-09	1.789159e+01	3.733492e+02
2.290000e-06	2.465460e-06	5.593701e-09	1.704272e+01	3.650849e+02
2.300000e-06	2.341873e-06	5.467146e-09	1.618841e+01	3.566242e+02
2.310000e-06	2.217525e-06	5.340544e-09	1.532884e+01	3.479644e+02
2.320000e-06	2.092372e-06	5.205235e-09	1.446371e+01	3.390996e+02
2.330000e-06	1.966420e-06	5.058407e-09	1.359306e+01	3.300203e+02
2.340000e-06	1.839719e-06	4.906380e-09	1.271723e+01	3.207136e+02
2.350000e-06	1.712315e-06	4.758767e-09	1.183653e+01	3.111636e+02
2.360000e-06	1.584328e-06	4.614416e-09	1.095181e+01	3.013529e+02
2.370000e-06	1.455860e-06	4.468437e-09	1.006377e+01	2.912633e+02
2.380000e-06	1.326962e-06	4.313138e-09	9.172749e+00	2.808780e+02
2.390000e-06	1.197670e-06	4.149371e-09	8.279004e+00	2.701822e+02
2.400000e-06	1.067976e-06	3.979833e-09	7.382478e+00	2.591648e+02
2.410000e-06	9.379054e-07	3.808996e-09	6.483356e+00	2.478184e+02
2.420000e-06	8.075507e-07	3.634623e-09	5.582268e+00	2.361394e+02
2.430000e-06	6.769882e-07	3.449228e-09	4.679742e+00	2.241268e+02
2.440000e-06	5.462787e-07	3.255534e-09	3.776201e+00	2.117813e+02
2.450000e-06	4.154161e-07	3.058005e-09	2.871601e+00	1.991023e+02
2.460000e-06	2.844207e-07	2.860252e-09	1.966084e+00	1.860863e+02
2.470000e-06	1.533060e-07	2.659579e-09	1.059742e+00	1.727243e+02
2.480000e-06	2.212185e-08	2.451424e-09	1.529193e-01	1.589999e+02
2.490000e-06	-1.090496e-07	2.237115e-09	-7.538156e-01	1.448882e+02
2.500000e-06	-2.401918e-07	2.012175e-09	-1.660348e+00	1.303560e+02
2.510000e-06	-3.712530e-07	1.776216e-09	-2.566320e+00	1.153626e+02
2.520000e-06	-5.022099e-07	1.535036e-09	-3.471572e+00	9.986292e+01
2.530000e-06	-6.330468e-07	1.288923e-09	-4.375994e+00	8.381078e+01
2.540000e-06	-7.637332e-07	1.034628e-09	-5.279375e+00	6.716403e+01
2.550000e-06	-8.941966e-07	7.681543e-10	-6.181216e+00	4.988983e+01
2.560000e-06	-1.024351e-06	4.928825e-10	-7.080921e+00	3.197012e+01
2.570000e-06	-1.154172e-06	2.130472e-10	-7.978317e+00	1.340666e+01
2.580000e-06	-1.283606e-06	-7.479339e-11	-8.873041e+00	-5.774966e+00
2.590000e-06	-1.412635e-06	-3.747339e-10	-9.764965e+00	-2.552291e+01
2.600000e-06	-1.541262e-06	-6.861957e-10	-1.065411e+01	-4.575841e+01
2.610000e-06	-1.669394e-06	-1.005495e-09	-1.153984e+01	-6.637730e+01
2.620000e-06	-1.796835e-06	-1.327433e-09	-1.242079e+01	-8.725349e+01
2.630000e-06	-1.923480e-06	-1.648250e-09	-1.329623e+01	-1.082444e+02
2.640000e-06	-2.049369e-06	-1.967265e-09	-1.416645e+01	-1.291976e+02
2.650000e-06	-2.174492e-06	-2.283134e-09	-1.503137e+01	-1.499587e+02
2.660000e-06	-2.298727e-06	-2.594637e-09	-1.589016e+01	-1.703791e+02
2.670000e-06	-2.421961e-06	-2.896550e-09	-1.674203e+01	-1.903236e+02
2.680000e-06	-2.544273e-06	-3.186655e-09	-1.758752e+01	-2.096766e+02
2.690000e-06	-2.665662e-06	-3.468619e-09	-1.842663e+01	-2.283468e+02
2.700000e-06	-2.786111e-06	-3.742800e-09	-1.925925e+01	-2.462702e+02
2.710000e-06	-2.905567e-06	-4.007053e-09	-2.008500e+01	-2.634104e+02
2.720000e-06	-3.023876e-06	-4.258641e-09	-2.090282e+01	-2.797573e+02
2.730000e-06	-3.140984e-06	-4.497298e-09	-2.171234e+01	-2.953239e+02
2.740000e-06	-3.256788e-06	-4.725277e-09	-2.251284e+01	-3.101414e+02
2.750000e-06	-3.371298e-06	-4.944121e-09	-2.330441e+01	-3.242537e+02
2.760000e-06	-3.484471e-06	-5.153526e-09	-2.408673e+01	-3.377117e+02
2.770000e-06	-3.596177e-06	-5.351750e-09	-2.485890e+01	-3.505674e+02
2.780000e-06	-3.706469e-06	-5.539332e-09	-2.562131e+01	-3.628700e+02
2.790000e-06	-3.815575e-06	-5.718955e-09	-2.637551e+01	-3.746613e+02
2.800000e-06	-3.923518e-06	-5.892019e-09	-2.712168e+01	-3.859746e+02
2.810000e-06	-4.030173e-06	-6.057986e-09	-2.785894e+01	-3.968337e+02
2.820000e-06	-4.135491e-06	-6.215887e-09	-2.858696e+01	-4.072534e+02
2.830000e-06	-4.239259e-06	-6.365254e-09	-2.930427e+01	-4.172415e+02
2.840000e-06	-4.341343e-06	-6.507561e-09	-3.000993e+01	-4.268012e+02
2.850000e-06	-4.441824e-06	-6.645224e-09	-3.070451e+01	-4.359340e+02
2.860000e-06	-4.540761e-06	-6.778962e-09	-3.138842e+01	-4.446420e+02
2.870000e-06	-4.638129e-06	-6.907641e-09	-3.206149e+01	-4.529304e+02
2.880000e-06	-4.733856e-06	-7.029019e-09	-3.272321e+01	-4.608090e+02
2.890000e-06	-4.827859e-06	-7.144665e-09	-3.337302e+01	-4.682925e+02
2.900000e-06	-4.920140e-06	-7.255897e-09	-3.401092e+01	-4.754009e+02
2.910000e-06	-5.010732e-06	-7.361403e-09	-3.463714e+01	-4.821582e+02
2.920000e-06	-5.099583e-06	-7.461494e-09	-3.525134e+01	-4.885910e+02
2.930000e-06	-5.186537e-06	-7.555968e-09	-3.585241e+01	-4.947269e+02
2.940000e-06	-5.271483e-06	-7.644806e-09	-3.643960e+01	-5.005928e+02
