# Temperatura_=_66.71
# Concentracion g/m^3_=_15000.0
# C_Vs_to_Am_M_A/Vsm_=_65563218390.804596
# pendiente_HvsI_1/m_=_3716.3
# ordenada_HvsI_A/m_=_1297.0
# frecuencia_Hz_=_301901.65069118195

Tiempo_(s)	Campo_(V.s)	Magnetizacion_(V.s)	Campo_(kA/m)	Magnetizacion_(A/m)
0.000000e+00	-6.884357e-06	-9.716144e-09	-4.750170e+01	-6.353744e+02
1.000000e-08	-6.881910e-06	-9.713002e-09	-4.748481e+01	-6.351541e+02
2.000000e-08	-6.877109e-06	-9.711428e-09	-4.745168e+01	-6.347934e+02
3.000000e-08	-6.870190e-06	-9.706487e-09	-4.740394e+01	-6.342940e+02
4.000000e-08	-6.861022e-06	-9.699028e-09	-4.734068e+01	-6.336614e+02
5.000000e-08	-6.849378e-06	-9.688580e-09	-4.726034e+01	-6.329042e+02
6.000000e-08	-6.835152e-06	-9.674882e-09	-4.716218e+01	-6.320340e+02
7.000000e-08	-6.818512e-06	-9.662813e-09	-4.704737e+01	-6.310643e+02
8.000000e-08	-6.799690e-06	-9.647019e-09	-4.691749e+01	-6.300093e+02
9.000000e-08	-6.778514e-06	-9.626127e-09	-4.677138e+01	-6.288828e+02
1.000000e-07	-6.754648e-06	-9.628839e-09	-4.660671e+01	-6.276966e+02
1.100000e-07	-6.727997e-06	-9.604894e-09	-4.642282e+01	-6.264597e+02
1.200000e-07	-6.698903e-06	-9.564993e-09	-4.622207e+01	-6.251768e+02
1.300000e-07	-6.667743e-06	-9.553338e-09	-4.600707e+01	-6.238483e+02
1.400000e-07	-6.634634e-06	-9.522322e-09	-4.577862e+01	-6.224697e+02
1.500000e-07	-6.599586e-06	-9.428885e-09	-4.553679e+01	-6.210318e+02
1.600000e-07	-6.562485e-06	-9.463833e-09	-4.528080e+01	-6.195214e+02
1.700000e-07	-6.523330e-06	-9.432190e-09	-4.501062e+01	-6.179222e+02
1.800000e-07	-6.481947e-06	-9.345426e-09	-4.472508e+01	-6.162159e+02
1.900000e-07	-6.437995e-06	-9.400801e-09	-4.442182e+01	-6.143837e+02
2.000000e-07	-6.391685e-06	-9.344494e-09	-4.410228e+01	-6.124074e+02
2.100000e-07	-6.342909e-06	-9.340674e-09	-4.376573e+01	-6.102714e+02
2.200000e-07	-6.291386e-06	-9.338195e-09	-4.341023e+01	-6.079628e+02
2.300000e-07	-6.237325e-06	-9.235581e-09	-4.303720e+01	-6.054735e+02
2.400000e-07	-6.180849e-06	-9.173458e-09	-4.264752e+01	-6.027998e+02
2.500000e-07	-6.122082e-06	-9.109274e-09	-4.224204e+01	-5.999428e+02
2.600000e-07	-6.061146e-06	-9.068697e-09	-4.182158e+01	-5.969083e+02
2.700000e-07	-5.997966e-06	-9.048079e-09	-4.138565e+01	-5.937056e+02
2.800000e-07	-5.932503e-06	-8.998273e-09	-4.093395e+01	-5.903469e+02
2.900000e-07	-5.864749e-06	-8.926159e-09	-4.046645e+01	-5.868460e+02
3.000000e-07	-5.794807e-06	-8.847899e-09	-3.998385e+01	-5.832166e+02
3.100000e-07	-5.722822e-06	-8.832936e-09	-3.948716e+01	-5.794710e+02
3.200000e-07	-5.648652e-06	-8.783579e-09	-3.897540e+01	-5.756190e+02
3.300000e-07	-5.572084e-06	-8.714823e-09	-3.844708e+01	-5.716670e+02
3.400000e-07	-5.493235e-06	-8.658180e-09	-3.790303e+01	-5.676173e+02
3.500000e-07	-5.412360e-06	-8.578674e-09	-3.734499e+01	-5.634678e+02
3.600000e-07	-5.329654e-06	-8.526280e-09	-3.677433e+01	-5.592127e+02
3.700000e-07	-5.245204e-06	-8.466384e-09	-3.619163e+01	-5.548431e+02
3.800000e-07	-5.158984e-06	-8.400726e-09	-3.559671e+01	-5.503479e+02
3.900000e-07	-5.070935e-06	-8.309279e-09	-3.498918e+01	-5.457155e+02
4.000000e-07	-4.980969e-06	-8.220499e-09	-3.436842e+01	-5.409345e+02
4.100000e-07	-4.889244e-06	-8.156505e-09	-3.373552e+01	-5.359954e+02
4.200000e-07	-4.795936e-06	-8.093690e-09	-3.309170e+01	-5.308915e+02
4.300000e-07	-4.701033e-06	-8.013274e-09	-3.243688e+01	-5.256192e+02
4.400000e-07	-4.604393e-06	-7.912142e-09	-3.177006e+01	-5.201781e+02
4.500000e-07	-4.506000e-06	-7.818812e-09	-3.109116e+01	-5.145711e+02
4.600000e-07	-4.405989e-06	-7.730325e-09	-3.040108e+01	-5.088029e+02
4.700000e-07	-4.304482e-06	-7.652410e-09	-2.970069e+01	-5.028792e+02
4.800000e-07	-4.201516e-06	-7.577309e-09	-2.899023e+01	-4.968055e+02
4.900000e-07	-4.097008e-06	-7.483820e-09	-2.826913e+01	-4.905858e+02
5.000000e-07	-3.990943e-06	-7.370001e-09	-2.753729e+01	-4.842216e+02
5.100000e-07	-3.883357e-06	-7.263413e-09	-2.679495e+01	-4.777107e+02
5.200000e-07	-3.774353e-06	-7.169664e-09	-2.604283e+01	-4.710479e+02
5.300000e-07	-3.664072e-06	-7.067194e-09	-2.528190e+01	-4.642244e+02
5.400000e-07	-3.552564e-06	-6.951092e-09	-2.451250e+01	-4.572290e+02
5.500000e-07	-3.439569e-06	-6.828675e-09	-2.373284e+01	-4.500492e+02
5.600000e-07	-3.325037e-06	-6.710709e-09	-2.294258e+01	-4.426723e+02
5.700000e-07	-3.209091e-06	-6.600488e-09	-2.214255e+01	-4.350871e+02
5.800000e-07	-3.091827e-06	-6.494894e-09	-2.133344e+01	-4.272846e+02
5.900000e-07	-2.973492e-06	-6.377971e-09	-2.051694e+01	-4.192593e+02
6.000000e-07	-2.854154e-06	-6.246653e-09	-1.969351e+01	-4.110091e+02
6.100000e-07	-2.733737e-06	-6.110793e-09	-1.886264e+01	-4.025351e+02
6.200000e-07	-2.612187e-06	-5.980058e-09	-1.802395e+01	-3.938409e+02
6.300000e-07	-2.489636e-06	-5.846916e-09	-1.717835e+01	-3.849310e+02
6.400000e-07	-2.366251e-06	-5.701414e-09	-1.632700e+01	-3.758096e+02
6.500000e-07	-2.241967e-06	-5.551318e-09	-1.546945e+01	-3.664789e+02
6.600000e-07	-2.116885e-06	-5.400598e-09	-1.460639e+01	-3.569375e+02
6.700000e-07	-1.991201e-06	-5.253585e-09	-1.373918e+01	-3.471799e+02
6.800000e-07	-1.864935e-06	-5.109070e-09	-1.286795e+01	-3.371958e+02
6.900000e-07	-1.738045e-06	-4.959191e-09	-1.199242e+01	-3.269706e+02
7.000000e-07	-1.610479e-06	-4.796191e-09	-1.111222e+01	-3.164863e+02
7.100000e-07	-1.482298e-06	-4.624850e-09	-1.022777e+01	-3.057232e+02
7.200000e-07	-1.353565e-06	-4.452597e-09	-9.339522e+00	-2.946616e+02
7.300000e-07	-1.224338e-06	-4.280719e-09	-8.447866e+00	-2.832835e+02
7.400000e-07	-1.094683e-06	-4.103759e-09	-7.553251e+00	-2.715746e+02
7.500000e-07	-9.646632e-07	-3.919436e-09	-6.656124e+00	-2.595246e+02
7.600000e-07	-8.343630e-07	-3.730390e-09	-5.757060e+00	-2.471280e+02
7.700000e-07	-7.038047e-07	-3.537190e-09	-4.856215e+00	-2.343831e+02
7.800000e-07	-5.729923e-07	-3.340852e-09	-3.953616e+00	-2.212903e+02
7.900000e-07	-4.419816e-07	-3.141425e-09	-3.049649e+00	-2.078498e+02
8.000000e-07	-3.108047e-07	-2.934924e-09	-2.144536e+00	-1.940591e+02
8.100000e-07	-1.795335e-07	-2.716074e-09	-1.238772e+00	-1.799097e+02
8.200000e-07	-4.817560e-08	-2.489768e-09	-3.324091e-01	-1.653853e+02
8.300000e-07	8.328180e-08	-2.261149e-09	5.746399e-01	-1.504597e+02
8.400000e-07	2.147365e-07	-2.028373e-09	1.481670e+00	-1.350969e+02
8.500000e-07	3.461143e-07	-1.786524e-09	2.388170e+00	-1.192521e+02
8.600000e-07	4.773987e-07	-1.535921e-09	3.294026e+00	-1.028749e+02
8.700000e-07	6.085829e-07	-1.277749e-09	4.199190e+00	-8.591292e+01
8.800000e-07	7.396145e-07	-1.011279e-09	5.103300e+00	-6.831776e+01
8.900000e-07	8.704522e-07	-7.356749e-10	6.006073e+00	-5.005099e+01
9.000000e-07	1.001033e-06	-4.496285e-10	6.907076e+00	-3.109035e+01
9.100000e-07	1.131253e-06	-1.523781e-10	7.805588e+00	-1.143553e+01
9.200000e-07	1.261015e-06	1.563313e-10	8.700938e+00	8.887419e+00
9.300000e-07	1.390260e-06	4.749353e-10	9.592720e+00	2.982330e+01
9.400000e-07	1.518973e-06	7.999801e-10	1.048083e+01	5.128724e+01
9.500000e-07	1.647095e-06	1.130468e-09	1.136487e+01	7.316649e+01
9.600000e-07	1.774563e-06	1.466393e-09	1.224439e+01	9.532448e+01
9.700000e-07	1.901383e-06	1.807607e-09	1.311944e+01	1.176070e+02
9.800000e-07	2.027543e-06	2.149448e-09	1.398994e+01	1.398498e+02
9.900000e-07	2.153000e-06	2.488252e-09	1.485559e+01	1.618871e+02
1.000000e-06	2.277745e-06	2.821453e-09	1.571632e+01	1.835602e+02
1.010000e-06	2.401734e-06	3.143975e-09	1.657184e+01	2.047258e+02
1.020000e-06	2.524884e-06	3.454569e-09	1.742156e+01	2.252619e+02
1.030000e-06	2.647072e-06	3.752449e-09	1.826466e+01	2.450735e+02
1.040000e-06	2.768182e-06	4.038533e-09	1.910031e+01	2.640948e+02
1.050000e-06	2.888172e-06	4.313458e-09	1.992823e+01	2.822893e+02
1.060000e-06	3.007105e-06	4.573834e-09	2.074886e+01	2.996482e+02
1.070000e-06	3.125004e-06	4.822647e-09	2.156236e+01	3.161866e+02
1.080000e-06	3.241864e-06	5.061565e-09	2.236868e+01	3.319382e+02
1.090000e-06	3.357535e-06	5.289531e-09	2.316681e+01	3.469499e+02
1.100000e-06	3.471768e-06	5.506832e-09	2.395501e+01	3.612748e+02
1.110000e-06	3.584490e-06	5.715033e-09	2.473279e+01	3.749678e+02
1.120000e-06	3.695820e-06	5.915600e-09	2.550096e+01	3.880800e+02
1.130000e-06	3.805928e-06	6.106810e-09	2.626070e+01	4.006558e+02
1.140000e-06	3.914849e-06	6.289669e-09	2.701225e+01	4.127311e+02
1.150000e-06	4.022561e-06	6.464947e-09	2.775545e+01	4.243323e+02
1.160000e-06	4.128920e-06	6.633993e-09	2.848932e+01	4.354774e+02
1.170000e-06	4.233660e-06	6.796616e-09	2.921202e+01	4.461777e+02
1.180000e-06	4.336757e-06	6.951392e-09	2.992339e+01	4.564398e+02
1.190000e-06	4.438332e-06	7.099132e-09	3.062425e+01	4.662684e+02
1.200000e-06	4.538457e-06	7.241704e-09	3.131511e+01	4.756681e+02
1.210000e-06	4.636974e-06	7.376847e-09	3.199487e+01	4.846457e+02
1.220000e-06	4.733645e-06	7.504553e-09	3.266189e+01	4.932110e+02
1.230000e-06	4.828547e-06	7.627517e-09	3.331671e+01	5.013777e+02
1.240000e-06	4.921823e-06	7.747317e-09	3.396031e+01	5.091625e+02
1.250000e-06	5.013525e-06	7.862816e-09	3.459305e+01	5.165850e+02
1.260000e-06	5.103396e-06	7.973332e-09	3.521315e+01	5.236665e+02
1.270000e-06	5.191255e-06	8.078378e-09	3.581938e+01	5.304284e+02
1.280000e-06	5.277224e-06	8.177243e-09	3.641256e+01	5.368916e+02
1.290000e-06	5.361459e-06	8.269822e-09	3.699378e+01	5.430749e+02
1.300000e-06	5.443858e-06	8.357513e-09	3.756233e+01	5.489953e+02
1.310000e-06	5.524108e-06	8.440738e-09	3.811604e+01	5.546672e+02
1.320000e-06	5.602312e-06	8.518850e-09	3.865565e+01	5.601027e+02
1.330000e-06	5.678549e-06	8.594280e-09	3.918169e+01	5.653120e+02
1.340000e-06	5.752546e-06	8.670018e-09	3.969226e+01	5.703044e+02
1.350000e-06	5.824335e-06	8.744976e-09	4.018760e+01	5.750878e+02
1.360000e-06	5.894045e-06	8.815540e-09	4.066859e+01	5.796704e+02
1.370000e-06	5.961719e-06	8.881515e-09	4.113554e+01	5.840596e+02
1.380000e-06	6.027266e-06	8.944785e-09	4.158781e+01	5.882631e+02
1.390000e-06	6.090627e-06	9.006532e-09	4.202500e+01	5.922878e+02
1.400000e-06	6.151971e-06	9.066243e-09	4.244826e+01	5.961397e+02
1.410000e-06	6.211254e-06	9.123919e-09	4.285732e+01	5.998234e+02
1.420000e-06	6.268293e-06	9.178105e-09	4.325088e+01	6.033416e+02
1.430000e-06	6.323095e-06	9.227774e-09	4.362902e+01	6.066947e+02
1.440000e-06	6.375546e-06	9.273696e-09	4.399093e+01	6.098813e+02
1.450000e-06	6.425293e-06	9.317073e-09	4.433418e+01	6.128979e+02
1.460000e-06	6.472480e-06	9.359301e-09	4.465976e+01	6.157396e+02
1.470000e-06	6.517539e-06	9.399216e-09	4.497067e+01	6.184011e+02
1.480000e-06	6.560389e-06	9.436421e-09	4.526633e+01	6.208777e+02
1.490000e-06	6.600773e-06	9.472392e-09	4.554498e+01	6.231658e+02
1.500000e-06	6.638808e-06	9.504831e-09	4.580742e+01	6.252643e+02
1.510000e-06	6.674671e-06	9.531405e-09	4.605487e+01	6.271746e+02
1.520000e-06	6.708157e-06	9.555738e-09	4.628592e+01	6.289013e+02
1.530000e-06	6.739164e-06	9.579064e-09	4.649987e+01	6.304518e+02
1.540000e-06	6.767914e-06	9.600271e-09	4.669824e+01	6.318360e+02
1.550000e-06	6.794280e-06	9.619115e-09	4.688017e+01	6.330651e+02
1.560000e-06	6.818059e-06	9.633950e-09	4.704424e+01	6.341509e+02
1.570000e-06	6.839428e-06	9.647821e-09	4.719169e+01	6.351044e+02
1.580000e-06	6.858539e-06	9.661822e-09	4.732355e+01	6.359352e+02
1.590000e-06	6.875119e-06	9.673284e-09	4.743795e+01	6.366499e+02
1.600000e-06	6.889115e-06	9.682102e-09	4.753453e+01	6.372522e+02
1.610000e-06	6.900561e-06	9.689000e-09	4.761350e+01	6.377427e+02
1.620000e-06	6.909265e-06	9.694447e-09	4.767355e+01	6.381189e+02
1.630000e-06	6.915391e-06	9.698951e-09	4.771582e+01	6.383760e+02
1.640000e-06	6.919160e-06	9.701874e-09	4.774183e+01	6.385079e+02
1.650000e-06	6.920453e-06	9.700911e-09	4.775075e+01	6.385084e+02
1.660000e-06	6.919308e-06	9.698546e-09	4.774285e+01	6.383721e+02
1.670000e-06	6.915986e-06	9.693231e-09	4.771993e+01	6.380960e+02
1.680000e-06	6.910362e-06	9.687118e-09	4.768113e+01	6.376798e+02
1.690000e-06	6.902390e-06	9.681137e-09	4.762612e+01	6.371266e+02
1.700000e-06	6.892222e-06	9.672835e-09	4.755596e+01	6.364432e+02
1.710000e-06	6.879704e-06	9.662946e-09	4.746959e+01	6.356394e+02
1.720000e-06	6.864766e-06	9.645543e-09	4.736651e+01	6.347278e+02
1.730000e-06	6.847672e-06	9.626000e-09	4.724857e+01	6.337223e+02
1.740000e-06	6.828397e-06	9.615212e-09	4.711557e+01	6.326370e+02
1.750000e-06	6.806132e-06	9.571821e-09	4.696194e+01	6.314852e+02
1.760000e-06	6.780533e-06	9.557046e-09	4.678531e+01	6.302775e+02
1.770000e-06	6.752226e-06	9.551916e-09	4.658999e+01	6.290216e+02
1.780000e-06	6.721797e-06	9.498063e-09	4.638003e+01	6.277204e+02
1.790000e-06	6.689749e-06	9.533738e-09	4.615891e+01	6.263723e+02
1.800000e-06	6.656204e-06	9.557426e-09	4.592745e+01	6.249711e+02
1.810000e-06	6.620405e-06	9.451115e-09	4.568044e+01	6.235059e+02
1.820000e-06	6.582017e-06	9.507367e-09	4.541556e+01	6.219620e+02
1.830000e-06	6.541519e-06	9.474906e-09	4.513613e+01	6.203224e+02
1.840000e-06	6.498876e-06	9.399137e-09	4.484189e+01	6.185682e+02
1.850000e-06	6.454015e-06	9.438474e-09	4.453235e+01	6.166808e+02
1.860000e-06	6.406784e-06	9.313672e-09	4.420646e+01	6.146429e+02
1.870000e-06	6.357014e-06	9.306697e-09	4.386305e+01	6.124397e+02
1.880000e-06	6.304887e-06	9.300004e-09	4.350338e+01	6.100603e+02
1.890000e-06	6.250173e-06	9.271854e-09	4.312585e+01	6.074980e+02
1.900000e-06	6.192968e-06	9.311398e-09	4.273114e+01	6.047513e+02
1.910000e-06	6.133473e-06	9.184325e-09	4.232063e+01	6.018230e+02
1.920000e-06	6.071598e-06	9.124824e-09	4.189370e+01	5.987204e+02
1.930000e-06	6.007501e-06	9.078089e-09	4.145144e+01	5.954543e+02
1.940000e-06	5.941263e-06	9.024462e-09	4.099440e+01	5.920374e+02
1.950000e-06	5.872880e-06	9.017869e-09	4.052255e+01	5.884838e+02
1.960000e-06	5.802189e-06	8.921965e-09	4.003479e+01	5.848067e+02
1.970000e-06	5.729188e-06	8.893493e-09	3.953109e+01	5.810177e+02
1.980000e-06	5.654047e-06	8.789739e-09	3.901262e+01	5.771252e+02
1.990000e-06	5.576611e-06	8.732589e-09	3.847831e+01	5.731342e+02
2.000000e-06	5.497029e-06	8.710060e-09	3.792920e+01	5.690450e+02
2.010000e-06	5.415540e-06	8.618995e-09	3.736694e+01	5.648543e+02
2.020000e-06	5.332220e-06	8.565971e-09	3.679203e+01	5.605548e+02
2.030000e-06	5.246999e-06	8.473855e-09	3.620401e+01	5.561366e+02
2.040000e-06	5.159705e-06	8.427782e-09	3.560169e+01	5.515883e+02
2.050000e-06	5.070571e-06	8.348444e-09	3.498667e+01	5.468981e+02
2.060000e-06	4.979859e-06	8.270661e-09	3.436076e+01	5.420554e+02
2.070000e-06	4.887538e-06	8.203864e-09	3.372375e+01	5.370515e+02
2.080000e-06	4.793395e-06	8.110879e-09	3.307417e+01	5.318811e+02
2.090000e-06	4.697481e-06	8.040279e-09	3.241237e+01	5.265417e+02
2.100000e-06	4.600014e-06	7.960606e-09	3.173985e+01	5.210344e+02
2.110000e-06	4.501075e-06	7.900485e-09	3.105718e+01	5.153627e+02
2.120000e-06	4.400531e-06	7.796302e-09	3.036342e+01	5.095320e+02
2.130000e-06	4.298306e-06	7.684130e-09	2.965808e+01	5.035482e+02
2.140000e-06	4.194483e-06	7.581023e-09	2.894171e+01	4.974162e+02
2.150000e-06	4.089118e-06	7.493624e-09	2.821470e+01	4.911391e+02
2.160000e-06	3.982423e-06	7.412010e-09	2.747850e+01	4.847170e+02
2.170000e-06	3.874444e-06	7.318197e-09	2.673345e+01	4.781466e+02
2.180000e-06	3.765051e-06	7.215470e-09	2.597865e+01	4.714212e+02
2.190000e-06	3.654157e-06	7.098890e-09	2.521349e+01	4.645310e+02
2.200000e-06	3.541829e-06	6.999538e-09	2.443843e+01	4.574641e+02
2.210000e-06	3.428190e-06	6.897922e-09	2.365432e+01	4.502077e+02
2.220000e-06	3.313232e-06	6.788383e-09	2.286112e+01	4.427495e+02
2.230000e-06	3.196767e-06	6.657083e-09	2.205752e+01	4.350792e+02
2.240000e-06	3.078860e-06	6.525490e-09	2.124397e+01	4.271890e+02
2.250000e-06	2.959802e-06	6.399027e-09	2.042247e+01	4.190747e+02
2.260000e-06	2.839698e-06	6.279623e-09	1.959376e+01	4.107357e+02
2.270000e-06	2.718535e-06	6.162826e-09	1.875775e+01	4.021740e+02
2.280000e-06	2.596378e-06	6.036732e-09	1.791487e+01	3.933939e+02
2.290000e-06	2.473423e-06	5.899693e-09	1.706648e+01	3.843998e+02
2.300000e-06	2.349691e-06	5.759304e-09	1.621274e+01	3.751955e+02
2.310000e-06	2.225122e-06	5.625216e-09	1.535322e+01	3.657818e+02
2.320000e-06	2.099699e-06	5.483714e-09	1.448781e+01	3.561557e+02
2.330000e-06	1.973462e-06	5.327295e-09	1.361678e+01	3.463100e+02
2.340000e-06	1.846532e-06	5.159158e-09	1.274097e+01	3.362325e+02
2.350000e-06	1.718985e-06	4.994723e-09	1.186090e+01	3.259071e+02
2.360000e-06	1.590892e-06	4.835382e-09	1.097707e+01	3.153150e+02
2.370000e-06	1.462315e-06	4.680014e-09	1.008990e+01	3.044363e+02
2.380000e-06	1.333258e-06	4.517029e-09	9.199407e+00	2.932517e+02
2.390000e-06	1.203718e-06	4.337594e-09	8.305588e+00	2.817445e+02
2.400000e-06	1.073774e-06	4.149497e-09	7.408984e+00	2.699019e+02
2.410000e-06	9.435491e-07	3.963835e-09	6.510438e+00	2.577155e+02
2.420000e-06	8.130640e-07	3.780689e-09	5.610097e+00	2.451815e+02
2.430000e-06	6.823788e-07	3.587926e-09	4.708377e+00	2.322992e+02
2.440000e-06	5.515455e-07	3.383525e-09	3.805634e+00	2.190692e+02
2.450000e-06	4.205119e-07	3.170841e-09	2.901509e+00	2.054911e+02
2.460000e-06	2.893205e-07	2.955934e-09	1.996296e+00	1.915602e+02
2.470000e-06	1.580422e-07	2.739451e-09	1.090483e+00	1.772653e+02
2.480000e-06	2.665447e-08	2.517857e-09	1.839144e-01	1.625863e+02
2.490000e-06	-1.048095e-07	2.288375e-09	-7.231801e-01	1.474931e+02
2.500000e-06	-2.362404e-07	2.044084e-09	-1.630046e+00	1.319461e+02
2.510000e-06	-3.675719e-07	1.789882e-09	-2.536226e+00	1.158978e+02
2.520000e-06	-4.988024e-07	1.534209e-09	-3.441710e+00	9.929630e+01
2.530000e-06	-6.298963e-07	1.275198e-09	-4.346250e+00	8.209029e+01
2.540000e-06	-7.608147e-07	1.006732e-09	-5.249580e+00	6.423447e+01
2.550000e-06	-8.915065e-07	7.234888e-10	-6.151347e+00	4.569602e+01
2.560000e-06	-1.021933e-06	4.279070e-10	-7.051283e+00	2.646069e+01
2.570000e-06	-1.152062e-06	1.266544e-10	-7.949167e+00	6.538062e+00
2.580000e-06	-1.281824e-06	-1.809950e-10	-8.844515e+00	-1.403456e+01
2.590000e-06	-1.411136e-06	-5.019548e-10	-9.736765e+00	-3.519027e+01
2.600000e-06	-1.539916e-06	-8.377314e-10	-1.062533e+01	-5.683289e+01
2.610000e-06	-1.668121e-06	-1.181380e-09	-1.150994e+01	-7.883970e+01
2.620000e-06	-1.795731e-06	-1.525888e-09	-1.239045e+01	-1.010664e+02
2.630000e-06	-1.922739e-06	-1.868067e-09	-1.326680e+01	-1.233538e+02
2.640000e-06	-2.049002e-06	-2.207670e-09	-1.413801e+01	-1.455361e+02
2.650000e-06	-2.174374e-06	-2.544399e-09	-1.500306e+01	-1.674492e+02
2.660000e-06	-2.298877e-06	-2.874657e-09	-1.586212e+01	-1.889396e+02
2.670000e-06	-2.422449e-06	-3.193308e-09	-1.671477e+01	-2.098716e+02
2.680000e-06	-2.545070e-06	-3.497182e-09	-1.756084e+01	-2.301336e+02
2.690000e-06	-2.666809e-06	-3.789548e-09	-1.840084e+01	-2.496415e+02
2.700000e-06	-2.787587e-06	-4.073783e-09	-1.923420e+01	-2.683414e+02
2.710000e-06	-2.907319e-06	-4.350171e-09	-2.006034e+01	-2.862078e+02
2.720000e-06	-3.025954e-06	-4.614254e-09	-2.087892e+01	-3.032421e+02
2.730000e-06	-3.143364e-06	-4.862760e-09	-2.168904e+01	-3.194672e+02
2.740000e-06	-3.259447e-06	-5.098498e-09	-2.249001e+01	-3.349227e+02
2.750000e-06	-3.374188e-06	-5.325374e-09	-2.328172e+01	-3.496587e+02
2.760000e-06	-3.487573e-06	-5.544632e-09	-2.406406e+01	-3.637295e+02
2.770000e-06	-3.599560e-06	-5.755091e-09	-2.483677e+01	-3.771892e+02
2.780000e-06	-3.710149e-06	-5.956557e-09	-2.559983e+01	-3.900865e+02
2.790000e-06	-3.819451e-06	-6.147899e-09	-2.635401e+01	-4.024625e+02
2.800000e-06	-3.927567e-06	-6.330793e-09	-2.710000e+01	-4.143495e+02
2.810000e-06	-4.034464e-06	-6.506092e-09	-2.783758e+01	-4.257705e+02
2.820000e-06	-4.140000e-06	-6.673156e-09	-2.856578e+01	-4.367404e+02
2.830000e-06	-4.244021e-06	-6.831596e-09	-2.928352e+01	-4.472686e+02
2.840000e-06	-4.346350e-06	-6.981550e-09	-2.998958e+01	-4.573606e+02
2.850000e-06	-4.447008e-06	-7.125745e-09	-3.068412e+01	-4.670206e+02
2.860000e-06	-4.546169e-06	-7.266471e-09	-3.136832e+01	-4.762542e+02
2.870000e-06	-4.643798e-06	-7.403571e-09	-3.204196e+01	-4.850691e+02
2.880000e-06	-4.739848e-06	-7.534542e-09	-3.270470e+01	-4.934767e+02
2.890000e-06	-4.834171e-06	-7.658684e-09	-3.335552e+01	-5.014917e+02
2.900000e-06	-4.926718e-06	-7.777741e-09	-3.399409e+01	-5.091324e+02
2.910000e-06	-5.017565e-06	-7.890552e-09	-3.462093e+01	-5.164191e+02
2.920000e-06	-5.106643e-06	-7.997522e-09	-3.523556e+01	-5.233731e+02
2.930000e-06	-5.193813e-06	-8.099572e-09	-3.583703e+01	-5.300159e+02
2.940000e-06	-5.278991e-06	-8.195147e-09	-3.642475e+01	-5.363676e+02
