# Temperatura_=_61.7
# Concentracion g/m^3_=_15000.0
# C_Vs_to_Am_M_A/Vsm_=_65563218390.804596
# pendiente_HvsI_1/m_=_3716.3
# ordenada_HvsI_A/m_=_1297.0
# frecuencia_Hz_=_301896.8784089533

Tiempo_(s)	Campo_(V.s)	Magnetizacion_(V.s)	Campo_(kA/m)	Magnetizacion_(A/m)
0.000000e+00	-6.869869e-06	-9.354515e-09	-4.749770e+01	-6.118607e+02
1.000000e-08	-6.866761e-06	-9.352998e-09	-4.747621e+01	-6.116608e+02
2.000000e-08	-6.861383e-06	-9.348699e-09	-4.743903e+01	-6.113296e+02
3.000000e-08	-6.853906e-06	-9.343784e-09	-4.738734e+01	-6.108696e+02
4.000000e-08	-6.844115e-06	-9.335897e-09	-4.731964e+01	-6.102870e+02
5.000000e-08	-6.831784e-06	-9.325853e-09	-4.723438e+01	-6.095913e+02
6.000000e-08	-6.816906e-06	-9.309077e-09	-4.713152e+01	-6.087949e+02
7.000000e-08	-6.799683e-06	-9.287507e-09	-4.701244e+01	-6.079116e+02
8.000000e-08	-6.780369e-06	-9.300660e-09	-4.687890e+01	-6.069559e+02
9.000000e-08	-6.758692e-06	-9.315502e-09	-4.672903e+01	-6.059408e+02
1.000000e-07	-6.734192e-06	-9.277263e-09	-4.655964e+01	-6.048771e+02
1.100000e-07	-6.706929e-06	-9.240177e-09	-4.637114e+01	-6.037718e+02
1.200000e-07	-6.677296e-06	-9.224967e-09	-4.616627e+01	-6.026276e+02
1.300000e-07	-6.645701e-06	-9.164416e-09	-4.594782e+01	-6.014420e+02
1.400000e-07	-6.612219e-06	-9.133625e-09	-4.571633e+01	-6.002076e+02
1.500000e-07	-6.576744e-06	-9.188979e-09	-4.547106e+01	-5.989128e+02
1.600000e-07	-6.539253e-06	-9.106959e-09	-4.521185e+01	-5.975422e+02
1.700000e-07	-6.499695e-06	-9.075812e-09	-4.493835e+01	-5.960782e+02
1.800000e-07	-6.457736e-06	-9.087987e-09	-4.464825e+01	-5.945022e+02
1.900000e-07	-6.413195e-06	-9.014120e-09	-4.434029e+01	-5.927959e+02
2.000000e-07	-6.366351e-06	-9.042305e-09	-4.401642e+01	-5.909431e+02
2.100000e-07	-6.316997e-06	-9.034560e-09	-4.367519e+01	-5.889302e+02
2.200000e-07	-6.264926e-06	-8.992671e-09	-4.331518e+01	-5.867479e+02
2.300000e-07	-6.210375e-06	-8.930914e-09	-4.293801e+01	-5.843907e+02
2.400000e-07	-6.153457e-06	-8.843769e-09	-4.254449e+01	-5.818579e+02
2.500000e-07	-6.094207e-06	-8.819979e-09	-4.213483e+01	-5.791525e+02
2.600000e-07	-6.032742e-06	-8.784373e-09	-4.170988e+01	-5.762813e+02
2.700000e-07	-5.969170e-06	-8.732163e-09	-4.127034e+01	-5.732533e+02
2.800000e-07	-5.903442e-06	-8.681522e-09	-4.081591e+01	-5.700792e+02
2.900000e-07	-5.835439e-06	-8.623403e-09	-4.034574e+01	-5.667697e+02
3.000000e-07	-5.765199e-06	-8.576023e-09	-3.986011e+01	-5.633350e+02
3.100000e-07	-5.692786e-06	-8.526462e-09	-3.935944e+01	-5.597834e+02
3.200000e-07	-5.618153e-06	-8.501123e-09	-3.884344e+01	-5.561208e+02
3.300000e-07	-5.541177e-06	-8.434531e-09	-3.831123e+01	-5.523502e+02
3.400000e-07	-5.461966e-06	-8.355657e-09	-3.776358e+01	-5.484717e+02
3.500000e-07	-5.380709e-06	-8.305367e-09	-3.720177e+01	-5.444825e+02
3.600000e-07	-5.297565e-06	-8.249932e-09	-3.662692e+01	-5.403779e+02
3.700000e-07	-5.212739e-06	-8.191778e-09	-3.604044e+01	-5.361513e+02
3.800000e-07	-5.126235e-06	-8.106685e-09	-3.544236e+01	-5.317955e+02
3.900000e-07	-5.037941e-06	-8.027881e-09	-3.483190e+01	-5.273034e+02
4.000000e-07	-4.947816e-06	-7.953863e-09	-3.420878e+01	-5.226688e+02
4.100000e-07	-4.855893e-06	-7.889478e-09	-3.357324e+01	-5.178868e+02
4.200000e-07	-4.762339e-06	-7.827011e-09	-3.292641e+01	-5.129546e+02
4.300000e-07	-4.667143e-06	-7.746028e-09	-3.226823e+01	-5.078711e+02
4.400000e-07	-4.570195e-06	-7.656393e-09	-3.159795e+01	-5.026368e+02
4.500000e-07	-4.471585e-06	-7.562483e-09	-3.091616e+01	-4.972537e+02
4.600000e-07	-4.371336e-06	-7.484125e-09	-3.022305e+01	-4.917240e+02
4.700000e-07	-4.269531e-06	-7.407517e-09	-2.951918e+01	-4.860501e+02
4.800000e-07	-4.166346e-06	-7.325273e-09	-2.880577e+01	-4.802329e+02
4.900000e-07	-4.061685e-06	-7.231963e-09	-2.808215e+01	-4.742722e+02
5.000000e-07	-3.955460e-06	-7.129933e-09	-2.734772e+01	-4.681654e+02
5.100000e-07	-3.847667e-06	-7.032159e-09	-2.660245e+01	-4.619079e+02
5.200000e-07	-3.738501e-06	-6.938494e-09	-2.584768e+01	-4.554929e+02
5.300000e-07	-3.628187e-06	-6.837839e-09	-2.508498e+01	-4.489122e+02
5.400000e-07	-3.516528e-06	-6.722728e-09	-2.431298e+01	-4.421565e+02
5.500000e-07	-3.403336e-06	-6.608591e-09	-2.353038e+01	-4.352167e+02
5.600000e-07	-3.288691e-06	-6.499059e-09	-2.273773e+01	-4.280843e+02
5.700000e-07	-3.172662e-06	-6.394714e-09	-2.193552e+01	-4.207527e+02
5.800000e-07	-3.055294e-06	-6.287554e-09	-2.112405e+01	-4.132174e+02
5.900000e-07	-2.936864e-06	-6.172830e-09	-2.030523e+01	-4.054760e+02
6.000000e-07	-2.817501e-06	-6.047930e-09	-1.947997e+01	-3.975288e+02
6.100000e-07	-2.697041e-06	-5.917830e-09	-1.864712e+01	-3.893773e+02
6.200000e-07	-2.575549e-06	-5.790791e-09	-1.780713e+01	-3.810240e+02
6.300000e-07	-2.453140e-06	-5.659807e-09	-1.696081e+01	-3.724709e+02
6.400000e-07	-2.329716e-06	-5.520665e-09	-1.610746e+01	-3.637184e+02
6.500000e-07	-2.205337e-06	-5.377604e-09	-1.524752e+01	-3.547644e+02
6.600000e-07	-2.080206e-06	-5.236088e-09	-1.438237e+01	-3.456033e+02
6.700000e-07	-1.954467e-06	-5.096021e-09	-1.351302e+01	-3.362257e+02
6.800000e-07	-1.828201e-06	-4.955619e-09	-1.264003e+01	-3.266184e+02
6.900000e-07	-1.701376e-06	-4.807544e-09	-1.176317e+01	-3.167654e+02
7.000000e-07	-1.573858e-06	-4.650330e-09	-1.088152e+01	-3.066485e+02
7.100000e-07	-1.445696e-06	-4.487189e-09	-9.995420e+00	-2.962493e+02
7.200000e-07	-1.317071e-06	-4.322451e-09	-9.106120e+00	-2.855502e+02
7.300000e-07	-1.187998e-06	-4.156490e-09	-8.213717e+00	-2.745366e+02
7.400000e-07	-1.058497e-06	-3.984586e-09	-7.318356e+00	-2.631969e+02
7.500000e-07	-9.286538e-07	-3.804962e-09	-6.420634e+00	-2.515240e+02
7.600000e-07	-7.985588e-07	-3.619247e-09	-5.521169e+00	-2.395146e+02
7.700000e-07	-6.682356e-07	-3.430403e-09	-4.620125e+00	-2.271682e+02
7.800000e-07	-5.376410e-07	-3.239533e-09	-3.717205e+00	-2.144854e+02
7.900000e-07	-4.068363e-07	-3.047505e-09	-2.812832e+00	-2.014658e+02
8.000000e-07	-2.759280e-07	-2.848410e-09	-1.907743e+00	-1.881052e+02
8.100000e-07	-1.448964e-07	-2.639308e-09	-1.001802e+00	-1.743934e+02
8.200000e-07	-1.377267e-08	-2.423144e-09	-9.522306e-02	-1.603122e+02
8.300000e-07	1.173800e-07	-2.201831e-09	8.115553e-01	-1.458342e+02
8.400000e-07	2.485097e-07	-1.973435e-09	1.718175e+00	-1.309230e+02
8.500000e-07	3.795756e-07	-1.736908e-09	2.624354e+00	-1.155348e+02
8.600000e-07	5.105850e-07	-1.493378e-09	3.530142e+00	-9.962082e+01
8.700000e-07	6.414838e-07	-1.240895e-09	4.435165e+00	-8.313189e+01
8.800000e-07	7.721959e-07	-9.811660e-10	5.338898e+00	-6.602339e+01
8.900000e-07	9.026124e-07	-7.147869e-10	6.240587e+00	-4.826104e+01
9.000000e-07	1.032706e-06	-4.387655e-10	7.140040e+00	-2.982661e+01
9.100000e-07	1.162478e-06	-1.492026e-10	8.037275e+00	-1.072311e+01
9.200000e-07	1.291857e-06	1.523298e-10	8.931788e+00	9.021177e+00
9.300000e-07	1.420736e-06	4.612860e-10	9.822848e+00	2.935035e+01
9.400000e-07	1.549083e-06	7.760922e-10	1.071023e+01	5.018050e+01
9.500000e-07	1.676865e-06	1.097523e-09	1.159370e+01	7.140154e+01
9.600000e-07	1.803987e-06	1.425965e-09	1.247261e+01	9.288113e+01
9.700000e-07	1.930443e-06	1.758992e-09	1.334692e+01	1.144705e+02
9.800000e-07	2.056230e-06	2.091842e-09	1.421661e+01	1.360116e+02
9.900000e-07	2.181299e-06	2.420737e-09	1.508132e+01	1.573452e+02
1.000000e-06	2.305580e-06	2.741941e-09	1.594059e+01	1.783193e+02
1.010000e-06	2.429059e-06	3.053033e-09	1.679431e+01	1.987960e+02
1.020000e-06	2.551662e-06	3.353129e-09	1.764198e+01	2.186589e+02
1.030000e-06	2.673261e-06	3.641569e-09	1.848271e+01	2.378168e+02
1.040000e-06	2.793802e-06	3.918525e-09	1.931611e+01	2.562066e+02
1.050000e-06	2.913243e-06	4.181958e-09	2.014192e+01	2.737940e+02
1.060000e-06	3.031659e-06	4.431801e-09	2.096063e+01	2.905709e+02
1.070000e-06	3.149077e-06	4.672080e-09	2.177245e+01	3.065529e+02
1.080000e-06	3.265302e-06	4.901748e-09	2.257603e+01	3.217734e+02
1.090000e-06	3.380218e-06	5.121677e-09	2.337055e+01	3.362784e+02
1.100000e-06	3.493763e-06	5.332810e-09	2.415559e+01	3.501205e+02
1.110000e-06	3.605890e-06	5.537796e-09	2.493082e+01	3.633531e+02
1.120000e-06	3.716723e-06	5.734998e-09	2.569712e+01	3.760262e+02
1.130000e-06	3.826358e-06	5.921248e-09	2.645512e+01	3.881828e+02
1.140000e-06	3.934825e-06	6.098091e-09	2.720505e+01	3.998565e+02
1.150000e-06	4.042035e-06	6.266572e-09	2.794629e+01	4.110717e+02
1.160000e-06	4.147705e-06	6.427462e-09	2.867688e+01	4.218436e+02
1.170000e-06	4.251752e-06	6.582652e-09	2.939626e+01	4.321804e+02
1.180000e-06	4.354302e-06	6.732428e-09	3.010528e+01	4.420857e+02
1.190000e-06	4.455390e-06	6.876471e-09	3.080420e+01	4.515606e+02
1.200000e-06	4.554935e-06	7.014804e-09	3.149244e+01	4.606071e+02
1.210000e-06	4.652695e-06	7.147195e-09	3.216835e+01	4.692296e+02
1.220000e-06	4.748648e-06	7.274783e-09	3.283175e+01	4.774363e+02
1.230000e-06	4.842916e-06	7.394543e-09	3.348352e+01	4.852403e+02
1.240000e-06	4.935577e-06	7.507764e-09	3.412417e+01	4.926591e+02
1.250000e-06	5.026588e-06	7.615741e-09	3.475341e+01	4.997141e+02
1.260000e-06	5.115709e-06	7.719593e-09	3.536959e+01	5.064293e+02
1.270000e-06	5.202926e-06	7.818260e-09	3.597260e+01	5.128296e+02
1.280000e-06	5.288354e-06	7.911568e-09	3.656324e+01	5.189398e+02
1.290000e-06	5.372006e-06	7.999697e-09	3.714160e+01	5.247828e+02
1.300000e-06	5.453748e-06	8.081668e-09	3.770676e+01	5.303790e+02
1.310000e-06	5.533413e-06	8.159576e-09	3.825755e+01	5.357456e+02
1.320000e-06	5.611067e-06	8.236054e-09	3.879445e+01	5.408962e+02
1.330000e-06	5.686615e-06	8.310988e-09	3.931678e+01	5.458418e+02
1.340000e-06	5.759917e-06	8.383834e-09	3.982359e+01	5.505906e+02
1.350000e-06	5.831060e-06	8.453728e-09	4.031546e+01	5.551489e+02
1.360000e-06	5.900175e-06	8.520359e-09	4.079332e+01	5.595218e+02
1.370000e-06	5.967188e-06	8.583998e-09	4.125664e+01	5.637135e+02
1.380000e-06	6.031960e-06	8.643613e-09	4.170446e+01	5.677280e+02
1.390000e-06	6.094631e-06	8.701000e-09	4.213777e+01	5.715688e+02
1.400000e-06	6.155345e-06	8.756621e-09	4.255754e+01	5.752389e+02
1.410000e-06	6.213924e-06	8.809991e-09	4.296255e+01	5.787408e+02
1.420000e-06	6.270257e-06	8.859941e-09	4.335203e+01	5.820757e+02
1.430000e-06	6.324396e-06	8.905734e-09	4.372635e+01	5.852439e+02
1.440000e-06	6.376066e-06	8.950550e-09	4.408359e+01	5.882444e+02
1.450000e-06	6.425068e-06	8.994421e-09	4.442238e+01	5.910748e+02
1.460000e-06	6.471669e-06	9.035751e-09	4.474458e+01	5.937322e+02
1.470000e-06	6.516101e-06	9.072914e-09	4.505178e+01	5.962134e+02
1.480000e-06	6.558203e-06	9.106997e-09	4.534287e+01	5.985156e+02
1.490000e-06	6.597879e-06	9.139152e-09	4.561718e+01	6.006375e+02
1.500000e-06	6.635311e-06	9.167462e-09	4.587598e+01	6.025796e+02
1.510000e-06	6.670519e-06	9.191808e-09	4.611941e+01	6.043446e+02
1.520000e-06	6.703285e-06	9.213494e-09	4.634595e+01	6.059381e+02
1.530000e-06	6.733608e-06	9.232855e-09	4.655560e+01	6.073680e+02
1.540000e-06	6.761762e-06	9.251582e-09	4.675026e+01	6.086443e+02
1.550000e-06	6.787534e-06	9.269294e-09	4.692844e+01	6.097783e+02
1.560000e-06	6.810665e-06	9.284485e-09	4.708837e+01	6.107813e+02
1.570000e-06	6.831434e-06	9.298425e-09	4.723196e+01	6.116640e+02
1.580000e-06	6.849848e-06	9.311089e-09	4.735928e+01	6.124354e+02
1.590000e-06	6.865691e-06	9.321354e-09	4.746882e+01	6.131016e+02
1.600000e-06	6.879002e-06	9.328602e-09	4.756085e+01	6.136658e+02
1.610000e-06	6.889597e-06	9.334172e-09	4.763410e+01	6.141279e+02
1.620000e-06	6.897429e-06	9.338780e-09	4.768825e+01	6.144849e+02
1.630000e-06	6.902828e-06	9.342584e-09	4.772557e+01	6.147317e+02
1.640000e-06	6.905871e-06	9.344868e-09	4.774661e+01	6.148618e+02
1.650000e-06	6.906469e-06	9.347141e-09	4.775075e+01	6.148690e+02
1.660000e-06	6.904697e-06	9.343498e-09	4.773850e+01	6.147479e+02
1.670000e-06	6.900769e-06	9.340792e-09	4.771134e+01	6.144958e+02
1.680000e-06	6.894509e-06	9.336145e-09	4.766806e+01	6.141130e+02
1.690000e-06	6.885963e-06	9.327850e-09	4.760897e+01	6.136033e+02
1.700000e-06	6.875299e-06	9.320207e-09	4.753524e+01	6.129744e+02
1.710000e-06	6.862218e-06	9.314646e-09	4.744480e+01	6.122370e+02
1.720000e-06	6.846710e-06	9.317412e-09	4.733758e+01	6.114041e+02
1.730000e-06	6.829089e-06	9.271692e-09	4.721575e+01	6.104901e+02
1.740000e-06	6.809151e-06	9.217680e-09	4.707790e+01	6.095090e+02
1.750000e-06	6.786061e-06	9.225200e-09	4.691826e+01	6.084732e+02
1.760000e-06	6.759725e-06	9.215596e-09	4.673617e+01	6.073920e+02
1.770000e-06	6.730874e-06	9.195918e-09	4.653670e+01	6.062708e+02
1.780000e-06	6.699968e-06	9.248203e-09	4.632302e+01	6.051103e+02
1.790000e-06	6.667578e-06	9.183174e-09	4.609908e+01	6.039061e+02
1.800000e-06	6.633642e-06	9.132673e-09	4.586445e+01	6.026491e+02
1.810000e-06	6.597156e-06	9.184326e-09	4.561219e+01	6.013259e+02
1.820000e-06	6.558164e-06	9.116188e-09	4.534260e+01	5.999203e+02
1.830000e-06	6.517159e-06	9.154059e-09	4.505909e+01	5.984139e+02
1.840000e-06	6.473997e-06	9.121773e-09	4.476067e+01	5.967882e+02
1.850000e-06	6.428613e-06	9.012011e-09	4.444689e+01	5.950256e+02
1.860000e-06	6.380823e-06	9.044122e-09	4.411648e+01	5.931107e+02
1.870000e-06	6.330655e-06	8.955384e-09	4.376962e+01	5.910316e+02
1.880000e-06	6.278125e-06	8.969431e-09	4.340643e+01	5.887804e+02
1.890000e-06	6.222874e-06	8.994777e-09	4.302443e+01	5.863535e+02
1.900000e-06	6.165209e-06	8.895742e-09	4.262574e+01	5.837518e+02
1.910000e-06	6.105247e-06	8.896927e-09	4.221117e+01	5.809797e+02
1.920000e-06	6.042881e-06	8.795399e-09	4.177998e+01	5.780451e+02
1.930000e-06	5.978387e-06	8.760320e-09	4.133407e+01	5.749579e+02
1.940000e-06	5.911803e-06	8.752810e-09	4.087371e+01	5.717287e+02
1.950000e-06	5.843109e-06	8.683636e-09	4.039877e+01	5.683684e+02
1.960000e-06	5.771987e-06	8.645073e-09	3.990704e+01	5.648863e+02
1.970000e-06	5.698493e-06	8.541303e-09	3.939890e+01	5.612900e+02
1.980000e-06	5.622902e-06	8.518038e-09	3.887627e+01	5.575842e+02
1.990000e-06	5.544994e-06	8.456803e-09	3.833762e+01	5.537708e+02
2.000000e-06	5.464952e-06	8.392488e-09	3.778422e+01	5.498487e+02
2.010000e-06	5.383061e-06	8.342722e-09	3.721803e+01	5.458143e+02
2.020000e-06	5.299398e-06	8.251888e-09	3.663960e+01	5.416620e+02
2.030000e-06	5.213826e-06	8.202937e-09	3.604796e+01	5.373849e+02
2.040000e-06	5.126225e-06	8.130325e-09	3.544229e+01	5.329758e+02
2.050000e-06	5.036876e-06	8.081419e-09	3.482454e+01	5.284278e+02
2.060000e-06	4.946025e-06	7.998610e-09	3.419640e+01	5.237352e+02
2.070000e-06	4.853532e-06	7.912929e-09	3.355691e+01	5.188939e+02
2.080000e-06	4.759169e-06	7.840706e-09	3.290450e+01	5.139017e+02
2.090000e-06	4.663058e-06	7.772811e-09	3.223999e+01	5.087583e+02
2.100000e-06	4.565386e-06	7.710781e-09	3.156470e+01	5.034647e+02
2.110000e-06	4.466256e-06	7.616979e-09	3.087932e+01	4.980232e+02
2.120000e-06	4.365526e-06	7.529124e-09	3.018288e+01	4.924360e+02
2.130000e-06	4.263121e-06	7.424354e-09	2.947486e+01	4.867051e+02
2.140000e-06	4.159132e-06	7.334497e-09	2.875589e+01	4.808312e+02
2.150000e-06	4.053610e-06	7.249239e-09	2.802632e+01	4.748129e+02
2.160000e-06	3.946769e-06	7.167933e-09	2.728763e+01	4.686470e+02
2.170000e-06	3.838552e-06	7.076970e-09	2.653943e+01	4.623280e+02
2.180000e-06	3.728903e-06	6.972778e-09	2.578132e+01	4.558484e+02
2.190000e-06	3.617845e-06	6.871061e-09	2.501348e+01	4.491995e+02
2.200000e-06	3.505422e-06	6.771300e-09	2.423620e+01	4.423719e+02
2.210000e-06	3.391689e-06	6.672199e-09	2.344985e+01	4.353568e+02
2.220000e-06	3.276606e-06	6.553412e-09	2.265418e+01	4.281463e+02
2.230000e-06	3.160059e-06	6.428316e-09	2.184838e+01	4.207345e+02
2.240000e-06	3.042168e-06	6.303842e-09	2.103330e+01	4.131178e+02
2.250000e-06	2.923161e-06	6.191678e-09	2.021049e+01	4.052949e+02
2.260000e-06	2.803020e-06	6.079429e-09	1.937985e+01	3.972666e+02
2.270000e-06	2.681798e-06	5.961418e-09	1.854173e+01	3.890350e+02
2.280000e-06	2.559635e-06	5.835996e-09	1.769710e+01	3.806024e+02
2.290000e-06	2.436691e-06	5.703932e-09	1.684708e+01	3.719705e+02
2.300000e-06	2.312936e-06	5.570151e-09	1.599144e+01	3.631387e+02
2.310000e-06	2.188324e-06	5.438198e-09	1.512989e+01	3.541037e+02
2.320000e-06	2.062913e-06	5.300149e-09	1.426280e+01	3.448583e+02
2.330000e-06	1.936782e-06	5.148202e-09	1.339075e+01	3.353916e+02
2.340000e-06	1.810023e-06	4.989388e-09	1.251435e+01	3.256893e+02
2.350000e-06	1.682617e-06	4.832158e-09	1.163348e+01	3.157342e+02
2.360000e-06	1.554560e-06	4.681756e-09	1.074810e+01	3.055080e+02
2.370000e-06	1.425991e-06	4.528200e-09	9.859180e+00	2.949924e+02
2.380000e-06	1.296963e-06	4.364488e-09	8.967096e+00	2.841708e+02
2.390000e-06	1.167521e-06	4.191960e-09	8.072146e+00	2.730296e+02
2.400000e-06	1.037742e-06	4.015981e-09	7.174861e+00	2.615591e+02
2.410000e-06	9.076725e-07	3.841632e-09	6.275572e+00	2.497536e+02
2.420000e-06	7.773922e-07	3.662077e-09	5.374825e+00	2.376112e+02
2.430000e-06	6.469515e-07	3.470968e-09	4.472969e+00	2.251320e+02
2.440000e-06	5.163212e-07	3.269718e-09	3.569801e+00	2.123165e+02
2.450000e-06	3.855137e-07	3.062301e-09	2.665409e+00	1.991632e+02
2.460000e-06	2.545922e-07	2.854957e-09	1.760229e+00	1.856657e+02
2.470000e-06	1.235393e-07	2.645976e-09	8.541404e-01	1.718108e+02
2.480000e-06	-7.604046e-09	2.431373e-09	-5.257374e-02	1.575769e+02
2.490000e-06	-1.387369e-07	2.207355e-09	-9.592156e-01	1.429330e+02
2.500000e-06	-2.698284e-07	1.971948e-09	-1.865571e+00	1.278394e+02
2.510000e-06	-4.008568e-07	1.729243e-09	-2.771490e+00	1.122500e+02
2.520000e-06	-5.317651e-07	1.483137e-09	-3.676580e+00	9.611536e+01
2.530000e-06	-6.625491e-07	1.230133e-09	-4.580809e+00	7.938734e+01
2.540000e-06	-7.931812e-07	9.663528e-10	-5.483989e+00	6.202472e+01
2.550000e-06	-9.235589e-07	6.902733e-10	-6.385409e+00	4.399887e+01
2.560000e-06	-1.053628e-06	4.036023e-10	-7.284699e+00	2.529934e+01
2.570000e-06	-1.183405e-06	1.103056e-10	-8.181965e+00	5.938665e+00
2.580000e-06	-1.312807e-06	-1.909173e-10	-9.076639e+00	-1.404420e+01
2.590000e-06	-1.441714e-06	-5.025396e-10	-9.967891e+00	-3.458227e+01
2.600000e-06	-1.570102e-06	-8.244515e-10	-1.085555e+01	-5.558103e+01
2.610000e-06	-1.697969e-06	-1.153877e-09	-1.173961e+01	-7.692105e+01
2.620000e-06	-1.825239e-06	-1.485711e-09	-1.261955e+01	-9.846275e+01
2.630000e-06	-1.951761e-06	-1.816532e-09	-1.349431e+01	-1.200528e+02
2.640000e-06	-2.077435e-06	-2.146012e-09	-1.436321e+01	-1.415317e+02
2.650000e-06	-2.202301e-06	-2.471346e-09	-1.522653e+01	-1.627422e+02
2.660000e-06	-2.326324e-06	-2.789908e-09	-1.608401e+01	-1.835368e+02
2.670000e-06	-2.449398e-06	-3.097147e-09	-1.693493e+01	-2.037856e+02
2.680000e-06	-2.571543e-06	-3.391083e-09	-1.777943e+01	-2.233814e+02
2.690000e-06	-2.692754e-06	-3.675828e-09	-1.861747e+01	-2.422440e+02
2.700000e-06	-2.812958e-06	-3.953194e-09	-1.944856e+01	-2.603218e+02
2.710000e-06	-2.932134e-06	-4.220486e-09	-2.027253e+01	-2.775909e+02
2.720000e-06	-3.050186e-06	-4.474436e-09	-2.108873e+01	-2.940531e+02
2.730000e-06	-3.167009e-06	-4.716026e-09	-2.189644e+01	-3.097317e+02
2.740000e-06	-3.282492e-06	-4.945939e-09	-2.269488e+01	-3.246657e+02
2.750000e-06	-3.396652e-06	-5.166218e-09	-2.348417e+01	-3.389044e+02
2.760000e-06	-3.509467e-06	-5.379828e-09	-2.426416e+01	-3.525013e+02
2.770000e-06	-3.620851e-06	-5.583180e-09	-2.503426e+01	-3.655091e+02
2.780000e-06	-3.730917e-06	-5.774668e-09	-2.579525e+01	-3.779752e+02
2.790000e-06	-3.839712e-06	-5.955011e-09	-2.654745e+01	-3.899392e+02
2.800000e-06	-3.947264e-06	-6.128686e-09	-2.729105e+01	-4.014310e+02
2.810000e-06	-4.053502e-06	-6.298013e-09	-2.802558e+01	-4.124712e+02
2.820000e-06	-4.158362e-06	-6.460539e-09	-2.875057e+01	-4.230721e+02
2.830000e-06	-4.261758e-06	-6.614781e-09	-2.946544e+01	-4.332397e+02
2.840000e-06	-4.363526e-06	-6.761370e-09	-3.016905e+01	-4.429763e+02
2.850000e-06	-4.463689e-06	-6.901695e-09	-3.086157e+01	-4.522832e+02
2.860000e-06	-4.562334e-06	-7.035022e-09	-3.154360e+01	-4.611629e+02
2.870000e-06	-4.659440e-06	-7.164113e-09	-3.221498e+01	-4.696214e+02
2.880000e-06	-4.754913e-06	-7.287803e-09	-3.287507e+01	-4.776686e+02
2.890000e-06	-4.848601e-06	-7.405958e-09	-3.352282e+01	-4.853196e+02
2.900000e-06	-4.940557e-06	-7.520260e-09	-3.415860e+01	-4.925933e+02
2.910000e-06	-5.030801e-06	-7.630057e-09	-3.478254e+01	-4.995124e+02
2.920000e-06	-5.119219e-06	-7.733828e-09	-3.539385e+01	-5.061015e+02
2.930000e-06	-5.205696e-06	-7.828560e-09	-3.599175e+01	-5.123855e+02
2.940000e-06	-5.290178e-06	-7.917641e-09	-3.657585e+01	-5.183887e+02
