# Temperatura_=_60.12
# Concentracion g/m^3_=_15000.0
# C_Vs_to_Am_M_A/Vsm_=_65563218390.804596
# pendiente_HvsI_1/m_=_3716.3
# ordenada_HvsI_A/m_=_1297.0
# frecuencia_Hz_=_301894.521816197

Tiempo_(s)	Campo_(V.s)	Magnetizacion_(V.s)	Campo_(kA/m)	Magnetizacion_(A/m)
0.000000e+00	-6.830543e-06	-9.263969e-09	-4.750332e+01	-6.055774e+02
1.000000e-08	-6.827439e-06	-9.258778e-09	-4.748173e+01	-6.053185e+02
2.000000e-08	-6.822132e-06	-9.254971e-09	-4.744482e+01	-6.049314e+02
3.000000e-08	-6.814732e-06	-9.250474e-09	-4.739336e+01	-6.044243e+02
4.000000e-08	-6.804998e-06	-9.242944e-09	-4.732566e+01	-6.038086e+02
5.000000e-08	-6.792725e-06	-9.233031e-09	-4.724031e+01	-6.030980e+02
6.000000e-08	-6.777930e-06	-9.215741e-09	-4.713742e+01	-6.023070e+02
7.000000e-08	-6.760821e-06	-9.197759e-09	-4.701843e+01	-6.014496e+02
8.000000e-08	-6.741583e-06	-9.204459e-09	-4.688464e+01	-6.005377e+02
9.000000e-08	-6.719945e-06	-9.192960e-09	-4.673416e+01	-5.995800e+02
1.000000e-07	-6.695503e-06	-9.174537e-09	-4.656417e+01	-5.985805e+02
1.100000e-07	-6.668388e-06	-9.161550e-09	-4.637560e+01	-5.975390e+02
1.200000e-07	-6.638963e-06	-9.135186e-09	-4.617097e+01	-5.964500e+02
1.300000e-07	-6.607552e-06	-9.076550e-09	-4.595252e+01	-5.953042e+02
1.400000e-07	-6.574257e-06	-9.059389e-09	-4.572097e+01	-5.940884e+02
1.500000e-07	-6.539004e-06	-9.050371e-09	-4.547579e+01	-5.927877e+02
1.600000e-07	-6.501702e-06	-9.005640e-09	-4.521638e+01	-5.913858e+02
1.700000e-07	-6.462329e-06	-9.032249e-09	-4.494256e+01	-5.898673e+02
1.800000e-07	-6.420639e-06	-8.973708e-09	-4.465262e+01	-5.882179e+02
1.900000e-07	-6.376394e-06	-8.927635e-09	-4.434492e+01	-5.864260e+02
2.000000e-07	-6.329812e-06	-8.917264e-09	-4.402096e+01	-5.844830e+02
2.100000e-07	-6.280789e-06	-8.882655e-09	-4.368003e+01	-5.823838e+02
2.200000e-07	-6.229115e-06	-8.897149e-09	-4.332066e+01	-5.801263e+02
2.300000e-07	-6.174894e-06	-8.824336e-09	-4.294358e+01	-5.777115e+02
2.400000e-07	-6.118263e-06	-8.742759e-09	-4.254974e+01	-5.751428e+02
2.500000e-07	-6.059346e-06	-8.719805e-09	-4.213999e+01	-5.724252e+02
2.600000e-07	-5.998226e-06	-8.676310e-09	-4.171493e+01	-5.695651e+02
2.700000e-07	-5.934990e-06	-8.638916e-09	-4.127515e+01	-5.665689e+02
2.800000e-07	-5.869599e-06	-8.596317e-09	-4.082039e+01	-5.634430e+02
2.900000e-07	-5.801900e-06	-8.532210e-09	-4.034958e+01	-5.601932e+02
3.000000e-07	-5.731997e-06	-8.448454e-09	-3.986343e+01	-5.568242e+02
3.100000e-07	-5.660033e-06	-8.423342e-09	-3.936295e+01	-5.533395e+02
3.200000e-07	-5.585880e-06	-8.420471e-09	-3.884725e+01	-5.497412e+02
3.300000e-07	-5.509395e-06	-8.340668e-09	-3.831533e+01	-5.460298e+02
3.400000e-07	-5.430679e-06	-8.264104e-09	-3.776790e+01	-5.422048e+02
3.500000e-07	-5.349899e-06	-8.194914e-09	-3.720611e+01	-5.382639e+02
3.600000e-07	-5.267202e-06	-8.140594e-09	-3.663099e+01	-5.342041e+02
3.700000e-07	-5.182764e-06	-8.094114e-09	-3.604376e+01	-5.300213e+02
3.800000e-07	-5.096608e-06	-8.031722e-09	-3.544459e+01	-5.257108e+02
3.900000e-07	-5.008750e-06	-7.953793e-09	-3.483358e+01	-5.212676e+02
4.000000e-07	-4.919139e-06	-7.856829e-09	-3.421037e+01	-5.166869e+02
4.100000e-07	-4.827730e-06	-7.782194e-09	-3.357467e+01	-5.119644e+02
4.200000e-07	-4.734709e-06	-7.730107e-09	-3.292775e+01	-5.070963e+02
4.300000e-07	-4.640080e-06	-7.667351e-09	-3.226964e+01	-5.020800e+02
4.400000e-07	-4.543754e-06	-7.575032e-09	-3.159974e+01	-4.969140e+02
4.500000e-07	-4.445705e-06	-7.480959e-09	-3.091786e+01	-4.915979e+02
4.600000e-07	-4.345984e-06	-7.399986e-09	-3.022434e+01	-4.861320e+02
4.700000e-07	-4.244769e-06	-7.317517e-09	-2.952043e+01	-4.805170e+02
4.800000e-07	-4.142112e-06	-7.242649e-09	-2.880650e+01	-4.747539e+02
4.900000e-07	-4.038038e-06	-7.154947e-09	-2.808272e+01	-4.688431e+02
5.000000e-07	-3.932459e-06	-7.044488e-09	-2.734846e+01	-4.627837e+02
5.100000e-07	-3.825286e-06	-6.939716e-09	-2.660312e+01	-4.565737e+02
5.200000e-07	-3.716721e-06	-6.853474e-09	-2.584810e+01	-4.502095e+02
5.300000e-07	-3.606968e-06	-6.763288e-09	-2.508482e+01	-4.436858e+02
5.400000e-07	-3.495909e-06	-6.651941e-09	-2.431245e+01	-4.369960e+02
5.500000e-07	-3.383416e-06	-6.534579e-09	-2.353012e+01	-4.301325e+02
5.600000e-07	-3.269523e-06	-6.419904e-09	-2.273805e+01	-4.230876e+02
5.700000e-07	-3.154210e-06	-6.311330e-09	-2.193609e+01	-4.158540e+02
5.800000e-07	-3.037576e-06	-6.209639e-09	-2.112496e+01	-4.084254e+02
5.900000e-07	-2.919820e-06	-6.104724e-09	-2.030602e+01	-4.007972e+02
6.000000e-07	-2.801045e-06	-5.978497e-09	-1.947999e+01	-3.929664e+02
6.100000e-07	-2.681285e-06	-5.839842e-09	-1.864712e+01	-3.849317e+02
6.200000e-07	-2.560584e-06	-5.710985e-09	-1.780769e+01	-3.766930e+02
6.300000e-07	-2.438874e-06	-5.589003e-09	-1.696126e+01	-3.682507e+02
6.400000e-07	-2.316178e-06	-5.460427e-09	-1.610796e+01	-3.596047e+02
6.500000e-07	-2.192591e-06	-5.322468e-09	-1.524847e+01	-3.507533e+02
6.600000e-07	-2.068194e-06	-5.181564e-09	-1.438335e+01	-3.416924e+02
6.700000e-07	-1.943176e-06	-5.039339e-09	-1.351391e+01	-3.324150e+02
6.800000e-07	-1.817634e-06	-4.894922e-09	-1.264082e+01	-3.229105e+02
6.900000e-07	-1.691461e-06	-4.749149e-09	-1.176334e+01	-3.131652e+02
7.000000e-07	-1.564603e-06	-4.596561e-09	-1.088110e+01	-3.031630e+02
7.100000e-07	-1.437194e-06	-4.433081e-09	-9.995032e+00	-2.928866e+02
7.200000e-07	-1.309332e-06	-4.267268e-09	-9.105809e+00	-2.823183e+02
7.300000e-07	-1.181084e-06	-4.103850e-09	-8.213899e+00	-2.714423e+02
7.400000e-07	-1.052474e-06	-3.936910e-09	-7.319478e+00	-2.602454e+02
7.500000e-07	-9.235017e-07	-3.762939e-09	-6.422534e+00	-2.487178e+02
7.600000e-07	-7.942273e-07	-3.579705e-09	-5.523489e+00	-2.368537e+02
7.700000e-07	-6.647385e-07	-3.391198e-09	-4.622954e+00	-2.246507e+02
7.800000e-07	-5.350077e-07	-3.199648e-09	-3.720735e+00	-2.121085e+02
7.900000e-07	-4.050039e-07	-3.007420e-09	-2.816618e+00	-1.992267e+02
8.000000e-07	-2.748074e-07	-2.811954e-09	-1.911160e+00	-1.860030e+02
8.100000e-07	-1.445283e-07	-2.606283e-09	-1.005128e+00	-1.724307e+02
8.200000e-07	-1.417261e-08	-2.390689e-09	-9.856407e-02	-1.584959e+02
8.300000e-07	1.162638e-07	-2.168834e-09	8.085619e-01	-1.441766e+02
8.400000e-07	2.466664e-07	-1.944547e-09	1.715453e+00	-1.294422e+02
8.500000e-07	3.769938e-07	-1.715267e-09	2.621820e+00	-1.142539e+02
8.600000e-07	5.071877e-07	-1.477836e-09	3.527260e+00	-9.856716e+01
8.700000e-07	6.371679e-07	-1.229840e-09	4.431213e+00	-8.233525e+01
8.800000e-07	7.669247e-07	-9.722089e-10	5.333612e+00	-6.551406e+01
8.900000e-07	8.964476e-07	-7.083733e-10	6.234385e+00	-4.806760e+01
9.000000e-07	1.025639e-06	-4.374413e-10	7.132855e+00	-2.997378e+01
9.100000e-07	1.154523e-06	-1.558449e-10	8.029181e+00	-1.122985e+01
9.200000e-07	1.283089e-06	1.371857e-10	8.923299e+00	8.143116e+00
9.300000e-07	1.411183e-06	4.409383e-10	9.814138e+00	2.809726e+01
9.400000e-07	1.538754e-06	7.531761e-10	1.070133e+01	4.855695e+01
9.500000e-07	1.665764e-06	1.071039e-09	1.158463e+01	6.941996e+01
9.600000e-07	1.792233e-06	1.393211e-09	1.246416e+01	9.056088e+01
9.700000e-07	1.918012e-06	1.719480e-09	1.333890e+01	1.118365e+02
9.800000e-07	2.043078e-06	2.048194e-09	1.420867e+01	1.330928e+02
9.900000e-07	2.167588e-06	2.374775e-09	1.507459e+01	1.541730e+02
1.000000e-06	2.291361e-06	2.693084e-09	1.593538e+01	1.749257e+02
1.010000e-06	2.414124e-06	3.000488e-09	1.678914e+01	1.952125e+02
1.020000e-06	2.535913e-06	3.298122e-09	1.763612e+01	2.149152e+02
1.030000e-06	2.656866e-06	3.585469e-09	1.847729e+01	2.339401e+02
1.040000e-06	2.776792e-06	3.861124e-09	1.931132e+01	2.522213e+02
1.050000e-06	2.895575e-06	4.123783e-09	2.013741e+01	2.697209e+02
1.060000e-06	3.013320e-06	4.371831e-09	2.095627e+01	2.864279e+02
1.070000e-06	3.130040e-06	4.610163e-09	2.176800e+01	3.023541e+02
1.080000e-06	3.245478e-06	4.839008e-09	2.257082e+01	3.175299e+02
1.090000e-06	3.359532e-06	5.060566e-09	2.336402e+01	3.319980e+02
1.100000e-06	3.472378e-06	5.273815e-09	2.414881e+01	3.458079e+02
1.110000e-06	3.583958e-06	5.477893e-09	2.492480e+01	3.590104e+02
1.120000e-06	3.694248e-06	5.670870e-09	2.569181e+01	3.716525e+02
1.130000e-06	3.803358e-06	5.853389e-09	2.645063e+01	3.837748e+02
1.140000e-06	3.911232e-06	6.030912e-09	2.720084e+01	3.954094e+02
1.150000e-06	4.017704e-06	6.201003e-09	2.794130e+01	4.065790e+02
1.160000e-06	4.122716e-06	6.361141e-09	2.867161e+01	4.172985e+02
1.170000e-06	4.226198e-06	6.514598e-09	2.939129e+01	4.275765e+02
1.180000e-06	4.328154e-06	6.662353e-09	3.010034e+01	4.374176e+02
1.190000e-06	4.428658e-06	6.804728e-09	3.079930e+01	4.468251e+02
1.200000e-06	4.527589e-06	6.943469e-09	3.148732e+01	4.558036e+02
1.210000e-06	4.624756e-06	7.074793e-09	3.216307e+01	4.643602e+02
1.220000e-06	4.720140e-06	7.199794e-09	3.282642e+01	4.725064e+02
1.230000e-06	4.813898e-06	7.317451e-09	3.347847e+01	4.802578e+02
1.240000e-06	4.906127e-06	7.431184e-09	3.411988e+01	4.876339e+02
1.250000e-06	4.996613e-06	7.540458e-09	3.474917e+01	4.946573e+02
1.260000e-06	5.085207e-06	7.643412e-09	3.536530e+01	5.013520e+02
1.270000e-06	5.171966e-06	7.740743e-09	3.596867e+01	5.077421e+02
1.280000e-06	5.256959e-06	7.832372e-09	3.655976e+01	5.138503e+02
1.290000e-06	5.340127e-06	7.920012e-09	3.713815e+01	5.196971e+02
1.300000e-06	5.421299e-06	8.003180e-09	3.770267e+01	5.252997e+02
1.310000e-06	5.500447e-06	8.082557e-09	3.825310e+01	5.306722e+02
1.320000e-06	5.577587e-06	8.159275e-09	3.878958e+01	5.358256e+02
1.330000e-06	5.652676e-06	8.234141e-09	3.931179e+01	5.407686e+02
1.340000e-06	5.725525e-06	8.307457e-09	3.981842e+01	5.455077e+02
1.350000e-06	5.796204e-06	8.377616e-09	4.030996e+01	5.500489e+02
1.360000e-06	5.864900e-06	8.444183e-09	4.078771e+01	5.543974e+02
1.370000e-06	5.931528e-06	8.507053e-09	4.125108e+01	5.585582e+02
1.380000e-06	5.995994e-06	8.565323e-09	4.169941e+01	5.625364e+02
1.390000e-06	6.058331e-06	8.621609e-09	4.213293e+01	5.663368e+02
1.400000e-06	6.118679e-06	8.677591e-09	4.255263e+01	5.699637e+02
1.410000e-06	6.176955e-06	8.731615e-09	4.295791e+01	5.734203e+02
1.420000e-06	6.232982e-06	8.783249e-09	4.334755e+01	5.767084e+02
1.430000e-06	6.286782e-06	8.831345e-09	4.372171e+01	5.798281e+02
1.440000e-06	6.338151e-06	8.875971e-09	4.407895e+01	5.827780e+02
1.450000e-06	6.386870e-06	8.917314e-09	4.441777e+01	5.855555e+02
1.460000e-06	6.433177e-06	8.953879e-09	4.473982e+01	5.881571e+02
1.470000e-06	6.477383e-06	8.986148e-09	4.504725e+01	5.905798e+02
1.480000e-06	6.519332e-06	9.017647e-09	4.533899e+01	5.928214e+02
1.490000e-06	6.558839e-06	9.049798e-09	4.561374e+01	5.948817e+02
1.500000e-06	6.596080e-06	9.080346e-09	4.587273e+01	5.967629e+02
1.510000e-06	6.631085e-06	9.106953e-09	4.611618e+01	5.984700e+02
1.520000e-06	6.663655e-06	9.129647e-09	4.634269e+01	6.000109e+02
1.530000e-06	6.693832e-06	9.149270e-09	4.655255e+01	6.013956e+02
1.540000e-06	6.721822e-06	9.168017e-09	4.674721e+01	6.026356e+02
1.550000e-06	6.747390e-06	9.185539e-09	4.692503e+01	6.037426e+02
1.560000e-06	6.770425e-06	9.200309e-09	4.708523e+01	6.047277e+02
1.570000e-06	6.791122e-06	9.212348e-09	4.722916e+01	6.055997e+02
1.580000e-06	6.809421e-06	9.222452e-09	4.735643e+01	6.063648e+02
1.590000e-06	6.825199e-06	9.231521e-09	4.746615e+01	6.070257e+02
1.600000e-06	6.838442e-06	9.240212e-09	4.755825e+01	6.075817e+02
1.610000e-06	6.849004e-06	9.248516e-09	4.763170e+01	6.080294e+02
1.620000e-06	6.856848e-06	9.254706e-09	4.768625e+01	6.083627e+02
1.630000e-06	6.862283e-06	9.257883e-09	4.772405e+01	6.085753e+02
1.640000e-06	6.865427e-06	9.259401e-09	4.774592e+01	6.086606e+02
1.650000e-06	6.866122e-06	9.260657e-09	4.775075e+01	6.086143e+02
1.660000e-06	6.864442e-06	9.258013e-09	4.773907e+01	6.084348e+02
1.670000e-06	6.860605e-06	9.256206e-09	4.771238e+01	6.081239e+02
1.680000e-06	6.854447e-06	9.248727e-09	4.766956e+01	6.076877e+02
1.690000e-06	6.845966e-06	9.239225e-09	4.761058e+01	6.071356e+02
1.700000e-06	6.835365e-06	9.231452e-09	4.753685e+01	6.064800e+02
1.710000e-06	6.822424e-06	9.225792e-09	4.744685e+01	6.057352e+02
1.720000e-06	6.807048e-06	9.223025e-09	4.733992e+01	6.049157e+02
1.730000e-06	6.789528e-06	9.181643e-09	4.721808e+01	6.040348e+02
1.740000e-06	6.769684e-06	9.165868e-09	4.708007e+01	6.031033e+02
1.750000e-06	6.746745e-06	9.154356e-09	4.692054e+01	6.021280e+02
1.760000e-06	6.720626e-06	9.122924e-09	4.673890e+01	6.011115e+02
1.770000e-06	6.692005e-06	9.117599e-09	4.653985e+01	6.000514e+02
1.780000e-06	6.661351e-06	9.133220e-09	4.632666e+01	5.989406e+02
1.790000e-06	6.629119e-06	9.085675e-09	4.610251e+01	5.977681e+02
1.800000e-06	6.595346e-06	9.109973e-09	4.586763e+01	5.965200e+02
1.810000e-06	6.559263e-06	9.085999e-09	4.561669e+01	5.951806e+02
1.820000e-06	6.520739e-06	9.035022e-09	4.534877e+01	5.937339e+02
1.830000e-06	6.480028e-06	9.084276e-09	4.506564e+01	5.921646e+02
1.840000e-06	6.437036e-06	8.998246e-09	4.476666e+01	5.904596e+02
1.850000e-06	6.391890e-06	8.990107e-09	4.445269e+01	5.886084e+02
1.860000e-06	6.344385e-06	8.957421e-09	4.412231e+01	5.866036e+02
1.870000e-06	6.294533e-06	8.841254e-09	4.377561e+01	5.844414e+02
1.880000e-06	6.242344e-06	8.875233e-09	4.341266e+01	5.821210e+02
1.890000e-06	6.187401e-06	8.841506e-09	4.303056e+01	5.796444e+02
1.900000e-06	6.130055e-06	8.825267e-09	4.263174e+01	5.770157e+02
1.910000e-06	6.070548e-06	8.807395e-09	4.221790e+01	5.742405e+02
1.920000e-06	6.008672e-06	8.687908e-09	4.178758e+01	5.713252e+02
1.930000e-06	5.944544e-06	8.662927e-09	4.134160e+01	5.682765e+02
1.940000e-06	5.878372e-06	8.623493e-09	4.088140e+01	5.651005e+02
1.950000e-06	5.810070e-06	8.609132e-09	4.040639e+01	5.618025e+02
1.960000e-06	5.739330e-06	8.528355e-09	3.991443e+01	5.583869e+02
1.970000e-06	5.666322e-06	8.443729e-09	3.940669e+01	5.548565e+02
1.980000e-06	5.591214e-06	8.409461e-09	3.888435e+01	5.512129e+02
1.990000e-06	5.513908e-06	8.334164e-09	3.834672e+01	5.474562e+02
2.000000e-06	5.434489e-06	8.322174e-09	3.779439e+01	5.435851e+02
2.010000e-06	5.353080e-06	8.250022e-09	3.722824e+01	5.395971e+02
2.020000e-06	5.269861e-06	8.167380e-09	3.664948e+01	5.354887e+02
2.030000e-06	5.184795e-06	8.087859e-09	3.605789e+01	5.312554e+02
2.040000e-06	5.097763e-06	8.019280e-09	3.545262e+01	5.268925e+02
2.050000e-06	5.008922e-06	7.987876e-09	3.483477e+01	5.223951e+02
2.060000e-06	4.918467e-06	7.917183e-09	3.420570e+01	5.177583e+02
2.070000e-06	4.826404e-06	7.844760e-09	3.356544e+01	5.129781e+02
2.080000e-06	4.732594e-06	7.749412e-09	3.291303e+01	5.080512e+02
2.090000e-06	4.637046e-06	7.670377e-09	3.224855e+01	5.029754e+02
2.100000e-06	4.539917e-06	7.594051e-09	3.157306e+01	4.977496e+02
2.110000e-06	4.441301e-06	7.534116e-09	3.088723e+01	4.923736e+02
2.120000e-06	4.341174e-06	7.455821e-09	3.019089e+01	4.868482e+02
2.130000e-06	4.239446e-06	7.342892e-09	2.948342e+01	4.811741e+02
2.140000e-06	4.136087e-06	7.245097e-09	2.876461e+01	4.753521e+02
2.150000e-06	4.031193e-06	7.157595e-09	2.803511e+01	4.693822e+02
2.160000e-06	3.924935e-06	7.086028e-09	2.729614e+01	4.632632e+02
2.170000e-06	3.817308e-06	6.995903e-09	2.654764e+01	4.569923e+02
2.180000e-06	3.708369e-06	6.892142e-09	2.579002e+01	4.505653e+02
2.190000e-06	3.598047e-06	6.780859e-09	2.502278e+01	4.439763e+02
2.200000e-06	3.486302e-06	6.684628e-09	2.424564e+01	4.372183e+02
2.210000e-06	3.373208e-06	6.594628e-09	2.345913e+01	4.302837e+02
2.220000e-06	3.258758e-06	6.492205e-09	2.266318e+01	4.231646e+02
2.230000e-06	3.142962e-06	6.364459e-09	2.185787e+01	4.158542e+02
2.240000e-06	3.025924e-06	6.232063e-09	2.104392e+01	4.083468e+02
2.250000e-06	2.907704e-06	6.114861e-09	2.022175e+01	4.006384e+02
2.260000e-06	2.788268e-06	6.004555e-09	1.939114e+01	3.927267e+02
2.270000e-06	2.667760e-06	5.899014e-09	1.855305e+01	3.846110e+02
2.280000e-06	2.546319e-06	5.778629e-09	1.770849e+01	3.762915e+02
2.290000e-06	2.424048e-06	5.641098e-09	1.685815e+01	3.677683e+02
2.300000e-06	2.300921e-06	5.496429e-09	1.600186e+01	3.590411e+02
2.310000e-06	2.177008e-06	5.364775e-09	1.514010e+01	3.501072e+02
2.320000e-06	2.052402e-06	5.239383e-09	1.427352e+01	3.409615e+02
2.330000e-06	1.927134e-06	5.099079e-09	1.340234e+01	3.315954e+02
2.340000e-06	1.801211e-06	4.938807e-09	1.252661e+01	3.219972e+02
2.350000e-06	1.674593e-06	4.777131e-09	1.164603e+01	3.121522e+02
2.360000e-06	1.547366e-06	4.624507e-09	1.076123e+01	3.020436e+02
2.370000e-06	1.419597e-06	4.475641e-09	9.872650e+00	2.916537e+02
2.380000e-06	1.291353e-06	4.321018e-09	8.980772e+00	2.809654e+02
2.390000e-06	1.162680e-06	4.150900e-09	8.085910e+00	2.699639e+02
2.400000e-06	1.033574e-06	3.970993e-09	7.188037e+00	2.586371e+02
2.410000e-06	9.041554e-07	3.792694e-09	6.287989e+00	2.469770e+02
2.420000e-06	7.745143e-07	3.617126e-09	5.386394e+00	2.349791e+02
2.430000e-06	6.447221e-07	3.435101e-09	4.483749e+00	2.226420e+02
2.440000e-06	5.147962e-07	3.238201e-09	3.580173e+00	2.099655e+02
2.450000e-06	3.846713e-07	3.028596e-09	2.675214e+00	1.969491e+02
2.460000e-06	2.543425e-07	2.818916e-09	1.768836e+00	1.835887e+02
2.470000e-06	1.239276e-07	2.612775e-09	8.618603e-01	1.698752e+02
2.480000e-06	-6.522895e-09	2.405096e-09	-4.536377e-02	1.557916e+02
2.490000e-06	-1.370193e-07	2.187981e-09	-9.529065e-01	1.413126e+02
2.500000e-06	-2.674930e-07	1.953999e-09	-1.860292e+00	1.264040e+02
2.510000e-06	-3.978978e-07	1.709295e-09	-2.767198e+00	1.110246e+02
2.520000e-06	-5.281618e-07	1.463804e-09	-3.673125e+00	9.512834e+01
2.530000e-06	-6.582576e-07	1.216137e-09	-4.577882e+00	7.866902e+01
2.540000e-06	-7.881701e-07	9.605039e-10	-5.481364e+00	6.160499e+01
2.550000e-06	-9.178514e-07	6.882607e-10	-6.383239e+00	4.390504e+01
2.560000e-06	-1.047261e-06	4.008957e-10	-7.283226e+00	2.555406e+01
2.570000e-06	-1.176375e-06	1.105025e-10	-8.181150e+00	6.558208e+00
2.580000e-06	-1.305163e-06	-1.816516e-10	-9.076816e+00	-1.305117e+01
2.590000e-06	-1.433500e-06	-4.814595e-10	-9.969342e+00	-3.321531e+01
2.600000e-06	-1.561203e-06	-7.946118e-10	-1.085745e+01	-5.384787e+01
2.610000e-06	-1.688189e-06	-1.121536e-09	-1.174059e+01	-7.483699e+01
2.620000e-06	-1.814474e-06	-1.454216e-09	-1.261884e+01	-9.604953e+01
2.630000e-06	-1.940116e-06	-1.782274e-09	-1.349262e+01	-1.173371e+02
2.640000e-06	-2.065055e-06	-2.104564e-09	-1.436152e+01	-1.385437e+02
2.650000e-06	-2.189169e-06	-2.423864e-09	-1.522467e+01	-1.595136e+02
2.660000e-06	-2.312383e-06	-2.740384e-09	-1.608157e+01	-1.800996e+02
2.670000e-06	-2.434668e-06	-3.047064e-09	-1.693201e+01	-2.001706e+02
2.680000e-06	-2.556125e-06	-3.338852e-09	-1.777669e+01	-2.196176e+02
2.690000e-06	-2.676740e-06	-3.620274e-09	-1.861551e+01	-2.383574e+02
2.700000e-06	-2.796274e-06	-3.893928e-09	-1.944681e+01	-2.563354e+02
2.710000e-06	-2.914636e-06	-4.160911e-09	-2.026997e+01	-2.735244e+02
2.720000e-06	-3.031909e-06	-4.418010e-09	-2.108555e+01	-2.899229e+02
2.730000e-06	-3.148003e-06	-4.659626e-09	-2.189293e+01	-3.055508e+02
2.740000e-06	-3.262821e-06	-4.886832e-09	-2.269143e+01	-3.204438e+02
2.750000e-06	-3.376246e-06	-5.104734e-09	-2.348025e+01	-3.346481e+02
2.760000e-06	-3.488295e-06	-5.315683e-09	-2.425950e+01	-3.482143e+02
2.770000e-06	-3.599019e-06	-5.518264e-09	-2.502954e+01	-3.611921e+02
2.780000e-06	-3.708478e-06	-5.711708e-09	-2.579078e+01	-3.736265e+02
2.790000e-06	-3.816770e-06	-5.894938e-09	-2.654390e+01	-3.855548e+02
2.800000e-06	-3.923828e-06	-6.068316e-09	-2.728844e+01	-3.970052e+02
2.810000e-06	-4.029603e-06	-6.233344e-09	-2.802405e+01	-4.079975e+02
2.820000e-06	-4.133921e-06	-6.392903e-09	-2.874954e+01	-4.185436e+02
2.830000e-06	-4.236612e-06	-6.547301e-09	-2.946370e+01	-4.286504e+02
2.840000e-06	-4.337705e-06	-6.694022e-09	-3.016676e+01	-4.383216e+02
2.850000e-06	-4.437261e-06	-6.832621e-09	-3.085913e+01	-4.475608e+02
2.860000e-06	-4.535352e-06	-6.964908e-09	-3.154131e+01	-4.563733e+02
2.870000e-06	-4.631959e-06	-7.094437e-09	-3.221317e+01	-4.647680e+02
2.880000e-06	-4.726834e-06	-7.219371e-09	-3.287297e+01	-4.727578e+02
2.890000e-06	-4.819946e-06	-7.339526e-09	-3.352053e+01	-4.803601e+02
2.900000e-06	-4.911413e-06	-7.453993e-09	-3.415664e+01	-4.875957e+02
2.910000e-06	-5.001180e-06	-7.559914e-09	-3.478093e+01	-4.944879e+02
2.920000e-06	-5.089129e-06	-7.660235e-09	-3.539258e+01	-5.010609e+02
2.930000e-06	-5.175152e-06	-7.756155e-09	-3.599082e+01	-5.073385e+02
2.940000e-06	-5.259256e-06	-7.848198e-09	-3.657573e+01	-5.133427e+02
