# Temperatura_=_69.65
# Concentracion g/m^3_=_15000.0
# C_Vs_to_Am_M_A/Vsm_=_65563218390.804596
# pendiente_HvsI_1/m_=_3716.3
# ordenada_HvsI_A/m_=_1297.0
# frecuencia_Hz_=_301899.37207090424

Tiempo_(s)	Campo_(V.s)	Magnetizacion_(V.s)	Campo_(kA/m)	Magnetizacion_(A/m)
0.000000e+00	-6.842369e-06	-9.985192e-09	-4.749860e+01	-6.524619e+02
1.000000e-08	-6.839572e-06	-9.977122e-09	-4.747918e+01	-6.521621e+02
2.000000e-08	-6.834554e-06	-9.973775e-09	-4.744434e+01	-6.517187e+02
3.000000e-08	-6.827421e-06	-9.968879e-09	-4.739483e+01	-6.511393e+02
4.000000e-08	-6.817961e-06	-9.960095e-09	-4.732916e+01	-6.504354e+02
5.000000e-08	-6.806028e-06	-9.950084e-09	-4.724632e+01	-6.496215e+02
6.000000e-08	-6.791636e-06	-9.935551e-09	-4.714641e+01	-6.487135e+02
7.000000e-08	-6.774865e-06	-9.926215e-09	-4.702999e+01	-6.477275e+02
8.000000e-08	-6.755886e-06	-9.915970e-09	-4.689824e+01	-6.466774e+02
9.000000e-08	-6.734593e-06	-9.862065e-09	-4.675043e+01	-6.455740e+02
1.000000e-07	-6.710576e-06	-9.864049e-09	-4.658371e+01	-6.444233e+02
1.100000e-07	-6.683777e-06	-9.875496e-09	-4.639767e+01	-6.432264e+02
1.200000e-07	-6.654567e-06	-9.830182e-09	-4.619491e+01	-6.419789e+02
1.300000e-07	-6.623305e-06	-9.800471e-09	-4.597789e+01	-6.406717e+02
1.400000e-07	-6.590178e-06	-9.816192e-09	-4.574792e+01	-6.392914e+02
1.500000e-07	-6.555154e-06	-9.699284e-09	-4.550479e+01	-6.378219e+02
1.600000e-07	-6.518044e-06	-9.671698e-09	-4.524718e+01	-6.362458e+02
1.700000e-07	-6.478869e-06	-9.746563e-09	-4.497524e+01	-6.345457e+02
1.800000e-07	-6.437424e-06	-9.610098e-09	-4.468753e+01	-6.327057e+02
1.900000e-07	-6.393440e-06	-9.631413e-09	-4.438221e+01	-6.307122e+02
2.000000e-07	-6.347181e-06	-9.613962e-09	-4.406108e+01	-6.285551e+02
2.100000e-07	-6.298467e-06	-9.524745e-09	-4.372292e+01	-6.262279e+02
2.200000e-07	-6.247029e-06	-9.546796e-09	-4.336584e+01	-6.237277e+02
2.300000e-07	-6.193058e-06	-9.469631e-09	-4.299118e+01	-6.210554e+02
2.400000e-07	-6.136698e-06	-9.420979e-09	-4.259994e+01	-6.182146e+02
2.500000e-07	-6.078029e-06	-9.386269e-09	-4.219267e+01	-6.152112e+02
2.600000e-07	-6.017168e-06	-9.316202e-09	-4.177018e+01	-6.120526e+02
2.700000e-07	-5.954187e-06	-9.271078e-09	-4.133298e+01	-6.087470e+02
2.800000e-07	-5.888968e-06	-9.216134e-09	-4.088024e+01	-6.053025e+02
2.900000e-07	-5.821457e-06	-9.170998e-09	-4.041159e+01	-6.017263e+02
3.000000e-07	-5.751775e-06	-9.085905e-09	-3.992787e+01	-5.980247e+02
3.100000e-07	-5.679976e-06	-9.058771e-09	-3.942945e+01	-5.942020e+02
3.200000e-07	-5.605965e-06	-9.023510e-09	-3.891568e+01	-5.902607e+02
3.300000e-07	-5.529667e-06	-8.926420e-09	-3.838603e+01	-5.862013e+02
3.400000e-07	-5.451227e-06	-8.877548e-09	-3.784152e+01	-5.820220e+02
3.500000e-07	-5.370724e-06	-8.802182e-09	-3.728268e+01	-5.777194e+02
3.600000e-07	-5.288224e-06	-8.733854e-09	-3.670997e+01	-5.732883e+02
3.700000e-07	-5.203917e-06	-8.660208e-09	-3.612473e+01	-5.687224e+02
3.800000e-07	-5.117889e-06	-8.592476e-09	-3.552754e+01	-5.640147e+02
3.900000e-07	-5.030085e-06	-8.523895e-09	-3.491802e+01	-5.591583e+02
4.000000e-07	-4.940497e-06	-8.435542e-09	-3.429612e+01	-5.541468e+02
4.100000e-07	-4.849181e-06	-8.359304e-09	-3.366221e+01	-5.489749e+02
4.200000e-07	-4.756196e-06	-8.276739e-09	-3.301672e+01	-5.436388e+02
4.300000e-07	-4.661538e-06	-8.196387e-09	-3.235962e+01	-5.381367e+02
4.400000e-07	-4.565214e-06	-8.103293e-09	-3.169096e+01	-5.324686e+02
4.500000e-07	-4.467242e-06	-8.011918e-09	-3.101086e+01	-5.266361e+02
4.600000e-07	-4.367604e-06	-7.927468e-09	-3.031918e+01	-5.206418e+02
4.700000e-07	-4.266493e-06	-7.831071e-09	-2.961729e+01	-5.144891e+02
4.800000e-07	-4.163917e-06	-7.735859e-09	-2.890522e+01	-5.081808e+02
4.900000e-07	-4.059784e-06	-7.641028e-09	-2.818235e+01	-5.017189e+02
5.000000e-07	-3.954193e-06	-7.539048e-09	-2.744935e+01	-4.951033e+02
5.100000e-07	-3.847066e-06	-7.432821e-09	-2.670569e+01	-4.883316e+02
5.200000e-07	-3.738481e-06	-7.328836e-09	-2.595192e+01	-4.813990e+02
5.300000e-07	-3.628751e-06	-7.218543e-09	-2.519019e+01	-4.742982e+02
5.400000e-07	-3.517726e-06	-7.099250e-09	-2.441947e+01	-4.670199e+02
5.500000e-07	-3.405228e-06	-6.978151e-09	-2.363853e+01	-4.595538e+02
5.600000e-07	-3.291369e-06	-6.858001e-09	-2.284814e+01	-4.518895e+02
5.700000e-07	-3.176089e-06	-6.741727e-09	-2.204788e+01	-4.440172e+02
5.800000e-07	-3.059463e-06	-6.624432e-09	-2.123828e+01	-4.359295e+02
5.900000e-07	-2.941751e-06	-6.502716e-09	-2.042115e+01	-4.276210e+02
6.000000e-07	-2.823012e-06	-6.372638e-09	-1.959688e+01	-4.190893e+02
6.100000e-07	-2.703124e-06	-6.235450e-09	-1.876464e+01	-4.103348e+02
6.200000e-07	-2.582235e-06	-6.096556e-09	-1.792545e+01	-4.013594e+02
6.300000e-07	-2.460457e-06	-5.955168e-09	-1.708008e+01	-3.921664e+02
6.400000e-07	-2.337703e-06	-5.808390e-09	-1.622795e+01	-3.827583e+02
6.500000e-07	-2.214023e-06	-5.657854e-09	-1.536938e+01	-3.731359e+02
6.600000e-07	-2.089527e-06	-5.505412e-09	-1.450515e+01	-3.632970e+02
6.700000e-07	-1.964361e-06	-5.350554e-09	-1.363627e+01	-3.532352e+02
6.800000e-07	-1.838658e-06	-5.194206e-09	-1.276366e+01	-3.429399e+02
6.900000e-07	-1.712431e-06	-5.036067e-09	-1.188741e+01	-3.323964e+02
7.000000e-07	-1.585549e-06	-4.872179e-09	-1.100662e+01	-3.215869e+02
7.100000e-07	-1.458024e-06	-4.701150e-09	-1.012136e+01	-3.104917e+02
7.200000e-07	-1.329937e-06	-4.524400e-09	-9.232204e+00	-2.990912e+02
7.300000e-07	-1.201384e-06	-4.345034e-09	-8.339810e+00	-2.873674e+02
7.400000e-07	-1.072487e-06	-4.160258e-09	-7.445028e+00	-2.753059e+02
7.500000e-07	-9.432976e-07	-3.971084e-09	-6.548216e+00	-2.628965e+02
7.600000e-07	-8.138825e-07	-3.777383e-09	-5.649838e+00	-2.501337e+02
7.700000e-07	-6.842200e-07	-3.578120e-09	-4.749742e+00	-2.370163e+02
7.800000e-07	-5.543099e-07	-3.374783e-09	-3.847928e+00	-2.235453e+02
7.900000e-07	-4.242271e-07	-3.168532e-09	-2.944915e+00	-2.097218e+02
8.000000e-07	-2.940047e-07	-2.956349e-09	-2.040932e+00	-1.955443e+02
8.100000e-07	-1.636402e-07	-2.733548e-09	-1.135963e+00	-1.810057e+02
8.200000e-07	-3.313674e-08	-2.502802e-09	-2.300298e-01	-1.660906e+02
8.300000e-07	9.746764e-08	-2.266606e-09	6.766042e-01	-1.507736e+02
8.400000e-07	2.280800e-07	-2.025820e-09	1.583293e+00	-1.350188e+02
8.500000e-07	3.585645e-07	-1.777429e-09	2.489095e+00	-1.187811e+02
8.600000e-07	4.888690e-07	-1.522543e-09	3.393648e+00	-1.020086e+02
8.700000e-07	6.190304e-07	-1.259538e-09	4.297207e+00	-8.464690e+01
8.800000e-07	7.490299e-07	-9.858142e-10	5.199641e+00	-6.664512e+01
8.900000e-07	8.788112e-07	-7.029235e-10	6.100562e+00	-4.796199e+01
9.000000e-07	1.008311e-06	-4.111186e-10	6.999528e+00	-2.857265e+01
9.100000e-07	1.137548e-06	-1.079399e-10	7.896671e+00	-8.474710e+00
9.200000e-07	1.266524e-06	2.084540e-10	8.792001e+00	1.230684e+01
9.300000e-07	1.395063e-06	5.354178e-10	9.684299e+00	3.371659e+01
9.400000e-07	1.523034e-06	8.687304e-10	1.057265e+01	5.566794e+01
9.500000e-07	1.650361e-06	1.208270e-09	1.145653e+01	7.804492e+01
9.600000e-07	1.776970e-06	1.553241e-09	1.233543e+01	1.007065e+02
9.700000e-07	1.902948e-06	1.900632e-09	1.320995e+01	1.234928e+02
9.800000e-07	2.028326e-06	2.246316e-09	1.408030e+01	1.462339e+02
9.900000e-07	2.153064e-06	2.589148e-09	1.494622e+01	1.687579e+02
1.000000e-06	2.277167e-06	2.926460e-09	1.580772e+01	1.909013e+02
1.010000e-06	2.400393e-06	3.255830e-09	1.666313e+01	2.125163e+02
1.020000e-06	2.522616e-06	3.574778e-09	1.751158e+01	2.334789e+02
1.030000e-06	2.643905e-06	3.882332e-09	1.835355e+01	2.536932e+02
1.040000e-06	2.764151e-06	4.175287e-09	1.918828e+01	2.730942e+02
1.050000e-06	2.883294e-06	4.453845e-09	2.001535e+01	2.916479e+02
1.060000e-06	3.001411e-06	4.718792e-09	2.083530e+01	3.093489e+02
1.070000e-06	3.118498e-06	4.971698e-09	2.164810e+01	3.262159e+02
1.080000e-06	3.234433e-06	5.213453e-09	2.245290e+01	3.422864e+02
1.090000e-06	3.349086e-06	5.446309e-09	2.324880e+01	3.576102e+02
1.100000e-06	3.462367e-06	5.669811e-09	2.403518e+01	3.722428e+02
1.110000e-06	3.574220e-06	5.883616e-09	2.481165e+01	3.862396e+02
1.120000e-06	3.684754e-06	6.089526e-09	2.557895e+01	3.996515e+02
1.130000e-06	3.794153e-06	6.285293e-09	2.633838e+01	4.125216e+02
1.140000e-06	3.902400e-06	6.473324e-09	2.708981e+01	4.248835e+02
1.150000e-06	4.009310e-06	6.651850e-09	2.783197e+01	4.367615e+02
1.160000e-06	4.114739e-06	6.822062e-09	2.856384e+01	4.481717e+02
1.170000e-06	4.218563e-06	6.986171e-09	2.928457e+01	4.591240e+02
1.180000e-06	4.320876e-06	7.143458e-09	2.999480e+01	4.696249e+02
1.190000e-06	4.421809e-06	7.295231e-09	3.069547e+01	4.796799e+02
1.200000e-06	4.521256e-06	7.441639e-09	3.138581e+01	4.892959e+02
1.210000e-06	4.618993e-06	7.582120e-09	3.206429e+01	4.984824e+02
1.220000e-06	4.714869e-06	7.717625e-09	3.272984e+01	5.072525e+02
1.230000e-06	4.809016e-06	7.846534e-09	3.338339e+01	5.156228e+02
1.240000e-06	4.901593e-06	7.969336e-09	3.402605e+01	5.236127e+02
1.250000e-06	4.992575e-06	8.085220e-09	3.465763e+01	5.312431e+02
1.260000e-06	5.081743e-06	8.197380e-09	3.527662e+01	5.385349e+02
1.270000e-06	5.168947e-06	8.304994e-09	3.588197e+01	5.455082e+02
1.280000e-06	5.254251e-06	8.406281e-09	3.647414e+01	5.521807e+02
1.290000e-06	5.337757e-06	8.502291e-09	3.705382e+01	5.585675e+02
1.300000e-06	5.419396e-06	8.592551e-09	3.762055e+01	5.646812e+02
1.310000e-06	5.498998e-06	8.678098e-09	3.817313e+01	5.705318e+02
1.320000e-06	5.576592e-06	8.759884e-09	3.871178e+01	5.761282e+02
1.330000e-06	5.652136e-06	8.838307e-09	3.923619e+01	5.814784e+02
1.340000e-06	5.725449e-06	8.915885e-09	3.974512e+01	5.865910e+02
1.350000e-06	5.796638e-06	8.992728e-09	4.023931e+01	5.914757e+02
1.360000e-06	5.865812e-06	9.066029e-09	4.071950e+01	5.961431e+02
1.370000e-06	5.932874e-06	9.135562e-09	4.118503e+01	6.006054e+02
1.380000e-06	5.997695e-06	9.200676e-09	4.163501e+01	6.048749e+02
1.390000e-06	6.060396e-06	9.262806e-09	4.207027e+01	6.089638e+02
1.400000e-06	6.121185e-06	9.322005e-09	4.249225e+01	6.128824e+02
1.410000e-06	6.179934e-06	9.377685e-09	4.290008e+01	6.166386e+02
1.420000e-06	6.236415e-06	9.429801e-09	4.329216e+01	6.202367e+02
1.430000e-06	6.290623e-06	9.480466e-09	4.366846e+01	6.236770e+02
1.440000e-06	6.342442e-06	9.530272e-09	4.402819e+01	6.269560e+02
1.450000e-06	6.391679e-06	9.577624e-09	4.436998e+01	6.300669e+02
1.460000e-06	6.438485e-06	9.621891e-09	4.469490e+01	6.330006e+02
1.470000e-06	6.483093e-06	9.663038e-09	4.500456e+01	6.357472e+02
1.480000e-06	6.525415e-06	9.701404e-09	4.529835e+01	6.382979e+02
1.490000e-06	6.565269e-06	9.737394e-09	4.557501e+01	6.406459e+02
1.500000e-06	6.602836e-06	9.769685e-09	4.583579e+01	6.427883e+02
1.510000e-06	6.638241e-06	9.797224e-09	4.608157e+01	6.447265e+02
1.520000e-06	6.671269e-06	9.821421e-09	4.631085e+01	6.464664e+02
1.530000e-06	6.701852e-06	9.841900e-09	4.652315e+01	6.480179e+02
1.540000e-06	6.730178e-06	9.861949e-09	4.671978e+01	6.493942e+02
1.550000e-06	6.756106e-06	9.881739e-09	4.689977e+01	6.506099e+02
1.560000e-06	6.779478e-06	9.898381e-09	4.706202e+01	6.516798e+02
1.570000e-06	6.800459e-06	9.912736e-09	4.720766e+01	6.526170e+02
1.580000e-06	6.819119e-06	9.926544e-09	4.733720e+01	6.534316e+02
1.590000e-06	6.835308e-06	9.937911e-09	4.744958e+01	6.541297e+02
1.600000e-06	6.848937e-06	9.945023e-09	4.754419e+01	6.547132e+02
1.610000e-06	6.859932e-06	9.949273e-09	4.762051e+01	6.551798e+02
1.620000e-06	6.868248e-06	9.952316e-09	4.767824e+01	6.555242e+02
1.630000e-06	6.874095e-06	9.955267e-09	4.771883e+01	6.557391e+02
1.640000e-06	6.877631e-06	9.957240e-09	4.774338e+01	6.558170e+02
1.650000e-06	6.878693e-06	9.956224e-09	4.775075e+01	6.557517e+02
1.660000e-06	6.877284e-06	9.954094e-09	4.774096e+01	6.555399e+02
1.670000e-06	6.873753e-06	9.953020e-09	4.771645e+01	6.551821e+02
1.680000e-06	6.867989e-06	9.945799e-09	4.767644e+01	6.546832e+02
1.690000e-06	6.859867e-06	9.937754e-09	4.762006e+01	6.540523e+02
1.700000e-06	6.849534e-06	9.929289e-09	4.754833e+01	6.533023e+02
1.710000e-06	6.836885e-06	9.917505e-09	4.746052e+01	6.524485e+02
1.720000e-06	6.821836e-06	9.895021e-09	4.735606e+01	6.515071e+02
1.730000e-06	6.804615e-06	9.860190e-09	4.723651e+01	6.504934e+02
1.740000e-06	6.785135e-06	9.889343e-09	4.710128e+01	6.494203e+02
1.750000e-06	6.762637e-06	9.851350e-09	4.694511e+01	6.482968e+02
1.760000e-06	6.736896e-06	9.796483e-09	4.676642e+01	6.471271e+02
1.770000e-06	6.708506e-06	9.811040e-09	4.656934e+01	6.459102e+02
1.780000e-06	6.678007e-06	9.761632e-09	4.635762e+01	6.446396e+02
1.790000e-06	6.645952e-06	9.735117e-09	4.613510e+01	6.433044e+02
1.800000e-06	6.612391e-06	9.848915e-09	4.590213e+01	6.418901e+02
1.810000e-06	6.576524e-06	9.728015e-09	4.565314e+01	6.403798e+02
1.820000e-06	6.538206e-06	9.706769e-09	4.538714e+01	6.387561e+02
1.830000e-06	6.497722e-06	9.762554e-09	4.510611e+01	6.370018e+02
1.840000e-06	6.455030e-06	9.606579e-09	4.480975e+01	6.351019e+02
1.850000e-06	6.410130e-06	9.707817e-09	4.449806e+01	6.330441e+02
1.860000e-06	6.362835e-06	9.647571e-09	4.416975e+01	6.308198e+02
1.870000e-06	6.313179e-06	9.550097e-09	4.382504e+01	6.284237e+02
1.880000e-06	6.261240e-06	9.590738e-09	4.346449e+01	6.258547e+02
1.890000e-06	6.206659e-06	9.468815e-09	4.308560e+01	6.231146e+02
1.900000e-06	6.149575e-06	9.494955e-09	4.268934e+01	6.202081e+02
1.910000e-06	6.090231e-06	9.434969e-09	4.227737e+01	6.171418e+02
1.920000e-06	6.028521e-06	9.351410e-09	4.184900e+01	6.139235e+02
1.930000e-06	5.964574e-06	9.361535e-09	4.140508e+01	6.105614e+02
1.940000e-06	5.898460e-06	9.248373e-09	4.094614e+01	6.070633e+02
1.950000e-06	5.830219e-06	9.242894e-09	4.047242e+01	6.034362e+02
1.960000e-06	5.759702e-06	9.135385e-09	3.998290e+01	5.996856e+02
1.970000e-06	5.686934e-06	9.104883e-09	3.947776e+01	5.958151e+02
1.980000e-06	5.611990e-06	9.060199e-09	3.895750e+01	5.918265e+02
1.990000e-06	5.534740e-06	8.948975e-09	3.842125e+01	5.877193e+02
2.000000e-06	5.455358e-06	8.941573e-09	3.787019e+01	5.834911e+02
2.010000e-06	5.374069e-06	8.837462e-09	3.730590e+01	5.791377e+02
2.020000e-06	5.291000e-06	8.787754e-09	3.672925e+01	5.746534e+02
2.030000e-06	5.206051e-06	8.701198e-09	3.613955e+01	5.700317e+02
2.040000e-06	5.119107e-06	8.638563e-09	3.553599e+01	5.652654e+02
2.050000e-06	5.030321e-06	8.569032e-09	3.491966e+01	5.603478e+02
2.060000e-06	4.939925e-06	8.469504e-09	3.429214e+01	5.552728e+02
2.070000e-06	4.847900e-06	8.421342e-09	3.365332e+01	5.500357e+02
2.080000e-06	4.754159e-06	8.325549e-09	3.300259e+01	5.446335e+02
2.090000e-06	4.658687e-06	8.252205e-09	3.233984e+01	5.390651e+02
2.100000e-06	4.561533e-06	8.140663e-09	3.166541e+01	5.333311e+02
2.110000e-06	4.462923e-06	8.061459e-09	3.098087e+01	5.274337e+02
2.120000e-06	4.362798e-06	7.977376e-09	3.028582e+01	5.213758e+02
2.130000e-06	4.261093e-06	7.876702e-09	2.957980e+01	5.151606e+02
2.140000e-06	4.157777e-06	7.782897e-09	2.886260e+01	5.087909e+02
2.150000e-06	4.052864e-06	7.681937e-09	2.813431e+01	5.022677e+02
2.160000e-06	3.946599e-06	7.587421e-09	2.739664e+01	4.955902e+02
2.170000e-06	3.838954e-06	7.476924e-09	2.664938e+01	4.887550e+02
2.180000e-06	3.729970e-06	7.378295e-09	2.589284e+01	4.817564e+02
2.190000e-06	3.619660e-06	7.265813e-09	2.512708e+01	4.745860e+02
2.200000e-06	3.507932e-06	7.160968e-09	2.435148e+01	4.672342e+02
2.210000e-06	3.394849e-06	7.040027e-09	2.356648e+01	4.596904e+02
2.220000e-06	3.280468e-06	6.920081e-09	2.277247e+01	4.519445e+02
2.230000e-06	3.164664e-06	6.795125e-09	2.196857e+01	4.439874e+02
2.240000e-06	3.047517e-06	6.668673e-09	2.115536e+01	4.358123e+02
2.250000e-06	2.929272e-06	6.543028e-09	2.033452e+01	4.274153e+02
2.260000e-06	2.809918e-06	6.413800e-09	1.950599e+01	4.187949e+02
2.270000e-06	2.689427e-06	6.288524e-09	1.866956e+01	4.099523e+02
2.280000e-06	2.567906e-06	6.155470e-09	1.782598e+01	4.008901e+02
2.290000e-06	2.445550e-06	6.016827e-09	1.697660e+01	3.916113e+02
2.300000e-06	2.322395e-06	5.869528e-09	1.612168e+01	3.821181e+02
2.310000e-06	2.198438e-06	5.723097e-09	1.526119e+01	3.724101e+02
2.320000e-06	2.073655e-06	5.568885e-09	1.439497e+01	3.624836e+02
2.330000e-06	1.948098e-06	5.412364e-09	1.352338e+01	3.523305e+02
2.340000e-06	1.821995e-06	5.251386e-09	1.264799e+01	3.419387e+02
2.350000e-06	1.695334e-06	5.089241e-09	1.176873e+01	3.312920e+02
2.360000e-06	1.567976e-06	4.921874e-09	1.088463e+01	3.203716e+02
2.370000e-06	1.439996e-06	4.749706e-09	9.996215e+00	3.091578e+02
2.380000e-06	1.311519e-06	4.577595e-09	9.104350e+00	2.976312e+02
2.390000e-06	1.182587e-06	4.399702e-09	8.209322e+00	2.857753e+02
2.400000e-06	1.053249e-06	4.214856e-09	7.311479e+00	2.735770e+02
2.410000e-06	9.236039e-07	4.021816e-09	6.411505e+00	2.610282e+02
2.420000e-06	7.937527e-07	3.823563e-09	5.510100e+00	2.481251e+02
2.430000e-06	6.637404e-07	3.622001e-09	4.607576e+00	2.348676e+02
2.440000e-06	5.335757e-07	3.416659e-09	3.703994e+00	2.212570e+02
2.450000e-06	4.032318e-07	3.203736e-09	2.799168e+00	2.072939e+02
2.460000e-06	2.727010e-07	2.984151e-09	1.893045e+00	1.929748e+02
2.470000e-06	1.420905e-07	2.758617e-09	9.863688e-01	1.782896e+02
2.480000e-06	1.145780e-08	2.527050e-09	7.953813e-02	1.632192e+02
2.490000e-06	-1.192237e-07	2.290428e-09	-8.276314e-01	1.477341e+02
2.500000e-06	-2.498949e-07	2.044191e-09	-1.734729e+00	1.317945e+02
2.510000e-06	-3.804982e-07	1.787274e-09	-2.641356e+00	1.153521e+02
2.520000e-06	-5.110146e-07	1.523458e-09	-3.547379e+00	9.835353e+01
2.530000e-06	-6.413888e-07	1.253640e-09	-4.452415e+00	8.074507e+01
2.540000e-06	-7.716131e-07	9.796171e-10	-5.356410e+00	6.247878e+01
2.550000e-06	-9.016243e-07	6.947805e-10	-6.258927e+00	4.351906e+01
2.560000e-06	-1.031323e-06	3.950291e-10	-7.159272e+00	2.384920e+01
2.570000e-06	-1.160666e-06	8.625171e-11	-8.057150e+00	3.477070e+00
2.580000e-06	-1.289604e-06	-2.318500e-10	-8.952216e+00	-1.756062e+01
2.590000e-06	-1.418166e-06	-5.623132e-10	-9.844676e+00	-3.919616e+01
2.600000e-06	-1.546232e-06	-9.031542e-10	-1.073369e+01	-6.133106e+01
2.610000e-06	-1.673559e-06	-1.250657e-09	-1.161757e+01	-8.383885e+01
2.620000e-06	-1.800179e-06	-1.602103e-09	-1.249655e+01	-1.065703e+02
2.630000e-06	-1.926205e-06	-1.955502e-09	-1.337140e+01	-1.293604e+02
2.640000e-06	-2.051536e-06	-2.306608e-09	-1.424142e+01	-1.520374e+02
2.650000e-06	-2.176021e-06	-2.650868e-09	-1.510558e+01	-1.744317e+02
2.660000e-06	-2.299602e-06	-2.986274e-09	-1.596346e+01	-1.963850e+02
2.670000e-06	-2.422205e-06	-3.309522e-09	-1.681455e+01	-2.177580e+02
2.680000e-06	-2.543950e-06	-3.619635e-09	-1.765968e+01	-2.384374e+02
2.690000e-06	-2.664886e-06	-3.919136e-09	-1.849920e+01	-2.583392e+02
2.700000e-06	-2.784775e-06	-4.209796e-09	-1.933144e+01	-2.774108e+02
2.710000e-06	-2.903541e-06	-4.491373e-09	-2.015590e+01	-2.956296e+02
2.720000e-06	-3.021195e-06	-4.761635e-09	-2.097264e+01	-3.130005e+02
2.730000e-06	-3.137629e-06	-5.016732e-09	-2.178090e+01	-3.295504e+02
2.740000e-06	-3.252791e-06	-5.258073e-09	-2.258034e+01	-3.453222e+02
2.750000e-06	-3.366662e-06	-5.490063e-09	-2.337081e+01	-3.603687e+02
2.760000e-06	-3.479202e-06	-5.712946e-09	-2.415204e+01	-3.747460e+02
2.770000e-06	-3.590326e-06	-5.926216e-09	-2.492345e+01	-3.885084e+02
2.780000e-06	-3.700069e-06	-6.131247e-09	-2.568527e+01	-4.017038e+02
2.790000e-06	-3.808638e-06	-6.327498e-09	-2.643893e+01	-4.143718e+02
2.800000e-06	-3.916050e-06	-6.516156e-09	-2.718457e+01	-4.265422e+02
2.810000e-06	-4.022192e-06	-6.696633e-09	-2.792139e+01	-4.382358e+02
2.820000e-06	-4.126879e-06	-6.867583e-09	-2.864811e+01	-4.494662e+02
2.830000e-06	-4.229968e-06	-7.029815e-09	-2.936374e+01	-4.602415e+02
2.840000e-06	-4.331447e-06	-7.182505e-09	-3.006819e+01	-4.705675e+02
2.850000e-06	-4.431438e-06	-7.329856e-09	-3.076231e+01	-4.804501e+02
2.860000e-06	-4.529989e-06	-7.473269e-09	-3.144643e+01	-4.898971e+02
2.870000e-06	-4.626963e-06	-7.612957e-09	-3.211961e+01	-4.989192e+02
2.880000e-06	-4.722304e-06	-7.745566e-09	-3.278145e+01	-5.075311e+02
2.890000e-06	-4.815901e-06	-7.871451e-09	-3.343119e+01	-5.157506e+02
2.900000e-06	-4.907732e-06	-7.995345e-09	-3.406866e+01	-5.235977e+02
2.910000e-06	-4.997848e-06	-8.114163e-09	-3.469423e+01	-5.310936e+02
2.920000e-06	-5.086154e-06	-8.226374e-09	-3.530724e+01	-5.382590e+02
2.930000e-06	-5.172519e-06	-8.330250e-09	-3.590677e+01	-5.451131e+02
2.940000e-06	-5.256928e-06	-8.427977e-09	-3.649272e+01	-5.516727e+02
