# Temperatura_=_65.24
# Concentracion g/m^3_=_15000.0
# C_Vs_to_Am_M_A/Vsm_=_65563218390.804596
# pendiente_HvsI_1/m_=_3716.3
# ordenada_HvsI_A/m_=_1297.0
# frecuencia_Hz_=_301897.37026062486

Tiempo_(s)	Campo_(V.s)	Magnetizacion_(V.s)	Campo_(kA/m)	Magnetizacion_(A/m)
0.000000e+00	-6.862839e-06	-9.575817e-09	-4.749764e+01	-6.258210e+02
1.000000e-08	-6.859805e-06	-9.572228e-09	-4.747664e+01	-6.255897e+02
2.000000e-08	-6.854501e-06	-9.568477e-09	-4.743993e+01	-6.252216e+02
3.000000e-08	-6.847027e-06	-9.562997e-09	-4.738820e+01	-6.247195e+02
4.000000e-08	-6.837268e-06	-9.554343e-09	-4.732066e+01	-6.240900e+02
5.000000e-08	-6.825013e-06	-9.544060e-09	-4.723585e+01	-6.233439e+02
6.000000e-08	-6.810251e-06	-9.528687e-09	-4.713368e+01	-6.224947e+02
7.000000e-08	-6.793147e-06	-9.515221e-09	-4.701530e+01	-6.215581e+02
8.000000e-08	-6.773878e-06	-9.514945e-09	-4.688194e+01	-6.205498e+02
9.000000e-08	-6.752237e-06	-9.489554e-09	-4.673216e+01	-6.194845e+02
1.000000e-07	-6.727815e-06	-9.470456e-09	-4.656314e+01	-6.183744e+02
1.100000e-07	-6.700670e-06	-9.455446e-09	-4.637527e+01	-6.172270e+02
1.200000e-07	-6.671162e-06	-9.423741e-09	-4.617104e+01	-6.160454e+02
1.300000e-07	-6.639619e-06	-9.391243e-09	-4.595273e+01	-6.148267e+02
1.400000e-07	-6.606180e-06	-9.392138e-09	-4.572130e+01	-6.135627e+02
1.500000e-07	-6.570771e-06	-9.334667e-09	-4.547624e+01	-6.122400e+02
1.600000e-07	-6.533320e-06	-9.298821e-09	-4.521704e+01	-6.108414e+02
1.700000e-07	-6.493795e-06	-9.315739e-09	-4.494349e+01	-6.093468e+02
1.800000e-07	-6.451914e-06	-9.232515e-09	-4.465363e+01	-6.077353e+02
1.900000e-07	-6.407464e-06	-9.231531e-09	-4.434599e+01	-6.059863e+02
2.000000e-07	-6.360634e-06	-9.235455e-09	-4.402188e+01	-6.040816e+02
2.100000e-07	-6.311327e-06	-9.211876e-09	-4.368063e+01	-6.020061e+02
2.200000e-07	-6.259327e-06	-9.211692e-09	-4.332074e+01	-5.997496e+02
2.300000e-07	-6.204841e-06	-9.127273e-09	-4.294364e+01	-5.973064e+02
2.400000e-07	-6.147995e-06	-9.056771e-09	-4.255021e+01	-5.946761e+02
2.500000e-07	-6.088813e-06	-9.007299e-09	-4.214061e+01	-5.918630e+02
2.600000e-07	-6.027447e-06	-8.952322e-09	-4.171590e+01	-5.888753e+02
2.700000e-07	-5.963895e-06	-8.928598e-09	-4.127606e+01	-5.857239e+02
2.800000e-07	-5.898081e-06	-8.878908e-09	-4.082056e+01	-5.824214e+02
2.900000e-07	-5.830057e-06	-8.806812e-09	-4.034976e+01	-5.789806e+02
3.000000e-07	-5.759915e-06	-8.730729e-09	-3.986431e+01	-5.754130e+02
3.100000e-07	-5.687661e-06	-8.708456e-09	-3.936424e+01	-5.717284e+02
3.200000e-07	-5.613162e-06	-8.680409e-09	-3.884864e+01	-5.679331e+02
3.300000e-07	-5.536322e-06	-8.602967e-09	-3.831683e+01	-5.640304e+02
3.400000e-07	-5.457221e-06	-8.543930e-09	-3.776937e+01	-5.600199e+02
3.500000e-07	-5.376026e-06	-8.471427e-09	-3.720742e+01	-5.558980e+02
3.600000e-07	-5.293002e-06	-8.408996e-09	-3.663281e+01	-5.516586e+02
3.700000e-07	-5.208307e-06	-8.350423e-09	-3.604664e+01	-5.472939e+02
3.800000e-07	-5.121938e-06	-8.283498e-09	-3.544888e+01	-5.427954e+02
3.900000e-07	-5.033770e-06	-8.199938e-09	-3.483867e+01	-5.381548e+02
4.000000e-07	-4.943750e-06	-8.107812e-09	-3.421564e+01	-5.333651e+02
4.100000e-07	-4.851957e-06	-8.042213e-09	-3.358034e+01	-5.284211e+02
4.200000e-07	-4.758513e-06	-7.977886e-09	-3.293362e+01	-5.233200e+02
4.300000e-07	-4.663482e-06	-7.895260e-09	-3.227591e+01	-5.180611e+02
4.400000e-07	-4.566748e-06	-7.795871e-09	-3.160642e+01	-5.126459e+02
4.500000e-07	-4.468270e-06	-7.701377e-09	-3.092485e+01	-5.070772e+02
4.600000e-07	-4.368155e-06	-7.618854e-09	-3.023196e+01	-5.013585e+02
4.700000e-07	-4.266594e-06	-7.540350e-09	-2.952905e+01	-4.954930e+02
4.800000e-07	-4.163571e-06	-7.465285e-09	-2.881603e+01	-4.894824e+02
4.900000e-07	-4.059015e-06	-7.372063e-09	-2.809240e+01	-4.833268e+02
5.000000e-07	-3.952942e-06	-7.257400e-09	-2.735827e+01	-4.770234e+02
5.100000e-07	-3.845320e-06	-7.148352e-09	-2.661342e+01	-4.705672e+02
5.200000e-07	-3.736348e-06	-7.053855e-09	-2.585922e+01	-4.639503e+02
5.300000e-07	-3.626197e-06	-6.954864e-09	-2.509687e+01	-4.571634e+02
5.400000e-07	-3.514765e-06	-6.841074e-09	-2.432565e+01	-4.501957e+02
5.500000e-07	-3.401850e-06	-6.721855e-09	-2.354417e+01	-4.430369e+02
5.600000e-07	-3.287381e-06	-6.604738e-09	-2.275193e+01	-4.356775e+02
5.700000e-07	-3.171469e-06	-6.495387e-09	-2.194970e+01	-4.281102e+02
5.800000e-07	-3.054287e-06	-6.388915e-09	-2.113869e+01	-4.203301e+02
5.900000e-07	-2.936004e-06	-6.272585e-09	-2.032005e+01	-4.123357e+02
6.000000e-07	-2.816737e-06	-6.139989e-09	-1.949460e+01	-4.041278e+02
6.100000e-07	-2.696440e-06	-6.000785e-09	-1.866203e+01	-3.957097e+02
6.200000e-07	-2.575075e-06	-5.869809e-09	-1.782206e+01	-3.870855e+02
6.300000e-07	-2.452713e-06	-5.739908e-09	-1.697520e+01	-3.782595e+02
6.400000e-07	-2.329432e-06	-5.600670e-09	-1.612197e+01	-3.692341e+02
6.500000e-07	-2.205328e-06	-5.453974e-09	-1.526305e+01	-3.600089e+02
6.600000e-07	-2.080465e-06	-5.304724e-09	-1.439888e+01	-3.505799e+02
6.700000e-07	-1.954926e-06	-5.158745e-09	-1.353002e+01	-3.409385e+02
6.800000e-07	-1.828802e-06	-5.015925e-09	-1.265712e+01	-3.310720e+02
6.900000e-07	-1.702096e-06	-4.867575e-09	-1.178019e+01	-3.209641e+02
7.000000e-07	-1.574743e-06	-4.705595e-09	-1.089878e+01	-3.105960e+02
7.100000e-07	-1.446805e-06	-4.534392e-09	-1.001333e+01	-2.999478e+02
7.200000e-07	-1.318433e-06	-4.363470e-09	-9.124863e+00	-2.890007e+02
7.300000e-07	-1.189617e-06	-4.194985e-09	-8.233323e+00	-2.777381e+02
7.400000e-07	-1.060376e-06	-4.022131e-09	-7.338853e+00	-2.661470e+02
7.500000e-07	-9.307370e-07	-3.840943e-09	-6.441621e+00	-2.542187e+02
7.600000e-07	-8.007460e-07	-3.651920e-09	-5.541954e+00	-2.419487e+02
7.700000e-07	-6.704958e-07	-3.459058e-09	-4.640494e+00	-2.293356e+02
7.800000e-07	-5.400543e-07	-3.265033e-09	-3.737710e+00	-2.163794e+02
7.900000e-07	-4.094503e-07	-3.068753e-09	-2.833801e+00	-2.030795e+02
8.000000e-07	-2.786368e-07	-2.864561e-09	-1.928442e+00	-1.894315e+02
8.100000e-07	-1.476311e-07	-2.648271e-09	-1.021754e+00	-1.754255e+02
8.200000e-07	-1.652532e-08	-2.424557e-09	-1.143716e-01	-1.610431e+02
8.300000e-07	1.146133e-07	-2.197799e-09	7.932372e-01	-1.462571e+02
8.400000e-07	2.457215e-07	-1.967020e-09	1.700636e+00	-1.310310e+02
8.500000e-07	3.767280e-07	-1.728221e-09	2.607331e+00	-1.153208e+02
8.600000e-07	5.076386e-07	-1.481552e-09	3.513361e+00	-9.907732e+01
8.700000e-07	6.383846e-07	-1.225771e-09	4.418253e+00	-8.225119e+01
8.800000e-07	7.689593e-07	-9.610165e-10	5.321959e+00	-6.479752e+01
8.900000e-07	8.993210e-07	-6.887728e-10	6.224191e+00	-4.668200e+01
9.000000e-07	1.029334e-06	-4.073587e-10	7.124008e+00	-2.788669e+01
9.100000e-07	1.158998e-06	-1.123927e-10	8.021414e+00	-8.415299e+00
9.200000e-07	1.288247e-06	1.959591e-10	8.915942e+00	1.170275e+01
9.300000e-07	1.416986e-06	5.122381e-10	9.806946e+00	3.240992e+01
9.400000e-07	1.545220e-06	8.330138e-10	1.069445e+01	5.362027e+01
9.500000e-07	1.672860e-06	1.159445e-09	1.157785e+01	7.522134e+01
9.600000e-07	1.799798e-06	1.492548e-09	1.245638e+01	9.707823e+01
9.700000e-07	1.926070e-06	1.829301e-09	1.333031e+01	1.190396e+02
9.800000e-07	2.051706e-06	2.165314e-09	1.419983e+01	1.409450e+02
9.900000e-07	2.176670e-06	2.497913e-09	1.506471e+01	1.626331e+02
1.000000e-06	2.300889e-06	2.823387e-09	1.592443e+01	1.839501e+02
1.010000e-06	2.424287e-06	3.140033e-09	1.677847e+01	2.047571e+02
1.020000e-06	2.546781e-06	3.447239e-09	1.762624e+01	2.249370e+02
1.030000e-06	2.668347e-06	3.741668e-09	1.846760e+01	2.443984e+02
1.040000e-06	2.788873e-06	4.021750e-09	1.930176e+01	2.630788e+02
1.050000e-06	2.908248e-06	4.288081e-09	2.012795e+01	2.809442e+02
1.060000e-06	3.026569e-06	4.541756e-09	2.094685e+01	2.979877e+02
1.070000e-06	3.143870e-06	4.787147e-09	2.175869e+01	3.142256e+02
1.080000e-06	3.260038e-06	5.023010e-09	2.256269e+01	3.296922e+02
1.090000e-06	3.374877e-06	5.247087e-09	2.335749e+01	3.444343e+02
1.100000e-06	3.488321e-06	5.459579e-09	2.414263e+01	3.585049e+02
1.110000e-06	3.600377e-06	5.664470e-09	2.491817e+01	3.719582e+02
1.120000e-06	3.711078e-06	5.862450e-09	2.568433e+01	3.848444e+02
1.130000e-06	3.820581e-06	6.051054e-09	2.644220e+01	3.972067e+02
1.140000e-06	3.928981e-06	6.231845e-09	2.719243e+01	4.090795e+02
1.150000e-06	4.036071e-06	6.404231e-09	2.793360e+01	4.204877e+02
1.160000e-06	4.141715e-06	6.569931e-09	2.866477e+01	4.314475e+02
1.170000e-06	4.245772e-06	6.728806e-09	2.938494e+01	4.419685e+02
1.180000e-06	4.348235e-06	6.879421e-09	3.009409e+01	4.520555e+02
1.190000e-06	4.449294e-06	7.025406e-09	3.079352e+01	4.617118e+02
1.200000e-06	4.548761e-06	7.167118e-09	3.148193e+01	4.709408e+02
1.210000e-06	4.646558e-06	7.302921e-09	3.215878e+01	4.797487e+02
1.220000e-06	4.742563e-06	7.432944e-09	3.282323e+01	4.881453e+02
1.230000e-06	4.836750e-06	7.555830e-09	3.347510e+01	4.961444e+02
1.240000e-06	4.929379e-06	7.673588e-09	3.411618e+01	5.037639e+02
1.250000e-06	5.020385e-06	7.784601e-09	3.474603e+01	5.110247e+02
1.260000e-06	5.109502e-06	7.891379e-09	3.536281e+01	5.179496e+02
1.270000e-06	5.196654e-06	7.994547e-09	3.596599e+01	5.245617e+02
1.280000e-06	5.281968e-06	8.090820e-09	3.655645e+01	5.308831e+02
1.290000e-06	5.365477e-06	8.180862e-09	3.713441e+01	5.369337e+02
1.300000e-06	5.447072e-06	8.266039e-09	3.769913e+01	5.427308e+02
1.310000e-06	5.526593e-06	8.348932e-09	3.824949e+01	5.482884e+02
1.320000e-06	5.604062e-06	8.429181e-09	3.878566e+01	5.536174e+02
1.330000e-06	5.679504e-06	8.505173e-09	3.930779e+01	5.587265e+02
1.340000e-06	5.752752e-06	8.579129e-09	3.981474e+01	5.636222e+02
1.350000e-06	5.823828e-06	8.651336e-09	4.030665e+01	5.683103e+02
1.360000e-06	5.892855e-06	8.719670e-09	4.078438e+01	5.727960e+02
1.370000e-06	5.959801e-06	8.783916e-09	4.124772e+01	5.770846e+02
1.380000e-06	6.024544e-06	8.845809e-09	4.169580e+01	5.811816e+02
1.390000e-06	6.087175e-06	8.906965e-09	4.212928e+01	5.850927e+02
1.400000e-06	6.147859e-06	8.966415e-09	4.254926e+01	5.888235e+02
1.410000e-06	6.206481e-06	9.022342e-09	4.295499e+01	5.923787e+02
1.420000e-06	6.262850e-06	9.073548e-09	4.334512e+01	5.957620e+02
1.430000e-06	6.316930e-06	9.119737e-09	4.371941e+01	5.989755e+02
1.440000e-06	6.368576e-06	9.163038e-09	4.407685e+01	6.020195e+02
1.450000e-06	6.417588e-06	9.205427e-09	4.441606e+01	6.048926e+02
1.460000e-06	6.464182e-06	9.247182e-09	4.473854e+01	6.075921e+02
1.470000e-06	6.508614e-06	9.285572e-09	4.504605e+01	6.101146e+02
1.480000e-06	6.550729e-06	9.320267e-09	4.533753e+01	6.124568e+02
1.490000e-06	6.590355e-06	9.354397e-09	4.561178e+01	6.146165e+02
1.500000e-06	6.627696e-06	9.386260e-09	4.587022e+01	6.165932e+02
1.510000e-06	6.662861e-06	9.413100e-09	4.611359e+01	6.183891e+02
1.520000e-06	6.695630e-06	9.436310e-09	4.634038e+01	6.200091e+02
1.530000e-06	6.726030e-06	9.455900e-09	4.655078e+01	6.214607e+02
1.540000e-06	6.754213e-06	9.473043e-09	4.674584e+01	6.227539e+02
1.550000e-06	6.779885e-06	9.489380e-09	4.692351e+01	6.239000e+02
1.560000e-06	6.802949e-06	9.505247e-09	4.708313e+01	6.249109e+02
1.570000e-06	6.823709e-06	9.520397e-09	4.722682e+01	6.257978e+02
1.580000e-06	6.842154e-06	9.533684e-09	4.735448e+01	6.265699e+02
1.590000e-06	6.858055e-06	9.543732e-09	4.746453e+01	6.272340e+02
1.600000e-06	6.871347e-06	9.551616e-09	4.755652e+01	6.277934e+02
1.610000e-06	6.881959e-06	9.559070e-09	4.762997e+01	6.282478e+02
1.620000e-06	6.889976e-06	9.564938e-09	4.768545e+01	6.285942e+02
1.630000e-06	6.895560e-06	9.569003e-09	4.772409e+01	6.288269e+02
1.640000e-06	6.898715e-06	9.571315e-09	4.774593e+01	6.289388e+02
1.650000e-06	6.899411e-06	9.571401e-09	4.775075e+01	6.289230e+02
1.660000e-06	6.897738e-06	9.568301e-09	4.773917e+01	6.287738e+02
1.670000e-06	6.893877e-06	9.564400e-09	4.771245e+01	6.284880e+02
1.680000e-06	6.887699e-06	9.556747e-09	4.766969e+01	6.280660e+02
1.690000e-06	6.879216e-06	9.547948e-09	4.761098e+01	6.275121e+02
1.700000e-06	6.868570e-06	9.539530e-09	4.753730e+01	6.268347e+02
1.710000e-06	6.855555e-06	9.532151e-09	4.744722e+01	6.260456e+02
1.720000e-06	6.840110e-06	9.522749e-09	4.734033e+01	6.251594e+02
1.730000e-06	6.822529e-06	9.487989e-09	4.721865e+01	6.241921e+02
1.740000e-06	6.802620e-06	9.482534e-09	4.708086e+01	6.231591e+02
1.750000e-06	6.779614e-06	9.463884e-09	4.692164e+01	6.220743e+02
1.760000e-06	6.753401e-06	9.435043e-09	4.674022e+01	6.209481e+02
1.770000e-06	6.724605e-06	9.435752e-09	4.654092e+01	6.197866e+02
1.780000e-06	6.693813e-06	9.411472e-09	4.632781e+01	6.185903e+02
1.790000e-06	6.661505e-06	9.377714e-09	4.610420e+01	6.173544e+02
1.800000e-06	6.627587e-06	9.423892e-09	4.586946e+01	6.160685e+02
1.810000e-06	6.591239e-06	9.368265e-09	4.561789e+01	6.147175e+02
1.820000e-06	6.552454e-06	9.353395e-09	4.534946e+01	6.132829e+02
1.830000e-06	6.511591e-06	9.380484e-09	4.506665e+01	6.117442e+02
1.840000e-06	6.468472e-06	9.271643e-09	4.476823e+01	6.100804e+02
1.850000e-06	6.423166e-06	9.278909e-09	4.445467e+01	6.082715e+02
1.860000e-06	6.375510e-06	9.220382e-09	4.412484e+01	6.063006e+02
1.870000e-06	6.325452e-06	9.143740e-09	4.377839e+01	6.041543e+02
1.880000e-06	6.273013e-06	9.176493e-09	4.341546e+01	6.018240e+02
1.890000e-06	6.217884e-06	9.140572e-09	4.303391e+01	5.993064e+02
1.900000e-06	6.160267e-06	9.148141e-09	4.263514e+01	5.966029e+02
1.910000e-06	6.100349e-06	9.081929e-09	4.222045e+01	5.937194e+02
1.920000e-06	6.038109e-06	8.974232e-09	4.178969e+01	5.906652e+02
1.930000e-06	5.973662e-06	8.962284e-09	4.134365e+01	5.874522e+02
1.940000e-06	5.907133e-06	8.907153e-09	4.088320e+01	5.840931e+02
1.950000e-06	5.838473e-06	8.890698e-09	4.040801e+01	5.806005e+02
1.960000e-06	5.767392e-06	8.813533e-09	3.991606e+01	5.769853e+02
1.970000e-06	5.694026e-06	8.750327e-09	3.940829e+01	5.732559e+02
1.980000e-06	5.618552e-06	8.688908e-09	3.888594e+01	5.694175e+02
1.990000e-06	5.540850e-06	8.604867e-09	3.834816e+01	5.654720e+02
2.000000e-06	5.461000e-06	8.586146e-09	3.779552e+01	5.614176e+02
2.010000e-06	5.379272e-06	8.507100e-09	3.722988e+01	5.572497e+02
2.020000e-06	5.295731e-06	8.438607e-09	3.665170e+01	5.529614e+02
2.030000e-06	5.210232e-06	8.361058e-09	3.605996e+01	5.485445e+02
2.040000e-06	5.122764e-06	8.300470e-09	3.545460e+01	5.439904e+02
2.050000e-06	5.033532e-06	8.238615e-09	3.483702e+01	5.392912e+02
2.060000e-06	4.942738e-06	8.149299e-09	3.420864e+01	5.344407e+02
2.070000e-06	4.850259e-06	8.086526e-09	3.356859e+01	5.294345e+02
2.080000e-06	4.755966e-06	7.996715e-09	3.291599e+01	5.242706e+02
2.090000e-06	4.659949e-06	7.923390e-09	3.225145e+01	5.189493e+02
2.100000e-06	4.562359e-06	7.845050e-09	3.157604e+01	5.134728e+02
2.110000e-06	4.463316e-06	7.777063e-09	3.089056e+01	5.078440e+02
2.120000e-06	4.362716e-06	7.684892e-09	3.019431e+01	5.020666e+02
2.130000e-06	4.260461e-06	7.569469e-09	2.948660e+01	4.961433e+02
2.140000e-06	4.156574e-06	7.474300e-09	2.876761e+01	4.900751e+02
2.150000e-06	4.051185e-06	7.389609e-09	2.803821e+01	4.838612e+02
2.160000e-06	3.944467e-06	7.309812e-09	2.729962e+01	4.774979e+02
2.170000e-06	3.836455e-06	7.212095e-09	2.655207e+01	4.709789e+02
2.180000e-06	3.727071e-06	7.105778e-09	2.579502e+01	4.642957e+02
2.190000e-06	3.616188e-06	6.987018e-09	2.502760e+01	4.574384e+02
2.200000e-06	3.503911e-06	6.883139e-09	2.425053e+01	4.503961e+02
2.210000e-06	3.390354e-06	6.782657e-09	2.346461e+01	4.431588e+02
2.220000e-06	3.275440e-06	6.675672e-09	2.266928e+01	4.357178e+02
2.230000e-06	3.159091e-06	6.551200e-09	2.186403e+01	4.280666e+02
2.240000e-06	3.041407e-06	6.420975e-09	2.104955e+01	4.202016e+02
2.250000e-06	2.922526e-06	6.297251e-09	2.022677e+01	4.121224e+02
2.260000e-06	2.802515e-06	6.176000e-09	1.939618e+01	4.038307e+02
2.270000e-06	2.681500e-06	6.057212e-09	1.855863e+01	3.953304e+02
2.280000e-06	2.559590e-06	5.929056e-09	1.771490e+01	3.866259e+02
2.290000e-06	2.436797e-06	5.791491e-09	1.686505e+01	3.777206e+02
2.300000e-06	2.313088e-06	5.649886e-09	1.600886e+01	3.686163e+02
2.310000e-06	2.188591e-06	5.516678e-09	1.514722e+01	3.593110e+02
2.320000e-06	2.063389e-06	5.379196e-09	1.428070e+01	3.497991e+02
2.330000e-06	1.937459e-06	5.227032e-09	1.340913e+01	3.400703e+02
2.340000e-06	1.810785e-06	5.062567e-09	1.253242e+01	3.301104e+02
2.350000e-06	1.683390e-06	4.899576e-09	1.165072e+01	3.199019e+02
2.360000e-06	1.555448e-06	4.741765e-09	1.076524e+01	3.094254e+02
2.370000e-06	1.427081e-06	4.583971e-09	9.876815e+00	2.986613e+02
2.380000e-06	1.298297e-06	4.419260e-09	8.985499e+00	2.875913e+02
2.390000e-06	1.169063e-06	4.242657e-09	8.091073e+00	2.762003e+02
2.400000e-06	1.039421e-06	4.059780e-09	7.193820e+00	2.644768e+02
2.410000e-06	9.095091e-07	3.877731e-09	6.294703e+00	2.524139e+02
2.420000e-06	7.793539e-07	3.696506e-09	5.393900e+00	2.400085e+02
2.430000e-06	6.489863e-07	3.507397e-09	4.491627e+00	2.272599e+02
2.440000e-06	5.184462e-07	3.305368e-09	3.588160e+00	2.141681e+02
2.450000e-06	3.877312e-07	3.091386e-09	2.683483e+00	2.007316e+02
2.460000e-06	2.568341e-07	2.874496e-09	1.777546e+00	1.869438e+02
2.470000e-06	1.258418e-07	2.657971e-09	8.709500e-01	1.727919e+02
2.480000e-06	-5.159469e-09	2.438932e-09	-3.570863e-02	1.582540e+02
2.490000e-06	-1.362103e-07	2.212963e-09	-9.427103e-01	1.432993e+02
2.500000e-06	-2.672218e-07	1.972725e-09	-1.849439e+00	1.278879e+02
2.510000e-06	-3.981545e-07	1.721639e-09	-2.755623e+00	1.119734e+02
2.520000e-06	-5.290055e-07	1.467801e-09	-3.661241e+00	9.550614e+01
2.530000e-06	-6.596849e-07	1.209870e-09	-4.565672e+00	7.843767e+01
2.540000e-06	-7.901562e-07	9.426975e-10	-5.468662e+00	6.072660e+01
2.550000e-06	-9.203937e-07	6.611047e-10	-6.370035e+00	4.234436e+01
2.560000e-06	-1.050376e-06	3.681589e-10	-7.269641e+00	2.328096e+01
2.570000e-06	-1.180067e-06	7.074905e-11	-8.167234e+00	3.549786e+00
2.580000e-06	-1.309354e-06	-2.342620e-10	-9.062028e+00	-1.680886e+01
2.590000e-06	-1.438186e-06	-5.518204e-10	-9.953669e+00	-3.772619e+01
2.600000e-06	-1.566539e-06	-8.815415e-10	-1.084200e+01	-5.910551e+01
2.610000e-06	-1.694286e-06	-1.219824e-09	-1.172614e+01	-8.082494e+01
2.620000e-06	-1.821352e-06	-1.559820e-09	-1.260556e+01	-1.027423e+02
2.630000e-06	-1.947724e-06	-1.895726e-09	-1.348018e+01	-1.247017e+02
2.640000e-06	-2.073395e-06	-2.227935e-09	-1.434995e+01	-1.465415e+02
2.650000e-06	-2.198217e-06	-2.558125e-09	-1.521383e+01	-1.681022e+02
2.660000e-06	-2.322092e-06	-2.884587e-09	-1.607117e+01	-1.892350e+02
2.670000e-06	-2.445084e-06	-3.199217e-09	-1.692240e+01	-2.098090e+02
2.680000e-06	-2.567203e-06	-3.497566e-09	-1.776759e+01	-2.297166e+02
2.690000e-06	-2.688378e-06	-3.784968e-09	-1.860624e+01	-2.488778e+02
2.700000e-06	-2.808508e-06	-4.064951e-09	-1.943765e+01	-2.672412e+02
2.710000e-06	-2.927593e-06	-4.336932e-09	-2.026184e+01	-2.847839e+02
2.720000e-06	-3.045605e-06	-4.597058e-09	-2.107860e+01	-3.015085e+02
2.730000e-06	-3.162325e-06	-4.841649e-09	-2.188642e+01	-3.174392e+02
2.740000e-06	-3.277659e-06	-5.073128e-09	-2.268464e+01	-3.326158e+02
2.750000e-06	-3.391683e-06	-5.296763e-09	-2.347380e+01	-3.470883e+02
2.760000e-06	-3.504380e-06	-5.514625e-09	-2.425377e+01	-3.609108e+02
2.770000e-06	-3.615638e-06	-5.721942e-09	-2.502379e+01	-3.741363e+02
2.780000e-06	-3.725508e-06	-5.917604e-09	-2.578420e+01	-3.868127e+02
2.790000e-06	-3.834170e-06	-6.103281e-09	-2.653625e+01	-3.989798e+02
2.800000e-06	-3.941624e-06	-6.282277e-09	-2.727994e+01	-4.106683e+02
2.810000e-06	-4.047832e-06	-6.454291e-09	-2.801501e+01	-4.218996e+02
2.820000e-06	-4.152614e-06	-6.617918e-09	-2.874020e+01	-4.326869e+02
2.830000e-06	-4.255826e-06	-6.773398e-09	-2.945453e+01	-4.430376e+02
2.840000e-06	-4.357497e-06	-6.920347e-09	-3.015819e+01	-4.529558e+02
2.850000e-06	-4.457579e-06	-7.062126e-09	-3.085085e+01	-4.624444e+02
2.860000e-06	-4.556147e-06	-7.200540e-09	-3.153305e+01	-4.715078e+02
2.870000e-06	-4.653211e-06	-7.335319e-09	-3.220482e+01	-4.801534e+02
2.880000e-06	-4.748603e-06	-7.463143e-09	-3.286503e+01	-4.883926e+02
2.890000e-06	-4.842237e-06	-7.583767e-09	-3.351307e+01	-4.962410e+02
2.900000e-06	-4.934097e-06	-7.699400e-09	-3.414883e+01	-5.037176e+02
2.910000e-06	-5.024233e-06	-7.810300e-09	-3.477266e+01	-5.108444e+02
2.920000e-06	-5.112595e-06	-7.915818e-09	-3.538421e+01	-5.176444e+02
2.930000e-06	-5.199076e-06	-8.014575e-09	-3.598275e+01	-5.241405e+02
2.940000e-06	-5.283609e-06	-8.107350e-09	-3.656780e+01	-5.303539e+02
