# Temperatura_=_55.52
# Concentracion g/m^3_=_15000.0
# C_Vs_to_Am_M_A/Vsm_=_65563218390.804596
# pendiente_HvsI_1/m_=_3716.3
# ordenada_HvsI_A/m_=_1297.0
# frecuencia_Hz_=_301896.03278154274

Tiempo_(s)	Campo_(V.s)	Magnetizacion_(V.s)	Campo_(kA/m)	Magnetizacion_(A/m)
0.000000e+00	-6.818403e-06	-9.034315e-09	-4.749986e+01	-5.902609e+02
1.000000e-08	-6.815535e-06	-9.029703e-09	-4.747987e+01	-5.900444e+02
2.000000e-08	-6.810410e-06	-9.026765e-09	-4.744417e+01	-5.897108e+02
3.000000e-08	-6.803188e-06	-9.023694e-09	-4.739386e+01	-5.892620e+02
4.000000e-08	-6.793695e-06	-9.016232e-09	-4.732773e+01	-5.887027e+02
5.000000e-08	-6.781721e-06	-9.005409e-09	-4.724432e+01	-5.880404e+02
6.000000e-08	-6.767231e-06	-8.991012e-09	-4.714337e+01	-5.872847e+02
7.000000e-08	-6.750378e-06	-8.975223e-09	-4.702596e+01	-5.864467e+02
8.000000e-08	-6.731407e-06	-8.969117e-09	-4.689381e+01	-5.855379e+02
9.000000e-08	-6.710053e-06	-8.956509e-09	-4.674505e+01	-5.845688e+02
1.000000e-07	-6.685875e-06	-8.946894e-09	-4.657661e+01	-5.835482e+02
1.100000e-07	-6.658943e-06	-8.928984e-09	-4.638899e+01	-5.824814e+02
1.200000e-07	-6.629693e-06	-8.897688e-09	-4.618523e+01	-5.813702e+02
1.300000e-07	-6.598481e-06	-8.858636e-09	-4.596779e+01	-5.802123e+02
1.400000e-07	-6.565335e-06	-8.856174e-09	-4.573688e+01	-5.790010e+02
1.500000e-07	-6.530226e-06	-8.831921e-09	-4.549230e+01	-5.777259e+02
1.600000e-07	-6.493094e-06	-8.784902e-09	-4.523362e+01	-5.763740e+02
1.700000e-07	-6.453917e-06	-8.795241e-09	-4.496070e+01	-5.749301e+02
1.800000e-07	-6.412450e-06	-8.732042e-09	-4.467182e+01	-5.733788e+02
1.900000e-07	-6.368474e-06	-8.707513e-09	-4.436546e+01	-5.717051e+02
2.000000e-07	-6.322181e-06	-8.716921e-09	-4.404297e+01	-5.698960e+02
2.100000e-07	-6.273409e-06	-8.697676e-09	-4.370320e+01	-5.679412e+02
2.200000e-07	-6.221967e-06	-8.691147e-09	-4.334483e+01	-5.658337e+02
2.300000e-07	-6.168001e-06	-8.619318e-09	-4.296888e+01	-5.635704e+02
2.400000e-07	-6.111705e-06	-8.553553e-09	-4.257670e+01	-5.611515e+02
2.500000e-07	-6.053126e-06	-8.511436e-09	-4.216862e+01	-5.585807e+02
2.600000e-07	-5.992319e-06	-8.458041e-09	-4.174501e+01	-5.558641e+02
2.700000e-07	-5.929363e-06	-8.419192e-09	-4.130643e+01	-5.530095e+02
2.800000e-07	-5.864181e-06	-8.387949e-09	-4.085235e+01	-5.500256e+02
2.900000e-07	-5.796770e-06	-8.340845e-09	-4.038273e+01	-5.469208e+02
3.000000e-07	-5.727186e-06	-8.271793e-09	-3.989798e+01	-5.437026e+02
3.100000e-07	-5.655529e-06	-8.238940e-09	-3.939879e+01	-5.403768e+02
3.200000e-07	-5.581719e-06	-8.201971e-09	-3.888460e+01	-5.369471e+02
3.300000e-07	-5.505632e-06	-8.125808e-09	-3.835454e+01	-5.334151e+02
3.400000e-07	-5.427313e-06	-8.072498e-09	-3.780894e+01	-5.297799e+02
3.500000e-07	-5.346816e-06	-8.024315e-09	-3.724816e+01	-5.260386e+02
3.600000e-07	-5.264394e-06	-7.975040e-09	-3.667398e+01	-5.221865e+02
3.700000e-07	-5.180289e-06	-7.914350e-09	-3.608807e+01	-5.182178e+02
3.800000e-07	-5.094465e-06	-7.842500e-09	-3.549018e+01	-5.141262e+02
3.900000e-07	-5.006915e-06	-7.765885e-09	-3.488027e+01	-5.099053e+02
4.000000e-07	-4.917574e-06	-7.686442e-09	-3.425789e+01	-5.055492e+02
4.100000e-07	-4.826446e-06	-7.623278e-09	-3.362305e+01	-5.010527e+02
4.200000e-07	-4.733703e-06	-7.568794e-09	-3.297696e+01	-4.964121e+02
4.300000e-07	-4.639305e-06	-7.502740e-09	-3.231934e+01	-4.916246e+02
4.400000e-07	-4.543250e-06	-7.414473e-09	-3.165018e+01	-4.866889e+02
4.500000e-07	-4.445476e-06	-7.320331e-09	-3.096905e+01	-4.816045e+02
4.600000e-07	-4.346034e-06	-7.239734e-09	-3.027629e+01	-4.763717e+02
4.700000e-07	-4.245099e-06	-7.164030e-09	-2.957314e+01	-4.709907e+02
4.800000e-07	-4.142708e-06	-7.091027e-09	-2.885984e+01	-4.654620e+02
4.900000e-07	-4.038920e-06	-7.014462e-09	-2.813681e+01	-4.597851e+02
5.000000e-07	-3.933661e-06	-6.923718e-09	-2.740354e+01	-4.539586e+02
5.100000e-07	-3.826805e-06	-6.825670e-09	-2.665913e+01	-4.479802e+02
5.200000e-07	-3.718562e-06	-6.725968e-09	-2.590506e+01	-4.418460e+02
5.300000e-07	-3.609166e-06	-6.621389e-09	-2.514296e+01	-4.355513e+02
5.400000e-07	-3.498544e-06	-6.511614e-09	-2.437232e+01	-4.290906e+02
5.500000e-07	-3.386449e-06	-6.405842e-09	-2.359142e+01	-4.224576e+02
5.600000e-07	-3.272870e-06	-6.304749e-09	-2.280019e+01	-4.156466e+02
5.700000e-07	-3.157881e-06	-6.209677e-09	-2.199912e+01	-4.086518e+02
5.800000e-07	-3.041541e-06	-6.111952e-09	-2.118865e+01	-4.014687e+02
5.900000e-07	-2.924009e-06	-6.001725e-09	-2.036987e+01	-3.940936e+02
6.000000e-07	-2.805438e-06	-5.880279e-09	-1.954386e+01	-3.865238e+02
6.100000e-07	-2.685957e-06	-5.753283e-09	-1.871150e+01	-3.787578e+02
6.200000e-07	-2.565541e-06	-5.630435e-09	-1.787263e+01	-3.707944e+02
6.300000e-07	-2.444150e-06	-5.508109e-09	-1.702697e+01	-3.626321e+02
6.400000e-07	-2.321720e-06	-5.378038e-09	-1.617408e+01	-3.542690e+02
6.500000e-07	-2.198304e-06	-5.241725e-09	-1.531431e+01	-3.457013e+02
6.600000e-07	-2.074151e-06	-5.102304e-09	-1.444941e+01	-3.369235e+02
6.700000e-07	-1.949432e-06	-4.963800e-09	-1.358056e+01	-3.279275e+02
6.800000e-07	-1.824146e-06	-4.828151e-09	-1.270777e+01	-3.187027e+02
6.900000e-07	-1.698210e-06	-4.690104e-09	-1.183045e+01	-3.092363e+02
7.000000e-07	-1.571614e-06	-4.543754e-09	-1.094852e+01	-2.995142e+02
7.100000e-07	-1.444550e-06	-4.387705e-09	-1.006334e+01	-2.895212e+02
7.200000e-07	-1.317095e-06	-4.226108e-09	-9.175439e+00	-2.792425e+02
7.300000e-07	-1.189218e-06	-4.062295e-09	-8.284590e+00	-2.686648e+02
7.400000e-07	-1.060933e-06	-3.893914e-09	-7.390902e+00	-2.577769e+02
7.500000e-07	-9.322742e-07	-3.720221e-09	-6.494613e+00	-2.465706e+02
7.600000e-07	-8.033373e-07	-3.542357e-09	-5.596385e+00	-2.350402e+02
7.700000e-07	-6.741873e-07	-3.363329e-09	-4.696671e+00	-2.231828e+02
7.800000e-07	-5.447639e-07	-3.181513e-09	-3.795054e+00	-2.109964e+02
7.900000e-07	-4.150014e-07	-2.995336e-09	-2.891074e+00	-1.984789e+02
8.000000e-07	-2.850534e-07	-2.800918e-09	-1.985801e+00	-1.856263e+02
8.100000e-07	-1.549269e-07	-2.597021e-09	-1.079286e+00	-1.724301e+02
8.200000e-07	-2.466902e-08	-2.387321e-09	-1.718548e-01	-1.588763e+02
8.300000e-07	1.055930e-07	-2.173865e-09	7.356049e-01	-1.449435e+02
8.400000e-07	2.358165e-07	-1.957594e-09	1.642797e+00	-1.306030e+02
8.500000e-07	3.659392e-07	-1.733336e-09	2.549286e+00	-1.158192e+02
8.600000e-07	4.959810e-07	-1.499121e-09	3.455212e+00	-1.005515e+02
8.700000e-07	6.258646e-07	-1.255548e-09	4.360035e+00	-8.475705e+01
8.800000e-07	7.554278e-07	-1.006743e-09	5.262627e+00	-6.839523e+01
8.900000e-07	8.846471e-07	-7.527961e-10	6.162823e+00	-5.143203e+01
9.000000e-07	1.013580e-06	-4.893938e-10	7.061022e+00	-3.384532e+01
9.100000e-07	1.142162e-06	-2.141850e-10	7.956777e+00	-1.562980e+01
9.200000e-07	1.270402e-06	7.223666e-11	8.850154e+00	3.198736e+00
9.300000e-07	1.398302e-06	3.668108e-10	9.741159e+00	2.260029e+01
9.400000e-07	1.525762e-06	6.693576e-10	1.062910e+01	4.250917e+01
9.500000e-07	1.652691e-06	9.794391e-10	1.151334e+01	6.283433e+01
9.600000e-07	1.778991e-06	1.295032e-09	1.239319e+01	8.346179e+01
9.700000e-07	1.904619e-06	1.614624e-09	1.326837e+01	1.042589e+02
9.800000e-07	2.029560e-06	1.934250e-09	1.413876e+01	1.250800e+02
9.900000e-07	2.153866e-06	2.252032e-09	1.500473e+01	1.457741e+02
1.000000e-06	2.277549e-06	2.565610e-09	1.586636e+01	1.661917e+02
1.010000e-06	2.400331e-06	2.872229e-09	1.672171e+01	1.861930e+02
1.020000e-06	2.521959e-06	3.169245e-09	1.756902e+01	2.056545e+02
1.030000e-06	2.642535e-06	3.452173e-09	1.840901e+01	2.244746e+02
1.040000e-06	2.762238e-06	3.721662e-09	1.924291e+01	2.425773e+02
1.050000e-06	2.881011e-06	3.980001e-09	2.007033e+01	2.599142e+02
1.060000e-06	2.998755e-06	4.227612e-09	2.089059e+01	2.764639e+02
1.070000e-06	3.115456e-06	4.465575e-09	2.170357e+01	2.922297e+02
1.080000e-06	3.230958e-06	4.691928e-09	2.250821e+01	3.072356e+02
1.090000e-06	3.344998e-06	4.907015e-09	2.330266e+01	3.215214e+02
1.100000e-06	3.457675e-06	5.112156e-09	2.408761e+01	3.351362e+02
1.110000e-06	3.569109e-06	5.310219e-09	2.486391e+01	3.481335e+02
1.120000e-06	3.679265e-06	5.502197e-09	2.563130e+01	3.605652e+02
1.130000e-06	3.788252e-06	5.685017e-09	2.639055e+01	3.724779e+02
1.140000e-06	3.896137e-06	5.859459e-09	2.714213e+01	3.839096e+02
1.150000e-06	4.002641e-06	6.025960e-09	2.788407e+01	3.948887e+02
1.160000e-06	4.107569e-06	6.185104e-09	2.861505e+01	4.054336e+02
1.170000e-06	4.211011e-06	6.337763e-09	2.933567e+01	4.155543e+02
1.180000e-06	4.312944e-06	6.483181e-09	3.004577e+01	4.252545e+02
1.190000e-06	4.413393e-06	6.622474e-09	3.074554e+01	4.345347e+02
1.200000e-06	4.512270e-06	6.757054e-09	3.143436e+01	4.433946e+02
1.210000e-06	4.609369e-06	6.885254e-09	3.211080e+01	4.518361e+02
1.220000e-06	4.704706e-06	7.007311e-09	3.277495e+01	4.598653e+02
1.230000e-06	4.798418e-06	7.123922e-09	3.342779e+01	4.674935e+02
1.240000e-06	4.890623e-06	7.235185e-09	3.407013e+01	4.747378e+02
1.250000e-06	4.981107e-06	7.339833e-09	3.470048e+01	4.816202e+02
1.260000e-06	5.069636e-06	7.438472e-09	3.531721e+01	4.881668e+02
1.270000e-06	5.156339e-06	7.533913e-09	3.592122e+01	4.944054e+02
1.280000e-06	5.241351e-06	7.625900e-09	3.651345e+01	5.003643e+02
1.290000e-06	5.324598e-06	7.711108e-09	3.709339e+01	5.060695e+02
1.300000e-06	5.405846e-06	7.789773e-09	3.765939e+01	5.115443e+02
1.310000e-06	5.485029e-06	7.866195e-09	3.821101e+01	5.168069e+02
1.320000e-06	5.562214e-06	7.941363e-09	3.874872e+01	5.218711e+02
1.330000e-06	5.637307e-06	8.013867e-09	3.927185e+01	5.267455e+02
1.340000e-06	5.710181e-06	8.084290e-09	3.977952e+01	5.314348e+02
1.350000e-06	5.780926e-06	8.153163e-09	4.027236e+01	5.359402e+02
1.360000e-06	5.849702e-06	8.219637e-09	4.075148e+01	5.402612e+02
1.370000e-06	5.916360e-06	8.283418e-09	4.121584e+01	5.443960e+02
1.380000e-06	5.980786e-06	8.343559e-09	4.166467e+01	5.483434e+02
1.390000e-06	6.043176e-06	8.400214e-09	4.209930e+01	5.521027e+02
1.400000e-06	6.103640e-06	8.453432e-09	4.252052e+01	5.556747e+02
1.410000e-06	6.161980e-06	8.503475e-09	4.292694e+01	5.590614e+02
1.420000e-06	6.218085e-06	8.550967e-09	4.331779e+01	5.622658e+02
1.430000e-06	6.271994e-06	8.595486e-09	4.369334e+01	5.652917e+02
1.440000e-06	6.323476e-06	8.637991e-09	4.405199e+01	5.681429e+02
1.450000e-06	6.372343e-06	8.677489e-09	4.439241e+01	5.708227e+02
1.460000e-06	6.418747e-06	8.715210e-09	4.471568e+01	5.733338e+02
1.470000e-06	6.463049e-06	8.751779e-09	4.502431e+01	5.756782e+02
1.480000e-06	6.505078e-06	8.784744e-09	4.531710e+01	5.778572e+02
1.490000e-06	6.544619e-06	8.814983e-09	4.559256e+01	5.798718e+02
1.500000e-06	6.581943e-06	8.842392e-09	4.585258e+01	5.817232e+02
1.510000e-06	6.617077e-06	8.865736e-09	4.609733e+01	5.834134e+02
1.520000e-06	6.649783e-06	8.886374e-09	4.632518e+01	5.849455e+02
1.530000e-06	6.680105e-06	8.904961e-09	4.653642e+01	5.863238e+02
1.540000e-06	6.708258e-06	8.923107e-09	4.673254e+01	5.875545e+02
1.550000e-06	6.733986e-06	8.939712e-09	4.691177e+01	5.886448e+02
1.560000e-06	6.757123e-06	8.952509e-09	4.707295e+01	5.896027e+02
1.570000e-06	6.777950e-06	8.963541e-09	4.721804e+01	5.904365e+02
1.580000e-06	6.796477e-06	8.975168e-09	4.734711e+01	5.911537e+02
1.590000e-06	6.812427e-06	8.985778e-09	4.745822e+01	5.917607e+02
1.600000e-06	6.825818e-06	8.994318e-09	4.755151e+01	5.922620e+02
1.610000e-06	6.836564e-06	9.000908e-09	4.762638e+01	5.926599e+02
1.620000e-06	6.844603e-06	9.004964e-09	4.768237e+01	5.929544e+02
1.630000e-06	6.850221e-06	9.007527e-09	4.772151e+01	5.931437e+02
1.640000e-06	6.853529e-06	9.009385e-09	4.774456e+01	5.932247e+02
1.650000e-06	6.854418e-06	9.010491e-09	4.775075e+01	5.931936e+02
1.660000e-06	6.852882e-06	9.007493e-09	4.774005e+01	5.930473e+02
1.670000e-06	6.849150e-06	9.004915e-09	4.771405e+01	5.927841e+02
1.680000e-06	6.843138e-06	8.999058e-09	4.767217e+01	5.924042e+02
1.690000e-06	6.834822e-06	8.991453e-09	4.761424e+01	5.919106e+02
1.700000e-06	6.824393e-06	8.984543e-09	4.754159e+01	5.913091e+02
1.710000e-06	6.811688e-06	8.976487e-09	4.745307e+01	5.906082e+02
1.720000e-06	6.796544e-06	8.969277e-09	4.734758e+01	5.898181e+02
1.730000e-06	6.779237e-06	8.941752e-09	4.722701e+01	5.889502e+02
1.740000e-06	6.759747e-06	8.926630e-09	4.709123e+01	5.880159e+02
1.750000e-06	6.737155e-06	8.908442e-09	4.693385e+01	5.870250e+02
1.760000e-06	6.711223e-06	8.886056e-09	4.675319e+01	5.859850e+02
1.770000e-06	6.682773e-06	8.883867e-09	4.655500e+01	5.849002e+02
1.780000e-06	6.652255e-06	8.881835e-09	4.634240e+01	5.837705e+02
1.790000e-06	6.620170e-06	8.836019e-09	4.611888e+01	5.825919e+02
1.800000e-06	6.586620e-06	8.860263e-09	4.588516e+01	5.813562e+02
1.810000e-06	6.550738e-06	8.836387e-09	4.563519e+01	5.800520e+02
1.820000e-06	6.512403e-06	8.806528e-09	4.536813e+01	5.786651e+02
1.830000e-06	6.471939e-06	8.844271e-09	4.508624e+01	5.771802e+02
1.840000e-06	6.429239e-06	8.763455e-09	4.478877e+01	5.755818e+02
1.850000e-06	6.384384e-06	8.731883e-09	4.447629e+01	5.738557e+02
1.860000e-06	6.337144e-06	8.696814e-09	4.414720e+01	5.719897e+02
1.870000e-06	6.287521e-06	8.631647e-09	4.380151e+01	5.699748e+02
1.880000e-06	6.235733e-06	8.644619e-09	4.344073e+01	5.678056e+02
1.890000e-06	6.181225e-06	8.626782e-09	4.306100e+01	5.654802e+02
1.900000e-06	6.124138e-06	8.615685e-09	4.266331e+01	5.630004e+02
1.910000e-06	6.064866e-06	8.581235e-09	4.225040e+01	5.603708e+02
1.920000e-06	6.003267e-06	8.494698e-09	4.182128e+01	5.575983e+02
1.930000e-06	5.939451e-06	8.454699e-09	4.137671e+01	5.546912e+02
1.940000e-06	5.873472e-06	8.410366e-09	4.091707e+01	5.516581e+02
1.950000e-06	5.805419e-06	8.378022e-09	4.044298e+01	5.485072e+02
1.960000e-06	5.735062e-06	8.322193e-09	3.995284e+01	5.452454e+02
1.970000e-06	5.662363e-06	8.272790e-09	3.944640e+01	5.418778e+02
1.980000e-06	5.587617e-06	8.226487e-09	3.892569e+01	5.384073e+02
1.990000e-06	5.510663e-06	8.155991e-09	3.838959e+01	5.348343e+02
2.000000e-06	5.431490e-06	8.101660e-09	3.783804e+01	5.311571e+02
2.010000e-06	5.350348e-06	8.039527e-09	3.727277e+01	5.273722e+02
2.020000e-06	5.267481e-06	7.984044e-09	3.669548e+01	5.234743e+02
2.030000e-06	5.182779e-06	7.924084e-09	3.610541e+01	5.194575e+02
2.040000e-06	5.096024e-06	7.878076e-09	3.550104e+01	5.153151e+02
2.050000e-06	5.007417e-06	7.819461e-09	3.488377e+01	5.110411e+02
2.060000e-06	4.917262e-06	7.734965e-09	3.425571e+01	5.066297e+02
2.070000e-06	4.825561e-06	7.653068e-09	3.361688e+01	5.020763e+02
2.080000e-06	4.732096e-06	7.575733e-09	3.296576e+01	4.973775e+02
2.090000e-06	4.636827e-06	7.519220e-09	3.230208e+01	4.925312e+02
2.100000e-06	4.539926e-06	7.455612e-09	3.162703e+01	4.875364e+02
2.110000e-06	4.441562e-06	7.387793e-09	3.094179e+01	4.823930e+02
2.120000e-06	4.341785e-06	7.306082e-09	3.024669e+01	4.771012e+02
2.130000e-06	4.240433e-06	7.203884e-09	2.954063e+01	4.716615e+02
2.140000e-06	4.137392e-06	7.102615e-09	2.882281e+01	4.660740e+02
2.150000e-06	4.032755e-06	7.015618e-09	2.809386e+01	4.603378e+02
2.160000e-06	3.926749e-06	6.938640e-09	2.735538e+01	4.544513e+02
2.170000e-06	3.819445e-06	6.860947e-09	2.660786e+01	4.484115e+02
2.180000e-06	3.710830e-06	6.773997e-09	2.585120e+01	4.422142e+02
2.190000e-06	3.600809e-06	6.675460e-09	2.508474e+01	4.358543e+02
2.200000e-06	3.489334e-06	6.576548e-09	2.430816e+01	4.293260e+02
2.210000e-06	3.376497e-06	6.470108e-09	2.352209e+01	4.226231e+02
2.220000e-06	3.262363e-06	6.358616e-09	2.272699e+01	4.157398e+02
2.230000e-06	3.146940e-06	6.244455e-09	2.192290e+01	4.086709e+02
2.240000e-06	3.030282e-06	6.133470e-09	2.111021e+01	4.014120e+02
2.250000e-06	2.912408e-06	6.024835e-09	2.028906e+01	3.939599e+02
2.260000e-06	2.793230e-06	5.912022e-09	1.945881e+01	3.863126e+02
2.270000e-06	2.672887e-06	5.793610e-09	1.862045e+01	3.784684e+02
2.280000e-06	2.551652e-06	5.670635e-09	1.777588e+01	3.704264e+02
2.290000e-06	2.429572e-06	5.544833e-09	1.692542e+01	3.621848e+02
2.300000e-06	2.306668e-06	5.421655e-09	1.606921e+01	3.537412e+02
2.310000e-06	2.183047e-06	5.301270e-09	1.520802e+01	3.450911e+02
2.320000e-06	2.058728e-06	5.171517e-09	1.434196e+01	3.362279e+02
2.330000e-06	1.933769e-06	5.027614e-09	1.347144e+01	3.271427e+02
2.340000e-06	1.808150e-06	4.873445e-09	1.259633e+01	3.178240e+02
2.350000e-06	1.681806e-06	4.718543e-09	1.171617e+01	3.082583e+02
2.360000e-06	1.554778e-06	4.568329e-09	1.083123e+01	2.984308e+02
2.370000e-06	1.427208e-06	4.420866e-09	9.942532e+00	2.883266e+02
2.380000e-06	1.299167e-06	4.270172e-09	9.050540e+00	2.779312e+02
2.390000e-06	1.170644e-06	4.111088e-09	8.155195e+00	2.672322e+02
2.400000e-06	1.041711e-06	3.942395e-09	7.256999e+00	2.562193e+02
2.410000e-06	9.125166e-07	3.768270e-09	6.356973e+00	2.448855e+02
2.420000e-06	7.831250e-07	3.589623e-09	5.455577e+00	2.332262e+02
2.430000e-06	6.535287e-07	3.406849e-09	4.552755e+00	2.212390e+02
2.440000e-06	5.237648e-07	3.221352e-09	3.648765e+00	2.089222e+02
2.450000e-06	3.938428e-07	3.030317e-09	2.743674e+00	1.962731e+02
2.460000e-06	2.637640e-07	2.833404e-09	1.837491e+00	1.832861e+02
2.470000e-06	1.335603e-07	2.629171e-09	9.304372e-01	1.699508e+02
2.480000e-06	3.280965e-09	2.417594e-09	2.285658e-02	1.562503e+02
2.490000e-06	-1.270561e-07	2.201154e-09	-8.851263e-01	1.421605e+02
2.500000e-06	-2.573739e-07	1.976635e-09	-1.792975e+00	1.276498e+02
2.510000e-06	-3.875846e-07	1.744543e-09	-2.700077e+00	1.126802e+02
2.520000e-06	-5.176559e-07	1.509200e-09	-3.606208e+00	9.720995e+01
2.530000e-06	-6.475680e-07	1.267170e-09	-4.511230e+00	8.119653e+01
2.540000e-06	-7.773264e-07	1.014845e-09	-5.415182e+00	6.460127e+01
2.550000e-06	-9.068397e-07	7.483832e-10	-6.317426e+00	4.739424e+01
2.560000e-06	-1.036023e-06	4.709912e-10	-7.217373e+00	2.955936e+01
2.570000e-06	-1.164945e-06	1.898825e-10	-8.115497e+00	1.109915e+01
2.580000e-06	-1.293601e-06	-9.554090e-11	-9.011768e+00	-7.961363e+00
2.590000e-06	-1.421869e-06	-3.892584e-10	-9.905334e+00	-2.757218e+01
2.600000e-06	-1.549583e-06	-6.946511e-10	-1.079504e+01	-4.765749e+01
2.610000e-06	-1.676552e-06	-1.009682e-09	-1.167956e+01	-6.811684e+01
2.620000e-06	-1.802685e-06	-1.330477e-09	-1.255826e+01	-8.882830e+01
2.630000e-06	-1.928066e-06	-1.651702e-09	-1.343172e+01	-1.096534e+02
2.640000e-06	-2.052783e-06	-1.969579e-09	-1.430055e+01	-1.304434e+02
2.650000e-06	-2.176751e-06	-2.283345e-09	-1.516416e+01	-1.510470e+02
2.660000e-06	-2.299841e-06	-2.593504e-09	-1.602166e+01	-1.713177e+02
2.670000e-06	-2.421979e-06	-2.895903e-09	-1.687252e+01	-1.911212e+02
2.680000e-06	-2.543257e-06	-3.185942e-09	-1.771740e+01	-2.103422e+02
2.690000e-06	-2.663762e-06	-3.466135e-09	-1.855688e+01	-2.288887e+02
2.700000e-06	-2.783251e-06	-3.737518e-09	-1.938930e+01	-2.466955e+02
2.710000e-06	-2.901485e-06	-3.999648e-09	-2.021296e+01	-2.637249e+02
2.720000e-06	-3.018553e-06	-4.250806e-09	-2.102851e+01	-2.799657e+02
2.730000e-06	-3.134454e-06	-4.488330e-09	-2.183592e+01	-2.954298e+02
2.740000e-06	-3.249120e-06	-4.714468e-09	-2.263473e+01	-3.101481e+02
2.750000e-06	-3.362461e-06	-4.932300e-09	-2.342431e+01	-3.241647e+02
2.760000e-06	-3.474346e-06	-5.143261e-09	-2.420375e+01	-3.375312e+02
2.770000e-06	-3.584887e-06	-5.343978e-09	-2.497383e+01	-3.503010e+02
2.780000e-06	-3.694186e-06	-5.532679e-09	-2.573525e+01	-3.625244e+02
2.790000e-06	-3.802341e-06	-5.710944e-09	-2.648870e+01	-3.742449e+02
2.800000e-06	-3.909271e-06	-5.882002e-09	-2.723362e+01	-3.854966e+02
2.810000e-06	-4.014857e-06	-6.046850e-09	-2.796918e+01	-3.963041e+02
2.820000e-06	-4.119120e-06	-6.203762e-09	-2.869552e+01	-4.066822e+02
2.830000e-06	-4.221772e-06	-6.353743e-09	-2.941063e+01	-4.166383e+02
2.840000e-06	-4.322799e-06	-6.496689e-09	-3.011443e+01	-4.261742e+02
2.850000e-06	-4.422364e-06	-6.634511e-09	-3.080804e+01	-4.352900e+02
2.860000e-06	-4.520377e-06	-6.767810e-09	-3.149084e+01	-4.439858e+02
2.870000e-06	-4.616827e-06	-6.896492e-09	-3.216275e+01	-4.522650e+02
2.880000e-06	-4.711564e-06	-7.019339e-09	-3.282273e+01	-4.601357e+02
2.890000e-06	-4.804618e-06	-7.135354e-09	-3.347099e+01	-4.676114e+02
2.900000e-06	-4.896082e-06	-7.246581e-09	-3.410816e+01	-4.747113e+02
2.910000e-06	-4.985824e-06	-7.352500e-09	-3.473334e+01	-4.814592e+02
2.920000e-06	-5.073740e-06	-7.452688e-09	-3.534580e+01	-4.878821e+02
2.930000e-06	-5.159708e-06	-7.546564e-09	-3.594469e+01	-4.940082e+02
2.940000e-06	-5.243768e-06	-7.634582e-09	-3.653029e+01	-4.998652e+02
