# Temperatura_=_44.49
# Concentracion g/m^3_=_15000.0
# C_Vs_to_Am_M_A/Vsm_=_65563218390.804596
# pendiente_HvsI_1/m_=_3716.3
# ordenada_HvsI_A/m_=_1297.0
# frecuencia_Hz_=_301892.622573545

Tiempo_(s)	Campo_(V.s)	Magnetizacion_(V.s)	Campo_(kA/m)	Magnetizacion_(A/m)
0.000000e+00	-6.890739e-06	-8.631402e-09	-4.750105e+01	-5.640299e+02
1.000000e-08	-6.887925e-06	-8.629047e-09	-4.748165e+01	-5.638578e+02
2.000000e-08	-6.882862e-06	-8.626099e-09	-4.744674e+01	-5.635703e+02
3.000000e-08	-6.875716e-06	-8.621605e-09	-4.739749e+01	-5.631698e+02
4.000000e-08	-6.866193e-06	-8.615569e-09	-4.733184e+01	-5.626624e+02
5.000000e-08	-6.854091e-06	-8.607458e-09	-4.724841e+01	-5.620577e+02
6.000000e-08	-6.839477e-06	-8.595164e-09	-4.714768e+01	-5.613684e+02
7.000000e-08	-6.822534e-06	-8.582622e-09	-4.703088e+01	-5.606085e+02
8.000000e-08	-6.803513e-06	-8.574947e-09	-4.689976e+01	-5.597925e+02
9.000000e-08	-6.782138e-06	-8.570202e-09	-4.675241e+01	-5.589332e+02
1.000000e-07	-6.757929e-06	-8.560668e-09	-4.658553e+01	-5.580404e+02
1.100000e-07	-6.730894e-06	-8.536037e-09	-4.639916e+01	-5.571198e+02
1.200000e-07	-6.701504e-06	-8.509199e-09	-4.619656e+01	-5.561723e+02
1.300000e-07	-6.670118e-06	-8.488128e-09	-4.598021e+01	-5.551933e+02
1.400000e-07	-6.636735e-06	-8.457562e-09	-4.575008e+01	-5.541734e+02
1.500000e-07	-6.601417e-06	-8.415950e-09	-4.550661e+01	-5.530991e+02
1.600000e-07	-6.564078e-06	-8.434881e-09	-4.524922e+01	-5.519539e+02
1.700000e-07	-6.524637e-06	-8.406923e-09	-4.497734e+01	-5.507202e+02
1.800000e-07	-6.482864e-06	-8.356918e-09	-4.468938e+01	-5.493804e+02
1.900000e-07	-6.438521e-06	-8.366004e-09	-4.438370e+01	-5.479188e+02
2.000000e-07	-6.391859e-06	-8.339309e-09	-4.406203e+01	-5.463225e+02
2.100000e-07	-6.342688e-06	-8.352711e-09	-4.372308e+01	-5.445828e+02
2.200000e-07	-6.290765e-06	-8.348264e-09	-4.336515e+01	-5.426950e+02
2.300000e-07	-6.236300e-06	-8.263253e-09	-4.298970e+01	-5.406588e+02
2.400000e-07	-6.179450e-06	-8.181135e-09	-4.259780e+01	-5.384777e+02
2.500000e-07	-6.120323e-06	-8.137202e-09	-4.219022e+01	-5.361581e+02
2.600000e-07	-6.058957e-06	-8.130450e-09	-4.176719e+01	-5.337083e+02
2.700000e-07	-5.995409e-06	-8.118247e-09	-4.132913e+01	-5.311373e+02
2.800000e-07	-5.929652e-06	-8.073481e-09	-4.087583e+01	-5.284539e+02
2.900000e-07	-5.861630e-06	-7.998438e-09	-4.040692e+01	-5.256657e+02
3.000000e-07	-5.791494e-06	-7.925996e-09	-3.992344e+01	-5.227782e+02
3.100000e-07	-5.719203e-06	-7.911840e-09	-3.942511e+01	-5.197949e+02
3.200000e-07	-5.644605e-06	-7.895630e-09	-3.891087e+01	-5.167165e+02
3.300000e-07	-5.567712e-06	-7.848401e-09	-3.838081e+01	-5.135418e+02
3.400000e-07	-5.488630e-06	-7.786977e-09	-3.783566e+01	-5.102676e+02
3.500000e-07	-5.407446e-06	-7.719599e-09	-3.727603e+01	-5.068896e+02
3.600000e-07	-5.324356e-06	-7.671305e-09	-3.670325e+01	-5.034026e+02
3.700000e-07	-5.239525e-06	-7.630275e-09	-3.611847e+01	-4.998012e+02
3.800000e-07	-5.152966e-06	-7.578708e-09	-3.552178e+01	-4.960803e+02
3.900000e-07	-5.064605e-06	-7.500968e-09	-3.491266e+01	-4.922355e+02
4.000000e-07	-4.974344e-06	-7.422614e-09	-3.429045e+01	-4.882630e+02
4.100000e-07	-4.882305e-06	-7.368033e-09	-3.365598e+01	-4.841601e+02
4.200000e-07	-4.788737e-06	-7.324313e-09	-3.301098e+01	-4.799247e+02
4.300000e-07	-4.693539e-06	-7.256726e-09	-3.235473e+01	-4.755554e+02
4.400000e-07	-4.596540e-06	-7.163959e-09	-3.168607e+01	-4.710508e+02
4.500000e-07	-4.497810e-06	-7.080241e-09	-3.100548e+01	-4.664100e+02
4.600000e-07	-4.397530e-06	-7.009719e-09	-3.031420e+01	-4.616318e+02
4.700000e-07	-4.295800e-06	-6.948220e-09	-2.961293e+01	-4.567143e+02
4.800000e-07	-4.192539e-06	-6.890756e-09	-2.890111e+01	-4.516554e+02
4.900000e-07	-4.087738e-06	-6.812250e-09	-2.817866e+01	-4.464523e+02
5.000000e-07	-3.981402e-06	-6.706311e-09	-2.744564e+01	-4.411014e+02
5.100000e-07	-3.873556e-06	-6.609859e-09	-2.670221e+01	-4.355987e+02
5.200000e-07	-3.764347e-06	-6.535222e-09	-2.594938e+01	-4.299397e+02
5.300000e-07	-3.653893e-06	-6.458700e-09	-2.518797e+01	-4.241197e+02
5.400000e-07	-3.542073e-06	-6.360511e-09	-2.441715e+01	-4.181338e+02
5.500000e-07	-3.428700e-06	-6.253478e-09	-2.363561e+01	-4.119774e+02
5.600000e-07	-3.313819e-06	-6.150567e-09	-2.284369e+01	-4.056463e+02
5.700000e-07	-3.197583e-06	-6.051960e-09	-2.204241e+01	-3.991366e+02
5.800000e-07	-3.080153e-06	-5.961946e-09	-2.123292e+01	-3.924451e+02
5.900000e-07	-2.961649e-06	-5.866860e-09	-2.041602e+01	-3.855691e+02
6.000000e-07	-2.842045e-06	-5.753634e-09	-1.959153e+01	-3.785062e+02
6.100000e-07	-2.721306e-06	-5.631694e-09	-1.875922e+01	-3.712538e+02
6.200000e-07	-2.599554e-06	-5.519114e-09	-1.791993e+01	-3.638094e+02
6.300000e-07	-2.476813e-06	-5.408538e-09	-1.707381e+01	-3.561693e+02
6.400000e-07	-2.353071e-06	-5.285918e-09	-1.622080e+01	-3.483289e+02
6.500000e-07	-2.228481e-06	-5.155748e-09	-1.536195e+01	-3.402817e+02
6.600000e-07	-2.103238e-06	-5.027233e-09	-1.449859e+01	-3.320195e+02
6.700000e-07	-1.977418e-06	-4.901785e-09	-1.363126e+01	-3.235322e+02
6.800000e-07	-1.850999e-06	-4.774966e-09	-1.275979e+01	-3.148077e+02
6.900000e-07	-1.723875e-06	-4.643279e-09	-1.188346e+01	-3.058327e+02
7.000000e-07	-1.595950e-06	-4.499213e-09	-1.100162e+01	-2.965930e+02
7.100000e-07	-1.467455e-06	-4.344756e-09	-1.011585e+01	-2.870746e+02
7.200000e-07	-1.338569e-06	-4.189604e-09	-9.227375e+00	-2.772645e+02
7.300000e-07	-1.209268e-06	-4.036702e-09	-8.336046e+00	-2.671512e+02
7.400000e-07	-1.079633e-06	-3.880694e-09	-7.442406e+00	-2.567260e+02
7.500000e-07	-9.496564e-07	-3.717081e-09	-6.546421e+00	-2.459828e+02
7.600000e-07	-8.193000e-07	-3.545004e-09	-5.647813e+00	-2.349181e+02
7.700000e-07	-6.885360e-07	-3.367968e-09	-4.746396e+00	-2.235306e+02
7.800000e-07	-5.575126e-07	-3.189555e-09	-3.843192e+00	-2.118198e+02
7.900000e-07	-4.263795e-07	-3.010653e-09	-2.939231e+00	-1.997845e+02
8.000000e-07	-2.950385e-07	-2.828331e-09	-2.033837e+00	-1.874212e+02
8.100000e-07	-1.635045e-07	-2.636044e-09	-1.127112e+00	-1.747221e+02
8.200000e-07	-3.184295e-08	-2.435903e-09	-2.195082e-01	-1.616732e+02
8.300000e-07	9.988368e-08	-2.232262e-09	6.885444e-01	-1.482537e+02
8.400000e-07	2.316020e-07	-2.022930e-09	1.596539e+00	-1.344350e+02
8.500000e-07	3.633062e-07	-1.805006e-09	2.504438e+00	-1.201821e+02
8.600000e-07	4.949399e-07	-1.578525e-09	3.411849e+00	-1.054546e+02
8.700000e-07	6.262986e-07	-1.343319e-09	4.317365e+00	-9.021031e+01
8.800000e-07	7.573735e-07	-1.101525e-09	5.220925e+00	-7.440860e+01
8.900000e-07	8.881992e-07	-8.545383e-10	6.122767e+00	-5.801531e+01
9.000000e-07	1.018633e-06	-6.010659e-10	7.021909e+00	-4.100766e+01
9.100000e-07	1.148667e-06	-3.383661e-10	7.918290e+00	-2.337906e+01
9.200000e-07	1.278370e-06	-6.435388e-11	8.812394e+00	-5.143346e+00
9.300000e-07	1.407726e-06	2.201649e-10	9.704106e+00	1.366212e+01
9.400000e-07	1.536628e-06	5.123252e-10	1.059269e+01	3.297494e+01
9.500000e-07	1.664981e-06	8.126239e-10	1.147749e+01	5.270787e+01
9.600000e-07	1.792621e-06	1.119915e-09	1.235737e+01	7.275111e+01
9.700000e-07	1.919447e-06	1.433025e-09	1.323164e+01	9.297628e+01
9.800000e-07	2.045560e-06	1.748413e-09	1.410099e+01	1.132422e+02
9.900000e-07	2.171043e-06	2.060692e-09	1.496600e+01	1.334015e+02
1.000000e-06	2.295818e-06	2.364110e-09	1.582613e+01	1.533084e+02
1.010000e-06	2.419838e-06	2.658437e-09	1.668106e+01	1.728260e+02
1.020000e-06	2.542967e-06	2.946439e-09	1.752985e+01	1.918327e+02
1.030000e-06	2.665058e-06	3.224006e-09	1.837147e+01	2.102281e+02
1.040000e-06	2.786189e-06	3.489623e-09	1.920649e+01	2.279365e+02
1.050000e-06	2.906249e-06	3.743635e-09	2.003412e+01	2.449088e+02
1.060000e-06	3.025136e-06	3.987444e-09	2.085366e+01	2.611219e+02
1.070000e-06	3.142966e-06	4.221572e-09	2.166592e+01	2.765768e+02
1.080000e-06	3.259738e-06	4.444733e-09	2.247088e+01	2.912943e+02
1.090000e-06	3.375267e-06	4.656713e-09	2.326727e+01	3.053101e+02
1.100000e-06	3.489364e-06	4.859659e-09	2.405380e+01	3.186693e+02
1.110000e-06	3.602025e-06	5.055228e-09	2.483042e+01	3.314205e+02
1.120000e-06	3.713316e-06	5.240966e-09	2.559760e+01	3.436111e+02
1.130000e-06	3.823336e-06	5.417538e-09	2.635602e+01	3.552830e+02
1.140000e-06	3.932207e-06	5.588273e-09	2.710652e+01	3.664699e+02
1.150000e-06	4.039819e-06	5.752778e-09	2.784834e+01	3.771965e+02
1.160000e-06	4.146003e-06	5.910093e-09	2.858031e+01	3.874783e+02
1.170000e-06	4.250647e-06	6.060587e-09	2.930167e+01	3.973236e+02
1.180000e-06	4.353674e-06	6.203800e-09	3.001189e+01	4.067354e+02
1.190000e-06	4.455166e-06	6.340401e-09	3.071152e+01	4.157142e+02
1.200000e-06	4.555213e-06	6.469444e-09	3.140119e+01	4.242616e+02
1.210000e-06	4.653636e-06	6.589830e-09	3.207966e+01	4.323818e+02
1.220000e-06	4.750200e-06	6.704102e-09	3.274532e+01	4.400841e+02
1.230000e-06	4.844946e-06	6.813839e-09	3.339845e+01	4.473837e+02
1.240000e-06	4.938086e-06	6.919854e-09	3.404051e+01	4.543014e+02
1.250000e-06	5.029627e-06	7.021318e-09	3.467154e+01	4.608633e+02
1.260000e-06	5.119339e-06	7.118784e-09	3.528997e+01	4.670984e+02
1.270000e-06	5.207127e-06	7.211205e-09	3.589513e+01	4.730374e+02
1.280000e-06	5.293035e-06	7.297404e-09	3.648734e+01	4.787101e+02
1.290000e-06	5.377120e-06	7.378849e-09	3.706697e+01	4.841436e+02
1.300000e-06	5.459292e-06	7.455409e-09	3.763342e+01	4.893607e+02
1.310000e-06	5.539424e-06	7.528701e-09	3.818581e+01	4.943791e+02
1.320000e-06	5.617545e-06	7.598818e-09	3.872433e+01	4.992108e+02
1.330000e-06	5.693606e-06	7.666242e-09	3.924866e+01	5.038629e+02
1.340000e-06	5.767443e-06	7.735168e-09	3.975765e+01	5.083383e+02
1.350000e-06	5.839039e-06	7.803504e-09	4.025119e+01	5.126366e+02
1.360000e-06	5.908527e-06	7.867326e-09	4.073021e+01	5.167559e+02
1.370000e-06	5.976010e-06	7.927030e-09	4.119540e+01	5.206941e+02
1.380000e-06	6.041373e-06	7.983838e-09	4.164597e+01	5.244494e+02
1.390000e-06	6.104529e-06	8.038691e-09	4.208134e+01	5.280215e+02
1.400000e-06	6.165635e-06	8.090227e-09	4.250257e+01	5.314118e+02
1.410000e-06	6.224722e-06	8.136858e-09	4.290989e+01	5.346229e+02
1.420000e-06	6.281562e-06	8.178810e-09	4.330171e+01	5.376584e+02
1.430000e-06	6.336096e-06	8.220520e-09	4.367764e+01	5.405223e+02
1.440000e-06	6.388231e-06	8.262709e-09	4.403703e+01	5.432185e+02
1.450000e-06	6.437664e-06	8.302050e-09	4.437779e+01	5.457500e+02
1.460000e-06	6.484566e-06	8.338142e-09	4.470111e+01	5.481188e+02
1.470000e-06	6.529352e-06	8.371020e-09	4.500984e+01	5.503261e+02
1.480000e-06	6.571931e-06	8.402155e-09	4.530336e+01	5.523722e+02
1.490000e-06	6.612021e-06	8.430556e-09	4.557972e+01	5.542577e+02
1.500000e-06	6.649808e-06	8.454582e-09	4.584020e+01	5.559835e+02
1.510000e-06	6.685502e-06	8.475624e-09	4.608625e+01	5.575518e+02
1.520000e-06	6.718765e-06	8.494967e-09	4.631555e+01	5.589666e+02
1.530000e-06	6.749501e-06	8.512126e-09	4.652743e+01	5.602342e+02
1.540000e-06	6.778000e-06	8.528323e-09	4.672388e+01	5.613624e+02
1.550000e-06	6.804119e-06	8.543705e-09	4.690393e+01	5.623610e+02
1.560000e-06	6.827606e-06	8.558048e-09	4.706584e+01	5.632401e+02
1.570000e-06	6.848651e-06	8.572380e-09	4.721091e+01	5.640102e+02
1.580000e-06	6.867397e-06	8.585426e-09	4.734014e+01	5.646801e+02
1.590000e-06	6.883619e-06	8.594487e-09	4.745197e+01	5.652569e+02
1.600000e-06	6.897258e-06	8.600472e-09	4.754599e+01	5.657448e+02
1.610000e-06	6.908267e-06	8.605710e-09	4.762187e+01	5.661447e+02
1.620000e-06	6.916605e-06	8.609618e-09	4.767935e+01	5.664548e+02
1.630000e-06	6.922469e-06	8.612615e-09	4.771978e+01	5.666706e+02
1.640000e-06	6.925957e-06	8.614111e-09	4.774382e+01	5.667861e+02
1.650000e-06	6.926962e-06	8.614842e-09	4.775075e+01	5.667950e+02
1.660000e-06	6.925537e-06	8.615413e-09	4.774092e+01	5.666921e+02
1.670000e-06	6.921968e-06	8.613660e-09	4.771633e+01	5.664742e+02
1.680000e-06	6.916108e-06	8.610275e-09	4.767593e+01	5.661413e+02
1.690000e-06	6.907854e-06	8.605432e-09	4.761903e+01	5.656974e+02
1.700000e-06	6.897352e-06	8.599175e-09	4.754663e+01	5.651499e+02
1.710000e-06	6.884526e-06	8.591672e-09	4.745822e+01	5.645099e+02
1.720000e-06	6.869297e-06	8.580496e-09	4.735324e+01	5.637906e+02
1.730000e-06	6.851881e-06	8.559110e-09	4.723318e+01	5.630066e+02
1.740000e-06	6.832291e-06	8.534841e-09	4.709814e+01	5.621717e+02
1.750000e-06	6.809613e-06	8.518071e-09	4.694181e+01	5.612977e+02
1.760000e-06	6.783555e-06	8.513219e-09	4.676218e+01	5.603931e+02
1.770000e-06	6.754944e-06	8.506358e-09	4.656495e+01	5.594617e+02
1.780000e-06	6.724218e-06	8.491340e-09	4.635314e+01	5.585022e+02
1.790000e-06	6.691904e-06	8.505121e-09	4.613038e+01	5.575080e+02
1.800000e-06	6.658133e-06	8.500120e-09	4.589759e+01	5.564680e+02
1.810000e-06	6.622001e-06	8.446703e-09	4.564851e+01	5.553674e+02
1.820000e-06	6.583324e-06	8.457987e-09	4.538189e+01	5.541891e+02
1.830000e-06	6.542506e-06	8.436589e-09	4.510052e+01	5.529153e+02
1.840000e-06	6.499428e-06	8.397778e-09	4.480356e+01	5.515289e+02
1.850000e-06	6.454178e-06	8.384971e-09	4.449163e+01	5.500152e+02
1.860000e-06	6.406568e-06	8.319187e-09	4.416343e+01	5.483629e+02
1.870000e-06	6.356486e-06	8.291681e-09	4.381820e+01	5.465649e+02
1.880000e-06	6.304186e-06	8.287775e-09	4.345767e+01	5.446181e+02
1.890000e-06	6.249172e-06	8.305667e-09	4.307843e+01	5.425239e+02
1.900000e-06	6.191574e-06	8.292664e-09	4.268138e+01	5.402870e+02
1.910000e-06	6.131728e-06	8.208260e-09	4.226884e+01	5.379147e+02
1.920000e-06	6.069507e-06	8.140332e-09	4.183992e+01	5.354157e+02
1.930000e-06	6.005101e-06	8.098273e-09	4.139593e+01	5.327991e+02
1.940000e-06	5.938534e-06	8.099397e-09	4.093706e+01	5.300732e+02
1.950000e-06	5.869803e-06	8.084194e-09	4.046326e+01	5.272450e+02
1.960000e-06	5.798747e-06	8.018619e-09	3.997344e+01	5.243191e+02
1.970000e-06	5.725378e-06	7.956960e-09	3.946768e+01	5.212979e+02
1.980000e-06	5.649886e-06	7.884408e-09	3.894728e+01	5.181815e+02
1.990000e-06	5.572072e-06	7.846439e-09	3.841087e+01	5.149677e+02
2.000000e-06	5.492086e-06	7.822926e-09	3.785949e+01	5.116528e+02
2.010000e-06	5.410240e-06	7.769222e-09	3.729528e+01	5.082322e+02
2.020000e-06	5.326629e-06	7.698663e-09	3.671891e+01	5.047004e+02
2.030000e-06	5.241056e-06	7.632434e-09	3.612902e+01	5.010521e+02
2.040000e-06	5.153413e-06	7.582943e-09	3.552486e+01	4.972825e+02
2.050000e-06	5.064025e-06	7.527853e-09	3.490866e+01	4.933875e+02
2.060000e-06	4.973069e-06	7.473127e-09	3.428166e+01	4.893636e+02
2.070000e-06	4.880443e-06	7.409529e-09	3.364315e+01	4.852084e+02
2.080000e-06	4.786000e-06	7.342349e-09	3.299211e+01	4.809200e+02
2.090000e-06	4.689849e-06	7.276592e-09	3.232930e+01	4.764972e+02
2.100000e-06	4.592117e-06	7.215092e-09	3.165558e+01	4.719388e+02
2.110000e-06	4.492860e-06	7.159208e-09	3.097136e+01	4.672437e+02
2.120000e-06	4.392030e-06	7.074041e-09	3.027629e+01	4.624104e+02
2.130000e-06	4.289555e-06	6.974224e-09	2.956988e+01	4.574372e+02
2.140000e-06	4.185441e-06	6.894017e-09	2.885218e+01	4.523216e+02
2.150000e-06	4.079821e-06	6.829242e-09	2.812409e+01	4.470604e+02
2.160000e-06	3.972881e-06	6.764247e-09	2.738691e+01	4.416499e+02
2.170000e-06	3.864545e-06	6.685311e-09	2.664009e+01	4.360859e+02
2.180000e-06	3.754801e-06	6.585013e-09	2.588358e+01	4.303637e+02
2.190000e-06	3.643570e-06	6.480840e-09	2.511681e+01	4.244786e+02
2.200000e-06	3.530868e-06	6.390758e-09	2.433990e+01	4.184258e+02
2.210000e-06	3.416856e-06	6.314787e-09	2.355397e+01	4.122007e+02
2.220000e-06	3.301558e-06	6.227868e-09	2.275916e+01	4.057994e+02
2.230000e-06	3.184788e-06	6.114548e-09	2.195422e+01	3.992182e+02
2.240000e-06	3.066629e-06	5.996184e-09	2.113969e+01	3.924540e+02
2.250000e-06	2.947373e-06	5.887672e-09	2.031760e+01	3.855044e+02
2.260000e-06	2.826952e-06	5.786616e-09	1.948748e+01	3.783668e+02
2.270000e-06	2.705429e-06	5.689012e-09	1.864977e+01	3.710389e+02
2.280000e-06	2.583083e-06	5.583225e-09	1.780638e+01	3.635176e+02
2.290000e-06	2.459981e-06	5.460964e-09	1.695779e+01	3.557990e+02
2.300000e-06	2.335977e-06	5.332944e-09	1.610297e+01	3.478777e+02
2.310000e-06	2.211049e-06	5.210286e-09	1.524179e+01	3.397466e+02
2.320000e-06	2.085353e-06	5.088774e-09	1.437530e+01	3.313968e+02
2.330000e-06	1.959008e-06	4.953873e-09	1.350435e+01	3.228174e+02
2.340000e-06	1.832009e-06	4.807745e-09	1.262889e+01	3.139956e+02
2.350000e-06	1.704277e-06	4.665272e-09	1.174837e+01	3.049178e+02
2.360000e-06	1.575909e-06	4.529904e-09	1.086347e+01	2.955698e+02
2.370000e-06	1.447049e-06	4.395116e-09	9.975176e+00	2.859378e+02
2.380000e-06	1.317717e-06	4.251020e-09	9.083631e+00	2.760093e+02
2.390000e-06	1.188007e-06	4.090423e-09	8.189481e+00	2.657740e+02
2.400000e-06	1.057945e-06	3.919688e-09	7.292903e+00	2.552239e+02
2.410000e-06	9.275543e-07	3.752576e-09	6.394060e+00	2.443542e+02
2.420000e-06	7.969397e-07	3.589859e-09	5.493673e+00	2.331623e+02
2.430000e-06	6.661468e-07	3.420877e-09	4.592058e+00	2.216473e+02
2.440000e-06	5.351634e-07	3.238383e-09	3.689129e+00	2.098088e+02
2.450000e-06	4.039873e-07	3.043711e-09	2.784871e+00	1.976448e+02
2.460000e-06	2.726589e-07	2.848590e-09	1.879564e+00	1.851503e+02
2.470000e-06	1.412593e-07	2.655145e-09	9.737653e-01	1.723153e+02
2.480000e-06	9.800359e-09	2.458319e-09	6.755840e-02	1.591233e+02
2.490000e-06	-1.216000e-07	2.255004e-09	-8.382453e-01	1.455502e+02
2.500000e-06	-2.529317e-07	2.036840e-09	-1.743575e+00	1.315650e+02
2.510000e-06	-3.843225e-07	1.806502e-09	-2.649313e+00	1.171302e+02
2.520000e-06	-5.156461e-07	1.573801e-09	-3.554587e+00	1.022042e+02
2.530000e-06	-6.467932e-07	1.340032e-09	-4.458644e+00	8.674505e+01
2.540000e-06	-7.777511e-07	1.098871e-09	-5.361398e+00	7.071400e+01
2.550000e-06	-9.084786e-07	8.428104e-10	-6.262562e+00	5.408080e+01
2.560000e-06	-1.038942e-06	5.769134e-10	-7.161910e+00	3.682846e+01
2.570000e-06	-1.169105e-06	3.067959e-10	-8.059183e+00	1.895797e+01
2.580000e-06	-1.298913e-06	2.871466e-11	-8.954011e+00	4.921131e-01
2.590000e-06	-1.428309e-06	-2.597602e-10	-9.845991e+00	-1.852200e+01
2.600000e-06	-1.557238e-06	-5.589438e-10	-1.073476e+01	-3.801207e+01
2.610000e-06	-1.685604e-06	-8.664678e-10	-1.161965e+01	-5.788162e+01
2.620000e-06	-1.813235e-06	-1.177070e-09	-1.249947e+01	-7.801298e+01
2.630000e-06	-1.940131e-06	-1.485926e-09	-1.337422e+01	-9.827196e+01
2.640000e-06	-2.066374e-06	-1.792771e-09	-1.424447e+01	-1.185141e+02
2.650000e-06	-2.191878e-06	-2.098881e-09	-1.510962e+01	-1.385918e+02
2.660000e-06	-2.316454e-06	-2.403498e-09	-1.596838e+01	-1.583619e+02
2.670000e-06	-2.440014e-06	-2.700114e-09	-1.682014e+01	-1.776927e+02
2.680000e-06	-2.562592e-06	-2.984776e-09	-1.766513e+01	-1.964704e+02
2.690000e-06	-2.684280e-06	-3.258290e-09	-1.850399e+01	-2.146039e+02
2.700000e-06	-2.805068e-06	-3.523154e-09	-1.933663e+01	-2.320280e+02
2.710000e-06	-2.924718e-06	-3.780304e-09	-2.016143e+01	-2.487039e+02
2.720000e-06	-3.043234e-06	-4.027874e-09	-2.097842e+01	-2.646183e+02
2.730000e-06	-3.160655e-06	-4.263466e-09	-2.178785e+01	-2.797806e+02
2.740000e-06	-3.276724e-06	-4.485107e-09	-2.258797e+01	-2.942180e+02
2.750000e-06	-3.391383e-06	-4.696505e-09	-2.337837e+01	-3.079706e+02
2.760000e-06	-3.504670e-06	-4.901071e-09	-2.415931e+01	-3.210856e+02
2.770000e-06	-3.616572e-06	-5.096069e-09	-2.493070e+01	-3.336117e+02
2.780000e-06	-3.727095e-06	-5.279989e-09	-2.569259e+01	-3.455944e+02
2.790000e-06	-3.836377e-06	-5.453072e-09	-2.644592e+01	-3.570727e+02
2.800000e-06	-3.944498e-06	-5.618961e-09	-2.719124e+01	-3.680768e+02
2.810000e-06	-4.051277e-06	-5.779091e-09	-2.792733e+01	-3.786278e+02
2.820000e-06	-4.156683e-06	-5.933428e-09	-2.865393e+01	-3.887380e+02
2.830000e-06	-4.260561e-06	-6.081688e-09	-2.937002e+01	-3.984133e+02
2.840000e-06	-4.362778e-06	-6.221135e-09	-3.007464e+01	-4.076554e+02
2.850000e-06	-4.463407e-06	-6.353869e-09	-3.076833e+01	-4.164649e+02
2.860000e-06	-4.562506e-06	-6.482784e-09	-3.145146e+01	-4.248442e+02
2.870000e-06	-4.660150e-06	-6.607096e-09	-3.212457e+01	-4.327993e+02
2.880000e-06	-4.756177e-06	-6.723405e-09	-3.278653e+01	-4.403417e+02
2.890000e-06	-4.850421e-06	-6.833452e-09	-3.343619e+01	-4.474890e+02
2.900000e-06	-4.942878e-06	-6.939116e-09	-3.407354e+01	-4.542641e+02
2.910000e-06	-5.033590e-06	-7.040263e-09	-3.469886e+01	-4.606944e+02
2.920000e-06	-5.122535e-06	-7.136008e-09	-3.531200e+01	-4.668101e+02
2.930000e-06	-5.209556e-06	-7.226595e-09	-3.591187e+01	-4.726415e+02
2.940000e-06	-5.294564e-06	-7.312336e-09	-3.649788e+01	-4.782177e+02
