# Temperatura_=_31.65
# Concentracion g/m^3_=_15000.0
# C_Vs_to_Am_M_A/Vsm_=_65563218390.804596
# pendiente_HvsI_1/m_=_3716.3
# ordenada_HvsI_A/m_=_1297.0
# frecuencia_Hz_=_301888.5867440762

Tiempo_(s)	Campo_(V.s)	Magnetizacion_(V.s)	Campo_(kA/m)	Magnetizacion_(A/m)
0.000000e+00	-6.843073e-06	-8.192860e-09	-4.750109e+01	-5.360199e+02
1.000000e-08	-6.840227e-06	-8.192738e-09	-4.748133e+01	-5.358664e+02
2.000000e-08	-6.835146e-06	-8.191921e-09	-4.744606e+01	-5.356174e+02
3.000000e-08	-6.827999e-06	-8.190063e-09	-4.739645e+01	-5.352751e+02
4.000000e-08	-6.818511e-06	-8.185824e-09	-4.733059e+01	-5.348447e+02
5.000000e-08	-6.806540e-06	-8.177383e-09	-4.724749e+01	-5.343339e+02
6.000000e-08	-6.792062e-06	-8.166037e-09	-4.714699e+01	-5.337524e+02
7.000000e-08	-6.775191e-06	-8.153922e-09	-4.702988e+01	-5.331109e+02
8.000000e-08	-6.756162e-06	-8.138925e-09	-4.689779e+01	-5.324200e+02
9.000000e-08	-6.734811e-06	-8.136071e-09	-4.674959e+01	-5.316889e+02
1.000000e-07	-6.710719e-06	-8.139354e-09	-4.658235e+01	-5.309242e+02
1.100000e-07	-6.683850e-06	-8.116718e-09	-4.639584e+01	-5.301291e+02
1.200000e-07	-6.654593e-06	-8.083922e-09	-4.619276e+01	-5.293029e+02
1.300000e-07	-6.623309e-06	-8.064320e-09	-4.597560e+01	-5.284403e+02
1.400000e-07	-6.590133e-06	-8.038692e-09	-4.574530e+01	-5.275328e+02
1.500000e-07	-6.555071e-06	-8.014371e-09	-4.550192e+01	-5.265683e+02
1.600000e-07	-6.517975e-06	-8.037051e-09	-4.524442e+01	-5.255332e+02
1.700000e-07	-6.478791e-06	-7.990025e-09	-4.497243e+01	-5.244128e+02
1.800000e-07	-6.437270e-06	-7.960583e-09	-4.468421e+01	-5.231932e+02
1.900000e-07	-6.393192e-06	-7.972412e-09	-4.437825e+01	-5.218624e+02
2.000000e-07	-6.346820e-06	-7.927325e-09	-4.405635e+01	-5.204109e+02
2.100000e-07	-6.298071e-06	-7.940101e-09	-4.371796e+01	-5.188326e+02
2.200000e-07	-6.246597e-06	-7.910341e-09	-4.336066e+01	-5.171249e+02
2.300000e-07	-6.192474e-06	-7.841684e-09	-4.298496e+01	-5.152885e+02
2.400000e-07	-6.135983e-06	-7.823963e-09	-4.259283e+01	-5.133266e+02
2.500000e-07	-6.077205e-06	-7.801382e-09	-4.218482e+01	-5.112448e+02
2.600000e-07	-6.016203e-06	-7.760630e-09	-4.176138e+01	-5.090492e+02
2.700000e-07	-5.953056e-06	-7.711995e-09	-4.132305e+01	-5.067465e+02
2.800000e-07	-5.887720e-06	-7.676507e-09	-4.086952e+01	-5.043423e+02
2.900000e-07	-5.820160e-06	-7.632137e-09	-4.040055e+01	-5.018410e+02
3.000000e-07	-5.750450e-06	-7.593032e-09	-3.991666e+01	-4.992451e+02
3.100000e-07	-5.678602e-06	-7.585762e-09	-3.941793e+01	-4.965555e+02
3.200000e-07	-5.604517e-06	-7.536411e-09	-3.890367e+01	-4.937709e+02
3.300000e-07	-5.528131e-06	-7.480054e-09	-3.837343e+01	-4.908888e+02
3.400000e-07	-5.449543e-06	-7.435205e-09	-3.782792e+01	-4.879055e+02
3.500000e-07	-5.368844e-06	-7.389913e-09	-3.726775e+01	-4.848167e+02
3.600000e-07	-5.286203e-06	-7.352774e-09	-3.669410e+01	-4.816180e+02
3.700000e-07	-5.201839e-06	-7.296962e-09	-3.610849e+01	-4.783053e+02
3.800000e-07	-5.115725e-06	-7.237485e-09	-3.551073e+01	-4.748748e+02
3.900000e-07	-5.027848e-06	-7.175099e-09	-3.490073e+01	-4.713235e+02
4.000000e-07	-4.938230e-06	-7.118792e-09	-3.427865e+01	-4.676490e+02
4.100000e-07	-4.846833e-06	-7.066163e-09	-3.364421e+01	-4.638496e+02
4.200000e-07	-4.753818e-06	-7.013309e-09	-3.299855e+01	-4.599236e+02
4.300000e-07	-4.659184e-06	-6.950526e-09	-3.234166e+01	-4.558700e+02
4.400000e-07	-4.562801e-06	-6.877580e-09	-3.167261e+01	-4.516873e+02
4.500000e-07	-4.464720e-06	-6.812843e-09	-3.099178e+01	-4.473742e+02
4.600000e-07	-4.364984e-06	-6.746600e-09	-3.029947e+01	-4.429290e+02
4.700000e-07	-4.263790e-06	-6.677637e-09	-2.959703e+01	-4.383496e+02
4.800000e-07	-4.161184e-06	-6.605331e-09	-2.888480e+01	-4.336336e+02
4.900000e-07	-4.057108e-06	-6.530733e-09	-2.816235e+01	-4.287781e+02
5.000000e-07	-3.951545e-06	-6.452273e-09	-2.742959e+01	-4.237802e+02
5.100000e-07	-3.844411e-06	-6.377076e-09	-2.668592e+01	-4.186364e+02
5.200000e-07	-3.735882e-06	-6.299153e-09	-2.593257e+01	-4.133434e+02
5.300000e-07	-3.626150e-06	-6.207486e-09	-2.517086e+01	-4.078974e+02
5.400000e-07	-3.515042e-06	-6.112789e-09	-2.439961e+01	-4.022949e+02
5.500000e-07	-3.402510e-06	-6.022978e-09	-2.361847e+01	-3.965325e+02
5.600000e-07	-3.288614e-06	-5.936425e-09	-2.282786e+01	-3.906066e+02
5.700000e-07	-3.173294e-06	-5.845345e-09	-2.202737e+01	-3.845142e+02
5.800000e-07	-3.056652e-06	-5.751065e-09	-2.121771e+01	-3.782524e+02
5.900000e-07	-2.938878e-06	-5.652003e-09	-2.040017e+01	-3.718185e+02
6.000000e-07	-2.820048e-06	-5.548308e-09	-1.957532e+01	-3.652100e+02
6.100000e-07	-2.700171e-06	-5.441963e-09	-1.874320e+01	-3.584244e+02
6.200000e-07	-2.579291e-06	-5.337444e-09	-1.790411e+01	-3.514588e+02
6.300000e-07	-2.457450e-06	-5.230320e-09	-1.705835e+01	-3.443099e+02
6.400000e-07	-2.334666e-06	-5.115175e-09	-1.620605e+01	-3.369732e+02
6.500000e-07	-2.210942e-06	-4.997383e-09	-1.534722e+01	-3.294430e+02
6.600000e-07	-2.086449e-06	-4.878115e-09	-1.448305e+01	-3.217118e+02
6.700000e-07	-1.961367e-06	-4.755398e-09	-1.361480e+01	-3.137702e+02
6.800000e-07	-1.835671e-06	-4.628972e-09	-1.274228e+01	-3.056069e+02
6.900000e-07	-1.709336e-06	-4.502296e-09	-1.186533e+01	-2.972087e+02
7.000000e-07	-1.582374e-06	-4.371193e-09	-1.098402e+01	-2.885614e+02
7.100000e-07	-1.454790e-06	-4.235879e-09	-1.009840e+01	-2.796498e+02
7.200000e-07	-1.326703e-06	-4.095539e-09	-9.209290e+00	-2.704591e+02
7.300000e-07	-1.198209e-06	-3.948748e-09	-8.317352e+00	-2.609754e+02
7.400000e-07	-1.069338e-06	-3.797248e-09	-7.422796e+00	-2.511868e+02
7.500000e-07	-9.401339e-07	-3.641407e-09	-6.525925e+00	-2.410838e+02
7.600000e-07	-8.106015e-07	-3.481310e-09	-5.626777e+00	-2.306599e+02
7.700000e-07	-6.807926e-07	-3.315402e-09	-4.725712e+00	-2.199112e+02
7.800000e-07	-5.508078e-07	-3.145674e-09	-3.823424e+00	-2.088357e+02
7.900000e-07	-4.206995e-07	-2.972923e-09	-2.920279e+00	-1.974326e+02
8.000000e-07	-2.904491e-07	-2.795807e-09	-2.016148e+00	-1.857003e+02
8.100000e-07	-1.600564e-07	-2.612901e-09	-1.111029e+00	-1.736352e+02
8.200000e-07	-2.955190e-08	-2.425669e-09	-2.051341e-01	-1.612294e+02
8.300000e-07	1.010006e-07	-2.234097e-09	7.010942e-01	-1.484695e+02
8.400000e-07	2.314948e-07	-2.036509e-09	1.606918e+00	-1.353358e+02
8.500000e-07	3.619170e-07	-1.832800e-09	2.512241e+00	-1.218020e+02
8.600000e-07	4.923043e-07	-1.621405e-09	3.417323e+00	-1.078360e+02
8.700000e-07	6.225498e-07	-1.399544e-09	4.321420e+00	-9.340237e+01
8.800000e-07	7.526262e-07	-1.168408e-09	5.224343e+00	-7.846455e+01
8.900000e-07	8.824980e-07	-9.311181e-10	6.125846e+00	-6.298939e+01
9.000000e-07	1.012095e-06	-6.903826e-10	7.025444e+00	-4.695136e+01
9.100000e-07	1.141442e-06	-4.427875e-10	7.923303e+00	-3.033723e+01
9.200000e-07	1.270429e-06	-1.852394e-10	8.818661e+00	-1.315045e+01
9.300000e-07	1.398932e-06	8.113511e-11	9.710664e+00	4.585310e+00
9.400000e-07	1.526836e-06	3.561476e-10	1.059851e+01	2.282377e+01
9.500000e-07	1.654076e-06	6.390227e-10	1.148174e+01	4.149527e+01
9.600000e-07	1.780681e-06	9.288859e-10	1.236057e+01	6.050780e+01
9.700000e-07	1.906686e-06	1.224664e-09	1.323523e+01	7.974983e+01
9.800000e-07	2.032084e-06	1.522676e-09	1.410568e+01	9.909487e+01
9.900000e-07	2.156876e-06	1.820713e-09	1.497192e+01	1.184073e+02
1.000000e-06	2.280952e-06	2.113403e-09	1.583319e+01	1.375493e+02
1.010000e-06	2.404092e-06	2.398792e-09	1.668797e+01	1.563877e+02
1.020000e-06	2.526274e-06	2.677744e-09	1.753609e+01	1.748006e+02
1.030000e-06	2.647554e-06	2.946979e-09	1.837796e+01	1.926837e+02
1.040000e-06	2.767825e-06	3.204665e-09	1.921282e+01	2.099541e+02
1.050000e-06	2.886994e-06	3.453018e-09	2.004003e+01	2.265530e+02
1.060000e-06	3.005111e-06	3.692648e-09	2.085993e+01	2.424466e+02
1.070000e-06	3.122204e-06	3.921323e-09	2.167273e+01	2.576242e+02
1.080000e-06	3.238085e-06	4.139964e-09	2.247712e+01	2.720958e+02
1.090000e-06	3.352633e-06	4.348503e-09	2.327225e+01	2.858872e+02
1.100000e-06	3.465888e-06	4.547582e-09	2.405841e+01	2.990351e+02
1.110000e-06	3.577765e-06	4.739823e-09	2.483500e+01	3.115819e+02
1.120000e-06	3.688328e-06	4.923977e-09	2.560247e+01	3.235703e+02
1.130000e-06	3.797714e-06	5.098928e-09	2.636178e+01	3.350396e+02
1.140000e-06	3.905947e-06	5.266030e-09	2.711307e+01	3.460223e+02
1.150000e-06	4.012839e-06	5.425912e-09	2.785506e+01	3.565429e+02
1.160000e-06	4.118251e-06	5.579902e-09	2.858677e+01	3.666173e+02
1.170000e-06	4.222101e-06	5.727829e-09	2.930765e+01	3.762544e+02
1.180000e-06	4.324384e-06	5.869475e-09	3.001765e+01	3.854577e+02
1.190000e-06	4.425260e-06	6.004788e-09	3.071787e+01	3.942284e+02
1.200000e-06	4.524576e-06	6.131645e-09	3.140727e+01	4.025679e+02
1.210000e-06	4.622182e-06	6.249292e-09	3.208481e+01	4.104802e+02
1.220000e-06	4.718003e-06	6.361465e-09	3.274994e+01	4.179746e+02
1.230000e-06	4.812074e-06	6.468336e-09	3.340294e+01	4.250657e+02
1.240000e-06	4.904583e-06	6.569515e-09	3.404509e+01	4.317745e+02
1.250000e-06	4.995482e-06	6.666294e-09	3.467606e+01	4.381271e+02
1.260000e-06	5.084522e-06	6.759257e-09	3.529413e+01	4.441534e+02
1.270000e-06	5.171632e-06	6.848787e-09	3.589880e+01	4.498849e+02
1.280000e-06	5.256951e-06	6.934174e-09	3.649105e+01	4.553527e+02
1.290000e-06	5.340527e-06	7.014427e-09	3.707119e+01	4.605850e+02
1.300000e-06	5.422140e-06	7.090243e-09	3.763770e+01	4.656058e+02
1.310000e-06	5.501648e-06	7.162200e-09	3.818960e+01	4.704334e+02
1.320000e-06	5.579184e-06	7.230765e-09	3.872782e+01	4.750800e+02
1.330000e-06	5.654699e-06	7.296937e-09	3.925201e+01	4.795522e+02
1.340000e-06	5.727918e-06	7.362060e-09	3.976026e+01	4.838517e+02
1.350000e-06	5.798944e-06	7.425696e-09	4.025328e+01	4.879763e+02
1.360000e-06	5.867985e-06	7.485667e-09	4.073252e+01	4.919223e+02
1.370000e-06	5.934967e-06	7.542741e-09	4.119748e+01	4.956849e+02
1.380000e-06	5.999783e-06	7.596433e-09	4.164740e+01	4.992606e+02
1.390000e-06	6.062431e-06	7.649477e-09	4.208227e+01	5.026474e+02
1.400000e-06	6.123126e-06	7.701106e-09	4.250359e+01	5.058460e+02
1.410000e-06	6.181802e-06	7.748451e-09	4.291088e+01	5.088590e+02
1.420000e-06	6.238191e-06	7.789427e-09	4.330231e+01	5.116913e+02
1.430000e-06	6.292331e-06	7.826828e-09	4.367812e+01	5.143490e+02
1.440000e-06	6.344071e-06	7.864024e-09	4.403727e+01	5.168389e+02
1.450000e-06	6.393104e-06	7.897383e-09	4.437764e+01	5.191674e+02
1.460000e-06	6.439684e-06	7.928093e-09	4.470096e+01	5.213402e+02
1.470000e-06	6.484229e-06	7.958254e-09	4.501018e+01	5.233618e+02
1.480000e-06	6.526534e-06	7.988344e-09	4.530383e+01	5.252357e+02
1.490000e-06	6.566327e-06	8.017136e-09	4.558006e+01	5.269644e+02
1.500000e-06	6.603830e-06	8.041825e-09	4.584039e+01	5.285500e+02
1.510000e-06	6.639233e-06	8.061325e-09	4.608613e+01	5.299947e+02
1.520000e-06	6.672256e-06	8.078407e-09	4.631536e+01	5.313016e+02
1.530000e-06	6.702808e-06	8.094784e-09	4.652744e+01	5.324751e+02
1.540000e-06	6.731162e-06	8.110468e-09	4.672426e+01	5.335206e+02
1.550000e-06	6.757032e-06	8.123943e-09	4.690383e+01	5.344451e+02
1.560000e-06	6.780293e-06	8.134908e-09	4.706530e+01	5.352565e+02
1.570000e-06	6.801274e-06	8.144205e-09	4.721094e+01	5.359629e+02
1.580000e-06	6.819928e-06	8.153392e-09	4.734043e+01	5.365720e+02
1.590000e-06	6.836074e-06	8.163092e-09	4.745250e+01	5.370903e+02
1.600000e-06	6.849705e-06	8.171769e-09	4.754712e+01	5.375225e+02
1.610000e-06	6.860643e-06	8.176952e-09	4.762305e+01	5.378713e+02
1.620000e-06	6.868839e-06	8.178362e-09	4.767994e+01	5.381370e+02
1.630000e-06	6.874594e-06	8.180479e-09	4.771989e+01	5.383178e+02
1.640000e-06	6.878040e-06	8.184381e-09	4.774381e+01	5.384108e+02
1.650000e-06	6.879040e-06	8.185824e-09	4.775075e+01	5.384127e+02
1.660000e-06	6.877648e-06	8.185348e-09	4.774109e+01	5.383203e+02
1.670000e-06	6.874103e-06	8.181769e-09	4.771648e+01	5.381322e+02
1.680000e-06	6.868255e-06	8.177276e-09	4.767589e+01	5.378490e+02
1.690000e-06	6.859987e-06	8.173154e-09	4.761849e+01	5.374742e+02
1.700000e-06	6.849485e-06	8.168471e-09	4.754559e+01	5.370137e+02
1.710000e-06	6.836708e-06	8.162899e-09	4.745690e+01	5.364760e+02
1.720000e-06	6.821506e-06	8.153381e-09	4.735138e+01	5.358714e+02
1.730000e-06	6.804181e-06	8.144342e-09	4.723112e+01	5.352107e+02
1.740000e-06	6.784683e-06	8.121988e-09	4.709577e+01	5.345041e+02
1.750000e-06	6.762114e-06	8.093517e-09	4.693911e+01	5.337600e+02
1.760000e-06	6.736243e-06	8.089154e-09	4.675953e+01	5.329839e+02
1.770000e-06	6.707763e-06	8.090425e-09	4.656183e+01	5.321776e+02
1.780000e-06	6.677146e-06	8.084023e-09	4.634931e+01	5.313388e+02
1.790000e-06	6.644919e-06	8.100003e-09	4.612560e+01	5.304610e+02
1.800000e-06	6.611287e-06	8.069765e-09	4.589214e+01	5.295342e+02
1.810000e-06	6.575374e-06	8.034723e-09	4.564286e+01	5.285458e+02
1.820000e-06	6.536928e-06	8.073449e-09	4.537598e+01	5.274814e+02
1.830000e-06	6.496354e-06	8.033031e-09	4.509434e+01	5.263267e+02
1.840000e-06	6.453538e-06	8.002742e-09	4.479714e+01	5.250683e+02
1.850000e-06	6.408538e-06	7.982207e-09	4.448477e+01	5.236949e+02
1.860000e-06	6.361207e-06	7.922040e-09	4.415622e+01	5.221983e+02
1.870000e-06	6.311461e-06	7.937066e-09	4.381091e+01	5.205735e+02
1.880000e-06	6.259515e-06	7.903277e-09	4.345033e+01	5.188192e+02
1.890000e-06	6.204884e-06	7.885090e-09	4.307111e+01	5.169371e+02
1.900000e-06	6.147704e-06	7.872641e-09	4.267419e+01	5.149313e+02
1.910000e-06	6.088294e-06	7.815812e-09	4.226180e+01	5.128077e+02
1.920000e-06	6.026551e-06	7.803387e-09	4.183321e+01	5.105727e+02
1.930000e-06	5.962621e-06	7.752885e-09	4.138944e+01	5.082328e+02
1.940000e-06	5.896485e-06	7.731740e-09	4.093036e+01	5.057931e+02
1.950000e-06	5.828217e-06	7.683949e-09	4.045648e+01	5.032574e+02
1.960000e-06	5.757621e-06	7.617603e-09	3.996644e+01	5.006277e+02
1.970000e-06	5.684679e-06	7.604937e-09	3.946011e+01	4.979039e+02
1.980000e-06	5.609661e-06	7.549276e-09	3.893937e+01	4.950845e+02
1.990000e-06	5.532462e-06	7.526834e-09	3.840350e+01	4.921663e+02
2.000000e-06	5.453109e-06	7.471515e-09	3.785267e+01	4.891454e+02
2.010000e-06	5.371799e-06	7.411608e-09	3.728826e+01	4.860175e+02
2.020000e-06	5.288685e-06	7.370497e-09	3.671132e+01	4.827781e+02
2.030000e-06	5.203751e-06	7.307117e-09	3.612176e+01	4.794233e+02
2.040000e-06	5.116828e-06	7.272941e-09	3.551838e+01	4.759496e+02
2.050000e-06	5.028020e-06	7.211303e-09	3.490193e+01	4.723542e+02
2.060000e-06	4.937595e-06	7.156173e-09	3.427424e+01	4.686349e+02
2.070000e-06	4.845562e-06	7.091501e-09	3.363540e+01	4.647900e+02
2.080000e-06	4.751786e-06	7.032609e-09	3.298445e+01	4.608182e+02
2.090000e-06	4.656268e-06	6.979252e-09	3.232141e+01	4.567182e+02
2.100000e-06	4.559171e-06	6.913211e-09	3.164742e+01	4.524888e+02
2.110000e-06	4.460531e-06	6.852931e-09	3.096271e+01	4.481283e+02
2.120000e-06	4.360300e-06	6.778205e-09	3.026696e+01	4.436350e+02
2.130000e-06	4.258593e-06	6.708144e-09	2.956096e+01	4.390067e+02
2.140000e-06	4.155345e-06	6.632103e-09	2.884426e+01	4.342408e+02
2.150000e-06	4.050468e-06	6.558955e-09	2.811626e+01	4.293345e+02
2.160000e-06	3.944159e-06	6.479292e-09	2.737832e+01	4.242845e+02
2.170000e-06	3.836522e-06	6.403478e-09	2.663116e+01	4.190874e+02
2.180000e-06	3.727536e-06	6.326293e-09	2.587463e+01	4.137398e+02
2.190000e-06	3.617156e-06	6.245059e-09	2.510844e+01	4.082379e+02
2.200000e-06	3.505380e-06	6.162434e-09	2.433254e+01	4.025783e+02
2.210000e-06	3.392259e-06	6.071259e-09	2.354731e+01	3.967574e+02
2.220000e-06	3.277819e-06	5.977545e-09	2.275293e+01	3.907720e+02
2.230000e-06	3.161957e-06	5.880156e-09	2.194868e+01	3.846191e+02
2.240000e-06	3.044733e-06	5.788095e-09	2.113497e+01	3.782957e+02
2.250000e-06	2.926417e-06	5.692924e-09	2.031368e+01	3.717993e+02
2.260000e-06	2.806971e-06	5.593646e-09	1.948455e+01	3.651275e+02
2.270000e-06	2.686346e-06	5.486702e-09	1.864723e+01	3.582776e+02
2.280000e-06	2.564784e-06	5.379457e-09	1.780341e+01	3.512466e+02
2.290000e-06	2.442414e-06	5.269175e-09	1.695398e+01	3.440308e+02
2.300000e-06	2.319184e-06	5.157711e-09	1.609858e+01	3.366253e+02
2.310000e-06	2.195202e-06	5.046822e-09	1.523796e+01	3.290239e+02
2.320000e-06	2.070492e-06	4.931112e-09	1.437229e+01	3.212183e+02
2.330000e-06	1.945019e-06	4.807242e-09	1.350132e+01	3.131985e+02
2.340000e-06	1.818864e-06	4.676661e-09	1.262562e+01	3.049525e+02
2.350000e-06	1.692098e-06	4.544208e-09	1.174567e+01	2.964667e+02
2.360000e-06	1.564773e-06	4.409955e-09	1.086185e+01	2.877263e+02
2.370000e-06	1.436868e-06	4.274917e-09	9.973995e+00	2.787163e+02
2.380000e-06	1.308380e-06	4.136572e-09	9.082097e+00	2.694220e+02
2.390000e-06	1.179405e-06	3.994593e-09	8.186823e+00	2.598303e+02
2.400000e-06	1.050065e-06	3.844962e-09	7.289013e+00	2.499300e+02
2.410000e-06	9.204834e-07	3.690607e-09	6.389521e+00	2.397126e+02
2.420000e-06	7.907214e-07	3.529995e-09	5.488780e+00	2.291726e+02
2.430000e-06	6.607969e-07	3.360092e-09	4.586911e+00	2.183069e+02
2.440000e-06	5.306943e-07	3.186395e-09	3.683806e+00	2.071142e+02
2.450000e-06	4.003903e-07	3.012591e-09	2.779303e+00	1.955934e+02
2.460000e-06	2.698810e-07	2.836256e-09	1.873375e+00	1.837424e+02
2.470000e-06	1.391856e-07	2.651835e-09	9.661544e-01	1.715564e+02
2.480000e-06	8.466060e-09	2.459316e-09	5.876702e-02	1.590256e+02
2.490000e-06	-1.222012e-07	2.262010e-09	-8.482576e-01	1.461344e+02
2.500000e-06	-2.528224e-07	2.056056e-09	-1.754963e+00	1.328607e+02
2.510000e-06	-3.833928e-07	1.840830e-09	-2.661316e+00	1.191761e+02
2.520000e-06	-5.139117e-07	1.621009e-09	-3.567310e+00	1.050470e+02
2.530000e-06	-6.442693e-07	1.396711e-09	-4.472185e+00	9.043693e+01
2.540000e-06	-7.743846e-07	1.165321e-09	-5.375379e+00	7.531032e+01
2.550000e-06	-9.042933e-07	9.252373e-10	-6.277138e+00	5.963613e+01
2.560000e-06	-1.033974e-06	6.781359e-10	-7.177317e+00	4.339269e+01
2.570000e-06	-1.163393e-06	4.236198e-10	-8.075672e+00	2.657227e+01
2.580000e-06	-1.292505e-06	1.597911e-10	-8.971906e+00	9.185174e+00
2.590000e-06	-1.421128e-06	-1.130199e-10	-9.864737e+00	-8.737045e+00
2.600000e-06	-1.549136e-06	-3.933490e-10	-1.075331e+01	-2.713975e+01
2.610000e-06	-1.676469e-06	-6.823616e-10	-1.163718e+01	-4.594510e+01
2.620000e-06	-1.803072e-06	-9.787065e-10	-1.251600e+01	-6.505368e+01
2.630000e-06	-1.929113e-06	-1.276703e-09	-1.339091e+01	-8.434803e+01
2.640000e-06	-2.054545e-06	-1.572651e-09	-1.426159e+01	-1.036977e+02
2.650000e-06	-2.179055e-06	-1.866619e-09	-1.512588e+01	-1.229654e+02
2.660000e-06	-2.302588e-06	-2.159896e-09	-1.598338e+01	-1.420141e+02
2.670000e-06	-2.425194e-06	-2.445520e-09	-1.683445e+01	-1.607141e+02
2.680000e-06	-2.546942e-06	-2.721366e-09	-1.767956e+01	-1.789492e+02
2.690000e-06	-2.667833e-06	-2.989943e-09	-1.851872e+01	-1.966221e+02
2.700000e-06	-2.787682e-06	-3.248892e-09	-1.935065e+01	-2.136586e+02
2.710000e-06	-2.906452e-06	-3.497612e-09	-2.017509e+01	-2.300086e+02
2.720000e-06	-3.024188e-06	-3.736646e-09	-2.099236e+01	-2.456470e+02
2.730000e-06	-3.140727e-06	-3.967924e-09	-2.180131e+01	-2.605708e+02
2.740000e-06	-3.255947e-06	-4.189917e-09	-2.260111e+01	-2.747962e+02
2.750000e-06	-3.369762e-06	-4.402311e-09	-2.339115e+01	-2.883535e+02
2.760000e-06	-3.482213e-06	-4.606070e-09	-2.417173e+01	-3.012821e+02
2.770000e-06	-3.593284e-06	-4.797393e-09	-2.494273e+01	-3.136251e+02
2.780000e-06	-3.702992e-06	-4.977372e-09	-2.570426e+01	-3.254243e+02
2.790000e-06	-3.811546e-06	-5.147606e-09	-2.645779e+01	-3.367169e+02
2.800000e-06	-3.918930e-06	-5.310074e-09	-2.720319e+01	-3.475326e+02
2.810000e-06	-4.025076e-06	-5.466244e-09	-2.794000e+01	-3.578928e+02
2.820000e-06	-4.129795e-06	-5.614797e-09	-2.866691e+01	-3.678107e+02
2.830000e-06	-4.232902e-06	-5.756933e-09	-2.938262e+01	-3.772931e+02
2.840000e-06	-4.334365e-06	-5.893533e-09	-3.008692e+01	-3.863422e+02
2.850000e-06	-4.434246e-06	-6.026115e-09	-3.078025e+01	-3.949590e+02
2.860000e-06	-4.532672e-06	-6.154729e-09	-3.146347e+01	-4.031456e+02
2.870000e-06	-4.629548e-06	-6.276546e-09	-3.213594e+01	-4.109078e+02
2.880000e-06	-4.724746e-06	-6.389394e-09	-3.279675e+01	-4.182565e+02
2.890000e-06	-4.818192e-06	-6.495083e-09	-3.344540e+01	-4.252088e+02
2.900000e-06	-4.909950e-06	-6.597084e-09	-3.408234e+01	-4.317875e+02
2.910000e-06	-5.000048e-06	-6.695434e-09	-3.470776e+01	-4.380205e+02
2.920000e-06	-5.088293e-06	-6.787119e-09	-3.532031e+01	-4.439382e+02
2.930000e-06	-5.174570e-06	-6.871576e-09	-3.591920e+01	-4.495725e+02
2.940000e-06	-5.258900e-06	-6.952229e-09	-3.650457e+01	-4.549535e+02
