# Temperatura_=_49.12
# Concentracion g/m^3_=_15000.0
# C_Vs_to_Am_M_A/Vsm_=_65563218390.804596
# pendiente_HvsI_1/m_=_3716.3
# ordenada_HvsI_A/m_=_1297.0
# frecuencia_Hz_=_301895.70121357485

Tiempo_(s)	Campo_(V.s)	Magnetizacion_(V.s)	Campo_(kA/m)	Magnetizacion_(A/m)
0.000000e+00	-6.853418e-06	-8.791432e-09	-4.749820e+01	-5.745074e+02
1.000000e-08	-6.850444e-06	-8.788701e-09	-4.747759e+01	-5.743200e+02
2.000000e-08	-6.845306e-06	-8.785206e-09	-4.744197e+01	-5.740164e+02
3.000000e-08	-6.838062e-06	-8.780421e-09	-4.739177e+01	-5.735994e+02
4.000000e-08	-6.828466e-06	-8.771633e-09	-4.732526e+01	-5.730755e+02
5.000000e-08	-6.816373e-06	-8.760430e-09	-4.724145e+01	-5.724544e+02
6.000000e-08	-6.801768e-06	-8.745381e-09	-4.714023e+01	-5.717486e+02
7.000000e-08	-6.784806e-06	-8.734422e-09	-4.702267e+01	-5.709713e+02
8.000000e-08	-6.765707e-06	-8.740625e-09	-4.689031e+01	-5.701359e+02
9.000000e-08	-6.744235e-06	-8.722079e-09	-4.674149e+01	-5.692538e+02
1.000000e-07	-6.719899e-06	-8.701252e-09	-4.657283e+01	-5.683335e+02
1.100000e-07	-6.692794e-06	-8.692477e-09	-4.638498e+01	-5.673793e+02
1.200000e-07	-6.663394e-06	-8.666607e-09	-4.618122e+01	-5.663906e+02
1.300000e-07	-6.631974e-06	-8.620490e-09	-4.596346e+01	-5.653620e+02
1.400000e-07	-6.598672e-06	-8.619715e-09	-4.573266e+01	-5.642835e+02
1.500000e-07	-6.563438e-06	-8.601968e-09	-4.548846e+01	-5.631415e+02
1.600000e-07	-6.526129e-06	-8.543431e-09	-4.522990e+01	-5.619200e+02
1.700000e-07	-6.486763e-06	-8.589771e-09	-4.495706e+01	-5.606020e+02
1.800000e-07	-6.445050e-06	-8.531388e-09	-4.466797e+01	-5.591711e+02
1.900000e-07	-6.400801e-06	-8.482932e-09	-4.436130e+01	-5.576125e+02
2.000000e-07	-6.354257e-06	-8.503203e-09	-4.403872e+01	-5.559147e+02
2.100000e-07	-6.305203e-06	-8.453003e-09	-4.369875e+01	-5.540698e+02
2.200000e-07	-6.253505e-06	-8.450422e-09	-4.334045e+01	-5.520738e+02
2.300000e-07	-6.199322e-06	-8.395039e-09	-4.296493e+01	-5.499271e+02
2.400000e-07	-6.142724e-06	-8.326105e-09	-4.257267e+01	-5.476331e+02
2.500000e-07	-6.083788e-06	-8.302361e-09	-4.216421e+01	-5.451983e+02
2.600000e-07	-6.022630e-06	-8.264396e-09	-4.174035e+01	-5.426306e+02
2.700000e-07	-5.959303e-06	-8.233655e-09	-4.130146e+01	-5.399389e+02
2.800000e-07	-5.893770e-06	-8.191062e-09	-4.084728e+01	-5.371317e+02
2.900000e-07	-5.825950e-06	-8.142049e-09	-4.037724e+01	-5.342163e+02
3.000000e-07	-5.755969e-06	-8.073234e-09	-3.989223e+01	-5.311983e+02
3.100000e-07	-5.683935e-06	-8.035477e-09	-3.939300e+01	-5.280810e+02
3.200000e-07	-5.609671e-06	-8.025606e-09	-3.887830e+01	-5.248656e+02
3.300000e-07	-5.533103e-06	-7.954324e-09	-3.834764e+01	-5.215508e+02
3.400000e-07	-5.454289e-06	-7.896286e-09	-3.780141e+01	-5.181337e+02
3.500000e-07	-5.373351e-06	-7.845520e-09	-3.724047e+01	-5.146099e+02
3.600000e-07	-5.290547e-06	-7.793155e-09	-3.666659e+01	-5.109739e+02
3.700000e-07	-5.206069e-06	-7.743184e-09	-3.608110e+01	-5.072200e+02
3.800000e-07	-5.119897e-06	-7.679488e-09	-3.548388e+01	-5.033425e+02
3.900000e-07	-5.031925e-06	-7.612145e-09	-3.487419e+01	-4.993362e+02
4.000000e-07	-4.942113e-06	-7.530547e-09	-3.425174e+01	-4.951966e+02
4.100000e-07	-4.850527e-06	-7.468492e-09	-3.361699e+01	-4.909205e+02
4.200000e-07	-4.757316e-06	-7.414628e-09	-3.297098e+01	-4.865053e+02
4.300000e-07	-4.662445e-06	-7.348948e-09	-3.231347e+01	-4.819495e+02
4.400000e-07	-4.565838e-06	-7.268249e-09	-3.164393e+01	-4.772523e+02
4.500000e-07	-4.467495e-06	-7.185594e-09	-3.096235e+01	-4.724134e+02
4.600000e-07	-4.367533e-06	-7.114203e-09	-3.026956e+01	-4.674327e+02
4.700000e-07	-4.266180e-06	-7.037213e-09	-2.956712e+01	-4.623099e+02
4.800000e-07	-4.163386e-06	-6.963577e-09	-2.885470e+01	-4.570442e+02
4.900000e-07	-4.059084e-06	-6.882485e-09	-2.813183e+01	-4.516342e+02
5.000000e-07	-3.953253e-06	-6.787600e-09	-2.739836e+01	-4.460774e+02
5.100000e-07	-3.845805e-06	-6.693116e-09	-2.665368e+01	-4.403704e+02
5.200000e-07	-3.736992e-06	-6.608280e-09	-2.589954e+01	-4.345091e+02
5.300000e-07	-3.627057e-06	-6.520958e-09	-2.513763e+01	-4.284883e+02
5.400000e-07	-3.515735e-06	-6.419543e-09	-2.436610e+01	-4.223025e+02
5.500000e-07	-3.402898e-06	-6.315735e-09	-2.358408e+01	-4.159461e+02
5.600000e-07	-3.288648e-06	-6.211990e-09	-2.279226e+01	-4.094135e+02
5.700000e-07	-3.172973e-06	-6.112697e-09	-2.199056e+01	-4.027000e+02
5.800000e-07	-3.055988e-06	-6.013761e-09	-2.117978e+01	-3.958013e+02
5.900000e-07	-2.937966e-06	-5.911972e-09	-2.036182e+01	-3.887146e+02
6.000000e-07	-2.818922e-06	-5.797876e-09	-1.953678e+01	-3.814375e+02
6.100000e-07	-2.698789e-06	-5.675190e-09	-1.870419e+01	-3.739687e+02
6.200000e-07	-2.577722e-06	-5.558104e-09	-1.786512e+01	-3.663067e+02
6.300000e-07	-2.455659e-06	-5.443038e-09	-1.701915e+01	-3.584499e+02
6.400000e-07	-2.332516e-06	-5.320696e-09	-1.616570e+01	-3.503957e+02
6.500000e-07	-2.208489e-06	-5.189589e-09	-1.530612e+01	-3.421395e+02
6.600000e-07	-2.083812e-06	-5.057089e-09	-1.444203e+01	-3.336749e+02
6.700000e-07	-1.958570e-06	-4.925065e-09	-1.357404e+01	-3.249928e+02
6.800000e-07	-1.832687e-06	-4.792200e-09	-1.270159e+01	-3.160816e+02
6.900000e-07	-1.706149e-06	-4.655763e-09	-1.182461e+01	-3.069277e+02
7.000000e-07	-1.578920e-06	-4.511002e-09	-1.094284e+01	-2.975157e+02
7.100000e-07	-1.451055e-06	-4.357372e-09	-1.005666e+01	-2.878299e+02
7.200000e-07	-1.322726e-06	-4.200419e-09	-9.167264e+00	-2.778550e+02
7.300000e-07	-1.194005e-06	-4.043690e-09	-8.275154e+00	-2.675774e+02
7.400000e-07	-1.064949e-06	-3.884680e-09	-7.380718e+00	-2.569859e+02
7.500000e-07	-9.355478e-07	-3.719378e-09	-6.483894e+00	-2.460724e+02
7.600000e-07	-8.058502e-07	-3.546123e-09	-5.585014e+00	-2.348320e+02
7.700000e-07	-6.758969e-07	-3.366931e-09	-4.684361e+00	-2.232623e+02
7.800000e-07	-5.457448e-07	-3.184643e-09	-3.782331e+00	-2.113626e+02
7.900000e-07	-4.154048e-07	-3.002478e-09	-2.878998e+00	-1.991321e+02
8.000000e-07	-2.849098e-07	-2.816311e-09	-1.974592e+00	-1.865678e+02
8.100000e-07	-1.542847e-07	-2.621480e-09	-1.069284e+00	-1.736627e+02
8.200000e-07	-2.342272e-08	-2.417781e-09	-1.623332e-01	-1.604037e+02
8.300000e-07	1.075138e-07	-2.209883e-09	7.451336e-01	-1.467707e+02
8.400000e-07	2.383957e-07	-1.998211e-09	1.652222e+00	-1.327354e+02
8.500000e-07	3.692156e-07	-1.778909e-09	2.558880e+00	-1.182629e+02
8.600000e-07	4.999092e-07	-1.550340e-09	3.464663e+00	-1.033124e+02
8.700000e-07	6.304196e-07	-1.310586e-09	4.369177e+00	-8.784124e+01
8.800000e-07	7.607559e-07	-1.064579e-09	5.272484e+00	-7.180828e+01
8.900000e-07	8.908607e-07	-8.139875e-10	6.174186e+00	-5.517908e+01
9.000000e-07	1.020655e-06	-5.574344e-10	7.073734e+00	-3.793100e+01
9.100000e-07	1.150157e-06	-2.906928e-10	7.971259e+00	-2.005820e+01
9.200000e-07	1.279275e-06	-1.085010e-11	8.866124e+00	-1.575995e+00
9.300000e-07	1.407919e-06	2.781585e-10	9.757705e+00	1.747611e+01
9.400000e-07	1.535975e-06	5.745091e-10	1.064521e+01	3.703293e+01
9.500000e-07	1.663408e-06	8.777263e-10	1.152839e+01	5.700407e+01
9.600000e-07	1.790218e-06	1.187870e-09	1.240726e+01	7.727647e+01
9.700000e-07	1.916339e-06	1.503819e-09	1.328135e+01	9.771871e+01
9.800000e-07	2.041845e-06	1.821077e-09	1.415118e+01	1.181871e+02
9.900000e-07	2.166751e-06	2.136582e-09	1.501685e+01	1.385328e+02
1.000000e-06	2.290926e-06	2.445107e-09	1.587746e+01	1.586094e+02
1.010000e-06	2.414206e-06	2.742998e-09	1.673186e+01	1.782805e+02
1.020000e-06	2.536512e-06	3.030204e-09	1.757951e+01	1.974263e+02
1.030000e-06	2.657909e-06	3.307702e-09	1.842086e+01	2.159492e+02
1.040000e-06	2.778286e-06	3.575632e-09	1.925515e+01	2.337768e+02
1.050000e-06	2.897539e-06	3.832848e-09	2.008164e+01	2.508635e+02
1.060000e-06	3.015764e-06	4.077709e-09	2.090101e+01	2.671901e+02
1.070000e-06	3.133004e-06	4.312402e-09	2.171355e+01	2.827607e+02
1.080000e-06	3.249078e-06	4.537154e-09	2.251801e+01	2.975985e+02
1.090000e-06	3.363860e-06	4.751685e-09	2.331352e+01	3.117411e+02
1.100000e-06	3.477299e-06	4.955562e-09	2.409972e+01	3.252341e+02
1.110000e-06	3.589309e-06	5.152477e-09	2.487601e+01	3.381256e+02
1.120000e-06	3.699955e-06	5.342017e-09	2.564285e+01	3.504620e+02
1.130000e-06	3.809392e-06	5.523570e-09	2.640132e+01	3.622833e+02
1.140000e-06	3.917679e-06	5.698411e-09	2.715181e+01	3.736213e+02
1.150000e-06	4.024702e-06	5.864052e-09	2.789354e+01	3.844987e+02
1.160000e-06	4.130277e-06	6.021049e-09	2.862524e+01	3.949293e+02
1.170000e-06	4.234230e-06	6.171637e-09	2.934569e+01	4.049200e+02
1.180000e-06	4.336601e-06	6.315655e-09	3.005518e+01	4.144732e+02
1.190000e-06	4.437548e-06	6.453181e-09	3.075480e+01	4.235896e+02
1.200000e-06	4.536994e-06	6.585176e-09	3.144403e+01	4.322708e+02
1.210000e-06	4.634680e-06	6.710715e-09	3.212104e+01	4.405221e+02
1.220000e-06	4.730494e-06	6.830583e-09	3.278509e+01	4.483536e+02
1.230000e-06	4.824605e-06	6.944298e-09	3.343733e+01	4.557812e+02
1.240000e-06	4.917157e-06	7.052826e-09	3.407878e+01	4.628264e+02
1.250000e-06	5.008022e-06	7.156137e-09	3.470852e+01	4.695153e+02
1.260000e-06	5.097055e-06	7.254083e-09	3.532557e+01	4.758766e+02
1.270000e-06	5.184223e-06	7.344808e-09	3.592970e+01	4.819402e+02
1.280000e-06	5.269591e-06	7.431887e-09	3.652135e+01	4.877348e+02
1.290000e-06	5.353180e-06	7.515718e-09	3.710067e+01	4.932863e+02
1.300000e-06	5.434788e-06	7.594828e-09	3.766626e+01	4.986162e+02
1.310000e-06	5.514290e-06	7.671637e-09	3.821726e+01	5.037412e+02
1.320000e-06	5.591757e-06	7.746362e-09	3.875415e+01	5.086727e+02
1.330000e-06	5.667194e-06	7.817799e-09	3.927697e+01	5.134177e+02
1.340000e-06	5.740450e-06	7.886465e-09	3.978468e+01	5.179791e+02
1.350000e-06	5.811517e-06	7.953316e-09	4.027721e+01	5.223577e+02
1.360000e-06	5.880597e-06	8.017465e-09	4.075598e+01	5.265526e+02
1.370000e-06	5.947639e-06	8.078501e-09	4.122062e+01	5.305627e+02
1.380000e-06	6.012498e-06	8.136146e-09	4.167013e+01	5.343876e+02
1.390000e-06	6.075196e-06	8.192176e-09	4.210466e+01	5.380281e+02
1.400000e-06	6.135820e-06	8.246483e-09	4.252482e+01	5.414858e+02
1.410000e-06	6.194384e-06	8.297338e-09	4.293071e+01	5.447636e+02
1.420000e-06	6.250783e-06	8.344171e-09	4.332158e+01	5.478647e+02
1.430000e-06	6.304951e-06	8.387293e-09	4.369700e+01	5.507923e+02
1.440000e-06	6.356652e-06	8.427505e-09	4.405532e+01	5.535490e+02
1.450000e-06	6.405709e-06	8.466209e-09	4.439531e+01	5.561365e+02
1.460000e-06	6.452324e-06	8.503248e-09	4.471838e+01	5.585556e+02
1.470000e-06	6.496808e-06	8.536485e-09	4.502668e+01	5.608063e+02
1.480000e-06	6.539037e-06	8.566911e-09	4.531935e+01	5.628885e+02
1.490000e-06	6.578792e-06	8.594538e-09	4.559488e+01	5.648024e+02
1.500000e-06	6.616248e-06	8.618867e-09	4.585447e+01	5.665492e+02
1.510000e-06	6.651468e-06	8.641828e-09	4.609857e+01	5.681320e+02
1.520000e-06	6.684283e-06	8.664810e-09	4.632599e+01	5.695558e+02
1.530000e-06	6.714700e-06	8.686236e-09	4.653680e+01	5.708280e+02
1.540000e-06	6.742943e-06	8.703470e-09	4.673254e+01	5.719579e+02
1.550000e-06	6.768811e-06	8.717557e-09	4.691182e+01	5.729563e+02
1.560000e-06	6.792047e-06	8.729812e-09	4.707286e+01	5.738343e+02
1.570000e-06	6.812909e-06	8.741036e-09	4.721744e+01	5.746027e+02
1.580000e-06	6.831456e-06	8.751260e-09	4.734599e+01	5.752707e+02
1.590000e-06	6.847471e-06	8.759159e-09	4.745698e+01	5.758452e+02
1.600000e-06	6.860952e-06	8.765718e-09	4.755041e+01	5.763298e+02
1.610000e-06	6.871779e-06	8.771332e-09	4.762545e+01	5.767251e+02
1.620000e-06	6.879907e-06	8.776383e-09	4.768178e+01	5.770288e+02
1.630000e-06	6.885590e-06	8.780372e-09	4.772117e+01	5.772360e+02
1.640000e-06	6.888947e-06	8.782652e-09	4.774443e+01	5.773407e+02
1.650000e-06	6.889858e-06	8.783452e-09	4.775075e+01	5.773367e+02
1.660000e-06	6.888308e-06	8.779994e-09	4.774001e+01	5.772192e+02
1.670000e-06	6.884557e-06	8.779983e-09	4.771401e+01	5.769855e+02
1.680000e-06	6.878508e-06	8.774835e-09	4.767209e+01	5.766362e+02
1.690000e-06	6.870152e-06	8.766612e-09	4.761417e+01	5.761757e+02
1.700000e-06	6.859649e-06	8.760083e-09	4.754138e+01	5.756118e+02
1.710000e-06	6.846795e-06	8.754464e-09	4.745230e+01	5.749553e+02
1.720000e-06	6.831491e-06	8.748794e-09	4.734623e+01	5.742192e+02
1.730000e-06	6.814008e-06	8.714273e-09	4.722506e+01	5.734170e+02
1.740000e-06	6.794304e-06	8.710010e-09	4.708851e+01	5.725615e+02
1.750000e-06	6.771518e-06	8.702962e-09	4.693058e+01	5.716631e+02
1.760000e-06	6.745442e-06	8.668790e-09	4.674986e+01	5.707286e+02
1.770000e-06	6.716863e-06	8.665628e-09	4.655179e+01	5.697607e+02
1.780000e-06	6.686188e-06	8.675032e-09	4.633920e+01	5.687566e+02
1.790000e-06	6.653878e-06	8.621243e-09	4.611527e+01	5.677093e+02
1.800000e-06	6.620115e-06	8.657087e-09	4.588127e+01	5.666070e+02
1.810000e-06	6.584000e-06	8.631359e-09	4.563097e+01	5.654353e+02
1.820000e-06	6.545401e-06	8.573125e-09	4.536346e+01	5.641774e+02
1.830000e-06	6.504649e-06	8.633349e-09	4.508102e+01	5.628163e+02
1.840000e-06	6.461637e-06	8.530827e-09	4.478293e+01	5.613363e+02
1.850000e-06	6.416467e-06	8.520674e-09	4.446987e+01	5.597237e+02
1.860000e-06	6.368891e-06	8.529480e-09	4.414014e+01	5.579682e+02
1.870000e-06	6.318937e-06	8.419397e-09	4.379393e+01	5.560636e+02
1.880000e-06	6.266764e-06	8.451587e-09	4.343234e+01	5.540077e+02
1.890000e-06	6.211905e-06	8.415698e-09	4.305213e+01	5.518020e+02
1.900000e-06	6.154529e-06	8.385114e-09	4.265449e+01	5.494512e+02
1.910000e-06	6.094897e-06	8.372471e-09	4.224120e+01	5.469626e+02
1.920000e-06	6.032981e-06	8.268731e-09	4.181209e+01	5.443446e+02
1.930000e-06	5.968924e-06	8.259006e-09	4.136814e+01	5.416060e+02
1.940000e-06	5.902683e-06	8.206670e-09	4.090905e+01	5.387550e+02
1.950000e-06	5.834241e-06	8.184111e-09	4.043470e+01	5.357982e+02
1.960000e-06	5.763417e-06	8.130504e-09	3.994385e+01	5.327403e+02
1.970000e-06	5.690254e-06	8.060381e-09	3.943679e+01	5.295839e+02
1.980000e-06	5.614990e-06	8.041798e-09	3.891516e+01	5.263292e+02
1.990000e-06	5.537554e-06	7.960373e-09	3.837849e+01	5.229741e+02
2.000000e-06	5.457915e-06	7.935938e-09	3.782655e+01	5.195151e+02
2.010000e-06	5.376329e-06	7.870947e-09	3.726110e+01	5.159473e+02
2.020000e-06	5.293032e-06	7.800630e-09	3.668381e+01	5.122652e+02
2.030000e-06	5.207892e-06	7.743395e-09	3.609374e+01	5.084628e+02
2.040000e-06	5.120709e-06	7.681663e-09	3.548951e+01	5.045347e+02
2.050000e-06	5.031666e-06	7.643179e-09	3.487239e+01	5.004760e+02
2.060000e-06	4.941067e-06	7.566970e-09	3.424448e+01	4.962826e+02
2.070000e-06	4.848863e-06	7.510542e-09	3.360546e+01	4.919515e+02
2.080000e-06	4.754893e-06	7.434136e-09	3.295419e+01	4.874806e+02
2.090000e-06	4.659157e-06	7.367002e-09	3.229068e+01	4.828688e+02
2.100000e-06	4.561775e-06	7.293881e-09	3.161577e+01	4.781154e+02
2.110000e-06	4.462959e-06	7.225727e-09	3.093092e+01	4.732203e+02
2.120000e-06	4.362565e-06	7.158150e-09	3.023513e+01	4.681833e+02
2.130000e-06	4.260597e-06	7.063028e-09	2.952843e+01	4.630039e+02
2.140000e-06	4.157035e-06	6.980737e-09	2.881069e+01	4.576812e+02
2.150000e-06	4.051848e-06	6.899407e-09	2.808168e+01	4.522132e+02
2.160000e-06	3.945321e-06	6.826353e-09	2.734338e+01	4.465973e+02
2.170000e-06	3.837441e-06	6.739965e-09	2.659571e+01	4.408298e+02
2.180000e-06	3.728240e-06	6.648114e-09	2.583888e+01	4.349059e+02
2.190000e-06	3.617628e-06	6.550211e-09	2.507228e+01	4.288204e+02
2.200000e-06	3.505573e-06	6.458244e-09	2.429568e+01	4.225677e+02
2.210000e-06	3.392180e-06	6.366808e-09	2.350979e+01	4.161421e+02
2.220000e-06	3.277416e-06	6.268748e-09	2.271441e+01	4.095384e+02
2.230000e-06	3.161225e-06	6.160412e-09	2.190914e+01	4.027520e+02
2.240000e-06	3.043769e-06	6.047033e-09	2.109510e+01	3.957793e+02
2.250000e-06	2.925208e-06	5.939382e-09	2.027340e+01	3.886174e+02
2.260000e-06	2.805432e-06	5.829955e-09	1.944328e+01	3.812646e+02
2.270000e-06	2.684518e-06	5.722505e-09	1.860528e+01	3.737195e+02
2.280000e-06	2.562702e-06	5.607452e-09	1.776103e+01	3.659807e+02
2.290000e-06	2.440116e-06	5.484208e-09	1.691143e+01	3.580462e+02
2.300000e-06	2.316730e-06	5.356546e-09	1.605630e+01	3.499127e+02
2.310000e-06	2.192520e-06	5.234264e-09	1.519545e+01	3.415750e+02
2.320000e-06	2.067527e-06	5.109517e-09	1.432917e+01	3.330256e+02
2.330000e-06	1.941807e-06	4.974239e-09	1.345786e+01	3.242545e+02
2.340000e-06	1.815490e-06	4.829624e-09	1.258241e+01	3.152491e+02
2.350000e-06	1.688567e-06	4.684406e-09	1.170276e+01	3.059951e+02
2.360000e-06	1.560954e-06	4.542026e-09	1.081832e+01	2.964769e+02
2.370000e-06	1.432756e-06	4.396905e-09	9.929839e+00	2.866787e+02
2.380000e-06	1.304086e-06	4.247748e-09	9.038079e+00	2.765859e+02
2.390000e-06	1.174962e-06	4.089113e-09	8.143177e+00	2.661856e+02
2.400000e-06	1.045438e-06	3.922246e-09	7.245499e+00	2.554678e+02
2.410000e-06	9.156307e-07	3.753960e-09	6.345857e+00	2.444257e+02
2.420000e-06	7.855720e-07	3.584314e-09	5.444474e+00	2.330556e+02
2.430000e-06	6.553142e-07	3.408584e-09	4.541711e+00	2.213558e+02
2.440000e-06	5.249686e-07	3.224217e-09	3.638340e+00	2.093257e+02
2.450000e-06	3.944681e-07	3.032872e-09	2.733895e+00	1.969641e+02
2.460000e-06	2.637506e-07	2.838194e-09	1.827946e+00	1.842664e+02
2.470000e-06	1.329482e-07	2.637826e-09	9.214086e-01	1.712237e+02
2.480000e-06	2.099117e-09	2.432089e-09	1.454811e-02	1.578201e+02
2.490000e-06	-1.288023e-07	2.222594e-09	-8.926753e-01	1.440322e+02
2.500000e-06	-2.596833e-07	2.002776e-09	-1.799758e+00	1.298292e+02
2.510000e-06	-3.905050e-07	1.771762e-09	-2.706428e+00	1.151733e+02
2.520000e-06	-5.211735e-07	1.536261e-09	-3.612037e+00	1.000229e+02
2.530000e-06	-6.516866e-07	1.297271e-09	-4.516570e+00	8.433510e+01
2.540000e-06	-7.820647e-07	1.051809e-09	-5.420166e+00	6.807092e+01
2.550000e-06	-9.122435e-07	7.956256e-10	-6.322381e+00	5.119991e+01
2.560000e-06	-1.042111e-06	5.272287e-10	-7.222440e+00	3.370546e+01
2.570000e-06	-1.171618e-06	2.507629e-10	-8.119996e+00	1.558959e+01
2.580000e-06	-1.300798e-06	-3.329731e-11	-9.015289e+00	-3.123184e+00
2.590000e-06	-1.429615e-06	-3.265628e-10	-9.908068e+00	-2.238332e+01
2.600000e-06	-1.557866e-06	-6.284996e-10	-1.079693e+01	-4.211558e+01
2.610000e-06	-1.685377e-06	-9.374888e-10	-1.168065e+01	-6.222024e+01
2.620000e-06	-1.812192e-06	-1.250918e-09	-1.255955e+01	-8.257641e+01
2.630000e-06	-1.938395e-06	-1.565090e-09	-1.343421e+01	-1.030471e+02
2.640000e-06	-2.063917e-06	-1.875680e-09	-1.430415e+01	-1.234856e+02
2.650000e-06	-2.188545e-06	-2.182017e-09	-1.516790e+01	-1.437432e+02
2.660000e-06	-2.312198e-06	-2.486168e-09	-1.602489e+01	-1.636765e+02
2.670000e-06	-2.434969e-06	-2.783848e-09	-1.687576e+01	-1.831550e+02
2.680000e-06	-2.556938e-06	-3.070827e-09	-1.772108e+01	-2.020670e+02
2.690000e-06	-2.677983e-06	-3.347819e-09	-1.855999e+01	-2.203244e+02
2.700000e-06	-2.797939e-06	-3.615858e-09	-1.939136e+01	-2.378654e+02
2.710000e-06	-2.916835e-06	-3.875638e-09	-2.021537e+01	-2.546550e+02
2.720000e-06	-3.034701e-06	-4.123627e-09	-2.103225e+01	-2.706834e+02
2.730000e-06	-3.151330e-06	-4.358667e-09	-2.184056e+01	-2.859630e+02
2.740000e-06	-3.266600e-06	-4.582122e-09	-2.263945e+01	-3.005233e+02
2.750000e-06	-3.380552e-06	-4.795463e-09	-2.342921e+01	-3.144055e+02
2.760000e-06	-3.493162e-06	-5.001291e-09	-2.420966e+01	-3.276570e+02
2.770000e-06	-3.604347e-06	-5.197431e-09	-2.498024e+01	-3.403258e+02
2.780000e-06	-3.714244e-06	-5.385299e-09	-2.574188e+01	-3.524560e+02
2.790000e-06	-3.822968e-06	-5.566162e-09	-2.649541e+01	-3.640847e+02
2.800000e-06	-3.930449e-06	-5.738041e-09	-2.724031e+01	-3.752401e+02
2.810000e-06	-4.036677e-06	-5.900427e-09	-2.797653e+01	-3.859413e+02
2.820000e-06	-4.141514e-06	-6.053543e-09	-2.870311e+01	-3.961991e+02
2.830000e-06	-4.244736e-06	-6.200400e-09	-2.941850e+01	-4.060184e+02
2.840000e-06	-4.346277e-06	-6.339642e-09	-3.012224e+01	-4.154005e+02
2.850000e-06	-4.446228e-06	-6.472198e-09	-3.081496e+01	-4.243461e+02
2.860000e-06	-4.544686e-06	-6.601734e-09	-3.149734e+01	-4.328581e+02
2.870000e-06	-4.641674e-06	-6.728107e-09	-3.216952e+01	-4.409435e+02
2.880000e-06	-4.736978e-06	-6.848644e-09	-3.283003e+01	-4.486146e+02
2.890000e-06	-4.830532e-06	-6.963205e-09	-3.347842e+01	-4.558897e+02
2.900000e-06	-4.922425e-06	-7.073387e-09	-3.411528e+01	-4.627922e+02
2.910000e-06	-5.012627e-06	-7.176021e-09	-3.474044e+01	-4.693494e+02
2.920000e-06	-5.101008e-06	-7.271458e-09	-3.535297e+01	-4.755907e+02
2.930000e-06	-5.187384e-06	-7.361074e-09	-3.595161e+01	-4.815460e+02
2.940000e-06	-5.271816e-06	-7.446125e-09	-3.653677e+01	-4.872428e+02
