# Temperatura_=_34.48
# Concentracion g/m^3_=_15000.0
# C_Vs_to_Am_M_A/Vsm_=_65563218390.804596
# pendiente_HvsI_1/m_=_3716.3
# ordenada_HvsI_A/m_=_1297.0
# frecuencia_Hz_=_301892.26017223304

Tiempo_(s)	Campo_(V.s)	Magnetizacion_(V.s)	Campo_(kA/m)	Magnetizacion_(A/m)
0.000000e+00	-6.846019e-06	-8.325440e-09	-4.750280e+01	-5.435390e+02
1.000000e-08	-6.842936e-06	-8.322421e-09	-4.748141e+01	-5.433859e+02
2.000000e-08	-6.837610e-06	-8.319198e-09	-4.744445e+01	-5.431306e+02
3.000000e-08	-6.830098e-06	-8.315624e-09	-4.739233e+01	-5.427742e+02
4.000000e-08	-6.820203e-06	-8.308653e-09	-4.732367e+01	-5.423210e+02
5.000000e-08	-6.807859e-06	-8.298504e-09	-4.723801e+01	-5.417779e+02
6.000000e-08	-6.793070e-06	-8.285253e-09	-4.713540e+01	-5.411543e+02
7.000000e-08	-6.775947e-06	-8.274403e-09	-4.701659e+01	-5.404610e+02
8.000000e-08	-6.756678e-06	-8.282599e-09	-4.688289e+01	-5.397093e+02
9.000000e-08	-6.735009e-06	-8.266656e-09	-4.673253e+01	-5.389099e+02
1.000000e-07	-6.710555e-06	-8.248789e-09	-4.656285e+01	-5.380713e+02
1.100000e-07	-6.683427e-06	-8.236955e-09	-4.637462e+01	-5.371988e+02
1.200000e-07	-6.653994e-06	-8.207804e-09	-4.617039e+01	-5.362943e+02
1.300000e-07	-6.622485e-06	-8.162426e-09	-4.595175e+01	-5.353552e+02
1.400000e-07	-6.589022e-06	-8.180454e-09	-4.571956e+01	-5.343750e+02
1.500000e-07	-6.553651e-06	-8.162642e-09	-4.547413e+01	-5.333436e+02
1.600000e-07	-6.516276e-06	-8.097286e-09	-4.521480e+01	-5.322483e+02
1.700000e-07	-6.476807e-06	-8.127171e-09	-4.494093e+01	-5.310747e+02
1.800000e-07	-6.434990e-06	-8.066792e-09	-4.465077e+01	-5.298084e+02
1.900000e-07	-6.390650e-06	-8.044691e-09	-4.434311e+01	-5.284357e+02
2.000000e-07	-6.343958e-06	-8.072675e-09	-4.401913e+01	-5.269450e+02
2.100000e-07	-6.294732e-06	-8.047702e-09	-4.367755e+01	-5.253274e+02
2.200000e-07	-6.242794e-06	-8.037291e-09	-4.331717e+01	-5.235774e+02
2.300000e-07	-6.188398e-06	-7.962370e-09	-4.293974e+01	-5.216929e+02
2.400000e-07	-6.131692e-06	-7.905623e-09	-4.254626e+01	-5.196749e+02
2.500000e-07	-6.072683e-06	-7.886769e-09	-4.213681e+01	-5.175270e+02
2.600000e-07	-6.011489e-06	-7.845025e-09	-4.171221e+01	-5.152546e+02
2.700000e-07	-5.948111e-06	-7.816968e-09	-4.127244e+01	-5.128643e+02
2.800000e-07	-5.882475e-06	-7.781920e-09	-4.081701e+01	-5.103628e+02
2.900000e-07	-5.814625e-06	-7.740585e-09	-4.034622e+01	-5.077563e+02
3.000000e-07	-5.744579e-06	-7.682437e-09	-3.986019e+01	-5.050498e+02
3.100000e-07	-5.672415e-06	-7.654382e-09	-3.935946e+01	-5.022467e+02
3.200000e-07	-5.598072e-06	-7.631959e-09	-3.884361e+01	-4.993486e+02
3.300000e-07	-5.521390e-06	-7.563328e-09	-3.831153e+01	-4.963555e+02
3.400000e-07	-5.442465e-06	-7.520808e-09	-3.776389e+01	-4.932656e+02
3.500000e-07	-5.361444e-06	-7.480877e-09	-3.720171e+01	-4.900759e+02
3.600000e-07	-5.278556e-06	-7.435291e-09	-3.662657e+01	-4.867824e+02
3.700000e-07	-5.193995e-06	-7.376513e-09	-3.603982e+01	-4.833806e+02
3.800000e-07	-5.107715e-06	-7.312423e-09	-3.544114e+01	-4.798659e+02
3.900000e-07	-5.019672e-06	-7.255391e-09	-3.483023e+01	-4.762336e+02
4.000000e-07	-4.929823e-06	-7.193399e-09	-3.420680e+01	-4.724795e+02
4.100000e-07	-4.838224e-06	-7.143143e-09	-3.357122e+01	-4.686000e+02
4.200000e-07	-4.745045e-06	-7.090730e-09	-3.292467e+01	-4.645918e+02
4.300000e-07	-4.650221e-06	-7.024425e-09	-3.226671e+01	-4.604526e+02
4.400000e-07	-4.553670e-06	-6.944260e-09	-3.159677e+01	-4.561802e+02
4.500000e-07	-4.455377e-06	-6.868266e-09	-3.091474e+01	-4.517733e+02
4.600000e-07	-4.355424e-06	-6.805681e-09	-3.022119e+01	-4.472304e+02
4.700000e-07	-4.254088e-06	-6.737309e-09	-2.951804e+01	-4.425505e+02
4.800000e-07	-4.151299e-06	-6.667889e-09	-2.880481e+01	-4.377323e+02
4.900000e-07	-4.046982e-06	-6.595478e-09	-2.808099e+01	-4.327743e+02
5.000000e-07	-3.941153e-06	-6.514936e-09	-2.734666e+01	-4.276747e+02
5.100000e-07	-3.833719e-06	-6.431392e-09	-2.660121e+01	-4.224310e+02
5.200000e-07	-3.724953e-06	-6.348832e-09	-2.584651e+01	-4.170403e+02
5.300000e-07	-3.615044e-06	-6.260925e-09	-2.508388e+01	-4.114990e+02
5.400000e-07	-3.503746e-06	-6.164630e-09	-2.431161e+01	-4.058030e+02
5.500000e-07	-3.391029e-06	-6.072060e-09	-2.352949e+01	-3.999479e+02
5.600000e-07	-3.276947e-06	-5.981690e-09	-2.273791e+01	-3.939288e+02
5.700000e-07	-3.161371e-06	-5.892886e-09	-2.193595e+01	-3.877412e+02
5.800000e-07	-3.044497e-06	-5.799185e-09	-2.112500e+01	-3.813803e+02
5.900000e-07	-2.926573e-06	-5.699998e-09	-2.030675e+01	-3.748418e+02
6.000000e-07	-2.807559e-06	-5.595066e-09	-1.948094e+01	-3.681217e+02
6.100000e-07	-2.687478e-06	-5.486019e-09	-1.864773e+01	-3.612163e+02
6.200000e-07	-2.566508e-06	-5.379151e-09	-1.780835e+01	-3.541217e+02
6.300000e-07	-2.444550e-06	-5.269361e-09	-1.696212e+01	-3.468341e+02
6.400000e-07	-2.321534e-06	-5.151616e-09	-1.610854e+01	-3.393490e+02
6.500000e-07	-2.197633e-06	-5.028393e-09	-1.524882e+01	-3.316606e+02
6.600000e-07	-2.072999e-06	-4.905995e-09	-1.438402e+01	-3.237620e+02
6.700000e-07	-1.947791e-06	-4.783453e-09	-1.351523e+01	-3.156446e+02
6.800000e-07	-1.821972e-06	-4.658112e-09	-1.264220e+01	-3.072978e+02
6.900000e-07	-1.695423e-06	-4.529041e-09	-1.176411e+01	-2.987097e+02
7.000000e-07	-1.568266e-06	-4.393652e-09	-1.088180e+01	-2.898668e+02
7.100000e-07	-1.440618e-06	-4.252570e-09	-9.996087e+00	-2.807554e+02
7.200000e-07	-1.312517e-06	-4.106456e-09	-9.107221e+00	-2.713614e+02
7.300000e-07	-1.184065e-06	-3.956307e-09	-8.215926e+00	-2.616721e+02
7.400000e-07	-1.055266e-06	-3.801026e-09	-7.322223e+00	-2.516763e+02
7.500000e-07	-9.261269e-07	-3.640975e-09	-6.426161e+00	-2.413651e+02
7.600000e-07	-7.966449e-07	-3.476556e-09	-5.527718e+00	-2.307322e+02
7.700000e-07	-6.668091e-07	-3.309765e-09	-4.626820e+00	-2.197734e+02
7.800000e-07	-5.366864e-07	-3.139759e-09	-3.723932e+00	-2.084864e+02
7.900000e-07	-4.063810e-07	-2.964632e-09	-2.819775e+00	-1.968691e+02
8.000000e-07	-2.759070e-07	-2.784020e-09	-1.914449e+00	-1.849186e+02
8.100000e-07	-1.452560e-07	-2.597483e-09	-1.007895e+00	-1.726293e+02
8.200000e-07	-1.453664e-08	-2.405300e-09	-1.008661e-01	-1.599912e+02
8.300000e-07	1.162449e-07	-2.207470e-09	8.065940e-01	-1.469888e+02
8.400000e-07	2.470314e-07	-2.004396e-09	1.714088e+00	-1.336004e+02
8.500000e-07	3.777531e-07	-1.794339e-09	2.621134e+00	-1.197980e+02
8.600000e-07	5.083512e-07	-1.578072e-09	3.527321e+00	-1.055488e+02
8.700000e-07	6.387422e-07	-1.352512e-09	4.432071e+00	-9.081694e+01
8.800000e-07	7.689383e-07	-1.118972e-09	5.335469e+00	-7.556690e+01
8.900000e-07	8.988563e-07	-8.787895e-10	6.236937e+00	-5.976754e+01
9.000000e-07	1.028410e-06	-6.319349e-10	7.135881e+00	-4.339645e+01
9.100000e-07	1.157579e-06	-3.773959e-10	8.032151e+00	-2.644452e+01
9.200000e-07	1.286333e-06	-1.135654e-10	8.925541e+00	-8.920140e+00
9.300000e-07	1.414640e-06	1.581844e-10	9.815831e+00	9.147535e+00
9.400000e-07	1.542461e-06	4.393658e-10	1.070275e+01	2.770654e+01
9.500000e-07	1.669748e-06	7.283300e-10	1.158596e+01	4.668171e+01
9.600000e-07	1.796424e-06	1.023022e-09	1.246493e+01	6.597602e+01
9.700000e-07	1.922452e-06	1.321778e-09	1.333941e+01	8.547379e+01
9.800000e-07	2.047803e-06	1.621777e-09	1.420919e+01	1.050454e+02
9.900000e-07	2.172511e-06	1.920947e-09	1.507451e+01	1.245535e+02
1.000000e-06	2.296551e-06	2.216101e-09	1.593519e+01	1.438596e+02
1.010000e-06	2.419699e-06	2.505976e-09	1.678968e+01	1.628311e+02
1.020000e-06	2.541836e-06	2.787787e-09	1.763716e+01	1.813481e+02
1.030000e-06	2.662958e-06	3.057854e-09	1.847759e+01	1.993087e+02
1.040000e-06	2.783071e-06	3.316204e-09	1.931103e+01	2.166334e+02
1.050000e-06	2.902189e-06	3.565881e-09	2.013756e+01	2.332668e+02
1.060000e-06	3.020250e-06	3.806255e-09	2.095675e+01	2.491786e+02
1.070000e-06	3.137260e-06	4.037249e-09	2.176865e+01	2.643616e+02
1.080000e-06	3.253132e-06	4.256261e-09	2.257266e+01	2.788288e+02
1.090000e-06	3.367633e-06	4.462613e-09	2.336715e+01	2.926084e+02
1.100000e-06	3.480737e-06	4.660851e-09	2.415196e+01	3.057393e+02
1.110000e-06	3.592502e-06	4.852294e-09	2.492747e+01	3.182654e+02
1.120000e-06	3.703026e-06	5.035685e-09	2.569436e+01	3.302307e+02
1.130000e-06	3.812393e-06	5.210335e-09	2.645323e+01	3.416752e+02
1.140000e-06	3.920536e-06	5.377784e-09	2.720361e+01	3.526324e+02
1.150000e-06	4.027260e-06	5.539793e-09	2.794414e+01	3.631272e+02
1.160000e-06	4.132451e-06	5.695614e-09	2.867404e+01	3.731764e+02
1.170000e-06	4.236125e-06	5.843768e-09	2.939340e+01	3.827894e+02
1.180000e-06	4.338306e-06	5.982704e-09	3.010241e+01	3.919708e+02
1.190000e-06	4.439094e-06	6.112921e-09	3.080175e+01	4.007223e+02
1.200000e-06	4.538322e-06	6.235783e-09	3.149027e+01	4.090461e+02
1.210000e-06	4.635745e-06	6.351869e-09	3.216626e+01	4.169471e+02
1.220000e-06	4.731364e-06	6.463680e-09	3.282974e+01	4.244348e+02
1.230000e-06	4.825319e-06	6.571105e-09	3.348167e+01	4.315243e+02
1.240000e-06	4.917755e-06	6.675027e-09	3.412306e+01	4.382367e+02
1.250000e-06	5.008504e-06	6.774365e-09	3.475275e+01	4.445978e+02
1.260000e-06	5.097309e-06	6.868678e-09	3.536894e+01	4.506372e+02
1.270000e-06	5.184197e-06	6.957933e-09	3.597183e+01	4.563861e+02
1.280000e-06	5.269311e-06	7.041798e-09	3.656242e+01	4.618747e+02
1.290000e-06	5.352641e-06	7.120050e-09	3.714063e+01	4.671310e+02
1.300000e-06	5.433985e-06	7.193532e-09	3.770505e+01	4.721782e+02
1.310000e-06	5.513304e-06	7.264832e-09	3.825542e+01	4.770344e+02
1.320000e-06	5.590646e-06	7.333759e-09	3.879208e+01	4.817116e+02
1.330000e-06	5.665856e-06	7.400179e-09	3.931395e+01	4.862162e+02
1.340000e-06	5.738825e-06	7.466872e-09	3.982026e+01	4.905498e+02
1.350000e-06	5.809676e-06	7.532732e-09	4.031188e+01	4.947105e+02
1.360000e-06	5.878572e-06	7.594429e-09	4.078993e+01	4.986943e+02
1.370000e-06	5.945317e-06	7.652471e-09	4.125306e+01	5.024969e+02
1.380000e-06	6.009804e-06	7.706952e-09	4.170051e+01	5.061144e+02
1.390000e-06	6.072233e-06	7.757942e-09	4.213369e+01	5.095451e+02
1.400000e-06	6.132719e-06	7.805077e-09	4.255339e+01	5.127891e+02
1.410000e-06	6.191082e-06	7.849178e-09	4.295836e+01	5.158488e+02
1.420000e-06	6.247170e-06	7.891701e-09	4.334754e+01	5.187288e+02
1.430000e-06	6.301047e-06	7.931924e-09	4.372138e+01	5.214348e+02
1.440000e-06	6.352482e-06	7.970066e-09	4.407827e+01	5.239729e+02
1.450000e-06	6.401287e-06	8.006461e-09	4.441692e+01	5.263493e+02
1.460000e-06	6.447676e-06	8.039521e-09	4.473880e+01	5.285692e+02
1.470000e-06	6.491936e-06	8.069844e-09	4.504590e+01	5.306370e+02
1.480000e-06	6.533938e-06	8.098744e-09	4.533735e+01	5.325558e+02
1.490000e-06	6.573497e-06	8.126431e-09	4.561184e+01	5.343280e+02
1.500000e-06	6.610802e-06	8.150017e-09	4.587069e+01	5.359555e+02
1.510000e-06	6.645888e-06	8.168969e-09	4.611414e+01	5.374406e+02
1.520000e-06	6.678548e-06	8.186808e-09	4.634076e+01	5.387862e+02
1.530000e-06	6.708809e-06	8.203101e-09	4.655074e+01	5.399964e+02
1.540000e-06	6.736796e-06	8.219541e-09	4.674493e+01	5.410769e+02
1.550000e-06	6.762366e-06	8.235078e-09	4.692235e+01	5.420343e+02
1.560000e-06	6.785414e-06	8.248452e-09	4.708228e+01	5.428766e+02
1.570000e-06	6.806121e-06	8.260536e-09	4.722596e+01	5.436116e+02
1.580000e-06	6.824534e-06	8.271434e-09	4.735372e+01	5.442471e+02
1.590000e-06	6.840412e-06	8.280256e-09	4.746389e+01	5.447895e+02
1.600000e-06	6.853705e-06	8.286124e-09	4.755613e+01	5.452434e+02
1.610000e-06	6.864331e-06	8.290346e-09	4.762986e+01	5.456113e+02
1.620000e-06	6.872262e-06	8.293355e-09	4.768489e+01	5.458933e+02
1.630000e-06	6.877805e-06	8.296183e-09	4.772335e+01	5.460874e+02
1.640000e-06	6.881034e-06	8.299474e-09	4.774576e+01	5.461902e+02
1.650000e-06	6.881753e-06	8.301845e-09	4.775075e+01	5.461975e+02
1.660000e-06	6.880043e-06	8.300657e-09	4.773888e+01	5.461056e+02
1.670000e-06	6.876127e-06	8.299893e-09	4.771171e+01	5.459120e+02
1.680000e-06	6.869922e-06	8.296140e-09	4.766865e+01	5.456162e+02
1.690000e-06	6.861448e-06	8.290233e-09	4.760986e+01	5.452207e+02
1.700000e-06	6.850788e-06	8.283720e-09	4.753589e+01	5.447308e+02
1.710000e-06	6.837781e-06	8.277984e-09	4.744563e+01	5.441544e+02
1.720000e-06	6.822431e-06	8.271641e-09	4.733913e+01	5.435016e+02
1.730000e-06	6.804930e-06	8.231015e-09	4.721770e+01	5.427836e+02
1.740000e-06	6.785075e-06	8.224831e-09	4.707992e+01	5.420116e+02
1.750000e-06	6.762077e-06	8.218476e-09	4.692035e+01	5.411955e+02
1.760000e-06	6.735838e-06	8.195617e-09	4.673828e+01	5.403426e+02
1.770000e-06	6.707156e-06	8.210389e-09	4.653926e+01	5.394572e+02
1.780000e-06	6.676513e-06	8.216021e-09	4.632664e+01	5.385392e+02
1.790000e-06	6.644296e-06	8.152533e-09	4.610309e+01	5.375845e+02
1.800000e-06	6.610470e-06	8.198785e-09	4.586838e+01	5.365851e+02
1.810000e-06	6.574255e-06	8.166088e-09	4.561710e+01	5.355298e+02
1.820000e-06	6.535591e-06	8.119509e-09	4.534882e+01	5.344050e+02
1.830000e-06	6.494752e-06	8.180962e-09	4.506544e+01	5.331963e+02
1.840000e-06	6.451681e-06	8.068792e-09	4.476659e+01	5.318893e+02
1.850000e-06	6.406486e-06	8.054906e-09	4.445299e+01	5.304711e+02
1.860000e-06	6.358869e-06	8.039580e-09	4.412259e+01	5.289309e+02
1.870000e-06	6.308852e-06	7.972088e-09	4.377553e+01	5.272614e+02
1.880000e-06	6.256533e-06	8.034672e-09	4.341250e+01	5.254582e+02
1.890000e-06	6.201557e-06	7.993276e-09	4.303104e+01	5.235206e+02
1.900000e-06	6.144198e-06	7.973633e-09	4.263304e+01	5.214505e+02
1.910000e-06	6.084541e-06	7.950850e-09	4.221909e+01	5.192525e+02
1.920000e-06	6.022480e-06	7.846213e-09	4.178847e+01	5.169326e+02
1.930000e-06	5.958222e-06	7.842330e-09	4.134260e+01	5.144974e+02
1.940000e-06	5.891824e-06	7.801714e-09	4.088188e+01	5.119535e+02
1.950000e-06	5.823300e-06	7.784146e-09	4.040641e+01	5.093068e+02
1.960000e-06	5.752433e-06	7.725959e-09	3.991468e+01	5.065616e+02
1.970000e-06	5.679231e-06	7.680183e-09	3.940675e+01	5.037206e+02
1.980000e-06	5.603922e-06	7.661844e-09	3.888420e+01	5.007849e+02
1.990000e-06	5.526447e-06	7.577242e-09	3.834662e+01	4.977536e+02
2.000000e-06	5.446794e-06	7.541859e-09	3.779393e+01	4.946245e+02
2.010000e-06	5.365208e-06	7.484696e-09	3.722782e+01	4.913941e+02
2.020000e-06	5.281867e-06	7.441237e-09	3.664954e+01	4.880582e+02
2.030000e-06	5.196615e-06	7.391727e-09	3.605800e+01	4.846122e+02
2.040000e-06	5.109360e-06	7.344323e-09	3.545256e+01	4.810514e+02
2.050000e-06	5.020350e-06	7.298770e-09	3.483494e+01	4.773713e+02
2.060000e-06	4.929759e-06	7.215522e-09	3.420635e+01	4.735679e+02
2.070000e-06	4.837509e-06	7.157237e-09	3.356625e+01	4.696377e+02
2.080000e-06	4.743464e-06	7.098724e-09	3.291370e+01	4.655779e+02
2.090000e-06	4.647613e-06	7.055582e-09	3.224862e+01	4.613861e+02
2.100000e-06	4.550183e-06	6.987126e-09	3.157257e+01	4.570606e+02
2.110000e-06	4.451295e-06	6.919559e-09	3.088641e+01	4.526000e+02
2.120000e-06	4.350900e-06	6.852400e-09	3.018979e+01	4.480030e+02
2.130000e-06	4.248923e-06	6.766557e-09	2.948221e+01	4.432685e+02
2.140000e-06	4.145273e-06	6.687159e-09	2.876301e+01	4.383951e+02
2.150000e-06	4.040088e-06	6.612248e-09	2.803315e+01	4.333813e+02
2.160000e-06	3.933593e-06	6.545260e-09	2.729421e+01	4.282250e+02
2.170000e-06	3.825724e-06	6.469730e-09	2.654574e+01	4.229235e+02
2.180000e-06	3.716542e-06	6.392467e-09	2.578815e+01	4.174736e+02
2.190000e-06	3.605967e-06	6.305054e-09	2.502090e+01	4.118716e+02
2.200000e-06	3.493970e-06	6.218554e-09	2.424377e+01	4.061133e+02
2.210000e-06	3.380648e-06	6.124236e-09	2.345746e+01	4.001939e+02
2.220000e-06	3.265956e-06	6.027193e-09	2.266165e+01	3.941087e+02
2.230000e-06	3.149889e-06	5.929475e-09	2.185629e+01	3.878531e+02
2.240000e-06	3.032624e-06	5.832393e-09	2.104261e+01	3.814225e+02
2.250000e-06	2.914204e-06	5.736027e-09	2.022093e+01	3.748127e+02
2.260000e-06	2.794495e-06	5.633661e-09	1.939029e+01	3.680198e+02
2.270000e-06	2.673681e-06	5.529681e-09	1.855200e+01	3.610401e+02
2.280000e-06	2.551957e-06	5.422960e-09	1.770738e+01	3.538698e+02
2.290000e-06	2.429412e-06	5.313832e-09	1.685708e+01	3.465047e+02
2.300000e-06	2.306024e-06	5.199413e-09	1.600092e+01	3.389400e+02
2.310000e-06	2.181815e-06	5.084683e-09	1.513906e+01	3.311696e+02
2.320000e-06	2.056916e-06	4.962084e-09	1.427242e+01	3.231857e+02
2.330000e-06	1.931402e-06	4.831818e-09	1.340151e+01	3.149791e+02
2.340000e-06	1.805205e-06	4.697784e-09	1.252586e+01	3.065386e+02
2.350000e-06	1.678291e-06	4.566064e-09	1.164524e+01	2.978516e+02
2.360000e-06	1.550713e-06	4.435097e-09	1.076001e+01	2.889045e+02
2.370000e-06	1.422551e-06	4.298522e-09	9.870723e+00	2.796832e+02
2.380000e-06	1.293926e-06	4.156332e-09	8.978226e+00	2.701743e+02
2.390000e-06	1.164906e-06	4.007395e-09	8.082990e+00	2.603653e+02
2.400000e-06	1.035561e-06	3.852082e-09	7.185494e+00	2.502461e+02
2.410000e-06	9.060071e-07	3.691651e-09	6.286555e+00	2.398087e+02
2.420000e-06	7.762314e-07	3.527516e-09	5.386074e+00	2.290477e+02
2.430000e-06	6.461992e-07	3.358354e-09	4.483814e+00	2.179598e+02
2.440000e-06	5.159415e-07	3.185200e-09	3.579988e+00	2.065429e+02
2.450000e-06	3.854726e-07	3.008407e-09	2.674697e+00	1.947947e+02
2.460000e-06	2.548211e-07	2.827979e-09	1.768139e+00	1.827115e+02
2.470000e-06	1.240053e-07	2.639143e-09	8.604412e-01	1.702862e+02
2.480000e-06	-6.884348e-09	2.441041e-09	-4.776875e-02	1.575067e+02
2.490000e-06	-1.377587e-07	2.239056e-09	-9.558728e-01	1.443552e+02
2.500000e-06	-2.685687e-07	2.028467e-09	-1.863530e+00	1.308074e+02
2.510000e-06	-3.992768e-07	1.808247e-09	-2.770481e+00	1.168332e+02
2.520000e-06	-5.298872e-07	1.583338e-09	-3.676754e+00	1.023983e+02
2.530000e-06	-6.603518e-07	1.354922e-09	-4.582015e+00	8.746650e+01
2.540000e-06	-7.905920e-07	1.120983e-09	-5.485718e+00	7.200356e+01
2.550000e-06	-9.205512e-07	8.772985e-10	-6.387473e+00	5.598120e+01
2.560000e-06	-1.050213e-06	6.245180e-10	-7.287164e+00	3.938169e+01
2.570000e-06	-1.179560e-06	3.647808e-10	-8.184669e+00	2.220235e+01
2.580000e-06	-1.308570e-06	9.437497e-11	-9.079840e+00	4.459388e+00
2.590000e-06	-1.437177e-06	-1.862148e-10	-9.972207e+00	-1.380924e+01
2.600000e-06	-1.565211e-06	-4.738020e-10	-1.086060e+01	-3.254239e+01
2.610000e-06	-1.692587e-06	-7.684869e-10	-1.174443e+01	-5.165606e+01
2.620000e-06	-1.819248e-06	-1.067315e-09	-1.262330e+01	-7.104542e+01
2.630000e-06	-1.945156e-06	-1.367895e-09	-1.349695e+01	-9.058868e+01
2.640000e-06	-2.070339e-06	-1.666706e-09	-1.436556e+01	-1.101524e+02
2.650000e-06	-2.194742e-06	-1.962228e-09	-1.522876e+01	-1.295979e+02
2.660000e-06	-2.318317e-06	-2.256971e-09	-1.608622e+01	-1.487882e+02
2.670000e-06	-2.440939e-06	-2.544958e-09	-1.693706e+01	-1.675950e+02
2.680000e-06	-2.562588e-06	-2.822059e-09	-1.778115e+01	-1.859048e+02
2.690000e-06	-2.683401e-06	-3.091354e-09	-1.861945e+01	-2.036242e+02
2.700000e-06	-2.803287e-06	-3.353108e-09	-1.945130e+01	-2.206829e+02
2.710000e-06	-2.921992e-06	-3.604460e-09	-2.027496e+01	-2.370356e+02
2.720000e-06	-3.039519e-06	-3.843325e-09	-2.109046e+01	-2.526612e+02
2.730000e-06	-3.155859e-06	-4.071705e-09	-2.189771e+01	-2.675609e+02
2.740000e-06	-3.270904e-06	-4.291481e-09	-2.269598e+01	-2.817543e+02
2.750000e-06	-3.384581e-06	-4.502713e-09	-2.348475e+01	-2.952745e+02
2.760000e-06	-3.496851e-06	-4.703528e-09	-2.426377e+01	-3.081629e+02
2.770000e-06	-3.607777e-06	-4.892575e-09	-2.503346e+01	-3.204640e+02
2.780000e-06	-3.717423e-06	-5.071223e-09	-2.579426e+01	-3.322206e+02
2.790000e-06	-3.825893e-06	-5.241346e-09	-2.654691e+01	-3.434706e+02
2.800000e-06	-3.933158e-06	-5.404866e-09	-2.729119e+01	-3.542441e+02
2.810000e-06	-4.039086e-06	-5.562455e-09	-2.802620e+01	-3.645627e+02
2.820000e-06	-4.143639e-06	-5.712763e-09	-2.875166e+01	-3.744401e+02
2.830000e-06	-4.246649e-06	-5.856058e-09	-2.946643e+01	-3.838837e+02
2.840000e-06	-4.348037e-06	-5.992672e-09	-3.016993e+01	-3.928964e+02
2.850000e-06	-4.447865e-06	-6.123347e-09	-3.086262e+01	-4.014800e+02
2.860000e-06	-4.546124e-06	-6.248789e-09	-3.154441e+01	-4.096373e+02
2.870000e-06	-4.642807e-06	-6.368584e-09	-3.221527e+01	-4.173750e+02
2.880000e-06	-4.737822e-06	-6.481434e-09	-3.287455e+01	-4.247045e+02
2.890000e-06	-4.831143e-06	-6.589027e-09	-3.352208e+01	-4.316435e+02
2.900000e-06	-4.922748e-06	-6.693493e-09	-3.415771e+01	-4.382150e+02
2.910000e-06	-5.012619e-06	-6.792728e-09	-3.478130e+01	-4.444465e+02
2.920000e-06	-5.100654e-06	-6.884710e-09	-3.539215e+01	-4.503685e+02
2.930000e-06	-5.186797e-06	-6.969493e-09	-3.598988e+01	-4.560120e+02
2.940000e-06	-5.271076e-06	-7.050544e-09	-3.657467e+01	-4.614067e+02
