# Temperatura_=_28.05
# Concentracion g/m^3_=_15000.0
# C_Vs_to_Am_M_A/Vsm_=_65563218390.804596
# pendiente_HvsI_1/m_=_3716.3
# ordenada_HvsI_A/m_=_1297.0
# frecuencia_Hz_=_301889.4202489939

Tiempo_(s)	Campo_(V.s)	Magnetizacion_(V.s)	Campo_(kA/m)	Magnetizacion_(A/m)
0.000000e+00	-6.851977e-06	-8.117195e-09	-4.749719e+01	-5.305527e+02
1.000000e-08	-6.848974e-06	-8.116471e-09	-4.747637e+01	-5.303523e+02
2.000000e-08	-6.843680e-06	-8.114714e-09	-4.743967e+01	-5.300440e+02
3.000000e-08	-6.836223e-06	-8.111417e-09	-4.738798e+01	-5.296378e+02
4.000000e-08	-6.826431e-06	-8.104047e-09	-4.732011e+01	-5.291474e+02
5.000000e-08	-6.814190e-06	-8.092956e-09	-4.723526e+01	-5.285890e+02
6.000000e-08	-6.799474e-06	-8.077847e-09	-4.713324e+01	-5.279798e+02
7.000000e-08	-6.782407e-06	-8.063348e-09	-4.701494e+01	-5.273359e+02
8.000000e-08	-6.763214e-06	-8.072261e-09	-4.688189e+01	-5.266695e+02
9.000000e-08	-6.741630e-06	-8.087568e-09	-4.673227e+01	-5.259882e+02
1.000000e-07	-6.717227e-06	-8.063388e-09	-4.656311e+01	-5.252930e+02
1.100000e-07	-6.690065e-06	-8.036043e-09	-4.637483e+01	-5.245779e+02
1.200000e-07	-6.660572e-06	-8.015309e-09	-4.617039e+01	-5.238309e+02
1.300000e-07	-6.629071e-06	-7.948598e-09	-4.595203e+01	-5.230343e+02
1.400000e-07	-6.595694e-06	-7.906305e-09	-4.572066e+01	-5.221672e+02
1.500000e-07	-6.560391e-06	-7.963592e-09	-4.547594e+01	-5.212073e+02
1.600000e-07	-6.523019e-06	-7.951852e-09	-4.521688e+01	-5.201338e+02
1.700000e-07	-6.483626e-06	-7.949445e-09	-4.494382e+01	-5.189292e+02
1.800000e-07	-6.441848e-06	-7.946681e-09	-4.465422e+01	-5.175813e+02
1.900000e-07	-6.397471e-06	-7.843034e-09	-4.434660e+01	-5.160845e+02
2.000000e-07	-6.350822e-06	-7.810363e-09	-4.402323e+01	-5.144396e+02
2.100000e-07	-6.301683e-06	-7.813363e-09	-4.368261e+01	-5.126538e+02
2.200000e-07	-6.249890e-06	-7.829378e-09	-4.332358e+01	-5.107392e+02
2.300000e-07	-6.195616e-06	-7.801499e-09	-4.294736e+01	-5.087109e+02
2.400000e-07	-6.138927e-06	-7.714655e-09	-4.255440e+01	-5.065851e+02
2.500000e-07	-6.079925e-06	-7.682482e-09	-4.214541e+01	-5.043768e+02
2.600000e-07	-6.018684e-06	-7.663155e-09	-4.172088e+01	-5.020984e+02
2.700000e-07	-5.955256e-06	-7.635666e-09	-4.128121e+01	-4.997578e+02
2.800000e-07	-5.889643e-06	-7.606841e-09	-4.082639e+01	-4.973579e+02
2.900000e-07	-5.821788e-06	-7.543655e-09	-4.035603e+01	-4.948969e+02
3.000000e-07	-5.751770e-06	-7.483314e-09	-3.987067e+01	-4.923687e+02
3.100000e-07	-5.679632e-06	-7.461062e-09	-3.937061e+01	-4.897639e+02
3.200000e-07	-5.605320e-06	-7.473999e-09	-3.885550e+01	-4.870717e+02
3.300000e-07	-5.528724e-06	-7.419766e-09	-3.832454e+01	-4.842810e+02
3.400000e-07	-5.449818e-06	-7.324475e-09	-3.777757e+01	-4.813821e+02
3.500000e-07	-5.368792e-06	-7.264914e-09	-3.721590e+01	-4.783675e+02
3.600000e-07	-5.285940e-06	-7.227280e-09	-3.664158e+01	-4.752329e+02
3.700000e-07	-5.201420e-06	-7.214273e-09	-3.605570e+01	-4.719766e+02
3.800000e-07	-5.115166e-06	-7.181554e-09	-3.545779e+01	-4.685997e+02
3.900000e-07	-5.027066e-06	-7.113458e-09	-3.484709e+01	-4.651047e+02
4.000000e-07	-4.937133e-06	-7.015223e-09	-3.422369e+01	-4.614952e+02
4.100000e-07	-4.845482e-06	-6.942448e-09	-3.358837e+01	-4.577741e+02
4.200000e-07	-4.752214e-06	-6.915156e-09	-3.294185e+01	-4.539431e+02
4.300000e-07	-4.657291e-06	-6.876042e-09	-3.228385e+01	-4.500020e+02
4.400000e-07	-4.560703e-06	-6.805718e-09	-3.161432e+01	-4.459484e+02
4.500000e-07	-4.462412e-06	-6.722868e-09	-3.093297e+01	-4.417776e+02
4.600000e-07	-4.362450e-06	-6.647039e-09	-3.024005e+01	-4.374835e+02
4.700000e-07	-4.261014e-06	-6.579337e-09	-2.953691e+01	-4.330587e+02
4.800000e-07	-4.158112e-06	-6.528215e-09	-2.882360e+01	-4.284960e+02
4.900000e-07	-4.053761e-06	-6.466923e-09	-2.810025e+01	-4.237886e+02
5.000000e-07	-3.947881e-06	-6.374783e-09	-2.736630e+01	-4.189310e+02
5.100000e-07	-3.840398e-06	-6.285352e-09	-2.662124e+01	-4.139195e+02
5.200000e-07	-3.731573e-06	-6.219138e-09	-2.586687e+01	-4.087519e+02
5.300000e-07	-3.621571e-06	-6.152503e-09	-2.510435e+01	-4.034275e+02
5.400000e-07	-3.510224e-06	-6.059683e-09	-2.433251e+01	-3.979466e+02
5.500000e-07	-3.397421e-06	-5.957231e-09	-2.355057e+01	-3.923098e+02
5.600000e-07	-3.283139e-06	-5.858705e-09	-2.275838e+01	-3.865173e+02
5.700000e-07	-3.167402e-06	-5.768124e-09	-2.195610e+01	-3.805685e+02
5.800000e-07	-3.050407e-06	-5.688515e-09	-2.114511e+01	-3.744611e+02
5.900000e-07	-2.932382e-06	-5.609251e-09	-2.032696e+01	-3.681914e+02
6.000000e-07	-2.813336e-06	-5.505144e-09	-1.950175e+01	-3.617540e+02
6.100000e-07	-2.693157e-06	-5.383629e-09	-1.866868e+01	-3.551421e+02
6.200000e-07	-2.572042e-06	-5.274943e-09	-1.782912e+01	-3.483478e+02
6.300000e-07	-2.449983e-06	-5.178236e-09	-1.698303e+01	-3.413626e+02
6.400000e-07	-2.326847e-06	-5.076261e-09	-1.612946e+01	-3.341776e+02
6.500000e-07	-2.202835e-06	-4.961400e-09	-1.526982e+01	-3.267841e+02
6.600000e-07	-2.078145e-06	-4.839163e-09	-1.440549e+01	-3.191732e+02
6.700000e-07	-1.952827e-06	-4.713871e-09	-1.353679e+01	-3.113363e+02
6.800000e-07	-1.826890e-06	-4.590103e-09	-1.266381e+01	-3.032645e+02
6.900000e-07	-1.700352e-06	-4.471050e-09	-1.178666e+01	-2.949488e+02
7.000000e-07	-1.573179e-06	-4.347061e-09	-1.090511e+01	-2.863794e+02
7.100000e-07	-1.445396e-06	-4.209022e-09	-1.001933e+01	-2.775463e+02
7.200000e-07	-1.317125e-06	-4.064732e-09	-9.130173e+00	-2.684391e+02
7.300000e-07	-1.188486e-06	-3.920097e-09	-8.238460e+00	-2.590470e+02
7.400000e-07	-1.059506e-06	-3.772703e-09	-7.344383e+00	-2.493598e+02
7.500000e-07	-9.301793e-07	-3.618476e-09	-6.447906e+00	-2.393681e+02
7.600000e-07	-8.005718e-07	-3.455306e-09	-5.549480e+00	-2.290637e+02
7.700000e-07	-6.707093e-07	-3.287192e-09	-4.649287e+00	-2.184402e+02
7.800000e-07	-5.406107e-07	-3.116599e-09	-3.747457e+00	-2.074927e+02
7.900000e-07	-4.102919e-07	-2.946043e-09	-2.844100e+00	-1.962175e+02
8.000000e-07	-2.797382e-07	-2.774242e-09	-1.939116e+00	-1.846116e+02
8.100000e-07	-1.490167e-07	-2.594872e-09	-1.032968e+00	-1.726710e+02
8.200000e-07	-1.815154e-08	-2.406187e-09	-1.258246e-01	-1.603898e+02
8.300000e-07	1.127561e-07	-2.212892e-09	7.816132e-01	-1.477588e+02
8.400000e-07	2.435996e-07	-2.017758e-09	1.688607e+00	-1.347638e+02
8.500000e-07	3.743904e-07	-1.818526e-09	2.595235e+00	-1.213859e+02
8.600000e-07	5.050667e-07	-1.611051e-09	3.501070e+00	-1.076008e+02
8.700000e-07	6.354956e-07	-1.391211e-09	4.405189e+00	-9.338012e+01
8.800000e-07	7.656628e-07	-1.162330e-09	5.307494e+00	-7.869385e+01
8.900000e-07	8.955861e-07	-9.285309e-10	6.208109e+00	-6.351297e+01
9.000000e-07	1.025136e-06	-6.909207e-10	7.106139e+00	-4.781351e+01
9.100000e-07	1.154348e-06	-4.475316e-10	8.001819e+00	-3.158078e+01
9.200000e-07	1.283286e-06	-1.960767e-10	8.895607e+00	-1.481365e+01
9.300000e-07	1.411851e-06	6.389017e-11	9.786802e+00	2.471554e+00
9.400000e-07	1.539934e-06	3.329025e-10	1.067466e+01	2.023827e+01
9.500000e-07	1.667415e-06	6.097783e-10	1.155834e+01	3.842812e+01
9.600000e-07	1.794230e-06	8.910018e-10	1.243741e+01	5.696116e+01
9.700000e-07	1.920365e-06	1.176915e-09	1.331177e+01	7.573783e+01
9.800000e-07	2.045808e-06	1.466769e-09	1.418133e+01	9.464267e+01
9.900000e-07	2.170608e-06	1.757073e-09	1.504643e+01	1.135496e+02
1.000000e-06	2.294775e-06	2.043952e-09	1.590714e+01	1.323283e+02
1.010000e-06	2.418120e-06	2.324634e-09	1.676216e+01	1.508506e+02
1.020000e-06	2.540399e-06	2.598179e-09	1.760978e+01	1.689978e+02
1.030000e-06	2.661636e-06	2.862243e-09	1.845018e+01	1.866658e+02
1.040000e-06	2.781942e-06	3.118609e-09	1.928413e+01	2.037704e+02
1.050000e-06	2.901245e-06	3.367570e-09	2.011113e+01	2.202497e+02
1.060000e-06	3.019489e-06	3.606368e-09	2.093078e+01	2.360653e+02
1.070000e-06	3.136662e-06	3.835095e-09	2.174302e+01	2.512010e+02
1.080000e-06	3.252696e-06	4.054382e-09	2.254735e+01	2.656604e+02
1.090000e-06	3.367359e-06	4.265153e-09	2.334218e+01	2.794630e+02
1.100000e-06	3.480572e-06	4.465943e-09	2.412696e+01	2.926387e+02
1.110000e-06	3.592426e-06	4.658078e-09	2.490232e+01	3.052233e+02
1.120000e-06	3.703033e-06	4.841020e-09	2.566904e+01	3.172534e+02
1.130000e-06	3.812444e-06	5.014942e-09	2.642746e+01	3.287627e+02
1.140000e-06	3.920673e-06	5.181921e-09	2.717770e+01	3.397791e+02
1.150000e-06	4.027579e-06	5.342127e-09	2.791875e+01	3.503235e+02
1.160000e-06	4.132925e-06	5.496694e-09	2.864900e+01	3.604097e+02
1.170000e-06	4.236807e-06	5.644852e-09	2.936910e+01	3.700457e+02
1.180000e-06	4.339189e-06	5.784473e-09	3.007880e+01	3.792359e+02
1.190000e-06	4.440062e-06	5.916677e-09	3.077805e+01	3.879832e+02
1.200000e-06	4.539409e-06	6.043297e-09	3.146671e+01	3.962924e+02
1.210000e-06	4.637001e-06	6.163429e-09	3.214320e+01	4.041717e+02
1.220000e-06	4.732822e-06	6.275875e-09	3.280742e+01	4.116343e+02
1.230000e-06	4.826922e-06	6.381431e-09	3.345972e+01	4.186995e+02
1.240000e-06	4.919466e-06	6.482867e-09	3.410122e+01	4.253917e+02
1.250000e-06	5.010366e-06	6.580187e-09	3.473133e+01	4.317395e+02
1.260000e-06	5.099342e-06	6.672579e-09	3.534811e+01	4.377741e+02
1.270000e-06	5.186438e-06	6.760089e-09	3.595184e+01	4.435265e+02
1.280000e-06	5.271727e-06	6.844030e-09	3.654306e+01	4.490262e+02
1.290000e-06	5.355168e-06	6.924581e-09	3.712146e+01	4.542982e+02
1.300000e-06	5.436641e-06	7.002305e-09	3.768622e+01	4.593630e+02
1.310000e-06	5.516104e-06	7.077101e-09	3.823705e+01	4.642346e+02
1.320000e-06	5.593610e-06	7.146345e-09	3.877432e+01	4.689219e+02
1.330000e-06	5.669024e-06	7.210860e-09	3.929708e+01	4.734284e+02
1.340000e-06	5.742177e-06	7.274722e-09	3.980417e+01	4.777542e+02
1.350000e-06	5.813174e-06	7.337517e-09	4.029631e+01	4.818972e+02
1.360000e-06	5.882148e-06	7.397992e-09	4.077443e+01	4.858546e+02
1.370000e-06	5.949029e-06	7.456236e-09	4.123805e+01	4.896244e+02
1.380000e-06	6.013734e-06	7.510950e-09	4.168658e+01	4.932065e+02
1.390000e-06	6.076360e-06	7.563392e-09	4.212069e+01	4.966024e+02
1.400000e-06	6.137037e-06	7.613255e-09	4.254130e+01	4.998160e+02
1.410000e-06	6.195559e-06	7.658980e-09	4.294697e+01	5.028525e+02
1.420000e-06	6.251784e-06	7.700714e-09	4.333671e+01	5.057180e+02
1.430000e-06	6.305807e-06	7.738677e-09	4.371119e+01	5.084184e+02
1.440000e-06	6.357378e-06	7.774974e-09	4.406868e+01	5.109586e+02
1.450000e-06	6.406266e-06	7.810203e-09	4.440757e+01	5.133423e+02
1.460000e-06	6.452781e-06	7.844488e-09	4.473000e+01	5.155716e+02
1.470000e-06	6.497234e-06	7.875593e-09	4.503814e+01	5.176472e+02
1.480000e-06	6.539421e-06	7.903750e-09	4.533058e+01	5.195695e+02
1.490000e-06	6.579141e-06	7.930681e-09	4.560592e+01	5.213386e+02
1.500000e-06	6.616579e-06	7.954682e-09	4.586543e+01	5.229557e+02
1.510000e-06	6.651801e-06	7.976799e-09	4.610959e+01	5.244240e+02
1.520000e-06	6.684553e-06	7.996613e-09	4.633662e+01	5.257485e+02
1.530000e-06	6.714870e-06	8.012894e-09	4.654678e+01	5.269366e+02
1.540000e-06	6.742983e-06	8.027158e-09	4.674165e+01	5.279978e+02
1.550000e-06	6.768639e-06	8.039260e-09	4.691950e+01	5.289425e+02
1.560000e-06	6.791737e-06	8.050982e-09	4.707961e+01	5.297811e+02
1.570000e-06	6.812556e-06	8.063346e-09	4.722393e+01	5.305229e+02
1.580000e-06	6.831044e-06	8.075037e-09	4.735209e+01	5.311751e+02
1.590000e-06	6.846937e-06	8.085368e-09	4.746225e+01	5.317415e+02
1.600000e-06	6.860283e-06	8.092915e-09	4.755476e+01	5.322228e+02
1.610000e-06	6.870961e-06	8.097726e-09	4.762879e+01	5.326161e+02
1.620000e-06	6.878938e-06	8.100279e-09	4.768408e+01	5.329160e+02
1.630000e-06	6.884542e-06	8.102184e-09	4.772292e+01	5.331157e+02
1.640000e-06	6.887795e-06	8.104884e-09	4.774548e+01	5.332085e+02
1.650000e-06	6.888556e-06	8.107498e-09	4.775075e+01	5.331894e+02
1.660000e-06	6.886899e-06	8.105142e-09	4.773926e+01	5.330565e+02
1.670000e-06	6.883096e-06	8.101982e-09	4.771290e+01	5.328122e+02
1.680000e-06	6.876968e-06	8.097817e-09	4.767042e+01	5.324635e+02
1.690000e-06	6.868493e-06	8.091590e-09	4.761167e+01	5.320217e+02
1.700000e-06	6.857871e-06	8.085132e-09	4.753804e+01	5.315019e+02
1.710000e-06	6.844914e-06	8.081585e-09	4.744823e+01	5.309209e+02
1.720000e-06	6.829534e-06	8.083250e-09	4.734162e+01	5.302957e+02
1.730000e-06	6.812018e-06	8.054289e-09	4.722020e+01	5.296411e+02
1.740000e-06	6.792258e-06	8.013026e-09	4.708322e+01	5.289677e+02
1.750000e-06	6.769356e-06	8.014055e-09	4.692447e+01	5.282805e+02
1.760000e-06	6.743186e-06	8.002915e-09	4.674306e+01	5.275779e+02
1.770000e-06	6.714541e-06	7.990141e-09	4.654449e+01	5.268515e+02
1.780000e-06	6.683813e-06	8.040929e-09	4.633149e+01	5.260867e+02
1.790000e-06	6.651532e-06	8.022504e-09	4.610773e+01	5.252644e+02
1.800000e-06	6.617779e-06	7.987575e-09	4.587375e+01	5.243628e+02
1.810000e-06	6.581511e-06	7.991811e-09	4.562234e+01	5.233600e+02
1.820000e-06	6.542734e-06	7.924592e-09	4.535355e+01	5.222362e+02
1.830000e-06	6.501934e-06	7.944228e-09	4.507073e+01	5.209758e+02
1.840000e-06	6.458856e-06	7.960085e-09	4.477211e+01	5.195691e+02
1.850000e-06	6.413586e-06	7.918238e-09	4.445831e+01	5.180130e+02
1.860000e-06	6.365996e-06	7.905013e-09	4.412842e+01	5.163110e+02
1.870000e-06	6.316008e-06	7.779269e-09	4.378191e+01	5.144723e+02
1.880000e-06	6.263717e-06	7.745383e-09	4.341943e+01	5.125105e+02
1.890000e-06	6.208700e-06	7.778818e-09	4.303806e+01	5.104413e+02
1.900000e-06	6.151222e-06	7.755866e-09	4.263962e+01	5.082808e+02
1.910000e-06	6.091517e-06	7.764360e-09	4.222576e+01	5.060431e+02
1.920000e-06	6.029419e-06	7.653541e-09	4.179530e+01	5.037389e+02
1.930000e-06	5.965137e-06	7.598577e-09	4.134970e+01	5.013743e+02
1.940000e-06	5.898700e-06	7.619463e-09	4.088917e+01	4.989503e+02
1.950000e-06	5.830135e-06	7.593628e-09	4.041389e+01	4.964632e+02
1.960000e-06	5.759210e-06	7.557506e-09	3.992224e+01	4.939055e+02
1.970000e-06	5.686011e-06	7.453967e-09	3.941483e+01	4.912671e+02
1.980000e-06	5.610677e-06	7.421551e-09	3.889263e+01	4.885368e+02
1.990000e-06	5.533085e-06	7.395481e-09	3.835476e+01	4.857040e+02
2.000000e-06	5.453450e-06	7.380547e-09	3.780275e+01	4.827598e+02
2.010000e-06	5.371857e-06	7.352809e-09	3.723715e+01	4.796978e+02
2.020000e-06	5.288485e-06	7.246586e-09	3.665923e+01	4.765148e+02
2.030000e-06	5.203260e-06	7.175672e-09	3.606845e+01	4.732102e+02
2.040000e-06	5.115962e-06	7.116994e-09	3.546331e+01	4.697859e+02
2.050000e-06	5.026847e-06	7.120384e-09	3.484558e+01	4.662449e+02
2.060000e-06	4.936189e-06	7.101126e-09	3.421715e+01	4.625906e+02
2.070000e-06	4.843922e-06	7.025800e-09	3.357756e+01	4.588256e+02
2.080000e-06	4.749880e-06	6.933196e-09	3.292567e+01	4.549509e+02
2.090000e-06	4.654092e-06	6.838854e-09	3.226168e+01	4.509654e+02
2.100000e-06	4.556707e-06	6.798433e-09	3.158662e+01	4.468657e+02
2.110000e-06	4.457828e-06	6.773435e-09	3.090120e+01	4.426467e+02
2.120000e-06	4.357422e-06	6.723111e-09	3.020519e+01	4.383015e+02
2.130000e-06	4.255443e-06	6.621714e-09	2.949829e+01	4.338228e+02
2.140000e-06	4.151827e-06	6.527886e-09	2.878003e+01	4.292033e+02
2.150000e-06	4.046631e-06	6.457445e-09	2.805082e+01	4.244369e+02
2.160000e-06	3.940068e-06	6.405983e-09	2.731214e+01	4.195186e+02
2.170000e-06	3.832158e-06	6.348190e-09	2.656412e+01	4.144453e+02
2.180000e-06	3.722947e-06	6.253307e-09	2.580708e+01	4.092154e+02
2.190000e-06	3.612313e-06	6.150469e-09	2.504018e+01	4.038289e+02
2.200000e-06	3.500223e-06	6.065228e-09	2.426318e+01	3.982860e+02
2.210000e-06	3.386777e-06	6.010423e-09	2.347679e+01	3.925874e+02
2.220000e-06	3.272003e-06	5.939586e-09	2.268119e+01	3.867331e+02
2.230000e-06	3.155890e-06	5.829267e-09	2.187630e+01	3.807216e+02
2.240000e-06	3.038503e-06	5.707881e-09	2.106259e+01	3.745504e+02
2.250000e-06	2.919880e-06	5.609710e-09	2.024030e+01	3.682149e+02
2.260000e-06	2.800010e-06	5.527896e-09	1.940937e+01	3.617092e+02
2.270000e-06	2.679130e-06	5.450471e-09	1.857145e+01	3.550260e+02
2.280000e-06	2.557370e-06	5.353999e-09	1.772742e+01	3.481571e+02
2.290000e-06	2.434751e-06	5.226704e-09	1.687744e+01	3.410939e+02
2.300000e-06	2.311210e-06	5.092973e-09	1.602107e+01	3.338274e+02
2.310000e-06	2.186854e-06	4.980645e-09	1.515905e+01	3.263489e+02
2.320000e-06	2.061837e-06	4.889907e-09	1.429244e+01	3.186497e+02
2.330000e-06	1.936175e-06	4.781663e-09	1.342136e+01	3.107209e+02
2.340000e-06	1.809867e-06	4.642259e-09	1.254581e+01	3.025537e+02
2.350000e-06	1.682852e-06	4.494144e-09	1.166535e+01	2.941389e+02
2.360000e-06	1.555141e-06	4.359250e-09	1.078008e+01	2.854665e+02
2.370000e-06	1.426854e-06	4.236404e-09	9.890804e+00	2.765264e+02
2.380000e-06	1.298184e-06	4.111014e-09	8.998876e+00	2.673079e+02
2.390000e-06	1.169143e-06	3.967154e-09	8.104380e+00	2.578004e+02
2.400000e-06	1.039697e-06	3.806300e-09	7.207069e+00	2.479940e+02
2.410000e-06	9.099457e-07	3.647544e-09	6.307648e+00	2.378798e+02
2.420000e-06	7.799831e-07	3.497429e-09	5.406761e+00	2.274501e+02
2.430000e-06	6.498408e-07	3.346764e-09	4.504628e+00	2.166991e+02
2.440000e-06	5.194921e-07	3.178757e-09	3.601065e+00	2.056226e+02
2.450000e-06	3.889718e-07	2.993161e-09	2.696312e+00	1.942173e+02
2.460000e-06	2.582786e-07	2.807807e-09	1.790360e+00	1.824798e+02
2.470000e-06	1.274518e-07	2.629289e-09	8.834826e-01	1.704056e+02
2.480000e-06	-3.421968e-09	2.450363e-09	-2.372073e-02	1.579877e+02
2.490000e-06	-1.342855e-07	2.259256e-09	-9.308533e-01	1.452150e+02
2.500000e-06	-2.651366e-07	2.048653e-09	-1.837899e+00	1.320716e+02
2.510000e-06	-3.959206e-07	1.826704e-09	-2.744480e+00	1.185362e+02
2.520000e-06	-5.265930e-07	1.608986e-09	-3.650288e+00	1.045829e+02
2.530000e-06	-6.570831e-07	1.397458e-09	-4.554831e+00	9.018227e+01
2.540000e-06	-7.873513e-07	1.179740e-09	-5.457837e+00	7.530433e+01
2.550000e-06	-9.173922e-07	9.436399e-10	-6.359267e+00	5.992154e+01
2.560000e-06	-1.047123e-06	6.920258e-10	-7.258545e+00	4.401304e+01
2.570000e-06	-1.176547e-06	4.379019e-10	-8.155704e+00	2.756898e+01
2.580000e-06	-1.305658e-06	1.846119e-10	-9.050686e+00	1.059468e+01
2.590000e-06	-1.434424e-06	-7.546867e-11	-9.943277e+00	-6.885872e+00
2.600000e-06	-1.562706e-06	-3.483527e-10	-1.083252e+01	-2.482763e+01
2.610000e-06	-1.690319e-06	-6.358900e-10	-1.171711e+01	-4.316362e+01
2.620000e-06	-1.817131e-06	-9.306943e-10	-1.259616e+01	-6.180585e+01
2.630000e-06	-1.943166e-06	-1.222492e-09	-1.346982e+01	-8.064799e+01
2.640000e-06	-2.068513e-06	-1.509059e-09	-1.433872e+01	-9.956972e+01
2.650000e-06	-2.193117e-06	-1.794794e-09	-1.520246e+01	-1.184425e+02
2.660000e-06	-2.316824e-06	-2.083245e-09	-1.605998e+01	-1.371360e+02
2.670000e-06	-2.439591e-06	-2.368502e-09	-1.691099e+01	-1.555250e+02
2.680000e-06	-2.561425e-06	-2.642253e-09	-1.775553e+01	-1.734959e+02
2.690000e-06	-2.682439e-06	-2.904844e-09	-1.859438e+01	-1.909521e+02
2.700000e-06	-2.802541e-06	-3.158971e-09	-1.942692e+01	-2.078178e+02
2.710000e-06	-2.921408e-06	-3.408084e-09	-2.025090e+01	-2.240403e+02
2.720000e-06	-3.039090e-06	-3.651439e-09	-2.106665e+01	-2.395901e+02
2.730000e-06	-3.155590e-06	-3.882267e-09	-2.187422e+01	-2.544594e+02
2.740000e-06	-3.270803e-06	-4.100077e-09	-2.267286e+01	-2.686584e+02
2.750000e-06	-3.384668e-06	-4.308966e-09	-2.346216e+01	-2.822113e+02
2.760000e-06	-3.497115e-06	-4.510710e-09	-2.424163e+01	-2.951510e+02
2.770000e-06	-3.608208e-06	-4.704014e-09	-2.501172e+01	-3.075141e+02
2.780000e-06	-3.718003e-06	-4.888180e-09	-2.577281e+01	-3.193365e+02
2.790000e-06	-3.826591e-06	-5.060586e-09	-2.652553e+01	-3.306498e+02
2.800000e-06	-3.933956e-06	-5.220905e-09	-2.726977e+01	-3.414793e+02
2.810000e-06	-4.039984e-06	-5.373966e-09	-2.800474e+01	-3.518431e+02
2.820000e-06	-4.144664e-06	-5.523772e-09	-2.873038e+01	-3.617524e+02
2.830000e-06	-4.247798e-06	-5.669188e-09	-2.944529e+01	-3.712135e+02
2.840000e-06	-4.349258e-06	-5.807476e-09	-3.014861e+01	-3.802299e+02
2.850000e-06	-4.449115e-06	-5.938210e-09	-3.084080e+01	-3.888050e+02
2.860000e-06	-4.547401e-06	-6.062348e-09	-3.152211e+01	-3.969447e+02
2.870000e-06	-4.644259e-06	-6.180877e-09	-3.219352e+01	-4.046590e+02
2.880000e-06	-4.739479e-06	-6.293330e-09	-3.285357e+01	-4.119635e+02
2.890000e-06	-4.832899e-06	-6.400330e-09	-3.350115e+01	-4.188796e+02
2.900000e-06	-4.924672e-06	-6.502411e-09	-3.413731e+01	-4.254336e+02
2.910000e-06	-5.014715e-06	-6.598246e-09	-3.476148e+01	-4.316552e+02
2.920000e-06	-5.102959e-06	-6.689117e-09	-3.537318e+01	-4.375759e+02
2.930000e-06	-5.189270e-06	-6.775283e-09	-3.597147e+01	-4.432264e+02
2.940000e-06	-5.273617e-06	-6.856084e-09	-3.655616e+01	-4.486345e+02
