# Temperatura_=_63.76
# Concentracion g/m^3_=_15000.0
# C_Vs_to_Am_M_A/Vsm_=_65563218390.804596
# pendiente_HvsI_1/m_=_3716.3
# ordenada_HvsI_A/m_=_1297.0
# frecuencia_Hz_=_301894.15179257485

Tiempo_(s)	Campo_(V.s)	Magnetizacion_(V.s)	Campo_(kA/m)	Magnetizacion_(A/m)
0.000000e+00	-6.853690e-06	-9.478631e-09	-4.750217e+01	-6.196993e+02
1.000000e-08	-6.850992e-06	-9.475567e-09	-4.748347e+01	-6.194715e+02
2.000000e-08	-6.846010e-06	-9.473264e-09	-4.744894e+01	-6.191112e+02
3.000000e-08	-6.838938e-06	-9.467803e-09	-4.739992e+01	-6.186196e+02
4.000000e-08	-6.829614e-06	-9.460237e-09	-4.733530e+01	-6.180014e+02
5.000000e-08	-6.817820e-06	-9.451780e-09	-4.725356e+01	-6.172649e+02
6.000000e-08	-6.803456e-06	-9.440118e-09	-4.715400e+01	-6.164213e+02
7.000000e-08	-6.786670e-06	-9.427123e-09	-4.703766e+01	-6.154841e+02
8.000000e-08	-6.767746e-06	-9.409545e-09	-4.690650e+01	-6.144680e+02
9.000000e-08	-6.746567e-06	-9.388917e-09	-4.675971e+01	-6.133871e+02
1.000000e-07	-6.722641e-06	-9.387626e-09	-4.659388e+01	-6.122541e+02
1.100000e-07	-6.695895e-06	-9.367943e-09	-4.640851e+01	-6.110783e+02
1.200000e-07	-6.666714e-06	-9.332746e-09	-4.620626e+01	-6.098650e+02
1.300000e-07	-6.635496e-06	-9.319237e-09	-4.598989e+01	-6.086145e+02
1.400000e-07	-6.602382e-06	-9.300562e-09	-4.576038e+01	-6.073218e+02
1.500000e-07	-6.567357e-06	-9.214797e-09	-4.551763e+01	-6.059768e+02
1.600000e-07	-6.530290e-06	-9.229780e-09	-4.526072e+01	-6.045650e+02
1.700000e-07	-6.491137e-06	-9.220251e-09	-4.498936e+01	-6.030684e+02
1.800000e-07	-6.449677e-06	-9.132254e-09	-4.470200e+01	-6.014671e+02
1.900000e-07	-6.405648e-06	-9.160151e-09	-4.439684e+01	-5.997406e+02
2.000000e-07	-6.359300e-06	-9.123450e-09	-4.407561e+01	-5.978699e+02
2.100000e-07	-6.310473e-06	-9.111694e-09	-4.373719e+01	-5.958383e+02
2.200000e-07	-6.258973e-06	-9.120336e-09	-4.338025e+01	-5.936333e+02
2.300000e-07	-6.204965e-06	-9.039582e-09	-4.300593e+01	-5.912470e+02
2.400000e-07	-6.148535e-06	-8.964889e-09	-4.261481e+01	-5.886771e+02
2.500000e-07	-6.089798e-06	-8.901706e-09	-4.220772e+01	-5.859259e+02
2.600000e-07	-6.028885e-06	-8.864488e-09	-4.178554e+01	-5.830008e+02
2.700000e-07	-5.965808e-06	-8.840226e-09	-4.134836e+01	-5.799126e+02
2.800000e-07	-5.900465e-06	-8.801283e-09	-4.089547e+01	-5.766743e+02
2.900000e-07	-5.832856e-06	-8.733180e-09	-4.042688e+01	-5.733001e+02
3.000000e-07	-5.763089e-06	-8.643963e-09	-3.994333e+01	-5.698032e+02
3.100000e-07	-5.691243e-06	-8.622408e-09	-3.944538e+01	-5.661951e+02
3.200000e-07	-5.617180e-06	-8.587914e-09	-3.893205e+01	-5.624841e+02
3.300000e-07	-5.540806e-06	-8.521618e-09	-3.840271e+01	-5.586743e+02
3.400000e-07	-5.462199e-06	-8.463633e-09	-3.785790e+01	-5.547661e+02
3.500000e-07	-5.381434e-06	-8.393833e-09	-3.729812e+01	-5.507556e+02
3.600000e-07	-5.298787e-06	-8.336517e-09	-3.672531e+01	-5.466354e+02
3.700000e-07	-5.214430e-06	-8.277218e-09	-3.614064e+01	-5.423958e+02
3.800000e-07	-5.128368e-06	-8.216742e-09	-3.554415e+01	-5.380259e+02
3.900000e-07	-5.040608e-06	-8.128035e-09	-3.493590e+01	-5.335145e+02
4.000000e-07	-4.950953e-06	-8.035638e-09	-3.431451e+01	-5.288518e+02
4.100000e-07	-4.859436e-06	-7.967953e-09	-3.368022e+01	-5.240304e+02
4.200000e-07	-4.766319e-06	-7.911484e-09	-3.303483e+01	-5.190454e+02
4.300000e-07	-4.671633e-06	-7.841777e-09	-3.237857e+01	-5.138953e+02
4.400000e-07	-4.575266e-06	-7.745721e-09	-3.171066e+01	-5.085816e+02
4.500000e-07	-4.477117e-06	-7.648626e-09	-3.103040e+01	-5.031078e+02
4.600000e-07	-4.377347e-06	-7.562192e-09	-3.033891e+01	-4.974792e+02
4.700000e-07	-4.276123e-06	-7.485608e-09	-2.963733e+01	-4.917011e+02
4.800000e-07	-4.173429e-06	-7.408694e-09	-2.892558e+01	-4.857780e+02
4.900000e-07	-4.069295e-06	-7.318769e-09	-2.820384e+01	-4.797124e+02
5.000000e-07	-3.963614e-06	-7.208052e-09	-2.747137e+01	-4.735042e+02
5.100000e-07	-3.856328e-06	-7.100881e-09	-2.672779e+01	-4.671497e+02
5.200000e-07	-3.747676e-06	-7.007511e-09	-2.597473e+01	-4.606427e+02
5.300000e-07	-3.637769e-06	-6.910012e-09	-2.521298e+01	-4.539738e+02
5.400000e-07	-3.526600e-06	-6.800025e-09	-2.444247e+01	-4.471321e+02
5.500000e-07	-3.414010e-06	-6.684025e-09	-2.366213e+01	-4.401061e+02
5.600000e-07	-3.299916e-06	-6.569899e-09	-2.287136e+01	-4.328849e+02
5.700000e-07	-3.184397e-06	-6.461290e-09	-2.207070e+01	-4.254592e+02
5.800000e-07	-3.067577e-06	-6.356868e-09	-2.126103e+01	-4.178225e+02
5.900000e-07	-2.949589e-06	-6.241707e-09	-2.044328e+01	-4.099715e+02
6.000000e-07	-2.830605e-06	-6.111607e-09	-1.961861e+01	-4.019057e+02
6.100000e-07	-2.710692e-06	-5.975334e-09	-1.878751e+01	-3.936276e+02
6.200000e-07	-2.589705e-06	-5.846252e-09	-1.794896e+01	-3.851412e+02
6.300000e-07	-2.467641e-06	-5.718700e-09	-1.710295e+01	-3.764506e+02
6.400000e-07	-2.344638e-06	-5.582269e-09	-1.625043e+01	-3.675592e+02
6.500000e-07	-2.220800e-06	-5.438225e-09	-1.539212e+01	-3.584673e+02
6.600000e-07	-2.096169e-06	-5.289971e-09	-1.452831e+01	-3.491718e+02
6.700000e-07	-1.970861e-06	-5.142947e-09	-1.365982e+01	-3.396653e+02
6.800000e-07	-1.844957e-06	-4.998212e-09	-1.278719e+01	-3.299356e+02
6.900000e-07	-1.718438e-06	-4.851435e-09	-1.191031e+01	-3.199670e+02
7.000000e-07	-1.591353e-06	-4.693984e-09	-1.102949e+01	-3.097407e+02
7.100000e-07	-1.463732e-06	-4.528106e-09	-1.014497e+01	-2.992368e+02
7.200000e-07	-1.335538e-06	-4.360399e-09	-9.256468e+00	-2.884360e+02
7.300000e-07	-1.206858e-06	-4.193679e-09	-8.364598e+00	-2.773211e+02
7.400000e-07	-1.077784e-06	-4.022360e-09	-7.470005e+00	-2.658787e+02
7.500000e-07	-9.483170e-07	-3.842431e-09	-6.572680e+00	-2.541000e+02
7.600000e-07	-8.184822e-07	-3.654658e-09	-5.672810e+00	-2.419803e+02
7.700000e-07	-6.883833e-07	-3.461579e-09	-4.771109e+00	-2.295189e+02
7.800000e-07	-5.581133e-07	-3.268087e-09	-3.868222e+00	-2.167169e+02
7.900000e-07	-4.276700e-07	-3.073646e-09	-2.964134e+00	-2.035751e+02
8.000000e-07	-2.971301e-07	-2.872322e-09	-2.059376e+00	-1.900911e+02
8.100000e-07	-1.664987e-07	-2.659139e-09	-1.153984e+00	-1.762573e+02
8.200000e-07	-3.568966e-08	-2.438901e-09	-2.473611e-01	-1.620578e+02
8.300000e-07	9.516633e-08	-2.217602e-09	6.595873e-01	-1.474674e+02
8.400000e-07	2.259855e-07	-1.991764e-09	1.566280e+00	-1.324518e+02
8.500000e-07	3.567483e-07	-1.755803e-09	2.472583e+00	-1.169679e+02
8.600000e-07	4.874301e-07	-1.510077e-09	3.378324e+00	-1.009674e+02
8.700000e-07	6.179947e-07	-1.256226e-09	4.283253e+00	-8.440006e+01
8.800000e-07	7.484374e-07	-9.937108e-10	5.187337e+00	-6.721954e+01
8.900000e-07	8.786808e-07	-7.223074e-10	6.090040e+00	-4.938878e+01
9.000000e-07	1.008639e-06	-4.432865e-10	6.990764e+00	-3.088608e+01
9.100000e-07	1.138247e-06	-1.541531e-10	7.889067e+00	-1.171056e+01
9.200000e-07	1.267368e-06	1.468037e-10	8.783987e+00	8.113605e+00
9.300000e-07	1.395981e-06	4.543205e-10	9.675388e+00	2.853448e+01
9.400000e-07	1.524025e-06	7.670836e-10	1.056285e+01	4.947169e+01
9.500000e-07	1.651478e-06	1.089742e-09	1.144621e+01	7.081802e+01
9.600000e-07	1.778383e-06	1.422178e-09	1.232577e+01	9.244314e+01
9.700000e-07	1.904658e-06	1.760445e-09	1.320097e+01	1.141993e+02
9.800000e-07	2.030248e-06	2.095942e-09	1.407143e+01	1.359283e+02
9.900000e-07	2.155208e-06	2.428565e-09	1.493751e+01	1.574702e+02
1.000000e-06	2.279399e-06	2.755513e-09	1.579827e+01	1.786705e+02
1.010000e-06	2.402699e-06	3.070990e-09	1.665284e+01	1.993890e+02
1.020000e-06	2.525165e-06	3.373928e-09	1.750164e+01	2.195055e+02
1.030000e-06	2.646673e-06	3.662084e-09	1.834380e+01	2.389253e+02
1.040000e-06	2.767047e-06	3.939139e-09	1.917810e+01	2.575813e+02
1.050000e-06	2.886335e-06	4.205820e-09	2.000487e+01	2.754351e+02
1.060000e-06	3.004624e-06	4.461898e-09	2.082472e+01	2.924755e+02
1.070000e-06	3.121924e-06	4.708798e-09	2.163771e+01	3.087144e+02
1.080000e-06	3.238098e-06	4.944135e-09	2.244290e+01	3.241829e+02
1.090000e-06	3.353009e-06	5.168247e-09	2.323933e+01	3.389248e+02
1.100000e-06	3.466558e-06	5.381880e-09	2.402633e+01	3.529916e+02
1.110000e-06	3.578660e-06	5.586865e-09	2.480330e+01	3.664362e+02
1.120000e-06	3.689432e-06	5.783570e-09	2.557104e+01	3.793085e+02
1.130000e-06	3.799044e-06	5.970532e-09	2.633076e+01	3.916521e+02
1.140000e-06	3.907451e-06	6.150147e-09	2.708211e+01	4.035019e+02
1.150000e-06	4.014554e-06	6.323178e-09	2.782443e+01	4.148837e+02
1.160000e-06	4.120254e-06	6.488912e-09	2.855703e+01	4.258144e+02
1.170000e-06	4.224353e-06	6.647734e-09	2.927853e+01	4.363042e+02
1.180000e-06	4.326844e-06	6.799636e-09	2.998888e+01	4.463583e+02
1.190000e-06	4.427861e-06	6.946277e-09	3.068901e+01	4.559801e+02
1.200000e-06	4.527380e-06	7.087051e-09	3.137877e+01	4.651728e+02
1.210000e-06	4.625260e-06	7.220556e-09	3.205717e+01	4.739424e+02
1.220000e-06	4.721328e-06	7.347282e-09	3.272300e+01	4.822983e+02
1.230000e-06	4.815628e-06	7.466943e-09	3.337659e+01	4.902545e+02
1.240000e-06	4.908296e-06	7.582169e-09	3.401886e+01	4.978288e+02
1.250000e-06	4.999363e-06	7.693068e-09	3.465003e+01	5.050429e+02
1.260000e-06	5.088636e-06	7.799554e-09	3.526877e+01	5.119204e+02
1.270000e-06	5.175965e-06	7.901158e-09	3.587405e+01	5.184856e+02
1.280000e-06	5.261479e-06	7.997278e-09	3.646673e+01	5.247623e+02
1.290000e-06	5.345196e-06	8.087361e-09	3.704696e+01	5.307719e+02
1.300000e-06	5.426994e-06	8.171938e-09	3.761389e+01	5.365331e+02
1.310000e-06	5.506753e-06	8.253004e-09	3.816670e+01	5.420611e+02
1.320000e-06	5.584475e-06	8.330437e-09	3.870538e+01	5.473676e+02
1.330000e-06	5.660116e-06	8.404075e-09	3.922964e+01	5.524613e+02
1.340000e-06	5.733555e-06	8.477314e-09	3.973863e+01	5.573483e+02
1.350000e-06	5.804825e-06	8.550648e-09	4.023260e+01	5.620332e+02
1.360000e-06	5.874058e-06	8.621024e-09	4.071245e+01	5.665198e+02
1.370000e-06	5.941262e-06	8.686911e-09	4.117823e+01	5.708116e+02
1.380000e-06	6.006292e-06	8.748458e-09	4.162895e+01	5.749124e+02
1.390000e-06	6.069149e-06	8.808032e-09	4.206460e+01	5.788263e+02
1.400000e-06	6.130019e-06	8.866126e-09	4.248648e+01	5.825575e+02
1.410000e-06	6.188865e-06	8.921146e-09	4.289434e+01	5.861104e+02
1.420000e-06	6.245470e-06	8.971925e-09	4.328666e+01	5.894886e+02
1.430000e-06	6.299808e-06	9.018565e-09	4.366328e+01	5.926951e+02
1.440000e-06	6.351729e-06	9.063007e-09	4.402313e+01	5.957314e+02
1.450000e-06	6.401034e-06	9.105623e-09	4.436486e+01	5.985977e+02
1.460000e-06	6.447888e-06	9.145704e-09	4.468960e+01	6.012932e+02
1.470000e-06	6.492516e-06	9.183285e-09	4.499891e+01	6.038161e+02
1.480000e-06	6.534937e-06	9.218200e-09	4.529293e+01	6.061642e+02
1.490000e-06	6.574957e-06	9.251413e-09	4.557030e+01	6.083360e+02
1.500000e-06	6.612642e-06	9.281775e-09	4.583149e+01	6.103308e+02
1.510000e-06	6.648145e-06	9.308553e-09	4.607756e+01	6.121499e+02
1.520000e-06	6.681273e-06	9.332421e-09	4.630717e+01	6.137965e+02
1.530000e-06	6.711978e-06	9.353234e-09	4.651998e+01	6.152762e+02
1.540000e-06	6.740455e-06	9.372182e-09	4.671735e+01	6.165965e+02
1.550000e-06	6.766504e-06	9.389171e-09	4.689789e+01	6.177666e+02
1.560000e-06	6.789975e-06	9.404464e-09	4.706057e+01	6.187965e+02
1.570000e-06	6.811078e-06	9.418444e-09	4.720683e+01	6.196958e+02
1.580000e-06	6.829866e-06	9.431900e-09	4.733705e+01	6.204735e+02
1.590000e-06	6.846149e-06	9.443862e-09	4.744991e+01	6.211366e+02
1.600000e-06	6.859814e-06	9.451975e-09	4.754461e+01	6.216893e+02
1.610000e-06	6.870859e-06	9.456546e-09	4.762116e+01	6.221335e+02
1.620000e-06	6.879242e-06	9.459902e-09	4.767926e+01	6.224679e+02
1.630000e-06	6.885091e-06	9.462875e-09	4.771981e+01	6.226893e+02
1.640000e-06	6.888550e-06	9.465323e-09	4.774378e+01	6.227926e+02
1.650000e-06	6.889556e-06	9.465461e-09	4.775075e+01	6.227724e+02
1.660000e-06	6.888151e-06	9.464278e-09	4.774102e+01	6.226237e+02
1.670000e-06	6.884605e-06	9.461254e-09	4.771644e+01	6.223432e+02
1.680000e-06	6.878789e-06	9.455202e-09	4.767613e+01	6.219302e+02
1.690000e-06	6.870667e-06	9.446576e-09	4.761984e+01	6.213874e+02
1.700000e-06	6.860394e-06	9.436090e-09	4.754863e+01	6.207209e+02
1.710000e-06	6.847770e-06	9.425558e-09	4.746114e+01	6.199401e+02
1.720000e-06	6.832721e-06	9.411157e-09	4.735684e+01	6.190574e+02
1.730000e-06	6.815536e-06	9.395124e-09	4.723773e+01	6.180868e+02
1.740000e-06	6.796152e-06	9.382832e-09	4.710338e+01	6.170429e+02
1.750000e-06	6.773710e-06	9.346429e-09	4.694783e+01	6.159394e+02
1.760000e-06	6.747919e-06	9.328302e-09	4.676908e+01	6.147880e+02
1.770000e-06	6.719486e-06	9.323027e-09	4.657201e+01	6.135964e+02
1.780000e-06	6.688988e-06	9.276190e-09	4.636064e+01	6.123680e+02
1.790000e-06	6.656880e-06	9.288744e-09	4.613810e+01	6.111011e+02
1.800000e-06	6.623281e-06	9.319627e-09	4.590523e+01	6.097886e+02
1.810000e-06	6.587463e-06	9.230660e-09	4.565698e+01	6.084186e+02
1.820000e-06	6.549116e-06	9.263308e-09	4.539120e+01	6.069751e+02
1.830000e-06	6.508620e-06	9.256986e-09	4.511053e+01	6.054391e+02
1.840000e-06	6.465908e-06	9.186060e-09	4.481450e+01	6.037904e+02
1.850000e-06	6.420976e-06	9.210324e-09	4.450308e+01	6.020087e+02
1.860000e-06	6.373695e-06	9.117738e-09	4.417537e+01	6.000758e+02
1.870000e-06	6.323994e-06	9.080000e-09	4.383090e+01	5.979767e+02
1.880000e-06	6.272051e-06	9.065032e-09	4.347089e+01	5.957004e+02
1.890000e-06	6.217413e-06	9.052195e-09	4.309220e+01	5.932413e+02
1.900000e-06	6.160245e-06	9.073163e-09	4.269598e+01	5.905989e+02
1.910000e-06	6.100867e-06	8.978309e-09	4.228444e+01	5.877776e+02
1.920000e-06	6.039088e-06	8.909917e-09	4.185625e+01	5.847862e+02
1.930000e-06	5.975110e-06	8.853390e-09	4.141283e+01	5.816367e+02
1.940000e-06	5.909023e-06	8.822245e-09	4.095478e+01	5.783427e+02
1.950000e-06	5.840858e-06	8.810202e-09	4.048235e+01	5.749180e+02
1.960000e-06	5.770334e-06	8.726200e-09	3.999355e+01	5.713756e+02
1.970000e-06	5.697398e-06	8.683476e-09	3.948804e+01	5.677256e+02
1.980000e-06	5.622385e-06	8.590737e-09	3.896813e+01	5.639748e+02
1.990000e-06	5.545080e-06	8.531804e-09	3.843234e+01	5.601259e+02
2.000000e-06	5.465623e-06	8.500840e-09	3.788163e+01	5.561774e+02
2.010000e-06	5.384248e-06	8.433364e-09	3.731763e+01	5.521241e+02
2.020000e-06	5.301110e-06	8.371267e-09	3.674141e+01	5.479576e+02
2.030000e-06	5.216192e-06	8.286280e-09	3.615285e+01	5.436674e+02
2.040000e-06	5.129208e-06	8.237515e-09	3.554998e+01	5.392425e+02
2.050000e-06	5.040332e-06	8.163768e-09	3.493399e+01	5.346720e+02
2.060000e-06	4.949859e-06	8.089753e-09	3.430693e+01	5.299471e+02
2.070000e-06	4.857809e-06	8.015075e-09	3.366894e+01	5.250611e+02
2.080000e-06	4.764017e-06	7.928838e-09	3.301887e+01	5.200105e+02
2.090000e-06	4.668445e-06	7.857793e-09	3.235648e+01	5.147951e+02
2.100000e-06	4.571223e-06	7.784150e-09	3.168264e+01	5.094173e+02
2.110000e-06	4.472553e-06	7.721097e-09	3.099877e+01	5.038813e+02
2.120000e-06	4.372394e-06	7.627456e-09	3.030458e+01	4.981927e+02
2.130000e-06	4.270528e-06	7.516255e-09	2.959856e+01	4.923565e+02
2.140000e-06	4.167019e-06	7.410249e-09	2.888115e+01	4.863766e+02
2.150000e-06	4.062012e-06	7.327842e-09	2.815336e+01	4.802544e+02
2.160000e-06	3.955641e-06	7.250430e-09	2.741611e+01	4.739886e+02
2.170000e-06	3.847950e-06	7.161688e-09	2.666972e+01	4.675745e+02
2.180000e-06	3.738920e-06	7.056836e-09	2.591404e+01	4.610043e+02
2.190000e-06	3.628433e-06	6.941729e-09	2.514827e+01	4.542682e+02
2.200000e-06	3.516485e-06	6.838863e-09	2.437237e+01	4.473548e+02
2.210000e-06	3.403207e-06	6.740284e-09	2.358725e+01	4.402527e+02
2.220000e-06	3.288600e-06	6.635444e-09	2.279293e+01	4.329514e+02
2.230000e-06	3.172614e-06	6.510547e-09	2.198904e+01	4.254427e+02
2.240000e-06	3.055233e-06	6.382211e-09	2.117548e+01	4.177214e+02
2.250000e-06	2.936651e-06	6.256638e-09	2.035360e+01	4.097851e+02
2.260000e-06	2.816976e-06	6.138233e-09	1.952415e+01	4.016348e+02
2.270000e-06	2.696193e-06	6.022285e-09	1.868702e+01	3.932737e+02
2.280000e-06	2.574437e-06	5.898331e-09	1.784314e+01	3.847059e+02
2.290000e-06	2.451842e-06	5.763201e-09	1.699344e+01	3.759354e+02
2.300000e-06	2.328513e-06	5.625507e-09	1.613867e+01	3.669646e+02
2.310000e-06	2.204463e-06	5.495667e-09	1.527889e+01	3.577927e+02
2.320000e-06	2.079564e-06	5.360864e-09	1.441323e+01	3.484148e+02
2.330000e-06	1.953816e-06	5.209931e-09	1.354168e+01	3.388215e+02
2.340000e-06	1.827354e-06	5.045755e-09	1.266519e+01	3.289994e+02
2.350000e-06	1.700305e-06	4.881888e-09	1.178463e+01	3.189312e+02
2.360000e-06	1.572745e-06	4.726008e-09	1.090052e+01	3.085975e+02
2.370000e-06	1.444652e-06	4.574720e-09	1.001272e+01	2.979784e+02
2.380000e-06	1.316022e-06	4.416266e-09	9.121206e+00	2.870554e+02
2.390000e-06	1.186937e-06	4.242105e-09	8.226532e+00	2.758125e+02
2.400000e-06	1.057485e-06	4.058595e-09	7.329309e+00	2.642381e+02
2.410000e-06	9.277384e-07	3.877758e-09	6.430052e+00	2.523251e+02
2.420000e-06	7.977083e-07	3.699300e-09	5.528828e+00	2.400704e+02
2.430000e-06	6.674694e-07	3.512648e-09	4.626157e+00	2.274743e+02
2.440000e-06	5.370964e-07	3.313004e-09	3.722556e+00	2.145381e+02
2.450000e-06	4.065657e-07	3.103431e-09	2.817862e+00	2.012617e+02
2.460000e-06	2.758703e-07	2.890674e-09	1.912026e+00	1.876409e+02
2.470000e-06	1.450679e-07	2.677328e-09	1.005449e+00	1.736651e+02
2.480000e-06	1.420766e-08	2.461104e-09	9.847169e-02	1.593149e+02
2.490000e-06	-1.167022e-07	2.238008e-09	-8.088501e-01	1.445614e+02
2.500000e-06	-2.476038e-07	2.002399e-09	-1.716114e+00	1.293666e+02
2.510000e-06	-3.784164e-07	1.756519e-09	-2.622762e+00	1.136850e+02
2.520000e-06	-5.091192e-07	1.507483e-09	-3.528649e+00	9.746700e+01
2.530000e-06	-6.396794e-07	1.253719e-09	-4.433547e+00	8.066324e+01
2.540000e-06	-7.700375e-07	9.885057e-10	-5.337045e+00	6.323026e+01
2.550000e-06	-9.001558e-07	7.078243e-10	-6.238880e+00	4.513637e+01
2.560000e-06	-1.030011e-06	4.165032e-10	-7.138894e+00	2.636745e+01
2.570000e-06	-1.159558e-06	1.237715e-10	-8.036771e+00	6.932020e+00
2.580000e-06	-1.288699e-06	-1.737854e-10	-8.931830e+00	-1.313504e+01
2.590000e-06	-1.417366e-06	-4.836880e-10	-9.823610e+00	-3.377059e+01
2.600000e-06	-1.545502e-06	-8.059097e-10	-1.071170e+01	-5.488340e+01
2.610000e-06	-1.673026e-06	-1.139581e-09	-1.159556e+01	-7.635661e+01
2.620000e-06	-1.799963e-06	-1.476451e-09	-1.247534e+01	-9.805226e+01
2.630000e-06	-1.926256e-06	-1.810500e-09	-1.335067e+01	-1.198176e+02
2.640000e-06	-2.051838e-06	-2.143283e-09	-1.422106e+01	-1.414928e+02
2.650000e-06	-2.176573e-06	-2.473613e-09	-1.508558e+01	-1.629189e+02
2.660000e-06	-2.300393e-06	-2.797764e-09	-1.594377e+01	-1.839464e+02
2.670000e-06	-2.423380e-06	-3.108692e-09	-1.679618e+01	-2.044421e+02
2.680000e-06	-2.545438e-06	-3.405498e-09	-1.764215e+01	-2.242954e+02
2.690000e-06	-2.666505e-06	-3.691966e-09	-1.848125e+01	-2.434222e+02
2.700000e-06	-2.786546e-06	-3.970085e-09	-1.931324e+01	-2.617668e+02
2.710000e-06	-2.905593e-06	-4.241543e-09	-2.013835e+01	-2.793018e+02
2.720000e-06	-3.023565e-06	-4.503461e-09	-2.095600e+01	-2.960254e+02
2.730000e-06	-3.140257e-06	-4.750849e-09	-2.176478e+01	-3.119578e+02
2.740000e-06	-3.255613e-06	-4.984521e-09	-2.256429e+01	-3.271357e+02
2.750000e-06	-3.369650e-06	-5.208580e-09	-2.335467e+01	-3.416068e+02
2.760000e-06	-3.482370e-06	-5.424638e-09	-2.413592e+01	-3.554236e+02
2.770000e-06	-3.593693e-06	-5.630972e-09	-2.490749e+01	-3.686384e+02
2.780000e-06	-3.703639e-06	-5.825375e-09	-2.566951e+01	-3.812990e+02
2.790000e-06	-3.812344e-06	-6.008574e-09	-2.642294e+01	-3.934456e+02
2.800000e-06	-3.919881e-06	-6.185789e-09	-2.716826e+01	-4.051097e+02
2.810000e-06	-4.026210e-06	-6.358205e-09	-2.790522e+01	-4.163134e+02
2.820000e-06	-4.131131e-06	-6.524578e-09	-2.863241e+01	-4.270707e+02
2.830000e-06	-4.234511e-06	-6.683200e-09	-2.934893e+01	-4.373896e+02
2.840000e-06	-4.336254e-06	-6.830604e-09	-3.005410e+01	-4.472742e+02
2.850000e-06	-4.436333e-06	-6.968772e-09	-3.074774e+01	-4.567276e+02
2.860000e-06	-4.534970e-06	-7.103478e-09	-3.143138e+01	-4.657539e+02
2.870000e-06	-4.632079e-06	-7.235437e-09	-3.210443e+01	-4.743604e+02
2.880000e-06	-4.727533e-06	-7.362254e-09	-3.276601e+01	-4.825580e+02
2.890000e-06	-4.821284e-06	-7.483653e-09	-3.341578e+01	-4.903625e+02
2.900000e-06	-4.913257e-06	-7.600367e-09	-3.405324e+01	-4.977933e+02
2.910000e-06	-5.003550e-06	-7.711491e-09	-3.467905e+01	-5.048730e+02
2.920000e-06	-5.092067e-06	-7.817207e-09	-3.529255e+01	-5.116256e+02
2.930000e-06	-5.178603e-06	-7.917648e-09	-3.589233e+01	-5.180754e+02
2.940000e-06	-5.263174e-06	-8.011730e-09	-3.647848e+01	-5.242454e+02
