# Temperatura_=_68.15
# Concentracion g/m^3_=_15000.0
# C_Vs_to_Am_M_A/Vsm_=_65563218390.804596
# pendiente_HvsI_1/m_=_3716.3
# ordenada_HvsI_A/m_=_1297.0
# frecuencia_Hz_=_301898.8102534929

Tiempo_(s)	Campo_(V.s)	Magnetizacion_(V.s)	Campo_(kA/m)	Magnetizacion_(A/m)
0.000000e+00	-6.866662e-06	-9.926604e-09	-4.749893e+01	-6.491705e+02
1.000000e-08	-6.863675e-06	-9.923350e-09	-4.747826e+01	-6.488873e+02
2.000000e-08	-6.858438e-06	-9.917942e-09	-4.744204e+01	-6.484648e+02
3.000000e-08	-6.851094e-06	-9.911575e-09	-4.739124e+01	-6.479069e+02
4.000000e-08	-6.841426e-06	-9.901838e-09	-4.732436e+01	-6.472207e+02
5.000000e-08	-6.829243e-06	-9.888821e-09	-4.724009e+01	-6.464166e+02
6.000000e-08	-6.814546e-06	-9.871765e-09	-4.713842e+01	-6.455070e+02
7.000000e-08	-6.797446e-06	-9.851965e-09	-4.702014e+01	-6.445054e+02
8.000000e-08	-6.778221e-06	-9.855088e-09	-4.688715e+01	-6.434257e+02
9.000000e-08	-6.756682e-06	-9.865155e-09	-4.673816e+01	-6.422803e+02
1.000000e-07	-6.732385e-06	-9.838595e-09	-4.657009e+01	-6.410793e+02
1.100000e-07	-6.705270e-06	-9.799864e-09	-4.638253e+01	-6.398295e+02
1.200000e-07	-6.675743e-06	-9.772749e-09	-4.617828e+01	-6.385338e+02
1.300000e-07	-6.644252e-06	-9.721201e-09	-4.596044e+01	-6.371908e+02
1.400000e-07	-6.610811e-06	-9.685256e-09	-4.572913e+01	-6.357946e+02
1.500000e-07	-6.575375e-06	-9.699239e-09	-4.548400e+01	-6.343352e+02
1.600000e-07	-6.537898e-06	-9.655849e-09	-4.522476e+01	-6.327994e+02
1.700000e-07	-6.498399e-06	-9.611046e-09	-4.495153e+01	-6.311712e+02
1.800000e-07	-6.456533e-06	-9.597300e-09	-4.466193e+01	-6.294333e+02
1.900000e-07	-6.412045e-06	-9.559711e-09	-4.435419e+01	-6.275677e+02
2.000000e-07	-6.365291e-06	-9.549367e-09	-4.403078e+01	-6.255574e+02
2.100000e-07	-6.316094e-06	-9.538312e-09	-4.369047e+01	-6.233871e+02
2.200000e-07	-6.264187e-06	-9.502760e-09	-4.333141e+01	-6.210446e+02
2.300000e-07	-6.209744e-06	-9.437483e-09	-4.295481e+01	-6.185210e+02
2.400000e-07	-6.152867e-06	-9.367324e-09	-4.256138e+01	-6.158116e+02
2.500000e-07	-6.093681e-06	-9.333246e-09	-4.215197e+01	-6.129162e+02
2.600000e-07	-6.032290e-06	-9.279766e-09	-4.172731e+01	-6.098383e+02
2.700000e-07	-5.968758e-06	-9.223094e-09	-4.128783e+01	-6.065854e+02
2.800000e-07	-5.902999e-06	-9.179586e-09	-4.083296e+01	-6.031677e+02
2.900000e-07	-5.834969e-06	-9.114911e-09	-4.036237e+01	-5.995971e+02
3.000000e-07	-5.764852e-06	-9.060292e-09	-3.987735e+01	-5.958862e+02
3.100000e-07	-5.692640e-06	-9.019019e-09	-3.937784e+01	-5.920467e+02
3.200000e-07	-5.618146e-06	-8.970526e-09	-3.886254e+01	-5.880885e+02
3.300000e-07	-5.541277e-06	-8.899825e-09	-3.833081e+01	-5.840187e+02
3.400000e-07	-5.462154e-06	-8.831481e-09	-3.778349e+01	-5.798405e+02
3.500000e-07	-5.380954e-06	-8.772092e-09	-3.722181e+01	-5.755535e+02
3.600000e-07	-5.297937e-06	-8.706420e-09	-3.664755e+01	-5.711534e+02
3.700000e-07	-5.213228e-06	-8.641740e-09	-3.606159e+01	-5.666325e+02
3.800000e-07	-5.126797e-06	-8.563468e-09	-3.546372e+01	-5.619811e+02
3.900000e-07	-5.038624e-06	-8.483088e-09	-3.485379e+01	-5.571883e+02
4.000000e-07	-4.948588e-06	-8.403342e-09	-3.423099e+01	-5.522432e+02
4.100000e-07	-4.856789e-06	-8.329083e-09	-3.359599e+01	-5.471366e+02
4.200000e-07	-4.763396e-06	-8.258102e-09	-3.294995e+01	-5.418616e+02
4.300000e-07	-4.668384e-06	-8.169281e-09	-3.229273e+01	-5.364143e+02
4.400000e-07	-4.571597e-06	-8.073495e-09	-3.162322e+01	-5.307942e+02
4.500000e-07	-4.473023e-06	-7.980196e-09	-3.094135e+01	-5.250039e+02
4.600000e-07	-4.372886e-06	-7.895576e-09	-3.024867e+01	-5.190482e+02
4.700000e-07	-4.271253e-06	-7.808922e-09	-2.954564e+01	-5.129328e+02
4.800000e-07	-4.168222e-06	-7.720627e-09	-2.883294e+01	-5.066635e+02
4.900000e-07	-4.063760e-06	-7.624974e-09	-2.811035e+01	-5.002445e+02
5.000000e-07	-3.957639e-06	-7.516233e-09	-2.737627e+01	-4.936772e+02
5.100000e-07	-3.849924e-06	-7.409632e-09	-2.663117e+01	-4.869596e+02
5.200000e-07	-3.740879e-06	-7.305725e-09	-2.587687e+01	-4.800861e+02
5.300000e-07	-3.630653e-06	-7.195811e-09	-2.511441e+01	-4.730473e+02
5.400000e-07	-3.519101e-06	-7.077637e-09	-2.434276e+01	-4.658313e+02
5.500000e-07	-3.406033e-06	-6.961490e-09	-2.356063e+01	-4.584247e+02
5.600000e-07	-3.291446e-06	-6.846719e-09	-2.276800e+01	-4.508141e+02
5.700000e-07	-3.175456e-06	-6.731452e-09	-2.196566e+01	-4.429874e+02
5.800000e-07	-3.058227e-06	-6.612502e-09	-2.115475e+01	-4.349354e+02
5.900000e-07	-2.939892e-06	-6.487980e-09	-2.033618e+01	-4.266529e+02
6.000000e-07	-2.820611e-06	-6.355936e-09	-1.951108e+01	-4.181382e+02
6.100000e-07	-2.700334e-06	-6.218581e-09	-1.867909e+01	-4.093935e+02
6.200000e-07	-2.578948e-06	-6.083534e-09	-1.783942e+01	-4.004238e+02
6.300000e-07	-2.456496e-06	-5.945079e-09	-1.699238e+01	-3.912351e+02
6.400000e-07	-2.333061e-06	-5.797873e-09	-1.613854e+01	-3.818329e+02
6.500000e-07	-2.208803e-06	-5.645328e-09	-1.527900e+01	-3.722203e+02
6.600000e-07	-2.083874e-06	-5.492211e-09	-1.441483e+01	-3.623963e+02
6.700000e-07	-1.958272e-06	-5.339822e-09	-1.354601e+01	-3.523550e+02
6.800000e-07	-1.832049e-06	-5.186733e-09	-1.267288e+01	-3.420847e+02
6.900000e-07	-1.705249e-06	-5.029441e-09	-1.179576e+01	-3.315691e+02
7.000000e-07	-1.577817e-06	-4.864377e-09	-1.091427e+01	-3.207878e+02
7.100000e-07	-1.449811e-06	-4.691991e-09	-1.002881e+01	-3.097182e+02
7.200000e-07	-1.321356e-06	-4.515228e-09	-9.140245e+00	-2.983381e+02
7.300000e-07	-1.192422e-06	-4.335596e-09	-8.248372e+00	-2.866276e+02
7.400000e-07	-1.063072e-06	-4.151949e-09	-7.353614e+00	-2.745710e+02
7.500000e-07	-9.333991e-07	-3.962677e-09	-6.456624e+00	-2.621577e+02
7.600000e-07	-8.033450e-07	-3.768993e-09	-5.556998e+00	-2.493832e+02
7.700000e-07	-6.729608e-07	-3.571185e-09	-4.655088e+00	-2.362473e+02
7.800000e-07	-5.423392e-07	-3.367742e-09	-3.751536e+00	-2.227532e+02
7.900000e-07	-4.115886e-07	-3.159542e-09	-2.847092e+00	-2.089040e+02
8.000000e-07	-2.806942e-07	-2.944271e-09	-1.941653e+00	-1.946998e+02
8.100000e-07	-1.496143e-07	-2.720630e-09	-1.034930e+00	-1.801344e+02
8.200000e-07	-1.841597e-08	-2.490031e-09	-1.273892e-01	-1.651926e+02
8.300000e-07	1.128182e-07	-2.254248e-09	7.804004e-01	-1.498481e+02
8.400000e-07	2.440288e-07	-2.013955e-09	1.688026e+00	-1.340635e+02
8.500000e-07	3.751714e-07	-1.766501e-09	2.595182e+00	-1.177913e+02
8.600000e-07	5.061912e-07	-1.512097e-09	3.501488e+00	-1.009773e+02
8.700000e-07	6.370020e-07	-1.247764e-09	4.406349e+00	-8.356512e+01
8.800000e-07	7.675835e-07	-9.727683e-10	5.309624e+00	-6.550250e+01
8.900000e-07	8.979451e-07	-6.896614e-10	6.211377e+00	-4.674813e+01
9.000000e-07	1.027989e-06	-3.953169e-10	7.110932e+00	-2.727851e+01
9.100000e-07	1.157662e-06	-8.861122e-11	8.007925e+00	-7.094172e+00
9.200000e-07	1.286933e-06	2.291818e-10	8.902133e+00	1.377557e+01
9.300000e-07	1.415716e-06	5.558323e-10	9.792969e+00	3.526982e+01
9.400000e-07	1.543984e-06	8.887213e-10	1.068024e+01	5.729588e+01
9.500000e-07	1.671678e-06	1.228824e-09	1.156354e+01	7.973156e+01
9.600000e-07	1.798719e-06	1.573945e-09	1.244232e+01	1.024301e+02
9.700000e-07	1.925097e-06	1.922612e-09	1.331652e+01	1.252270e+02
9.800000e-07	2.050825e-06	2.271498e-09	1.418622e+01	1.479491e+02
9.900000e-07	2.175892e-06	2.615534e-09	1.505135e+01	1.704232e+02
1.000000e-06	2.300223e-06	2.951689e-09	1.591139e+01	1.924863e+02
1.010000e-06	2.423763e-06	3.277214e-09	1.676596e+01	2.139931e+02
1.020000e-06	2.546401e-06	3.593312e-09	1.761428e+01	2.348233e+02
1.030000e-06	2.668023e-06	3.897638e-09	1.845558e+01	2.548860e+02
1.040000e-06	2.788545e-06	4.188899e-09	1.928927e+01	2.741218e+02
1.050000e-06	2.907996e-06	4.466056e-09	2.011555e+01	2.925022e+02
1.060000e-06	3.026482e-06	4.728345e-09	2.093516e+01	3.100272e+02
1.070000e-06	3.143910e-06	4.980396e-09	2.174745e+01	3.267199e+02
1.080000e-06	3.260171e-06	5.221634e-09	2.255166e+01	3.426212e+02
1.090000e-06	3.375135e-06	5.453118e-09	2.334690e+01	3.577831e+02
1.100000e-06	3.488663e-06	5.673807e-09	2.413221e+01	3.722620e+02
1.110000e-06	3.600786e-06	5.884813e-09	2.490781e+01	3.861135e+02
1.120000e-06	3.711624e-06	6.087304e-09	2.567450e+01	3.993876e+02
1.130000e-06	3.821266e-06	6.280899e-09	2.643293e+01	4.121261e+02
1.140000e-06	3.929694e-06	6.467002e-09	2.718297e+01	4.243609e+02
1.150000e-06	4.036830e-06	6.645092e-09	2.792406e+01	4.361149e+02
1.160000e-06	4.142483e-06	6.816100e-09	2.865490e+01	4.474027e+02
1.170000e-06	4.246550e-06	6.979954e-09	2.937477e+01	4.582332e+02
1.180000e-06	4.349112e-06	7.134591e-09	3.008422e+01	4.686123e+02
1.190000e-06	4.450189e-06	7.283290e-09	3.078340e+01	4.785453e+02
1.200000e-06	4.549704e-06	7.427047e-09	3.147177e+01	4.880393e+02
1.210000e-06	4.647499e-06	7.564774e-09	3.214826e+01	4.971045e+02
1.220000e-06	4.743501e-06	7.697724e-09	3.281234e+01	5.057549e+02
1.230000e-06	4.837815e-06	7.825091e-09	3.346473e+01	5.140081e+02
1.240000e-06	4.930507e-06	7.948771e-09	3.410591e+01	5.218847e+02
1.250000e-06	5.021503e-06	8.067114e-09	3.473536e+01	5.294072e+02
1.260000e-06	5.110649e-06	8.178019e-09	3.535202e+01	5.365978e+02
1.270000e-06	5.197899e-06	8.282709e-09	3.595555e+01	5.434781e+02
1.280000e-06	5.283346e-06	8.382124e-09	3.654662e+01	5.500669e+02
1.290000e-06	5.367008e-06	8.476079e-09	3.712533e+01	5.563805e+02
1.300000e-06	5.448714e-06	8.564079e-09	3.769052e+01	5.624319e+02
1.310000e-06	5.528323e-06	8.647815e-09	3.824120e+01	5.682315e+02
1.320000e-06	5.605937e-06	8.730797e-09	3.877808e+01	5.737876e+02
1.330000e-06	5.681503e-06	8.811488e-09	3.930080e+01	5.791072e+02
1.340000e-06	5.754850e-06	8.889677e-09	3.980817e+01	5.841971e+02
1.350000e-06	5.826039e-06	8.965114e-09	4.030060e+01	5.890645e+02
1.360000e-06	5.895170e-06	9.036822e-09	4.077881e+01	5.937175e+02
1.370000e-06	5.962254e-06	9.105482e-09	4.124284e+01	5.981651e+02
1.380000e-06	6.027157e-06	9.170654e-09	4.169180e+01	6.024166e+02
1.390000e-06	6.089896e-06	9.231808e-09	4.212578e+01	6.064817e+02
1.400000e-06	6.150547e-06	9.289208e-09	4.254533e+01	6.103686e+02
1.410000e-06	6.209064e-06	9.344312e-09	4.295011e+01	6.140842e+02
1.420000e-06	6.265387e-06	9.398888e-09	4.333972e+01	6.176327e+02
1.430000e-06	6.319513e-06	9.451525e-09	4.371412e+01	6.210155e+02
1.440000e-06	6.371240e-06	9.501670e-09	4.407193e+01	6.242310e+02
1.450000e-06	6.420355e-06	9.548749e-09	4.441168e+01	6.272750e+02
1.460000e-06	6.467054e-06	9.592515e-09	4.473471e+01	6.301416e+02
1.470000e-06	6.511533e-06	9.633860e-09	4.504238e+01	6.328242e+02
1.480000e-06	6.553680e-06	9.670715e-09	4.533393e+01	6.353165e+02
1.490000e-06	6.593355e-06	9.703219e-09	4.560838e+01	6.376140e+02
1.500000e-06	6.630781e-06	9.733249e-09	4.586726e+01	6.397150e+02
1.510000e-06	6.666058e-06	9.762242e-09	4.611129e+01	6.416207e+02
1.520000e-06	6.698923e-06	9.789173e-09	4.633862e+01	6.433361e+02
1.530000e-06	6.729382e-06	9.811381e-09	4.654932e+01	6.448693e+02
1.540000e-06	6.757574e-06	9.831304e-09	4.674433e+01	6.462312e+02
1.550000e-06	6.783288e-06	9.850526e-09	4.692220e+01	6.474339e+02
1.560000e-06	6.806448e-06	9.867538e-09	4.708240e+01	6.484900e+02
1.570000e-06	6.827236e-06	9.882694e-09	4.722621e+01	6.494112e+02
1.580000e-06	6.845663e-06	9.895608e-09	4.735367e+01	6.502068e+02
1.590000e-06	6.861582e-06	9.905032e-09	4.746378e+01	6.508834e+02
1.600000e-06	6.874942e-06	9.910713e-09	4.755620e+01	6.514444e+02
1.610000e-06	6.885589e-06	9.915149e-09	4.762985e+01	6.518897e+02
1.620000e-06	6.893562e-06	9.920402e-09	4.768500e+01	6.522164e+02
1.630000e-06	6.899136e-06	9.925563e-09	4.772356e+01	6.524196e+02
1.640000e-06	6.902330e-06	9.928976e-09	4.774565e+01	6.524936e+02
1.650000e-06	6.903067e-06	9.930783e-09	4.775075e+01	6.524329e+02
1.660000e-06	6.901451e-06	9.926537e-09	4.773957e+01	6.522337e+02
1.670000e-06	6.897700e-06	9.919955e-09	4.771363e+01	6.518946e+02
1.680000e-06	6.891606e-06	9.911699e-09	4.767148e+01	6.514173e+02
1.690000e-06	6.883151e-06	9.902007e-09	4.761299e+01	6.508070e+02
1.700000e-06	6.872517e-06	9.892460e-09	4.753943e+01	6.500723e+02
1.710000e-06	6.859532e-06	9.883049e-09	4.744960e+01	6.492242e+02
1.720000e-06	6.844175e-06	9.880063e-09	4.734338e+01	6.482758e+02
1.730000e-06	6.826646e-06	9.844810e-09	4.722213e+01	6.472410e+02
1.740000e-06	6.806849e-06	9.795699e-09	4.708518e+01	6.461332e+02
1.750000e-06	6.783956e-06	9.785975e-09	4.692682e+01	6.449639e+02
1.760000e-06	6.757764e-06	9.775418e-09	4.674565e+01	6.437422e+02
1.770000e-06	6.728990e-06	9.759812e-09	4.654660e+01	6.424734e+02
1.780000e-06	6.698128e-06	9.781463e-09	4.633312e+01	6.411586e+02
1.790000e-06	6.665762e-06	9.742576e-09	4.610923e+01	6.397947e+02
1.800000e-06	6.631891e-06	9.699203e-09	4.587494e+01	6.383741e+02
1.810000e-06	6.595615e-06	9.699084e-09	4.562401e+01	6.368855e+02
1.820000e-06	6.556797e-06	9.669758e-09	4.535549e+01	6.353145e+02
1.830000e-06	6.515894e-06	9.692194e-09	4.507255e+01	6.336443e+02
1.840000e-06	6.472842e-06	9.664935e-09	4.477475e+01	6.318574e+02
1.850000e-06	6.427553e-06	9.584932e-09	4.446147e+01	6.299360e+02
1.860000e-06	6.379869e-06	9.568150e-09	4.413162e+01	6.278636e+02
1.870000e-06	6.329794e-06	9.503646e-09	4.378523e+01	6.256260e+02
1.880000e-06	6.277377e-06	9.492686e-09	4.342265e+01	6.232122e+02
1.890000e-06	6.222232e-06	9.496530e-09	4.304119e+01	6.206150e+02
1.900000e-06	6.164606e-06	9.429337e-09	4.264258e+01	6.178314e+02
1.910000e-06	6.104758e-06	9.410967e-09	4.222859e+01	6.148627e+02
1.920000e-06	6.042478e-06	9.323307e-09	4.179778e+01	6.117141e+02
1.930000e-06	5.977992e-06	9.274499e-09	4.135171e+01	6.083942e+02
1.940000e-06	5.911424e-06	9.257427e-09	4.089124e+01	6.049140e+02
1.950000e-06	5.842746e-06	9.180156e-09	4.041617e+01	6.012858e+02
1.960000e-06	5.771678e-06	9.129864e-09	3.992457e+01	5.975221e+02
1.970000e-06	5.698330e-06	9.050085e-09	3.941720e+01	5.936340e+02
1.980000e-06	5.622982e-06	9.002893e-09	3.889599e+01	5.896304e+02
1.990000e-06	5.545305e-06	8.942476e-09	3.835867e+01	5.855169e+02
2.000000e-06	5.465474e-06	8.873991e-09	3.780646e+01	5.812953e+02
2.010000e-06	5.383764e-06	8.817959e-09	3.724124e+01	5.769636e+02
2.020000e-06	5.300290e-06	8.727742e-09	3.666383e+01	5.725161e+02
2.030000e-06	5.214887e-06	8.668147e-09	3.607307e+01	5.679443e+02
2.040000e-06	5.127379e-06	8.597426e-09	3.546774e+01	5.632378e+02
2.050000e-06	5.038077e-06	8.532594e-09	3.485001e+01	5.583854e+02
2.060000e-06	4.947217e-06	8.446606e-09	3.422151e+01	5.533770e+02
2.070000e-06	4.854794e-06	8.358374e-09	3.358218e+01	5.482039e+02
2.080000e-06	4.760515e-06	8.285377e-09	3.293003e+01	5.428605e+02
2.090000e-06	4.664431e-06	8.205706e-09	3.226538e+01	5.373443e+02
2.100000e-06	4.566810e-06	8.129881e-09	3.159010e+01	5.316560e+02
2.110000e-06	4.467761e-06	8.036847e-09	3.090495e+01	5.257991e+02
2.120000e-06	4.367222e-06	7.947200e-09	3.020949e+01	5.197790e+02
2.130000e-06	4.264977e-06	7.840341e-09	2.950223e+01	5.136016e+02
2.140000e-06	4.161025e-06	7.743809e-09	2.878316e+01	5.072721e+02
2.150000e-06	4.055561e-06	7.652861e-09	2.805363e+01	5.007939e+02
2.160000e-06	3.948824e-06	7.556906e-09	2.731530e+01	4.941671e+02
2.170000e-06	3.840771e-06	7.455725e-09	2.656786e+01	4.873882e+02
2.180000e-06	3.731289e-06	7.346432e-09	2.581054e+01	4.804501e+02
2.190000e-06	3.620364e-06	7.237341e-09	2.504323e+01	4.733423e+02
2.200000e-06	3.508033e-06	7.125842e-09	2.426620e+01	4.660521e+02
2.210000e-06	3.394339e-06	7.017428e-09	2.347975e+01	4.585660e+02
2.220000e-06	3.279379e-06	6.898557e-09	2.268453e+01	4.508708e+02
2.230000e-06	3.163011e-06	6.774286e-09	2.187957e+01	4.429556e+02
2.240000e-06	3.045185e-06	6.644995e-09	2.106454e+01	4.348125e+02
2.250000e-06	2.926144e-06	6.519751e-09	2.024109e+01	4.264378e+02
2.260000e-06	2.806025e-06	6.392522e-09	1.941018e+01	4.178314e+02
2.270000e-06	2.684922e-06	6.261853e-09	1.857248e+01	4.089967e+02
2.280000e-06	2.562886e-06	6.127396e-09	1.772832e+01	3.999392e+02
2.290000e-06	2.440020e-06	5.988092e-09	1.687841e+01	3.906652e+02
2.300000e-06	2.316392e-06	5.846878e-09	1.602324e+01	3.811792e+02
2.310000e-06	2.192042e-06	5.703397e-09	1.516307e+01	3.714830e+02
2.320000e-06	2.066836e-06	5.555684e-09	1.429697e+01	3.615737e+02
2.330000e-06	1.940766e-06	5.395352e-09	1.342491e+01	3.514432e+02
2.340000e-06	1.813983e-06	5.228342e-09	1.254791e+01	3.410778e+02
2.350000e-06	1.686567e-06	5.060635e-09	1.166653e+01	3.304594e+02
2.360000e-06	1.558587e-06	4.897350e-09	1.078125e+01	3.195666e+02
2.370000e-06	1.430137e-06	4.732668e-09	9.892722e+00	3.083767e+02
2.380000e-06	1.301279e-06	4.560221e-09	9.001367e+00	2.968681e+02
2.390000e-06	1.171987e-06	4.379415e-09	8.107017e+00	2.850222e+02
2.400000e-06	1.042299e-06	4.191585e-09	7.209922e+00	2.728255e+02
2.410000e-06	9.122606e-07	4.001091e-09	6.310403e+00	2.602696e+02
2.420000e-06	7.819520e-07	3.807275e-09	5.409016e+00	2.473520e+02
2.430000e-06	6.514448e-07	3.606980e-09	4.506255e+00	2.340740e+02
2.440000e-06	5.207791e-07	3.398367e-09	3.602398e+00	2.204392e+02
2.450000e-06	3.899619e-07	3.181059e-09	2.697493e+00	2.064498e+02
2.460000e-06	2.589907e-07	2.959058e-09	1.791523e+00	1.921039e+02
2.470000e-06	1.279081e-07	2.733207e-09	8.847817e-01	1.773921e+02
2.480000e-06	-3.245987e-09	2.501534e-09	-2.245354e-02	1.622950e+02
2.490000e-06	-1.344086e-07	2.262907e-09	-9.297480e-01	1.467817e+02
2.500000e-06	-2.655130e-07	2.015228e-09	-1.836639e+00	1.308108e+02
2.510000e-06	-3.965104e-07	1.760387e-09	-2.742791e+00	1.143315e+02
2.520000e-06	-5.273863e-07	1.499919e-09	-3.648102e+00	9.728817e+01
2.530000e-06	-6.581241e-07	1.231447e-09	-4.552458e+00	7.962529e+01
2.540000e-06	-7.886985e-07	9.525217e-10	-5.455683e+00	6.129406e+01
2.550000e-06	-9.190434e-07	6.618855e-10	-6.357321e+00	4.225936e+01
2.560000e-06	-1.049045e-06	3.610192e-10	-7.256585e+00	2.250645e+01
2.570000e-06	-1.178709e-06	5.253207e-11	-8.153514e+00	2.046701e+00
2.580000e-06	-1.308014e-06	-2.663753e-10	-9.047960e+00	-1.907837e+01
2.590000e-06	-1.436890e-06	-5.987839e-10	-9.939434e+00	-4.079525e+01
2.600000e-06	-1.565269e-06	-9.414837e-10	-1.082747e+01	-6.299925e+01
2.610000e-06	-1.693061e-06	-1.290996e-09	-1.171145e+01	-8.555777e+01
2.620000e-06	-1.820261e-06	-1.644162e-09	-1.259133e+01	-1.083162e+02
2.630000e-06	-1.946753e-06	-1.996388e-09	-1.346632e+01	-1.311055e+02
2.640000e-06	-2.072374e-06	-2.345027e-09	-1.433528e+01	-1.537514e+02
2.650000e-06	-2.197116e-06	-2.687262e-09	-1.519817e+01	-1.760837e+02
2.660000e-06	-2.321061e-06	-3.021689e-09	-1.605553e+01	-1.979452e+02
2.670000e-06	-2.444123e-06	-3.344469e-09	-1.690679e+01	-2.191999e+02
2.680000e-06	-2.566179e-06	-3.653414e-09	-1.775110e+01	-2.397386e+02
2.690000e-06	-2.687310e-06	-3.952001e-09	-1.858899e+01	-2.594828e+02
2.700000e-06	-2.807493e-06	-4.240970e-09	-1.942034e+01	-2.783852e+02
2.710000e-06	-2.926673e-06	-4.519508e-09	-2.024474e+01	-2.964291e+02
2.720000e-06	-3.044781e-06	-4.784272e-09	-2.106174e+01	-3.136241e+02
2.730000e-06	-3.161614e-06	-5.033364e-09	-2.186991e+01	-3.300013e+02
2.740000e-06	-3.277137e-06	-5.270634e-09	-2.266902e+01	-3.456065e+02
2.750000e-06	-3.391363e-06	-5.499897e-09	-2.345916e+01	-3.604942e+02
2.760000e-06	-3.504177e-06	-5.721793e-09	-2.423953e+01	-3.747212e+02
2.770000e-06	-3.615558e-06	-5.934738e-09	-2.500999e+01	-3.883412e+02
2.780000e-06	-3.725593e-06	-6.138465e-09	-2.577113e+01	-4.014014e+02
2.790000e-06	-3.834384e-06	-6.332918e-09	-2.652368e+01	-4.139396e+02
2.800000e-06	-3.941996e-06	-6.518692e-09	-2.726807e+01	-4.259843e+02
2.810000e-06	-4.048342e-06	-6.695958e-09	-2.800369e+01	-4.375547e+02
2.820000e-06	-4.153239e-06	-6.862912e-09	-2.872930e+01	-4.486629e+02
2.830000e-06	-4.256596e-06	-7.019963e-09	-2.944426e+01	-4.593164e+02
2.840000e-06	-4.358341e-06	-7.170391e-09	-3.014806e+01	-4.695205e+02
2.850000e-06	-4.458480e-06	-7.317434e-09	-3.084075e+01	-4.792810e+02
2.860000e-06	-4.557099e-06	-7.461678e-09	-3.152293e+01	-4.886061e+02
2.870000e-06	-4.654199e-06	-7.600485e-09	-3.219460e+01	-4.975074e+02
2.880000e-06	-4.749656e-06	-7.730301e-09	-3.285491e+01	-5.060003e+02
2.890000e-06	-4.843322e-06	-7.854380e-09	-3.350283e+01	-5.141040e+02
2.900000e-06	-4.935277e-06	-7.975996e-09	-3.413891e+01	-5.218397e+02
2.910000e-06	-5.025542e-06	-8.092301e-09	-3.476331e+01	-5.292301e+02
2.920000e-06	-5.114000e-06	-8.201176e-09	-3.537520e+01	-5.362973e+02
2.930000e-06	-5.200471e-06	-8.302374e-09	-3.597335e+01	-5.430619e+02
2.940000e-06	-5.284920e-06	-8.398314e-09	-3.655750e+01	-5.495418e+02
