# Temperatura_=_30.05
# Concentracion g/m^3_=_15000.0
# C_Vs_to_Am_M_A/Vsm_=_65563218390.804596
# pendiente_HvsI_1/m_=_3716.3
# ordenada_HvsI_A/m_=_1297.0
# frecuencia_Hz_=_301892.2039354273

Tiempo_(s)	Campo_(V.s)	Magnetizacion_(V.s)	Campo_(kA/m)	Magnetizacion_(A/m)
0.000000e+00	-6.836224e-06	-8.130767e-09	-4.749978e+01	-5.311212e+02
1.000000e-08	-6.833353e-06	-8.128068e-09	-4.747983e+01	-5.309900e+02
2.000000e-08	-6.828149e-06	-8.125692e-09	-4.744367e+01	-5.307513e+02
3.000000e-08	-6.820816e-06	-8.122972e-09	-4.739272e+01	-5.304066e+02
4.000000e-08	-6.811186e-06	-8.116871e-09	-4.732581e+01	-5.299613e+02
5.000000e-08	-6.799092e-06	-8.107520e-09	-4.724177e+01	-5.294246e+02
6.000000e-08	-6.784474e-06	-8.094968e-09	-4.714020e+01	-5.288088e+02
7.000000e-08	-6.767473e-06	-8.083095e-09	-4.702208e+01	-5.281285e+02
8.000000e-08	-6.748372e-06	-8.084121e-09	-4.688936e+01	-5.273986e+02
9.000000e-08	-6.726990e-06	-8.082597e-09	-4.674079e+01	-5.266330e+02
1.000000e-07	-6.702830e-06	-8.068785e-09	-4.657293e+01	-5.258427e+02
1.100000e-07	-6.675888e-06	-8.048197e-09	-4.638572e+01	-5.250346e+02
1.200000e-07	-6.646547e-06	-8.022092e-09	-4.618185e+01	-5.242103e+02
1.300000e-07	-6.615201e-06	-7.983924e-09	-4.596405e+01	-5.233656e+02
1.400000e-07	-6.581981e-06	-7.980129e-09	-4.573323e+01	-5.224906e+02
1.500000e-07	-6.546798e-06	-7.981875e-09	-4.548877e+01	-5.215711e+02
1.600000e-07	-6.509551e-06	-7.937661e-09	-4.522997e+01	-5.205892e+02
1.700000e-07	-6.470277e-06	-7.937753e-09	-4.495709e+01	-5.195255e+02
1.800000e-07	-6.428694e-06	-7.906839e-09	-4.466816e+01	-5.183607e+02
1.900000e-07	-6.384556e-06	-7.872471e-09	-4.436147e+01	-5.170776e+02
2.000000e-07	-6.338127e-06	-7.885411e-09	-4.403888e+01	-5.156624e+02
2.100000e-07	-6.289178e-06	-7.868315e-09	-4.369877e+01	-5.141060e+02
2.200000e-07	-6.237554e-06	-7.845031e-09	-4.334007e+01	-5.124045e+02
2.300000e-07	-6.183494e-06	-7.794813e-09	-4.296444e+01	-5.105587e+02
2.400000e-07	-6.127056e-06	-7.744655e-09	-4.257230e+01	-5.085741e+02
2.500000e-07	-6.068263e-06	-7.725479e-09	-4.216380e+01	-5.064593e+02
2.600000e-07	-6.007238e-06	-7.691684e-09	-4.173978e+01	-5.042251e+02
2.700000e-07	-5.944088e-06	-7.642252e-09	-4.130100e+01	-5.018825e+02
2.800000e-07	-5.878726e-06	-7.603627e-09	-4.084684e+01	-4.994420e+02
2.900000e-07	-5.811094e-06	-7.565996e-09	-4.037692e+01	-4.969119e+02
3.000000e-07	-5.741318e-06	-7.518075e-09	-3.989210e+01	-4.942976e+02
3.100000e-07	-5.669462e-06	-7.492263e-09	-3.939282e+01	-4.916017e+02
3.200000e-07	-5.595372e-06	-7.472413e-09	-3.887803e+01	-4.888234e+02
3.300000e-07	-5.518968e-06	-7.411960e-09	-3.834716e+01	-4.859597e+02
3.400000e-07	-5.440296e-06	-7.357636e-09	-3.780053e+01	-4.830053e+02
3.500000e-07	-5.359512e-06	-7.320270e-09	-3.723922e+01	-4.799542e+02
3.600000e-07	-5.276896e-06	-7.276563e-09	-3.666518e+01	-4.767999e+02
3.700000e-07	-5.192551e-06	-7.220891e-09	-3.607913e+01	-4.735369e+02
3.800000e-07	-5.106461e-06	-7.158268e-09	-3.548095e+01	-4.701604e+02
3.900000e-07	-5.018649e-06	-7.103743e-09	-3.487082e+01	-4.666672e+02
4.000000e-07	-4.929081e-06	-7.047613e-09	-3.424848e+01	-4.630557e+02
4.100000e-07	-4.837751e-06	-6.993085e-09	-3.361389e+01	-4.593253e+02
4.200000e-07	-4.744810e-06	-6.940068e-09	-3.296811e+01	-4.554764e+02
4.300000e-07	-4.650221e-06	-6.878804e-09	-3.231088e+01	-4.515095e+02
4.400000e-07	-4.553953e-06	-6.805740e-09	-3.164199e+01	-4.474251e+02
4.500000e-07	-4.455979e-06	-6.732281e-09	-3.096124e+01	-4.432229e+02
4.600000e-07	-4.356348e-06	-6.674174e-09	-3.026898e+01	-4.389014e+02
4.700000e-07	-4.255243e-06	-6.611599e-09	-2.956648e+01	-4.344581e+02
4.800000e-07	-4.152688e-06	-6.540067e-09	-2.885391e+01	-4.298890e+02
4.900000e-07	-4.048685e-06	-6.467794e-09	-2.813127e+01	-4.251892e+02
5.000000e-07	-3.943072e-06	-6.392275e-09	-2.739744e+01	-4.203526e+02
5.100000e-07	-3.835788e-06	-6.315694e-09	-2.665200e+01	-4.153731e+02
5.200000e-07	-3.727172e-06	-6.236119e-09	-2.589731e+01	-4.102439e+02
5.300000e-07	-3.617496e-06	-6.150677e-09	-2.513526e+01	-4.049589e+02
5.400000e-07	-3.506485e-06	-6.057969e-09	-2.436392e+01	-3.995124e+02
5.500000e-07	-3.393987e-06	-5.967593e-09	-2.358226e+01	-3.938995e+02
5.600000e-07	-3.280149e-06	-5.880334e-09	-2.279129e+01	-3.881162e+02
5.700000e-07	-3.164841e-06	-5.794686e-09	-2.199010e+01	-3.821592e+02
5.800000e-07	-3.048122e-06	-5.705916e-09	-2.117911e+01	-3.760264e+02
5.900000e-07	-2.930318e-06	-5.610616e-09	-2.036058e+01	-3.697160e+02
6.000000e-07	-2.811523e-06	-5.511280e-09	-1.953516e+01	-3.632265e+02
6.100000e-07	-2.691700e-06	-5.408060e-09	-1.870260e+01	-3.565565e+02
6.200000e-07	-2.570987e-06	-5.302535e-09	-1.786385e+01	-3.497042e+02
6.300000e-07	-2.449279e-06	-5.193270e-09	-1.701820e+01	-3.426667e+02
6.400000e-07	-2.326434e-06	-5.077654e-09	-1.616464e+01	-3.354401e+02
6.500000e-07	-2.202679e-06	-4.959636e-09	-1.530476e+01	-3.280190e+02
6.600000e-07	-2.078272e-06	-4.844132e-09	-1.444035e+01	-3.203960e+02
6.700000e-07	-1.953301e-06	-4.728187e-09	-1.357202e+01	-3.125619e+02
6.800000e-07	-1.827666e-06	-4.609136e-09	-1.269908e+01	-3.045053e+02
6.900000e-07	-1.701383e-06	-4.485867e-09	-1.182163e+01	-2.962134e+02
7.000000e-07	-1.574585e-06	-4.355986e-09	-1.094060e+01	-2.876720e+02
7.100000e-07	-1.447277e-06	-4.219031e-09	-1.005604e+01	-2.788662e+02
7.200000e-07	-1.319388e-06	-4.076156e-09	-9.167433e+00	-2.697813e+02
7.300000e-07	-1.190993e-06	-3.930824e-09	-8.275312e+00	-2.604032e+02
7.400000e-07	-1.062225e-06	-3.782363e-09	-7.380604e+00	-2.507197e+02
7.500000e-07	-9.331145e-07	-3.627259e-09	-6.483510e+00	-2.407207e+02
7.600000e-07	-8.037050e-07	-3.466200e-09	-5.584341e+00	-2.303988e+02
7.700000e-07	-6.740630e-07	-3.302974e-09	-4.683556e+00	-2.197492e+02
7.800000e-07	-5.442311e-07	-3.137625e-09	-3.781453e+00	-2.087693e+02
7.900000e-07	-4.141844e-07	-2.967805e-09	-2.877856e+00	-1.974580e+02
8.000000e-07	-2.839365e-07	-2.791494e-09	-1.972861e+00	-1.858143e+02
8.100000e-07	-1.535695e-07	-2.609319e-09	-1.067039e+00	-1.738358e+02
8.200000e-07	-2.312340e-08	-2.422711e-09	-1.606671e-01	-1.615171e+02
8.300000e-07	1.074029e-07	-2.231750e-09	7.462618e-01	-1.488488e+02
8.400000e-07	2.379375e-07	-2.037930e-09	1.653249e+00	-1.358156e+02
8.500000e-07	3.684016e-07	-1.836093e-09	2.559745e+00	-1.223970e+02
8.600000e-07	4.987311e-07	-1.625476e-09	3.465307e+00	-1.085666e+02
8.700000e-07	6.288900e-07	-1.406251e-09	4.369683e+00	-9.429432e+01
8.800000e-07	7.588469e-07	-1.179912e-09	5.272656e+00	-7.954848e+01
8.900000e-07	8.885913e-07	-9.473535e-10	6.174152e+00	-6.429905e+01
9.000000e-07	1.018053e-06	-7.067900e-10	7.073684e+00	-4.852163e+01
9.100000e-07	1.147133e-06	-4.599183e-10	7.970561e+00	-3.220173e+01
9.200000e-07	1.275776e-06	-2.058345e-10	8.864407e+00	-1.533896e+01
9.300000e-07	1.403961e-06	5.466138e-11	9.755072e+00	2.049273e+00
9.400000e-07	1.531639e-06	3.218921e-10	1.064221e+01	1.992510e+01
9.500000e-07	1.658726e-06	5.978019e-10	1.152524e+01	3.822882e+01
9.600000e-07	1.785244e-06	8.813375e-10	1.240432e+01	5.687915e+01
9.700000e-07	1.911089e-06	1.171386e-09	1.327872e+01	7.577529e+01
9.800000e-07	2.036247e-06	1.463857e-09	1.414835e+01	9.480053e+01
9.900000e-07	2.160840e-06	1.756081e-09	1.501405e+01	1.138274e+02
1.000000e-06	2.284744e-06	2.045925e-09	1.587497e+01	1.327240e+02
1.010000e-06	2.407771e-06	2.330928e-09	1.672979e+01	1.513603e+02
1.020000e-06	2.529855e-06	2.608220e-09	1.757806e+01	1.696151e+02
1.030000e-06	2.650939e-06	2.873223e-09	1.841938e+01	1.873820e+02
1.040000e-06	2.770925e-06	3.128913e-09	1.925307e+01	2.045738e+02
1.050000e-06	2.889888e-06	3.378580e-09	2.007966e+01	2.211261e+02
1.060000e-06	3.007885e-06	3.618204e-09	2.089953e+01	2.369982e+02
1.070000e-06	3.124855e-06	3.846849e-09	2.171226e+01	2.521725e+02
1.080000e-06	3.240654e-06	4.064872e-09	2.251687e+01	2.666525e+02
1.090000e-06	3.355057e-06	4.270732e-09	2.331177e+01	2.804584e+02
1.100000e-06	3.467966e-06	4.467886e-09	2.409629e+01	2.936224e+02
1.110000e-06	3.579528e-06	4.660588e-09	2.487145e+01	3.061839e+02
1.120000e-06	3.689936e-06	4.848121e-09	2.563859e+01	3.181839e+02
1.130000e-06	3.799192e-06	5.025837e-09	2.639772e+01	3.296610e+02
1.140000e-06	3.907238e-06	5.194872e-09	2.714846e+01	3.406479e+02
1.150000e-06	4.014020e-06	5.356501e-09	2.789040e+01	3.511694e+02
1.160000e-06	4.119244e-06	5.510258e-09	2.862153e+01	3.612423e+02
1.170000e-06	4.222853e-06	5.656288e-09	2.934143e+01	3.708757e+02
1.180000e-06	4.324989e-06	5.793745e-09	3.005109e+01	3.800734e+02
1.190000e-06	4.425665e-06	5.924890e-09	3.075062e+01	3.888364e+02
1.200000e-06	4.524858e-06	6.050348e-09	3.143984e+01	3.971654e+02
1.210000e-06	4.622291e-06	6.169987e-09	3.211682e+01	4.050641e+02
1.220000e-06	4.717937e-06	6.283977e-09	3.278140e+01	4.125411e+02
1.230000e-06	4.811915e-06	6.391035e-09	3.343438e+01	4.196110e+02
1.240000e-06	4.904265e-06	6.493225e-09	3.407605e+01	4.262952e+02
1.250000e-06	4.995000e-06	6.591136e-09	3.470650e+01	4.326207e+02
1.260000e-06	5.083852e-06	6.683458e-09	3.532386e+01	4.386189e+02
1.270000e-06	5.170750e-06	6.771155e-09	3.592765e+01	4.443232e+02
1.280000e-06	5.255852e-06	6.854117e-09	3.651896e+01	4.497667e+02
1.290000e-06	5.339188e-06	6.931939e-09	3.709800e+01	4.549796e+02
1.300000e-06	5.420587e-06	7.005580e-09	3.766358e+01	4.599876e+02
1.310000e-06	5.499914e-06	7.076443e-09	3.821476e+01	4.648098e+02
1.320000e-06	5.577297e-06	7.145482e-09	3.875244e+01	4.694587e+02
1.330000e-06	5.652625e-06	7.212640e-09	3.927583e+01	4.739402e+02
1.340000e-06	5.725708e-06	7.278326e-09	3.978364e+01	4.782543e+02
1.350000e-06	5.796644e-06	7.341928e-09	4.027651e+01	4.823971e+02
1.360000e-06	5.865557e-06	7.402400e-09	4.075534e+01	4.863621e+02
1.370000e-06	5.932442e-06	7.459611e-09	4.122008e+01	4.901424e+02
1.380000e-06	5.997157e-06	7.512966e-09	4.166973e+01	4.937324e+02
1.390000e-06	6.059695e-06	7.563095e-09	4.210426e+01	4.971287e+02
1.400000e-06	6.120266e-06	7.609648e-09	4.252513e+01	5.003313e+02
1.410000e-06	6.178806e-06	7.653229e-09	4.293188e+01	5.033433e+02
1.420000e-06	6.235119e-06	7.694055e-09	4.332315e+01	5.061707e+02
1.430000e-06	6.289158e-06	7.732620e-09	4.369862e+01	5.088215e+02
1.440000e-06	6.340687e-06	7.769981e-09	4.405666e+01	5.113049e+02
1.450000e-06	6.389551e-06	7.805370e-09	4.439618e+01	5.136297e+02
1.460000e-06	6.435993e-06	7.838000e-09	4.471887e+01	5.158038e+02
1.470000e-06	6.480314e-06	7.867531e-09	4.502683e+01	5.178338e+02
1.480000e-06	6.522394e-06	7.894635e-09	4.531921e+01	5.197241e+02
1.490000e-06	6.562030e-06	7.920132e-09	4.559461e+01	5.214775e+02
1.500000e-06	6.599416e-06	7.943418e-09	4.585438e+01	5.230959e+02
1.510000e-06	6.634632e-06	7.964633e-09	4.609906e+01	5.245806e+02
1.520000e-06	6.667431e-06	7.984400e-09	4.632696e+01	5.259332e+02
1.530000e-06	6.697832e-06	8.001638e-09	4.653820e+01	5.271564e+02
1.540000e-06	6.726018e-06	8.017118e-09	4.673404e+01	5.282544e+02
1.550000e-06	6.751777e-06	8.031521e-09	4.691301e+01	5.292328e+02
1.560000e-06	6.774960e-06	8.044522e-09	4.707410e+01	5.300985e+02
1.570000e-06	6.795799e-06	8.056104e-09	4.721890e+01	5.308592e+02
1.580000e-06	6.814320e-06	8.066977e-09	4.734758e+01	5.315224e+02
1.590000e-06	6.830303e-06	8.076212e-09	4.745864e+01	5.320944e+02
1.600000e-06	6.843718e-06	8.083104e-09	4.755185e+01	5.325797e+02
1.610000e-06	6.854441e-06	8.089657e-09	4.762635e+01	5.329805e+02
1.620000e-06	6.862497e-06	8.095589e-09	4.768233e+01	5.332962e+02
1.630000e-06	6.868146e-06	8.100401e-09	4.772158e+01	5.335239e+02
1.640000e-06	6.871469e-06	8.104359e-09	4.774467e+01	5.336587e+02
1.650000e-06	6.872344e-06	8.106962e-09	4.775075e+01	5.336952e+02
1.660000e-06	6.870801e-06	8.106681e-09	4.774003e+01	5.336283e+02
1.670000e-06	6.867129e-06	8.103866e-09	4.771451e+01	5.334546e+02
1.680000e-06	6.861141e-06	8.097993e-09	4.767290e+01	5.331735e+02
1.690000e-06	6.852782e-06	8.091308e-09	4.761482e+01	5.327881e+02
1.700000e-06	6.842269e-06	8.086096e-09	4.754178e+01	5.323053e+02
1.710000e-06	6.829461e-06	8.082256e-09	4.745279e+01	5.317356e+02
1.720000e-06	6.814246e-06	8.078106e-09	4.734707e+01	5.310924e+02
1.730000e-06	6.796862e-06	8.053043e-09	4.722628e+01	5.303905e+02
1.740000e-06	6.777274e-06	8.029864e-09	4.709017e+01	5.296447e+02
1.750000e-06	6.754596e-06	8.020223e-09	4.693260e+01	5.288680e+02
1.760000e-06	6.728570e-06	8.008430e-09	4.675177e+01	5.280699e+02
1.770000e-06	6.700005e-06	8.008275e-09	4.655329e+01	5.272553e+02
1.780000e-06	6.669423e-06	8.018858e-09	4.634080e+01	5.264234e+02
1.790000e-06	6.637297e-06	7.981209e-09	4.611758e+01	5.255679e+02
1.800000e-06	6.603685e-06	7.992235e-09	4.588404e+01	5.246771e+02
1.810000e-06	6.567600e-06	7.987640e-09	4.563331e+01	5.237350e+02
1.820000e-06	6.528979e-06	7.951291e-09	4.536497e+01	5.227230e+02
1.830000e-06	6.488296e-06	7.978346e-09	4.508229e+01	5.216215e+02
1.840000e-06	6.445421e-06	7.923216e-09	4.478438e+01	5.204118e+02
1.850000e-06	6.400450e-06	7.882517e-09	4.447191e+01	5.190779e+02
1.860000e-06	6.353128e-06	7.884309e-09	4.414311e+01	5.176077e+02
1.870000e-06	6.303374e-06	7.837062e-09	4.379740e+01	5.159942e+02
1.880000e-06	6.251341e-06	7.837839e-09	4.343586e+01	5.142353e+02
1.890000e-06	6.196567e-06	7.819668e-09	4.305528e+01	5.123338e+02
1.900000e-06	6.139316e-06	7.776261e-09	4.265749e+01	5.102966e+02
1.910000e-06	6.079881e-06	7.765618e-09	4.224452e+01	5.081332e+02
1.920000e-06	6.018108e-06	7.706964e-09	4.181530e+01	5.058548e+02
1.930000e-06	5.954109e-06	7.678625e-09	4.137063e+01	5.034723e+02
1.940000e-06	5.887850e-06	7.659183e-09	4.091024e+01	5.009954e+02
1.950000e-06	5.819514e-06	7.611341e-09	4.043542e+01	4.984314e+02
1.960000e-06	5.748900e-06	7.557934e-09	3.994478e+01	4.957846e+02
1.970000e-06	5.675928e-06	7.507038e-09	3.943775e+01	4.930563e+02
1.980000e-06	5.600862e-06	7.485207e-09	3.891618e+01	4.902446e+02
1.990000e-06	5.523607e-06	7.438582e-09	3.837939e+01	4.873457e+02
2.000000e-06	5.444205e-06	7.386215e-09	3.782769e+01	4.843537e+02
2.010000e-06	5.362850e-06	7.342212e-09	3.726241e+01	4.812625e+02
2.020000e-06	5.279757e-06	7.289107e-09	3.668506e+01	4.780659e+02
2.030000e-06	5.194770e-06	7.237794e-09	3.609455e+01	4.747584e+02
2.040000e-06	5.107727e-06	7.190754e-09	3.548975e+01	4.713360e+02
2.050000e-06	5.018870e-06	7.146140e-09	3.487235e+01	4.677962e+02
2.060000e-06	4.928434e-06	7.083367e-09	3.424398e+01	4.641377e+02
2.070000e-06	4.836436e-06	7.020502e-09	3.360475e+01	4.603603e+02
2.080000e-06	4.742661e-06	6.968016e-09	3.295318e+01	4.564647e+02
2.090000e-06	4.647107e-06	6.918787e-09	3.228925e+01	4.524513e+02
2.100000e-06	4.549987e-06	6.855048e-09	3.161444e+01	4.483204e+02
2.110000e-06	4.451402e-06	6.780825e-09	3.092945e+01	4.440713e+02
2.120000e-06	4.351278e-06	6.716520e-09	3.023375e+01	4.397020e+02
2.130000e-06	4.249617e-06	6.645522e-09	2.952739e+01	4.352095e+02
2.140000e-06	4.146304e-06	6.572345e-09	2.880955e+01	4.305894e+02
2.150000e-06	4.041372e-06	6.502527e-09	2.808046e+01	4.258362e+02
2.160000e-06	3.935095e-06	6.433296e-09	2.734202e+01	4.209440e+02
2.170000e-06	3.827491e-06	6.360186e-09	2.659435e+01	4.159061e+02
2.180000e-06	3.718555e-06	6.280968e-09	2.583744e+01	4.107161e+02
2.190000e-06	3.608189e-06	6.203457e-09	2.507059e+01	4.053680e+02
2.200000e-06	3.496425e-06	6.126623e-09	2.429402e+01	3.998564e+02
2.210000e-06	3.383327e-06	6.040211e-09	2.350819e+01	3.941766e+02
2.220000e-06	3.268921e-06	5.942800e-09	2.271328e+01	3.883251e+02
2.230000e-06	3.153126e-06	5.845749e-09	2.190870e+01	3.822990e+02
2.240000e-06	3.036040e-06	5.750974e-09	2.109516e+01	3.760963e+02
2.250000e-06	2.917859e-06	5.657505e-09	2.027401e+01	3.697153e+02
2.260000e-06	2.798446e-06	5.560725e-09	1.944429e+01	3.631548e+02
2.270000e-06	2.677922e-06	5.461789e-09	1.860687e+01	3.564131e+02
2.280000e-06	2.556464e-06	5.361219e-09	1.776294e+01	3.494881e+02
2.290000e-06	2.434108e-06	5.253923e-09	1.691278e+01	3.423766e+02
2.300000e-06	2.310945e-06	5.142758e-09	1.605702e+01	3.350741e+02
2.310000e-06	2.187066e-06	5.030672e-09	1.519628e+01	3.275743e+02
2.320000e-06	2.062452e-06	4.912116e-09	1.433043e+01	3.198692e+02
2.330000e-06	1.937106e-06	4.785446e-09	1.345949e+01	3.119488e+02
2.340000e-06	1.811117e-06	4.657955e-09	1.258409e+01	3.038011e+02
2.350000e-06	1.684497e-06	4.532268e-09	1.170430e+01	2.954126e+02
2.360000e-06	1.557180e-06	4.404750e-09	1.081967e+01	2.867688e+02
2.370000e-06	1.429205e-06	4.270878e-09	9.930471e+00	2.778548e+02
2.380000e-06	1.300731e-06	4.132333e-09	9.037801e+00	2.686560e+02
2.390000e-06	1.171878e-06	3.989812e-09	8.142497e+00	2.591589e+02
2.400000e-06	1.042708e-06	3.840531e-09	7.244991e+00	2.493522e+02
2.410000e-06	9.132476e-07	3.686820e-09	6.345471e+00	2.392268e+02
2.420000e-06	7.835277e-07	3.527894e-09	5.444145e+00	2.287763e+02
2.430000e-06	6.535885e-07	3.362176e-09	4.541295e+00	2.179968e+02
2.440000e-06	5.235019e-07	3.192880e-09	3.637420e+00	2.068866e+02
2.450000e-06	3.932833e-07	3.020910e-09	2.732630e+00	1.954445e+02
2.460000e-06	2.628976e-07	2.845405e-09	1.826678e+00	1.836694e+02
2.470000e-06	1.323546e-07	2.660822e-09	9.196323e-01	1.715577e+02
2.480000e-06	1.721165e-09	2.467022e-09	1.195908e-02	1.591028e+02
2.490000e-06	-1.289322e-07	2.269825e-09	-8.958532e-01	1.462930e+02
2.500000e-06	-2.596018e-07	2.065741e-09	-1.803778e+00	1.331109e+02
2.510000e-06	-3.901959e-07	1.851998e-09	-2.711178e+00	1.195335e+02
2.520000e-06	-5.206160e-07	1.633076e-09	-3.617369e+00	1.055329e+02
2.530000e-06	-6.508208e-07	1.410518e-09	-4.522064e+00	9.107810e+01
2.540000e-06	-7.808145e-07	1.185274e-09	-5.425293e+00	7.613747e+01
2.550000e-06	-9.105690e-07	9.533491e-10	-6.326859e+00	6.068276e+01
2.560000e-06	-1.040055e-06	7.113211e-10	-7.226558e+00	4.469294e+01
2.570000e-06	-1.169287e-06	4.616020e-10	-8.124496e+00	2.815859e+01
2.580000e-06	-1.298208e-06	2.009403e-10	-9.020271e+00	1.108592e+01
2.590000e-06	-1.426709e-06	-7.115697e-11	-9.913131e+00	-6.499895e+00
2.600000e-06	-1.554652e-06	-3.508578e-10	-1.080211e+01	-2.455247e+01
2.610000e-06	-1.681935e-06	-6.366347e-10	-1.168650e+01	-4.300351e+01
2.620000e-06	-1.808522e-06	-9.255395e-10	-1.256606e+01	-6.176373e+01
2.630000e-06	-1.934367e-06	-1.215886e-09	-1.344046e+01	-8.072554e+01
2.640000e-06	-2.059393e-06	-1.505673e-09	-1.430917e+01	-9.976735e+01
2.650000e-06	-2.183639e-06	-1.795067e-09	-1.517246e+01	-1.187591e+02
2.660000e-06	-2.307044e-06	-2.084852e-09	-1.602992e+01	-1.375689e+02
2.670000e-06	-2.429493e-06	-2.369540e-09	-1.688072e+01	-1.560694e+02
2.680000e-06	-2.551064e-06	-2.645953e-09	-1.772543e+01	-1.741446e+02
2.690000e-06	-2.671770e-06	-2.915241e-09	-1.856412e+01	-1.916950e+02
2.700000e-06	-2.791474e-06	-3.174796e-09	-1.939586e+01	-2.086423e+02
2.710000e-06	-2.910098e-06	-3.424265e-09	-2.022008e+01	-2.249312e+02
2.720000e-06	-3.027521e-06	-3.663533e-09	-2.103597e+01	-2.405304e+02
2.730000e-06	-3.143678e-06	-3.891523e-09	-2.184305e+01	-2.554308e+02
2.740000e-06	-3.258577e-06	-4.111092e-09	-2.264140e+01	-2.696431e+02
2.750000e-06	-3.372155e-06	-4.322990e-09	-2.343057e+01	-2.831927e+02
2.760000e-06	-3.484295e-06	-4.526007e-09	-2.420975e+01	-2.961155e+02
2.770000e-06	-3.595043e-06	-4.716519e-09	-2.497925e+01	-3.084519e+02
2.780000e-06	-3.704595e-06	-4.895808e-09	-2.574044e+01	-3.202425e+02
2.790000e-06	-3.813003e-06	-5.067096e-09	-2.649369e+01	-3.315238e+02
2.800000e-06	-3.920226e-06	-5.231803e-09	-2.723870e+01	-3.423256e+02
2.810000e-06	-4.026162e-06	-5.389440e-09	-2.797477e+01	-3.526696e+02
2.820000e-06	-4.130644e-06	-5.538618e-09	-2.870074e+01	-3.625694e+02
2.830000e-06	-4.233549e-06	-5.680288e-09	-2.941575e+01	-3.720318e+02
2.840000e-06	-4.334820e-06	-5.815958e-09	-3.011940e+01	-3.810590e+02
2.850000e-06	-4.434557e-06	-5.947478e-09	-3.081240e+01	-3.896516e+02
2.860000e-06	-4.532853e-06	-6.073881e-09	-3.149538e+01	-3.978112e+02
2.870000e-06	-4.629636e-06	-6.194369e-09	-3.216786e+01	-4.055432e+02
2.880000e-06	-4.724722e-06	-6.306664e-09	-3.282854e+01	-4.128585e+02
2.890000e-06	-4.817999e-06	-6.412609e-09	-3.347665e+01	-4.197743e+02
2.900000e-06	-4.909630e-06	-6.515279e-09	-3.411333e+01	-4.263144e+02
2.910000e-06	-4.999606e-06	-6.613231e-09	-3.473850e+01	-4.325077e+02
2.920000e-06	-5.087731e-06	-6.704402e-09	-3.535081e+01	-4.383867e+02
2.930000e-06	-5.173846e-06	-6.787301e-09	-3.594917e+01	-4.439850e+02
2.940000e-06	-5.258060e-06	-6.866921e-09	-3.653430e+01	-4.493349e+02
