# Temperatura_=_53.07
# Concentracion g/m^3_=_15000.0
# C_Vs_to_Am_M_A/Vsm_=_65563218390.804596
# pendiente_HvsI_1/m_=_3716.3
# ordenada_HvsI_A/m_=_1297.0
# frecuencia_Hz_=_301894.8411026885

Tiempo_(s)	Campo_(V.s)	Magnetizacion_(V.s)	Campo_(kA/m)	Magnetizacion_(A/m)
0.000000e+00	-6.832244e-06	-8.893404e-09	-4.750316e+01	-5.811581e+02
1.000000e-08	-6.829301e-06	-8.890312e-09	-4.748269e+01	-5.809107e+02
2.000000e-08	-6.824089e-06	-8.886821e-09	-4.744645e+01	-5.805409e+02
3.000000e-08	-6.816838e-06	-8.884982e-09	-4.739604e+01	-5.800517e+02
4.000000e-08	-6.807219e-06	-8.878332e-09	-4.732916e+01	-5.794500e+02
5.000000e-08	-6.795030e-06	-8.865797e-09	-4.724441e+01	-5.787464e+02
6.000000e-08	-6.780425e-06	-8.846615e-09	-4.714287e+01	-5.779541e+02
7.000000e-08	-6.763536e-06	-8.824324e-09	-4.702544e+01	-5.770881e+02
8.000000e-08	-6.744480e-06	-8.819409e-09	-4.689295e+01	-5.761630e+02
9.000000e-08	-6.723036e-06	-8.828222e-09	-4.674386e+01	-5.751923e+02
1.000000e-07	-6.698837e-06	-8.813293e-09	-4.657561e+01	-5.741862e+02
1.100000e-07	-6.671871e-06	-8.785457e-09	-4.638812e+01	-5.731505e+02
1.200000e-07	-6.642536e-06	-8.761869e-09	-4.618415e+01	-5.720859e+02
1.300000e-07	-6.611206e-06	-8.716555e-09	-4.596632e+01	-5.709876e+02
1.400000e-07	-6.578034e-06	-8.686218e-09	-4.573568e+01	-5.698455e+02
1.500000e-07	-6.542949e-06	-8.701999e-09	-4.549175e+01	-5.686454e+02
1.600000e-07	-6.505745e-06	-8.668524e-09	-4.523307e+01	-5.673697e+02
1.700000e-07	-6.466522e-06	-8.638379e-09	-4.496037e+01	-5.659995e+02
1.800000e-07	-6.424970e-06	-8.617999e-09	-4.467146e+01	-5.645160e+02
1.900000e-07	-6.380848e-06	-8.570230e-09	-4.436469e+01	-5.629023e+02
2.000000e-07	-6.334478e-06	-8.580101e-09	-4.404229e+01	-5.611448e+02
2.100000e-07	-6.285589e-06	-8.589165e-09	-4.370237e+01	-5.592342e+02
2.200000e-07	-6.234042e-06	-8.560229e-09	-4.334398e+01	-5.571658e+02
2.300000e-07	-6.180032e-06	-8.497832e-09	-4.296846e+01	-5.549398e+02
2.400000e-07	-6.123629e-06	-8.413735e-09	-4.257630e+01	-5.525608e+02
2.500000e-07	-6.064904e-06	-8.370169e-09	-4.216800e+01	-5.500368e+02
2.600000e-07	-6.003931e-06	-8.343357e-09	-4.174407e+01	-5.473779e+02
2.700000e-07	-5.940840e-06	-8.299715e-09	-4.130541e+01	-5.445951e+02
2.800000e-07	-5.875565e-06	-8.258620e-09	-4.085156e+01	-5.416993e+02
2.900000e-07	-5.807993e-06	-8.201843e-09	-4.038175e+01	-5.386993e+02
3.000000e-07	-5.738281e-06	-8.145766e-09	-3.989706e+01	-5.356020e+02
3.100000e-07	-5.666551e-06	-8.115303e-09	-3.939833e+01	-5.324108e+02
3.200000e-07	-5.592575e-06	-8.094033e-09	-3.888400e+01	-5.291264e+02
3.300000e-07	-5.516312e-06	-8.030473e-09	-3.835375e+01	-5.257460e+02
3.400000e-07	-5.437889e-06	-7.953171e-09	-3.780850e+01	-5.222648e+02
3.500000e-07	-5.357243e-06	-7.906100e-09	-3.724778e+01	-5.186759e+02
3.600000e-07	-5.274611e-06	-7.862659e-09	-3.667326e+01	-5.149719e+02
3.700000e-07	-5.190321e-06	-7.814640e-09	-3.608721e+01	-5.111449e+02
3.800000e-07	-5.104368e-06	-7.746638e-09	-3.548960e+01	-5.071882e+02
3.900000e-07	-5.016641e-06	-7.664295e-09	-3.487965e+01	-5.030961e+02
4.000000e-07	-4.927116e-06	-7.580741e-09	-3.425720e+01	-4.988648e+02
4.100000e-07	-4.835788e-06	-7.517976e-09	-3.362222e+01	-4.944924e+02
4.200000e-07	-4.742778e-06	-7.472634e-09	-3.297554e+01	-4.899785e+02
4.300000e-07	-4.648147e-06	-7.406826e-09	-3.231759e+01	-4.853242e+02
4.400000e-07	-4.551897e-06	-7.319640e-09	-3.164838e+01	-4.805314e+02
4.500000e-07	-4.453962e-06	-7.227457e-09	-3.096746e+01	-4.756022e+02
4.600000e-07	-4.354342e-06	-7.149463e-09	-3.027482e+01	-4.705381e+02
4.700000e-07	-4.253216e-06	-7.081615e-09	-2.957171e+01	-4.653398e+02
4.800000e-07	-4.150663e-06	-7.012926e-09	-2.885869e+01	-4.600064e+02
4.900000e-07	-4.046701e-06	-6.931167e-09	-2.813586e+01	-4.545353e+02
5.000000e-07	-3.941226e-06	-6.831790e-09	-2.740252e+01	-4.489221e+02
5.100000e-07	-3.834131e-06	-6.736260e-09	-2.665791e+01	-4.431608e+02
5.200000e-07	-3.725636e-06	-6.649850e-09	-2.590357e+01	-4.372439e+02
5.300000e-07	-3.615970e-06	-6.559129e-09	-2.514108e+01	-4.311634e+02
5.400000e-07	-3.505024e-06	-6.454342e-09	-2.436970e+01	-4.249109e+02
5.500000e-07	-3.392655e-06	-6.347671e-09	-2.358842e+01	-4.184786e+02
5.600000e-07	-3.278862e-06	-6.245371e-09	-2.279724e+01	-4.118597e+02
5.700000e-07	-3.163639e-06	-6.149110e-09	-2.199612e+01	-4.050487e+02
5.800000e-07	-3.047045e-06	-6.055256e-09	-2.118546e+01	-3.980419e+02
5.900000e-07	-2.929356e-06	-5.950167e-09	-2.036720e+01	-3.908374e+02
6.000000e-07	-2.810658e-06	-5.827332e-09	-1.954192e+01	-3.834346e+02
6.100000e-07	-2.690905e-06	-5.698818e-09	-1.870930e+01	-3.758339e+02
6.200000e-07	-2.570176e-06	-5.580779e-09	-1.786989e+01	-3.680356e+02
6.300000e-07	-2.448526e-06	-5.466318e-09	-1.702409e+01	-3.600398e+02
6.400000e-07	-2.325864e-06	-5.341800e-09	-1.617124e+01	-3.518450e+02
6.500000e-07	-2.202221e-06	-5.206663e-09	-1.531158e+01	-3.434474e+02
6.600000e-07	-2.077827e-06	-5.068318e-09	-1.444669e+01	-3.348407e+02
6.700000e-07	-1.952856e-06	-4.931803e-09	-1.357779e+01	-3.260156e+02
6.800000e-07	-1.827332e-06	-4.798884e-09	-1.270506e+01	-3.169602e+02
6.900000e-07	-1.701186e-06	-4.664684e-09	-1.182799e+01	-3.076602e+02
7.000000e-07	-1.574388e-06	-4.521376e-09	-1.094639e+01	-2.981000e+02
7.100000e-07	-1.447000e-06	-4.366937e-09	-1.006069e+01	-2.882637e+02
7.200000e-07	-1.319143e-06	-4.207649e-09	-9.171725e+00	-2.781361e+02
7.300000e-07	-1.190865e-06	-4.047827e-09	-8.279834e+00	-2.677041e+02
7.400000e-07	-1.062213e-06	-3.883631e-09	-7.385343e+00	-2.569574e+02
7.500000e-07	-9.332726e-07	-3.711811e-09	-6.488848e+00	-2.458887e+02
7.600000e-07	-8.040408e-07	-3.533340e-09	-5.590326e+00	-2.344940e+02
7.700000e-07	-6.744848e-07	-3.352209e-09	-4.689551e+00	-2.227720e+02
7.800000e-07	-5.446700e-07	-3.171271e-09	-3.786976e+00	-2.107221e+02
7.900000e-07	-4.146753e-07	-2.989519e-09	-2.883150e+00	-1.983436e+02
8.000000e-07	-2.845335e-07	-2.800597e-09	-1.978301e+00	-1.856331e+02
8.100000e-07	-1.542589e-07	-2.601035e-09	-1.072529e+00	-1.725826e+02
8.200000e-07	-2.387093e-08	-2.394541e-09	-1.659696e-01	-1.591779e+02
8.300000e-07	1.065485e-07	-2.185970e-09	7.408094e-01	-1.453971e+02
8.400000e-07	2.369198e-07	-1.971958e-09	1.647254e+00	-1.312109e+02
8.500000e-07	3.672110e-07	-1.748610e-09	2.553141e+00	-1.165829e+02
8.600000e-07	4.973892e-07	-1.515924e-09	3.458243e+00	-1.014719e+02
8.700000e-07	6.274474e-07	-1.272929e-09	4.362509e+00	-8.583462e+01
8.800000e-07	7.573594e-07	-1.024147e-09	5.265761e+00	-6.963050e+01
8.900000e-07	8.870126e-07	-7.721938e-10	6.167212e+00	-5.282601e+01
9.000000e-07	1.016336e-06	-5.154177e-10	7.066369e+00	-3.539990e+01
9.100000e-07	1.145332e-06	-2.461058e-10	7.963254e+00	-1.734811e+01
9.200000e-07	1.273947e-06	3.718589e-11	8.857487e+00	1.312170e+00
9.300000e-07	1.402122e-06	3.295542e-10	9.748656e+00	2.053958e+01
9.400000e-07	1.529784e-06	6.287152e-10	1.063627e+01	4.026729e+01
9.500000e-07	1.656923e-06	9.357663e-10	1.152023e+01	6.040359e+01
9.600000e-07	1.783464e-06	1.249928e-09	1.240005e+01	8.083445e+01
9.700000e-07	1.909290e-06	1.567340e-09	1.327489e+01	1.014279e+02
9.800000e-07	2.034451e-06	1.885541e-09	1.414511e+01	1.220399e+02
9.900000e-07	2.159006e-06	2.202218e-09	1.501111e+01	1.425214e+02
1.000000e-06	2.282859e-06	2.513074e-09	1.587224e+01	1.627259e+02
1.010000e-06	2.405802e-06	2.813882e-09	1.672703e+01	1.825168e+02
1.020000e-06	2.527735e-06	3.104869e-09	1.757481e+01	2.017738e+02
1.030000e-06	2.648675e-06	3.384567e-09	1.841568e+01	2.203984e+02
1.040000e-06	2.768642e-06	3.652916e-09	1.924979e+01	2.383173e+02
1.050000e-06	2.887561e-06	3.908858e-09	2.007661e+01	2.554840e+02
1.060000e-06	3.005416e-06	4.153434e-09	2.089603e+01	2.718781e+02
1.070000e-06	3.122225e-06	4.390397e-09	2.170817e+01	2.875028e+02
1.080000e-06	3.237836e-06	4.617023e-09	2.251199e+01	3.023811e+02
1.090000e-06	3.352098e-06	4.832589e-09	2.330643e+01	3.165507e+02
1.100000e-06	3.465017e-06	5.036892e-09	2.409154e+01	3.300581e+02
1.110000e-06	3.576693e-06	5.233462e-09	2.486800e+01	3.429534e+02
1.120000e-06	3.687132e-06	5.422774e-09	2.563586e+01	3.552851e+02
1.130000e-06	3.796356e-06	5.602621e-09	2.639526e+01	3.670962e+02
1.140000e-06	3.904394e-06	5.775032e-09	2.714643e+01	3.784221e+02
1.150000e-06	4.011088e-06	5.939967e-09	2.788825e+01	3.892887e+02
1.160000e-06	4.116284e-06	6.097823e-09	2.861966e+01	3.997131e+02
1.170000e-06	4.219934e-06	6.249636e-09	2.934031e+01	4.097050e+02
1.180000e-06	4.322041e-06	6.394074e-09	3.005024e+01	4.192687e+02
1.190000e-06	4.422681e-06	6.532171e-09	3.074997e+01	4.284060e+02
1.200000e-06	4.521808e-06	6.663914e-09	3.143918e+01	4.371189e+02
1.210000e-06	4.619215e-06	6.788244e-09	3.211643e+01	4.454118e+02
1.220000e-06	4.714793e-06	6.907566e-09	3.278096e+01	4.532936e+02
1.230000e-06	4.808722e-06	7.022247e-09	3.343403e+01	4.607783e+02
1.240000e-06	4.901135e-06	7.131344e-09	3.407656e+01	4.678851e+02
1.250000e-06	4.991854e-06	7.233792e-09	3.470731e+01	4.746379e+02
1.260000e-06	5.080679e-06	7.331188e-09	3.532489e+01	4.810634e+02
1.270000e-06	5.167610e-06	7.424763e-09	3.592931e+01	4.871900e+02
1.280000e-06	5.252755e-06	7.514736e-09	3.652130e+01	4.930451e+02
1.290000e-06	5.336089e-06	7.600109e-09	3.710070e+01	4.986541e+02
1.300000e-06	5.417483e-06	7.680383e-09	3.766662e+01	5.040385e+02
1.310000e-06	5.496827e-06	7.757216e-09	3.821828e+01	5.092153e+02
1.320000e-06	5.574135e-06	7.829606e-09	3.875579e+01	5.141967e+02
1.330000e-06	5.649343e-06	7.898337e-09	3.927869e+01	5.189902e+02
1.340000e-06	5.722352e-06	7.967042e-09	3.978631e+01	5.236000e+02
1.350000e-06	5.793216e-06	8.034992e-09	4.027901e+01	5.280270e+02
1.360000e-06	5.862030e-06	8.101195e-09	4.075746e+01	5.322711e+02
1.370000e-06	5.928747e-06	8.164862e-09	4.122133e+01	5.363316e+02
1.380000e-06	5.993254e-06	8.224796e-09	4.166984e+01	5.402081e+02
1.390000e-06	6.055691e-06	8.281505e-09	4.210394e+01	5.439013e+02
1.400000e-06	6.116201e-06	8.335042e-09	4.252466e+01	5.474131e+02
1.410000e-06	6.174668e-06	8.385341e-09	4.293117e+01	5.507461e+02
1.420000e-06	6.230901e-06	8.431333e-09	4.332214e+01	5.539038e+02
1.430000e-06	6.284876e-06	8.474359e-09	4.369742e+01	5.568894e+02
1.440000e-06	6.336369e-06	8.516339e-09	4.405544e+01	5.597059e+02
1.450000e-06	6.385173e-06	8.556097e-09	4.439476e+01	5.623551e+02
1.460000e-06	6.431604e-06	8.593005e-09	4.471759e+01	5.648380e+02
1.470000e-06	6.475937e-06	8.627410e-09	4.502583e+01	5.671545e+02
1.480000e-06	6.517992e-06	8.659478e-09	4.531823e+01	5.693042e+02
1.490000e-06	6.557634e-06	8.690130e-09	4.559385e+01	5.712865e+02
1.500000e-06	6.595074e-06	8.717397e-09	4.585416e+01	5.731017e+02
1.510000e-06	6.630287e-06	8.740834e-09	4.609899e+01	5.747513e+02
1.520000e-06	6.663032e-06	8.761255e-09	4.632666e+01	5.762390e+02
1.530000e-06	6.693405e-06	8.778875e-09	4.653784e+01	5.775702e+02
1.540000e-06	6.721584e-06	8.795523e-09	4.673376e+01	5.787525e+02
1.550000e-06	6.747310e-06	8.810616e-09	4.691262e+01	5.797952e+02
1.560000e-06	6.770447e-06	8.824459e-09	4.707349e+01	5.807082e+02
1.570000e-06	6.791280e-06	8.837199e-09	4.721834e+01	5.815012e+02
1.580000e-06	6.809771e-06	8.849142e-09	4.734690e+01	5.821831e+02
1.590000e-06	6.825703e-06	8.858642e-09	4.745768e+01	5.827606e+02
1.600000e-06	6.839167e-06	8.865531e-09	4.755129e+01	5.832378e+02
1.610000e-06	6.849985e-06	8.871081e-09	4.762650e+01	5.836160e+02
1.620000e-06	6.858061e-06	8.873859e-09	4.768266e+01	5.838933e+02
1.630000e-06	6.863723e-06	8.875500e-09	4.772202e+01	5.840657e+02
1.640000e-06	6.867034e-06	8.877650e-09	4.774504e+01	5.841280e+02
1.650000e-06	6.867855e-06	8.879518e-09	4.775075e+01	5.840745e+02
1.660000e-06	6.866303e-06	8.876112e-09	4.773996e+01	5.839007e+02
1.670000e-06	6.862662e-06	8.871062e-09	4.771464e+01	5.836043e+02
1.680000e-06	6.856740e-06	8.864730e-09	4.767347e+01	5.831861e+02
1.690000e-06	6.848409e-06	8.857938e-09	4.761554e+01	5.826508e+02
1.700000e-06	6.837904e-06	8.851886e-09	4.754251e+01	5.820069e+02
1.710000e-06	6.825176e-06	8.845151e-09	4.745401e+01	5.812660e+02
1.720000e-06	6.810065e-06	8.842405e-09	4.734895e+01	5.804421e+02
1.730000e-06	6.792748e-06	8.815723e-09	4.722854e+01	5.795503e+02
1.740000e-06	6.773196e-06	8.772501e-09	4.709260e+01	5.786050e+02
1.750000e-06	6.750584e-06	8.761588e-09	4.693539e+01	5.776186e+02
1.760000e-06	6.724643e-06	8.751578e-09	4.675503e+01	5.765996e+02
1.770000e-06	6.696113e-06	8.737020e-09	4.655666e+01	5.755519e+02
1.780000e-06	6.665475e-06	8.759874e-09	4.634364e+01	5.744741e+02
1.790000e-06	6.633305e-06	8.729758e-09	4.611998e+01	5.733593e+02
1.800000e-06	6.599731e-06	8.699895e-09	4.588654e+01	5.721955e+02
1.810000e-06	6.563783e-06	8.711137e-09	4.563660e+01	5.709671e+02
1.820000e-06	6.525268e-06	8.669947e-09	4.536881e+01	5.696557e+02
1.830000e-06	6.484653e-06	8.674782e-09	4.508643e+01	5.682424e+02
1.840000e-06	6.441825e-06	8.652114e-09	4.478865e+01	5.667088e+02
1.850000e-06	6.396836e-06	8.573174e-09	4.447586e+01	5.650392e+02
1.860000e-06	6.349514e-06	8.558467e-09	4.414684e+01	5.632216e+02
1.870000e-06	6.299807e-06	8.499744e-09	4.380123e+01	5.612484e+02
1.880000e-06	6.247868e-06	8.486660e-09	4.344011e+01	5.591170e+02
1.890000e-06	6.193194e-06	8.523671e-09	4.305997e+01	5.568294e+02
1.900000e-06	6.136023e-06	8.477846e-09	4.266248e+01	5.543915e+02
1.910000e-06	6.076648e-06	8.446200e-09	4.224965e+01	5.518123e+02
1.920000e-06	6.014915e-06	8.356562e-09	4.182044e+01	5.491026e+02
1.930000e-06	5.950988e-06	8.296644e-09	4.137597e+01	5.462734e+02
1.940000e-06	5.884856e-06	8.302827e-09	4.091616e+01	5.433349e+02
1.950000e-06	5.816634e-06	8.252005e-09	4.044183e+01	5.402952e+02
1.960000e-06	5.746067e-06	8.207316e-09	3.995119e+01	5.371600e+02
1.970000e-06	5.673190e-06	8.132725e-09	3.944449e+01	5.339314e+02
1.980000e-06	5.598299e-06	8.086281e-09	3.892379e+01	5.306089e+02
1.990000e-06	5.521111e-06	8.044673e-09	3.838713e+01	5.271888e+02
2.000000e-06	5.441745e-06	7.986052e-09	3.783531e+01	5.236654e+02
2.010000e-06	5.360445e-06	7.943631e-09	3.727004e+01	5.200314e+02
2.020000e-06	5.277368e-06	7.862626e-09	3.669243e+01	5.162791e+02
2.030000e-06	5.192459e-06	7.803711e-09	3.610208e+01	5.124011e+02
2.040000e-06	5.105521e-06	7.752106e-09	3.549761e+01	5.083909e+02
2.050000e-06	5.016784e-06	7.706377e-09	3.488064e+01	5.042437e+02
2.060000e-06	4.926460e-06	7.640998e-09	3.425264e+01	4.999563e+02
2.070000e-06	4.834493e-06	7.552742e-09	3.361321e+01	4.955275e+02
2.080000e-06	4.740759e-06	7.478778e-09	3.296150e+01	4.909574e+02
2.090000e-06	4.645281e-06	7.410166e-09	3.229766e+01	4.862476e+02
2.100000e-06	4.548195e-06	7.360513e-09	3.162264e+01	4.814002e+02
2.110000e-06	4.449618e-06	7.295795e-09	3.093726e+01	4.764170e+02
2.120000e-06	4.349568e-06	7.215286e-09	3.024163e+01	4.712993e+02
2.130000e-06	4.247953e-06	7.112206e-09	2.953512e+01	4.660473e+02
2.140000e-06	4.144661e-06	7.016563e-09	2.881696e+01	4.606594e+02
2.150000e-06	4.039764e-06	6.940816e-09	2.808763e+01	4.551323e+02
2.160000e-06	3.933519e-06	6.871813e-09	2.734893e+01	4.494609e+02
2.170000e-06	3.825971e-06	6.796641e-09	2.660117e+01	4.436386e+02
2.180000e-06	3.717141e-06	6.697170e-09	2.584450e+01	4.376576e+02
2.190000e-06	3.606872e-06	6.594534e-09	2.507782e+01	4.315097e+02
2.200000e-06	3.495187e-06	6.499711e-09	2.430130e+01	4.251867e+02
2.210000e-06	3.382184e-06	6.414055e-09	2.351561e+01	4.186810e+02
2.220000e-06	3.267851e-06	6.310755e-09	2.272068e+01	4.119863e+02
2.230000e-06	3.152181e-06	6.193453e-09	2.191645e+01	4.050979e+02
2.240000e-06	3.035212e-06	6.076634e-09	2.110319e+01	3.980128e+02
2.250000e-06	2.917021e-06	5.969235e-09	2.028143e+01	3.907296e+02
2.260000e-06	2.797598e-06	5.864756e-09	1.945111e+01	3.832482e+02
2.270000e-06	2.677130e-06	5.756428e-09	1.861352e+01	3.755689e+02
2.280000e-06	2.555729e-06	5.638851e-09	1.776945e+01	3.676923e+02
2.290000e-06	2.433463e-06	5.507692e-09	1.691935e+01	3.596178e+02
2.300000e-06	2.310368e-06	5.380288e-09	1.606350e+01	3.513431e+02
2.310000e-06	2.186554e-06	5.262302e-09	1.520265e+01	3.428634e+02
2.320000e-06	2.062021e-06	5.141111e-09	1.433680e+01	3.341714e+02
2.330000e-06	1.936748e-06	4.998297e-09	1.346580e+01	3.252566e+02
2.340000e-06	1.810854e-06	4.842542e-09	1.259049e+01	3.161061e+02
2.350000e-06	1.684290e-06	4.688819e-09	1.171051e+01	3.067049e+02
2.360000e-06	1.557039e-06	4.544273e-09	1.082576e+01	2.970373e+02
2.370000e-06	1.429191e-06	4.403595e-09	9.936866e+00	2.870875e+02
2.380000e-06	1.300817e-06	4.255986e-09	9.044305e+00	2.768409e+02
2.390000e-06	1.172023e-06	4.094701e-09	8.148832e+00	2.662855e+02
2.400000e-06	1.042889e-06	3.923315e-09	7.250989e+00	2.554121e+02
2.410000e-06	9.135011e-07	3.755105e-09	6.351381e+00	2.442149e+02
2.420000e-06	7.838891e-07	3.587086e-09	5.450216e+00	2.326909e+02
2.430000e-06	6.540741e-07	3.409449e-09	4.547640e+00	2.208392e+02
2.440000e-06	5.240856e-07	3.218916e-09	3.643857e+00	2.086597e+02
2.450000e-06	3.939353e-07	3.021043e-09	2.738949e+00	1.961506e+02
2.460000e-06	2.636626e-07	2.823086e-09	1.833190e+00	1.833069e+02
2.470000e-06	1.331891e-07	2.624159e-09	9.260356e-01	1.701185e+02
2.480000e-06	2.618471e-09	2.420226e-09	1.820567e-02	1.565682e+02
2.490000e-06	-1.279501e-07	2.209235e-09	-8.896101e-01	1.426313e+02
2.500000e-06	-2.585052e-07	1.985352e-09	-1.797332e+00	1.282754e+02
2.510000e-06	-3.889374e-07	1.751143e-09	-2.704200e+00	1.134619e+02
2.520000e-06	-5.192164e-07	1.515541e-09	-3.610002e+00	9.814844e+01
2.530000e-06	-6.493326e-07	1.277653e-09	-4.514673e+00	8.229224e+01
2.540000e-06	-7.792891e-07	1.030542e-09	-5.418233e+00	6.585487e+01
2.550000e-06	-9.090469e-07	7.668977e-10	-6.320412e+00	4.880704e+01
2.560000e-06	-1.038507e-06	4.921455e-10	-7.220518e+00	3.113370e+01
2.570000e-06	-1.167645e-06	2.128453e-10	-8.118393e+00	1.283870e+01
2.580000e-06	-1.296458e-06	-7.206223e-11	-9.013997e+00	-6.051538e+00
2.590000e-06	-1.424848e-06	-3.661068e-10	-9.906670e+00	-2.548569e+01
2.600000e-06	-1.552685e-06	-6.719310e-10	-1.079549e+01	-4.538699e+01
2.610000e-06	-1.679856e-06	-9.852971e-10	-1.167968e+01	-6.565454e+01
2.620000e-06	-1.806224e-06	-1.301166e-09	-1.255829e+01	-8.616663e+01
2.630000e-06	-1.931835e-06	-1.613716e-09	-1.343164e+01	-1.067858e+02
2.640000e-06	-2.056824e-06	-1.924390e-09	-1.430067e+01	-1.273652e+02
2.650000e-06	-2.181091e-06	-2.235265e-09	-1.516467e+01	-1.477558e+02
2.660000e-06	-2.304502e-06	-2.544217e-09	-1.602272e+01	-1.678141e+02
2.670000e-06	-2.426975e-06	-2.846712e-09	-1.687425e+01	-1.874093e+02
2.680000e-06	-2.548528e-06	-3.136123e-09	-1.771938e+01	-2.064291e+02
2.690000e-06	-2.669194e-06	-3.413489e-09	-1.855834e+01	-2.247846e+02
2.700000e-06	-2.788853e-06	-3.680910e-09	-1.939031e+01	-2.424129e+02
2.710000e-06	-2.907325e-06	-3.939767e-09	-2.021402e+01	-2.592779e+02
2.720000e-06	-3.024585e-06	-4.188988e-09	-2.102930e+01	-2.753689e+02
2.730000e-06	-3.140698e-06	-4.424668e-09	-2.183661e+01	-2.906976e+02
2.740000e-06	-3.255544e-06	-4.648263e-09	-2.263512e+01	-3.052932e+02
2.750000e-06	-3.369016e-06	-4.863712e-09	-2.342406e+01	-3.191976e+02
2.760000e-06	-3.481143e-06	-5.072553e-09	-2.420365e+01	-3.324594e+02
2.770000e-06	-3.591991e-06	-5.271702e-09	-2.497435e+01	-3.451285e+02
2.780000e-06	-3.701591e-06	-5.458692e-09	-2.573638e+01	-3.572517e+02
2.790000e-06	-3.810010e-06	-5.634526e-09	-2.649020e+01	-3.688694e+02
2.800000e-06	-3.917200e-06	-5.802509e-09	-2.723547e+01	-3.800130e+02
2.810000e-06	-4.023081e-06	-5.964828e-09	-2.797163e+01	-3.907052e+02
2.820000e-06	-4.127590e-06	-6.120695e-09	-2.869827e+01	-4.009597e+02
2.830000e-06	-4.230490e-06	-6.268476e-09	-2.941371e+01	-4.107838e+02
2.840000e-06	-4.331763e-06	-6.408090e-09	-3.011783e+01	-4.201807e+02
2.850000e-06	-4.431529e-06	-6.542733e-09	-3.081149e+01	-4.291517e+02
2.860000e-06	-4.529802e-06	-6.675132e-09	-3.149476e+01	-4.376997e+02
2.870000e-06	-4.626558e-06	-6.803558e-09	-3.216748e+01	-4.458306e+02
2.880000e-06	-4.721619e-06	-6.923521e-09	-3.282842e+01	-4.535553e+02
2.890000e-06	-4.814907e-06	-7.036491e-09	-3.347703e+01	-4.608898e+02
2.900000e-06	-4.906490e-06	-7.144185e-09	-3.411379e+01	-4.678553e+02
2.910000e-06	-4.996374e-06	-7.247000e-09	-3.473874e+01	-4.744770e+02
2.920000e-06	-5.084453e-06	-7.345674e-09	-3.535113e+01	-4.807825e+02
2.930000e-06	-5.170565e-06	-7.438152e-09	-3.594985e+01	-4.868000e+02
2.940000e-06	-5.254758e-06	-7.524642e-09	-3.653522e+01	-4.925564e+02
