# Temperatura_=_76.2
# Concentracion g/m^3_=_15000.0
# C_Vs_to_Am_M_A/Vsm_=_65563218390.804596
# pendiente_HvsI_1/m_=_3716.3
# ordenada_HvsI_A/m_=_1297.0
# frecuencia_Hz_=_301902.286130793

Tiempo_(s)	Campo_(V.s)	Magnetizacion_(V.s)	Campo_(kA/m)	Magnetizacion_(A/m)
0.000000e+00	-6.814268e-06	-1.044463e-08	-4.749632e+01	-6.826617e+02
1.000000e-08	-6.811222e-06	-1.044416e-08	-4.747508e+01	-6.823968e+02
2.000000e-08	-6.805863e-06	-1.043583e-08	-4.743773e+01	-6.819755e+02
3.000000e-08	-6.798406e-06	-1.042916e-08	-4.738576e+01	-6.814014e+02
4.000000e-08	-6.788677e-06	-1.041916e-08	-4.731795e+01	-6.806828e+02
5.000000e-08	-6.776440e-06	-1.040486e-08	-4.723265e+01	-6.798315e+02
6.000000e-08	-6.761721e-06	-1.038165e-08	-4.713006e+01	-6.788621e+02
7.000000e-08	-6.744670e-06	-1.034634e-08	-4.701121e+01	-6.777907e+02
8.000000e-08	-6.725465e-06	-1.035960e-08	-4.687735e+01	-6.766333e+02
9.000000e-08	-6.703869e-06	-1.040554e-08	-4.672682e+01	-6.754043e+02
1.000000e-07	-6.679504e-06	-1.036004e-08	-4.655700e+01	-6.741148e+02
1.100000e-07	-6.652462e-06	-1.030566e-08	-4.636851e+01	-6.727718e+02
1.200000e-07	-6.623045e-06	-1.029551e-08	-4.616347e+01	-6.713770e+02
1.300000e-07	-6.591631e-06	-1.020425e-08	-4.594451e+01	-6.699270e+02
1.400000e-07	-6.558382e-06	-1.013556e-08	-4.571276e+01	-6.684130e+02
1.500000e-07	-6.523187e-06	-1.027040e-08	-4.546745e+01	-6.668219e+02
1.600000e-07	-6.485934e-06	-1.014872e-08	-4.520779e+01	-6.651369e+02
1.700000e-07	-6.446651e-06	-1.006700e-08	-4.493398e+01	-6.633390e+02
1.800000e-07	-6.404987e-06	-1.015061e-08	-4.464358e+01	-6.614085e+02
1.900000e-07	-6.360763e-06	-1.000487e-08	-4.433533e+01	-6.593260e+02
2.000000e-07	-6.314336e-06	-1.004460e-08	-4.401173e+01	-6.570744e+02
2.100000e-07	-6.265442e-06	-1.005912e-08	-4.367093e+01	-6.546398e+02
2.200000e-07	-6.213864e-06	-9.968442e-09	-4.331142e+01	-6.520120e+02
2.300000e-07	-6.159756e-06	-9.931093e-09	-4.293429e+01	-6.491857e+02
2.400000e-07	-6.103245e-06	-9.839819e-09	-4.254040e+01	-6.461599e+02
2.500000e-07	-6.044436e-06	-9.793025e-09	-4.213049e+01	-6.429385e+02
2.600000e-07	-5.983444e-06	-9.746374e-09	-4.170537e+01	-6.395290e+02
2.700000e-07	-5.920371e-06	-9.675274e-09	-4.126574e+01	-6.359421e+02
2.800000e-07	-5.855118e-06	-9.611751e-09	-4.081092e+01	-6.321903e+02
2.900000e-07	-5.787596e-06	-9.550577e-09	-4.034029e+01	-6.282870e+02
3.000000e-07	-5.717884e-06	-9.531633e-09	-3.985438e+01	-6.242450e+02
3.100000e-07	-5.646105e-06	-9.454760e-09	-3.935407e+01	-6.200753e+02
3.200000e-07	-5.572151e-06	-9.406038e-09	-3.883860e+01	-6.157864e+02
3.300000e-07	-5.495893e-06	-9.337749e-09	-3.830708e+01	-6.113832e+02
3.400000e-07	-5.417451e-06	-9.231008e-09	-3.776032e+01	-6.068669e+02
3.500000e-07	-5.336896e-06	-9.179897e-09	-3.719885e+01	-6.022348e+02
3.600000e-07	-5.254413e-06	-9.117236e-09	-3.662393e+01	-5.974812e+02
3.700000e-07	-5.170230e-06	-9.054080e-09	-3.603716e+01	-5.925971e+02
3.800000e-07	-5.084305e-06	-8.955860e-09	-3.543825e+01	-5.875725e+02
3.900000e-07	-4.996628e-06	-8.864742e-09	-3.482713e+01	-5.823966e+02
4.000000e-07	-4.907171e-06	-8.777975e-09	-3.420361e+01	-5.770594e+02
4.100000e-07	-4.815945e-06	-8.698602e-09	-3.356775e+01	-5.715527e+02
4.200000e-07	-4.723163e-06	-8.627612e-09	-3.292105e+01	-5.658709e+02
4.300000e-07	-4.628758e-06	-8.533095e-09	-3.226303e+01	-5.600116e+02
4.400000e-07	-4.532649e-06	-8.437279e-09	-3.159314e+01	-5.539753e+02
4.500000e-07	-4.434788e-06	-8.328528e-09	-3.091104e+01	-5.477654e+02
4.600000e-07	-4.335256e-06	-8.232795e-09	-3.021729e+01	-5.413870e+02
4.700000e-07	-4.234324e-06	-8.144613e-09	-2.951378e+01	-5.348460e+02
4.800000e-07	-4.131943e-06	-8.046440e-09	-2.880017e+01	-5.281479e+02
4.900000e-07	-4.028121e-06	-7.937686e-09	-2.807652e+01	-5.212964e+02
5.000000e-07	-3.922812e-06	-7.827998e-09	-2.734250e+01	-5.142924e+02
5.100000e-07	-3.815884e-06	-7.721163e-09	-2.659720e+01	-5.071336e+02
5.200000e-07	-3.707568e-06	-7.607771e-09	-2.584222e+01	-4.998139e+02
5.300000e-07	-3.598042e-06	-7.486448e-09	-2.507881e+01	-4.923243e+02
5.400000e-07	-3.487183e-06	-7.356311e-09	-2.430611e+01	-4.846528e+02
5.500000e-07	-3.375010e-06	-7.230633e-09	-2.352425e+01	-4.767866e+02
5.600000e-07	-3.261565e-06	-7.109767e-09	-2.273353e+01	-4.687127e+02
5.700000e-07	-3.146633e-06	-6.994639e-09	-2.193243e+01	-4.604196e+02
5.800000e-07	-3.030296e-06	-6.873235e-09	-2.112155e+01	-4.518987e+02
5.900000e-07	-2.912836e-06	-6.739467e-09	-2.030284e+01	-4.431447e+02
6.000000e-07	-2.794339e-06	-6.596282e-09	-1.947690e+01	-4.341559e+02
6.100000e-07	-2.674904e-06	-6.450412e-09	-1.864443e+01	-4.249343e+02
6.200000e-07	-2.554544e-06	-6.306808e-09	-1.780550e+01	-4.154841e+02
6.300000e-07	-2.433165e-06	-6.160138e-09	-1.695947e+01	-4.058107e+02
6.400000e-07	-2.310732e-06	-6.007006e-09	-1.610610e+01	-3.959186e+02
6.500000e-07	-2.187301e-06	-5.846919e-09	-1.524577e+01	-3.858103e+02
6.600000e-07	-2.063103e-06	-5.682845e-09	-1.438009e+01	-3.754841e+02
6.700000e-07	-1.938322e-06	-5.520297e-09	-1.351035e+01	-3.649337e+02
6.800000e-07	-1.813005e-06	-5.360990e-09	-1.263688e+01	-3.541477e+02
6.900000e-07	-1.687079e-06	-5.195539e-09	-1.175916e+01	-3.431097e+02
7.000000e-07	-1.560505e-06	-5.023614e-09	-1.087692e+01	-3.317998e+02
7.100000e-07	-1.433452e-06	-4.845552e-09	-9.991341e+00	-3.201960e+02
7.200000e-07	-1.305939e-06	-4.663195e-09	-9.102562e+00	-3.082765e+02
7.300000e-07	-1.177930e-06	-4.474942e-09	-8.210320e+00	-2.960214e+02
7.400000e-07	-1.049551e-06	-4.281369e-09	-7.315507e+00	-2.834147e+02
7.500000e-07	-9.209131e-07	-4.082490e-09	-6.418882e+00	-2.704453e+02
7.600000e-07	-7.919791e-07	-3.878700e-09	-5.520195e+00	-2.571069e+02
7.700000e-07	-6.627395e-07	-3.671935e-09	-4.619379e+00	-2.433977e+02
7.800000e-07	-5.333109e-07	-3.460831e-09	-3.717245e+00	-2.293178e+02
7.900000e-07	-4.037271e-07	-3.245299e-09	-2.814030e+00	-2.148673e+02
8.000000e-07	-2.740264e-07	-3.020008e-09	-1.909999e+00	-2.000432e+02
8.100000e-07	-1.441661e-07	-2.785978e-09	-1.004856e+00	-1.848355e+02
8.200000e-07	-1.412523e-08	-2.545391e-09	-9.845468e-02	-1.692258e+02
8.300000e-07	1.159754e-07	-2.301540e-09	8.083632e-01	-1.531847e+02
8.400000e-07	2.460088e-07	-2.053395e-09	1.714712e+00	-1.366722e+02
8.500000e-07	3.759585e-07	-1.796421e-09	2.620479e+00	-1.196390e+02
8.600000e-07	5.057562e-07	-1.529108e-09	3.525186e+00	-1.020297e+02
8.700000e-07	6.353515e-07	-1.249405e-09	4.428481e+00	-8.378769e+01
8.800000e-07	7.648117e-07	-9.590426e-10	5.330836e+00	-6.486148e+01
8.900000e-07	8.940418e-07	-6.611284e-10	6.231585e+00	-4.521134e+01
9.000000e-07	1.022943e-06	-3.531488e-10	7.130046e+00	-2.481631e+01
9.100000e-07	1.151505e-06	-3.155392e-11	8.026135e+00	-3.680294e+00
9.200000e-07	1.279699e-06	3.013553e-10	8.919668e+00	1.816315e+01
9.300000e-07	1.407503e-06	6.433563e-10	9.810478e+00	4.064818e+01
9.400000e-07	1.534872e-06	9.929810e-10	1.069825e+01	6.367652e+01
9.500000e-07	1.661649e-06	1.348795e-09	1.158191e+01	8.711986e+01
9.600000e-07	1.787747e-06	1.709062e-09	1.246083e+01	1.108250e+02
9.700000e-07	1.913172e-06	2.072668e-09	1.333505e+01	1.346208e+02
9.800000e-07	2.037967e-06	2.435108e-09	1.420489e+01	1.583275e+02
9.900000e-07	2.162204e-06	2.792026e-09	1.507084e+01	1.817658e+02
1.000000e-06	2.285710e-06	3.140560e-09	1.593169e+01	2.047666e+02
1.010000e-06	2.408316e-06	3.479416e-09	1.678627e+01	2.271798e+02
1.020000e-06	2.529910e-06	3.809791e-09	1.763380e+01	2.488810e+02
1.030000e-06	2.650457e-06	4.127481e-09	1.847402e+01	2.697763e+02
1.040000e-06	2.770027e-06	4.432210e-09	1.930744e+01	2.898049e+02
1.050000e-06	2.888636e-06	4.719897e-09	2.013416e+01	3.089377e+02
1.060000e-06	3.006218e-06	4.991547e-09	2.095372e+01	3.271755e+02
1.070000e-06	3.122709e-06	5.252720e-09	2.176568e+01	3.445433e+02
1.080000e-06	3.237976e-06	5.503240e-09	2.256910e+01	3.610848e+02
1.090000e-06	3.351858e-06	5.744782e-09	2.336288e+01	3.768552e+02
1.100000e-06	3.464418e-06	5.973001e-09	2.414744e+01	3.919147e+02
1.110000e-06	3.575709e-06	6.193061e-09	2.492315e+01	4.063224e+02
1.120000e-06	3.685771e-06	6.406156e-09	2.569030e+01	4.201319e+02
1.130000e-06	3.794683e-06	6.609747e-09	2.644943e+01	4.333881e+02
1.140000e-06	3.902417e-06	6.803747e-09	2.720035e+01	4.461255e+02
1.150000e-06	4.008715e-06	6.987194e-09	2.794126e+01	4.583687e+02
1.160000e-06	4.113428e-06	7.161664e-09	2.867112e+01	4.701338e+02
1.170000e-06	4.216643e-06	7.329141e-09	2.939054e+01	4.814306e+02
1.180000e-06	4.318382e-06	7.490811e-09	3.009967e+01	4.922652e+02
1.190000e-06	4.418680e-06	7.649009e-09	3.079877e+01	5.026431e+02
1.200000e-06	4.517405e-06	7.802391e-09	3.148689e+01	5.125712e+02
1.210000e-06	4.614310e-06	7.948408e-09	3.216233e+01	5.220596e+02
1.220000e-06	4.709493e-06	8.088523e-09	3.282577e+01	5.311220e+02
1.230000e-06	4.803078e-06	8.222706e-09	3.347807e+01	5.397759e+02
1.240000e-06	4.895109e-06	8.349725e-09	3.411953e+01	5.480416e+02
1.250000e-06	4.985425e-06	8.468911e-09	3.474905e+01	5.559411e+02
1.260000e-06	5.073776e-06	8.583740e-09	3.536487e+01	5.634964e+02
1.270000e-06	5.160289e-06	8.694281e-09	3.596788e+01	5.707281e+02
1.280000e-06	5.245088e-06	8.799861e-09	3.655894e+01	5.776545e+02
1.290000e-06	5.328047e-06	8.899510e-09	3.713717e+01	5.842909e+02
1.300000e-06	5.409045e-06	8.992861e-09	3.770173e+01	5.906493e+02
1.310000e-06	5.488028e-06	9.081074e-09	3.825225e+01	5.967391e+02
1.320000e-06	5.565053e-06	9.165492e-09	3.878913e+01	6.025680e+02
1.330000e-06	5.639992e-06	9.248018e-09	3.931146e+01	6.081426e+02
1.340000e-06	5.712673e-06	9.329816e-09	3.981806e+01	6.134700e+02
1.350000e-06	5.783241e-06	9.408053e-09	4.030993e+01	6.185582e+02
1.360000e-06	5.851842e-06	9.482285e-09	4.078809e+01	6.234167e+02
1.370000e-06	5.918370e-06	9.554581e-09	4.125179e+01	6.280565e+02
1.380000e-06	5.982705e-06	9.623264e-09	4.170022e+01	6.324898e+02
1.390000e-06	6.044972e-06	9.687610e-09	4.213423e+01	6.367287e+02
1.400000e-06	6.105237e-06	9.749420e-09	4.255428e+01	6.407846e+02
1.410000e-06	6.163385e-06	9.809761e-09	4.295958e+01	6.446671e+02
1.420000e-06	6.219327e-06	9.866176e-09	4.334950e+01	6.483826e+02
1.430000e-06	6.273043e-06	9.917248e-09	4.372391e+01	6.519339e+02
1.440000e-06	6.324263e-06	9.966739e-09	4.408092e+01	6.553203e+02
1.450000e-06	6.372815e-06	1.001536e-08	4.441934e+01	6.585375e+02
1.460000e-06	6.418999e-06	1.006178e-08	4.474124e+01	6.615785e+02
1.470000e-06	6.463074e-06	1.010404e-08	4.504845e+01	6.644353e+02
1.480000e-06	6.504851e-06	1.014360e-08	4.533964e+01	6.670995e+02
1.490000e-06	6.544184e-06	1.018236e-08	4.561380e+01	6.695647e+02
1.500000e-06	6.581299e-06	1.021635e-08	4.587250e+01	6.718268e+02
1.510000e-06	6.616244e-06	1.024535e-08	4.611607e+01	6.738857e+02
1.520000e-06	6.648750e-06	1.027213e-08	4.634264e+01	6.757454e+02
1.530000e-06	6.678883e-06	1.029689e-08	4.655267e+01	6.774137e+02
1.540000e-06	6.706869e-06	1.031923e-08	4.674774e+01	6.789014e+02
1.550000e-06	6.732403e-06	1.033913e-08	4.692571e+01	6.802217e+02
1.560000e-06	6.755319e-06	1.035659e-08	4.708544e+01	6.813883e+02
1.570000e-06	6.775877e-06	1.037196e-08	4.722873e+01	6.824139e+02
1.580000e-06	6.794090e-06	1.038594e-08	4.735568e+01	6.833088e+02
1.590000e-06	6.809803e-06	1.039838e-08	4.746520e+01	6.840803e+02
1.600000e-06	6.822986e-06	1.040837e-08	4.755709e+01	6.847315e+02
1.610000e-06	6.833507e-06	1.041603e-08	4.763042e+01	6.852614e+02
1.620000e-06	6.841409e-06	1.042145e-08	4.768550e+01	6.856657e+02
1.630000e-06	6.846958e-06	1.042595e-08	4.772417e+01	6.859376e+02
1.640000e-06	6.850131e-06	1.042925e-08	4.774629e+01	6.860691e+02
1.650000e-06	6.850771e-06	1.043451e-08	4.775075e+01	6.860524e+02
1.660000e-06	6.849029e-06	1.042855e-08	4.773861e+01	6.858818e+02
1.670000e-06	6.845205e-06	1.042259e-08	4.771195e+01	6.855544e+02
1.680000e-06	6.839059e-06	1.041685e-08	4.766911e+01	6.850716e+02
1.690000e-06	6.830617e-06	1.040747e-08	4.761027e+01	6.844388e+02
1.700000e-06	6.820070e-06	1.039886e-08	4.753676e+01	6.836656e+02
1.710000e-06	6.807131e-06	1.039181e-08	4.744657e+01	6.827653e+02
1.720000e-06	6.791796e-06	1.040549e-08	4.733968e+01	6.817530e+02
1.730000e-06	6.774363e-06	1.035839e-08	4.721817e+01	6.806452e+02
1.740000e-06	6.754663e-06	1.026341e-08	4.708086e+01	6.794573e+02
1.750000e-06	6.731792e-06	1.027969e-08	4.692145e+01	6.782026e+02
1.760000e-06	6.705639e-06	1.027685e-08	4.673916e+01	6.768907e+02
1.770000e-06	6.677024e-06	1.023640e-08	4.653971e+01	6.755266e+02
1.780000e-06	6.646343e-06	1.034820e-08	4.632586e+01	6.741101e+02
1.790000e-06	6.614139e-06	1.025244e-08	4.610139e+01	6.726354e+02
1.800000e-06	6.580491e-06	1.013550e-08	4.586686e+01	6.710922e+02
1.810000e-06	6.544447e-06	1.027638e-08	4.561563e+01	6.694655e+02
1.820000e-06	6.505883e-06	1.013263e-08	4.534684e+01	6.677377e+02
1.830000e-06	6.465189e-06	1.017284e-08	4.506319e+01	6.658893e+02
1.840000e-06	6.422299e-06	1.021485e-08	4.476424e+01	6.639004e+02
1.850000e-06	6.377280e-06	9.985357e-09	4.445046e+01	6.617526e+02
1.860000e-06	6.329860e-06	1.008112e-08	4.411994e+01	6.594298e+02
1.870000e-06	6.280077e-06	9.980585e-09	4.377294e+01	6.569194e+02
1.880000e-06	6.228030e-06	9.939572e-09	4.341017e+01	6.542132e+02
1.890000e-06	6.173201e-06	1.001229e-08	4.302800e+01	6.513076e+02
1.900000e-06	6.115932e-06	9.854212e-09	4.262883e+01	6.482035e+02
1.910000e-06	6.056491e-06	9.897589e-09	4.221451e+01	6.449063e+02
1.920000e-06	5.994709e-06	9.783701e-09	4.178389e+01	6.414249e+02
1.930000e-06	5.930722e-06	9.713557e-09	4.133789e+01	6.377708e+02
1.940000e-06	5.864552e-06	9.715875e-09	4.087668e+01	6.339572e+02
1.950000e-06	5.796324e-06	9.586460e-09	4.040112e+01	6.299971e+02
1.960000e-06	5.725788e-06	9.585547e-09	3.990947e+01	6.259029e+02
1.970000e-06	5.652916e-06	9.444739e-09	3.940154e+01	6.216848e+02
1.980000e-06	5.578003e-06	9.440851e-09	3.887939e+01	6.173497e+02
1.990000e-06	5.500866e-06	9.396892e-09	3.834174e+01	6.129013e+02
2.000000e-06	5.421550e-06	9.272081e-09	3.778889e+01	6.083393e+02
2.010000e-06	5.340282e-06	9.233408e-09	3.722245e+01	6.036596e+02
2.020000e-06	5.257270e-06	9.112327e-09	3.664384e+01	5.988550e+02
2.030000e-06	5.172412e-06	9.068089e-09	3.605237e+01	5.939162e+02
2.040000e-06	5.085515e-06	8.980486e-09	3.544669e+01	5.888327e+02
2.050000e-06	4.996818e-06	8.933884e-09	3.482846e+01	5.835937e+02
2.060000e-06	4.906564e-06	8.846624e-09	3.419938e+01	5.781899e+02
2.070000e-06	4.814732e-06	8.724256e-09	3.355930e+01	5.726141e+02
2.080000e-06	4.721166e-06	8.641424e-09	3.290713e+01	5.668619e+02
2.090000e-06	4.625795e-06	8.556989e-09	3.224238e+01	5.609320e+02
2.100000e-06	4.528801e-06	8.504165e-09	3.156632e+01	5.548262e+02
2.110000e-06	4.430388e-06	8.386766e-09	3.088037e+01	5.485486e+02
2.120000e-06	4.330544e-06	8.288032e-09	3.018445e+01	5.421048e+02
2.130000e-06	4.229162e-06	8.176941e-09	2.947780e+01	5.355007e+02
2.140000e-06	4.126072e-06	8.072344e-09	2.875925e+01	5.287412e+02
2.150000e-06	4.021366e-06	7.970775e-09	2.802944e+01	5.218291e+02
2.160000e-06	3.915306e-06	7.870577e-09	2.729018e+01	5.147639e+02
2.170000e-06	3.807915e-06	7.770602e-09	2.654165e+01	5.075421e+02
2.180000e-06	3.699246e-06	7.650562e-09	2.578422e+01	5.001561e+02
2.190000e-06	3.589167e-06	7.538967e-09	2.501695e+01	4.925957e+02
2.200000e-06	3.477641e-06	7.423055e-09	2.423960e+01	4.848485e+02
2.210000e-06	3.364795e-06	7.307483e-09	2.345305e+01	4.769014e+02
2.220000e-06	3.250645e-06	7.165481e-09	2.265741e+01	4.687418e+02
2.230000e-06	3.135170e-06	7.028220e-09	2.185253e+01	4.603593e+02
2.240000e-06	3.018447e-06	6.895578e-09	2.103896e+01	4.517464e+02
2.250000e-06	2.900537e-06	6.774660e-09	2.021711e+01	4.428993e+02
2.260000e-06	2.781344e-06	6.645497e-09	1.938632e+01	4.338179e+02
2.270000e-06	2.661054e-06	6.504839e-09	1.854789e+01	4.245051e+02
2.280000e-06	2.539912e-06	6.359198e-09	1.770351e+01	4.149658e+02
2.290000e-06	2.417942e-06	6.208585e-09	1.685337e+01	4.052052e+02
2.300000e-06	2.295113e-06	6.063520e-09	1.599723e+01	3.952272e+02
2.310000e-06	2.171525e-06	5.916483e-09	1.513580e+01	3.850329e+02
2.320000e-06	2.047267e-06	5.760677e-09	1.426971e+01	3.746189e+02
2.330000e-06	1.922337e-06	5.587433e-09	1.339893e+01	3.639769e+02
2.340000e-06	1.796768e-06	5.411279e-09	1.252370e+01	3.530932e+02
2.350000e-06	1.670517e-06	5.236324e-09	1.164372e+01	3.419501e+02
2.360000e-06	1.543564e-06	5.068370e-09	1.075884e+01	3.305266e+02
2.370000e-06	1.416009e-06	4.897391e-09	9.869762e+00	3.188005e+02
2.380000e-06	1.287938e-06	4.715391e-09	8.977091e+00	3.067505e+02
2.390000e-06	1.159461e-06	4.524850e-09	8.081592e+00	2.943582e+02
2.400000e-06	1.030664e-06	4.327372e-09	7.183858e+00	2.816092e+02
2.410000e-06	9.015980e-07	4.130948e-09	6.284253e+00	2.684946e+02
2.420000e-06	7.723059e-07	3.928037e-09	5.383071e+00	2.550097e+02
2.430000e-06	6.427971e-07	3.715950e-09	4.480378e+00	2.411540e+02
2.440000e-06	5.130897e-07	3.498891e-09	3.576301e+00	2.269278e+02
2.450000e-06	3.831645e-07	3.277028e-09	2.670706e+00	2.123304e+02
2.460000e-06	2.530819e-07	3.049404e-09	1.764013e+00	1.973564e+02
2.470000e-06	1.229319e-07	2.812794e-09	8.568512e-01	1.819928e+02
2.480000e-06	-7.293206e-09	2.567195e-09	-5.083458e-02	1.662169e+02
2.490000e-06	-1.375851e-07	2.313608e-09	-9.589858e-01	1.499952e+02
2.500000e-06	-2.678568e-07	2.052886e-09	-1.866996e+00	1.332836e+02
2.510000e-06	-3.979916e-07	1.787508e-09	-2.774052e+00	1.160300e+02
2.520000e-06	-5.280054e-07	1.517018e-09	-3.680265e+00	9.817797e+01
2.530000e-06	-6.579065e-07	1.237168e-09	-4.585693e+00	7.967202e+01
2.540000e-06	-7.875819e-07	9.463093e-10	-5.489547e+00	6.046446e+01
2.550000e-06	-9.170415e-07	6.430644e-10	-6.391897e+00	4.052213e+01
2.560000e-06	-1.046211e-06	3.298365e-10	-7.292222e+00	1.983317e+01
2.570000e-06	-1.175033e-06	7.712083e-12	-8.190130e+00	-1.587322e+00
2.580000e-06	-1.303535e-06	-3.267047e-10	-9.085804e+00	-2.369329e+01
2.590000e-06	-1.431629e-06	-6.745987e-10	-9.978634e+00	-4.640604e+01
2.600000e-06	-1.559213e-06	-1.032556e-09	-1.086791e+01	-6.961504e+01
2.610000e-06	-1.686062e-06	-1.397135e-09	-1.175207e+01	-9.318146e+01
2.620000e-06	-1.812069e-06	-1.764533e-09	-1.263035e+01	-1.169441e+02
2.630000e-06	-1.937356e-06	-2.130985e-09	-1.350362e+01	-1.407274e+02
2.640000e-06	-2.061935e-06	-2.494692e-09	-1.437195e+01	-1.643504e+02
2.650000e-06	-2.185742e-06	-2.853556e-09	-1.523490e+01	-1.876370e+02
2.660000e-06	-2.308674e-06	-3.204421e-09	-1.609175e+01	-2.104243e+02
2.670000e-06	-2.430654e-06	-3.541377e-09	-1.694197e+01	-2.325718e+02
2.680000e-06	-2.551787e-06	-3.863470e-09	-1.778628e+01	-2.539666e+02
2.690000e-06	-2.672062e-06	-4.173671e-09	-1.862461e+01	-2.745277e+02
2.700000e-06	-2.791323e-06	-4.472642e-09	-1.945588e+01	-2.942069e+02
2.710000e-06	-2.909453e-06	-4.761763e-09	-2.027926e+01	-3.129874e+02
2.720000e-06	-3.026375e-06	-5.039187e-09	-2.109422e+01	-3.308800e+02
2.730000e-06	-3.142124e-06	-5.302196e-09	-2.190101e+01	-3.479180e+02
2.740000e-06	-3.256601e-06	-5.550713e-09	-2.269893e+01	-3.641504e+02
2.750000e-06	-3.369607e-06	-5.787994e-09	-2.348659e+01	-3.796350e+02
2.760000e-06	-3.481243e-06	-6.017156e-09	-2.426471e+01	-3.944324e+02
2.770000e-06	-3.591597e-06	-6.236741e-09	-2.503389e+01	-4.086000e+02
2.780000e-06	-3.700715e-06	-6.447123e-09	-2.579445e+01	-4.221882e+02
2.790000e-06	-3.808742e-06	-6.649044e-09	-2.654742e+01	-4.352378e+02
2.800000e-06	-3.915582e-06	-6.843864e-09	-2.729211e+01	-4.477794e+02
2.810000e-06	-4.021066e-06	-7.031154e-09	-2.802734e+01	-4.598341e+02
2.820000e-06	-4.125082e-06	-7.208058e-09	-2.875235e+01	-4.714151e+02
2.830000e-06	-4.227490e-06	-7.374314e-09	-2.946615e+01	-4.825305e+02
2.840000e-06	-4.328307e-06	-7.532412e-09	-3.016885e+01	-4.931858e+02
2.850000e-06	-4.427647e-06	-7.685198e-09	-3.086127e+01	-5.033868e+02
2.860000e-06	-4.525536e-06	-7.832658e-09	-3.154356e+01	-5.131416e+02
2.870000e-06	-4.621929e-06	-7.974046e-09	-3.221544e+01	-5.224616e+02
2.880000e-06	-4.716590e-06	-8.109092e-09	-3.287523e+01	-5.313621e+02
2.890000e-06	-4.809440e-06	-8.240345e-09	-3.352241e+01	-5.398617e+02
2.900000e-06	-4.900610e-06	-8.368868e-09	-3.415788e+01	-5.479817e+02
2.910000e-06	-4.990111e-06	-8.492476e-09	-3.478171e+01	-5.557442e+02
2.920000e-06	-5.077765e-06	-8.609587e-09	-3.539267e+01	-5.631708e+02
2.930000e-06	-5.163403e-06	-8.718594e-09	-3.598958e+01	-5.702813e+02
2.940000e-06	-5.247195e-06	-8.821155e-09	-3.657362e+01	-5.770930e+02
