# Temperatura_=_71.15
# Concentracion g/m^3_=_15000.0
# C_Vs_to_Am_M_A/Vsm_=_65563218390.804596
# pendiente_HvsI_1/m_=_3716.3
# ordenada_HvsI_A/m_=_1297.0
# frecuencia_Hz_=_301902.52118081856

Tiempo_(s)	Campo_(V.s)	Magnetizacion_(V.s)	Campo_(kA/m)	Magnetizacion_(A/m)
0.000000e+00	-6.841947e-06	-1.003053e-08	-4.749842e+01	-6.560705e+02
1.000000e-08	-6.839082e-06	-1.002490e-08	-4.747853e+01	-6.558039e+02
2.000000e-08	-6.833935e-06	-1.002128e-08	-4.744280e+01	-6.553885e+02
3.000000e-08	-6.826685e-06	-1.001683e-08	-4.739247e+01	-6.548303e+02
4.000000e-08	-6.817129e-06	-1.000879e-08	-4.732613e+01	-6.541398e+02
5.000000e-08	-6.805132e-06	-9.997017e-09	-4.724284e+01	-6.533305e+02
6.000000e-08	-6.790654e-06	-9.980676e-09	-4.714234e+01	-6.524185e+02
7.000000e-08	-6.773761e-06	-9.964547e-09	-4.702506e+01	-6.514204e+02
8.000000e-08	-6.754708e-06	-9.955685e-09	-4.689279e+01	-6.503519e+02
9.000000e-08	-6.733312e-06	-9.930926e-09	-4.674425e+01	-6.492262e+02
1.000000e-07	-6.709232e-06	-9.921123e-09	-4.657709e+01	-6.480526e+02
1.100000e-07	-6.682383e-06	-9.908187e-09	-4.639069e+01	-6.468356e+02
1.200000e-07	-6.653084e-06	-9.868083e-09	-4.618729e+01	-6.455744e+02
1.300000e-07	-6.621844e-06	-9.830197e-09	-4.597042e+01	-6.442627e+02
1.400000e-07	-6.588745e-06	-9.832657e-09	-4.574063e+01	-6.428893e+02
1.500000e-07	-6.553639e-06	-9.769462e-09	-4.549692e+01	-6.414391e+02
1.600000e-07	-6.516486e-06	-9.743821e-09	-4.523900e+01	-6.398941e+02
1.700000e-07	-6.477309e-06	-9.772708e-09	-4.496701e+01	-6.382346e+02
1.800000e-07	-6.435828e-06	-9.679106e-09	-4.467905e+01	-6.364414e+02
1.900000e-07	-6.391806e-06	-9.663597e-09	-4.437343e+01	-6.344964e+02
2.000000e-07	-6.345445e-06	-9.651168e-09	-4.405159e+01	-6.323842e+02
2.100000e-07	-6.296623e-06	-9.615542e-09	-4.371266e+01	-6.300931e+02
2.200000e-07	-6.245055e-06	-9.616146e-09	-4.335466e+01	-6.276153e+02
2.300000e-07	-6.190961e-06	-9.548637e-09	-4.297912e+01	-6.249478e+02
2.400000e-07	-6.134522e-06	-9.486537e-09	-4.258731e+01	-6.220918e+02
2.500000e-07	-6.075740e-06	-9.425407e-09	-4.217923e+01	-6.190524e+02
2.600000e-07	-6.014712e-06	-9.360654e-09	-4.175556e+01	-6.158382e+02
2.700000e-07	-5.951570e-06	-9.326645e-09	-4.131721e+01	-6.124598e+02
2.800000e-07	-5.886243e-06	-9.278609e-09	-4.086369e+01	-6.089291e+02
2.900000e-07	-5.818629e-06	-9.221192e-09	-4.039431e+01	-6.052583e+02
3.000000e-07	-5.748850e-06	-9.149064e-09	-3.990988e+01	-6.014586e+02
3.100000e-07	-5.676989e-06	-9.108599e-09	-3.941101e+01	-5.975390e+02
3.200000e-07	-5.602923e-06	-9.059826e-09	-3.889682e+01	-5.935061e+02
3.300000e-07	-5.526558e-06	-8.978350e-09	-3.836668e+01	-5.893630e+02
3.400000e-07	-5.447982e-06	-8.918637e-09	-3.782118e+01	-5.851096e+02
3.500000e-07	-5.367226e-06	-8.850326e-09	-3.726056e+01	-5.807421e+02
3.600000e-07	-5.284550e-06	-8.783872e-09	-3.668660e+01	-5.762542e+02
3.700000e-07	-5.200173e-06	-8.714731e-09	-3.610084e+01	-5.716370e+02
3.800000e-07	-5.114083e-06	-8.645372e-09	-3.550318e+01	-5.668807e+02
3.900000e-07	-5.026257e-06	-8.562652e-09	-3.489347e+01	-5.619751e+02
4.000000e-07	-4.936606e-06	-8.466623e-09	-3.427110e+01	-5.569109e+02
4.100000e-07	-4.845181e-06	-8.390569e-09	-3.363640e+01	-5.516806e+02
4.200000e-07	-4.752119e-06	-8.322652e-09	-3.299034e+01	-5.462791e+02
4.300000e-07	-4.657424e-06	-8.242396e-09	-3.233295e+01	-5.407043e+02
4.400000e-07	-4.561089e-06	-8.147132e-09	-3.166416e+01	-5.349569e+02
4.500000e-07	-4.463017e-06	-8.048878e-09	-3.098332e+01	-5.290400e+02
4.600000e-07	-4.363304e-06	-7.954319e-09	-3.029109e+01	-5.229585e+02
4.700000e-07	-4.262128e-06	-7.859086e-09	-2.958871e+01	-5.167179e+02
4.800000e-07	-4.159477e-06	-7.769404e-09	-2.887608e+01	-5.103235e+02
4.900000e-07	-4.055394e-06	-7.676137e-09	-2.815351e+01	-5.037791e+02
5.000000e-07	-3.949799e-06	-7.567503e-09	-2.742045e+01	-4.970858e+02
5.100000e-07	-3.842605e-06	-7.457494e-09	-2.667627e+01	-4.902420e+02
5.200000e-07	-3.734040e-06	-7.351417e-09	-2.592259e+01	-4.832426e+02
5.300000e-07	-3.624263e-06	-7.240691e-09	-2.516050e+01	-4.760798e+02
5.400000e-07	-3.513193e-06	-7.119732e-09	-2.438942e+01	-4.687433e+02
5.500000e-07	-3.400729e-06	-6.997386e-09	-2.360867e+01	-4.612214e+02
5.600000e-07	-3.286795e-06	-6.878027e-09	-2.281771e+01	-4.535026e+02
5.700000e-07	-3.171387e-06	-6.762943e-09	-2.201652e+01	-4.455765e+02
5.800000e-07	-3.054605e-06	-6.647401e-09	-2.120579e+01	-4.374349e+02
5.900000e-07	-2.936707e-06	-6.523033e-09	-2.038732e+01	-4.290723e+02
6.000000e-07	-2.817857e-06	-6.387005e-09	-1.956223e+01	-4.204867e+02
6.100000e-07	-2.698009e-06	-6.244537e-09	-1.873022e+01	-4.116788e+02
6.200000e-07	-2.577139e-06	-6.106704e-09	-1.789111e+01	-4.026514e+02
6.300000e-07	-2.455274e-06	-5.968550e-09	-1.704510e+01	-3.934081e+02
6.400000e-07	-2.332420e-06	-5.822690e-09	-1.619222e+01	-3.839518e+02
6.500000e-07	-2.208634e-06	-5.670043e-09	-1.533286e+01	-3.742833e+02
6.600000e-07	-2.084076e-06	-5.513949e-09	-1.446815e+01	-3.643999e+02
6.700000e-07	-1.958955e-06	-5.357637e-09	-1.359953e+01	-3.542947e+02
6.800000e-07	-1.833253e-06	-5.202417e-09	-1.272688e+01	-3.439562e+02
6.900000e-07	-1.706875e-06	-5.045893e-09	-1.184953e+01	-3.333685e+02
7.000000e-07	-1.579876e-06	-4.880555e-09	-1.096788e+01	-3.225130e+02
7.100000e-07	-1.452331e-06	-4.706523e-09	-1.008243e+01	-3.113692e+02
7.200000e-07	-1.324323e-06	-4.529465e-09	-9.193762e+00	-2.999173e+02
7.300000e-07	-1.195890e-06	-4.349814e-09	-8.302153e+00	-2.881393e+02
7.400000e-07	-1.067027e-06	-4.164593e-09	-7.407555e+00	-2.760210e+02
7.500000e-07	-9.377779e-07	-3.974173e-09	-6.510277e+00	-2.635532e+02
7.600000e-07	-8.082342e-07	-3.778704e-09	-5.610954e+00	-2.507308e+02
7.700000e-07	-6.784622e-07	-3.578707e-09	-4.710046e+00	-2.375532e+02
7.800000e-07	-5.485117e-07	-3.374877e-09	-3.807898e+00	-2.240214e+02
7.900000e-07	-4.184265e-07	-3.166188e-09	-2.904817e+00	-2.101363e+02
8.000000e-07	-2.881503e-07	-2.951489e-09	-2.000408e+00	-1.958955e+02
8.100000e-07	-1.577345e-07	-2.728352e-09	-1.095030e+00	-1.812901e+02
8.200000e-07	-2.723372e-08	-2.497281e-09	-1.890630e-01	-1.663024e+02
8.300000e-07	1.033297e-07	-2.261736e-09	7.173391e-01	-1.509046e+02
8.400000e-07	2.338779e-07	-2.021349e-09	1.623636e+00	-1.350581e+02
8.500000e-07	3.643455e-07	-1.773070e-09	2.529373e+00	-1.187153e+02
8.600000e-07	4.947088e-07	-1.515433e-09	3.434386e+00	-1.018225e+02
8.700000e-07	6.249775e-07	-1.247776e-09	4.338742e+00	-8.432411e+01
8.800000e-07	7.550521e-07	-9.718022e-10	5.241751e+00	-6.616928e+01
8.900000e-07	8.848613e-07	-6.875571e-10	6.142917e+00	-4.731777e+01
9.000000e-07	1.014383e-06	-3.932122e-10	7.042086e+00	-2.774687e+01
9.100000e-07	1.143624e-06	-8.548364e-11	7.939310e+00	-7.457315e+00
9.200000e-07	1.272533e-06	2.362559e-10	8.834225e+00	1.352209e+01
9.300000e-07	1.400945e-06	5.659768e-10	9.725694e+00	3.513172e+01
9.400000e-07	1.528826e-06	8.998315e-10	1.061347e+01	5.728071e+01
9.500000e-07	1.656186e-06	1.239414e-09	1.149764e+01	7.984913e+01
9.600000e-07	1.782903e-06	1.585884e-09	1.237733e+01	1.026925e+02
9.700000e-07	1.908889e-06	1.937526e-09	1.325196e+01	1.256485e+02
9.800000e-07	2.034240e-06	2.287852e-09	1.412218e+01	1.485452e+02
9.900000e-07	2.158997e-06	2.634708e-09	1.498827e+01	1.712102e+02
1.000000e-06	2.282969e-06	2.974291e-09	1.584891e+01	1.934796e+02
1.010000e-06	2.406001e-06	3.304386e-09	1.670303e+01	2.152065e+02
1.020000e-06	2.528110e-06	3.623568e-09	1.755074e+01	2.362678e+02
1.030000e-06	2.649306e-06	3.930127e-09	1.839211e+01	2.565688e+02
1.040000e-06	2.769502e-06	4.223879e-09	1.922654e+01	2.760458e+02
1.050000e-06	2.888640e-06	4.502591e-09	2.005363e+01	2.946659e+02
1.060000e-06	3.006728e-06	4.769373e-09	2.087342e+01	3.124248e+02
1.070000e-06	3.123739e-06	5.025940e-09	2.168574e+01	3.293419e+02
1.080000e-06	3.239488e-06	5.270272e-09	2.248930e+01	3.454555e+02
1.090000e-06	3.353929e-06	5.502636e-09	2.328377e+01	3.608159e+02
1.100000e-06	3.467095e-06	5.723780e-09	2.406940e+01	3.754791e+02
1.110000e-06	3.578952e-06	5.938549e-09	2.484594e+01	3.895013e+02
1.120000e-06	3.689500e-06	6.146215e-09	2.561339e+01	4.029342e+02
1.130000e-06	3.798857e-06	6.342570e-09	2.637257e+01	4.158218e+02
1.140000e-06	3.907041e-06	6.528917e-09	2.712361e+01	4.281987e+02
1.150000e-06	4.013858e-06	6.707614e-09	2.786516e+01	4.400902e+02
1.160000e-06	4.119192e-06	6.878776e-09	2.859641e+01	4.515130e+02
1.170000e-06	4.222987e-06	7.043756e-09	2.931698e+01	4.624776e+02
1.180000e-06	4.325286e-06	7.201669e-09	3.002717e+01	4.729906e+02
1.190000e-06	4.426130e-06	7.352561e-09	3.072725e+01	4.830569e+02
1.200000e-06	4.525408e-06	7.498243e-09	3.141646e+01	4.926827e+02
1.210000e-06	4.623002e-06	7.638629e-09	3.209398e+01	5.018761e+02
1.220000e-06	4.718844e-06	7.774054e-09	3.275934e+01	5.106491e+02
1.230000e-06	4.812965e-06	7.902358e-09	3.341274e+01	5.190168e+02
1.240000e-06	4.905501e-06	8.024815e-09	3.405515e+01	5.269973e+02
1.250000e-06	4.996333e-06	8.142480e-09	3.468573e+01	5.346111e+02
1.260000e-06	5.085293e-06	8.256267e-09	3.530331e+01	5.418790e+02
1.270000e-06	5.172367e-06	8.365766e-09	3.590780e+01	5.488217e+02
1.280000e-06	5.257674e-06	8.469481e-09	3.650002e+01	5.554584e+02
1.290000e-06	5.341185e-06	8.565120e-09	3.707977e+01	5.618062e+02
1.300000e-06	5.422703e-06	8.652700e-09	3.764569e+01	5.678799e+02
1.310000e-06	5.502209e-06	8.733833e-09	3.819764e+01	5.736924e+02
1.320000e-06	5.579738e-06	8.811637e-09	3.873587e+01	5.792549e+02
1.330000e-06	5.655146e-06	8.888800e-09	3.925937e+01	5.845774e+02
1.340000e-06	5.728319e-06	8.966153e-09	3.976735e+01	5.896700e+02
1.350000e-06	5.799365e-06	9.043343e-09	4.026057e+01	5.945428e+02
1.360000e-06	5.868383e-06	9.117101e-09	4.073971e+01	5.992063e+02
1.370000e-06	5.935316e-06	9.187448e-09	4.120438e+01	6.036715e+02
1.380000e-06	6.000099e-06	9.254093e-09	4.165411e+01	6.079491e+02
1.390000e-06	6.062804e-06	9.317112e-09	4.208943e+01	6.120489e+02
1.400000e-06	6.123514e-06	9.377075e-09	4.251089e+01	6.159793e+02
1.410000e-06	6.182123e-06	9.432817e-09	4.291776e+01	6.197458e+02
1.420000e-06	6.238489e-06	9.484697e-09	4.330907e+01	6.233513e+02
1.430000e-06	6.292610e-06	9.533797e-09	4.368479e+01	6.267951e+02
1.440000e-06	6.344347e-06	9.582527e-09	4.404396e+01	6.300734e+02
1.450000e-06	6.393486e-06	9.628943e-09	4.438510e+01	6.331800e+02
1.460000e-06	6.440159e-06	9.673037e-09	4.470911e+01	6.361070e+02
1.470000e-06	6.484575e-06	9.715250e-09	4.501746e+01	6.388462e+02
1.480000e-06	6.526687e-06	9.754919e-09	4.530982e+01	6.413906e+02
1.490000e-06	6.566439e-06	9.792841e-09	4.558578e+01	6.437353e+02
1.500000e-06	6.603938e-06	9.826257e-09	4.584611e+01	6.458790e+02
1.510000e-06	6.639235e-06	9.853586e-09	4.609115e+01	6.478242e+02
1.520000e-06	6.672108e-06	9.876398e-09	4.631936e+01	6.495774e+02
1.530000e-06	6.702596e-06	9.896875e-09	4.653102e+01	6.511487e+02
1.540000e-06	6.730839e-06	9.917093e-09	4.672708e+01	6.525506e+02
1.550000e-06	6.756686e-06	9.936589e-09	4.690652e+01	6.537972e+02
1.560000e-06	6.780003e-06	9.953699e-09	4.706839e+01	6.549020e+02
1.570000e-06	6.800971e-06	9.969183e-09	4.721396e+01	6.558772e+02
1.580000e-06	6.819624e-06	9.983958e-09	4.734345e+01	6.567318e+02
1.590000e-06	6.835718e-06	9.996229e-09	4.745518e+01	6.574713e+02
1.600000e-06	6.849266e-06	1.000547e-08	4.754923e+01	6.580968e+02
1.610000e-06	6.860107e-06	1.001178e-08	4.762449e+01	6.586057e+02
1.620000e-06	6.868216e-06	1.001615e-08	4.768079e+01	6.589923e+02
1.630000e-06	6.873958e-06	1.002017e-08	4.772065e+01	6.592490e+02
1.640000e-06	6.877371e-06	1.002340e-08	4.774434e+01	6.593676e+02
1.650000e-06	6.878294e-06	1.002475e-08	4.775075e+01	6.593412e+02
1.660000e-06	6.876803e-06	1.002388e-08	4.774040e+01	6.591652e+02
1.670000e-06	6.873165e-06	1.002221e-08	4.771515e+01	6.588388e+02
1.680000e-06	6.867256e-06	1.001556e-08	4.767412e+01	6.583655e+02
1.690000e-06	6.859001e-06	1.000691e-08	4.761681e+01	6.577531e+02
1.700000e-06	6.848544e-06	9.997888e-09	4.754422e+01	6.570133e+02
1.710000e-06	6.835730e-06	9.987477e-09	4.745526e+01	6.561609e+02
1.720000e-06	6.820529e-06	9.974646e-09	4.734973e+01	6.552123e+02
1.730000e-06	6.803239e-06	9.944847e-09	4.722970e+01	6.541839e+02
1.740000e-06	6.783712e-06	9.936463e-09	4.709414e+01	6.530907e+02
1.750000e-06	6.761122e-06	9.906997e-09	4.693732e+01	6.519445e+02
1.760000e-06	6.735271e-06	9.874172e-09	4.675785e+01	6.507527e+02
1.770000e-06	6.706806e-06	9.880774e-09	4.656024e+01	6.495179e+02
1.780000e-06	6.676263e-06	9.862496e-09	4.634820e+01	6.482371e+02
1.790000e-06	6.644149e-06	9.830758e-09	4.612526e+01	6.469019e+02
1.800000e-06	6.610473e-06	9.871927e-09	4.589148e+01	6.454996e+02
1.810000e-06	6.574437e-06	9.795667e-09	4.564130e+01	6.440135e+02
1.820000e-06	6.535910e-06	9.778505e-09	4.537384e+01	6.424251e+02
1.830000e-06	6.495318e-06	9.812045e-09	4.509204e+01	6.407145e+02
1.840000e-06	6.452582e-06	9.707395e-09	4.479536e+01	6.388629e+02
1.850000e-06	6.407575e-06	9.720091e-09	4.448291e+01	6.368530e+02
1.860000e-06	6.360185e-06	9.665543e-09	4.415392e+01	6.346709e+02
1.870000e-06	6.310465e-06	9.585406e-09	4.380875e+01	6.323062e+02
1.880000e-06	6.258421e-06	9.593574e-09	4.344744e+01	6.297532e+02
1.890000e-06	6.203650e-06	9.547530e-09	4.306721e+01	6.270104e+02
1.900000e-06	6.146404e-06	9.547268e-09	4.266980e+01	6.240807e+02
1.910000e-06	6.086960e-06	9.491885e-09	4.225712e+01	6.209707e+02
1.920000e-06	6.025153e-06	9.401660e-09	4.182804e+01	6.176898e+02
1.930000e-06	5.961155e-06	9.370379e-09	4.138376e+01	6.142492e+02
1.940000e-06	5.895034e-06	9.300875e-09	4.092473e+01	6.106613e+02
1.950000e-06	5.826789e-06	9.267375e-09	4.045095e+01	6.069378e+02
1.960000e-06	5.756229e-06	9.192656e-09	3.996111e+01	6.030891e+02
1.970000e-06	5.683379e-06	9.142923e-09	3.945537e+01	5.991236e+02
1.980000e-06	5.608437e-06	9.088825e-09	3.893510e+01	5.950464e+02
1.990000e-06	5.531179e-06	9.002028e-09	3.839876e+01	5.908594e+02
2.000000e-06	5.451701e-06	8.958308e-09	3.784700e+01	5.865609e+02
2.010000e-06	5.370307e-06	8.878118e-09	3.728195e+01	5.821462e+02
2.020000e-06	5.287172e-06	8.805931e-09	3.670481e+01	5.776078e+02
2.030000e-06	5.202229e-06	8.732726e-09	3.611511e+01	5.729364e+02
2.040000e-06	5.115239e-06	8.675955e-09	3.551121e+01	5.681218e+02
2.050000e-06	5.026364e-06	8.607891e-09	3.489421e+01	5.631541e+02
2.060000e-06	4.935960e-06	8.510194e-09	3.426661e+01	5.580245e+02
2.070000e-06	4.843985e-06	8.430922e-09	3.362809e+01	5.527266e+02
2.080000e-06	4.750175e-06	8.342914e-09	3.297684e+01	5.472563e+02
2.090000e-06	4.654592e-06	8.262460e-09	3.231329e+01	5.416127e+02
2.100000e-06	4.557444e-06	8.174402e-09	3.163886e+01	5.357973e+02
2.110000e-06	4.458835e-06	8.096807e-09	3.095429e+01	5.298143e+02
2.120000e-06	4.358734e-06	8.011085e-09	3.025937e+01	5.236687e+02
2.130000e-06	4.257018e-06	7.899924e-09	2.955323e+01	5.173664e+02
2.140000e-06	4.153626e-06	7.792958e-09	2.883546e+01	5.109119e+02
2.150000e-06	4.048679e-06	7.693883e-09	2.810689e+01	5.043081e+02
2.160000e-06	3.942438e-06	7.598757e-09	2.736934e+01	4.975553e+02
2.170000e-06	3.834833e-06	7.499269e-09	2.662232e+01	4.906503e+02
2.180000e-06	3.725854e-06	7.397643e-09	2.586576e+01	4.835870e+02
2.190000e-06	3.615446e-06	7.287932e-09	2.509928e+01	4.763564e+02
2.200000e-06	3.503595e-06	7.175771e-09	2.432279e+01	4.689476e+02
2.210000e-06	3.390439e-06	7.057588e-09	2.353723e+01	4.613489e+02
2.220000e-06	3.275938e-06	6.936375e-09	2.274234e+01	4.535490e+02
2.230000e-06	3.160080e-06	6.809574e-09	2.193802e+01	4.455382e+02
2.240000e-06	3.042937e-06	6.680810e-09	2.112479e+01	4.373094e+02
2.250000e-06	2.924576e-06	6.553738e-09	2.030310e+01	4.288585e+02
2.260000e-06	2.805020e-06	6.425759e-09	1.947312e+01	4.201845e+02
2.270000e-06	2.684380e-06	6.296596e-09	1.863560e+01	4.112891e+02
2.280000e-06	2.562844e-06	6.163701e-09	1.779187e+01	4.021756e+02
2.290000e-06	2.440495e-06	6.024498e-09	1.694249e+01	3.928476e+02
2.300000e-06	2.317264e-06	5.880189e-09	1.608700e+01	3.833071e+02
2.310000e-06	2.193228e-06	5.736394e-09	1.522591e+01	3.735540e+02
2.320000e-06	2.068479e-06	5.586593e-09	1.435987e+01	3.635837e+02
2.330000e-06	1.943046e-06	5.428020e-09	1.348908e+01	3.533876e+02
2.340000e-06	1.816956e-06	5.261597e-09	1.261374e+01	3.429524e+02
2.350000e-06	1.690182e-06	5.094803e-09	1.173364e+01	3.322611e+02
2.360000e-06	1.562769e-06	4.927624e-09	1.084911e+01	3.212939e+02
2.370000e-06	1.434760e-06	4.757491e-09	9.960445e+00	3.100306e+02
2.380000e-06	1.306199e-06	4.585358e-09	9.067944e+00	2.984516e+02
2.390000e-06	1.177231e-06	4.406001e-09	8.172615e+00	2.865406e+02
2.400000e-06	1.047958e-06	4.219118e-09	7.275176e+00	2.742850e+02
2.410000e-06	9.184387e-07	4.027012e-09	6.376019e+00	2.616774e+02
2.420000e-06	7.887025e-07	3.832334e-09	5.475360e+00	2.487146e+02
2.430000e-06	6.587326e-07	3.632115e-09	4.573078e+00	2.353968e+02
2.440000e-06	5.285574e-07	3.424347e-09	3.669371e+00	2.217254e+02
2.450000e-06	3.982096e-07	3.207478e-09	2.764466e+00	2.077003e+02
2.460000e-06	2.676570e-07	2.983050e-09	1.858138e+00	1.933169e+02
2.470000e-06	1.369574e-07	2.754245e-09	9.507910e-01	1.785631e+02
2.480000e-06	6.196298e-09	2.521619e-09	4.301618e-02	1.634174e+02
2.490000e-06	-1.246071e-07	2.285050e-09	-8.650524e-01	1.478477e+02
2.500000e-06	-2.553968e-07	2.038803e-09	-1.773026e+00	1.318115e+02
2.510000e-06	-3.860929e-07	1.782058e-09	-2.680348e+00	1.152584e+02
2.520000e-06	-5.166492e-07	1.518399e-09	-3.586701e+00	9.813335e+01
2.530000e-06	-6.470245e-07	1.247297e-09	-4.491798e+00	8.038191e+01
2.540000e-06	-7.772120e-07	9.680227e-10	-5.395590e+00	6.195652e+01
2.550000e-06	-9.071412e-07	6.766045e-10	-6.297590e+00	4.282310e+01
2.560000e-06	-1.036747e-06	3.735864e-10	-7.197345e+00	2.296748e+01
2.570000e-06	-1.166056e-06	6.474799e-11	-8.095041e+00	2.400977e+00
2.580000e-06	-1.295039e-06	-2.543213e-10	-8.990466e+00	-1.883570e+01
2.590000e-06	-1.423608e-06	-5.872454e-10	-9.883028e+00	-4.067057e+01
2.600000e-06	-1.551644e-06	-9.312286e-10	-1.077188e+01	-6.300096e+01
2.610000e-06	-1.678985e-06	-1.284144e-09	-1.165591e+01	-8.569661e+01
2.620000e-06	-1.805593e-06	-1.641912e-09	-1.253486e+01	-1.086051e+02
2.630000e-06	-1.931509e-06	-1.998469e-09	-1.340899e+01	-1.315594e+02
2.640000e-06	-2.056736e-06	-2.350285e-09	-1.427835e+01	-1.543862e+02
2.650000e-06	-2.181214e-06	-2.695392e-09	-1.514250e+01	-1.769154e+02
2.660000e-06	-2.304821e-06	-3.032772e-09	-1.600062e+01	-1.989889e+02
2.670000e-06	-2.427497e-06	-3.358374e-09	-1.685226e+01	-2.204683e+02
2.680000e-06	-2.549282e-06	-3.669491e-09	-1.769772e+01	-2.412413e+02
2.690000e-06	-2.670179e-06	-3.969326e-09	-1.853702e+01	-2.612253e+02
2.700000e-06	-2.789976e-06	-4.260069e-09	-1.936868e+01	-2.803688e+02
2.710000e-06	-2.908624e-06	-4.542973e-09	-2.019236e+01	-2.986505e+02
2.720000e-06	-3.026185e-06	-4.814057e-09	-2.100850e+01	-3.160760e+02
2.730000e-06	-3.142608e-06	-5.068925e-09	-2.181673e+01	-3.326729e+02
2.740000e-06	-3.257755e-06	-5.312020e-09	-2.261611e+01	-3.484850e+02
2.750000e-06	-3.371512e-06	-5.545929e-09	-2.340584e+01	-3.635655e+02
2.760000e-06	-3.483963e-06	-5.771210e-09	-2.418650e+01	-3.779711e+02
2.770000e-06	-3.595106e-06	-5.985750e-09	-2.495808e+01	-3.917568e+02
2.780000e-06	-3.704888e-06	-6.189599e-09	-2.572021e+01	-4.049716e+02
2.790000e-06	-3.813451e-06	-6.385399e-09	-2.647389e+01	-4.176558e+02
2.800000e-06	-3.920783e-06	-6.573300e-09	-2.721901e+01	-4.298403e+02
2.810000e-06	-4.026790e-06	-6.753687e-09	-2.795493e+01	-4.415469e+02
2.820000e-06	-4.131425e-06	-6.926598e-09	-2.868133e+01	-4.527896e+02
2.830000e-06	-4.234490e-06	-7.090029e-09	-2.939684e+01	-4.635770e+02
2.840000e-06	-4.335946e-06	-7.243598e-09	-3.010116e+01	-4.739147e+02
2.850000e-06	-4.435841e-06	-7.392271e-09	-3.079466e+01	-4.838080e+02
2.860000e-06	-4.534186e-06	-7.538013e-09	-3.147740e+01	-4.932635e+02
2.870000e-06	-4.630995e-06	-7.678012e-09	-3.214947e+01	-5.022910e+02
2.880000e-06	-4.726117e-06	-7.809987e-09	-3.280983e+01	-5.109036e+02
2.890000e-06	-4.819546e-06	-7.935339e-09	-3.345843e+01	-5.191177e+02
2.900000e-06	-4.911304e-06	-8.056386e-09	-3.409544e+01	-5.269525e+02
2.910000e-06	-5.001329e-06	-8.172555e-09	-3.472041e+01	-5.344287e+02
2.920000e-06	-5.089552e-06	-8.283484e-09	-3.533288e+01	-5.415673e+02
2.930000e-06	-5.175869e-06	-8.388238e-09	-3.593211e+01	-5.483884e+02
2.940000e-06	-5.260268e-06	-8.487171e-09	-3.651803e+01	-5.549105e+02
