# Temperatura_=_59.03
# Concentracion g/m^3_=_15000.0
# C_Vs_to_Am_M_A/Vsm_=_65563218390.804596
# pendiente_HvsI_1/m_=_3716.3
# ordenada_HvsI_A/m_=_1297.0
# frecuencia_Hz_=_301893.1781257279

Tiempo_(s)	Campo_(V.s)	Magnetizacion_(V.s)	Campo_(kA/m)	Magnetizacion_(A/m)
0.000000e+00	-6.848339e-06	-9.214006e-09	-4.749850e+01	-6.026556e+02
1.000000e-08	-6.845315e-06	-9.211573e-09	-4.747752e+01	-6.024239e+02
2.000000e-08	-6.840028e-06	-9.207199e-09	-4.744085e+01	-6.020599e+02
3.000000e-08	-6.832648e-06	-9.203756e-09	-4.738967e+01	-6.015630e+02
4.000000e-08	-6.822946e-06	-9.198395e-09	-4.732238e+01	-6.009364e+02
5.000000e-08	-6.810736e-06	-9.189045e-09	-4.723769e+01	-6.001880e+02
6.000000e-08	-6.796051e-06	-9.172286e-09	-4.713584e+01	-5.993294e+02
7.000000e-08	-6.779019e-06	-9.150547e-09	-4.701771e+01	-5.983755e+02
8.000000e-08	-6.759833e-06	-9.145286e-09	-4.688464e+01	-5.973431e+02
9.000000e-08	-6.738246e-06	-9.149878e-09	-4.673492e+01	-5.962492e+02
1.000000e-07	-6.713880e-06	-9.124158e-09	-4.656592e+01	-5.951090e+02
1.100000e-07	-6.686757e-06	-9.093793e-09	-4.637780e+01	-5.939347e+02
1.200000e-07	-6.657266e-06	-9.076492e-09	-4.617326e+01	-5.927340e+02
1.300000e-07	-6.625840e-06	-9.030483e-09	-4.595530e+01	-5.915087e+02
1.400000e-07	-6.592526e-06	-8.988652e-09	-4.572424e+01	-5.902547e+02
1.500000e-07	-6.557241e-06	-9.015949e-09	-4.547951e+01	-5.889619e+02
1.600000e-07	-6.519886e-06	-8.962577e-09	-4.522042e+01	-5.876150e+02
1.700000e-07	-6.480468e-06	-8.912629e-09	-4.494703e+01	-5.861947e+02
1.800000e-07	-6.438732e-06	-8.917174e-09	-4.465756e+01	-5.846795e+02
1.900000e-07	-6.394399e-06	-8.877756e-09	-4.435007e+01	-5.830472e+02
2.000000e-07	-6.347754e-06	-8.905151e-09	-4.402656e+01	-5.812773e+02
2.100000e-07	-6.298632e-06	-8.921791e-09	-4.368586e+01	-5.793522e+02
2.200000e-07	-6.246837e-06	-8.881124e-09	-4.332662e+01	-5.772586e+02
2.300000e-07	-6.192576e-06	-8.797531e-09	-4.295028e+01	-5.749888e+02
2.400000e-07	-6.135897e-06	-8.700262e-09	-4.255717e+01	-5.725404e+02
2.500000e-07	-6.076920e-06	-8.666526e-09	-4.214812e+01	-5.699167e+02
2.600000e-07	-6.015739e-06	-8.641671e-09	-4.172378e+01	-5.671254e+02
2.700000e-07	-5.952413e-06	-8.595474e-09	-4.128456e+01	-5.641777e+02
2.800000e-07	-5.886847e-06	-8.544397e-09	-4.082981e+01	-5.610867e+02
2.900000e-07	-5.819001e-06	-8.472333e-09	-4.035925e+01	-5.578659e+02
3.000000e-07	-5.749051e-06	-8.420814e-09	-3.987409e+01	-5.545276e+02
3.100000e-07	-5.676982e-06	-8.401541e-09	-3.937424e+01	-5.510815e+02
3.200000e-07	-5.602648e-06	-8.385396e-09	-3.885867e+01	-5.475340e+02
3.300000e-07	-5.525955e-06	-8.317006e-09	-3.832675e+01	-5.438876e+02
3.400000e-07	-5.447039e-06	-8.233142e-09	-3.777941e+01	-5.401405e+02
3.500000e-07	-5.366116e-06	-8.178022e-09	-3.721814e+01	-5.362877e+02
3.600000e-07	-5.283381e-06	-8.128212e-09	-3.664431e+01	-5.323211e+02
3.700000e-07	-5.198924e-06	-8.076282e-09	-3.605854e+01	-5.282313e+02
3.800000e-07	-5.112698e-06	-7.998297e-09	-3.546049e+01	-5.240081e+02
3.900000e-07	-5.024670e-06	-7.912500e-09	-3.484995e+01	-5.196422e+02
4.000000e-07	-4.934815e-06	-7.833135e-09	-3.422674e+01	-5.151260e+02
4.100000e-07	-4.843147e-06	-7.774202e-09	-3.359095e+01	-5.104544e+02
4.200000e-07	-4.749896e-06	-7.721737e-09	-3.294418e+01	-5.056251e+02
4.300000e-07	-4.655083e-06	-7.642461e-09	-3.228658e+01	-5.006385e+02
4.400000e-07	-4.558513e-06	-7.543714e-09	-3.161679e+01	-4.954975e+02
4.500000e-07	-4.460227e-06	-7.447629e-09	-3.093511e+01	-4.902063e+02
4.600000e-07	-4.360352e-06	-7.373148e-09	-3.024239e+01	-4.847697e+02
4.700000e-07	-4.258989e-06	-7.306633e-09	-2.953937e+01	-4.791922e+02
4.800000e-07	-4.156154e-06	-7.232071e-09	-2.882612e+01	-4.734766e+02
4.900000e-07	-4.051815e-06	-7.134426e-09	-2.810245e+01	-4.676233e+02
5.000000e-07	-3.945990e-06	-7.024309e-09	-2.736848e+01	-4.616303e+02
5.100000e-07	-3.838614e-06	-6.928993e-09	-2.662374e+01	-4.554924e+02
5.200000e-07	-3.729823e-06	-6.845879e-09	-2.586919e+01	-4.492018e+02
5.300000e-07	-3.619834e-06	-6.752242e-09	-2.510633e+01	-4.427489e+02
5.400000e-07	-3.508580e-06	-6.636872e-09	-2.433470e+01	-4.361229e+02
5.500000e-07	-3.395861e-06	-6.517863e-09	-2.355291e+01	-4.293131e+02
5.600000e-07	-3.281682e-06	-6.406996e-09	-2.276099e+01	-4.223099e+02
5.700000e-07	-3.166146e-06	-6.306934e-09	-2.195966e+01	-4.151056e+02
5.800000e-07	-3.049330e-06	-6.208391e-09	-2.114945e+01	-4.076952e+02
5.900000e-07	-2.931326e-06	-6.097620e-09	-2.033100e+01	-4.000764e+02
6.000000e-07	-2.812292e-06	-5.970457e-09	-1.950541e+01	-3.922494e+02
6.100000e-07	-2.692278e-06	-5.840424e-09	-1.867302e+01	-3.842164e+02
6.200000e-07	-2.571203e-06	-5.717484e-09	-1.783327e+01	-3.759806e+02
6.300000e-07	-2.449148e-06	-5.590982e-09	-1.698673e+01	-3.675446e+02
6.400000e-07	-2.326156e-06	-5.450948e-09	-1.613368e+01	-3.589097e+02
6.500000e-07	-2.202263e-06	-5.303672e-09	-1.527439e+01	-3.500744e+02
6.600000e-07	-2.077584e-06	-5.159027e-09	-1.440964e+01	-3.410336e+02
6.700000e-07	-1.952256e-06	-5.020573e-09	-1.354040e+01	-3.317785e+02
6.800000e-07	-1.826339e-06	-4.885599e-09	-1.266707e+01	-3.222964e+02
6.900000e-07	-1.699830e-06	-4.743824e-09	-1.178963e+01	-3.125717e+02
7.000000e-07	-1.572738e-06	-4.588548e-09	-1.090815e+01	-3.025866e+02
7.100000e-07	-1.445104e-06	-4.424689e-09	-1.002291e+01	-2.923232e+02
7.200000e-07	-1.316927e-06	-4.262082e-09	-9.133904e+00	-2.817644e+02
7.300000e-07	-1.188261e-06	-4.099884e-09	-8.241504e+00	-2.708958e+02
7.400000e-07	-1.059207e-06	-3.930133e-09	-7.346418e+00	-2.597066e+02
7.500000e-07	-9.298498e-07	-3.748996e-09	-6.449223e+00	-2.481900e+02
7.600000e-07	-8.001998e-07	-3.561360e-09	-5.550001e+00	-2.363434e+02
7.700000e-07	-6.702567e-07	-3.373661e-09	-4.648746e+00	-2.241667e+02
7.800000e-07	-5.401175e-07	-3.187164e-09	-3.746130e+00	-2.116615e+02
7.900000e-07	-4.098234e-07	-3.000061e-09	-2.842440e+00	-1.988283e+02
8.000000e-07	-2.793943e-07	-2.804834e-09	-1.937814e+00	-1.856643e+02
8.100000e-07	-1.488472e-07	-2.598765e-09	-1.032370e+00	-1.721609e+02
8.200000e-07	-1.817421e-08	-2.384826e-09	-1.260521e-01	-1.583021e+02
8.300000e-07	1.125095e-07	-2.166782e-09	7.803400e-01	-1.440628e+02
8.400000e-07	2.431555e-07	-1.943307e-09	1.686471e+00	-1.294092e+02
8.500000e-07	3.737664e-07	-1.709857e-09	2.592357e+00	-1.143000e+02
8.600000e-07	5.042693e-07	-1.469175e-09	3.497496e+00	-9.868881e+01
8.700000e-07	6.346506e-07	-1.222196e-09	4.401790e+00	-8.252802e+01
8.800000e-07	7.648473e-07	-9.695820e-10	5.304805e+00	-6.577380e+01
8.900000e-07	8.947990e-07	-7.108231e-10	6.206119e+00	-4.839135e+01
9.000000e-07	1.024478e-06	-4.432780e-10	7.105542e+00	-3.036048e+01
9.100000e-07	1.153883e-06	-1.620192e-10	8.003064e+00	-1.168063e+01
9.200000e-07	1.282931e-06	1.325863e-10	8.898113e+00	7.625052e+00
9.300000e-07	1.411466e-06	4.359832e-10	9.789601e+00	2.750716e+01
9.400000e-07	1.539354e-06	7.450626e-10	1.067660e+01	4.788933e+01
9.500000e-07	1.666605e-06	1.060204e-09	1.155919e+01	6.866955e+01
9.600000e-07	1.793274e-06	1.382276e-09	1.243773e+01	8.972357e+01
9.700000e-07	1.919339e-06	1.709980e-09	1.331209e+01	1.109101e+02
9.800000e-07	2.044775e-06	2.037796e-09	1.418209e+01	1.320773e+02
9.900000e-07	2.169591e-06	2.361362e-09	1.504778e+01	1.530706e+02
1.000000e-06	2.293682e-06	2.676733e-09	1.590845e+01	1.737404e+02
1.010000e-06	2.416828e-06	2.982479e-09	1.676256e+01	1.939495e+02
1.020000e-06	2.539001e-06	3.279976e-09	1.760992e+01	2.135793e+02
1.030000e-06	2.660279e-06	3.564859e-09	1.845108e+01	2.325354e+02
1.040000e-06	2.780510e-06	3.836728e-09	1.928498e+01	2.507496e+02
1.050000e-06	2.899577e-06	4.096367e-09	2.011080e+01	2.681816e+02
1.060000e-06	3.017618e-06	4.344288e-09	2.092950e+01	2.848176e+02
1.070000e-06	3.134683e-06	4.583331e-09	2.174144e+01	3.006671e+02
1.080000e-06	3.250574e-06	4.812024e-09	2.254523e+01	3.157589e+02
1.090000e-06	3.365140e-06	5.030310e-09	2.333983e+01	3.301353e+02
1.100000e-06	3.478411e-06	5.238777e-09	2.412545e+01	3.438469e+02
1.110000e-06	3.590280e-06	5.439210e-09	2.490135e+01	3.569468e+02
1.120000e-06	3.700820e-06	5.631334e-09	2.566803e+01	3.694856e+02
1.130000e-06	3.810185e-06	5.815169e-09	2.642656e+01	3.815081e+02
1.140000e-06	3.918346e-06	5.990967e-09	2.717674e+01	3.930507e+02
1.150000e-06	4.025216e-06	6.158627e-09	2.791797e+01	4.041403e+02
1.160000e-06	4.130621e-06	6.320062e-09	2.864904e+01	4.147947e+02
1.170000e-06	4.234448e-06	6.475455e-09	2.936915e+01	4.250243e+02
1.180000e-06	4.336732e-06	6.624302e-09	3.007857e+01	4.348336e+02
1.190000e-06	4.437576e-06	6.766625e-09	3.077800e+01	4.442245e+02
1.200000e-06	4.536913e-06	6.903874e-09	3.146698e+01	4.531983e+02
1.210000e-06	4.634470e-06	7.034212e-09	3.214362e+01	4.617583e+02
1.220000e-06	4.730148e-06	7.159040e-09	3.280722e+01	4.699116e+02
1.230000e-06	4.824145e-06	7.278319e-09	3.345916e+01	4.776695e+02
1.240000e-06	4.916636e-06	7.392215e-09	3.410065e+01	4.850481e+02
1.250000e-06	5.007519e-06	7.499584e-09	3.473100e+01	4.920678e+02
1.260000e-06	5.096450e-06	7.600761e-09	3.534780e+01	4.987516e+02
1.270000e-06	5.183420e-06	7.697510e-09	3.595100e+01	5.051243e+02
1.280000e-06	5.268645e-06	7.790108e-09	3.654211e+01	5.112107e+02
1.290000e-06	5.352078e-06	7.879383e-09	3.712078e+01	5.170339e+02
1.300000e-06	5.433571e-06	7.963314e-09	3.768599e+01	5.226144e+02
1.310000e-06	5.513022e-06	8.042186e-09	3.823705e+01	5.279692e+02
1.320000e-06	5.590496e-06	8.117147e-09	3.877439e+01	5.331118e+02
1.330000e-06	5.665913e-06	8.189679e-09	3.929746e+01	5.380518e+02
1.340000e-06	5.739066e-06	8.262494e-09	3.980484e+01	5.427961e+02
1.350000e-06	5.810050e-06	8.333845e-09	4.029717e+01	5.473493e+02
1.360000e-06	5.879045e-06	8.401090e-09	4.077570e+01	5.517144e+02
1.370000e-06	5.945950e-06	8.464206e-09	4.123974e+01	5.558938e+02
1.380000e-06	6.010631e-06	8.525321e-09	4.168835e+01	5.598900e+02
1.390000e-06	6.073199e-06	8.583454e-09	4.212231e+01	5.637053e+02
1.400000e-06	6.133817e-06	8.637827e-09	4.254274e+01	5.673426e+02
1.410000e-06	6.192314e-06	8.690743e-09	4.294846e+01	5.708046e+02
1.420000e-06	6.248581e-06	8.741053e-09	4.333871e+01	5.740940e+02
1.430000e-06	6.302636e-06	8.788987e-09	4.371363e+01	5.772125e+02
1.440000e-06	6.354183e-06	8.833949e-09	4.407115e+01	5.801612e+02
1.450000e-06	6.403071e-06	8.875788e-09	4.441022e+01	5.829397e+02
1.460000e-06	6.449531e-06	8.916774e-09	4.473246e+01	5.855467e+02
1.470000e-06	6.493887e-06	8.953854e-09	4.504010e+01	5.879801e+02
1.480000e-06	6.535927e-06	8.987097e-09	4.533168e+01	5.902375e+02
1.490000e-06	6.575503e-06	9.018424e-09	4.560617e+01	5.923170e+02
1.500000e-06	6.612892e-06	9.046534e-09	4.586549e+01	5.942180e+02
1.510000e-06	6.648086e-06	9.070257e-09	4.610959e+01	5.959415e+02
1.520000e-06	6.680851e-06	9.092087e-09	4.633684e+01	5.974913e+02
1.530000e-06	6.711184e-06	9.112618e-09	4.654722e+01	5.988735e+02
1.540000e-06	6.739341e-06	9.131314e-09	4.674251e+01	6.000966e+02
1.550000e-06	6.765072e-06	9.147641e-09	4.692098e+01	6.011712e+02
1.560000e-06	6.788159e-06	9.160773e-09	4.708110e+01	6.021091e+02
1.570000e-06	6.808923e-06	9.172546e-09	4.722512e+01	6.029219e+02
1.580000e-06	6.827357e-06	9.184360e-09	4.735297e+01	6.036205e+02
1.590000e-06	6.843229e-06	9.194242e-09	4.746306e+01	6.042136e+02
1.600000e-06	6.856565e-06	9.200287e-09	4.755555e+01	6.047071e+02
1.610000e-06	6.867218e-06	9.204514e-09	4.762944e+01	6.051034e+02
1.620000e-06	6.875170e-06	9.208393e-09	4.768459e+01	6.054014e+02
1.630000e-06	6.880746e-06	9.213022e-09	4.772327e+01	6.055969e+02
1.640000e-06	6.883976e-06	9.217305e-09	4.774567e+01	6.056835e+02
1.650000e-06	6.884709e-06	9.219716e-09	4.775075e+01	6.056534e+02
1.660000e-06	6.883056e-06	9.215448e-09	4.773929e+01	6.054993e+02
1.670000e-06	6.879266e-06	9.209856e-09	4.771300e+01	6.052153e+02
1.680000e-06	6.873158e-06	9.202859e-09	4.767064e+01	6.047982e+02
1.690000e-06	6.864731e-06	9.194339e-09	4.761219e+01	6.042490e+02
1.700000e-06	6.854179e-06	9.186138e-09	4.753901e+01	6.035727e+02
1.710000e-06	6.841292e-06	9.178026e-09	4.744962e+01	6.027786e+02
1.720000e-06	6.825982e-06	9.173040e-09	4.734344e+01	6.018800e+02
1.730000e-06	6.808552e-06	9.143301e-09	4.722255e+01	6.008925e+02
1.740000e-06	6.788863e-06	9.099193e-09	4.708598e+01	5.998332e+02
1.750000e-06	6.765990e-06	9.093971e-09	4.692734e+01	5.987187e+02
1.760000e-06	6.739799e-06	9.080858e-09	4.674569e+01	5.975631e+02
1.770000e-06	6.711106e-06	9.054934e-09	4.654668e+01	5.963772e+02
1.780000e-06	6.680342e-06	9.084322e-09	4.633331e+01	5.951662e+02
1.790000e-06	6.648030e-06	9.049967e-09	4.610920e+01	5.939297e+02
1.800000e-06	6.614239e-06	9.003692e-09	4.587483e+01	5.926613e+02
1.810000e-06	6.577988e-06	9.053447e-09	4.562341e+01	5.913486e+02
1.820000e-06	6.539270e-06	9.028458e-09	4.535487e+01	5.899746e+02
1.830000e-06	6.498510e-06	9.017796e-09	4.507216e+01	5.885189e+02
1.840000e-06	6.455503e-06	8.970538e-09	4.477388e+01	5.869596e+02
1.850000e-06	6.410304e-06	8.856970e-09	4.446039e+01	5.852749e+02
1.860000e-06	6.362708e-06	8.848977e-09	4.413027e+01	5.834451e+02
1.870000e-06	6.312719e-06	8.796807e-09	4.378356e+01	5.814544e+02
1.880000e-06	6.260418e-06	8.813267e-09	4.342081e+01	5.792915e+02
1.890000e-06	6.205393e-06	8.864915e-09	4.303917e+01	5.769507e+02
1.900000e-06	6.147944e-06	8.786287e-09	4.264072e+01	5.744321e+02
1.910000e-06	6.088282e-06	8.742990e-09	4.222692e+01	5.717407e+02
1.920000e-06	6.026274e-06	8.653392e-09	4.179684e+01	5.688857e+02
1.930000e-06	5.962067e-06	8.605276e-09	4.135152e+01	5.658794e+02
1.940000e-06	5.895739e-06	8.617802e-09	4.089149e+01	5.627351e+02
1.950000e-06	5.827301e-06	8.558980e-09	4.041681e+01	5.594660e+02
1.960000e-06	5.756457e-06	8.503580e-09	3.992546e+01	5.560837e+02
1.970000e-06	5.683335e-06	8.408307e-09	3.941830e+01	5.525965e+02
1.980000e-06	5.608119e-06	8.362916e-09	3.889662e+01	5.490094e+02
1.990000e-06	5.530586e-06	8.327210e-09	3.835887e+01	5.453231e+02
2.000000e-06	5.450930e-06	8.274327e-09	3.780639e+01	5.415345e+02
2.010000e-06	5.369374e-06	8.221308e-09	3.724074e+01	5.376373e+02
2.020000e-06	5.286042e-06	8.126196e-09	3.666277e+01	5.336228e+02
2.030000e-06	5.200833e-06	8.062261e-09	3.607178e+01	5.294810e+02
2.040000e-06	5.113610e-06	7.998558e-09	3.546682e+01	5.252021e+02
2.050000e-06	5.024565e-06	7.949310e-09	3.484922e+01	5.207772e+02
2.060000e-06	4.933929e-06	7.882891e-09	3.422059e+01	5.161997e+02
2.070000e-06	4.841753e-06	7.796589e-09	3.358128e+01	5.114655e+02
2.080000e-06	4.747786e-06	7.723209e-09	3.292955e+01	5.065735e+02
2.090000e-06	4.652012e-06	7.659253e-09	3.226528e+01	5.015251e+02
2.100000e-06	4.554654e-06	7.606159e-09	3.159003e+01	4.963238e+02
2.110000e-06	4.455824e-06	7.522166e-09	3.090457e+01	4.909742e+02
2.120000e-06	4.355452e-06	7.420845e-09	3.020841e+01	4.854811e+02
2.130000e-06	4.253492e-06	7.307745e-09	2.950124e+01	4.798483e+02
2.140000e-06	4.149895e-06	7.214602e-09	2.878272e+01	4.740780e+02
2.150000e-06	4.044707e-06	7.140361e-09	2.805316e+01	4.681696e+02
2.160000e-06	3.938215e-06	7.069989e-09	2.731455e+01	4.621197e+02
2.170000e-06	3.830376e-06	6.984980e-09	2.656660e+01	4.559221e+02
2.180000e-06	3.721111e-06	6.874394e-09	2.580877e+01	4.495683e+02
2.190000e-06	3.610467e-06	6.766973e-09	2.504137e+01	4.430479e+02
2.200000e-06	3.498467e-06	6.673091e-09	2.426456e+01	4.363502e+02
2.210000e-06	3.385119e-06	6.583627e-09	2.347841e+01	4.294647e+02
2.220000e-06	3.270480e-06	6.469149e-09	2.268329e+01	4.223826e+02
2.230000e-06	3.154464e-06	6.337344e-09	2.187863e+01	4.150971e+02
2.240000e-06	3.037064e-06	6.208829e-09	2.106437e+01	4.076042e+02
2.250000e-06	2.918486e-06	6.096984e-09	2.024194e+01	3.999027e+02
2.260000e-06	2.798753e-06	5.991250e-09	1.941151e+01	3.919938e+02
2.270000e-06	2.677917e-06	5.881958e-09	1.857341e+01	3.838800e+02
2.280000e-06	2.556174e-06	5.761627e-09	1.772903e+01	3.755645e+02
2.290000e-06	2.433596e-06	5.628071e-09	1.687886e+01	3.670497e+02
2.300000e-06	2.310150e-06	5.494862e-09	1.602267e+01	3.583357e+02
2.310000e-06	2.186003e-06	5.367473e-09	1.516161e+01	3.494197e+02
2.320000e-06	2.061102e-06	5.232310e-09	1.429533e+01	3.402953e+02
2.330000e-06	1.935366e-06	5.076934e-09	1.342325e+01	3.309520e+02
2.340000e-06	1.809001e-06	4.913802e-09	1.254681e+01	3.213759e+02
2.350000e-06	1.682071e-06	4.757722e-09	1.166646e+01	3.115503e+02
2.360000e-06	1.554549e-06	4.613741e-09	1.078199e+01	3.014573e+02
2.370000e-06	1.426484e-06	4.469235e-09	9.893765e+00	2.910790e+02
2.380000e-06	1.297916e-06	4.312143e-09	9.002044e+00	2.803993e+02
2.390000e-06	1.168876e-06	4.140347e-09	8.107053e+00	2.694051e+02
2.400000e-06	1.039433e-06	3.961130e-09	7.209271e+00	2.580872e+02
2.410000e-06	9.097069e-07	3.787599e-09	6.309517e+00	2.464403e+02
2.420000e-06	7.797828e-07	3.613221e-09	5.408394e+00	2.344632e+02
2.430000e-06	6.496703e-07	3.426286e-09	4.505963e+00	2.221565e+02
2.440000e-06	5.193736e-07	3.225171e-09	3.602255e+00	2.095218e+02
2.450000e-06	3.889266e-07	3.017385e-09	2.697505e+00	1.965585e+02
2.460000e-06	2.583744e-07	2.814283e-09	1.792025e+00	1.832619e+02
2.470000e-06	1.276990e-07	2.613389e-09	8.856908e-01	1.696206e+02
2.480000e-06	-3.066346e-09	2.406247e-09	-2.126747e-02	1.556150e+02
2.490000e-06	-1.338016e-07	2.187084e-09	-9.280168e-01	1.412167e+02
2.500000e-06	-2.645294e-07	1.952452e-09	-1.834715e+00	1.263887e+02
2.510000e-06	-3.953085e-07	1.709509e-09	-2.741768e+00	1.110873e+02
2.520000e-06	-5.259753e-07	1.466046e-09	-3.648043e+00	9.526500e+01
2.530000e-06	-6.564424e-07	1.218001e-09	-4.552933e+00	7.887521e+01
2.540000e-06	-7.867119e-07	9.591471e-10	-5.456452e+00	6.187693e+01
2.550000e-06	-9.167593e-07	6.870990e-10	-6.358431e+00	4.424044e+01
2.560000e-06	-1.046557e-06	4.072968e-10	-7.258675e+00	2.595272e+01
2.570000e-06	-1.176018e-06	1.242367e-10	-8.156586e+00	7.022105e+00
2.580000e-06	-1.305065e-06	-1.682619e-10	-9.051633e+00	-1.251814e+01
2.590000e-06	-1.433686e-06	-4.746964e-10	-9.943716e+00	-3.260800e+01
2.600000e-06	-1.561788e-06	-7.942343e-10	-1.083220e+01	-5.316077e+01
2.610000e-06	-1.689194e-06	-1.120360e-09	-1.171586e+01	-7.406518e+01
2.620000e-06	-1.815897e-06	-1.445420e-09	-1.259464e+01	-9.518956e+01
2.630000e-06	-1.941997e-06	-1.767773e-09	-1.346924e+01	-1.163876e+02
2.640000e-06	-2.067422e-06	-2.088584e-09	-1.433916e+01	-1.375056e+02
2.650000e-06	-2.191928e-06	-2.407291e-09	-1.520271e+01	-1.583899e+02
2.660000e-06	-2.315467e-06	-2.721851e-09	-1.605954e+01	-1.788948e+02
2.670000e-06	-2.438100e-06	-3.026024e-09	-1.691010e+01	-1.988900e+02
2.680000e-06	-2.559875e-06	-3.316078e-09	-1.775470e+01	-2.182657e+02
2.690000e-06	-2.680780e-06	-3.596580e-09	-1.859327e+01	-2.369376e+02
2.700000e-06	-2.800641e-06	-3.871467e-09	-1.942460e+01	-2.548486e+02
2.710000e-06	-2.919417e-06	-4.140272e-09	-2.024841e+01	-2.719689e+02
2.720000e-06	-3.037125e-06	-4.395666e-09	-2.106480e+01	-2.882943e+02
2.730000e-06	-3.153571e-06	-4.634371e-09	-2.187244e+01	-3.038425e+02
2.740000e-06	-3.268698e-06	-4.859989e-09	-2.267094e+01	-3.186483e+02
2.750000e-06	-3.382497e-06	-5.077568e-09	-2.346022e+01	-3.327580e+02
2.760000e-06	-3.494940e-06	-5.288410e-09	-2.424010e+01	-3.462238e+02
2.770000e-06	-3.605995e-06	-5.487547e-09	-2.501035e+01	-3.590981e+02
2.780000e-06	-3.715695e-06	-5.675913e-09	-2.577120e+01	-3.714299e+02
2.790000e-06	-3.824185e-06	-5.856008e-09	-2.652366e+01	-3.832608e+02
2.800000e-06	-3.931511e-06	-6.031137e-09	-2.726805e+01	-3.946234e+02
2.810000e-06	-4.037545e-06	-6.199934e-09	-2.800348e+01	-4.055412e+02
2.820000e-06	-4.142104e-06	-6.358232e-09	-2.872867e+01	-4.160286e+02
2.830000e-06	-4.245149e-06	-6.507491e-09	-2.944338e+01	-4.260934e+02
2.840000e-06	-4.346595e-06	-6.647167e-09	-3.014698e+01	-4.357389e+02
2.850000e-06	-4.446439e-06	-6.783817e-09	-3.083947e+01	-4.449664e+02
2.860000e-06	-4.544826e-06	-6.919642e-09	-3.152186e+01	-4.537778e+02
2.870000e-06	-4.641739e-06	-7.053323e-09	-3.219403e+01	-4.621778e+02
2.880000e-06	-4.736942e-06	-7.179716e-09	-3.285434e+01	-4.701748e+02
2.890000e-06	-4.830313e-06	-7.296564e-09	-3.350194e+01	-4.777823e+02
2.900000e-06	-4.922014e-06	-7.407995e-09	-3.413795e+01	-4.850180e+02
2.910000e-06	-5.012056e-06	-7.513840e-09	-3.476246e+01	-4.919035e+02
2.920000e-06	-5.100249e-06	-7.615240e-09	-3.537415e+01	-4.984628e+02
2.930000e-06	-5.186453e-06	-7.710047e-09	-3.597204e+01	-5.047209e+02
2.940000e-06	-5.270718e-06	-7.799852e-09	-3.655648e+01	-5.107020e+02
