# Temperatura_=_67.12
# Concentracion g/m^3_=_15000.0
# C_Vs_to_Am_M_A/Vsm_=_65563218390.804596
# pendiente_HvsI_1/m_=_3716.3
# ordenada_HvsI_A/m_=_1297.0
# frecuencia_Hz_=_301899.1398899905

Tiempo_(s)	Campo_(V.s)	Magnetizacion_(V.s)	Campo_(kA/m)	Magnetizacion_(A/m)
0.000000e+00	-6.864805e-06	-9.793638e-09	-4.749950e+01	-6.401042e+02
1.000000e-08	-6.862107e-06	-9.788349e-09	-4.748083e+01	-6.398389e+02
2.000000e-08	-6.857094e-06	-9.785343e-09	-4.744614e+01	-6.394286e+02
3.000000e-08	-6.849982e-06	-9.779385e-09	-4.739693e+01	-6.388779e+02
4.000000e-08	-6.840627e-06	-9.769499e-09	-4.733220e+01	-6.381958e+02
5.000000e-08	-6.828773e-06	-9.758446e-09	-4.725018e+01	-6.373952e+02
6.000000e-08	-6.814399e-06	-9.743141e-09	-4.715072e+01	-6.364918e+02
7.000000e-08	-6.797604e-06	-9.731571e-09	-4.703451e+01	-6.355032e+02
8.000000e-08	-6.778600e-06	-9.722240e-09	-4.690302e+01	-6.344465e+02
9.000000e-08	-6.757303e-06	-9.682822e-09	-4.675565e+01	-6.333373e+02
1.000000e-07	-6.733267e-06	-9.679860e-09	-4.658935e+01	-6.321877e+02
1.100000e-07	-6.706454e-06	-9.680804e-09	-4.640382e+01	-6.310051e+02
1.200000e-07	-6.677221e-06	-9.646476e-09	-4.620154e+01	-6.297914e+02
1.300000e-07	-6.645927e-06	-9.621720e-09	-4.598501e+01	-6.285425e+02
1.400000e-07	-6.612765e-06	-9.617748e-09	-4.575556e+01	-6.272485e+02
1.500000e-07	-6.577685e-06	-9.521798e-09	-4.551283e+01	-6.258943e+02
1.600000e-07	-6.540532e-06	-9.494345e-09	-4.525576e+01	-6.244611e+02
1.700000e-07	-6.501245e-06	-9.531092e-09	-4.498392e+01	-6.229276e+02
1.800000e-07	-6.459675e-06	-9.417806e-09	-4.469628e+01	-6.212716e+02
1.900000e-07	-6.415604e-06	-9.441323e-09	-4.439135e+01	-6.194720e+02
2.000000e-07	-6.369192e-06	-9.451514e-09	-4.407021e+01	-6.175101e+02
2.100000e-07	-6.320252e-06	-9.411479e-09	-4.373158e+01	-6.153713e+02
2.200000e-07	-6.268580e-06	-9.428810e-09	-4.337405e+01	-6.130455e+02
2.300000e-07	-6.214427e-06	-9.328566e-09	-4.299934e+01	-6.105280e+02
2.400000e-07	-6.157925e-06	-9.243446e-09	-4.260840e+01	-6.078196e+02
2.500000e-07	-6.099131e-06	-9.191500e-09	-4.220158e+01	-6.049258e+02
2.600000e-07	-6.038121e-06	-9.135710e-09	-4.177944e+01	-6.018564e+02
2.700000e-07	-5.974925e-06	-9.113046e-09	-4.134217e+01	-5.986238e+02
2.800000e-07	-5.909497e-06	-9.063524e-09	-4.088945e+01	-5.952422e+02
2.900000e-07	-5.841828e-06	-8.996627e-09	-4.042123e+01	-5.917259e+02
3.000000e-07	-5.771995e-06	-8.910329e-09	-3.993804e+01	-5.880877e+02
3.100000e-07	-5.700000e-06	-8.894131e-09	-3.943988e+01	-5.843382e+02
3.200000e-07	-5.625789e-06	-8.874745e-09	-3.892640e+01	-5.804844e+02
3.300000e-07	-5.549318e-06	-8.789005e-09	-3.839727e+01	-5.765294e+02
3.400000e-07	-5.470599e-06	-8.730250e-09	-3.785260e+01	-5.724721e+02
3.500000e-07	-5.389761e-06	-8.650809e-09	-3.729325e+01	-5.683079e+02
3.600000e-07	-5.307029e-06	-8.585747e-09	-3.672081e+01	-5.640287e+02
3.700000e-07	-5.222542e-06	-8.526032e-09	-3.613622e+01	-5.596247e+02
3.800000e-07	-5.136358e-06	-8.460321e-09	-3.553989e+01	-5.550846e+02
3.900000e-07	-5.048371e-06	-8.380607e-09	-3.493108e+01	-5.503976e+02
4.000000e-07	-4.958501e-06	-8.287116e-09	-3.430924e+01	-5.455544e+02
4.100000e-07	-4.866891e-06	-8.221327e-09	-3.367537e+01	-5.405477e+02
4.200000e-07	-4.773685e-06	-8.155950e-09	-3.303046e+01	-5.353733e+02
4.300000e-07	-4.678861e-06	-8.077111e-09	-3.237434e+01	-5.300301e+02
4.400000e-07	-4.582247e-06	-7.976567e-09	-3.170584e+01	-5.245198e+02
4.500000e-07	-4.483929e-06	-7.877593e-09	-3.102555e+01	-5.188465e+02
4.600000e-07	-4.383992e-06	-7.793276e-09	-3.033406e+01	-5.130156e+02
4.700000e-07	-4.282589e-06	-7.711986e-09	-2.963242e+01	-5.070325e+02
4.800000e-07	-4.179746e-06	-7.635443e-09	-2.892082e+01	-5.009018e+02
4.900000e-07	-4.075342e-06	-7.541837e-09	-2.819843e+01	-4.946260e+02
5.000000e-07	-3.969463e-06	-7.427317e-09	-2.746582e+01	-4.882047e+02
5.100000e-07	-3.862021e-06	-7.317739e-09	-2.672240e+01	-4.816341e+02
5.200000e-07	-3.753117e-06	-7.223885e-09	-2.596886e+01	-4.749070e+02
5.300000e-07	-3.643071e-06	-7.122838e-09	-2.520742e+01	-4.680136e+02
5.400000e-07	-3.531733e-06	-7.003983e-09	-2.443704e+01	-4.609419e+02
5.500000e-07	-3.418807e-06	-6.879918e-09	-2.365568e+01	-4.536793e+02
5.600000e-07	-3.304424e-06	-6.759169e-09	-2.286423e+01	-4.462137e+02
5.700000e-07	-3.188696e-06	-6.649533e-09	-2.206347e+01	-4.385348e+02
5.800000e-07	-3.071680e-06	-6.544741e-09	-2.125381e+01	-4.306350e+02
5.900000e-07	-2.953562e-06	-6.430965e-09	-2.043651e+01	-4.225102e+02
6.000000e-07	-2.834401e-06	-6.299328e-09	-1.961200e+01	-4.141598e+02
6.100000e-07	-2.714149e-06	-6.159122e-09	-1.877995e+01	-4.055860e+02
6.200000e-07	-2.592832e-06	-6.024136e-09	-1.794053e+01	-3.967930e+02
6.300000e-07	-2.470586e-06	-5.887616e-09	-1.709467e+01	-3.877857e+02
6.400000e-07	-2.347451e-06	-5.740166e-09	-1.624266e+01	-3.785679e+02
6.500000e-07	-2.223375e-06	-5.586188e-09	-1.538415e+01	-3.691409e+02
6.600000e-07	-2.098472e-06	-5.433763e-09	-1.451991e+01	-3.595024e+02
6.700000e-07	-1.972947e-06	-5.287061e-09	-1.365137e+01	-3.496453e+02
6.800000e-07	-1.846861e-06	-5.142987e-09	-1.277895e+01	-3.395578e+02
6.900000e-07	-1.720173e-06	-4.993122e-09	-1.190236e+01	-3.292238e+02
7.000000e-07	-1.592924e-06	-4.829714e-09	-1.102188e+01	-3.186244e+02
7.100000e-07	-1.465081e-06	-4.655852e-09	-1.013730e+01	-3.077390e+02
7.200000e-07	-1.336613e-06	-4.480738e-09	-9.248399e+00	-2.965475e+02
7.300000e-07	-1.207642e-06	-4.306814e-09	-8.356013e+00	-2.850323e+02
7.400000e-07	-1.078262e-06	-4.128694e-09	-7.460795e+00	-2.731797e+02
7.500000e-07	-9.485153e-07	-3.941693e-09	-6.563041e+00	-2.609805e+02
7.600000e-07	-8.185145e-07	-3.747023e-09	-5.663529e+00	-2.484307e+02
7.700000e-07	-6.883346e-07	-3.548709e-09	-4.762778e+00	-2.355303e+02
7.800000e-07	-5.579675e-07	-3.349198e-09	-3.860732e+00	-2.222813e+02
7.900000e-07	-4.274241e-07	-3.149517e-09	-2.957466e+00	-2.086857e+02
8.000000e-07	-2.966988e-07	-2.942900e-09	-2.052942e+00	-1.947419e+02
8.100000e-07	-1.658261e-07	-2.723594e-09	-1.147397e+00	-1.804427e+02
8.200000e-07	-3.485042e-08	-2.495954e-09	-2.411397e-01	-1.657718e+02
8.300000e-07	9.617581e-08	-2.263525e-09	6.654672e-01	-1.507030e+02
8.400000e-07	2.272169e-07	-2.026489e-09	1.572177e+00	-1.351996e+02
8.500000e-07	3.581986e-07	-1.780859e-09	2.478476e+00	-1.192158e+02
8.600000e-07	4.890089e-07	-1.528318e-09	3.383588e+00	-1.026993e+02
8.700000e-07	6.196558e-07	-1.268382e-09	4.287570e+00	-8.559611e+01
8.800000e-07	7.501291e-07	-9.998029e-10	5.190352e+00	-6.785598e+01
8.900000e-07	8.803857e-07	-7.238526e-10	6.091634e+00	-4.943877e+01
9.000000e-07	1.010410e-06	-4.383407e-10	6.991309e+00	-3.032089e+01
9.100000e-07	1.140178e-06	-1.393547e-10	7.889211e+00	-1.050118e+01
9.200000e-07	1.269609e-06	1.747954e-10	8.784774e+00	9.994502e+00
9.300000e-07	1.398591e-06	4.991084e-10	9.677236e+00	3.111045e+01
9.400000e-07	1.526972e-06	8.276957e-10	1.056554e+01	5.276056e+01
9.500000e-07	1.654648e-06	1.161685e-09	1.144897e+01	7.483019e+01
9.600000e-07	1.781683e-06	1.502153e-09	1.232796e+01	9.718038e+01
9.700000e-07	1.908065e-06	1.846331e-09	1.320243e+01	1.196542e+02
9.800000e-07	2.033779e-06	2.188171e-09	1.407228e+01	1.420845e+02
9.900000e-07	2.158849e-06	2.526708e-09	1.493768e+01	1.643029e+02
1.000000e-06	2.283251e-06	2.861811e-09	1.579845e+01	1.861484e+02
1.010000e-06	2.406857e-06	3.187535e-09	1.665371e+01	2.074758e+02
1.020000e-06	2.529538e-06	3.501326e-09	1.750258e+01	2.281622e+02
1.030000e-06	2.651316e-06	3.803261e-09	1.834519e+01	2.481121e+02
1.040000e-06	2.772024e-06	4.092500e-09	1.918041e+01	2.672602e+02
1.050000e-06	2.891537e-06	4.367454e-09	2.000734e+01	2.855709e+02
1.060000e-06	3.010002e-06	4.627419e-09	2.082704e+01	3.030369e+02
1.070000e-06	3.127452e-06	4.876732e-09	2.163971e+01	3.196749e+02
1.080000e-06	3.243776e-06	5.115167e-09	2.244458e+01	3.355203e+02
1.090000e-06	3.358850e-06	5.342999e-09	2.324082e+01	3.506212e+02
1.100000e-06	3.472556e-06	5.561332e-09	2.402758e+01	3.650319e+02
1.110000e-06	3.584762e-06	5.772682e-09	2.480396e+01	3.788077e+02
1.120000e-06	3.695593e-06	5.977055e-09	2.557083e+01	3.919996e+02
1.130000e-06	3.805288e-06	6.171812e-09	2.632985e+01	4.046516e+02
1.140000e-06	3.913867e-06	6.358047e-09	2.708113e+01	4.167987e+02
1.150000e-06	4.021225e-06	6.534519e-09	2.782397e+01	4.284664e+02
1.160000e-06	4.127097e-06	6.701803e-09	2.855653e+01	4.396717e+02
1.170000e-06	4.231339e-06	6.861616e-09	2.927781e+01	4.504255e+02
1.180000e-06	4.334045e-06	7.014687e-09	2.998846e+01	4.607342e+02
1.190000e-06	4.435280e-06	7.162901e-09	3.068894e+01	4.706030e+02
1.200000e-06	4.535006e-06	7.307704e-09	3.137897e+01	4.800378e+02
1.210000e-06	4.633055e-06	7.445946e-09	3.205739e+01	4.890469e+02
1.220000e-06	4.729252e-06	7.577533e-09	3.272301e+01	4.976423e+02
1.230000e-06	4.823705e-06	7.703913e-09	3.337656e+01	5.058398e+02
1.240000e-06	4.916591e-06	7.825574e-09	3.401926e+01	5.136585e+02
1.250000e-06	5.007875e-06	7.940113e-09	3.465087e+01	5.211197e+02
1.260000e-06	5.097332e-06	8.049573e-09	3.526985e+01	5.282460e+02
1.270000e-06	5.184856e-06	8.155063e-09	3.587546e+01	5.350592e+02
1.280000e-06	5.270535e-06	8.254761e-09	3.646830e+01	5.415797e+02
1.290000e-06	5.354420e-06	8.347263e-09	3.704872e+01	5.478254e+02
1.300000e-06	5.436363e-06	8.434192e-09	3.761571e+01	5.538113e+02
1.310000e-06	5.516276e-06	8.518406e-09	3.816865e+01	5.595492e+02
1.320000e-06	5.594232e-06	8.599272e-09	3.870804e+01	5.650488e+02
1.330000e-06	5.670165e-06	8.677796e-09	3.923345e+01	5.703177e+02
1.340000e-06	5.743767e-06	8.755934e-09	3.974272e+01	5.753628e+02
1.350000e-06	5.815112e-06	8.832070e-09	4.023638e+01	5.801906e+02
1.360000e-06	5.884497e-06	8.903348e-09	4.071647e+01	5.848081e+02
1.370000e-06	5.951856e-06	8.970313e-09	4.118255e+01	5.892229e+02
1.380000e-06	6.017023e-06	9.034501e-09	4.163345e+01	5.934430e+02
1.390000e-06	6.080031e-06	9.097297e-09	4.206942e+01	5.974764e+02
1.400000e-06	6.141040e-06	9.155767e-09	4.249156e+01	6.013308e+02
1.410000e-06	6.199930e-06	9.209739e-09	4.289904e+01	6.050124e+02
1.420000e-06	6.256576e-06	9.261534e-09	4.329098e+01	6.085255e+02
1.430000e-06	6.311030e-06	9.311453e-09	4.366777e+01	6.118719e+02
1.440000e-06	6.363066e-06	9.360040e-09	4.402782e+01	6.150509e+02
1.450000e-06	6.412390e-06	9.406384e-09	4.436911e+01	6.180594e+02
1.460000e-06	6.459193e-06	9.451180e-09	4.469295e+01	6.208925e+02
1.470000e-06	6.503846e-06	9.492899e-09	4.500192e+01	6.235446e+02
1.480000e-06	6.546327e-06	9.529668e-09	4.529586e+01	6.260102e+02
1.490000e-06	6.586393e-06	9.563118e-09	4.557309e+01	6.282853e+02
1.500000e-06	6.624143e-06	9.593305e-09	4.583429e+01	6.303682e+02
1.510000e-06	6.659693e-06	9.619837e-09	4.608027e+01	6.322605e+02
1.520000e-06	6.692789e-06	9.643648e-09	4.630927e+01	6.339668e+02
1.530000e-06	6.723452e-06	9.665324e-09	4.652143e+01	6.354954e+02
1.540000e-06	6.751931e-06	9.686485e-09	4.671849e+01	6.368569e+02
1.550000e-06	6.778008e-06	9.706507e-09	4.689892e+01	6.380637e+02
1.560000e-06	6.801500e-06	9.723842e-09	4.706147e+01	6.391285e+02
1.570000e-06	6.822588e-06	9.738290e-09	4.720738e+01	6.400629e+02
1.580000e-06	6.841320e-06	9.751694e-09	4.733699e+01	6.408767e+02
1.590000e-06	6.857565e-06	9.763140e-09	4.744939e+01	6.415760e+02
1.600000e-06	6.871273e-06	9.771656e-09	4.754424e+01	6.421638e+02
1.610000e-06	6.882270e-06	9.777473e-09	4.762033e+01	6.426389e+02
1.620000e-06	6.890558e-06	9.780593e-09	4.767768e+01	6.429972e+02
1.630000e-06	6.896446e-06	9.782150e-09	4.771842e+01	6.432320e+02
1.640000e-06	6.900022e-06	9.783186e-09	4.774317e+01	6.433358e+02
1.650000e-06	6.901118e-06	9.783542e-09	4.775075e+01	6.433015e+02
1.660000e-06	6.899792e-06	9.782504e-09	4.774158e+01	6.431237e+02
1.670000e-06	6.896289e-06	9.781961e-09	4.771734e+01	6.428003e+02
1.680000e-06	6.890495e-06	9.774673e-09	4.767725e+01	6.423333e+02
1.690000e-06	6.882318e-06	9.766022e-09	4.762067e+01	6.417288e+02
1.700000e-06	6.871905e-06	9.756826e-09	4.754862e+01	6.409976e+02
1.710000e-06	6.859234e-06	9.744113e-09	4.746094e+01	6.401538e+02
1.720000e-06	6.844178e-06	9.724922e-09	4.735677e+01	6.392140e+02
1.730000e-06	6.826921e-06	9.694073e-09	4.723737e+01	6.381957e+02
1.740000e-06	6.807407e-06	9.707135e-09	4.710234e+01	6.371159e+02
1.750000e-06	6.784853e-06	9.677392e-09	4.694628e+01	6.359887e+02
1.760000e-06	6.759039e-06	9.637464e-09	4.676767e+01	6.348248e+02
1.770000e-06	6.730603e-06	9.637867e-09	4.657091e+01	6.336292e+02
1.780000e-06	6.700040e-06	9.596105e-09	4.635944e+01	6.324017e+02
1.790000e-06	6.667842e-06	9.577245e-09	4.613665e+01	6.311357e+02
1.800000e-06	6.634175e-06	9.659562e-09	4.590370e+01	6.298192e+02
1.810000e-06	6.598264e-06	9.576816e-09	4.565522e+01	6.284356e+02
1.820000e-06	6.559834e-06	9.565312e-09	4.538931e+01	6.269648e+02
1.830000e-06	6.519234e-06	9.591729e-09	4.510839e+01	6.253849e+02
1.840000e-06	6.476468e-06	9.446128e-09	4.481248e+01	6.236741e+02
1.850000e-06	6.431561e-06	9.492663e-09	4.450176e+01	6.218119e+02
1.860000e-06	6.384212e-06	9.426356e-09	4.417414e+01	6.197812e+02
1.870000e-06	6.334405e-06	9.338994e-09	4.382951e+01	6.175690e+02
1.880000e-06	6.282280e-06	9.394573e-09	4.346884e+01	6.151673e+02
1.890000e-06	6.227512e-06	9.342310e-09	4.308988e+01	6.125736e+02
1.900000e-06	6.170299e-06	9.362567e-09	4.269401e+01	6.097906e+02
1.910000e-06	6.110746e-06	9.285864e-09	4.228195e+01	6.068257e+02
1.920000e-06	6.048844e-06	9.174955e-09	4.185363e+01	6.036897e+02
1.930000e-06	5.984745e-06	9.165382e-09	4.141011e+01	6.003960e+02
1.940000e-06	5.918503e-06	9.090751e-09	4.095177e+01	5.969590e+02
1.950000e-06	5.850123e-06	9.092993e-09	4.047862e+01	5.933926e+02
1.960000e-06	5.779399e-06	9.004009e-09	3.998927e+01	5.897087e+02
1.970000e-06	5.706435e-06	8.949517e-09	3.948441e+01	5.859168e+02
1.980000e-06	5.631325e-06	8.889692e-09	3.896470e+01	5.820222e+02
1.990000e-06	5.553898e-06	8.794010e-09	3.842897e+01	5.780265e+02
2.000000e-06	5.474340e-06	8.788931e-09	3.787848e+01	5.739271e+02
2.010000e-06	5.392893e-06	8.694410e-09	3.731492e+01	5.697180e+02
2.020000e-06	5.309650e-06	8.627986e-09	3.673894e+01	5.653903e+02
2.030000e-06	5.224498e-06	8.546916e-09	3.614976e+01	5.609332e+02
2.040000e-06	5.137296e-06	8.487553e-09	3.554638e+01	5.563358e+02
2.050000e-06	5.048233e-06	8.425451e-09	3.493013e+01	5.515877e+02
2.060000e-06	4.957573e-06	8.332170e-09	3.430282e+01	5.466801e+02
2.070000e-06	4.865310e-06	8.278063e-09	3.366443e+01	5.416070e+02
2.080000e-06	4.771286e-06	8.183003e-09	3.301386e+01	5.363655e+02
2.090000e-06	4.675563e-06	8.109604e-09	3.235152e+01	5.309554e+02
2.100000e-06	4.578223e-06	8.019130e-09	3.167800e+01	5.253797e+02
2.110000e-06	4.479365e-06	7.948437e-09	3.099397e+01	5.196429e+02
2.120000e-06	4.378960e-06	7.855809e-09	3.029924e+01	5.137507e+02
2.130000e-06	4.276873e-06	7.737228e-09	2.959287e+01	5.077083e+02
2.140000e-06	4.173146e-06	7.639449e-09	2.887516e+01	5.015197e+02
2.150000e-06	4.067875e-06	7.550962e-09	2.814675e+01	4.951861e+02
2.160000e-06	3.961233e-06	7.471830e-09	2.740887e+01	4.887060e+02
2.170000e-06	3.853297e-06	7.372591e-09	2.666203e+01	4.820741e+02
2.180000e-06	3.743995e-06	7.270197e-09	2.590574e+01	4.752821e+02
2.190000e-06	3.633281e-06	7.152444e-09	2.513968e+01	4.683193e+02
2.200000e-06	3.521190e-06	7.048247e-09	2.436409e+01	4.611733e+02
2.210000e-06	3.407732e-06	6.940080e-09	2.357904e+01	4.538315e+02
2.220000e-06	3.292914e-06	6.826365e-09	2.278458e+01	4.462823e+02
2.230000e-06	3.176703e-06	6.696459e-09	2.198049e+01	4.385165e+02
2.240000e-06	3.059124e-06	6.561648e-09	2.116693e+01	4.305278e+02
2.250000e-06	2.940363e-06	6.436468e-09	2.034519e+01	4.223135e+02
2.260000e-06	2.820524e-06	6.317212e-09	1.951599e+01	4.138740e+02
2.270000e-06	2.699574e-06	6.203653e-09	1.867910e+01	4.052127e+02
2.280000e-06	2.577650e-06	6.077170e-09	1.783548e+01	3.963341e+02
2.290000e-06	2.454910e-06	5.938422e-09	1.698620e+01	3.872429e+02
2.300000e-06	2.331334e-06	5.791975e-09	1.613115e+01	3.779421e+02
2.310000e-06	2.207001e-06	5.651693e-09	1.527085e+01	3.684318e+02
2.320000e-06	2.081849e-06	5.506829e-09	1.440489e+01	3.587076e+02
2.330000e-06	1.955882e-06	5.351031e-09	1.353329e+01	3.487608e+02
2.340000e-06	1.829280e-06	5.184173e-09	1.265730e+01	3.385778e+02
2.350000e-06	1.702129e-06	5.017697e-09	1.177750e+01	3.281411e+02
2.360000e-06	1.574415e-06	4.856821e-09	1.089381e+01	3.174309e+02
2.370000e-06	1.446099e-06	4.697805e-09	1.000596e+01	3.064267e+02
2.380000e-06	1.317219e-06	4.532016e-09	9.114201e+00	2.951092e+02
2.390000e-06	1.187883e-06	4.351367e-09	8.219289e+00	2.834620e+02
2.400000e-06	1.058239e-06	4.163930e-09	7.322252e+00	2.714731e+02
2.410000e-06	9.283567e-07	3.977551e-09	6.423558e+00	2.591356e+02
2.420000e-06	7.981928e-07	3.790883e-09	5.522918e+00	2.464471e+02
2.430000e-06	6.677377e-07	3.595801e-09	4.620263e+00	2.334086e+02
2.440000e-06	5.371148e-07	3.388105e-09	3.716447e+00	2.200225e+02
2.450000e-06	4.063643e-07	3.171277e-09	2.811747e+00	2.062897e+02
2.460000e-06	2.754713e-07	2.953732e-09	1.906063e+00	1.922068e+02
2.470000e-06	1.444607e-07	2.736339e-09	9.995636e-01	1.777631e+02
2.480000e-06	1.335904e-08	2.514880e-09	9.243490e-02	1.629388e+02
2.490000e-06	-1.177511e-07	2.283274e-09	-8.147524e-01	1.477034e+02
2.500000e-06	-2.488373e-07	2.036421e-09	-1.721774e+00	1.320163e+02
2.510000e-06	-3.798400e-07	1.779180e-09	-2.628218e+00	1.158288e+02
2.520000e-06	-5.106642e-07	1.519841e-09	-3.533427e+00	9.908736e+01
2.530000e-06	-6.413648e-07	1.257075e-09	-4.437781e+00	8.173869e+01
2.540000e-06	-7.719324e-07	9.864384e-10	-5.341215e+00	6.373574e+01
2.550000e-06	-9.022492e-07	7.026335e-10	-6.242913e+00	4.504412e+01
2.560000e-06	-1.032285e-06	4.072068e-10	-7.142668e+00	2.564841e+01
2.570000e-06	-1.162021e-06	1.061159e-10	-8.040346e+00	5.557604e+00
2.580000e-06	-1.291417e-06	-2.050288e-10	-8.935671e+00	-1.519093e+01
2.590000e-06	-1.420398e-06	-5.314008e-10	-9.828129e+00	-3.652948e+01
2.600000e-06	-1.548891e-06	-8.701911e-10	-1.071721e+01	-5.836038e+01
2.610000e-06	-1.676751e-06	-1.215535e-09	-1.160191e+01	-8.055879e+01
2.620000e-06	-1.803902e-06	-1.562817e-09	-1.248170e+01	-1.029778e+02
2.630000e-06	-1.930437e-06	-1.909161e-09	-1.335723e+01	-1.254556e+02
2.640000e-06	-2.056281e-06	-2.253163e-09	-1.422798e+01	-1.478234e+02
2.650000e-06	-2.181257e-06	-2.592234e-09	-1.509272e+01	-1.699146e+02
2.660000e-06	-2.305304e-06	-2.923816e-09	-1.595104e+01	-1.915737e+02
2.670000e-06	-2.428447e-06	-3.242794e-09	-1.680310e+01	-2.126633e+02
2.680000e-06	-2.550655e-06	-3.547764e-09	-1.764869e+01	-2.330709e+02
2.690000e-06	-2.671923e-06	-3.843137e-09	-1.848778e+01	-2.527128e+02
2.700000e-06	-2.792217e-06	-4.130407e-09	-1.932012e+01	-2.715353e+02
2.710000e-06	-2.911467e-06	-4.410477e-09	-2.014525e+01	-2.895144e+02
2.720000e-06	-3.029677e-06	-4.679079e-09	-2.096317e+01	-3.066528e+02
2.730000e-06	-3.146607e-06	-4.930476e-09	-2.177225e+01	-3.229753e+02
2.740000e-06	-3.262161e-06	-5.166739e-09	-2.257180e+01	-3.385228e+02
2.750000e-06	-3.376413e-06	-5.393519e-09	-2.336234e+01	-3.533468e+02
2.760000e-06	-3.489317e-06	-5.613074e-09	-2.414356e+01	-3.675024e+02
2.770000e-06	-3.600792e-06	-5.822796e-09	-2.491488e+01	-3.810439e+02
2.780000e-06	-3.710879e-06	-6.023187e-09	-2.567660e+01	-3.940198e+02
2.790000e-06	-3.819759e-06	-6.214961e-09	-2.642997e+01	-4.064707e+02
2.800000e-06	-3.927458e-06	-6.400129e-09	-2.717518e+01	-4.184277e+02
2.810000e-06	-4.033895e-06	-6.578663e-09	-2.791164e+01	-4.299129e+02
2.820000e-06	-4.138919e-06	-6.747570e-09	-2.863833e+01	-4.409407e+02
2.830000e-06	-4.242432e-06	-6.907643e-09	-2.935456e+01	-4.515198e+02
2.840000e-06	-4.344338e-06	-7.058278e-09	-3.005968e+01	-4.616560e+02
2.850000e-06	-4.444615e-06	-7.201733e-09	-3.075353e+01	-4.713543e+02
2.860000e-06	-4.543346e-06	-7.340940e-09	-3.143667e+01	-4.806215e+02
2.870000e-06	-4.640544e-06	-7.475342e-09	-3.210922e+01	-4.894672e+02
2.880000e-06	-4.736148e-06	-7.604293e-09	-3.277072e+01	-4.979051e+02
2.890000e-06	-4.829979e-06	-7.728241e-09	-3.341997e+01	-5.059522e+02
2.900000e-06	-4.922070e-06	-7.849745e-09	-3.405717e+01	-5.136286e+02
2.910000e-06	-5.012484e-06	-7.966718e-09	-3.468277e+01	-5.209564e+02
2.920000e-06	-5.101094e-06	-8.076544e-09	-3.529589e+01	-5.279580e+02
2.930000e-06	-5.187733e-06	-8.179070e-09	-3.589537e+01	-5.346547e+02
2.940000e-06	-5.272409e-06	-8.276113e-09	-3.648126e+01	-5.410662e+02
