# Temperatura_=_47.11
# Concentracion g/m^3_=_15000.0
# C_Vs_to_Am_M_A/Vsm_=_65563218390.804596
# pendiente_HvsI_1/m_=_3716.3
# ordenada_HvsI_A/m_=_1297.0
# frecuencia_Hz_=_301898.41514417244

Tiempo_(s)	Campo_(V.s)	Magnetizacion_(V.s)	Campo_(kA/m)	Magnetizacion_(A/m)
0.000000e+00	-6.872542e-06	-8.707060e-09	-4.749966e+01	-5.688196e+02
1.000000e-08	-6.869817e-06	-8.702043e-09	-4.748083e+01	-5.686536e+02
2.000000e-08	-6.864823e-06	-8.699995e-09	-4.744631e+01	-5.683688e+02
3.000000e-08	-6.857694e-06	-8.695632e-09	-4.739704e+01	-5.679694e+02
4.000000e-08	-6.848219e-06	-8.688298e-09	-4.733155e+01	-5.674637e+02
5.000000e-08	-6.836268e-06	-8.680980e-09	-4.724895e+01	-5.668628e+02
6.000000e-08	-6.821872e-06	-8.671526e-09	-4.714945e+01	-5.661803e+02
7.000000e-08	-6.805073e-06	-8.668495e-09	-4.703334e+01	-5.654305e+02
8.000000e-08	-6.786068e-06	-8.665400e-09	-4.690199e+01	-5.646276e+02
9.000000e-08	-6.764724e-06	-8.623460e-09	-4.675447e+01	-5.637835e+02
1.000000e-07	-6.740619e-06	-8.615718e-09	-4.658787e+01	-5.629069e+02
1.100000e-07	-6.713749e-06	-8.620447e-09	-4.640216e+01	-5.620020e+02
1.200000e-07	-6.684525e-06	-8.589417e-09	-4.620017e+01	-5.610678e+02
1.300000e-07	-6.653248e-06	-8.567974e-09	-4.598400e+01	-5.600986e+02
1.400000e-07	-6.620016e-06	-8.578206e-09	-4.575432e+01	-5.590835e+02
1.500000e-07	-6.584854e-06	-8.485857e-09	-4.551130e+01	-5.580080e+02
1.600000e-07	-6.547654e-06	-8.472345e-09	-4.525419e+01	-5.568552e+02
1.700000e-07	-6.508338e-06	-8.530246e-09	-4.498246e+01	-5.556069e+02
1.800000e-07	-6.466707e-06	-8.417748e-09	-4.469472e+01	-5.542456e+02
1.900000e-07	-6.422556e-06	-8.437159e-09	-4.438957e+01	-5.527557e+02
2.000000e-07	-6.376069e-06	-8.438233e-09	-4.406828e+01	-5.511246e+02
2.100000e-07	-6.327093e-06	-8.395543e-09	-4.372978e+01	-5.493438e+02
2.200000e-07	-6.275473e-06	-8.433554e-09	-4.337301e+01	-5.474090e+02
2.300000e-07	-6.221409e-06	-8.353042e-09	-4.299935e+01	-5.453202e+02
2.400000e-07	-6.164898e-06	-8.270416e-09	-4.260877e+01	-5.430812e+02
2.500000e-07	-6.106048e-06	-8.223791e-09	-4.220203e+01	-5.406988e+02
2.600000e-07	-6.044999e-06	-8.185012e-09	-4.178009e+01	-5.381816e+02
2.700000e-07	-5.981733e-06	-8.180218e-09	-4.134282e+01	-5.355391e+02
2.800000e-07	-5.916185e-06	-8.140466e-09	-4.088978e+01	-5.327808e+02
2.900000e-07	-5.848388e-06	-8.085002e-09	-4.042121e+01	-5.299149e+02
3.000000e-07	-5.778487e-06	-8.002155e-09	-3.993809e+01	-5.269477e+02
3.100000e-07	-5.706408e-06	-7.983061e-09	-3.943991e+01	-5.238833e+02
3.200000e-07	-5.632046e-06	-7.974292e-09	-3.892595e+01	-5.207232e+02
3.300000e-07	-5.555370e-06	-7.901779e-09	-3.839601e+01	-5.174665e+02
3.400000e-07	-5.476464e-06	-7.852321e-09	-3.785065e+01	-5.141104e+02
3.500000e-07	-5.395507e-06	-7.786616e-09	-3.729111e+01	-5.106502e+02
3.600000e-07	-5.312713e-06	-7.736250e-09	-3.671888e+01	-5.070803e+02
3.700000e-07	-5.228214e-06	-7.691154e-09	-3.613486e+01	-5.033948e+02
3.800000e-07	-5.141997e-06	-7.638005e-09	-3.553898e+01	-4.995877e+02
3.900000e-07	-5.054008e-06	-7.566362e-09	-3.493084e+01	-4.956537e+02
4.000000e-07	-4.964119e-06	-7.477785e-09	-3.430957e+01	-4.915884e+02
4.100000e-07	-4.872454e-06	-7.418524e-09	-3.367602e+01	-4.873887e+02
4.200000e-07	-4.779180e-06	-7.368979e-09	-3.303136e+01	-4.830527e+02
4.300000e-07	-4.684244e-06	-7.307672e-09	-3.237521e+01	-4.785795e+02
4.400000e-07	-4.587547e-06	-7.219599e-09	-3.170689e+01	-4.739693e+02
4.500000e-07	-4.489052e-06	-7.132583e-09	-3.102614e+01	-4.692227e+02
4.600000e-07	-4.389001e-06	-7.060059e-09	-3.033463e+01	-4.643408e+02
4.700000e-07	-4.287502e-06	-6.990703e-09	-2.963312e+01	-4.593241e+02
4.800000e-07	-4.184513e-06	-6.931197e-09	-2.892131e+01	-4.541727e+02
4.900000e-07	-4.080055e-06	-6.856660e-09	-2.819935e+01	-4.488858e+02
5.000000e-07	-3.974006e-06	-6.755769e-09	-2.746639e+01	-4.434613e+02
5.100000e-07	-3.866462e-06	-6.656099e-09	-2.672310e+01	-4.378956e+02
5.200000e-07	-3.757550e-06	-6.574490e-09	-2.597035e+01	-4.321841e+02
5.300000e-07	-3.647349e-06	-6.492228e-09	-2.520870e+01	-4.263209e+02
5.400000e-07	-3.535880e-06	-6.392102e-09	-2.443828e+01	-4.202993e+02
5.500000e-07	-3.422905e-06	-6.284931e-09	-2.365745e+01	-4.141122e+02
5.600000e-07	-3.308356e-06	-6.181813e-09	-2.286575e+01	-4.077525e+02
5.700000e-07	-3.192440e-06	-6.087090e-09	-2.206459e+01	-4.012138e+02
5.800000e-07	-3.075337e-06	-5.997610e-09	-2.125523e+01	-3.944905e+02
5.900000e-07	-2.957112e-06	-5.902615e-09	-2.043811e+01	-3.875781e+02
6.000000e-07	-2.837786e-06	-5.789700e-09	-1.961339e+01	-3.804733e+02
6.100000e-07	-2.717452e-06	-5.668091e-09	-1.878170e+01	-3.731736e+02
6.200000e-07	-2.596152e-06	-5.554656e-09	-1.794333e+01	-3.656772e+02
6.300000e-07	-2.473759e-06	-5.442148e-09	-1.709742e+01	-3.579824e+02
6.400000e-07	-2.350326e-06	-5.318806e-09	-1.624431e+01	-3.500866e+02
6.500000e-07	-2.226099e-06	-5.185790e-09	-1.538571e+01	-3.419860e+02
6.600000e-07	-2.101202e-06	-5.050340e-09	-1.452248e+01	-3.336745e+02
6.700000e-07	-1.975638e-06	-4.919227e-09	-1.365465e+01	-3.251438e+02
6.800000e-07	-1.849437e-06	-4.792975e-09	-1.278241e+01	-3.163829e+02
6.900000e-07	-1.722598e-06	-4.665437e-09	-1.190576e+01	-3.073788e+02
7.000000e-07	-1.595097e-06	-4.526074e-09	-1.102453e+01	-2.981162e+02
7.100000e-07	-1.466990e-06	-4.375523e-09	-1.013912e+01	-2.885793e+02
7.200000e-07	-1.338460e-06	-4.221309e-09	-9.250785e+00	-2.787524e+02
7.300000e-07	-1.209581e-06	-4.066284e-09	-8.360036e+00	-2.686209e+02
7.400000e-07	-1.080344e-06	-3.906213e-09	-7.466810e+00	-2.581724e+02
7.500000e-07	-9.507232e-07	-3.738221e-09	-6.570935e+00	-2.473976e+02
7.600000e-07	-8.207008e-07	-3.563341e-09	-5.672283e+00	-2.362901e+02
7.700000e-07	-6.902954e-07	-3.385526e-09	-4.770985e+00	-2.248464e+02
7.800000e-07	-5.595763e-07	-3.207504e-09	-3.867519e+00	-2.130647e+02
7.900000e-07	-4.286632e-07	-3.028446e-09	-2.962711e+00	-2.009436e+02
8.000000e-07	-2.975891e-07	-2.843673e-09	-2.056791e+00	-1.884804e+02
8.100000e-07	-1.663970e-07	-2.649779e-09	-1.150055e+00	-1.756687e+02
8.200000e-07	-3.509034e-08	-2.449094e-09	-2.425273e-01	-1.624968e+02
8.300000e-07	9.630089e-08	-2.243299e-09	6.655848e-01	-1.489465e+02
8.400000e-07	2.276318e-07	-2.032328e-09	1.573280e+00	-1.349921e+02
8.500000e-07	3.588821e-07	-1.811999e-09	2.480418e+00	-1.206011e+02
8.600000e-07	4.900743e-07	-1.582872e-09	3.387154e+00	-1.057355e+02
8.700000e-07	6.211639e-07	-1.345752e-09	4.293182e+00	-9.035482e+01
8.800000e-07	7.520145e-07	-1.102846e-09	5.197558e+00	-7.441979e+01
8.900000e-07	8.825063e-07	-8.551317e-10	6.099453e+00	-5.789695e+01
9.000000e-07	1.012656e-06	-6.001885e-10	6.998981e+00	-4.076367e+01
9.100000e-07	1.142418e-06	-3.345898e-10	7.895833e+00	-2.301309e+01
9.200000e-07	1.271755e-06	-5.623960e-11	8.789748e+00	-4.658495e+00
9.300000e-07	1.400708e-06	2.314630e-10	9.681013e+00	1.426355e+01
9.400000e-07	1.529247e-06	5.267194e-10	1.056941e+01	3.369147e+01
9.500000e-07	1.657212e-06	8.292785e-10	1.145384e+01	5.353886e+01
9.600000e-07	1.784452e-06	1.137257e-09	1.233326e+01	7.369665e+01
9.700000e-07	1.910967e-06	1.450048e-09	1.320767e+01	9.403707e+01
9.800000e-07	2.036810e-06	1.763745e-09	1.407744e+01	1.144194e+02
9.900000e-07	2.161976e-06	2.076518e-09	1.494252e+01	1.346966e+02
1.000000e-06	2.286461e-06	2.384873e-09	1.580290e+01	1.547231e+02
1.010000e-06	2.410232e-06	2.684337e-09	1.665835e+01	1.743618e+02
1.020000e-06	2.533047e-06	2.974565e-09	1.750718e+01	1.934910e+02
1.030000e-06	2.654827e-06	3.253063e-09	1.834887e+01	2.120099e+02
1.040000e-06	2.775647e-06	3.519624e-09	1.918392e+01	2.298422e+02
1.050000e-06	2.895380e-06	3.775973e-09	2.001145e+01	2.469377e+02
1.060000e-06	3.014032e-06	4.021501e-09	2.083152e+01	2.632723e+02
1.070000e-06	3.131680e-06	4.256908e-09	2.164464e+01	2.788453e+02
1.080000e-06	3.248217e-06	4.479435e-09	2.245009e+01	2.936761e+02
1.090000e-06	3.363431e-06	4.691390e-09	2.324640e+01	3.077986e+02
1.100000e-06	3.477266e-06	4.895001e-09	2.403316e+01	3.212563e+02
1.110000e-06	3.589651e-06	5.091745e-09	2.480992e+01	3.340963e+02
1.120000e-06	3.700628e-06	5.279917e-09	2.557693e+01	3.463648e+02
1.130000e-06	3.810427e-06	5.459247e-09	2.633581e+01	3.581029e+02
1.140000e-06	3.919096e-06	5.631706e-09	2.708688e+01	3.693443e+02
1.150000e-06	4.026497e-06	5.796700e-09	2.782918e+01	3.801143e+02
1.160000e-06	4.132482e-06	5.954938e-09	2.856170e+01	3.904294e+02
1.170000e-06	4.236917e-06	6.105451e-09	2.928350e+01	4.002997e+02
1.180000e-06	4.339725e-06	6.247381e-09	2.999406e+01	4.097303e+02
1.190000e-06	4.441004e-06	6.382234e-09	3.069405e+01	4.187242e+02
1.200000e-06	4.540774e-06	6.511379e-09	3.138361e+01	4.272853e+02
1.210000e-06	4.638909e-06	6.633120e-09	3.206188e+01	4.354201e+02
1.220000e-06	4.735219e-06	6.748865e-09	3.272752e+01	4.431398e+02
1.230000e-06	4.829751e-06	6.859220e-09	3.338089e+01	4.504609e+02
1.240000e-06	4.922701e-06	6.966693e-09	3.402331e+01	4.574049e+02
1.250000e-06	5.014025e-06	7.069061e-09	3.465449e+01	4.639980e+02
1.260000e-06	5.103519e-06	7.165511e-09	3.527303e+01	4.702687e+02
1.270000e-06	5.191092e-06	7.256607e-09	3.587830e+01	4.762466e+02
1.280000e-06	5.276816e-06	7.342802e-09	3.647078e+01	4.819602e+02
1.290000e-06	5.360726e-06	7.423942e-09	3.705073e+01	4.874351e+02
1.300000e-06	5.442735e-06	7.500830e-09	3.761753e+01	4.926927e+02
1.310000e-06	5.522708e-06	7.576768e-09	3.817027e+01	4.977493e+02
1.320000e-06	5.600658e-06	7.650145e-09	3.870902e+01	5.026163e+02
1.330000e-06	5.676597e-06	7.720497e-09	3.923387e+01	5.073002e+02
1.340000e-06	5.750274e-06	7.789857e-09	3.974309e+01	5.118038e+02
1.350000e-06	5.821699e-06	7.857441e-09	4.023674e+01	5.161271e+02
1.360000e-06	5.891095e-06	7.921315e-09	4.071638e+01	5.202689e+02
1.370000e-06	5.958480e-06	7.980947e-09	4.118211e+01	5.242276e+02
1.380000e-06	6.023665e-06	8.036098e-09	4.163264e+01	5.280025e+02
1.390000e-06	6.086673e-06	8.088297e-09	4.206811e+01	5.315941e+02
1.400000e-06	6.147715e-06	8.139214e-09	4.249001e+01	5.350043e+02
1.410000e-06	6.206675e-06	8.188913e-09	4.289751e+01	5.382365e+02
1.420000e-06	6.263376e-06	8.234901e-09	4.328940e+01	5.412945e+02
1.430000e-06	6.317853e-06	8.277066e-09	4.366592e+01	5.441830e+02
1.440000e-06	6.369943e-06	8.317196e-09	4.402594e+01	5.469059e+02
1.450000e-06	6.419340e-06	8.354541e-09	4.436735e+01	5.494666e+02
1.460000e-06	6.466250e-06	8.389827e-09	4.469157e+01	5.518678e+02
1.470000e-06	6.510994e-06	8.422933e-09	4.500082e+01	5.541110e+02
1.480000e-06	6.553476e-06	8.453258e-09	4.529443e+01	5.561975e+02
1.490000e-06	6.593528e-06	8.481969e-09	4.557125e+01	5.581281e+02
1.500000e-06	6.631292e-06	8.508130e-09	4.583226e+01	5.599047e+02
1.510000e-06	6.666910e-06	8.530695e-09	4.607843e+01	5.615297e+02
1.520000e-06	6.700157e-06	8.550855e-09	4.630822e+01	5.630075e+02
1.530000e-06	6.730974e-06	8.569733e-09	4.652121e+01	5.643436e+02
1.540000e-06	6.759528e-06	8.588300e-09	4.671856e+01	5.655453e+02
1.550000e-06	6.785620e-06	8.605540e-09	4.689890e+01	5.666209e+02
1.560000e-06	6.809137e-06	8.620282e-09	4.706144e+01	5.675790e+02
1.570000e-06	6.830295e-06	8.633093e-09	4.720766e+01	5.684275e+02
1.580000e-06	6.849108e-06	8.646448e-09	4.733769e+01	5.691731e+02
1.590000e-06	6.865377e-06	8.658132e-09	4.745014e+01	5.698206e+02
1.600000e-06	6.879083e-06	8.665163e-09	4.754487e+01	5.703719e+02
1.610000e-06	6.890145e-06	8.669529e-09	4.762132e+01	5.708265e+02
1.620000e-06	6.898487e-06	8.673996e-09	4.767898e+01	5.711814e+02
1.630000e-06	6.904376e-06	8.679522e-09	4.771968e+01	5.714318e+02
1.640000e-06	6.907875e-06	8.683971e-09	4.774386e+01	5.715722e+02
1.650000e-06	6.908872e-06	8.685020e-09	4.775075e+01	5.715975e+02
1.660000e-06	6.907492e-06	8.684394e-09	4.774122e+01	5.715040e+02
1.670000e-06	6.903964e-06	8.682993e-09	4.771683e+01	5.712906e+02
1.680000e-06	6.898226e-06	8.676169e-09	4.767717e+01	5.709595e+02
1.690000e-06	6.890157e-06	8.669916e-09	4.762140e+01	5.705168e+02
1.700000e-06	6.879828e-06	8.663090e-09	4.755002e+01	5.699718e+02
1.710000e-06	6.867162e-06	8.653190e-09	4.746248e+01	5.693367e+02
1.720000e-06	6.852067e-06	8.635529e-09	4.735815e+01	5.686256e+02
1.730000e-06	6.834798e-06	8.607123e-09	4.723879e+01	5.678529e+02
1.740000e-06	6.815304e-06	8.630612e-09	4.710405e+01	5.670321e+02
1.750000e-06	6.792772e-06	8.611146e-09	4.694833e+01	5.661740e+02
1.760000e-06	6.766918e-06	8.574976e-09	4.676963e+01	5.652856e+02
1.770000e-06	6.738408e-06	8.584744e-09	4.657259e+01	5.643691e+02
1.780000e-06	6.707801e-06	8.542107e-09	4.636105e+01	5.634217e+02
1.790000e-06	6.675607e-06	8.523050e-09	4.613854e+01	5.624355e+02
1.800000e-06	6.641908e-06	8.615937e-09	4.590563e+01	5.613981e+02
1.810000e-06	6.605870e-06	8.520880e-09	4.565655e+01	5.602940e+02
1.820000e-06	6.567318e-06	8.511986e-09	4.539010e+01	5.591054e+02
1.830000e-06	6.526617e-06	8.561955e-09	4.510879e+01	5.578143e+02
1.840000e-06	6.483724e-06	8.425236e-09	4.481234e+01	5.564037e+02
1.850000e-06	6.438678e-06	8.482246e-09	4.450100e+01	5.548592e+02
1.860000e-06	6.391268e-06	8.415964e-09	4.417333e+01	5.531696e+02
1.870000e-06	6.341423e-06	8.325235e-09	4.382882e+01	5.513281e+02
1.880000e-06	6.289228e-06	8.387430e-09	4.346807e+01	5.493322e+02
1.890000e-06	6.234374e-06	8.337793e-09	4.308895e+01	5.471833e+02
1.900000e-06	6.177002e-06	8.370303e-09	4.269242e+01	5.448866e+02
1.910000e-06	6.117325e-06	8.303123e-09	4.227996e+01	5.424497e+02
1.920000e-06	6.055298e-06	8.196250e-09	4.185127e+01	5.398816e+02
1.930000e-06	5.991095e-06	8.199545e-09	4.140753e+01	5.371922e+02
1.940000e-06	5.924759e-06	8.130773e-09	4.094904e+01	5.343903e+02
1.950000e-06	5.856252e-06	8.144417e-09	4.047556e+01	5.314835e+02
1.960000e-06	5.785406e-06	8.062991e-09	3.998590e+01	5.284773e+02
1.970000e-06	5.712300e-06	8.015904e-09	3.948063e+01	5.253748e+02
1.980000e-06	5.637087e-06	7.971474e-09	3.896080e+01	5.221765e+02
1.990000e-06	5.559614e-06	7.882570e-09	3.842534e+01	5.188808e+02
2.000000e-06	5.480016e-06	7.899069e-09	3.787520e+01	5.154840e+02
2.010000e-06	5.398482e-06	7.818982e-09	3.731168e+01	5.119810e+02
2.020000e-06	5.315164e-06	7.756923e-09	3.673582e+01	5.083660e+02
2.030000e-06	5.229894e-06	7.687617e-09	3.614648e+01	5.046329e+02
2.040000e-06	5.142566e-06	7.635268e-09	3.554291e+01	5.007761e+02
2.050000e-06	5.053452e-06	7.590722e-09	3.492700e+01	4.967905e+02
2.060000e-06	4.962700e-06	7.510665e-09	3.429976e+01	4.926723e+02
2.070000e-06	4.870327e-06	7.466503e-09	3.366132e+01	4.884188e+02
2.080000e-06	4.776143e-06	7.387998e-09	3.301037e+01	4.840285e+02
2.090000e-06	4.680224e-06	7.329315e-09	3.234743e+01	4.795010e+02
2.100000e-06	4.582760e-06	7.255510e-09	3.167380e+01	4.748366e+02
2.110000e-06	4.483784e-06	7.203920e-09	3.098973e+01	4.700363e+02
2.120000e-06	4.383305e-06	7.127442e-09	3.029526e+01	4.651009e+02
2.130000e-06	4.281151e-06	7.016304e-09	2.958923e+01	4.600309e+02
2.140000e-06	4.177312e-06	6.929304e-09	2.887154e+01	4.548261e+02
2.150000e-06	4.071971e-06	6.854681e-09	2.814348e+01	4.494850e+02
2.160000e-06	3.965278e-06	6.796374e-09	2.740607e+01	4.440050e+02
2.170000e-06	3.857232e-06	6.717779e-09	2.665930e+01	4.383823e+02
2.180000e-06	3.747819e-06	6.632694e-09	2.590310e+01	4.326115e+02
2.190000e-06	3.636961e-06	6.532186e-09	2.513690e+01	4.266864e+02
2.200000e-06	3.524728e-06	6.441605e-09	2.436120e+01	4.206002e+02
2.210000e-06	3.411144e-06	6.350500e-09	2.357617e+01	4.143457e+02
2.220000e-06	3.296196e-06	6.253589e-09	2.278170e+01	4.079160e+02
2.230000e-06	3.179946e-06	6.139454e-09	2.197824e+01	4.013050e+02
2.240000e-06	3.062342e-06	6.023033e-09	2.116541e+01	3.945074e+02
2.250000e-06	2.943419e-06	5.917303e-09	2.034348e+01	3.875193e+02
2.260000e-06	2.823352e-06	5.814994e-09	1.951363e+01	3.803377e+02
2.270000e-06	2.702319e-06	5.720504e-09	1.867711e+01	3.729605e+02
2.280000e-06	2.580304e-06	5.613957e-09	1.783380e+01	3.653860e+02
2.290000e-06	2.457369e-06	5.493462e-09	1.698414e+01	3.576121e+02
2.300000e-06	2.333573e-06	5.365252e-09	1.612852e+01	3.496360e+02
2.310000e-06	2.209039e-06	5.243878e-09	1.526780e+01	3.414529e+02
2.320000e-06	2.083841e-06	5.119664e-09	1.440249e+01	3.330560e+02
2.330000e-06	1.957853e-06	4.983267e-09	1.353172e+01	3.244358e+02
2.340000e-06	1.831057e-06	4.833601e-09	1.265537e+01	3.155807e+02
2.350000e-06	1.703529e-06	4.688632e-09	1.177396e+01	3.064764e+02
2.360000e-06	1.575429e-06	4.552300e-09	1.088860e+01	2.971076e+02
2.370000e-06	1.446904e-06	4.417423e-09	1.000029e+01	2.874582e+02
2.380000e-06	1.317987e-06	4.278850e-09	9.109285e+00	2.775127e+02
2.390000e-06	1.188663e-06	4.123739e-09	8.215462e+00	2.672576e+02
2.400000e-06	1.058958e-06	3.955478e-09	7.319001e+00	2.566814e+02
2.410000e-06	9.288971e-07	3.785243e-09	6.420084e+00	2.457760e+02
2.420000e-06	7.985362e-07	3.617635e-09	5.519093e+00	2.345363e+02
2.430000e-06	6.679739e-07	3.444955e-09	4.616710e+00	2.229595e+02
2.440000e-06	5.372292e-07	3.261311e-09	3.713066e+00	2.110443e+02
2.450000e-06	4.063152e-07	3.068644e-09	2.808252e+00	1.987888e+02
2.460000e-06	2.752524e-07	2.875914e-09	1.902410e+00	1.861893e+02
2.470000e-06	1.441053e-07	2.682943e-09	9.959857e-01	1.732374e+02
2.480000e-06	1.296149e-08	2.483801e-09	8.958351e-02	1.599190e+02
2.490000e-06	-1.181894e-07	2.276231e-09	-8.168676e-01	1.462130e+02
2.500000e-06	-2.493629e-07	2.054398e-09	-1.723474e+00	1.320908e+02
2.510000e-06	-3.804944e-07	1.821094e-09	-2.629791e+00	1.175176e+02
2.520000e-06	-5.115085e-07	1.585828e-09	-3.535297e+00	1.024541e+02
2.530000e-06	-6.423412e-07	1.350200e-09	-4.439549e+00	8.685967e+01
2.540000e-06	-7.729470e-07	1.107446e-09	-5.342233e+00	7.069678e+01
2.550000e-06	-9.033764e-07	8.502129e-10	-6.243697e+00	5.393561e+01
2.560000e-06	-1.033585e-06	5.821011e-10	-7.143635e+00	3.655917e+01
2.570000e-06	-1.163403e-06	3.107680e-10	-8.040876e+00	1.856805e+01
2.580000e-06	-1.292796e-06	3.306663e-11	-8.935176e+00	-1.564633e-02
2.590000e-06	-1.421804e-06	-2.569253e-10	-9.826814e+00	-1.914561e+01
2.600000e-06	-1.550446e-06	-5.590482e-10	-1.071593e+01	-3.875039e+01
2.610000e-06	-1.678584e-06	-8.715841e-10	-1.160155e+01	-5.873432e+01
2.620000e-06	-1.805950e-06	-1.187470e-09	-1.248185e+01	-7.898039e+01
2.630000e-06	-1.932490e-06	-1.499835e-09	-1.335643e+01	-9.935500e+01
2.640000e-06	-2.058304e-06	-1.806328e-09	-1.422599e+01	-1.197141e+02
2.650000e-06	-2.183373e-06	-2.109805e-09	-1.509041e+01	-1.399103e+02
2.660000e-06	-2.307586e-06	-2.414047e-09	-1.594891e+01	-1.598005e+02
2.670000e-06	-2.430838e-06	-2.711484e-09	-1.680077e+01	-1.792530e+02
2.680000e-06	-2.553139e-06	-2.997275e-09	-1.764605e+01	-1.981536e+02
2.690000e-06	-2.674536e-06	-3.274732e-09	-1.848509e+01	-2.164109e+02
2.700000e-06	-2.795061e-06	-3.546244e-09	-1.931810e+01	-2.339587e+02
2.710000e-06	-2.914505e-06	-3.809224e-09	-2.014364e+01	-2.507572e+02
2.720000e-06	-3.032740e-06	-4.059383e-09	-2.096082e+01	-2.667919e+02
2.730000e-06	-3.149774e-06	-4.294113e-09	-2.176970e+01	-2.820705e+02
2.740000e-06	-3.265489e-06	-4.515095e-09	-2.256947e+01	-2.966188e+02
2.750000e-06	-3.379880e-06	-4.728311e-09	-2.336008e+01	-3.104751e+02
2.760000e-06	-3.492923e-06	-4.935497e-09	-2.414138e+01	-3.236849e+02
2.770000e-06	-3.604503e-06	-5.131750e-09	-2.491256e+01	-3.362955e+02
2.780000e-06	-3.714663e-06	-5.316261e-09	-2.567394e+01	-3.483515e+02
2.790000e-06	-3.823626e-06	-5.491838e-09	-2.642704e+01	-3.598914e+02
2.800000e-06	-3.931427e-06	-5.659882e-09	-2.717211e+01	-3.709455e+02
2.810000e-06	-4.037982e-06	-5.822081e-09	-2.790856e+01	-3.815357e+02
2.820000e-06	-4.143176e-06	-5.977082e-09	-2.863561e+01	-3.916756e+02
2.830000e-06	-4.246861e-06	-6.123284e-09	-2.935223e+01	-4.013732e+02
2.840000e-06	-4.348940e-06	-6.261339e-09	-3.005775e+01	-4.106323e+02
2.850000e-06	-4.449354e-06	-6.393300e-09	-3.075177e+01	-4.194561e+02
2.860000e-06	-4.548227e-06	-6.522135e-09	-3.143513e+01	-4.278491e+02
2.870000e-06	-4.645609e-06	-6.646756e-09	-3.210818e+01	-4.358196e+02
2.880000e-06	-4.741359e-06	-6.764317e-09	-3.276996e+01	-4.433809e+02
2.890000e-06	-4.835394e-06	-6.876040e-09	-3.341989e+01	-4.505515e+02
2.900000e-06	-4.927682e-06	-6.982904e-09	-3.405774e+01	-4.573548e+02
2.910000e-06	-5.018237e-06	-7.085750e-09	-3.468360e+01	-4.638182e+02
2.920000e-06	-5.106968e-06	-7.183288e-09	-3.529687e+01	-4.699708e+02
2.930000e-06	-5.193671e-06	-7.272983e-09	-3.589612e+01	-4.758420e+02
2.940000e-06	-5.278366e-06	-7.356497e-09	-3.648149e+01	-4.814594e+02
