# Temperatura_=_40.69
# Concentracion g/m^3_=_15000.0
# C_Vs_to_Am_M_A/Vsm_=_65563218390.804596
# pendiente_HvsI_1/m_=_3716.3
# ordenada_HvsI_A/m_=_1297.0
# frecuencia_Hz_=_301893.29872265743

Tiempo_(s)	Campo_(V.s)	Magnetizacion_(V.s)	Campo_(kA/m)	Magnetizacion_(A/m)
0.000000e+00	-6.853119e-06	-8.453046e-09	-4.750224e+01	-5.526510e+02
1.000000e-08	-6.850343e-06	-8.453153e-09	-4.748301e+01	-5.525073e+02
2.000000e-08	-6.845280e-06	-8.450290e-09	-4.744791e+01	-5.522569e+02
3.000000e-08	-6.838067e-06	-8.445421e-09	-4.739791e+01	-5.519015e+02
4.000000e-08	-6.828540e-06	-8.439610e-09	-4.733188e+01	-5.514451e+02
5.000000e-08	-6.816563e-06	-8.430641e-09	-4.724886e+01	-5.508948e+02
6.000000e-08	-6.802094e-06	-8.418587e-09	-4.714857e+01	-5.502599e+02
7.000000e-08	-6.785257e-06	-8.406650e-09	-4.703186e+01	-5.495512e+02
8.000000e-08	-6.766280e-06	-8.396759e-09	-4.690032e+01	-5.487801e+02
9.000000e-08	-6.744951e-06	-8.402275e-09	-4.675248e+01	-5.479575e+02
1.000000e-07	-6.720854e-06	-8.396346e-09	-4.658545e+01	-5.470923e+02
1.100000e-07	-6.693950e-06	-8.367582e-09	-4.639897e+01	-5.461908e+02
1.200000e-07	-6.664636e-06	-8.338731e-09	-4.619578e+01	-5.452555e+02
1.300000e-07	-6.633339e-06	-8.312023e-09	-4.597884e+01	-5.442849e+02
1.400000e-07	-6.600127e-06	-8.283265e-09	-4.574864e+01	-5.432733e+02
1.500000e-07	-6.564955e-06	-8.267727e-09	-4.550484e+01	-5.422112e+02
1.600000e-07	-6.527762e-06	-8.271140e-09	-4.524704e+01	-5.410861e+02
1.700000e-07	-6.488494e-06	-8.223831e-09	-4.497485e+01	-5.398832e+02
1.800000e-07	-6.446924e-06	-8.199385e-09	-4.468671e+01	-5.385871e+02
1.900000e-07	-6.402848e-06	-8.188015e-09	-4.438120e+01	-5.371826e+02
2.000000e-07	-6.356488e-06	-8.164789e-09	-4.405986e+01	-5.356562e+02
2.100000e-07	-6.307637e-06	-8.190284e-09	-4.372125e+01	-5.339968e+02
2.200000e-07	-6.256042e-06	-8.168042e-09	-4.336362e+01	-5.321966e+02
2.300000e-07	-6.201992e-06	-8.108647e-09	-4.298898e+01	-5.302519e+02
2.400000e-07	-6.145624e-06	-8.054406e-09	-4.259826e+01	-5.281621e+02
2.500000e-07	-6.086872e-06	-7.997837e-09	-4.219102e+01	-5.259307e+02
2.600000e-07	-6.025902e-06	-7.958612e-09	-4.176841e+01	-5.235635e+02
2.700000e-07	-5.962785e-06	-7.927480e-09	-4.133091e+01	-5.210688e+02
2.800000e-07	-5.897372e-06	-7.896878e-09	-4.087750e+01	-5.184558e+02
2.900000e-07	-5.829712e-06	-7.847422e-09	-4.040852e+01	-5.157338e+02
3.000000e-07	-5.759917e-06	-7.804868e-09	-3.992474e+01	-5.129113e+02
3.100000e-07	-5.688002e-06	-7.780785e-09	-3.942626e+01	-5.099953e+02
3.200000e-07	-5.613860e-06	-7.736563e-09	-3.891235e+01	-5.069905e+02
3.300000e-07	-5.537407e-06	-7.687166e-09	-3.838242e+01	-5.038991e+02
3.400000e-07	-5.458727e-06	-7.629454e-09	-3.783705e+01	-5.007207e+02
3.500000e-07	-5.377959e-06	-7.578259e-09	-3.727721e+01	-4.974523e+02
3.600000e-07	-5.295294e-06	-7.535229e-09	-3.670421e+01	-4.940888e+02
3.700000e-07	-5.210849e-06	-7.484048e-09	-3.611888e+01	-4.906236e+02
3.800000e-07	-5.124653e-06	-7.425514e-09	-3.552142e+01	-4.870491e+02
3.900000e-07	-5.036717e-06	-7.357387e-09	-3.491189e+01	-4.833575e+02
4.000000e-07	-4.947011e-06	-7.291373e-09	-3.429010e+01	-4.795416e+02
4.100000e-07	-4.855488e-06	-7.234488e-09	-3.365571e+01	-4.755951e+02
4.200000e-07	-4.762320e-06	-7.184580e-09	-3.300991e+01	-4.715131e+02
4.300000e-07	-4.667557e-06	-7.120252e-09	-3.235307e+01	-4.672926e+02
4.400000e-07	-4.571112e-06	-7.044523e-09	-3.168456e+01	-4.629321e+02
4.500000e-07	-4.472876e-06	-6.968336e-09	-3.100364e+01	-4.584317e+02
4.600000e-07	-4.372974e-06	-6.895168e-09	-3.031118e+01	-4.537925e+02
4.700000e-07	-4.271703e-06	-6.828804e-09	-2.960921e+01	-4.490162e+02
4.800000e-07	-4.168940e-06	-6.761346e-09	-2.889691e+01	-4.441044e+02
4.900000e-07	-4.064686e-06	-6.685018e-09	-2.817428e+01	-4.390579e+02
5.000000e-07	-3.958936e-06	-6.598519e-09	-2.744128e+01	-4.338764e+02
5.100000e-07	-3.851602e-06	-6.516179e-09	-2.669730e+01	-4.285579e+02
5.200000e-07	-3.742924e-06	-6.434360e-09	-2.594400e+01	-4.230986e+02
5.300000e-07	-3.633006e-06	-6.344738e-09	-2.518211e+01	-4.174928e+02
5.400000e-07	-3.521695e-06	-6.249581e-09	-2.441055e+01	-4.117337e+02
5.500000e-07	-3.408987e-06	-6.153519e-09	-2.362932e+01	-4.058130e+02
5.600000e-07	-3.294866e-06	-6.059372e-09	-2.283829e+01	-3.997226e+02
5.700000e-07	-3.179257e-06	-5.968669e-09	-2.203695e+01	-3.934542e+02
5.800000e-07	-3.062363e-06	-5.879676e-09	-2.122670e+01	-3.870009e+02
5.900000e-07	-2.944384e-06	-5.781352e-09	-2.040894e+01	-3.803568e+02
6.000000e-07	-2.825310e-06	-5.673101e-09	-1.958357e+01	-3.735181e+02
6.100000e-07	-2.705156e-06	-5.559922e-09	-1.875073e+01	-3.664821e+02
6.200000e-07	-2.584079e-06	-5.449833e-09	-1.791149e+01	-3.592477e+02
6.300000e-07	-2.462079e-06	-5.337974e-09	-1.706585e+01	-3.518142e+02
6.400000e-07	-2.339078e-06	-5.217349e-09	-1.621327e+01	-3.441809e+02
6.500000e-07	-2.215082e-06	-5.093605e-09	-1.535379e+01	-3.363457e+02
6.600000e-07	-2.090347e-06	-4.969989e-09	-1.448920e+01	-3.283046e+02
6.700000e-07	-1.965122e-06	-4.845659e-09	-1.362120e+01	-3.200513e+02
6.800000e-07	-1.839323e-06	-4.719746e-09	-1.274923e+01	-3.115760e+02
6.900000e-07	-1.712824e-06	-4.590980e-09	-1.187240e+01	-3.028663e+02
7.000000e-07	-1.585651e-06	-4.454252e-09	-1.099091e+01	-2.939071e+02
7.100000e-07	-1.457877e-06	-4.310686e-09	-1.010524e+01	-2.846819e+02
7.200000e-07	-1.329600e-06	-4.163599e-09	-9.216092e+00	-2.751735e+02
7.300000e-07	-1.200994e-06	-4.012493e-09	-8.324662e+00	-2.653655e+02
7.400000e-07	-1.072071e-06	-3.855718e-09	-7.431033e+00	-2.552435e+02
7.500000e-07	-9.428126e-07	-3.693719e-09	-6.535085e+00	-2.447960e+02
7.600000e-07	-8.132730e-07	-3.527478e-09	-5.637184e+00	-2.340149e+02
7.700000e-07	-6.834660e-07	-3.357112e-09	-4.737430e+00	-2.228957e+02
7.800000e-07	-5.533668e-07	-3.183244e-09	-3.835650e+00	-2.114362e+02
7.900000e-07	-4.230805e-07	-3.006364e-09	-2.932573e+00	-1.996357e+02
8.000000e-07	-2.925858e-07	-2.825451e-09	-2.028052e+00	-1.874933e+02
8.100000e-07	-1.618442e-07	-2.637634e-09	-1.121820e+00	-1.750051e+02
8.200000e-07	-3.104401e-08	-2.442604e-09	-2.151809e-01	-1.621630e+02
8.300000e-07	9.979319e-08	-2.241977e-09	6.917143e-01	-1.489528e+02
8.400000e-07	2.306298e-07	-2.035679e-09	1.598605e+00	-1.353529e+02
8.500000e-07	3.613509e-07	-1.821106e-09	2.504696e+00	-1.213349e+02
8.600000e-07	4.919903e-07	-1.598279e-09	3.410220e+00	-1.068642e+02
8.700000e-07	6.225338e-07	-1.368113e-09	4.315080e+00	-9.190264e+01
8.800000e-07	7.528493e-07	-1.131244e-09	5.218359e+00	-7.641218e+01
8.900000e-07	8.829238e-07	-8.887127e-10	6.119967e+00	-6.035890e+01
9.000000e-07	1.012713e-06	-6.397887e-10	7.019600e+00	-4.371817e+01
9.100000e-07	1.142097e-06	-3.817888e-10	7.916419e+00	-2.647949e+01
9.200000e-07	1.271112e-06	-1.119716e-10	8.810686e+00	-8.651078e+00
9.300000e-07	1.399740e-06	1.677030e-10	9.702270e+00	9.736733e+00
9.400000e-07	1.527882e-06	4.540124e-10	1.059048e+01	2.862937e+01
9.500000e-07	1.655414e-06	7.466084e-10	1.147446e+01	4.794774e+01
9.600000e-07	1.782278e-06	1.044862e-09	1.235382e+01	6.758990e+01
9.700000e-07	1.908483e-06	1.349947e-09	1.322861e+01	8.743458e+01
9.800000e-07	2.034044e-06	1.657326e-09	1.409893e+01	1.073464e+02
9.900000e-07	2.158978e-06	1.963362e-09	1.496491e+01	1.271825e+02
1.000000e-06	2.283159e-06	2.264286e-09	1.582567e+01	1.467996e+02
1.010000e-06	2.406424e-06	2.557525e-09	1.668008e+01	1.660614e+02
1.020000e-06	2.528819e-06	2.843924e-09	1.752845e+01	1.848455e+02
1.030000e-06	2.650290e-06	3.117688e-09	1.837043e+01	2.030487e+02
1.040000e-06	2.770692e-06	3.379152e-09	1.920499e+01	2.205916e+02
1.050000e-06	2.890028e-06	3.629469e-09	2.003216e+01	2.374203e+02
1.060000e-06	3.008296e-06	3.869932e-09	2.085194e+01	2.535065e+02
1.070000e-06	3.125546e-06	4.102653e-09	2.166465e+01	2.688457e+02
1.080000e-06	3.241606e-06	4.326218e-09	2.246912e+01	2.834539e+02
1.090000e-06	3.356342e-06	4.536514e-09	2.326441e+01	2.973625e+02
1.100000e-06	3.469765e-06	4.735056e-09	2.405060e+01	3.106131e+02
1.110000e-06	3.581799e-06	4.927171e-09	2.482716e+01	3.232519e+02
1.120000e-06	3.692494e-06	5.113829e-09	2.559444e+01	3.353251e+02
1.130000e-06	3.802013e-06	5.292142e-09	2.635357e+01	3.468742e+02
1.140000e-06	3.910422e-06	5.460707e-09	2.710500e+01	3.579335e+02
1.150000e-06	4.017490e-06	5.620903e-09	2.784715e+01	3.685290e+02
1.160000e-06	4.123042e-06	5.774346e-09	2.857878e+01	3.786777e+02
1.170000e-06	4.227071e-06	5.921661e-09	2.929985e+01	3.883894e+02
1.180000e-06	4.329541e-06	6.061246e-09	3.001012e+01	3.976687e+02
1.190000e-06	4.430506e-06	6.194170e-09	3.070996e+01	4.065173e+02
1.200000e-06	4.529942e-06	6.320873e-09	3.139920e+01	4.149374e+02
1.210000e-06	4.627703e-06	6.441615e-09	3.207682e+01	4.229334e+02
1.220000e-06	4.723716e-06	6.557115e-09	3.274233e+01	4.305146e+02
1.230000e-06	4.818013e-06	6.666583e-09	3.339595e+01	4.376955e+02
1.240000e-06	4.910716e-06	6.769977e-09	3.403852e+01	4.444966e+02
1.250000e-06	5.001759e-06	6.867290e-09	3.466959e+01	4.509431e+02
1.260000e-06	5.090921e-06	6.960570e-09	3.528761e+01	4.570640e+02
1.270000e-06	5.178152e-06	7.050872e-09	3.589225e+01	4.628897e+02
1.280000e-06	5.263619e-06	7.136738e-09	3.648466e+01	4.684506e+02
1.290000e-06	5.347335e-06	7.216402e-09	3.706493e+01	4.737743e+02
1.300000e-06	5.429077e-06	7.291484e-09	3.763153e+01	4.788848e+02
1.310000e-06	5.508751e-06	7.363333e-09	3.818379e+01	4.838007e+02
1.320000e-06	5.586377e-06	7.432548e-09	3.872185e+01	4.885353e+02
1.330000e-06	5.661899e-06	7.500465e-09	3.924533e+01	4.930965e+02
1.340000e-06	5.735244e-06	7.568294e-09	3.975372e+01	4.974874e+02
1.350000e-06	5.806435e-06	7.634820e-09	4.024718e+01	5.017080e+02
1.360000e-06	5.875579e-06	7.696380e-09	4.072645e+01	5.057556e+02
1.370000e-06	5.942704e-06	7.753308e-09	4.119172e+01	5.096271e+02
1.380000e-06	6.007696e-06	7.806669e-09	4.164222e+01	5.133195e+02
1.390000e-06	6.070581e-06	7.859340e-09	4.207810e+01	5.168311e+02
1.400000e-06	6.131455e-06	7.910139e-09	4.250005e+01	5.201619e+02
1.410000e-06	6.190223e-06	7.956631e-09	4.290739e+01	5.233137e+02
1.420000e-06	6.246744e-06	8.000735e-09	4.329917e+01	5.262896e+02
1.430000e-06	6.300993e-06	8.042395e-09	4.367520e+01	5.290942e+02
1.440000e-06	6.352807e-06	8.082077e-09	4.403434e+01	5.317321e+02
1.450000e-06	6.401959e-06	8.120016e-09	4.437504e+01	5.342081e+02
1.460000e-06	6.448699e-06	8.155618e-09	4.469902e+01	5.365262e+02
1.470000e-06	6.493304e-06	8.187634e-09	4.500819e+01	5.386899e+02
1.480000e-06	6.535614e-06	8.216632e-09	4.530147e+01	5.407017e+02
1.490000e-06	6.575512e-06	8.245517e-09	4.557802e+01	5.425637e+02
1.500000e-06	6.613157e-06	8.272122e-09	4.583895e+01	5.442777e+02
1.510000e-06	6.648633e-06	8.293651e-09	4.608486e+01	5.458461e+02
1.520000e-06	6.681709e-06	8.310978e-09	4.631412e+01	5.472719e+02
1.530000e-06	6.712370e-06	8.327181e-09	4.652665e+01	5.485595e+02
1.540000e-06	6.740823e-06	8.344750e-09	4.672387e+01	5.497143e+02
1.550000e-06	6.766793e-06	8.361628e-09	4.690388e+01	5.507429e+02
1.560000e-06	6.790087e-06	8.377196e-09	4.706534e+01	5.516525e+02
1.570000e-06	6.811054e-06	8.391569e-09	4.721067e+01	5.524509e+02
1.580000e-06	6.829743e-06	8.403148e-09	4.734022e+01	5.531448e+02
1.590000e-06	6.845920e-06	8.412352e-09	4.745235e+01	5.537403e+02
1.600000e-06	6.859531e-06	8.420099e-09	4.754669e+01	5.542415e+02
1.610000e-06	6.870410e-06	8.426889e-09	4.762210e+01	5.546505e+02
1.620000e-06	6.878582e-06	8.431322e-09	4.767874e+01	5.549672e+02
1.630000e-06	6.884428e-06	8.433967e-09	4.771926e+01	5.551900e+02
1.640000e-06	6.887974e-06	8.437004e-09	4.774384e+01	5.553154e+02
1.650000e-06	6.888971e-06	8.440023e-09	4.775075e+01	5.553400e+02
1.660000e-06	6.887559e-06	8.440532e-09	4.774097e+01	5.552603e+02
1.670000e-06	6.884024e-06	8.436302e-09	4.771646e+01	5.550743e+02
1.680000e-06	6.878172e-06	8.431418e-09	4.767590e+01	5.547820e+02
1.690000e-06	6.869975e-06	8.426271e-09	4.761908e+01	5.543858e+02
1.700000e-06	6.859594e-06	8.419617e-09	4.754713e+01	5.538912e+02
1.710000e-06	6.846847e-06	8.412934e-09	4.745877e+01	5.533061e+02
1.720000e-06	6.831667e-06	8.405225e-09	4.735355e+01	5.526405e+02
1.730000e-06	6.814362e-06	8.391140e-09	4.723360e+01	5.519055e+02
1.740000e-06	6.794927e-06	8.357604e-09	4.709889e+01	5.511126e+02
1.750000e-06	6.772395e-06	8.339632e-09	4.694271e+01	5.502719e+02
1.760000e-06	6.746409e-06	8.339976e-09	4.676259e+01	5.493915e+02
1.770000e-06	6.717847e-06	8.335753e-09	4.656461e+01	5.484763e+02
1.780000e-06	6.687228e-06	8.335178e-09	4.635237e+01	5.475272e+02
1.790000e-06	6.655070e-06	8.335838e-09	4.612947e+01	5.465410e+02
1.800000e-06	6.621481e-06	8.303865e-09	4.589665e+01	5.455105e+02
1.810000e-06	6.585562e-06	8.281039e-09	4.564768e+01	5.444249e+02
1.820000e-06	6.547132e-06	8.293798e-09	4.538130e+01	5.432707e+02
1.830000e-06	6.506532e-06	8.271703e-09	4.509989e+01	5.420327e+02
1.840000e-06	6.463669e-06	8.249905e-09	4.480278e+01	5.406954e+02
1.850000e-06	6.418697e-06	8.196390e-09	4.449106e+01	5.392441e+02
1.860000e-06	6.371376e-06	8.152585e-09	4.416305e+01	5.376662e+02
1.870000e-06	6.321574e-06	8.141364e-09	4.381785e+01	5.359519e+02
1.880000e-06	6.269506e-06	8.108679e-09	4.345694e+01	5.340948e+02
1.890000e-06	6.214757e-06	8.134226e-09	4.307745e+01	5.320925e+02
1.900000e-06	6.157579e-06	8.112790e-09	4.268113e+01	5.299462e+02
1.910000e-06	6.098166e-06	8.057149e-09	4.226931e+01	5.276602e+02
1.920000e-06	6.036340e-06	8.006887e-09	4.184076e+01	5.252415e+02
1.930000e-06	5.972294e-06	7.944966e-09	4.139683e+01	5.226988e+02
1.940000e-06	5.906096e-06	7.939518e-09	4.093798e+01	5.200415e+02
1.950000e-06	5.837803e-06	7.888781e-09	4.046460e+01	5.172787e+02
1.960000e-06	5.767125e-06	7.848107e-09	3.997470e+01	5.144184e+02
1.970000e-06	5.694090e-06	7.809369e-09	3.946846e+01	5.114667e+02
1.980000e-06	5.619021e-06	7.751802e-09	3.894812e+01	5.084274e+02
1.990000e-06	5.541757e-06	7.721998e-09	3.841257e+01	5.053016e+02
2.000000e-06	5.462267e-06	7.653180e-09	3.786158e+01	5.020880e+02
2.010000e-06	5.380799e-06	7.602390e-09	3.729689e+01	4.987825e+02
2.020000e-06	5.297592e-06	7.543016e-09	3.672014e+01	4.953796e+02
2.030000e-06	5.212582e-06	7.492556e-09	3.613090e+01	4.918720e+02
2.040000e-06	5.125510e-06	7.458426e-09	3.552736e+01	4.882520e+02
2.050000e-06	5.036551e-06	7.403056e-09	3.491075e+01	4.845121e+02
2.060000e-06	4.946033e-06	7.344280e-09	3.428332e+01	4.806452e+02
2.070000e-06	4.853912e-06	7.268250e-09	3.364479e+01	4.766455e+02
2.080000e-06	4.760054e-06	7.206696e-09	3.299421e+01	4.725090e+02
2.090000e-06	4.664427e-06	7.145447e-09	3.233137e+01	4.682332e+02
2.100000e-06	4.567167e-06	7.087836e-09	3.165722e+01	4.638173e+02
2.110000e-06	4.468425e-06	7.021800e-09	3.097279e+01	4.592619e+02
2.120000e-06	4.368149e-06	6.945906e-09	3.027773e+01	4.545682e+02
2.130000e-06	4.266285e-06	6.865213e-09	2.957166e+01	4.497381e+02
2.140000e-06	4.162752e-06	6.783531e-09	2.885402e+01	4.447730e+02
2.150000e-06	4.057641e-06	6.712063e-09	2.812545e+01	4.396732e+02
2.160000e-06	3.951226e-06	6.638260e-09	2.738784e+01	4.344378e+02
2.170000e-06	3.843412e-06	6.565755e-09	2.664053e+01	4.290642e+02
2.180000e-06	3.734291e-06	6.480363e-09	2.588416e+01	4.235477e+02
2.190000e-06	3.623795e-06	6.393549e-09	2.511826e+01	4.178822e+02
2.200000e-06	3.511842e-06	6.306549e-09	2.434225e+01	4.120603e+02
2.210000e-06	3.398506e-06	6.216975e-09	2.355667e+01	4.060735e+02
2.220000e-06	3.283814e-06	6.118102e-09	2.276168e+01	3.999137e+02
2.230000e-06	3.167771e-06	6.015468e-09	2.195734e+01	3.935731e+02
2.240000e-06	3.050465e-06	5.915538e-09	2.114423e+01	3.870451e+02
2.250000e-06	2.932004e-06	5.816474e-09	2.032312e+01	3.803245e+02
2.260000e-06	2.812265e-06	5.715920e-09	1.949315e+01	3.734081e+02
2.270000e-06	2.691430e-06	5.609697e-09	1.865559e+01	3.662939e+02
2.280000e-06	2.569732e-06	5.501163e-09	1.781204e+01	3.589810e+02
2.290000e-06	2.447195e-06	5.386300e-09	1.696268e+01	3.514688e+02
2.300000e-06	2.323710e-06	5.271496e-09	1.610675e+01	3.437561e+02
2.310000e-06	2.199390e-06	5.155945e-09	1.524502e+01	3.358402e+02
2.320000e-06	2.074433e-06	5.033819e-09	1.437889e+01	3.277164e+02
2.330000e-06	1.948862e-06	4.899584e-09	1.350850e+01	3.193768e+02
2.340000e-06	1.822599e-06	4.761416e-09	1.263331e+01	3.108106e+02
2.350000e-06	1.695609e-06	4.625697e-09	1.175308e+01	3.020045e+02
2.360000e-06	1.567970e-06	4.492209e-09	1.086835e+01	2.929424e+02
2.370000e-06	1.439756e-06	4.357505e-09	9.979639e+00	2.836076e+02
2.380000e-06	1.311064e-06	4.215161e-09	9.087614e+00	2.739830e+02
2.390000e-06	1.181969e-06	4.063364e-09	8.192791e+00	2.640528e+02
2.400000e-06	1.052550e-06	3.903561e-09	7.295730e+00	2.538038e+02
2.410000e-06	9.229027e-07	3.742131e-09	6.397080e+00	2.432256e+02
2.420000e-06	7.930201e-07	3.576589e-09	5.496802e+00	2.323117e+02
2.430000e-06	6.629038e-07	3.404648e-09	4.594903e+00	2.210586e+02
2.440000e-06	5.325971e-07	3.228987e-09	3.691685e+00	2.094648e+02
2.450000e-06	4.021260e-07	3.048555e-09	2.787328e+00	1.975299e+02
2.460000e-06	2.714359e-07	2.862612e-09	1.881452e+00	1.852518e+02
2.470000e-06	1.405718e-07	2.669818e-09	9.743706e-01	1.726255e+02
2.480000e-06	9.642379e-09	2.469990e-09	6.683594e-02	1.596406e+02
2.490000e-06	-1.212947e-07	2.265391e-09	-8.407515e-01	1.462798e+02
2.500000e-06	-2.521643e-07	2.052621e-09	-1.747872e+00	1.325191e+02
2.510000e-06	-3.829698e-07	1.830756e-09	-2.654547e+00	1.183272e+02
2.520000e-06	-5.136453e-07	1.604356e-09	-3.560321e+00	1.036679e+02
2.530000e-06	-6.441387e-07	1.373405e-09	-4.464834e+00	8.850267e+01
2.540000e-06	-7.744888e-07	1.134138e-09	-5.368352e+00	7.279436e+01
2.550000e-06	-9.046012e-07	8.837863e-10	-6.270223e+00	5.651219e+01
2.560000e-06	-1.034399e-06	6.251104e-10	-7.169917e+00	3.963648e+01
2.570000e-06	-1.163929e-06	3.615653e-10	-8.067750e+00	2.216361e+01
2.580000e-06	-1.293117e-06	8.957863e-11	-8.963215e+00	4.110125e+00
2.590000e-06	-1.421854e-06	-1.940331e-10	-9.855552e+00	-1.448426e+01
2.600000e-06	-1.550080e-06	-4.870653e-10	-1.074435e+01	-3.355528e+01
2.610000e-06	-1.677634e-06	-7.873421e-10	-1.162848e+01	-5.301456e+01
2.620000e-06	-1.804488e-06	-1.092223e-09	-1.250777e+01	-7.275203e+01
2.630000e-06	-1.930655e-06	-1.397403e-09	-1.338229e+01	-9.264019e+01
2.640000e-06	-2.056116e-06	-1.700066e-09	-1.425192e+01	-1.125399e+02
2.650000e-06	-2.180867e-06	-2.000997e-09	-1.511663e+01	-1.323072e+02
2.660000e-06	-2.304725e-06	-2.300128e-09	-1.597515e+01	-1.518007e+02
2.670000e-06	-2.427575e-06	-2.593126e-09	-1.682668e+01	-1.708888e+02
2.680000e-06	-2.549492e-06	-2.875616e-09	-1.767175e+01	-1.894561e+02
2.690000e-06	-2.670557e-06	-3.149633e-09	-1.851091e+01	-2.074084e+02
2.700000e-06	-2.790626e-06	-3.414292e-09	-1.934316e+01	-2.246761e+02
2.710000e-06	-2.909591e-06	-3.667824e-09	-2.016777e+01	-2.412154e+02
2.720000e-06	-3.027433e-06	-3.910220e-09	-2.098459e+01	-2.570079e+02
2.730000e-06	-3.144098e-06	-4.141580e-09	-2.179325e+01	-2.720574e+02
2.740000e-06	-3.259505e-06	-4.363746e-09	-2.259318e+01	-2.863867e+02
2.750000e-06	-3.373540e-06	-4.576444e-09	-2.338362e+01	-3.000318e+02
2.760000e-06	-3.486179e-06	-4.779126e-09	-2.416437e+01	-3.130369e+02
2.770000e-06	-3.597410e-06	-4.970368e-09	-2.493537e+01	-3.254485e+02
2.780000e-06	-3.707287e-06	-5.152726e-09	-2.569698e+01	-3.373115e+02
2.790000e-06	-3.815929e-06	-5.326353e-09	-2.645003e+01	-3.486650e+02
2.800000e-06	-3.923358e-06	-5.493486e-09	-2.719467e+01	-3.595399e+02
2.810000e-06	-4.029561e-06	-5.652889e-09	-2.793081e+01	-3.699586e+02
2.820000e-06	-4.134426e-06	-5.803188e-09	-2.865769e+01	-3.799352e+02
2.830000e-06	-4.237725e-06	-5.946250e-09	-2.937370e+01	-3.894771e+02
2.840000e-06	-4.339378e-06	-6.082558e-09	-3.007831e+01	-3.985874e+02
2.850000e-06	-4.439463e-06	-6.215421e-09	-3.077204e+01	-4.072677e+02
2.860000e-06	-4.538032e-06	-6.343229e-09	-3.145527e+01	-4.155207e+02
2.870000e-06	-4.635070e-06	-6.465069e-09	-3.212789e+01	-4.233528e+02
2.880000e-06	-4.730497e-06	-6.579790e-09	-3.278934e+01	-4.307750e+02
2.890000e-06	-4.824169e-06	-6.687854e-09	-3.343862e+01	-4.378044e+02
2.900000e-06	-4.916086e-06	-6.791769e-09	-3.407575e+01	-4.444633e+02
2.910000e-06	-5.006305e-06	-6.890646e-09	-3.470110e+01	-4.507787e+02
2.920000e-06	-5.094695e-06	-6.982869e-09	-3.531377e+01	-4.567803e+02
2.930000e-06	-5.181121e-06	-7.069040e-09	-3.591283e+01	-4.624989e+02
2.940000e-06	-5.265650e-06	-7.151948e-09	-3.649874e+01	-4.679638e+02
