# Temperatura_=_30.75
# Concentracion g/m^3_=_15000.0
# C_Vs_to_Am_M_A/Vsm_=_65563218390.804596
# pendiente_HvsI_1/m_=_3716.3
# ordenada_HvsI_A/m_=_1297.0
# frecuencia_Hz_=_301890.6111733776

Tiempo_(s)	Campo_(V.s)	Magnetizacion_(V.s)	Campo_(kA/m)	Magnetizacion_(A/m)
0.000000e+00	-6.845736e-06	-8.152737e-09	-4.750405e+01	-5.325620e+02
1.000000e-08	-6.842765e-06	-8.147573e-09	-4.748343e+01	-5.323916e+02
2.000000e-08	-6.837546e-06	-8.143272e-09	-4.744722e+01	-5.321159e+02
3.000000e-08	-6.830206e-06	-8.140666e-09	-4.739628e+01	-5.317410e+02
4.000000e-08	-6.820512e-06	-8.134509e-09	-4.732901e+01	-5.312756e+02
5.000000e-08	-6.808328e-06	-8.125101e-09	-4.724447e+01	-5.307309e+02
6.000000e-08	-6.793581e-06	-8.111964e-09	-4.714213e+01	-5.301198e+02
7.000000e-08	-6.776541e-06	-8.103132e-09	-4.702389e+01	-5.294550e+02
8.000000e-08	-6.757439e-06	-8.112415e-09	-4.689134e+01	-5.287486e+02
9.000000e-08	-6.735949e-06	-8.097757e-09	-4.674221e+01	-5.280099e+02
1.000000e-07	-6.711671e-06	-8.077971e-09	-4.657374e+01	-5.272449e+02
1.100000e-07	-6.684644e-06	-8.067050e-09	-4.638619e+01	-5.264554e+02
1.200000e-07	-6.655275e-06	-8.037656e-09	-4.618240e+01	-5.256383e+02
1.300000e-07	-6.623941e-06	-7.991990e-09	-4.596496e+01	-5.247863e+02
1.400000e-07	-6.590731e-06	-8.011139e-09	-4.573451e+01	-5.238879e+02
1.500000e-07	-6.555552e-06	-8.007223e-09	-4.549040e+01	-5.229292e+02
1.600000e-07	-6.518297e-06	-7.941994e-09	-4.523187e+01	-5.218943e+02
1.700000e-07	-6.478949e-06	-7.982739e-09	-4.495884e+01	-5.207675e+02
1.800000e-07	-6.437253e-06	-7.926626e-09	-4.466950e+01	-5.195342e+02
1.900000e-07	-6.393013e-06	-7.878921e-09	-4.436251e+01	-5.181826e+02
2.000000e-07	-6.346525e-06	-7.915845e-09	-4.403992e+01	-5.167040e+02
2.100000e-07	-6.297538e-06	-7.884409e-09	-4.369998e+01	-5.150937e+02
2.200000e-07	-6.245795e-06	-7.871754e-09	-4.334093e+01	-5.133511e+02
2.300000e-07	-6.191552e-06	-7.820739e-09	-4.296452e+01	-5.114788e+02
2.400000e-07	-6.134935e-06	-7.771613e-09	-4.257165e+01	-5.094825e+02
2.500000e-07	-6.076001e-06	-7.745457e-09	-4.216269e+01	-5.073698e+02
2.600000e-07	-6.014853e-06	-7.690780e-09	-4.173837e+01	-5.051488e+02
2.700000e-07	-5.951565e-06	-7.654382e-09	-4.129920e+01	-5.028276e+02
2.800000e-07	-5.886056e-06	-7.621084e-09	-4.084462e+01	-5.004133e+02
2.900000e-07	-5.818288e-06	-7.595863e-09	-4.037436e+01	-4.979108e+02
3.000000e-07	-5.748399e-06	-7.554820e-09	-3.988939e+01	-4.953231e+02
3.100000e-07	-5.676360e-06	-7.518606e-09	-3.938949e+01	-4.926507e+02
3.200000e-07	-5.602083e-06	-7.490957e-09	-3.887407e+01	-4.898922e+02
3.300000e-07	-5.525520e-06	-7.414943e-09	-3.834278e+01	-4.870442e+02
3.400000e-07	-5.446710e-06	-7.367566e-09	-3.779590e+01	-4.841023e+02
3.500000e-07	-5.365802e-06	-7.336011e-09	-3.723446e+01	-4.810612e+02
3.600000e-07	-5.282995e-06	-7.296450e-09	-3.665985e+01	-4.779158e+02
3.700000e-07	-5.198467e-06	-7.246770e-09	-3.607329e+01	-4.746611e+02
3.800000e-07	-5.112312e-06	-7.184582e-09	-3.547544e+01	-4.712929e+02
3.900000e-07	-5.024436e-06	-7.128236e-09	-3.486565e+01	-4.678080e+02
4.000000e-07	-4.934688e-06	-7.061457e-09	-3.424287e+01	-4.642039e+02
4.100000e-07	-4.843161e-06	-7.008765e-09	-3.360774e+01	-4.604790e+02
4.200000e-07	-4.750001e-06	-6.958575e-09	-3.296129e+01	-4.566322e+02
4.300000e-07	-4.655206e-06	-6.900924e-09	-3.230348e+01	-4.526628e+02
4.400000e-07	-4.558721e-06	-6.836207e-09	-3.163396e+01	-4.485702e+02
4.500000e-07	-4.460528e-06	-6.763654e-09	-3.095257e+01	-4.443534e+02
4.600000e-07	-4.360684e-06	-6.697051e-09	-3.025973e+01	-4.400112e+02
4.700000e-07	-4.259368e-06	-6.624887e-09	-2.955668e+01	-4.355416e+02
4.800000e-07	-4.156563e-06	-6.554244e-09	-2.884329e+01	-4.309419e+02
4.900000e-07	-4.052230e-06	-6.484455e-09	-2.811930e+01	-4.262088e+02
5.000000e-07	-3.946462e-06	-6.412205e-09	-2.738536e+01	-4.213381e+02
5.100000e-07	-3.839165e-06	-6.336862e-09	-2.664080e+01	-4.163251e+02
5.200000e-07	-3.730498e-06	-6.256353e-09	-2.588674e+01	-4.111646e+02
5.300000e-07	-3.620601e-06	-6.168005e-09	-2.512413e+01	-4.058511e+02
5.400000e-07	-3.509277e-06	-6.073492e-09	-2.435163e+01	-4.003789e+02
5.500000e-07	-3.396530e-06	-5.986001e-09	-2.356926e+01	-3.947425e+02
5.600000e-07	-3.282466e-06	-5.900083e-09	-2.277775e+01	-3.889367e+02
5.700000e-07	-3.167026e-06	-5.814545e-09	-2.197668e+01	-3.829569e+02
5.800000e-07	-3.050239e-06	-5.725446e-09	-2.116627e+01	-3.767992e+02
5.900000e-07	-2.932343e-06	-5.630020e-09	-2.034816e+01	-3.704605e+02
6.000000e-07	-2.813321e-06	-5.525366e-09	-1.952225e+01	-3.639382e+02
6.100000e-07	-2.693142e-06	-5.416634e-09	-1.868829e+01	-3.572304e+02
6.200000e-07	-2.572096e-06	-5.311736e-09	-1.784833e+01	-3.503352e+02
6.300000e-07	-2.450196e-06	-5.205027e-09	-1.700244e+01	-3.432506e+02
6.400000e-07	-2.327261e-06	-5.092875e-09	-1.614937e+01	-3.359736e+02
6.500000e-07	-2.203405e-06	-4.977698e-09	-1.528991e+01	-3.285001e+02
6.600000e-07	-2.078799e-06	-4.861534e-09	-1.442524e+01	-3.208240e+02
6.700000e-07	-1.953589e-06	-4.740599e-09	-1.355638e+01	-3.129372e+02
6.800000e-07	-1.827772e-06	-4.616216e-09	-1.268331e+01	-3.048292e+02
6.900000e-07	-1.701281e-06	-4.490031e-09	-1.180556e+01	-2.964873e+02
7.000000e-07	-1.574174e-06	-4.360592e-09	-1.092354e+01	-2.878974e+02
7.100000e-07	-1.446467e-06	-4.226929e-09	-1.003735e+01	-2.790441e+02
7.200000e-07	-1.318231e-06	-4.087604e-09	-9.147494e+00	-2.699118e+02
7.300000e-07	-1.189657e-06	-3.942269e-09	-8.255290e+00	-2.604859e+02
7.400000e-07	-1.060784e-06	-3.790191e-09	-7.361012e+00	-2.507536e+02
7.500000e-07	-9.316038e-07	-3.633525e-09	-6.464601e+00	-2.407048e+02
7.600000e-07	-8.021439e-07	-3.472398e-09	-5.566251e+00	-2.303321e+02
7.700000e-07	-6.723800e-07	-3.308026e-09	-4.665791e+00	-2.196315e+02
7.800000e-07	-5.423756e-07	-3.140757e-09	-3.763662e+00	-2.086013e+02
7.900000e-07	-4.121908e-07	-2.968764e-09	-2.860281e+00	-1.972411e+02
8.000000e-07	-2.817980e-07	-2.790685e-09	-1.955458e+00	-1.855507e+02
8.100000e-07	-1.512936e-07	-2.607798e-09	-1.049859e+00	-1.735277e+02
8.200000e-07	-2.072292e-08	-2.421271e-09	-1.438009e-01	-1.611666e+02
8.300000e-07	1.099176e-07	-2.231395e-09	7.627422e-01	-1.484561e+02
8.400000e-07	2.405494e-07	-2.036525e-09	1.669224e+00	-1.353791e+02
8.500000e-07	3.711051e-07	-1.833734e-09	2.575179e+00	-1.219118e+02
8.600000e-07	5.015587e-07	-1.622759e-09	3.480425e+00	-1.080245e+02
8.700000e-07	6.318503e-07	-1.401813e-09	4.384547e+00	-9.368361e+01
8.800000e-07	7.618969e-07	-1.172237e-09	5.286968e+00	-7.885433e+01
8.900000e-07	8.917332e-07	-9.365891e-10	6.187930e+00	-6.350432e+01
9.000000e-07	1.021336e-06	-6.970329e-10	7.087275e+00	-4.760817e+01
9.100000e-07	1.150594e-06	-4.512070e-10	7.984225e+00	-3.115185e+01
9.200000e-07	1.279429e-06	-1.958212e-10	8.878233e+00	-1.413711e+01
9.300000e-07	1.407846e-06	6.763651e-11	9.769348e+00	3.414990e+00
9.400000e-07	1.535830e-06	3.383580e-10	1.065746e+01	2.146159e+01
9.500000e-07	1.663224e-06	6.181258e-10	1.154148e+01	3.993714e+01
9.600000e-07	1.789921e-06	9.066393e-10	1.242065e+01	5.875418e+01
9.700000e-07	1.915910e-06	1.200672e-09	1.329492e+01	7.780596e+01
9.800000e-07	2.041255e-06	1.495394e-09	1.416471e+01	9.697064e+01
9.900000e-07	2.166018e-06	1.788971e-09	1.503047e+01	1.161169e+02
1.000000e-06	2.290140e-06	2.078671e-09	1.589178e+01	1.351104e+02
1.010000e-06	2.413352e-06	2.361915e-09	1.674678e+01	1.538205e+02
1.020000e-06	2.535473e-06	2.639339e-09	1.759419e+01	1.721269e+02
1.030000e-06	2.656632e-06	2.907800e-09	1.843494e+01	1.899253e+02
1.040000e-06	2.776889e-06	3.165418e-09	1.926943e+01	2.071315e+02
1.050000e-06	2.896095e-06	3.412093e-09	2.009663e+01	2.236845e+02
1.060000e-06	3.014176e-06	3.649155e-09	2.091602e+01	2.395470e+02
1.070000e-06	3.131180e-06	3.880292e-09	2.172794e+01	2.547041e+02
1.080000e-06	3.247022e-06	4.101325e-09	2.253179e+01	2.691612e+02
1.090000e-06	3.361482e-06	4.310023e-09	2.332606e+01	2.829395e+02
1.100000e-06	3.474556e-06	4.507444e-09	2.411070e+01	2.960716e+02
1.110000e-06	3.586376e-06	4.698225e-09	2.488664e+01	3.085961e+02
1.120000e-06	3.696953e-06	4.881613e-09	2.565396e+01	3.205532e+02
1.130000e-06	3.806286e-06	5.055686e-09	2.641264e+01	3.319807e+02
1.140000e-06	3.914463e-06	5.222890e-09	2.716331e+01	3.429106e+02
1.150000e-06	4.021332e-06	5.382709e-09	2.790489e+01	3.533682e+02
1.160000e-06	4.126655e-06	5.536147e-09	2.863576e+01	3.633710e+02
1.170000e-06	4.230434e-06	5.682235e-09	2.935590e+01	3.729301e+02
1.180000e-06	4.332721e-06	5.820038e-09	3.006569e+01	3.820520e+02
1.190000e-06	4.433572e-06	5.950986e-09	3.076552e+01	3.907404e+02
1.200000e-06	4.532843e-06	6.074506e-09	3.145438e+01	3.989994e+02
1.210000e-06	4.630371e-06	6.190853e-09	3.213115e+01	4.068352e+02
1.220000e-06	4.726129e-06	6.302397e-09	3.279563e+01	4.142584e+02
1.230000e-06	4.820196e-06	6.407926e-09	3.344839e+01	4.212846e+02
1.240000e-06	4.912740e-06	6.508555e-09	3.409057e+01	4.279350e+02
1.250000e-06	5.003558e-06	6.604306e-09	3.472078e+01	4.342354e+02
1.260000e-06	5.092443e-06	6.696183e-09	3.533757e+01	4.402150e+02
1.270000e-06	5.179475e-06	6.783944e-09	3.594150e+01	4.459046e+02
1.280000e-06	5.264723e-06	6.867868e-09	3.653306e+01	4.513343e+02
1.290000e-06	5.348143e-06	6.947576e-09	3.711193e+01	4.565321e+02
1.300000e-06	5.429611e-06	7.022115e-09	3.767725e+01	4.615216e+02
1.310000e-06	5.509035e-06	7.093520e-09	3.822839e+01	4.663213e+02
1.320000e-06	5.586479e-06	7.160898e-09	3.876579e+01	4.709442e+02
1.330000e-06	5.661852e-06	7.226020e-09	3.928882e+01	4.753974e+02
1.340000e-06	5.734954e-06	7.291313e-09	3.979609e+01	4.796833e+02
1.350000e-06	5.805912e-06	7.354780e-09	4.028849e+01	4.838008e+02
1.360000e-06	5.874859e-06	7.414509e-09	4.076692e+01	4.877461e+02
1.370000e-06	5.941748e-06	7.470292e-09	4.123108e+01	4.915148e+02
1.380000e-06	6.006466e-06	7.524798e-09	4.168017e+01	4.951026e+02
1.390000e-06	6.069042e-06	7.578360e-09	4.211440e+01	4.985065e+02
1.400000e-06	6.129647e-06	7.628332e-09	4.253495e+01	5.017256e+02
1.410000e-06	6.188179e-06	7.674889e-09	4.294112e+01	5.047609e+02
1.420000e-06	6.244422e-06	7.717486e-09	4.333140e+01	5.076153e+02
1.430000e-06	6.298368e-06	7.756677e-09	4.370574e+01	5.102935e+02
1.440000e-06	6.349852e-06	7.793699e-09	4.406300e+01	5.128008e+02
1.450000e-06	6.398743e-06	7.827983e-09	4.440227e+01	5.151434e+02
1.460000e-06	6.445253e-06	7.860387e-09	4.472501e+01	5.173271e+02
1.470000e-06	6.489598e-06	7.890197e-09	4.503273e+01	5.193575e+02
1.480000e-06	6.531727e-06	7.918440e-09	4.532507e+01	5.212398e+02
1.490000e-06	6.571445e-06	7.945476e-09	4.560068e+01	5.229788e+02
1.500000e-06	6.608885e-06	7.969661e-09	4.586049e+01	5.245791e+02
1.510000e-06	6.644116e-06	7.990670e-09	4.610497e+01	5.260456e+02
1.520000e-06	6.676909e-06	8.008590e-09	4.633252e+01	5.273833e+02
1.530000e-06	6.707330e-06	8.025283e-09	4.654362e+01	5.285979e+02
1.540000e-06	6.735563e-06	8.042418e-09	4.673953e+01	5.296955e+02
1.550000e-06	6.761328e-06	8.058200e-09	4.691832e+01	5.306824e+02
1.560000e-06	6.784458e-06	8.070888e-09	4.707883e+01	5.315646e+02
1.570000e-06	6.805232e-06	8.081639e-09	4.722298e+01	5.323474e+02
1.580000e-06	6.823669e-06	8.093298e-09	4.735092e+01	5.330350e+02
1.590000e-06	6.839579e-06	8.104284e-09	4.746132e+01	5.336299e+02
1.600000e-06	6.852952e-06	8.112416e-09	4.755412e+01	5.341328e+02
1.610000e-06	6.863665e-06	8.118138e-09	4.762846e+01	5.345422e+02
1.620000e-06	6.871654e-06	8.121298e-09	4.768390e+01	5.348556e+02
1.630000e-06	6.877222e-06	8.124574e-09	4.772254e+01	5.350690e+02
1.640000e-06	6.880472e-06	8.128125e-09	4.774509e+01	5.351787e+02
1.650000e-06	6.881288e-06	8.130839e-09	4.775075e+01	5.351815e+02
1.660000e-06	6.879743e-06	8.129777e-09	4.774003e+01	5.350759e+02
1.670000e-06	6.876023e-06	8.130145e-09	4.771421e+01	5.348631e+02
1.680000e-06	6.869963e-06	8.127182e-09	4.767216e+01	5.345471e+02
1.690000e-06	6.861601e-06	8.122399e-09	4.761414e+01	5.341349e+02
1.700000e-06	6.851090e-06	8.116644e-09	4.754120e+01	5.336364e+02
1.710000e-06	6.838204e-06	8.109458e-09	4.745178e+01	5.330636e+02
1.720000e-06	6.822903e-06	8.102178e-09	4.734561e+01	5.324294e+02
1.730000e-06	6.805485e-06	8.066472e-09	4.722473e+01	5.317464e+02
1.740000e-06	6.785840e-06	8.059052e-09	4.708842e+01	5.310258e+02
1.750000e-06	6.763081e-06	8.054058e-09	4.693049e+01	5.302758e+02
1.760000e-06	6.737047e-06	8.030350e-09	4.674983e+01	5.295008e+02
1.770000e-06	6.708457e-06	8.043309e-09	4.655144e+01	5.287005e+02
1.780000e-06	6.677763e-06	8.060402e-09	4.633845e+01	5.278704e+02
1.790000e-06	6.645562e-06	7.997216e-09	4.611500e+01	5.270012e+02
1.800000e-06	6.611851e-06	8.034684e-09	4.588107e+01	5.260804e+02
1.810000e-06	6.575689e-06	8.020006e-09	4.563014e+01	5.250931e+02
1.820000e-06	6.537078e-06	7.972945e-09	4.536220e+01	5.240235e+02
1.830000e-06	6.496344e-06	8.042071e-09	4.507954e+01	5.228559e+02
1.840000e-06	6.453347e-06	7.934535e-09	4.478117e+01	5.215769e+02
1.850000e-06	6.408213e-06	7.897833e-09	4.446798e+01	5.201757e+02
1.860000e-06	6.360765e-06	7.910438e-09	4.413873e+01	5.186453e+02
1.870000e-06	6.310940e-06	7.830461e-09	4.379298e+01	5.169824e+02
1.880000e-06	6.258769e-06	7.864602e-09	4.343096e+01	5.151878e+02
1.890000e-06	6.203830e-06	7.831182e-09	4.304973e+01	5.132655e+02
1.900000e-06	6.146399e-06	7.807805e-09	4.265119e+01	5.112220e+02
1.910000e-06	6.086738e-06	7.803380e-09	4.223720e+01	5.090653e+02
1.920000e-06	6.024787e-06	7.711935e-09	4.180730e+01	5.068035e+02
1.930000e-06	5.960648e-06	7.711520e-09	4.136223e+01	5.044445e+02
1.940000e-06	5.894338e-06	7.651275e-09	4.090209e+01	5.019945e+02
1.950000e-06	5.825878e-06	7.615157e-09	4.042703e+01	4.994578e+02
1.960000e-06	5.755020e-06	7.577410e-09	3.993533e+01	4.968364e+02
1.970000e-06	5.681928e-06	7.532134e-09	3.942813e+01	4.941300e+02
1.980000e-06	5.606797e-06	7.536195e-09	3.890678e+01	4.913363e+02
1.990000e-06	5.529430e-06	7.458804e-09	3.836992e+01	4.884515e+02
2.000000e-06	5.449907e-06	7.414112e-09	3.781809e+01	4.854708e+02
2.010000e-06	5.368450e-06	7.352633e-09	3.725284e+01	4.823888e+02
2.020000e-06	5.285259e-06	7.297165e-09	3.667556e+01	4.792005e+02
2.030000e-06	5.200134e-06	7.258727e-09	3.608486e+01	4.759012e+02
2.040000e-06	5.112989e-06	7.217269e-09	3.548014e+01	4.724870e+02
2.050000e-06	5.024050e-06	7.184229e-09	3.486297e+01	4.689550e+02
2.060000e-06	4.933530e-06	7.103988e-09	3.423484e+01	4.653031e+02
2.070000e-06	4.841412e-06	7.045257e-09	3.359561e+01	4.615299e+02
2.080000e-06	4.747526e-06	6.982006e-09	3.294411e+01	4.576345e+02
2.090000e-06	4.651843e-06	6.932185e-09	3.228015e+01	4.536163e+02
2.100000e-06	4.554503e-06	6.869331e-09	3.160469e+01	4.494745e+02
2.110000e-06	4.455756e-06	6.804011e-09	3.091945e+01	4.452082e+02
2.120000e-06	4.355429e-06	6.747989e-09	3.022327e+01	4.408157e+02
2.130000e-06	4.253474e-06	6.673170e-09	2.951578e+01	4.362948e+02
2.140000e-06	4.149950e-06	6.599770e-09	2.879741e+01	4.316427e+02
2.150000e-06	4.044886e-06	6.519959e-09	2.806834e+01	4.268555e+02
2.160000e-06	3.938513e-06	6.449543e-09	2.733019e+01	4.219290e+02
2.170000e-06	3.830758e-06	6.374632e-09	2.658246e+01	4.168583e+02
2.180000e-06	3.721626e-06	6.303960e-09	2.582517e+01	4.116379e+02
2.190000e-06	3.611133e-06	6.227015e-09	2.505843e+01	4.062622e+02
2.200000e-06	3.499231e-06	6.146601e-09	2.428192e+01	4.007256e+02
2.210000e-06	3.385971e-06	6.053680e-09	2.349599e+01	3.950227e+02
2.220000e-06	3.271342e-06	5.954181e-09	2.270055e+01	3.891486e+02
2.230000e-06	3.155297e-06	5.860750e-09	2.189529e+01	3.830988e+02
2.240000e-06	3.038000e-06	5.771128e-09	2.108134e+01	3.768699e+02
2.250000e-06	2.919572e-06	5.682969e-09	2.025954e+01	3.704588e+02
2.260000e-06	2.799904e-06	5.582483e-09	1.942914e+01	3.638633e+02
2.270000e-06	2.679100e-06	5.477119e-09	1.859086e+01	3.570816e+02
2.280000e-06	2.557437e-06	5.369615e-09	1.774661e+01	3.501118e+02
2.290000e-06	2.434993e-06	5.261831e-09	1.689694e+01	3.429515e+02
2.300000e-06	2.311619e-06	5.151643e-09	1.604083e+01	3.355974e+02
2.310000e-06	2.187415e-06	5.041431e-09	1.517895e+01	3.280447e+02
2.320000e-06	2.062504e-06	4.922809e-09	1.431217e+01	3.202864e+02
2.330000e-06	1.936945e-06	4.796776e-09	1.344088e+01	3.123135e+02
2.340000e-06	1.810740e-06	4.666951e-09	1.256512e+01	3.041148e+02
2.350000e-06	1.683861e-06	4.536181e-09	1.168468e+01	2.956768e+02
2.360000e-06	1.556407e-06	4.405398e-09	1.080024e+01	2.869847e+02
2.370000e-06	1.428383e-06	4.271639e-09	9.911857e+00	2.780231e+02
2.380000e-06	1.299804e-06	4.136679e-09	9.019619e+00	2.687766e+02
2.390000e-06	1.170790e-06	3.997603e-09	8.124368e+00	2.592313e+02
2.400000e-06	1.041439e-06	3.849296e-09	7.226772e+00	2.493752e+02
2.410000e-06	9.118198e-07	3.691952e-09	6.327315e+00	2.391993e+02
2.420000e-06	7.820260e-07	3.527858e-09	5.426648e+00	2.286977e+02
2.430000e-06	6.520818e-07	3.359422e-09	4.524937e+00	2.178672e+02
2.440000e-06	5.219279e-07	3.190778e-09	3.621771e+00	2.067068e+02
2.450000e-06	3.915883e-07	3.019433e-09	2.717316e+00	1.952165e+02
2.460000e-06	2.611208e-07	2.842465e-09	1.811974e+00	1.833954e+02
2.470000e-06	1.305037e-07	2.656173e-09	9.055932e-01	1.712400e+02
2.480000e-06	-2.304112e-10	2.461483e-09	-1.598874e-03	1.587428e+02
2.490000e-06	-1.309710e-07	2.264383e-09	-9.088363e-01	1.458902e+02
2.500000e-06	-2.616943e-07	2.061779e-09	-1.815954e+00	1.326626e+02
2.510000e-06	-3.923591e-07	1.849649e-09	-2.722665e+00	1.190336e+02
2.520000e-06	-5.228913e-07	1.630476e-09	-3.628456e+00	1.049717e+02
2.530000e-06	-6.532288e-07	1.405326e-09	-4.532896e+00	9.044259e+01
2.540000e-06	-7.833510e-07	1.175085e-09	-5.435842e+00	7.541181e+01
2.550000e-06	-9.132859e-07	9.374818e-10	-6.337489e+00	5.984925e+01
2.560000e-06	-1.042984e-06	6.916362e-10	-7.237494e+00	4.373342e+01
2.570000e-06	-1.172401e-06	4.386803e-10	-8.135544e+00	2.705602e+01
2.580000e-06	-1.301466e-06	1.772014e-10	-9.031154e+00	9.825990e+00
2.590000e-06	-1.430029e-06	-9.299196e-11	-9.923285e+00	-7.927242e+00
2.600000e-06	-1.558032e-06	-3.718018e-10	-1.081152e+01	-2.615192e+01
2.610000e-06	-1.685456e-06	-6.588564e-10	-1.169574e+01	-4.477370e+01
2.620000e-06	-1.812136e-06	-9.525186e-10	-1.257480e+01	-6.369714e+01
2.630000e-06	-1.938064e-06	-1.248637e-09	-1.344865e+01	-8.280896e+01
2.640000e-06	-2.063371e-06	-1.541828e-09	-1.431818e+01	-1.019829e+02
2.650000e-06	-2.187874e-06	-1.831674e-09	-1.518213e+01	-1.210856e+02
2.660000e-06	-2.311459e-06	-2.120918e-09	-1.603971e+01	-1.399834e+02
2.670000e-06	-2.434132e-06	-2.406515e-09	-1.689097e+01	-1.585490e+02
2.680000e-06	-2.555902e-06	-2.684269e-09	-1.773596e+01	-1.766677e+02
2.690000e-06	-2.676805e-06	-2.954160e-09	-1.857493e+01	-1.942427e+02
2.700000e-06	-2.796671e-06	-3.212868e-09	-1.940671e+01	-2.111988e+02
2.710000e-06	-2.915343e-06	-3.460624e-09	-2.023020e+01	-2.274842e+02
2.720000e-06	-3.032874e-06	-3.699593e-09	-2.104577e+01	-2.430706e+02
2.730000e-06	-3.149256e-06	-3.928054e-09	-2.185337e+01	-2.579516e+02
2.740000e-06	-3.264352e-06	-4.146516e-09	-2.265204e+01	-2.721393e+02
2.750000e-06	-3.378104e-06	-4.355391e-09	-2.344139e+01	-2.856599e+02
2.760000e-06	-3.490514e-06	-4.555321e-09	-2.422144e+01	-2.985490e+02
2.770000e-06	-3.601567e-06	-4.744946e-09	-2.499205e+01	-3.108464e+02
2.780000e-06	-3.711262e-06	-4.925487e-09	-2.575325e+01	-3.225917e+02
2.790000e-06	-3.819749e-06	-5.097847e-09	-2.650607e+01	-3.338207e+02
2.800000e-06	-3.927025e-06	-5.261766e-09	-2.725048e+01	-3.445630e+02
2.810000e-06	-4.033063e-06	-5.417841e-09	-2.798630e+01	-3.548407e+02
2.820000e-06	-4.137772e-06	-5.566046e-09	-2.871290e+01	-3.646687e+02
2.830000e-06	-4.240810e-06	-5.707715e-09	-2.942790e+01	-3.740560e+02
2.840000e-06	-4.342174e-06	-5.843241e-09	-3.013129e+01	-3.830077e+02
2.850000e-06	-4.442024e-06	-5.973393e-09	-3.082417e+01	-3.915273e+02
2.860000e-06	-4.540361e-06	-6.098647e-09	-3.150655e+01	-3.996196e+02
2.870000e-06	-4.637189e-06	-6.218512e-09	-3.217846e+01	-4.072923e+02
2.880000e-06	-4.732342e-06	-6.331496e-09	-3.283875e+01	-4.145578e+02
2.890000e-06	-4.825762e-06	-6.438368e-09	-3.348701e+01	-4.214341e+02
2.900000e-06	-4.917472e-06	-6.540834e-09	-3.412341e+01	-4.279442e+02
2.910000e-06	-5.007421e-06	-6.637388e-09	-3.474758e+01	-4.341154e+02
2.920000e-06	-5.095629e-06	-6.727142e-09	-3.535968e+01	-4.399779e+02
2.930000e-06	-5.181932e-06	-6.810981e-09	-3.595855e+01	-4.455624e+02
2.940000e-06	-5.266221e-06	-6.891615e-09	-3.654345e+01	-4.508984e+02
