# Temperatura_=_74.83
# Concentracion g/m^3_=_15000.0
# C_Vs_to_Am_M_A/Vsm_=_65563218390.804596
# pendiente_HvsI_1/m_=_3716.3
# ordenada_HvsI_A/m_=_1297.0
# frecuencia_Hz_=_301587.3559859082

Tiempo_(s)	Campo_(V.s)	Magnetizacion_(V.s)	Campo_(kA/m)	Magnetizacion_(A/m)
0.000000e+00	-5.391869e-06	-7.446626e-09	-3.833994e+01	-4.867256e+02
1.000000e-08	-5.389309e-06	-7.445234e-09	-3.832174e+01	-4.865229e+02
2.000000e-08	-5.384878e-06	-7.437572e-09	-3.829023e+01	-4.862080e+02
3.000000e-08	-5.378795e-06	-7.428586e-09	-3.824698e+01	-4.857781e+02
4.000000e-08	-5.371150e-06	-7.418698e-09	-3.819262e+01	-4.852324e+02
5.000000e-08	-5.361780e-06	-7.406260e-09	-3.812598e+01	-4.845732e+02
6.000000e-08	-5.350372e-06	-7.394136e-09	-3.804487e+01	-4.838057e+02
7.000000e-08	-5.336963e-06	-7.381180e-09	-3.794952e+01	-4.829379e+02
8.000000e-08	-5.321426e-06	-7.366111e-09	-3.783904e+01	-4.819800e+02
9.000000e-08	-5.303654e-06	-7.392866e-09	-3.771267e+01	-4.809431e+02
1.000000e-07	-5.283825e-06	-7.387456e-09	-3.757167e+01	-4.798377e+02
1.100000e-07	-5.262116e-06	-7.327530e-09	-3.741730e+01	-4.786729e+02
1.200000e-07	-5.238742e-06	-7.298785e-09	-3.725110e+01	-4.774544e+02
1.300000e-07	-5.213777e-06	-7.237082e-09	-3.707358e+01	-4.761846e+02
1.400000e-07	-5.187153e-06	-7.180256e-09	-3.688427e+01	-4.748610e+02
1.500000e-07	-5.158953e-06	-7.281942e-09	-3.668375e+01	-4.734772e+02
1.600000e-07	-5.129299e-06	-7.221428e-09	-3.647289e+01	-4.720232e+02
1.700000e-07	-5.098080e-06	-7.168263e-09	-3.625089e+01	-4.704862e+02
1.800000e-07	-5.064811e-06	-7.233915e-09	-3.601433e+01	-4.688524e+02
1.900000e-07	-5.029578e-06	-7.072453e-09	-3.576380e+01	-4.671081e+02
2.000000e-07	-4.992845e-06	-7.032708e-09	-3.550261e+01	-4.652413e+02
2.100000e-07	-4.954417e-06	-7.086284e-09	-3.522935e+01	-4.632428e+02
2.200000e-07	-4.914214e-06	-7.004357e-09	-3.494348e+01	-4.611072e+02
2.300000e-07	-4.872120e-06	-7.006074e-09	-3.464416e+01	-4.588328e+02
2.400000e-07	-4.828058e-06	-6.972956e-09	-3.433085e+01	-4.564220e+02
2.500000e-07	-4.782206e-06	-6.865435e-09	-3.400481e+01	-4.538799e+02
2.600000e-07	-4.734430e-06	-6.870280e-09	-3.366510e+01	-4.512142e+02
2.700000e-07	-4.684580e-06	-6.833284e-09	-3.331062e+01	-4.484332e+02
2.800000e-07	-4.632702e-06	-6.805526e-09	-3.294174e+01	-4.455452e+02
2.900000e-07	-4.578924e-06	-6.762436e-09	-3.255934e+01	-4.425569e+02
3.000000e-07	-4.523520e-06	-6.676859e-09	-3.216537e+01	-4.394731e+02
3.100000e-07	-4.466453e-06	-6.632756e-09	-3.175959e+01	-4.362959e+02
3.200000e-07	-4.407548e-06	-6.605752e-09	-3.134073e+01	-4.330249e+02
3.300000e-07	-4.347026e-06	-6.566279e-09	-3.091038e+01	-4.296572e+02
3.400000e-07	-4.285083e-06	-6.477176e-09	-3.046992e+01	-4.261886e+02
3.500000e-07	-4.221797e-06	-6.420071e-09	-3.001992e+01	-4.226136e+02
3.600000e-07	-4.156993e-06	-6.380746e-09	-2.955911e+01	-4.189271e+02
3.700000e-07	-4.090484e-06	-6.325279e-09	-2.908618e+01	-4.151247e+02
3.800000e-07	-4.022429e-06	-6.285687e-09	-2.860227e+01	-4.112032e+02
3.900000e-07	-3.952991e-06	-6.213437e-09	-2.810852e+01	-4.071613e+02
4.000000e-07	-3.882328e-06	-6.122144e-09	-2.760605e+01	-4.029994e+02
4.100000e-07	-3.810447e-06	-6.049000e-09	-2.709493e+01	-3.987194e+02
4.200000e-07	-3.737122e-06	-5.991398e-09	-2.657354e+01	-3.943242e+02
4.300000e-07	-3.662222e-06	-5.951321e-09	-2.604095e+01	-3.898170e+02
4.400000e-07	-3.585837e-06	-5.889411e-09	-2.549780e+01	-3.852011e+02
4.500000e-07	-3.507950e-06	-5.805909e-09	-2.494397e+01	-3.804787e+02
4.600000e-07	-3.428541e-06	-5.712917e-09	-2.437931e+01	-3.756509e+02
4.700000e-07	-3.347882e-06	-5.636679e-09	-2.380577e+01	-3.707175e+02
4.800000e-07	-3.266055e-06	-5.577053e-09	-2.322393e+01	-3.656768e+02
4.900000e-07	-3.183120e-06	-5.498401e-09	-2.263419e+01	-3.605262e+02
5.000000e-07	-3.099195e-06	-5.414922e-09	-2.203743e+01	-3.552619e+02
5.100000e-07	-3.014319e-06	-5.319974e-09	-2.143391e+01	-3.498802e+02
5.200000e-07	-2.928484e-06	-5.230381e-09	-2.082356e+01	-3.443770e+02
5.300000e-07	-2.841704e-06	-5.152684e-09	-2.020649e+01	-3.387489e+02
5.400000e-07	-2.754051e-06	-5.075265e-09	-1.958322e+01	-3.329932e+02
5.500000e-07	-2.665463e-06	-4.985027e-09	-1.895330e+01	-3.271080e+02
5.600000e-07	-2.575696e-06	-4.877730e-09	-1.831499e+01	-3.210920e+02
5.700000e-07	-2.484750e-06	-4.778586e-09	-1.766830e+01	-3.149446e+02
5.800000e-07	-2.392899e-06	-4.692698e-09	-1.701518e+01	-3.086655e+02
5.900000e-07	-2.300252e-06	-4.605164e-09	-1.635640e+01	-3.022547e+02
6.000000e-07	-2.206789e-06	-4.496969e-09	-1.569181e+01	-2.957118e+02
6.100000e-07	-2.112551e-06	-4.385067e-09	-1.502171e+01	-2.890365e+02
6.200000e-07	-2.017607e-06	-4.277971e-09	-1.434659e+01	-2.822280e+02
6.300000e-07	-1.922035e-06	-4.173739e-09	-1.366701e+01	-2.752852e+02
6.400000e-07	-1.825828e-06	-4.075356e-09	-1.298291e+01	-2.682067e+02
6.500000e-07	-1.728826e-06	-3.974943e-09	-1.229316e+01	-2.609910e+02
6.600000e-07	-1.630942e-06	-3.860130e-09	-1.159713e+01	-2.536367e+02
6.700000e-07	-1.532291e-06	-3.730521e-09	-1.089565e+01	-2.461421e+02
6.800000e-07	-1.433142e-06	-3.607157e-09	-1.019064e+01	-2.385054e+02
6.900000e-07	-1.333556e-06	-3.493840e-09	-9.482508e+00	-2.307243e+02
7.000000e-07	-1.233537e-06	-3.379958e-09	-8.771306e+00	-2.227964e+02
7.100000e-07	-1.133127e-06	-3.255639e-09	-8.057319e+00	-2.147179e+02
7.200000e-07	-1.032422e-06	-3.124990e-09	-7.341238e+00	-2.064843e+02
7.300000e-07	-9.314464e-07	-2.995387e-09	-6.623232e+00	-1.980900e+02
7.400000e-07	-8.301278e-07	-2.867932e-09	-5.902786e+00	-1.895281e+02
7.500000e-07	-7.285461e-07	-2.740753e-09	-5.180470e+00	-1.807907e+02
7.600000e-07	-6.267079e-07	-2.605641e-09	-4.456330e+00	-1.718693e+02
7.700000e-07	-5.246688e-07	-2.460076e-09	-3.730760e+00	-1.627552e+02
7.800000e-07	-4.224272e-07	-2.310377e-09	-3.003751e+00	-1.534400e+02
7.900000e-07	-3.199807e-07	-2.164374e-09	-2.275285e+00	-1.439160e+02
8.000000e-07	-2.174606e-07	-2.018915e-09	-1.546296e+00	-1.341768e+02
8.100000e-07	-1.148672e-07	-1.869020e-09	-8.167857e-01	-1.242173e+02
8.200000e-07	-1.219827e-08	-1.710920e-09	-8.673817e-02	-1.140338e+02
8.300000e-07	9.054408e-08	-1.546236e-09	6.438314e-01	-1.036235e+02
8.400000e-07	1.933064e-07	-1.381053e-09	1.374543e+00	-9.298399e+01
8.500000e-07	2.959698e-07	-1.216566e-09	2.104551e+00	-8.211272e+01
8.600000e-07	3.985598e-07	-1.050694e-09	2.834038e+00	-7.100606e+01
8.700000e-07	5.010486e-07	-8.774834e-10	3.562804e+00	-5.965881e+01
8.800000e-07	6.033260e-07	-6.965653e-10	4.290068e+00	-4.806389e+01
8.900000e-07	7.054418e-07	-5.125199e-10	5.016182e+00	-3.621244e+01
9.000000e-07	8.073222e-07	-3.278559e-10	5.740622e+00	-2.409447e+01
9.100000e-07	9.089084e-07	-1.405599e-10	6.462971e+00	-1.169999e+01
9.200000e-07	1.010206e-06	4.967813e-11	7.183270e+00	9.793029e-01
9.300000e-07	1.111156e-06	2.451136e-10	7.901092e+00	1.394797e+01
9.400000e-07	1.211767e-06	4.463965e-10	8.616510e+00	2.720470e+01
9.500000e-07	1.311948e-06	6.496274e-10	9.328865e+00	4.074013e+01
9.600000e-07	1.411622e-06	8.533891e-10	1.003762e+01	5.453513e+01
9.700000e-07	1.510814e-06	1.060141e-09	1.074294e+01	6.855960e+01
9.800000e-07	1.609498e-06	1.274272e-09	1.144465e+01	8.277216e+01
9.900000e-07	1.707491e-06	1.495208e-09	1.214145e+01	9.712068e+01
1.000000e-06	1.804554e-06	1.716794e-09	1.283163e+01	1.115439e+02
1.010000e-06	1.900670e-06	1.935962e-09	1.351508e+01	1.259736e+02
1.020000e-06	1.996092e-06	2.152346e-09	1.419360e+01	1.403381e+02
1.030000e-06	2.090928e-06	2.366583e-09	1.486795e+01	1.545656e+02
1.040000e-06	2.185001e-06	2.579057e-09	1.553688e+01	1.685874e+02
1.050000e-06	2.278316e-06	2.785467e-09	1.620041e+01	1.823419e+02
1.060000e-06	2.370952e-06	2.985470e-09	1.685912e+01	1.957767e+02
1.070000e-06	2.462861e-06	3.178298e-09	1.751265e+01	2.088509e+02
1.080000e-06	2.553954e-06	3.365978e-09	1.816039e+01	2.215355e+02
1.090000e-06	2.644068e-06	3.552049e-09	1.880116e+01	2.338137e+02
1.100000e-06	2.732967e-06	3.735947e-09	1.943330e+01	2.456792e+02
1.110000e-06	2.820723e-06	3.913412e-09	2.005730e+01	2.571347e+02
1.120000e-06	2.907643e-06	4.083044e-09	2.067536e+01	2.681889e+02
1.130000e-06	2.993686e-06	4.245880e-09	2.128719e+01	2.788541e+02
1.140000e-06	3.078750e-06	4.403120e-09	2.189205e+01	2.891437e+02
1.150000e-06	3.162821e-06	4.555487e-09	2.248986e+01	2.990698e+02
1.160000e-06	3.245949e-06	4.701050e-09	2.308096e+01	3.086422e+02
1.170000e-06	3.327980e-06	4.839164e-09	2.366426e+01	3.178672e+02
1.180000e-06	3.408663e-06	4.971330e-09	2.423797e+01	3.267480e+02
1.190000e-06	3.488131e-06	5.099489e-09	2.480304e+01	3.352858e+02
1.200000e-06	3.566419e-06	5.223424e-09	2.535972e+01	3.434806e+02
1.210000e-06	3.643452e-06	5.344070e-09	2.590748e+01	3.513331e+02
1.220000e-06	3.719156e-06	5.458935e-09	2.644579e+01	3.588460e+02
1.230000e-06	3.793354e-06	5.565764e-09	2.697339e+01	3.660257e+02
1.240000e-06	3.865878e-06	5.666350e-09	2.748908e+01	3.728824e+02
1.250000e-06	3.936858e-06	5.764783e-09	2.799380e+01	3.794309e+02
1.260000e-06	4.006517e-06	5.861202e-09	2.848912e+01	3.856895e+02
1.270000e-06	4.074847e-06	5.953338e-09	2.897500e+01	3.916794e+02
1.280000e-06	4.141832e-06	6.039734e-09	2.945130e+01	3.974229e+02
1.290000e-06	4.207175e-06	6.122323e-09	2.991595e+01	4.029416e+02
1.300000e-06	4.270863e-06	6.203645e-09	3.036881e+01	4.082550e+02
1.310000e-06	4.333084e-06	6.283333e-09	3.081124e+01	4.133787e+02
1.320000e-06	4.393830e-06	6.360525e-09	3.124319e+01	4.183239e+02
1.330000e-06	4.453187e-06	6.433576e-09	3.166526e+01	4.230967e+02
1.340000e-06	4.510939e-06	6.502462e-09	3.207591e+01	4.276985e+02
1.350000e-06	4.566901e-06	6.568639e-09	3.247385e+01	4.321266e+02
1.360000e-06	4.621196e-06	6.632947e-09	3.285992e+01	4.363759e+02
1.370000e-06	4.673790e-06	6.694110e-09	3.323390e+01	4.404399e+02
1.380000e-06	4.724450e-06	6.750497e-09	3.359413e+01	4.443125e+02
1.390000e-06	4.773088e-06	6.804929e-09	3.393998e+01	4.479891e+02
1.400000e-06	4.819924e-06	6.858628e-09	3.427301e+01	4.514680e+02
1.410000e-06	4.865213e-06	6.908956e-09	3.459505e+01	4.547503e+02
1.420000e-06	4.908969e-06	6.956212e-09	3.490619e+01	4.578405e+02
1.430000e-06	4.950920e-06	6.999547e-09	3.520449e+01	4.607453e+02
1.440000e-06	4.990979e-06	7.037667e-09	3.548934e+01	4.634734e+02
1.450000e-06	5.029378e-06	7.073099e-09	3.576238e+01	4.660341e+02
1.460000e-06	5.066183e-06	7.108682e-09	3.602409e+01	4.684364e+02
1.470000e-06	5.101246e-06	7.143802e-09	3.627341e+01	4.706877e+02
1.480000e-06	5.134341e-06	7.176089e-09	3.650874e+01	4.727935e+02
1.490000e-06	5.165576e-06	7.205044e-09	3.673084e+01	4.747572e+02
1.500000e-06	5.195142e-06	7.231165e-09	3.694108e+01	4.765801e+02
1.510000e-06	5.222989e-06	7.254561e-09	3.713909e+01	4.782617e+02
1.520000e-06	5.248837e-06	7.276730e-09	3.732289e+01	4.798011e+02
1.530000e-06	5.272613e-06	7.297387e-09	3.749195e+01	4.811972e+02
1.540000e-06	5.294564e-06	7.315617e-09	3.764803e+01	4.824502e+02
1.550000e-06	5.314814e-06	7.331297e-09	3.779202e+01	4.835615e+02
1.560000e-06	5.333273e-06	7.345531e-09	3.792329e+01	4.845348e+02
1.570000e-06	5.349724e-06	7.359120e-09	3.804026e+01	4.853754e+02
1.580000e-06	5.364176e-06	7.372362e-09	3.814302e+01	4.860902e+02
1.590000e-06	5.376651e-06	7.383911e-09	3.823173e+01	4.866868e+02
1.600000e-06	5.386873e-06	7.392682e-09	3.830441e+01	4.871726e+02
1.610000e-06	5.394951e-06	7.399878e-09	3.836186e+01	4.875541e+02
1.620000e-06	5.401218e-06	7.404438e-09	3.840642e+01	4.878358e+02
1.630000e-06	5.405692e-06	7.407587e-09	3.843823e+01	4.880200e+02
1.640000e-06	5.408222e-06	7.409419e-09	3.845622e+01	4.881065e+02
1.650000e-06	5.408753e-06	7.412201e-09	3.846000e+01	4.880927e+02
1.660000e-06	5.407480e-06	7.412879e-09	3.845094e+01	4.879747e+02
1.670000e-06	5.404535e-06	7.407021e-09	3.843001e+01	4.877480e+02
1.680000e-06	5.399917e-06	7.403733e-09	3.839717e+01	4.874083e+02
1.690000e-06	5.393370e-06	7.398938e-09	3.835061e+01	4.869533e+02
1.700000e-06	5.385008e-06	7.392152e-09	3.829115e+01	4.863827e+02
1.710000e-06	5.375096e-06	7.385799e-09	3.822067e+01	4.856994e+02
1.720000e-06	5.363477e-06	7.377619e-09	3.813805e+01	4.849093e+02
1.730000e-06	5.349835e-06	7.380985e-09	3.804105e+01	4.840211e+02
1.740000e-06	5.334078e-06	7.320067e-09	3.792901e+01	4.830450e+02
1.750000e-06	5.316092e-06	7.271973e-09	3.780111e+01	4.819922e+02
1.760000e-06	5.295465e-06	7.294416e-09	3.765444e+01	4.808731e+02
1.770000e-06	5.272464e-06	7.272409e-09	3.749089e+01	4.796961e+02
1.780000e-06	5.248022e-06	7.330348e-09	3.731709e+01	4.784663e+02
1.790000e-06	5.222843e-06	7.317375e-09	3.713805e+01	4.771850e+02
1.800000e-06	5.196466e-06	7.139083e-09	3.695049e+01	4.758489e+02
1.810000e-06	5.167866e-06	7.236186e-09	3.674713e+01	4.744507e+02
1.820000e-06	5.137242e-06	7.212150e-09	3.652937e+01	4.729798e+02
1.830000e-06	5.105012e-06	7.080293e-09	3.630019e+01	4.714229e+02
1.840000e-06	5.070855e-06	7.255205e-09	3.605731e+01	4.697663e+02
1.850000e-06	5.035108e-06	7.186074e-09	3.580312e+01	4.679963e+02
1.860000e-06	4.997683e-06	7.086121e-09	3.553700e+01	4.661016e+02
1.870000e-06	4.958258e-06	7.154126e-09	3.525667e+01	4.640738e+02
1.880000e-06	4.917194e-06	6.980644e-09	3.496467e+01	4.619081e+02
1.890000e-06	4.874369e-06	7.002225e-09	3.466015e+01	4.596039e+02
1.900000e-06	4.829854e-06	7.040093e-09	3.434362e+01	4.571641e+02
1.910000e-06	4.783588e-06	6.909612e-09	3.401464e+01	4.545946e+02
1.920000e-06	4.735262e-06	6.965456e-09	3.367101e+01	4.519032e+02
1.930000e-06	4.685263e-06	6.819773e-09	3.331548e+01	4.490983e+02
1.940000e-06	4.633567e-06	6.768438e-09	3.294788e+01	4.461879e+02
1.950000e-06	4.579744e-06	6.830009e-09	3.256517e+01	4.431785e+02
1.960000e-06	4.523963e-06	6.724774e-09	3.216853e+01	4.400743e+02
1.970000e-06	4.466482e-06	6.688952e-09	3.175979e+01	4.368768e+02
1.980000e-06	4.407567e-06	6.595302e-09	3.134087e+01	4.335851e+02
1.990000e-06	4.347179e-06	6.583491e-09	3.091147e+01	4.301960e+02
2.000000e-06	4.285074e-06	6.554130e-09	3.046986e+01	4.267047e+02
2.010000e-06	4.221407e-06	6.441179e-09	3.001714e+01	4.231060e+02
2.020000e-06	4.156226e-06	6.443803e-09	2.955366e+01	4.193946e+02
2.030000e-06	4.089578e-06	6.334006e-09	2.907975e+01	4.155666e+02
2.040000e-06	4.021515e-06	6.270330e-09	2.859577e+01	4.116190e+02
2.050000e-06	3.951893e-06	6.236212e-09	2.810071e+01	4.075510e+02
2.060000e-06	3.880755e-06	6.184518e-09	2.759487e+01	4.033633e+02
2.070000e-06	3.808296e-06	6.147681e-09	2.707963e+01	3.990580e+02
2.080000e-06	3.734532e-06	6.006563e-09	2.655512e+01	3.946383e+02
2.090000e-06	3.659416e-06	5.939940e-09	2.602099e+01	3.901073e+02
2.100000e-06	3.582842e-06	5.884798e-09	2.547650e+01	3.854681e+02
2.110000e-06	3.504687e-06	5.834422e-09	2.492077e+01	3.807227e+02
2.120000e-06	3.425161e-06	5.771153e-09	2.435528e+01	3.758721e+02
2.130000e-06	3.344462e-06	5.676773e-09	2.378145e+01	3.709155e+02
2.140000e-06	3.262583e-06	5.606778e-09	2.319923e+01	3.658513e+02
2.150000e-06	3.179673e-06	5.496978e-09	2.260969e+01	3.606763e+02
2.160000e-06	3.095808e-06	5.433256e-09	2.201335e+01	3.553869e+02
2.170000e-06	3.010740e-06	5.372763e-09	2.140846e+01	3.499791e+02
2.180000e-06	2.924357e-06	5.287352e-09	2.079421e+01	3.444492e+02
2.190000e-06	2.836802e-06	5.181656e-09	2.017164e+01	3.387937e+02
2.200000e-06	2.748246e-06	5.079562e-09	1.954194e+01	3.330101e+02
2.210000e-06	2.658809e-06	5.015614e-09	1.890598e+01	3.270966e+02
2.220000e-06	2.568472e-06	4.933175e-09	1.826362e+01	3.210521e+02
2.230000e-06	2.477269e-06	4.835304e-09	1.761511e+01	3.148762e+02
2.240000e-06	2.385291e-06	4.730139e-09	1.696108e+01	3.085686e+02
2.250000e-06	2.292427e-06	4.634367e-09	1.630075e+01	3.021292e+02
2.260000e-06	2.198650e-06	4.532671e-09	1.563393e+01	2.955578e+02
2.270000e-06	2.104013e-06	4.436845e-09	1.496100e+01	2.888537e+02
2.280000e-06	2.008488e-06	4.340655e-09	1.428175e+01	2.820162e+02
2.290000e-06	1.912194e-06	4.222083e-09	1.359703e+01	2.750441e+02
2.300000e-06	1.815293e-06	4.096121e-09	1.290799e+01	2.679360e+02
2.310000e-06	1.717902e-06	3.982618e-09	1.221548e+01	2.606905e+02
2.320000e-06	1.619938e-06	3.891069e-09	1.151888e+01	2.533060e+02
2.330000e-06	1.521404e-06	3.790380e-09	1.081824e+01	2.457807e+02
2.340000e-06	1.422415e-06	3.670609e-09	1.011436e+01	2.381130e+02
2.350000e-06	1.323007e-06	3.538671e-09	9.407497e+00	2.303004e+02
2.360000e-06	1.223331e-06	3.410398e-09	8.698732e+00	2.223402e+02
2.370000e-06	1.123363e-06	3.290101e-09	7.987892e+00	2.142286e+02
2.380000e-06	1.022935e-06	3.172054e-09	7.273783e+00	2.059609e+02
2.390000e-06	9.220648e-07	3.046574e-09	6.556522e+00	1.975310e+02
2.400000e-06	8.208472e-07	2.908759e-09	5.836795e+00	1.889318e+02
2.410000e-06	7.192793e-07	2.768679e-09	5.114576e+00	1.801554e+02
2.420000e-06	6.173924e-07	2.630860e-09	4.390090e+00	1.711932e+02
2.430000e-06	5.152112e-07	2.498436e-09	3.663510e+00	1.620363e+02
2.440000e-06	4.128072e-07	2.362771e-09	2.935346e+00	1.526767e+02
2.450000e-06	3.102951e-07	2.215116e-09	2.206414e+00	1.431067e+02
2.460000e-06	2.076718e-07	2.059380e-09	1.476691e+00	1.333204e+02
2.470000e-06	1.048934e-07	1.906409e-09	7.458652e-01	1.233129e+02
2.480000e-06	2.036476e-09	1.757999e-09	1.448076e-02	1.130807e+02
2.490000e-06	-1.008025e-07	1.605111e-09	-7.167761e-01	1.026212e+02
2.500000e-06	-2.036182e-07	1.441004e-09	-1.447867e+00	9.193196e+01
2.510000e-06	-3.063883e-07	1.270279e-09	-2.178634e+00	8.101030e+01
2.520000e-06	-4.090252e-07	1.100671e-09	-2.908454e+00	6.985228e+01
2.530000e-06	-5.115276e-07	9.303949e-10	-3.637317e+00	5.845232e+01
2.540000e-06	-6.138779e-07	7.564656e-10	-4.365099e+00	4.680293e+01
2.550000e-06	-7.159696e-07	5.766562e-10	-5.091042e+00	3.489493e+01
2.560000e-06	-8.177105e-07	3.872039e-10	-5.814490e+00	2.271821e+01
2.570000e-06	-9.190318e-07	1.892488e-10	-6.534956e+00	1.026300e+01
2.580000e-06	-1.019934e-06	-8.760291e-12	-7.252439e+00	-2.478383e+00
2.590000e-06	-1.120352e-06	-2.044908e-10	-7.966485e+00	-1.550944e+01
2.600000e-06	-1.220244e-06	-4.055842e-10	-8.676787e+00	-2.882729e+01
2.610000e-06	-1.319719e-06	-6.167359e-10	-9.384117e+00	-4.242061e+01
2.620000e-06	-1.418843e-06	-8.341420e-10	-1.008896e+01	-5.626800e+01
2.630000e-06	-1.517522e-06	-1.051784e-09	-1.079064e+01	-7.033695e+01
2.640000e-06	-1.615612e-06	-1.267377e-09	-1.148812e+01	-8.458367e+01
2.650000e-06	-1.713135e-06	-1.485004e-09	-1.218158e+01	-9.895393e+01
2.660000e-06	-1.810149e-06	-1.707446e-09	-1.287142e+01	-1.133847e+02
2.670000e-06	-1.906514e-06	-1.933748e-09	-1.355664e+01	-1.278069e+02
2.680000e-06	-2.002187e-06	-2.159747e-09	-1.423694e+01	-1.421484e+02
2.690000e-06	-2.097262e-06	-2.379838e-09	-1.491299e+01	-1.563376e+02
2.700000e-06	-2.191645e-06	-2.592663e-09	-1.558412e+01	-1.703074e+02
2.710000e-06	-2.285052e-06	-2.801369e-09	-1.624831e+01	-1.839977e+02
2.720000e-06	-2.377358e-06	-3.007789e-09	-1.690467e+01	-1.973586e+02
2.730000e-06	-2.468769e-06	-3.208616e-09	-1.755467e+01	-2.103516e+02
2.740000e-06	-2.559411e-06	-3.399623e-09	-1.819919e+01	-2.229505e+02
2.750000e-06	-2.649186e-06	-3.582977e-09	-1.883756e+01	-2.351407e+02
2.760000e-06	-2.738046e-06	-3.763779e-09	-1.946941e+01	-2.469182e+02
2.770000e-06	-2.826014e-06	-3.942449e-09	-2.009493e+01	-2.582871e+02
2.780000e-06	-2.913147e-06	-4.116233e-09	-2.071450e+01	-2.692571e+02
2.790000e-06	-2.999294e-06	-4.279536e-09	-2.132707e+01	-2.798410e+02
2.800000e-06	-3.084139e-06	-4.431197e-09	-2.193037e+01	-2.900521e+02
2.810000e-06	-3.167770e-06	-4.575701e-09	-2.252505e+01	-2.999020e+02
2.820000e-06	-3.250437e-06	-4.718437e-09	-2.311287e+01	-3.093998e+02
2.830000e-06	-3.332067e-06	-4.858577e-09	-2.369331e+01	-3.185512e+02
2.840000e-06	-3.412461e-06	-4.994398e-09	-2.426498e+01	-3.273588e+02
2.850000e-06	-3.491726e-06	-5.125014e-09	-2.482861e+01	-3.358234e+02
2.860000e-06	-3.569709e-06	-5.249456e-09	-2.538312e+01	-3.439450e+02
2.870000e-06	-3.646081e-06	-5.369587e-09	-2.592617e+01	-3.517247e+02
2.880000e-06	-3.720935e-06	-5.487840e-09	-2.645844e+01	-3.591659e+02
2.890000e-06	-3.794448e-06	-5.601490e-09	-2.698116e+01	-3.662756e+02
2.900000e-06	-3.866630e-06	-5.706688e-09	-2.749443e+01	-3.730652e+02
2.910000e-06	-3.937474e-06	-5.803966e-09	-2.799818e+01	-3.795502e+02
2.920000e-06	-4.006809e-06	-5.896543e-09	-2.849120e+01	-3.857497e+02
2.930000e-06	-4.074576e-06	-5.986045e-09	-2.897307e+01	-3.916853e+02
2.940000e-06	-4.140939e-06	-6.072191e-09	-2.944496e+01	-3.973791e+02
