# Temperatura_=_75.6
# Concentracion g/m^3_=_15000.0
# C_Vs_to_Am_M_A/Vsm_=_65563218390.804596
# pendiente_HvsI_1/m_=_3716.3
# ordenada_HvsI_A/m_=_1297.0
# frecuencia_Hz_=_301585.5989488489

Tiempo_(s)	Campo_(V.s)	Magnetizacion_(V.s)	Campo_(kA/m)	Magnetizacion_(A/m)
0.000000e+00	-5.396055e-06	-7.477453e-09	-3.834174e+01	-4.887294e+02
1.000000e-08	-5.393075e-06	-7.471008e-09	-3.832056e+01	-4.885061e+02
2.000000e-08	-5.388316e-06	-7.463909e-09	-3.828675e+01	-4.881601e+02
3.000000e-08	-5.381966e-06	-7.454797e-09	-3.824163e+01	-4.876882e+02
4.000000e-08	-5.374012e-06	-7.445867e-09	-3.818511e+01	-4.870906e+02
5.000000e-08	-5.364179e-06	-7.437272e-09	-3.811524e+01	-4.863714e+02
6.000000e-08	-5.352289e-06	-7.426722e-09	-3.803076e+01	-4.855382e+02
7.000000e-08	-5.338501e-06	-7.424017e-09	-3.793279e+01	-4.846023e+02
8.000000e-08	-5.322615e-06	-7.412945e-09	-3.781991e+01	-4.835767e+02
9.000000e-08	-5.304518e-06	-7.383726e-09	-3.769132e+01	-4.824752e+02
1.000000e-07	-5.284364e-06	-7.374594e-09	-3.754812e+01	-4.813107e+02
1.100000e-07	-5.262312e-06	-7.350770e-09	-3.739143e+01	-4.800933e+02
1.200000e-07	-5.238622e-06	-7.307672e-09	-3.722310e+01	-4.788294e+02
1.300000e-07	-5.213386e-06	-7.319987e-09	-3.704378e+01	-4.775203e+02
1.400000e-07	-5.186500e-06	-7.255822e-09	-3.685274e+01	-4.761624e+02
1.500000e-07	-5.158018e-06	-7.203654e-09	-3.665036e+01	-4.747472e+02
1.600000e-07	-5.128104e-06	-7.279423e-09	-3.643781e+01	-4.732621e+02
1.700000e-07	-5.096529e-06	-7.217071e-09	-3.621345e+01	-4.716921e+02
1.800000e-07	-5.062865e-06	-7.172728e-09	-3.597425e+01	-4.700211e+02
1.900000e-07	-5.027410e-06	-7.174507e-09	-3.572232e+01	-4.682339e+02
2.000000e-07	-4.990460e-06	-7.039130e-09	-3.545978e+01	-4.663177e+02
2.100000e-07	-4.951732e-06	-7.030573e-09	-3.518460e+01	-4.642631e+02
2.200000e-07	-4.911149e-06	-7.078014e-09	-3.489623e+01	-4.620652e+02
2.300000e-07	-4.868583e-06	-7.018857e-09	-3.459378e+01	-4.597236e+02
2.400000e-07	-4.824092e-06	-6.968830e-09	-3.427765e+01	-4.572422e+02
2.500000e-07	-4.777856e-06	-6.899313e-09	-3.394912e+01	-4.546281e+02
2.600000e-07	-4.729681e-06	-6.860134e-09	-3.360681e+01	-4.518904e+02
2.700000e-07	-4.679410e-06	-6.855087e-09	-3.324961e+01	-4.490395e+02
2.800000e-07	-4.627063e-06	-6.813544e-09	-3.287765e+01	-4.460847e+02
2.900000e-07	-4.572946e-06	-6.750257e-09	-3.249312e+01	-4.430340e+02
3.000000e-07	-4.517217e-06	-6.674515e-09	-3.209714e+01	-4.398929e+02
3.100000e-07	-4.459725e-06	-6.637287e-09	-3.168864e+01	-4.366641e+02
3.200000e-07	-4.400468e-06	-6.606110e-09	-3.126758e+01	-4.333475e+02
3.300000e-07	-4.339625e-06	-6.565453e-09	-3.083526e+01	-4.299405e+02
3.400000e-07	-4.277369e-06	-6.516121e-09	-3.039290e+01	-4.264390e+02
3.500000e-07	-4.213757e-06	-6.420705e-09	-2.994090e+01	-4.228381e+02
3.600000e-07	-4.148671e-06	-6.363267e-09	-2.947843e+01	-4.191327e+02
3.700000e-07	-4.081892e-06	-6.338289e-09	-2.900394e+01	-4.153187e+02
3.800000e-07	-4.013526e-06	-6.282804e-09	-2.851816e+01	-4.113931e+02
3.900000e-07	-3.943838e-06	-6.206681e-09	-2.802299e+01	-4.073543e+02
4.000000e-07	-3.872909e-06	-6.121239e-09	-2.751900e+01	-4.032020e+02
4.100000e-07	-3.800680e-06	-6.057726e-09	-2.700578e+01	-3.989371e+02
4.200000e-07	-3.726980e-06	-5.996240e-09	-2.648210e+01	-3.945609e+02
4.300000e-07	-3.651739e-06	-5.947476e-09	-2.594748e+01	-3.900748e+02
4.400000e-07	-3.574917e-06	-5.896834e-09	-2.540162e+01	-3.854796e+02
4.500000e-07	-3.496613e-06	-5.812985e-09	-2.484523e+01	-3.807755e+02
4.600000e-07	-3.416958e-06	-5.712246e-09	-2.427924e+01	-3.759613e+02
4.700000e-07	-3.336008e-06	-5.630178e-09	-2.370405e+01	-3.710351e+02
4.800000e-07	-3.253887e-06	-5.578762e-09	-2.312054e+01	-3.659940e+02
4.900000e-07	-3.170705e-06	-5.506719e-09	-2.252949e+01	-3.608350e+02
5.000000e-07	-3.086546e-06	-5.411115e-09	-2.193149e+01	-3.555547e+02
5.100000e-07	-3.001458e-06	-5.319210e-09	-2.132690e+01	-3.501505e+02
5.200000e-07	-2.915381e-06	-5.235254e-09	-2.071528e+01	-3.446202e+02
5.300000e-07	-2.828340e-06	-5.155025e-09	-2.009681e+01	-3.389625e+02
5.400000e-07	-2.740450e-06	-5.075797e-09	-1.947231e+01	-3.331770e+02
5.500000e-07	-2.651541e-06	-4.981719e-09	-1.884056e+01	-3.272639e+02
5.600000e-07	-2.561460e-06	-4.871756e-09	-1.820049e+01	-3.212234e+02
5.700000e-07	-2.470299e-06	-4.770645e-09	-1.755274e+01	-3.150560e+02
5.800000e-07	-2.378259e-06	-4.689482e-09	-1.689875e+01	-3.087611e+02
5.900000e-07	-2.285417e-06	-4.604478e-09	-1.623906e+01	-3.023379e+02
6.000000e-07	-2.191808e-06	-4.499492e-09	-1.557392e+01	-2.957842e+02
6.100000e-07	-2.097453e-06	-4.389451e-09	-1.490348e+01	-2.890972e+02
6.200000e-07	-2.002380e-06	-4.282136e-09	-1.422793e+01	-2.822732e+02
6.300000e-07	-1.906637e-06	-4.177441e-09	-1.354763e+01	-2.753083e+02
6.400000e-07	-1.810149e-06	-4.076440e-09	-1.286204e+01	-2.681986e+02
6.500000e-07	-1.712795e-06	-3.973290e-09	-1.217028e+01	-2.609408e+02
6.600000e-07	-1.614629e-06	-3.854489e-09	-1.147277e+01	-2.535321e+02
6.700000e-07	-1.515858e-06	-3.724049e-09	-1.077095e+01	-2.459706e+02
6.800000e-07	-1.416621e-06	-3.600463e-09	-1.006582e+01	-2.382552e+02
6.900000e-07	-1.316970e-06	-3.488734e-09	-9.357748e+00	-2.303851e+02
7.000000e-07	-1.216867e-06	-3.376214e-09	-8.646467e+00	-2.223598e+02
7.100000e-07	-1.116305e-06	-3.250754e-09	-7.931922e+00	-2.141780e+02
7.200000e-07	-1.015408e-06	-3.118360e-09	-7.214995e+00	-2.058375e+02
7.300000e-07	-9.142639e-07	-2.985519e-09	-6.496314e+00	-1.973348e+02
7.400000e-07	-8.128194e-07	-2.854943e-09	-5.775499e+00	-1.886644e+02
7.500000e-07	-7.110521e-07	-2.725188e-09	-5.052390e+00	-1.798195e+02
7.600000e-07	-6.090331e-07	-2.587618e-09	-4.327492e+00	-1.707918e+02
7.700000e-07	-5.068192e-07	-2.439868e-09	-3.601211e+00	-1.615722e+02
7.800000e-07	-4.044711e-07	-2.288923e-09	-2.873975e+00	-1.521513e+02
7.900000e-07	-3.019505e-07	-2.143199e-09	-2.145513e+00	-1.425203e+02
8.000000e-07	-1.992833e-07	-1.999254e-09	-1.416010e+00	-1.326717e+02
8.100000e-07	-9.657341e-08	-1.848063e-09	-6.862036e-01	-1.225991e+02
8.200000e-07	6.210185e-09	-1.686259e-09	4.412655e-02	-1.122982e+02
8.300000e-07	1.090207e-07	-1.518314e-09	7.746477e-01	-1.017660e+02
8.400000e-07	2.118217e-07	-1.349919e-09	1.505102e+00	-9.100041e+01
8.500000e-07	3.145687e-07	-1.184017e-09	2.235172e+00	-7.999970e+01
8.600000e-07	4.172078e-07	-1.016784e-09	2.964475e+00	-6.876148e+01
8.700000e-07	5.197210e-07	-8.418259e-10	3.692884e+00	-5.728210e+01
8.800000e-07	6.220806e-07	-6.575429e-10	4.420202e+00	-4.555609e+01
8.900000e-07	7.242471e-07	-4.708388e-10	5.146147e+00	-3.357618e+01
9.000000e-07	8.261140e-07	-2.855754e-10	5.869963e+00	-2.133378e+01
9.100000e-07	9.276624e-07	-9.832127e-11	6.591517e+00	-8.820046e+00
9.200000e-07	1.028933e-06	9.237893e-11	7.311098e+00	3.972433e+00
9.300000e-07	1.129915e-06	2.888703e-10	8.028627e+00	1.704760e+01
9.400000e-07	1.230524e-06	4.910350e-10	8.743506e+00	3.040364e+01
9.500000e-07	1.330638e-06	6.962690e-10	9.454869e+00	4.403079e+01
9.600000e-07	1.430235e-06	9.025200e-10	1.016256e+01	5.790944e+01
9.700000e-07	1.529334e-06	1.113619e-09	1.086670e+01	7.200889e+01
9.800000e-07	1.627889e-06	1.331103e-09	1.156698e+01	8.628699e+01
9.900000e-07	1.725762e-06	1.552639e-09	1.226242e+01	1.006907e+02
1.000000e-06	1.822741e-06	1.773246e-09	1.295151e+01	1.151576e+02
1.010000e-06	1.918814e-06	1.990754e-09	1.363416e+01	1.296187e+02
1.020000e-06	2.014223e-06	2.206044e-09	1.431208e+01	1.440013e+02
1.030000e-06	2.109047e-06	2.418818e-09	1.498586e+01	1.582328e+02
1.040000e-06	2.203118e-06	2.630950e-09	1.565428e+01	1.722445e+02
1.050000e-06	2.296391e-06	2.839432e-09	1.631704e+01	1.859750e+02
1.060000e-06	2.388960e-06	3.042548e-09	1.697479e+01	1.993727e+02
1.070000e-06	2.480821e-06	3.237518e-09	1.762750e+01	2.123977e+02
1.080000e-06	2.571870e-06	3.425555e-09	1.827445e+01	2.250229e+02
1.090000e-06	2.661974e-06	3.610023e-09	1.891469e+01	2.372332e+02
1.100000e-06	2.750855e-06	3.790631e-09	1.954624e+01	2.490242e+02
1.110000e-06	2.838546e-06	3.965868e-09	2.016932e+01	2.604005e+02
1.120000e-06	2.925368e-06	4.134700e-09	2.078624e+01	2.713722e+02
1.130000e-06	3.011321e-06	4.296836e-09	2.139698e+01	2.819531e+02
1.140000e-06	3.096338e-06	4.452587e-09	2.200107e+01	2.921573e+02
1.150000e-06	3.180356e-06	4.602388e-09	2.259806e+01	3.019976e+02
1.160000e-06	3.263380e-06	4.747587e-09	2.318799e+01	3.114840e+02
1.170000e-06	3.345217e-06	4.886355e-09	2.376948e+01	3.206228e+02
1.180000e-06	3.425717e-06	5.018570e-09	2.434148e+01	3.294177e+02
1.190000e-06	3.505029e-06	5.145641e-09	2.490503e+01	3.378699e+02
1.200000e-06	3.583153e-06	5.267785e-09	2.546014e+01	3.459799e+02
1.210000e-06	3.660019e-06	5.386592e-09	2.600631e+01	3.537491e+02
1.220000e-06	3.735471e-06	5.498008e-09	2.654244e+01	3.611813e+02
1.230000e-06	3.809356e-06	5.601073e-09	2.706743e+01	3.682841e+02
1.240000e-06	3.881692e-06	5.699362e-09	2.758141e+01	3.750690e+02
1.250000e-06	3.952626e-06	5.797094e-09	2.808544e+01	3.815519e+02
1.260000e-06	4.022189e-06	5.895336e-09	2.857971e+01	3.877521e+02
1.270000e-06	4.090379e-06	5.988536e-09	2.906424e+01	3.936914e+02
1.280000e-06	4.157080e-06	6.074794e-09	2.953819e+01	3.993920e+02
1.290000e-06	4.222118e-06	6.158112e-09	3.000032e+01	4.048752e+02
1.300000e-06	4.285551e-06	6.239104e-09	3.045104e+01	4.101597e+02
1.310000e-06	4.347532e-06	6.317045e-09	3.089145e+01	4.152600e+02
1.320000e-06	4.408141e-06	6.391382e-09	3.132210e+01	4.201859e+02
1.330000e-06	4.467258e-06	6.463392e-09	3.174216e+01	4.249423e+02
1.340000e-06	4.524695e-06	6.532526e-09	3.215028e+01	4.295296e+02
1.350000e-06	4.580367e-06	6.598567e-09	3.254585e+01	4.339446e+02
1.360000e-06	4.634356e-06	6.663201e-09	3.292948e+01	4.381820e+02
1.370000e-06	4.686654e-06	6.726069e-09	3.330108e+01	4.422357e+02
1.380000e-06	4.737017e-06	6.785126e-09	3.365894e+01	4.461004e+02
1.390000e-06	4.785396e-06	6.839768e-09	3.400269e+01	4.497729e+02
1.400000e-06	4.832009e-06	6.891865e-09	3.433390e+01	4.532524e+02
1.410000e-06	4.877050e-06	6.940668e-09	3.465394e+01	4.565412e+02
1.420000e-06	4.920560e-06	6.986497e-09	3.496310e+01	4.596444e+02
1.430000e-06	4.962222e-06	7.028850e-09	3.525913e+01	4.625690e+02
1.440000e-06	5.001972e-06	7.068510e-09	3.554158e+01	4.653231e+02
1.450000e-06	5.040063e-06	7.106628e-09	3.581223e+01	4.679146e+02
1.460000e-06	5.076582e-06	7.143382e-09	3.607172e+01	4.703506e+02
1.470000e-06	5.111362e-06	7.179344e-09	3.631885e+01	4.726364e+02
1.480000e-06	5.144128e-06	7.211516e-09	3.655167e+01	4.747750e+02
1.490000e-06	5.175067e-06	7.239705e-09	3.677150e+01	4.767676e+02
1.500000e-06	5.204367e-06	7.264833e-09	3.697969e+01	4.786134e+02
1.510000e-06	5.231917e-06	7.287405e-09	3.717545e+01	4.803109e+02
1.520000e-06	5.257450e-06	7.309439e-09	3.735688e+01	4.818587e+02
1.530000e-06	5.280944e-06	7.331171e-09	3.752382e+01	4.832563e+02
1.540000e-06	5.302627e-06	7.350965e-09	3.767789e+01	4.845049e+02
1.550000e-06	5.322555e-06	7.368351e-09	3.781948e+01	4.856080e+02
1.560000e-06	5.340639e-06	7.383455e-09	3.794798e+01	4.865712e+02
1.570000e-06	5.356716e-06	7.396509e-09	3.806222e+01	4.874021e+02
1.580000e-06	5.370824e-06	7.408210e-09	3.816246e+01	4.881093e+02
1.590000e-06	5.382890e-06	7.419666e-09	3.824819e+01	4.887016e+02
1.600000e-06	5.392703e-06	7.430199e-09	3.831792e+01	4.891869e+02
1.610000e-06	5.400424e-06	7.438445e-09	3.837279e+01	4.895710e+02
1.620000e-06	5.406324e-06	7.443678e-09	3.841471e+01	4.898570e+02
1.630000e-06	5.410440e-06	7.446846e-09	3.844395e+01	4.900450e+02
1.640000e-06	5.412581e-06	7.446977e-09	3.845916e+01	4.901323e+02
1.650000e-06	5.412699e-06	7.445565e-09	3.846000e+01	4.901136e+02
1.660000e-06	5.411037e-06	7.447095e-09	3.844820e+01	4.899828e+02
1.670000e-06	5.407769e-06	7.445674e-09	3.842497e+01	4.897333e+02
1.680000e-06	5.402796e-06	7.441694e-09	3.838964e+01	4.893601e+02
1.690000e-06	5.395936e-06	7.436474e-09	3.834089e+01	4.888608e+02
1.700000e-06	5.387261e-06	7.428407e-09	3.827925e+01	4.882364e+02
1.710000e-06	5.377000e-06	7.417790e-09	3.820634e+01	4.874916e+02
1.720000e-06	5.365025e-06	7.399377e-09	3.812126e+01	4.866351e+02
1.730000e-06	5.351004e-06	7.371934e-09	3.802163e+01	4.856784e+02
1.740000e-06	5.334896e-06	7.370360e-09	3.790717e+01	4.846351e+02
1.750000e-06	5.316448e-06	7.345116e-09	3.777609e+01	4.835187e+02
1.760000e-06	5.295329e-06	7.331286e-09	3.762603e+01	4.823418e+02
1.770000e-06	5.271978e-06	7.329540e-09	3.746011e+01	4.811138e+02
1.780000e-06	5.247400e-06	7.271841e-09	3.728547e+01	4.798399e+02
1.790000e-06	5.222061e-06	7.301455e-09	3.710542e+01	4.785205e+02
1.800000e-06	5.195249e-06	7.262344e-09	3.691491e+01	4.771509e+02
1.810000e-06	5.166190e-06	7.180273e-09	3.670843e+01	4.757215e+02
1.820000e-06	5.135254e-06	7.242185e-09	3.648862e+01	4.742192e+02
1.830000e-06	5.102664e-06	7.175010e-09	3.625705e+01	4.726285e+02
1.840000e-06	5.068201e-06	7.140454e-09	3.601217e+01	4.709335e+02
1.850000e-06	5.032136e-06	7.249010e-09	3.575591e+01	4.691194e+02
1.860000e-06	4.994319e-06	7.157224e-09	3.548720e+01	4.671738e+02
1.870000e-06	4.954654e-06	7.066564e-09	3.520536e+01	4.650884e+02
1.880000e-06	4.913328e-06	7.051015e-09	3.491171e+01	4.628593e+02
1.890000e-06	4.870211e-06	7.005940e-09	3.460534e+01	4.604870e+02
1.900000e-06	4.825377e-06	7.033501e-09	3.428678e+01	4.579761e+02
1.910000e-06	4.778696e-06	6.954808e-09	3.395509e+01	4.553343e+02
1.920000e-06	4.730040e-06	6.898682e-09	3.360936e+01	4.525712e+02
1.930000e-06	4.679718e-06	6.885417e-09	3.325180e+01	4.496969e+02
1.940000e-06	4.627631e-06	6.772421e-09	3.288170e+01	4.467206e+02
1.950000e-06	4.573484e-06	6.785491e-09	3.249695e+01	4.436499e+02
1.960000e-06	4.517409e-06	6.765464e-09	3.209851e+01	4.404895e+02
1.970000e-06	4.459670e-06	6.679445e-09	3.168824e+01	4.372417e+02
1.980000e-06	4.400509e-06	6.614192e-09	3.126787e+01	4.339056e+02
1.990000e-06	4.339819e-06	6.540512e-09	3.083664e+01	4.304784e+02
2.000000e-06	4.277382e-06	6.555695e-09	3.039300e+01	4.269557e+02
2.010000e-06	4.213334e-06	6.474796e-09	2.993790e+01	4.233325e+02
2.020000e-06	4.147811e-06	6.388221e-09	2.947233e+01	4.196038e+02
2.030000e-06	4.080867e-06	6.359958e-09	2.899665e+01	4.157658e+02
2.040000e-06	4.012457e-06	6.277260e-09	2.851057e+01	4.118157e+02
2.050000e-06	3.942559e-06	6.224202e-09	2.801390e+01	4.077522e+02
2.060000e-06	3.871186e-06	6.165418e-09	2.750676e+01	4.035753e+02
2.070000e-06	3.798434e-06	6.133537e-09	2.698982e+01	3.992861e+02
2.080000e-06	3.724386e-06	6.042382e-09	2.646367e+01	3.948859e+02
2.090000e-06	3.648912e-06	5.921400e-09	2.592739e+01	3.903761e+02
2.100000e-06	3.571915e-06	5.876750e-09	2.538029e+01	3.857573e+02
2.110000e-06	3.493367e-06	5.830431e-09	2.482217e+01	3.810293e+02
2.120000e-06	3.413521e-06	5.772254e-09	2.425482e+01	3.761910e+02
2.130000e-06	3.332627e-06	5.671303e-09	2.368003e+01	3.712401e+02
2.140000e-06	3.250613e-06	5.589914e-09	2.309727e+01	3.661737e+02
2.150000e-06	3.167508e-06	5.511363e-09	2.250677e+01	3.609886e+02
2.160000e-06	3.083352e-06	5.429875e-09	2.190880e+01	3.556816e+02
2.170000e-06	2.997992e-06	5.372550e-09	2.130227e+01	3.502502e+02
2.180000e-06	2.911331e-06	5.287032e-09	2.068650e+01	3.446923e+02
2.190000e-06	2.823553e-06	5.184377e-09	2.006279e+01	3.390069e+02
2.200000e-06	2.734837e-06	5.079578e-09	1.943242e+01	3.331937e+02
2.210000e-06	2.645172e-06	5.004739e-09	1.879530e+01	3.272530e+02
2.220000e-06	2.554625e-06	4.930218e-09	1.815192e+01	3.211850e+02
2.230000e-06	2.463277e-06	4.832199e-09	1.750285e+01	3.149899e+02
2.240000e-06	2.371081e-06	4.728461e-09	1.684775e+01	3.086674e+02
2.250000e-06	2.277964e-06	4.622858e-09	1.618610e+01	3.022160e+02
2.260000e-06	2.183919e-06	4.521331e-09	1.551786e+01	2.956337e+02
2.270000e-06	2.088979e-06	4.426430e-09	1.484327e+01	2.889173e+02
2.280000e-06	1.993223e-06	4.333263e-09	1.416287e+01	2.820631e+02
2.290000e-06	1.896735e-06	4.220698e-09	1.347727e+01	2.750672e+02
2.300000e-06	1.799655e-06	4.097795e-09	1.278747e+01	2.679257e+02
2.310000e-06	1.702079e-06	3.982712e-09	1.209415e+01	2.606354e+02
2.320000e-06	1.603971e-06	3.881693e-09	1.139704e+01	2.531938e+02
2.330000e-06	1.505344e-06	3.780271e-09	1.069624e+01	2.455990e+02
2.340000e-06	1.406260e-06	3.661591e-09	9.992198e+00	2.378502e+02
2.350000e-06	1.306799e-06	3.530769e-09	9.285474e+00	2.299466e+02
2.360000e-06	1.207049e-06	3.397529e-09	8.576699e+00	2.218875e+02
2.370000e-06	1.107004e-06	3.271614e-09	7.865832e+00	2.136716e+02
2.380000e-06	1.006555e-06	3.155712e-09	7.152091e+00	2.052964e+02
2.390000e-06	9.056003e-07	3.034901e-09	6.434754e+00	1.967579e+02
2.400000e-06	8.042350e-07	2.896551e-09	5.714502e+00	1.880504e+02
2.410000e-06	7.025200e-07	2.751983e-09	4.991765e+00	1.791668e+02
2.420000e-06	6.004938e-07	2.612005e-09	4.266816e+00	1.700984e+02
2.430000e-06	4.981965e-07	2.478901e-09	3.539942e+00	1.608361e+02
2.440000e-06	3.955948e-07	2.342708e-09	2.810904e+00	1.513706e+02
2.450000e-06	2.928111e-07	2.192708e-09	2.080573e+00	1.416932e+02
2.460000e-06	1.899214e-07	2.033563e-09	1.349489e+00	1.317967e+02
2.470000e-06	8.692667e-08	1.875818e-09	6.176585e-01	1.216752e+02
2.480000e-06	-1.606609e-08	1.724851e-09	-1.141578e-01	1.113246e+02
2.490000e-06	-1.189577e-07	1.573962e-09	-8.452555e-01	1.007422e+02
2.500000e-06	-2.218730e-07	1.411317e-09	-1.576522e+00	8.992604e+01
2.510000e-06	-3.247883e-07	1.237827e-09	-2.307787e+00	7.887433e+01
2.520000e-06	-4.275790e-07	1.063272e-09	-3.038168e+00	6.758447e+01
2.530000e-06	-5.302693e-07	8.900722e-10	-3.767835e+00	5.605242e+01
2.540000e-06	-6.327811e-07	7.150382e-10	-4.496235e+00	4.427234e+01
2.550000e-06	-7.349340e-07	5.344235e-10	-5.222083e+00	3.223661e+01
2.560000e-06	-8.366062e-07	3.434777e-10	-5.944516e+00	1.993645e+01
2.570000e-06	-9.378814e-07	1.436481e-10	-6.664128e+00	7.363189e+00
2.580000e-06	-1.038687e-06	-5.575609e-11	-7.380402e+00	-5.490029e+00
2.590000e-06	-1.138978e-06	-2.522281e-10	-8.093026e+00	-1.862611e+01
2.600000e-06	-1.238841e-06	-4.539037e-10	-8.802599e+00	-3.204171e+01
2.610000e-06	-1.338293e-06	-6.686925e-10	-9.509260e+00	-4.572510e+01
2.620000e-06	-1.437392e-06	-8.899153e-10	-1.021341e+01	-5.965437e+01
2.630000e-06	-1.536064e-06	-1.109326e-09	-1.091452e+01	-7.379638e+01
2.640000e-06	-1.634183e-06	-1.326674e-09	-1.161171e+01	-8.810655e+01
2.650000e-06	-1.731714e-06	-1.545301e-09	-1.230472e+01	-1.025296e+02
2.660000e-06	-1.828655e-06	-1.767847e-09	-1.299353e+01	-1.170017e+02
2.670000e-06	-1.924993e-06	-1.992160e-09	-1.367806e+01	-1.314524e+02
2.680000e-06	-2.020711e-06	-2.215584e-09	-1.435819e+01	-1.458090e+02
2.690000e-06	-2.115749e-06	-2.433302e-09	-1.503348e+01	-1.599993e+02
2.700000e-06	-2.210056e-06	-2.644574e-09	-1.570358e+01	-1.739560e+02
2.710000e-06	-2.303355e-06	-2.854062e-09	-1.636652e+01	-1.876195e+02
2.720000e-06	-2.395513e-06	-3.063429e-09	-1.702135e+01	-2.009405e+02
2.730000e-06	-2.486831e-06	-3.266570e-09	-1.767021e+01	-2.138821e+02
2.740000e-06	-2.577363e-06	-3.458217e-09	-1.831349e+01	-2.264196e+02
2.750000e-06	-2.666970e-06	-3.639822e-09	-1.895019e+01	-2.385404e+02
2.760000e-06	-2.755668e-06	-3.816529e-09	-1.958044e+01	-2.502423e+02
2.770000e-06	-2.843512e-06	-3.989514e-09	-2.020461e+01	-2.615311e+02
2.780000e-06	-2.930467e-06	-4.158339e-09	-2.082247e+01	-2.724183e+02
2.790000e-06	-3.016336e-06	-4.319665e-09	-2.143262e+01	-2.829176e+02
2.800000e-06	-3.100974e-06	-4.470128e-09	-2.203401e+01	-2.930432e+02
2.810000e-06	-3.184528e-06	-4.615789e-09	-2.262771e+01	-3.028072e+02
2.820000e-06	-3.267076e-06	-4.760051e-09	-2.321425e+01	-3.122190e+02
2.830000e-06	-3.348564e-06	-4.902023e-09	-2.379326e+01	-3.212843e+02
2.840000e-06	-3.428957e-06	-5.037812e-09	-2.436450e+01	-3.300061e+02
2.850000e-06	-3.508103e-06	-5.166571e-09	-2.492687e+01	-3.383852e+02
2.860000e-06	-3.585760e-06	-5.289264e-09	-2.547866e+01	-3.464223e+02
2.870000e-06	-3.661866e-06	-5.406518e-09	-2.601943e+01	-3.541192e+02
2.880000e-06	-3.736583e-06	-5.519681e-09	-2.655034e+01	-3.614804e+02
2.890000e-06	-3.809974e-06	-5.628847e-09	-2.707182e+01	-3.685143e+02
2.900000e-06	-3.882059e-06	-5.732785e-09	-2.758402e+01	-3.752333e+02
2.910000e-06	-3.952783e-06	-5.830980e-09	-2.808655e+01	-3.816542e+02
2.920000e-06	-4.021898e-06	-5.925608e-09	-2.857765e+01	-3.877970e+02
2.930000e-06	-4.089442e-06	-6.017577e-09	-2.905758e+01	-3.936836e+02
2.940000e-06	-4.155606e-06	-6.104896e-09	-2.952771e+01	-3.993362e+02
