# Temperatura_=_71.85
# Concentracion g/m^3_=_15000.0
# C_Vs_to_Am_M_A/Vsm_=_65563218390.804596
# pendiente_HvsI_1/m_=_3716.3
# ordenada_HvsI_A/m_=_1297.0
# frecuencia_Hz_=_301580.9636108055

Tiempo_(s)	Campo_(V.s)	Magnetizacion_(V.s)	Campo_(kA/m)	Magnetizacion_(A/m)
0.000000e+00	-5.379938e-06	-7.163848e-09	-3.833962e+01	-4.686121e+02
1.000000e-08	-5.376956e-06	-7.159689e-09	-3.831837e+01	-4.684016e+02
2.000000e-08	-5.372178e-06	-7.154210e-09	-3.828432e+01	-4.680825e+02
3.000000e-08	-5.365786e-06	-7.146186e-09	-3.823877e+01	-4.676503e+02
4.000000e-08	-5.357825e-06	-7.134981e-09	-3.818203e+01	-4.671027e+02
5.000000e-08	-5.347998e-06	-7.123395e-09	-3.811200e+01	-4.664411e+02
6.000000e-08	-5.336122e-06	-7.112241e-09	-3.802737e+01	-4.656705e+02
7.000000e-08	-5.322393e-06	-7.097018e-09	-3.792953e+01	-4.647991e+02
8.000000e-08	-5.306484e-06	-7.102700e-09	-3.781616e+01	-4.638381e+02
9.000000e-08	-5.288269e-06	-7.123974e-09	-3.768635e+01	-4.628001e+02
1.000000e-07	-5.268089e-06	-7.094106e-09	-3.754254e+01	-4.616977e+02
1.100000e-07	-5.246057e-06	-7.046420e-09	-3.738553e+01	-4.605416e+02
1.200000e-07	-5.222376e-06	-7.001029e-09	-3.721677e+01	-4.593397e+02
1.300000e-07	-5.197202e-06	-6.934580e-09	-3.703737e+01	-4.580953e+02
1.400000e-07	-5.170384e-06	-6.982463e-09	-3.684625e+01	-4.568068e+02
1.500000e-07	-5.141911e-06	-7.007559e-09	-3.664334e+01	-4.554679e+02
1.600000e-07	-5.111998e-06	-6.909058e-09	-3.643017e+01	-4.540676e+02
1.700000e-07	-5.080501e-06	-6.928161e-09	-3.620571e+01	-4.525920e+02
1.800000e-07	-5.046867e-06	-6.900876e-09	-3.596602e+01	-4.510252e+02
1.900000e-07	-5.011393e-06	-6.821540e-09	-3.571322e+01	-4.493517e+02
2.000000e-07	-4.974497e-06	-6.868387e-09	-3.545028e+01	-4.475573e+02
2.100000e-07	-4.935826e-06	-6.807425e-09	-3.517470e+01	-4.456311e+02
2.200000e-07	-4.895363e-06	-6.720089e-09	-3.488634e+01	-4.435664e+02
2.300000e-07	-4.852924e-06	-6.731653e-09	-3.458391e+01	-4.413608e+02
2.400000e-07	-4.808517e-06	-6.693918e-09	-3.426744e+01	-4.390166e+02
2.500000e-07	-4.762386e-06	-6.663860e-09	-3.393870e+01	-4.365396e+02
2.600000e-07	-4.714301e-06	-6.621880e-09	-3.359602e+01	-4.339386e+02
2.700000e-07	-4.664172e-06	-6.556860e-09	-3.323878e+01	-4.312234e+02
2.800000e-07	-4.611994e-06	-6.533540e-09	-3.286694e+01	-4.284039e+02
2.900000e-07	-4.557935e-06	-6.501088e-09	-3.248170e+01	-4.254887e+02
3.000000e-07	-4.502363e-06	-6.456632e-09	-3.208566e+01	-4.224840e+02
3.100000e-07	-4.445117e-06	-6.401886e-09	-3.167771e+01	-4.193932e+02
3.200000e-07	-4.385996e-06	-6.344587e-09	-3.125639e+01	-4.162167e+02
3.300000e-07	-4.325309e-06	-6.284003e-09	-3.082391e+01	-4.129521e+02
3.400000e-07	-4.263162e-06	-6.232602e-09	-3.038102e+01	-4.095952e+02
3.500000e-07	-4.199656e-06	-6.213293e-09	-2.992845e+01	-4.061403e+02
3.600000e-07	-4.134736e-06	-6.155908e-09	-2.946581e+01	-4.025818e+02
3.700000e-07	-4.068091e-06	-6.079245e-09	-2.899087e+01	-3.989147e+02
3.800000e-07	-3.999878e-06	-6.022703e-09	-2.850475e+01	-3.951355e+02
3.900000e-07	-3.930322e-06	-5.962905e-09	-2.800907e+01	-3.912424e+02
4.000000e-07	-3.859502e-06	-5.905978e-09	-2.750438e+01	-3.872352e+02
4.100000e-07	-3.787542e-06	-5.841581e-09	-2.699156e+01	-3.831156e+02
4.200000e-07	-3.714252e-06	-5.777555e-09	-2.646927e+01	-3.788862e+02
4.300000e-07	-3.639315e-06	-5.708499e-09	-2.593524e+01	-3.745500e+02
4.400000e-07	-3.562759e-06	-5.642651e-09	-2.538967e+01	-3.701099e+02
4.500000e-07	-3.484753e-06	-5.581521e-09	-2.483376e+01	-3.655676e+02
4.600000e-07	-3.405338e-06	-5.513843e-09	-2.426782e+01	-3.609240e+02
4.700000e-07	-3.324651e-06	-5.434832e-09	-2.369281e+01	-3.561783e+02
4.800000e-07	-3.242790e-06	-5.346757e-09	-2.310944e+01	-3.513284e+02
4.900000e-07	-3.159797e-06	-5.274341e-09	-2.251799e+01	-3.463710e+02
5.000000e-07	-3.075804e-06	-5.205344e-09	-2.191943e+01	-3.413023e+02
5.100000e-07	-2.990905e-06	-5.128169e-09	-2.131441e+01	-3.361181e+02
5.200000e-07	-2.905027e-06	-5.041395e-09	-2.070240e+01	-3.308147e+02
5.300000e-07	-2.818102e-06	-4.948227e-09	-2.008294e+01	-3.253891e+02
5.400000e-07	-2.730359e-06	-4.862033e-09	-1.945765e+01	-3.198388e+02
5.500000e-07	-2.641723e-06	-4.780517e-09	-1.882599e+01	-3.141628e+02
5.600000e-07	-2.551768e-06	-4.696367e-09	-1.818494e+01	-3.083605e+02
5.700000e-07	-2.460688e-06	-4.604229e-09	-1.753586e+01	-3.024320e+02
5.800000e-07	-2.368849e-06	-4.506001e-09	-1.688138e+01	-2.963775e+02
5.900000e-07	-2.276228e-06	-4.409754e-09	-1.622133e+01	-2.901973e+02
6.000000e-07	-2.182803e-06	-4.314798e-09	-1.555554e+01	-2.838911e+02
6.100000e-07	-2.088577e-06	-4.218762e-09	-1.488404e+01	-2.774581e+02
6.200000e-07	-1.993599e-06	-4.119124e-09	-1.420720e+01	-2.708970e+02
6.300000e-07	-1.898014e-06	-4.012700e-09	-1.352602e+01	-2.642060e+02
6.400000e-07	-1.801789e-06	-3.905502e-09	-1.284028e+01	-2.573829e+02
6.500000e-07	-1.704750e-06	-3.802734e-09	-1.214874e+01	-2.504255e+02
6.600000e-07	-1.606953e-06	-3.698178e-09	-1.145180e+01	-2.433319e+02
6.700000e-07	-1.508494e-06	-3.583329e-09	-1.075014e+01	-2.361001e+02
6.800000e-07	-1.409425e-06	-3.462350e-09	-1.004413e+01	-2.287286e+02
6.900000e-07	-1.309887e-06	-3.343786e-09	-9.334787e+00	-2.212157e+02
7.000000e-07	-1.210004e-06	-3.231181e-09	-8.622981e+00	-2.135596e+02
7.100000e-07	-1.109778e-06	-3.118577e-09	-7.908730e+00	-2.057577e+02
7.200000e-07	-1.009217e-06	-2.997517e-09	-7.192087e+00	-1.978065e+02
7.300000e-07	-9.084019e-07	-2.871066e-09	-6.473640e+00	-1.897012e+02
7.400000e-07	-8.073056e-07	-2.741009e-09	-5.753187e+00	-1.814355e+02
7.500000e-07	-7.059241e-07	-2.609954e-09	-5.030701e+00	-1.730019e+02
7.600000e-07	-6.043025e-07	-2.480036e-09	-4.306505e+00	-1.643916e+02
7.700000e-07	-5.024285e-07	-2.346805e-09	-3.580510e+00	-1.555953e+02
7.800000e-07	-4.003852e-07	-2.208909e-09	-2.853307e+00	-1.466035e+02
7.900000e-07	-2.981777e-07	-2.066174e-09	-2.124935e+00	-1.374074e+02
8.000000e-07	-1.958210e-07	-1.921721e-09	-1.395500e+00	-1.279995e+02
8.100000e-07	-9.339445e-08	-1.777069e-09	-6.655667e-01	-1.183737e+02
8.200000e-07	9.113804e-09	-1.626537e-09	6.494867e-02	-1.085257e+02
8.300000e-07	1.116358e-07	-1.468304e-09	7.955622e-01	-9.845289e+01
8.400000e-07	2.141730e-07	-1.306455e-09	1.526283e+00	-8.815374e+01
8.500000e-07	3.166470e-07	-1.144690e-09	2.256555e+00	-7.762714e+01
8.600000e-07	4.190243e-07	-9.817341e-10	2.986137e+00	-6.687169e+01
8.700000e-07	5.212818e-07	-8.141530e-10	3.714865e+00	-5.588488e+01
8.800000e-07	6.233585e-07	-6.411328e-10	4.442305e+00	-4.466259e+01
8.900000e-07	7.252162e-07	-4.648439e-10	5.168185e+00	-3.319892e+01
9.000000e-07	8.267534e-07	-2.847130e-10	5.891780e+00	-2.148653e+01
9.100000e-07	9.279521e-07	-1.018159e-10	6.612963e+00	-9.517581e+00
9.200000e-07	1.028858e-06	8.184136e-11	7.332060e+00	2.714860e+00
9.300000e-07	1.129483e-06	2.685201e-10	8.049156e+00	1.521490e+01
9.400000e-07	1.229764e-06	4.600415e-10	8.763796e+00	2.798170e+01
9.500000e-07	1.329635e-06	6.580705e-10	9.475521e+00	4.100731e+01
9.600000e-07	1.429023e-06	8.589399e-10	1.018380e+01	5.427481e+01
9.700000e-07	1.527844e-06	1.062088e-09	1.088803e+01	6.775695e+01
9.800000e-07	1.626020e-06	1.266989e-09	1.158768e+01	8.141564e+01
9.900000e-07	1.723418e-06	1.471779e-09	1.228177e+01	9.520226e+01
1.000000e-06	1.819987e-06	1.678728e-09	1.296997e+01	1.090590e+02
1.010000e-06	1.915787e-06	1.889413e-09	1.365267e+01	1.229212e+02
1.020000e-06	2.010927e-06	2.100121e-09	1.433068e+01	1.367202e+02
1.030000e-06	2.105461e-06	2.305893e-09	1.500437e+01	1.503869e+02
1.040000e-06	2.199247e-06	2.507838e-09	1.567273e+01	1.638551e+02
1.050000e-06	2.292292e-06	2.705767e-09	1.633580e+01	1.770653e+02
1.060000e-06	2.384630e-06	2.899744e-09	1.699384e+01	1.899667e+02
1.070000e-06	2.476240e-06	3.088466e-09	1.764669e+01	2.025198e+02
1.080000e-06	2.566933e-06	3.270482e-09	1.829301e+01	2.146968e+02
1.090000e-06	2.656428e-06	3.448675e-09	1.893078e+01	2.264817e+02
1.100000e-06	2.744768e-06	3.622920e-09	1.956033e+01	2.378686e+02
1.110000e-06	2.832218e-06	3.791883e-09	2.018354e+01	2.488603e+02
1.120000e-06	2.918844e-06	3.954779e-09	2.080087e+01	2.594653e+02
1.130000e-06	3.004522e-06	4.111682e-09	2.141144e+01	2.696952e+02
1.140000e-06	3.089268e-06	4.261817e-09	2.201538e+01	2.795623e+02
1.150000e-06	3.173109e-06	4.406559e-09	2.261286e+01	2.890775e+02
1.160000e-06	3.255880e-06	4.545586e-09	2.320272e+01	2.982487e+02
1.170000e-06	3.337330e-06	4.679039e-09	2.378317e+01	3.070809e+02
1.180000e-06	3.417462e-06	4.807569e-09	2.435422e+01	3.155758e+02
1.190000e-06	3.496445e-06	4.930434e-09	2.491709e+01	3.237334e+02
1.200000e-06	3.574253e-06	5.048522e-09	2.547157e+01	3.315533e+02
1.210000e-06	3.650843e-06	5.161880e-09	2.601739e+01	3.390363e+02
1.220000e-06	3.726077e-06	5.269253e-09	2.655354e+01	3.461863e+02
1.230000e-06	3.799691e-06	5.369773e-09	2.707814e+01	3.530112e+02
1.240000e-06	3.871749e-06	5.465550e-09	2.759166e+01	3.595238e+02
1.250000e-06	3.942408e-06	5.560182e-09	2.809520e+01	3.657418e+02
1.260000e-06	4.011664e-06	5.653741e-09	2.858874e+01	3.716866e+02
1.270000e-06	4.079610e-06	5.743351e-09	2.907295e+01	3.773823e+02
1.280000e-06	4.146106e-06	5.827802e-09	2.954683e+01	3.828537e+02
1.290000e-06	4.210847e-06	5.906715e-09	3.000820e+01	3.881241e+02
1.300000e-06	4.274018e-06	5.983059e-09	3.045838e+01	3.932137e+02
1.310000e-06	4.335802e-06	6.057640e-09	3.089868e+01	3.981377e+02
1.320000e-06	4.396234e-06	6.130652e-09	3.132934e+01	4.029057e+02
1.330000e-06	4.455268e-06	6.201234e-09	3.175005e+01	4.075212e+02
1.340000e-06	4.512532e-06	6.269083e-09	3.215814e+01	4.119820e+02
1.350000e-06	4.568010e-06	6.335709e-09	3.255349e+01	4.162818e+02
1.360000e-06	4.621926e-06	6.399682e-09	3.293772e+01	4.204112e+02
1.370000e-06	4.674091e-06	6.458670e-09	3.330947e+01	4.243603e+02
1.380000e-06	4.724146e-06	6.513612e-09	3.366618e+01	4.281198e+02
1.390000e-06	4.772211e-06	6.566630e-09	3.400871e+01	4.316831e+02
1.400000e-06	4.818643e-06	6.616856e-09	3.433960e+01	4.350472e+02
1.410000e-06	4.863571e-06	6.663508e-09	3.465978e+01	4.382133e+02
1.420000e-06	4.906848e-06	6.708176e-09	3.496819e+01	4.411866e+02
1.430000e-06	4.948193e-06	6.750406e-09	3.526283e+01	4.439755e+02
1.440000e-06	4.987744e-06	6.788935e-09	3.554468e+01	4.465907e+02
1.450000e-06	5.025692e-06	6.825075e-09	3.581512e+01	4.490434e+02
1.460000e-06	5.062066e-06	6.859820e-09	3.607433e+01	4.513443e+02
1.470000e-06	5.096639e-06	6.892754e-09	3.632072e+01	4.535022e+02
1.480000e-06	5.129238e-06	6.922634e-09	3.655303e+01	4.555231e+02
1.490000e-06	5.160079e-06	6.948332e-09	3.677282e+01	4.574101e+02
1.500000e-06	5.189291e-06	6.970833e-09	3.698099e+01	4.591635e+02
1.510000e-06	5.216804e-06	6.993233e-09	3.717706e+01	4.607817e+02
1.520000e-06	5.242265e-06	7.016142e-09	3.735851e+01	4.622617e+02
1.530000e-06	5.265655e-06	7.037600e-09	3.752519e+01	4.636009e+02
1.540000e-06	5.287218e-06	7.056223e-09	3.767886e+01	4.647977e+02
1.550000e-06	5.307096e-06	7.072471e-09	3.782052e+01	4.658527e+02
1.560000e-06	5.325147e-06	7.087302e-09	3.794916e+01	4.667690e+02
1.570000e-06	5.341144e-06	7.100354e-09	3.806316e+01	4.675523e+02
1.580000e-06	5.355194e-06	7.110941e-09	3.816328e+01	4.682102e+02
1.590000e-06	5.367196e-06	7.119713e-09	3.824881e+01	4.687519e+02
1.600000e-06	5.376961e-06	7.127652e-09	3.831841e+01	4.691863e+02
1.610000e-06	5.384690e-06	7.134486e-09	3.837349e+01	4.695214e+02
1.620000e-06	5.390555e-06	7.140414e-09	3.841528e+01	4.697632e+02
1.630000e-06	5.394638e-06	7.145210e-09	3.844438e+01	4.699147e+02
1.640000e-06	5.396744e-06	7.148235e-09	3.845939e+01	4.699761e+02
1.650000e-06	5.396830e-06	7.150327e-09	3.846000e+01	4.699444e+02
1.660000e-06	5.395189e-06	7.148352e-09	3.844831e+01	4.698148e+02
1.670000e-06	5.391942e-06	7.143588e-09	3.842517e+01	4.695811e+02
1.680000e-06	5.387034e-06	7.138700e-09	3.839019e+01	4.692378e+02
1.690000e-06	5.380161e-06	7.133680e-09	3.834121e+01	4.687806e+02
1.700000e-06	5.371486e-06	7.127312e-09	3.827939e+01	4.682080e+02
1.710000e-06	5.361247e-06	7.120126e-09	3.820642e+01	4.675222e+02
1.720000e-06	5.349219e-06	7.116359e-09	3.812070e+01	4.667288e+02
1.730000e-06	5.335150e-06	7.099919e-09	3.802044e+01	4.658369e+02
1.740000e-06	5.319075e-06	7.036179e-09	3.790589e+01	4.648580e+02
1.750000e-06	5.300741e-06	7.024176e-09	3.777523e+01	4.638048e+02
1.760000e-06	5.279673e-06	7.035530e-09	3.762509e+01	4.626897e+02
1.770000e-06	5.256319e-06	7.042416e-09	3.745866e+01	4.615230e+02
1.780000e-06	5.231775e-06	7.085821e-09	3.728375e+01	4.603115e+02
1.790000e-06	5.206560e-06	6.968154e-09	3.710405e+01	4.590577e+02
1.800000e-06	5.179794e-06	6.902143e-09	3.691331e+01	4.577588e+02
1.810000e-06	5.150643e-06	6.961927e-09	3.670557e+01	4.564074e+02
1.820000e-06	5.119737e-06	6.868726e-09	3.648532e+01	4.549919e+02
1.830000e-06	5.087268e-06	6.893073e-09	3.625394e+01	4.534977e+02
1.840000e-06	5.052892e-06	6.941963e-09	3.600896e+01	4.519091e+02
1.850000e-06	5.016983e-06	6.813912e-09	3.575305e+01	4.502104e+02
1.860000e-06	4.979266e-06	6.859681e-09	3.548427e+01	4.483882e+02
1.870000e-06	4.939615e-06	6.852730e-09	3.520170e+01	4.464325e+02
1.880000e-06	4.898309e-06	6.744702e-09	3.490734e+01	4.443372e+02
1.890000e-06	4.855166e-06	6.771645e-09	3.459988e+01	4.421013e+02
1.900000e-06	4.810380e-06	6.674310e-09	3.428072e+01	4.397277e+02
1.910000e-06	4.763762e-06	6.651960e-09	3.394850e+01	4.372230e+02
1.920000e-06	4.715118e-06	6.661107e-09	3.360184e+01	4.345963e+02
1.930000e-06	4.664928e-06	6.542508e-09	3.324417e+01	4.318576e+02
1.940000e-06	4.612941e-06	6.559769e-09	3.287369e+01	4.290166e+02
1.950000e-06	4.558767e-06	6.510728e-09	3.248762e+01	4.260815e+02
1.960000e-06	4.502705e-06	6.438675e-09	3.208810e+01	4.230578e+02
1.970000e-06	4.445007e-06	6.410449e-09	3.167692e+01	4.199484e+02
1.980000e-06	4.385964e-06	6.358372e-09	3.125616e+01	4.167530e+02
1.990000e-06	4.325356e-06	6.346023e-09	3.082424e+01	4.134687e+02
2.000000e-06	4.262915e-06	6.229274e-09	3.037926e+01	4.100909e+02
2.010000e-06	4.198986e-06	6.182554e-09	2.992367e+01	4.066139e+02
2.020000e-06	4.133640e-06	6.164102e-09	2.945800e+01	4.030322e+02
2.030000e-06	4.066882e-06	6.075521e-09	2.898225e+01	3.993411e+02
2.040000e-06	3.998670e-06	6.051329e-09	2.849614e+01	3.955372e+02
2.050000e-06	3.928847e-06	5.980308e-09	2.799856e+01	3.916192e+02
2.060000e-06	3.857555e-06	5.921402e-09	2.749050e+01	3.875875e+02
2.070000e-06	3.784995e-06	5.846730e-09	2.697341e+01	3.834438e+02
2.080000e-06	3.711101e-06	5.768238e-09	2.644681e+01	3.791909e+02
2.090000e-06	3.635789e-06	5.734210e-09	2.591010e+01	3.748319e+02
2.100000e-06	3.559010e-06	5.654373e-09	2.536295e+01	3.703694e+02
2.110000e-06	3.480647e-06	5.576481e-09	2.480450e+01	3.658051e+02
2.120000e-06	3.401031e-06	5.501770e-09	2.423713e+01	3.611394e+02
2.130000e-06	3.320405e-06	5.445087e-09	2.366255e+01	3.563712e+02
2.140000e-06	3.238613e-06	5.375964e-09	2.307967e+01	3.514983e+02
2.150000e-06	3.155729e-06	5.293169e-09	2.248900e+01	3.465170e+02
2.160000e-06	3.071840e-06	5.216192e-09	2.189118e+01	3.414236e+02
2.170000e-06	2.986721e-06	5.132860e-09	2.128458e+01	3.362138e+02
2.180000e-06	2.900224e-06	5.060098e-09	2.066818e+01	3.308842e+02
2.190000e-06	2.812606e-06	4.974670e-09	2.004377e+01	3.254316e+02
2.200000e-06	2.724057e-06	4.892092e-09	1.941274e+01	3.198542e+02
2.210000e-06	2.634614e-06	4.802211e-09	1.877533e+01	3.141508e+02
2.220000e-06	2.544219e-06	4.707466e-09	1.813114e+01	3.083211e+02
2.230000e-06	2.452988e-06	4.619703e-09	1.748099e+01	3.023652e+02
2.240000e-06	2.361025e-06	4.533253e-09	1.682562e+01	2.962835e+02
2.250000e-06	2.268182e-06	4.449100e-09	1.616398e+01	2.900760e+02
2.260000e-06	2.174424e-06	4.350737e-09	1.549582e+01	2.837423e+02
2.270000e-06	2.079707e-06	4.243374e-09	1.482083e+01	2.772817e+02
2.280000e-06	1.984106e-06	4.139156e-09	1.413955e+01	2.706926e+02
2.290000e-06	1.887820e-06	4.041286e-09	1.345337e+01	2.639731e+02
2.300000e-06	1.791028e-06	3.938817e-09	1.276359e+01	2.571211e+02
2.310000e-06	1.693767e-06	3.830167e-09	1.207047e+01	2.501343e+02
2.320000e-06	1.595905e-06	3.720219e-09	1.137306e+01	2.430109e+02
2.330000e-06	1.497447e-06	3.614395e-09	1.067142e+01	2.357490e+02
2.340000e-06	1.398551e-06	3.507700e-09	9.966642e+00	2.283470e+02
2.350000e-06	1.299306e-06	3.392853e-09	9.259384e+00	2.208033e+02
2.360000e-06	1.199788e-06	3.276215e-09	8.550179e+00	2.131158e+02
2.370000e-06	1.100023e-06	3.153404e-09	7.839210e+00	2.052819e+02
2.380000e-06	9.999061e-07	3.026732e-09	7.125736e+00	1.972978e+02
2.390000e-06	8.993108e-07	2.904084e-09	6.408854e+00	1.891584e+02
2.400000e-06	7.982461e-07	2.783964e-09	5.688626e+00	1.808571e+02
2.410000e-06	6.968213e-07	2.658367e-09	4.965831e+00	1.723861e+02
2.420000e-06	5.951227e-07	2.521162e-09	4.241086e+00	1.637364e+02
2.430000e-06	4.931397e-07	2.381448e-09	3.514314e+00	1.548986e+02
2.440000e-06	3.909336e-07	2.249129e-09	2.785951e+00	1.458634e+02
2.450000e-06	2.886238e-07	2.114946e-09	2.056851e+00	1.366222e+02
2.460000e-06	1.861988e-07	1.970115e-09	1.326928e+00	1.271677e+02
2.470000e-06	8.362928e-08	1.819624e-09	5.959762e-01	1.174942e+02
2.480000e-06	-1.906807e-08	1.667400e-09	-1.358868e-01	1.075979e+02
2.490000e-06	-1.217164e-07	1.514708e-09	-8.674001e-01	9.747642e+01
2.500000e-06	-2.242737e-07	1.361711e-09	-1.598265e+00	8.712828e+01
2.510000e-06	-3.267628e-07	1.206045e-09	-2.328644e+00	7.655246e+01
2.520000e-06	-4.291029e-07	1.044223e-09	-3.057961e+00	6.574736e+01
2.530000e-06	-5.312739e-07	8.728027e-10	-3.786073e+00	5.471017e+01
2.540000e-06	-6.332513e-07	6.969833e-10	-4.512805e+00	4.343637e+01
2.550000e-06	-7.349971e-07	5.238730e-10	-5.237887e+00	3.191972e+01
2.560000e-06	-8.363769e-07	3.479121e-10	-5.960361e+00	2.015269e+01
2.570000e-06	-9.373282e-07	1.626304e-10	-6.679781e+00	8.127459e+00
2.580000e-06	-1.037865e-06	-2.929492e-11	-7.396247e+00	-4.162447e+00
2.590000e-06	-1.137918e-06	-2.238705e-10	-8.109263e+00	-1.672027e+01
2.600000e-06	-1.237538e-06	-4.204331e-10	-8.819200e+00	-2.954381e+01
2.610000e-06	-1.336764e-06	-6.200731e-10	-9.526322e+00	-4.262334e+01
2.620000e-06	-1.435575e-06	-8.241652e-10	-1.023049e+01	-5.593982e+01
2.630000e-06	-1.533896e-06	-1.033768e-09	-1.093117e+01	-6.946371e+01
2.640000e-06	-1.631650e-06	-1.245890e-09	-1.162780e+01	-8.315457e+01
2.650000e-06	-1.728845e-06	-1.458466e-09	-1.232045e+01	-9.696169e+01
2.660000e-06	-1.825497e-06	-1.671866e-09	-1.300923e+01	-1.108256e+02
2.670000e-06	-1.921606e-06	-1.886499e-09	-1.369414e+01	-1.246804e+02
2.680000e-06	-2.017079e-06	-2.100718e-09	-1.437452e+01	-1.384572e+02
2.690000e-06	-2.111845e-06	-2.312874e-09	-1.504986e+01	-1.520870e+02
2.700000e-06	-2.205689e-06	-2.521075e-09	-1.571864e+01	-1.655051e+02
2.710000e-06	-2.298506e-06	-2.723007e-09	-1.638009e+01	-1.786533e+02
2.720000e-06	-2.390434e-06	-2.920032e-09	-1.703520e+01	-1.914833e+02
2.730000e-06	-2.481566e-06	-3.111156e-09	-1.768465e+01	-2.039581e+02
2.740000e-06	-2.571833e-06	-3.295655e-09	-1.832792e+01	-2.160524e+02
2.750000e-06	-2.661131e-06	-3.472755e-09	-1.896430e+01	-2.277525e+02
2.760000e-06	-2.749560e-06	-3.643812e-09	-1.959448e+01	-2.390546e+02
2.770000e-06	-2.837185e-06	-3.810743e-09	-2.021893e+01	-2.499629e+02
2.780000e-06	-2.923884e-06	-3.973620e-09	-2.083678e+01	-2.604868e+02
2.790000e-06	-3.009425e-06	-4.130129e-09	-2.144638e+01	-2.706383e+02
2.800000e-06	-3.093751e-06	-4.279027e-09	-2.204733e+01	-2.804295e+02
2.810000e-06	-3.176990e-06	-4.422131e-09	-2.264052e+01	-2.898707e+02
2.820000e-06	-3.259154e-06	-4.559676e-09	-2.322605e+01	-2.989693e+02
2.830000e-06	-3.340261e-06	-4.693333e-09	-2.380405e+01	-3.077295e+02
2.840000e-06	-3.420397e-06	-4.823959e-09	-2.437513e+01	-3.161525e+02
2.850000e-06	-3.499472e-06	-4.950096e-09	-2.493866e+01	-3.242381e+02
2.860000e-06	-3.576989e-06	-5.070436e-09	-2.549108e+01	-3.319860e+02
2.870000e-06	-3.652870e-06	-5.184846e-09	-2.603183e+01	-3.393975e+02
2.880000e-06	-3.727371e-06	-5.294638e-09	-2.656276e+01	-3.464773e+02
2.890000e-06	-3.800515e-06	-5.398668e-09	-2.708401e+01	-3.532344e+02
2.900000e-06	-3.872417e-06	-5.497091e-09	-2.759642e+01	-3.596826e+02
2.910000e-06	-3.942947e-06	-5.592282e-09	-2.809904e+01	-3.658404e+02
2.920000e-06	-4.011790e-06	-5.682254e-09	-2.858964e+01	-3.717301e+02
2.930000e-06	-4.079072e-06	-5.766215e-09	-2.906912e+01	-3.773760e+02
2.940000e-06	-4.145013e-06	-5.847122e-09	-2.953904e+01	-3.828027e+02
