# Temperatura_=_36.92
# Concentracion g/m^3_=_15000.0
# C_Vs_to_Am_M_A/Vsm_=_65563218390.804596
# pendiente_HvsI_1/m_=_3716.3
# ordenada_HvsI_A/m_=_1297.0
# frecuencia_Hz_=_301593.25213964295

Tiempo_(s)	Campo_(V.s)	Magnetizacion_(V.s)	Campo_(kA/m)	Magnetizacion_(A/m)
0.000000e+00	-5.368282e-06	-5.790504e-09	-3.834637e+01	-3.786199e+02
1.000000e-08	-5.367056e-06	-5.788513e-09	-3.833761e+01	-3.785526e+02
2.000000e-08	-5.363892e-06	-5.783535e-09	-3.831502e+01	-3.784073e+02
3.000000e-08	-5.358966e-06	-5.778000e-09	-3.827983e+01	-3.781858e+02
4.000000e-08	-5.352417e-06	-5.773773e-09	-3.823304e+01	-3.778909e+02
5.000000e-08	-5.344293e-06	-5.769491e-09	-3.817502e+01	-3.775265e+02
6.000000e-08	-5.334303e-06	-5.764456e-09	-3.810366e+01	-3.770971e+02
7.000000e-08	-5.322253e-06	-5.752832e-09	-3.801758e+01	-3.766077e+02
8.000000e-08	-5.308271e-06	-5.740091e-09	-3.791770e+01	-3.760625e+02
9.000000e-08	-5.292159e-06	-5.762890e-09	-3.780262e+01	-3.754651e+02
1.000000e-07	-5.273828e-06	-5.768857e-09	-3.767167e+01	-3.748177e+02
1.100000e-07	-5.253488e-06	-5.738151e-09	-3.752638e+01	-3.741206e+02
1.200000e-07	-5.231280e-06	-5.719196e-09	-3.736775e+01	-3.733720e+02
1.300000e-07	-5.207468e-06	-5.653677e-09	-3.719765e+01	-3.725685e+02
1.400000e-07	-5.182187e-06	-5.617506e-09	-3.701707e+01	-3.717048e+02
1.500000e-07	-5.155278e-06	-5.695325e-09	-3.682485e+01	-3.707751e+02
1.600000e-07	-5.126746e-06	-5.635990e-09	-3.662104e+01	-3.697726e+02
1.700000e-07	-5.096752e-06	-5.626368e-09	-3.640680e+01	-3.686916e+02
1.800000e-07	-5.065091e-06	-5.701270e-09	-3.618063e+01	-3.675269e+02
1.900000e-07	-5.031273e-06	-5.588258e-09	-3.593907e+01	-3.662752e+02
2.000000e-07	-4.995636e-06	-5.549531e-09	-3.568451e+01	-3.649353e+02
2.100000e-07	-4.958563e-06	-5.547190e-09	-3.541969e+01	-3.635077e+02
2.200000e-07	-4.919774e-06	-5.457043e-09	-3.514261e+01	-3.619952e+02
2.300000e-07	-4.879159e-06	-5.479375e-09	-3.485249e+01	-3.604017e+02
2.400000e-07	-4.836568e-06	-5.499969e-09	-3.454826e+01	-3.587321e+02
2.500000e-07	-4.792097e-06	-5.438819e-09	-3.423060e+01	-3.569915e+02
2.600000e-07	-4.745901e-06	-5.430219e-09	-3.390061e+01	-3.551845e+02
2.700000e-07	-4.697789e-06	-5.393118e-09	-3.355695e+01	-3.533144e+02
2.800000e-07	-4.647599e-06	-5.367033e-09	-3.319844e+01	-3.513831e+02
2.900000e-07	-4.595345e-06	-5.360306e-09	-3.282517e+01	-3.493908e+02
3.000000e-07	-4.541264e-06	-5.312062e-09	-3.243887e+01	-3.473358e+02
3.100000e-07	-4.485609e-06	-5.252089e-09	-3.204132e+01	-3.452151e+02
3.200000e-07	-4.428267e-06	-5.232885e-09	-3.163171e+01	-3.430246e+02
3.300000e-07	-4.369094e-06	-5.217005e-09	-3.120903e+01	-3.407597e+02
3.400000e-07	-4.308332e-06	-5.153432e-09	-3.077500e+01	-3.384159e+02
3.500000e-07	-4.246193e-06	-5.122115e-09	-3.033114e+01	-3.359893e+02
3.600000e-07	-4.182702e-06	-5.093795e-09	-2.987761e+01	-3.334769e+02
3.700000e-07	-4.117714e-06	-5.039311e-09	-2.941339e+01	-3.308769e+02
3.800000e-07	-4.051040e-06	-5.012420e-09	-2.893713e+01	-3.281885e+02
3.900000e-07	-3.982775e-06	-4.981517e-09	-2.844951e+01	-3.254120e+02
4.000000e-07	-3.913150e-06	-4.922104e-09	-2.795217e+01	-3.225483e+02
4.100000e-07	-3.842322e-06	-4.857262e-09	-2.744623e+01	-3.195988e+02
4.200000e-07	-3.770294e-06	-4.810029e-09	-2.693172e+01	-3.165645e+02
4.300000e-07	-3.696862e-06	-4.780423e-09	-2.640719e+01	-3.134461e+02
4.400000e-07	-3.621862e-06	-4.745325e-09	-2.587146e+01	-3.102437e+02
4.500000e-07	-3.545322e-06	-4.704880e-09	-2.532471e+01	-3.069565e+02
4.600000e-07	-3.467357e-06	-4.646365e-09	-2.476780e+01	-3.035831e+02
4.700000e-07	-3.388024e-06	-4.577674e-09	-2.420112e+01	-3.001215e+02
4.800000e-07	-3.307377e-06	-4.516475e-09	-2.362505e+01	-2.965694e+02
4.900000e-07	-3.225547e-06	-4.461152e-09	-2.304052e+01	-2.929247e+02
5.000000e-07	-3.142584e-06	-4.412809e-09	-2.244791e+01	-2.891853e+02
5.100000e-07	-3.058579e-06	-4.352907e-09	-2.184785e+01	-2.853500e+02
5.200000e-07	-2.973743e-06	-4.286318e-09	-2.124185e+01	-2.814177e+02
5.300000e-07	-2.887968e-06	-4.223591e-09	-2.062915e+01	-2.773884e+02
5.400000e-07	-2.801120e-06	-4.165229e-09	-2.000878e+01	-2.732618e+02
5.500000e-07	-2.713372e-06	-4.109953e-09	-1.938198e+01	-2.690384e+02
5.600000e-07	-2.624770e-06	-4.044580e-09	-1.874909e+01	-2.647180e+02
5.700000e-07	-2.535047e-06	-3.967201e-09	-1.810818e+01	-2.603001e+02
5.800000e-07	-2.444135e-06	-3.891760e-09	-1.745879e+01	-2.557837e+02
5.900000e-07	-2.352347e-06	-3.828752e-09	-1.680313e+01	-2.511669e+02
6.000000e-07	-2.259837e-06	-3.758595e-09	-1.614233e+01	-2.464469e+02
6.100000e-07	-2.166555e-06	-3.676932e-09	-1.547600e+01	-2.416207e+02
6.200000e-07	-2.072493e-06	-3.597521e-09	-1.480410e+01	-2.366847e+02
6.300000e-07	-1.977727e-06	-3.522292e-09	-1.412717e+01	-2.316355e+02
6.400000e-07	-1.882220e-06	-3.449424e-09	-1.344495e+01	-2.264702e+02
6.500000e-07	-1.786022e-06	-3.379152e-09	-1.275780e+01	-2.211863e+02
6.600000e-07	-1.689246e-06	-3.304575e-09	-1.206652e+01	-2.157826e+02
6.700000e-07	-1.591815e-06	-3.214016e-09	-1.137055e+01	-2.102584e+02
6.800000e-07	-1.493646e-06	-3.113274e-09	-1.066932e+01	-2.046141e+02
6.900000e-07	-1.394791e-06	-3.018236e-09	-9.963181e+00	-1.988504e+02
7.000000e-07	-1.295390e-06	-2.933528e-09	-9.253146e+00	-1.929680e+02
7.100000e-07	-1.195572e-06	-2.847793e-09	-8.540134e+00	-1.869673e+02
7.200000e-07	-1.095409e-06	-2.754514e-09	-7.824654e+00	-1.808477e+02
7.300000e-07	-9.950087e-07	-2.655998e-09	-7.107483e+00	-1.746075e+02
7.400000e-07	-8.944301e-07	-2.556076e-09	-6.389036e+00	-1.682432e+02
7.500000e-07	-7.935641e-07	-2.458913e-09	-5.668536e+00	-1.617496e+02
7.600000e-07	-6.923723e-07	-2.363259e-09	-4.945710e+00	-1.551204e+02
7.700000e-07	-5.908955e-07	-2.263050e-09	-4.220847e+00	-1.483475e+02
7.800000e-07	-4.891884e-07	-2.153811e-09	-3.494340e+00	-1.414223e+02
7.900000e-07	-3.873258e-07	-2.040243e-09	-2.766721e+00	-1.343358e+02
8.000000e-07	-2.853305e-07	-1.928110e-09	-2.038155e+00	-1.270790e+02
8.100000e-07	-1.831468e-07	-1.817889e-09	-1.308243e+00	-1.196435e+02
8.200000e-07	-8.086609e-08	-1.705010e-09	-5.776375e-01	-1.120217e+02
8.300000e-07	2.141266e-08	-1.585994e-09	1.529536e-01	-1.042065e+02
8.400000e-07	1.237287e-07	-1.462275e-09	8.838113e-01	-9.619193e+01
8.500000e-07	2.260143e-07	-1.337331e-09	1.614451e+00	-8.797234e+01
8.600000e-07	3.281826e-07	-1.212122e-09	2.344253e+00	-7.954230e+01
8.700000e-07	4.302605e-07	-1.079658e-09	3.073409e+00	-7.089628e+01
8.800000e-07	5.322628e-07	-9.399151e-10	3.802026e+00	-6.202843e+01
8.900000e-07	6.340948e-07	-7.973780e-10	4.529425e+00	-5.293262e+01
9.000000e-07	7.356629e-07	-6.542948e-10	5.254940e+00	-4.360260e+01
9.100000e-07	8.368895e-07	-5.080899e-10	5.978016e+00	-3.403258e+01
9.200000e-07	9.377918e-07	-3.582832e-10	6.698775e+00	-2.421794e+01
9.300000e-07	1.038440e-06	-2.056631e-10	7.417719e+00	-1.415629e+01
9.400000e-07	1.138821e-06	-4.609264e-11	8.134750e+00	-3.848553e+00
9.500000e-07	1.238884e-06	1.186452e-10	8.849520e+00	6.699867e+00
9.600000e-07	1.338569e-06	2.848449e-10	9.561581e+00	1.747811e+01
9.700000e-07	1.437707e-06	4.503425e-10	1.026974e+01	2.846908e+01
9.800000e-07	1.536165e-06	6.181583e-10	1.097304e+01	3.964908e+01
9.900000e-07	1.633924e-06	7.921068e-10	1.167135e+01	5.098780e+01
1.000000e-06	1.730958e-06	9.706611e-10	1.236447e+01	6.244888e+01
1.010000e-06	1.827253e-06	1.148323e-09	1.305232e+01	7.399080e+01
1.020000e-06	1.922803e-06	1.323607e-09	1.373485e+01	8.556819e+01
1.030000e-06	2.017673e-06	1.498037e-09	1.441252e+01	9.713341e+01
1.040000e-06	2.111846e-06	1.672767e-09	1.508521e+01	1.086382e+02
1.050000e-06	2.205246e-06	1.847952e-09	1.575237e+01	1.200354e+02
1.060000e-06	2.297955e-06	2.020061e-09	1.641460e+01	1.312802e+02
1.070000e-06	2.390005e-06	2.188714e-09	1.707213e+01	1.423318e+02
1.080000e-06	2.481296e-06	2.354341e-09	1.772423e+01	1.531538e+02
1.090000e-06	2.571652e-06	2.517404e-09	1.836966e+01	1.637150e+02
1.100000e-06	2.660904e-06	2.677798e-09	1.900720e+01	1.739896e+02
1.110000e-06	2.749041e-06	2.830366e-09	1.963678e+01	1.839569e+02
1.120000e-06	2.836207e-06	2.974431e-09	2.025941e+01	1.936009e+02
1.130000e-06	2.922485e-06	3.112389e-09	2.087571e+01	2.029100e+02
1.140000e-06	3.007814e-06	3.247471e-09	2.148522e+01	2.118767e+02
1.150000e-06	3.092260e-06	3.379927e-09	2.208844e+01	2.204966e+02
1.160000e-06	3.175821e-06	3.508020e-09	2.268533e+01	2.287686e+02
1.170000e-06	3.258267e-06	3.629759e-09	2.327425e+01	2.366946e+02
1.180000e-06	3.339454e-06	3.743642e-09	2.385417e+01	2.442790e+02
1.190000e-06	3.419448e-06	3.852441e-09	2.442559e+01	2.515293e+02
1.200000e-06	3.498247e-06	3.955883e-09	2.498846e+01	2.584555e+02
1.210000e-06	3.575759e-06	4.054773e-09	2.554213e+01	2.650701e+02
1.220000e-06	3.652034e-06	4.151702e-09	2.608698e+01	2.713879e+02
1.230000e-06	3.726915e-06	4.244696e-09	2.662186e+01	2.774256e+02
1.240000e-06	3.800180e-06	4.331538e-09	2.714520e+01	2.832011e+02
1.250000e-06	3.871925e-06	4.413969e-09	2.765769e+01	2.887324e+02
1.260000e-06	3.942263e-06	4.494990e-09	2.816012e+01	2.940373e+02
1.270000e-06	4.011223e-06	4.574246e-09	2.865272e+01	2.991321e+02
1.280000e-06	4.078872e-06	4.649597e-09	2.913594e+01	3.040309e+02
1.290000e-06	4.144999e-06	4.721530e-09	2.960829e+01	3.087450e+02
1.300000e-06	4.209428e-06	4.790915e-09	3.006852e+01	3.132826e+02
1.310000e-06	4.272373e-06	4.857172e-09	3.051814e+01	3.176485e+02
1.320000e-06	4.333909e-06	4.920321e-09	3.095771e+01	3.218448e+02
1.330000e-06	4.394075e-06	4.980645e-09	3.138747e+01	3.258710e+02
1.340000e-06	4.452745e-06	5.037971e-09	3.180657e+01	3.297250e+02
1.350000e-06	4.509620e-06	5.091165e-09	3.221283e+01	3.334040e+02
1.360000e-06	4.564752e-06	5.140842e-09	3.260664e+01	3.369055e+02
1.370000e-06	4.618290e-06	5.189794e-09	3.298908e+01	3.402279e+02
1.380000e-06	4.670072e-06	5.236500e-09	3.335896e+01	3.433715e+02
1.390000e-06	4.719792e-06	5.279914e-09	3.371412e+01	3.463384e+02
1.400000e-06	4.767549e-06	5.320835e-09	3.405526e+01	3.491332e+02
1.410000e-06	4.813654e-06	5.358766e-09	3.438458e+01	3.517621e+02
1.420000e-06	4.858232e-06	5.394419e-09	3.470302e+01	3.542330e+02
1.430000e-06	4.901144e-06	5.428908e-09	3.500954e+01	3.565547e+02
1.440000e-06	4.942141e-06	5.460599e-09	3.530238e+01	3.587358e+02
1.450000e-06	4.981412e-06	5.489801e-09	3.558291e+01	3.607850e+02
1.460000e-06	5.019132e-06	5.516455e-09	3.585234e+01	3.627093e+02
1.470000e-06	5.055250e-06	5.541125e-09	3.611034e+01	3.645149e+02
1.480000e-06	5.089561e-06	5.565562e-09	3.635543e+01	3.662059e+02
1.490000e-06	5.121905e-06	5.588872e-09	3.658647e+01	3.677854e+02
1.500000e-06	5.152471e-06	5.610222e-09	3.680480e+01	3.692550e+02
1.510000e-06	5.181368e-06	5.628927e-09	3.701122e+01	3.706160e+02
1.520000e-06	5.208492e-06	5.646104e-09	3.720497e+01	3.718691e+02
1.530000e-06	5.233544e-06	5.664246e-09	3.738392e+01	3.730152e+02
1.540000e-06	5.256596e-06	5.681263e-09	3.754858e+01	3.740560e+02
1.550000e-06	5.277897e-06	5.695318e-09	3.770074e+01	3.749938e+02
1.560000e-06	5.297456e-06	5.707420e-09	3.784045e+01	3.758315e+02
1.570000e-06	5.315097e-06	5.719084e-09	3.796646e+01	3.765729e+02
1.580000e-06	5.330722e-06	5.731026e-09	3.807808e+01	3.772220e+02
1.590000e-06	5.344467e-06	5.741599e-09	3.817626e+01	3.777827e+02
1.600000e-06	5.356178e-06	5.749476e-09	3.825991e+01	3.782584e+02
1.610000e-06	5.365603e-06	5.754937e-09	3.832723e+01	3.786521e+02
1.620000e-06	5.372947e-06	5.758976e-09	3.837969e+01	3.789656e+02
1.630000e-06	5.378504e-06	5.762358e-09	3.841939e+01	3.791999e+02
1.640000e-06	5.382325e-06	5.764502e-09	3.844668e+01	3.793554e+02
1.650000e-06	5.384190e-06	5.767304e-09	3.846000e+01	3.794320e+02
1.660000e-06	5.384034e-06	5.770128e-09	3.845889e+01	3.794296e+02
1.670000e-06	5.382136e-06	5.771098e-09	3.844533e+01	3.793483e+02
1.680000e-06	5.378651e-06	5.771233e-09	3.842044e+01	3.791892e+02
1.690000e-06	5.373426e-06	5.767428e-09	3.838311e+01	3.789543e+02
1.700000e-06	5.366234e-06	5.763167e-09	3.833174e+01	3.786467e+02
1.710000e-06	5.357305e-06	5.759746e-09	3.826796e+01	3.782703e+02
1.720000e-06	5.346834e-06	5.757184e-09	3.819316e+01	3.778299e+02
1.730000e-06	5.334584e-06	5.761836e-09	3.810566e+01	3.773302e+02
1.740000e-06	5.320347e-06	5.722782e-09	3.800396e+01	3.767754e+02
1.750000e-06	5.304081e-06	5.685389e-09	3.788777e+01	3.761690e+02
1.760000e-06	5.285402e-06	5.692163e-09	3.775434e+01	3.755128e+02
1.770000e-06	5.263969e-06	5.687211e-09	3.760125e+01	3.748066e+02
1.780000e-06	5.240410e-06	5.738777e-09	3.743296e+01	3.740485e+02
1.790000e-06	5.215828e-06	5.724723e-09	3.725737e+01	3.732347e+02
1.800000e-06	5.190500e-06	5.618024e-09	3.707645e+01	3.723597e+02
1.810000e-06	5.163539e-06	5.666467e-09	3.688386e+01	3.714174e+02
1.820000e-06	5.134355e-06	5.630955e-09	3.667540e+01	3.704014e+02
1.830000e-06	5.103481e-06	5.556890e-09	3.645486e+01	3.693057e+02
1.840000e-06	5.070887e-06	5.645160e-09	3.622203e+01	3.681256e+02
1.850000e-06	5.036324e-06	5.608284e-09	3.597515e+01	3.668582e+02
1.860000e-06	5.000203e-06	5.583285e-09	3.571713e+01	3.655025e+02
1.870000e-06	4.962246e-06	5.638430e-09	3.544600e+01	3.640596e+02
1.880000e-06	4.922447e-06	5.516005e-09	3.516171e+01	3.625322e+02
1.890000e-06	4.881020e-06	5.465212e-09	3.486579e+01	3.609248e+02
1.900000e-06	4.837792e-06	5.468787e-09	3.455700e+01	3.592421e+02
1.910000e-06	4.792977e-06	5.414589e-09	3.423689e+01	3.574894e+02
1.920000e-06	4.746296e-06	5.456315e-09	3.390344e+01	3.556709e+02
1.930000e-06	4.697574e-06	5.390062e-09	3.355541e+01	3.537898e+02
1.940000e-06	4.647252e-06	5.337820e-09	3.319595e+01	3.518476e+02
1.950000e-06	4.595153e-06	5.350172e-09	3.282381e+01	3.498443e+02
1.960000e-06	4.540954e-06	5.302227e-09	3.243665e+01	3.477778e+02
1.970000e-06	4.484855e-06	5.274509e-09	3.203593e+01	3.456450e+02
1.980000e-06	4.427161e-06	5.215941e-09	3.162382e+01	3.434415e+02
1.990000e-06	4.368038e-06	5.194787e-09	3.120149e+01	3.411628e+02
2.000000e-06	4.307420e-06	5.171974e-09	3.076849e+01	3.388045e+02
2.010000e-06	4.245132e-06	5.118267e-09	3.032356e+01	3.363628e+02
2.020000e-06	4.181193e-06	5.109155e-09	2.986683e+01	3.338348e+02
2.030000e-06	4.115733e-06	5.041028e-09	2.939924e+01	3.312190e+02
2.040000e-06	4.048876e-06	4.992872e-09	2.892167e+01	3.285148e+02
2.050000e-06	3.980638e-06	4.964800e-09	2.843424e+01	3.257227e+02
2.060000e-06	3.910849e-06	4.927643e-09	2.793573e+01	3.228436e+02
2.070000e-06	3.839530e-06	4.903047e-09	2.742629e+01	3.198788e+02
2.080000e-06	3.766949e-06	4.835594e-09	2.690783e+01	3.168295e+02
2.090000e-06	3.693135e-06	4.774085e-09	2.638057e+01	3.136961e+02
2.100000e-06	3.617909e-06	4.712522e-09	2.584321e+01	3.104787e+02
2.110000e-06	3.541150e-06	4.672035e-09	2.529492e+01	3.071762e+02
2.120000e-06	3.462815e-06	4.636532e-09	2.473536e+01	3.037872e+02
2.130000e-06	3.383175e-06	4.585121e-09	2.416648e+01	3.003096e+02
2.140000e-06	3.302449e-06	4.536198e-09	2.358984e+01	2.967411e+02
2.150000e-06	3.220602e-06	4.466925e-09	2.300520e+01	2.930796e+02
2.160000e-06	3.137636e-06	4.405847e-09	2.241256e+01	2.893232e+02
2.170000e-06	3.053629e-06	4.352089e-09	2.181249e+01	2.854706e+02
2.180000e-06	2.968570e-06	4.302699e-09	2.120490e+01	2.815210e+02
2.190000e-06	2.882235e-06	4.236803e-09	2.058820e+01	2.774742e+02
2.200000e-06	2.794696e-06	4.155869e-09	1.996289e+01	2.733304e+02
2.210000e-06	2.706238e-06	4.095374e-09	1.933103e+01	2.690896e+02
2.220000e-06	2.616854e-06	4.044208e-09	1.869255e+01	2.647519e+02
2.230000e-06	2.526563e-06	3.982222e-09	1.804758e+01	2.603165e+02
2.240000e-06	2.435438e-06	3.905419e-09	1.739666e+01	2.557823e+02
2.250000e-06	2.343537e-06	3.837694e-09	1.674021e+01	2.511473e+02
2.260000e-06	2.250902e-06	3.768549e-09	1.607850e+01	2.464086e+02
2.270000e-06	2.157465e-06	3.689665e-09	1.541107e+01	2.415630e+02
2.280000e-06	2.062999e-06	3.614523e-09	1.473629e+01	2.366071e+02
2.290000e-06	1.967475e-06	3.538839e-09	1.405394e+01	2.315373e+02
2.300000e-06	1.871238e-06	3.450119e-09	1.336651e+01	2.263510e+02
2.310000e-06	1.774571e-06	3.356780e-09	1.267601e+01	2.210458e+02
2.320000e-06	1.677447e-06	3.279395e-09	1.198223e+01	2.156205e+02
2.330000e-06	1.579738e-06	3.211488e-09	1.128428e+01	2.100749e+02
2.340000e-06	1.481486e-06	3.133220e-09	1.058246e+01	2.044092e+02
2.350000e-06	1.382734e-06	3.039195e-09	9.877055e+00	1.986242e+02
2.360000e-06	1.283534e-06	2.942462e-09	9.168456e+00	1.927206e+02
2.370000e-06	1.183982e-06	2.848649e-09	8.457345e+00	1.866988e+02
2.380000e-06	1.084215e-06	2.756814e-09	7.744697e+00	1.805579e+02
2.390000e-06	9.841224e-07	2.666571e-09	7.029720e+00	1.742958e+02
2.400000e-06	8.835858e-07	2.572570e-09	6.311574e+00	1.679088e+02
2.410000e-06	7.826575e-07	2.470924e-09	5.590629e+00	1.613915e+02
2.420000e-06	6.814227e-07	2.364576e-09	4.867495e+00	1.547372e+02
2.430000e-06	5.801017e-07	2.258132e-09	4.143746e+00	1.479378e+02
2.440000e-06	4.787109e-07	2.155645e-09	3.419498e+00	1.409845e+02
2.450000e-06	3.770854e-07	2.051683e-09	2.693573e+00	1.338682e+02
2.460000e-06	2.752255e-07	1.937265e-09	1.965974e+00	1.265801e+02
2.470000e-06	1.731871e-07	1.818075e-09	1.237099e+00	1.191119e+02
2.480000e-06	7.105351e-08	1.700586e-09	5.075449e-01	1.114559e+02
2.490000e-06	-3.113776e-08	1.582759e-09	-2.224213e-01	1.036056e+02
2.500000e-06	-1.333543e-07	1.461621e-09	-9.525681e-01	9.555481e+01
2.510000e-06	-2.355483e-07	1.335504e-09	-1.682554e+00	8.729804e+01
2.520000e-06	-3.376753e-07	1.206844e-09	-2.412060e+00	7.882983e+01
2.530000e-06	-4.396356e-07	1.076635e-09	-3.140377e+00	7.014463e+01
2.540000e-06	-5.414474e-07	9.438510e-10	-3.867632e+00	6.123653e+01
2.550000e-06	-6.430710e-07	8.074414e-10	-4.593544e+00	5.209934e+01
2.560000e-06	-7.443954e-07	6.648995e-10	-5.317318e+00	4.272687e+01
2.570000e-06	-8.453413e-07	5.137526e-10	-6.038388e+00	3.311344e+01
2.580000e-06	-9.459314e-07	3.590855e-10	-6.756917e+00	2.325478e+01
2.590000e-06	-1.046144e-06	2.072442e-10	-7.472748e+00	1.314900e+01
2.600000e-06	-1.145964e-06	5.610286e-11	-8.185776e+00	2.797742e+00
2.610000e-06	-1.245385e-06	-1.009019e-10	-8.895954e+00	-7.792691e+00
2.620000e-06	-1.344391e-06	-2.667650e-10	-9.603167e+00	-1.861037e+01
2.630000e-06	-1.442980e-06	-4.363860e-10	-1.030740e+01	-2.963703e+01
2.640000e-06	-1.541071e-06	-6.074739e-10	-1.100808e+01	-4.084778e+01
2.650000e-06	-1.638581e-06	-7.788448e-10	-1.170461e+01	-5.221119e+01
2.660000e-06	-1.735505e-06	-9.512550e-10	-1.239695e+01	-6.368989e+01
2.670000e-06	-1.831920e-06	-1.127182e-09	-1.308566e+01	-7.524156e+01
2.680000e-06	-1.927840e-06	-1.306436e-09	-1.377082e+01	-8.682031e+01
2.690000e-06	-2.023145e-06	-1.486451e-09	-1.445160e+01	-9.837828e+01
2.700000e-06	-2.117630e-06	-1.662771e-09	-1.512652e+01	-1.098673e+02
2.710000e-06	-2.211156e-06	-1.835576e-09	-1.579459e+01	-1.212404e+02
2.720000e-06	-2.303706e-06	-2.006136e-09	-1.645569e+01	-1.324536e+02
2.730000e-06	-2.395354e-06	-2.173911e-09	-1.711034e+01	-1.434667e+02
2.740000e-06	-2.486178e-06	-2.335870e-09	-1.775911e+01	-1.542443e+02
2.750000e-06	-2.576146e-06	-2.491685e-09	-1.840176e+01	-1.647561e+02
2.760000e-06	-2.665226e-06	-2.644390e-09	-1.903807e+01	-1.749772e+02
2.770000e-06	-2.753463e-06	-2.794701e-09	-1.966836e+01	-1.848878e+02
2.780000e-06	-2.840877e-06	-2.943550e-09	-2.029277e+01	-1.944727e+02
2.790000e-06	-2.927265e-06	-3.089785e-09	-2.090985e+01	-2.037212e+02
2.800000e-06	-3.012415e-06	-3.229422e-09	-2.151809e+01	-2.126262e+02
2.810000e-06	-3.096395e-06	-3.359915e-09	-2.211797e+01	-2.211840e+02
2.820000e-06	-3.179348e-06	-3.482794e-09	-2.271052e+01	-2.293940e+02
2.830000e-06	-3.261304e-06	-3.601813e-09	-2.329594e+01	-2.372585e+02
2.840000e-06	-3.342232e-06	-3.717873e-09	-2.387402e+01	-2.447827e+02
2.850000e-06	-3.422062e-06	-3.829809e-09	-2.444426e+01	-2.519743e+02
2.860000e-06	-3.500574e-06	-3.936282e-09	-2.500508e+01	-2.588438e+02
2.870000e-06	-3.577554e-06	-4.035041e-09	-2.555496e+01	-2.654043e+02
2.880000e-06	-3.653051e-06	-4.129412e-09	-2.609424e+01	-2.716708e+02
2.890000e-06	-3.727187e-06	-4.222513e-09	-2.662380e+01	-2.776604e+02
2.900000e-06	-3.800026e-06	-4.312082e-09	-2.714410e+01	-2.833909e+02
2.910000e-06	-3.871573e-06	-4.396231e-09	-2.765518e+01	-2.888806e+02
2.920000e-06	-3.941599e-06	-4.474817e-09	-2.815538e+01	-2.941468e+02
2.930000e-06	-4.010028e-06	-4.551380e-09	-2.864418e+01	-2.992056e+02
2.940000e-06	-4.077099e-06	-4.626855e-09	-2.912328e+01	-3.040707e+02
