# Temperatura_=_52.79
# Concentracion g/m^3_=_15000.0
# C_Vs_to_Am_M_A/Vsm_=_65563218390.804596
# pendiente_HvsI_1/m_=_3716.3
# ordenada_HvsI_A/m_=_1297.0
# frecuencia_Hz_=_301594.9920667783

Tiempo_(s)	Campo_(V.s)	Magnetizacion_(V.s)	Campo_(kA/m)	Magnetizacion_(A/m)
0.000000e+00	-5.369371e-06	-6.385756e-09	-3.833906e+01	-4.173927e+02
1.000000e-08	-5.366513e-06	-6.378926e-09	-3.831866e+01	-4.172327e+02
2.000000e-08	-5.361879e-06	-6.373183e-09	-3.828557e+01	-4.169745e+02
3.000000e-08	-5.355651e-06	-6.366430e-09	-3.824110e+01	-4.166155e+02
4.000000e-08	-5.347863e-06	-6.358172e-09	-3.818549e+01	-4.161557e+02
5.000000e-08	-5.338209e-06	-6.350935e-09	-3.811656e+01	-4.155983e+02
6.000000e-08	-5.326432e-06	-6.343120e-09	-3.803246e+01	-4.149498e+02
7.000000e-08	-5.312749e-06	-6.337607e-09	-3.793476e+01	-4.142194e+02
8.000000e-08	-5.297018e-06	-6.340077e-09	-3.782244e+01	-4.134180e+02
9.000000e-08	-5.279011e-06	-6.326789e-09	-3.769386e+01	-4.125572e+02
1.000000e-07	-5.258946e-06	-6.309027e-09	-3.755059e+01	-4.116478e+02
1.100000e-07	-5.236991e-06	-6.287212e-09	-3.739383e+01	-4.106980e+02
1.200000e-07	-5.213399e-06	-6.240506e-09	-3.722537e+01	-4.097127e+02
1.300000e-07	-5.188281e-06	-6.228244e-09	-3.704602e+01	-4.086928e+02
1.400000e-07	-5.161577e-06	-6.239269e-09	-3.685535e+01	-4.076342e+02
1.500000e-07	-5.133266e-06	-6.188939e-09	-3.665319e+01	-4.065288e+02
1.600000e-07	-5.103479e-06	-6.198985e-09	-3.644051e+01	-4.053649e+02
1.700000e-07	-5.072126e-06	-6.194637e-09	-3.621664e+01	-4.041289e+02
1.800000e-07	-5.038655e-06	-6.136689e-09	-3.597764e+01	-4.028061e+02
1.900000e-07	-5.003343e-06	-6.148898e-09	-3.572550e+01	-4.013829e+02
2.000000e-07	-4.966562e-06	-6.089555e-09	-3.546288e+01	-3.998480e+02
2.100000e-07	-4.928031e-06	-6.001866e-09	-3.518775e+01	-3.981936e+02
2.200000e-07	-4.887691e-06	-6.002315e-09	-3.489971e+01	-3.964158e+02
2.300000e-07	-4.845450e-06	-6.002117e-09	-3.459810e+01	-3.945155e+02
2.400000e-07	-4.801273e-06	-5.991564e-09	-3.428265e+01	-3.924971e+02
2.500000e-07	-4.755320e-06	-5.974029e-09	-3.395454e+01	-3.903683e+02
2.600000e-07	-4.707477e-06	-5.906028e-09	-3.361292e+01	-3.881387e+02
2.700000e-07	-4.657579e-06	-5.857895e-09	-3.325663e+01	-3.858185e+02
2.800000e-07	-4.605607e-06	-5.836216e-09	-3.288554e+01	-3.834169e+02
2.900000e-07	-4.551742e-06	-5.820562e-09	-3.250092e+01	-3.809416e+02
3.000000e-07	-4.496334e-06	-5.785585e-09	-3.210529e+01	-3.783972e+02
3.100000e-07	-4.439234e-06	-5.731168e-09	-3.169758e+01	-3.757855e+02
3.200000e-07	-4.380274e-06	-5.669411e-09	-3.127659e+01	-3.731052e+02
3.300000e-07	-4.319785e-06	-5.617636e-09	-3.084467e+01	-3.703524e+02
3.400000e-07	-4.257904e-06	-5.606444e-09	-3.040283e+01	-3.675213e+02
3.500000e-07	-4.194663e-06	-5.571362e-09	-2.995126e+01	-3.646057e+02
3.600000e-07	-4.129895e-06	-5.506733e-09	-2.948880e+01	-3.615990e+02
3.700000e-07	-4.063419e-06	-5.454822e-09	-2.901413e+01	-3.584963e+02
3.800000e-07	-3.995349e-06	-5.409484e-09	-2.852810e+01	-3.552938e+02
3.900000e-07	-3.925862e-06	-5.362347e-09	-2.803193e+01	-3.519901e+02
4.000000e-07	-3.855181e-06	-5.307962e-09	-2.752725e+01	-3.485856e+02
4.100000e-07	-3.783341e-06	-5.252036e-09	-2.701429e+01	-3.450823e+02
4.200000e-07	-3.710075e-06	-5.188303e-09	-2.649115e+01	-3.414835e+02
4.300000e-07	-3.635257e-06	-5.129223e-09	-2.595692e+01	-3.377924e+02
4.400000e-07	-3.558930e-06	-5.093810e-09	-2.541192e+01	-3.340120e+02
4.500000e-07	-3.481129e-06	-5.055309e-09	-2.485640e+01	-3.301442e+02
4.600000e-07	-3.401954e-06	-4.990141e-09	-2.429106e+01	-3.261892e+02
4.700000e-07	-3.321525e-06	-4.899492e-09	-2.371677e+01	-3.221457e+02
4.800000e-07	-3.239813e-06	-4.821383e-09	-2.313332e+01	-3.180103e+02
4.900000e-07	-3.156945e-06	-4.770050e-09	-2.254162e+01	-3.137786e+02
5.000000e-07	-3.073149e-06	-4.710940e-09	-2.194328e+01	-3.094452e+02
5.100000e-07	-2.988473e-06	-4.642908e-09	-2.133867e+01	-3.050043e+02
5.200000e-07	-2.902824e-06	-4.568219e-09	-2.072711e+01	-3.004507e+02
5.300000e-07	-2.816204e-06	-4.488179e-09	-2.010862e+01	-2.957800e+02
5.400000e-07	-2.728739e-06	-4.415487e-09	-1.948409e+01	-2.909890e+02
5.500000e-07	-2.640305e-06	-4.349793e-09	-1.885264e+01	-2.860760e+02
5.600000e-07	-2.550717e-06	-4.279357e-09	-1.821295e+01	-2.810409e+02
5.700000e-07	-2.460002e-06	-4.192425e-09	-1.756522e+01	-2.758846e+02
5.800000e-07	-2.368322e-06	-4.100977e-09	-1.691059e+01	-2.706087e+02
5.900000e-07	-2.275850e-06	-4.019539e-09	-1.625031e+01	-2.652155e+02
6.000000e-07	-2.182681e-06	-3.943352e-09	-1.558505e+01	-2.597069e+02
6.100000e-07	-2.088711e-06	-3.858111e-09	-1.491408e+01	-2.540845e+02
6.200000e-07	-1.994011e-06	-3.765405e-09	-1.423789e+01	-2.483492e+02
6.300000e-07	-1.898714e-06	-3.671986e-09	-1.355744e+01	-2.425008e+02
6.400000e-07	-1.802700e-06	-3.582768e-09	-1.287186e+01	-2.365384e+02
6.500000e-07	-1.705876e-06	-3.499678e-09	-1.218051e+01	-2.304601e+02
6.600000e-07	-1.608300e-06	-3.410229e-09	-1.148379e+01	-2.242635e+02
6.700000e-07	-1.510111e-06	-3.307819e-09	-1.078268e+01	-2.179455e+02
6.800000e-07	-1.411351e-06	-3.198208e-09	-1.007751e+01	-2.115029e+02
6.900000e-07	-1.312017e-06	-3.093096e-09	-9.368229e+00	-2.049321e+02
7.000000e-07	-1.212264e-06	-2.996529e-09	-8.655960e+00	-1.982294e+02
7.100000e-07	-1.112189e-06	-2.899514e-09	-7.941394e+00	-1.913908e+02
7.200000e-07	-1.011778e-06	-2.793207e-09	-7.224427e+00	-1.844119e+02
7.300000e-07	-9.110628e-07	-2.679648e-09	-6.505286e+00	-1.772880e+02
7.400000e-07	-8.101280e-07	-2.564886e-09	-5.784579e+00	-1.700139e+02
7.500000e-07	-7.090081e-07	-2.454093e-09	-5.062549e+00	-1.625838e+02
7.600000e-07	-6.076562e-07	-2.345923e-09	-4.338863e+00	-1.549915e+02
7.700000e-07	-5.060344e-07	-2.230736e-09	-3.613251e+00	-1.472306e+02
7.800000e-07	-4.042054e-07	-2.106150e-09	-2.886158e+00	-1.392943e+02
7.900000e-07	-3.021726e-07	-1.977265e-09	-2.157611e+00	-1.311762e+02
8.000000e-07	-1.999464e-07	-1.850163e-09	-1.427682e+00	-1.228701e+02
8.100000e-07	-9.764022e-08	-1.723980e-09	-6.971830e-01	-1.143700e+02
8.200000e-07	4.663017e-09	-1.592488e-09	3.329547e-02	-1.056706e+02
8.300000e-07	1.069562e-07	-1.453619e-09	7.637018e-01	-9.676688e+01
8.400000e-07	2.092690e-07	-1.310503e-09	1.494249e+00	-8.765379e+01
8.500000e-07	3.115115e-07	-1.167696e-09	2.224294e+00	-7.832624e+01
8.600000e-07	4.136530e-07	-1.024576e-09	2.953617e+00	-6.877869e+01
8.700000e-07	5.156714e-07	-8.763113e-10	3.682062e+00	-5.900500e+01
8.800000e-07	6.174547e-07	-7.200049e-10	4.408828e+00	-4.899840e+01
8.900000e-07	7.190051e-07	-5.597342e-10	5.133931e+00	-3.875176e+01
9.000000e-07	8.203445e-07	-3.977984e-10	5.857528e+00	-2.825816e+01
9.100000e-07	9.214117e-07	-2.332824e-10	6.579180e+00	-1.751172e+01
9.200000e-07	1.022167e-06	-6.611855e-11	7.298605e+00	-6.508819e+00
9.300000e-07	1.122613e-06	1.049160e-10	8.015822e+00	4.750602e+00
9.400000e-07	1.222759e-06	2.802932e-10	8.730901e+00	1.626159e+01
9.500000e-07	1.322556e-06	4.596835e-10	9.443484e+00	2.801288e+01
9.600000e-07	1.421847e-06	6.412412e-10	1.015245e+01	3.998580e+01
9.700000e-07	1.520516e-06	8.245876e-10	1.085698e+01	5.215369e+01
9.800000e-07	1.618498e-06	1.010958e-09	1.155661e+01	6.448175e+01
9.900000e-07	1.715733e-06	1.198952e-09	1.225089e+01	7.692765e+01
1.000000e-06	1.812173e-06	1.385860e-09	1.293950e+01	8.944265e+01
1.010000e-06	1.907845e-06	1.572639e-09	1.362264e+01	1.019733e+02
1.020000e-06	2.002815e-06	1.759956e-09	1.430075e+01	1.144637e+02
1.030000e-06	2.097126e-06	1.947583e-09	1.497417e+01	1.268577e+02
1.040000e-06	2.190749e-06	2.133907e-09	1.564267e+01	1.391014e+02
1.050000e-06	2.283648e-06	2.318223e-09	1.630599e+01	1.511453e+02
1.060000e-06	2.375880e-06	2.499769e-09	1.696456e+01	1.629460e+02
1.070000e-06	2.467412e-06	2.675478e-09	1.761813e+01	1.744675e+02
1.080000e-06	2.558045e-06	2.844993e-09	1.826528e+01	1.856815e+02
1.090000e-06	2.647494e-06	3.010028e-09	1.890397e+01	1.965677e+02
1.100000e-06	2.735788e-06	3.171890e-09	1.953442e+01	2.071126e+02
1.110000e-06	2.823172e-06	3.328232e-09	2.015837e+01	2.173087e+02
1.120000e-06	2.909661e-06	3.478503e-09	2.077593e+01	2.271529e+02
1.130000e-06	2.995255e-06	3.624116e-09	2.138710e+01	2.366454e+02
1.140000e-06	3.079935e-06	3.764218e-09	2.199174e+01	2.457877e+02
1.150000e-06	3.163671e-06	3.897069e-09	2.258964e+01	2.545826e+02
1.160000e-06	3.246369e-06	4.023964e-09	2.318013e+01	2.630327e+02
1.170000e-06	3.327806e-06	4.145372e-09	2.376162e+01	2.711411e+02
1.180000e-06	3.407981e-06	4.261951e-09	2.433410e+01	2.789110e+02
1.190000e-06	3.486931e-06	4.373402e-09	2.489782e+01	2.863468e+02
1.200000e-06	3.564654e-06	4.479969e-09	2.545279e+01	2.934549e+02
1.210000e-06	3.641146e-06	4.583110e-09	2.599897e+01	3.002438e+02
1.220000e-06	3.716242e-06	4.680787e-09	2.653518e+01	3.067254e+02
1.230000e-06	3.789768e-06	4.773068e-09	2.706018e+01	3.129145e+02
1.240000e-06	3.861736e-06	4.861306e-09	2.757406e+01	3.188292e+02
1.250000e-06	3.932298e-06	4.947055e-09	2.807789e+01	3.244894e+02
1.260000e-06	4.001477e-06	5.031434e-09	2.857185e+01	3.299164e+02
1.270000e-06	4.069341e-06	5.112399e-09	2.905642e+01	3.351313e+02
1.280000e-06	4.135802e-06	5.190040e-09	2.953098e+01	3.401534e+02
1.290000e-06	4.200557e-06	5.265323e-09	2.999335e+01	3.449990e+02
1.300000e-06	4.263729e-06	5.336898e-09	3.044441e+01	3.496806e+02
1.310000e-06	4.325518e-06	5.404658e-09	3.088561e+01	3.542056e+02
1.320000e-06	4.385948e-06	5.470236e-09	3.131710e+01	3.585769e+02
1.330000e-06	4.444905e-06	5.534200e-09	3.173807e+01	3.627929e+02
1.340000e-06	4.502065e-06	5.595225e-09	3.214621e+01	3.668488e+02
1.350000e-06	4.557481e-06	5.653244e-09	3.254190e+01	3.707373e+02
1.360000e-06	4.611335e-06	5.708318e-09	3.292643e+01	3.744510e+02
1.370000e-06	4.663419e-06	5.759254e-09	3.329833e+01	3.779829e+02
1.380000e-06	4.713476e-06	5.806747e-09	3.365575e+01	3.813284e+02
1.390000e-06	4.761598e-06	5.854518e-09	3.399936e+01	3.844860e+02
1.400000e-06	4.808078e-06	5.901012e-09	3.433125e+01	3.874576e+02
1.410000e-06	4.853005e-06	5.943040e-09	3.465204e+01	3.902486e+02
1.420000e-06	4.896301e-06	5.981491e-09	3.496119e+01	3.928673e+02
1.430000e-06	4.937739e-06	6.017118e-09	3.525707e+01	3.953241e+02
1.440000e-06	4.977325e-06	6.050819e-09	3.553973e+01	3.976298e+02
1.450000e-06	5.015248e-06	6.082979e-09	3.581050e+01	3.997952e+02
1.460000e-06	5.051587e-06	6.112941e-09	3.606998e+01	4.018294e+02
1.470000e-06	5.086139e-06	6.141676e-09	3.631669e+01	4.037392e+02
1.480000e-06	5.118688e-06	6.168181e-09	3.654911e+01	4.055288e+02
1.490000e-06	5.149458e-06	6.191618e-09	3.676881e+01	4.071999e+02
1.500000e-06	5.178651e-06	6.213054e-09	3.697726e+01	4.087519e+02
1.510000e-06	5.206177e-06	6.233356e-09	3.717380e+01	4.101831e+02
1.520000e-06	5.231650e-06	6.252807e-09	3.735568e+01	4.114913e+02
1.530000e-06	5.255024e-06	6.269982e-09	3.752259e+01	4.126749e+02
1.540000e-06	5.276582e-06	6.285953e-09	3.767652e+01	4.137340e+02
1.550000e-06	5.296448e-06	6.301461e-09	3.781837e+01	4.146705e+02
1.560000e-06	5.314444e-06	6.315075e-09	3.794687e+01	4.154885e+02
1.570000e-06	5.330404e-06	6.326184e-09	3.806082e+01	4.161940e+02
1.580000e-06	5.344399e-06	6.335889e-09	3.816076e+01	4.167946e+02
1.590000e-06	5.356400e-06	6.346050e-09	3.824644e+01	4.172979e+02
1.600000e-06	5.366228e-06	6.354641e-09	3.831662e+01	4.177112e+02
1.610000e-06	5.373954e-06	6.360356e-09	3.837178e+01	4.180405e+02
1.620000e-06	5.379831e-06	6.365227e-09	3.841375e+01	4.182892e+02
1.630000e-06	5.383971e-06	6.369230e-09	3.844331e+01	4.184583e+02
1.640000e-06	5.386158e-06	6.371438e-09	3.845893e+01	4.185465e+02
1.650000e-06	5.386308e-06	6.372114e-09	3.846000e+01	4.185499e+02
1.660000e-06	5.384697e-06	6.372648e-09	3.844849e+01	4.184637e+02
1.670000e-06	5.381461e-06	6.372553e-09	3.842539e+01	4.182828e+02
1.680000e-06	5.376494e-06	6.369332e-09	3.838992e+01	4.180029e+02
1.690000e-06	5.369618e-06	6.366245e-09	3.834082e+01	4.176220e+02
1.700000e-06	5.361009e-06	6.363322e-09	3.827935e+01	4.171407e+02
1.710000e-06	5.350849e-06	6.357392e-09	3.820681e+01	4.165629e+02
1.720000e-06	5.338959e-06	6.347467e-09	3.812191e+01	4.158958e+02
1.730000e-06	5.325071e-06	6.320772e-09	3.802275e+01	4.151489e+02
1.740000e-06	5.309107e-06	6.306898e-09	3.790876e+01	4.143336e+02
1.750000e-06	5.290809e-06	6.297842e-09	3.777810e+01	4.134614e+02
1.760000e-06	5.269857e-06	6.285666e-09	3.762850e+01	4.125424e+02
1.770000e-06	5.246685e-06	6.301980e-09	3.746305e+01	4.115846e+02
1.780000e-06	5.222240e-06	6.273857e-09	3.728850e+01	4.105918e+02
1.790000e-06	5.197056e-06	6.233055e-09	3.710868e+01	4.095638e+02
1.800000e-06	5.170460e-06	6.234009e-09	3.691877e+01	4.084958e+02
1.810000e-06	5.141686e-06	6.171415e-09	3.671332e+01	4.073787e+02
1.820000e-06	5.111107e-06	6.163389e-09	3.649497e+01	4.062004e+02
1.830000e-06	5.078782e-06	6.177835e-09	3.626416e+01	4.049468e+02
1.840000e-06	5.044509e-06	6.114929e-09	3.601944e+01	4.036033e+02
1.850000e-06	5.008709e-06	6.153925e-09	3.576382e+01	4.021568e+02
1.860000e-06	4.971072e-06	6.180189e-09	3.549507e+01	4.005966e+02
1.870000e-06	4.931491e-06	6.093507e-09	3.521245e+01	3.989157e+02
1.880000e-06	4.890316e-06	6.054074e-09	3.491845e+01	3.971113e+02
1.890000e-06	4.847374e-06	6.000541e-09	3.461183e+01	3.951849e+02
1.900000e-06	4.802832e-06	5.955846e-09	3.429379e+01	3.931419e+02
1.910000e-06	4.756404e-06	5.963612e-09	3.396228e+01	3.909904e+02
1.920000e-06	4.707927e-06	5.925515e-09	3.361613e+01	3.887403e+02
1.930000e-06	4.657856e-06	5.911957e-09	3.325861e+01	3.864017e+02
1.940000e-06	4.606032e-06	5.851552e-09	3.288857e+01	3.839836e+02
1.950000e-06	4.552238e-06	5.780532e-09	3.250447e+01	3.814929e+02
1.960000e-06	4.496523e-06	5.769665e-09	3.210664e+01	3.789339e+02
1.970000e-06	4.439035e-06	5.737346e-09	3.169616e+01	3.763075e+02
1.980000e-06	4.380145e-06	5.713898e-09	3.127566e+01	3.736118e+02
1.990000e-06	4.319759e-06	5.650813e-09	3.084449e+01	3.708425e+02
2.000000e-06	4.257667e-06	5.594027e-09	3.040113e+01	3.679937e+02
2.010000e-06	4.194000e-06	5.567760e-09	2.994653e+01	3.650588e+02
2.020000e-06	4.128856e-06	5.501407e-09	2.948138e+01	3.620317e+02
2.030000e-06	4.062250e-06	5.468533e-09	2.900579e+01	3.589076e+02
2.040000e-06	3.994126e-06	5.435452e-09	2.851936e+01	3.556833e+02
2.050000e-06	3.924482e-06	5.377731e-09	2.802208e+01	3.523577e+02
2.060000e-06	3.853367e-06	5.312674e-09	2.751430e+01	3.489316e+02
2.070000e-06	3.780924e-06	5.261082e-09	2.699703e+01	3.454073e+02
2.080000e-06	3.707225e-06	5.224710e-09	2.647080e+01	3.417882e+02
2.090000e-06	3.632172e-06	5.151377e-09	2.593489e+01	3.380775e+02
2.100000e-06	3.555606e-06	5.075835e-09	2.538819e+01	3.342781e+02
2.110000e-06	3.477493e-06	5.013190e-09	2.483043e+01	3.303914e+02
2.120000e-06	3.398095e-06	4.979472e-09	2.426350e+01	3.264174e+02
2.130000e-06	3.317550e-06	4.930232e-09	2.368839e+01	3.223543e+02
2.140000e-06	3.235845e-06	4.860416e-09	2.310499e+01	3.181985e+02
2.150000e-06	3.153076e-06	4.802009e-09	2.251399e+01	3.139453e+02
2.160000e-06	3.069330e-06	4.716746e-09	2.191602e+01	3.095891e+02
2.170000e-06	2.984467e-06	4.643423e-09	2.131007e+01	3.051242e+02
2.180000e-06	2.898276e-06	4.583373e-09	2.069464e+01	3.005456e+02
2.190000e-06	2.810888e-06	4.522640e-09	2.007066e+01	2.958491e+02
2.200000e-06	2.722490e-06	4.449319e-09	1.943947e+01	2.910319e+02
2.210000e-06	2.633191e-06	4.359795e-09	1.880184e+01	2.860925e+02
2.220000e-06	2.542996e-06	4.285318e-09	1.815782e+01	2.810311e+02
2.230000e-06	2.451902e-06	4.216856e-09	1.750738e+01	2.758487e+02
2.240000e-06	2.360059e-06	4.142219e-09	1.685159e+01	2.705473e+02
2.250000e-06	2.267424e-06	4.058129e-09	1.619015e+01	2.651290e+02
2.260000e-06	2.173918e-06	3.969453e-09	1.552248e+01	2.595957e+02
2.270000e-06	2.079496e-06	3.875656e-09	1.484828e+01	2.539489e+02
2.280000e-06	1.984121e-06	3.786935e-09	1.416727e+01	2.481891e+02
2.290000e-06	1.887934e-06	3.701588e-09	1.348046e+01	2.423162e+02
2.300000e-06	1.791224e-06	3.610520e-09	1.278993e+01	2.363289e+02
2.310000e-06	1.694116e-06	3.512935e-09	1.209654e+01	2.302253e+02
2.320000e-06	1.596475e-06	3.412469e-09	1.139935e+01	2.240027e+02
2.330000e-06	1.498250e-06	3.323570e-09	1.069800e+01	2.176581e+02
2.340000e-06	1.399522e-06	3.236380e-09	9.993047e+00	2.111881e+02
2.350000e-06	1.300398e-06	3.138658e-09	9.285268e+00	2.045892e+02
2.360000e-06	1.200965e-06	3.030776e-09	8.575281e+00	1.978574e+02
2.370000e-06	1.101305e-06	2.917601e-09	7.863675e+00	1.909889e+02
2.380000e-06	1.001347e-06	2.808199e-09	7.149942e+00	1.839791e+02
2.390000e-06	9.009443e-07	2.705180e-09	6.433036e+00	1.768233e+02
2.400000e-06	8.001051e-07	2.599145e-09	5.713012e+00	1.695160e+02
2.410000e-06	6.989404e-07	2.484084e-09	4.990663e+00	1.620515e+02
2.420000e-06	5.974995e-07	2.359838e-09	4.266342e+00	1.544234e+02
2.430000e-06	4.958272e-07	2.234877e-09	3.540368e+00	1.466252e+02
2.440000e-06	3.939847e-07	2.117429e-09	2.813179e+00	1.386503e+02
2.450000e-06	2.919736e-07	1.998100e-09	2.084787e+00	1.304922e+02
2.460000e-06	1.898298e-07	1.870934e-09	1.355446e+00	1.221448e+02
2.470000e-06	8.759684e-08	1.737444e-09	6.254700e-01	1.136022e+02
2.480000e-06	-1.470003e-08	1.601657e-09	-1.049630e-01	1.048593e+02
2.490000e-06	-1.169920e-07	1.468862e-09	-8.353614e-01	9.591086e+01
2.500000e-06	-2.192457e-07	1.335667e-09	-1.565486e+00	8.675204e+01
2.510000e-06	-3.214598e-07	1.195412e-09	-2.295328e+00	7.737761e+01
2.520000e-06	-4.235286e-07	1.047756e-09	-3.024132e+00	6.778193e+01
2.530000e-06	-5.254201e-07	8.949218e-10	-3.751671e+00	5.795869e+01
2.540000e-06	-6.271082e-07	7.420903e-10	-4.477757e+00	4.790104e+01
2.550000e-06	-7.284636e-07	5.908311e-10	-5.201468e+00	3.760182e+01
2.560000e-06	-8.294336e-07	4.329965e-10	-5.922426e+00	2.705425e+01
2.570000e-06	-9.300442e-07	2.661289e-10	-6.640819e+00	1.625285e+01
2.580000e-06	-1.030308e-06	9.482385e-11	-7.356733e+00	5.194611e+00
2.590000e-06	-1.130178e-06	-7.830866e-11	-8.069838e+00	-6.119551e+00
2.600000e-06	-1.229683e-06	-2.514770e-10	-8.780335e+00	-1.768344e+01
2.610000e-06	-1.328820e-06	-4.277049e-10	-9.488206e+00	-2.948428e+01
2.620000e-06	-1.427530e-06	-6.102746e-10	-1.019303e+01	-4.150173e+01
2.630000e-06	-1.525765e-06	-8.008615e-10	-1.089446e+01	-5.370735e+01
2.640000e-06	-1.623422e-06	-9.952310e-10	-1.159177e+01	-6.606469e+01
2.650000e-06	-1.720477e-06	-1.187911e-09	-1.228477e+01	-7.852991e+01
2.660000e-06	-1.817068e-06	-1.380103e-09	-1.297446e+01	-9.105311e+01
2.670000e-06	-1.913164e-06	-1.574798e-09	-1.366062e+01	-1.035801e+02
2.680000e-06	-2.008660e-06	-1.772451e-09	-1.434249e+01	-1.160548e+02
2.690000e-06	-2.103390e-06	-1.967647e-09	-1.501889e+01	-1.284212e+02
2.700000e-06	-2.197158e-06	-2.155239e-09	-1.568842e+01	-1.406263e+02
2.710000e-06	-2.289924e-06	-2.333401e-09	-1.635081e+01	-1.526217e+02
2.720000e-06	-2.381731e-06	-2.507954e-09	-1.700633e+01	-1.643656e+02
2.730000e-06	-2.472740e-06	-2.681679e-09	-1.765617e+01	-1.758235e+02
2.740000e-06	-2.562920e-06	-2.850432e-09	-1.830009e+01	-1.869689e+02
2.750000e-06	-2.652135e-06	-3.013331e-09	-1.893711e+01	-1.977831e+02
2.760000e-06	-2.740469e-06	-3.172536e-09	-1.956784e+01	-2.082540e+02
2.770000e-06	-2.828061e-06	-3.329574e-09	-2.019328e+01	-2.183750e+02
2.780000e-06	-2.914760e-06	-3.482913e-09	-2.081233e+01	-2.281440e+02
2.790000e-06	-3.000220e-06	-3.628631e-09	-2.142255e+01	-2.375614e+02
2.800000e-06	-3.084430e-06	-3.766142e-09	-2.202383e+01	-2.466293e+02
2.810000e-06	-3.167645e-06	-3.896222e-09	-2.261802e+01	-2.553503e+02
2.820000e-06	-3.249859e-06	-4.021743e-09	-2.320506e+01	-2.637272e+02
2.830000e-06	-3.331018e-06	-4.145912e-09	-2.378456e+01	-2.717629e+02
2.840000e-06	-3.411098e-06	-4.267887e-09	-2.435635e+01	-2.794610e+02
2.850000e-06	-3.489902e-06	-4.385630e-09	-2.491904e+01	-2.868263e+02
2.860000e-06	-3.567276e-06	-4.495758e-09	-2.547151e+01	-2.938653e+02
2.870000e-06	-3.643135e-06	-4.598354e-09	-2.601317e+01	-3.005875e+02
2.880000e-06	-3.717521e-06	-4.696402e-09	-2.654431e+01	-3.070052e+02
2.890000e-06	-3.790545e-06	-4.789902e-09	-2.706573e+01	-3.131342e+02
2.900000e-06	-3.862284e-06	-4.879413e-09	-2.757797e+01	-3.189928e+02
2.910000e-06	-3.932589e-06	-4.964181e-09	-2.807997e+01	-3.246015e+02
2.920000e-06	-4.001309e-06	-5.044215e-09	-2.857065e+01	-3.299815e+02
2.930000e-06	-4.068569e-06	-5.121892e-09	-2.905091e+01	-3.351537e+02
2.940000e-06	-4.134409e-06	-5.198300e-09	-2.952103e+01	-3.401370e+02
