# Temperatura_=_51.68
# Concentracion g/m^3_=_15000.0
# C_Vs_to_Am_M_A/Vsm_=_65563218390.804596
# pendiente_HvsI_1/m_=_3716.3
# ordenada_HvsI_A/m_=_1297.0
# frecuencia_Hz_=_301592.92588710284

Tiempo_(s)	Campo_(V.s)	Magnetizacion_(V.s)	Campo_(kA/m)	Magnetizacion_(A/m)
0.000000e+00	-5.368857e-06	-6.331980e-09	-3.833873e+01	-4.135288e+02
1.000000e-08	-5.366436e-06	-6.329354e-09	-3.832145e+01	-4.133951e+02
2.000000e-08	-5.362190e-06	-6.320727e-09	-3.829112e+01	-4.131631e+02
3.000000e-08	-5.356358e-06	-6.313133e-09	-3.824948e+01	-4.128302e+02
4.000000e-08	-5.348942e-06	-6.304788e-09	-3.819652e+01	-4.123962e+02
5.000000e-08	-5.339711e-06	-6.293873e-09	-3.813061e+01	-4.118639e+02
6.000000e-08	-5.328432e-06	-6.282915e-09	-3.805006e+01	-4.112393e+02
7.000000e-08	-5.315277e-06	-6.267380e-09	-3.795612e+01	-4.105311e+02
8.000000e-08	-5.300115e-06	-6.252444e-09	-3.784785e+01	-4.097502e+02
9.000000e-08	-5.282662e-06	-6.302041e-09	-3.772322e+01	-4.089082e+02
1.000000e-07	-5.263093e-06	-6.308321e-09	-3.758348e+01	-4.080165e+02
1.100000e-07	-5.241617e-06	-6.242995e-09	-3.743012e+01	-4.070845e+02
1.200000e-07	-5.218437e-06	-6.217498e-09	-3.726459e+01	-4.061187e+02
1.300000e-07	-5.193798e-06	-6.124159e-09	-3.708865e+01	-4.051218e+02
1.400000e-07	-5.167548e-06	-6.089829e-09	-3.690119e+01	-4.040920e+02
1.500000e-07	-5.139598e-06	-6.253532e-09	-3.670161e+01	-4.030232e+02
1.600000e-07	-5.110181e-06	-6.130771e-09	-3.649154e+01	-4.019055e+02
1.700000e-07	-5.079277e-06	-6.072720e-09	-3.627085e+01	-4.007262e+02
1.800000e-07	-5.046297e-06	-6.186878e-09	-3.603535e+01	-3.994711e+02
1.900000e-07	-5.011275e-06	-6.018191e-09	-3.578525e+01	-3.981261e+02
2.000000e-07	-4.974849e-06	-6.041416e-09	-3.552514e+01	-3.966784e+02
2.100000e-07	-4.936810e-06	-6.093255e-09	-3.525351e+01	-3.951181e+02
2.200000e-07	-4.896964e-06	-5.922105e-09	-3.496897e+01	-3.934387e+02
2.300000e-07	-4.855170e-06	-5.933054e-09	-3.467052e+01	-3.916376e+02
2.400000e-07	-4.811389e-06	-5.958754e-09	-3.435788e+01	-3.897165e+02
2.500000e-07	-4.765874e-06	-5.909658e-09	-3.403286e+01	-3.876804e+02
2.600000e-07	-4.718485e-06	-5.917622e-09	-3.369446e+01	-3.855367e+02
2.700000e-07	-4.669078e-06	-5.804566e-09	-3.334165e+01	-3.832945e+02
2.800000e-07	-4.617612e-06	-5.774532e-09	-3.297413e+01	-3.809630e+02
2.900000e-07	-4.564156e-06	-5.783236e-09	-3.259240e+01	-3.785507e+02
3.000000e-07	-4.509036e-06	-5.734040e-09	-3.219880e+01	-3.760641e+02
3.100000e-07	-4.452371e-06	-5.707207e-09	-3.179415e+01	-3.735072e+02
3.200000e-07	-4.393908e-06	-5.660967e-09	-3.137667e+01	-3.708814e+02
3.300000e-07	-4.333782e-06	-5.601643e-09	-3.094731e+01	-3.681854e+02
3.400000e-07	-4.272231e-06	-5.530370e-09	-3.050778e+01	-3.654160e+02
3.500000e-07	-4.209293e-06	-5.530325e-09	-3.005834e+01	-3.625681e+02
3.600000e-07	-4.144940e-06	-5.512068e-09	-2.959881e+01	-3.596362e+02
3.700000e-07	-4.078947e-06	-5.419104e-09	-2.912755e+01	-3.566150e+02
3.800000e-07	-4.011331e-06	-5.371622e-09	-2.864471e+01	-3.534996e+02
3.900000e-07	-3.942316e-06	-5.335693e-09	-2.815187e+01	-3.502866e+02
4.000000e-07	-3.872016e-06	-5.287906e-09	-2.764987e+01	-3.469742e+02
4.100000e-07	-3.800542e-06	-5.234191e-09	-2.713948e+01	-3.435617e+02
4.200000e-07	-3.727818e-06	-5.173267e-09	-2.662016e+01	-3.400500e+02
4.300000e-07	-3.653457e-06	-5.124434e-09	-2.608915e+01	-3.364404e+02
4.400000e-07	-3.577419e-06	-5.059693e-09	-2.554616e+01	-3.327347e+02
4.500000e-07	-3.499976e-06	-5.010889e-09	-2.499315e+01	-3.289343e+02
4.600000e-07	-3.421160e-06	-4.971686e-09	-2.443033e+01	-3.250401e+02
4.700000e-07	-3.341051e-06	-4.907100e-09	-2.385827e+01	-3.210518e+02
4.800000e-07	-3.259705e-06	-4.823020e-09	-2.327738e+01	-3.169681e+02
4.900000e-07	-3.177181e-06	-4.748191e-09	-2.268808e+01	-3.127869e+02
5.000000e-07	-3.093614e-06	-4.701292e-09	-2.209134e+01	-3.085051e+02
5.100000e-07	-3.009119e-06	-4.637608e-09	-2.148796e+01	-3.041192e+02
5.200000e-07	-2.923702e-06	-4.564381e-09	-2.087801e+01	-2.996257e+02
5.300000e-07	-2.837297e-06	-4.484636e-09	-2.026099e+01	-2.950214e+02
5.400000e-07	-2.749964e-06	-4.402166e-09	-1.963735e+01	-2.903038e+02
5.500000e-07	-2.661712e-06	-4.333970e-09	-1.900715e+01	-2.854711e+02
5.600000e-07	-2.572377e-06	-4.268510e-09	-1.836921e+01	-2.805224e+02
5.700000e-07	-2.481899e-06	-4.196613e-09	-1.772311e+01	-2.754574e+02
5.800000e-07	-2.390434e-06	-4.107705e-09	-1.706997e+01	-2.702768e+02
5.900000e-07	-2.298189e-06	-4.021699e-09	-1.641125e+01	-2.649812e+02
6.000000e-07	-2.205236e-06	-3.943993e-09	-1.574748e+01	-2.595715e+02
6.100000e-07	-2.111458e-06	-3.864409e-09	-1.507782e+01	-2.540484e+02
6.200000e-07	-2.016902e-06	-3.776751e-09	-1.440260e+01	-2.484123e+02
6.300000e-07	-1.921703e-06	-3.683652e-09	-1.372278e+01	-2.426629e+02
6.400000e-07	-1.825852e-06	-3.591168e-09	-1.303832e+01	-2.367993e+02
6.500000e-07	-1.729313e-06	-3.502993e-09	-1.234893e+01	-2.308203e+02
6.600000e-07	-1.632014e-06	-3.418883e-09	-1.165413e+01	-2.247239e+02
6.700000e-07	-1.534019e-06	-3.325327e-09	-1.095435e+01	-2.185076e+02
6.800000e-07	-1.435378e-06	-3.221440e-09	-1.024996e+01	-2.121687e+02
6.900000e-07	-1.336139e-06	-3.114402e-09	-9.541300e+00	-2.057039e+02
7.000000e-07	-1.236471e-06	-3.014780e-09	-8.829574e+00	-1.991097e+02
7.100000e-07	-1.136459e-06	-2.917679e-09	-8.115393e+00	-1.923821e+02
7.200000e-07	-1.036124e-06	-2.814609e-09	-7.398910e+00	-1.855166e+02
7.300000e-07	-9.355202e-07	-2.706982e-09	-6.680502e+00	-1.785083e+02
7.400000e-07	-8.346687e-07	-2.595806e-09	-5.960326e+00	-1.713519e+02
7.500000e-07	-7.335569e-07	-2.483876e-09	-5.238292e+00	-1.640415e+02
7.600000e-07	-6.321679e-07	-2.373885e-09	-4.514278e+00	-1.565711e+02
7.700000e-07	-5.305277e-07	-2.261745e-09	-3.788471e+00	-1.489342e+02
7.800000e-07	-4.287280e-07	-2.141141e-09	-3.061525e+00	-1.411244e+02
7.900000e-07	-3.268162e-07	-2.015156e-09	-2.333778e+00	-1.331354e+02
8.000000e-07	-2.247344e-07	-1.887870e-09	-1.604817e+00	-1.249610e+02
8.100000e-07	-1.225299e-07	-1.762989e-09	-8.749795e-01	-1.165952e+02
8.200000e-07	-2.028427e-08	-1.636458e-09	-1.448489e-01	-1.080325e+02
8.300000e-07	8.201152e-08	-1.502731e-09	5.856401e-01	-9.926712e+01
8.400000e-07	1.843289e-07	-1.363211e-09	1.316283e+00	-9.029346e+01
8.500000e-07	2.866083e-07	-1.221399e-09	2.046655e+00	-8.110551e+01
8.600000e-07	3.887825e-07	-1.079208e-09	2.776276e+00	-7.169683e+01
8.700000e-07	4.908661e-07	-9.330784e-10	3.505249e+00	-6.206042e+01
8.800000e-07	5.928182e-07	-7.809657e-10	4.233285e+00	-5.218890e+01
8.900000e-07	6.945926e-07	-6.239348e-10	4.960050e+00	-4.207479e+01
9.000000e-07	7.960835e-07	-4.623848e-10	5.684792e+00	-3.171117e+01
9.100000e-07	8.972292e-07	-2.975934e-10	6.407068e+00	-2.109249e+01
9.200000e-07	9.980384e-07	-1.320775e-10	7.126941e+00	-1.021572e+01
9.300000e-07	1.098486e-06	3.592540e-11	7.844235e+00	9.185083e-01
9.400000e-07	1.198630e-06	2.094751e-10	8.559354e+00	1.230457e+01
9.500000e-07	1.298441e-06	3.862565e-10	9.272097e+00	2.393081e+01
9.600000e-07	1.397838e-06	5.648918e-10	9.981893e+00	3.577859e+01
9.700000e-07	1.496757e-06	7.456362e-10	1.068826e+01	4.782189e+01
9.800000e-07	1.594964e-06	9.297699e-10	1.138956e+01	6.002723e+01
9.900000e-07	1.692255e-06	1.117829e-09	1.208430e+01	7.235426e+01
1.000000e-06	1.788709e-06	1.306704e-09	1.277308e+01	8.475680e+01
1.010000e-06	1.884522e-06	1.494294e-09	1.345727e+01	9.718436e+01
1.020000e-06	1.979691e-06	1.680224e-09	1.413687e+01	1.095840e+02
1.030000e-06	2.074193e-06	1.865399e-09	1.481171e+01	1.219025e+02
1.040000e-06	2.167983e-06	2.050577e-09	1.548146e+01	1.340882e+02
1.050000e-06	2.261032e-06	2.232761e-09	1.614592e+01	1.460932e+02
1.060000e-06	2.353400e-06	2.412282e-09	1.680551e+01	1.578744e+02
1.070000e-06	2.445068e-06	2.586960e-09	1.746010e+01	1.693952e+02
1.080000e-06	2.535886e-06	2.756132e-09	1.810863e+01	1.806256e+02
1.090000e-06	2.625574e-06	2.922464e-09	1.874909e+01	1.915422e+02
1.100000e-06	2.714100e-06	3.086137e-09	1.938125e+01	2.021281e+02
1.110000e-06	2.801679e-06	3.242349e-09	2.000665e+01	2.123715e+02
1.120000e-06	2.888408e-06	3.392369e-09	2.062598e+01	2.222653e+02
1.130000e-06	2.974209e-06	3.536604e-09	2.123868e+01	2.318056e+02
1.140000e-06	3.059045e-06	3.676670e-09	2.184448e+01	2.409911e+02
1.150000e-06	3.142982e-06	3.810649e-09	2.244388e+01	2.498221e+02
1.160000e-06	3.225965e-06	3.937278e-09	2.303645e+01	2.583001e+02
1.170000e-06	3.307707e-06	4.059297e-09	2.362017e+01	2.664280e+02
1.180000e-06	3.388188e-06	4.177923e-09	2.419488e+01	2.742102e+02
1.190000e-06	3.467482e-06	4.290842e-09	2.476111e+01	2.816529e+02
1.200000e-06	3.545507e-06	4.395522e-09	2.531829e+01	2.887646e+02
1.210000e-06	3.622277e-06	4.497733e-09	2.586650e+01	2.955568e+02
1.220000e-06	3.697801e-06	4.596535e-09	2.640581e+01	3.020437e+02
1.230000e-06	3.771747e-06	4.689152e-09	2.693385e+01	3.082424e+02
1.240000e-06	3.844021e-06	4.774917e-09	2.744995e+01	3.141723e+02
1.250000e-06	3.914931e-06	4.859965e-09	2.795632e+01	3.198542e+02
1.260000e-06	3.984465e-06	4.944881e-09	2.845286e+01	3.253094e+02
1.270000e-06	4.052641e-06	5.027298e-09	2.893970e+01	3.305580e+02
1.280000e-06	4.119448e-06	5.105842e-09	2.941676e+01	3.356180e+02
1.290000e-06	4.184580e-06	5.180544e-09	2.988187e+01	3.405040e+02
1.300000e-06	4.248103e-06	5.250632e-09	3.033548e+01	3.452261e+02
1.310000e-06	4.310163e-06	5.316863e-09	3.077865e+01	3.497901e+02
1.320000e-06	4.370797e-06	5.382831e-09	3.121164e+01	3.541968e+02
1.330000e-06	4.430102e-06	5.447781e-09	3.163513e+01	3.584433e+02
1.340000e-06	4.487693e-06	5.509913e-09	3.204639e+01	3.625237e+02
1.350000e-06	4.543473e-06	5.568928e-09	3.244471e+01	3.664303e+02
1.360000e-06	4.597716e-06	5.624980e-09	3.283205e+01	3.701554e+02
1.370000e-06	4.650307e-06	5.676785e-09	3.320760e+01	3.736926e+02
1.380000e-06	4.700905e-06	5.724481e-09	3.356892e+01	3.770377e+02
1.390000e-06	4.749460e-06	5.770940e-09	3.391565e+01	3.801900e+02
1.400000e-06	4.796251e-06	5.815100e-09	3.424979e+01	3.831525e+02
1.410000e-06	4.841452e-06	5.856136e-09	3.457256e+01	3.859317e+02
1.420000e-06	4.885143e-06	5.894723e-09	3.488456e+01	3.885368e+02
1.430000e-06	4.927012e-06	5.929516e-09	3.518354e+01	3.909793e+02
1.440000e-06	4.967006e-06	5.961543e-09	3.546913e+01	3.932712e+02
1.450000e-06	5.005343e-06	5.991641e-09	3.574290e+01	3.954243e+02
1.460000e-06	5.042053e-06	6.020780e-09	3.600504e+01	3.974486e+02
1.470000e-06	5.077117e-06	6.049916e-09	3.625543e+01	3.993520e+02
1.480000e-06	5.110258e-06	6.077324e-09	3.649209e+01	4.011397e+02
1.490000e-06	5.141493e-06	6.102445e-09	3.671514e+01	4.028141e+02
1.500000e-06	5.171049e-06	6.123941e-09	3.692620e+01	4.043751e+02
1.510000e-06	5.198997e-06	6.141687e-09	3.712577e+01	4.058212e+02
1.520000e-06	5.224959e-06	6.159485e-09	3.731117e+01	4.071504e+02
1.530000e-06	5.248751e-06	6.178258e-09	3.748106e+01	4.083606e+02
1.540000e-06	5.270703e-06	6.196706e-09	3.763782e+01	4.094512e+02
1.550000e-06	5.290974e-06	6.213120e-09	3.778257e+01	4.104230e+02
1.560000e-06	5.309515e-06	6.226926e-09	3.791497e+01	4.112791e+02
1.570000e-06	5.326071e-06	6.237927e-09	3.803320e+01	4.120242e+02
1.580000e-06	5.340569e-06	6.246523e-09	3.813673e+01	4.126644e+02
1.590000e-06	5.353116e-06	6.254721e-09	3.822633e+01	4.132066e+02
1.600000e-06	5.363462e-06	6.263086e-09	3.830020e+01	4.136570e+02
1.610000e-06	5.371627e-06	6.270032e-09	3.835851e+01	4.140212e+02
1.620000e-06	5.377916e-06	6.275171e-09	3.840342e+01	4.143024e+02
1.630000e-06	5.382463e-06	6.280375e-09	3.843589e+01	4.145019e+02
1.640000e-06	5.385174e-06	6.284786e-09	3.845525e+01	4.146186e+02
1.650000e-06	5.385839e-06	6.289703e-09	3.846000e+01	4.146494e+02
1.660000e-06	5.384638e-06	6.289910e-09	3.845143e+01	4.145898e+02
1.670000e-06	5.381775e-06	6.282287e-09	3.843098e+01	4.144352e+02
1.680000e-06	5.377292e-06	6.278609e-09	3.839897e+01	4.141816e+02
1.690000e-06	5.370947e-06	6.275419e-09	3.835365e+01	4.138268e+02
1.700000e-06	5.362715e-06	6.272627e-09	3.829487e+01	4.133712e+02
1.710000e-06	5.352912e-06	6.270788e-09	3.822487e+01	4.128184e+02
1.720000e-06	5.341475e-06	6.269070e-09	3.814320e+01	4.121749e+02
1.730000e-06	5.328090e-06	6.279659e-09	3.804762e+01	4.114501e+02
1.740000e-06	5.312662e-06	6.201100e-09	3.793744e+01	4.106549e+02
1.750000e-06	5.295034e-06	6.150101e-09	3.781157e+01	4.098012e+02
1.760000e-06	5.274759e-06	6.187627e-09	3.766678e+01	4.088999e+02
1.770000e-06	5.251979e-06	6.176736e-09	3.750411e+01	4.079601e+02
1.780000e-06	5.227693e-06	6.280066e-09	3.733069e+01	4.069875e+02
1.790000e-06	5.202752e-06	6.227479e-09	3.715258e+01	4.059837e+02
1.800000e-06	5.176645e-06	6.011149e-09	3.696616e+01	4.049460e+02
1.810000e-06	5.148351e-06	6.176132e-09	3.676411e+01	4.038675e+02
1.820000e-06	5.118064e-06	6.124829e-09	3.654783e+01	4.027376e+02
1.830000e-06	5.086155e-06	6.002149e-09	3.631997e+01	4.015431e+02
1.840000e-06	5.052318e-06	6.226161e-09	3.607834e+01	4.002698e+02
1.850000e-06	5.016811e-06	6.076250e-09	3.582479e+01	3.989036e+02
1.860000e-06	4.979632e-06	6.004803e-09	3.555930e+01	3.974324e+02
1.870000e-06	4.940483e-06	6.171989e-09	3.527974e+01	3.958468e+02
1.880000e-06	4.899688e-06	5.987258e-09	3.498842e+01	3.941412e+02
1.890000e-06	4.857161e-06	5.992835e-09	3.468474e+01	3.923141e+02
1.900000e-06	4.812969e-06	5.967963e-09	3.436917e+01	3.903676e+02
1.910000e-06	4.767078e-06	5.852406e-09	3.404146e+01	3.883076e+02
1.920000e-06	4.719058e-06	6.006965e-09	3.369855e+01	3.861418e+02
1.930000e-06	4.669295e-06	5.838126e-09	3.334320e+01	3.838796e+02
1.940000e-06	4.617933e-06	5.810363e-09	3.297642e+01	3.815300e+02
1.950000e-06	4.564552e-06	5.873416e-09	3.259524e+01	3.791012e+02
1.960000e-06	4.509139e-06	5.696178e-09	3.219953e+01	3.765991e+02
1.970000e-06	4.451963e-06	5.704940e-09	3.179124e+01	3.740272e+02
1.980000e-06	4.393357e-06	5.676185e-09	3.137274e+01	3.713864e+02
1.990000e-06	4.333342e-06	5.680966e-09	3.094417e+01	3.686749e+02
2.000000e-06	4.271673e-06	5.610101e-09	3.050380e+01	3.658889e+02
2.010000e-06	4.208367e-06	5.494542e-09	3.005173e+01	3.630234e+02
2.020000e-06	4.143550e-06	5.566712e-09	2.958888e+01	3.600727e+02
2.030000e-06	4.077317e-06	5.448041e-09	2.911591e+01	3.570314e+02
2.040000e-06	4.009704e-06	5.398100e-09	2.863309e+01	3.538952e+02
2.050000e-06	3.940569e-06	5.390331e-09	2.813940e+01	3.506609e+02
2.060000e-06	3.869837e-06	5.318856e-09	2.763431e+01	3.473269e+02
2.070000e-06	3.797711e-06	5.281514e-09	2.711926e+01	3.438929e+02
2.080000e-06	3.724327e-06	5.168684e-09	2.659523e+01	3.403599e+02
2.090000e-06	3.649622e-06	5.170597e-09	2.606176e+01	3.367294e+02
2.100000e-06	3.573483e-06	5.112220e-09	2.551806e+01	3.330032e+02
2.110000e-06	3.495819e-06	5.013409e-09	2.496346e+01	3.291825e+02
2.120000e-06	3.416709e-06	4.967182e-09	2.439855e+01	3.252680e+02
2.130000e-06	3.336408e-06	4.913113e-09	2.382512e+01	3.212593e+02
2.140000e-06	3.255005e-06	4.876243e-09	2.324383e+01	3.171548e+02
2.150000e-06	3.172487e-06	4.790177e-09	2.265456e+01	3.129521e+02
2.160000e-06	3.088905e-06	4.736418e-09	2.205771e+01	3.086481e+02
2.170000e-06	3.004326e-06	4.659789e-09	2.145374e+01	3.042393e+02
2.180000e-06	2.918520e-06	4.586358e-09	2.084100e+01	2.997222e+02
2.190000e-06	2.831342e-06	4.530052e-09	2.021847e+01	2.950937e+02
2.200000e-06	2.743172e-06	4.456565e-09	1.958885e+01	2.903514e+02
2.210000e-06	2.654172e-06	4.388281e-09	1.895331e+01	2.854937e+02
2.220000e-06	2.564210e-06	4.297377e-09	1.831089e+01	2.805199e+02
2.230000e-06	2.473304e-06	4.223936e-09	1.766174e+01	2.754300e+02
2.240000e-06	2.381652e-06	4.145958e-09	1.700725e+01	2.702244e+02
2.250000e-06	2.289314e-06	4.071519e-09	1.634787e+01	2.649042e+02
2.260000e-06	2.196219e-06	3.991194e-09	1.568309e+01	2.594700e+02
2.270000e-06	2.102176e-06	3.897440e-09	1.501153e+01	2.539226e+02
2.280000e-06	2.007049e-06	3.804862e-09	1.433223e+01	2.482620e+02
2.290000e-06	1.911063e-06	3.721479e-09	1.364681e+01	2.424881e+02
2.300000e-06	1.814483e-06	3.641323e-09	1.295713e+01	2.365998e+02
2.310000e-06	1.717500e-06	3.545262e-09	1.226458e+01	2.305956e+02
2.320000e-06	1.619975e-06	3.447954e-09	1.156816e+01	2.244736e+02
2.330000e-06	1.521774e-06	3.351303e-09	1.086691e+01	2.182311e+02
2.340000e-06	1.423077e-06	3.259587e-09	1.016212e+01	2.118654e+02
2.350000e-06	1.324004e-06	3.160089e-09	9.454642e+00	2.053730e+02
2.360000e-06	1.224614e-06	3.059874e-09	8.744908e+00	1.987504e+02
2.370000e-06	1.124945e-06	2.957695e-09	8.033171e+00	1.919935e+02
2.380000e-06	1.024971e-06	2.846190e-09	7.319267e+00	1.850977e+02
2.390000e-06	9.246421e-07	2.739327e-09	6.602822e+00	1.780580e+02
2.400000e-06	8.239213e-07	2.637048e-09	5.883580e+00	1.708689e+02
2.410000e-06	7.228361e-07	2.530464e-09	5.161736e+00	1.635246e+02
2.420000e-06	6.215380e-07	2.409832e-09	4.438371e+00	1.560189e+02
2.430000e-06	5.200765e-07	2.283791e-09	3.713839e+00	1.483454e+02
2.440000e-06	4.183855e-07	2.163858e-09	2.987669e+00	1.404976e+02
2.450000e-06	3.164620e-07	2.047265e-09	2.259839e+00	1.324692e+02
2.460000e-06	2.143499e-07	1.921670e-09	1.530662e+00	1.242541e+02
2.470000e-06	1.121021e-07	1.789802e-09	8.005150e-01	1.158464e+02
2.480000e-06	9.806825e-09	1.655606e-09	7.003003e-02	1.072406e+02
2.490000e-06	-9.249026e-08	1.521151e-09	-6.604682e-01	9.843094e+01
2.500000e-06	-1.947716e-07	1.388766e-09	-1.390854e+00	8.941173e+01
2.510000e-06	-2.969774e-07	1.254050e-09	-2.120700e+00	8.017689e+01
2.520000e-06	-3.990714e-07	1.112983e-09	-2.849749e+00	7.071986e+01
2.530000e-06	-5.009927e-07	9.610131e-10	-3.577563e+00	6.103355e+01
2.540000e-06	-6.026765e-07	8.043216e-10	-4.303682e+00	5.111052e+01
2.550000e-06	-7.040770e-07	6.499905e-10	-5.027778e+00	4.094334e+01
2.560000e-06	-8.051258e-07	4.955253e-10	-5.749362e+00	3.052531e+01
2.570000e-06	-9.057983e-07	3.344560e-10	-6.468259e+00	1.985132e+01
2.580000e-06	-1.006107e-06	1.678589e-10	-7.184556e+00	8.919023e+00
2.590000e-06	-1.106058e-06	-1.278991e-12	-7.898301e+00	-2.269981e+00
2.600000e-06	-1.205650e-06	-1.743525e-10	-8.609486e+00	-1.370887e+01
2.610000e-06	-1.304878e-06	-3.499158e-10	-9.318064e+00	-2.538455e+01
2.620000e-06	-1.403665e-06	-5.312509e-10	-1.002350e+01	-3.727683e+01
2.630000e-06	-1.501998e-06	-7.207097e-10	-1.072569e+01	-4.935807e+01
2.640000e-06	-1.599829e-06	-9.142888e-10	-1.142429e+01	-6.159325e+01
2.650000e-06	-1.697041e-06	-1.106225e-09	-1.211848e+01	-7.394067e+01
2.660000e-06	-1.793689e-06	-1.294281e-09	-1.280864e+01	-8.635309e+01
2.670000e-06	-1.889842e-06	-1.482365e-09	-1.349526e+01	-9.877932e+01
2.680000e-06	-1.985477e-06	-1.672621e-09	-1.417819e+01	-1.111662e+02
2.690000e-06	-2.080404e-06	-1.864570e-09	-1.485606e+01	-1.234606e+02
2.700000e-06	-2.174333e-06	-2.054315e-09	-1.552680e+01	-1.356117e+02
2.710000e-06	-2.267243e-06	-2.236409e-09	-1.619027e+01	-1.475722e+02
2.720000e-06	-2.359274e-06	-2.413941e-09	-1.684746e+01	-1.593007e+02
2.730000e-06	-2.450510e-06	-2.590465e-09	-1.749896e+01	-1.707617e+02
2.740000e-06	-2.540870e-06	-2.762119e-09	-1.814422e+01	-1.819268e+02
2.750000e-06	-2.630217e-06	-2.926416e-09	-1.878225e+01	-1.927739e+02
2.760000e-06	-2.718700e-06	-3.084214e-09	-1.941410e+01	-2.032873e+02
2.770000e-06	-2.806464e-06	-3.238711e-09	-2.004081e+01	-2.134564e+02
2.780000e-06	-2.893359e-06	-3.390217e-09	-2.066133e+01	-2.232749e+02
2.790000e-06	-2.979018e-06	-3.535964e-09	-2.127302e+01	-2.327394e+02
2.800000e-06	-3.063436e-06	-3.675894e-09	-2.187584e+01	-2.418490e+02
2.810000e-06	-3.146858e-06	-3.810216e-09	-2.247155e+01	-2.506043e+02
2.820000e-06	-3.229270e-06	-3.939110e-09	-2.306005e+01	-2.590071e+02
2.830000e-06	-3.310592e-06	-4.064197e-09	-2.364077e+01	-2.670607e+02
2.840000e-06	-3.390843e-06	-4.186524e-09	-2.421384e+01	-2.747697e+02
2.850000e-06	-3.469965e-06	-4.302617e-09	-2.477884e+01	-2.821408e+02
2.860000e-06	-3.547660e-06	-4.410116e-09	-2.533366e+01	-2.891831e+02
2.870000e-06	-3.623856e-06	-4.510470e-09	-2.587777e+01	-2.959088e+02
2.880000e-06	-3.698634e-06	-4.607737e-09	-2.641176e+01	-3.023325e+02
2.890000e-06	-3.771966e-06	-4.701896e-09	-2.693542e+01	-3.084721e+02
2.900000e-06	-3.844035e-06	-4.792013e-09	-2.745006e+01	-3.143472e+02
2.910000e-06	-3.914829e-06	-4.880051e-09	-2.795559e+01	-3.199789e+02
2.920000e-06	-3.983971e-06	-4.964585e-09	-2.844934e+01	-3.253883e+02
2.930000e-06	-4.051520e-06	-5.045914e-09	-2.893170e+01	-3.305953e+02
2.940000e-06	-4.117723e-06	-5.122646e-09	-2.940445e+01	-3.356171e+02
