# Temperatura_=_83.31
# Concentracion g/m^3_=_15000.0
# C_Vs_to_Am_M_A/Vsm_=_65563218390.804596
# pendiente_HvsI_1/m_=_3716.3
# ordenada_HvsI_A/m_=_1297.0
# frecuencia_Hz_=_301580.36702184187

Tiempo_(s)	Campo_(V.s)	Magnetizacion_(V.s)	Campo_(kA/m)	Magnetizacion_(A/m)
0.000000e+00	-5.356808e-06	-8.119369e-09	-3.834827e+01	-5.305545e+02
1.000000e-08	-5.355612e-06	-8.116423e-09	-3.833970e+01	-5.304259e+02
2.000000e-08	-5.352497e-06	-8.111945e-09	-3.831740e+01	-5.301678e+02
3.000000e-08	-5.347632e-06	-8.105301e-09	-3.828257e+01	-5.297786e+02
4.000000e-08	-5.341147e-06	-8.097872e-09	-3.823615e+01	-5.292590e+02
5.000000e-08	-5.333063e-06	-8.088360e-09	-3.817828e+01	-5.286126e+02
6.000000e-08	-5.323145e-06	-8.076976e-09	-3.810728e+01	-5.278460e+02
7.000000e-08	-5.311185e-06	-8.062955e-09	-3.802166e+01	-5.269685e+02
8.000000e-08	-5.297363e-06	-8.048945e-09	-3.792271e+01	-5.259913e+02
9.000000e-08	-5.281415e-06	-8.047249e-09	-3.780854e+01	-5.249265e+02
1.000000e-07	-5.263199e-06	-8.052108e-09	-3.767814e+01	-5.237855e+02
1.100000e-07	-5.243026e-06	-8.026545e-09	-3.753372e+01	-5.225779e+02
1.200000e-07	-5.220943e-06	-7.982285e-09	-3.737563e+01	-5.213098e+02
1.300000e-07	-5.197168e-06	-7.931152e-09	-3.720543e+01	-5.199832e+02
1.400000e-07	-5.171953e-06	-7.884411e-09	-3.702492e+01	-5.185953e+02
1.500000e-07	-5.145106e-06	-7.898048e-09	-3.683273e+01	-5.171386e+02
1.600000e-07	-5.116602e-06	-7.894179e-09	-3.662868e+01	-5.156013e+02
1.700000e-07	-5.086671e-06	-7.857280e-09	-3.641441e+01	-5.139686e+02
1.800000e-07	-5.055178e-06	-7.869078e-09	-3.618895e+01	-5.122242e+02
1.900000e-07	-5.021586e-06	-7.819777e-09	-3.594848e+01	-5.103519e+02
2.000000e-07	-4.986098e-06	-7.720222e-09	-3.569443e+01	-5.083372e+02
2.100000e-07	-4.949106e-06	-7.682941e-09	-3.542961e+01	-5.061688e+02
2.200000e-07	-4.910390e-06	-7.645461e-09	-3.515245e+01	-5.038398e+02
2.300000e-07	-4.869889e-06	-7.622008e-09	-3.486251e+01	-5.013481e+02
2.400000e-07	-4.827384e-06	-7.618073e-09	-3.455823e+01	-4.986964e+02
2.500000e-07	-4.783032e-06	-7.566132e-09	-3.424072e+01	-4.958917e+02
2.600000e-07	-4.737035e-06	-7.510536e-09	-3.391144e+01	-4.929442e+02
2.700000e-07	-4.689145e-06	-7.455201e-09	-3.356860e+01	-4.898657e+02
2.800000e-07	-4.639210e-06	-7.416731e-09	-3.321113e+01	-4.866686e+02
2.900000e-07	-4.587172e-06	-7.395057e-09	-3.283860e+01	-4.833638e+02
3.000000e-07	-4.533243e-06	-7.311449e-09	-3.245253e+01	-4.799600e+02
3.100000e-07	-4.477681e-06	-7.236206e-09	-3.205478e+01	-4.764626e+02
3.200000e-07	-4.420431e-06	-7.209688e-09	-3.164494e+01	-4.728736e+02
3.300000e-07	-4.361415e-06	-7.157627e-09	-3.122245e+01	-4.691913e+02
3.400000e-07	-4.300874e-06	-7.093195e-09	-3.078905e+01	-4.654112e+02
3.500000e-07	-4.238926e-06	-7.035798e-09	-3.034558e+01	-4.615270e+02
3.600000e-07	-4.175619e-06	-6.966310e-09	-2.989238e+01	-4.575313e+02
3.700000e-07	-4.110914e-06	-6.895233e-09	-2.942917e+01	-4.534170e+02
3.800000e-07	-4.044486e-06	-6.847239e-09	-2.895363e+01	-4.491784e+02
3.900000e-07	-3.976409e-06	-6.795946e-09	-2.846627e+01	-4.448116e+02
4.000000e-07	-3.906956e-06	-6.711154e-09	-2.796908e+01	-4.403152e+02
4.100000e-07	-3.836247e-06	-6.621154e-09	-2.746289e+01	-4.356899e+02
4.200000e-07	-3.764397e-06	-6.545382e-09	-2.694853e+01	-4.309387e+02
4.300000e-07	-3.691273e-06	-6.484159e-09	-2.642505e+01	-4.260659e+02
4.400000e-07	-3.616588e-06	-6.425589e-09	-2.589039e+01	-4.210764e+02
4.500000e-07	-3.540316e-06	-6.359403e-09	-2.534438e+01	-4.159747e+02
4.600000e-07	-3.462604e-06	-6.276900e-09	-2.478806e+01	-4.107645e+02
4.700000e-07	-3.383472e-06	-6.175603e-09	-2.422157e+01	-4.054479e+02
4.800000e-07	-3.303014e-06	-6.084654e-09	-2.364559e+01	-4.000250e+02
4.900000e-07	-3.221393e-06	-6.011759e-09	-2.306128e+01	-3.944938e+02
5.000000e-07	-3.138609e-06	-5.930043e-09	-2.246864e+01	-3.888509e+02
5.100000e-07	-3.054782e-06	-5.832797e-09	-2.186854e+01	-3.830912e+02
5.200000e-07	-2.970103e-06	-5.735109e-09	-2.126234e+01	-3.772092e+02
5.300000e-07	-2.884494e-06	-5.643648e-09	-2.064949e+01	-3.711989e+02
5.400000e-07	-2.797861e-06	-5.555487e-09	-2.002930e+01	-3.650550e+02
5.500000e-07	-2.710344e-06	-5.469975e-09	-1.940279e+01	-3.587727e+02
5.600000e-07	-2.622010e-06	-5.373015e-09	-1.877042e+01	-3.523484e+02
5.700000e-07	-2.532590e-06	-5.258495e-09	-1.813028e+01	-3.457799e+02
5.800000e-07	-2.441944e-06	-5.147416e-09	-1.748136e+01	-3.390655e+02
5.900000e-07	-2.350285e-06	-5.050205e-09	-1.682519e+01	-3.322048e+02
6.000000e-07	-2.257906e-06	-4.951722e-09	-1.616388e+01	-3.251977e+02
6.100000e-07	-2.164804e-06	-4.838835e-09	-1.549737e+01	-3.180441e+02
6.200000e-07	-2.070917e-06	-4.722552e-09	-1.482526e+01	-3.107440e+02
6.300000e-07	-1.976305e-06	-4.609343e-09	-1.414795e+01	-3.032969e+02
6.400000e-07	-1.881031e-06	-4.495470e-09	-1.346591e+01	-2.957020e+02
6.500000e-07	-1.785164e-06	-4.384039e-09	-1.277962e+01	-2.879578e+02
6.600000e-07	-1.688697e-06	-4.270019e-09	-1.208903e+01	-2.800626e+02
6.700000e-07	-1.591556e-06	-4.141670e-09	-1.139361e+01	-2.720140e+02
6.800000e-07	-1.493643e-06	-4.001505e-09	-1.069268e+01	-2.638096e+02
6.900000e-07	-1.395004e-06	-3.867017e-09	-9.986543e+00	-2.554465e+02
7.000000e-07	-1.295843e-06	-3.742578e-09	-9.276671e+00	-2.469217e+02
7.100000e-07	-1.196274e-06	-3.615073e-09	-8.563874e+00	-2.382318e+02
7.200000e-07	-1.096318e-06	-3.477933e-09	-7.848307e+00	-2.293728e+02
7.300000e-07	-9.960863e-07	-3.335112e-09	-7.130772e+00	-2.203403e+02
7.400000e-07	-8.956804e-07	-3.193061e-09	-6.411988e+00	-2.111291e+02
7.500000e-07	-7.950161e-07	-3.054639e-09	-5.691353e+00	-2.017331e+02
7.600000e-07	-6.940249e-07	-2.915435e-09	-4.968379e+00	-1.921458e+02
7.700000e-07	-5.928095e-07	-2.766276e-09	-4.243798e+00	-1.823597e+02
7.800000e-07	-4.913721e-07	-2.604059e-09	-3.517630e+00	-1.723673e+02
7.900000e-07	-3.897149e-07	-2.438017e-09	-2.789887e+00	-1.621607e+02
8.000000e-07	-2.878931e-07	-2.276886e-09	-2.060966e+00	-1.517322e+02
8.100000e-07	-1.859381e-07	-2.117930e-09	-1.331091e+00	-1.410745e+02
8.200000e-07	-8.394531e-08	-1.955112e-09	-6.009468e-01	-1.301808e+02
8.300000e-07	1.805199e-08	-1.784659e-09	1.292304e-01	-1.190447e+02
8.400000e-07	1.201072e-07	-1.608205e-09	8.598219e-01	-1.076599e+02
8.500000e-07	2.221325e-07	-1.429492e-09	1.590200e+00	-9.602030e+01
8.600000e-07	3.240890e-07	-1.250246e-09	2.320085e+00	-8.411952e+01
8.700000e-07	4.259747e-07	-1.067937e-09	3.049463e+00	-7.195041e+01
8.800000e-07	5.276959e-07	-8.771705e-10	3.777664e+00	-5.950509e+01
8.900000e-07	6.292903e-07	-6.804723e-10	4.504957e+00	-4.677500e+01
9.000000e-07	7.306914e-07	-4.825808e-10	5.230866e+00	-3.375134e+01
9.100000e-07	8.317489e-07	-2.834219e-10	5.954316e+00	-2.042586e+01
9.200000e-07	9.324919e-07	-8.052456e-11	6.675514e+00	-6.792101e+00
9.300000e-07	1.032968e-06	1.271749e-10	7.394800e+00	7.153042e+00
9.400000e-07	1.133174e-06	3.431874e-10	8.112154e+00	2.140758e+01
9.500000e-07	1.233116e-06	5.666708e-10	8.827618e+00	3.596261e+01
9.600000e-07	1.332664e-06	7.916725e-10	9.540264e+00	5.080066e+01
9.700000e-07	1.431607e-06	1.018498e-09	1.024857e+01	6.589442e+01
9.800000e-07	1.529879e-06	1.251389e-09	1.095208e+01	8.120609e+01
9.900000e-07	1.627393e-06	1.490937e-09	1.165016e+01	9.668737e+01
1.000000e-06	1.724116e-06	1.733340e-09	1.234258e+01	1.122804e+02
1.010000e-06	1.820166e-06	1.973323e-09	1.303019e+01	1.279194e+02
1.020000e-06	1.915533e-06	2.210613e-09	1.371290e+01	1.435331e+02
1.030000e-06	2.010237e-06	2.444741e-09	1.439087e+01	1.590478e+02
1.040000e-06	2.104287e-06	2.675342e-09	1.506415e+01	1.743906e+02
1.050000e-06	2.197586e-06	2.904078e-09	1.573206e+01	1.894927e+02
1.060000e-06	2.290178e-06	3.128947e-09	1.639490e+01	2.042924e+02
1.070000e-06	2.382138e-06	3.348886e-09	1.705323e+01	2.187376e+02
1.080000e-06	2.473334e-06	3.559881e-09	1.770608e+01	2.327874e+02
1.090000e-06	2.563448e-06	3.764017e-09	1.835118e+01	2.464127e+02
1.100000e-06	2.652385e-06	3.964343e-09	1.898787e+01	2.595961e+02
1.110000e-06	2.740351e-06	4.159420e-09	1.961759e+01	2.723307e+02
1.120000e-06	2.827458e-06	4.345453e-09	2.024118e+01	2.846184e+02
1.130000e-06	2.913705e-06	4.522876e-09	2.085860e+01	2.964673e+02
1.140000e-06	2.999004e-06	4.695182e-09	2.146924e+01	3.078894e+02
1.150000e-06	3.083335e-06	4.864074e-09	2.207295e+01	3.188984e+02
1.160000e-06	3.166727e-06	5.029074e-09	2.266993e+01	3.295072e+02
1.170000e-06	3.248991e-06	5.186982e-09	2.325884e+01	3.397271e+02
1.180000e-06	3.329984e-06	5.336349e-09	2.383866e+01	3.495665e+02
1.190000e-06	3.409764e-06	5.478719e-09	2.440979e+01	3.590312e+02
1.200000e-06	3.488338e-06	5.615959e-09	2.497228e+01	3.681249e+02
1.210000e-06	3.565731e-06	5.748684e-09	2.552632e+01	3.768501e+02
1.220000e-06	3.641910e-06	5.877622e-09	2.607167e+01	3.852098e+02
1.230000e-06	3.716607e-06	5.999183e-09	2.660641e+01	3.932085e+02
1.240000e-06	3.789675e-06	6.111926e-09	2.712949e+01	4.008533e+02
1.250000e-06	3.861276e-06	6.218909e-09	2.764206e+01	4.081549e+02
1.260000e-06	3.931538e-06	6.325051e-09	2.814506e+01	4.151276e+02
1.270000e-06	4.000470e-06	6.428539e-09	2.863853e+01	4.217892e+02
1.280000e-06	4.068073e-06	6.525828e-09	2.912248e+01	4.281600e+02
1.290000e-06	4.134027e-06	6.617470e-09	2.959463e+01	4.342615e+02
1.300000e-06	4.198278e-06	6.705485e-09	3.005459e+01	4.401153e+02
1.310000e-06	4.261142e-06	6.791176e-09	3.050462e+01	4.457415e+02
1.320000e-06	4.322619e-06	6.874013e-09	3.094472e+01	4.511575e+02
1.330000e-06	4.382707e-06	6.953164e-09	3.137488e+01	4.563769e+02
1.340000e-06	4.441235e-06	7.028011e-09	3.179387e+01	4.614093e+02
1.350000e-06	4.497951e-06	7.099153e-09	3.219989e+01	4.662602e+02
1.360000e-06	4.553019e-06	7.168386e-09	3.259411e+01	4.709313e+02
1.370000e-06	4.606490e-06	7.236974e-09	3.297690e+01	4.754217e+02
1.380000e-06	4.658121e-06	7.303184e-09	3.334651e+01	4.797284e+02
1.390000e-06	4.707702e-06	7.365822e-09	3.370145e+01	4.838482e+02
1.400000e-06	4.755395e-06	7.425148e-09	3.404287e+01	4.877780e+02
1.410000e-06	4.801490e-06	7.482277e-09	3.437286e+01	4.915159e+02
1.420000e-06	4.846060e-06	7.535922e-09	3.469192e+01	4.950619e+02
1.430000e-06	4.888984e-06	7.585721e-09	3.499921e+01	4.984175e+02
1.440000e-06	4.930031e-06	7.632386e-09	3.529306e+01	5.015861e+02
1.450000e-06	4.969310e-06	7.675442e-09	3.557424e+01	5.045722e+02
1.460000e-06	5.006976e-06	7.714938e-09	3.584389e+01	5.073809e+02
1.470000e-06	5.043024e-06	7.752247e-09	3.610195e+01	5.100174e+02
1.480000e-06	5.077238e-06	7.789461e-09	3.634688e+01	5.124862e+02
1.490000e-06	5.109489e-06	7.824939e-09	3.657776e+01	5.147911e+02
1.500000e-06	5.139999e-06	7.857007e-09	3.679618e+01	5.169350e+02
1.510000e-06	5.168911e-06	7.885062e-09	3.700315e+01	5.189199e+02
1.520000e-06	5.196083e-06	7.910954e-09	3.719766e+01	5.207473e+02
1.530000e-06	5.221159e-06	7.935233e-09	3.737718e+01	5.224189e+02
1.540000e-06	5.244212e-06	7.955734e-09	3.754221e+01	5.239368e+02
1.550000e-06	5.265544e-06	7.973931e-09	3.769492e+01	5.253038e+02
1.560000e-06	5.285192e-06	7.991497e-09	3.783558e+01	5.265241e+02
1.570000e-06	5.302903e-06	8.008542e-09	3.796237e+01	5.276025e+02
1.580000e-06	5.318559e-06	8.024037e-09	3.807445e+01	5.285448e+02
1.590000e-06	5.332294e-06	8.038334e-09	3.817277e+01	5.293569e+02
1.600000e-06	5.343968e-06	8.051833e-09	3.825634e+01	5.300445e+02
1.610000e-06	5.353455e-06	8.061760e-09	3.832426e+01	5.306120e+02
1.620000e-06	5.360950e-06	8.067881e-09	3.837791e+01	5.310625e+02
1.630000e-06	5.366638e-06	8.072754e-09	3.841864e+01	5.313970e+02
1.640000e-06	5.370513e-06	8.076499e-09	3.844637e+01	5.316146e+02
1.650000e-06	5.372416e-06	8.078648e-09	3.846000e+01	5.317128e+02
1.660000e-06	5.372342e-06	8.078121e-09	3.845947e+01	5.316880e+02
1.670000e-06	5.370511e-06	8.074993e-09	3.844636e+01	5.315363e+02
1.680000e-06	5.367047e-06	8.071461e-09	3.842156e+01	5.312548e+02
1.690000e-06	5.361801e-06	8.066843e-09	3.838401e+01	5.308422e+02
1.700000e-06	5.354650e-06	8.061405e-09	3.833282e+01	5.302996e+02
1.710000e-06	5.345848e-06	8.055081e-09	3.826980e+01	5.296311e+02
1.720000e-06	5.335538e-06	8.047304e-09	3.819599e+01	5.288439e+02
1.730000e-06	5.323477e-06	8.038396e-09	3.810965e+01	5.279476e+02
1.740000e-06	5.309362e-06	8.014245e-09	3.800861e+01	5.269538e+02
1.750000e-06	5.293138e-06	7.965010e-09	3.789246e+01	5.258746e+02
1.760000e-06	5.274563e-06	7.945219e-09	3.775949e+01	5.247210e+02
1.770000e-06	5.253338e-06	7.947526e-09	3.760754e+01	5.235022e+02
1.780000e-06	5.229985e-06	7.954874e-09	3.744037e+01	5.222236e+02
1.790000e-06	5.205525e-06	7.957493e-09	3.726526e+01	5.208864e+02
1.800000e-06	5.180328e-06	7.885027e-09	3.708488e+01	5.194868e+02
1.810000e-06	5.153540e-06	7.846910e-09	3.689311e+01	5.180166e+02
1.820000e-06	5.124531e-06	7.861259e-09	3.668544e+01	5.164634e+02
1.830000e-06	5.093768e-06	7.802774e-09	3.646521e+01	5.148119e+02
1.840000e-06	5.061268e-06	7.803675e-09	3.623255e+01	5.130458e+02
1.850000e-06	5.026837e-06	7.845849e-09	3.598607e+01	5.111490e+02
1.860000e-06	4.990822e-06	7.803615e-09	3.572825e+01	5.091075e+02
1.870000e-06	4.952966e-06	7.784622e-09	3.545724e+01	5.069107e+02
1.880000e-06	4.913268e-06	7.714203e-09	3.517306e+01	5.045526e+02
1.890000e-06	4.871921e-06	7.608925e-09	3.487706e+01	5.020320e+02
1.900000e-06	4.828758e-06	7.607223e-09	3.456806e+01	4.993523e+02
1.910000e-06	4.784060e-06	7.573720e-09	3.424808e+01	4.965213e+02
1.920000e-06	4.737503e-06	7.549664e-09	3.391479e+01	4.935494e+02
1.930000e-06	4.688901e-06	7.512734e-09	3.356686e+01	4.904488e+02
1.940000e-06	4.638751e-06	7.403188e-09	3.320785e+01	4.872316e+02
1.950000e-06	4.586881e-06	7.394546e-09	3.283652e+01	4.839085e+02
1.960000e-06	4.532952e-06	7.351109e-09	3.245045e+01	4.804877e+02
1.970000e-06	4.477065e-06	7.269804e-09	3.205037e+01	4.769739e+02
1.980000e-06	4.419495e-06	7.233867e-09	3.163824e+01	4.733684e+02
1.990000e-06	4.360525e-06	7.150628e-09	3.121608e+01	4.696689e+02
2.000000e-06	4.300040e-06	7.112649e-09	3.078308e+01	4.658707e+02
2.010000e-06	4.237879e-06	7.068418e-09	3.033809e+01	4.619671e+02
2.020000e-06	4.174147e-06	7.000917e-09	2.988184e+01	4.579507e+02
2.030000e-06	4.108928e-06	6.940059e-09	2.941495e+01	4.538145e+02
2.040000e-06	4.042265e-06	6.845689e-09	2.893773e+01	4.495532e+02
2.050000e-06	3.974240e-06	6.792418e-09	2.845075e+01	4.451632e+02
2.060000e-06	3.904772e-06	6.727253e-09	2.795344e+01	4.406436e+02
2.070000e-06	3.833703e-06	6.665919e-09	2.744467e+01	4.359955e+02
2.080000e-06	3.761234e-06	6.603276e-09	2.692588e+01	4.312222e+02
2.090000e-06	3.687543e-06	6.496227e-09	2.639834e+01	4.263281e+02
2.100000e-06	3.612502e-06	6.411973e-09	2.586114e+01	4.213182e+02
2.110000e-06	3.536010e-06	6.335398e-09	2.531355e+01	4.161969e+02
2.120000e-06	3.457925e-06	6.281734e-09	2.475456e+01	4.109675e+02
2.130000e-06	3.378440e-06	6.209529e-09	2.418554e+01	4.056319e+02
2.140000e-06	3.297905e-06	6.115380e-09	2.360901e+01	4.001898e+02
2.150000e-06	3.216289e-06	6.032261e-09	2.302473e+01	3.946389e+02
2.160000e-06	3.133587e-06	5.932035e-09	2.243269e+01	3.889755e+02
2.170000e-06	3.049892e-06	5.846626e-09	2.183354e+01	3.831944e+02
2.180000e-06	2.965100e-06	5.767657e-09	2.122653e+01	3.772898e+02
2.190000e-06	2.878964e-06	5.678605e-09	2.060990e+01	3.712560e+02
2.200000e-06	2.791586e-06	5.568592e-09	1.998438e+01	3.650876e+02
2.210000e-06	2.703263e-06	5.468132e-09	1.935209e+01	3.587801e+02
2.220000e-06	2.614083e-06	5.391699e-09	1.871367e+01	3.523302e+02
2.230000e-06	2.523977e-06	5.299288e-09	1.806862e+01	3.457357e+02
2.240000e-06	2.432965e-06	5.191187e-09	1.741709e+01	3.389952e+02
2.250000e-06	2.341234e-06	5.079421e-09	1.676040e+01	3.321083e+02
2.260000e-06	2.248840e-06	4.971096e-09	1.609897e+01	3.250749e+02
2.270000e-06	2.155645e-06	4.856460e-09	1.543181e+01	3.178951e+02
2.280000e-06	2.061410e-06	4.746587e-09	1.475720e+01	3.105687e+02
2.290000e-06	1.966123e-06	4.641020e-09	1.407506e+01	3.030953e+02
2.300000e-06	1.870090e-06	4.520601e-09	1.338758e+01	2.954738e+02
2.310000e-06	1.773577e-06	4.391045e-09	1.269667e+01	2.877028e+02
2.320000e-06	1.676607e-06	4.271664e-09	1.200248e+01	2.797803e+02
2.330000e-06	1.579070e-06	4.164805e-09	1.130423e+01	2.717040e+02
2.340000e-06	1.481022e-06	4.048327e-09	1.060233e+01	2.634714e+02
2.350000e-06	1.382514e-06	3.916238e-09	9.897128e+00	2.550796e+02
2.360000e-06	1.283574e-06	3.776796e-09	9.188837e+00	2.465256e+02
2.370000e-06	1.184293e-06	3.638846e-09	8.478103e+00	2.378057e+02
2.380000e-06	1.084692e-06	3.504985e-09	7.765080e+00	2.289160e+02
2.390000e-06	9.848084e-07	3.374124e-09	7.050036e+00	2.198520e+02
2.400000e-06	8.846621e-07	3.238446e-09	6.333110e+00	2.106082e+02
2.410000e-06	7.842121e-07	3.092571e-09	5.614010e+00	2.011785e+02
2.420000e-06	6.834394e-07	2.943418e-09	4.892599e+00	1.915562e+02
2.430000e-06	5.823425e-07	2.796895e-09	4.168868e+00	1.817338e+02
2.440000e-06	4.810112e-07	2.652363e-09	3.443458e+00	1.717036e+02
2.450000e-06	3.795201e-07	2.500312e-09	2.716904e+00	1.614579e+02
2.460000e-06	2.778617e-07	2.336283e-09	1.989153e+00	1.509889e+02
2.470000e-06	1.760636e-07	2.165776e-09	1.260402e+00	1.402896e+02
2.480000e-06	7.410365e-08	1.996806e-09	5.304925e-01	1.293530e+02
2.490000e-06	-2.795875e-08	1.830463e-09	-2.001508e-01	1.181728e+02
2.500000e-06	-1.299499e-07	1.661259e-09	-9.302838e-01	1.067429e+02
2.510000e-06	-2.318855e-07	1.484185e-09	-1.660019e+00	9.505713e+01
2.520000e-06	-3.337772e-07	1.301146e-09	-2.389441e+00	8.310892e+01
2.530000e-06	-4.355363e-07	1.116326e-09	-3.117913e+00	7.089103e+01
2.540000e-06	-5.371464e-07	9.261752e-10	-3.845319e+00	5.839546e+01
2.550000e-06	-6.385018e-07	7.300242e-10	-4.570900e+00	4.561354e+01
2.560000e-06	-7.395528e-07	5.275016e-10	-5.294303e+00	3.253650e+01
2.570000e-06	-8.402729e-07	3.163619e-10	-6.015337e+00	1.915631e+01
2.580000e-06	-9.406197e-07	1.003486e-10	-6.733699e+00	5.467004e+00
2.590000e-06	-1.040612e-06	-1.144053e-10	-7.449520e+00	-8.533762e+00
2.600000e-06	-1.140262e-06	-3.287702e-10	-8.162893e+00	-2.284289e+01
2.610000e-06	-1.239511e-06	-5.488866e-10	-8.873396e+00	-3.745006e+01
2.620000e-06	-1.338334e-06	-7.800441e-10	-9.580852e+00	-5.233612e+01
2.630000e-06	-1.436792e-06	-1.016514e-09	-1.028569e+01	-6.747194e+01
2.640000e-06	-1.534739e-06	-1.250224e-09	-1.098688e+01	-8.281778e+01
2.650000e-06	-1.632023e-06	-1.483002e-09	-1.168331e+01	-9.832356e+01
2.660000e-06	-1.728745e-06	-1.717595e-09	-1.237572e+01	-1.139299e+02
2.670000e-06	-1.825010e-06	-1.956692e-09	-1.306486e+01	-1.295697e+02
2.680000e-06	-1.920753e-06	-2.198098e-09	-1.375027e+01	-1.451712e+02
2.690000e-06	-2.015831e-06	-2.437598e-09	-1.443091e+01	-1.606605e+02
2.700000e-06	-2.110043e-06	-2.671003e-09	-1.510535e+01	-1.759653e+02
2.710000e-06	-2.203275e-06	-2.897141e-09	-1.577278e+01	-1.910177e+02
2.720000e-06	-2.295583e-06	-3.121999e-09	-1.643360e+01	-2.057577e+02
2.730000e-06	-2.387054e-06	-3.345667e-09	-1.708842e+01	-2.201351e+02
2.740000e-06	-2.477730e-06	-3.562149e-09	-1.773755e+01	-2.341109e+02
2.750000e-06	-2.567581e-06	-3.768938e-09	-1.838077e+01	-2.476583e+02
2.760000e-06	-2.656512e-06	-3.969675e-09	-1.901741e+01	-2.607618e+02
2.770000e-06	-2.744546e-06	-4.167330e-09	-1.964763e+01	-2.734163e+02
2.780000e-06	-2.831763e-06	-4.359406e-09	-2.027200e+01	-2.856249e+02
2.790000e-06	-2.918008e-06	-4.542795e-09	-2.088941e+01	-2.973967e+02
2.800000e-06	-3.003030e-06	-4.714303e-09	-2.149806e+01	-3.087441e+02
2.810000e-06	-3.086886e-06	-4.876068e-09	-2.209837e+01	-3.196807e+02
2.820000e-06	-3.169751e-06	-5.032201e-09	-2.269158e+01	-3.302194e+02
2.830000e-06	-3.251579e-06	-5.184940e-09	-2.327737e+01	-3.403709e+02
2.840000e-06	-3.332330e-06	-5.335328e-09	-2.385545e+01	-3.501431e+02
2.850000e-06	-3.412023e-06	-5.481273e-09	-2.442596e+01	-3.595414e+02
2.860000e-06	-3.490375e-06	-5.620894e-09	-2.498686e+01	-3.685691e+02
2.870000e-06	-3.567196e-06	-5.753392e-09	-2.553681e+01	-3.772289e+02
2.880000e-06	-3.642603e-06	-5.879926e-09	-2.607663e+01	-3.855238e+02
2.890000e-06	-3.716595e-06	-6.003078e-09	-2.660633e+01	-3.934587e+02
2.900000e-06	-3.789267e-06	-6.120573e-09	-2.712657e+01	-4.010413e+02
2.910000e-06	-3.860736e-06	-6.231377e-09	-2.763820e+01	-4.082831e+02
2.920000e-06	-3.930688e-06	-6.337257e-09	-2.813897e+01	-4.151990e+02
2.930000e-06	-3.999008e-06	-6.438584e-09	-2.862806e+01	-4.218071e+02
2.940000e-06	-4.065953e-06	-6.536267e-09	-2.910730e+01	-4.281282e+02
