# Temperatura_=_51.08
# Concentracion g/m^3_=_15000.0
# C_Vs_to_Am_M_A/Vsm_=_65563218390.804596
# pendiente_HvsI_1/m_=_3716.3
# ordenada_HvsI_A/m_=_1297.0
# frecuencia_Hz_=_301590.2577627354

Tiempo_(s)	Campo_(V.s)	Magnetizacion_(V.s)	Campo_(kA/m)	Magnetizacion_(A/m)
0.000000e+00	-5.370763e-06	-6.320265e-09	-3.833380e+01	-4.134607e+02
1.000000e-08	-5.367929e-06	-6.317029e-09	-3.831357e+01	-4.132799e+02
2.000000e-08	-5.363356e-06	-6.311312e-09	-3.828093e+01	-4.130037e+02
3.000000e-08	-5.357155e-06	-6.303056e-09	-3.823668e+01	-4.126333e+02
4.000000e-08	-5.349425e-06	-6.295390e-09	-3.818150e+01	-4.121718e+02
5.000000e-08	-5.339928e-06	-6.288228e-09	-3.811371e+01	-4.116240e+02
6.000000e-08	-5.328366e-06	-6.279103e-09	-3.803119e+01	-4.109968e+02
7.000000e-08	-5.314902e-06	-6.269560e-09	-3.793509e+01	-4.102980e+02
8.000000e-08	-5.299346e-06	-6.262408e-09	-3.782406e+01	-4.095359e+02
9.000000e-08	-5.281463e-06	-6.266643e-09	-3.769642e+01	-4.087182e+02
1.000000e-07	-5.261504e-06	-6.265140e-09	-3.755397e+01	-4.078508e+02
1.100000e-07	-5.239680e-06	-6.233517e-09	-3.739820e+01	-4.069376e+02
1.200000e-07	-5.216189e-06	-6.194752e-09	-3.723053e+01	-4.059790e+02
1.300000e-07	-5.191265e-06	-6.168676e-09	-3.705263e+01	-4.049726e+02
1.400000e-07	-5.164731e-06	-6.140892e-09	-3.686325e+01	-4.039126e+02
1.500000e-07	-5.136531e-06	-6.157245e-09	-3.666197e+01	-4.027906e+02
1.600000e-07	-5.106897e-06	-6.153000e-09	-3.645046e+01	-4.015966e+02
1.700000e-07	-5.075684e-06	-6.112651e-09	-3.622768e+01	-4.003200e+02
1.800000e-07	-5.042364e-06	-6.117525e-09	-3.598985e+01	-3.989506e+02
1.900000e-07	-5.007090e-06	-6.090985e-09	-3.573808e+01	-3.974796e+02
2.000000e-07	-4.970335e-06	-6.036670e-09	-3.547574e+01	-3.959011e+02
2.100000e-07	-4.931848e-06	-5.992246e-09	-3.520105e+01	-3.942119e+02
2.200000e-07	-4.891556e-06	-5.939136e-09	-3.491346e+01	-3.924120e+02
2.300000e-07	-4.849378e-06	-5.930797e-09	-3.461241e+01	-3.905046e+02
2.400000e-07	-4.805312e-06	-5.939132e-09	-3.429789e+01	-3.884952e+02
2.500000e-07	-4.759494e-06	-5.930963e-09	-3.397087e+01	-3.863907e+02
2.600000e-07	-4.711781e-06	-5.899020e-09	-3.363032e+01	-3.841989e+02
2.700000e-07	-4.662001e-06	-5.800480e-09	-3.327501e+01	-3.819269e+02
2.800000e-07	-4.610102e-06	-5.764466e-09	-3.290459e+01	-3.795807e+02
2.900000e-07	-4.556317e-06	-5.773542e-09	-3.252069e+01	-3.771644e+02
3.000000e-07	-4.500968e-06	-5.734249e-09	-3.212565e+01	-3.746796e+02
3.100000e-07	-4.444007e-06	-5.697249e-09	-3.171908e+01	-3.721260e+02
3.200000e-07	-4.385208e-06	-5.643728e-09	-3.129940e+01	-3.695012e+02
3.300000e-07	-4.324794e-06	-5.579123e-09	-3.086820e+01	-3.668012e+02
3.400000e-07	-4.262899e-06	-5.547727e-09	-3.042643e+01	-3.640214e+02
3.500000e-07	-4.199625e-06	-5.526693e-09	-2.997481e+01	-3.611573e+02
3.600000e-07	-4.134933e-06	-5.476635e-09	-2.951307e+01	-3.582047e+02
3.700000e-07	-4.068529e-06	-5.409009e-09	-2.903911e+01	-3.551607e+02
3.800000e-07	-4.000534e-06	-5.363030e-09	-2.855380e+01	-3.520235e+02
3.900000e-07	-3.931181e-06	-5.323680e-09	-2.805879e+01	-3.487927e+02
4.000000e-07	-3.860583e-06	-5.277653e-09	-2.755490e+01	-3.454689e+02
4.100000e-07	-3.788834e-06	-5.222813e-09	-2.704279e+01	-3.420533e+02
4.200000e-07	-3.715711e-06	-5.150192e-09	-2.652087e+01	-3.385474e+02
4.300000e-07	-3.640933e-06	-5.095243e-09	-2.598715e+01	-3.349522e+02
4.400000e-07	-3.564623e-06	-5.052766e-09	-2.544248e+01	-3.312681e+02
4.500000e-07	-3.486977e-06	-5.014867e-09	-2.488828e+01	-3.274947e+02
4.600000e-07	-3.408002e-06	-4.966534e-09	-2.432460e+01	-3.236301e+02
4.700000e-07	-3.327678e-06	-4.882605e-09	-2.375129e+01	-3.196719e+02
4.800000e-07	-3.246069e-06	-4.795258e-09	-2.316881e+01	-3.156168e+02
4.900000e-07	-3.163258e-06	-4.734897e-09	-2.257774e+01	-3.114613e+02
5.000000e-07	-3.079420e-06	-4.687088e-09	-2.197935e+01	-3.072019e+02
5.100000e-07	-2.994722e-06	-4.626384e-09	-2.137481e+01	-3.028356e+02
5.200000e-07	-2.909092e-06	-4.556331e-09	-2.076363e+01	-2.983601e+02
5.300000e-07	-2.822431e-06	-4.474775e-09	-2.014509e+01	-2.937740e+02
5.400000e-07	-2.734864e-06	-4.394708e-09	-1.952008e+01	-2.890764e+02
5.500000e-07	-2.646464e-06	-4.328447e-09	-1.888913e+01	-2.842673e+02
5.600000e-07	-2.556932e-06	-4.264492e-09	-1.825010e+01	-2.793467e+02
5.700000e-07	-2.466168e-06	-4.186980e-09	-1.760227e+01	-2.743146e+02
5.800000e-07	-2.374498e-06	-4.096100e-09	-1.694797e+01	-2.691706e+02
5.900000e-07	-2.282073e-06	-4.014759e-09	-1.628829e+01	-2.639138e+02
6.000000e-07	-2.188860e-06	-3.942602e-09	-1.562298e+01	-2.585424e+02
6.100000e-07	-2.094872e-06	-3.862404e-09	-1.495214e+01	-2.530539e+02
6.200000e-07	-2.000154e-06	-3.771564e-09	-1.427609e+01	-2.474454e+02
6.300000e-07	-1.904816e-06	-3.677123e-09	-1.359562e+01	-2.417136e+02
6.400000e-07	-1.808909e-06	-3.585459e-09	-1.291108e+01	-2.358555e+02
6.500000e-07	-1.712264e-06	-3.500964e-09	-1.222128e+01	-2.298683e+02
6.600000e-07	-1.614829e-06	-3.417379e-09	-1.152584e+01	-2.237499e+02
6.700000e-07	-1.516688e-06	-3.320473e-09	-1.082535e+01	-2.174991e+02
6.800000e-07	-1.417898e-06	-3.208898e-09	-1.012024e+01	-2.111153e+02
6.900000e-07	-1.318595e-06	-3.099955e-09	-9.411464e+00	-2.045981e+02
7.000000e-07	-1.218886e-06	-3.005310e-09	-8.699796e+00	-1.979475e+02
7.100000e-07	-1.118795e-06	-2.912521e-09	-7.985395e+00	-1.911630e+02
7.200000e-07	-1.018379e-06	-2.809040e-09	-7.268676e+00	-1.842431e+02
7.300000e-07	-9.176946e-07	-2.696578e-09	-6.550042e+00	-1.771853e+02
7.400000e-07	-8.167328e-07	-2.581503e-09	-5.829427e+00	-1.699855e+02
7.500000e-07	-7.155236e-07	-2.469139e-09	-5.107047e+00	-1.626379e+02
7.600000e-07	-6.140263e-07	-2.360159e-09	-4.382610e+00	-1.551355e+02
7.700000e-07	-5.122344e-07	-2.247150e-09	-3.656071e+00	-1.474700e+02
7.800000e-07	-4.103072e-07	-2.125063e-09	-2.928566e+00	-1.396325e+02
7.900000e-07	-3.082723e-07	-1.998081e-09	-2.200292e+00	-1.316140e+02
8.000000e-07	-2.060249e-07	-1.872287e-09	-1.470502e+00	-1.234058e+02
8.100000e-07	-1.036460e-07	-1.749774e-09	-7.397732e-01	-1.150001e+02
8.200000e-07	-1.271853e-09	-1.621805e-09	-9.077846e-03	-1.063900e+02
8.300000e-07	1.010910e-07	-1.483321e-09	7.215368e-01	-9.756979e+01
8.400000e-07	2.034646e-07	-1.340487e-09	1.452228e+00	-8.853451e+01
8.500000e-07	3.057605e-07	-1.199497e-09	2.182364e+00	-7.927982e+01
8.600000e-07	4.079165e-07	-1.059774e-09	2.911502e+00	-6.980155e+01
8.700000e-07	5.099926e-07	-9.137421e-10	3.640070e+00	-6.009529e+01
8.800000e-07	6.119270e-07	-7.582463e-10	4.367627e+00	-5.015622e+01
8.900000e-07	7.136066e-07	-5.964353e-10	5.093364e+00	-3.997913e+01
9.000000e-07	8.149914e-07	-4.329988e-10	5.816998e+00	-2.955875e+01
9.100000e-07	9.160320e-07	-2.691170e-10	6.538175e+00	-1.889052e+01
9.200000e-07	1.016817e-06	-1.037883e-10	7.257524e+00	-7.971610e+00
9.300000e-07	1.117345e-06	6.527836e-11	7.975044e+00	3.197783e+00
9.400000e-07	1.217526e-06	2.396103e-10	8.690087e+00	1.461298e+01
9.500000e-07	1.317298e-06	4.177452e-10	9.402207e+00	2.626347e+01
9.600000e-07	1.416603e-06	5.967430e-10	1.011100e+01	3.813174e+01
9.700000e-07	1.515396e-06	7.772164e-10	1.081613e+01	5.019252e+01
9.800000e-07	1.613509e-06	9.615909e-10	1.151642e+01	6.241263e+01
9.900000e-07	1.710828e-06	1.149640e-09	1.221103e+01	7.475131e+01
1.000000e-06	1.807357e-06	1.338578e-09	1.290001e+01	8.716134e+01
1.010000e-06	1.903143e-06	1.526406e-09	1.358367e+01	9.959063e+01
1.020000e-06	1.998236e-06	1.712641e-09	1.426241e+01	1.119843e+02
1.030000e-06	2.092646e-06	1.897234e-09	1.493625e+01	1.242869e+02
1.040000e-06	2.186320e-06	2.081002e-09	1.560485e+01	1.364449e+02
1.050000e-06	2.279281e-06	2.262415e-09	1.626836e+01	1.484089e+02
1.060000e-06	2.371558e-06	2.441070e-09	1.692699e+01	1.601351e+02
1.070000e-06	2.463065e-06	2.615776e-09	1.758012e+01	1.715870e+02
1.080000e-06	2.553675e-06	2.785244e-09	1.822684e+01	1.827355e+02
1.090000e-06	2.643204e-06	2.951177e-09	1.886586e+01	1.935594e+02
1.100000e-06	2.731615e-06	3.113010e-09	1.949689e+01	2.040442e+02
1.110000e-06	2.819066e-06	3.268077e-09	2.012107e+01	2.141815e+02
1.120000e-06	2.905624e-06	3.416871e-09	2.073888e+01	2.239678e+02
1.130000e-06	2.991280e-06	3.560653e-09	2.135025e+01	2.334025e+02
1.140000e-06	3.076012e-06	3.699264e-09	2.195502e+01	2.424873e+02
1.150000e-06	3.159810e-06	3.831024e-09	2.255313e+01	2.512251e+02
1.160000e-06	3.242565e-06	3.956555e-09	2.314380e+01	2.596192e+02
1.170000e-06	3.324079e-06	4.076876e-09	2.372560e+01	2.676733e+02
1.180000e-06	3.404296e-06	4.193193e-09	2.429815e+01	2.753917e+02
1.190000e-06	3.483330e-06	4.304541e-09	2.486225e+01	2.827799e+02
1.200000e-06	3.561200e-06	4.410432e-09	2.541805e+01	2.898449e+02
1.210000e-06	3.637802e-06	4.513013e-09	2.596480e+01	2.965961e+02
1.220000e-06	3.713018e-06	4.610855e-09	2.650165e+01	3.030458e+02
1.230000e-06	3.786678e-06	4.702204e-09	2.702740e+01	3.092089e+02
1.240000e-06	3.858802e-06	4.788709e-09	2.754219e+01	3.151028e+02
1.250000e-06	3.929500e-06	4.873554e-09	2.804679e+01	3.207468e+02
1.260000e-06	3.998801e-06	4.957316e-09	2.854142e+01	3.261611e+02
1.270000e-06	4.066783e-06	5.037882e-09	2.902665e+01	3.313655e+02
1.280000e-06	4.133306e-06	5.114717e-09	2.950145e+01	3.363779e+02
1.290000e-06	4.198122e-06	5.188192e-09	2.996408e+01	3.412136e+02
1.300000e-06	4.261401e-06	5.257787e-09	3.041573e+01	3.458838e+02
1.310000e-06	4.323314e-06	5.325473e-09	3.085764e+01	3.503955e+02
1.320000e-06	4.383840e-06	5.392514e-09	3.128964e+01	3.547511e+02
1.330000e-06	4.442890e-06	5.455700e-09	3.171111e+01	3.589492e+02
1.340000e-06	4.500197e-06	5.514932e-09	3.212014e+01	3.629852e+02
1.350000e-06	4.555726e-06	5.572797e-09	3.251648e+01	3.668524e+02
1.360000e-06	4.609629e-06	5.628860e-09	3.290121e+01	3.705438e+02
1.370000e-06	4.661789e-06	5.680330e-09	3.327350e+01	3.740530e+02
1.380000e-06	4.712004e-06	5.727439e-09	3.363191e+01	3.773757e+02
1.390000e-06	4.760297e-06	5.772816e-09	3.397660e+01	3.805105e+02
1.400000e-06	4.806866e-06	5.815803e-09	3.430899e+01	3.834592e+02
1.410000e-06	4.851859e-06	5.856077e-09	3.463013e+01	3.862269e+02
1.420000e-06	4.895297e-06	5.894691e-09	3.494016e+01	3.888216e+02
1.430000e-06	4.936927e-06	5.931210e-09	3.523730e+01	3.912531e+02
1.440000e-06	4.976654e-06	5.964364e-09	3.552085e+01	3.935324e+02
1.450000e-06	5.014698e-06	5.994297e-09	3.579239e+01	3.956705e+02
1.460000e-06	5.051169e-06	6.022539e-09	3.605270e+01	3.976773e+02
1.470000e-06	5.085863e-06	6.050392e-09	3.630033e+01	3.995608e+02
1.480000e-06	5.118596e-06	6.076723e-09	3.653396e+01	4.013269e+02
1.490000e-06	5.149542e-06	6.100414e-09	3.675484e+01	4.029792e+02
1.500000e-06	5.178844e-06	6.122024e-09	3.696398e+01	4.045192e+02
1.510000e-06	5.206465e-06	6.141985e-09	3.716112e+01	4.059468e+02
1.520000e-06	5.232065e-06	6.160137e-09	3.734384e+01	4.072614e+02
1.530000e-06	5.255545e-06	6.177690e-09	3.751143e+01	4.084618e+02
1.540000e-06	5.277208e-06	6.194877e-09	3.766605e+01	4.095477e+02
1.550000e-06	5.297242e-06	6.210451e-09	3.780905e+01	4.105199e+02
1.560000e-06	5.315433e-06	6.224307e-09	3.793889e+01	4.113800e+02
1.570000e-06	5.331517e-06	6.235411e-09	3.805368e+01	4.121312e+02
1.580000e-06	5.345595e-06	6.244462e-09	3.815416e+01	4.127773e+02
1.590000e-06	5.357688e-06	6.253351e-09	3.824048e+01	4.133225e+02
1.600000e-06	5.367645e-06	6.261094e-09	3.831155e+01	4.137706e+02
1.610000e-06	5.375516e-06	6.267772e-09	3.836772e+01	4.141250e+02
1.620000e-06	5.381522e-06	6.274259e-09	3.841059e+01	4.143877e+02
1.630000e-06	5.385783e-06	6.279894e-09	3.844101e+01	4.145595e+02
1.640000e-06	5.388127e-06	6.282416e-09	3.845773e+01	4.146399e+02
1.650000e-06	5.388444e-06	6.283281e-09	3.846000e+01	4.146278e+02
1.660000e-06	5.386949e-06	6.283137e-09	3.844933e+01	4.145215e+02
1.670000e-06	5.383835e-06	6.278633e-09	3.842710e+01	4.143200e+02
1.680000e-06	5.378989e-06	6.273888e-09	3.839251e+01	4.140232e+02
1.690000e-06	5.372209e-06	6.270251e-09	3.834412e+01	4.136327e+02
1.700000e-06	5.363721e-06	6.266268e-09	3.828354e+01	4.131519e+02
1.710000e-06	5.353675e-06	6.261819e-09	3.821183e+01	4.125862e+02
1.720000e-06	5.341920e-06	6.254434e-09	3.812793e+01	4.119427e+02
1.730000e-06	5.328242e-06	6.240805e-09	3.803031e+01	4.112294e+02
1.740000e-06	5.312444e-06	6.213056e-09	3.791755e+01	4.104545e+02
1.750000e-06	5.294265e-06	6.186161e-09	3.778780e+01	4.096254e+02
1.760000e-06	5.273386e-06	6.188797e-09	3.763877e+01	4.087477e+02
1.770000e-06	5.250245e-06	6.196158e-09	3.747360e+01	4.078245e+02
1.780000e-06	5.225874e-06	6.194902e-09	3.729965e+01	4.068558e+02
1.790000e-06	5.200757e-06	6.168522e-09	3.712038e+01	4.058382e+02
1.800000e-06	5.174235e-06	6.093807e-09	3.693108e+01	4.047654e+02
1.810000e-06	5.145422e-06	6.097493e-09	3.672543e+01	4.036286e+02
1.820000e-06	5.114757e-06	6.105513e-09	3.650656e+01	4.024175e+02
1.830000e-06	5.082510e-06	6.057307e-09	3.627640e+01	4.011216e+02
1.840000e-06	5.048321e-06	6.092410e-09	3.603237e+01	3.997307e+02
1.850000e-06	5.012537e-06	6.101674e-09	3.577696e+01	3.982369e+02
1.860000e-06	4.974991e-06	6.080505e-09	3.550898e+01	3.966346e+02
1.870000e-06	4.935557e-06	6.086963e-09	3.522752e+01	3.949212e+02
1.880000e-06	4.894517e-06	6.013332e-09	3.493459e+01	3.930977e+02
1.890000e-06	4.851634e-06	5.963142e-09	3.462852e+01	3.911676e+02
1.900000e-06	4.807120e-06	5.912376e-09	3.431080e+01	3.891369e+02
1.910000e-06	4.760834e-06	5.870367e-09	3.398043e+01	3.870128e+02
1.920000e-06	4.712471e-06	5.933407e-09	3.363525e+01	3.848029e+02
1.930000e-06	4.662492e-06	5.876623e-09	3.327852e+01	3.825143e+02
1.940000e-06	4.610811e-06	5.806913e-09	3.290965e+01	3.801526e+02
1.950000e-06	4.557003e-06	5.794009e-09	3.252559e+01	3.777212e+02
1.960000e-06	4.501245e-06	5.706190e-09	3.212762e+01	3.752216e+02
1.970000e-06	4.443826e-06	5.685329e-09	3.171779e+01	3.726527e+02
1.980000e-06	4.384949e-06	5.673846e-09	3.129755e+01	3.700118e+02
1.990000e-06	4.324559e-06	5.631568e-09	3.086652e+01	3.672949e+02
2.000000e-06	4.262459e-06	5.582647e-09	3.042328e+01	3.644971e+02
2.010000e-06	4.198738e-06	5.516276e-09	2.996848e+01	3.616141e+02
2.020000e-06	4.133544e-06	5.499770e-09	2.950315e+01	3.586419e+02
2.030000e-06	4.066950e-06	5.441093e-09	2.902784e+01	3.555777e+02
2.040000e-06	3.998911e-06	5.395161e-09	2.854221e+01	3.524202e+02
2.050000e-06	3.929363e-06	5.358841e-09	2.804581e+01	3.491691e+02
2.060000e-06	3.858337e-06	5.291156e-09	2.753887e+01	3.458253e+02
2.070000e-06	3.785941e-06	5.251842e-09	2.702214e+01	3.423899e+02
2.080000e-06	3.712259e-06	5.187019e-09	2.649623e+01	3.388645e+02
2.090000e-06	3.637241e-06	5.143344e-09	2.596079e+01	3.352500e+02
2.100000e-06	3.560780e-06	5.073755e-09	2.541505e+01	3.315466e+02
2.110000e-06	3.482697e-06	4.991176e-09	2.485773e+01	3.277535e+02
2.120000e-06	3.403233e-06	4.959862e-09	2.429056e+01	3.238688e+02
2.130000e-06	3.322726e-06	4.910371e-09	2.371594e+01	3.198899e+02
2.140000e-06	3.241118e-06	4.855902e-09	2.313347e+01	3.158133e+02
2.150000e-06	3.158438e-06	4.788523e-09	2.254334e+01	3.116355e+02
2.160000e-06	3.074748e-06	4.712304e-09	2.194600e+01	3.073532e+02
2.170000e-06	2.989935e-06	4.629701e-09	2.134065e+01	3.029634e+02
2.180000e-06	2.903798e-06	4.564159e-09	2.072585e+01	2.984640e+02
2.190000e-06	2.816485e-06	4.515176e-09	2.010265e+01	2.938538e+02
2.200000e-06	2.728197e-06	4.444815e-09	1.947249e+01	2.891320e+02
2.210000e-06	2.638968e-06	4.362946e-09	1.883563e+01	2.842987e+02
2.220000e-06	2.548824e-06	4.279953e-09	1.819222e+01	2.793539e+02
2.230000e-06	2.457844e-06	4.209925e-09	1.754285e+01	2.742977e+02
2.240000e-06	2.366160e-06	4.134161e-09	1.688846e+01	2.691294e+02
2.250000e-06	2.273707e-06	4.057122e-09	1.622858e+01	2.638479e+02
2.260000e-06	2.180307e-06	3.978951e-09	1.556194e+01	2.584514e+02
2.270000e-06	2.085877e-06	3.887908e-09	1.488794e+01	2.529371e+02
2.280000e-06	1.990534e-06	3.794982e-09	1.420743e+01	2.473022e+02
2.290000e-06	1.894449e-06	3.709766e-09	1.352162e+01	2.415433e+02
2.300000e-06	1.797824e-06	3.625810e-09	1.283196e+01	2.356575e+02
2.310000e-06	1.700697e-06	3.528893e-09	1.213872e+01	2.296420e+02
2.320000e-06	1.602971e-06	3.428715e-09	1.144120e+01	2.234951e+02
2.330000e-06	1.504725e-06	3.339067e-09	1.073997e+01	2.172156e+02
2.340000e-06	1.406014e-06	3.253901e-09	1.003542e+01	2.108029e+02
2.350000e-06	1.306927e-06	3.157392e-09	9.328190e+00	2.042569e+02
2.360000e-06	1.207531e-06	3.051986e-09	8.618750e+00	1.975774e+02
2.370000e-06	1.107856e-06	2.939583e-09	7.907320e+00	1.907637e+02
2.380000e-06	1.007856e-06	2.825042e-09	7.193570e+00	1.838143e+02
2.390000e-06	9.074288e-07	2.720085e-09	6.476769e+00	1.767262e+02
2.400000e-06	8.065307e-07	2.620621e-09	5.756610e+00	1.694950e+02
2.410000e-06	7.052752e-07	2.514400e-09	5.033899e+00	1.621146e+02
2.420000e-06	6.038470e-07	2.392562e-09	4.309956e+00	1.545777e+02
2.430000e-06	5.022047e-07	2.265488e-09	3.584484e+00	1.468758e+02
2.440000e-06	4.003164e-07	2.146006e-09	2.857257e+00	1.390000e+02
2.450000e-06	2.982567e-07	2.028255e-09	2.128806e+00	1.309412e+02
2.460000e-06	1.960342e-07	1.903155e-09	1.399194e+00	1.226911e+02
2.470000e-06	9.366461e-08	1.770510e-09	6.685308e-01	1.142419e+02
2.480000e-06	-8.752191e-09	1.634113e-09	-6.246873e-02	1.055869e+02
2.490000e-06	-1.112002e-07	1.499768e-09	-7.936912e-01	9.672074e+01
2.500000e-06	-2.136441e-07	1.366627e-09	-1.524884e+00	8.763853e+01
2.510000e-06	-3.159889e-07	1.228873e-09	-2.255369e+00	7.833601e+01
2.520000e-06	-4.182369e-07	1.085039e-09	-2.985164e+00	6.880899e+01
2.530000e-06	-5.203051e-07	9.340749e-10	-3.713676e+00	5.905299e+01
2.540000e-06	-6.221252e-07	7.805971e-10	-4.440416e+00	4.906309e+01
2.550000e-06	-7.236768e-07	6.289406e-10	-5.165240e+00	3.883402e+01
2.560000e-06	-8.248675e-07	4.733870e-10	-5.887489e+00	2.836061e+01
2.570000e-06	-9.256399e-07	3.093770e-10	-6.606751e+00	1.763854e+01
2.580000e-06	-1.026012e-06	1.390635e-10	-7.323155e+00	6.665535e+00
2.590000e-06	-1.125948e-06	-3.467588e-11	-8.036448e+00	-4.557377e+00
2.600000e-06	-1.225438e-06	-2.085235e-10	-8.746560e+00	-1.602438e+01
2.610000e-06	-1.324540e-06	-3.831182e-10	-9.453896e+00	-2.772354e+01
2.620000e-06	-1.423269e-06	-5.632604e-10	-1.015858e+01	-3.963573e+01
2.630000e-06	-1.521566e-06	-7.510106e-10	-1.086017e+01	-5.173399e+01
2.640000e-06	-1.619294e-06	-9.427620e-10	-1.155770e+01	-6.398345e+01
2.650000e-06	-1.716417e-06	-1.133819e-09	-1.225092e+01	-7.634186e+01
2.660000e-06	-1.812996e-06	-1.322919e-09	-1.294025e+01	-8.876081e+01
2.670000e-06	-1.909003e-06	-1.512403e-09	-1.362550e+01	-1.011874e+02
2.680000e-06	-2.004386e-06	-1.705577e-09	-1.430630e+01	-1.135664e+02
2.690000e-06	-2.099080e-06	-1.900024e-09	-1.498218e+01	-1.258427e+02
2.700000e-06	-2.192936e-06	-2.090079e-09	-1.565207e+01	-1.379634e+02
2.710000e-06	-2.285789e-06	-2.270522e-09	-1.631481e+01	-1.498802e+02
2.720000e-06	-2.377608e-06	-2.444310e-09	-1.697017e+01	-1.615507e+02
2.730000e-06	-2.468612e-06	-2.615480e-09	-1.761971e+01	-1.729401e+02
2.740000e-06	-2.558826e-06	-2.782459e-09	-1.826361e+01	-1.840209e+02
2.750000e-06	-2.648085e-06	-2.944280e-09	-1.890069e+01	-1.947733e+02
2.760000e-06	-2.736478e-06	-3.101944e-09	-1.953160e+01	-2.051845e+02
2.770000e-06	-2.824072e-06	-3.257372e-09	-2.015680e+01	-2.152470e+02
2.780000e-06	-2.910725e-06	-3.409099e-09	-2.077529e+01	-2.249582e+02
2.790000e-06	-2.996240e-06	-3.554055e-09	-2.138565e+01	-2.343180e+02
2.800000e-06	-3.080572e-06	-3.692125e-09	-2.198757e+01	-2.433285e+02
2.810000e-06	-3.163856e-06	-3.823815e-09	-2.258201e+01	-2.519926e+02
2.820000e-06	-3.246090e-06	-3.948636e-09	-2.316895e+01	-2.603138e+02
2.830000e-06	-3.327273e-06	-4.069143e-09	-2.374840e+01	-2.682958e+02
2.840000e-06	-3.407408e-06	-4.188640e-09	-2.432036e+01	-2.759432e+02
2.850000e-06	-3.486358e-06	-4.304889e-09	-2.488387e+01	-2.832617e+02
2.860000e-06	-3.563770e-06	-4.414323e-09	-2.543639e+01	-2.902589e+02
2.870000e-06	-3.639587e-06	-4.517599e-09	-2.597754e+01	-2.969447e+02
2.880000e-06	-3.714048e-06	-4.615969e-09	-2.650901e+01	-3.033319e+02
2.890000e-06	-3.787171e-06	-4.709457e-09	-2.703092e+01	-3.094360e+02
2.900000e-06	-3.859030e-06	-4.799357e-09	-2.754381e+01	-3.152750e+02
2.910000e-06	-3.929527e-06	-4.884629e-09	-2.804698e+01	-3.208683e+02
2.920000e-06	-3.998426e-06	-4.965022e-09	-2.853875e+01	-3.262363e+02
2.930000e-06	-4.065835e-06	-5.041938e-09	-2.901988e+01	-3.313984e+02
2.940000e-06	-4.131874e-06	-5.117813e-09	-2.949124e+01	-3.363721e+02
