# Temperatura_=_38.61
# Concentracion g/m^3_=_15000.0
# C_Vs_to_Am_M_A/Vsm_=_65563218390.804596
# pendiente_HvsI_1/m_=_3716.3
# ordenada_HvsI_A/m_=_1297.0
# frecuencia_Hz_=_301597.73838057474

Tiempo_(s)	Campo_(V.s)	Magnetizacion_(V.s)	Campo_(kA/m)	Magnetizacion_(A/m)
0.000000e+00	-5.404093e-06	-5.909618e-09	-3.833123e+01	-3.867022e+02
1.000000e-08	-5.401201e-06	-5.907155e-09	-3.831071e+01	-3.865787e+02
2.000000e-08	-5.396500e-06	-5.903426e-09	-3.827736e+01	-3.863760e+02
3.000000e-08	-5.390186e-06	-5.899091e-09	-3.823258e+01	-3.860907e+02
4.000000e-08	-5.382340e-06	-5.893519e-09	-3.817693e+01	-3.857206e+02
5.000000e-08	-5.372629e-06	-5.886807e-09	-3.810805e+01	-3.852651e+02
6.000000e-08	-5.360803e-06	-5.878177e-09	-3.802417e+01	-3.847255e+02
7.000000e-08	-5.347064e-06	-5.867062e-09	-3.792672e+01	-3.841056e+02
8.000000e-08	-5.331207e-06	-5.865363e-09	-3.781424e+01	-3.834114e+02
9.000000e-08	-5.313112e-06	-5.874844e-09	-3.768589e+01	-3.826503e+02
1.000000e-07	-5.292983e-06	-5.862094e-09	-3.754312e+01	-3.818309e+02
1.100000e-07	-5.270967e-06	-5.833108e-09	-3.738696e+01	-3.809614e+02
1.200000e-07	-5.247301e-06	-5.802843e-09	-3.721910e+01	-3.800491e+02
1.300000e-07	-5.222018e-06	-5.755345e-09	-3.703977e+01	-3.790994e+02
1.400000e-07	-5.195044e-06	-5.753183e-09	-3.684844e+01	-3.781145e+02
1.500000e-07	-5.166506e-06	-5.780176e-09	-3.664602e+01	-3.770940e+02
1.600000e-07	-5.136520e-06	-5.744704e-09	-3.643333e+01	-3.760338e+02
1.700000e-07	-5.104941e-06	-5.735264e-09	-3.620934e+01	-3.749270e+02
1.800000e-07	-5.071228e-06	-5.721529e-09	-3.597021e+01	-3.737645e+02
1.900000e-07	-5.035658e-06	-5.652871e-09	-3.571791e+01	-3.725357e+02
2.000000e-07	-4.998590e-06	-5.642144e-09	-3.545499e+01	-3.712298e+02
2.100000e-07	-4.959721e-06	-5.652172e-09	-3.517930e+01	-3.698368e+02
2.200000e-07	-4.919090e-06	-5.634243e-09	-3.489110e+01	-3.683484e+02
2.300000e-07	-4.876512e-06	-5.603822e-09	-3.458909e+01	-3.667589e+02
2.400000e-07	-4.832018e-06	-5.551951e-09	-3.427350e+01	-3.650655e+02
2.500000e-07	-4.785815e-06	-5.519429e-09	-3.394578e+01	-3.632684e+02
2.600000e-07	-4.737641e-06	-5.504534e-09	-3.360408e+01	-3.613706e+02
2.700000e-07	-4.687332e-06	-5.485520e-09	-3.324724e+01	-3.593773e+02
2.800000e-07	-4.634948e-06	-5.465670e-09	-3.287568e+01	-3.572950e+02
2.900000e-07	-4.580753e-06	-5.404636e-09	-3.249128e+01	-3.551308e+02
3.000000e-07	-4.525021e-06	-5.344965e-09	-3.209597e+01	-3.528913e+02
3.100000e-07	-4.467577e-06	-5.337175e-09	-3.168852e+01	-3.505819e+02
3.200000e-07	-4.408288e-06	-5.329404e-09	-3.126798e+01	-3.482063e+02
3.300000e-07	-4.347448e-06	-5.288089e-09	-3.083644e+01	-3.457663e+02
3.400000e-07	-4.285219e-06	-5.231928e-09	-3.039505e+01	-3.432613e+02
3.500000e-07	-4.221579e-06	-5.180233e-09	-2.994366e+01	-3.406892e+02
3.600000e-07	-4.156386e-06	-5.144158e-09	-2.948124e+01	-3.380463e+02
3.700000e-07	-4.089525e-06	-5.122306e-09	-2.900699e+01	-3.353281e+02
3.800000e-07	-4.021106e-06	-5.083822e-09	-2.852170e+01	-3.325299e+02
3.900000e-07	-3.951268e-06	-5.022472e-09	-2.802634e+01	-3.296475e+02
4.000000e-07	-3.880221e-06	-4.963875e-09	-2.752240e+01	-3.266772e+02
4.100000e-07	-3.807946e-06	-4.918964e-09	-2.700976e+01	-3.236167e+02
4.200000e-07	-3.734180e-06	-4.886729e-09	-2.648653e+01	-3.204647e+02
4.300000e-07	-3.658825e-06	-4.851285e-09	-2.595204e+01	-3.172207e+02
4.400000e-07	-3.581933e-06	-4.802696e-09	-2.540664e+01	-3.138855e+02
4.500000e-07	-3.503577e-06	-4.737162e-09	-2.485086e+01	-3.104598e+02
4.600000e-07	-3.423824e-06	-4.668497e-09	-2.428518e+01	-3.069445e+02
4.700000e-07	-3.342808e-06	-4.619075e-09	-2.371053e+01	-3.033403e+02
4.800000e-07	-3.260630e-06	-4.578303e-09	-2.312764e+01	-2.996468e+02
4.900000e-07	-3.177356e-06	-4.519016e-09	-2.253698e+01	-2.958632e+02
5.000000e-07	-3.093067e-06	-4.445758e-09	-2.193912e+01	-2.919875e+02
5.100000e-07	-3.007870e-06	-4.379570e-09	-2.133481e+01	-2.880169e+02
5.200000e-07	-2.921734e-06	-4.322427e-09	-2.072385e+01	-2.839482e+02
5.300000e-07	-2.834633e-06	-4.267428e-09	-2.010605e+01	-2.797777e+02
5.400000e-07	-2.746564e-06	-4.207645e-09	-1.948138e+01	-2.755017e+02
5.500000e-07	-2.657357e-06	-4.134022e-09	-1.884863e+01	-2.711171e+02
5.600000e-07	-2.566962e-06	-4.050520e-09	-1.820746e+01	-2.666209e+02
5.700000e-07	-2.475607e-06	-3.978465e-09	-1.755947e+01	-2.620110e+02
5.800000e-07	-2.383422e-06	-3.922098e-09	-1.690561e+01	-2.572861e+02
5.900000e-07	-2.290404e-06	-3.856978e-09	-1.624583e+01	-2.524453e+02
6.000000e-07	-2.196571e-06	-3.771500e-09	-1.558027e+01	-2.474886e+02
6.100000e-07	-2.101963e-06	-3.685303e-09	-1.490922e+01	-2.424161e+02
6.200000e-07	-2.006777e-06	-3.606597e-09	-1.423407e+01	-2.372279e+02
6.300000e-07	-1.910937e-06	-3.527732e-09	-1.355427e+01	-2.319243e+02
6.400000e-07	-1.814236e-06	-3.449674e-09	-1.286837e+01	-2.265051e+02
6.500000e-07	-1.716647e-06	-3.370036e-09	-1.217617e+01	-2.209697e+02
6.600000e-07	-1.618311e-06	-3.281164e-09	-1.147868e+01	-2.153168e+02
6.700000e-07	-1.519381e-06	-3.183422e-09	-1.077697e+01	-2.095447e+02
6.800000e-07	-1.419920e-06	-3.090980e-09	-1.007149e+01	-2.036512e+02
6.900000e-07	-1.320034e-06	-3.006200e-09	-9.362997e+00	-1.976332e+02
7.000000e-07	-1.219755e-06	-2.915971e-09	-8.651722e+00	-1.914877e+02
7.100000e-07	-1.119132e-06	-2.816672e-09	-7.938000e+00	-1.852108e+02
7.200000e-07	-1.018238e-06	-2.713866e-09	-7.222362e+00	-1.787986e+02
7.300000e-07	-9.170125e-07	-2.614321e-09	-6.504369e+00	-1.722468e+02
7.400000e-07	-8.154052e-07	-2.516993e-09	-5.783668e+00	-1.655509e+02
7.500000e-07	-7.134968e-07	-2.416633e-09	-5.060832e+00	-1.587062e+02
7.600000e-07	-6.112899e-07	-2.308206e-09	-4.335879e+00	-1.517076e+02
7.700000e-07	-5.088319e-07	-2.192941e-09	-3.609144e+00	-1.445501e+02
7.800000e-07	-4.062380e-07	-2.077831e-09	-2.881446e+00	-1.372281e+02
7.900000e-07	-3.035094e-07	-1.966043e-09	-2.152791e+00	-1.297358e+02
8.000000e-07	-2.006743e-07	-1.854806e-09	-1.423383e+00	-1.220671e+02
8.100000e-07	-9.779137e-08	-1.737793e-09	-6.936340e-01	-1.142158e+02
8.200000e-07	5.089908e-09	-1.612771e-09	3.610271e-02	-1.061748e+02
8.300000e-07	1.079769e-07	-1.482501e-09	7.658800e-01	-9.793720e+01
8.400000e-07	2.108814e-07	-1.352572e-09	1.495781e+00	-8.949538e+01
8.500000e-07	3.137455e-07	-1.224506e-09	2.225397e+00	-8.084157e+01
8.600000e-07	4.165288e-07	-1.092233e-09	2.954438e+00	-7.196780e+01
8.700000e-07	5.192009e-07	-9.514969e-10	3.682691e+00	-6.286613e+01
8.800000e-07	6.217303e-07	-8.054939e-10	4.409932e+00	-5.352898e+01
8.900000e-07	7.240416e-07	-6.576786e-10	5.135626e+00	-4.394959e+01
9.000000e-07	8.260963e-07	-5.067498e-10	5.859500e+00	-3.412256e+01
9.100000e-07	9.278108e-07	-3.504943e-10	6.580961e+00	-2.404459e+01
9.200000e-07	1.029156e-06	-1.914650e-10	7.299802e+00	-1.371522e+01
9.300000e-07	1.130191e-06	-3.008868e-11	8.016445e+00	-3.137728e+00
9.400000e-07	1.230863e-06	1.358914e-10	8.730507e+00	7.680148e+00
9.500000e-07	1.331099e-06	3.034039e-10	9.441482e+00	1.872544e+01
9.600000e-07	1.430878e-06	4.723881e-10	1.014922e+01	2.997944e+01
9.700000e-07	1.530197e-06	6.458770e-10	1.085369e+01	4.141743e+01
9.800000e-07	1.628978e-06	8.244234e-10	1.155434e+01	5.300870e+01
9.900000e-07	1.727019e-06	1.005993e-09	1.224974e+01	6.471693e+01
1.000000e-06	1.824129e-06	1.185158e-09	1.293855e+01	7.650092e+01
1.010000e-06	1.920381e-06	1.363234e-09	1.362126e+01	8.831567e+01
1.020000e-06	2.015950e-06	1.541701e-09	1.429913e+01	1.001136e+02
1.030000e-06	2.110890e-06	1.720630e-09	1.497254e+01	1.118463e+02
1.040000e-06	2.205080e-06	1.899424e-09	1.564063e+01	1.234655e+02
1.050000e-06	2.298471e-06	2.075350e-09	1.630305e+01	1.349255e+02
1.060000e-06	2.391147e-06	2.247767e-09	1.696040e+01	1.461836e+02
1.070000e-06	2.483103e-06	2.414175e-09	1.761265e+01	1.572017e+02
1.080000e-06	2.574315e-06	2.576584e-09	1.825961e+01	1.679470e+02
1.090000e-06	2.664532e-06	2.738205e-09	1.889952e+01	1.783924e+02
1.100000e-06	2.753463e-06	2.894439e-09	1.953031e+01	1.885164e+02
1.110000e-06	2.841321e-06	3.043014e-09	2.015349e+01	1.983033e+02
1.120000e-06	2.928377e-06	3.185413e-09	2.077097e+01	2.077425e+02
1.130000e-06	3.014485e-06	3.323526e-09	2.138174e+01	2.168278e+02
1.140000e-06	3.099596e-06	3.455927e-09	2.198543e+01	2.255569e+02
1.150000e-06	3.183806e-06	3.581314e-09	2.258273e+01	2.339310e+02
1.160000e-06	3.267101e-06	3.702602e-09	2.317354e+01	2.419540e+02
1.170000e-06	3.349196e-06	3.818098e-09	2.375584e+01	2.496320e+02
1.180000e-06	3.429891e-06	3.927590e-09	2.432821e+01	2.569737e+02
1.190000e-06	3.509324e-06	4.033446e-09	2.489163e+01	2.639894e+02
1.200000e-06	3.587532e-06	4.136818e-09	2.544636e+01	2.706915e+02
1.210000e-06	3.664499e-06	4.236649e-09	2.599229e+01	2.770944e+02
1.220000e-06	3.740181e-06	4.328449e-09	2.652910e+01	2.832139e+02
1.230000e-06	3.814254e-06	4.413587e-09	2.705450e+01	2.890673e+02
1.240000e-06	3.886655e-06	4.496601e-09	2.756804e+01	2.946725e+02
1.250000e-06	3.957698e-06	4.579192e-09	2.807194e+01	3.000480e+02
1.260000e-06	4.027341e-06	4.660762e-09	2.856593e+01	3.052113e+02
1.270000e-06	4.095644e-06	4.738353e-09	2.905040e+01	3.101790e+02
1.280000e-06	4.162597e-06	4.811815e-09	2.952529e+01	3.149650e+02
1.290000e-06	4.227771e-06	4.881349e-09	2.998758e+01	3.195805e+02
1.300000e-06	4.291284e-06	4.947527e-09	3.043807e+01	3.240332e+02
1.310000e-06	4.353437e-06	5.011697e-09	3.087892e+01	3.283271e+02
1.320000e-06	4.414181e-06	5.074262e-09	3.130978e+01	3.324630e+02
1.330000e-06	4.473524e-06	5.133930e-09	3.173070e+01	3.364382e+02
1.340000e-06	4.531112e-06	5.190187e-09	3.213917e+01	3.402482e+02
1.350000e-06	4.586890e-06	5.243966e-09	3.253480e+01	3.438870e+02
1.360000e-06	4.641155e-06	5.295455e-09	3.291971e+01	3.473486e+02
1.370000e-06	4.693749e-06	5.343120e-09	3.329275e+01	3.506281e+02
1.380000e-06	4.744269e-06	5.387679e-09	3.365109e+01	3.537226e+02
1.390000e-06	4.792691e-06	5.430849e-09	3.399455e+01	3.566318e+02
1.400000e-06	4.839405e-06	5.471280e-09	3.432589e+01	3.593586e+02
1.410000e-06	4.884565e-06	5.506959e-09	3.464622e+01	3.619092e+02
1.420000e-06	4.928205e-06	5.540032e-09	3.495575e+01	3.642921e+02
1.430000e-06	4.969952e-06	5.571502e-09	3.525186e+01	3.665183e+02
1.440000e-06	5.009772e-06	5.600704e-09	3.553430e+01	3.685996e+02
1.450000e-06	5.047969e-06	5.629284e-09	3.580524e+01	3.705478e+02
1.460000e-06	5.084568e-06	5.657414e-09	3.606484e+01	3.723739e+02
1.470000e-06	5.119425e-06	5.685303e-09	3.631207e+01	3.740870e+02
1.480000e-06	5.152298e-06	5.710391e-09	3.654524e+01	3.756939e+02
1.490000e-06	5.183351e-06	5.730994e-09	3.676550e+01	3.771989e+02
1.500000e-06	5.212708e-06	5.749498e-09	3.697373e+01	3.786036e+02
1.510000e-06	5.240362e-06	5.766620e-09	3.716988e+01	3.799077e+02
1.520000e-06	5.266013e-06	5.783258e-09	3.735182e+01	3.811096e+02
1.530000e-06	5.289581e-06	5.800381e-09	3.751899e+01	3.822072e+02
1.540000e-06	5.311317e-06	5.817165e-09	3.767316e+01	3.831985e+02
1.550000e-06	5.331333e-06	5.831202e-09	3.781514e+01	3.840826e+02
1.560000e-06	5.349456e-06	5.843116e-09	3.794368e+01	3.848603e+02
1.570000e-06	5.365511e-06	5.854391e-09	3.805756e+01	3.855338e+02
1.580000e-06	5.379662e-06	5.865333e-09	3.815794e+01	3.861073e+02
1.590000e-06	5.391870e-06	5.874700e-09	3.824452e+01	3.865860e+02
1.600000e-06	5.401817e-06	5.881793e-09	3.831508e+01	3.869758e+02
1.610000e-06	5.409589e-06	5.887500e-09	3.837021e+01	3.872826e+02
1.620000e-06	5.415542e-06	5.892409e-09	3.841243e+01	3.875115e+02
1.630000e-06	5.419772e-06	5.896232e-09	3.844243e+01	3.876663e+02
1.640000e-06	5.422039e-06	5.898335e-09	3.845852e+01	3.877487e+02
1.650000e-06	5.422248e-06	5.901372e-09	3.846000e+01	3.877590e+02
1.660000e-06	5.420646e-06	5.901774e-09	3.844863e+01	3.876954e+02
1.670000e-06	5.417370e-06	5.898245e-09	3.842540e+01	3.875551e+02
1.680000e-06	5.412375e-06	5.894986e-09	3.838997e+01	3.873348e+02
1.690000e-06	5.405476e-06	5.892028e-09	3.834103e+01	3.870313e+02
1.700000e-06	5.396821e-06	5.887517e-09	3.827965e+01	3.866427e+02
1.710000e-06	5.386624e-06	5.881946e-09	3.820732e+01	3.861688e+02
1.720000e-06	5.374671e-06	5.877444e-09	3.812253e+01	3.856114e+02
1.730000e-06	5.360652e-06	5.862453e-09	3.802310e+01	3.849749e+02
1.740000e-06	5.344584e-06	5.823367e-09	3.790913e+01	3.842655e+02
1.750000e-06	5.326185e-06	5.809996e-09	3.777862e+01	3.834911e+02
1.760000e-06	5.305095e-06	5.816200e-09	3.762903e+01	3.826601e+02
1.770000e-06	5.281765e-06	5.819957e-09	3.746355e+01	3.817807e+02
1.780000e-06	5.257143e-06	5.845424e-09	3.728891e+01	3.808599e+02
1.790000e-06	5.231806e-06	5.797149e-09	3.710919e+01	3.799023e+02
1.800000e-06	5.205010e-06	5.734299e-09	3.691913e+01	3.789098e+02
1.810000e-06	5.175856e-06	5.760129e-09	3.671234e+01	3.778811e+02
1.820000e-06	5.144932e-06	5.734930e-09	3.649300e+01	3.768114e+02
1.830000e-06	5.112408e-06	5.713981e-09	3.626230e+01	3.756933e+02
1.840000e-06	5.077912e-06	5.741115e-09	3.601763e+01	3.745173e+02
1.850000e-06	5.041857e-06	5.701376e-09	3.576189e+01	3.732728e+02
1.860000e-06	5.004039e-06	5.674679e-09	3.549364e+01	3.719489e+02
1.870000e-06	4.964301e-06	5.642604e-09	3.521178e+01	3.705359e+02
1.880000e-06	4.922869e-06	5.599768e-09	3.491790e+01	3.690261e+02
1.890000e-06	4.879583e-06	5.621208e-09	3.461088e+01	3.674143e+02
1.900000e-06	4.834660e-06	5.590483e-09	3.429223e+01	3.656983e+02
1.910000e-06	4.787912e-06	5.558159e-09	3.396065e+01	3.638792e+02
1.920000e-06	4.739146e-06	5.530106e-09	3.361476e+01	3.619603e+02
1.930000e-06	4.688804e-06	5.452976e-09	3.325768e+01	3.599471e+02
1.940000e-06	4.636605e-06	5.455597e-09	3.288743e+01	3.578466e+02
1.950000e-06	4.582276e-06	5.451409e-09	3.250208e+01	3.556655e+02
1.960000e-06	4.526104e-06	5.397925e-09	3.210365e+01	3.534104e+02
1.970000e-06	4.468267e-06	5.344853e-09	3.169341e+01	3.510864e+02
1.980000e-06	4.408995e-06	5.289843e-09	3.127299e+01	3.486968e+02
1.990000e-06	4.348122e-06	5.283874e-09	3.084123e+01	3.462428e+02
2.000000e-06	4.285512e-06	5.263362e-09	3.039713e+01	3.437235e+02
2.010000e-06	4.221380e-06	5.210533e-09	2.994224e+01	3.411364e+02
2.020000e-06	4.155770e-06	5.164593e-09	2.947687e+01	3.384776e+02
2.030000e-06	4.088775e-06	5.112138e-09	2.900167e+01	3.357425e+02
2.040000e-06	4.020248e-06	5.066345e-09	2.851562e+01	3.329264e+02
2.050000e-06	3.950111e-06	5.025350e-09	2.801813e+01	3.300253e+02
2.060000e-06	3.878537e-06	4.999389e-09	2.751045e+01	3.270357e+02
2.070000e-06	3.805680e-06	4.957590e-09	2.699369e+01	3.239555e+02
2.080000e-06	3.731561e-06	4.883383e-09	2.646796e+01	3.207836e+02
2.090000e-06	3.656005e-06	4.821855e-09	2.593204e+01	3.175199e+02
2.100000e-06	3.578905e-06	4.785335e-09	2.538517e+01	3.141650e+02
2.110000e-06	3.500265e-06	4.752028e-09	2.482737e+01	3.107199e+02
2.120000e-06	3.420354e-06	4.694438e-09	2.426057e+01	3.071854e+02
2.130000e-06	3.339324e-06	4.628180e-09	2.368582e+01	3.035619e+02
2.140000e-06	3.257140e-06	4.570341e-09	2.310289e+01	2.998491e+02
2.150000e-06	3.173911e-06	4.508337e-09	2.251255e+01	2.960457e+02
2.160000e-06	3.089608e-06	4.453481e-09	2.191459e+01	2.921497e+02
2.170000e-06	3.004036e-06	4.409131e-09	2.130762e+01	2.881583e+02
2.180000e-06	2.917221e-06	4.345639e-09	2.069185e+01	2.840679e+02
2.190000e-06	2.829321e-06	4.261847e-09	2.006837e+01	2.798749e+02
2.200000e-06	2.740429e-06	4.192934e-09	1.943786e+01	2.755758e+02
2.210000e-06	2.650607e-06	4.146344e-09	1.880075e+01	2.711673e+02
2.220000e-06	2.559913e-06	4.086751e-09	1.815746e+01	2.666467e+02
2.230000e-06	2.468459e-06	4.002378e-09	1.750877e+01	2.620121e+02
2.240000e-06	2.376184e-06	3.920615e-09	1.685427e+01	2.572623e+02
2.250000e-06	2.282913e-06	3.845856e-09	1.619270e+01	2.523965e+02
2.260000e-06	2.188722e-06	3.770095e-09	1.552461e+01	2.474148e+02
2.270000e-06	2.093640e-06	3.701220e-09	1.485019e+01	2.423173e+02
2.280000e-06	1.997690e-06	3.633275e-09	1.416962e+01	2.371042e+02
2.290000e-06	1.901029e-06	3.548796e-09	1.348400e+01	2.317757e+02
2.300000e-06	1.803773e-06	3.450895e-09	1.279416e+01	2.263315e+02
2.310000e-06	1.706004e-06	3.361038e-09	1.210068e+01	2.207709e+02
2.320000e-06	1.607685e-06	3.285931e-09	1.140331e+01	2.150924e+02
2.330000e-06	1.508881e-06	3.207296e-09	1.070249e+01	2.092944e+02
2.340000e-06	1.409671e-06	3.112013e-09	9.998792e+00	2.033743e+02
2.350000e-06	1.310043e-06	3.011951e-09	9.292131e+00	1.973291e+02
2.360000e-06	1.210056e-06	2.916463e-09	8.582923e+00	1.911556e+02
2.370000e-06	1.109822e-06	2.824906e-09	7.871969e+00	1.848499e+02
2.380000e-06	1.009200e-06	2.733656e-09	7.158257e+00	1.784080e+02
2.390000e-06	9.079819e-07	2.634970e-09	6.440315e+00	1.718255e+02
2.400000e-06	8.062156e-07	2.526810e-09	5.718486e+00	1.650980e+02
2.410000e-06	7.040696e-07	2.417286e-09	4.993965e+00	1.582206e+02
2.420000e-06	6.017875e-07	2.312127e-09	4.268478e+00	1.511882e+02
2.430000e-06	4.993430e-07	2.209770e-09	3.541839e+00	1.439958e+02
2.440000e-06	3.966139e-07	2.100799e-09	2.813182e+00	1.366376e+02
2.450000e-06	2.937212e-07	1.977662e-09	2.083364e+00	1.291079e+02
2.460000e-06	1.906772e-07	1.849681e-09	1.352473e+00	1.214005e+02
2.470000e-06	8.749857e-08	1.728624e-09	6.206272e-01	1.135089e+02
2.480000e-06	-1.569379e-08	1.612947e-09	-1.113160e-01	1.054262e+02
2.490000e-06	-1.188372e-07	1.492270e-09	-8.429121e-01	9.714535e+01
2.500000e-06	-2.218881e-07	1.361126e-09	-1.573852e+00	8.865861e+01
2.510000e-06	-3.248826e-07	1.223492e-09	-2.304392e+00	7.995817e+01
2.520000e-06	-4.277940e-07	1.085740e-09	-3.034342e+00	7.103606e+01
2.530000e-06	-5.306093e-07	9.474541e-10	-3.763611e+00	6.188439e+01
2.540000e-06	-6.332734e-07	8.084827e-10	-4.491807e+00	5.249570e+01
2.550000e-06	-7.356153e-07	6.657235e-10	-5.217718e+00	4.286348e+01
2.560000e-06	-8.375422e-07	5.127726e-10	-5.940685e+00	3.298270e+01
2.570000e-06	-9.390092e-07	3.543218e-10	-6.660391e+00	2.285062e+01
2.580000e-06	-1.039932e-06	1.993742e-10	-7.376234e+00	1.246751e+01
2.590000e-06	-1.140372e-06	4.532699e-11	-8.088655e+00	1.837520e+00
2.600000e-06	-1.240423e-06	-1.190508e-10	-8.798317e+00	-9.030530e+00
2.610000e-06	-1.340072e-06	-2.937197e-10	-9.505128e+00	-2.012248e+01
2.620000e-06	-1.439353e-06	-4.677618e-10	-1.020933e+01	-3.141836e+01
2.630000e-06	-1.538217e-06	-6.395303e-10	-1.091057e+01	-4.289214e+01
2.640000e-06	-1.636503e-06	-8.130151e-10	-1.160771e+01	-5.451187e+01
2.650000e-06	-1.734134e-06	-9.907586e-10	-1.230021e+01	-6.624012e+01
2.660000e-06	-1.831137e-06	-1.172506e-09	-1.298825e+01	-7.803476e+01
2.670000e-06	-1.927540e-06	-1.356854e-09	-1.367204e+01	-8.985013e+01
2.680000e-06	-2.023425e-06	-1.540174e-09	-1.435215e+01	-1.016383e+02
2.690000e-06	-2.118729e-06	-1.717569e-09	-1.502814e+01	-1.133508e+02
2.700000e-06	-2.213208e-06	-1.890342e-09	-1.569828e+01	-1.249399e+02
2.710000e-06	-2.306621e-06	-2.063639e-09	-1.636086e+01	-1.363603e+02
2.720000e-06	-2.398952e-06	-2.238357e-09	-1.701577e+01	-1.475701e+02
2.730000e-06	-2.490462e-06	-2.406860e-09	-1.766484e+01	-1.585325e+02
2.740000e-06	-2.581195e-06	-2.566559e-09	-1.830842e+01	-1.692158e+02
2.750000e-06	-2.670943e-06	-2.720941e-09	-1.894499e+01	-1.795940e+02
2.760000e-06	-2.759668e-06	-2.873211e-09	-1.957432e+01	-1.896471e+02
2.770000e-06	-2.847645e-06	-3.023189e-09	-2.019834e+01	-1.993605e+02
2.780000e-06	-2.934888e-06	-3.169336e-09	-2.081716e+01	-2.087243e+02
2.790000e-06	-3.020929e-06	-3.307627e-09	-2.142744e+01	-2.177335e+02
2.800000e-06	-3.105613e-06	-3.437202e-09	-2.202811e+01	-2.263866e+02
2.810000e-06	-3.189213e-06	-3.562718e-09	-2.262108e+01	-2.346852e+02
2.820000e-06	-3.271849e-06	-3.686481e-09	-2.320722e+01	-2.426338e+02
2.830000e-06	-3.353386e-06	-3.808234e-09	-2.378556e+01	-2.502391e+02
2.840000e-06	-3.433820e-06	-3.923090e-09	-2.435608e+01	-2.575101e+02
2.850000e-06	-3.513244e-06	-4.030246e-09	-2.491943e+01	-2.644577e+02
2.860000e-06	-3.591225e-06	-4.131583e-09	-2.547256e+01	-2.710946e+02
2.870000e-06	-3.667556e-06	-4.226415e-09	-2.601397e+01	-2.774356e+02
2.880000e-06	-3.742424e-06	-4.318430e-09	-2.654501e+01	-2.834967e+02
2.890000e-06	-3.815796e-06	-4.407753e-09	-2.706544e+01	-2.892955e+02
2.900000e-06	-3.887902e-06	-4.491804e-09	-2.757688e+01	-2.948501e+02
2.910000e-06	-3.958757e-06	-4.570657e-09	-2.807946e+01	-3.001788e+02
2.920000e-06	-4.027977e-06	-4.648323e-09	-2.857044e+01	-3.052991e+02
2.930000e-06	-4.095653e-06	-4.725546e-09	-2.905046e+01	-3.102269e+02
2.940000e-06	-4.161970e-06	-4.798634e-09	-2.952085e+01	-3.149757e+02
