# Temperatura_=_42.06
# Concentracion g/m^3_=_15000.0
# C_Vs_to_Am_M_A/Vsm_=_65563218390.804596
# pendiente_HvsI_1/m_=_3716.3
# ordenada_HvsI_A/m_=_1297.0
# frecuencia_Hz_=_301595.09090491774

Tiempo_(s)	Campo_(V.s)	Magnetizacion_(V.s)	Campo_(kA/m)	Magnetizacion_(A/m)
0.000000e+00	-5.385230e-06	-5.997511e-09	-3.833976e+01	-3.924515e+02
1.000000e-08	-5.382697e-06	-5.995831e-09	-3.832173e+01	-3.923479e+02
2.000000e-08	-5.378364e-06	-5.989865e-09	-3.829088e+01	-3.921631e+02
3.000000e-08	-5.372353e-06	-5.982619e-09	-3.824808e+01	-3.918917e+02
4.000000e-08	-5.364739e-06	-5.975887e-09	-3.819387e+01	-3.915296e+02
5.000000e-08	-5.355336e-06	-5.968489e-09	-3.812693e+01	-3.910757e+02
6.000000e-08	-5.343853e-06	-5.960291e-09	-3.804518e+01	-3.905319e+02
7.000000e-08	-5.330485e-06	-5.949514e-09	-3.795001e+01	-3.899032e+02
8.000000e-08	-5.315139e-06	-5.944687e-09	-3.784075e+01	-3.891982e+02
9.000000e-08	-5.297536e-06	-5.960437e-09	-3.771543e+01	-3.884270e+02
1.000000e-07	-5.277819e-06	-5.957971e-09	-3.757506e+01	-3.876011e+02
1.100000e-07	-5.256181e-06	-5.924206e-09	-3.742101e+01	-3.867310e+02
1.200000e-07	-5.232841e-06	-5.893038e-09	-3.725484e+01	-3.858255e+02
1.300000e-07	-5.207993e-06	-5.844612e-09	-3.707793e+01	-3.848901e+02
1.400000e-07	-5.181527e-06	-5.830045e-09	-3.688951e+01	-3.839261e+02
1.500000e-07	-5.153405e-06	-5.877127e-09	-3.668930e+01	-3.829306e+02
1.600000e-07	-5.123781e-06	-5.841515e-09	-3.647839e+01	-3.818961e+02
1.700000e-07	-5.092605e-06	-5.802647e-09	-3.625643e+01	-3.808120e+02
1.800000e-07	-5.059362e-06	-5.808329e-09	-3.601977e+01	-3.796651e+02
1.900000e-07	-5.024175e-06	-5.740233e-09	-3.576926e+01	-3.784415e+02
2.000000e-07	-4.987525e-06	-5.730967e-09	-3.550833e+01	-3.771279e+02
2.100000e-07	-4.949159e-06	-5.764079e-09	-3.523518e+01	-3.757135e+02
2.200000e-07	-4.908945e-06	-5.724372e-09	-3.494888e+01	-3.741903e+02
2.300000e-07	-4.866851e-06	-5.691048e-09	-3.464919e+01	-3.725548e+02
2.400000e-07	-4.822874e-06	-5.644202e-09	-3.433610e+01	-3.708072e+02
2.500000e-07	-4.777126e-06	-5.593891e-09	-3.401041e+01	-3.689519e+02
2.600000e-07	-4.729491e-06	-5.584673e-09	-3.367128e+01	-3.669958e+02
2.700000e-07	-4.679775e-06	-5.560030e-09	-3.331732e+01	-3.649478e+02
2.800000e-07	-4.627977e-06	-5.538616e-09	-3.294855e+01	-3.628171e+02
2.900000e-07	-4.574319e-06	-5.492939e-09	-3.256654e+01	-3.606122e+02
3.000000e-07	-4.519061e-06	-5.432391e-09	-3.217313e+01	-3.583394e+02
3.100000e-07	-4.462169e-06	-5.421263e-09	-3.176810e+01	-3.560024e+02
3.200000e-07	-4.403433e-06	-5.416116e-09	-3.134992e+01	-3.536018e+02
3.300000e-07	-4.343039e-06	-5.374763e-09	-3.091996e+01	-3.511353e+02
3.400000e-07	-4.281217e-06	-5.310008e-09	-3.047982e+01	-3.485980e+02
3.500000e-07	-4.218017e-06	-5.262304e-09	-3.002987e+01	-3.459838e+02
3.600000e-07	-4.153318e-06	-5.234464e-09	-2.956925e+01	-3.432858e+02
3.700000e-07	-4.086914e-06	-5.206397e-09	-2.909649e+01	-3.404975e+02
3.800000e-07	-4.018914e-06	-5.171135e-09	-2.861237e+01	-3.376138e+02
3.900000e-07	-3.949553e-06	-5.110670e-09	-2.811856e+01	-3.346316e+02
4.000000e-07	-3.878926e-06	-5.042268e-09	-2.761574e+01	-3.315498e+02
4.100000e-07	-3.807138e-06	-4.991559e-09	-2.710465e+01	-3.283693e+02
4.200000e-07	-3.734032e-06	-4.956813e-09	-2.658417e+01	-3.250929e+02
4.300000e-07	-3.659317e-06	-4.922531e-09	-2.605224e+01	-3.217242e+02
4.400000e-07	-3.583043e-06	-4.867935e-09	-2.550922e+01	-3.182668e+02
4.500000e-07	-3.505313e-06	-4.798705e-09	-2.495582e+01	-3.147239e+02
4.600000e-07	-3.426184e-06	-4.731317e-09	-2.439247e+01	-3.110975e+02
4.700000e-07	-3.345755e-06	-4.683063e-09	-2.381986e+01	-3.073878e+02
4.800000e-07	-3.264065e-06	-4.642846e-09	-2.323828e+01	-3.035932e+02
4.900000e-07	-3.181200e-06	-4.584544e-09	-2.264832e+01	-2.997106e+02
5.000000e-07	-3.097326e-06	-4.512775e-09	-2.205119e+01	-2.957356e+02
5.100000e-07	-3.012564e-06	-4.440637e-09	-2.144773e+01	-2.916633e+02
5.200000e-07	-2.926840e-06	-4.377449e-09	-2.083743e+01	-2.874886e+02
5.300000e-07	-2.840120e-06	-4.319326e-09	-2.022003e+01	-2.832075e+02
5.400000e-07	-2.752556e-06	-4.256282e-09	-1.959663e+01	-2.788168e+02
5.500000e-07	-2.664029e-06	-4.179859e-09	-1.896637e+01	-2.743151e+02
5.600000e-07	-2.574276e-06	-4.095344e-09	-1.832737e+01	-2.697021e+02
5.700000e-07	-2.483387e-06	-4.023608e-09	-1.768029e+01	-2.649792e+02
5.800000e-07	-2.391636e-06	-3.967458e-09	-1.702708e+01	-2.601483e+02
5.900000e-07	-2.299171e-06	-3.903680e-09	-1.636878e+01	-2.552117e+02
6.000000e-07	-2.205925e-06	-3.817835e-09	-1.570492e+01	-2.501713e+02
6.100000e-07	-2.111766e-06	-3.726891e-09	-1.503456e+01	-2.450282e+02
6.200000e-07	-2.016816e-06	-3.644565e-09	-1.435858e+01	-2.397820e+02
6.300000e-07	-1.921273e-06	-3.566514e-09	-1.367837e+01	-2.344310e+02
6.400000e-07	-1.825114e-06	-3.488441e-09	-1.299377e+01	-2.289720e+02
6.500000e-07	-1.728170e-06	-3.406114e-09	-1.230359e+01	-2.234007e+02
6.600000e-07	-1.630412e-06	-3.313869e-09	-1.160760e+01	-2.177120e+02
6.700000e-07	-1.531965e-06	-3.215854e-09	-1.090671e+01	-2.119002e+02
6.800000e-07	-1.432928e-06	-3.125771e-09	-1.020163e+01	-2.059603e+02
6.900000e-07	-1.333404e-06	-3.042769e-09	-9.493073e+00	-1.998876e+02
7.000000e-07	-1.233500e-06	-2.953471e-09	-8.781819e+00	-1.936784e+02
7.100000e-07	-1.133263e-06	-2.853646e-09	-8.068185e+00	-1.873300e+02
7.200000e-07	-1.032721e-06	-2.749487e-09	-7.352386e+00	-1.808406e+02
7.300000e-07	-9.318973e-07	-2.647145e-09	-6.634576e+00	-1.742087e+02
7.400000e-07	-8.307374e-07	-2.545847e-09	-5.914375e+00	-1.674334e+02
7.500000e-07	-7.292612e-07	-2.443354e-09	-5.191923e+00	-1.605130e+02
7.600000e-07	-6.275401e-07	-2.335883e-09	-4.467727e+00	-1.534451e+02
7.700000e-07	-5.255988e-07	-2.221131e-09	-3.741963e+00	-1.462263e+02
7.800000e-07	-4.234708e-07	-2.105741e-09	-3.014870e+00	-1.388517e+02
7.900000e-07	-3.211876e-07	-1.994381e-09	-2.286672e+00	-1.313148e+02
8.000000e-07	-2.187862e-07	-1.884106e-09	-1.557633e+00	-1.236080e+02
8.100000e-07	-1.163107e-07	-1.767184e-09	-8.280660e-01	-1.157224e+02
8.200000e-07	-1.377682e-08	-1.639658e-09	-9.808309e-02	-1.076486e+02
8.300000e-07	8.878367e-08	-1.507960e-09	6.320890e-01	-9.937665e+01
8.400000e-07	1.913820e-07	-1.377980e-09	1.362530e+00	-9.089689e+01
8.500000e-07	2.939701e-07	-1.248813e-09	2.092899e+00	-8.219992e+01
8.600000e-07	3.964511e-07	-1.116004e-09	2.822505e+00	-7.327701e+01
8.700000e-07	4.987770e-07	-9.745896e-10	3.551007e+00	-6.412030e+01
8.800000e-07	6.009321e-07	-8.265069e-10	4.278293e+00	-5.472293e+01
8.900000e-07	7.029087e-07	-6.775605e-10	5.004308e+00	-4.507923e+01
9.000000e-07	8.046349e-07	-5.268371e-10	5.728541e+00	-3.518496e+01
9.100000e-07	9.060450e-07	-3.709973e-10	6.450523e+00	-2.503771e+01
9.200000e-07	1.007158e-06	-2.102503e-10	7.170392e+00	-1.463738e+01
9.300000e-07	1.107933e-06	-4.548741e-11	7.887852e+00	-3.986860e+00
9.400000e-07	1.208294e-06	1.217839e-10	8.602362e+00	6.907150e+00
9.500000e-07	1.308250e-06	2.905585e-10	9.313991e+00	1.803335e+01
9.600000e-07	1.407846e-06	4.608149e-10	1.002306e+01	2.937502e+01
9.700000e-07	1.507012e-06	6.348085e-10	1.072906e+01	4.090945e+01
9.800000e-07	1.605517e-06	8.144266e-10	1.143036e+01	5.260756e+01
9.900000e-07	1.703230e-06	9.973533e-10	1.212602e+01	6.443397e+01
1.000000e-06	1.800092e-06	1.178990e-09	1.281563e+01	7.634751e+01
1.010000e-06	1.896167e-06	1.359539e-09	1.349963e+01	8.830215e+01
1.020000e-06	1.991593e-06	1.540732e-09	1.417901e+01	1.002484e+02
1.030000e-06	2.086346e-06	1.720618e-09	1.485359e+01	1.121348e+02
1.040000e-06	2.180362e-06	1.899497e-09	1.552293e+01	1.239105e+02
1.050000e-06	2.273609e-06	2.076175e-09	1.618679e+01	1.355262e+02
1.060000e-06	2.366107e-06	2.249534e-09	1.684533e+01	1.469367e+02
1.070000e-06	2.457912e-06	2.418112e-09	1.749893e+01	1.581021e+02
1.080000e-06	2.548984e-06	2.582661e-09	1.814731e+01	1.689891e+02
1.090000e-06	2.638997e-06	2.745025e-09	1.878815e+01	1.795710e+02
1.100000e-06	2.727719e-06	2.903607e-09	1.941980e+01	1.898282e+02
1.110000e-06	2.815432e-06	3.055228e-09	2.004427e+01	1.997477e+02
1.120000e-06	2.902313e-06	3.200352e-09	2.066281e+01	2.093220e+02
1.130000e-06	2.988289e-06	3.340790e-09	2.127491e+01	2.185482e+02
1.140000e-06	3.073312e-06	3.477138e-09	2.188022e+01	2.274268e+02
1.150000e-06	3.157420e-06	3.608238e-09	2.247902e+01	2.359606e+02
1.160000e-06	3.240590e-06	3.731887e-09	2.307115e+01	2.441541e+02
1.170000e-06	3.322477e-06	3.848300e-09	2.365414e+01	2.520126e+02
1.180000e-06	3.403050e-06	3.959695e-09	2.422777e+01	2.595421e+02
1.190000e-06	3.482486e-06	4.067619e-09	2.479331e+01	2.667496e+02
1.200000e-06	3.560702e-06	4.172431e-09	2.535016e+01	2.736430e+02
1.210000e-06	3.637667e-06	4.274493e-09	2.589811e+01	2.802319e+02
1.220000e-06	3.713311e-06	4.370986e-09	2.643666e+01	2.865276e+02
1.230000e-06	3.787407e-06	4.460355e-09	2.696417e+01	2.925436e+02
1.240000e-06	3.859855e-06	4.544034e-09	2.747996e+01	2.982954e+02
1.250000e-06	3.930863e-06	4.626514e-09	2.798550e+01	3.037999e+02
1.260000e-06	4.000531e-06	4.709274e-09	2.848150e+01	3.090750e+02
1.270000e-06	4.068886e-06	4.788643e-09	2.896814e+01	3.141385e+02
1.280000e-06	4.135874e-06	4.863163e-09	2.944506e+01	3.190069e+02
1.290000e-06	4.201174e-06	4.934892e-09	2.990996e+01	3.236945e+02
1.300000e-06	4.264792e-06	5.004205e-09	3.036288e+01	3.282122e+02
1.310000e-06	4.326958e-06	5.071035e-09	3.080547e+01	3.325673e+02
1.320000e-06	4.387768e-06	5.135478e-09	3.123840e+01	3.367626e+02
1.330000e-06	4.447207e-06	5.195780e-09	3.166157e+01	3.407973e+02
1.340000e-06	4.504947e-06	5.251082e-09	3.207265e+01	3.446677e+02
1.350000e-06	4.560848e-06	5.304219e-09	3.247063e+01	3.483677e+02
1.360000e-06	4.615132e-06	5.356831e-09	3.285710e+01	3.518908e+02
1.370000e-06	4.667734e-06	5.405848e-09	3.323160e+01	3.552311e+02
1.380000e-06	4.718317e-06	5.450667e-09	3.359172e+01	3.583851e+02
1.390000e-06	4.766884e-06	5.493900e-09	3.393749e+01	3.613519e+02
1.400000e-06	4.813750e-06	5.535189e-09	3.427115e+01	3.641345e+02
1.410000e-06	4.859067e-06	5.573667e-09	3.459378e+01	3.667395e+02
1.420000e-06	4.902813e-06	5.608763e-09	3.490523e+01	3.691769e+02
1.430000e-06	4.944658e-06	5.641011e-09	3.520314e+01	3.714587e+02
1.440000e-06	4.984578e-06	5.672185e-09	3.548735e+01	3.735985e+02
1.450000e-06	5.022888e-06	5.700307e-09	3.576009e+01	3.756091e+02
1.460000e-06	5.059654e-06	5.725515e-09	3.602185e+01	3.775023e+02
1.470000e-06	5.094701e-06	5.751222e-09	3.627136e+01	3.792870e+02
1.480000e-06	5.127835e-06	5.776721e-09	3.650726e+01	3.809689e+02
1.490000e-06	5.159135e-06	5.799551e-09	3.673009e+01	3.825503e+02
1.500000e-06	5.188694e-06	5.819619e-09	3.694054e+01	3.840303e+02
1.510000e-06	5.216514e-06	5.838835e-09	3.713860e+01	3.854055e+02
1.520000e-06	5.242381e-06	5.857777e-09	3.732275e+01	3.866714e+02
1.530000e-06	5.266191e-06	5.875359e-09	3.749227e+01	3.878231e+02
1.540000e-06	5.288122e-06	5.891187e-09	3.764841e+01	3.888571e+02
1.550000e-06	5.308356e-06	5.904673e-09	3.779246e+01	3.897718e+02
1.560000e-06	5.326771e-06	5.915947e-09	3.792356e+01	3.905682e+02
1.570000e-06	5.343152e-06	5.926607e-09	3.804019e+01	3.912504e+02
1.580000e-06	5.357567e-06	5.937381e-09	3.814282e+01	3.918250e+02
1.590000e-06	5.369965e-06	5.946838e-09	3.823108e+01	3.923003e+02
1.600000e-06	5.380147e-06	5.953981e-09	3.830357e+01	3.926857e+02
1.610000e-06	5.388246e-06	5.959563e-09	3.836123e+01	3.929899e+02
1.620000e-06	5.394499e-06	5.964659e-09	3.840575e+01	3.932203e+02
1.630000e-06	5.399008e-06	5.969144e-09	3.843785e+01	3.933818e+02
1.640000e-06	5.401596e-06	5.972346e-09	3.845627e+01	3.934767e+02
1.650000e-06	5.402119e-06	5.975099e-09	3.846000e+01	3.935038e+02
1.660000e-06	5.400800e-06	5.975805e-09	3.845061e+01	3.934596e+02
1.670000e-06	5.397823e-06	5.973063e-09	3.842941e+01	3.933390e+02
1.680000e-06	5.393173e-06	5.971035e-09	3.839631e+01	3.931360e+02
1.690000e-06	5.386660e-06	5.968742e-09	3.834994e+01	3.928452e+02
1.700000e-06	5.378361e-06	5.964715e-09	3.829086e+01	3.924634e+02
1.710000e-06	5.368496e-06	5.960310e-09	3.822062e+01	3.919899e+02
1.720000e-06	5.356952e-06	5.956871e-09	3.813844e+01	3.914272e+02
1.730000e-06	5.343420e-06	5.948987e-09	3.804210e+01	3.907813e+02
1.740000e-06	5.327780e-06	5.908012e-09	3.793075e+01	3.900610e+02
1.750000e-06	5.309844e-06	5.880192e-09	3.780305e+01	3.892770e+02
1.760000e-06	5.289277e-06	5.891158e-09	3.765663e+01	3.884406e+02
1.770000e-06	5.266346e-06	5.893397e-09	3.749337e+01	3.875622e+02
1.780000e-06	5.241977e-06	5.921314e-09	3.731988e+01	3.866499e+02
1.790000e-06	5.216861e-06	5.885185e-09	3.714107e+01	3.857083e+02
1.800000e-06	5.190491e-06	5.794147e-09	3.695333e+01	3.847378e+02
1.810000e-06	5.161955e-06	5.828305e-09	3.675017e+01	3.837346e+02
1.820000e-06	5.131526e-06	5.807097e-09	3.653353e+01	3.826904e+02
1.830000e-06	5.099450e-06	5.763924e-09	3.630517e+01	3.815939e+02
1.840000e-06	5.065402e-06	5.841706e-09	3.606277e+01	3.804316e+02
1.850000e-06	5.029726e-06	5.794233e-09	3.580878e+01	3.791897e+02
1.860000e-06	4.992290e-06	5.735030e-09	3.554225e+01	3.778552e+02
1.870000e-06	4.952917e-06	5.747746e-09	3.526194e+01	3.764179e+02
1.880000e-06	4.911940e-06	5.689266e-09	3.497021e+01	3.748707e+02
1.890000e-06	4.869153e-06	5.713862e-09	3.466559e+01	3.732109e+02
1.900000e-06	4.824698e-06	5.701748e-09	3.434909e+01	3.714397e+02
1.910000e-06	4.778527e-06	5.638660e-09	3.402038e+01	3.695619e+02
1.920000e-06	4.730282e-06	5.644149e-09	3.367691e+01	3.675852e+02
1.930000e-06	4.680361e-06	5.551216e-09	3.332149e+01	3.655186e+02
1.940000e-06	4.628737e-06	5.533872e-09	3.295396e+01	3.633713e+02
1.950000e-06	4.574960e-06	5.566028e-09	3.257110e+01	3.611513e+02
1.960000e-06	4.519230e-06	5.493394e-09	3.217434e+01	3.588644e+02
1.970000e-06	4.461858e-06	5.440159e-09	3.176588e+01	3.565137e+02
1.980000e-06	4.403050e-06	5.385674e-09	3.134720e+01	3.540992e+02
1.990000e-06	4.342703e-06	5.378306e-09	3.091757e+01	3.516178e+02
2.000000e-06	4.280613e-06	5.355797e-09	3.047552e+01	3.490645e+02
2.010000e-06	4.216971e-06	5.284623e-09	3.002242e+01	3.464328e+02
2.020000e-06	4.151832e-06	5.258354e-09	2.955867e+01	3.437158e+02
2.030000e-06	4.085247e-06	5.196250e-09	2.908462e+01	3.409074e+02
2.040000e-06	4.017294e-06	5.148591e-09	2.860084e+01	3.380027e+02
2.050000e-06	3.947907e-06	5.119341e-09	2.810684e+01	3.349990e+02
2.060000e-06	3.876974e-06	5.089431e-09	2.760184e+01	3.318958e+02
2.070000e-06	3.804602e-06	5.047366e-09	2.708660e+01	3.286944e+02
2.080000e-06	3.730969e-06	4.952797e-09	2.656237e+01	3.253978e+02
2.090000e-06	3.656003e-06	4.898105e-09	2.602865e+01	3.220096e+02
2.100000e-06	3.579626e-06	4.865088e-09	2.548489e+01	3.185336e+02
2.110000e-06	3.501617e-06	4.826290e-09	2.492951e+01	3.149726e+02
2.120000e-06	3.422179e-06	4.768632e-09	2.436396e+01	3.113282e+02
2.130000e-06	3.341646e-06	4.697338e-09	2.379061e+01	3.076004e+02
2.140000e-06	3.259966e-06	4.641614e-09	2.320910e+01	3.037872e+02
2.150000e-06	3.177163e-06	4.574446e-09	2.261959e+01	2.998851e+02
2.160000e-06	3.093361e-06	4.523906e-09	2.202296e+01	2.958896e+02
2.170000e-06	3.008486e-06	4.477733e-09	2.141870e+01	2.917956e+02
2.180000e-06	2.922270e-06	4.409633e-09	2.080489e+01	2.875983e+02
2.190000e-06	2.834795e-06	4.322833e-09	2.018212e+01	2.832938e+02
2.200000e-06	2.746366e-06	4.247400e-09	1.955256e+01	2.788793e+02
2.210000e-06	2.657047e-06	4.200883e-09	1.891665e+01	2.743536e+02
2.220000e-06	2.566785e-06	4.141572e-09	1.827404e+01	2.697168e+02
2.230000e-06	2.475681e-06	4.057302e-09	1.762543e+01	2.649705e+02
2.240000e-06	2.383838e-06	3.971763e-09	1.697157e+01	2.601166e+02
2.250000e-06	2.291168e-06	3.898915e-09	1.631181e+01	2.551576e+02
2.260000e-06	2.197615e-06	3.825350e-09	1.564576e+01	2.500950e+02
2.270000e-06	2.103106e-06	3.752333e-09	1.497291e+01	2.449297e+02
2.280000e-06	2.007603e-06	3.678105e-09	1.429299e+01	2.396611e+02
2.290000e-06	1.911316e-06	3.590124e-09	1.360748e+01	2.342872e+02
2.300000e-06	1.814487e-06	3.493053e-09	1.291811e+01	2.288044e+02
2.310000e-06	1.717229e-06	3.405728e-09	1.222569e+01	2.232083e+02
2.320000e-06	1.619452e-06	3.334850e-09	1.152957e+01	2.174935e+02
2.330000e-06	1.521069e-06	3.258284e-09	1.082914e+01	2.116547e+02
2.340000e-06	1.422159e-06	3.161134e-09	1.012496e+01	2.056865e+02
2.350000e-06	1.322852e-06	3.053332e-09	9.417948e+00	1.995847e+02
2.360000e-06	1.223209e-06	2.953914e-09	8.708551e+00	1.933458e+02
2.370000e-06	1.123307e-06	2.863333e-09	7.997300e+00	1.869672e+02
2.380000e-06	1.023108e-06	2.771145e-09	7.283941e+00	1.804472e+02
2.390000e-06	9.224793e-07	2.671384e-09	6.567525e+00	1.737847e+02
2.400000e-06	8.214498e-07	2.562833e-09	5.848253e+00	1.669782e+02
2.410000e-06	7.200625e-07	2.452425e-09	5.126433e+00	1.600263e+02
2.420000e-06	6.183938e-07	2.345281e-09	4.402611e+00	1.529264e+02
2.430000e-06	5.164859e-07	2.240651e-09	3.677085e+00	1.456746e+02
2.440000e-06	4.142889e-07	2.130930e-09	2.949500e+00	1.382656e+02
2.450000e-06	3.118342e-07	2.007249e-09	2.220081e+00	1.306929e+02
2.460000e-06	2.092016e-07	1.878678e-09	1.489396e+00	1.229484e+02
2.470000e-06	1.064664e-07	1.758042e-09	7.579801e-01	1.150232e+02
2.480000e-06	3.674548e-09	1.642945e-09	2.616068e-02	1.069077e+02
2.490000e-06	-9.910111e-08	1.523272e-09	-7.055433e-01	9.859191e+01
2.500000e-06	-2.018326e-07	1.391283e-09	-1.436933e+00	9.006626e+01
2.510000e-06	-3.044762e-07	1.252290e-09	-2.167697e+00	8.132147e+01
2.520000e-06	-4.069805e-07	1.113352e-09	-2.897469e+00	7.234898e+01
2.530000e-06	-5.093897e-07	9.746063e-10	-3.626564e+00	6.314113e+01
2.540000e-06	-6.115915e-07	8.357368e-10	-4.354182e+00	5.369130e+01
2.550000e-06	-7.134177e-07	6.928865e-10	-5.079126e+00	4.399409e+01
2.560000e-06	-8.148387e-07	5.403341e-10	-5.801186e+00	3.404564e+01
2.570000e-06	-9.158551e-07	3.804953e-10	-6.520365e+00	2.384396e+01
2.580000e-06	-1.016439e-06	2.215735e-10	-7.236463e+00	1.338954e+01
2.590000e-06	-1.116593e-06	6.426179e-11	-7.949503e+00	2.686029e+00
2.600000e-06	-1.216413e-06	-9.876361e-11	-8.660166e+00	-8.258971e+00
2.610000e-06	-1.315891e-06	-2.708848e-10	-9.368390e+00	-1.943306e+01
2.620000e-06	-1.414934e-06	-4.457904e-10	-1.007352e+01	-3.081827e+01
2.630000e-06	-1.513534e-06	-6.209853e-10	-1.077550e+01	-4.239055e+01
2.640000e-06	-1.611614e-06	-7.987422e-10	-1.147377e+01	-5.411945e+01
2.650000e-06	-1.709070e-06	-9.791337e-10	-1.216760e+01	-6.596830e+01
2.660000e-06	-1.805863e-06	-1.162969e-09	-1.285671e+01	-7.789478e+01
2.670000e-06	-1.902075e-06	-1.351136e-09	-1.354168e+01	-8.985197e+01
2.680000e-06	-1.997818e-06	-1.538237e-09	-1.422332e+01	-1.017898e+02
2.690000e-06	-2.093002e-06	-1.719078e-09	-1.490098e+01	-1.136569e+02
2.700000e-06	-2.187313e-06	-1.895059e-09	-1.557242e+01	-1.254024e+02
2.710000e-06	-2.280478e-06	-2.069926e-09	-1.623570e+01	-1.369779e+02
2.720000e-06	-2.372634e-06	-2.244899e-09	-1.689180e+01	-1.483392e+02
2.730000e-06	-2.464002e-06	-2.414908e-09	-1.754229e+01	-1.594477e+02
2.740000e-06	-2.554574e-06	-2.576034e-09	-1.818711e+01	-1.702714e+02
2.750000e-06	-2.644236e-06	-2.732063e-09	-1.882545e+01	-1.807852e+02
2.760000e-06	-2.732896e-06	-2.886770e-09	-1.945666e+01	-1.909711e+02
2.770000e-06	-2.820739e-06	-3.040076e-09	-2.008205e+01	-2.008172e+02
2.780000e-06	-2.907781e-06	-3.189928e-09	-2.070174e+01	-2.103171e+02
2.790000e-06	-2.993694e-06	-3.331513e-09	-2.131339e+01	-2.194687e+02
2.800000e-06	-3.078364e-06	-3.464093e-09	-2.191620e+01	-2.282733e+02
2.810000e-06	-3.161920e-06	-3.590704e-09	-2.251106e+01	-2.367339e+02
2.820000e-06	-3.244437e-06	-3.714773e-09	-2.309854e+01	-2.448552e+02
2.830000e-06	-3.325876e-06	-3.835723e-09	-2.367833e+01	-2.526428e+02
2.840000e-06	-3.406294e-06	-3.951881e-09	-2.425086e+01	-2.601028e+02
2.850000e-06	-3.485656e-06	-4.063501e-09	-2.481588e+01	-2.672424e+02
2.860000e-06	-3.563568e-06	-4.168873e-09	-2.537057e+01	-2.740698e+02
2.870000e-06	-3.639889e-06	-4.268502e-09	-2.591393e+01	-2.805949e+02
2.880000e-06	-3.714747e-06	-4.365093e-09	-2.644687e+01	-2.868296e+02
2.890000e-06	-3.788185e-06	-4.457674e-09	-2.696972e+01	-2.927878e+02
2.900000e-06	-3.860389e-06	-4.544054e-09	-2.748376e+01	-2.984852e+02
2.910000e-06	-3.931313e-06	-4.624127e-09	-2.798870e+01	-3.039391e+02
2.920000e-06	-4.000571e-06	-4.701923e-09	-2.848178e+01	-3.091675e+02
2.930000e-06	-4.068209e-06	-4.780297e-09	-2.896332e+01	-3.141880e+02
2.940000e-06	-4.134442e-06	-4.856229e-09	-2.943487e+01	-3.190167e+02
