# Temperatura_=_29.26
# Concentracion g/m^3_=_15000.0
# C_Vs_to_Am_M_A/Vsm_=_65563218390.804596
# pendiente_HvsI_1/m_=_3716.3
# ordenada_HvsI_A/m_=_1297.0
# frecuencia_Hz_=_301602.0324664697

Tiempo_(s)	Campo_(V.s)	Magnetizacion_(V.s)	Campo_(kA/m)	Magnetizacion_(A/m)
0.000000e+00	-5.371607e-06	-5.710544e-09	-3.833503e+01	-3.730815e+02
1.000000e-08	-5.368979e-06	-5.707367e-09	-3.831627e+01	-3.729600e+02
2.000000e-08	-5.364560e-06	-5.701787e-09	-3.828474e+01	-3.727564e+02
3.000000e-08	-5.358523e-06	-5.695103e-09	-3.824165e+01	-3.724716e+02
4.000000e-08	-5.350915e-06	-5.689571e-09	-3.818736e+01	-3.721080e+02
5.000000e-08	-5.341473e-06	-5.684454e-09	-3.811997e+01	-3.716694e+02
6.000000e-08	-5.329974e-06	-5.675885e-09	-3.803791e+01	-3.711610e+02
7.000000e-08	-5.316570e-06	-5.666066e-09	-3.794225e+01	-3.705884e+02
8.000000e-08	-5.301104e-06	-5.660503e-09	-3.783188e+01	-3.699576e+02
9.000000e-08	-5.283401e-06	-5.665096e-09	-3.770554e+01	-3.692735e+02
1.000000e-07	-5.263586e-06	-5.659555e-09	-3.756413e+01	-3.685402e+02
1.100000e-07	-5.241885e-06	-5.633353e-09	-3.740926e+01	-3.677596e+02
1.200000e-07	-5.218522e-06	-5.608638e-09	-3.724252e+01	-3.669317e+02
1.300000e-07	-5.193637e-06	-5.571122e-09	-3.706493e+01	-3.660544e+02
1.400000e-07	-5.167158e-06	-5.549539e-09	-3.687596e+01	-3.651236e+02
1.500000e-07	-5.139009e-06	-5.563725e-09	-3.667507e+01	-3.641338e+02
1.600000e-07	-5.109382e-06	-5.544360e-09	-3.646363e+01	-3.630789e+02
1.700000e-07	-5.078170e-06	-5.546472e-09	-3.624089e+01	-3.619526e+02
1.800000e-07	-5.044920e-06	-5.563063e-09	-3.600359e+01	-3.607493e+02
1.900000e-07	-5.009814e-06	-5.484597e-09	-3.575306e+01	-3.594647e+02
2.000000e-07	-4.973198e-06	-5.407425e-09	-3.549174e+01	-3.580963e+02
2.100000e-07	-4.934868e-06	-5.390355e-09	-3.521819e+01	-3.566435e+02
2.200000e-07	-4.894739e-06	-5.383908e-09	-3.493181e+01	-3.551076e+02
2.300000e-07	-4.852681e-06	-5.396273e-09	-3.463166e+01	-3.534914e+02
2.400000e-07	-4.808678e-06	-5.379149e-09	-3.431763e+01	-3.517988e+02
2.500000e-07	-4.762893e-06	-5.337189e-09	-3.399088e+01	-3.500340e+02
2.600000e-07	-4.715239e-06	-5.312702e-09	-3.365079e+01	-3.482013e+02
2.700000e-07	-4.665583e-06	-5.277760e-09	-3.329641e+01	-3.463040e+02
2.800000e-07	-4.613853e-06	-5.260023e-09	-3.292724e+01	-3.443446e+02
2.900000e-07	-4.560249e-06	-5.232963e-09	-3.254469e+01	-3.423238e+02
3.000000e-07	-4.505048e-06	-5.174921e-09	-3.215074e+01	-3.402412e+02
3.100000e-07	-4.448223e-06	-5.152430e-09	-3.174520e+01	-3.380949e+02
3.200000e-07	-4.389561e-06	-5.141100e-09	-3.132656e+01	-3.358823e+02
3.300000e-07	-4.329242e-06	-5.099138e-09	-3.089609e+01	-3.336001e+02
3.400000e-07	-4.267512e-06	-5.043953e-09	-3.045554e+01	-3.312450e+02
3.500000e-07	-4.204415e-06	-4.997137e-09	-3.000524e+01	-3.288141e+02
3.600000e-07	-4.139879e-06	-4.966215e-09	-2.954467e+01	-3.263048e+02
3.700000e-07	-4.073682e-06	-4.940574e-09	-2.907225e+01	-3.237155e+02
3.800000e-07	-4.005835e-06	-4.911630e-09	-2.858806e+01	-3.210454e+02
3.900000e-07	-3.936571e-06	-4.862098e-09	-2.809374e+01	-3.182940e+02
4.000000e-07	-3.866109e-06	-4.797498e-09	-2.759089e+01	-3.154616e+02
4.100000e-07	-3.794441e-06	-4.740832e-09	-2.707942e+01	-3.125480e+02
4.200000e-07	-3.721381e-06	-4.700016e-09	-2.655802e+01	-3.095533e+02
4.300000e-07	-3.646729e-06	-4.674123e-09	-2.602526e+01	-3.064768e+02
4.400000e-07	-3.570455e-06	-4.643472e-09	-2.548092e+01	-3.033173e+02
4.500000e-07	-3.492754e-06	-4.590659e-09	-2.492640e+01	-3.000730e+02
4.600000e-07	-3.413753e-06	-4.524655e-09	-2.436260e+01	-2.967415e+02
4.700000e-07	-3.333508e-06	-4.465428e-09	-2.378993e+01	-2.933204e+02
4.800000e-07	-3.252053e-06	-4.414204e-09	-2.320861e+01	-2.898071e+02
4.900000e-07	-3.169420e-06	-4.358346e-09	-2.261889e+01	-2.861993e+02
5.000000e-07	-3.085703e-06	-4.298954e-09	-2.202144e+01	-2.824952e+02
5.100000e-07	-3.001082e-06	-4.238438e-09	-2.141753e+01	-2.786937e+02
5.200000e-07	-2.915548e-06	-4.179784e-09	-2.080711e+01	-2.747943e+02
5.300000e-07	-2.828998e-06	-4.123701e-09	-2.018944e+01	-2.707971e+02
5.400000e-07	-2.741476e-06	-4.065631e-09	-1.956483e+01	-2.667024e+02
5.500000e-07	-2.653025e-06	-3.999457e-09	-1.893359e+01	-2.625105e+02
5.600000e-07	-2.563523e-06	-3.922137e-09	-1.829485e+01	-2.582214e+02
5.700000e-07	-2.472877e-06	-3.850577e-09	-1.764794e+01	-2.538346e+02
5.800000e-07	-2.381256e-06	-3.792357e-09	-1.699408e+01	-2.493484e+02
5.900000e-07	-2.288839e-06	-3.730433e-09	-1.633454e+01	-2.447604e+02
6.000000e-07	-2.195686e-06	-3.653573e-09	-1.566974e+01	-2.400673e+02
6.100000e-07	-2.101772e-06	-3.570538e-09	-1.499952e+01	-2.352651e+02
6.200000e-07	-2.007086e-06	-3.491422e-09	-1.432378e+01	-2.303492e+02
6.300000e-07	-1.911684e-06	-3.417072e-09	-1.364293e+01	-2.253155e+02
6.400000e-07	-1.815607e-06	-3.347754e-09	-1.295727e+01	-2.201598e+02
6.500000e-07	-1.718894e-06	-3.276965e-09	-1.226706e+01	-2.148791e+02
6.600000e-07	-1.621461e-06	-3.193866e-09	-1.157173e+01	-2.094713e+02
6.700000e-07	-1.523329e-06	-3.097501e-09	-1.087139e+01	-2.039354e+02
6.800000e-07	-1.424619e-06	-3.000791e-09	-1.016694e+01	-1.982715e+02
6.900000e-07	-1.325332e-06	-2.912389e-09	-9.458372e+00	-1.924805e+02
7.000000e-07	-1.225599e-06	-2.826954e-09	-8.746616e+00	-1.865638e+02
7.100000e-07	-1.125541e-06	-2.736918e-09	-8.032542e+00	-1.805228e+02
7.200000e-07	-1.025180e-06	-2.641212e-09	-7.316302e+00	-1.743583e+02
7.300000e-07	-9.245629e-07	-2.545089e-09	-6.598239e+00	-1.680703e+02
7.400000e-07	-8.236595e-07	-2.451245e-09	-5.878131e+00	-1.616573e+02
7.500000e-07	-7.224212e-07	-2.357321e-09	-5.155634e+00	-1.551165e+02
7.600000e-07	-6.208859e-07	-2.255913e-09	-4.431016e+00	-1.484436e+02
7.700000e-07	-5.191730e-07	-2.146564e-09	-3.705132e+00	-1.416327e+02
7.800000e-07	-4.172950e-07	-2.035540e-09	-2.978069e+00	-1.346768e+02
7.900000e-07	-3.152549e-07	-1.927614e-09	-2.249849e+00	-1.275683e+02
8.000000e-07	-2.131266e-07	-1.821718e-09	-1.521000e+00	-1.202988e+02
8.100000e-07	-1.109071e-07	-1.712352e-09	-7.914999e-01	-1.128599e+02
8.200000e-07	-8.619312e-09	-1.597252e-09	-6.151261e-02	-1.052433e+02
8.300000e-07	9.369236e-08	-1.475301e-09	6.686452e-01	-9.744092e+01
8.400000e-07	1.959923e-07	-1.351868e-09	1.398720e+00	-8.944513e+01
8.500000e-07	2.982316e-07	-1.231196e-09	2.128361e+00	-8.124847e+01
8.600000e-07	4.003813e-07	-1.108487e-09	2.857363e+00	-7.284378e+01
8.700000e-07	5.024575e-07	-9.752844e-10	3.585840e+00	-6.422412e+01
8.800000e-07	6.043929e-07	-8.343600e-10	4.313312e+00	-5.538283e+01
8.900000e-07	7.061034e-07	-6.926803e-10	5.039180e+00	-4.631377e+01
9.000000e-07	8.075462e-07	-5.494103e-10	5.763137e+00	-3.701165e+01
9.100000e-07	9.086591e-07	-4.044497e-10	6.484740e+00	-2.747263e+01
9.200000e-07	1.009452e-06	-2.570629e-10	7.204061e+00	-1.769501e+01
9.300000e-07	1.109948e-06	-1.055697e-10	7.921260e+00	-7.680131e+00
9.400000e-07	1.210124e-06	5.255664e-11	8.636173e+00	2.566833e+00
9.500000e-07	1.309954e-06	2.145981e-10	9.348623e+00	1.303603e+01
9.600000e-07	1.409340e-06	3.763270e-10	1.005790e+01	2.371230e+01
9.700000e-07	1.508155e-06	5.400824e-10	1.076310e+01	3.457484e+01
9.800000e-07	1.606306e-06	7.094402e-10	1.146357e+01	4.559710e+01
9.900000e-07	1.703677e-06	8.842790e-10	1.215847e+01	5.674714e+01
1.000000e-06	1.800224e-06	1.058329e-09	1.284749e+01	6.798827e+01
1.010000e-06	1.896006e-06	1.229596e-09	1.353104e+01	7.928007e+01
1.020000e-06	1.991115e-06	1.400413e-09	1.420980e+01	9.057958e+01
1.030000e-06	2.085560e-06	1.571683e-09	1.488381e+01	1.018427e+02
1.040000e-06	2.179276e-06	1.741743e-09	1.555263e+01	1.130256e+02
1.050000e-06	2.272271e-06	1.910263e-09	1.621630e+01	1.240859e+02
1.060000e-06	2.364600e-06	2.078953e-09	1.687521e+01	1.349840e+02
1.070000e-06	2.456274e-06	2.243510e-09	1.752945e+01	1.456836e+02
1.080000e-06	2.547158e-06	2.402811e-09	1.817805e+01	1.561529e+02
1.090000e-06	2.636845e-06	2.559929e-09	1.881812e+01	1.663640e+02
1.100000e-06	2.725267e-06	2.713326e-09	1.944915e+01	1.762939e+02
1.110000e-06	2.812743e-06	2.859086e-09	2.007343e+01	1.859237e+02
1.120000e-06	2.899388e-06	2.997242e-09	2.069178e+01	1.952385e+02
1.130000e-06	2.985101e-06	3.130723e-09	2.130348e+01	2.042273e+02
1.140000e-06	3.069862e-06	3.261353e-09	2.190839e+01	2.128826e+02
1.150000e-06	3.153769e-06	3.388207e-09	2.250720e+01	2.212001e+02
1.160000e-06	3.236673e-06	3.509311e-09	2.309885e+01	2.291789e+02
1.170000e-06	3.318295e-06	3.623175e-09	2.368135e+01	2.368210e+02
1.180000e-06	3.398662e-06	3.732408e-09	2.425490e+01	2.441319e+02
1.190000e-06	3.477803e-06	3.838156e-09	2.481970e+01	2.511197e+02
1.200000e-06	3.555686e-06	3.939481e-09	2.537552e+01	2.577959e+02
1.210000e-06	3.632361e-06	4.037688e-09	2.592272e+01	2.641742e+02
1.220000e-06	3.707756e-06	4.130925e-09	2.646079e+01	2.702708e+02
1.230000e-06	3.781567e-06	4.217814e-09	2.698754e+01	2.761032e+02
1.240000e-06	3.853728e-06	4.299826e-09	2.750253e+01	2.816895e+02
1.250000e-06	3.924500e-06	4.380685e-09	2.800760e+01	2.870479e+02
1.260000e-06	3.993931e-06	4.461868e-09	2.850310e+01	2.921950e+02
1.270000e-06	4.062058e-06	4.539038e-09	2.898930e+01	2.971455e+02
1.280000e-06	4.128741e-06	4.611367e-09	2.946519e+01	3.019115e+02
1.290000e-06	4.193754e-06	4.680841e-09	2.992916e+01	3.065016e+02
1.300000e-06	4.257184e-06	4.747762e-09	3.038183e+01	3.109214e+02
1.310000e-06	4.319184e-06	4.811978e-09	3.082431e+01	3.151732e+02
1.320000e-06	4.379815e-06	4.872317e-09	3.125700e+01	3.192566e+02
1.330000e-06	4.439011e-06	4.928541e-09	3.167946e+01	3.231695e+02
1.340000e-06	4.496469e-06	4.981510e-09	3.208952e+01	3.269090e+02
1.350000e-06	4.552170e-06	5.032998e-09	3.248703e+01	3.304719e+02
1.360000e-06	4.606346e-06	5.084448e-09	3.287366e+01	3.338563e+02
1.370000e-06	4.658813e-06	5.133260e-09	3.324810e+01	3.370616e+02
1.380000e-06	4.709186e-06	5.177281e-09	3.360759e+01	3.400896e+02
1.390000e-06	4.757530e-06	5.218568e-09	3.395261e+01	3.429443e+02
1.400000e-06	4.804148e-06	5.258500e-09	3.428530e+01	3.456315e+02
1.410000e-06	4.849163e-06	5.295047e-09	3.460655e+01	3.481590e+02
1.420000e-06	4.892628e-06	5.327955e-09	3.491674e+01	3.505354e+02
1.430000e-06	4.934285e-06	5.358628e-09	3.521403e+01	3.527697e+02
1.440000e-06	4.974118e-06	5.387480e-09	3.549831e+01	3.548703e+02
1.450000e-06	5.012300e-06	5.414998e-09	3.577080e+01	3.568446e+02
1.460000e-06	5.048866e-06	5.442087e-09	3.603176e+01	3.586985e+02
1.470000e-06	5.083697e-06	5.470086e-09	3.628033e+01	3.604361e+02
1.480000e-06	5.116545e-06	5.496144e-09	3.651475e+01	3.620600e+02
1.490000e-06	5.147602e-06	5.518011e-09	3.673640e+01	3.635715e+02
1.500000e-06	5.177017e-06	5.537043e-09	3.694631e+01	3.649711e+02
1.510000e-06	5.204756e-06	5.554955e-09	3.714428e+01	3.662590e+02
1.520000e-06	5.230512e-06	5.573286e-09	3.732809e+01	3.674358e+02
1.530000e-06	5.254154e-06	5.589526e-09	3.749681e+01	3.685028e+02
1.540000e-06	5.275974e-06	5.602379e-09	3.765254e+01	3.694624e+02
1.550000e-06	5.296088e-06	5.614558e-09	3.779608e+01	3.703182e+02
1.560000e-06	5.314325e-06	5.627474e-09	3.792623e+01	3.710745e+02
1.570000e-06	5.330597e-06	5.639536e-09	3.804236e+01	3.717365e+02
1.580000e-06	5.344959e-06	5.649271e-09	3.814485e+01	3.723095e+02
1.590000e-06	5.357317e-06	5.657651e-09	3.823305e+01	3.727982e+02
1.600000e-06	5.367473e-06	5.664321e-09	3.830552e+01	3.732068e+02
1.610000e-06	5.375501e-06	5.669850e-09	3.836282e+01	3.735378e+02
1.620000e-06	5.381709e-06	5.675066e-09	3.840712e+01	3.737928e+02
1.630000e-06	5.386139e-06	5.679642e-09	3.843874e+01	3.739717e+02
1.640000e-06	5.388636e-06	5.683344e-09	3.845656e+01	3.740736e+02
1.650000e-06	5.389118e-06	5.686293e-09	3.846000e+01	3.740966e+02
1.660000e-06	5.387741e-06	5.687758e-09	3.845017e+01	3.740391e+02
1.670000e-06	5.384726e-06	5.685582e-09	3.842865e+01	3.738998e+02
1.680000e-06	5.380039e-06	5.681876e-09	3.839521e+01	3.736785e+02
1.690000e-06	5.373430e-06	5.678949e-09	3.834804e+01	3.733765e+02
1.700000e-06	5.365041e-06	5.675581e-09	3.828817e+01	3.729963e+02
1.710000e-06	5.355084e-06	5.672252e-09	3.821711e+01	3.725421e+02
1.720000e-06	5.343390e-06	5.667854e-09	3.813365e+01	3.720193e+02
1.730000e-06	5.329754e-06	5.658530e-09	3.803634e+01	3.714336e+02
1.740000e-06	5.314048e-06	5.629163e-09	3.792425e+01	3.707908e+02
1.750000e-06	5.296019e-06	5.607054e-09	3.779559e+01	3.700958e+02
1.760000e-06	5.275352e-06	5.610923e-09	3.764809e+01	3.693521e+02
1.770000e-06	5.252381e-06	5.608480e-09	3.748416e+01	3.685613e+02
1.780000e-06	5.228069e-06	5.618665e-09	3.731066e+01	3.677229e+02
1.790000e-06	5.203029e-06	5.597977e-09	3.713195e+01	3.668344e+02
1.800000e-06	5.176634e-06	5.548404e-09	3.694359e+01	3.658913e+02
1.810000e-06	5.148022e-06	5.558360e-09	3.673939e+01	3.648880e+02
1.820000e-06	5.117585e-06	5.523195e-09	3.652218e+01	3.638181e+02
1.830000e-06	5.085505e-06	5.460626e-09	3.629323e+01	3.626756e+02
1.840000e-06	5.051511e-06	5.511469e-09	3.605063e+01	3.614550e+02
1.850000e-06	5.015885e-06	5.537505e-09	3.579639e+01	3.601525e+02
1.860000e-06	4.978457e-06	5.505884e-09	3.552927e+01	3.587658e+02
1.870000e-06	4.939109e-06	5.473178e-09	3.524846e+01	3.572949e+02
1.880000e-06	4.898094e-06	5.391446e-09	3.495575e+01	3.557414e+02
1.890000e-06	4.855286e-06	5.364204e-09	3.465025e+01	3.541083e+02
1.900000e-06	4.810858e-06	5.356406e-09	3.433318e+01	3.523997e+02
1.910000e-06	4.764694e-06	5.334213e-09	3.400373e+01	3.506199e+02
1.920000e-06	4.716474e-06	5.346394e-09	3.365960e+01	3.487729e+02
1.930000e-06	4.666573e-06	5.276993e-09	3.330348e+01	3.468621e+02
1.940000e-06	4.614968e-06	5.229990e-09	3.293520e+01	3.448893e+02
1.950000e-06	4.561328e-06	5.247040e-09	3.255239e+01	3.428552e+02
1.960000e-06	4.505735e-06	5.199565e-09	3.215564e+01	3.407590e+02
1.970000e-06	4.448412e-06	5.149005e-09	3.174655e+01	3.385986e+02
1.980000e-06	4.389639e-06	5.102426e-09	3.132711e+01	3.363712e+02
1.990000e-06	4.329380e-06	5.088645e-09	3.089707e+01	3.340735e+02
2.000000e-06	4.267461e-06	5.082297e-09	3.045518e+01	3.317023e+02
2.010000e-06	4.203909e-06	5.020721e-09	3.000163e+01	3.292545e+02
2.020000e-06	4.138837e-06	4.985909e-09	2.953724e+01	3.267281e+02
2.030000e-06	4.072378e-06	4.932846e-09	2.906295e+01	3.241214e+02
2.040000e-06	4.004449e-06	4.877637e-09	2.857817e+01	3.214337e+02
2.050000e-06	3.935059e-06	4.858705e-09	2.808296e+01	3.186648e+02
2.060000e-06	3.864201e-06	4.838677e-09	2.757727e+01	3.158149e+02
2.070000e-06	3.791922e-06	4.811417e-09	2.706145e+01	3.128838e+02
2.080000e-06	3.718364e-06	4.725198e-09	2.653649e+01	3.098715e+02
2.090000e-06	3.643437e-06	4.650207e-09	2.600176e+01	3.067772e+02
2.100000e-06	3.567115e-06	4.615829e-09	2.545708e+01	3.035995e+02
2.110000e-06	3.489248e-06	4.581216e-09	2.490138e+01	3.003366e+02
2.120000e-06	3.409904e-06	4.543160e-09	2.433514e+01	2.969860e+02
2.130000e-06	3.329408e-06	4.487790e-09	2.376067e+01	2.935452e+02
2.140000e-06	3.247788e-06	4.436297e-09	2.317818e+01	2.900117e+02
2.150000e-06	3.165099e-06	4.370035e-09	2.258805e+01	2.863832e+02
2.160000e-06	3.081370e-06	4.310975e-09	2.199052e+01	2.826582e+02
2.170000e-06	2.996547e-06	4.266034e-09	2.138517e+01	2.788356e+02
2.180000e-06	2.910479e-06	4.204311e-09	2.077093e+01	2.749150e+02
2.190000e-06	2.823090e-06	4.130840e-09	2.014728e+01	2.708967e+02
2.200000e-06	2.734729e-06	4.062547e-09	1.951668e+01	2.667810e+02
2.210000e-06	2.645543e-06	4.018305e-09	1.888019e+01	2.625682e+02
2.220000e-06	2.555442e-06	3.963804e-09	1.823718e+01	2.582581e+02
2.230000e-06	2.464492e-06	3.885817e-09	1.758810e+01	2.538500e+02
2.240000e-06	2.372752e-06	3.807318e-09	1.693339e+01	2.493420e+02
2.250000e-06	2.280260e-06	3.738212e-09	1.627331e+01	2.447317e+02
2.260000e-06	2.187025e-06	3.672663e-09	1.560793e+01	2.400154e+02
2.270000e-06	2.092839e-06	3.606127e-09	1.493576e+01	2.351891e+02
2.280000e-06	1.997538e-06	3.534367e-09	1.425563e+01	2.302482e+02
2.290000e-06	1.901382e-06	3.446390e-09	1.356941e+01	2.251885e+02
2.300000e-06	1.804741e-06	3.350938e-09	1.287972e+01	2.200061e+02
2.310000e-06	1.707588e-06	3.266325e-09	1.218638e+01	2.146982e+02
2.320000e-06	1.609827e-06	3.199841e-09	1.148870e+01	2.092628e+02
2.330000e-06	1.511565e-06	3.131739e-09	1.078744e+01	2.036993e+02
2.340000e-06	1.412860e-06	3.045778e-09	1.008302e+01	1.980079e+02
2.350000e-06	1.313725e-06	2.948324e-09	9.375531e+00	1.921897e+02
2.360000e-06	1.214215e-06	2.851931e-09	8.665374e+00	1.862461e+02
2.370000e-06	1.114443e-06	2.760760e-09	7.953335e+00	1.801784e+02
2.380000e-06	1.014359e-06	2.670146e-09	7.239080e+00	1.739874e+02
2.390000e-06	9.138801e-07	2.576241e-09	6.522000e+00	1.676726e+02
2.400000e-06	8.130127e-07	2.474898e-09	5.802149e+00	1.612324e+02
2.410000e-06	7.118507e-07	2.371048e-09	5.080196e+00	1.546636e+02
2.420000e-06	6.105146e-07	2.268278e-09	4.357001e+00	1.479614e+02
2.430000e-06	5.090073e-07	2.166469e-09	3.632583e+00	1.411199e+02
2.440000e-06	4.072618e-07	2.060987e-09	2.906466e+00	1.341319e+02
2.450000e-06	3.053335e-07	1.947013e-09	2.179044e+00	1.269894e+02
2.460000e-06	2.032301e-07	1.828824e-09	1.450373e+00	1.196842e+02
2.470000e-06	1.009732e-07	1.713919e-09	7.206057e-01	1.122077e+02
2.480000e-06	-1.362229e-09	1.602812e-09	-9.721691e-03	1.045518e+02
2.490000e-06	-1.037685e-07	1.486597e-09	-7.405543e-01	9.670853e+01
2.500000e-06	-2.061421e-07	1.361776e-09	-1.471154e+00	8.867016e+01
2.510000e-06	-3.084261e-07	1.231394e-09	-2.201115e+00	8.042937e+01
2.520000e-06	-4.106028e-07	1.101561e-09	-2.930310e+00	7.197904e+01
2.530000e-06	-5.125998e-07	9.726853e-10	-3.658221e+00	6.331229e+01
2.540000e-06	-6.143708e-07	8.413788e-10	-4.384521e+00	5.442254e+01
2.550000e-06	-7.158769e-07	7.047377e-10	-5.108929e+00	4.530380e+01
2.560000e-06	-8.169715e-07	5.586338e-10	-5.830402e+00	3.595103e+01
2.570000e-06	-9.176961e-07	4.069223e-10	-6.549233e+00	2.636078e+01
2.580000e-06	-1.018126e-06	2.563317e-10	-7.265963e+00	1.653195e+01
2.590000e-06	-1.118206e-06	1.083923e-10	-7.980191e+00	6.466604e+00
2.600000e-06	-1.217896e-06	-4.326770e-11	-8.691643e+00	-3.829130e+00
2.610000e-06	-1.317145e-06	-2.038505e-10	-9.399945e+00	-1.434431e+01
2.620000e-06	-1.415956e-06	-3.690451e-10	-1.010512e+01	-2.506260e+01
2.630000e-06	-1.514309e-06	-5.353546e-10	-1.080702e+01	-3.596194e+01
2.640000e-06	-1.612110e-06	-7.018656e-10	-1.150499e+01	-4.701459e+01
2.650000e-06	-1.709277e-06	-8.700976e-10	-1.219843e+01	-5.818753e+01
2.660000e-06	-1.805874e-06	-1.042126e-09	-1.288781e+01	-6.944317e+01
2.670000e-06	-1.902008e-06	-1.216513e-09	-1.357387e+01	-8.074044e+01
2.680000e-06	-1.997644e-06	-1.389816e-09	-1.425639e+01	-9.203603e+01
2.690000e-06	-2.092519e-06	-1.559056e-09	-1.493348e+01	-1.032858e+02
2.700000e-06	-2.186393e-06	-1.727122e-09	-1.560342e+01	-1.144460e+02
2.710000e-06	-2.279238e-06	-1.895368e-09	-1.626602e+01	-1.254749e+02
2.720000e-06	-2.371184e-06	-2.063127e-09	-1.692220e+01	-1.363335e+02
2.730000e-06	-2.462354e-06	-2.226912e-09	-1.757285e+01	-1.469865e+02
2.740000e-06	-2.552698e-06	-2.382837e-09	-1.821759e+01	-1.574028e+02
2.750000e-06	-2.642103e-06	-2.533352e-09	-1.885564e+01	-1.675556e+02
2.760000e-06	-2.730590e-06	-2.681699e-09	-1.948714e+01	-1.774228e+02
2.770000e-06	-2.818316e-06	-2.830193e-09	-2.011320e+01	-1.869863e+02
2.780000e-06	-2.905146e-06	-2.976938e-09	-2.073287e+01	-1.962322e+02
2.790000e-06	-2.990753e-06	-3.115927e-09	-2.134382e+01	-2.051502e+02
2.800000e-06	-3.075101e-06	-3.245938e-09	-2.194578e+01	-2.137335e+02
2.810000e-06	-3.158406e-06	-3.371471e-09	-2.254029e+01	-2.219786e+02
2.820000e-06	-3.240743e-06	-3.493763e-09	-2.312790e+01	-2.298851e+02
2.830000e-06	-3.322031e-06	-3.610594e-09	-2.370802e+01	-2.374559e+02
2.840000e-06	-3.402238e-06	-3.722017e-09	-2.428042e+01	-2.446968e+02
2.850000e-06	-3.481257e-06	-3.828894e-09	-2.484435e+01	-2.516170e+02
2.860000e-06	-3.558814e-06	-3.930450e-09	-2.539784e+01	-2.582283e+02
2.870000e-06	-3.634851e-06	-4.026672e-09	-2.594049e+01	-2.645450e+02
2.880000e-06	-3.709424e-06	-4.119956e-09	-2.647269e+01	-2.705835e+02
2.890000e-06	-3.782554e-06	-4.209566e-09	-2.699459e+01	-2.763618e+02
2.900000e-06	-3.854443e-06	-4.292898e-09	-2.750763e+01	-2.818980e+02
2.910000e-06	-3.925015e-06	-4.371271e-09	-2.801128e+01	-2.872098e+02
2.920000e-06	-3.994005e-06	-4.447950e-09	-2.850363e+01	-2.923138e+02
2.930000e-06	-4.061553e-06	-4.524986e-09	-2.898570e+01	-2.972240e+02
2.940000e-06	-4.127685e-06	-4.600086e-09	-2.945765e+01	-3.019518e+02
