# Temperatura_=_54.0
# Concentracion g/m^3_=_15000.0
# C_Vs_to_Am_M_A/Vsm_=_65563218390.804596
# pendiente_HvsI_1/m_=_3716.3
# ordenada_HvsI_A/m_=_1297.0
# frecuencia_Hz_=_301597.89971436985

Tiempo_(s)	Campo_(V.s)	Magnetizacion_(V.s)	Campo_(kA/m)	Magnetizacion_(A/m)
0.000000e+00	-5.377013e-06	-6.421416e-09	-3.833776e+01	-4.204303e+02
1.000000e-08	-5.374406e-06	-6.419392e-09	-3.831917e+01	-4.202798e+02
2.000000e-08	-5.370021e-06	-6.415301e-09	-3.828791e+01	-4.200312e+02
3.000000e-08	-5.364006e-06	-6.408654e-09	-3.824503e+01	-4.196832e+02
4.000000e-08	-5.356394e-06	-6.400041e-09	-3.819075e+01	-4.192369e+02
5.000000e-08	-5.346958e-06	-6.391395e-09	-3.812347e+01	-4.186955e+02
6.000000e-08	-5.335415e-06	-6.382837e-09	-3.804117e+01	-4.180651e+02
7.000000e-08	-5.321983e-06	-6.371817e-09	-3.794540e+01	-4.173532e+02
8.000000e-08	-5.306489e-06	-6.366914e-09	-3.783493e+01	-4.165691e+02
9.000000e-08	-5.288761e-06	-6.380308e-09	-3.770853e+01	-4.157219e+02
1.000000e-07	-5.269040e-06	-6.374375e-09	-3.756792e+01	-4.148200e+02
1.100000e-07	-5.247423e-06	-6.337397e-09	-3.741379e+01	-4.138698e+02
1.200000e-07	-5.224095e-06	-6.298417e-09	-3.724747e+01	-4.128751e+02
1.300000e-07	-5.199275e-06	-6.253379e-09	-3.707050e+01	-4.118361e+02
1.400000e-07	-5.172825e-06	-6.247642e-09	-3.688192e+01	-4.107499e+02
1.500000e-07	-5.144675e-06	-6.281394e-09	-3.668121e+01	-4.096099e+02
1.600000e-07	-5.115008e-06	-6.249615e-09	-3.646968e+01	-4.084074e+02
1.700000e-07	-5.083792e-06	-6.225995e-09	-3.624711e+01	-4.071315e+02
1.800000e-07	-5.050605e-06	-6.222707e-09	-3.601049e+01	-4.057712e+02
1.900000e-07	-5.015493e-06	-6.156450e-09	-3.576015e+01	-4.043161e+02
2.000000e-07	-4.978875e-06	-6.138161e-09	-3.549906e+01	-4.027572e+02
2.100000e-07	-4.940521e-06	-6.119548e-09	-3.522560e+01	-4.010884e+02
2.200000e-07	-4.900348e-06	-6.052753e-09	-3.493917e+01	-3.993063e+02
2.300000e-07	-4.858258e-06	-6.059023e-09	-3.463907e+01	-3.974106e+02
2.400000e-07	-4.814204e-06	-6.052497e-09	-3.432497e+01	-3.954041e+02
2.500000e-07	-4.768427e-06	-6.001498e-09	-3.399858e+01	-3.932916e+02
2.600000e-07	-4.720839e-06	-5.968816e-09	-3.365928e+01	-3.910792e+02
2.700000e-07	-4.671117e-06	-5.910316e-09	-3.330477e+01	-3.887737e+02
2.800000e-07	-4.619223e-06	-5.886186e-09	-3.293477e+01	-3.863815e+02
2.900000e-07	-4.565479e-06	-5.888639e-09	-3.255157e+01	-3.839076e+02
3.000000e-07	-4.510203e-06	-5.847853e-09	-3.215746e+01	-3.813556e+02
3.100000e-07	-4.453391e-06	-5.786993e-09	-3.175240e+01	-3.787269e+02
3.200000e-07	-4.394736e-06	-5.729442e-09	-3.133419e+01	-3.760212e+02
3.300000e-07	-4.334409e-06	-5.679644e-09	-3.090406e+01	-3.732364e+02
3.400000e-07	-4.272633e-06	-5.640351e-09	-3.046360e+01	-3.703695e+02
3.500000e-07	-4.209441e-06	-5.620110e-09	-3.001305e+01	-3.674167e+02
3.600000e-07	-4.144821e-06	-5.581364e-09	-2.955231e+01	-3.643746e+02
3.700000e-07	-4.078484e-06	-5.513046e-09	-2.907933e+01	-3.612401e+02
3.800000e-07	-4.010532e-06	-5.463502e-09	-2.859483e+01	-3.580110e+02
3.900000e-07	-3.941227e-06	-5.414446e-09	-2.810070e+01	-3.546863e+02
4.000000e-07	-3.870652e-06	-5.355378e-09	-2.759750e+01	-3.512658e+02
4.100000e-07	-3.798932e-06	-5.301711e-09	-2.708614e+01	-3.477503e+02
4.200000e-07	-3.725908e-06	-5.245438e-09	-2.656549e+01	-3.441409e+02
4.300000e-07	-3.651238e-06	-5.196852e-09	-2.603310e+01	-3.404385e+02
4.400000e-07	-3.574969e-06	-5.149422e-09	-2.548930e+01	-3.366440e+02
4.500000e-07	-3.497262e-06	-5.098049e-09	-2.493526e+01	-3.327575e+02
4.600000e-07	-3.418173e-06	-5.035064e-09	-2.437135e+01	-3.287782e+02
4.700000e-07	-3.337780e-06	-4.955419e-09	-2.379816e+01	-3.247045e+02
4.800000e-07	-3.256095e-06	-4.879078e-09	-2.321575e+01	-3.205341e+02
4.900000e-07	-3.173259e-06	-4.822460e-09	-2.262513e+01	-3.162643e+02
5.000000e-07	-3.089459e-06	-4.770575e-09	-2.202764e+01	-3.118921e+02
5.100000e-07	-3.004814e-06	-4.700267e-09	-2.142413e+01	-3.074145e+02
5.200000e-07	-2.919206e-06	-4.619811e-09	-2.081375e+01	-3.028290e+02
5.300000e-07	-2.832551e-06	-4.539106e-09	-2.019591e+01	-2.981336e+02
5.400000e-07	-2.744931e-06	-4.466355e-09	-1.957118e+01	-2.933266e+02
5.500000e-07	-2.656389e-06	-4.400393e-09	-1.893989e+01	-2.884072e+02
5.600000e-07	-2.566834e-06	-4.330349e-09	-1.830136e+01	-2.833745e+02
5.700000e-07	-2.476107e-06	-4.249342e-09	-1.765448e+01	-2.782282e+02
5.800000e-07	-2.384394e-06	-4.159341e-09	-1.700058e+01	-2.729674e+02
5.900000e-07	-2.291944e-06	-4.072401e-09	-1.634141e+01	-2.675915e+02
6.000000e-07	-2.198702e-06	-3.990026e-09	-1.567661e+01	-2.620990e+02
6.100000e-07	-2.104656e-06	-3.905952e-09	-1.500607e+01	-2.564886e+02
6.200000e-07	-2.009895e-06	-3.818144e-09	-1.433043e+01	-2.507582e+02
6.300000e-07	-1.914470e-06	-3.729161e-09	-1.365005e+01	-2.449058e+02
6.400000e-07	-1.818383e-06	-3.642221e-09	-1.296496e+01	-2.389294e+02
6.500000e-07	-1.721604e-06	-3.555434e-09	-1.227493e+01	-2.328271e+02
6.600000e-07	-1.624110e-06	-3.460645e-09	-1.157980e+01	-2.265975e+02
6.700000e-07	-1.525912e-06	-3.354160e-09	-1.087966e+01	-2.202393e+02
6.800000e-07	-1.427052e-06	-3.244242e-09	-1.017479e+01	-2.137517e+02
6.900000e-07	-1.327643e-06	-3.140780e-09	-9.466008e+00	-2.071337e+02
7.000000e-07	-1.227820e-06	-3.046008e-09	-8.754279e+00	-2.003842e+02
7.100000e-07	-1.127685e-06	-2.949081e-09	-8.040324e+00	-1.935016e+02
7.200000e-07	-1.027260e-06	-2.840914e-09	-7.324299e+00	-1.864834e+02
7.300000e-07	-9.265769e-07	-2.726688e-09	-6.606434e+00	-1.793260e+02
7.400000e-07	-8.255822e-07	-2.611951e-09	-5.886349e+00	-1.720245e+02
7.500000e-07	-7.241704e-07	-2.499144e-09	-5.163289e+00	-1.645727e+02
7.600000e-07	-6.224921e-07	-2.388250e-09	-4.438329e+00	-1.569634e+02
7.700000e-07	-5.207004e-07	-2.272048e-09	-3.712561e+00	-1.491886e+02
7.800000e-07	-4.187497e-07	-2.148080e-09	-2.985659e+00	-1.412398e+02
7.900000e-07	-3.166303e-07	-2.019149e-09	-2.257554e+00	-1.331085e+02
8.000000e-07	-2.143811e-07	-1.890279e-09	-1.528524e+00	-1.247866e+02
8.100000e-07	-1.120107e-07	-1.764157e-09	-7.986292e-01	-1.162665e+02
8.200000e-07	-9.624453e-09	-1.633144e-09	-6.862174e-02	-1.075414e+02
8.300000e-07	9.274857e-08	-1.494149e-09	6.612914e-01	-9.860518e+01
8.400000e-07	1.951284e-07	-1.351345e-09	1.391253e+00	-8.945229e+01
8.500000e-07	2.974678e-07	-1.207032e-09	2.120926e+00	-8.007733e+01
8.600000e-07	3.997332e-07	-1.060578e-09	2.850072e+00	-7.047484e+01
8.700000e-07	5.019089e-07	-9.097477e-10	3.578578e+00	-6.063898e+01
8.800000e-07	6.039839e-07	-7.531919e-10	4.306367e+00	-5.056356e+01
8.900000e-07	7.058797e-07	-5.935809e-10	5.032878e+00	-4.024212e+01
9.000000e-07	8.075005e-07	-4.315657e-10	5.757427e+00	-2.966853e+01
9.100000e-07	9.087659e-07	-2.655464e-10	6.479443e+00	-1.883773e+01
9.200000e-07	1.009649e-06	-9.591352e-11	7.198734e+00	-7.746900e+00
9.300000e-07	1.110203e-06	7.842833e-11	7.915680e+00	3.603249e+00
9.400000e-07	1.210472e-06	2.570699e-10	8.630589e+00	1.520709e+01
9.500000e-07	1.310405e-06	4.375054e-10	9.343104e+00	2.705280e+01
9.600000e-07	1.409909e-06	6.181950e-10	1.005256e+01	3.912130e+01
9.700000e-07	1.508842e-06	8.014992e-10	1.075794e+01	5.138570e+01
9.800000e-07	1.607010e-06	9.880222e-10	1.145788e+01	6.381116e+01
9.900000e-07	1.704456e-06	1.178125e-09	1.215266e+01	7.635547e+01
1.000000e-06	1.801202e-06	1.370284e-09	1.284246e+01	8.897018e+01
1.010000e-06	1.897133e-06	1.562302e-09	1.352644e+01	1.016022e+02
1.020000e-06	1.992342e-06	1.751756e-09	1.420527e+01	1.141961e+02
1.030000e-06	2.086888e-06	1.937589e-09	1.487938e+01	1.266960e+02
1.040000e-06	2.180722e-06	2.123618e-09	1.554841e+01	1.390483e+02
1.050000e-06	2.273810e-06	2.309167e-09	1.621212e+01	1.512035e+02
1.060000e-06	2.366210e-06	2.492930e-09	1.687093e+01	1.631180e+02
1.070000e-06	2.457936e-06	2.671144e-09	1.752493e+01	1.747553e+02
1.080000e-06	2.548793e-06	2.843461e-09	1.817273e+01	1.860864e+02
1.090000e-06	2.638577e-06	3.011361e-09	1.881288e+01	1.970899e+02
1.100000e-06	2.727202e-06	3.175512e-09	1.944478e+01	2.077513e+02
1.110000e-06	2.814786e-06	3.332712e-09	2.006924e+01	2.180619e+02
1.120000e-06	2.901486e-06	3.483542e-09	2.068741e+01	2.280176e+02
1.130000e-06	2.987247e-06	3.630153e-09	2.129888e+01	2.376177e+02
1.140000e-06	3.072044e-06	3.772646e-09	2.190348e+01	2.468635e+02
1.150000e-06	3.155983e-06	3.909281e-09	2.250196e+01	2.557572e+02
1.160000e-06	3.238919e-06	4.038161e-09	2.309329e+01	2.643019e+02
1.170000e-06	3.320643e-06	4.161611e-09	2.367597e+01	2.725009e+02
1.180000e-06	3.401146e-06	4.281349e-09	2.424995e+01	2.803582e+02
1.190000e-06	3.480403e-06	4.395383e-09	2.481505e+01	2.878790e+02
1.200000e-06	3.558398e-06	4.503458e-09	2.537115e+01	2.950700e+02
1.210000e-06	3.635174e-06	4.607748e-09	2.591856e+01	3.019405e+02
1.220000e-06	3.710643e-06	4.706647e-09	2.645665e+01	3.085021e+02
1.230000e-06	3.784532e-06	4.800068e-09	2.698347e+01	3.147698e+02
1.240000e-06	3.856782e-06	4.888352e-09	2.749861e+01	3.207607e+02
1.250000e-06	3.927608e-06	4.974020e-09	2.800359e+01	3.264940e+02
1.260000e-06	3.997059e-06	5.059336e-09	2.849878e+01	3.319899e+02
1.270000e-06	4.065171e-06	5.142747e-09	2.898441e+01	3.372685e+02
1.280000e-06	4.131876e-06	5.221643e-09	2.946001e+01	3.423482e+02
1.290000e-06	4.196947e-06	5.296398e-09	2.992396e+01	3.472446e+02
1.300000e-06	4.260422e-06	5.367093e-09	3.037653e+01	3.519701e+02
1.310000e-06	4.322422e-06	5.435384e-09	3.081859e+01	3.565325e+02
1.320000e-06	4.383115e-06	5.502037e-09	3.125133e+01	3.609355e+02
1.330000e-06	4.442485e-06	5.566345e-09	3.167464e+01	3.651788e+02
1.340000e-06	4.500104e-06	5.627724e-09	3.208546e+01	3.692589e+02
1.350000e-06	4.555873e-06	5.686060e-09	3.248309e+01	3.731703e+02
1.360000e-06	4.610032e-06	5.740128e-09	3.286924e+01	3.769068e+02
1.370000e-06	4.662481e-06	5.789588e-09	3.324319e+01	3.804625e+02
1.380000e-06	4.712897e-06	5.836493e-09	3.360265e+01	3.838335e+02
1.390000e-06	4.761316e-06	5.884441e-09	3.394788e+01	3.870182e+02
1.400000e-06	4.808030e-06	5.931161e-09	3.428095e+01	3.900179e+02
1.410000e-06	4.853210e-06	5.972894e-09	3.460308e+01	3.928370e+02
1.420000e-06	4.896833e-06	6.011201e-09	3.491411e+01	3.954825e+02
1.430000e-06	4.938605e-06	6.046844e-09	3.521194e+01	3.979633e+02
1.440000e-06	4.978512e-06	6.079993e-09	3.549648e+01	4.002890e+02
1.450000e-06	5.016724e-06	6.110454e-09	3.576892e+01	4.024694e+02
1.460000e-06	5.053378e-06	6.138448e-09	3.603027e+01	4.045133e+02
1.470000e-06	5.088334e-06	6.165802e-09	3.627950e+01	4.064279e+02
1.480000e-06	5.121285e-06	6.192948e-09	3.651444e+01	4.082184e+02
1.490000e-06	5.152412e-06	6.217840e-09	3.673637e+01	4.098882e+02
1.500000e-06	5.181904e-06	6.239208e-09	3.694665e+01	4.114386e+02
1.510000e-06	5.209707e-06	6.257900e-09	3.714488e+01	4.128701e+02
1.520000e-06	5.235526e-06	6.275935e-09	3.732897e+01	4.141826e+02
1.530000e-06	5.259232e-06	6.293415e-09	3.749799e+01	4.153761e+02
1.540000e-06	5.281031e-06	6.310198e-09	3.765342e+01	4.164517e+02
1.550000e-06	5.301151e-06	6.326077e-09	3.779687e+01	4.174114e+02
1.560000e-06	5.319488e-06	6.339529e-09	3.792761e+01	4.182589e+02
1.570000e-06	5.335811e-06	6.349838e-09	3.804399e+01	4.189988e+02
1.580000e-06	5.350165e-06	6.358808e-09	3.814633e+01	4.196367e+02
1.590000e-06	5.362524e-06	6.368723e-09	3.823445e+01	4.201782e+02
1.600000e-06	5.372689e-06	6.377498e-09	3.830693e+01	4.206283e+02
1.610000e-06	5.380718e-06	6.383628e-09	3.836418e+01	4.209910e+02
1.620000e-06	5.386841e-06	6.388240e-09	3.840784e+01	4.212684e+02
1.630000e-06	5.391214e-06	6.392118e-09	3.843902e+01	4.214610e+02
1.640000e-06	5.393715e-06	6.395430e-09	3.845685e+01	4.215673e+02
1.650000e-06	5.394158e-06	6.398128e-09	3.846000e+01	4.215845e+02
1.660000e-06	5.392785e-06	6.397609e-09	3.845021e+01	4.215090e+02
1.670000e-06	5.389815e-06	6.392709e-09	3.842904e+01	4.213375e+02
1.680000e-06	5.385093e-06	6.388246e-09	3.839537e+01	4.210675e+02
1.690000e-06	5.378389e-06	6.384930e-09	3.834757e+01	4.206981e+02
1.700000e-06	5.369917e-06	6.380941e-09	3.828717e+01	4.202308e+02
1.710000e-06	5.359937e-06	6.374857e-09	3.821601e+01	4.196696e+02
1.720000e-06	5.348302e-06	6.368008e-09	3.813305e+01	4.190208e+02
1.730000e-06	5.334666e-06	6.356904e-09	3.803583e+01	4.182925e+02
1.740000e-06	5.318961e-06	6.315989e-09	3.792385e+01	4.174939e+02
1.750000e-06	5.301031e-06	6.287260e-09	3.779601e+01	4.166341e+02
1.760000e-06	5.280429e-06	6.295340e-09	3.764913e+01	4.157212e+02
1.770000e-06	5.257477e-06	6.303343e-09	3.748548e+01	4.147611e+02
1.780000e-06	5.233144e-06	6.327944e-09	3.731199e+01	4.137568e+02
1.790000e-06	5.208066e-06	6.280770e-09	3.713318e+01	4.127079e+02
1.800000e-06	5.181693e-06	6.190517e-09	3.694514e+01	4.116106e+02
1.810000e-06	5.153102e-06	6.216317e-09	3.674129e+01	4.104578e+02
1.820000e-06	5.122579e-06	6.196012e-09	3.652366e+01	4.092403e+02
1.830000e-06	5.090403e-06	6.162479e-09	3.629425e+01	4.079471e+02
1.840000e-06	5.056288e-06	6.228608e-09	3.605101e+01	4.065671e+02
1.850000e-06	5.020601e-06	6.185510e-09	3.579657e+01	4.050902e+02
1.860000e-06	4.983217e-06	6.163048e-09	3.553002e+01	4.035081e+02
1.870000e-06	4.943899e-06	6.185971e-09	3.524969e+01	4.018149e+02
1.880000e-06	4.902919e-06	6.077904e-09	3.495750e+01	4.000082e+02
1.890000e-06	4.860105e-06	6.062801e-09	3.465224e+01	3.980883e+02
1.900000e-06	4.815617e-06	6.049696e-09	3.433504e+01	3.960584e+02
1.910000e-06	4.769380e-06	5.990512e-09	3.400537e+01	3.939237e+02
1.920000e-06	4.721081e-06	6.022939e-09	3.366101e+01	3.916906e+02
1.930000e-06	4.671102e-06	5.944967e-09	3.330466e+01	3.893658e+02
1.940000e-06	4.619473e-06	5.880798e-09	3.293655e+01	3.869555e+02
1.950000e-06	4.565842e-06	5.873997e-09	3.255416e+01	3.844645e+02
1.960000e-06	4.510252e-06	5.815926e-09	3.215781e+01	3.818958e+02
1.970000e-06	4.452919e-06	5.797456e-09	3.174903e+01	3.792505e+02
1.980000e-06	4.394125e-06	5.761415e-09	3.132983e+01	3.765279e+02
1.990000e-06	4.333882e-06	5.727720e-09	3.090030e+01	3.737256e+02
2.000000e-06	4.271963e-06	5.659400e-09	3.045883e+01	3.708404e+02
2.010000e-06	4.208363e-06	5.585239e-09	3.000536e+01	3.678686e+02
2.020000e-06	4.143208e-06	5.578824e-09	2.954081e+01	3.648067e+02
2.030000e-06	4.076664e-06	5.517514e-09	2.906635e+01	3.616519e+02
2.040000e-06	4.008770e-06	5.486564e-09	2.858227e+01	3.584021e+02
2.050000e-06	3.939371e-06	5.449281e-09	2.808747e+01	3.550567e+02
2.060000e-06	3.868387e-06	5.373412e-09	2.758136e+01	3.516156e+02
2.070000e-06	3.795988e-06	5.320415e-09	2.706515e+01	3.480797e+02
2.080000e-06	3.722312e-06	5.239465e-09	2.653985e+01	3.444500e+02
2.090000e-06	3.647288e-06	5.197084e-09	2.600493e+01	3.407277e+02
2.100000e-06	3.570853e-06	5.143163e-09	2.545995e+01	3.369133e+02
2.110000e-06	3.492849e-06	5.074223e-09	2.490379e+01	3.330068e+02
2.120000e-06	3.413399e-06	5.029615e-09	2.433732e+01	3.290072e+02
2.130000e-06	3.332829e-06	4.971487e-09	2.376286e+01	3.249128e+02
2.140000e-06	3.251175e-06	4.909518e-09	2.318067e+01	3.207212e+02
2.150000e-06	3.168456e-06	4.830696e-09	2.259089e+01	3.164295e+02
2.160000e-06	3.084728e-06	4.761078e-09	2.199392e+01	3.120348e+02
2.170000e-06	2.999890e-06	4.693950e-09	2.138902e+01	3.075341e+02
2.180000e-06	2.913720e-06	4.630454e-09	2.077464e+01	3.029250e+02
2.190000e-06	2.826323e-06	4.565386e-09	2.015150e+01	2.982056e+02
2.200000e-06	2.737973e-06	4.486579e-09	1.952158e+01	2.933744e+02
2.210000e-06	2.648714e-06	4.404582e-09	1.888516e+01	2.884306e+02
2.220000e-06	2.558542e-06	4.319479e-09	1.824224e+01	2.833734e+02
2.230000e-06	2.467491e-06	4.248128e-09	1.759305e+01	2.782024e+02
2.240000e-06	2.375665e-06	4.177086e-09	1.693834e+01	2.729168e+02
2.250000e-06	2.283101e-06	4.103448e-09	1.627836e+01	2.675158e+02
2.260000e-06	2.189751e-06	4.019295e-09	1.561279e+01	2.619981e+02
2.270000e-06	2.095394e-06	3.923346e-09	1.494003e+01	2.563619e+02
2.280000e-06	1.999975e-06	3.828080e-09	1.425969e+01	2.506053e+02
2.290000e-06	1.903850e-06	3.736717e-09	1.357433e+01	2.447263e+02
2.300000e-06	1.807231e-06	3.648637e-09	1.288544e+01	2.387229e+02
2.310000e-06	1.710141e-06	3.556069e-09	1.219320e+01	2.325933e+02
2.320000e-06	1.612473e-06	3.460165e-09	1.149683e+01	2.263360e+02
2.330000e-06	1.514184e-06	3.366503e-09	1.079604e+01	2.199500e+02
2.340000e-06	1.415383e-06	3.272959e-09	1.009159e+01	2.134343e+02
2.350000e-06	1.316148e-06	3.170240e-09	9.384054e+00	2.067880e+02
2.360000e-06	1.216557e-06	3.063310e-09	8.673971e+00	2.000100e+02
2.370000e-06	1.116710e-06	2.956534e-09	7.962071e+00	1.930984e+02
2.380000e-06	1.016581e-06	2.850159e-09	7.248160e+00	1.860505e+02
2.390000e-06	9.161014e-07	2.745644e-09	6.531745e+00	1.788625e+02
2.400000e-06	8.152574e-07	2.637570e-09	5.812734e+00	1.715291e+02
2.410000e-06	7.140926e-07	2.522030e-09	5.091435e+00	1.640440e+02
2.420000e-06	6.127309e-07	2.398088e-09	4.368733e+00	1.563998e+02
2.430000e-06	5.111531e-07	2.272971e-09	3.644489e+00	1.485882e+02
2.440000e-06	4.093344e-07	2.155599e-09	2.918528e+00	1.406008e+02
2.450000e-06	3.072712e-07	2.039866e-09	2.190824e+00	1.324292e+02
2.460000e-06	2.049932e-07	1.914256e-09	1.461588e+00	1.240652e+02
2.470000e-06	1.025787e-07	1.780541e-09	7.313793e-01	1.155015e+02
2.480000e-06	7.625654e-11	1.643439e-09	5.437043e-04	1.067315e+02
2.490000e-06	-1.024280e-07	1.507109e-09	-7.303054e-01	9.774912e+01
2.500000e-06	-2.049053e-07	1.371676e-09	-1.460962e+00	8.854890e+01
2.510000e-06	-3.073134e-07	1.233084e-09	-2.191125e+00	7.912547e+01
2.520000e-06	-4.095576e-07	1.089192e-09	-2.920119e+00	6.947327e+01
2.530000e-06	-5.116679e-07	9.369056e-10	-3.648160e+00	5.958643e+01
2.540000e-06	-6.135884e-07	7.807794e-10	-4.374846e+00	4.945863e+01
2.550000e-06	-7.151799e-07	6.252621e-10	-5.099187e+00	3.908347e+01
2.560000e-06	-8.164040e-07	4.655279e-10	-5.820908e+00	2.845493e+01
2.570000e-06	-9.172556e-07	2.989300e-10	-6.539974e+00	1.756836e+01
2.580000e-06	-1.017747e-06	1.280414e-10	-7.256473e+00	6.421560e+00
2.590000e-06	-1.117889e-06	-4.485741e-11	-7.970475e+00	-4.983812e+00
2.600000e-06	-1.217664e-06	-2.201331e-10	-8.681870e+00	-1.664091e+01
2.610000e-06	-1.316970e-06	-4.004828e-10	-9.389913e+00	-2.853641e+01
2.620000e-06	-1.415805e-06	-5.857404e-10	-1.009460e+01	-4.064963e+01
2.630000e-06	-1.514212e-06	-7.757606e-10	-1.079624e+01	-5.295192e+01
2.640000e-06	-1.612100e-06	-9.686770e-10	-1.149417e+01	-6.540683e+01
2.650000e-06	-1.709383e-06	-1.161801e-09	-1.218779e+01	-7.797069e+01
2.660000e-06	-1.806083e-06	-1.354584e-09	-1.287726e+01	-9.059389e+01
2.670000e-06	-1.902283e-06	-1.547420e-09	-1.356315e+01	-1.032227e+02
2.680000e-06	-1.997934e-06	-1.744048e-09	-1.424514e+01	-1.158012e+02
2.690000e-06	-2.092911e-06	-1.942181e-09	-1.492232e+01	-1.282741e+02
2.700000e-06	-2.186985e-06	-2.134550e-09	-1.559307e+01	-1.405884e+02
2.710000e-06	-2.279987e-06	-2.318658e-09	-1.625616e+01	-1.526956e+02
2.720000e-06	-2.372008e-06	-2.496576e-09	-1.691227e+01	-1.645538e+02
2.730000e-06	-2.463217e-06	-2.669508e-09	-1.756258e+01	-1.761278e+02
2.740000e-06	-2.553599e-06	-2.837279e-09	-1.820700e+01	-1.873905e+02
2.750000e-06	-2.643029e-06	-3.000934e-09	-1.884463e+01	-1.983218e+02
2.760000e-06	-2.731575e-06	-3.161751e-09	-1.947596e+01	-2.089088e+02
2.770000e-06	-2.819356e-06	-3.319975e-09	-2.010183e+01	-2.191437e+02
2.780000e-06	-2.906244e-06	-3.474083e-09	-2.072133e+01	-2.290234e+02
2.790000e-06	-2.991947e-06	-3.621157e-09	-2.133239e+01	-2.385476e+02
2.800000e-06	-3.076398e-06	-3.760479e-09	-2.193452e+01	-2.477179e+02
2.810000e-06	-3.159750e-06	-3.892855e-09	-2.252882e+01	-2.565368e+02
2.820000e-06	-3.242122e-06	-4.020589e-09	-2.311612e+01	-2.650073e+02
2.830000e-06	-3.323468e-06	-4.144977e-09	-2.369612e+01	-2.731329e+02
2.840000e-06	-3.403779e-06	-4.265281e-09	-2.426872e+01	-2.809179e+02
2.850000e-06	-3.482949e-06	-4.381095e-09	-2.483321e+01	-2.883675e+02
2.860000e-06	-3.560628e-06	-4.491212e-09	-2.538705e+01	-2.954892e+02
2.870000e-06	-3.636711e-06	-4.595811e-09	-2.592952e+01	-3.022926e+02
2.880000e-06	-3.711410e-06	-4.696532e-09	-2.646212e+01	-3.087901e+02
2.890000e-06	-3.784778e-06	-4.792923e-09	-2.698523e+01	-3.149971e+02
2.900000e-06	-3.856839e-06	-4.883183e-09	-2.749901e+01	-3.209313e+02
2.910000e-06	-3.927523e-06	-4.968398e-09	-2.800299e+01	-3.266122e+02
2.920000e-06	-3.996598e-06	-5.049777e-09	-2.849549e+01	-3.320602e+02
2.930000e-06	-4.064171e-06	-5.128664e-09	-2.897728e+01	-3.372948e+02
2.940000e-06	-4.130360e-06	-5.205606e-09	-2.944921e+01	-3.423342e+02
