# Temperatura_=_36.32
# Concentracion g/m^3_=_15000.0
# C_Vs_to_Am_M_A/Vsm_=_65563218390.804596
# pendiente_HvsI_1/m_=_3716.3
# ordenada_HvsI_A/m_=_1297.0
# frecuencia_Hz_=_301593.7073739071

Tiempo_(s)	Campo_(V.s)	Magnetizacion_(V.s)	Campo_(kA/m)	Magnetizacion_(A/m)
0.000000e+00	-5.376948e-06	-5.823985e-09	-3.833888e+01	-3.812288e+02
1.000000e-08	-5.374345e-06	-5.824852e-09	-3.832032e+01	-3.810928e+02
2.000000e-08	-5.369894e-06	-5.819865e-09	-3.828858e+01	-3.808749e+02
3.000000e-08	-5.363802e-06	-5.815219e-09	-3.824514e+01	-3.805755e+02
4.000000e-08	-5.356129e-06	-5.809066e-09	-3.819043e+01	-3.801959e+02
5.000000e-08	-5.346698e-06	-5.799006e-09	-3.812318e+01	-3.797395e+02
6.000000e-08	-5.335221e-06	-5.786178e-09	-3.804135e+01	-3.792103e+02
7.000000e-08	-5.321910e-06	-5.766121e-09	-3.794644e+01	-3.786139e+02
8.000000e-08	-5.306614e-06	-5.755579e-09	-3.783738e+01	-3.779560e+02
9.000000e-08	-5.288968e-06	-5.820680e-09	-3.771156e+01	-3.772420e+02
1.000000e-07	-5.269184e-06	-5.818992e-09	-3.757049e+01	-3.764768e+02
1.100000e-07	-5.247476e-06	-5.750109e-09	-3.741571e+01	-3.756635e+02
1.200000e-07	-5.224082e-06	-5.736420e-09	-3.724890e+01	-3.748033e+02
1.300000e-07	-5.199198e-06	-5.616743e-09	-3.707147e+01	-3.738954e+02
1.400000e-07	-5.172684e-06	-5.603498e-09	-3.688242e+01	-3.729368e+02
1.500000e-07	-5.144523e-06	-5.794257e-09	-3.668163e+01	-3.719228e+02
1.600000e-07	-5.114887e-06	-5.635378e-09	-3.647032e+01	-3.708474e+02
1.700000e-07	-5.083777e-06	-5.635374e-09	-3.624850e+01	-3.697042e+02
1.800000e-07	-5.050585e-06	-5.757586e-09	-3.601183e+01	-3.684867e+02
1.900000e-07	-5.015395e-06	-5.508895e-09	-3.576092e+01	-3.671896e+02
2.000000e-07	-4.978872e-06	-5.552536e-09	-3.550050e+01	-3.658091e+02
2.100000e-07	-4.940666e-06	-5.614082e-09	-3.522809e+01	-3.643432e+02
2.200000e-07	-4.900604e-06	-5.451769e-09	-3.494244e+01	-3.627918e+02
2.300000e-07	-4.858600e-06	-5.498083e-09	-3.464294e+01	-3.611568e+02
2.400000e-07	-4.814576e-06	-5.500488e-09	-3.432903e+01	-3.594415e+02
2.500000e-07	-4.768836e-06	-5.444229e-09	-3.400289e+01	-3.576501e+02
2.600000e-07	-4.721276e-06	-5.467439e-09	-3.366378e+01	-3.557870e+02
2.700000e-07	-4.671604e-06	-5.380058e-09	-3.330961e+01	-3.538561e+02
2.800000e-07	-4.619845e-06	-5.371989e-09	-3.294056e+01	-3.518603e+02
2.900000e-07	-4.566185e-06	-5.348090e-09	-3.255795e+01	-3.498011e+02
3.000000e-07	-4.510908e-06	-5.277899e-09	-3.216381e+01	-3.476782e+02
3.100000e-07	-4.454032e-06	-5.266801e-09	-3.175827e+01	-3.454898e+02
3.200000e-07	-4.395292e-06	-5.255790e-09	-3.133944e+01	-3.432327e+02
3.300000e-07	-4.334905e-06	-5.215154e-09	-3.090887e+01	-3.409029e+02
3.400000e-07	-4.273122e-06	-5.123855e-09	-3.046834e+01	-3.384959e+02
3.500000e-07	-4.210011e-06	-5.113415e-09	-3.001834e+01	-3.360074e+02
3.600000e-07	-4.145440e-06	-5.096951e-09	-2.955794e+01	-3.334338e+02
3.700000e-07	-4.079156e-06	-5.029132e-09	-2.908532e+01	-3.307725e+02
3.800000e-07	-4.011227e-06	-5.005067e-09	-2.860097e+01	-3.280221e+02
3.900000e-07	-3.941895e-06	-4.961791e-09	-2.810661e+01	-3.251824e+02
4.000000e-07	-3.871313e-06	-4.906334e-09	-2.760335e+01	-3.222540e+02
4.100000e-07	-3.799572e-06	-4.848213e-09	-2.709182e+01	-3.192382e+02
4.200000e-07	-3.726481e-06	-4.808158e-09	-2.657067e+01	-3.161367e+02
4.300000e-07	-3.651801e-06	-4.782497e-09	-2.603818e+01	-3.129504e+02
4.400000e-07	-3.575558e-06	-4.729766e-09	-2.549455e+01	-3.096800e+02
4.500000e-07	-3.497921e-06	-4.677259e-09	-2.494098e+01	-3.063251e+02
4.600000e-07	-3.418895e-06	-4.623836e-09	-2.437750e+01	-3.028841e+02
4.700000e-07	-3.338516e-06	-4.572535e-09	-2.380438e+01	-2.993547e+02
4.800000e-07	-3.256950e-06	-4.511815e-09	-2.322280e+01	-2.957337e+02
4.900000e-07	-3.174244e-06	-4.440896e-09	-2.263309e+01	-2.920175e+02
5.000000e-07	-3.090484e-06	-4.389976e-09	-2.203586e+01	-2.882025e+02
5.100000e-07	-3.005806e-06	-4.331246e-09	-2.143209e+01	-2.842857e+02
5.200000e-07	-2.920210e-06	-4.268064e-09	-2.082177e+01	-2.802645e+02
5.300000e-07	-2.833610e-06	-4.206250e-09	-2.020429e+01	-2.761376e+02
5.400000e-07	-2.746076e-06	-4.145026e-09	-1.958015e+01	-2.719044e+02
5.500000e-07	-2.657633e-06	-4.083339e-09	-1.894953e+01	-2.675653e+02
5.600000e-07	-2.568048e-06	-4.007617e-09	-1.831078e+01	-2.631214e+02
5.700000e-07	-2.477280e-06	-3.935232e-09	-1.766358e+01	-2.585740e+02
5.800000e-07	-2.385579e-06	-3.867941e-09	-1.700973e+01	-2.539246e+02
5.900000e-07	-2.293151e-06	-3.799570e-09	-1.635069e+01	-2.491737e+02
6.000000e-07	-2.199952e-06	-3.719392e-09	-1.568617e+01	-2.443215e+02
6.100000e-07	-2.105923e-06	-3.640810e-09	-1.501572e+01	-2.393669e+02
6.200000e-07	-2.011196e-06	-3.565260e-09	-1.434029e+01	-2.343079e+02
6.300000e-07	-1.915815e-06	-3.486107e-09	-1.366020e+01	-2.291414e+02
6.400000e-07	-1.819758e-06	-3.411077e-09	-1.297529e+01	-2.238637e+02
6.500000e-07	-1.723011e-06	-3.337461e-09	-1.228547e+01	-2.184704e+02
6.600000e-07	-1.625472e-06	-3.256891e-09	-1.158999e+01	-2.129572e+02
6.700000e-07	-1.527200e-06	-3.159471e-09	-1.088929e+01	-2.073199e+02
6.800000e-07	-1.428329e-06	-3.062135e-09	-1.018431e+01	-2.015549e+02
6.900000e-07	-1.328942e-06	-2.972478e-09	-9.475660e+00	-1.956593e+02
7.000000e-07	-1.229150e-06	-2.885438e-09	-8.764122e+00	-1.896307e+02
7.100000e-07	-1.129002e-06	-2.793521e-09	-8.050045e+00	-1.834675e+02
7.200000e-07	-1.028547e-06	-2.695065e-09	-7.333778e+00	-1.771687e+02
7.300000e-07	-9.278317e-07	-2.596009e-09	-6.615653e+00	-1.707331e+02
7.400000e-07	-8.268403e-07	-2.496920e-09	-5.895561e+00	-1.641595e+02
7.500000e-07	-7.255272e-07	-2.398194e-09	-5.173176e+00	-1.574464e+02
7.600000e-07	-6.239015e-07	-2.295732e-09	-4.448561e+00	-1.505912e+02
7.700000e-07	-5.220366e-07	-2.186914e-09	-3.722241e+00	-1.435905e+02
7.800000e-07	-4.200348e-07	-2.073042e-09	-2.994944e+00	-1.364399e+02
7.900000e-07	-3.179056e-07	-1.958968e-09	-2.266740e+00	-1.291336e+02
8.000000e-07	-2.156471e-07	-1.846886e-09	-1.537613e+00	-1.216649e+02
8.100000e-07	-1.133501e-07	-1.735849e-09	-8.082125e-01	-1.140261e+02
8.200000e-07	-1.101020e-08	-1.619162e-09	-7.850526e-02	-1.062086e+02
8.300000e-07	9.139290e-08	-1.492853e-09	6.516524e-01	-9.820328e+01
8.400000e-07	1.938203e-07	-1.365365e-09	1.381983e+00	-9.000055e+01
8.500000e-07	2.961758e-07	-1.241592e-09	2.111801e+00	-8.159062e+01
8.600000e-07	3.983879e-07	-1.115861e-09	2.840597e+00	-7.296376e+01
8.700000e-07	5.005049e-07	-9.799244e-10	3.568715e+00	-6.411053e+01
8.800000e-07	6.025092e-07	-8.366575e-10	4.296029e+00	-5.502219e+01
8.900000e-07	7.043328e-07	-6.902362e-10	5.022055e+00	-4.569115e+01
9.000000e-07	8.059024e-07	-5.413338e-10	5.746269e+00	-3.611145e+01
9.100000e-07	9.071758e-07	-3.911430e-10	6.468372e+00	-2.627945e+01
9.200000e-07	1.008157e-06	-2.393300e-10	7.188392e+00	-1.619454e+01
9.300000e-07	1.108806e-06	-8.251240e-11	7.906041e+00	-5.859879e+00
9.400000e-07	1.209089e-06	8.266938e-11	8.621081e+00	4.716880e+00
9.500000e-07	1.309033e-06	2.497228e-10	9.333705e+00	1.552296e+01
9.600000e-07	1.408533e-06	4.156825e-10	1.004316e+01	2.654000e+01
9.700000e-07	1.507490e-06	5.840089e-10	1.074875e+01	3.774386e+01
9.800000e-07	1.605755e-06	7.581713e-10	1.144940e+01	4.910470e+01
9.900000e-07	1.703174e-06	9.371013e-10	1.214402e+01	6.058740e+01
1.000000e-06	1.799782e-06	1.114629e-09	1.283286e+01	7.215230e+01
1.010000e-06	1.895717e-06	1.290552e-09	1.351690e+01	8.375623e+01
1.020000e-06	1.991041e-06	1.466126e-09	1.419658e+01	9.535380e+01
1.030000e-06	2.085677e-06	1.639997e-09	1.487136e+01	1.068988e+02
1.040000e-06	2.179583e-06	1.814483e-09	1.554093e+01	1.183455e+02
1.050000e-06	2.272735e-06	1.988048e-09	1.620512e+01	1.296503e+02
1.060000e-06	2.365140e-06	2.159744e-09	1.686399e+01	1.407725e+02
1.070000e-06	2.456847e-06	2.325802e-09	1.751789e+01	1.516757e+02
1.080000e-06	2.547717e-06	2.487085e-09	1.816581e+01	1.623281e+02
1.090000e-06	2.637463e-06	2.647857e-09	1.880572e+01	1.727028e+02
1.100000e-06	2.726052e-06	2.804275e-09	1.943737e+01	1.827780e+02
1.110000e-06	2.813658e-06	2.951451e-09	2.006203e+01	1.925368e+02
1.120000e-06	2.900405e-06	3.090751e-09	2.068055e+01	2.019668e+02
1.130000e-06	2.986257e-06	3.227615e-09	2.129270e+01	2.110594e+02
1.140000e-06	3.071151e-06	3.362493e-09	2.189801e+01	2.198097e+02
1.150000e-06	3.155151e-06	3.492270e-09	2.249695e+01	2.282159e+02
1.160000e-06	3.238153e-06	3.614315e-09	2.308877e+01	2.362792e+02
1.170000e-06	3.319892e-06	3.729511e-09	2.367159e+01	2.440032e+02
1.180000e-06	3.400320e-06	3.840597e-09	2.424506e+01	2.513940e+02
1.190000e-06	3.479506e-06	3.947215e-09	2.480968e+01	2.584604e+02
1.200000e-06	3.557532e-06	4.048969e-09	2.536602e+01	2.652134e+02
1.210000e-06	3.634392e-06	4.148124e-09	2.591405e+01	2.716661e+02
1.220000e-06	3.709890e-06	4.241543e-09	2.645237e+01	2.778337e+02
1.230000e-06	3.783750e-06	4.328843e-09	2.697900e+01	2.837328e+02
1.240000e-06	3.856025e-06	4.413096e-09	2.749434e+01	2.893809e+02
1.250000e-06	3.926938e-06	4.496710e-09	2.799997e+01	2.947957e+02
1.260000e-06	3.996456e-06	4.578689e-09	2.849565e+01	2.999941e+02
1.270000e-06	4.064674e-06	4.655758e-09	2.898206e+01	3.049916e+02
1.280000e-06	4.131453e-06	4.728280e-09	2.945821e+01	3.098014e+02
1.290000e-06	4.196444e-06	4.798594e-09	2.992161e+01	3.144339e+02
1.300000e-06	4.259843e-06	4.865701e-09	3.037366e+01	3.188963e+02
1.310000e-06	4.321894e-06	4.929494e-09	3.081610e+01	3.231923e+02
1.320000e-06	4.382585e-06	4.990694e-09	3.124884e+01	3.273231e+02
1.330000e-06	4.441906e-06	5.048933e-09	3.167181e+01	3.312869e+02
1.340000e-06	4.499520e-06	5.105518e-09	3.208261e+01	3.350808e+02
1.350000e-06	4.555290e-06	5.160205e-09	3.248026e+01	3.387007e+02
1.360000e-06	4.609444e-06	5.212863e-09	3.286639e+01	3.421429e+02
1.370000e-06	4.661924e-06	5.261016e-09	3.324059e+01	3.454049e+02
1.380000e-06	4.712349e-06	5.305095e-09	3.360013e+01	3.484855e+02
1.390000e-06	4.760727e-06	5.348447e-09	3.394508e+01	3.513863e+02
1.400000e-06	4.807440e-06	5.390226e-09	3.427815e+01	3.541109e+02
1.410000e-06	4.852597e-06	5.427684e-09	3.460013e+01	3.566651e+02
1.420000e-06	4.896204e-06	5.461594e-09	3.491106e+01	3.590566e+02
1.430000e-06	4.937965e-06	5.493625e-09	3.520882e+01	3.612942e+02
1.440000e-06	4.977870e-06	5.523416e-09	3.549336e+01	3.633872e+02
1.450000e-06	5.016156e-06	5.552046e-09	3.576634e+01	3.653447e+02
1.460000e-06	5.052834e-06	5.577900e-09	3.602787e+01	3.671747e+02
1.470000e-06	5.087833e-06	5.602215e-09	3.627742e+01	3.688840e+02
1.480000e-06	5.120857e-06	5.624622e-09	3.651288e+01	3.704781e+02
1.490000e-06	5.151961e-06	5.644569e-09	3.673467e+01	3.719605e+02
1.500000e-06	5.181380e-06	5.665071e-09	3.694443e+01	3.733338e+02
1.510000e-06	5.209173e-06	5.685027e-09	3.714260e+01	3.745994e+02
1.520000e-06	5.234940e-06	5.703540e-09	3.732633e+01	3.757587e+02
1.530000e-06	5.258572e-06	5.719964e-09	3.749483e+01	3.768126e+02
1.540000e-06	5.280433e-06	5.735495e-09	3.765070e+01	3.777630e+02
1.550000e-06	5.300657e-06	5.748926e-09	3.779490e+01	3.786121e+02
1.560000e-06	5.319029e-06	5.759300e-09	3.792590e+01	3.793630e+02
1.570000e-06	5.335304e-06	5.768354e-09	3.804194e+01	3.800195e+02
1.580000e-06	5.349650e-06	5.776248e-09	3.814423e+01	3.805858e+02
1.590000e-06	5.362037e-06	5.784546e-09	3.823255e+01	3.810660e+02
1.600000e-06	5.372202e-06	5.792998e-09	3.830503e+01	3.814637e+02
1.610000e-06	5.380263e-06	5.800869e-09	3.836251e+01	3.817820e+02
1.620000e-06	5.386452e-06	5.806464e-09	3.840664e+01	3.820225e+02
1.630000e-06	5.390892e-06	5.809837e-09	3.843830e+01	3.821861e+02
1.640000e-06	5.393419e-06	5.812640e-09	3.845632e+01	3.822722e+02
1.650000e-06	5.393936e-06	5.817271e-09	3.846000e+01	3.822798e+02
1.660000e-06	5.392634e-06	5.817518e-09	3.845072e+01	3.822075e+02
1.670000e-06	5.389656e-06	5.810435e-09	3.842949e+01	3.820538e+02
1.680000e-06	5.384983e-06	5.807776e-09	3.839616e+01	3.818182e+02
1.690000e-06	5.378392e-06	5.805616e-09	3.834917e+01	3.815012e+02
1.700000e-06	5.370027e-06	5.801891e-09	3.828953e+01	3.811047e+02
1.710000e-06	5.360110e-06	5.799370e-09	3.821882e+01	3.806320e+02
1.720000e-06	5.348519e-06	5.802133e-09	3.813617e+01	3.800878e+02
1.730000e-06	5.334907e-06	5.823592e-09	3.803911e+01	3.794775e+02
1.740000e-06	5.319287e-06	5.725156e-09	3.792774e+01	3.788070e+02
1.750000e-06	5.301398e-06	5.677945e-09	3.780019e+01	3.780815e+02
1.760000e-06	5.280727e-06	5.721124e-09	3.765280e+01	3.773056e+02
1.770000e-06	5.257703e-06	5.698083e-09	3.748863e+01	3.764820e+02
1.780000e-06	5.233230e-06	5.842547e-09	3.731413e+01	3.756116e+02
1.790000e-06	5.208095e-06	5.769188e-09	3.713491e+01	3.746929e+02
1.800000e-06	5.181806e-06	5.540008e-09	3.694747e+01	3.737227e+02
1.810000e-06	5.153161e-06	5.738493e-09	3.674322e+01	3.726959e+02
1.820000e-06	5.122564e-06	5.620880e-09	3.652506e+01	3.716064e+02
1.830000e-06	5.090465e-06	5.507464e-09	3.629618e+01	3.704475e+02
1.840000e-06	5.056424e-06	5.798059e-09	3.605346e+01	3.692132e+02
1.850000e-06	5.020813e-06	5.603246e-09	3.579955e+01	3.678983e+02
1.860000e-06	4.983478e-06	5.547820e-09	3.553334e+01	3.664994e+02
1.870000e-06	4.944150e-06	5.707761e-09	3.525293e+01	3.650149e+02
1.880000e-06	4.903246e-06	5.469045e-09	3.496127e+01	3.634452e+02
1.890000e-06	4.860532e-06	5.519850e-09	3.465671e+01	3.617925e+02
1.900000e-06	4.816144e-06	5.492245e-09	3.434022e+01	3.600604e+02
1.910000e-06	4.769993e-06	5.390054e-09	3.401115e+01	3.582530e+02
1.920000e-06	4.721702e-06	5.546265e-09	3.366682e+01	3.563749e+02
1.930000e-06	4.671769e-06	5.331124e-09	3.331079e+01	3.544297e+02
1.940000e-06	4.620205e-06	5.363152e-09	3.294313e+01	3.524201e+02
1.950000e-06	4.566545e-06	5.438734e-09	3.256052e+01	3.503471e+02
1.960000e-06	4.510924e-06	5.271445e-09	3.216393e+01	3.482102e+02
1.970000e-06	4.453550e-06	5.275026e-09	3.175484e+01	3.460072e+02
1.980000e-06	4.394705e-06	5.196081e-09	3.133526e+01	3.437347e+02
1.990000e-06	4.334508e-06	5.253203e-09	3.090604e+01	3.413886e+02
2.000000e-06	4.272584e-06	5.198125e-09	3.046450e+01	3.389643e+02
2.010000e-06	4.208952e-06	5.089761e-09	3.001079e+01	3.364576e+02
2.020000e-06	4.143841e-06	5.164534e-09	2.954654e+01	3.338652e+02
2.030000e-06	4.077302e-06	5.026779e-09	2.907210e+01	3.311847e+02
2.040000e-06	4.009353e-06	4.990906e-09	2.858761e+01	3.284150e+02
2.050000e-06	3.939912e-06	4.974626e-09	2.809248e+01	3.255560e+02
2.060000e-06	3.868951e-06	4.949263e-09	2.758651e+01	3.226085e+02
2.070000e-06	3.796691e-06	4.926110e-09	2.707128e+01	3.195741e+02
2.080000e-06	3.723205e-06	4.787159e-09	2.654731e+01	3.164541e+02
2.090000e-06	3.648336e-06	4.782313e-09	2.601347e+01	3.132497e+02
2.100000e-06	3.572093e-06	4.730431e-09	2.546985e+01	3.099610e+02
2.110000e-06	3.494228e-06	4.675932e-09	2.491465e+01	3.065876e+02
2.120000e-06	3.414842e-06	4.620635e-09	2.434861e+01	3.031277e+02
2.130000e-06	3.334378e-06	4.570842e-09	2.377488e+01	2.995788e+02
2.140000e-06	3.252807e-06	4.550415e-09	2.319326e+01	2.959375e+02
2.150000e-06	3.170106e-06	4.453520e-09	2.260358e+01	2.922002e+02
2.160000e-06	3.086402e-06	4.410195e-09	2.200676e+01	2.883635e+02
2.170000e-06	3.001670e-06	4.353656e-09	2.140260e+01	2.844243e+02
2.180000e-06	2.915602e-06	4.287988e-09	2.078891e+01	2.803804e+02
2.190000e-06	2.828255e-06	4.206289e-09	2.016611e+01	2.762305e+02
2.200000e-06	2.739917e-06	4.133281e-09	1.953624e+01	2.719744e+02
2.210000e-06	2.650646e-06	4.099999e-09	1.889971e+01	2.676125e+02
2.220000e-06	2.560481e-06	4.032320e-09	1.825681e+01	2.631461e+02
2.230000e-06	2.469452e-06	3.954851e-09	1.760776e+01	2.585766e+02
2.240000e-06	2.377645e-06	3.877801e-09	1.695315e+01	2.539052e+02
2.250000e-06	2.285068e-06	3.820702e-09	1.629306e+01	2.491325e+02
2.260000e-06	2.191643e-06	3.745309e-09	1.562692e+01	2.442583e+02
2.270000e-06	2.097218e-06	3.663747e-09	1.495364e+01	2.392813e+02
2.280000e-06	2.001831e-06	3.585580e-09	1.427352e+01	2.341994e+02
2.290000e-06	1.905708e-06	3.499841e-09	1.358814e+01	2.290092e+02
2.300000e-06	1.808989e-06	3.408794e-09	1.289851e+01	2.237069e+02
2.310000e-06	1.711824e-06	3.318802e-09	1.220570e+01	2.182881e+02
2.320000e-06	1.614140e-06	3.248509e-09	1.150919e+01	2.127484e+02
2.330000e-06	1.515858e-06	3.172209e-09	1.080842e+01	2.070839e+02
2.340000e-06	1.417033e-06	3.086262e-09	1.010377e+01	2.012909e+02
2.350000e-06	1.317755e-06	2.991830e-09	9.395897e+00	1.953668e+02
2.360000e-06	1.218175e-06	2.900152e-09	8.685868e+00	1.893093e+02
2.370000e-06	1.118421e-06	2.807966e-09	7.974597e+00	1.831170e+02
2.380000e-06	1.018442e-06	2.708552e-09	7.261728e+00	1.767887e+02
2.390000e-06	9.180379e-07	2.607100e-09	6.545821e+00	1.703235e+02
2.400000e-06	8.171549e-07	2.505257e-09	5.826502e+00	1.637200e+02
2.410000e-06	7.158852e-07	2.403212e-09	5.104426e+00	1.569765e+02
2.420000e-06	6.143975e-07	2.296366e-09	4.380795e+00	1.500902e+02
2.430000e-06	5.126982e-07	2.190278e-09	3.655656e+00	1.430577e+02
2.440000e-06	4.106672e-07	2.084404e-09	2.928151e+00	1.358740e+02
2.450000e-06	3.084565e-07	1.971968e-09	2.199366e+00	1.285334e+02
2.460000e-06	2.061742e-07	1.850094e-09	1.470069e+00	1.210287e+02
2.470000e-06	1.036914e-07	1.729662e-09	7.393438e-01	1.133521e+02
2.480000e-06	1.109717e-09	1.612426e-09	7.912538e-03	1.054950e+02
2.490000e-06	-1.014538e-07	1.490760e-09	-7.233889e-01	9.744801e+01
2.500000e-06	-2.040204e-07	1.363937e-09	-1.454712e+00	8.920152e+01
2.510000e-06	-3.065299e-07	1.236828e-09	-2.185628e+00	8.074574e+01
2.520000e-06	-4.089003e-07	1.108523e-09	-2.915553e+00	7.207095e+01
2.530000e-06	-5.110406e-07	9.715945e-10	-3.643837e+00	6.316786e+01
2.540000e-06	-6.129726e-07	8.318502e-10	-4.370635e+00	5.402793e+01
2.550000e-06	-7.145999e-07	6.915477e-10	-5.095261e+00	4.464384e+01
2.560000e-06	-8.158701e-07	5.438955e-10	-5.817341e+00	3.501011e+01
2.570000e-06	-9.167879e-07	3.881041e-10	-6.536908e+00	2.512366e+01
2.580000e-06	-1.017271e-06	2.326153e-10	-7.253378e+00	1.498464e+01
2.590000e-06	-1.117325e-06	8.115563e-11	-7.966784e+00	4.597105e+00
2.600000e-06	-1.217009e-06	-7.560104e-11	-8.677553e+00	-6.030240e+00
2.610000e-06	-1.316338e-06	-2.415766e-10	-9.385792e+00	-1.688345e+01
2.620000e-06	-1.415222e-06	-4.106409e-10	-1.009086e+01	-2.794294e+01
2.630000e-06	-1.513574e-06	-5.809623e-10	-1.079213e+01	-3.918333e+01
2.640000e-06	-1.611381e-06	-7.538935e-10	-1.148951e+01	-5.057360e+01
2.650000e-06	-1.708657e-06	-9.279736e-10	-1.218312e+01	-6.207757e+01
2.660000e-06	-1.805364e-06	-1.103269e-09	-1.287266e+01	-7.365475e+01
2.670000e-06	-1.901551e-06	-1.282011e-09	-1.355850e+01	-8.526138e+01
2.680000e-06	-1.997221e-06	-1.462407e-09	-1.424065e+01	-9.685175e+01
2.690000e-06	-2.092215e-06	-1.640169e-09	-1.491797e+01	-1.083796e+02
2.700000e-06	-2.186225e-06	-1.813409e-09	-1.558829e+01	-1.197997e+02
2.710000e-06	-2.279144e-06	-1.984383e-09	-1.625082e+01	-1.310689e+02
2.720000e-06	-2.371156e-06	-2.154201e-09	-1.690688e+01	-1.421473e+02
2.730000e-06	-2.462378e-06	-2.318924e-09	-1.755732e+01	-1.529994e+02
2.740000e-06	-2.552826e-06	-2.476248e-09	-1.820224e+01	-1.635946e+02
2.750000e-06	-2.642339e-06	-2.629826e-09	-1.884048e+01	-1.739069e+02
2.760000e-06	-2.730864e-06	-2.781804e-09	-1.947169e+01	-1.839158e+02
2.770000e-06	-2.818629e-06	-2.932493e-09	-2.009747e+01	-1.936053e+02
2.780000e-06	-2.905569e-06	-3.080327e-09	-2.071737e+01	-2.029637e+02
2.790000e-06	-2.991301e-06	-3.219714e-09	-2.132866e+01	-2.119834e+02
2.800000e-06	-3.075780e-06	-3.351002e-09	-2.193102e+01	-2.206603e+02
2.810000e-06	-3.159221e-06	-3.477479e-09	-2.252597e+01	-2.289930e+02
2.820000e-06	-3.241657e-06	-3.599980e-09	-2.311376e+01	-2.369834e+02
2.830000e-06	-3.322982e-06	-3.716866e-09	-2.369362e+01	-2.446355e+02
2.840000e-06	-3.403253e-06	-3.829000e-09	-2.426597e+01	-2.519562e+02
2.850000e-06	-3.482460e-06	-3.938395e-09	-2.483074e+01	-2.589546e+02
2.860000e-06	-3.560217e-06	-4.042498e-09	-2.538517e+01	-2.656422e+02
2.870000e-06	-3.636387e-06	-4.139712e-09	-2.592828e+01	-2.720327e+02
2.880000e-06	-3.711105e-06	-4.232662e-09	-2.646103e+01	-2.781415e+02
2.890000e-06	-3.784431e-06	-4.322474e-09	-2.698386e+01	-2.839855e+02
2.900000e-06	-3.856544e-06	-4.407744e-09	-2.749805e+01	-2.895824e+02
2.910000e-06	-3.927300e-06	-4.488227e-09	-2.800255e+01	-2.949496e+02
2.920000e-06	-3.996371e-06	-4.567534e-09	-2.849504e+01	-3.001039e+02
2.930000e-06	-4.063916e-06	-4.645128e-09	-2.897666e+01	-3.050604e+02
2.940000e-06	-4.130123e-06	-4.719037e-09	-2.944873e+01	-3.098316e+02
