# Temperatura_=_52.03
# Concentracion g/m^3_=_15000.0
# C_Vs_to_Am_M_A/Vsm_=_65563218390.804596
# pendiente_HvsI_1/m_=_3716.3
# ordenada_HvsI_A/m_=_1297.0
# frecuencia_Hz_=_301593.3321942819

Tiempo_(s)	Campo_(V.s)	Magnetizacion_(V.s)	Campo_(kA/m)	Magnetizacion_(A/m)
0.000000e+00	-5.372533e-06	-6.363390e-09	-3.833801e+01	-4.157730e+02
1.000000e-08	-5.369950e-06	-6.361055e-09	-3.831958e+01	-4.156430e+02
2.000000e-08	-5.365530e-06	-6.354686e-09	-3.828804e+01	-4.154134e+02
3.000000e-08	-5.359428e-06	-6.347293e-09	-3.824450e+01	-4.150816e+02
4.000000e-08	-5.351747e-06	-6.339700e-09	-3.818968e+01	-4.146472e+02
5.000000e-08	-5.342218e-06	-6.330919e-09	-3.812169e+01	-4.141130e+02
6.000000e-08	-5.330646e-06	-6.321410e-09	-3.803911e+01	-4.134847e+02
7.000000e-08	-5.317295e-06	-6.308199e-09	-3.794384e+01	-4.127712e+02
8.000000e-08	-5.301888e-06	-6.298124e-09	-3.783390e+01	-4.119833e+02
9.000000e-08	-5.284132e-06	-6.336075e-09	-3.770719e+01	-4.111329e+02
1.000000e-07	-5.264307e-06	-6.330498e-09	-3.756572e+01	-4.102317e+02
1.100000e-07	-5.242674e-06	-6.273372e-09	-3.741135e+01	-4.092899e+02
1.200000e-07	-5.219376e-06	-6.248080e-09	-3.724510e+01	-4.083145e+02
1.300000e-07	-5.194531e-06	-6.167360e-09	-3.706780e+01	-4.073089e+02
1.400000e-07	-5.168018e-06	-6.156388e-09	-3.687861e+01	-4.062718e+02
1.500000e-07	-5.139860e-06	-6.274172e-09	-3.667768e+01	-4.051977e+02
1.600000e-07	-5.110241e-06	-6.156701e-09	-3.646632e+01	-4.040768e+02
1.700000e-07	-5.079040e-06	-6.132721e-09	-3.624367e+01	-4.028963e+02
1.800000e-07	-5.045762e-06	-6.210991e-09	-3.600620e+01	-4.016414e+02
1.900000e-07	-5.010559e-06	-6.064155e-09	-3.575500e+01	-4.002972e+02
2.000000e-07	-4.973949e-06	-6.096580e-09	-3.549375e+01	-3.988495e+02
2.100000e-07	-4.935612e-06	-6.109221e-09	-3.522018e+01	-3.972869e+02
2.200000e-07	-4.895421e-06	-5.949964e-09	-3.493338e+01	-3.956012e+02
2.300000e-07	-4.853319e-06	-5.965920e-09	-3.463294e+01	-3.937883e+02
2.400000e-07	-4.809272e-06	-5.984910e-09	-3.431862e+01	-3.918483e+02
2.500000e-07	-4.763468e-06	-5.948333e-09	-3.399177e+01	-3.897851e+02
2.600000e-07	-4.715796e-06	-5.950203e-09	-3.365159e+01	-3.876055e+02
2.700000e-07	-4.666086e-06	-5.847809e-09	-3.329686e+01	-3.853186e+02
2.800000e-07	-4.614281e-06	-5.805308e-09	-3.292718e+01	-3.829340e+02
2.900000e-07	-4.560580e-06	-5.804208e-09	-3.254397e+01	-3.804612e+02
3.000000e-07	-4.505326e-06	-5.773201e-09	-3.214968e+01	-3.779083e+02
3.100000e-07	-4.448427e-06	-5.738059e-09	-3.174366e+01	-3.752814e+02
3.200000e-07	-4.389679e-06	-5.680824e-09	-3.132444e+01	-3.725839e+02
3.300000e-07	-4.329374e-06	-5.622405e-09	-3.089411e+01	-3.698168e+02
3.400000e-07	-4.267668e-06	-5.557620e-09	-3.045378e+01	-3.669788e+02
3.500000e-07	-4.204582e-06	-5.556443e-09	-3.000360e+01	-3.640666e+02
3.600000e-07	-4.139975e-06	-5.532884e-09	-2.954257e+01	-3.610762e+02
3.700000e-07	-4.073618e-06	-5.443028e-09	-2.906905e+01	-3.580026e+02
3.800000e-07	-4.005715e-06	-5.393817e-09	-2.858450e+01	-3.548415e+02
3.900000e-07	-3.936463e-06	-5.353690e-09	-2.809032e+01	-3.515891e+02
4.000000e-07	-3.865947e-06	-5.306314e-09	-2.758712e+01	-3.482427e+02
4.100000e-07	-3.794223e-06	-5.254514e-09	-2.707531e+01	-3.448004e+02
4.200000e-07	-3.721188e-06	-5.193670e-09	-2.655413e+01	-3.412615e+02
4.300000e-07	-3.646572e-06	-5.138574e-09	-2.602168e+01	-3.376259e+02
4.400000e-07	-3.570301e-06	-5.079700e-09	-2.547742e+01	-3.338937e+02
4.500000e-07	-3.492654e-06	-5.038280e-09	-2.492333e+01	-3.300650e+02
4.600000e-07	-3.413575e-06	-4.997228e-09	-2.435903e+01	-3.261394e+02
4.700000e-07	-3.333166e-06	-4.926247e-09	-2.378524e+01	-3.221161e+02
4.800000e-07	-3.251615e-06	-4.834884e-09	-2.320329e+01	-3.179933e+02
4.900000e-07	-3.168869e-06	-4.760769e-09	-2.261282e+01	-3.137689e+02
5.000000e-07	-3.085099e-06	-4.715903e-09	-2.201505e+01	-3.094403e+02
5.100000e-07	-3.000456e-06	-4.656908e-09	-2.141104e+01	-3.050047e+02
5.200000e-07	-2.914877e-06	-4.584169e-09	-2.080036e+01	-3.004595e+02
5.300000e-07	-2.828254e-06	-4.502170e-09	-2.018222e+01	-2.958028e+02
5.400000e-07	-2.740702e-06	-4.418669e-09	-1.955746e+01	-2.910330e+02
5.500000e-07	-2.652293e-06	-4.348411e-09	-1.892658e+01	-2.861494e+02
5.600000e-07	-2.562804e-06	-4.282704e-09	-1.828799e+01	-2.811521e+02
5.700000e-07	-2.472186e-06	-4.209803e-09	-1.764135e+01	-2.760415e+02
5.800000e-07	-2.380602e-06	-4.118734e-09	-1.698781e+01	-2.708184e+02
5.900000e-07	-2.288205e-06	-4.031755e-09	-1.632847e+01	-2.654836e+02
6.000000e-07	-2.195052e-06	-3.953640e-09	-1.566374e+01	-2.600379e+02
6.100000e-07	-2.101071e-06	-3.874529e-09	-1.499309e+01	-2.544812e+02
6.200000e-07	-2.006340e-06	-3.787260e-09	-1.431710e+01	-2.488132e+02
6.300000e-07	-1.911005e-06	-3.690533e-09	-1.363679e+01	-2.430326e+02
6.400000e-07	-1.815032e-06	-3.596027e-09	-1.295194e+01	-2.371376e+02
6.500000e-07	-1.718338e-06	-3.509614e-09	-1.226194e+01	-2.311259e+02
6.600000e-07	-1.620905e-06	-3.427090e-09	-1.156666e+01	-2.249945e+02
6.700000e-07	-1.522819e-06	-3.330955e-09	-1.086673e+01	-2.187404e+02
6.800000e-07	-1.424086e-06	-3.222761e-09	-1.016218e+01	-2.123600e+02
6.900000e-07	-1.324776e-06	-3.115034e-09	-9.453508e+00	-2.058498e+02
7.000000e-07	-1.225069e-06	-3.016860e-09	-8.742008e+00	-1.992061e+02
7.100000e-07	-1.124986e-06	-2.921829e-09	-8.027824e+00	-1.924251e+02
7.200000e-07	-1.024598e-06	-2.818559e-09	-7.311456e+00	-1.855025e+02
7.300000e-07	-9.240086e-07	-2.708738e-09	-6.593660e+00	-1.784338e+02
7.400000e-07	-8.231616e-07	-2.593928e-09	-5.874023e+00	-1.712140e+02
7.500000e-07	-7.219881e-07	-2.479697e-09	-5.152056e+00	-1.638378e+02
7.600000e-07	-6.205157e-07	-2.368738e-09	-4.427956e+00	-1.562992e+02
7.700000e-07	-5.187699e-07	-2.255052e-09	-3.701905e+00	-1.485922e+02
7.800000e-07	-4.168085e-07	-2.132645e-09	-2.974316e+00	-1.407104e+02
7.900000e-07	-3.147288e-07	-2.004858e-09	-2.245882e+00	-1.326473e+02
8.000000e-07	-2.125295e-07	-1.877460e-09	-1.516595e+00	-1.243967e+02
8.100000e-07	-1.102686e-07	-1.752692e-09	-7.868689e-01	-1.159525e+02
8.200000e-07	-7.951944e-09	-1.624015e-09	-5.674451e-02	-1.073089e+02
8.300000e-07	9.440707e-08	-1.485205e-09	6.736821e-01	-9.846008e+01
8.400000e-07	1.967158e-07	-1.341171e-09	1.403750e+00	-8.940044e+01
8.500000e-07	2.989875e-07	-1.197890e-09	2.133554e+00	-8.012412e+01
8.600000e-07	4.012276e-07	-1.057017e-09	2.863131e+00	-7.062498e+01
8.700000e-07	5.033542e-07	-9.125749e-10	3.591900e+00	-6.089648e+01
8.800000e-07	6.052810e-07	-7.585174e-10	4.319243e+00	-5.093177e+01
8.900000e-07	7.070179e-07	-5.964132e-10	5.045230e+00	-4.072399e+01
9.000000e-07	8.085231e-07	-4.317674e-10	5.769564e+00	-3.026679e+01
9.100000e-07	9.096754e-07	-2.682595e-10	6.491379e+00	-1.955516e+01
9.200000e-07	1.010439e-06	-1.036506e-10	7.210421e+00	-8.586478e+00
9.300000e-07	1.110948e-06	6.646254e-11	7.927645e+00	2.638335e+00
9.400000e-07	1.211177e-06	2.431341e-10	8.642871e+00	1.411354e+01
9.500000e-07	1.310989e-06	4.222826e-10	9.355124e+00	2.582746e+01
9.600000e-07	1.410334e-06	6.018230e-10	1.006404e+01	3.776152e+01
9.700000e-07	1.509173e-06	7.834629e-10	1.076935e+01	4.988972e+01
9.800000e-07	1.607351e-06	9.684328e-10	1.146994e+01	6.217856e+01
9.900000e-07	1.704684e-06	1.157605e-09	1.216450e+01	7.458749e+01
1.000000e-06	1.801196e-06	1.346986e-09	1.285321e+01	8.706990e+01
1.010000e-06	1.896998e-06	1.534581e-09	1.353684e+01	9.957466e+01
1.020000e-06	1.992070e-06	1.720864e-09	1.421527e+01	1.120480e+02
1.030000e-06	2.086433e-06	1.907697e-09	1.488864e+01	1.244355e+02
1.040000e-06	2.180129e-06	2.096215e-09	1.555725e+01	1.366844e+02
1.050000e-06	2.273099e-06	2.280435e-09	1.622067e+01	1.487456e+02
1.060000e-06	2.365383e-06	2.459346e-09	1.687921e+01	1.605752e+02
1.070000e-06	2.457030e-06	2.633593e-09	1.753319e+01	1.721357e+02
1.080000e-06	2.547812e-06	2.804229e-09	1.818101e+01	1.833967e+02
1.090000e-06	2.637475e-06	2.972477e-09	1.882083e+01	1.943352e+02
1.100000e-06	2.726037e-06	3.137491e-09	1.945281e+01	2.049346e+02
1.110000e-06	2.813579e-06	3.295158e-09	2.007750e+01	2.151845e+02
1.120000e-06	2.900198e-06	3.445555e-09	2.069561e+01	2.250790e+02
1.130000e-06	2.985888e-06	3.589385e-09	2.130709e+01	2.346159e+02
1.140000e-06	3.070627e-06	3.729508e-09	2.191178e+01	2.437956e+02
1.150000e-06	3.154524e-06	3.864688e-09	2.251046e+01	2.526199e+02
1.160000e-06	3.237424e-06	3.992770e-09	2.310203e+01	2.610917e+02
1.170000e-06	3.319043e-06	4.114816e-09	2.368446e+01	2.692146e+02
1.180000e-06	3.399380e-06	4.231756e-09	2.425773e+01	2.769935e+02
1.190000e-06	3.478485e-06	4.344120e-09	2.482222e+01	2.844342e+02
1.200000e-06	3.556365e-06	4.451024e-09	2.537797e+01	2.915446e+02
1.210000e-06	3.633062e-06	4.554417e-09	2.592528e+01	2.983349e+02
1.220000e-06	3.708477e-06	4.652138e-09	2.646343e+01	3.048180e+02
1.230000e-06	3.782338e-06	4.743597e-09	2.699050e+01	3.110098e+02
1.240000e-06	3.854577e-06	4.830115e-09	2.750599e+01	3.169283e+02
1.250000e-06	3.925408e-06	4.916644e-09	2.801143e+01	3.225936e+02
1.260000e-06	3.994849e-06	5.002763e-09	2.850696e+01	3.280266e+02
1.270000e-06	4.062950e-06	5.084406e-09	2.899292e+01	3.332478e+02
1.280000e-06	4.129608e-06	5.160208e-09	2.946859e+01	3.382762e+02
1.290000e-06	4.194550e-06	5.232570e-09	2.993201e+01	3.431275e+02
1.300000e-06	4.257874e-06	5.303538e-09	3.038389e+01	3.478140e+02
1.310000e-06	4.319758e-06	5.373050e-09	3.082549e+01	3.523432e+02
1.320000e-06	4.380281e-06	5.440512e-09	3.125737e+01	3.567181e+02
1.330000e-06	4.439477e-06	5.504449e-09	3.167979e+01	3.609374e+02
1.340000e-06	4.497001e-06	5.565294e-09	3.209028e+01	3.649965e+02
1.350000e-06	4.552670e-06	5.623854e-09	3.248753e+01	3.688884e+02
1.360000e-06	4.606722e-06	5.679959e-09	3.287325e+01	3.726053e+02
1.370000e-06	4.659100e-06	5.731180e-09	3.324701e+01	3.761399e+02
1.380000e-06	4.709455e-06	5.777309e-09	3.360633e+01	3.794870e+02
1.390000e-06	4.757790e-06	5.821781e-09	3.395126e+01	3.826441e+02
1.400000e-06	4.804435e-06	5.865415e-09	3.428411e+01	3.856119e+02
1.410000e-06	4.849508e-06	5.906787e-09	3.460575e+01	3.883949e+02
1.420000e-06	4.893068e-06	5.945400e-09	3.491659e+01	3.910006e+02
1.430000e-06	4.934810e-06	5.981376e-09	3.521445e+01	3.934388e+02
1.440000e-06	4.974643e-06	6.014219e-09	3.549870e+01	3.957209e+02
1.450000e-06	5.012810e-06	6.045366e-09	3.577106e+01	3.978581e+02
1.460000e-06	5.049381e-06	6.075086e-09	3.603203e+01	3.998611e+02
1.470000e-06	5.084287e-06	6.101929e-09	3.628111e+01	4.017387e+02
1.480000e-06	5.117251e-06	6.125257e-09	3.651634e+01	4.034973e+02
1.490000e-06	5.148332e-06	6.146598e-09	3.673813e+01	4.051411e+02
1.500000e-06	5.177712e-06	6.168224e-09	3.694778e+01	4.066719e+02
1.510000e-06	5.205453e-06	6.189557e-09	3.714574e+01	4.080899e+02
1.520000e-06	5.231236e-06	6.210337e-09	3.732973e+01	4.093943e+02
1.530000e-06	5.254902e-06	6.230101e-09	3.749861e+01	4.105844e+02
1.540000e-06	5.276744e-06	6.247309e-09	3.765447e+01	4.116598e+02
1.550000e-06	5.296929e-06	6.262274e-09	3.779851e+01	4.126218e+02
1.560000e-06	5.315262e-06	6.275522e-09	3.792933e+01	4.134730e+02
1.570000e-06	5.331549e-06	6.286284e-09	3.804556e+01	4.142175e+02
1.580000e-06	5.345898e-06	6.295234e-09	3.814795e+01	4.148608e+02
1.590000e-06	5.358261e-06	6.304608e-09	3.823617e+01	4.154084e+02
1.600000e-06	5.368358e-06	6.314271e-09	3.830822e+01	4.158661e+02
1.610000e-06	5.376313e-06	6.322275e-09	3.836499e+01	4.162382e+02
1.620000e-06	5.382448e-06	6.328341e-09	3.840877e+01	4.165274e+02
1.630000e-06	5.386788e-06	6.333506e-09	3.843973e+01	4.167346e+02
1.640000e-06	5.389219e-06	6.337547e-09	3.845708e+01	4.168581e+02
1.650000e-06	5.389627e-06	6.341459e-09	3.846000e+01	4.168946e+02
1.660000e-06	5.388196e-06	6.340211e-09	3.844978e+01	4.168397e+02
1.670000e-06	5.385137e-06	6.332585e-09	3.842796e+01	4.166885e+02
1.680000e-06	5.380424e-06	6.328048e-09	3.839432e+01	4.164371e+02
1.690000e-06	5.373767e-06	6.324441e-09	3.834682e+01	4.160831e+02
1.700000e-06	5.365288e-06	6.320497e-09	3.828632e+01	4.156268e+02
1.710000e-06	5.355268e-06	6.316737e-09	3.821481e+01	4.150717e+02
1.720000e-06	5.343613e-06	6.314308e-09	3.813165e+01	4.144242e+02
1.730000e-06	5.330075e-06	6.319926e-09	3.803503e+01	4.136936e+02
1.740000e-06	5.314450e-06	6.250969e-09	3.792354e+01	4.128912e+02
1.750000e-06	5.296456e-06	6.216619e-09	3.779514e+01	4.120288e+02
1.760000e-06	5.275784e-06	6.245097e-09	3.764762e+01	4.111180e+02
1.770000e-06	5.252758e-06	6.231748e-09	3.748331e+01	4.101684e+02
1.780000e-06	5.228384e-06	6.311739e-09	3.730938e+01	4.091863e+02
1.790000e-06	5.203383e-06	6.247224e-09	3.713097e+01	4.081740e+02
1.800000e-06	5.177050e-06	6.084398e-09	3.694306e+01	4.071295e+02
1.810000e-06	5.148408e-06	6.210488e-09	3.673868e+01	4.060462e+02
1.820000e-06	5.117897e-06	6.138872e-09	3.652095e+01	4.049135e+02
1.830000e-06	5.085793e-06	6.052830e-09	3.629186e+01	4.037182e+02
1.840000e-06	5.051700e-06	6.221145e-09	3.604857e+01	4.024453e+02
1.850000e-06	5.015982e-06	6.089550e-09	3.579369e+01	4.010799e+02
1.860000e-06	4.978536e-06	6.060257e-09	3.552648e+01	3.996083e+02
1.870000e-06	4.939118e-06	6.177931e-09	3.524519e+01	3.980197e+02
1.880000e-06	4.898115e-06	6.013104e-09	3.495260e+01	3.963068e+02
1.890000e-06	4.855340e-06	6.017721e-09	3.464736e+01	3.944664e+02
1.900000e-06	4.810926e-06	5.970337e-09	3.433043e+01	3.924994e+02
1.910000e-06	4.764736e-06	5.878337e-09	3.400082e+01	3.904104e+02
1.920000e-06	4.716439e-06	5.993344e-09	3.365617e+01	3.882069e+02
1.930000e-06	4.666541e-06	5.856882e-09	3.330011e+01	3.858981e+02
1.940000e-06	4.614939e-06	5.844598e-09	3.293188e+01	3.834937e+02
1.950000e-06	4.561250e-06	5.859174e-09	3.254876e+01	3.810030e+02
1.960000e-06	4.505627e-06	5.718966e-09	3.215183e+01	3.784337e+02
1.970000e-06	4.448315e-06	5.726414e-09	3.174286e+01	3.757913e+02
1.980000e-06	4.389575e-06	5.683771e-09	3.132370e+01	3.730788e+02
1.990000e-06	4.329373e-06	5.690203e-09	3.089410e+01	3.702965e+02
2.000000e-06	4.267468e-06	5.611039e-09	3.045235e+01	3.674428e+02
2.010000e-06	4.203953e-06	5.513990e-09	2.999911e+01	3.645141e+02
2.020000e-06	4.138898e-06	5.560252e-09	2.953488e+01	3.615061e+02
2.030000e-06	4.072348e-06	5.445994e-09	2.905998e+01	3.584140e+02
2.040000e-06	4.004473e-06	5.413558e-09	2.857563e+01	3.552335e+02
2.050000e-06	3.935173e-06	5.391957e-09	2.808112e+01	3.519610e+02
2.060000e-06	3.864255e-06	5.321531e-09	2.757505e+01	3.485940e+02
2.070000e-06	3.791917e-06	5.278352e-09	2.705885e+01	3.451309e+02
2.080000e-06	3.718337e-06	5.177767e-09	2.653379e+01	3.415711e+02
2.090000e-06	3.643424e-06	5.169869e-09	2.599922e+01	3.379146e+02
2.100000e-06	3.567072e-06	5.101267e-09	2.545437e+01	3.341616e+02
2.110000e-06	3.489098e-06	5.013835e-09	2.489795e+01	3.303121e+02
2.120000e-06	3.409692e-06	4.969266e-09	2.433132e+01	3.263656e+02
2.130000e-06	3.329197e-06	4.920124e-09	2.375691e+01	3.223209e+02
2.140000e-06	3.247581e-06	4.877547e-09	2.317451e+01	3.181765e+02
2.150000e-06	3.164892e-06	4.791082e-09	2.258445e+01	3.139298e+02
2.160000e-06	3.081248e-06	4.728939e-09	2.198757e+01	3.095783e+02
2.170000e-06	2.996489e-06	4.646831e-09	2.138273e+01	3.051193e+02
2.180000e-06	2.910389e-06	4.575052e-09	2.076833e+01	3.005502e+02
2.190000e-06	2.823058e-06	4.517472e-09	2.014514e+01	2.958692e+02
2.200000e-06	2.734756e-06	4.450321e-09	1.951502e+01	2.910750e+02
2.210000e-06	2.645552e-06	4.379775e-09	1.887847e+01	2.861669e+02
2.220000e-06	2.555472e-06	4.288015e-09	1.823567e+01	2.811451e+02
2.230000e-06	2.464538e-06	4.213473e-09	1.758677e+01	2.760101e+02
2.240000e-06	2.372819e-06	4.134778e-09	1.693227e+01	2.707629e+02
2.250000e-06	2.280344e-06	4.062146e-09	1.627238e+01	2.654042e+02
2.260000e-06	2.187034e-06	3.982163e-09	1.560652e+01	2.599345e+02
2.270000e-06	2.092744e-06	3.889207e-09	1.493367e+01	2.543539e+02
2.280000e-06	1.997428e-06	3.795632e-09	1.425350e+01	2.486617e+02
2.290000e-06	1.901297e-06	3.707313e-09	1.356752e+01	2.428567e+02
2.300000e-06	1.804580e-06	3.624107e-09	1.287736e+01	2.369368e+02
2.310000e-06	1.707422e-06	3.531189e-09	1.218404e+01	2.308995e+02
2.320000e-06	1.609741e-06	3.436492e-09	1.148700e+01	2.247420e+02
2.330000e-06	1.511433e-06	3.342286e-09	1.078548e+01	2.184609e+02
2.340000e-06	1.412639e-06	3.252859e-09	1.008049e+01	2.120529e+02
2.350000e-06	1.313471e-06	3.156070e-09	9.372837e+00	2.055143e+02
2.360000e-06	1.214003e-06	3.054240e-09	8.663038e+00	1.988414e+02
2.370000e-06	1.114283e-06	2.945348e-09	7.951442e+00	1.920302e+02
2.380000e-06	1.014270e-06	2.829689e-09	7.237756e+00	1.850765e+02
2.390000e-06	9.138941e-07	2.722239e-09	6.521484e+00	1.779758e+02
2.400000e-06	8.130909e-07	2.620666e-09	5.802159e+00	1.707228e+02
2.410000e-06	7.118837e-07	2.514978e-09	5.079952e+00	1.633122e+02
2.420000e-06	6.104461e-07	2.394685e-09	4.356100e+00	1.557379e+02
2.430000e-06	5.088153e-07	2.267095e-09	3.630870e+00	1.479938e+02
2.440000e-06	4.069731e-07	2.146292e-09	2.904131e+00	1.400735e+02
2.450000e-06	3.050013e-07	2.030116e-09	2.176468e+00	1.319707e+02
2.460000e-06	2.028537e-07	1.906662e-09	1.447550e+00	1.236790e+02
2.470000e-06	1.005674e-07	1.775832e-09	7.176420e-01	1.151924e+02
2.480000e-06	-1.780511e-09	1.639862e-09	-1.270560e-02	1.065051e+02
2.490000e-06	-1.042084e-07	1.503782e-09	-7.436239e-01	9.761148e+01
2.500000e-06	-2.065862e-07	1.369139e-09	-1.474185e+00	8.850578e+01
2.510000e-06	-3.088958e-07	1.231845e-09	-2.204258e+00	7.918210e+01
2.520000e-06	-4.111278e-07	1.087708e-09	-2.933779e+00	6.963424e+01
2.530000e-06	-5.131381e-07	9.339335e-10	-3.661717e+00	5.985557e+01
2.540000e-06	-6.149555e-07	7.801679e-10	-4.388279e+00	4.983920e+01
2.550000e-06	-7.164929e-07	6.304180e-10	-5.112843e+00	3.957833e+01
2.560000e-06	-8.176224e-07	4.756476e-10	-5.834496e+00	2.906683e+01
2.570000e-06	-9.184046e-07	3.104697e-10	-6.553670e+00	1.830010e+01
2.580000e-06	-1.018862e-06	1.384035e-10	-7.270530e+00	7.276168e+00
2.590000e-06	-1.118887e-06	-3.643044e-11	-7.984299e+00	-4.003109e+00
2.600000e-06	-1.218462e-06	-2.119570e-10	-8.694858e+00	-1.553082e+01
2.610000e-06	-1.317669e-06	-3.877514e-10	-9.402796e+00	-2.729386e+01
2.620000e-06	-1.416482e-06	-5.670054e-10	-1.010791e+01	-3.927210e+01
2.630000e-06	-1.514827e-06	-7.547898e-10	-1.080970e+01	-5.143794e+01
2.640000e-06	-1.612603e-06	-9.485281e-10	-1.150742e+01	-6.375629e+01
2.650000e-06	-1.709774e-06	-1.140251e-09	-1.220082e+01	-7.618521e+01
2.660000e-06	-1.806431e-06	-1.329018e-09	-1.289057e+01	-8.867697e+01
2.670000e-06	-1.902643e-06	-1.519688e-09	-1.357713e+01	-1.011797e+02
2.680000e-06	-1.998286e-06	-1.715190e-09	-1.425962e+01	-1.136393e+02
2.690000e-06	-2.093157e-06	-1.911504e-09	-1.493662e+01	-1.260016e+02
2.700000e-06	-2.187055e-06	-2.102784e-09	-1.560667e+01	-1.382144e+02
2.710000e-06	-2.279938e-06	-2.285293e-09	-1.626948e+01	-1.502296e+02
2.720000e-06	-2.371953e-06	-2.460873e-09	-1.692609e+01	-1.620046e+02
2.730000e-06	-2.463156e-06	-2.632887e-09	-1.757691e+01	-1.735034e+02
2.740000e-06	-2.553479e-06	-2.800806e-09	-1.822144e+01	-1.846972e+02
2.750000e-06	-2.642827e-06	-2.964709e-09	-1.885903e+01	-1.955643e+02
2.760000e-06	-2.731299e-06	-3.124003e-09	-1.949035e+01	-2.060897e+02
2.770000e-06	-2.818981e-06	-3.280202e-09	-2.011605e+01	-2.162639e+02
2.780000e-06	-2.905701e-06	-3.433422e-09	-2.073488e+01	-2.260819e+02
2.790000e-06	-2.991236e-06	-3.580779e-09	-2.134525e+01	-2.355424e+02
2.800000e-06	-3.075632e-06	-3.721435e-09	-2.194749e+01	-2.446459e+02
2.810000e-06	-3.158995e-06	-3.854239e-09	-2.254236e+01	-2.533945e+02
2.820000e-06	-3.241286e-06	-3.978536e-09	-2.312958e+01	-2.617913e+02
2.830000e-06	-3.322503e-06	-4.098742e-09	-2.370915e+01	-2.698403e+02
2.840000e-06	-3.402722e-06	-4.219939e-09	-2.428158e+01	-2.775462e+02
2.850000e-06	-3.481804e-06	-4.338096e-09	-2.484591e+01	-2.849155e+02
2.860000e-06	-3.559431e-06	-4.448717e-09	-2.539985e+01	-2.919565e+02
2.870000e-06	-3.635527e-06	-4.551979e-09	-2.594287e+01	-2.986800e+02
2.880000e-06	-3.710162e-06	-4.650436e-09	-2.647545e+01	-3.050994e+02
2.890000e-06	-3.783420e-06	-4.745230e-09	-2.699821e+01	-3.112311e+02
2.900000e-06	-3.855433e-06	-4.835945e-09	-2.751210e+01	-3.170938e+02
2.910000e-06	-3.926029e-06	-4.923016e-09	-2.801587e+01	-3.227077e+02
2.920000e-06	-3.994978e-06	-5.004703e-09	-2.850788e+01	-3.280938e+02
2.930000e-06	-4.062447e-06	-5.081005e-09	-2.898933e+01	-3.332723e+02
2.940000e-06	-4.128527e-06	-5.155728e-09	-2.946088e+01	-3.382616e+02
