# Temperatura_=_36.78
# Concentracion g/m^3_=_15000.0
# C_Vs_to_Am_M_A/Vsm_=_65563218390.804596
# pendiente_HvsI_1/m_=_3716.3
# ordenada_HvsI_A/m_=_1297.0
# frecuencia_Hz_=_301596.45519673364

Tiempo_(s)	Campo_(V.s)	Magnetizacion_(V.s)	Campo_(kA/m)	Magnetizacion_(A/m)
0.000000e+00	-5.380451e-06	-5.836088e-09	-3.833956e+01	-3.810962e+02
1.000000e-08	-5.378113e-06	-5.833241e-09	-3.832290e+01	-3.809791e+02
2.000000e-08	-5.373906e-06	-5.828213e-09	-3.829292e+01	-3.807830e+02
3.000000e-08	-5.368019e-06	-5.822349e-09	-3.825097e+01	-3.805072e+02
4.000000e-08	-5.360559e-06	-5.818264e-09	-3.819781e+01	-3.801522e+02
5.000000e-08	-5.351329e-06	-5.814067e-09	-3.813204e+01	-3.797199e+02
6.000000e-08	-5.340043e-06	-5.806871e-09	-3.805162e+01	-3.792139e+02
7.000000e-08	-5.326878e-06	-5.797272e-09	-3.795781e+01	-3.786390e+02
8.000000e-08	-5.311696e-06	-5.783802e-09	-3.784963e+01	-3.780010e+02
9.000000e-08	-5.294229e-06	-5.796025e-09	-3.772517e+01	-3.773061e+02
1.000000e-07	-5.274668e-06	-5.807109e-09	-3.758578e+01	-3.765600e+02
1.100000e-07	-5.253251e-06	-5.770240e-09	-3.743316e+01	-3.757676e+02
1.200000e-07	-5.230102e-06	-5.735349e-09	-3.726821e+01	-3.749320e+02
1.300000e-07	-5.205343e-06	-5.705212e-09	-3.709179e+01	-3.740539e+02
1.400000e-07	-5.178984e-06	-5.646429e-09	-3.690396e+01	-3.731320e+02
1.500000e-07	-5.151011e-06	-5.702214e-09	-3.670463e+01	-3.721624e+02
1.600000e-07	-5.121559e-06	-5.720051e-09	-3.649476e+01	-3.711394e+02
1.700000e-07	-5.090602e-06	-5.642483e-09	-3.627418e+01	-3.700558e+02
1.800000e-07	-5.057585e-06	-5.676815e-09	-3.603891e+01	-3.689037e+02
1.900000e-07	-5.022567e-06	-5.614567e-09	-3.578938e+01	-3.676753e+02
2.000000e-07	-4.986072e-06	-5.532360e-09	-3.552932e+01	-3.663638e+02
2.100000e-07	-4.947918e-06	-5.584220e-09	-3.525745e+01	-3.649636e+02
2.200000e-07	-4.908002e-06	-5.552754e-09	-3.497302e+01	-3.634713e+02
2.300000e-07	-4.866180e-06	-5.514995e-09	-3.467501e+01	-3.618854e+02
2.400000e-07	-4.822417e-06	-5.511347e-09	-3.436317e+01	-3.602069e+02
2.500000e-07	-4.776868e-06	-5.453559e-09	-3.403860e+01	-3.584381e+02
2.600000e-07	-4.729434e-06	-5.433751e-09	-3.370059e+01	-3.565830e+02
2.700000e-07	-4.679929e-06	-5.406642e-09	-3.334784e+01	-3.546461e+02
2.800000e-07	-4.628324e-06	-5.392112e-09	-3.298011e+01	-3.526322e+02
2.900000e-07	-4.574831e-06	-5.363175e-09	-3.259894e+01	-3.505457e+02
3.000000e-07	-4.519729e-06	-5.301017e-09	-3.220630e+01	-3.483899e+02
3.100000e-07	-4.463009e-06	-5.281226e-09	-3.180213e+01	-3.461671e+02
3.200000e-07	-4.404454e-06	-5.258200e-09	-3.138488e+01	-3.438781e+02
3.300000e-07	-4.344253e-06	-5.223984e-09	-3.095590e+01	-3.415225e+02
3.400000e-07	-4.282620e-06	-5.170691e-09	-3.051673e+01	-3.390989e+02
3.500000e-07	-4.219575e-06	-5.114521e-09	-3.006749e+01	-3.366051e+02
3.600000e-07	-4.155053e-06	-5.092628e-09	-2.960772e+01	-3.340382e+02
3.700000e-07	-4.088831e-06	-5.063721e-09	-2.913584e+01	-3.313956e+02
3.800000e-07	-4.021017e-06	-5.030019e-09	-2.865262e+01	-3.286745e+02
3.900000e-07	-3.951867e-06	-4.982448e-09	-2.815987e+01	-3.258727e+02
4.000000e-07	-3.881442e-06	-4.914260e-09	-2.765805e+01	-3.229884e+02
4.100000e-07	-3.809833e-06	-4.859967e-09	-2.714778e+01	-3.200201e+02
4.200000e-07	-3.736928e-06	-4.817207e-09	-2.662828e+01	-3.169668e+02
4.300000e-07	-3.662412e-06	-4.792689e-09	-2.609730e+01	-3.138277e+02
4.400000e-07	-3.586316e-06	-4.753865e-09	-2.555507e+01	-3.106018e+02
4.500000e-07	-3.508863e-06	-4.699251e-09	-2.500315e+01	-3.072882e+02
4.600000e-07	-3.429948e-06	-4.631575e-09	-2.444083e+01	-3.038859e+02
4.700000e-07	-3.349601e-06	-4.568465e-09	-2.386830e+01	-3.003934e+02
4.800000e-07	-3.268027e-06	-4.525642e-09	-2.328703e+01	-2.968091e+02
4.900000e-07	-3.185318e-06	-4.469696e-09	-2.269766e+01	-2.931313e+02
5.000000e-07	-3.101632e-06	-4.408055e-09	-2.210134e+01	-2.893583e+02
5.100000e-07	-3.017020e-06	-4.345423e-09	-2.149842e+01	-2.854882e+02
5.200000e-07	-2.931425e-06	-4.284145e-09	-2.088850e+01	-2.815195e+02
5.300000e-07	-2.844796e-06	-4.223794e-09	-2.027121e+01	-2.774509e+02
5.400000e-07	-2.757293e-06	-4.165869e-09	-1.964769e+01	-2.732810e+02
5.500000e-07	-2.668940e-06	-4.101301e-09	-1.901811e+01	-2.690087e+02
5.600000e-07	-2.579417e-06	-4.023783e-09	-1.838019e+01	-2.646328e+02
5.700000e-07	-2.488780e-06	-3.949842e-09	-1.773434e+01	-2.601522e+02
5.800000e-07	-2.397248e-06	-3.888251e-09	-1.708210e+01	-2.555654e+02
5.900000e-07	-2.304871e-06	-3.826942e-09	-1.642385e+01	-2.508707e+02
6.000000e-07	-2.211690e-06	-3.749353e-09	-1.575987e+01	-2.460662e+02
6.100000e-07	-2.117698e-06	-3.665494e-09	-1.509011e+01	-2.411495e+02
6.200000e-07	-2.022922e-06	-3.584939e-09	-1.441476e+01	-2.361182e+02
6.300000e-07	-1.927527e-06	-3.506771e-09	-1.373501e+01	-2.309698e+02
6.400000e-07	-1.831533e-06	-3.430406e-09	-1.305098e+01	-2.257020e+02
6.500000e-07	-1.734765e-06	-3.355952e-09	-1.236144e+01	-2.203126e+02
6.600000e-07	-1.637235e-06	-3.274294e-09	-1.166647e+01	-2.147996e+02
6.700000e-07	-1.538987e-06	-3.178749e-09	-1.096638e+01	-2.091617e+02
6.800000e-07	-1.440069e-06	-3.081664e-09	-1.026152e+01	-2.033976e+02
6.900000e-07	-1.340666e-06	-2.994044e-09	-9.553205e+00	-1.975065e+02
7.000000e-07	-1.240866e-06	-2.909738e-09	-8.842054e+00	-1.914874e+02
7.100000e-07	-1.140670e-06	-2.817698e-09	-8.128091e+00	-1.853392e+02
7.200000e-07	-1.040183e-06	-2.719595e-09	-7.412044e+00	-1.790606e+02
7.300000e-07	-9.394542e-07	-2.620075e-09	-6.694283e+00	-1.726494e+02
7.400000e-07	-8.384389e-07	-2.521360e-09	-5.974476e+00	-1.661027e+02
7.500000e-07	-7.371729e-07	-2.422413e-09	-5.252884e+00	-1.594169e+02
7.600000e-07	-6.356285e-07	-2.320270e-09	-4.529307e+00	-1.525872e+02
7.700000e-07	-5.337697e-07	-2.210873e-09	-3.803490e+00	-1.456083e+02
7.800000e-07	-4.316997e-07	-2.096074e-09	-3.076168e+00	-1.384739e+02
7.900000e-07	-3.295260e-07	-1.984701e-09	-2.348108e+00	-1.311776e+02
8.000000e-07	-2.272164e-07	-1.877219e-09	-1.619079e+00	-1.237120e+02
8.100000e-07	-1.247860e-07	-1.767100e-09	-8.891895e-01	-1.160701e+02
8.200000e-07	-2.233962e-08	-1.646440e-09	-1.591858e-01	-1.082442e+02
8.300000e-07	8.018109e-08	-1.517740e-09	5.713475e-01	-1.002268e+02
8.400000e-07	1.827024e-07	-1.389059e-09	1.301885e+00	-9.201033e+01
8.500000e-07	2.851148e-07	-1.263267e-09	2.031647e+00	-8.358692e+01
8.600000e-07	3.874808e-07	-1.136647e-09	2.761077e+00	-7.494873e+01
8.700000e-07	4.897764e-07	-1.002775e-09	3.490007e+00	-6.608790e+01
8.800000e-07	5.918667e-07	-8.618934e-10	4.217473e+00	-5.699677e+01
8.900000e-07	6.937351e-07	-7.178351e-10	4.943358e+00	-4.766824e+01
9.000000e-07	7.953517e-07	-5.702900e-10	5.667449e+00	-3.809629e+01
9.100000e-07	8.966812e-07	-4.187044e-10	6.389494e+00	-2.827666e+01
9.200000e-07	9.976980e-07	-2.650122e-10	7.109311e+00	-1.820769e+01
9.300000e-07	1.098413e-06	-1.066240e-10	7.826978e+00	-7.891170e+00
9.400000e-07	1.198805e-06	5.746366e-11	8.542339e+00	2.666752e+00
9.500000e-07	1.298816e-06	2.234561e-10	9.254991e+00	1.345482e+01
9.600000e-07	1.398351e-06	3.889717e-10	9.964248e+00	2.445608e+01
9.700000e-07	1.497234e-06	5.570624e-10	1.066886e+01	3.564757e+01
9.800000e-07	1.595492e-06	7.301502e-10	1.136902e+01	4.700040e+01
9.900000e-07	1.693091e-06	9.074436e-10	1.206448e+01	5.848010e+01
1.000000e-06	1.789972e-06	1.085364e-09	1.275483e+01	7.004745e+01
1.010000e-06	1.886051e-06	1.262354e-09	1.343946e+01	8.165949e+01
1.020000e-06	1.981392e-06	1.438604e-09	1.411883e+01	9.327092e+01
1.030000e-06	2.076101e-06	1.614416e-09	1.479370e+01	1.048355e+02
1.040000e-06	2.170100e-06	1.791746e-09	1.546351e+01	1.163074e+02
1.050000e-06	2.263351e-06	1.966794e-09	1.612799e+01	1.276429e+02
1.060000e-06	2.355926e-06	2.137239e-09	1.678765e+01	1.388012e+02
1.070000e-06	2.447776e-06	2.302455e-09	1.744216e+01	1.497453e+02
1.080000e-06	2.538693e-06	2.464658e-09	1.809000e+01	1.604429e+02
1.090000e-06	2.628672e-06	2.626000e-09	1.873117e+01	1.708665e+02
1.100000e-06	2.717612e-06	2.782307e-09	1.936493e+01	1.809931e+02
1.110000e-06	2.805409e-06	2.930482e-09	1.999054e+01	1.908046e+02
1.120000e-06	2.892250e-06	3.072714e-09	2.060935e+01	2.002869e+02
1.130000e-06	2.978202e-06	3.210841e-09	2.122181e+01	2.094297e+02
1.140000e-06	3.063251e-06	3.345940e-09	2.182785e+01	2.182265e+02
1.150000e-06	3.147371e-06	3.475679e-09	2.242727e+01	2.266736e+02
1.160000e-06	3.230460e-06	3.599510e-09	2.301933e+01	2.347707e+02
1.170000e-06	3.312372e-06	3.715803e-09	2.360302e+01	2.425203e+02
1.180000e-06	3.393050e-06	3.824522e-09	2.417791e+01	2.499282e+02
1.190000e-06	3.472554e-06	3.929673e-09	2.474442e+01	2.570029e+02
1.200000e-06	3.550834e-06	4.032370e-09	2.530223e+01	2.637564e+02
1.210000e-06	3.627877e-06	4.131628e-09	2.585122e+01	2.702031e+02
1.220000e-06	3.703509e-06	4.224507e-09	2.639015e+01	2.763600e+02
1.230000e-06	3.777619e-06	4.311903e-09	2.691824e+01	2.822462e+02
1.240000e-06	3.850209e-06	4.395862e-09	2.743549e+01	2.878816e+02
1.250000e-06	3.921280e-06	4.478467e-09	2.794192e+01	2.932863e+02
1.260000e-06	3.990978e-06	4.559448e-09	2.843857e+01	2.984793e+02
1.270000e-06	4.059384e-06	4.636415e-09	2.892601e+01	3.034778e+02
1.280000e-06	4.126369e-06	4.708469e-09	2.940332e+01	3.082961e+02
1.290000e-06	4.191763e-06	4.778222e-09	2.986930e+01	3.129447e+02
1.300000e-06	4.255561e-06	4.846491e-09	3.032391e+01	3.174304e+02
1.310000e-06	4.317824e-06	4.911671e-09	3.076758e+01	3.217559e+02
1.320000e-06	4.378668e-06	4.973256e-09	3.120114e+01	3.259206e+02
1.330000e-06	4.438074e-06	5.031281e-09	3.162445e+01	3.299209e+02
1.340000e-06	4.495867e-06	5.086920e-09	3.203626e+01	3.337516e+02
1.350000e-06	4.551933e-06	5.141704e-09	3.243577e+01	3.374070e+02
1.360000e-06	4.606319e-06	5.193670e-09	3.282331e+01	3.408819e+02
1.370000e-06	4.659003e-06	5.240312e-09	3.319872e+01	3.441729e+02
1.380000e-06	4.709696e-06	5.282581e-09	3.355995e+01	3.472787e+02
1.390000e-06	4.758343e-06	5.322958e-09	3.390659e+01	3.502014e+02
1.400000e-06	4.805230e-06	5.363201e-09	3.424069e+01	3.529459e+02
1.410000e-06	4.850576e-06	5.401660e-09	3.456382e+01	3.555199e+02
1.420000e-06	4.894362e-06	5.436679e-09	3.487582e+01	3.579330e+02
1.430000e-06	4.936398e-06	5.469108e-09	3.517536e+01	3.601964e+02
1.440000e-06	4.976597e-06	5.499922e-09	3.546181e+01	3.623213e+02
1.450000e-06	5.015069e-06	5.528893e-09	3.573595e+01	3.643183e+02
1.460000e-06	5.051899e-06	5.556114e-09	3.599839e+01	3.661964e+02
1.470000e-06	5.087003e-06	5.582431e-09	3.624853e+01	3.679625e+02
1.480000e-06	5.120271e-06	5.606283e-09	3.648559e+01	3.696214e+02
1.490000e-06	5.151707e-06	5.626698e-09	3.670959e+01	3.711752e+02
1.500000e-06	5.181435e-06	5.645585e-09	3.692142e+01	3.726243e+02
1.510000e-06	5.209438e-06	5.664373e-09	3.712097e+01	3.739676e+02
1.520000e-06	5.235496e-06	5.682926e-09	3.730665e+01	3.752033e+02
1.530000e-06	5.259461e-06	5.700105e-09	3.747742e+01	3.763301e+02
1.540000e-06	5.281520e-06	5.715838e-09	3.763460e+01	3.773469e+02
1.550000e-06	5.301903e-06	5.730859e-09	3.777984e+01	3.782543e+02
1.560000e-06	5.320514e-06	5.744781e-09	3.791246e+01	3.790543e+02
1.570000e-06	5.337127e-06	5.755985e-09	3.803085e+01	3.797501e+02
1.580000e-06	5.351741e-06	5.764440e-09	3.813498e+01	3.803464e+02
1.590000e-06	5.364377e-06	5.771166e-09	3.822502e+01	3.808485e+02
1.600000e-06	5.374807e-06	5.776409e-09	3.829934e+01	3.812618e+02
1.610000e-06	5.383035e-06	5.782225e-09	3.835797e+01	3.815913e+02
1.620000e-06	5.389350e-06	5.788466e-09	3.840297e+01	3.818409e+02
1.630000e-06	5.393908e-06	5.793909e-09	3.843545e+01	3.820134e+02
1.640000e-06	5.396626e-06	5.796904e-09	3.845481e+01	3.821100e+02
1.650000e-06	5.397354e-06	5.798000e-09	3.846000e+01	3.821308e+02
1.660000e-06	5.396217e-06	5.799290e-09	3.845190e+01	3.820748e+02
1.670000e-06	5.393419e-06	5.796316e-09	3.843196e+01	3.819407e+02
1.680000e-06	5.388889e-06	5.793703e-09	3.839969e+01	3.817274e+02
1.690000e-06	5.382460e-06	5.790763e-09	3.835387e+01	3.814344e+02
1.700000e-06	5.374264e-06	5.785307e-09	3.829547e+01	3.810625e+02
1.710000e-06	5.364496e-06	5.780183e-09	3.822587e+01	3.806139e+02
1.720000e-06	5.353077e-06	5.775577e-09	3.814449e+01	3.800926e+02
1.730000e-06	5.339656e-06	5.772509e-09	3.804886e+01	3.795035e+02
1.740000e-06	5.324109e-06	5.744020e-09	3.793808e+01	3.788526e+02
1.750000e-06	5.306432e-06	5.697319e-09	3.781212e+01	3.781461e+02
1.760000e-06	5.286178e-06	5.708870e-09	3.766779e+01	3.773897e+02
1.770000e-06	5.263492e-06	5.716781e-09	3.750614e+01	3.765877e+02
1.780000e-06	5.239300e-06	5.728849e-09	3.733376e+01	3.757428e+02
1.790000e-06	5.214303e-06	5.746724e-09	3.715563e+01	3.748554e+02
1.800000e-06	5.188135e-06	5.625947e-09	3.696917e+01	3.739235e+02
1.810000e-06	5.159883e-06	5.631477e-09	3.676785e+01	3.729428e+02
1.820000e-06	5.129586e-06	5.665204e-09	3.655197e+01	3.719073e+02
1.830000e-06	5.097625e-06	5.568404e-09	3.632422e+01	3.708096e+02
1.840000e-06	5.063830e-06	5.658851e-09	3.608340e+01	3.696416e+02
1.850000e-06	5.028321e-06	5.674377e-09	3.583038e+01	3.683959e+02
1.860000e-06	4.991095e-06	5.560454e-09	3.556512e+01	3.670656e+02
1.870000e-06	4.951986e-06	5.600915e-09	3.528644e+01	3.656457e+02
1.880000e-06	4.911184e-06	5.533617e-09	3.499570e+01	3.641332e+02
1.890000e-06	4.868614e-06	5.497209e-09	3.469235e+01	3.625273e+02
1.900000e-06	4.824350e-06	5.538525e-09	3.437694e+01	3.608290e+02
1.910000e-06	4.778367e-06	5.458524e-09	3.404928e+01	3.590412e+02
1.920000e-06	4.730365e-06	5.483020e-09	3.370723e+01	3.571680e+02
1.930000e-06	4.680616e-06	5.412806e-09	3.335273e+01	3.552141e+02
1.940000e-06	4.629166e-06	5.343212e-09	3.298612e+01	3.531842e+02
1.950000e-06	4.575655e-06	5.398907e-09	3.260481e+01	3.510824e+02
1.960000e-06	4.520214e-06	5.325818e-09	3.220975e+01	3.489120e+02
1.970000e-06	4.463076e-06	5.289602e-09	3.180260e+01	3.466748e+02
1.980000e-06	4.404459e-06	5.241669e-09	3.138492e+01	3.443715e+02
1.990000e-06	4.344443e-06	5.214215e-09	3.095726e+01	3.420013e+02
2.000000e-06	4.282726e-06	5.222601e-09	3.051748e+01	3.395628e+02
2.010000e-06	4.219280e-06	5.126673e-09	3.006539e+01	3.370533e+02
2.020000e-06	4.154322e-06	5.112351e-09	2.960251e+01	3.344703e+02
2.030000e-06	4.087948e-06	5.062107e-09	2.912955e+01	3.318109e+02
2.040000e-06	4.020146e-06	5.003857e-09	2.864641e+01	3.290726e+02
2.050000e-06	3.950800e-06	4.991412e-09	2.815227e+01	3.262531e+02
2.060000e-06	3.879928e-06	4.949522e-09	2.764726e+01	3.233508e+02
2.070000e-06	3.807704e-06	4.933089e-09	2.713261e+01	3.203642e+02
2.080000e-06	3.734231e-06	4.838347e-09	2.660906e+01	3.172925e+02
2.090000e-06	3.659438e-06	4.770468e-09	2.607611e+01	3.141346e+02
2.100000e-06	3.583192e-06	4.737588e-09	2.553280e+01	3.108899e+02
2.110000e-06	3.505329e-06	4.700253e-09	2.497797e+01	3.075573e+02
2.120000e-06	3.426077e-06	4.663980e-09	2.441325e+01	3.041356e+02
2.130000e-06	3.345708e-06	4.594681e-09	2.384056e+01	3.006234e+02
2.140000e-06	3.264146e-06	4.554394e-09	2.325937e+01	2.970191e+02
2.150000e-06	3.181466e-06	4.482765e-09	2.267022e+01	2.933209e+02
2.160000e-06	3.097846e-06	4.419959e-09	2.207436e+01	2.895271e+02
2.170000e-06	3.013131e-06	4.376411e-09	2.147071e+01	2.856359e+02
2.180000e-06	2.927007e-06	4.320099e-09	2.085701e+01	2.816458e+02
2.190000e-06	2.839671e-06	4.247840e-09	2.023468e+01	2.775554e+02
2.200000e-06	2.751388e-06	4.166716e-09	1.960560e+01	2.733635e+02
2.210000e-06	2.662140e-06	4.118974e-09	1.896965e+01	2.690689e+02
2.220000e-06	2.571971e-06	4.063860e-09	1.832713e+01	2.646706e+02
2.230000e-06	2.481035e-06	3.988845e-09	1.767914e+01	2.601672e+02
2.240000e-06	2.389400e-06	3.908571e-09	1.702618e+01	2.555573e+02
2.250000e-06	2.296974e-06	3.840733e-09	1.636758e+01	2.508391e+02
2.260000e-06	2.203641e-06	3.771013e-09	1.570252e+01	2.460106e+02
2.270000e-06	2.109282e-06	3.695931e-09	1.503014e+01	2.410694e+02
2.280000e-06	2.013965e-06	3.624490e-09	1.435094e+01	2.360131e+02
2.290000e-06	1.917874e-06	3.542327e-09	1.366622e+01	2.308392e+02
2.300000e-06	1.821167e-06	3.449847e-09	1.297712e+01	2.255453e+02
2.310000e-06	1.723982e-06	3.359093e-09	1.228460e+01	2.201294e+02
2.320000e-06	1.626296e-06	3.286547e-09	1.158852e+01	2.145896e+02
2.330000e-06	1.528075e-06	3.215556e-09	1.088863e+01	2.089246e+02
2.340000e-06	1.429345e-06	3.128991e-09	1.018510e+01	2.031333e+02
2.350000e-06	1.330163e-06	3.030768e-09	9.478364e+00	1.972146e+02
2.360000e-06	1.230616e-06	2.932380e-09	8.769019e+00	1.911679e+02
2.370000e-06	1.130792e-06	2.837706e-09	8.057703e+00	1.849918e+02
2.380000e-06	1.030711e-06	2.744926e-09	7.344554e+00	1.786848e+02
2.390000e-06	9.301998e-07	2.650151e-09	6.628338e+00	1.722447e+02
2.400000e-06	8.292187e-07	2.548371e-09	5.908776e+00	1.656684e+02
2.410000e-06	7.278786e-07	2.442310e-09	5.186655e+00	1.589520e+02
2.420000e-06	6.262501e-07	2.335675e-09	4.462479e+00	1.520906e+02
2.430000e-06	5.243697e-07	2.232177e-09	3.736509e+00	1.450788e+02
2.440000e-06	4.222754e-07	2.127653e-09	3.009014e+00	1.379102e+02
2.450000e-06	3.200494e-07	2.013652e-09	2.280580e+00	1.305780e+02
2.460000e-06	2.176405e-07	1.890470e-09	1.550844e+00	1.230752e+02
2.470000e-06	1.150442e-07	1.769123e-09	8.197718e-01	1.153943e+02
2.480000e-06	1.238863e-08	1.652749e-09	8.827784e-02	1.075279e+02
2.490000e-06	-9.024055e-08	1.534788e-09	-6.430284e-01	9.946835e+01
2.500000e-06	-1.928615e-07	1.408310e-09	-1.374276e+00	9.120803e+01
2.510000e-06	-2.954335e-07	1.276014e-09	-2.105175e+00	8.273911e+01
2.520000e-06	-3.978719e-07	1.143718e-09	-2.835122e+00	7.405373e+01
2.530000e-06	-5.001798e-07	1.008920e-09	-3.564138e+00	6.514404e+01
2.540000e-06	-6.022201e-07	8.715258e-10	-4.291249e+00	5.600246e+01
2.550000e-06	-7.039815e-07	7.316156e-10	-5.016371e+00	4.662208e+01
2.560000e-06	-8.054831e-07	5.844117e-10	-5.739643e+00	3.699720e+01
2.570000e-06	-9.065765e-07	4.288921e-10	-6.460006e+00	2.712403e+01
2.580000e-06	-1.007209e-06	2.725637e-10	-7.177083e+00	1.700158e+01
2.590000e-06	-1.107438e-06	1.186040e-10	-7.891287e+00	6.632511e+00
2.600000e-06	-1.207272e-06	-3.866939e-11	-8.602673e+00	-3.976006e+00
2.610000e-06	-1.306666e-06	-2.043687e-10	-9.310929e+00	-1.481153e+01
2.620000e-06	-1.405634e-06	-3.737834e-10	-1.001615e+01	-2.585583e+01
2.630000e-06	-1.504164e-06	-5.425295e-10	-1.071824e+01	-3.708467e+01
2.640000e-06	-1.602193e-06	-7.127620e-10	-1.141677e+01	-4.846791e+01
2.650000e-06	-1.699595e-06	-8.858955e-10	-1.211083e+01	-5.996999e+01
2.660000e-06	-1.796400e-06	-1.063394e-09	-1.280064e+01	-7.155077e+01
2.670000e-06	-1.892736e-06	-1.245064e-09	-1.348709e+01	-8.316670e+01
2.680000e-06	-1.988508e-06	-1.427445e-09	-1.416954e+01	-9.477213e+01
2.690000e-06	-2.083530e-06	-1.605268e-09	-1.484664e+01	-1.063208e+02
2.700000e-06	-2.177659e-06	-1.778051e-09	-1.551737e+01	-1.177673e+02
2.710000e-06	-2.270857e-06	-1.948325e-09	-1.618148e+01	-1.290682e+02
2.720000e-06	-2.363115e-06	-2.116993e-09	-1.683888e+01	-1.401837e+02
2.730000e-06	-2.454477e-06	-2.281985e-09	-1.748990e+01	-1.510777e+02
2.740000e-06	-2.544977e-06	-2.440897e-09	-1.813478e+01	-1.617189e+02
2.750000e-06	-2.634527e-06	-2.595545e-09	-1.877289e+01	-1.720807e+02
2.760000e-06	-2.723213e-06	-2.747622e-09	-1.940484e+01	-1.821413e+02
2.770000e-06	-2.811085e-06	-2.897896e-09	-2.003099e+01	-1.918835e+02
2.780000e-06	-2.898008e-06	-3.045991e-09	-2.065038e+01	-2.012939e+02
2.790000e-06	-2.983898e-06	-3.187716e-09	-2.126241e+01	-2.103632e+02
2.800000e-06	-3.068624e-06	-3.320264e-09	-2.186614e+01	-2.190854e+02
2.810000e-06	-3.152161e-06	-3.447204e-09	-2.246140e+01	-2.274575e+02
2.820000e-06	-3.234700e-06	-3.570908e-09	-2.304955e+01	-2.354800e+02
2.830000e-06	-3.316220e-06	-3.688972e-09	-2.363044e+01	-2.431559e+02
2.840000e-06	-3.396653e-06	-3.802060e-09	-2.420358e+01	-2.504917e+02
2.850000e-06	-3.475965e-06	-3.910147e-09	-2.476873e+01	-2.574967e+02
2.860000e-06	-3.553904e-06	-4.012304e-09	-2.532411e+01	-2.641832e+02
2.870000e-06	-3.630293e-06	-4.109270e-09	-2.586843e+01	-2.705665e+02
2.880000e-06	-3.705209e-06	-4.204857e-09	-2.640226e+01	-2.766639e+02
2.890000e-06	-3.778782e-06	-4.298701e-09	-2.692652e+01	-2.824948e+02
2.900000e-06	-3.851058e-06	-4.385167e-09	-2.744154e+01	-2.880792e+02
2.910000e-06	-3.921905e-06	-4.464281e-09	-2.794637e+01	-2.934371e+02
2.920000e-06	-3.991204e-06	-4.540263e-09	-2.844018e+01	-2.985873e+02
2.930000e-06	-4.059002e-06	-4.615826e-09	-2.892329e+01	-3.035462e+02
2.940000e-06	-4.125373e-06	-4.689889e-09	-2.939623e+01	-3.083275e+02
