# Temperatura_=_32.89
# Concentracion g/m^3_=_15000.0
# C_Vs_to_Am_M_A/Vsm_=_65563218390.804596
# pendiente_HvsI_1/m_=_3716.3
# ordenada_HvsI_A/m_=_1297.0
# frecuencia_Hz_=_301594.99237413413

Tiempo_(s)	Campo_(V.s)	Magnetizacion_(V.s)	Campo_(kA/m)	Magnetizacion_(A/m)
0.000000e+00	-5.381272e-06	-5.754885e-09	-3.833693e+01	-3.768689e+02
1.000000e-08	-5.378790e-06	-5.751875e-09	-3.831925e+01	-3.767361e+02
2.000000e-08	-5.374474e-06	-5.746011e-09	-3.828850e+01	-3.765288e+02
3.000000e-08	-5.368576e-06	-5.741179e-09	-3.824648e+01	-3.762453e+02
4.000000e-08	-5.361131e-06	-5.735991e-09	-3.819344e+01	-3.758848e+02
5.000000e-08	-5.351869e-06	-5.728016e-09	-3.812746e+01	-3.754475e+02
6.000000e-08	-5.340520e-06	-5.717934e-09	-3.804661e+01	-3.749352e+02
7.000000e-08	-5.327300e-06	-5.700570e-09	-3.795242e+01	-3.743509e+02
8.000000e-08	-5.312032e-06	-5.692652e-09	-3.784366e+01	-3.736992e+02
9.000000e-08	-5.294447e-06	-5.736783e-09	-3.771838e+01	-3.729855e+02
1.000000e-07	-5.274791e-06	-5.735309e-09	-3.757835e+01	-3.722154e+02
1.100000e-07	-5.253311e-06	-5.682569e-09	-3.742532e+01	-3.713943e+02
1.200000e-07	-5.230104e-06	-5.653813e-09	-3.725999e+01	-3.705265e+02
1.300000e-07	-5.205306e-06	-5.554898e-09	-3.708333e+01	-3.696144e+02
1.400000e-07	-5.178900e-06	-5.557644e-09	-3.689521e+01	-3.686586e+02
1.500000e-07	-5.150857e-06	-5.695708e-09	-3.669542e+01	-3.676574e+02
1.600000e-07	-5.121357e-06	-5.585787e-09	-3.648526e+01	-3.666070e+02
1.700000e-07	-5.090371e-06	-5.567957e-09	-3.626452e+01	-3.655018e+02
1.800000e-07	-5.057312e-06	-5.626409e-09	-3.602900e+01	-3.643350e+02
1.900000e-07	-5.022242e-06	-5.470981e-09	-3.577915e+01	-3.630997e+02
2.000000e-07	-4.985715e-06	-5.521096e-09	-3.551893e+01	-3.617891e+02
2.100000e-07	-4.947488e-06	-5.544684e-09	-3.524660e+01	-3.603975e+02
2.200000e-07	-4.907435e-06	-5.394940e-09	-3.496125e+01	-3.589209e+02
2.300000e-07	-4.865474e-06	-5.417542e-09	-3.466232e+01	-3.573573e+02
2.400000e-07	-4.821594e-06	-5.439873e-09	-3.434971e+01	-3.557067e+02
2.500000e-07	-4.775971e-06	-5.415377e-09	-3.402468e+01	-3.539711e+02
2.600000e-07	-4.728466e-06	-5.407459e-09	-3.368625e+01	-3.521537e+02
2.700000e-07	-4.678910e-06	-5.309132e-09	-3.333321e+01	-3.502588e+02
2.800000e-07	-4.627240e-06	-5.286862e-09	-3.296510e+01	-3.482909e+02
2.900000e-07	-4.573706e-06	-5.299295e-09	-3.258372e+01	-3.462540e+02
3.000000e-07	-4.518573e-06	-5.269447e-09	-3.219094e+01	-3.441512e+02
3.100000e-07	-4.461804e-06	-5.227381e-09	-3.178651e+01	-3.419841e+02
3.200000e-07	-4.403189e-06	-5.179017e-09	-3.136893e+01	-3.397526e+02
3.300000e-07	-4.342884e-06	-5.131490e-09	-3.093931e+01	-3.374554e+02
3.400000e-07	-4.281121e-06	-5.076359e-09	-3.049930e+01	-3.350896e+02
3.500000e-07	-4.217976e-06	-5.089382e-09	-3.004945e+01	-3.326514e+02
3.600000e-07	-4.153458e-06	-5.069691e-09	-2.958981e+01	-3.301368e+02
3.700000e-07	-4.087230e-06	-4.984048e-09	-2.911800e+01	-3.275416e+02
3.800000e-07	-4.019361e-06	-4.941854e-09	-2.863449e+01	-3.248623e+02
3.900000e-07	-3.950136e-06	-4.907980e-09	-2.814132e+01	-3.220964e+02
4.000000e-07	-3.879628e-06	-4.869096e-09	-2.763901e+01	-3.192421e+02
4.100000e-07	-3.807916e-06	-4.820221e-09	-2.712813e+01	-3.162990e+02
4.200000e-07	-3.734891e-06	-4.768975e-09	-2.660788e+01	-3.132674e+02
4.300000e-07	-3.660269e-06	-4.725359e-09	-2.607627e+01	-3.101483e+02
4.400000e-07	-3.584013e-06	-4.678585e-09	-2.553301e+01	-3.069429e+02
4.500000e-07	-3.506337e-06	-4.643587e-09	-2.497963e+01	-3.036524e+02
4.600000e-07	-3.427327e-06	-4.601756e-09	-2.441676e+01	-3.002774e+02
4.700000e-07	-3.347020e-06	-4.537694e-09	-2.384463e+01	-2.968180e+02
4.800000e-07	-3.265446e-06	-4.459182e-09	-2.326349e+01	-2.932731e+02
4.900000e-07	-3.182648e-06	-4.399331e-09	-2.267363e+01	-2.896411e+02
5.000000e-07	-3.098824e-06	-4.364692e-09	-2.207646e+01	-2.859194e+02
5.100000e-07	-3.014141e-06	-4.313182e-09	-2.147316e+01	-2.821052e+02
5.200000e-07	-2.928529e-06	-4.243186e-09	-2.086325e+01	-2.781952e+02
5.300000e-07	-2.841841e-06	-4.166755e-09	-2.024567e+01	-2.741860e+02
5.400000e-07	-2.754135e-06	-4.100091e-09	-1.962084e+01	-2.700747e+02
5.500000e-07	-2.665561e-06	-4.051561e-09	-1.898983e+01	-2.658586e+02
5.600000e-07	-2.575979e-06	-3.999364e-09	-1.835163e+01	-2.615356e+02
5.700000e-07	-2.485242e-06	-3.930457e-09	-1.770521e+01	-2.571039e+02
5.800000e-07	-2.393531e-06	-3.845889e-09	-1.705185e+01	-2.525622e+02
5.900000e-07	-2.301031e-06	-3.767807e-09	-1.639287e+01	-2.479093e+02
6.000000e-07	-2.207793e-06	-3.698698e-09	-1.572862e+01	-2.431441e+02
6.100000e-07	-2.113780e-06	-3.628417e-09	-1.505886e+01	-2.382654e+02
6.200000e-07	-2.019007e-06	-3.554465e-09	-1.438369e+01	-2.332717e+02
6.300000e-07	-1.923582e-06	-3.473658e-09	-1.370387e+01	-2.281612e+02
6.400000e-07	-1.827472e-06	-3.391355e-09	-1.301916e+01	-2.229321e+02
6.500000e-07	-1.730629e-06	-3.314599e-09	-1.232924e+01	-2.175821e+02
6.600000e-07	-1.633048e-06	-3.239830e-09	-1.163406e+01	-2.121091e+02
6.700000e-07	-1.534803e-06	-3.151410e-09	-1.093415e+01	-2.065110e+02
6.800000e-07	-1.435932e-06	-3.051668e-09	-1.022978e+01	-2.007861e+02
6.900000e-07	-1.336493e-06	-2.954578e-09	-9.521362e+00	-1.949328e+02
7.000000e-07	-1.236659e-06	-2.866962e-09	-8.810128e+00	-1.889499e+02
7.100000e-07	-1.136505e-06	-2.780941e-09	-8.096622e+00	-1.828367e+02
7.200000e-07	-1.036031e-06	-2.686184e-09	-7.380828e+00	-1.765923e+02
7.300000e-07	-9.352383e-07	-2.585972e-09	-6.662768e+00	-1.702159e+02
7.400000e-07	-8.341635e-07	-2.484333e-09	-5.942697e+00	-1.637064e+02
7.500000e-07	-7.328193e-07	-2.384042e-09	-5.220707e+00	-1.570620e+02
7.600000e-07	-6.312003e-07	-2.286598e-09	-4.496759e+00	-1.502803e+02
7.700000e-07	-5.293244e-07	-2.186138e-09	-3.770981e+00	-1.433578e+02
7.800000e-07	-4.272394e-07	-2.075237e-09	-3.043713e+00	-1.362899e+02
7.900000e-07	-3.250043e-07	-1.957280e-09	-2.315376e+00	-1.290709e+02
8.000000e-07	-2.226988e-07	-1.840242e-09	-1.586537e+00	-1.216942e+02
8.100000e-07	-1.203360e-07	-1.728377e-09	-8.572902e-01	-1.141520e+02
8.200000e-07	-1.789746e-08	-1.616278e-09	-1.275040e-01	-1.064359e+02
8.300000e-07	8.460059e-08	-1.495537e-09	6.027064e-01	-9.853683e+01
8.400000e-07	1.871039e-07	-1.370285e-09	1.332954e+00	-9.044547e+01
8.500000e-07	2.895538e-07	-1.245955e-09	2.062821e+00	-8.215230e+01
8.600000e-07	3.918795e-07	-1.118644e-09	2.791804e+00	-7.364796e+01
8.700000e-07	4.940832e-07	-9.843107e-10	3.519918e+00	-6.492352e+01
8.800000e-07	5.961840e-07	-8.450070e-10	4.247298e+00	-5.597078e+01
8.900000e-07	6.981551e-07	-7.024765e-10	4.973754e+00	-4.678264e+01
9.000000e-07	7.998742e-07	-5.554864e-10	5.698415e+00	-3.735354e+01
9.100000e-07	9.012513e-07	-4.059690e-10	6.420640e+00	-2.768002e+01
9.200000e-07	1.002310e-06	-2.557090e-10	7.140597e+00	-1.776126e+01
9.300000e-07	1.103035e-06	-1.023360e-10	7.858178e+00	-7.599772e+00
9.400000e-07	1.203453e-06	5.696507e-11	8.573568e+00	2.797981e+00
9.500000e-07	1.303472e-06	2.202636e-10	9.286117e+00	1.342098e+01
9.600000e-07	1.403026e-06	3.847748e-10	9.995352e+00	2.425317e+01
9.700000e-07	1.502060e-06	5.511586e-10	1.070089e+01	3.527312e+01
9.800000e-07	1.600437e-06	7.219754e-10	1.140174e+01	4.645401e+01
9.900000e-07	1.698075e-06	8.977497e-10	1.209732e+01	5.776379e+01
1.000000e-06	1.794920e-06	1.074735e-09	1.278726e+01	6.916572e+01
1.010000e-06	1.890965e-06	1.252198e-09	1.347150e+01	8.061914e+01
1.020000e-06	1.986287e-06	1.427421e-09	1.415058e+01	9.208059e+01
1.030000e-06	2.080963e-06	1.597888e-09	1.482507e+01	1.035050e+02
1.040000e-06	2.174921e-06	1.767652e-09	1.549444e+01	1.148471e+02
1.050000e-06	2.268146e-06	1.937754e-09	1.615859e+01	1.260626e+02
1.060000e-06	2.360713e-06	2.107418e-09	1.681805e+01	1.371097e+02
1.070000e-06	2.452525e-06	2.273178e-09	1.747213e+01	1.479501e+02
1.080000e-06	2.543491e-06	2.434343e-09	1.812018e+01	1.585497e+02
1.090000e-06	2.633458e-06	2.593600e-09	1.876112e+01	1.688794e+02
1.100000e-06	2.722257e-06	2.749796e-09	1.939374e+01	1.789149e+02
1.110000e-06	2.809961e-06	2.899356e-09	2.001856e+01	1.886374e+02
1.120000e-06	2.896769e-06	3.042591e-09	2.063699e+01	1.980327e+02
1.130000e-06	2.982706e-06	3.181743e-09	2.124921e+01	2.070912e+02
1.140000e-06	3.067709e-06	3.315216e-09	2.185479e+01	2.158073e+02
1.150000e-06	3.151762e-06	3.439993e-09	2.245359e+01	2.241791e+02
1.160000e-06	3.234818e-06	3.557883e-09	2.304530e+01	2.322076e+02
1.170000e-06	3.316738e-06	3.672551e-09	2.362891e+01	2.398970e+02
1.180000e-06	3.397387e-06	3.783882e-09	2.420346e+01	2.472538e+02
1.190000e-06	3.476788e-06	3.891141e-09	2.476912e+01	2.542869e+02
1.200000e-06	3.554964e-06	3.995879e-09	2.532606e+01	2.610077e+02
1.210000e-06	3.631934e-06	4.098218e-09	2.587440e+01	2.674293e+02
1.220000e-06	3.707613e-06	4.192958e-09	2.641355e+01	2.735669e+02
1.230000e-06	3.781666e-06	4.279307e-09	2.694111e+01	2.794371e+02
1.240000e-06	3.854067e-06	4.360390e-09	2.745691e+01	2.850571e+02
1.250000e-06	3.925083e-06	4.439995e-09	2.796284e+01	2.904449e+02
1.260000e-06	3.994733e-06	4.519138e-09	2.845903e+01	2.956177e+02
1.270000e-06	4.063039e-06	4.596682e-09	2.894566e+01	3.005913e+02
1.280000e-06	4.129921e-06	4.671649e-09	2.942214e+01	3.053797e+02
1.290000e-06	4.195120e-06	4.743579e-09	2.988662e+01	3.099942e+02
1.300000e-06	4.258703e-06	4.810842e-09	3.033959e+01	3.144427e+02
1.310000e-06	4.320888e-06	4.874385e-09	3.078261e+01	3.187299e+02
1.320000e-06	4.381719e-06	4.936783e-09	3.121598e+01	3.228573e+02
1.330000e-06	4.441149e-06	4.995743e-09	3.163937e+01	3.268233e+02
1.340000e-06	4.498874e-06	5.051500e-09	3.205061e+01	3.306244e+02
1.350000e-06	4.554812e-06	5.104891e-09	3.244911e+01	3.342560e+02
1.360000e-06	4.609160e-06	5.155156e-09	3.283630e+01	3.377129e+02
1.370000e-06	4.661784e-06	5.201681e-09	3.321120e+01	3.409910e+02
1.380000e-06	4.712386e-06	5.245950e-09	3.357169e+01	3.440879e+02
1.390000e-06	4.760986e-06	5.290062e-09	3.391793e+01	3.470031e+02
1.400000e-06	4.807871e-06	5.332736e-09	3.425194e+01	3.497393e+02
1.410000e-06	4.853169e-06	5.371385e-09	3.457466e+01	3.523017e+02
1.420000e-06	4.896908e-06	5.405904e-09	3.488625e+01	3.546977e+02
1.430000e-06	4.938857e-06	5.437894e-09	3.518510e+01	3.569367e+02
1.440000e-06	4.978906e-06	5.467446e-09	3.547042e+01	3.590292e+02
1.450000e-06	5.017264e-06	5.494699e-09	3.574369e+01	3.609856e+02
1.460000e-06	5.054083e-06	5.520274e-09	3.600599e+01	3.628158e+02
1.470000e-06	5.089233e-06	5.545656e-09	3.625641e+01	3.645281e+02
1.480000e-06	5.122431e-06	5.569471e-09	3.649291e+01	3.661290e+02
1.490000e-06	5.153758e-06	5.591455e-09	3.671609e+01	3.676230e+02
1.500000e-06	5.183396e-06	5.612391e-09	3.692724e+01	3.690123e+02
1.510000e-06	5.211411e-06	5.630703e-09	3.712682e+01	3.702976e+02
1.520000e-06	5.237453e-06	5.647917e-09	3.731235e+01	3.714785e+02
1.530000e-06	5.261339e-06	5.664047e-09	3.748251e+01	3.725539e+02
1.540000e-06	5.283373e-06	5.679345e-09	3.763949e+01	3.735233e+02
1.550000e-06	5.303731e-06	5.693054e-09	3.778452e+01	3.743866e+02
1.560000e-06	5.322240e-06	5.704270e-09	3.791638e+01	3.751451e+02
1.570000e-06	5.338690e-06	5.714339e-09	3.803357e+01	3.758013e+02
1.580000e-06	5.353187e-06	5.723533e-09	3.813685e+01	3.763592e+02
1.590000e-06	5.365758e-06	5.732469e-09	3.822641e+01	3.768235e+02
1.600000e-06	5.376125e-06	5.740996e-09	3.830027e+01	3.771996e+02
1.610000e-06	5.384329e-06	5.748411e-09	3.835871e+01	3.774928e+02
1.620000e-06	5.390643e-06	5.753955e-09	3.840369e+01	3.777078e+02
1.630000e-06	5.395199e-06	5.757783e-09	3.843615e+01	3.778481e+02
1.640000e-06	5.397893e-06	5.760623e-09	3.845534e+01	3.779161e+02
1.650000e-06	5.398547e-06	5.764405e-09	3.846000e+01	3.779125e+02
1.660000e-06	5.397375e-06	5.763726e-09	3.845165e+01	3.778370e+02
1.670000e-06	5.394530e-06	5.758089e-09	3.843138e+01	3.776882e+02
1.680000e-06	5.390010e-06	5.755141e-09	3.839918e+01	3.774645e+02
1.690000e-06	5.383611e-06	5.752790e-09	3.835360e+01	3.771643e+02
1.700000e-06	5.375361e-06	5.750601e-09	3.829482e+01	3.767871e+02
1.710000e-06	5.365524e-06	5.749341e-09	3.822474e+01	3.763334e+02
1.720000e-06	5.353977e-06	5.750990e-09	3.814248e+01	3.758051e+02
1.730000e-06	5.340460e-06	5.760314e-09	3.804618e+01	3.752057e+02
1.740000e-06	5.324959e-06	5.687640e-09	3.793575e+01	3.745401e+02
1.750000e-06	5.307240e-06	5.649312e-09	3.780952e+01	3.738136e+02
1.760000e-06	5.286816e-06	5.674109e-09	3.766402e+01	3.730320e+02
1.770000e-06	5.263962e-06	5.669168e-09	3.750120e+01	3.722004e+02
1.780000e-06	5.239666e-06	5.774741e-09	3.732811e+01	3.713227e+02
1.790000e-06	5.214602e-06	5.707026e-09	3.714955e+01	3.704011e+02
1.800000e-06	5.188303e-06	5.538517e-09	3.696220e+01	3.694356e+02
1.810000e-06	5.159797e-06	5.647006e-09	3.675911e+01	3.684241e+02
1.820000e-06	5.129335e-06	5.554976e-09	3.654210e+01	3.673622e+02
1.830000e-06	5.097319e-06	5.494380e-09	3.631401e+01	3.662442e+02
1.840000e-06	5.063388e-06	5.659973e-09	3.607228e+01	3.650632e+02
1.850000e-06	5.027817e-06	5.493570e-09	3.581887e+01	3.638121e+02
1.860000e-06	4.990495e-06	5.472425e-09	3.555298e+01	3.624843e+02
1.870000e-06	4.951229e-06	5.596656e-09	3.527324e+01	3.610746e+02
1.880000e-06	4.910368e-06	5.439999e-09	3.498215e+01	3.595793e+02
1.890000e-06	4.867725e-06	5.451759e-09	3.467835e+01	3.579968e+02
1.900000e-06	4.823396e-06	5.397289e-09	3.436254e+01	3.563276e+02
1.910000e-06	4.777296e-06	5.332079e-09	3.403412e+01	3.545739e+02
1.920000e-06	4.729072e-06	5.449559e-09	3.369057e+01	3.527393e+02
1.930000e-06	4.679180e-06	5.309736e-09	3.333513e+01	3.508282e+02
1.940000e-06	4.627678e-06	5.302764e-09	3.296822e+01	3.488450e+02
1.950000e-06	4.574127e-06	5.312283e-09	3.258672e+01	3.467936e+02
1.960000e-06	4.518594e-06	5.192099e-09	3.219110e+01	3.446767e+02
1.970000e-06	4.461293e-06	5.200797e-09	3.178287e+01	3.424957e+02
1.980000e-06	4.402519e-06	5.171333e-09	3.136416e+01	3.402501e+02
1.990000e-06	4.342377e-06	5.195377e-09	3.093570e+01	3.379383e+02
2.000000e-06	4.280535e-06	5.101509e-09	3.049513e+01	3.355571e+02
2.010000e-06	4.216993e-06	5.017215e-09	3.004245e+01	3.331027e+02
2.020000e-06	4.151961e-06	5.069674e-09	2.957915e+01	3.305709e+02
2.030000e-06	4.085519e-06	4.976471e-09	2.910581e+01	3.279578e+02
2.040000e-06	4.017639e-06	4.957534e-09	2.862222e+01	3.252600e+02
2.050000e-06	3.948259e-06	4.924583e-09	2.812794e+01	3.224750e+02
2.060000e-06	3.877384e-06	4.866240e-09	2.762303e+01	3.196015e+02
2.070000e-06	3.805159e-06	4.822710e-09	2.710848e+01	3.166391e+02
2.080000e-06	3.731662e-06	4.735154e-09	2.658488e+01	3.135885e+02
2.090000e-06	3.656766e-06	4.737553e-09	2.605131e+01	3.104506e+02
2.100000e-06	3.580398e-06	4.679333e-09	2.550725e+01	3.072267e+02
2.110000e-06	3.502415e-06	4.608049e-09	2.495170e+01	3.039179e+02
2.120000e-06	3.423018e-06	4.559671e-09	2.438606e+01	3.005247e+02
2.130000e-06	3.342531e-06	4.524761e-09	2.381266e+01	2.970468e+02
2.140000e-06	3.260931e-06	4.494650e-09	2.323133e+01	2.934832e+02
2.150000e-06	3.178249e-06	4.414030e-09	2.264229e+01	2.898321e+02
2.160000e-06	3.094530e-06	4.353975e-09	2.204586e+01	2.860907e+02
2.170000e-06	3.009719e-06	4.282925e-09	2.144166e+01	2.822560e+02
2.180000e-06	2.923616e-06	4.232958e-09	2.082825e+01	2.783248e+02
2.190000e-06	2.836247e-06	4.182822e-09	2.020582e+01	2.742937e+02
2.200000e-06	2.747909e-06	4.116526e-09	1.957649e+01	2.701600e+02
2.210000e-06	2.658665e-06	4.050276e-09	1.894070e+01	2.659210e+02
2.220000e-06	2.568510e-06	3.971373e-09	1.829842e+01	2.615746e+02
2.230000e-06	2.477469e-06	3.909359e-09	1.764983e+01	2.571193e+02
2.240000e-06	2.385643e-06	3.848124e-09	1.699565e+01	2.525536e+02
2.250000e-06	2.293042e-06	3.791916e-09	1.633595e+01	2.478766e+02
2.260000e-06	2.199628e-06	3.717216e-09	1.567046e+01	2.430870e+02
2.270000e-06	2.105298e-06	3.624230e-09	1.499844e+01	2.381836e+02
2.280000e-06	2.009911e-06	3.537316e-09	1.431888e+01	2.331648e+02
2.290000e-06	1.913684e-06	3.467099e-09	1.363335e+01	2.280289e+02
2.300000e-06	1.816939e-06	3.396970e-09	1.294413e+01	2.227738e+02
2.310000e-06	1.719769e-06	3.310545e-09	1.225187e+01	2.173975e+02
2.320000e-06	1.622034e-06	3.223504e-09	1.155560e+01	2.118976e+02
2.330000e-06	1.523674e-06	3.141000e-09	1.085487e+01	2.062723e+02
2.340000e-06	1.424828e-06	3.061379e-09	1.015067e+01	2.005198e+02
2.350000e-06	1.325643e-06	2.972871e-09	9.444062e+00	1.946386e+02
2.360000e-06	1.226151e-06	2.880218e-09	8.735269e+00	1.886277e+02
2.370000e-06	1.126354e-06	2.782341e-09	8.024304e+00	1.824862e+02
2.380000e-06	1.026197e-06	2.680110e-09	7.310767e+00	1.762134e+02
2.390000e-06	9.255841e-07	2.584897e-09	6.593990e+00	1.698084e+02
2.400000e-06	8.245423e-07	2.494713e-09	5.874154e+00	1.632700e+02
2.410000e-06	7.231522e-07	2.395877e-09	5.151837e+00	1.565962e+02
2.420000e-06	6.215475e-07	2.282332e-09	4.427991e+00	1.497845e+02
2.430000e-06	5.197440e-07	2.168702e-09	3.702729e+00	1.428310e+02
2.440000e-06	4.177163e-07	2.065809e-09	2.975869e+00	1.357311e+02
2.450000e-06	3.155107e-07	1.965358e-09	2.247742e+00	1.284787e+02
2.460000e-06	2.131272e-07	1.852363e-09	1.518348e+00	1.210670e+02
2.470000e-06	1.106032e-07	1.729659e-09	7.879524e-01	1.134881e+02
2.480000e-06	8.055813e-09	1.603664e-09	5.739074e-02	1.057334e+02
2.490000e-06	-9.447156e-08	1.478110e-09	-6.730286e-01	9.779372e+01
2.500000e-06	-1.970257e-07	1.356694e-09	-1.403638e+00	8.965971e+01
2.510000e-06	-2.995335e-07	1.236982e-09	-2.133918e+00	8.132188e+01
2.520000e-06	-4.018799e-07	1.112027e-09	-2.863048e+00	7.277091e+01
2.530000e-06	-5.040525e-07	9.757952e-10	-3.590941e+00	6.399802e+01
2.540000e-06	-6.060523e-07	8.348621e-10	-4.317601e+00	5.499519e+01
2.550000e-06	-7.078264e-07	6.975145e-10	-5.042654e+00	4.575562e+01
2.560000e-06	-8.092868e-07	5.573603e-10	-5.765472e+00	3.627417e+01
2.570000e-06	-9.103631e-07	4.065611e-10	-6.485554e+00	2.654786e+01
2.580000e-06	-1.011044e-06	2.493087e-10	-7.202817e+00	1.657656e+01
2.590000e-06	-1.111334e-06	9.373002e-11	-7.917297e+00	6.363563e+00
2.600000e-06	-1.211203e-06	-6.004442e-11	-8.628782e+00	-4.083745e+00
2.610000e-06	-1.310604e-06	-2.176837e-10	-9.336927e+00	-1.475330e+01
2.620000e-06	-1.409593e-06	-3.814620e-10	-1.004214e+01	-2.562790e+01
2.630000e-06	-1.508115e-06	-5.511025e-10	-1.074402e+01	-3.668498e+01
2.640000e-06	-1.606026e-06	-7.241087e-10	-1.144155e+01	-4.789655e+01
2.650000e-06	-1.703361e-06	-8.956936e-10	-1.213498e+01	-5.922951e+01
2.660000e-06	-1.800196e-06	-1.066073e-09	-1.282484e+01	-7.064620e+01
2.670000e-06	-1.896521e-06	-1.240239e-09	-1.351108e+01	-8.210527e+01
2.680000e-06	-1.992285e-06	-1.419884e-09	-1.419332e+01	-9.356280e+01
2.690000e-06	-2.087294e-06	-1.599128e-09	-1.487017e+01	-1.049736e+02
2.700000e-06	-2.181447e-06	-1.772463e-09	-1.554093e+01	-1.162923e+02
2.710000e-06	-2.274691e-06	-1.938592e-09	-1.620522e+01	-1.274754e+02
2.720000e-06	-2.366913e-06	-2.101087e-09	-1.686222e+01	-1.384815e+02
2.730000e-06	-2.458248e-06	-2.263316e-09	-1.751290e+01	-1.492732e+02
2.740000e-06	-2.548789e-06	-2.422739e-09	-1.815793e+01	-1.598175e+02
2.750000e-06	-2.638420e-06	-2.577136e-09	-1.879647e+01	-1.700861e+02
2.760000e-06	-2.727161e-06	-2.727797e-09	-1.942868e+01	-1.800562e+02
2.770000e-06	-2.815082e-06	-2.877034e-09	-2.005504e+01	-1.897098e+02
2.780000e-06	-2.902076e-06	-3.023361e-09	-2.067479e+01	-1.990338e+02
2.790000e-06	-2.987950e-06	-3.163128e-09	-2.128657e+01	-2.080195e+02
2.800000e-06	-3.072604e-06	-3.295325e-09	-2.188966e+01	-2.166620e+02
2.810000e-06	-3.156164e-06	-3.419793e-09	-2.248495e+01	-2.249602e+02
2.820000e-06	-3.238731e-06	-3.536157e-09	-2.307317e+01	-2.329159e+02
2.830000e-06	-3.320290e-06	-3.650402e-09	-2.365421e+01	-2.405335e+02
2.840000e-06	-3.400785e-06	-3.766562e-09	-2.422767e+01	-2.478203e+02
2.850000e-06	-3.480077e-06	-3.879547e-09	-2.479255e+01	-2.547857e+02
2.860000e-06	-3.557918e-06	-3.983522e-09	-2.534711e+01	-2.614414e+02
2.870000e-06	-3.634248e-06	-4.078675e-09	-2.589089e+01	-2.678010e+02
2.880000e-06	-3.709136e-06	-4.170582e-09	-2.642440e+01	-2.738801e+02
2.890000e-06	-3.782640e-06	-4.260145e-09	-2.694806e+01	-2.796953e+02
2.900000e-06	-3.854864e-06	-4.344660e-09	-2.746259e+01	-2.852644e+02
2.910000e-06	-3.925713e-06	-4.423482e-09	-2.796732e+01	-2.906048e+02
2.920000e-06	-3.994976e-06	-4.498584e-09	-2.846077e+01	-2.957338e+02
2.930000e-06	-4.062705e-06	-4.572903e-09	-2.894328e+01	-3.006669e+02
2.940000e-06	-4.129019e-06	-4.646719e-09	-2.941571e+01	-3.054174e+02
