# Temperatura_=_68.69
# Concentracion g/m^3_=_15000.0
# C_Vs_to_Am_M_A/Vsm_=_65563218390.804596
# pendiente_HvsI_1/m_=_3716.3
# ordenada_HvsI_A/m_=_1297.0
# frecuencia_Hz_=_301590.7463266688

Tiempo_(s)	Campo_(V.s)	Magnetizacion_(V.s)	Campo_(kA/m)	Magnetizacion_(A/m)
0.000000e+00	-5.361061e-06	-7.000472e-09	-3.833642e+01	-4.575006e+02
1.000000e-08	-5.358215e-06	-6.996997e-09	-3.831606e+01	-4.573032e+02
2.000000e-08	-5.353557e-06	-6.991096e-09	-3.828275e+01	-4.569960e+02
3.000000e-08	-5.347336e-06	-6.983113e-09	-3.823827e+01	-4.565747e+02
4.000000e-08	-5.339573e-06	-6.973728e-09	-3.818276e+01	-4.560382e+02
5.000000e-08	-5.330010e-06	-6.963334e-09	-3.811437e+01	-4.553894e+02
6.000000e-08	-5.318417e-06	-6.951448e-09	-3.803147e+01	-4.546350e+02
7.000000e-08	-5.304897e-06	-6.939456e-09	-3.793479e+01	-4.537854e+02
8.000000e-08	-5.289261e-06	-6.925867e-09	-3.782298e+01	-4.528537e+02
9.000000e-08	-5.271362e-06	-6.937408e-09	-3.769499e+01	-4.518541e+02
1.000000e-07	-5.251412e-06	-6.928092e-09	-3.755233e+01	-4.508003e+02
1.100000e-07	-5.229593e-06	-6.878772e-09	-3.739630e+01	-4.497035e+02
1.200000e-07	-5.206087e-06	-6.843968e-09	-3.722821e+01	-4.485713e+02
1.300000e-07	-5.181071e-06	-6.809829e-09	-3.704933e+01	-4.474063e+02
1.400000e-07	-5.154458e-06	-6.792876e-09	-3.685901e+01	-4.462055e+02
1.500000e-07	-5.126204e-06	-6.835401e-09	-3.665698e+01	-4.449604e+02
1.600000e-07	-5.096472e-06	-6.784602e-09	-3.644437e+01	-4.436580e+02
1.700000e-07	-5.065147e-06	-6.742265e-09	-3.622036e+01	-4.422821e+02
1.800000e-07	-5.031784e-06	-6.755784e-09	-3.598179e+01	-4.408147e+02
1.900000e-07	-4.996524e-06	-6.677172e-09	-3.572965e+01	-4.392383e+02
2.000000e-07	-4.959844e-06	-6.665615e-09	-3.546735e+01	-4.375375e+02
2.100000e-07	-4.921433e-06	-6.657959e-09	-3.519268e+01	-4.357004e+02
2.200000e-07	-4.881161e-06	-6.580349e-09	-3.490470e+01	-4.337201e+02
2.300000e-07	-4.838945e-06	-6.579830e-09	-3.460282e+01	-4.315945e+02
2.400000e-07	-4.794790e-06	-6.563048e-09	-3.428707e+01	-4.293269e+02
2.500000e-07	-4.748961e-06	-6.502087e-09	-3.395935e+01	-4.269246e+02
2.600000e-07	-4.701296e-06	-6.476680e-09	-3.361850e+01	-4.243980e+02
2.700000e-07	-4.651596e-06	-6.410204e-09	-3.326311e+01	-4.217589e+02
2.800000e-07	-4.599809e-06	-6.379384e-09	-3.289278e+01	-4.190194e+02
2.900000e-07	-4.546111e-06	-6.360952e-09	-3.250879e+01	-4.161899e+02
3.000000e-07	-4.490823e-06	-6.306346e-09	-3.211343e+01	-4.132784e+02
3.100000e-07	-4.433951e-06	-6.256300e-09	-3.170674e+01	-4.102895e+02
3.200000e-07	-4.375239e-06	-6.201671e-09	-3.128690e+01	-4.072245e+02
3.300000e-07	-4.314867e-06	-6.154541e-09	-3.085519e+01	-4.040813e+02
3.400000e-07	-4.253080e-06	-6.104603e-09	-3.041335e+01	-4.008552e+02
3.500000e-07	-4.189923e-06	-6.069981e-09	-2.996172e+01	-3.975399e+02
3.600000e-07	-4.125329e-06	-6.021316e-09	-2.949982e+01	-3.941282e+02
3.700000e-07	-4.059100e-06	-5.947476e-09	-2.902622e+01	-3.906133e+02
3.800000e-07	-3.991258e-06	-5.896270e-09	-2.854109e+01	-3.869895e+02
3.900000e-07	-3.921974e-06	-5.839711e-09	-2.804565e+01	-3.832527e+02
4.000000e-07	-3.851419e-06	-5.776596e-09	-2.754111e+01	-3.794008e+02
4.100000e-07	-3.779697e-06	-5.718480e-09	-2.702824e+01	-3.754332e+02
4.200000e-07	-3.706709e-06	-5.654932e-09	-2.650631e+01	-3.713513e+02
4.300000e-07	-3.632150e-06	-5.597874e-09	-2.597315e+01	-3.671570e+02
4.400000e-07	-3.555940e-06	-5.535768e-09	-2.542818e+01	-3.628528e+02
4.500000e-07	-3.478297e-06	-5.471804e-09	-2.487296e+01	-3.584412e+02
4.600000e-07	-3.399283e-06	-5.401902e-09	-2.430794e+01	-3.539237e+02
4.700000e-07	-3.318971e-06	-5.318835e-09	-2.373363e+01	-3.493014e+02
4.800000e-07	-3.237428e-06	-5.239884e-09	-2.315053e+01	-3.445738e+02
4.900000e-07	-3.154658e-06	-5.171181e-09	-2.255864e+01	-3.397401e+02
5.000000e-07	-3.070862e-06	-5.104797e-09	-2.195943e+01	-3.347982e+02
5.100000e-07	-2.986236e-06	-5.023300e-09	-2.135428e+01	-3.297459e+02
5.200000e-07	-2.900690e-06	-4.939146e-09	-2.074255e+01	-3.245808e+02
5.300000e-07	-2.814120e-06	-4.854764e-09	-2.012349e+01	-3.193005e+02
5.400000e-07	-2.726601e-06	-4.769833e-09	-1.949766e+01	-3.139027e+02
5.500000e-07	-2.638282e-06	-4.688784e-09	-1.886609e+01	-3.083856e+02
5.600000e-07	-2.548992e-06	-4.605182e-09	-1.822759e+01	-3.027475e+02
5.700000e-07	-2.458449e-06	-4.517673e-09	-1.758013e+01	-2.969871e+02
5.800000e-07	-2.366838e-06	-4.421522e-09	-1.692502e+01	-2.911027e+02
5.900000e-07	-2.274507e-06	-4.327519e-09	-1.626478e+01	-2.850927e+02
6.000000e-07	-2.181477e-06	-4.235383e-09	-1.559953e+01	-2.789556e+02
6.100000e-07	-2.087684e-06	-4.140365e-09	-1.492882e+01	-2.726896e+02
6.200000e-07	-1.993144e-06	-4.042456e-09	-1.425278e+01	-2.662929e+02
6.300000e-07	-1.897848e-06	-3.942148e-09	-1.357132e+01	-2.597641e+02
6.400000e-07	-1.801920e-06	-3.843101e-09	-1.288535e+01	-2.531020e+02
6.500000e-07	-1.705424e-06	-3.742549e-09	-1.219532e+01	-2.463062e+02
6.600000e-07	-1.608244e-06	-3.636487e-09	-1.150039e+01	-2.393767e+02
6.700000e-07	-1.510324e-06	-3.522748e-09	-1.080018e+01	-2.323138e+02
6.800000e-07	-1.411679e-06	-3.407122e-09	-1.009477e+01	-2.251183e+02
6.900000e-07	-1.312383e-06	-3.293258e-09	-9.384718e+00	-2.177905e+02
7.000000e-07	-1.212645e-06	-3.183421e-09	-8.671501e+00	-2.103302e+02
7.100000e-07	-1.112623e-06	-3.072118e-09	-7.956253e+00	-2.027359e+02
7.200000e-07	-1.012389e-06	-2.952762e-09	-7.239495e+00	-1.950044e+02
7.300000e-07	-9.119499e-07	-2.828820e-09	-6.521264e+00	-1.871306e+02
7.400000e-07	-8.112308e-07	-2.703692e-09	-5.801031e+00	-1.791075e+02
7.500000e-07	-7.102175e-07	-2.580189e-09	-5.078695e+00	-1.709259e+02
7.600000e-07	-6.089375e-07	-2.455452e-09	-4.354452e+00	-1.625754e+02
7.700000e-07	-5.073954e-07	-2.325929e-09	-3.628335e+00	-1.540448e+02
7.800000e-07	-4.056445e-07	-2.191165e-09	-2.900724e+00	-1.453228e+02
7.900000e-07	-3.037126e-07	-2.051608e-09	-2.171819e+00	-1.363991e+02
8.000000e-07	-2.016866e-07	-1.908669e-09	-1.442241e+00	-1.272646e+02
8.100000e-07	-9.965545e-08	-1.765551e-09	-7.126263e-01	-1.179124e+02
8.200000e-07	2.431512e-09	-1.618703e-09	1.738750e-02	-1.083378e+02
8.300000e-07	1.045388e-07	-1.466739e-09	7.475463e-01	-9.853774e+01
8.400000e-07	2.065985e-07	-1.310964e-09	1.477365e+00	-8.851099e+01
8.500000e-07	3.086613e-07	-1.153126e-09	2.207206e+00	-7.825688e+01
8.600000e-07	4.106917e-07	-9.944784e-10	2.936815e+00	-6.777463e+01
8.700000e-07	5.125703e-07	-8.309164e-10	3.665340e+00	-5.706251e+01
8.800000e-07	6.142888e-07	-6.621800e-10	4.392718e+00	-4.611722e+01
8.900000e-07	7.158056e-07	-4.894758e-10	5.118655e+00	-3.493370e+01
9.000000e-07	8.170384e-07	-3.139887e-10	5.842561e+00	-2.350540e+01
9.100000e-07	9.179468e-07	-1.349826e-10	6.564146e+00	-1.182522e+01
9.200000e-07	1.018543e-06	4.602945e-11	7.283497e+00	1.131804e-01
9.300000e-07	1.118859e-06	2.296682e-10	8.000853e+00	1.231347e+01
9.400000e-07	1.218895e-06	4.186896e-10	8.716196e+00	2.477461e+01
9.500000e-07	1.318604e-06	6.095191e-10	9.429208e+00	3.748877e+01
9.600000e-07	1.417768e-06	8.009530e-10	1.013832e+01	5.043956e+01
9.700000e-07	1.516177e-06	9.956757e-10	1.084203e+01	6.360072e+01
9.800000e-07	1.613854e-06	1.195555e-09	1.154051e+01	7.693570e+01
9.900000e-07	1.710846e-06	1.400135e-09	1.223409e+01	9.039796e+01
1.000000e-06	1.807135e-06	1.604945e-09	1.292264e+01	1.039324e+02
1.010000e-06	1.902765e-06	1.809219e-09	1.360648e+01	1.174773e+02
1.020000e-06	1.997687e-06	2.012955e-09	1.428526e+01	1.309675e+02
1.030000e-06	2.091890e-06	2.215187e-09	1.495890e+01	1.443373e+02
1.040000e-06	2.185407e-06	2.414804e-09	1.562763e+01	1.575241e+02
1.050000e-06	2.278228e-06	2.609160e-09	1.629139e+01	1.704711e+02
1.060000e-06	2.370396e-06	2.799604e-09	1.695047e+01	1.831301e+02
1.070000e-06	2.461792e-06	2.984494e-09	1.760403e+01	1.954629e+02
1.080000e-06	2.552146e-06	3.163217e-09	1.825014e+01	2.074423e+02
1.090000e-06	2.641323e-06	3.338476e-09	1.888784e+01	2.190516e+02
1.100000e-06	2.729513e-06	3.510552e-09	1.951847e+01	2.302833e+02
1.110000e-06	2.816825e-06	3.677555e-09	2.014283e+01	2.411376e+02
1.120000e-06	2.903222e-06	3.839037e-09	2.076065e+01	2.516198e+02
1.130000e-06	2.988687e-06	3.994390e-09	2.137181e+01	2.617381e+02
1.140000e-06	3.073243e-06	4.142637e-09	2.197646e+01	2.715010e+02
1.150000e-06	3.156917e-06	4.285323e-09	2.257480e+01	2.809162e+02
1.160000e-06	3.239454e-06	4.423117e-09	2.316501e+01	2.899890e+02
1.170000e-06	3.320683e-06	4.556188e-09	2.374588e+01	2.987225e+02
1.180000e-06	3.400693e-06	4.684137e-09	2.431802e+01	3.071176e+02
1.190000e-06	3.479527e-06	4.805751e-09	2.488175e+01	3.151742e+02
1.200000e-06	3.557197e-06	4.921828e-09	2.543716e+01	3.228927e+02
1.210000e-06	3.633667e-06	5.033270e-09	2.598399e+01	3.302753e+02
1.220000e-06	3.708732e-06	5.138330e-09	2.652077e+01	3.373277e+02
1.230000e-06	3.782121e-06	5.237137e-09	2.704557e+01	3.440595e+02
1.240000e-06	3.853969e-06	5.331667e-09	2.755935e+01	3.504850e+02
1.250000e-06	3.924452e-06	5.425398e-09	2.806337e+01	3.566224e+02
1.260000e-06	3.993562e-06	5.516996e-09	2.855756e+01	3.624933e+02
1.270000e-06	4.061382e-06	5.602942e-09	2.904254e+01	3.681211e+02
1.280000e-06	4.127739e-06	5.683593e-09	2.951705e+01	3.735290e+02
1.290000e-06	4.192390e-06	5.762657e-09	2.997937e+01	3.787382e+02
1.300000e-06	4.255481e-06	5.841042e-09	3.043052e+01	3.837664e+02
1.310000e-06	4.317167e-06	5.917641e-09	3.087163e+01	3.886264e+02
1.320000e-06	4.377487e-06	5.991610e-09	3.130298e+01	3.933254e+02
1.330000e-06	4.436363e-06	6.060992e-09	3.172399e+01	3.978654e+02
1.340000e-06	4.493501e-06	6.126290e-09	3.213258e+01	4.022434e+02
1.350000e-06	4.548952e-06	6.187780e-09	3.252910e+01	4.064529e+02
1.360000e-06	4.602837e-06	6.245466e-09	3.291443e+01	4.104857e+02
1.370000e-06	4.654873e-06	6.299994e-09	3.328654e+01	4.143334e+02
1.380000e-06	4.704809e-06	6.352648e-09	3.364362e+01	4.179893e+02
1.390000e-06	4.752839e-06	6.406718e-09	3.398708e+01	4.214493e+02
1.400000e-06	4.799237e-06	6.459908e-09	3.431887e+01	4.247133e+02
1.410000e-06	4.844112e-06	6.508123e-09	3.463977e+01	4.277847e+02
1.420000e-06	4.887400e-06	6.551712e-09	3.494931e+01	4.306707e+02
1.430000e-06	4.928803e-06	6.590641e-09	3.524538e+01	4.333810e+02
1.440000e-06	4.968379e-06	6.625929e-09	3.552839e+01	4.359264e+02
1.450000e-06	5.006346e-06	6.659224e-09	3.579988e+01	4.383180e+02
1.460000e-06	5.042770e-06	6.692273e-09	3.606035e+01	4.405653e+02
1.470000e-06	5.077421e-06	6.724501e-09	3.630814e+01	4.426756e+02
1.480000e-06	5.110076e-06	6.754010e-09	3.654165e+01	4.446533e+02
1.490000e-06	5.140908e-06	6.780351e-09	3.676212e+01	4.465000e+02
1.500000e-06	5.170078e-06	6.804644e-09	3.697072e+01	4.482147e+02
1.510000e-06	5.197588e-06	6.827151e-09	3.716743e+01	4.497949e+02
1.520000e-06	5.223087e-06	6.847431e-09	3.734978e+01	4.512374e+02
1.530000e-06	5.246510e-06	6.865801e-09	3.751727e+01	4.525399e+02
1.540000e-06	5.268156e-06	6.883376e-09	3.767206e+01	4.537018e+02
1.550000e-06	5.288095e-06	6.899120e-09	3.781464e+01	4.547247e+02
1.560000e-06	5.306115e-06	6.913293e-09	3.794350e+01	4.556131e+02
1.570000e-06	5.322084e-06	6.926211e-09	3.805769e+01	4.563738e+02
1.580000e-06	5.336118e-06	6.936793e-09	3.815805e+01	4.570156e+02
1.590000e-06	5.348162e-06	6.946864e-09	3.824418e+01	4.575478e+02
1.600000e-06	5.358012e-06	6.955647e-09	3.831462e+01	4.579794e+02
1.610000e-06	5.365787e-06	6.962425e-09	3.837021e+01	4.583179e+02
1.620000e-06	5.371728e-06	6.967223e-09	3.841269e+01	4.585680e+02
1.630000e-06	5.375897e-06	6.969818e-09	3.844250e+01	4.587315e+02
1.640000e-06	5.378104e-06	6.971279e-09	3.845829e+01	4.588069e+02
1.650000e-06	5.378343e-06	6.973257e-09	3.846000e+01	4.587899e+02
1.660000e-06	5.376860e-06	6.973321e-09	3.844939e+01	4.586744e+02
1.670000e-06	5.373727e-06	6.968066e-09	3.842699e+01	4.584537e+02
1.680000e-06	5.368852e-06	6.963432e-09	3.839213e+01	4.581220e+02
1.690000e-06	5.362026e-06	6.960173e-09	3.834332e+01	4.576757e+02
1.700000e-06	5.353450e-06	6.955999e-09	3.828199e+01	4.571145e+02
1.710000e-06	5.343375e-06	6.949341e-09	3.820995e+01	4.564420e+02
1.720000e-06	5.331578e-06	6.936920e-09	3.812559e+01	4.556659e+02
1.730000e-06	5.317732e-06	6.930740e-09	3.802658e+01	4.547973e+02
1.740000e-06	5.301856e-06	6.885913e-09	3.791305e+01	4.538496e+02
1.750000e-06	5.283660e-06	6.855087e-09	3.778293e+01	4.528369e+02
1.760000e-06	5.262679e-06	6.872443e-09	3.763290e+01	4.517727e+02
1.770000e-06	5.239444e-06	6.865881e-09	3.746674e+01	4.506676e+02
1.780000e-06	5.215019e-06	6.886806e-09	3.729209e+01	4.495281e+02
1.790000e-06	5.189883e-06	6.846311e-09	3.711234e+01	4.483555e+02
1.800000e-06	5.163311e-06	6.729064e-09	3.692233e+01	4.471458e+02
1.810000e-06	5.134508e-06	6.772779e-09	3.671636e+01	4.458893e+02
1.820000e-06	5.103898e-06	6.759168e-09	3.649747e+01	4.445724e+02
1.830000e-06	5.071644e-06	6.693038e-09	3.626682e+01	4.431781e+02
1.840000e-06	5.037447e-06	6.768598e-09	3.602228e+01	4.416885e+02
1.850000e-06	5.001692e-06	6.714055e-09	3.576660e+01	4.400864e+02
1.860000e-06	4.964115e-06	6.670480e-09	3.549789e+01	4.383569e+02
1.870000e-06	4.924607e-06	6.703991e-09	3.521538e+01	4.364892e+02
1.880000e-06	4.883553e-06	6.585561e-09	3.492180e+01	4.344774e+02
1.890000e-06	4.840674e-06	6.581916e-09	3.461518e+01	4.323208e+02
1.900000e-06	4.796187e-06	6.569942e-09	3.429706e+01	4.300233e+02
1.910000e-06	4.749958e-06	6.483789e-09	3.396648e+01	4.275930e+02
1.920000e-06	4.701635e-06	6.531580e-09	3.362092e+01	4.250410e+02
1.930000e-06	4.651665e-06	6.434599e-09	3.326360e+01	4.223791e+02
1.940000e-06	4.599964e-06	6.383306e-09	3.289388e+01	4.196192e+02
1.950000e-06	4.546211e-06	6.383806e-09	3.250951e+01	4.167713e+02
1.960000e-06	4.490563e-06	6.286319e-09	3.211157e+01	4.138426e+02
1.970000e-06	4.433214e-06	6.271732e-09	3.170147e+01	4.108372e+02
1.980000e-06	4.374426e-06	6.220881e-09	3.128109e+01	4.077554e+02
1.990000e-06	4.314173e-06	6.190399e-09	3.085023e+01	4.045946e+02
2.000000e-06	4.252210e-06	6.132053e-09	3.040713e+01	4.013497e+02
2.010000e-06	4.188632e-06	6.043566e-09	2.995249e+01	3.980140e+02
2.020000e-06	4.123601e-06	6.044938e-09	2.948747e+01	3.945804e+02
2.030000e-06	4.057110e-06	5.960337e-09	2.901199e+01	3.910423e+02
2.040000e-06	3.989196e-06	5.916136e-09	2.852634e+01	3.873943e+02
2.050000e-06	3.919845e-06	5.869929e-09	2.803042e+01	3.836327e+02
2.060000e-06	3.848908e-06	5.788514e-09	2.752316e+01	3.797556e+02
2.070000e-06	3.776552e-06	5.744542e-09	2.700575e+01	3.757632e+02
2.080000e-06	3.702978e-06	5.652609e-09	2.647963e+01	3.716566e+02
2.090000e-06	3.628072e-06	5.613475e-09	2.594398e+01	3.674383e+02
2.100000e-06	3.551673e-06	5.545201e-09	2.539766e+01	3.631106e+02
2.110000e-06	3.473631e-06	5.465011e-09	2.483959e+01	3.586759e+02
2.120000e-06	3.394250e-06	5.413874e-09	2.427194e+01	3.541356e+02
2.130000e-06	3.313836e-06	5.341539e-09	2.369691e+01	3.494905e+02
2.140000e-06	3.232298e-06	5.277433e-09	2.311384e+01	3.447400e+02
2.150000e-06	3.149663e-06	5.187955e-09	2.252293e+01	3.398830e+02
2.160000e-06	3.066073e-06	5.116388e-09	2.192518e+01	3.349174e+02
2.170000e-06	2.981430e-06	5.038590e-09	2.131991e+01	3.298408e+02
2.180000e-06	2.895415e-06	4.961362e-09	2.070483e+01	3.246509e+02
2.190000e-06	2.808123e-06	4.887170e-09	2.008061e+01	3.193453e+02
2.200000e-06	2.719888e-06	4.801616e-09	1.944965e+01	3.139218e+02
2.210000e-06	2.630771e-06	4.719630e-09	1.881238e+01	3.083786e+02
2.220000e-06	2.540744e-06	4.627073e-09	1.816861e+01	3.027141e+02
2.230000e-06	2.449825e-06	4.545773e-09	1.751845e+01	2.969269e+02
2.240000e-06	2.358166e-06	4.457622e-09	1.686301e+01	2.910155e+02
2.250000e-06	2.265859e-06	4.368339e-09	1.620293e+01	2.849782e+02
2.260000e-06	2.172743e-06	4.273471e-09	1.553707e+01	2.788133e+02
2.270000e-06	2.078552e-06	4.171228e-09	1.486352e+01	2.725191e+02
2.280000e-06	1.983318e-06	4.070539e-09	1.418251e+01	2.660939e+02
2.290000e-06	1.887330e-06	3.971397e-09	1.349611e+01	2.595363e+02
2.300000e-06	1.790856e-06	3.874892e-09	1.280623e+01	2.528454e+02
2.310000e-06	1.693953e-06	3.770839e-09	1.211329e+01	2.460206e+02
2.320000e-06	1.596432e-06	3.664104e-09	1.141593e+01	2.390621e+02
2.330000e-06	1.498290e-06	3.559459e-09	1.071412e+01	2.319704e+02
2.340000e-06	1.399669e-06	3.454754e-09	1.000889e+01	2.247462e+02
2.350000e-06	1.300694e-06	3.339583e-09	9.301132e+00	2.173898e+02
2.360000e-06	1.201403e-06	3.221602e-09	8.591114e+00	2.099007e+02
2.370000e-06	1.101794e-06	3.104165e-09	7.878817e+00	2.022770e+02
2.380000e-06	1.001869e-06	2.985970e-09	7.164264e+00	1.945153e+02
2.390000e-06	9.016395e-07	2.868568e-09	6.447535e+00	1.866099e+02
2.400000e-06	8.011121e-07	2.750137e-09	5.728673e+00	1.785533e+02
2.410000e-06	7.002772e-07	2.628054e-09	5.007613e+00	1.703361e+02
2.420000e-06	5.992145e-07	2.494858e-09	4.284924e+00	1.619477e+02
2.430000e-06	4.978727e-07	2.359389e-09	3.560238e+00	1.533767e+02
2.440000e-06	3.962665e-07	2.228792e-09	2.833663e+00	1.446120e+02
2.450000e-06	2.943765e-07	2.096153e-09	2.105057e+00	1.356435e+02
2.460000e-06	1.923249e-07	1.953981e-09	1.375296e+00	1.264626e+02
2.470000e-06	9.014425e-08	1.808738e-09	6.446126e-01	1.170628e+02
2.480000e-06	-1.215219e-08	1.664007e-09	-8.689908e-02	1.074398e+02
2.490000e-06	-1.143696e-07	1.517974e-09	-8.178454e-01	9.759093e+01
2.500000e-06	-2.165092e-07	1.369942e-09	-1.548236e+00	8.751521e+01
2.510000e-06	-3.185031e-07	1.216946e-09	-2.277584e+00	7.721201e+01
2.520000e-06	-4.204086e-07	1.059530e-09	-3.006300e+00	6.668040e+01
2.530000e-06	-5.222038e-07	8.932319e-10	-3.734228e+00	5.591836e+01
2.540000e-06	-6.237026e-07	7.226024e-10	-4.460035e+00	4.492221e+01
2.550000e-06	-7.248627e-07	5.524893e-10	-5.183421e+00	3.368652e+01
2.560000e-06	-8.256760e-07	3.778134e-10	-5.904327e+00	2.220456e+01
2.570000e-06	-9.261461e-07	1.955406e-10	-6.622779e+00	1.046922e+01
2.580000e-06	-1.026349e-06	9.115779e-12	-7.339321e+00	-1.525415e+00
2.590000e-06	-1.126218e-06	-1.776719e-10	-8.053473e+00	-1.378219e+01
2.600000e-06	-1.225643e-06	-3.659824e-10	-8.764451e+00	-2.629877e+01
2.610000e-06	-1.324643e-06	-5.592791e-10	-9.472388e+00	-3.906563e+01
2.620000e-06	-1.423207e-06	-7.597502e-10	-1.017721e+01	-5.206435e+01
2.630000e-06	-1.521273e-06	-9.660087e-10	-1.087847e+01	-6.526649e+01
2.640000e-06	-1.618801e-06	-1.174834e-09	-1.157588e+01	-7.863327e+01
2.650000e-06	-1.715785e-06	-1.383615e-09	-1.226941e+01	-9.211618e+01
2.660000e-06	-1.812195e-06	-1.592623e-09	-1.295883e+01	-1.056585e+02
2.670000e-06	-1.908120e-06	-1.802352e-09	-1.364478e+01	-1.191975e+02
2.680000e-06	-2.003459e-06	-2.013640e-09	-1.432654e+01	-1.326677e+02
2.690000e-06	-2.098010e-06	-2.223051e-09	-1.500266e+01	-1.460037e+02
2.700000e-06	-2.191658e-06	-2.426003e-09	-1.567233e+01	-1.591440e+02
2.710000e-06	-2.284284e-06	-2.620762e-09	-1.633469e+01	-1.720333e+02
2.720000e-06	-2.376031e-06	-2.811797e-09	-1.699077e+01	-1.846255e+02
2.730000e-06	-2.466920e-06	-3.000130e-09	-1.764070e+01	-1.968848e+02
2.740000e-06	-2.556859e-06	-3.181867e-09	-1.828385e+01	-2.087863e+02
2.750000e-06	-2.645878e-06	-3.357327e-09	-1.892041e+01	-2.203152e+02
2.760000e-06	-2.734102e-06	-3.528632e-09	-1.955129e+01	-2.314661e+02
2.770000e-06	-2.821576e-06	-3.697081e-09	-2.017681e+01	-2.422404e+02
2.780000e-06	-2.908075e-06	-3.859499e-09	-2.079535e+01	-2.526442e+02
2.790000e-06	-2.993335e-06	-4.012033e-09	-2.140504e+01	-2.626859e+02
2.800000e-06	-3.077402e-06	-4.155965e-09	-2.200620e+01	-2.723741e+02
2.810000e-06	-3.160483e-06	-4.295017e-09	-2.260030e+01	-2.817158e+02
2.820000e-06	-3.242576e-06	-4.431174e-09	-2.318734e+01	-2.907161e+02
2.830000e-06	-3.323638e-06	-4.564092e-09	-2.376700e+01	-2.993773e+02
2.840000e-06	-3.403624e-06	-4.694042e-09	-2.433898e+01	-3.077001e+02
2.850000e-06	-3.482326e-06	-4.820239e-09	-2.490177e+01	-3.156845e+02
2.860000e-06	-3.559549e-06	-4.939809e-09	-2.545398e+01	-3.233310e+02
2.870000e-06	-3.635281e-06	-5.052186e-09	-2.599554e+01	-3.306426e+02
2.880000e-06	-3.709531e-06	-5.160059e-09	-2.652649e+01	-3.376257e+02
2.890000e-06	-3.782413e-06	-5.262612e-09	-2.704766e+01	-3.442908e+02
2.900000e-06	-3.854067e-06	-5.359240e-09	-2.756005e+01	-3.506531e+02
2.910000e-06	-3.924304e-06	-5.451559e-09	-2.806231e+01	-3.567318e+02
2.920000e-06	-3.992955e-06	-5.540005e-09	-2.855323e+01	-3.625489e+02
2.930000e-06	-4.060191e-06	-5.625372e-09	-2.903402e+01	-3.681280e+02
2.940000e-06	-4.126001e-06	-5.708347e-09	-2.950462e+01	-3.734919e+02
