# Temperatura_=_34.96
# Concentracion g/m^3_=_15000.0
# C_Vs_to_Am_M_A/Vsm_=_65563218390.804596
# pendiente_HvsI_1/m_=_3716.3
# ordenada_HvsI_A/m_=_1297.0
# frecuencia_Hz_=_302339.11310970975

Tiempo_(s)	Campo_(V.s)	Magnetizacion_(V.s)	Campo_(kA/m)	Magnetizacion_(A/m)
0.000000e+00	-8.172201e-06	-1.058398e-08	-5.690294e+01	-6.913164e+02
1.000000e-08	-8.167383e-06	-1.058234e-08	-5.686940e+01	-6.910238e+02
2.000000e-08	-8.159906e-06	-1.057748e-08	-5.681733e+01	-6.906254e+02
3.000000e-08	-8.149629e-06	-1.057226e-08	-5.674577e+01	-6.901309e+02
4.000000e-08	-8.136443e-06	-1.056364e-08	-5.665396e+01	-6.895502e+02
5.000000e-08	-8.120319e-06	-1.055177e-08	-5.654169e+01	-6.888922e+02
6.000000e-08	-8.101615e-06	-1.053759e-08	-5.641145e+01	-6.881645e+02
7.000000e-08	-8.080603e-06	-1.051827e-08	-5.626515e+01	-6.873721e+02
8.000000e-08	-8.056859e-06	-1.053066e-08	-5.609982e+01	-6.865180e+02
9.000000e-08	-8.029902e-06	-1.053956e-08	-5.591211e+01	-6.856026e+02
1.000000e-07	-7.999792e-06	-1.050072e-08	-5.570246e+01	-6.846248e+02
1.100000e-07	-7.966679e-06	-1.046446e-08	-5.547190e+01	-6.835822e+02
1.200000e-07	-7.930672e-06	-1.043955e-08	-5.522118e+01	-6.824718e+02
1.300000e-07	-7.892114e-06	-1.041632e-08	-5.495270e+01	-6.812901e+02
1.400000e-07	-7.851233e-06	-1.037414e-08	-5.466805e+01	-6.800337e+02
1.500000e-07	-7.807975e-06	-1.036090e-08	-5.436684e+01	-6.786988e+02
1.600000e-07	-7.762052e-06	-1.036298e-08	-5.404708e+01	-6.772813e+02
1.700000e-07	-7.713207e-06	-1.028485e-08	-5.370697e+01	-6.757764e+02
1.800000e-07	-7.661445e-06	-1.029467e-08	-5.334656e+01	-6.741779e+02
1.900000e-07	-7.606831e-06	-1.029442e-08	-5.296628e+01	-6.724786e+02
2.000000e-07	-7.549372e-06	-1.023291e-08	-5.256620e+01	-6.706697e+02
2.100000e-07	-7.489174e-06	-1.021689e-08	-5.214703e+01	-6.687416e+02
2.200000e-07	-7.426315e-06	-1.016601e-08	-5.170935e+01	-6.666842e+02
2.300000e-07	-7.360714e-06	-1.014069e-08	-5.125257e+01	-6.644880e+02
2.400000e-07	-7.292297e-06	-1.009579e-08	-5.077618e+01	-6.621453e+02
2.500000e-07	-7.221055e-06	-1.005786e-08	-5.028013e+01	-6.596506e+02
2.600000e-07	-7.146927e-06	-1.002495e-08	-4.976397e+01	-6.570018e+02
2.700000e-07	-7.069963e-06	-9.970092e-09	-4.922807e+01	-6.542003e+02
2.800000e-07	-6.990181e-06	-9.915198e-09	-4.867255e+01	-6.512513e+02
2.900000e-07	-6.907826e-06	-9.872120e-09	-4.809911e+01	-6.481626e+02
3.000000e-07	-6.823163e-06	-9.851342e-09	-4.750960e+01	-6.449438e+02
3.100000e-07	-6.736109e-06	-9.787494e-09	-4.690345e+01	-6.416051e+02
3.200000e-07	-6.646559e-06	-9.726251e-09	-4.627992e+01	-6.381554e+02
3.300000e-07	-6.554554e-06	-9.690722e-09	-4.563929e+01	-6.346007e+02
3.400000e-07	-6.460206e-06	-9.634077e-09	-4.498234e+01	-6.309435e+02
3.500000e-07	-6.363502e-06	-9.563180e-09	-4.430899e+01	-6.271817e+02
3.600000e-07	-6.264505e-06	-9.500353e-09	-4.361968e+01	-6.233088e+02
3.700000e-07	-6.163276e-06	-9.446852e-09	-4.291482e+01	-6.193143e+02
3.800000e-07	-6.059787e-06	-9.374879e-09	-4.219423e+01	-6.151852e+02
3.900000e-07	-5.954056e-06	-9.300716e-09	-4.145803e+01	-6.109074e+02
4.000000e-07	-5.846262e-06	-9.239017e-09	-4.070746e+01	-6.064675e+02
4.100000e-07	-5.736484e-06	-9.175875e-09	-3.994307e+01	-6.018541e+02
4.200000e-07	-5.624625e-06	-9.094530e-09	-3.916420e+01	-5.970595e+02
4.300000e-07	-5.510526e-06	-9.008864e-09	-3.836973e+01	-5.920800e+02
4.400000e-07	-5.394285e-06	-8.937445e-09	-3.756035e+01	-5.869155e+02
4.500000e-07	-5.276077e-06	-8.862343e-09	-3.673726e+01	-5.815694e+02
4.600000e-07	-5.155921e-06	-8.775335e-09	-3.590062e+01	-5.760465e+02
4.700000e-07	-5.033923e-06	-8.690579e-09	-3.505115e+01	-5.703514e+02
4.800000e-07	-4.910100e-06	-8.607197e-09	-3.418897e+01	-5.644868e+02
4.900000e-07	-4.784516e-06	-8.510141e-09	-3.331453e+01	-5.584519e+02
5.000000e-07	-4.657270e-06	-8.407427e-09	-3.242852e+01	-5.522411e+02
5.100000e-07	-4.528281e-06	-8.309900e-09	-3.153037e+01	-5.458438e+02
5.200000e-07	-4.397563e-06	-8.210002e-09	-3.062018e+01	-5.392451e+02
5.300000e-07	-4.265224e-06	-8.099247e-09	-2.969871e+01	-5.324266e+02
5.400000e-07	-4.131349e-06	-7.986850e-09	-2.876654e+01	-5.253687e+02
5.500000e-07	-3.996023e-06	-7.878136e-09	-2.782426e+01	-5.180528e+02
5.600000e-07	-3.859120e-06	-7.765650e-09	-2.687101e+01	-5.104628e+02
5.700000e-07	-3.720540e-06	-7.642633e-09	-2.590608e+01	-5.025877e+02
5.800000e-07	-3.580371e-06	-7.517409e-09	-2.493008e+01	-4.944216e+02
5.900000e-07	-3.438754e-06	-7.390492e-09	-2.394400e+01	-4.859644e+02
6.000000e-07	-3.295836e-06	-7.254323e-09	-2.294887e+01	-4.772203e+02
6.100000e-07	-3.151668e-06	-7.113523e-09	-2.194503e+01	-4.681963e+02
6.200000e-07	-3.006313e-06	-6.971809e-09	-2.093293e+01	-4.588991e+02
6.300000e-07	-2.859884e-06	-6.825203e-09	-1.991334e+01	-4.493326e+02
6.400000e-07	-2.712476e-06	-6.671005e-09	-1.888694e+01	-4.394955e+02
6.500000e-07	-2.564208e-06	-6.515547e-09	-1.785455e+01	-4.293787e+02
6.600000e-07	-2.415088e-06	-6.358159e-09	-1.681623e+01	-4.189654e+02
6.700000e-07	-2.265109e-06	-6.194016e-09	-1.577193e+01	-4.082305e+02
6.800000e-07	-2.114371e-06	-6.023115e-09	-1.472234e+01	-3.971426e+02
6.900000e-07	-1.962907e-06	-5.847216e-09	-1.366770e+01	-3.856671e+02
7.000000e-07	-1.810714e-06	-5.665809e-09	-1.260798e+01	-3.737690e+02
7.100000e-07	-1.657819e-06	-5.476489e-09	-1.154338e+01	-3.614169e+02
7.200000e-07	-1.504351e-06	-5.281026e-09	-1.047478e+01	-3.485859e+02
7.300000e-07	-1.350409e-06	-5.079125e-09	-9.402883e+00	-3.352602e+02
7.400000e-07	-1.196008e-06	-4.867532e-09	-8.327788e+00	-3.214330e+02
7.500000e-07	-1.041214e-06	-4.649335e-09	-7.249958e+00	-3.071061e+02
7.600000e-07	-8.860632e-07	-4.425864e-09	-6.169648e+00	-2.922865e+02
7.700000e-07	-7.306165e-07	-4.194596e-09	-5.087274e+00	-2.769821e+02
7.800000e-07	-5.748950e-07	-3.955586e-09	-4.002988e+00	-2.611965e+02
7.900000e-07	-4.189238e-07	-3.709361e-09	-2.916962e+00	-2.449232e+02
8.000000e-07	-2.628017e-07	-3.455201e-09	-1.829885e+00	-2.281407e+02
8.100000e-07	-1.066046e-07	-3.189065e-09	-7.422869e-01	-2.108095e+02
8.200000e-07	4.962171e-08	-2.913129e-09	3.455154e-01	-1.928710e+02
8.300000e-07	2.058669e-07	-2.625507e-09	1.433449e+00	-1.742491e+02
8.400000e-07	3.621084e-07	-2.322208e-09	2.521357e+00	-1.548558e+02
8.500000e-07	5.182465e-07	-2.008406e-09	3.608544e+00	-1.345982e+02
8.600000e-07	6.742037e-07	-1.685019e-09	4.694473e+00	-1.133893e+02
8.700000e-07	8.299719e-07	-1.351330e-09	5.779085e+00	-9.115874e+01
8.800000e-07	9.855017e-07	-1.001155e-09	6.862037e+00	-6.786434e+01
8.900000e-07	1.140690e-06	-6.338861e-10	7.942610e+00	-4.350257e+01
9.000000e-07	1.295478e-06	-2.499438e-10	9.020401e+00	-1.811627e+01
9.100000e-07	1.449836e-06	1.522446e-10	1.009519e+01	8.200906e+00
9.200000e-07	1.603695e-06	5.660292e-10	1.116651e+01	3.530425e+01
9.300000e-07	1.756927e-06	9.887705e-10	1.223347e+01	6.300213e+01
9.400000e-07	1.909469e-06	1.416116e-09	1.329561e+01	9.106438e+01
9.500000e-07	2.061298e-06	1.845547e-09	1.435279e+01	1.192343e+02
9.600000e-07	2.212340e-06	2.274040e-09	1.540450e+01	1.472429e+02
9.700000e-07	2.362496e-06	2.695234e-09	1.645004e+01	1.748249e+02
9.800000e-07	2.511738e-06	3.105195e-09	1.748920e+01	2.017334e+02
9.900000e-07	2.660076e-06	3.501978e-09	1.852208e+01	2.277539e+02
1.000000e-06	2.807466e-06	3.880038e-09	1.954836e+01	2.527148e+02
1.010000e-06	2.953835e-06	4.237723e-09	2.056752e+01	2.764937e+02
1.020000e-06	3.099024e-06	4.577465e-09	2.157847e+01	2.990204e+02
1.030000e-06	3.243020e-06	4.897810e-09	2.258111e+01	3.202746e+02
1.040000e-06	3.385832e-06	5.199170e-09	2.357551e+01	3.402802e+02
1.050000e-06	3.527314e-06	5.485155e-09	2.456065e+01	3.590972e+02
1.060000e-06	3.667390e-06	5.757240e-09	2.553600e+01	3.768102e+02
1.070000e-06	3.806106e-06	6.012994e-09	2.650187e+01	3.935181e+02
1.080000e-06	3.943435e-06	6.252904e-09	2.745809e+01	4.093229e+02
1.090000e-06	4.079312e-06	6.481575e-09	2.840420e+01	4.243209e+02
1.100000e-06	4.213692e-06	6.699376e-09	2.933989e+01	4.385956e+02
1.110000e-06	4.346562e-06	6.906289e-09	3.026507e+01	4.522141e+02
1.120000e-06	4.477852e-06	7.103995e-09	3.117924e+01	4.652257e+02
1.130000e-06	4.607573e-06	7.293414e-09	3.208248e+01	4.776629e+02
1.140000e-06	4.735734e-06	7.472394e-09	3.297487e+01	4.895448e+02
1.150000e-06	4.862178e-06	7.640471e-09	3.385529e+01	5.008814e+02
1.160000e-06	4.986986e-06	7.800438e-09	3.472433e+01	5.116784e+02
1.170000e-06	5.110139e-06	7.952810e-09	3.558184e+01	5.219413e+02
1.180000e-06	5.231444e-06	8.099615e-09	3.642649e+01	5.316793e+02
1.190000e-06	5.350840e-06	8.241073e-09	3.725784e+01	5.409073e+02
1.200000e-06	5.468253e-06	8.375989e-09	3.807538e+01	5.496465e+02
1.210000e-06	5.583545e-06	8.503414e-09	3.887816e+01	5.579241e+02
1.220000e-06	5.696652e-06	8.623519e-09	3.966572e+01	5.657714e+02
1.230000e-06	5.807558e-06	8.737335e-09	4.043796e+01	5.732216e+02
1.240000e-06	5.916419e-06	8.844481e-09	4.119596e+01	5.803075e+02
1.250000e-06	6.023220e-06	8.945786e-09	4.193961e+01	5.870592e+02
1.260000e-06	6.127788e-06	9.042598e-09	4.266772e+01	5.935023e+02
1.270000e-06	6.230118e-06	9.134367e-09	4.338024e+01	5.996578e+02
1.280000e-06	6.330155e-06	9.222709e-09	4.407680e+01	6.055417e+02
1.290000e-06	6.427835e-06	9.307110e-09	4.475694e+01	6.111658e+02
1.300000e-06	6.523063e-06	9.386862e-09	4.542001e+01	6.165395e+02
1.310000e-06	6.615917e-06	9.461930e-09	4.606655e+01	6.216709e+02
1.320000e-06	6.706462e-06	9.533566e-09	4.669702e+01	6.265683e+02
1.330000e-06	6.794591e-06	9.603125e-09	4.731066e+01	6.312413e+02
1.340000e-06	6.880340e-06	9.671103e-09	4.790773e+01	6.357010e+02
1.350000e-06	6.963734e-06	9.737307e-09	4.848840e+01	6.399600e+02
1.360000e-06	7.044580e-06	9.799702e-09	4.905133e+01	6.440314e+02
1.370000e-06	7.122836e-06	9.859115e-09	4.959622e+01	6.479276e+02
1.380000e-06	7.198519e-06	9.914360e-09	5.012320e+01	6.516589e+02
1.390000e-06	7.271481e-06	9.967309e-09	5.063124e+01	6.552324e+02
1.400000e-06	7.341785e-06	1.001861e-08	5.112077e+01	6.586511e+02
1.410000e-06	7.409539e-06	1.006666e-08	5.159254e+01	6.619134e+02
1.420000e-06	7.474658e-06	1.011265e-08	5.204596e+01	6.650138e+02
1.430000e-06	7.537120e-06	1.015502e-08	5.248088e+01	6.679437e+02
1.440000e-06	7.597064e-06	1.019503e-08	5.289827e+01	6.706933e+02
1.450000e-06	7.654400e-06	1.023185e-08	5.329750e+01	6.732530e+02
1.460000e-06	7.708949e-06	1.026495e-08	5.367732e+01	6.756154e+02
1.470000e-06	7.760555e-06	1.029731e-08	5.403665e+01	6.777769e+02
1.480000e-06	7.808975e-06	1.032821e-08	5.437381e+01	6.797388e+02
1.490000e-06	7.854379e-06	1.035481e-08	5.468995e+01	6.815076e+02
1.500000e-06	7.897025e-06	1.037716e-08	5.498689e+01	6.830946e+02
1.510000e-06	7.936840e-06	1.039761e-08	5.526413e+01	6.845149e+02
1.520000e-06	7.973873e-06	1.041759e-08	5.552199e+01	6.857859e+02
1.530000e-06	8.008156e-06	1.043621e-08	5.576070e+01	6.869252e+02
1.540000e-06	8.039557e-06	1.045153e-08	5.597935e+01	6.879490e+02
1.550000e-06	8.068139e-06	1.046365e-08	5.617836e+01	6.888703e+02
1.560000e-06	8.093850e-06	1.047560e-08	5.635739e+01	6.896980e+02
1.570000e-06	8.116551e-06	1.048851e-08	5.651546e+01	6.904360e+02
1.580000e-06	8.136444e-06	1.049990e-08	5.665397e+01	6.910838e+02
1.590000e-06	8.153420e-06	1.050768e-08	5.677217e+01	6.916373e+02
1.600000e-06	8.167295e-06	1.051206e-08	5.686878e+01	6.920897e+02
1.610000e-06	8.178049e-06	1.051569e-08	5.694366e+01	6.924333e+02
1.620000e-06	8.185642e-06	1.051846e-08	5.699653e+01	6.926612e+02
1.630000e-06	8.190299e-06	1.052102e-08	5.702896e+01	6.927684e+02
1.640000e-06	8.192100e-06	1.052301e-08	5.704150e+01	6.927530e+02
1.650000e-06	8.191001e-06	1.052208e-08	5.703385e+01	6.926164e+02
1.660000e-06	8.187225e-06	1.051657e-08	5.700755e+01	6.923633e+02
1.670000e-06	8.180768e-06	1.051167e-08	5.696259e+01	6.920013e+02
1.680000e-06	8.171440e-06	1.050574e-08	5.689764e+01	6.915397e+02
1.690000e-06	8.159313e-06	1.049718e-08	5.681321e+01	6.909882e+02
1.700000e-06	8.144387e-06	1.049004e-08	5.670928e+01	6.903566e+02
1.710000e-06	8.126855e-06	1.048606e-08	5.658720e+01	6.896527e+02
1.720000e-06	8.106969e-06	1.048065e-08	5.644874e+01	6.888827e+02
1.730000e-06	8.084424e-06	1.042860e-08	5.629175e+01	6.880501e+02
1.740000e-06	8.058525e-06	1.040012e-08	5.611142e+01	6.871563e+02
1.750000e-06	8.028875e-06	1.041224e-08	5.590497e+01	6.862006e+02
1.760000e-06	7.995841e-06	1.040179e-08	5.567495e+01	6.851812e+02
1.770000e-06	7.960288e-06	1.038834e-08	5.542739e+01	6.840951e+02
1.780000e-06	7.922449e-06	1.040834e-08	5.516392e+01	6.829389e+02
1.790000e-06	7.882335e-06	1.039154e-08	5.488461e+01	6.817092e+02
1.800000e-06	7.840210e-06	1.031382e-08	5.459129e+01	6.804024e+02
1.810000e-06	7.795510e-06	1.037249e-08	5.428005e+01	6.790146e+02
1.820000e-06	7.747978e-06	1.034378e-08	5.394908e+01	6.775412e+02
1.830000e-06	7.697653e-06	1.029526e-08	5.359867e+01	6.759766e+02
1.840000e-06	7.644182e-06	1.030712e-08	5.322636e+01	6.743139e+02
1.850000e-06	7.587829e-06	1.022152e-08	5.283397e+01	6.725449e+02
1.860000e-06	7.528759e-06	1.024050e-08	5.242267e+01	6.706601e+02
1.870000e-06	7.466847e-06	1.019117e-08	5.199157e+01	6.686497e+02
1.880000e-06	7.402105e-06	1.015800e-08	5.154077e+01	6.665038e+02
1.890000e-06	7.334505e-06	1.016262e-08	5.107008e+01	6.642138e+02
1.900000e-06	7.264047e-06	1.007573e-08	5.057948e+01	6.617735e+02
1.910000e-06	7.190757e-06	1.003768e-08	5.006916e+01	6.591794e+02
1.920000e-06	7.114742e-06	9.992712e-09	4.953987e+01	6.564317e+02
1.930000e-06	7.035929e-06	9.987890e-09	4.899109e+01	6.535343e+02
1.940000e-06	6.954409e-06	9.932590e-09	4.842347e+01	6.504940e+02
1.950000e-06	6.870454e-06	9.875093e-09	4.783890e+01	6.473202e+02
1.960000e-06	6.783891e-06	9.848800e-09	4.723616e+01	6.440229e+02
1.970000e-06	6.694723e-06	9.755364e-09	4.661528e+01	6.406116e+02
1.980000e-06	6.603193e-06	9.704659e-09	4.597796e+01	6.370936e+02
1.990000e-06	6.509336e-06	9.661030e-09	4.532443e+01	6.334726e+02
2.000000e-06	6.413150e-06	9.624296e-09	4.465469e+01	6.297484e+02
2.010000e-06	6.314712e-06	9.549353e-09	4.396927e+01	6.259158e+02
2.020000e-06	6.214023e-06	9.482023e-09	4.326817e+01	6.219658e+02
2.030000e-06	6.111040e-06	9.438530e-09	4.255110e+01	6.178861e+02
2.040000e-06	6.005870e-06	9.376704e-09	4.181881e+01	6.136627e+02
2.050000e-06	5.898650e-06	9.303383e-09	4.107223e+01	6.092817e+02
2.060000e-06	5.789467e-06	9.222418e-09	4.031200e+01	6.047310e+02
2.070000e-06	5.678228e-06	9.159841e-09	3.953744e+01	6.000015e+02
2.080000e-06	5.564881e-06	9.079118e-09	3.874820e+01	5.950878e+02
2.090000e-06	5.449401e-06	9.006443e-09	3.794412e+01	5.899889e+02
2.100000e-06	5.331777e-06	8.939399e-09	3.712510e+01	5.847068e+02
2.110000e-06	5.212146e-06	8.860669e-09	3.629211e+01	5.792461e+02
2.120000e-06	5.090659e-06	8.756788e-09	3.544620e+01	5.736117e+02
2.130000e-06	4.967356e-06	8.666262e-09	3.458765e+01	5.678072e+02
2.140000e-06	4.842245e-06	8.593950e-09	3.371649e+01	5.618332e+02
2.150000e-06	4.715300e-06	8.510239e-09	3.283258e+01	5.556858e+02
2.160000e-06	4.586594e-06	8.409272e-09	3.193640e+01	5.493563e+02
2.170000e-06	4.456288e-06	8.300584e-09	3.102909e+01	5.428311e+02
2.180000e-06	4.324395e-06	8.195432e-09	3.011071e+01	5.360930e+02
2.190000e-06	4.190888e-06	8.083931e-09	2.918111e+01	5.291225e+02
2.200000e-06	4.055794e-06	7.978534e-09	2.824045e+01	5.219004e+02
2.210000e-06	3.919235e-06	7.873690e-09	2.728959e+01	5.144095e+02
2.220000e-06	3.781121e-06	7.757870e-09	2.632790e+01	5.066368e+02
2.230000e-06	3.641487e-06	7.627380e-09	2.535564e+01	4.985746e+02
2.240000e-06	3.500429e-06	7.500925e-09	2.437345e+01	4.902208e+02
2.250000e-06	3.357963e-06	7.376844e-09	2.338146e+01	4.815781e+02
2.260000e-06	3.214234e-06	7.244371e-09	2.238068e+01	4.726529e+02
2.270000e-06	3.069331e-06	7.104382e-09	2.137172e+01	4.634522e+02
2.280000e-06	2.923274e-06	6.960412e-09	2.035472e+01	4.539814e+02
2.290000e-06	2.776138e-06	6.815075e-09	1.933022e+01	4.442412e+02
2.300000e-06	2.628142e-06	6.665028e-09	1.829972e+01	4.342255e+02
2.310000e-06	2.479266e-06	6.509832e-09	1.726310e+01	4.239203e+02
2.320000e-06	2.329416e-06	6.345266e-09	1.621970e+01	4.133032e+02
2.330000e-06	2.178768e-06	6.171265e-09	1.517073e+01	4.023449e+02
2.340000e-06	2.027447e-06	5.996400e-09	1.411709e+01	3.910116e+02
2.350000e-06	1.875489e-06	5.822709e-09	1.305901e+01	3.792679e+02
2.360000e-06	1.722928e-06	5.640555e-09	1.199673e+01	3.670808e+02
2.370000e-06	1.569850e-06	5.444953e-09	1.093085e+01	3.544229e+02
2.380000e-06	1.416262e-06	5.240435e-09	9.861417e+00	3.412747e+02
2.390000e-06	1.262135e-06	5.030286e-09	8.788235e+00	3.276265e+02
2.400000e-06	1.107510e-06	4.814808e-09	7.711581e+00	3.134771e+02
2.410000e-06	9.524790e-07	4.596252e-09	6.632101e+00	2.988322e+02
2.420000e-06	7.971443e-07	4.372478e-09	5.550507e+00	2.836998e+02
2.430000e-06	6.415410e-07	4.137802e-09	4.467043e+00	2.680859e+02
2.440000e-06	4.857413e-07	3.890277e-09	3.382211e+00	2.519880e+02
2.450000e-06	3.297900e-07	3.634814e-09	2.296324e+00	2.353906e+02
2.460000e-06	1.737123e-07	3.371754e-09	1.209557e+00	2.182608e+02
2.470000e-06	1.752606e-08	3.097231e-09	1.220338e-01	2.005467e+02
2.480000e-06	-1.387010e-07	2.811803e-09	-9.657734e-01	1.821782e+02
2.490000e-06	-2.949148e-07	2.516891e-09	-2.053488e+00	1.630706e+02
2.500000e-06	-4.510286e-07	2.210025e-09	-3.140507e+00	1.431319e+02
2.510000e-06	-6.069981e-07	1.891399e-09	-4.226521e+00	1.222716e+02
2.520000e-06	-7.627667e-07	1.561981e-09	-5.311136e+00	1.004121e+02
2.530000e-06	-9.183161e-07	1.218615e-09	-6.394225e+00	7.749992e+01
2.540000e-06	-1.073597e-06	8.582670e-10	-7.475445e+00	5.351664e+01
2.550000e-06	-1.228418e-06	4.814076e-10	-8.553463e+00	2.848785e+01
2.560000e-06	-1.382808e-06	8.748491e-11	-9.628476e+00	2.488779e+00
2.570000e-06	-1.536741e-06	-3.223044e-10	-1.070031e+01	-2.435383e+01
2.580000e-06	-1.690085e-06	-7.452722e-10	-1.176804e+01	-5.186436e+01
2.590000e-06	-1.842779e-06	-1.178785e-09	-1.283125e+01	-7.982520e+01
2.600000e-06	-1.994731e-06	-1.616855e-09	-1.388929e+01	-1.079875e+02
2.610000e-06	-2.145940e-06	-2.055138e-09	-1.494216e+01	-1.360851e+02
2.620000e-06	-2.296328e-06	-2.484544e-09	-1.598931e+01	-1.638494e+02
2.630000e-06	-2.445845e-06	-2.899283e-09	-1.703039e+01	-1.910253e+02
2.640000e-06	-2.594499e-06	-3.299803e-09	-1.806547e+01	-2.173855e+02
2.650000e-06	-2.742150e-06	-3.684973e-09	-1.909356e+01	-2.427418e+02
2.660000e-06	-2.888745e-06	-4.053342e-09	-2.011430e+01	-2.669540e+02
2.670000e-06	-3.034323e-06	-4.401637e-09	-2.112796e+01	-2.899331e+02
2.680000e-06	-3.178738e-06	-4.729907e-09	-2.213352e+01	-3.116414e+02
2.690000e-06	-3.321913e-06	-5.040107e-09	-2.313044e+01	-3.320881e+02
2.700000e-06	-3.463810e-06	-5.334187e-09	-2.411847e+01	-3.513213e+02
2.710000e-06	-3.604305e-06	-5.613169e-09	-2.509674e+01	-3.694180e+02
2.720000e-06	-3.743399e-06	-5.877396e-09	-2.606525e+01	-3.864735e+02
2.730000e-06	-3.881159e-06	-6.126706e-09	-2.702447e+01	-4.025896e+02
2.740000e-06	-4.017507e-06	-6.361542e-09	-2.797386e+01	-4.178657e+02
2.750000e-06	-4.152430e-06	-6.586654e-09	-2.891332e+01	-4.323905e+02
2.760000e-06	-4.285937e-06	-6.802163e-09	-2.984293e+01	-4.462371e+02
2.770000e-06	-4.417821e-06	-7.007229e-09	-3.076124e+01	-4.594613e+02
2.780000e-06	-4.548171e-06	-7.202746e-09	-3.166887e+01	-4.721012e+02
2.790000e-06	-4.677045e-06	-7.388415e-09	-3.256621e+01	-4.841802e+02
2.800000e-06	-4.804276e-06	-7.562953e-09	-3.345212e+01	-4.957111e+02
2.810000e-06	-4.929886e-06	-7.727262e-09	-3.432674e+01	-5.067006e+02
2.820000e-06	-5.053738e-06	-7.883386e-09	-3.518912e+01	-5.171537e+02
2.830000e-06	-5.175783e-06	-8.032692e-09	-3.603892e+01	-5.270782e+02
2.840000e-06	-5.295937e-06	-8.176447e-09	-3.687555e+01	-5.364865e+02
2.850000e-06	-5.414030e-06	-8.313246e-09	-3.769783e+01	-5.453978e+02
2.860000e-06	-5.529910e-06	-8.443571e-09	-3.850470e+01	-5.538372e+02
2.870000e-06	-5.643524e-06	-8.567245e-09	-3.929580e+01	-5.618347e+02
2.880000e-06	-5.754974e-06	-8.685285e-09	-4.007182e+01	-5.694233e+02
2.890000e-06	-5.864311e-06	-8.799706e-09	-4.083313e+01	-5.766360e+02
2.900000e-06	-5.971642e-06	-8.908930e-09	-4.158047e+01	-5.835042e+02
2.910000e-06	-6.076890e-06	-9.010949e-09	-4.231332e+01	-5.900552e+02
2.920000e-06	-6.179881e-06	-9.106474e-09	-4.303044e+01	-5.963117e+02
2.930000e-06	-6.280518e-06	-9.198412e-09	-4.373118e+01	-6.022913e+02
2.940000e-06	-6.378896e-06	-9.285713e-09	-4.441618e+01	-6.080074e+02
