# Temperatura_=_26.55
# Concentracion g/m^3_=_15000.0
# C_Vs_to_Am_M_A/Vsm_=_65563218390.804596
# pendiente_HvsI_1/m_=_3716.3
# ordenada_HvsI_A/m_=_1297.0
# frecuencia_Hz_=_302341.20638339425

Tiempo_(s)	Campo_(V.s)	Magnetizacion_(V.s)	Campo_(kA/m)	Magnetizacion_(A/m)
0.000000e+00	-8.177561e-06	-1.093913e-08	-5.690185e+01	-7.141008e+02
1.000000e-08	-8.172791e-06	-1.093610e-08	-5.686866e+01	-7.138042e+02
2.000000e-08	-8.165431e-06	-1.093023e-08	-5.681744e+01	-7.133844e+02
3.000000e-08	-8.155214e-06	-1.092469e-08	-5.674635e+01	-7.128473e+02
4.000000e-08	-8.142014e-06	-1.091453e-08	-5.665450e+01	-7.122013e+02
5.000000e-08	-8.125861e-06	-1.090161e-08	-5.654210e+01	-7.114564e+02
6.000000e-08	-8.107114e-06	-1.088514e-08	-5.641166e+01	-7.106236e+02
7.000000e-08	-8.086142e-06	-1.086102e-08	-5.626573e+01	-7.097144e+02
8.000000e-08	-8.062555e-06	-1.087788e-08	-5.610160e+01	-7.087398e+02
9.000000e-08	-8.035702e-06	-1.089364e-08	-5.591475e+01	-7.077095e+02
1.000000e-07	-8.005566e-06	-1.083882e-08	-5.570505e+01	-7.066316e+02
1.100000e-07	-7.972410e-06	-1.079464e-08	-5.547435e+01	-7.055118e+02
1.200000e-07	-7.936414e-06	-1.077869e-08	-5.522387e+01	-7.043530e+02
1.300000e-07	-7.897954e-06	-1.076604e-08	-5.495626e+01	-7.031552e+02
1.400000e-07	-7.857158e-06	-1.072111e-08	-5.467239e+01	-7.019150e+02
1.500000e-07	-7.813952e-06	-1.070247e-08	-5.437175e+01	-7.006257e+02
1.600000e-07	-7.768042e-06	-1.073278e-08	-5.405230e+01	-6.992775e+02
1.700000e-07	-7.719256e-06	-1.062296e-08	-5.371282e+01	-6.978576e+02
1.800000e-07	-7.667587e-06	-1.064576e-08	-5.335330e+01	-6.963506e+02
1.900000e-07	-7.612904e-06	-1.064998e-08	-5.297280e+01	-6.947396e+02
2.000000e-07	-7.555355e-06	-1.055318e-08	-5.257236e+01	-6.930071e+02
2.100000e-07	-7.495187e-06	-1.054863e-08	-5.215369e+01	-6.911357e+02
2.200000e-07	-7.432403e-06	-1.049786e-08	-5.171682e+01	-6.891098e+02
2.300000e-07	-7.366853e-06	-1.049984e-08	-5.126071e+01	-6.869166e+02
2.400000e-07	-7.298460e-06	-1.043723e-08	-5.078480e+01	-6.845471e+02
2.500000e-07	-7.227252e-06	-1.039380e-08	-5.028932e+01	-6.819970e+02
2.600000e-07	-7.153090e-06	-1.036193e-08	-4.977328e+01	-6.792667e+02
2.700000e-07	-7.076097e-06	-1.029686e-08	-4.923754e+01	-6.763616e+02
2.800000e-07	-6.996396e-06	-1.024962e-08	-4.868295e+01	-6.732911e+02
2.900000e-07	-6.914055e-06	-1.020324e-08	-4.811000e+01	-6.700674e+02
3.000000e-07	-6.829357e-06	-1.018506e-08	-4.752065e+01	-6.667043e+02
3.100000e-07	-6.742227e-06	-1.010851e-08	-4.691437e+01	-6.632152e+02
3.200000e-07	-6.652626e-06	-1.003800e-08	-4.629091e+01	-6.596117e+02
3.300000e-07	-6.560676e-06	-1.000584e-08	-4.565109e+01	-6.559016e+02
3.400000e-07	-6.466317e-06	-9.946865e-09	-4.499451e+01	-6.520884e+02
3.500000e-07	-6.369588e-06	-9.874581e-09	-4.432145e+01	-6.481704e+02
3.600000e-07	-6.270529e-06	-9.809446e-09	-4.363216e+01	-6.441409e+02
3.700000e-07	-6.169234e-06	-9.763859e-09	-4.292732e+01	-6.399888e+02
3.800000e-07	-6.065708e-06	-9.688568e-09	-4.220696e+01	-6.357002e+02
3.900000e-07	-5.959936e-06	-9.604368e-09	-4.147097e+01	-6.312597e+02
4.000000e-07	-5.852120e-06	-9.540750e-09	-4.072075e+01	-6.266523e+02
4.100000e-07	-5.742312e-06	-9.471443e-09	-3.995668e+01	-6.218650e+02
4.200000e-07	-5.630359e-06	-9.386535e-09	-3.917767e+01	-6.168881e+02
4.300000e-07	-5.516214e-06	-9.303002e-09	-3.838342e+01	-6.117156e+02
4.400000e-07	-5.399974e-06	-9.237549e-09	-3.757459e+01	-6.063459e+02
4.500000e-07	-5.281713e-06	-9.158604e-09	-3.675170e+01	-6.007803e+02
4.600000e-07	-5.161596e-06	-9.062654e-09	-3.591589e+01	-5.950226e+02
4.700000e-07	-5.039655e-06	-8.967256e-09	-3.506739e+01	-5.890769e+02
4.800000e-07	-4.915839e-06	-8.875791e-09	-3.420583e+01	-5.829465e+02
4.900000e-07	-4.790267e-06	-8.779441e-09	-3.333207e+01	-5.766315e+02
5.000000e-07	-4.663009e-06	-8.677210e-09	-3.244657e+01	-5.701287e+02
5.100000e-07	-4.534073e-06	-8.575809e-09	-3.154940e+01	-5.634300e+02
5.200000e-07	-4.403394e-06	-8.467425e-09	-3.064010e+01	-5.565233e+02
5.300000e-07	-4.271099e-06	-8.352681e-09	-2.971955e+01	-5.493932e+02
5.400000e-07	-4.137256e-06	-8.238070e-09	-2.878823e+01	-5.420222e+02
5.500000e-07	-4.001772e-06	-8.121960e-09	-2.784549e+01	-5.343929e+02
5.600000e-07	-3.864751e-06	-8.001882e-09	-2.689206e+01	-5.264897e+02
5.700000e-07	-3.726165e-06	-7.875539e-09	-2.592774e+01	-5.183002e+02
5.800000e-07	-3.585942e-06	-7.746799e-09	-2.495202e+01	-5.098166e+02
5.900000e-07	-3.444188e-06	-7.611474e-09	-2.396566e+01	-5.010360e+02
6.000000e-07	-3.301121e-06	-7.471537e-09	-2.297016e+01	-4.919596e+02
6.100000e-07	-3.156810e-06	-7.327147e-09	-2.196600e+01	-4.825915e+02
6.200000e-07	-3.011309e-06	-7.177134e-09	-2.095356e+01	-4.729367e+02
6.300000e-07	-2.864712e-06	-7.024098e-09	-1.993350e+01	-4.629987e+02
6.400000e-07	-2.717153e-06	-6.869879e-09	-1.890674e+01	-4.527774e+02
6.500000e-07	-2.568760e-06	-6.711264e-09	-1.787418e+01	-4.422667e+02
6.600000e-07	-2.419538e-06	-6.544770e-09	-1.683585e+01	-4.314539e+02
6.700000e-07	-2.269481e-06	-6.373591e-09	-1.579171e+01	-4.203193e+02
6.800000e-07	-2.118601e-06	-6.195553e-09	-1.474184e+01	-4.088371e+02
6.900000e-07	-1.966956e-06	-6.011605e-09	-1.368665e+01	-3.969772e+02
7.000000e-07	-1.814674e-06	-5.822483e-09	-1.262703e+01	-3.847082e+02
7.100000e-07	-1.661842e-06	-5.629009e-09	-1.156358e+01	-3.720004e+02
7.200000e-07	-1.508445e-06	-5.427639e-09	-1.049620e+01	-3.588285e+02
7.300000e-07	-1.354487e-06	-5.218948e-09	-9.424915e+00	-3.451738e+02
7.400000e-07	-1.199972e-06	-5.003551e-09	-8.349755e+00	-3.310260e+02
7.500000e-07	-1.044958e-06	-4.783685e-09	-7.271121e+00	-3.163822e+02
7.600000e-07	-8.895599e-07	-4.557104e-09	-6.189816e+00	-3.012460e+02
7.700000e-07	-7.338745e-07	-4.318872e-09	-5.106512e+00	-2.856237e+02
7.800000e-07	-5.779512e-07	-4.074708e-09	-4.021552e+00	-2.695205e+02
7.900000e-07	-4.218542e-07	-3.822981e-09	-2.935384e+00	-2.529356e+02
8.000000e-07	-2.656748e-07	-3.564134e-09	-1.848642e+00	-2.358582e+02
8.100000e-07	-1.093617e-07	-3.295158e-09	-7.609704e-01	-2.182634e+02
8.200000e-07	4.704279e-08	-3.015428e-09	3.273374e-01	-2.001104e+02
8.300000e-07	2.034052e-07	-2.724414e-09	1.415353e+00	-1.813431e+02
8.400000e-07	3.597132e-07	-2.421879e-09	2.502989e+00	-1.618925e+02
8.500000e-07	5.159161e-07	-2.111144e-09	3.589894e+00	-1.416822e+02
8.600000e-07	6.720018e-07	-1.791509e-09	4.675984e+00	-1.206357e+02
8.700000e-07	8.279693e-07	-1.460653e-09	5.761251e+00	-9.868589e+01
8.800000e-07	9.836732e-07	-1.112820e-09	6.844684e+00	-7.578415e+01
8.900000e-07	1.139040e-06	-7.517655e-10	7.925772e+00	-5.191032e+01
9.000000e-07	1.294028e-06	-3.749980e-10	9.004220e+00	-2.708058e+01
9.100000e-07	1.448478e-06	1.738262e-11	1.007893e+01	-1.353082e+00
9.200000e-07	1.602332e-06	4.197347e-10	1.114949e+01	2.516947e+01
9.300000e-07	1.755563e-06	8.310634e-10	1.221571e+01	5.234095e+01
9.400000e-07	1.908102e-06	1.250934e-09	1.327713e+01	7.997659e+01
9.500000e-07	2.059977e-06	1.677190e-09	1.433392e+01	1.078612e+02
9.600000e-07	2.211201e-06	2.103900e-09	1.538618e+01	1.357603e+02
9.700000e-07	2.361606e-06	2.526676e-09	1.643274e+01	1.634325e+02
9.800000e-07	2.511023e-06	2.942502e-09	1.747243e+01	1.906430e+02
9.900000e-07	2.659469e-06	3.349034e-09	1.850536e+01	2.171768e+02
1.000000e-06	2.806921e-06	3.739454e-09	1.953137e+01	2.428487e+02
1.010000e-06	2.953328e-06	4.110286e-09	2.055011e+01	2.675128e+02
1.020000e-06	3.098617e-06	4.463824e-09	2.156108e+01	2.910664e+02
1.030000e-06	3.242757e-06	4.799455e-09	2.256405e+01	3.134519e+02
1.040000e-06	3.385697e-06	5.118323e-09	2.355867e+01	3.346547e+02
1.050000e-06	3.527311e-06	5.421833e-09	2.454405e+01	3.546973e+02
1.060000e-06	3.667579e-06	5.712025e-09	2.552008e+01	3.736324e+02
1.070000e-06	3.806337e-06	5.985004e-09	2.648560e+01	3.915335e+02
1.080000e-06	3.943574e-06	6.243025e-09	2.744053e+01	4.084853e+02
1.090000e-06	4.079443e-06	6.490304e-09	2.838595e+01	4.245753e+02
1.100000e-06	4.213837e-06	6.723497e-09	2.932110e+01	4.398860e+02
1.110000e-06	4.346767e-06	6.944015e-09	3.024607e+01	4.544893e+02
1.120000e-06	4.478180e-06	7.155586e-09	3.116048e+01	4.684438e+02
1.130000e-06	4.607956e-06	7.359524e-09	3.206350e+01	4.817929e+02
1.140000e-06	4.736167e-06	7.551468e-09	3.295563e+01	4.945667e+02
1.150000e-06	4.862743e-06	7.731231e-09	3.383638e+01	5.067838e+02
1.160000e-06	4.987665e-06	7.902872e-09	3.470563e+01	5.184554e+02
1.170000e-06	5.110894e-06	8.068632e-09	3.556308e+01	5.295889e+02
1.180000e-06	5.232288e-06	8.228047e-09	3.640778e+01	5.401914e+02
1.190000e-06	5.351823e-06	8.382074e-09	3.723954e+01	5.502725e+02
1.200000e-06	5.469410e-06	8.530002e-09	3.805774e+01	5.598464e+02
1.210000e-06	5.584834e-06	8.669694e-09	3.886090e+01	5.689325e+02
1.220000e-06	5.698041e-06	8.801010e-09	3.964863e+01	5.775550e+02
1.230000e-06	5.809121e-06	8.926775e-09	4.042155e+01	5.857413e+02
1.240000e-06	5.918171e-06	9.046318e-09	4.118035e+01	5.935212e+02
1.250000e-06	6.025093e-06	9.158570e-09	4.192435e+01	6.009240e+02
1.260000e-06	6.129807e-06	9.266574e-09	4.265298e+01	6.079771e+02
1.270000e-06	6.232320e-06	9.368788e-09	4.336630e+01	6.147052e+02
1.280000e-06	6.332549e-06	9.464698e-09	4.406372e+01	6.211285e+02
1.290000e-06	6.430345e-06	9.556134e-09	4.474421e+01	6.272637e+02
1.300000e-06	6.525655e-06	9.644960e-09	4.540741e+01	6.331238e+02
1.310000e-06	6.618678e-06	9.728897e-09	4.605469e+01	6.387193e+02
1.320000e-06	6.709328e-06	9.806927e-09	4.668545e+01	6.440592e+02
1.330000e-06	6.797521e-06	9.882338e-09	4.729913e+01	6.491520e+02
1.340000e-06	6.883350e-06	9.955113e-09	4.789635e+01	6.540066e+02
1.350000e-06	6.966829e-06	1.002487e-08	4.847722e+01	6.586327e+02
1.360000e-06	7.047831e-06	1.009053e-08	4.904085e+01	6.630408e+02
1.370000e-06	7.126207e-06	1.015303e-08	4.958622e+01	6.672417e+02
1.380000e-06	7.201945e-06	1.021341e-08	5.011323e+01	6.712456e+02
1.390000e-06	7.274967e-06	1.027216e-08	5.062134e+01	6.750616e+02
1.400000e-06	7.345324e-06	1.032779e-08	5.111090e+01	6.786968e+02
1.410000e-06	7.413133e-06	1.037908e-08	5.158273e+01	6.821553e+02
1.420000e-06	7.478282e-06	1.042619e-08	5.203606e+01	6.854383e+02
1.430000e-06	7.540802e-06	1.046909e-08	5.247109e+01	6.885442e+02
1.440000e-06	7.600870e-06	1.051175e-08	5.288906e+01	6.914694e+02
1.450000e-06	7.658297e-06	1.055157e-08	5.328866e+01	6.942089e+02
1.460000e-06	7.712916e-06	1.058668e-08	5.366871e+01	6.967579e+02
1.470000e-06	7.764594e-06	1.062101e-08	5.402831e+01	6.991128e+02
1.480000e-06	7.813087e-06	1.065449e-08	5.436573e+01	7.012723e+02
1.490000e-06	7.858601e-06	1.068442e-08	5.468243e+01	7.032383e+02
1.500000e-06	7.901339e-06	1.070940e-08	5.497981e+01	7.050160e+02
1.510000e-06	7.941214e-06	1.073057e-08	5.525728e+01	7.066142e+02
1.520000e-06	7.978315e-06	1.075133e-08	5.551544e+01	7.080443e+02
1.530000e-06	8.012682e-06	1.077243e-08	5.575457e+01	7.093193e+02
1.540000e-06	8.044207e-06	1.079078e-08	5.597393e+01	7.104529e+02
1.550000e-06	8.072931e-06	1.080432e-08	5.617380e+01	7.114580e+02
1.560000e-06	8.098745e-06	1.081606e-08	5.635342e+01	7.123455e+02
1.570000e-06	8.121518e-06	1.082862e-08	5.651188e+01	7.131237e+02
1.580000e-06	8.141474e-06	1.083967e-08	5.665074e+01	7.137974e+02
1.590000e-06	8.158546e-06	1.084780e-08	5.676953e+01	7.143680e+02
1.600000e-06	8.172507e-06	1.085220e-08	5.686668e+01	7.148341e+02
1.610000e-06	8.183295e-06	1.085556e-08	5.694174e+01	7.151917e+02
1.620000e-06	8.190955e-06	1.085952e-08	5.699504e+01	7.154357e+02
1.630000e-06	8.195721e-06	1.086272e-08	5.702821e+01	7.155607e+02
1.640000e-06	8.197631e-06	1.086364e-08	5.704150e+01	7.155621e+02
1.650000e-06	8.196599e-06	1.086112e-08	5.703432e+01	7.154371e+02
1.660000e-06	8.192823e-06	1.085101e-08	5.700804e+01	7.151851e+02
1.670000e-06	8.186322e-06	1.084676e-08	5.696280e+01	7.148084e+02
1.680000e-06	8.177076e-06	1.084116e-08	5.689847e+01	7.143121e+02
1.690000e-06	8.165099e-06	1.083259e-08	5.681513e+01	7.137036e+02
1.700000e-06	8.150191e-06	1.082556e-08	5.671140e+01	7.129924e+02
1.710000e-06	8.132636e-06	1.082166e-08	5.658925e+01	7.121894e+02
1.720000e-06	8.112793e-06	1.082538e-08	5.645117e+01	7.113059e+02
1.730000e-06	8.090296e-06	1.076291e-08	5.629463e+01	7.103531e+02
1.740000e-06	8.064415e-06	1.072941e-08	5.611455e+01	7.093414e+02
1.750000e-06	8.034730e-06	1.075708e-08	5.590799e+01	7.082794e+02
1.760000e-06	8.001659e-06	1.074544e-08	5.567787e+01	7.071737e+02
1.770000e-06	7.966113e-06	1.071495e-08	5.543053e+01	7.060283e+02
1.780000e-06	7.928263e-06	1.072691e-08	5.516716e+01	7.048443e+02
1.790000e-06	7.888135e-06	1.072567e-08	5.488794e+01	7.036195e+02
1.800000e-06	7.845996e-06	1.059071e-08	5.459472e+01	7.023484e+02
1.810000e-06	7.801300e-06	1.067121e-08	5.428371e+01	7.010223e+02
1.820000e-06	7.753714e-06	1.065953e-08	5.395260e+01	6.996293e+02
1.830000e-06	7.703337e-06	1.059433e-08	5.360206e+01	6.981549e+02
1.840000e-06	7.649818e-06	1.067385e-08	5.322966e+01	6.965828e+02
1.850000e-06	7.593364e-06	1.057093e-08	5.283683e+01	6.948954e+02
1.860000e-06	7.534218e-06	1.060112e-08	5.242528e+01	6.930751e+02
1.870000e-06	7.472233e-06	1.052521e-08	5.199397e+01	6.911057e+02
1.880000e-06	7.407499e-06	1.047813e-08	5.154353e+01	6.889732e+02
1.890000e-06	7.339961e-06	1.050707e-08	5.107358e+01	6.866671e+02
1.900000e-06	7.269524e-06	1.039625e-08	5.058346e+01	6.841814e+02
1.910000e-06	7.196187e-06	1.040067e-08	5.007316e+01	6.815148e+02
1.920000e-06	7.120150e-06	1.034050e-08	4.954407e+01	6.786709e+02
1.930000e-06	7.041371e-06	1.032634e-08	4.899590e+01	6.756578e+02
1.940000e-06	6.959848e-06	1.025601e-08	4.842864e+01	6.724870e+02
1.950000e-06	6.875850e-06	1.018211e-08	4.784416e+01	6.691717e+02
1.960000e-06	6.789216e-06	1.018913e-08	4.724134e+01	6.657259e+02
1.970000e-06	6.700002e-06	1.008949e-08	4.662056e+01	6.621617e+02
1.980000e-06	6.608453e-06	1.005362e-08	4.598353e+01	6.584888e+02
1.990000e-06	6.514657e-06	9.992372e-09	4.533087e+01	6.547120e+02
2.000000e-06	6.418519e-06	9.957024e-09	4.466192e+01	6.508317e+02
2.010000e-06	6.320085e-06	9.868635e-09	4.397699e+01	6.468427e+02
2.020000e-06	6.219431e-06	9.794465e-09	4.327661e+01	6.427355e+02
2.030000e-06	6.116416e-06	9.756193e-09	4.255980e+01	6.384971e+02
2.040000e-06	6.011200e-06	9.682610e-09	4.182768e+01	6.341123e+02
2.050000e-06	5.903955e-06	9.617668e-09	4.108144e+01	6.295658e+02
2.060000e-06	5.794807e-06	9.531842e-09	4.032195e+01	6.248438e+02
2.070000e-06	5.683655e-06	9.473651e-09	3.954852e+01	6.199351e+02
2.080000e-06	5.570371e-06	9.379697e-09	3.876026e+01	6.148325e+02
2.090000e-06	5.454900e-06	9.301558e-09	3.795678e+01	6.095329e+02
2.100000e-06	5.337291e-06	9.225238e-09	3.713842e+01	6.040366e+02
2.110000e-06	5.217662e-06	9.150421e-09	3.630601e+01	5.983467e+02
2.120000e-06	5.096076e-06	9.054518e-09	3.545998e+01	5.924674e+02
2.130000e-06	4.972688e-06	8.962282e-09	3.460141e+01	5.864024e+02
2.140000e-06	4.847559e-06	8.876227e-09	3.373072e+01	5.801532e+02
2.150000e-06	4.720670e-06	8.776525e-09	3.284780e+01	5.737178e+02
2.160000e-06	4.591997e-06	8.676271e-09	3.195245e+01	5.670899e+02
2.170000e-06	4.461639e-06	8.567675e-09	3.104538e+01	5.602588e+02
2.180000e-06	4.329649e-06	8.464759e-09	3.012695e+01	5.532101e+02
2.190000e-06	4.196143e-06	8.349096e-09	2.919798e+01	5.459268e+02
2.200000e-06	4.061107e-06	8.236435e-09	2.825836e+01	5.383914e+02
2.210000e-06	3.924427e-06	8.116521e-09	2.730730e+01	5.305873e+02
2.220000e-06	3.786146e-06	7.996209e-09	2.634510e+01	5.225009e+02
2.230000e-06	3.646399e-06	7.867128e-09	2.537270e+01	5.141226e+02
2.240000e-06	3.505331e-06	7.738446e-09	2.439111e+01	5.054478e+02
2.250000e-06	3.362889e-06	7.606350e-09	2.339996e+01	4.964764e+02
2.260000e-06	3.219153e-06	7.470461e-09	2.239980e+01	4.872116e+02
2.270000e-06	3.074234e-06	7.327720e-09	2.139141e+01	4.776583e+02
2.280000e-06	2.928158e-06	7.173195e-09	2.037498e+01	4.678209e+02
2.290000e-06	2.780948e-06	7.017411e-09	1.935065e+01	4.577008e+02
2.300000e-06	2.632726e-06	6.862358e-09	1.831927e+01	4.472942e+02
2.310000e-06	2.483720e-06	6.705027e-09	1.728244e+01	4.365909e+02
2.320000e-06	2.333994e-06	6.537339e-09	1.624061e+01	4.255736e+02
2.330000e-06	2.183483e-06	6.363132e-09	1.519331e+01	4.142184e+02
2.340000e-06	2.032128e-06	6.182720e-09	1.414014e+01	4.024967e+02
2.350000e-06	1.880018e-06	5.996711e-09	1.308171e+01	3.903771e+02
2.360000e-06	1.727331e-06	5.804096e-09	1.201927e+01	3.778289e+02
2.370000e-06	1.574158e-06	5.604154e-09	1.095345e+01	3.648249e+02
2.380000e-06	1.420522e-06	5.397022e-09	9.884402e+00	3.513439e+02
2.390000e-06	1.266360e-06	5.183224e-09	8.811702e+00	3.373726e+02
2.400000e-06	1.111740e-06	4.962363e-09	7.735810e+00	3.229055e+02
2.410000e-06	9.566794e-07	4.736486e-09	6.656854e+00	3.079442e+02
2.420000e-06	8.012058e-07	4.505013e-09	5.575023e+00	2.924944e+02
2.430000e-06	6.454365e-07	4.263842e-09	4.491134e+00	2.765623e+02
2.440000e-06	4.894261e-07	4.013950e-09	3.405569e+00	2.601497e+02
2.450000e-06	3.332591e-07	3.757153e-09	2.318914e+00	2.432500e+02
2.460000e-06	1.769574e-07	3.491452e-09	1.231321e+00	2.258435e+02
2.470000e-06	2.053275e-08	3.213354e-09	1.428728e-01	2.078952e+02
2.480000e-06	-1.359340e-07	2.924281e-09	-9.458683e-01	1.893543e+02
2.490000e-06	-2.923296e-07	2.627516e-09	-2.034114e+00	1.701559e+02
2.500000e-06	-4.486229e-07	2.320480e-09	-3.121648e+00	1.502255e+02
2.510000e-06	-6.048039e-07	2.003612e-09	-4.208401e+00	1.294858e+02
2.520000e-06	-7.607954e-07	1.677507e-09	-5.293835e+00	1.078650e+02
2.530000e-06	-9.165622e-07	1.338713e-09	-6.377706e+00	8.530691e+01
2.540000e-06	-1.072000e-06	9.838767e-10	-7.459287e+00	6.178011e+01
2.550000e-06	-1.226924e-06	6.132558e-10	-8.537292e+00	3.728703e+01
2.560000e-06	-1.381371e-06	2.269686e-10	-9.611983e+00	1.187037e+01
2.570000e-06	-1.535278e-06	-1.747057e-10	-1.068291e+01	-1.438314e+01
2.580000e-06	-1.688602e-06	-5.877259e-10	-1.174978e+01	-4.134253e+01
2.590000e-06	-1.841396e-06	-1.009884e-09	-1.281297e+01	-6.883606e+01
2.600000e-06	-1.993485e-06	-1.437688e-09	-1.387125e+01	-9.665828e+01
2.610000e-06	-2.144742e-06	-1.869659e-09	-1.492374e+01	-1.245802e+02
2.620000e-06	-2.295171e-06	-2.299521e-09	-1.597047e+01	-1.523612e+02
2.630000e-06	-2.444763e-06	-2.719996e-09	-1.701137e+01	-1.797630e+02
2.640000e-06	-2.593531e-06	-3.130290e-09	-1.804654e+01	-2.065618e+02
2.650000e-06	-2.741371e-06	-3.528440e-09	-1.907526e+01	-2.325608e+02
2.660000e-06	-2.888137e-06	-3.911213e-09	-2.009650e+01	-2.575992e+02
2.670000e-06	-3.033824e-06	-4.276505e-09	-2.111023e+01	-2.815587e+02
2.680000e-06	-3.178340e-06	-4.623724e-09	-2.211581e+01	-3.043655e+02
2.690000e-06	-3.321558e-06	-4.950981e-09	-2.311237e+01	-3.259902e+02
2.700000e-06	-3.463447e-06	-5.260561e-09	-2.409967e+01	-3.464428e+02
2.710000e-06	-3.604065e-06	-5.554241e-09	-2.507813e+01	-3.657663e+02
2.720000e-06	-3.743373e-06	-5.835504e-09	-2.604748e+01	-3.840276e+02
2.730000e-06	-3.881306e-06	-6.103114e-09	-2.700725e+01	-4.013087e+02
2.740000e-06	-4.017806e-06	-6.355440e-09	-2.795706e+01	-4.176970e+02
2.750000e-06	-4.152750e-06	-6.596993e-09	-2.889604e+01	-4.332774e+02
2.760000e-06	-4.286217e-06	-6.827738e-09	-2.982475e+01	-4.481262e+02
2.770000e-06	-4.418296e-06	-7.048060e-09	-3.074379e+01	-4.623070e+02
2.780000e-06	-4.548848e-06	-7.259353e-09	-3.165221e+01	-4.758685e+02
2.790000e-06	-4.677855e-06	-7.461710e-09	-3.254987e+01	-4.888454e+02
2.800000e-06	-4.805214e-06	-7.653109e-09	-3.343608e+01	-5.012601e+02
2.810000e-06	-4.930865e-06	-7.832169e-09	-3.431039e+01	-5.131259e+02
2.820000e-06	-5.054816e-06	-8.001972e-09	-3.517288e+01	-5.244512e+02
2.830000e-06	-5.176927e-06	-8.164344e-09	-3.602257e+01	-5.352427e+02
2.840000e-06	-5.297133e-06	-8.320751e-09	-3.685899e+01	-5.455089e+02
2.850000e-06	-5.415295e-06	-8.470077e-09	-3.768120e+01	-5.552624e+02
2.860000e-06	-5.531293e-06	-8.610882e-09	-3.848834e+01	-5.645205e+02
2.870000e-06	-5.645039e-06	-8.745242e-09	-3.927982e+01	-5.733058e+02
2.880000e-06	-5.756550e-06	-8.873216e-09	-4.005575e+01	-5.816449e+02
2.890000e-06	-5.865935e-06	-8.997534e-09	-4.081688e+01	-5.895669e+02
2.900000e-06	-5.973308e-06	-9.117167e-09	-4.156401e+01	-5.971013e+02
2.910000e-06	-6.078619e-06	-9.228945e-09	-4.229680e+01	-6.042767e+02
2.920000e-06	-6.181635e-06	-9.333224e-09	-4.301361e+01	-6.111186e+02
2.930000e-06	-6.282321e-06	-9.433287e-09	-4.371421e+01	-6.176490e+02
2.940000e-06	-6.380810e-06	-9.528847e-09	-4.439953e+01	-6.238858e+02
