# Temperatura_=_69.92
# Concentracion g/m^3_=_15000.0
# C_Vs_to_Am_M_A/Vsm_=_65563218390.804596
# pendiente_HvsI_1/m_=_3716.3
# ordenada_HvsI_A/m_=_1297.0
# frecuencia_Hz_=_302340.0716673925

Tiempo_(s)	Campo_(V.s)	Magnetizacion_(V.s)	Campo_(kA/m)	Magnetizacion_(A/m)
0.000000e+00	-8.138487e-06	-1.232482e-08	-5.692111e+01	-8.060400e+02
1.000000e-08	-8.136192e-06	-1.232628e-08	-5.690507e+01	-8.056902e+02
2.000000e-08	-8.131193e-06	-1.232023e-08	-5.687010e+01	-8.051937e+02
3.000000e-08	-8.123573e-06	-1.230953e-08	-5.681680e+01	-8.045636e+02
4.000000e-08	-8.113067e-06	-1.229765e-08	-5.674333e+01	-8.038139e+02
5.000000e-08	-8.099570e-06	-1.228361e-08	-5.664893e+01	-8.029582e+02
6.000000e-08	-8.083178e-06	-1.226663e-08	-5.653428e+01	-8.020079e+02
7.000000e-08	-8.064265e-06	-1.224493e-08	-5.640200e+01	-8.009716e+02
8.000000e-08	-8.043058e-06	-1.222112e-08	-5.625368e+01	-7.998544e+02
9.000000e-08	-8.019072e-06	-1.224692e-08	-5.608592e+01	-7.986579e+02
1.000000e-07	-7.991909e-06	-1.224342e-08	-5.589594e+01	-7.973810e+02
1.100000e-07	-7.961603e-06	-1.218958e-08	-5.568398e+01	-7.960208e+02
1.200000e-07	-7.928328e-06	-1.215329e-08	-5.545125e+01	-7.945731e+02
1.300000e-07	-7.892225e-06	-1.212643e-08	-5.519875e+01	-7.930335e+02
1.400000e-07	-7.853623e-06	-1.208832e-08	-5.492876e+01	-7.913976e+02
1.500000e-07	-7.812737e-06	-1.202217e-08	-5.464280e+01	-7.896611e+02
1.600000e-07	-7.769443e-06	-1.203019e-08	-5.434000e+01	-7.878197e+02
1.700000e-07	-7.723453e-06	-1.200670e-08	-5.401834e+01	-7.858683e+02
1.800000e-07	-7.674593e-06	-1.191428e-08	-5.367661e+01	-7.838001e+02
1.900000e-07	-7.622851e-06	-1.194212e-08	-5.331473e+01	-7.816065e+02
2.000000e-07	-7.568176e-06	-1.190206e-08	-5.293232e+01	-7.792765e+02
2.100000e-07	-7.510609e-06	-1.183397e-08	-5.252969e+01	-7.767967e+02
2.200000e-07	-7.450346e-06	-1.181832e-08	-5.210821e+01	-7.741526e+02
2.300000e-07	-7.387539e-06	-1.176598e-08	-5.166894e+01	-7.713291e+02
2.400000e-07	-7.322029e-06	-1.172455e-08	-5.121075e+01	-7.683124e+02
2.500000e-07	-7.253680e-06	-1.164612e-08	-5.073271e+01	-7.650915e+02
2.600000e-07	-7.182534e-06	-1.161005e-08	-5.023512e+01	-7.616599e+02
2.700000e-07	-7.108543e-06	-1.154910e-08	-4.971762e+01	-7.580164e+02
2.800000e-07	-7.031693e-06	-1.147711e-08	-4.918012e+01	-7.541658e+02
2.900000e-07	-6.952039e-06	-1.141441e-08	-4.862302e+01	-7.501181e+02
3.000000e-07	-6.869815e-06	-1.135985e-08	-4.804794e+01	-7.458881e+02
3.100000e-07	-6.785198e-06	-1.131719e-08	-4.745613e+01	-7.414926e+02
3.200000e-07	-6.698178e-06	-1.122657e-08	-4.684750e+01	-7.369488e+02
3.300000e-07	-6.608754e-06	-1.116006e-08	-4.622206e+01	-7.322716e+02
3.400000e-07	-6.516973e-06	-1.109416e-08	-4.558014e+01	-7.274714e+02
3.500000e-07	-6.422827e-06	-1.101573e-08	-4.492168e+01	-7.225524e+02
3.600000e-07	-6.326301e-06	-1.092804e-08	-4.424657e+01	-7.175119e+02
3.700000e-07	-6.227420e-06	-1.085130e-08	-4.355499e+01	-7.123405e+02
3.800000e-07	-6.126278e-06	-1.077947e-08	-4.284759e+01	-7.070232e+02
3.900000e-07	-6.022933e-06	-1.068376e-08	-4.212479e+01	-7.015414e+02
4.000000e-07	-5.917449e-06	-1.059168e-08	-4.138703e+01	-6.958757e+02
4.100000e-07	-5.809976e-06	-1.050425e-08	-4.063536e+01	-6.900078e+02
4.200000e-07	-5.700498e-06	-1.041680e-08	-3.986966e+01	-6.839239e+02
4.300000e-07	-5.588883e-06	-1.031160e-08	-3.908902e+01	-6.776152e+02
4.400000e-07	-5.475092e-06	-1.020928e-08	-3.829316e+01	-6.710798e+02
4.500000e-07	-5.359209e-06	-1.011104e-08	-3.748266e+01	-6.643215e+02
4.600000e-07	-5.241317e-06	-1.001131e-08	-3.665812e+01	-6.573486e+02
4.700000e-07	-5.121565e-06	-9.901704e-09	-3.582057e+01	-6.501719e+02
4.800000e-07	-5.000019e-06	-9.790712e-09	-3.497046e+01	-6.428017e+02
4.900000e-07	-4.876626e-06	-9.680016e-09	-3.410744e+01	-6.352455e+02
5.000000e-07	-4.751453e-06	-9.558115e-09	-3.323198e+01	-6.275052e+02
5.100000e-07	-4.624602e-06	-9.430637e-09	-3.234477e+01	-6.195760e+02
5.200000e-07	-4.496068e-06	-9.302415e-09	-3.144579e+01	-6.114458e+02
5.300000e-07	-4.365781e-06	-9.175568e-09	-3.053456e+01	-6.030962e+02
5.400000e-07	-4.233857e-06	-9.037834e-09	-2.961187e+01	-5.945044e+02
5.500000e-07	-4.100492e-06	-8.897774e-09	-2.867911e+01	-5.856460e+02
5.600000e-07	-3.965632e-06	-8.758471e-09	-2.773590e+01	-5.764976e+02
5.700000e-07	-3.829142e-06	-8.617753e-09	-2.678127e+01	-5.670406e+02
5.800000e-07	-3.691079e-06	-8.466914e-09	-2.581565e+01	-5.572624e+02
5.900000e-07	-3.551539e-06	-8.312882e-09	-2.483970e+01	-5.471583e+02
6.000000e-07	-3.410495e-06	-8.157638e-09	-2.385322e+01	-5.367313e+02
6.100000e-07	-3.268063e-06	-7.993929e-09	-2.285705e+01	-5.259901e+02
6.200000e-07	-3.124409e-06	-7.823681e-09	-2.185232e+01	-5.149468e+02
6.300000e-07	-2.979630e-06	-7.648635e-09	-2.083973e+01	-5.036136e+02
6.400000e-07	-2.833744e-06	-7.471014e-09	-1.981939e+01	-4.919987e+02
6.500000e-07	-2.686747e-06	-7.286346e-09	-1.879128e+01	-4.801033e+02
6.600000e-07	-2.538881e-06	-7.098902e-09	-1.775710e+01	-4.679193e+02
6.700000e-07	-2.390236e-06	-6.908049e-09	-1.671747e+01	-4.554283e+02
6.800000e-07	-2.240777e-06	-6.711519e-09	-1.567214e+01	-4.426024e+02
6.900000e-07	-2.090543e-06	-6.507512e-09	-1.462139e+01	-4.294064e+02
7.000000e-07	-1.939615e-06	-6.298248e-09	-1.356580e+01	-4.158016e+02
7.100000e-07	-1.788098e-06	-6.084852e-09	-1.250608e+01	-4.017496e+02
7.200000e-07	-1.636010e-06	-5.863903e-09	-1.144236e+01	-3.872169e+02
7.300000e-07	-1.483346e-06	-5.636403e-09	-1.037462e+01	-3.721780e+02
7.400000e-07	-1.330106e-06	-5.399858e-09	-9.302849e+00	-3.566176e+02
7.500000e-07	-1.176384e-06	-5.155448e-09	-8.227710e+00	-3.405298e+02
7.600000e-07	-1.022250e-06	-4.904209e-09	-7.149684e+00	-3.239167e+02
7.700000e-07	-8.677277e-07	-4.645858e-09	-6.068945e+00	-3.067831e+02
7.800000e-07	-7.129181e-07	-4.378389e-09	-4.986196e+00	-2.891310e+02
7.900000e-07	-5.579269e-07	-4.102640e-09	-3.902177e+00	-2.709532e+02
8.000000e-07	-4.027592e-07	-3.818630e-09	-2.816925e+00	-2.522263e+02
8.100000e-07	-2.474603e-07	-3.522867e-09	-1.730754e+00	-2.329065e+02
8.200000e-07	-9.208375e-08	-3.213213e-09	-6.440398e-01	-2.129272e+02
8.300000e-07	6.337214e-08	-2.890934e-09	4.432289e-01	-1.921999e+02
8.400000e-07	2.188316e-07	-2.557246e-09	1.530523e+00	-1.706191e+02
8.500000e-07	3.742407e-07	-2.209272e-09	2.617464e+00	-1.480708e+02
8.600000e-07	5.296080e-07	-1.848278e-09	3.704113e+00	-1.244438e+02
8.700000e-07	6.848676e-07	-1.474227e-09	4.790009e+00	-9.964361e+01
8.800000e-07	8.399030e-07	-1.084016e-09	5.874337e+00	-7.360666e+01
8.900000e-07	9.946929e-07	-6.742535e-10	6.956947e+00	-4.631340e+01
9.000000e-07	1.149199e-06	-2.476551e-10	8.037574e+00	-1.779917e+01
9.100000e-07	1.303319e-06	1.967885e-10	9.115499e+00	1.183921e+01
9.200000e-07	1.456933e-06	6.616264e-10	1.018989e+01	4.244178e+01
9.300000e-07	1.609970e-06	1.141204e-09	1.126024e+01	7.378939e+01
9.400000e-07	1.762423e-06	1.629631e-09	1.232651e+01	1.056132e+02
9.500000e-07	1.914238e-06	2.122087e-09	1.338831e+01	1.376088e+02
9.600000e-07	2.065305e-06	2.614047e-09	1.444488e+01	1.694540e+02
9.700000e-07	2.215597e-06	3.096302e-09	1.549603e+01	2.008284e+02
9.800000e-07	2.365077e-06	3.561634e-09	1.654150e+01	2.314326e+02
9.900000e-07	2.513640e-06	4.007649e-09	1.758056e+01	2.610060e+02
1.000000e-06	2.661233e-06	4.432144e-09	1.861284e+01	2.893406e+02
1.010000e-06	2.807842e-06	4.833563e-09	1.963823e+01	3.162897e+02
1.020000e-06	2.953417e-06	5.215942e-09	2.065639e+01	3.417721e+02
1.030000e-06	3.097898e-06	5.579493e-09	2.166691e+01	3.657692e+02
1.040000e-06	3.241200e-06	5.920164e-09	2.266917e+01	3.883182e+02
1.050000e-06	3.383277e-06	6.238971e-09	2.366287e+01	4.095010e+02
1.060000e-06	3.524056e-06	6.542814e-09	2.464748e+01	4.294300e+02
1.070000e-06	3.663402e-06	6.833666e-09	2.562208e+01	4.482343e+02
1.080000e-06	3.801334e-06	7.108138e-09	2.658678e+01	4.660446e+02
1.090000e-06	3.937890e-06	7.367818e-09	2.754186e+01	4.829827e+02
1.100000e-06	4.072987e-06	7.615118e-09	2.848674e+01	4.991518e+02
1.110000e-06	4.206597e-06	7.850106e-09	2.942121e+01	5.146323e+02
1.120000e-06	4.338744e-06	8.074526e-09	3.034546e+01	5.294803e+02
1.130000e-06	4.469361e-06	8.288835e-09	3.125901e+01	5.437299e+02
1.140000e-06	4.598405e-06	8.494041e-09	3.216155e+01	5.573982e+02
1.150000e-06	4.725837e-06	8.688205e-09	3.305282e+01	5.704914e+02
1.160000e-06	4.851612e-06	8.871438e-09	3.393249e+01	5.830112e+02
1.170000e-06	4.975720e-06	9.048140e-09	3.480051e+01	5.949613e+02
1.180000e-06	5.098095e-06	9.219735e-09	3.565641e+01	6.063515e+02
1.190000e-06	5.218658e-06	9.387136e-09	3.649964e+01	6.172002e+02
1.200000e-06	5.337379e-06	9.547305e-09	3.732998e+01	6.275348e+02
1.210000e-06	5.454147e-06	9.699476e-09	3.814667e+01	6.373899e+02
1.220000e-06	5.568716e-06	9.844844e-09	3.894797e+01	6.468042e+02
1.230000e-06	5.681049e-06	9.984015e-09	3.973363e+01	6.558167e+02
1.240000e-06	5.791306e-06	1.011750e-08	4.050477e+01	6.644627e+02
1.250000e-06	5.899557e-06	1.024404e-08	4.126189e+01	6.727705e+02
1.260000e-06	6.005695e-06	1.036510e-08	4.200423e+01	6.807598e+02
1.270000e-06	6.109575e-06	1.048405e-08	4.273077e+01	6.884409e+02
1.280000e-06	6.211253e-06	1.059829e-08	4.344191e+01	6.958157e+02
1.290000e-06	6.310672e-06	1.070506e-08	4.413726e+01	7.028808e+02
1.300000e-06	6.407656e-06	1.080611e-08	4.481557e+01	7.096300e+02
1.310000e-06	6.502288e-06	1.090249e-08	4.547743e+01	7.160583e+02
1.320000e-06	6.594656e-06	1.099218e-08	4.612346e+01	7.221648e+02
1.330000e-06	6.684624e-06	1.107698e-08	4.675270e+01	7.279553e+02
1.340000e-06	6.772148e-06	1.116025e-08	4.736485e+01	7.334432e+02
1.350000e-06	6.857320e-06	1.124116e-08	4.796055e+01	7.386491e+02
1.360000e-06	6.940121e-06	1.131841e-08	4.853967e+01	7.435993e+02
1.370000e-06	7.020429e-06	1.139243e-08	4.910135e+01	7.483227e+02
1.380000e-06	7.098184e-06	1.146339e-08	4.964517e+01	7.528479e+02
1.390000e-06	7.173262e-06	1.153044e-08	5.017027e+01	7.571996e+02
1.400000e-06	7.245580e-06	1.159345e-08	5.067606e+01	7.613958e+02
1.410000e-06	7.315354e-06	1.165315e-08	5.116407e+01	7.654456e+02
1.420000e-06	7.382576e-06	1.171018e-08	5.163423e+01	7.693492e+02
1.430000e-06	7.447065e-06	1.176534e-08	5.208526e+01	7.730979e+02
1.440000e-06	7.509015e-06	1.181769e-08	5.251855e+01	7.766762e+02
1.450000e-06	7.568504e-06	1.186796e-08	5.293462e+01	7.800648e+02
1.460000e-06	7.625292e-06	1.191454e-08	5.333180e+01	7.832437e+02
1.470000e-06	7.679334e-06	1.195782e-08	5.370977e+01	7.861959e+02
1.480000e-06	7.730337e-06	1.200033e-08	5.406649e+01	7.889093e+02
1.490000e-06	7.778154e-06	1.203882e-08	5.440092e+01	7.913797e+02
1.500000e-06	7.823198e-06	1.207206e-08	5.471596e+01	7.936105e+02
1.510000e-06	7.865525e-06	1.210073e-08	5.501200e+01	7.956131e+02
1.520000e-06	7.904955e-06	1.212583e-08	5.528778e+01	7.974045e+02
1.530000e-06	7.941620e-06	1.214969e-08	5.554421e+01	7.990055e+02
1.540000e-06	7.975518e-06	1.217186e-08	5.578130e+01	8.004377e+02
1.550000e-06	8.006550e-06	1.219211e-08	5.599834e+01	8.017208e+02
1.560000e-06	8.034815e-06	1.221048e-08	5.619603e+01	8.028700e+02
1.570000e-06	8.060181e-06	1.222652e-08	5.637344e+01	8.038951e+02
1.580000e-06	8.082538e-06	1.224055e-08	5.652980e+01	8.047992e+02
1.590000e-06	8.102059e-06	1.225118e-08	5.666633e+01	8.055797e+02
1.600000e-06	8.118671e-06	1.225803e-08	5.678252e+01	8.062295e+02
1.610000e-06	8.132212e-06	1.226300e-08	5.687723e+01	8.067387e+02
1.620000e-06	8.142596e-06	1.226809e-08	5.694985e+01	8.070972e+02
1.630000e-06	8.149846e-06	1.227266e-08	5.700056e+01	8.072964e+02
1.640000e-06	8.154212e-06	1.227496e-08	5.703109e+01	8.073315e+02
1.650000e-06	8.155699e-06	1.227610e-08	5.704150e+01	8.072021e+02
1.660000e-06	8.154329e-06	1.227025e-08	5.703191e+01	8.069126e+02
1.670000e-06	8.150302e-06	1.226211e-08	5.700375e+01	8.064720e+02
1.680000e-06	8.143583e-06	1.225750e-08	5.695675e+01	8.058924e+02
1.690000e-06	8.134126e-06	1.224883e-08	5.689061e+01	8.051878e+02
1.700000e-06	8.121876e-06	1.223692e-08	5.680493e+01	8.043719e+02
1.710000e-06	8.106759e-06	1.222576e-08	5.669920e+01	8.034573e+02
1.720000e-06	8.089096e-06	1.221850e-08	5.657567e+01	8.024538e+02
1.730000e-06	8.069111e-06	1.220330e-08	5.643589e+01	8.013677e+02
1.740000e-06	8.046411e-06	1.212829e-08	5.627713e+01	8.002020e+02
1.750000e-06	8.020348e-06	1.211740e-08	5.609484e+01	7.989568e+02
1.760000e-06	7.990502e-06	1.212649e-08	5.588610e+01	7.976295e+02
1.770000e-06	7.957301e-06	1.209377e-08	5.565389e+01	7.962164e+02
1.780000e-06	7.921661e-06	1.207365e-08	5.540462e+01	7.947132e+02
1.790000e-06	7.883756e-06	1.210918e-08	5.513951e+01	7.931153e+02
1.800000e-06	7.843656e-06	1.205248e-08	5.485904e+01	7.914186e+02
1.810000e-06	7.801516e-06	1.197326e-08	5.456432e+01	7.896187e+02
1.820000e-06	7.756713e-06	1.206008e-08	5.425097e+01	7.877109e+02
1.830000e-06	7.709102e-06	1.196141e-08	5.391797e+01	7.856892e+02
1.840000e-06	7.658692e-06	1.195928e-08	5.356540e+01	7.835458e+02
1.850000e-06	7.605145e-06	1.195786e-08	5.319089e+01	7.812706e+02
1.860000e-06	7.548752e-06	1.186000e-08	5.279647e+01	7.788510e+02
1.870000e-06	7.489676e-06	1.186696e-08	5.238329e+01	7.762730e+02
1.880000e-06	7.427852e-06	1.176016e-08	5.195089e+01	7.735215e+02
1.890000e-06	7.363235e-06	1.177292e-08	5.149895e+01	7.705819e+02
1.900000e-06	7.295713e-06	1.172880e-08	5.102670e+01	7.674420e+02
1.910000e-06	7.225297e-06	1.164308e-08	5.053421e+01	7.640934e+02
1.920000e-06	7.152032e-06	1.161760e-08	5.002179e+01	7.605326e+02
1.930000e-06	7.076077e-06	1.153360e-08	4.949055e+01	7.567621e+02
1.940000e-06	6.997371e-06	1.150811e-08	4.894008e+01	7.527901e+02
1.950000e-06	6.915965e-06	1.141130e-08	4.837072e+01	7.486295e+02
1.960000e-06	6.832109e-06	1.136746e-08	4.778422e+01	7.442966e+02
1.970000e-06	6.745680e-06	1.130728e-08	4.717973e+01	7.398088e+02
1.980000e-06	6.656691e-06	1.120830e-08	4.655734e+01	7.351823e+02
1.990000e-06	6.565298e-06	1.115600e-08	4.591812e+01	7.304292e+02
2.000000e-06	6.471628e-06	1.108568e-08	4.526300e+01	7.255566e+02
2.010000e-06	6.375690e-06	1.102652e-08	4.459199e+01	7.205643e+02
2.020000e-06	6.277524e-06	1.091458e-08	4.390542e+01	7.154455e+02
2.030000e-06	6.177097e-06	1.083968e-08	4.320303e+01	7.101873e+02
2.040000e-06	6.074381e-06	1.076054e-08	4.248462e+01	7.047723e+02
2.050000e-06	5.969526e-06	1.068002e-08	4.175126e+01	6.991808e+02
2.060000e-06	5.862644e-06	1.058975e-08	4.100372e+01	6.933941e+02
2.070000e-06	5.753778e-06	1.049476e-08	4.024230e+01	6.873961e+02
2.080000e-06	5.642841e-06	1.040506e-08	3.946640e+01	6.811760e+02
2.090000e-06	5.529802e-06	1.029589e-08	3.867580e+01	6.747293e+02
2.100000e-06	5.414628e-06	1.020146e-08	3.787026e+01	6.680575e+02
2.110000e-06	5.297379e-06	1.010621e-08	3.705022e+01	6.611674e+02
2.120000e-06	5.178132e-06	1.000646e-08	3.621620e+01	6.540691e+02
2.130000e-06	5.056967e-06	9.879620e-09	3.536876e+01	6.467736e+02
2.140000e-06	4.934021e-06	9.765502e-09	3.450887e+01	6.392897e+02
2.150000e-06	4.809289e-06	9.657500e-09	3.363649e+01	6.316216e+02
2.160000e-06	4.682736e-06	9.547181e-09	3.275136e+01	6.237674e+02
2.170000e-06	4.554471e-06	9.420706e-09	3.185427e+01	6.157177e+02
2.180000e-06	4.424603e-06	9.289203e-09	3.094596e+01	6.074565e+02
2.190000e-06	4.293144e-06	9.156405e-09	3.002653e+01	5.989625e+02
2.200000e-06	4.160118e-06	9.018000e-09	2.909614e+01	5.902115e+02
2.210000e-06	4.025510e-06	8.882084e-09	2.815469e+01	5.811793e+02
2.220000e-06	3.889377e-06	8.747047e-09	2.720256e+01	5.718451e+02
2.230000e-06	3.751708e-06	8.605300e-09	2.623969e+01	5.621938e+02
2.240000e-06	3.612560e-06	8.447661e-09	2.526649e+01	5.522176e+02
2.250000e-06	3.472071e-06	8.291389e-09	2.428389e+01	5.419164e+02
2.260000e-06	3.330267e-06	8.138153e-09	2.329211e+01	5.312970e+02
2.270000e-06	3.187222e-06	7.978839e-09	2.229164e+01	5.203706e+02
2.280000e-06	3.042991e-06	7.805941e-09	2.128288e+01	5.091497e+02
2.290000e-06	2.897563e-06	7.627985e-09	2.026575e+01	4.976446e+02
2.300000e-06	2.751059e-06	7.449127e-09	1.924109e+01	4.858596e+02
2.310000e-06	2.603608e-06	7.267364e-09	1.820980e+01	4.737903e+02
2.320000e-06	2.455299e-06	7.081349e-09	1.717252e+01	4.614224e+02
2.330000e-06	2.306150e-06	6.888606e-09	1.612937e+01	4.487317e+02
2.340000e-06	2.156100e-06	6.685673e-09	1.507991e+01	4.356853e+02
2.350000e-06	2.005285e-06	6.474311e-09	1.402510e+01	4.222455e+02
2.360000e-06	1.853906e-06	6.258762e-09	1.296634e+01	4.083733e+02
2.370000e-06	1.702013e-06	6.040057e-09	1.190399e+01	3.940327e+02
2.380000e-06	1.549611e-06	5.813557e-09	1.083808e+01	3.791949e+02
2.390000e-06	1.396675e-06	5.580471e-09	9.768439e+00	3.638402e+02
2.400000e-06	1.243133e-06	5.341836e-09	8.694557e+00	3.479595e+02
2.410000e-06	1.089085e-06	5.095888e-09	7.617134e+00	3.315520e+02
2.420000e-06	9.346811e-07	4.842980e-09	6.537221e+00	3.146220e+02
2.430000e-06	7.799869e-07	4.580183e-09	5.455280e+00	2.971735e+02
2.440000e-06	6.250074e-07	4.306177e-09	4.371343e+00	2.792037e+02
2.450000e-06	4.697502e-07	4.020984e-09	3.285464e+00	2.606963e+02
2.460000e-06	3.143602e-07	3.725691e-09	2.198656e+00	2.416158e+02
2.470000e-06	1.589055e-07	3.421679e-09	1.111396e+00	2.219047e+02
2.480000e-06	3.342812e-09	3.106878e-09	2.337985e-02	2.014828e+02
2.490000e-06	-1.522479e-07	2.779725e-09	-1.064832e+00	1.802504e+02
2.500000e-06	-3.077944e-07	2.438426e-09	-2.152734e+00	1.580956e+02
2.510000e-06	-4.632637e-07	2.082030e-09	-3.240097e+00	1.349046e+02
2.520000e-06	-6.186022e-07	1.711744e-09	-4.326545e+00	1.105746e+02
2.530000e-06	-7.737518e-07	1.327336e-09	-5.411671e+00	8.502836e+01
2.540000e-06	-9.286566e-07	9.249779e-10	-6.495085e+00	5.822740e+01
2.550000e-06	-1.083232e-06	5.007635e-10	-7.576198e+00	3.018451e+01
2.560000e-06	-1.237366e-06	5.581386e-11	-8.654222e+00	9.718746e-01
2.570000e-06	-1.390997e-06	-4.063497e-10	-9.728727e+00	-2.927519e+01
2.580000e-06	-1.544077e-06	-8.824875e-10	-1.079937e+01	-6.035996e+01
2.590000e-06	-1.696566e-06	-1.369981e-09	-1.186589e+01	-9.203165e+01
2.600000e-06	-1.848414e-06	-1.865726e-09	-1.292793e+01	-1.239979e+02
2.610000e-06	-1.999621e-06	-2.360669e-09	-1.398548e+01	-1.559412e+02
2.620000e-06	-2.150116e-06	-2.848821e-09	-1.503805e+01	-1.875381e+02
2.630000e-06	-2.299771e-06	-3.324996e-09	-1.608475e+01	-2.184788e+02
2.640000e-06	-2.448572e-06	-3.784509e-09	-1.712548e+01	-2.484854e+02
2.650000e-06	-2.596466e-06	-4.225957e-09	-1.815985e+01	-2.773279e+02
2.660000e-06	-2.743378e-06	-4.644848e-09	-1.918737e+01	-3.048350e+02
2.670000e-06	-2.889309e-06	-5.041251e-09	-2.020802e+01	-3.308994e+02
2.680000e-06	-3.034176e-06	-5.414301e-09	-2.122123e+01	-3.554787e+02
2.690000e-06	-3.177841e-06	-5.762834e-09	-2.222603e+01	-3.785893e+02
2.700000e-06	-3.320186e-06	-6.091109e-09	-2.322160e+01	-4.002970e+02
2.710000e-06	-3.461193e-06	-6.403144e-09	-2.420781e+01	-4.207041e+02
2.720000e-06	-3.600879e-06	-6.700846e-09	-2.518479e+01	-4.399347e+02
2.730000e-06	-3.739258e-06	-6.985918e-09	-2.615262e+01	-4.581206e+02
2.740000e-06	-3.876349e-06	-7.256766e-09	-2.711144e+01	-4.753881e+02
2.750000e-06	-4.012027e-06	-7.512325e-09	-2.806038e+01	-4.918487e+02
2.760000e-06	-4.146205e-06	-7.755781e-09	-2.899883e+01	-5.075919e+02
2.770000e-06	-4.278920e-06	-7.988367e-09	-2.992705e+01	-5.226835e+02
2.780000e-06	-4.410144e-06	-8.210075e-09	-3.084484e+01	-5.371656e+02
2.790000e-06	-4.539838e-06	-8.421516e-09	-3.175193e+01	-5.510614e+02
2.800000e-06	-4.667947e-06	-8.623500e-09	-3.264793e+01	-5.643805e+02
2.810000e-06	-4.794411e-06	-8.817903e-09	-3.353243e+01	-5.771256e+02
2.820000e-06	-4.919214e-06	-9.004784e-09	-3.440530e+01	-5.892990e+02
2.830000e-06	-5.042316e-06	-9.182534e-09	-3.526629e+01	-6.009078e+02
2.840000e-06	-5.163653e-06	-9.351326e-09	-3.611493e+01	-6.119667e+02
2.850000e-06	-5.283073e-06	-9.513090e-09	-3.695016e+01	-6.224997e+02
2.860000e-06	-5.400431e-06	-9.667475e-09	-3.777097e+01	-6.325390e+02
2.870000e-06	-5.515595e-06	-9.813560e-09	-3.857644e+01	-6.421220e+02
2.880000e-06	-5.628499e-06	-9.953344e-09	-3.936610e+01	-6.512882e+02
2.890000e-06	-5.739215e-06	-1.008842e-08	-4.014045e+01	-6.600746e+02
2.900000e-06	-5.847876e-06	-1.021810e-08	-4.090043e+01	-6.685127e+02
2.910000e-06	-5.954554e-06	-1.034310e-08	-4.164655e+01	-6.766257e+02
2.920000e-06	-6.059065e-06	-1.046327e-08	-4.237750e+01	-6.844274e+02
2.930000e-06	-6.161243e-06	-1.057890e-08	-4.309214e+01	-6.919230e+02
2.940000e-06	-6.261145e-06	-1.068916e-08	-4.379086e+01	-6.991107e+02
