# Temperatura_=_58.54
# Concentracion g/m^3_=_15000.0
# C_Vs_to_Am_M_A/Vsm_=_65563218390.804596
# pendiente_HvsI_1/m_=_3716.3
# ordenada_HvsI_A/m_=_1297.0
# frecuencia_Hz_=_302342.43077201815

Tiempo_(s)	Campo_(V.s)	Magnetizacion_(V.s)	Campo_(kA/m)	Magnetizacion_(A/m)
0.000000e+00	-8.188759e-06	-1.146377e-08	-5.690255e+01	-7.491064e+02
1.000000e-08	-8.183900e-06	-1.145742e-08	-5.686879e+01	-7.487000e+02
2.000000e-08	-8.176400e-06	-1.144764e-08	-5.681667e+01	-7.481745e+02
3.000000e-08	-8.166107e-06	-1.143756e-08	-5.674514e+01	-7.475429e+02
4.000000e-08	-8.152818e-06	-1.142450e-08	-5.665280e+01	-7.468181e+02
5.000000e-08	-8.136513e-06	-1.140992e-08	-5.653950e+01	-7.460109e+02
6.000000e-08	-8.117638e-06	-1.139445e-08	-5.640834e+01	-7.451289e+02
7.000000e-08	-8.096474e-06	-1.137168e-08	-5.626128e+01	-7.441765e+02
8.000000e-08	-8.072632e-06	-1.139420e-08	-5.609560e+01	-7.431541e+02
9.000000e-08	-8.045609e-06	-1.140170e-08	-5.590782e+01	-7.420594e+02
1.000000e-07	-8.015304e-06	-1.134833e-08	-5.569724e+01	-7.408878e+02
1.100000e-07	-7.981963e-06	-1.130956e-08	-5.546555e+01	-7.396336e+02
1.200000e-07	-7.945825e-06	-1.128048e-08	-5.521443e+01	-7.382909e+02
1.300000e-07	-7.907206e-06	-1.124978e-08	-5.494608e+01	-7.368544e+02
1.400000e-07	-7.866211e-06	-1.120128e-08	-5.466121e+01	-7.353196e+02
1.500000e-07	-7.822812e-06	-1.119394e-08	-5.435964e+01	-7.336830e+02
1.600000e-07	-7.776770e-06	-1.120326e-08	-5.403969e+01	-7.319413e+02
1.700000e-07	-7.727717e-06	-1.110709e-08	-5.369884e+01	-7.300908e+02
1.800000e-07	-7.675737e-06	-1.112819e-08	-5.333763e+01	-7.281270e+02
1.900000e-07	-7.620930e-06	-1.110603e-08	-5.295678e+01	-7.260436e+02
2.000000e-07	-7.563236e-06	-1.100774e-08	-5.255588e+01	-7.238323e+02
2.100000e-07	-7.502858e-06	-1.099629e-08	-5.213632e+01	-7.214832e+02
2.200000e-07	-7.439897e-06	-1.094722e-08	-5.169881e+01	-7.189853e+02
2.300000e-07	-7.374152e-06	-1.093411e-08	-5.124196e+01	-7.163275e+02
2.400000e-07	-7.305551e-06	-1.087455e-08	-5.076526e+01	-7.134998e+02
2.500000e-07	-7.234128e-06	-1.083674e-08	-5.026895e+01	-7.104949e+02
2.600000e-07	-7.159820e-06	-1.078795e-08	-4.975260e+01	-7.073092e+02
2.700000e-07	-7.082665e-06	-1.071928e-08	-4.921646e+01	-7.039435e+02
2.800000e-07	-7.002728e-06	-1.066268e-08	-4.866099e+01	-7.004030e+02
2.900000e-07	-6.920238e-06	-1.060925e-08	-4.808778e+01	-6.966971e+02
3.000000e-07	-6.835444e-06	-1.058633e-08	-4.749856e+01	-6.928378e+02
3.100000e-07	-6.748240e-06	-1.050706e-08	-4.689259e+01	-6.888383e+02
3.200000e-07	-6.658503e-06	-1.043507e-08	-4.626901e+01	-6.847108e+02
3.300000e-07	-6.566300e-06	-1.038402e-08	-4.562831e+01	-6.804651e+02
3.400000e-07	-6.471777e-06	-1.031434e-08	-4.497148e+01	-6.761064e+02
3.500000e-07	-6.374891e-06	-1.023125e-08	-4.429823e+01	-6.716346e+02
3.600000e-07	-6.275657e-06	-1.015900e-08	-4.360867e+01	-6.670440e+02
3.700000e-07	-6.174145e-06	-1.010319e-08	-4.290328e+01	-6.623241e+02
3.800000e-07	-6.070367e-06	-1.002139e-08	-4.218214e+01	-6.574603e+02
3.900000e-07	-5.964386e-06	-9.934720e-09	-4.144569e+01	-6.524365e+02
4.000000e-07	-5.856393e-06	-9.858110e-09	-4.069527e+01	-6.472366e+02
4.100000e-07	-5.746383e-06	-9.781214e-09	-3.993082e+01	-6.418466e+02
4.200000e-07	-5.634195e-06	-9.686350e-09	-3.915124e+01	-6.362567e+02
4.300000e-07	-5.519802e-06	-9.592175e-09	-3.835634e+01	-6.304614e+02
4.400000e-07	-5.403272e-06	-9.514673e-09	-3.754659e+01	-6.244602e+02
4.500000e-07	-5.284750e-06	-9.432725e-09	-3.672299e+01	-6.182566e+02
4.600000e-07	-5.164339e-06	-9.331179e-09	-3.588628e+01	-6.118565e+02
4.700000e-07	-5.042150e-06	-9.224658e-09	-3.503720e+01	-6.052664e+02
4.800000e-07	-4.918126e-06	-9.124878e-09	-3.417538e+01	-5.984911e+02
4.900000e-07	-4.792301e-06	-9.017081e-09	-3.330104e+01	-5.915318e+02
5.000000e-07	-4.664787e-06	-8.899989e-09	-3.241496e+01	-5.843848e+02
5.100000e-07	-4.535563e-06	-8.786010e-09	-3.151700e+01	-5.770407e+02
5.200000e-07	-4.404610e-06	-8.673429e-09	-3.060702e+01	-5.694853e+02
5.300000e-07	-4.272012e-06	-8.550300e-09	-2.968562e+01	-5.617004e+02
5.400000e-07	-4.137890e-06	-8.424712e-09	-2.875363e+01	-5.536661e+02
5.500000e-07	-4.002202e-06	-8.300595e-09	-2.781074e+01	-5.453630e+02
5.600000e-07	-3.864948e-06	-8.173108e-09	-2.685699e+01	-5.367746e+02
5.700000e-07	-3.726152e-06	-8.031818e-09	-2.589251e+01	-5.278894e+02
5.800000e-07	-3.585720e-06	-7.888073e-09	-2.491667e+01	-5.187016e+02
5.900000e-07	-3.443796e-06	-7.746836e-09	-2.393046e+01	-5.092114e+02
6.000000e-07	-3.300571e-06	-7.599625e-09	-2.293521e+01	-4.994237e+02
6.100000e-07	-3.156077e-06	-7.444013e-09	-2.193115e+01	-4.893463e+02
6.200000e-07	-3.010393e-06	-7.283392e-09	-2.091880e+01	-4.789869e+02
6.300000e-07	-2.863619e-06	-7.121650e-09	-1.989889e+01	-4.683502e+02
6.400000e-07	-2.715893e-06	-6.956031e-09	-1.887236e+01	-4.574351e+02
6.500000e-07	-2.567313e-06	-6.786239e-09	-1.783990e+01	-4.462327e+02
6.600000e-07	-2.417909e-06	-6.610063e-09	-1.680171e+01	-4.347254e+02
6.700000e-07	-2.267652e-06	-6.427027e-09	-1.575760e+01	-4.228875e+02
6.800000e-07	-2.116559e-06	-6.235675e-09	-1.470767e+01	-4.106870e+02
6.900000e-07	-1.964680e-06	-6.040635e-09	-1.365229e+01	-3.980888e+02
7.000000e-07	-1.812072e-06	-5.841227e-09	-1.259184e+01	-3.850578e+02
7.100000e-07	-1.658885e-06	-5.634297e-09	-1.152736e+01	-3.715633e+02
7.200000e-07	-1.505181e-06	-5.420305e-09	-1.045929e+01	-3.575816e+02
7.300000e-07	-1.350950e-06	-5.199918e-09	-9.387566e+00	-3.430981e+02
7.400000e-07	-1.196261e-06	-4.975239e-09	-8.312650e+00	-3.281074e+02
7.500000e-07	-1.041210e-06	-4.746287e-09	-7.235221e+00	-3.126110e+02
7.600000e-07	-8.858155e-07	-4.507216e-09	-6.155409e+00	-2.966145e+02
7.700000e-07	-7.300630e-07	-4.253416e-09	-5.073107e+00	-2.801216e+02
7.800000e-07	-5.740545e-07	-3.990727e-09	-3.989025e+00	-2.631284e+02
7.900000e-07	-4.178364e-07	-3.721523e-09	-2.903487e+00	-2.456176e+02
8.000000e-07	-2.614115e-07	-3.445547e-09	-1.816512e+00	-2.275537e+02
8.100000e-07	-1.048698e-07	-3.156392e-09	-7.287257e-01	-2.088806e+02
8.200000e-07	5.168773e-08	-2.855993e-09	3.591709e-01	-1.895214e+02
8.300000e-07	2.082859e-07	-2.545603e-09	1.447350e+00	-1.693825e+02
8.400000e-07	3.648357e-07	-2.219625e-09	2.535192e+00	-1.483600e+02
8.500000e-07	5.212297e-07	-1.883229e-09	3.621953e+00	-1.263503e+02
8.600000e-07	6.774777e-07	-1.536263e-09	4.707699e+00	-1.032617e+02
8.700000e-07	8.335674e-07	-1.173353e-09	5.792344e+00	-7.902738e+01
8.800000e-07	9.894774e-07	-7.884242e-10	6.875741e+00	-5.361839e+01
8.900000e-07	1.145040e-06	-3.866405e-10	7.956721e+00	-2.705383e+01
9.000000e-07	1.300145e-06	3.009961e-11	9.034528e+00	5.917653e-01
9.100000e-07	1.454727e-06	4.641921e-10	1.010870e+01	2.918554e+01
9.200000e-07	1.608839e-06	9.141865e-10	1.117960e+01	5.853848e+01
9.300000e-07	1.762439e-06	1.374611e-09	1.224695e+01	8.841258e+01
9.400000e-07	1.915358e-06	1.838057e-09	1.330956e+01	1.185327e+02
9.500000e-07	2.067535e-06	2.300074e-09	1.436702e+01	1.486019e+02
9.600000e-07	2.218906e-06	2.753897e-09	1.541887e+01	1.783190e+02
9.700000e-07	2.369366e-06	3.194231e-09	1.646440e+01	2.073966e+02
9.800000e-07	2.518840e-06	3.619911e-09	1.750307e+01	2.355781e+02
9.900000e-07	2.667384e-06	4.030872e-09	1.853528e+01	2.626515e+02
1.000000e-06	2.814952e-06	4.422516e-09	1.956071e+01	2.884595e+02
1.010000e-06	2.961473e-06	4.790660e-09	2.057887e+01	3.129041e+02
1.020000e-06	3.106940e-06	5.135923e-09	2.158970e+01	3.359472e+02
1.030000e-06	3.251301e-06	5.461312e-09	2.259284e+01	3.576051e+02
1.040000e-06	3.394426e-06	5.768733e-09	2.358739e+01	3.779395e+02
1.050000e-06	3.536204e-06	6.058966e-09	2.457259e+01	3.970459e+02
1.060000e-06	3.676593e-06	6.334946e-09	2.554814e+01	4.150402e+02
1.070000e-06	3.815613e-06	6.595732e-09	2.651417e+01	4.320457e+02
1.080000e-06	3.953208e-06	6.841429e-09	2.747030e+01	4.481809e+02
1.090000e-06	4.089303e-06	7.077403e-09	2.841600e+01	4.635509e+02
1.100000e-06	4.223896e-06	7.301633e-09	2.935127e+01	4.782409e+02
1.110000e-06	4.356968e-06	7.513599e-09	3.027597e+01	4.923139e+02
1.120000e-06	4.488506e-06	7.716271e-09	3.119001e+01	5.058112e+02
1.130000e-06	4.618519e-06	7.911321e-09	3.209345e+01	5.187557e+02
1.140000e-06	4.746913e-06	8.095648e-09	3.298564e+01	5.311572e+02
1.150000e-06	4.873581e-06	8.269691e-09	3.386584e+01	5.430180e+02
1.160000e-06	4.998587e-06	8.435830e-09	3.473449e+01	5.543387e+02
1.170000e-06	5.121937e-06	8.597036e-09	3.559163e+01	5.651233e+02
1.180000e-06	5.243534e-06	8.755882e-09	3.643659e+01	5.753822e+02
1.190000e-06	5.363213e-06	8.909680e-09	3.726823e+01	5.851336e+02
1.200000e-06	5.480848e-06	9.054442e-09	3.808565e+01	5.944032e+02
1.210000e-06	5.596383e-06	9.190061e-09	3.888849e+01	6.032221e+02
1.220000e-06	5.709700e-06	9.318493e-09	3.967591e+01	6.116243e+02
1.230000e-06	5.820748e-06	9.441254e-09	4.044757e+01	6.196434e+02
1.240000e-06	5.929696e-06	9.557590e-09	4.120464e+01	6.273093e+02
1.250000e-06	6.036630e-06	9.668902e-09	4.194771e+01	6.346468e+02
1.260000e-06	6.141402e-06	9.777940e-09	4.267575e+01	6.416739e+02
1.270000e-06	6.243888e-06	9.880125e-09	4.338791e+01	6.484021e+02
1.280000e-06	6.344122e-06	9.974141e-09	4.408442e+01	6.548382e+02
1.290000e-06	6.442002e-06	1.006358e-08	4.476458e+01	6.609857e+02
1.300000e-06	6.537430e-06	1.015041e-08	4.542770e+01	6.668478e+02
1.310000e-06	6.630522e-06	1.023329e-08	4.607458e+01	6.724296e+02
1.320000e-06	6.721302e-06	1.031204e-08	4.670540e+01	6.777399e+02
1.330000e-06	6.809636e-06	1.038998e-08	4.731921e+01	6.827920e+02
1.340000e-06	6.895541e-06	1.046503e-08	4.791616e+01	6.876040e+02
1.350000e-06	6.979122e-06	1.053495e-08	4.849695e+01	6.921972e+02
1.360000e-06	7.060196e-06	1.060088e-08	4.906033e+01	6.965941e+02
1.370000e-06	7.138683e-06	1.066419e-08	4.960572e+01	7.008164e+02
1.380000e-06	7.214575e-06	1.072538e-08	5.013309e+01	7.048817e+02
1.390000e-06	7.287607e-06	1.078398e-08	5.064057e+01	7.088019e+02
1.400000e-06	7.357931e-06	1.084110e-08	5.112924e+01	7.125816e+02
1.410000e-06	7.425807e-06	1.089613e-08	5.160090e+01	7.162176e+02
1.420000e-06	7.491040e-06	1.094880e-08	5.205420e+01	7.196998e+02
1.430000e-06	7.553617e-06	1.099693e-08	5.248904e+01	7.230128e+02
1.440000e-06	7.613655e-06	1.104207e-08	5.290623e+01	7.261385e+02
1.450000e-06	7.671018e-06	1.108358e-08	5.330484e+01	7.290589e+02
1.460000e-06	7.725667e-06	1.112120e-08	5.368459e+01	7.317592e+02
1.470000e-06	7.777310e-06	1.115782e-08	5.404345e+01	7.342298e+02
1.480000e-06	7.825658e-06	1.119366e-08	5.437941e+01	7.364685e+02
1.490000e-06	7.871076e-06	1.122597e-08	5.469501e+01	7.384803e+02
1.500000e-06	7.913802e-06	1.125209e-08	5.499191e+01	7.402778e+02
1.510000e-06	7.953674e-06	1.127485e-08	5.526898e+01	7.418789e+02
1.520000e-06	7.990696e-06	1.129831e-08	5.552624e+01	7.433049e+02
1.530000e-06	8.024977e-06	1.132043e-08	5.576445e+01	7.445778e+02
1.540000e-06	8.056395e-06	1.133806e-08	5.598277e+01	7.457177e+02
1.550000e-06	8.085008e-06	1.135177e-08	5.618160e+01	7.467405e+02
1.560000e-06	8.110726e-06	1.136411e-08	5.636031e+01	7.476565e+02
1.570000e-06	8.133410e-06	1.137647e-08	5.651794e+01	7.484698e+02
1.580000e-06	8.153290e-06	1.138657e-08	5.665608e+01	7.491784e+02
1.590000e-06	8.170236e-06	1.139373e-08	5.677384e+01	7.497758e+02
1.600000e-06	8.184086e-06	1.139849e-08	5.687008e+01	7.502527e+02
1.610000e-06	8.194789e-06	1.140346e-08	5.694446e+01	7.505990e+02
1.620000e-06	8.202332e-06	1.140898e-08	5.699687e+01	7.508059e+02
1.630000e-06	8.206991e-06	1.141182e-08	5.702924e+01	7.508679e+02
1.640000e-06	8.208755e-06	1.141142e-08	5.704150e+01	7.507839e+02
1.650000e-06	8.207642e-06	1.140745e-08	5.703377e+01	7.505573e+02
1.660000e-06	8.203898e-06	1.139847e-08	5.700775e+01	7.501960e+02
1.670000e-06	8.197335e-06	1.139414e-08	5.696214e+01	7.497110e+02
1.680000e-06	8.187971e-06	1.138913e-08	5.689707e+01	7.491152e+02
1.690000e-06	8.175830e-06	1.138114e-08	5.681271e+01	7.484219e+02
1.700000e-06	8.160780e-06	1.137377e-08	5.670813e+01	7.476425e+02
1.710000e-06	8.143150e-06	1.136784e-08	5.658562e+01	7.467860e+02
1.720000e-06	8.123207e-06	1.136084e-08	5.644704e+01	7.458580e+02
1.730000e-06	8.100637e-06	1.128282e-08	5.629021e+01	7.448602e+02
1.740000e-06	8.074701e-06	1.126107e-08	5.610998e+01	7.437913e+02
1.750000e-06	8.044883e-06	1.128199e-08	5.590278e+01	7.426472e+02
1.760000e-06	8.011635e-06	1.126120e-08	5.567174e+01	7.414227e+02
1.770000e-06	7.975921e-06	1.124621e-08	5.542357e+01	7.401118e+02
1.780000e-06	7.937873e-06	1.127384e-08	5.515918e+01	7.387088e+02
1.790000e-06	7.897603e-06	1.124434e-08	5.487935e+01	7.372091e+02
1.800000e-06	7.855363e-06	1.112168e-08	5.458583e+01	7.356087e+02
1.810000e-06	7.810503e-06	1.120366e-08	5.427411e+01	7.339044e+02
1.820000e-06	7.762814e-06	1.116135e-08	5.394272e+01	7.320927e+02
1.830000e-06	7.712313e-06	1.112830e-08	5.359180e+01	7.301695e+02
1.840000e-06	7.658606e-06	1.116519e-08	5.321860e+01	7.281291e+02
1.850000e-06	7.602057e-06	1.105772e-08	5.282564e+01	7.259640e+02
1.860000e-06	7.542825e-06	1.108139e-08	5.241405e+01	7.236649e+02
1.870000e-06	7.480725e-06	1.098127e-08	5.198252e+01	7.212209e+02
1.880000e-06	7.415846e-06	1.095348e-08	5.153168e+01	7.186209e+02
1.890000e-06	7.348092e-06	1.094636e-08	5.106087e+01	7.158544e+02
1.900000e-06	7.277447e-06	1.084346e-08	5.056997e+01	7.129129e+02
1.910000e-06	7.203964e-06	1.083545e-08	5.005935e+01	7.097914e+02
1.920000e-06	7.127708e-06	1.076390e-08	4.952945e+01	7.064891e+02
1.930000e-06	7.048613e-06	1.075686e-08	4.897983e+01	7.030097e+02
1.940000e-06	6.966877e-06	1.066382e-08	4.841186e+01	6.993611e+02
1.950000e-06	6.882688e-06	1.059913e-08	4.782684e+01	6.955545e+02
1.960000e-06	6.795839e-06	1.057765e-08	4.722335e+01	6.916030e+02
1.970000e-06	6.706459e-06	1.047681e-08	4.660225e+01	6.875195e+02
1.980000e-06	6.614741e-06	1.043917e-08	4.596492e+01	6.833147e+02
1.990000e-06	6.520730e-06	1.037293e-08	4.531165e+01	6.789955e+02
2.000000e-06	6.424424e-06	1.032904e-08	4.464243e+01	6.745639e+02
2.010000e-06	6.325894e-06	1.022096e-08	4.395776e+01	6.700162e+02
2.020000e-06	6.225089e-06	1.014543e-08	4.325728e+01	6.653435e+02
2.030000e-06	6.121869e-06	1.008677e-08	4.254002e+01	6.605324e+02
2.040000e-06	6.016448e-06	1.001384e-08	4.180747e+01	6.555671e+02
2.050000e-06	5.909008e-06	9.939277e-09	4.106088e+01	6.504313e+02
2.060000e-06	5.799576e-06	9.847183e-09	4.030045e+01	6.451101e+02
2.070000e-06	5.688086e-06	9.777374e-09	3.952572e+01	6.395920e+02
2.080000e-06	5.574514e-06	9.672571e-09	3.873652e+01	6.338698e+02
2.090000e-06	5.458772e-06	9.583797e-09	3.793225e+01	6.279414e+02
2.100000e-06	5.340906e-06	9.495539e-09	3.711322e+01	6.218089e+02
2.110000e-06	5.221002e-06	9.412362e-09	3.628002e+01	6.154778e+02
2.120000e-06	5.099183e-06	9.302092e-09	3.543352e+01	6.089543e+02
2.130000e-06	4.975588e-06	9.202799e-09	3.457467e+01	6.022443e+02
2.140000e-06	4.850130e-06	9.109342e-09	3.370288e+01	5.953504e+02
2.150000e-06	4.722899e-06	9.003865e-09	3.281877e+01	5.882707e+02
2.160000e-06	4.593950e-06	8.884741e-09	3.192272e+01	5.809979e+02
2.170000e-06	4.463366e-06	8.760364e-09	3.101531e+01	5.735193e+02
2.180000e-06	4.331095e-06	8.644885e-09	3.009618e+01	5.658181e+02
2.190000e-06	4.197219e-06	8.520502e-09	2.916589e+01	5.578747e+02
2.200000e-06	4.061857e-06	8.399357e-09	2.822528e+01	5.496691e+02
2.210000e-06	3.924982e-06	8.275410e-09	2.727416e+01	5.411838e+02
2.220000e-06	3.786540e-06	8.147196e-09	2.631214e+01	5.324050e+02
2.230000e-06	3.646566e-06	8.003149e-09	2.533948e+01	5.233251e+02
2.240000e-06	3.505155e-06	7.861710e-09	2.435684e+01	5.139420e+02
2.250000e-06	3.362390e-06	7.720928e-09	2.336478e+01	5.042592e+02
2.260000e-06	3.218374e-06	7.573156e-09	2.236403e+01	4.942838e+02
2.270000e-06	3.073176e-06	7.413683e-09	2.135507e+01	4.840239e+02
2.280000e-06	2.926911e-06	7.249853e-09	2.033870e+01	4.734855e+02
2.290000e-06	2.779571e-06	7.087039e-09	1.931485e+01	4.626699e+02
2.300000e-06	2.631204e-06	6.920533e-09	1.828387e+01	4.515711e+02
2.310000e-06	2.481938e-06	6.749182e-09	1.724664e+01	4.401748e+02
2.320000e-06	2.331804e-06	6.571069e-09	1.620338e+01	4.284578e+02
2.330000e-06	2.180881e-06	6.386634e-09	1.515464e+01	4.163903e+02
2.340000e-06	2.029284e-06	6.194680e-09	1.410121e+01	4.039377e+02
2.350000e-06	1.877016e-06	5.996762e-09	1.304313e+01	3.910645e+02
2.360000e-06	1.724097e-06	5.791787e-09	1.198051e+01	3.777382e+02
2.370000e-06	1.570660e-06	5.577443e-09	1.091430e+01	3.639322e+02
2.380000e-06	1.416740e-06	5.358278e-09	9.844727e+00	3.496285e+02
2.390000e-06	1.262348e-06	5.135512e-09	8.771881e+00	3.348185e+02
2.400000e-06	1.107526e-06	4.905587e-09	7.696045e+00	3.195017e+02
2.410000e-06	9.522796e-07	4.668288e-09	6.617259e+00	3.036827e+02
2.420000e-06	7.966437e-07	4.424171e-09	5.535766e+00	2.873665e+02
2.430000e-06	6.407499e-07	4.170076e-09	4.452483e+00	2.705526e+02
2.440000e-06	4.846701e-07	3.904305e-09	3.367905e+00	2.532292e+02
2.450000e-06	3.283376e-07	3.630495e-09	2.281573e+00	2.353677e+02
2.460000e-06	1.718440e-07	3.346329e-09	1.194120e+00	2.169194e+02
2.470000e-06	1.523803e-08	3.049787e-09	1.058870e-01	1.978147e+02
2.480000e-06	-1.414466e-07	2.742756e-09	-9.828930e-01	1.779654e+02
2.490000e-06	-2.980658e-07	2.425876e-09	-2.071218e+00	1.572701e+02
2.500000e-06	-4.545912e-07	2.095600e-09	-3.158891e+00	1.356239e+02
2.510000e-06	-6.109837e-07	1.749209e-09	-4.245641e+00	1.129293e+02
2.520000e-06	-7.671804e-07	1.387480e-09	-5.331031e+00	8.910918e+01
2.530000e-06	-9.231210e-07	1.011348e-09	-6.414640e+00	6.411972e+01
2.540000e-06	-1.078699e-06	6.200806e-10	-7.495731e+00	3.796177e+01
2.550000e-06	-1.233825e-06	2.099982e-10	-8.573682e+00	1.068953e+01
2.560000e-06	-1.388455e-06	-2.188918e-10	-9.648183e+00	-1.758500e+01
2.570000e-06	-1.542578e-06	-6.651649e-10	-1.071916e+01	-4.669231e+01
2.580000e-06	-1.696176e-06	-1.123583e-09	-1.178650e+01	-7.641075e+01
2.590000e-06	-1.849090e-06	-1.587769e-09	-1.284907e+01	-1.064768e+02
2.600000e-06	-2.001251e-06	-2.053517e-09	-1.390642e+01	-1.365995e+02
2.610000e-06	-2.152703e-06	-2.516414e-09	-1.495884e+01	-1.664769e+02
2.620000e-06	-2.303350e-06	-2.970345e-09	-1.600566e+01	-1.958148e+02
2.630000e-06	-2.453177e-06	-3.407925e-09	-1.704679e+01	-2.243438e+02
2.640000e-06	-2.602148e-06	-3.823987e-09	-1.808196e+01	-2.518345e+02
2.650000e-06	-2.750052e-06	-4.219805e-09	-1.910973e+01	-2.781093e+02
2.660000e-06	-2.896847e-06	-4.598925e-09	-2.012979e+01	-3.030488e+02
2.670000e-06	-3.042586e-06	-4.958396e-09	-2.114251e+01	-3.265937e+02
2.680000e-06	-3.187188e-06	-5.295311e-09	-2.214733e+01	-3.487419e+02
2.690000e-06	-3.330651e-06	-5.611335e-09	-2.314424e+01	-3.695400e+02
2.700000e-06	-3.472883e-06	-5.910426e-09	-2.413258e+01	-3.890729e+02
2.710000e-06	-3.613743e-06	-6.193947e-09	-2.511140e+01	-4.074509e+02
2.720000e-06	-3.753188e-06	-6.462903e-09	-2.608038e+01	-4.247960e+02
2.730000e-06	-3.891257e-06	-6.718759e-09	-2.703981e+01	-4.412296e+02
2.740000e-06	-4.027847e-06	-6.961574e-09	-2.798895e+01	-4.568624e+02
2.750000e-06	-4.162942e-06	-7.194362e-09	-2.892771e+01	-4.717874e+02
2.760000e-06	-4.296628e-06	-7.417545e-09	-2.985667e+01	-4.860755e+02
2.770000e-06	-4.428764e-06	-7.629089e-09	-3.077487e+01	-4.997754e+02
2.780000e-06	-4.559373e-06	-7.830914e-09	-3.168245e+01	-5.129162e+02
2.790000e-06	-4.688443e-06	-8.022939e-09	-3.257934e+01	-5.255116e+02
2.800000e-06	-4.815915e-06	-8.205651e-09	-3.346513e+01	-5.375659e+02
2.810000e-06	-4.941758e-06	-8.379031e-09	-3.433959e+01	-5.490798e+02
2.820000e-06	-5.065769e-06	-8.544159e-09	-3.520133e+01	-5.600556e+02
2.830000e-06	-5.187961e-06	-8.701858e-09	-3.605042e+01	-5.705011e+02
2.840000e-06	-5.308330e-06	-8.853009e-09	-3.688685e+01	-5.804317e+02
2.850000e-06	-5.426682e-06	-8.997344e-09	-3.770926e+01	-5.898705e+02
2.860000e-06	-5.542799e-06	-9.134682e-09	-3.851614e+01	-5.988471e+02
2.870000e-06	-5.656607e-06	-9.266252e-09	-3.930698e+01	-6.073947e+02
2.880000e-06	-5.768197e-06	-9.391883e-09	-4.008240e+01	-6.155474e+02
2.890000e-06	-5.877611e-06	-9.513945e-09	-4.084271e+01	-6.233369e+02
2.900000e-06	-5.985001e-06	-9.631028e-09	-4.158895e+01	-6.307898e+02
2.910000e-06	-6.090356e-06	-9.741607e-09	-4.232104e+01	-6.379265e+02
2.920000e-06	-6.193490e-06	-9.847042e-09	-4.303771e+01	-6.447610e+02
2.930000e-06	-6.294284e-06	-9.947599e-09	-4.373811e+01	-6.513014e+02
2.940000e-06	-6.392820e-06	-1.004122e-08	-4.442282e+01	-6.575522e+02
