# Temperatura_=_83.86
# Concentracion g/m^3_=_15000.0
# C_Vs_to_Am_M_A/Vsm_=_65563218390.804596
# pendiente_HvsI_1/m_=_3716.3
# ordenada_HvsI_A/m_=_1297.0
# frecuencia_Hz_=_302340.0342573055

Tiempo_(s)	Campo_(V.s)	Magnetizacion_(V.s)	Campo_(kA/m)	Magnetizacion_(A/m)
0.000000e+00	-8.104388e-06	-1.334555e-08	-5.691758e+01	-8.727662e+02
1.000000e-08	-8.101906e-06	-1.334831e-08	-5.690015e+01	-8.723608e+02
2.000000e-08	-8.096703e-06	-1.333991e-08	-5.686361e+01	-8.717806e+02
3.000000e-08	-8.089022e-06	-1.332702e-08	-5.680966e+01	-8.710416e+02
4.000000e-08	-8.078504e-06	-1.331521e-08	-5.673580e+01	-8.701618e+02
5.000000e-08	-8.064933e-06	-1.329890e-08	-5.664049e+01	-8.691596e+02
6.000000e-08	-8.048504e-06	-1.327713e-08	-5.652510e+01	-8.680517e+02
7.000000e-08	-8.029596e-06	-1.325000e-08	-5.639231e+01	-8.668518e+02
8.000000e-08	-8.008387e-06	-1.321677e-08	-5.624336e+01	-8.655692e+02
9.000000e-08	-7.984426e-06	-1.326848e-08	-5.607508e+01	-8.642092e+02
1.000000e-07	-7.957259e-06	-1.328091e-08	-5.588428e+01	-8.627724e+02
1.100000e-07	-7.926920e-06	-1.319740e-08	-5.567121e+01	-8.612558e+02
1.200000e-07	-7.893628e-06	-1.314999e-08	-5.543740e+01	-8.596535e+02
1.300000e-07	-7.857532e-06	-1.311633e-08	-5.518390e+01	-8.579575e+02
1.400000e-07	-7.818977e-06	-1.305733e-08	-5.491312e+01	-8.561583e+02
1.500000e-07	-7.778148e-06	-1.297277e-08	-5.462637e+01	-8.542457e+02
1.600000e-07	-7.734918e-06	-1.302753e-08	-5.432277e+01	-8.522083e+02
1.700000e-07	-7.688985e-06	-1.303626e-08	-5.400018e+01	-8.500343e+02
1.800000e-07	-7.640221e-06	-1.287609e-08	-5.365771e+01	-8.477107e+02
1.900000e-07	-7.588558e-06	-1.293920e-08	-5.329487e+01	-8.452239e+02
2.000000e-07	-7.533946e-06	-1.286539e-08	-5.291133e+01	-8.425594e+02
2.100000e-07	-7.476562e-06	-1.274250e-08	-5.250832e+01	-8.397025e+02
2.200000e-07	-7.416514e-06	-1.276440e-08	-5.208660e+01	-8.366393e+02
2.300000e-07	-7.353836e-06	-1.269271e-08	-5.164641e+01	-8.333576e+02
2.400000e-07	-7.288423e-06	-1.266346e-08	-5.118701e+01	-8.298484e+02
2.500000e-07	-7.220187e-06	-1.255986e-08	-5.070779e+01	-8.261072e+02
2.600000e-07	-7.149181e-06	-1.252600e-08	-5.020911e+01	-8.221347e+02
2.700000e-07	-7.075322e-06	-1.247083e-08	-4.969039e+01	-8.179371e+02
2.800000e-07	-6.998682e-06	-1.239027e-08	-4.915214e+01	-8.135262e+02
2.900000e-07	-6.919315e-06	-1.231408e-08	-4.859475e+01	-8.089182e+02
3.000000e-07	-6.837310e-06	-1.224092e-08	-4.801882e+01	-8.041318e+02
3.100000e-07	-6.752958e-06	-1.221355e-08	-4.742641e+01	-7.991858e+02
3.200000e-07	-6.666295e-06	-1.209512e-08	-4.681777e+01	-7.940973e+02
3.300000e-07	-6.577202e-06	-1.201279e-08	-4.619206e+01	-7.888784e+02
3.400000e-07	-6.485688e-06	-1.194918e-08	-4.554936e+01	-7.835353e+02
3.500000e-07	-6.391833e-06	-1.185458e-08	-4.489020e+01	-7.780665e+02
3.600000e-07	-6.295605e-06	-1.175509e-08	-4.421439e+01	-7.724631e+02
3.700000e-07	-6.197036e-06	-1.167485e-08	-4.352214e+01	-7.667096e+02
3.800000e-07	-6.096222e-06	-1.160625e-08	-4.281411e+01	-7.607860e+02
3.900000e-07	-5.993229e-06	-1.149747e-08	-4.209079e+01	-7.546706e+02
4.000000e-07	-5.888107e-06	-1.138562e-08	-4.135251e+01	-7.483423e+02
4.100000e-07	-5.780929e-06	-1.127877e-08	-4.059980e+01	-7.417840e+02
4.200000e-07	-5.671740e-06	-1.118489e-08	-3.983295e+01	-7.349847e+02
4.300000e-07	-5.560492e-06	-1.108154e-08	-3.905165e+01	-7.279405e+02
4.400000e-07	-5.447138e-06	-1.097052e-08	-3.825556e+01	-7.206547e+02
4.500000e-07	-5.331633e-06	-1.086099e-08	-3.744436e+01	-7.131369e+02
4.600000e-07	-5.214082e-06	-1.075004e-08	-3.661880e+01	-7.054005e+02
4.700000e-07	-5.094743e-06	-1.062295e-08	-3.578067e+01	-6.974595e+02
4.800000e-07	-4.973648e-06	-1.049189e-08	-3.493021e+01	-6.893260e+02
4.900000e-07	-4.850691e-06	-1.037304e-08	-3.406668e+01	-6.810063e+02
5.000000e-07	-4.725997e-06	-1.024678e-08	-3.319095e+01	-6.724994e+02
5.100000e-07	-4.599643e-06	-1.010340e-08	-3.230355e+01	-6.637953e+02
5.200000e-07	-4.471611e-06	-9.958826e-09	-3.140438e+01	-6.548759e+02
5.300000e-07	-4.341898e-06	-9.827735e-09	-3.049340e+01	-6.457165e+02
5.400000e-07	-4.210523e-06	-9.684294e-09	-2.957074e+01	-6.362885e+02
5.500000e-07	-4.077567e-06	-9.527117e-09	-2.863699e+01	-6.265635e+02
5.600000e-07	-3.943122e-06	-9.368237e-09	-2.769277e+01	-6.165162e+02
5.700000e-07	-3.807235e-06	-9.215970e-09	-2.673843e+01	-6.061287e+02
5.800000e-07	-3.669838e-06	-9.050695e-09	-2.577348e+01	-5.953918e+02
5.900000e-07	-3.530881e-06	-8.877931e-09	-2.479758e+01	-5.843064e+02
6.000000e-07	-3.390452e-06	-8.708698e-09	-2.381134e+01	-5.728823e+02
6.100000e-07	-3.248681e-06	-8.531941e-09	-2.281567e+01	-5.611355e+02
6.200000e-07	-3.105566e-06	-8.343847e-09	-2.181056e+01	-5.490849e+02
6.300000e-07	-2.961173e-06	-8.154384e-09	-2.079648e+01	-5.367470e+02
6.400000e-07	-2.815720e-06	-7.968908e-09	-1.977496e+01	-5.241323e+02
6.500000e-07	-2.669311e-06	-7.773241e-09	-1.874672e+01	-5.112407e+02
6.600000e-07	-2.522018e-06	-7.568302e-09	-1.771228e+01	-4.980596e+02
6.700000e-07	-2.373996e-06	-7.356675e-09	-1.667271e+01	-4.845633e+02
6.800000e-07	-2.225186e-06	-7.141638e-09	-1.562760e+01	-4.707145e+02
6.900000e-07	-2.075600e-06	-6.918562e-09	-1.457706e+01	-4.564679e+02
7.000000e-07	-1.925371e-06	-6.691829e-09	-1.352199e+01	-4.417750e+02
7.100000e-07	-1.774503e-06	-6.461686e-09	-1.246243e+01	-4.265897e+02
7.200000e-07	-1.622991e-06	-6.220613e-09	-1.139835e+01	-4.108732e+02
7.300000e-07	-1.470892e-06	-5.973746e-09	-1.033016e+01	-3.945984e+02
7.400000e-07	-1.318336e-06	-5.720930e-09	-9.258747e+00	-3.777519e+02
7.500000e-07	-1.165331e-06	-5.460570e-09	-8.184183e+00	-3.603330e+02
7.600000e-07	-1.011858e-06	-5.190818e-09	-7.106335e+00	-3.423503e+02
7.700000e-07	-8.580235e-07	-4.912966e-09	-6.025948e+00	-3.238163e+02
7.800000e-07	-7.038465e-07	-4.621905e-09	-4.943154e+00	-3.047395e+02
7.900000e-07	-5.493524e-07	-4.321181e-09	-3.858134e+00	-2.851156e+02
8.000000e-07	-3.946533e-07	-4.012799e-09	-2.771673e+00	-2.649207e+02
8.100000e-07	-2.398319e-07	-3.692234e-09	-1.684353e+00	-2.441048e+02
8.200000e-07	-8.488952e-08	-3.357567e-09	-5.961839e-01	-2.225894e+02
8.300000e-07	7.015045e-08	-3.009763e-09	4.926706e-01	-2.002697e+02
8.400000e-07	2.251864e-07	-2.650869e-09	1.581497e+00	-1.770199e+02
8.500000e-07	3.801331e-07	-2.276141e-09	2.669696e+00	-1.527045e+02
8.600000e-07	5.350038e-07	-1.886140e-09	3.757362e+00	-1.271918e+02
8.700000e-07	6.897626e-07	-1.481219e-09	4.844242e+00	-1.003707e+02
8.800000e-07	8.443429e-07	-1.059985e-09	5.929868e+00	-7.216715e+01
8.900000e-07	9.986499e-07	-6.171577e-10	7.013575e+00	-4.256018e+01
9.000000e-07	1.152551e-06	-1.541001e-10	8.094430e+00	-1.159356e+01
9.100000e-07	1.305916e-06	3.291784e-10	9.171525e+00	2.061683e+01
9.200000e-07	1.458698e-06	8.336062e-10	1.024452e+01	5.388194e+01
9.300000e-07	1.610965e-06	1.356922e-09	1.131390e+01	8.794523e+01
9.400000e-07	1.762685e-06	1.892733e-09	1.237944e+01	1.224945e+02
9.500000e-07	1.913724e-06	2.429435e-09	1.344019e+01	1.571795e+02
9.600000e-07	2.064048e-06	2.960704e-09	1.449593e+01	1.916329e+02
9.700000e-07	2.213655e-06	3.477918e-09	1.554663e+01	2.254934e+02
9.800000e-07	2.362460e-06	3.977542e-09	1.659169e+01	2.584282e+02
9.900000e-07	2.510372e-06	4.456014e-09	1.763048e+01	2.901529e+02
1.000000e-06	2.657346e-06	4.908828e-09	1.866269e+01	3.204466e+02
1.010000e-06	2.803348e-06	5.335194e-09	1.968807e+01	3.491615e+02
1.020000e-06	2.948277e-06	5.739311e-09	2.070592e+01	3.762250e+02
1.030000e-06	3.092133e-06	6.123868e-09	2.171623e+01	4.016365e+02
1.040000e-06	3.234796e-06	6.484373e-09	2.271816e+01	4.254571e+02
1.050000e-06	3.376192e-06	6.823609e-09	2.371119e+01	4.477962e+02
1.060000e-06	3.516323e-06	7.146281e-09	2.469534e+01	4.687940e+02
1.070000e-06	3.655050e-06	7.453333e-09	2.566963e+01	4.886049e+02
1.080000e-06	3.792321e-06	7.743301e-09	2.663369e+01	5.073814e+02
1.090000e-06	3.928184e-06	8.018765e-09	2.758786e+01	5.252603e+02
1.100000e-06	4.062582e-06	8.282130e-09	2.853175e+01	5.423545e+02
1.110000e-06	4.195492e-06	8.530541e-09	2.946518e+01	5.587476e+02
1.120000e-06	4.327018e-06	8.766882e-09	3.038890e+01	5.744942e+02
1.130000e-06	4.457012e-06	8.993172e-09	3.130185e+01	5.896237e+02
1.140000e-06	4.585353e-06	9.210854e-09	3.220320e+01	6.041465e+02
1.150000e-06	4.712141e-06	9.417193e-09	3.309364e+01	6.180625e+02
1.160000e-06	4.837346e-06	9.613438e-09	3.397295e+01	6.313691e+02
1.170000e-06	4.960944e-06	9.802880e-09	3.484099e+01	6.440681e+02
1.180000e-06	5.082827e-06	9.984624e-09	3.569699e+01	6.561709e+02
1.190000e-06	5.202855e-06	1.016011e-08	3.653995e+01	6.677006e+02
1.200000e-06	5.320988e-06	1.032945e-08	3.736960e+01	6.786918e+02
1.210000e-06	5.437093e-06	1.049152e-08	3.818502e+01	6.891877e+02
1.220000e-06	5.551005e-06	1.064606e-08	3.898502e+01	6.992358e+02
1.230000e-06	5.662737e-06	1.079522e-08	3.976973e+01	7.088827e+02
1.240000e-06	5.772474e-06	1.093963e-08	4.054042e+01	7.181688e+02
1.250000e-06	5.880268e-06	1.107779e-08	4.129746e+01	7.271248e+02
1.260000e-06	5.985892e-06	1.120984e-08	4.203926e+01	7.357687e+02
1.270000e-06	6.089261e-06	1.133821e-08	4.276522e+01	7.441063e+02
1.280000e-06	6.190479e-06	1.145947e-08	4.347609e+01	7.521323e+02
1.290000e-06	6.289385e-06	1.157252e-08	4.417071e+01	7.598342e+02
1.300000e-06	6.385855e-06	1.168126e-08	4.484823e+01	7.671964e+02
1.310000e-06	6.479997e-06	1.178625e-08	4.550939e+01	7.742051e+02
1.320000e-06	6.571888e-06	1.188534e-08	4.615475e+01	7.808530e+02
1.330000e-06	6.661424e-06	1.197759e-08	4.678356e+01	7.871417e+02
1.340000e-06	6.748550e-06	1.206749e-08	4.739545e+01	7.930839e+02
1.350000e-06	6.833304e-06	1.215476e-08	4.799068e+01	7.987027e+02
1.360000e-06	6.915584e-06	1.223727e-08	4.856854e+01	8.040298e+02
1.370000e-06	6.995351e-06	1.231636e-08	4.912875e+01	8.091017e+02
1.380000e-06	7.072621e-06	1.239319e-08	4.967142e+01	8.139556e+02
1.390000e-06	7.147216e-06	1.246569e-08	5.019531e+01	8.186250e+02
1.400000e-06	7.219151e-06	1.253356e-08	5.070051e+01	8.231355e+02
1.410000e-06	7.288579e-06	1.259720e-08	5.118810e+01	8.275023e+02
1.420000e-06	7.355436e-06	1.265849e-08	5.165765e+01	8.317291e+02
1.430000e-06	7.419605e-06	1.272036e-08	5.210831e+01	8.358082e+02
1.440000e-06	7.481170e-06	1.277911e-08	5.254069e+01	8.397228e+02
1.450000e-06	7.540266e-06	1.283439e-08	5.295572e+01	8.434499e+02
1.460000e-06	7.596759e-06	1.288622e-08	5.335247e+01	8.469649e+02
1.470000e-06	7.650481e-06	1.293445e-08	5.372976e+01	8.502449e+02
1.480000e-06	7.701097e-06	1.298017e-08	5.408524e+01	8.532728e+02
1.490000e-06	7.748566e-06	1.302257e-08	5.441862e+01	8.560397e+02
1.500000e-06	7.793278e-06	1.306020e-08	5.473263e+01	8.585461e+02
1.510000e-06	7.835192e-06	1.309219e-08	5.502700e+01	8.608013e+02
1.520000e-06	7.874252e-06	1.312052e-08	5.530132e+01	8.628226e+02
1.530000e-06	7.910633e-06	1.314879e-08	5.555683e+01	8.646320e+02
1.540000e-06	7.944192e-06	1.317593e-08	5.579251e+01	8.662530e+02
1.550000e-06	7.974874e-06	1.319917e-08	5.600799e+01	8.677078e+02
1.560000e-06	8.002863e-06	1.321840e-08	5.620456e+01	8.690140e+02
1.570000e-06	8.027986e-06	1.323502e-08	5.638100e+01	8.701828e+02
1.580000e-06	8.050135e-06	1.325037e-08	5.653656e+01	8.712181e+02
1.590000e-06	8.069488e-06	1.326330e-08	5.667247e+01	8.721165e+02
1.600000e-06	8.085905e-06	1.327288e-08	5.678777e+01	8.728693e+02
1.610000e-06	8.099235e-06	1.327948e-08	5.688139e+01	8.734640e+02
1.620000e-06	8.109384e-06	1.328433e-08	5.695266e+01	8.738871e+02
1.630000e-06	8.116428e-06	1.328823e-08	5.700214e+01	8.741270e+02
1.640000e-06	8.120693e-06	1.329010e-08	5.703209e+01	8.741760e+02
1.650000e-06	8.122033e-06	1.329079e-08	5.704150e+01	8.740318e+02
1.660000e-06	8.120471e-06	1.328341e-08	5.703053e+01	8.736981e+02
1.670000e-06	8.116343e-06	1.327017e-08	5.700154e+01	8.731845e+02
1.680000e-06	8.109452e-06	1.326447e-08	5.695314e+01	8.725056e+02
1.690000e-06	8.099807e-06	1.325563e-08	5.688540e+01	8.716786e+02
1.700000e-06	8.087469e-06	1.324273e-08	5.679876e+01	8.707220e+02
1.710000e-06	8.072262e-06	1.323409e-08	5.669196e+01	8.696535e+02
1.720000e-06	8.054466e-06	1.323391e-08	5.656697e+01	8.684880e+02
1.730000e-06	8.034378e-06	1.322474e-08	5.642589e+01	8.672368e+02
1.740000e-06	8.011637e-06	1.310340e-08	5.626618e+01	8.659065e+02
1.750000e-06	7.985509e-06	1.308467e-08	5.608268e+01	8.644997e+02
1.760000e-06	7.955565e-06	1.311587e-08	5.587238e+01	8.630147e+02
1.770000e-06	7.922331e-06	1.307235e-08	5.563898e+01	8.614467e+02
1.780000e-06	7.886716e-06	1.305493e-08	5.538885e+01	8.597882e+02
1.790000e-06	7.848794e-06	1.313192e-08	5.512253e+01	8.580305e+02
1.800000e-06	7.808743e-06	1.305603e-08	5.484124e+01	8.561634e+02
1.810000e-06	7.766733e-06	1.289637e-08	5.454621e+01	8.541761e+02
1.820000e-06	7.722025e-06	1.304169e-08	5.423222e+01	8.520569e+02
1.830000e-06	7.674439e-06	1.290815e-08	5.389802e+01	8.497934e+02
1.840000e-06	7.624063e-06	1.292798e-08	5.354423e+01	8.473721e+02
1.850000e-06	7.570587e-06	1.298933e-08	5.316866e+01	8.447788e+02
1.860000e-06	7.514295e-06	1.282944e-08	5.277332e+01	8.419989e+02
1.870000e-06	7.455335e-06	1.287120e-08	5.235924e+01	8.390180e+02
1.880000e-06	7.393648e-06	1.269787e-08	5.192601e+01	8.358231e+02
1.890000e-06	7.329197e-06	1.270683e-08	5.147336e+01	8.324038e+02
1.900000e-06	7.261882e-06	1.268083e-08	5.100061e+01	8.287537e+02
1.910000e-06	7.191722e-06	1.255005e-08	5.050787e+01	8.248713e+02
1.920000e-06	7.118643e-06	1.254903e-08	4.999464e+01	8.207606e+02
1.930000e-06	7.042842e-06	1.242156e-08	4.946228e+01	8.164316e+02
1.940000e-06	6.964311e-06	1.241911e-08	4.891075e+01	8.118986e+02
1.950000e-06	6.883146e-06	1.230498e-08	4.834072e+01	8.071796e+02
1.960000e-06	6.799540e-06	1.225202e-08	4.775356e+01	8.022938e+02
1.970000e-06	6.713293e-06	1.220690e-08	4.714784e+01	7.972592e+02
1.980000e-06	6.624512e-06	1.206516e-08	4.652433e+01	7.920901e+02
1.990000e-06	6.533430e-06	1.202825e-08	4.588465e+01	7.867953e+02
2.000000e-06	6.440112e-06	1.193338e-08	4.522927e+01	7.813762e+02
2.010000e-06	6.344477e-06	1.188236e-08	4.455762e+01	7.758269e+02
2.020000e-06	6.246593e-06	1.174966e-08	4.387018e+01	7.701342e+02
2.030000e-06	6.146477e-06	1.165849e-08	4.316706e+01	7.642797e+02
2.040000e-06	6.044057e-06	1.157363e-08	4.244775e+01	7.582419e+02
2.050000e-06	5.939485e-06	1.148886e-08	4.171334e+01	7.519992e+02
2.060000e-06	5.832898e-06	1.140711e-08	4.096477e+01	7.455327e+02
2.070000e-06	5.724402e-06	1.128391e-08	4.020280e+01	7.388287e+02
2.080000e-06	5.613878e-06	1.118074e-08	3.942658e+01	7.318803e+02
2.090000e-06	5.501214e-06	1.104734e-08	3.863534e+01	7.246883e+02
2.100000e-06	5.386432e-06	1.094394e-08	3.782922e+01	7.172599e+02
2.110000e-06	5.269632e-06	1.083642e-08	3.700892e+01	7.096073e+02
2.120000e-06	5.150788e-06	1.074439e-08	3.617428e+01	7.017448e+02
2.130000e-06	5.029971e-06	1.060906e-08	3.532577e+01	6.936855e+02
2.140000e-06	4.907413e-06	1.047306e-08	3.446504e+01	6.854383e+02
2.150000e-06	4.783121e-06	1.034829e-08	3.359213e+01	6.770053e+02
2.160000e-06	4.657034e-06	1.022825e-08	3.270662e+01	6.683801e+02
2.170000e-06	4.529179e-06	1.009261e-08	3.180868e+01	6.595476e+02
2.180000e-06	4.399694e-06	9.939668e-09	3.089930e+01	6.504854e+02
2.190000e-06	4.268688e-06	9.795860e-09	2.997924e+01	6.411662e+02
2.200000e-06	4.136222e-06	9.643133e-09	2.904893e+01	6.315608e+02
2.210000e-06	4.002173e-06	9.494141e-09	2.810749e+01	6.216424e+02
2.220000e-06	3.866508e-06	9.344686e-09	2.715471e+01	6.113898e+02
2.230000e-06	3.729302e-06	9.196137e-09	2.619110e+01	6.007903e+02
2.240000e-06	3.590753e-06	9.022347e-09	2.521807e+01	5.898408e+02
2.250000e-06	3.450891e-06	8.846952e-09	2.423581e+01	5.785478e+02
2.260000e-06	3.309689e-06	8.678983e-09	2.324413e+01	5.669253e+02
2.270000e-06	3.167166e-06	8.508686e-09	2.224319e+01	5.549915e+02
2.280000e-06	3.023345e-06	8.319670e-09	2.123313e+01	5.427645e+02
2.290000e-06	2.878345e-06	8.120060e-09	2.021478e+01	5.302577e+02
2.300000e-06	2.732297e-06	7.923019e-09	1.918908e+01	5.174753e+02
2.310000e-06	2.585415e-06	7.726034e-09	1.815752e+01	5.044100e+02
2.320000e-06	2.437693e-06	7.527982e-09	1.712006e+01	4.910410e+02
2.330000e-06	2.289100e-06	7.323969e-09	1.607648e+01	4.773354e+02
2.340000e-06	2.139733e-06	7.107713e-09	1.502746e+01	4.632505e+02
2.350000e-06	1.989676e-06	6.877215e-09	1.397361e+01	4.487384e+02
2.360000e-06	1.838912e-06	6.641724e-09	1.291478e+01	4.337514e+02
2.370000e-06	1.687526e-06	6.406258e-09	1.185159e+01	4.182472e+02
2.380000e-06	1.535590e-06	6.165015e-09	1.078453e+01	4.021938e+02
2.390000e-06	1.383115e-06	5.913519e-09	9.713694e+00	3.855724e+02
2.400000e-06	1.230110e-06	5.651782e-09	8.639135e+00	3.683774e+02
2.410000e-06	1.076631e-06	5.381535e-09	7.561240e+00	3.506144e+02
2.420000e-06	9.227819e-07	5.106729e-09	6.480750e+00	3.322953e+02
2.430000e-06	7.686860e-07	4.825875e-09	5.398525e+00	3.134310e+02
2.440000e-06	6.144286e-07	4.535002e-09	4.315167e+00	2.940234e+02
2.450000e-06	4.600118e-07	4.230847e-09	3.230689e+00	2.740569e+02
2.460000e-06	3.054308e-07	3.914252e-09	2.145058e+00	2.534924e+02
2.470000e-06	1.506853e-07	3.584896e-09	1.058271e+00	2.322626e+02
2.480000e-06	-4.126051e-09	3.241035e-09	-2.897749e-02	2.102726e+02
2.490000e-06	-1.589100e-07	2.884112e-09	-1.116034e+00	1.874038e+02
2.500000e-06	-3.136673e-07	2.514339e-09	-2.202904e+00	1.635230e+02
2.510000e-06	-4.683758e-07	2.129307e-09	-3.289430e+00	1.384951e+02
2.520000e-06	-6.229607e-07	1.730574e-09	-4.375088e+00	1.121989e+02
2.530000e-06	-7.774023e-07	1.319063e-09	-5.459741e+00	8.454394e+01
2.540000e-06	-9.316523e-07	8.883622e-10	-6.543047e+00	5.548661e+01
2.550000e-06	-1.085645e-06	4.324288e-10	-7.624550e+00	2.504409e+01
2.560000e-06	-1.239237e-06	-4.799965e-11	-8.703233e+00	-6.696534e+00
2.570000e-06	-1.392291e-06	-5.502375e-10	-9.778140e+00	-3.957466e+01
2.580000e-06	-1.544781e-06	-1.070860e-09	-1.084908e+01	-7.335918e+01
2.590000e-06	-1.696699e-06	-1.604923e-09	-1.191601e+01	-1.077580e+02
2.600000e-06	-1.847999e-06	-2.145757e-09	-1.297860e+01	-1.424333e+02
2.610000e-06	-1.998585e-06	-2.685109e-09	-1.403618e+01	-1.770220e+02
2.620000e-06	-2.148417e-06	-3.217397e-09	-1.508845e+01	-2.111574e+02
2.630000e-06	-2.297426e-06	-3.732508e-09	-1.613495e+01	-2.444932e+02
2.640000e-06	-2.445540e-06	-4.221279e-09	-1.717517e+01	-2.767237e+02
2.650000e-06	-2.592738e-06	-4.685985e-09	-1.820895e+01	-3.076018e+02
2.660000e-06	-2.739064e-06	-5.127543e-09	-1.923660e+01	-3.369500e+02
2.670000e-06	-2.884412e-06	-5.543995e-09	-2.025739e+01	-3.646665e+02
2.680000e-06	-3.028664e-06	-5.938049e-09	-2.127048e+01	-3.907231e+02
2.690000e-06	-3.171679e-06	-6.311876e-09	-2.227488e+01	-4.151583e+02
2.700000e-06	-3.313337e-06	-6.665709e-09	-2.326976e+01	-4.380643e+02
2.710000e-06	-3.453641e-06	-6.999322e-09	-2.425512e+01	-4.595713e+02
2.720000e-06	-3.592616e-06	-7.312110e-09	-2.523114e+01	-4.798303e+02
2.730000e-06	-3.730308e-06	-7.609782e-09	-2.619817e+01	-4.989960e+02
2.740000e-06	-3.866678e-06	-7.893454e-09	-2.715590e+01	-5.172129e+02
2.750000e-06	-4.001621e-06	-8.161710e-09	-2.810361e+01	-5.346041e+02
2.760000e-06	-4.135098e-06	-8.417491e-09	-2.904103e+01	-5.512649e+02
2.770000e-06	-4.267133e-06	-8.662030e-09	-2.996831e+01	-5.672610e+02
2.780000e-06	-4.397727e-06	-8.895940e-09	-3.088549e+01	-5.826311e+02
2.790000e-06	-4.526898e-06	-9.120541e-09	-3.179266e+01	-5.973921e+02
2.800000e-06	-4.654502e-06	-9.336858e-09	-3.268883e+01	-6.115472e+02
2.810000e-06	-4.780385e-06	-9.545104e-09	-3.357292e+01	-6.250937e+02
2.820000e-06	-4.904583e-06	-9.743835e-09	-3.444517e+01	-6.380310e+02
2.830000e-06	-5.027097e-06	-9.932474e-09	-3.530558e+01	-6.503662e+02
2.840000e-06	-5.147820e-06	-1.011173e-08	-3.615344e+01	-6.621179e+02
2.850000e-06	-5.266576e-06	-1.028380e-08	-3.698746e+01	-6.733161e+02
2.860000e-06	-5.383255e-06	-1.044901e-08	-3.780690e+01	-6.840014e+02
2.870000e-06	-5.497768e-06	-1.060646e-08	-3.861113e+01	-6.942200e+02
2.880000e-06	-5.610018e-06	-1.075635e-08	-3.939948e+01	-7.040195e+02
2.890000e-06	-5.720134e-06	-1.089962e-08	-4.017283e+01	-7.134434e+02
2.900000e-06	-5.828255e-06	-1.103920e-08	-4.093217e+01	-7.225265e+02
2.910000e-06	-5.934379e-06	-1.117546e-08	-4.167748e+01	-7.312920e+02
2.920000e-06	-6.038367e-06	-1.130712e-08	-4.240780e+01	-7.397503e+02
2.930000e-06	-6.140060e-06	-1.143329e-08	-4.312199e+01	-7.479002e+02
2.940000e-06	-6.239463e-06	-1.155217e-08	-4.382010e+01	-7.557316e+02
