# Temperatura_=_53.37
# Concentracion g/m^3_=_15000.0
# C_Vs_to_Am_M_A/Vsm_=_65563218390.804596
# pendiente_HvsI_1/m_=_3716.3
# ordenada_HvsI_A/m_=_1297.0
# frecuencia_Hz_=_302338.8801355796

Tiempo_(s)	Campo_(V.s)	Magnetizacion_(V.s)	Campo_(kA/m)	Magnetizacion_(A/m)
0.000000e+00	-8.092451e-06	-1.100256e-08	-5.691712e+01	-7.194712e+02
1.000000e-08	-8.090110e-06	-1.100703e-08	-5.690065e+01	-7.191651e+02
2.000000e-08	-8.085054e-06	-1.100089e-08	-5.686510e+01	-7.187283e+02
3.000000e-08	-8.077451e-06	-1.099088e-08	-5.681162e+01	-7.181756e+02
4.000000e-08	-8.067000e-06	-1.098254e-08	-5.673812e+01	-7.175243e+02
5.000000e-08	-8.053563e-06	-1.096787e-08	-5.664361e+01	-7.167923e+02
6.000000e-08	-8.037233e-06	-1.094719e-08	-5.652875e+01	-7.159961e+02
7.000000e-08	-8.018355e-06	-1.092480e-08	-5.639598e+01	-7.151494e+02
8.000000e-08	-7.997157e-06	-1.089260e-08	-5.624688e+01	-7.142615e+02
9.000000e-08	-7.973239e-06	-1.096406e-08	-5.607866e+01	-7.133368e+02
1.000000e-07	-7.946165e-06	-1.098440e-08	-5.588824e+01	-7.123746e+02
1.100000e-07	-7.915988e-06	-1.089409e-08	-5.567599e+01	-7.113697e+02
1.200000e-07	-7.882848e-06	-1.085562e-08	-5.544291e+01	-7.103131e+02
1.300000e-07	-7.846847e-06	-1.083133e-08	-5.518970e+01	-7.091932e+02
1.400000e-07	-7.808404e-06	-1.078069e-08	-5.491932e+01	-7.079972e+02
1.500000e-07	-7.767710e-06	-1.070380e-08	-5.463310e+01	-7.067115e+02
1.600000e-07	-7.724632e-06	-1.080395e-08	-5.433012e+01	-7.053233e+02
1.700000e-07	-7.678861e-06	-1.081279e-08	-5.400820e+01	-7.038209e+02
1.800000e-07	-7.630278e-06	-1.063269e-08	-5.366649e+01	-7.021939e+02
1.900000e-07	-7.578764e-06	-1.076016e-08	-5.330418e+01	-7.004331e+02
2.000000e-07	-7.524291e-06	-1.067416e-08	-5.292105e+01	-6.985310e+02
2.100000e-07	-7.467024e-06	-1.054269e-08	-5.251827e+01	-6.964812e+02
2.200000e-07	-7.407083e-06	-1.057064e-08	-5.209668e+01	-6.942785e+02
2.300000e-07	-7.344601e-06	-1.050405e-08	-5.165722e+01	-6.919188e+02
2.400000e-07	-7.279348e-06	-1.053476e-08	-5.119827e+01	-6.893995e+02
2.500000e-07	-7.211238e-06	-1.043408e-08	-5.071923e+01	-6.867198e+02
2.600000e-07	-7.140445e-06	-1.043210e-08	-5.022132e+01	-6.838807e+02
2.700000e-07	-7.066790e-06	-1.040007e-08	-4.970328e+01	-6.808852e+02
2.800000e-07	-6.990283e-06	-1.032157e-08	-4.916517e+01	-6.777385e+02
2.900000e-07	-6.910972e-06	-1.025447e-08	-4.860736e+01	-6.744472e+02
3.000000e-07	-6.829000e-06	-1.021791e-08	-4.803081e+01	-6.710195e+02
3.100000e-07	-6.744742e-06	-1.023039e-08	-4.743820e+01	-6.674633e+02
3.200000e-07	-6.658139e-06	-1.009959e-08	-4.682909e+01	-6.637861e+02
3.300000e-07	-6.569080e-06	-1.004496e-08	-4.620271e+01	-6.599933e+02
3.400000e-07	-6.477664e-06	-1.001311e-08	-4.555974e+01	-6.560874e+02
3.500000e-07	-6.383967e-06	-9.928444e-09	-4.490074e+01	-6.520675e+02
3.600000e-07	-6.287972e-06	-9.843010e-09	-4.422557e+01	-6.479288e+02
3.700000e-07	-6.189589e-06	-9.793942e-09	-4.353361e+01	-6.436632e+02
3.800000e-07	-6.088942e-06	-9.757885e-09	-4.282572e+01	-6.392595e+02
3.900000e-07	-5.986171e-06	-9.661884e-09	-4.210289e+01	-6.347052e+02
4.000000e-07	-5.881300e-06	-9.583380e-09	-4.136530e+01	-6.299874e+02
4.100000e-07	-5.774355e-06	-9.514682e-09	-4.061312e+01	-6.250946e+02
4.200000e-07	-5.665372e-06	-9.443128e-09	-3.984660e+01	-6.200178e+02
4.300000e-07	-5.554382e-06	-9.345800e-09	-3.906597e+01	-6.147512e+02
4.400000e-07	-5.441385e-06	-9.264892e-09	-3.827122e+01	-6.092929e+02
4.500000e-07	-5.326238e-06	-9.200040e-09	-3.746135e+01	-6.036442e+02
4.600000e-07	-5.208938e-06	-9.117852e-09	-3.663634e+01	-5.978088e+02
4.700000e-07	-5.089781e-06	-9.013349e-09	-3.579826e+01	-5.917914e+02
4.800000e-07	-4.968858e-06	-8.914512e-09	-3.494777e+01	-5.855959e+02
4.900000e-07	-4.846049e-06	-8.821521e-09	-3.408401e+01	-5.792241e+02
5.000000e-07	-4.721444e-06	-8.715268e-09	-3.320761e+01	-5.726738e+02
5.100000e-07	-4.595208e-06	-8.608042e-09	-3.231975e+01	-5.659386e+02
5.200000e-07	-4.467279e-06	-8.499839e-09	-3.141998e+01	-5.590074e+02
5.300000e-07	-4.337735e-06	-8.395555e-09	-3.050885e+01	-5.518651e+02
5.400000e-07	-4.206565e-06	-8.277793e-09	-2.958629e+01	-5.444942e+02
5.500000e-07	-4.073782e-06	-8.160127e-09	-2.865238e+01	-5.368764e+02
5.600000e-07	-3.939541e-06	-8.040677e-09	-2.770821e+01	-5.289949e+02
5.700000e-07	-3.803837e-06	-7.920986e-09	-2.675376e+01	-5.208358e+02
5.800000e-07	-3.666714e-06	-7.787400e-09	-2.578932e+01	-5.123900e+02
5.900000e-07	-3.528036e-06	-7.650261e-09	-2.481395e+01	-5.036537e+02
6.000000e-07	-3.387789e-06	-7.512879e-09	-2.382754e+01	-4.946280e+02
6.100000e-07	-3.246155e-06	-7.369317e-09	-2.283137e+01	-4.853176e+02
6.200000e-07	-3.103266e-06	-7.221411e-09	-2.182639e+01	-4.757290e+02
6.300000e-07	-2.959189e-06	-7.068111e-09	-2.081304e+01	-4.658679e+02
6.400000e-07	-2.813880e-06	-6.919318e-09	-1.979103e+01	-4.557366e+02
6.500000e-07	-2.667580e-06	-6.764294e-09	-1.876205e+01	-4.453313e+02
6.600000e-07	-2.520483e-06	-6.604352e-09	-1.772747e+01	-4.346412e+02
6.700000e-07	-2.372572e-06	-6.435156e-09	-1.668715e+01	-4.236474e+02
6.800000e-07	-2.223878e-06	-6.259678e-09	-1.564134e+01	-4.123239e+02
6.900000e-07	-2.074449e-06	-6.076798e-09	-1.459034e+01	-4.006393e+02
7.000000e-07	-1.924342e-06	-5.887502e-09	-1.353459e+01	-3.885600e+02
7.100000e-07	-1.773593e-06	-5.694506e-09	-1.247432e+01	-3.760531e+02
7.200000e-07	-1.622276e-06	-5.494508e-09	-1.141005e+01	-3.630903e+02
7.300000e-07	-1.470394e-06	-5.290130e-09	-1.034181e+01	-3.496500e+02
7.400000e-07	-1.317943e-06	-5.079642e-09	-9.269571e+00	-3.357196e+02
7.500000e-07	-1.165063e-06	-4.864973e-09	-8.194310e+00	-3.212949e+02
7.600000e-07	-1.011813e-06	-4.644498e-09	-7.116446e+00	-3.063784e+02
7.700000e-07	-8.582479e-07	-4.416422e-09	-6.036367e+00	-2.909763e+02
7.800000e-07	-7.044643e-07	-4.173746e-09	-4.954751e+00	-2.750929e+02
7.900000e-07	-5.504426e-07	-3.921929e-09	-3.871461e+00	-2.587256e+02
8.000000e-07	-3.961821e-07	-3.664927e-09	-2.786491e+00	-2.418593e+02
8.100000e-07	-2.417862e-07	-3.399957e-09	-1.700570e+00	-2.244621e+02
8.200000e-07	-8.726940e-08	-3.120679e-09	-6.137971e-01	-2.064825e+02
8.300000e-07	6.731946e-08	-2.830457e-09	4.734820e-01	-1.878498e+02
8.400000e-07	2.219303e-07	-2.533787e-09	1.560916e+00	-1.684771e+02
8.500000e-07	3.764924e-07	-2.221556e-09	2.648007e+00	-1.482675e+02
8.600000e-07	5.308877e-07	-1.897842e-09	3.733925e+00	-1.271234e+02
8.700000e-07	6.851483e-07	-1.561669e-09	4.818895e+00	-1.049568e+02
8.800000e-07	8.392718e-07	-1.211495e-09	5.902901e+00	-8.170219e+01
8.900000e-07	9.931662e-07	-8.416236e-10	6.985295e+00	-5.732774e+01
9.000000e-07	1.146714e-06	-4.570448e-10	8.065250e+00	-3.184546e+01
9.100000e-07	1.299868e-06	-5.953900e-11	9.142440e+00	-5.318404e+00
9.200000e-07	1.452576e-06	3.560508e-10	1.021649e+01	2.213607e+01
9.300000e-07	1.604755e-06	7.856187e-10	1.128682e+01	5.034760e+01
9.400000e-07	1.756339e-06	1.227271e-09	1.235296e+01	7.909869e+01
9.500000e-07	1.907197e-06	1.672640e-09	1.341400e+01	1.081350e+02
9.600000e-07	2.057345e-06	2.119655e-09	1.447005e+01	1.371791e+02
9.700000e-07	2.206847e-06	2.561009e-09	1.552155e+01	1.659462e+02
9.800000e-07	2.355596e-06	2.991067e-09	1.656776e+01	1.941610e+02
9.900000e-07	2.503405e-06	3.409152e-09	1.760735e+01	2.215738e+02
1.000000e-06	2.650155e-06	3.808983e-09	1.863950e+01	2.479735e+02
1.010000e-06	2.795943e-06	4.187916e-09	1.966487e+01	2.731982e+02
1.020000e-06	2.940754e-06	4.545006e-09	2.068338e+01	2.971407e+02
1.030000e-06	3.084424e-06	4.884089e-09	2.169386e+01	3.197495e+02
1.040000e-06	3.226861e-06	5.203470e-09	2.269568e+01	3.410253e+02
1.050000e-06	3.368049e-06	5.504356e-09	2.368870e+01	3.610137e+02
1.060000e-06	3.507959e-06	5.788567e-09	2.467274e+01	3.797950e+02
1.070000e-06	3.646444e-06	6.059893e-09	2.564675e+01	3.974720e+02
1.080000e-06	3.783530e-06	6.318005e-09	2.661093e+01	4.141579e+02
1.090000e-06	3.919271e-06	6.561994e-09	2.756565e+01	4.299651e+02
1.100000e-06	4.053594e-06	6.794990e-09	2.851039e+01	4.449960e+02
1.110000e-06	4.186501e-06	7.013021e-09	2.944517e+01	4.593366e+02
1.120000e-06	4.317859e-06	7.219340e-09	3.036906e+01	4.730528e+02
1.130000e-06	4.447627e-06	7.416433e-09	3.128176e+01	4.861904e+02
1.140000e-06	4.575882e-06	7.605268e-09	3.218382e+01	4.987772e+02
1.150000e-06	4.702570e-06	7.782855e-09	3.307487e+01	5.108272e+02
1.160000e-06	4.827689e-06	7.951231e-09	3.395488e+01	5.223456e+02
1.170000e-06	4.951131e-06	8.113830e-09	3.482309e+01	5.333342e+02
1.180000e-06	5.072767e-06	8.272241e-09	3.567860e+01	5.437964e+02
1.190000e-06	5.192575e-06	8.426378e-09	3.652125e+01	5.537403e+02
1.200000e-06	5.310532e-06	8.574888e-09	3.735088e+01	5.631808e+02
1.210000e-06	5.426518e-06	8.714801e-09	3.816665e+01	5.721401e+02
1.220000e-06	5.540380e-06	8.846081e-09	3.896749e+01	5.806462e+02
1.230000e-06	5.652052e-06	8.970179e-09	3.975292e+01	5.887310e+02
1.240000e-06	5.761643e-06	9.087489e-09	4.052371e+01	5.964272e+02
1.250000e-06	5.869260e-06	9.198111e-09	4.128062e+01	6.037661e+02
1.260000e-06	5.974817e-06	9.302829e-09	4.202304e+01	6.107748e+02
1.270000e-06	6.078167e-06	9.404896e-09	4.274993e+01	6.174751e+02
1.280000e-06	6.179242e-06	9.501192e-09	4.346084e+01	6.238829e+02
1.290000e-06	6.277982e-06	9.592426e-09	4.415531e+01	6.300094e+02
1.300000e-06	6.374327e-06	9.680181e-09	4.483294e+01	6.358616e+02
1.310000e-06	6.468397e-06	9.763572e-09	4.549457e+01	6.414453e+02
1.320000e-06	6.560206e-06	9.841886e-09	4.614029e+01	6.467660e+02
1.330000e-06	6.649652e-06	9.915690e-09	4.676940e+01	6.518317e+02
1.340000e-06	6.736692e-06	9.988558e-09	4.738158e+01	6.566531e+02
1.350000e-06	6.821342e-06	1.005982e-08	4.797696e+01	6.612445e+02
1.360000e-06	6.903575e-06	1.012828e-08	4.855533e+01	6.656228e+02
1.370000e-06	6.983328e-06	1.019257e-08	4.911626e+01	6.698061e+02
1.380000e-06	7.060604e-06	1.025283e-08	4.965977e+01	6.738121e+02
1.390000e-06	7.135258e-06	1.031038e-08	5.018484e+01	6.776562e+02
1.400000e-06	7.207200e-06	1.036567e-08	5.069083e+01	6.813490e+02
1.410000e-06	7.276594e-06	1.042080e-08	5.117891e+01	6.848957e+02
1.420000e-06	7.343424e-06	1.047303e-08	5.164894e+01	6.882953e+02
1.430000e-06	7.407544e-06	1.052139e-08	5.209993e+01	6.915410e+02
1.440000e-06	7.469114e-06	1.056630e-08	5.253297e+01	6.946217e+02
1.450000e-06	7.528183e-06	1.060965e-08	5.294842e+01	6.975234e+02
1.460000e-06	7.584580e-06	1.064916e-08	5.334509e+01	7.002324e+02
1.470000e-06	7.638229e-06	1.068340e-08	5.372241e+01	7.027370e+02
1.480000e-06	7.688821e-06	1.071551e-08	5.407825e+01	7.050301e+02
1.490000e-06	7.736293e-06	1.074735e-08	5.441213e+01	7.071105e+02
1.500000e-06	7.780995e-06	1.077636e-08	5.472654e+01	7.089833e+02
1.510000e-06	7.822938e-06	1.080083e-08	5.502154e+01	7.106600e+02
1.520000e-06	7.862013e-06	1.082317e-08	5.529637e+01	7.121570e+02
1.530000e-06	7.898383e-06	1.084442e-08	5.555217e+01	7.134936e+02
1.540000e-06	7.931983e-06	1.086366e-08	5.578849e+01	7.146898e+02
1.550000e-06	7.962701e-06	1.088016e-08	5.600455e+01	7.157640e+02
1.560000e-06	7.990716e-06	1.089429e-08	5.620158e+01	7.167305e+02
1.570000e-06	8.015816e-06	1.090663e-08	5.637812e+01	7.175984e+02
1.580000e-06	8.037904e-06	1.091917e-08	5.653347e+01	7.183707e+02
1.590000e-06	8.057226e-06	1.092970e-08	5.666937e+01	7.190447e+02
1.600000e-06	8.073640e-06	1.093725e-08	5.678482e+01	7.196128e+02
1.610000e-06	8.087024e-06	1.094326e-08	5.687896e+01	7.200643e+02
1.620000e-06	8.097221e-06	1.094748e-08	5.695067e+01	7.203877e+02
1.630000e-06	8.104296e-06	1.094934e-08	5.700043e+01	7.205727e+02
1.640000e-06	8.108627e-06	1.095014e-08	5.703089e+01	7.206126e+02
1.650000e-06	8.110135e-06	1.095061e-08	5.704150e+01	7.205049e+02
1.660000e-06	8.108737e-06	1.094526e-08	5.703167e+01	7.202531e+02
1.670000e-06	8.104701e-06	1.093459e-08	5.700328e+01	7.198659e+02
1.680000e-06	8.097926e-06	1.093254e-08	5.695563e+01	7.193565e+02
1.690000e-06	8.088387e-06	1.092889e-08	5.688854e+01	7.187415e+02
1.700000e-06	8.076089e-06	1.092098e-08	5.680205e+01	7.180389e+02
1.710000e-06	8.060900e-06	1.091883e-08	5.669521e+01	7.172659e+02
1.720000e-06	8.043190e-06	1.092594e-08	5.657065e+01	7.164374e+02
1.730000e-06	8.023245e-06	1.093375e-08	5.643037e+01	7.155647e+02
1.740000e-06	8.000638e-06	1.079626e-08	5.627137e+01	7.146540e+02
1.750000e-06	7.974591e-06	1.078264e-08	5.608817e+01	7.137067e+02
1.760000e-06	7.944713e-06	1.083336e-08	5.587803e+01	7.127192e+02
1.770000e-06	7.911558e-06	1.079717e-08	5.564483e+01	7.116839e+02
1.780000e-06	7.876076e-06	1.079308e-08	5.539528e+01	7.105902e+02
1.790000e-06	7.838255e-06	1.089743e-08	5.512927e+01	7.094254e+02
1.800000e-06	7.798261e-06	1.082122e-08	5.484798e+01	7.081763e+02
1.810000e-06	7.756366e-06	1.061948e-08	5.455331e+01	7.068296e+02
1.820000e-06	7.711733e-06	1.082852e-08	5.423939e+01	7.053732e+02
1.830000e-06	7.664194e-06	1.068124e-08	5.390503e+01	7.037960e+02
1.840000e-06	7.613951e-06	1.070072e-08	5.355166e+01	7.020886e+02
1.850000e-06	7.560617e-06	1.078980e-08	5.317654e+01	7.002426e+02
1.860000e-06	7.504392e-06	1.062034e-08	5.278109e+01	6.982513e+02
1.870000e-06	7.445505e-06	1.073181e-08	5.236692e+01	6.961089e+02
1.880000e-06	7.383965e-06	1.052442e-08	5.193409e+01	6.938110e+02
1.890000e-06	7.319683e-06	1.055230e-08	5.148196e+01	6.913544e+02
1.900000e-06	7.252489e-06	1.055099e-08	5.100937e+01	6.887375e+02
1.910000e-06	7.182488e-06	1.039419e-08	5.051702e+01	6.859605e+02
1.920000e-06	7.109645e-06	1.045401e-08	5.000470e+01	6.830258e+02
1.930000e-06	7.034117e-06	1.035186e-08	4.947348e+01	6.799375e+02
1.940000e-06	6.955798e-06	1.038091e-08	4.892263e+01	6.767019e+02
1.950000e-06	6.874767e-06	1.024125e-08	4.835271e+01	6.733265e+02
1.960000e-06	6.791374e-06	1.020741e-08	4.776618e+01	6.698196e+02
1.970000e-06	6.705365e-06	1.021206e-08	4.716125e+01	6.661890e+02
1.980000e-06	6.616764e-06	1.006684e-08	4.653808e+01	6.624409e+02
1.990000e-06	6.525825e-06	1.007691e-08	4.589847e+01	6.585791e+02
2.000000e-06	6.432656e-06	1.000089e-08	4.524319e+01	6.546041e+02
2.010000e-06	6.337168e-06	9.978796e-09	4.457158e+01	6.505126e+02
2.020000e-06	6.239391e-06	9.845519e-09	4.388388e+01	6.462978e+02
2.030000e-06	6.139436e-06	9.790378e-09	4.318086e+01	6.419496e+02
2.040000e-06	6.037245e-06	9.741413e-09	4.246212e+01	6.374557e+02
2.050000e-06	5.932878e-06	9.668898e-09	4.172807e+01	6.328034e+02
2.060000e-06	5.826455e-06	9.609380e-09	4.097956e+01	6.279804e+02
2.070000e-06	5.718130e-06	9.511128e-09	4.021767e+01	6.229765e+02
2.080000e-06	5.607827e-06	9.452294e-09	3.944186e+01	6.177847e+02
2.090000e-06	5.495413e-06	9.332253e-09	3.865122e+01	6.124015e+02
2.100000e-06	5.380882e-06	9.259102e-09	3.784568e+01	6.068270e+02
2.110000e-06	5.264341e-06	9.174114e-09	3.702601e+01	6.010642e+02
2.120000e-06	5.145715e-06	9.103666e-09	3.619167e+01	5.951174e+02
2.130000e-06	5.025137e-06	8.995949e-09	3.534360e+01	5.889913e+02
2.140000e-06	4.902865e-06	8.909063e-09	3.448361e+01	5.826886e+02
2.150000e-06	4.778835e-06	8.821686e-09	3.361127e+01	5.762087e+02
2.160000e-06	4.653066e-06	8.720348e-09	3.272669e+01	5.695470e+02
2.170000e-06	4.525476e-06	8.607417e-09	3.182930e+01	5.626941e+02
2.180000e-06	4.396191e-06	8.484924e-09	3.092000e+01	5.556365e+02
2.190000e-06	4.265384e-06	8.380792e-09	2.999998e+01	5.483573e+02
2.200000e-06	4.133028e-06	8.261530e-09	2.906908e+01	5.408385e+02
2.210000e-06	3.999175e-06	8.149899e-09	2.812764e+01	5.330622e+02
2.220000e-06	3.863724e-06	8.029365e-09	2.717496e+01	5.250132e+02
2.230000e-06	3.726653e-06	7.911682e-09	2.621089e+01	5.166806e+02
2.240000e-06	3.588247e-06	7.775466e-09	2.523743e+01	5.080584e+02
2.250000e-06	3.448556e-06	7.644340e-09	2.425494e+01	4.991457e+02
2.260000e-06	3.307553e-06	7.510306e-09	2.326321e+01	4.899462e+02
2.270000e-06	3.165297e-06	7.369762e-09	2.226267e+01	4.804659e+02
2.280000e-06	3.021710e-06	7.213608e-09	2.125278e+01	4.707111e+02
2.290000e-06	2.876835e-06	7.051516e-09	2.023382e+01	4.606857e+02
2.300000e-06	2.730905e-06	6.894976e-09	1.920744e+01	4.503887e+02
2.310000e-06	2.584202e-06	6.737466e-09	1.817563e+01	4.398121e+02
2.320000e-06	2.436738e-06	6.576909e-09	1.713846e+01	4.289401e+02
2.330000e-06	2.288389e-06	6.408575e-09	1.609506e+01	4.177494e+02
2.340000e-06	2.139225e-06	6.233270e-09	1.504594e+01	4.062104e+02
2.350000e-06	1.989405e-06	6.049291e-09	1.399220e+01	3.942900e+02
2.360000e-06	1.838967e-06	5.859487e-09	1.293412e+01	3.819545e+02
2.370000e-06	1.687944e-06	5.661889e-09	1.187192e+01	3.691736e+02
2.380000e-06	1.536354e-06	5.456481e-09	1.080573e+01	3.559226e+02
2.390000e-06	1.384154e-06	5.245298e-09	9.735254e+00	3.421855e+02
2.400000e-06	1.231338e-06	5.027862e-09	8.660443e+00	3.279547e+02
2.410000e-06	1.078042e-06	4.803275e-09	7.582258e+00	3.132306e+02
2.420000e-06	9.243930e-07	4.575359e-09	6.501589e+00	2.980183e+02
2.430000e-06	7.704775e-07	4.342104e-09	5.419046e+00	2.823236e+02
2.440000e-06	6.164203e-07	4.099082e-09	4.335506e+00	2.661471e+02
2.450000e-06	4.622254e-07	3.845485e-09	3.250998e+00	2.494794e+02
2.460000e-06	3.078856e-07	3.583699e-09	2.165470e+00	2.322956e+02
2.470000e-06	1.534390e-07	3.309909e-09	1.079191e+00	2.145519e+02
2.480000e-06	-1.166717e-09	3.020392e-09	-8.205942e-03	1.961851e+02
2.490000e-06	-1.558248e-07	2.719893e-09	-1.095972e+00	1.771141e+02
2.500000e-06	-3.103544e-07	2.413441e-09	-2.182835e+00	1.572449e+02
2.510000e-06	-4.648139e-07	2.096938e-09	-3.269203e+00	1.364790e+02
2.520000e-06	-6.192051e-07	1.768712e-09	-4.355092e+00	1.147231e+02
2.530000e-06	-7.734367e-07	1.428056e-09	-5.439859e+00	9.190165e+01
2.540000e-06	-9.274554e-07	1.070175e-09	-6.523128e+00	6.796810e+01
2.550000e-06	-1.081223e-06	6.932186e-10	-7.604634e+00	4.291622e+01
2.560000e-06	-1.234689e-06	2.978967e-10	-8.684014e+00	1.678841e+01
2.570000e-06	-1.387670e-06	-1.148447e-10	-9.759979e+00	-1.031942e+01
2.580000e-06	-1.539988e-06	-5.450800e-10	-1.083129e+01	-3.825728e+01
2.590000e-06	-1.691568e-06	-9.866861e-10	-1.189741e+01	-6.682520e+01
2.600000e-06	-1.842454e-06	-1.433402e-09	-1.295864e+01	-9.578186e+01
2.610000e-06	-1.992756e-06	-1.882990e-09	-1.401577e+01	-1.248570e+02
2.620000e-06	-2.142402e-06	-2.331575e-09	-1.506828e+01	-1.537669e+02
2.630000e-06	-2.291189e-06	-2.771841e-09	-1.611476e+01	-1.822305e+02
2.640000e-06	-2.439043e-06	-3.195663e-09	-1.715467e+01	-2.099862e+02
2.650000e-06	-2.586032e-06	-3.602063e-09	-1.818849e+01	-2.368063e+02
2.660000e-06	-2.732163e-06	-3.991321e-09	-1.921629e+01	-2.625087e+02
2.670000e-06	-2.877357e-06	-4.364085e-09	-2.023749e+01	-2.869644e+02
2.680000e-06	-3.021407e-06	-4.718295e-09	-2.125064e+01	-3.101000e+02
2.690000e-06	-3.164142e-06	-5.050814e-09	-2.225455e+01	-3.318966e+02
2.700000e-06	-3.305578e-06	-5.362438e-09	-2.324932e+01	-3.523831e+02
2.710000e-06	-3.445736e-06	-5.655697e-09	-2.423510e+01	-3.716276e+02
2.720000e-06	-3.584635e-06	-5.934032e-09	-2.521203e+01	-3.897255e+02
2.730000e-06	-3.722257e-06	-6.198024e-09	-2.617998e+01	-4.067873e+02
2.740000e-06	-3.858442e-06	-6.446704e-09	-2.713781e+01	-4.229269e+02
2.750000e-06	-3.993190e-06	-6.682043e-09	-2.808554e+01	-4.382518e+02
2.760000e-06	-4.126526e-06	-6.909967e-09	-2.902334e+01	-4.528548e+02
2.770000e-06	-4.258408e-06	-7.129577e-09	-2.995092e+01	-4.668099e+02
2.780000e-06	-4.388864e-06	-7.339219e-09	-3.086846e+01	-4.801709e+02
2.790000e-06	-4.517873e-06	-7.539716e-09	-3.177583e+01	-4.929720e+02
2.800000e-06	-4.645265e-06	-7.728455e-09	-3.267182e+01	-5.052321e+02
2.810000e-06	-4.770998e-06	-7.903839e-09	-3.355615e+01	-5.169593e+02
2.820000e-06	-4.895158e-06	-8.068295e-09	-3.442941e+01	-5.281561e+02
2.830000e-06	-5.017625e-06	-8.225479e-09	-3.529076e+01	-5.388247e+02
2.840000e-06	-5.138200e-06	-8.377038e-09	-3.613881e+01	-5.489710e+02
2.850000e-06	-5.256755e-06	-8.524288e-09	-3.697265e+01	-5.586072e+02
2.860000e-06	-5.373215e-06	-8.665737e-09	-3.779176e+01	-5.677528e+02
2.870000e-06	-5.487470e-06	-8.801132e-09	-3.859535e+01	-5.764335e+02
2.880000e-06	-5.599547e-06	-8.929745e-09	-3.938363e+01	-5.846801e+02
2.890000e-06	-5.709574e-06	-9.053142e-09	-4.015749e+01	-5.925254e+02
2.900000e-06	-5.817628e-06	-9.172317e-09	-4.091747e+01	-6.000014e+02
2.910000e-06	-5.923671e-06	-9.283928e-09	-4.166331e+01	-6.071371e+02
2.920000e-06	-6.027535e-06	-9.387430e-09	-4.239383e+01	-6.139566e+02
2.930000e-06	-6.129121e-06	-9.485967e-09	-4.310832e+01	-6.204780e+02
2.940000e-06	-6.228466e-06	-9.581322e-09	-4.380704e+01	-6.267142e+02
