# Temperatura_=_32.68
# Concentracion g/m^3_=_15000.0
# C_Vs_to_Am_M_A/Vsm_=_65563218390.804596
# pendiente_HvsI_1/m_=_3716.3
# ordenada_HvsI_A/m_=_1297.0
# frecuencia_Hz_=_302339.475860387

Tiempo_(s)	Campo_(V.s)	Magnetizacion_(V.s)	Campo_(kA/m)	Magnetizacion_(A/m)
0.000000e+00	-8.142119e-06	-1.052338e-08	-5.689866e+01	-6.878454e+02
1.000000e-08	-8.137453e-06	-1.052155e-08	-5.686605e+01	-6.875331e+02
2.000000e-08	-8.130169e-06	-1.051737e-08	-5.681515e+01	-6.871189e+02
3.000000e-08	-8.120011e-06	-1.051248e-08	-5.674416e+01	-6.866128e+02
4.000000e-08	-8.106854e-06	-1.050505e-08	-5.665222e+01	-6.860250e+02
5.000000e-08	-8.090751e-06	-1.049375e-08	-5.653969e+01	-6.853648e+02
6.000000e-08	-8.072109e-06	-1.047758e-08	-5.640942e+01	-6.846391e+02
7.000000e-08	-8.051238e-06	-1.045686e-08	-5.626357e+01	-6.838527e+02
8.000000e-08	-8.027701e-06	-1.045423e-08	-5.609908e+01	-6.830079e+02
9.000000e-08	-8.000957e-06	-1.047099e-08	-5.591220e+01	-6.821046e+02
1.000000e-07	-7.970986e-06	-1.044266e-08	-5.570275e+01	-6.811408e+02
1.100000e-07	-7.938031e-06	-1.040320e-08	-5.547246e+01	-6.801133e+02
1.200000e-07	-7.902193e-06	-1.038276e-08	-5.522202e+01	-6.790181e+02
1.300000e-07	-7.863808e-06	-1.036143e-08	-5.495377e+01	-6.778510e+02
1.400000e-07	-7.823144e-06	-1.032579e-08	-5.466960e+01	-6.766078e+02
1.500000e-07	-7.780078e-06	-1.029972e-08	-5.436865e+01	-6.752842e+02
1.600000e-07	-7.734365e-06	-1.030523e-08	-5.404920e+01	-6.738757e+02
1.700000e-07	-7.685742e-06	-1.023358e-08	-5.370941e+01	-6.723774e+02
1.800000e-07	-7.634198e-06	-1.021950e-08	-5.334921e+01	-6.707835e+02
1.900000e-07	-7.579758e-06	-1.024637e-08	-5.296878e+01	-6.690871e+02
2.000000e-07	-7.522476e-06	-1.019337e-08	-5.256848e+01	-6.672803e+02
2.100000e-07	-7.462549e-06	-1.017808e-08	-5.214970e+01	-6.653544e+02
2.200000e-07	-7.400050e-06	-1.014131e-08	-5.171294e+01	-6.633005e+02
2.300000e-07	-7.334844e-06	-1.009596e-08	-5.125727e+01	-6.611101e+02
2.400000e-07	-7.266808e-06	-1.005273e-08	-5.078182e+01	-6.587761e+02
2.500000e-07	-7.195970e-06	-1.000412e-08	-5.028679e+01	-6.562940e+02
2.600000e-07	-7.122211e-06	-9.970880e-09	-4.977136e+01	-6.536616e+02
2.700000e-07	-7.045574e-06	-9.910508e-09	-4.923580e+01	-6.508807e+02
2.800000e-07	-6.966167e-06	-9.862963e-09	-4.868089e+01	-6.479556e+02
2.900000e-07	-6.884155e-06	-9.823543e-09	-4.810777e+01	-6.448937e+02
3.000000e-07	-6.799807e-06	-9.796597e-09	-4.751833e+01	-6.417037e+02
3.100000e-07	-6.713070e-06	-9.749507e-09	-4.691220e+01	-6.383949e+02
3.200000e-07	-6.623846e-06	-9.679692e-09	-4.628869e+01	-6.349752e+02
3.300000e-07	-6.532233e-06	-9.636503e-09	-4.564848e+01	-6.314501e+02
3.400000e-07	-6.438276e-06	-9.584515e-09	-4.499189e+01	-6.278217e+02
3.500000e-07	-6.341991e-06	-9.526533e-09	-4.431903e+01	-6.240879e+02
3.600000e-07	-6.243356e-06	-9.464726e-09	-4.362975e+01	-6.202424e+02
3.700000e-07	-6.142455e-06	-9.407577e-09	-4.292464e+01	-6.162754e+02
3.800000e-07	-6.039355e-06	-9.336918e-09	-4.220415e+01	-6.121745e+02
3.900000e-07	-5.934066e-06	-9.256888e-09	-4.146837e+01	-6.079266e+02
4.000000e-07	-5.826710e-06	-9.193150e-09	-4.071815e+01	-6.035189e+02
4.100000e-07	-5.717377e-06	-9.129746e-09	-3.995411e+01	-5.989408e+02
4.200000e-07	-5.605958e-06	-9.057292e-09	-3.917549e+01	-5.941852e+02
4.300000e-07	-5.492369e-06	-8.971742e-09	-3.838171e+01	-5.892483e+02
4.400000e-07	-5.376634e-06	-8.896307e-09	-3.757293e+01	-5.841302e+02
4.500000e-07	-5.258834e-06	-8.821965e-09	-3.674972e+01	-5.788338e+02
4.600000e-07	-5.139204e-06	-8.739896e-09	-3.591372e+01	-5.733634e+02
4.700000e-07	-5.017806e-06	-8.652471e-09	-3.506538e+01	-5.677232e+02
4.800000e-07	-4.894566e-06	-8.566426e-09	-3.420415e+01	-5.619153e+02
4.900000e-07	-4.769555e-06	-8.474727e-09	-3.333055e+01	-5.559385e+02
5.000000e-07	-4.642861e-06	-8.374365e-09	-3.244518e+01	-5.497866e+02
5.100000e-07	-4.514465e-06	-8.276312e-09	-3.154793e+01	-5.434491e+02
5.200000e-07	-4.384332e-06	-8.174177e-09	-3.063854e+01	-5.369108e+02
5.300000e-07	-4.252554e-06	-8.064603e-09	-2.971765e+01	-5.301533e+02
5.400000e-07	-4.119214e-06	-7.951584e-09	-2.878585e+01	-5.231571e+02
5.500000e-07	-3.984275e-06	-7.845723e-09	-2.784286e+01	-5.159035e+02
5.600000e-07	-3.847809e-06	-7.738195e-09	-2.688921e+01	-5.083765e+02
5.700000e-07	-3.709850e-06	-7.620310e-09	-2.592513e+01	-5.005649e+02
5.800000e-07	-3.570344e-06	-7.494233e-09	-2.495024e+01	-4.924630e+02
5.900000e-07	-3.429386e-06	-7.363811e-09	-2.396519e+01	-4.840705e+02
6.000000e-07	-3.287040e-06	-7.228090e-09	-2.297046e+01	-4.753920e+02
6.100000e-07	-3.143379e-06	-7.087438e-09	-2.196652e+01	-4.664347e+02
6.200000e-07	-2.998540e-06	-6.945786e-09	-2.095436e+01	-4.572060e+02
6.300000e-07	-2.852583e-06	-6.800794e-09	-1.993439e+01	-4.477109e+02
6.400000e-07	-2.705664e-06	-6.650282e-09	-1.890769e+01	-4.379491e+02
6.500000e-07	-2.557883e-06	-6.495311e-09	-1.787497e+01	-4.279131e+02
6.600000e-07	-2.409242e-06	-6.338717e-09	-1.683624e+01	-4.175872e+02
6.700000e-07	-2.259831e-06	-6.176098e-09	-1.579212e+01	-4.069475e+02
6.800000e-07	-2.109707e-06	-6.006837e-09	-1.474303e+01	-3.959637e+02
6.900000e-07	-1.958848e-06	-5.831932e-09	-1.368880e+01	-3.846011e+02
7.000000e-07	-1.807351e-06	-5.651030e-09	-1.263011e+01	-3.728244e+02
7.100000e-07	-1.655203e-06	-5.463920e-09	-1.156687e+01	-3.606013e+02
7.200000e-07	-1.502375e-06	-5.269108e-09	-1.049888e+01	-3.479051e+02
7.300000e-07	-1.349007e-06	-5.068906e-09	-9.427114e+00	-3.347179e+02
7.400000e-07	-1.195167e-06	-4.860389e-09	-8.352052e+00	-3.210309e+02
7.500000e-07	-1.040924e-06	-4.645934e-09	-7.274173e+00	-3.068438e+02
7.600000e-07	-8.863807e-07	-4.424780e-09	-6.194195e+00	-2.921626e+02
7.700000e-07	-7.315205e-07	-4.194293e-09	-5.112003e+00	-2.769949e+02
7.800000e-07	-5.763309e-07	-3.956164e-09	-4.027509e+00	-2.613456e+02
7.900000e-07	-4.209564e-07	-3.710638e-09	-2.941723e+00	-2.452106e+02
8.000000e-07	-2.654306e-07	-3.458085e-09	-1.854879e+00	-2.285729e+02
8.100000e-07	-1.097209e-07	-3.194924e-09	-7.667504e-01	-2.113979e+02
8.200000e-07	4.607526e-08	-2.922659e-09	3.219826e-01	-1.936330e+02
8.300000e-07	2.018525e-07	-2.638632e-09	1.410584e+00	-1.752084e+02
8.400000e-07	3.575372e-07	-2.340297e-09	2.498538e+00	-1.560413e+02
8.500000e-07	5.131079e-07	-2.030251e-09	3.585695e+00	-1.360431e+02
8.600000e-07	6.685575e-07	-1.710618e-09	4.672006e+00	-1.151286e+02
8.700000e-07	8.237857e-07	-1.379774e-09	5.756770e+00	-9.322666e+01
8.800000e-07	9.787357e-07	-1.033368e-09	6.839590e+00	-7.029158e+01
8.900000e-07	1.133404e-06	-6.712869e-10	7.920439e+00	-4.631312e+01
9.000000e-07	1.287701e-06	-2.956506e-10	8.998697e+00	-2.132472e+01
9.100000e-07	1.441493e-06	9.592407e-11	1.007342e+01	4.591531e+00
9.200000e-07	1.594729e-06	5.008748e-10	1.114427e+01	3.130378e+01
9.300000e-07	1.747342e-06	9.154991e-10	1.221076e+01	5.863358e+01
9.400000e-07	1.899250e-06	1.340077e-09	1.327232e+01	8.636319e+01
9.500000e-07	2.050454e-06	1.768996e-09	1.432896e+01	1.142465e+02
9.600000e-07	2.200912e-06	2.196145e-09	1.538039e+01	1.420224e+02
9.700000e-07	2.350546e-06	2.614611e-09	1.642606e+01	1.694302e+02
9.800000e-07	2.499309e-06	3.023013e-09	1.746564e+01	1.962240e+02
9.900000e-07	2.647131e-06	3.418226e-09	1.849865e+01	2.221868e+02
1.000000e-06	2.794008e-06	3.793016e-09	1.952505e+01	2.471408e+02
1.010000e-06	2.939874e-06	4.147166e-09	2.054439e+01	2.709558e+02
1.020000e-06	3.084589e-06	4.483563e-09	2.155569e+01	2.935514e+02
1.030000e-06	3.228136e-06	4.804125e-09	2.255882e+01	3.148970e+02
1.040000e-06	3.370509e-06	5.108646e-09	2.355375e+01	3.350066e+02
1.050000e-06	3.511639e-06	5.397846e-09	2.454000e+01	3.539315e+02
1.060000e-06	3.651344e-06	5.671459e-09	2.551628e+01	3.717499e+02
1.070000e-06	3.789556e-06	5.926909e-09	2.648213e+01	3.885564e+02
1.080000e-06	3.926315e-06	6.168225e-09	2.743783e+01	4.044512e+02
1.090000e-06	4.061574e-06	6.399190e-09	2.838304e+01	4.195313e+02
1.100000e-06	4.195378e-06	6.619413e-09	2.931809e+01	4.338824e+02
1.110000e-06	4.327740e-06	6.825921e-09	3.024306e+01	4.475751e+02
1.120000e-06	4.458563e-06	7.021818e-09	3.115728e+01	4.606622e+02
1.130000e-06	4.587780e-06	7.211075e-09	3.206027e+01	4.731797e+02
1.140000e-06	4.715411e-06	7.390816e-09	3.295218e+01	4.851491e+02
1.150000e-06	4.841459e-06	7.560856e-09	3.383303e+01	4.965814e+02
1.160000e-06	4.965861e-06	7.722956e-09	3.470238e+01	5.074815e+02
1.170000e-06	5.088585e-06	7.879319e-09	3.555999e+01	5.178531e+02
1.180000e-06	5.209456e-06	8.030494e-09	3.640466e+01	5.277021e+02
1.190000e-06	5.328436e-06	8.175323e-09	3.723611e+01	5.370391e+02
1.200000e-06	5.445506e-06	8.311433e-09	3.805422e+01	5.458815e+02
1.210000e-06	5.560403e-06	8.439012e-09	3.885714e+01	5.542524e+02
1.220000e-06	5.673034e-06	8.559468e-09	3.964423e+01	5.621802e+02
1.230000e-06	5.783582e-06	8.672877e-09	4.041676e+01	5.696966e+02
1.240000e-06	5.892160e-06	8.778058e-09	4.117553e+01	5.768340e+02
1.250000e-06	5.998668e-06	8.878704e-09	4.191982e+01	5.836236e+02
1.260000e-06	6.102969e-06	8.978559e-09	4.264870e+01	5.900936e+02
1.270000e-06	6.204992e-06	9.074982e-09	4.336165e+01	5.962677e+02
1.280000e-06	6.304725e-06	9.164524e-09	4.405861e+01	6.021655e+02
1.290000e-06	6.402086e-06	9.248658e-09	4.473899e+01	6.078020e+02
1.300000e-06	6.497067e-06	9.328483e-09	4.540273e+01	6.131892e+02
1.310000e-06	6.589766e-06	9.403998e-09	4.605053e+01	6.183368e+02
1.320000e-06	6.680115e-06	9.475333e-09	4.668190e+01	6.232534e+02
1.330000e-06	6.768031e-06	9.544289e-09	4.729628e+01	6.279480e+02
1.340000e-06	6.853546e-06	9.612313e-09	4.789387e+01	6.324301e+02
1.350000e-06	6.936664e-06	9.678271e-09	4.847472e+01	6.367097e+02
1.360000e-06	7.017275e-06	9.742161e-09	4.903804e+01	6.407972e+02
1.370000e-06	7.095346e-06	9.803411e-09	4.958361e+01	6.447026e+02
1.380000e-06	7.170831e-06	9.860140e-09	5.011112e+01	6.484343e+02
1.390000e-06	7.243614e-06	9.913283e-09	5.061974e+01	6.519982e+02
1.400000e-06	7.313788e-06	9.963790e-09	5.111013e+01	6.553973e+02
1.410000e-06	7.381418e-06	1.001093e-08	5.158274e+01	6.586314e+02
1.420000e-06	7.446391e-06	1.005578e-08	5.203678e+01	6.616971e+02
1.430000e-06	7.508690e-06	1.009727e-08	5.247214e+01	6.645889e+02
1.440000e-06	7.568412e-06	1.013649e-08	5.288949e+01	6.673002e+02
1.450000e-06	7.625537e-06	1.017360e-08	5.328869e+01	6.698248e+02
1.460000e-06	7.679940e-06	1.020576e-08	5.366887e+01	6.721585e+02
1.470000e-06	7.731360e-06	1.023567e-08	5.402820e+01	6.743000e+02
1.480000e-06	7.779642e-06	1.026586e-08	5.436561e+01	6.762519e+02
1.490000e-06	7.825026e-06	1.029143e-08	5.468276e+01	6.780210e+02
1.500000e-06	7.867659e-06	1.031328e-08	5.498069e+01	6.796178e+02
1.510000e-06	7.907412e-06	1.033380e-08	5.525849e+01	6.810556e+02
1.520000e-06	7.944358e-06	1.035462e-08	5.551667e+01	6.823494e+02
1.530000e-06	7.978573e-06	1.037416e-08	5.575577e+01	6.835139e+02
1.540000e-06	8.009940e-06	1.039087e-08	5.597497e+01	6.845624e+02
1.550000e-06	8.038499e-06	1.040362e-08	5.617454e+01	6.855053e+02
1.560000e-06	8.064186e-06	1.041408e-08	5.635405e+01	6.863493e+02
1.570000e-06	8.086845e-06	1.042636e-08	5.651240e+01	6.870968e+02
1.580000e-06	8.106681e-06	1.043779e-08	5.665102e+01	6.877467e+02
1.590000e-06	8.123694e-06	1.044637e-08	5.676990e+01	6.882947e+02
1.600000e-06	8.137610e-06	1.045206e-08	5.686716e+01	6.887348e+02
1.610000e-06	8.148370e-06	1.045653e-08	5.694235e+01	6.890606e+02
1.620000e-06	8.156021e-06	1.045957e-08	5.699581e+01	6.892668e+02
1.630000e-06	8.160749e-06	1.046023e-08	5.702885e+01	6.893501e+02
1.640000e-06	8.162559e-06	1.046009e-08	5.704150e+01	6.893103e+02
1.650000e-06	8.161513e-06	1.045960e-08	5.703419e+01	6.891504e+02
1.660000e-06	8.157804e-06	1.045354e-08	5.700827e+01	6.888765e+02
1.670000e-06	8.151322e-06	1.044821e-08	5.696298e+01	6.884971e+02
1.680000e-06	8.142095e-06	1.044241e-08	5.689850e+01	6.880222e+02
1.690000e-06	8.130185e-06	1.043506e-08	5.681527e+01	6.874622e+02
1.700000e-06	8.115375e-06	1.042785e-08	5.671177e+01	6.868265e+02
1.710000e-06	8.097894e-06	1.042338e-08	5.658961e+01	6.861231e+02
1.720000e-06	8.078102e-06	1.042040e-08	5.645130e+01	6.853576e+02
1.730000e-06	8.055683e-06	1.038464e-08	5.629463e+01	6.845332e+02
1.740000e-06	8.029967e-06	1.034022e-08	5.611492e+01	6.836506e+02
1.750000e-06	8.000463e-06	1.034769e-08	5.590874e+01	6.827083e+02
1.760000e-06	7.967506e-06	1.034369e-08	5.567843e+01	6.817036e+02
1.770000e-06	7.932034e-06	1.032748e-08	5.543055e+01	6.806327e+02
1.780000e-06	7.894298e-06	1.033834e-08	5.516684e+01	6.794914e+02
1.790000e-06	7.854327e-06	1.034086e-08	5.488752e+01	6.782755e+02
1.800000e-06	7.812353e-06	1.027722e-08	5.459420e+01	6.769807e+02
1.810000e-06	7.767889e-06	1.030824e-08	5.428347e+01	6.756027e+02
1.820000e-06	7.720600e-06	1.032601e-08	5.395301e+01	6.741367e+02
1.830000e-06	7.670510e-06	1.024728e-08	5.360297e+01	6.725773e+02
1.840000e-06	7.617241e-06	1.025869e-08	5.323072e+01	6.709179e+02
1.850000e-06	7.561035e-06	1.018429e-08	5.283794e+01	6.691512e+02
1.860000e-06	7.502171e-06	1.016023e-08	5.242658e+01	6.672685e+02
1.870000e-06	7.440547e-06	1.014914e-08	5.199594e+01	6.652609e+02
1.880000e-06	7.376179e-06	1.010878e-08	5.154613e+01	6.631198e+02
1.890000e-06	7.308933e-06	1.012875e-08	5.107620e+01	6.608374e+02
1.900000e-06	7.238844e-06	1.004912e-08	5.058641e+01	6.584082e+02
1.910000e-06	7.165897e-06	1.000958e-08	5.007664e+01	6.558291e+02
1.920000e-06	7.090194e-06	9.966836e-09	4.954761e+01	6.531005e+02
1.930000e-06	7.011776e-06	9.932018e-09	4.899961e+01	6.502258e+02
1.940000e-06	6.930668e-06	9.899093e-09	4.843281e+01	6.472114e+02
1.950000e-06	6.847084e-06	9.820107e-09	4.784871e+01	6.440657e+02
1.960000e-06	6.760831e-06	9.797806e-09	4.724596e+01	6.407979e+02
1.970000e-06	6.671986e-06	9.726612e-09	4.662510e+01	6.374167e+02
1.980000e-06	6.580816e-06	9.676180e-09	4.598798e+01	6.339284e+02
1.990000e-06	6.487380e-06	9.634265e-09	4.533504e+01	6.303366e+02
2.000000e-06	6.391666e-06	9.580127e-09	4.466617e+01	6.266406e+02
2.010000e-06	6.293676e-06	9.511135e-09	4.398139e+01	6.228356e+02
2.020000e-06	6.193409e-06	9.432519e-09	4.328071e+01	6.189129e+02
2.030000e-06	6.090843e-06	9.391446e-09	4.256396e+01	6.148609e+02
2.040000e-06	5.986109e-06	9.332368e-09	4.183206e+01	6.106666e+02
2.050000e-06	5.879320e-06	9.268931e-09	4.108579e+01	6.063169e+02
2.060000e-06	5.770547e-06	9.185816e-09	4.032567e+01	6.018004e+02
2.070000e-06	5.659723e-06	9.115329e-09	3.955121e+01	5.971084e+02
2.080000e-06	5.546822e-06	9.041040e-09	3.876224e+01	5.922360e+02
2.090000e-06	5.431805e-06	8.969598e-09	3.795847e+01	5.871820e+02
2.100000e-06	5.314739e-06	8.905074e-09	3.714040e+01	5.819485e+02
2.110000e-06	5.195675e-06	8.826411e-09	3.630836e+01	5.765393e+02
2.120000e-06	5.074640e-06	8.729059e-09	3.546254e+01	5.709590e+02
2.130000e-06	4.951783e-06	8.629532e-09	3.460399e+01	5.652106e+02
2.140000e-06	4.827139e-06	8.549845e-09	3.373296e+01	5.592942e+02
2.150000e-06	4.700712e-06	8.466141e-09	3.284946e+01	5.532054e+02
2.160000e-06	4.572546e-06	8.373714e-09	3.195381e+01	5.469354e+02
2.170000e-06	4.442722e-06	8.270130e-09	3.104658e+01	5.404703e+02
2.180000e-06	4.311246e-06	8.168837e-09	3.012780e+01	5.337930e+02
2.190000e-06	4.178261e-06	8.060484e-09	2.919848e+01	5.268839e+02
2.200000e-06	4.043772e-06	7.950933e-09	2.825864e+01	5.197239e+02
2.210000e-06	3.907677e-06	7.840354e-09	2.730758e+01	5.122957e+02
2.220000e-06	3.770057e-06	7.722520e-09	2.634587e+01	5.045863e+02
2.230000e-06	3.630979e-06	7.597076e-09	2.537396e+01	4.965880e+02
2.240000e-06	3.490520e-06	7.473149e-09	2.439241e+01	4.882986e+02
2.250000e-06	3.348720e-06	7.352997e-09	2.340149e+01	4.797212e+02
2.260000e-06	3.205625e-06	7.225147e-09	2.240151e+01	4.708622e+02
2.270000e-06	3.061200e-06	7.085432e-09	2.139224e+01	4.617293e+02
2.280000e-06	2.915621e-06	6.938899e-09	2.037491e+01	4.523286e+02
2.290000e-06	2.769037e-06	6.792971e-09	1.935055e+01	4.426621e+02
2.300000e-06	2.621503e-06	6.647043e-09	1.831956e+01	4.327251e+02
2.310000e-06	2.473177e-06	6.496915e-09	1.728302e+01	4.225046e+02
2.320000e-06	2.324077e-06	6.335323e-09	1.624109e+01	4.119798e+02
2.330000e-06	2.174108e-06	6.163887e-09	1.519308e+01	4.011223e+02
2.340000e-06	2.023329e-06	5.986309e-09	1.413941e+01	3.898987e+02
2.350000e-06	1.871951e-06	5.807976e-09	1.308155e+01	3.782735e+02
2.360000e-06	1.720000e-06	5.627077e-09	1.201968e+01	3.662129e+02
2.370000e-06	1.567456e-06	5.437408e-09	1.095367e+01	3.536878e+02
2.380000e-06	1.414393e-06	5.240516e-09	9.884047e+00	3.406771e+02
2.390000e-06	1.260835e-06	5.033505e-09	8.810953e+00	3.271686e+02
2.400000e-06	1.106797e-06	4.816937e-09	7.734506e+00	3.131593e+02
2.410000e-06	9.523476e-07	4.596946e-09	6.655185e+00	2.986533e+02
2.420000e-06	7.975765e-07	4.372646e-09	5.573615e+00	2.836582e+02
2.430000e-06	6.425812e-07	4.140189e-09	4.490479e+00	2.681804e+02
2.440000e-06	4.873556e-07	3.897753e-09	3.405733e+00	2.522197e+02
2.450000e-06	3.319115e-07	3.649726e-09	2.319460e+00	2.357641e+02
2.460000e-06	1.763437e-07	3.392034e-09	1.232323e+00	2.187857e+02
2.470000e-06	2.068830e-08	3.119512e-09	1.445737e-01	2.012384e+02
2.480000e-06	-1.350423e-07	2.834387e-09	-9.437012e-01	1.830580e+02
2.490000e-06	-2.907648e-07	2.539268e-09	-2.031919e+00	1.641657e+02
2.500000e-06	-4.463927e-07	2.235005e-09	-3.119476e+00	1.444741e+02
2.510000e-06	-6.018494e-07	1.921666e-09	-4.205837e+00	1.238956e+02
2.520000e-06	-7.570987e-07	1.600459e-09	-5.290749e+00	1.023527e+02
2.530000e-06	-9.121086e-07	1.264099e-09	-6.373987e+00	7.978948e+01
2.540000e-06	-1.066793e-06	9.081608e-10	-7.454948e+00	5.618185e+01
2.550000e-06	-1.221099e-06	5.349073e-10	-8.533273e+00	3.154694e+01
2.560000e-06	-1.375032e-06	1.463086e-10	-9.608980e+00	5.949108e+00
2.570000e-06	-1.528445e-06	-2.570519e-10	-1.068106e+01	-2.049742e+01
2.580000e-06	-1.681257e-06	-6.749860e-10	-1.174894e+01	-4.763020e+01
2.590000e-06	-1.833432e-06	-1.103636e-09	-1.281237e+01	-7.524444e+01
2.600000e-06	-1.984873e-06	-1.536552e-09	-1.387066e+01	-1.031027e+02
2.610000e-06	-2.135523e-06	-1.968331e-09	-1.492343e+01	-1.309477e+02
2.620000e-06	-2.285323e-06	-2.395003e-09	-1.597027e+01	-1.585166e+02
2.630000e-06	-2.434272e-06	-2.807885e-09	-1.701115e+01	-1.855568e+02
2.640000e-06	-2.582368e-06	-3.206338e-09	-1.804607e+01	-2.118393e+02
2.650000e-06	-2.729557e-06	-3.593492e-09	-1.907466e+01	-2.371716e+02
2.660000e-06	-2.875787e-06	-3.965146e-09	-2.009654e+01	-2.614056e+02
2.670000e-06	-3.020939e-06	-4.315619e-09	-2.111089e+01	-2.844430e+02
2.680000e-06	-3.164839e-06	-4.645726e-09	-2.211649e+01	-3.062360e+02
2.690000e-06	-3.307438e-06	-4.958857e-09	-2.311300e+01	-3.267833e+02
2.700000e-06	-3.448772e-06	-5.256287e-09	-2.410067e+01	-3.461239e+02
2.710000e-06	-3.588778e-06	-5.536633e-09	-2.507906e+01	-3.643276e+02
2.720000e-06	-3.727463e-06	-5.800808e-09	-2.604822e+01	-3.814844e+02
2.730000e-06	-3.864814e-06	-6.050504e-09	-2.700805e+01	-3.976937e+02
2.740000e-06	-4.000681e-06	-6.287133e-09	-2.795751e+01	-4.130546e+02
2.750000e-06	-4.135080e-06	-6.514553e-09	-2.889672e+01	-4.276575e+02
2.760000e-06	-4.268043e-06	-6.731762e-09	-2.982589e+01	-4.415787e+02
2.770000e-06	-4.399500e-06	-6.938676e-09	-3.074454e+01	-4.548775e+02
2.780000e-06	-4.529459e-06	-7.135469e-09	-3.165272e+01	-4.675957e+02
2.790000e-06	-4.657839e-06	-7.321523e-09	-3.254986e+01	-4.797595e+02
2.800000e-06	-4.784602e-06	-7.498061e-09	-3.343570e+01	-4.913832e+02
2.810000e-06	-4.909782e-06	-7.665127e-09	-3.431048e+01	-5.024734e+02
2.820000e-06	-5.033261e-06	-7.822688e-09	-3.517338e+01	-5.130336e+02
2.830000e-06	-5.154899e-06	-7.971530e-09	-3.602341e+01	-5.230687e+02
2.840000e-06	-5.274574e-06	-8.114927e-09	-3.685972e+01	-5.325873e+02
2.850000e-06	-5.392196e-06	-8.252954e-09	-3.768168e+01	-5.416043e+02
2.860000e-06	-5.507631e-06	-8.385806e-09	-3.848836e+01	-5.501410e+02
2.870000e-06	-5.620774e-06	-8.513359e-09	-3.927903e+01	-5.582239e+02
2.880000e-06	-5.731742e-06	-8.633874e-09	-4.005449e+01	-5.658839e+02
2.890000e-06	-5.840707e-06	-8.749307e-09	-4.081596e+01	-5.731534e+02
2.900000e-06	-5.947700e-06	-8.858141e-09	-4.156365e+01	-5.800641e+02
2.910000e-06	-6.052573e-06	-8.960354e-09	-4.229652e+01	-5.866456e+02
2.920000e-06	-6.155190e-06	-9.055808e-09	-4.301363e+01	-5.929233e+02
2.930000e-06	-6.255518e-06	-9.145698e-09	-4.371474e+01	-5.989183e+02
2.940000e-06	-6.353616e-06	-9.231134e-09	-4.440027e+01	-6.046470e+02
