# Temperatura_=_68.21
# Concentracion g/m^3_=_15000.0
# C_Vs_to_Am_M_A/Vsm_=_65563218390.804596
# pendiente_HvsI_1/m_=_3716.3
# ordenada_HvsI_A/m_=_1297.0
# frecuencia_Hz_=_302340.57567775564

Tiempo_(s)	Campo_(V.s)	Magnetizacion_(V.s)	Campo_(kA/m)	Magnetizacion_(A/m)
0.000000e+00	-8.172926e-06	-1.214838e-08	-5.692034e+01	-7.951301e+02
1.000000e-08	-8.170243e-06	-1.215335e-08	-5.690165e+01	-7.948048e+02
2.000000e-08	-8.164857e-06	-1.214809e-08	-5.686414e+01	-7.943392e+02
3.000000e-08	-8.156896e-06	-1.214140e-08	-5.680869e+01	-7.937442e+02
4.000000e-08	-8.146047e-06	-1.213419e-08	-5.673313e+01	-7.930312e+02
5.000000e-08	-8.132175e-06	-1.212000e-08	-5.663652e+01	-7.922106e+02
6.000000e-08	-8.115387e-06	-1.209957e-08	-5.651961e+01	-7.912912e+02
7.000000e-08	-8.096099e-06	-1.207241e-08	-5.638527e+01	-7.902791e+02
8.000000e-08	-8.074500e-06	-1.205015e-08	-5.623485e+01	-7.891783e+02
9.000000e-08	-8.050137e-06	-1.211461e-08	-5.606517e+01	-7.879905e+02
1.000000e-07	-8.022544e-06	-1.209854e-08	-5.587300e+01	-7.867161e+02
1.100000e-07	-7.991755e-06	-1.201028e-08	-5.565857e+01	-7.853546e+02
1.200000e-07	-7.958020e-06	-1.198057e-08	-5.542362e+01	-7.839051e+02
1.300000e-07	-7.921431e-06	-1.196271e-08	-5.516880e+01	-7.823670e+02
1.400000e-07	-7.882353e-06	-1.192102e-08	-5.489664e+01	-7.807392e+02
1.500000e-07	-7.840983e-06	-1.183491e-08	-5.460852e+01	-7.790204e+02
1.600000e-07	-7.797208e-06	-1.189780e-08	-5.430365e+01	-7.772080e+02
1.700000e-07	-7.750754e-06	-1.185204e-08	-5.398012e+01	-7.752973e+02
1.800000e-07	-7.701386e-06	-1.170952e-08	-5.363630e+01	-7.732809e+02
1.900000e-07	-7.649095e-06	-1.182479e-08	-5.327211e+01	-7.711481e+02
2.000000e-07	-7.593863e-06	-1.175240e-08	-5.288745e+01	-7.688851e+02
2.100000e-07	-7.535827e-06	-1.166904e-08	-5.248326e+01	-7.664756e+02
2.200000e-07	-7.475078e-06	-1.167059e-08	-5.206017e+01	-7.639019e+02
2.300000e-07	-7.411675e-06	-1.159783e-08	-5.161860e+01	-7.611465e+02
2.400000e-07	-7.345556e-06	-1.158135e-08	-5.115812e+01	-7.581943e+02
2.500000e-07	-7.276654e-06	-1.148077e-08	-5.067825e+01	-7.550341e+02
2.600000e-07	-7.204968e-06	-1.146607e-08	-5.017899e+01	-7.516602e+02
2.700000e-07	-7.130381e-06	-1.140675e-08	-4.965953e+01	-7.480734e+02
2.800000e-07	-7.052867e-06	-1.132926e-08	-4.911969e+01	-7.442808e+02
2.900000e-07	-6.972558e-06	-1.124955e-08	-4.856037e+01	-7.402955e+02
3.000000e-07	-6.889727e-06	-1.120540e-08	-4.798350e+01	-7.361345e+02
3.100000e-07	-6.804538e-06	-1.119350e-08	-4.739020e+01	-7.318166e+02
3.200000e-07	-6.716928e-06	-1.106794e-08	-4.678004e+01	-7.273597e+02
3.300000e-07	-6.626877e-06	-1.101413e-08	-4.615288e+01	-7.227786e+02
3.400000e-07	-6.534445e-06	-1.096961e-08	-4.550913e+01	-7.180823e+02
3.500000e-07	-6.439675e-06	-1.088648e-08	-4.484911e+01	-7.132727e+02
3.600000e-07	-6.342524e-06	-1.078382e-08	-4.417250e+01	-7.083446e+02
3.700000e-07	-6.243020e-06	-1.071618e-08	-4.347951e+01	-7.032860e+02
3.800000e-07	-6.141252e-06	-1.065590e-08	-4.277075e+01	-6.980795e+02
3.900000e-07	-6.037254e-06	-1.054425e-08	-4.204645e+01	-6.927052e+02
4.000000e-07	-5.931187e-06	-1.045435e-08	-4.130774e+01	-6.871430e+02
4.100000e-07	-5.823133e-06	-1.037842e-08	-4.055520e+01	-6.813756e+02
4.200000e-07	-5.713004e-06	-1.029770e-08	-3.978821e+01	-6.753905e+02
4.300000e-07	-5.600716e-06	-1.017847e-08	-3.900618e+01	-6.691816e+02
4.400000e-07	-5.486251e-06	-1.007921e-08	-3.820899e+01	-6.627493e+02
4.500000e-07	-5.369654e-06	-9.996731e-09	-3.739695e+01	-6.560998e+02
4.600000e-07	-5.251014e-06	-9.901308e-09	-3.657068e+01	-6.492435e+02
4.700000e-07	-5.130485e-06	-9.782574e-09	-3.573126e+01	-6.421919e+02
4.800000e-07	-5.008164e-06	-9.673107e-09	-3.487935e+01	-6.349552e+02
4.900000e-07	-4.884058e-06	-9.567198e-09	-3.401502e+01	-6.275393e+02
5.000000e-07	-4.758215e-06	-9.440307e-09	-3.313858e+01	-6.199438e+02
5.100000e-07	-4.630690e-06	-9.315736e-09	-3.225043e+01	-6.121610e+02
5.200000e-07	-4.501410e-06	-9.194223e-09	-3.135007e+01	-6.041756e+02
5.300000e-07	-4.370442e-06	-9.073263e-09	-3.043794e+01	-5.959665e+02
5.400000e-07	-4.237803e-06	-8.935433e-09	-2.951418e+01	-5.875090e+02
5.500000e-07	-4.103653e-06	-8.799397e-09	-2.857989e+01	-5.787775e+02
5.600000e-07	-3.968042e-06	-8.660627e-09	-2.763543e+01	-5.697492e+02
5.700000e-07	-3.830712e-06	-8.518323e-09	-2.667899e+01	-5.604068e+02
5.800000e-07	-3.691826e-06	-8.366880e-09	-2.571172e+01	-5.507402e+02
5.900000e-07	-3.551544e-06	-8.215272e-09	-2.473472e+01	-5.407478e+02
6.000000e-07	-3.409749e-06	-8.061793e-09	-2.374719e+01	-5.304355e+02
6.100000e-07	-3.266502e-06	-7.900895e-09	-2.274955e+01	-5.198144e+02
6.200000e-07	-3.122041e-06	-7.736773e-09	-2.174345e+01	-5.088984e+02
6.300000e-07	-2.976493e-06	-7.564487e-09	-2.072978e+01	-4.976999e+02
6.400000e-07	-2.829901e-06	-7.388274e-09	-1.970884e+01	-4.862260e+02
6.500000e-07	-2.682328e-06	-7.203414e-09	-1.868107e+01	-4.744758e+02
6.600000e-07	-2.533810e-06	-7.017383e-09	-1.764672e+01	-4.624380e+02
6.700000e-07	-2.384396e-06	-6.827482e-09	-1.660612e+01	-4.500905e+02
6.800000e-07	-2.234231e-06	-6.633842e-09	-1.556030e+01	-4.374019e+02
6.900000e-07	-2.083384e-06	-6.432542e-09	-1.450973e+01	-4.243343e+02
7.000000e-07	-1.931786e-06	-6.224852e-09	-1.345392e+01	-4.108471e+02
7.100000e-07	-1.779420e-06	-6.012980e-09	-1.239277e+01	-3.969017e+02
7.200000e-07	-1.626413e-06	-5.793218e-09	-1.132715e+01	-3.824655e+02
7.300000e-07	-1.472874e-06	-5.568759e-09	-1.025783e+01	-3.675157e+02
7.400000e-07	-1.318815e-06	-5.333556e-09	-9.184885e+00	-3.520402e+02
7.500000e-07	-1.164287e-06	-5.089870e-09	-8.108678e+00	-3.360370e+02
7.600000e-07	-1.009372e-06	-4.839550e-09	-7.029770e+00	-3.195117e+02
7.700000e-07	-8.541536e-07	-4.582645e-09	-5.948752e+00	-3.024720e+02
7.800000e-07	-6.987106e-07	-4.314471e-09	-4.866169e+00	-2.849216e+02
7.900000e-07	-5.430768e-07	-4.038863e-09	-3.782258e+00	-2.668534e+02
8.000000e-07	-3.872573e-07	-3.757315e-09	-2.697053e+00	-2.482430e+02
8.100000e-07	-2.312819e-07	-3.464386e-09	-1.610762e+00	-2.290441e+02
8.200000e-07	-7.519630e-08	-3.158657e-09	-5.237046e-01	-2.091871e+02
8.300000e-07	8.096711e-08	-2.840275e-09	5.638953e-01	-1.885805e+02
8.400000e-07	2.371428e-07	-2.508557e-09	1.651581e+00	-1.671165e+02
8.500000e-07	3.932355e-07	-2.159682e-09	2.738688e+00	-1.446800e+02
8.600000e-07	5.492394e-07	-1.799719e-09	3.825177e+00	-1.211610e+02
8.700000e-07	7.051255e-07	-1.427852e-09	4.910846e+00	-9.646812e+01
8.800000e-07	8.608023e-07	-1.039573e-09	5.995057e+00	-7.054283e+01
8.900000e-07	1.016253e-06	-6.322128e-10	7.077696e+00	-4.337259e+01
9.000000e-07	1.171427e-06	-2.082728e-10	8.158403e+00	-1.500072e+01
9.100000e-07	1.326219e-06	2.337028e-10	9.236448e+00	1.446772e+01
9.200000e-07	1.480477e-06	6.962004e-10	1.031078e+01	4.486532e+01
9.300000e-07	1.634174e-06	1.173251e-09	1.138121e+01	7.596716e+01
9.400000e-07	1.787279e-06	1.659966e-09	1.244750e+01	1.075011e+02
9.500000e-07	1.939692e-06	2.148178e-09	1.350898e+01	1.391623e+02
9.600000e-07	2.091384e-06	2.633190e-09	1.456544e+01	1.706315e+02
9.700000e-07	2.242188e-06	3.107130e-09	1.561571e+01	2.015939e+02
9.800000e-07	2.392055e-06	3.565362e-09	1.665947e+01	2.317584e+02
9.900000e-07	2.541078e-06	4.004703e-09	1.769733e+01	2.608742e+02
1.000000e-06	2.689176e-06	4.421513e-09	1.872877e+01	2.887438e+02
1.010000e-06	2.836286e-06	4.816654e-09	1.975331e+01	3.152307e+02
1.020000e-06	2.982350e-06	5.193595e-09	2.077058e+01	3.402623e+02
1.030000e-06	3.127302e-06	5.551802e-09	2.178009e+01	3.638270e+02
1.040000e-06	3.271110e-06	5.887833e-09	2.278164e+01	3.859664e+02
1.050000e-06	3.413620e-06	6.202995e-09	2.377415e+01	4.067640e+02
1.060000e-06	3.554758e-06	6.501751e-09	2.475711e+01	4.263321e+02
1.070000e-06	3.694533e-06	6.785538e-09	2.573057e+01	4.447969e+02
1.080000e-06	3.832934e-06	7.053969e-09	2.669447e+01	4.622860e+02
1.090000e-06	3.969859e-06	7.309373e-09	2.764808e+01	4.789170e+02
1.100000e-06	4.105269e-06	7.552881e-09	2.859114e+01	4.947897e+02
1.110000e-06	4.239248e-06	7.782695e-09	2.952424e+01	5.099817e+02
1.120000e-06	4.371745e-06	8.002117e-09	3.044701e+01	5.245477e+02
1.130000e-06	4.502728e-06	8.213305e-09	3.135925e+01	5.385219e+02
1.140000e-06	4.632139e-06	8.415549e-09	3.226053e+01	5.519222e+02
1.150000e-06	4.759859e-06	8.606415e-09	3.315004e+01	5.647566e+02
1.160000e-06	4.885929e-06	8.787514e-09	3.402805e+01	5.770291e+02
1.170000e-06	5.010404e-06	8.961815e-09	3.489496e+01	5.887450e+02
1.180000e-06	5.133177e-06	9.129146e-09	3.575001e+01	5.999150e+02
1.190000e-06	5.254093e-06	9.291901e-09	3.659212e+01	6.105572e+02
1.200000e-06	5.373075e-06	9.448061e-09	3.742077e+01	6.206974e+02
1.210000e-06	5.490046e-06	9.597395e-09	3.823542e+01	6.303672e+02
1.220000e-06	5.604894e-06	9.740139e-09	3.903528e+01	6.396015e+02
1.230000e-06	5.717524e-06	9.877856e-09	3.981969e+01	6.484352e+02
1.240000e-06	5.827981e-06	1.001007e-08	4.058897e+01	6.568996e+02
1.250000e-06	5.936418e-06	1.013402e-08	4.134418e+01	6.650201e+02
1.260000e-06	6.042756e-06	1.025036e-08	4.208477e+01	6.728145e+02
1.270000e-06	6.146839e-06	1.036303e-08	4.280965e+01	6.802931e+02
1.280000e-06	6.248680e-06	1.047161e-08	4.351892e+01	6.874599e+02
1.290000e-06	6.348253e-06	1.057380e-08	4.421240e+01	6.943148e+02
1.300000e-06	6.445378e-06	1.067163e-08	4.488883e+01	7.008563e+02
1.310000e-06	6.540045e-06	1.076605e-08	4.554814e+01	7.070847e+02
1.320000e-06	6.632491e-06	1.085369e-08	4.619198e+01	7.130042e+02
1.330000e-06	6.722618e-06	1.093569e-08	4.681967e+01	7.186251e+02
1.340000e-06	6.810276e-06	1.101592e-08	4.743016e+01	7.239636e+02
1.350000e-06	6.895578e-06	1.109410e-08	4.802424e+01	7.290415e+02
1.360000e-06	6.978499e-06	1.116960e-08	4.860175e+01	7.338842e+02
1.370000e-06	7.058849e-06	1.124248e-08	4.916135e+01	7.385181e+02
1.380000e-06	7.136623e-06	1.131236e-08	4.970301e+01	7.429675e+02
1.390000e-06	7.211761e-06	1.137845e-08	5.022630e+01	7.472523e+02
1.400000e-06	7.284129e-06	1.144085e-08	5.073031e+01	7.513851e+02
1.410000e-06	7.353921e-06	1.150005e-08	5.121638e+01	7.553706e+02
1.420000e-06	7.421164e-06	1.155689e-08	5.168469e+01	7.592051e+02
1.430000e-06	7.485706e-06	1.161178e-08	5.213419e+01	7.628780e+02
1.440000e-06	7.547599e-06	1.166299e-08	5.256524e+01	7.663735e+02
1.450000e-06	7.606956e-06	1.171109e-08	5.297864e+01	7.696739e+02
1.460000e-06	7.663663e-06	1.175509e-08	5.337357e+01	7.727619e+02
1.470000e-06	7.717639e-06	1.179633e-08	5.374949e+01	7.756240e+02
1.480000e-06	7.768543e-06	1.183763e-08	5.410401e+01	7.782524e+02
1.490000e-06	7.816287e-06	1.187702e-08	5.443652e+01	7.806465e+02
1.500000e-06	7.861272e-06	1.191174e-08	5.474982e+01	7.828128e+02
1.510000e-06	7.903448e-06	1.193998e-08	5.504355e+01	7.847639e+02
1.520000e-06	7.942718e-06	1.196464e-08	5.531705e+01	7.865175e+02
1.530000e-06	7.979263e-06	1.198850e-08	5.557157e+01	7.880931e+02
1.540000e-06	8.012983e-06	1.201072e-08	5.580641e+01	7.895103e+02
1.550000e-06	8.043799e-06	1.202955e-08	5.602103e+01	7.907856e+02
1.560000e-06	8.071828e-06	1.204566e-08	5.621624e+01	7.919316e+02
1.570000e-06	8.096893e-06	1.206084e-08	5.639081e+01	7.929551e+02
1.580000e-06	8.118992e-06	1.207598e-08	5.654471e+01	7.938573e+02
1.590000e-06	8.138275e-06	1.208898e-08	5.667901e+01	7.946347e+02
1.600000e-06	8.154607e-06	1.209769e-08	5.679275e+01	7.952802e+02
1.610000e-06	8.167865e-06	1.210352e-08	5.688508e+01	7.957851e+02
1.620000e-06	8.177935e-06	1.210809e-08	5.695522e+01	7.961410e+02
1.630000e-06	8.184920e-06	1.211134e-08	5.700387e+01	7.963415e+02
1.640000e-06	8.189084e-06	1.211247e-08	5.703287e+01	7.963837e+02
1.650000e-06	8.190323e-06	1.211398e-08	5.704150e+01	7.962685e+02
1.660000e-06	8.188709e-06	1.210652e-08	5.703026e+01	7.960007e+02
1.670000e-06	8.184418e-06	1.209665e-08	5.700037e+01	7.955887e+02
1.680000e-06	8.177323e-06	1.209266e-08	5.695096e+01	7.950429e+02
1.690000e-06	8.167479e-06	1.208584e-08	5.688240e+01	7.943747e+02
1.700000e-06	8.154797e-06	1.207560e-08	5.679407e+01	7.935950e+02
1.710000e-06	8.139242e-06	1.207027e-08	5.668575e+01	7.927133e+02
1.720000e-06	8.121210e-06	1.207242e-08	5.656016e+01	7.917367e+02
1.730000e-06	8.100809e-06	1.204626e-08	5.641808e+01	7.906702e+02
1.740000e-06	8.077623e-06	1.192316e-08	5.625660e+01	7.895162e+02
1.750000e-06	8.050965e-06	1.194060e-08	5.607094e+01	7.882757e+02
1.760000e-06	8.020534e-06	1.197398e-08	5.585900e+01	7.869482e+02
1.770000e-06	7.986942e-06	1.192533e-08	5.562505e+01	7.855331e+02
1.780000e-06	7.950936e-06	1.191198e-08	5.537429e+01	7.840297e+02
1.790000e-06	7.912589e-06	1.199641e-08	5.510722e+01	7.824369e+02
1.800000e-06	7.872096e-06	1.188309e-08	5.482520e+01	7.807539e+02
1.810000e-06	7.829547e-06	1.176461e-08	5.452887e+01	7.789784e+02
1.820000e-06	7.784274e-06	1.194689e-08	5.421357e+01	7.771068e+02
1.830000e-06	7.736186e-06	1.176367e-08	5.387866e+01	7.751328e+02
1.840000e-06	7.685222e-06	1.180173e-08	5.352372e+01	7.730470e+02
1.850000e-06	7.631099e-06	1.179549e-08	5.314678e+01	7.708367e+02
1.860000e-06	7.574176e-06	1.166761e-08	5.275034e+01	7.684866e+02
1.870000e-06	7.514472e-06	1.174897e-08	5.233453e+01	7.659792e+02
1.880000e-06	7.451996e-06	1.157622e-08	5.189942e+01	7.632970e+02
1.890000e-06	7.386773e-06	1.164624e-08	5.144518e+01	7.604234e+02
1.900000e-06	7.318619e-06	1.157997e-08	5.097052e+01	7.573457e+02
1.910000e-06	7.247561e-06	1.145731e-08	5.047563e+01	7.540558e+02
1.920000e-06	7.173686e-06	1.145701e-08	4.996113e+01	7.505518e+02
1.930000e-06	7.097107e-06	1.138154e-08	4.942779e+01	7.468386e+02
1.940000e-06	7.017744e-06	1.139512e-08	4.887507e+01	7.429269e+02
1.950000e-06	6.935747e-06	1.123572e-08	4.830400e+01	7.388325e+02
1.960000e-06	6.851238e-06	1.122237e-08	4.771544e+01	7.345737e+02
1.970000e-06	6.764095e-06	1.116401e-08	4.710853e+01	7.301692e+02
1.980000e-06	6.674458e-06	1.103813e-08	4.648425e+01	7.256352e+02
1.990000e-06	6.582467e-06	1.100853e-08	4.584359e+01	7.209832e+02
2.000000e-06	6.488208e-06	1.094553e-08	4.518712e+01	7.162181e+02
2.010000e-06	6.391653e-06	1.089607e-08	4.451466e+01	7.113375e+02
2.020000e-06	6.292833e-06	1.075181e-08	4.382643e+01	7.063317e+02
2.030000e-06	6.191752e-06	1.070017e-08	4.312245e+01	7.011853e+02
2.040000e-06	6.088389e-06	1.062824e-08	4.240258e+01	6.958791e+02
2.050000e-06	5.982870e-06	1.054520e-08	4.166769e+01	6.903928e+02
2.060000e-06	5.875312e-06	1.044361e-08	4.091861e+01	6.847076e+02
2.070000e-06	5.765703e-06	1.035723e-08	4.015523e+01	6.788088e+02
2.080000e-06	5.654034e-06	1.028130e-08	3.937751e+01	6.726879e+02
2.090000e-06	5.540317e-06	1.016288e-08	3.858553e+01	6.663426e+02
2.100000e-06	5.424377e-06	1.007283e-08	3.777807e+01	6.597772e+02
2.110000e-06	5.306327e-06	9.979283e-09	3.695591e+01	6.530005e+02
2.120000e-06	5.186377e-06	9.878462e-09	3.612052e+01	6.460240e+02
2.130000e-06	5.064574e-06	9.743767e-09	3.527222e+01	6.388587e+02
2.140000e-06	4.940953e-06	9.646310e-09	3.441126e+01	6.315127e+02
2.150000e-06	4.815494e-06	9.544112e-09	3.353750e+01	6.239880e+02
2.160000e-06	4.688287e-06	9.430689e-09	3.265157e+01	6.162799e+02
2.170000e-06	4.559369e-06	9.297814e-09	3.175372e+01	6.083761e+02
2.180000e-06	4.428801e-06	9.171907e-09	3.084438e+01	6.002575e+02
2.190000e-06	4.296604e-06	9.046313e-09	2.992370e+01	5.919004e+02
2.200000e-06	4.162788e-06	8.912380e-09	2.899173e+01	5.832792e+02
2.210000e-06	4.027484e-06	8.781119e-09	2.804941e+01	5.743697e+02
2.220000e-06	3.890668e-06	8.644592e-09	2.709655e+01	5.651520e+02
2.230000e-06	3.752204e-06	8.499991e-09	2.613222e+01	5.556132e+02
2.240000e-06	3.612241e-06	8.341305e-09	2.515745e+01	5.457483e+02
2.250000e-06	3.470937e-06	8.189599e-09	2.417334e+01	5.355603e+02
2.260000e-06	3.328323e-06	8.037290e-09	2.318010e+01	5.250587e+02
2.270000e-06	3.184525e-06	7.880446e-09	2.217862e+01	5.142567e+02
2.280000e-06	3.039543e-06	7.711617e-09	2.116889e+01	5.031676e+02
2.290000e-06	2.893369e-06	7.539491e-09	2.015086e+01	4.918013e+02
2.300000e-06	2.746152e-06	7.363225e-09	1.912557e+01	4.801602e+02
2.310000e-06	2.597996e-06	7.182041e-09	1.809374e+01	4.682371e+02
2.320000e-06	2.448912e-06	6.994683e-09	1.705544e+01	4.560143e+02
2.330000e-06	2.298930e-06	6.799803e-09	1.601090e+01	4.434637e+02
2.340000e-06	2.148108e-06	6.598836e-09	1.496050e+01	4.305496e+02
2.350000e-06	1.996633e-06	6.393974e-09	1.390555e+01	4.172318e+02
2.360000e-06	1.844591e-06	6.183892e-09	1.284665e+01	4.034704e+02
2.370000e-06	1.691973e-06	5.967015e-09	1.178374e+01	3.892301e+02
2.380000e-06	1.538803e-06	5.740176e-09	1.071699e+01	3.744839e+02
2.390000e-06	1.385109e-06	5.507228e-09	9.646587e+00	3.592154e+02
2.400000e-06	1.230932e-06	5.268970e-09	8.572824e+00	3.434189e+02
2.410000e-06	1.076335e-06	5.022945e-09	7.496131e+00	3.270975e+02
2.420000e-06	9.213817e-07	4.772229e-09	6.416962e+00	3.102588e+02
2.430000e-06	7.661264e-07	4.511625e-09	5.335687e+00	2.929090e+02
2.440000e-06	6.105996e-07	4.239741e-09	4.252520e+00	2.750458e+02
2.450000e-06	4.548177e-07	3.957540e-09	3.167577e+00	2.566524e+02
2.460000e-06	2.988408e-07	3.666813e-09	2.081277e+00	2.376914e+02
2.470000e-06	1.427149e-07	3.365380e-09	9.939381e-01	2.181025e+02
2.480000e-06	-1.352110e-08	3.050503e-09	-9.416771e-02	1.978023e+02
2.490000e-06	-1.698046e-07	2.723610e-09	-1.182604e+00	1.766884e+02
2.500000e-06	-3.259913e-07	2.382622e-09	-2.270366e+00	1.546474e+02
2.510000e-06	-4.820538e-07	2.025318e-09	-3.357263e+00	1.315657e+02
2.520000e-06	-6.380068e-07	1.654622e-09	-4.443398e+00	1.073428e+02
2.530000e-06	-7.937365e-07	1.272944e-09	-5.527977e+00	8.190570e+01
2.540000e-06	-9.491579e-07	8.739167e-10	-6.610409e+00	5.522241e+01
2.550000e-06	-1.104260e-06	4.539863e-10	-7.690620e+00	2.731332e+01
2.560000e-06	-1.258953e-06	1.586839e-11	-8.767979e+00	-1.741141e+00
2.570000e-06	-1.413146e-06	-4.400506e-10	-9.841851e+00	-3.179778e+01
2.580000e-06	-1.566846e-06	-9.141152e-10	-1.091230e+01	-6.265333e+01
2.590000e-06	-1.719974e-06	-1.401450e-09	-1.197876e+01	-9.405265e+01
2.600000e-06	-1.872417e-06	-1.893942e-09	-1.304045e+01	-1.257018e+02
2.610000e-06	-2.024136e-06	-2.385135e-09	-1.409710e+01	-1.572849e+02
2.620000e-06	-2.175160e-06	-2.868587e-09	-1.514890e+01	-1.884831e+02
2.630000e-06	-2.325372e-06	-3.337571e-09	-1.619505e+01	-2.189938e+02
2.640000e-06	-2.474705e-06	-3.787972e-09	-1.723508e+01	-2.485486e+02
2.650000e-06	-2.623152e-06	-4.219120e-09	-1.826894e+01	-2.769278e+02
2.660000e-06	-2.770558e-06	-4.627860e-09	-1.929555e+01	-3.039703e+02
2.670000e-06	-2.916920e-06	-5.014429e-09	-2.031489e+01	-3.295785e+02
2.680000e-06	-3.062239e-06	-5.381207e-09	-2.132696e+01	-3.537175e+02
2.690000e-06	-3.206380e-06	-5.727312e-09	-2.233083e+01	-3.764092e+02
2.700000e-06	-3.349290e-06	-6.053425e-09	-2.332613e+01	-3.977221e+02
2.710000e-06	-3.490949e-06	-6.360242e-09	-2.431271e+01	-4.177589e+02
2.720000e-06	-3.631220e-06	-6.650707e-09	-2.528963e+01	-4.366419e+02
2.730000e-06	-3.770075e-06	-6.927346e-09	-2.625669e+01	-4.544998e+02
2.740000e-06	-3.907583e-06	-7.191217e-09	-2.721435e+01	-4.714551e+02
2.750000e-06	-4.043638e-06	-7.442212e-09	-2.816191e+01	-4.876154e+02
2.760000e-06	-4.178235e-06	-7.681463e-09	-2.909931e+01	-5.030674e+02
2.770000e-06	-4.311403e-06	-7.909116e-09	-3.002676e+01	-5.178744e+02
2.780000e-06	-4.442983e-06	-8.126291e-09	-3.094315e+01	-5.320784e+02
2.790000e-06	-4.573018e-06	-8.335078e-09	-3.184878e+01	-5.457030e+02
2.800000e-06	-4.701532e-06	-8.534575e-09	-3.274381e+01	-5.587595e+02
2.810000e-06	-4.828391e-06	-8.724092e-09	-3.362732e+01	-5.712525e+02
2.820000e-06	-4.953559e-06	-8.906634e-09	-3.449906e+01	-5.831864e+02
2.830000e-06	-5.076982e-06	-9.081477e-09	-3.535863e+01	-5.945694e+02
2.840000e-06	-5.198580e-06	-9.246688e-09	-3.620551e+01	-6.054166e+02
2.850000e-06	-5.318279e-06	-9.404146e-09	-3.703915e+01	-6.157507e+02
2.860000e-06	-5.435954e-06	-9.553956e-09	-3.785870e+01	-6.256015e+02
2.870000e-06	-5.551399e-06	-9.697650e-09	-3.866271e+01	-6.350029e+02
2.880000e-06	-5.664548e-06	-9.834475e-09	-3.945074e+01	-6.439903e+02
2.890000e-06	-5.775473e-06	-9.966839e-09	-4.022328e+01	-6.525966e+02
2.900000e-06	-5.884304e-06	-1.009615e-08	-4.098123e+01	-6.608499e+02
2.910000e-06	-5.991186e-06	-1.022104e-08	-4.172561e+01	-6.687710e+02
2.920000e-06	-6.095959e-06	-1.033889e-08	-4.245530e+01	-6.763731e+02
2.930000e-06	-6.198385e-06	-1.045035e-08	-4.316865e+01	-6.836625e+02
2.940000e-06	-6.298443e-06	-1.055676e-08	-4.386550e+01	-6.906404e+02
