# Temperatura_=_84.58
# Concentracion g/m^3_=_15000.0
# C_Vs_to_Am_M_A/Vsm_=_65563218390.804596
# pendiente_HvsI_1/m_=_3716.3
# ordenada_HvsI_A/m_=_1297.0
# frecuencia_Hz_=_302342.7891410038

Tiempo_(s)	Campo_(V.s)	Magnetizacion_(V.s)	Campo_(kA/m)	Magnetizacion_(A/m)
0.000000e+00	-8.168607e-06	-1.340988e-08	-5.690555e+01	-8.770134e+02
1.000000e-08	-8.163818e-06	-1.340397e-08	-5.687219e+01	-8.764838e+02
2.000000e-08	-8.156447e-06	-1.339365e-08	-5.682084e+01	-8.758026e+02
3.000000e-08	-8.146254e-06	-1.338253e-08	-5.674984e+01	-8.749836e+02
4.000000e-08	-8.133097e-06	-1.336897e-08	-5.665818e+01	-8.740399e+02
5.000000e-08	-8.116993e-06	-1.334966e-08	-5.654599e+01	-8.729827e+02
6.000000e-08	-8.098295e-06	-1.332654e-08	-5.641573e+01	-8.718199e+02
7.000000e-08	-8.077322e-06	-1.329487e-08	-5.626963e+01	-8.705567e+02
8.000000e-08	-8.053673e-06	-1.330389e-08	-5.610488e+01	-8.691953e+02
9.000000e-08	-8.026806e-06	-1.332691e-08	-5.591772e+01	-8.677360e+02
1.000000e-07	-7.996697e-06	-1.327235e-08	-5.570797e+01	-8.661777e+02
1.100000e-07	-7.963528e-06	-1.321783e-08	-5.547690e+01	-8.645186e+02
1.200000e-07	-7.927503e-06	-1.319038e-08	-5.522593e+01	-8.627572e+02
1.300000e-07	-7.889021e-06	-1.315486e-08	-5.495785e+01	-8.608916e+02
1.400000e-07	-7.848150e-06	-1.308155e-08	-5.467313e+01	-8.589197e+02
1.500000e-07	-7.804887e-06	-1.303586e-08	-5.437175e+01	-8.568380e+02
1.600000e-07	-7.759048e-06	-1.308880e-08	-5.405241e+01	-8.546411e+02
1.700000e-07	-7.710282e-06	-1.297721e-08	-5.371269e+01	-8.523206e+02
1.800000e-07	-7.658546e-06	-1.294362e-08	-5.335228e+01	-8.498645e+02
1.900000e-07	-7.603951e-06	-1.296215e-08	-5.297195e+01	-8.472573e+02
2.000000e-07	-7.546585e-06	-1.285477e-08	-5.257232e+01	-8.444807e+02
2.100000e-07	-7.486461e-06	-1.283045e-08	-5.215347e+01	-8.415148e+02
2.200000e-07	-7.423682e-06	-1.277738e-08	-5.171613e+01	-8.383399e+02
2.300000e-07	-7.358179e-06	-1.274269e-08	-5.125981e+01	-8.349390e+02
2.400000e-07	-7.289835e-06	-1.264828e-08	-5.078370e+01	-8.312997e+02
2.500000e-07	-7.218697e-06	-1.257677e-08	-5.028813e+01	-8.274161e+02
2.600000e-07	-7.144707e-06	-1.255349e-08	-4.977269e+01	-8.232899e+02
2.700000e-07	-7.067884e-06	-1.246733e-08	-4.923751e+01	-8.189306e+02
2.800000e-07	-6.988226e-06	-1.238522e-08	-4.868258e+01	-8.143545e+02
2.900000e-07	-6.905966e-06	-1.231473e-08	-4.810953e+01	-8.095827e+02
3.000000e-07	-6.821386e-06	-1.227088e-08	-4.752031e+01	-8.046383e+02
3.100000e-07	-6.734391e-06	-1.218733e-08	-4.691427e+01	-7.995436e+02
3.200000e-07	-6.644906e-06	-1.209762e-08	-4.629089e+01	-7.943164e+02
3.300000e-07	-6.552995e-06	-1.203552e-08	-4.565060e+01	-7.889678e+02
3.400000e-07	-6.458724e-06	-1.194160e-08	-4.499387e+01	-7.835003e+02
3.500000e-07	-6.362054e-06	-1.184864e-08	-4.432043e+01	-7.779072e+02
3.600000e-07	-6.263068e-06	-1.175594e-08	-4.363086e+01	-7.721733e+02
3.700000e-07	-6.161890e-06	-1.167814e-08	-4.292602e+01	-7.662773e+02
3.800000e-07	-6.058509e-06	-1.158598e-08	-4.220583e+01	-7.601943e+02
3.900000e-07	-5.952934e-06	-1.147416e-08	-4.147035e+01	-7.538995e+02
4.000000e-07	-5.845289e-06	-1.136941e-08	-4.072046e+01	-7.473716e+02
4.100000e-07	-5.735633e-06	-1.126636e-08	-3.995655e+01	-7.405957e+02
4.200000e-07	-5.623879e-06	-1.116681e-08	-3.917804e+01	-7.335649e+02
4.300000e-07	-5.509901e-06	-1.105097e-08	-3.838402e+01	-7.262809e+02
4.400000e-07	-5.393673e-06	-1.093858e-08	-3.757433e+01	-7.187532e+02
4.500000e-07	-5.275448e-06	-1.082804e-08	-3.675073e+01	-7.109964e+02
4.600000e-07	-5.155420e-06	-1.071462e-08	-3.591457e+01	-7.030272e+02
4.700000e-07	-5.033583e-06	-1.058815e-08	-3.506581e+01	-6.948606e+02
4.800000e-07	-4.909900e-06	-1.046104e-08	-3.420419e+01	-6.865064e+02
4.900000e-07	-4.784474e-06	-1.033593e-08	-3.333043e+01	-6.779667e+02
5.000000e-07	-4.657348e-06	-1.019088e-08	-3.244482e+01	-6.692338e+02
5.100000e-07	-4.528506e-06	-1.004195e-08	-3.154726e+01	-6.602906e+02
5.200000e-07	-4.397972e-06	-9.904917e-09	-3.063791e+01	-6.511125e+02
5.300000e-07	-4.265769e-06	-9.769603e-09	-2.971693e+01	-6.416695e+02
5.400000e-07	-4.132060e-06	-9.613197e-09	-2.878547e+01	-6.319309e+02
5.500000e-07	-3.996832e-06	-9.451958e-09	-2.784342e+01	-6.218688e+02
5.600000e-07	-3.860016e-06	-9.299599e-09	-2.689031e+01	-6.114625e+02
5.700000e-07	-3.721656e-06	-9.138787e-09	-2.592644e+01	-6.007004e+02
5.800000e-07	-3.581707e-06	-8.966251e-09	-2.495151e+01	-5.895820e+02
5.900000e-07	-3.440189e-06	-8.793180e-09	-2.396564e+01	-5.781163e+02
6.000000e-07	-3.297247e-06	-8.618817e-09	-2.296985e+01	-5.663202e+02
6.100000e-07	-3.153037e-06	-8.429318e-09	-2.196523e+01	-5.542139e+02
6.200000e-07	-3.007672e-06	-8.233607e-09	-2.095256e+01	-5.418164e+02
6.300000e-07	-2.861273e-06	-8.042266e-09	-1.993269e+01	-5.291406e+02
6.400000e-07	-2.713937e-06	-7.847447e-09	-1.890630e+01	-5.161890e+02
6.500000e-07	-2.565705e-06	-7.641445e-09	-1.787366e+01	-5.029512e+02
6.600000e-07	-2.416678e-06	-7.430709e-09	-1.683548e+01	-4.894027e+02
6.700000e-07	-2.266866e-06	-7.219787e-09	-1.579183e+01	-4.755066e+02
6.800000e-07	-2.116251e-06	-7.000923e-09	-1.474259e+01	-4.612173e+02
6.900000e-07	-1.964897e-06	-6.772860e-09	-1.368821e+01	-4.464850e+02
7.000000e-07	-1.812824e-06	-6.537301e-09	-1.262881e+01	-4.312619e+02
7.100000e-07	-1.660117e-06	-6.295483e-09	-1.156499e+01	-4.155077e+02
7.200000e-07	-1.506858e-06	-6.046929e-09	-1.049733e+01	-3.991942e+02
7.300000e-07	-1.353106e-06	-5.793213e-09	-9.426237e+00	-3.823070e+02
7.400000e-07	-1.198846e-06	-5.531268e-09	-8.351606e+00	-3.648458e+02
7.500000e-07	-1.044105e-06	-5.261266e-09	-7.273622e+00	-3.468202e+02
7.600000e-07	-8.889450e-07	-4.981857e-09	-6.192721e+00	-3.282444e+02
7.700000e-07	-7.334243e-07	-4.688936e-09	-5.109306e+00	-3.091286e+02
7.800000e-07	-5.776759e-07	-4.387476e-09	-4.024306e+00	-2.894708e+02
7.900000e-07	-4.217442e-07	-4.077888e-09	-2.938027e+00	-2.692477e+02
8.000000e-07	-2.656455e-07	-3.758355e-09	-1.850585e+00	-2.484095e+02
8.100000e-07	-1.094287e-07	-3.424016e-09	-7.623212e-01	-2.268762e+02
8.200000e-07	4.685552e-08	-3.076233e-09	3.264130e-01	-2.045394e+02
8.300000e-07	2.031842e-07	-2.716979e-09	1.415456e+00	-1.812687e+02
8.400000e-07	3.594823e-07	-2.341970e-09	2.504287e+00	-1.569220e+02
8.500000e-07	5.156413e-07	-1.950008e-09	3.592149e+00	-1.313604e+02
8.600000e-07	6.716400e-07	-1.543637e-09	4.678894e+00	-1.044653e+02
8.700000e-07	8.275364e-07	-1.121291e-09	5.764927e+00	-7.615594e+01
8.800000e-07	9.832447e-07	-6.739739e-10	6.849648e+00	-4.640567e+01
8.900000e-07	1.138513e-06	-2.053870e-10	7.931302e+00	-1.525475e+01
9.000000e-07	1.293207e-06	2.819487e-10	9.008962e+00	1.718197e+01
9.100000e-07	1.447358e-06	7.883541e-10	1.008284e+01	5.071379e+01
9.200000e-07	1.600967e-06	1.314568e-09	1.115293e+01	8.507980e+01
9.300000e-07	1.754057e-06	1.855119e-09	1.221941e+01	1.199612e+02
9.400000e-07	1.906632e-06	2.397873e-09	1.328231e+01	1.549992e+02
9.500000e-07	2.058499e-06	2.934048e-09	1.434027e+01	1.898169e+02
9.600000e-07	2.209476e-06	3.455143e-09	1.539203e+01	2.240435e+02
9.700000e-07	2.359514e-06	3.957559e-09	1.643725e+01	2.573370e+02
9.800000e-07	2.508674e-06	4.438966e-09	1.747635e+01	2.894053e+02
9.900000e-07	2.657007e-06	4.898215e-09	1.850970e+01	3.200216e+02
1.000000e-06	2.804303e-06	5.331578e-09	1.953581e+01	3.490341e+02
1.010000e-06	2.950441e-06	5.739680e-09	2.055387e+01	3.763689e+02
1.020000e-06	3.095531e-06	6.126655e-09	2.156462e+01	4.020256e+02
1.030000e-06	3.239482e-06	6.489961e-09	2.256744e+01	4.260676e+02
1.040000e-06	3.382158e-06	6.830681e-09	2.356137e+01	4.486074e+02
1.050000e-06	3.523576e-06	7.155722e-09	2.454654e+01	4.697892e+02
1.060000e-06	3.663680e-06	7.465319e-09	2.552256e+01	4.897714e+02
1.070000e-06	3.802323e-06	7.755469e-09	2.648840e+01	5.087098e+02
1.080000e-06	3.939558e-06	8.030647e-09	2.744443e+01	5.267444e+02
1.090000e-06	4.075333e-06	8.294471e-09	2.839028e+01	5.439897e+02
1.100000e-06	4.209552e-06	8.545651e-09	2.932530e+01	5.605306e+02
1.110000e-06	4.342375e-06	8.784817e-09	3.025060e+01	5.764218e+02
1.120000e-06	4.473658e-06	9.014016e-09	3.116516e+01	5.916923e+02
1.130000e-06	4.603301e-06	9.236855e-09	3.206831e+01	6.063519e+02
1.140000e-06	4.731398e-06	9.448039e-09	3.296068e+01	6.203996e+02
1.150000e-06	4.857833e-06	9.646265e-09	3.384147e+01	6.338321e+02
1.160000e-06	4.982660e-06	9.835754e-09	3.471106e+01	6.466508e+02
1.170000e-06	5.105751e-06	1.001703e-08	3.556856e+01	6.588671e+02
1.180000e-06	5.226984e-06	1.019120e-08	3.641311e+01	6.705043e+02
1.190000e-06	5.346369e-06	1.036050e-08	3.724480e+01	6.815976e+02
1.200000e-06	5.463782e-06	1.052570e-08	3.806274e+01	6.921910e+02
1.210000e-06	5.579068e-06	1.068484e-08	3.886586e+01	7.023329e+02
1.220000e-06	5.692162e-06	1.083559e-08	3.965372e+01	7.120707e+02
1.230000e-06	5.803097e-06	1.098087e-08	4.042653e+01	7.214454e+02
1.240000e-06	5.911976e-06	1.111961e-08	4.118503e+01	7.304884e+02
1.250000e-06	6.018784e-06	1.125169e-08	4.192909e+01	7.392181e+02
1.260000e-06	6.123382e-06	1.137937e-08	4.265776e+01	7.476407e+02
1.270000e-06	6.225743e-06	1.150031e-08	4.337084e+01	7.557511e+02
1.280000e-06	6.325773e-06	1.161674e-08	4.406768e+01	7.635370e+02
1.290000e-06	6.423375e-06	1.172864e-08	4.474762e+01	7.709831e+02
1.300000e-06	6.518543e-06	1.183689e-08	4.541060e+01	7.780758e+02
1.310000e-06	6.611429e-06	1.193847e-08	4.605767e+01	7.848075e+02
1.320000e-06	6.702035e-06	1.203129e-08	4.668887e+01	7.911798e+02
1.330000e-06	6.790207e-06	1.212116e-08	4.730311e+01	7.972050e+02
1.340000e-06	6.875992e-06	1.220920e-08	4.790072e+01	8.029054e+02
1.350000e-06	6.959329e-06	1.229393e-08	4.848127e+01	8.083116e+02
1.360000e-06	7.040169e-06	1.237351e-08	4.904444e+01	8.134586e+02
1.370000e-06	7.118582e-06	1.244832e-08	4.959069e+01	8.183822e+02
1.380000e-06	7.194305e-06	1.251967e-08	5.011821e+01	8.231142e+02
1.390000e-06	7.267187e-06	1.258898e-08	5.062593e+01	8.276789e+02
1.400000e-06	7.337465e-06	1.265603e-08	5.111551e+01	8.320908e+02
1.410000e-06	7.405211e-06	1.272012e-08	5.158746e+01	8.363530e+02
1.420000e-06	7.470230e-06	1.278232e-08	5.204040e+01	8.404583e+02
1.430000e-06	7.532628e-06	1.284033e-08	5.247509e+01	8.443911e+02
1.440000e-06	7.592576e-06	1.289466e-08	5.289271e+01	8.481305e+02
1.450000e-06	7.649886e-06	1.294560e-08	5.329195e+01	8.516540e+02
1.460000e-06	7.704435e-06	1.299324e-08	5.367196e+01	8.549417e+02
1.470000e-06	7.755947e-06	1.303991e-08	5.403081e+01	8.579790e+02
1.480000e-06	7.804224e-06	1.308476e-08	5.436713e+01	8.607591e+02
1.490000e-06	7.849636e-06	1.312475e-08	5.468348e+01	8.632838e+02
1.500000e-06	7.892289e-06	1.315942e-08	5.498062e+01	8.655632e+02
1.510000e-06	7.932098e-06	1.319039e-08	5.525795e+01	8.676138e+02
1.520000e-06	7.969188e-06	1.321911e-08	5.551633e+01	8.694562e+02
1.530000e-06	8.003563e-06	1.324538e-08	5.575580e+01	8.711117e+02
1.540000e-06	8.035014e-06	1.326889e-08	5.597490e+01	8.725998e+02
1.550000e-06	8.063599e-06	1.328850e-08	5.617403e+01	8.739356e+02
1.560000e-06	8.089280e-06	1.330595e-08	5.635293e+01	8.751283e+02
1.570000e-06	8.111943e-06	1.332410e-08	5.651081e+01	8.761803e+02
1.580000e-06	8.131835e-06	1.333810e-08	5.664939e+01	8.770884e+02
1.590000e-06	8.148909e-06	1.334616e-08	5.676833e+01	8.778449e+02
1.600000e-06	8.162954e-06	1.335195e-08	5.686617e+01	8.784397e+02
1.610000e-06	8.173830e-06	1.335817e-08	5.694194e+01	8.788625e+02
1.620000e-06	8.181529e-06	1.336352e-08	5.699557e+01	8.791053e+02
1.630000e-06	8.186286e-06	1.336527e-08	5.702871e+01	8.791639e+02
1.640000e-06	8.188121e-06	1.336509e-08	5.704150e+01	8.790386e+02
1.650000e-06	8.187075e-06	1.336336e-08	5.703421e+01	8.787348e+02
1.660000e-06	8.183383e-06	1.335296e-08	5.700849e+01	8.782620e+02
1.670000e-06	8.176926e-06	1.334493e-08	5.696351e+01	8.776326e+02
1.680000e-06	8.167685e-06	1.333422e-08	5.689913e+01	8.768606e+02
1.690000e-06	8.155699e-06	1.331931e-08	5.681563e+01	8.759594e+02
1.700000e-06	8.140823e-06	1.330660e-08	5.671200e+01	8.749409e+02
1.710000e-06	8.123299e-06	1.329887e-08	5.658992e+01	8.738144e+02
1.720000e-06	8.103471e-06	1.329551e-08	5.645179e+01	8.725860e+02
1.730000e-06	8.080993e-06	1.322043e-08	5.629520e+01	8.712589e+02
1.740000e-06	8.055168e-06	1.317240e-08	5.611530e+01	8.698340e+02
1.750000e-06	8.025565e-06	1.319230e-08	5.590907e+01	8.683105e+02
1.760000e-06	7.992532e-06	1.316697e-08	5.567895e+01	8.666869e+02
1.770000e-06	7.957022e-06	1.312860e-08	5.543157e+01	8.649616e+02
1.780000e-06	7.919173e-06	1.314849e-08	5.516791e+01	8.631328e+02
1.790000e-06	7.879069e-06	1.315904e-08	5.488852e+01	8.611984e+02
1.800000e-06	7.837050e-06	1.301968e-08	5.459580e+01	8.591558e+02
1.810000e-06	7.792411e-06	1.307280e-08	5.428483e+01	8.570002e+02
1.820000e-06	7.744854e-06	1.306056e-08	5.395354e+01	8.547243e+02
1.830000e-06	7.694571e-06	1.297104e-08	5.360325e+01	8.523176e+02
1.840000e-06	7.641077e-06	1.302640e-08	5.323059e+01	8.497656e+02
1.850000e-06	7.584601e-06	1.291522e-08	5.283715e+01	8.470511e+02
1.860000e-06	7.525484e-06	1.291996e-08	5.242532e+01	8.441544e+02
1.870000e-06	7.463611e-06	1.282348e-08	5.199429e+01	8.410556e+02
1.880000e-06	7.398972e-06	1.276025e-08	5.154399e+01	8.377365e+02
1.890000e-06	7.331418e-06	1.279369e-08	5.107338e+01	8.341827e+02
1.900000e-06	7.261005e-06	1.265002e-08	5.058286e+01	8.303858e+02
1.910000e-06	7.187789e-06	1.261661e-08	5.007281e+01	8.263449e+02
1.920000e-06	7.111841e-06	1.252990e-08	4.954373e+01	8.220667e+02
1.930000e-06	7.033137e-06	1.249149e-08	4.899545e+01	8.175652e+02
1.940000e-06	6.951756e-06	1.243213e-08	4.842852e+01	8.128599e+02
1.950000e-06	6.867917e-06	1.233905e-08	4.784447e+01	8.079738e+02
1.960000e-06	6.781410e-06	1.229732e-08	4.724183e+01	8.029298e+02
1.970000e-06	6.692303e-06	1.215822e-08	4.662107e+01	7.977475e+02
1.980000e-06	6.600897e-06	1.209754e-08	4.598430e+01	7.924409e+02
1.990000e-06	6.507229e-06	1.201654e-08	4.533178e+01	7.870155e+02
2.000000e-06	6.411182e-06	1.196882e-08	4.466268e+01	7.814679e+02
2.010000e-06	6.312832e-06	1.186923e-08	4.397753e+01	7.757858e+02
2.020000e-06	6.212235e-06	1.174933e-08	4.327674e+01	7.699498e+02
2.030000e-06	6.109274e-06	1.166315e-08	4.255948e+01	7.639358e+02
2.040000e-06	6.004134e-06	1.156666e-08	4.182703e+01	7.577186e+02
2.050000e-06	5.897015e-06	1.149068e-08	4.108080e+01	7.512754e+02
2.060000e-06	5.787952e-06	1.137523e-08	4.032103e+01	7.445886e+02
2.070000e-06	5.676831e-06	1.127664e-08	3.954691e+01	7.376484e+02
2.080000e-06	5.563595e-06	1.115410e-08	3.875808e+01	7.304535e+02
2.090000e-06	5.448226e-06	1.104407e-08	3.795437e+01	7.230107e+02
2.100000e-06	5.330715e-06	1.093002e-08	3.713574e+01	7.153332e+02
2.110000e-06	5.211117e-06	1.082902e-08	3.630258e+01	7.074372e+02
2.120000e-06	5.089654e-06	1.070018e-08	3.545642e+01	6.993390e+02
2.130000e-06	4.966465e-06	1.055632e-08	3.459824e+01	6.910504e+02
2.140000e-06	4.841417e-06	1.043291e-08	3.372711e+01	6.825766e+02
2.150000e-06	4.714562e-06	1.031659e-08	3.284339e+01	6.739135e+02
2.160000e-06	4.585997e-06	1.018977e-08	3.194776e+01	6.650473e+02
2.170000e-06	4.455807e-06	1.003098e-08	3.104081e+01	6.559556e+02
2.180000e-06	4.324049e-06	9.880984e-09	3.012294e+01	6.466101e+02
2.190000e-06	4.190674e-06	9.729657e-09	2.919380e+01	6.369799e+02
2.200000e-06	4.055690e-06	9.583887e-09	2.825345e+01	6.270355e+02
2.210000e-06	3.919174e-06	9.434249e-09	2.730242e+01	6.167532e+02
2.220000e-06	3.781160e-06	9.283141e-09	2.634097e+01	6.061182e+02
2.230000e-06	3.641649e-06	9.108016e-09	2.536908e+01	5.951258e+02
2.240000e-06	3.500693e-06	8.924414e-09	2.438713e+01	5.837819e+02
2.250000e-06	3.358373e-06	8.751396e-09	2.339568e+01	5.721009e+02
2.260000e-06	3.214743e-06	8.584919e-09	2.239510e+01	5.601023e+02
2.270000e-06	3.069901e-06	8.408077e-09	2.138607e+01	5.478062e+02
2.280000e-06	2.923979e-06	8.211750e-09	2.036953e+01	5.352282e+02
2.290000e-06	2.777057e-06	8.010087e-09	1.934601e+01	5.223750e+02
2.300000e-06	2.629157e-06	7.807885e-09	1.831568e+01	5.092408e+02
2.310000e-06	2.480362e-06	7.604219e-09	1.727912e+01	4.958062e+02
2.320000e-06	2.330755e-06	7.395355e-09	1.623690e+01	4.820384e+02
2.330000e-06	2.180346e-06	7.177980e-09	1.518910e+01	4.678945e+02
2.340000e-06	2.029115e-06	6.948296e-09	1.413557e+01	4.533254e+02
2.350000e-06	1.877063e-06	6.713095e-09	1.307632e+01	4.382821e+02
2.360000e-06	1.724416e-06	6.476548e-09	1.201292e+01	4.227209e+02
2.370000e-06	1.571312e-06	6.234974e-09	1.094635e+01	4.066088e+02
2.380000e-06	1.417747e-06	5.983558e-09	9.876553e+00	3.899266e+02
2.390000e-06	1.263691e-06	5.720102e-09	8.803343e+00	3.726690e+02
2.400000e-06	1.109182e-06	5.446816e-09	7.726974e+00	3.548427e+02
2.410000e-06	9.543383e-07	5.170222e-09	6.648275e+00	3.364612e+02
2.420000e-06	7.991802e-07	4.891238e-09	5.567387e+00	3.175370e+02
2.430000e-06	6.437483e-07	4.601997e-09	4.484590e+00	2.980735e+02
2.440000e-06	4.881067e-07	4.295333e-09	3.400333e+00	2.780558e+02
2.450000e-06	3.322593e-07	3.975349e-09	2.314642e+00	2.574442e+02
2.460000e-06	1.762816e-07	3.647433e-09	1.228043e+00	2.361695e+02
2.470000e-06	2.021312e-08	3.307712e-09	1.408121e-01	2.141331e+02
2.480000e-06	-1.359610e-07	2.950921e-09	-9.471547e-01	1.912113e+02
2.490000e-06	-2.920671e-07	2.578683e-09	-2.034648e+00	1.672646e+02
2.500000e-06	-4.480230e-07	2.190915e-09	-3.121095e+00	1.421513e+02
2.510000e-06	-6.039185e-07	1.788621e-09	-4.207121e+00	1.157433e+02
2.520000e-06	-7.596346e-07	1.372978e-09	-5.291897e+00	8.794458e+01
2.530000e-06	-9.150354e-07	9.406436e-10	-6.374477e+00	5.870731e+01
2.540000e-06	-1.070096e-06	4.851542e-10	-7.454690e+00	2.804673e+01
2.550000e-06	-1.224768e-06	2.578794e-12	-8.532189e+00	-3.949448e+00
2.560000e-06	-1.379011e-06	-5.056233e-10	-9.606701e+00	-3.711734e+01
2.570000e-06	-1.532801e-06	-1.032265e-09	-1.067806e+01	-7.122002e+01
2.580000e-06	-1.686113e-06	-1.570773e-09	-1.174609e+01	-1.059576e+02
2.590000e-06	-1.838886e-06	-2.116777e-09	-1.281037e+01	-1.409831e+02
2.600000e-06	-1.990868e-06	-2.662067e-09	-1.386913e+01	-1.759236e+02
2.610000e-06	-2.141943e-06	-3.200687e-09	-1.492157e+01	-2.104032e+02
2.620000e-06	-2.292205e-06	-3.722009e-09	-1.596835e+01	-2.440672e+02
2.630000e-06	-2.441641e-06	-4.216734e-09	-1.700938e+01	-2.766034e+02
2.640000e-06	-2.590225e-06	-4.684998e-09	-1.804447e+01	-3.077604e+02
2.650000e-06	-2.737881e-06	-5.128744e-09	-1.907310e+01	-3.373589e+02
2.660000e-06	-2.884471e-06	-5.550798e-09	-2.009430e+01	-3.652972e+02
2.670000e-06	-3.030014e-06	-5.951278e-09	-2.110821e+01	-3.915497e+02
2.680000e-06	-3.174401e-06	-6.328740e-09	-2.211406e+01	-4.161583e+02
2.690000e-06	-3.317458e-06	-6.683081e-09	-2.311065e+01	-4.392200e+02
2.700000e-06	-3.459276e-06	-7.016974e-09	-2.409860e+01	-4.608696e+02
2.710000e-06	-3.599737e-06	-7.333039e-09	-2.507711e+01	-4.812626e+02
2.720000e-06	-3.738763e-06	-7.633416e-09	-2.604561e+01	-5.005573e+02
2.730000e-06	-3.876545e-06	-7.919318e-09	-2.700545e+01	-5.189008e+02
2.740000e-06	-4.012954e-06	-8.190322e-09	-2.795573e+01	-5.364174e+02
2.750000e-06	-4.147805e-06	-8.448110e-09	-2.889516e+01	-5.532027e+02
2.760000e-06	-4.281188e-06	-8.694267e-09	-2.982435e+01	-5.693221e+02
2.770000e-06	-4.413045e-06	-8.930021e-09	-3.074291e+01	-5.848130e+02
2.780000e-06	-4.543374e-06	-9.155497e-09	-3.165083e+01	-5.996911e+02
2.790000e-06	-4.672254e-06	-9.371766e-09	-3.254866e+01	-6.139585e+02
2.800000e-06	-4.799426e-06	-9.580318e-09	-3.343459e+01	-6.276116e+02
2.810000e-06	-4.924885e-06	-9.779844e-09	-3.430858e+01	-6.406495e+02
2.820000e-06	-5.048719e-06	-9.971427e-09	-3.517125e+01	-6.530795e+02
2.830000e-06	-5.170810e-06	-1.015443e-08	-3.602178e+01	-6.649208e+02
2.840000e-06	-5.290986e-06	-1.032808e-08	-3.685898e+01	-6.762043e+02
2.850000e-06	-5.409038e-06	-1.049321e-08	-3.768137e+01	-6.869715e+02
2.860000e-06	-5.524923e-06	-1.065109e-08	-3.848867e+01	-6.972698e+02
2.870000e-06	-5.638566e-06	-1.080280e-08	-3.928035e+01	-7.071474e+02
2.880000e-06	-5.749987e-06	-1.094841e-08	-4.005655e+01	-7.166483e+02
2.890000e-06	-5.859298e-06	-1.109021e-08	-4.081805e+01	-7.258076e+02
2.900000e-06	-5.966566e-06	-1.122728e-08	-4.156532e+01	-7.346485e+02
2.910000e-06	-6.071729e-06	-1.135829e-08	-4.229793e+01	-7.431815e+02
2.920000e-06	-6.174651e-06	-1.148335e-08	-4.301491e+01	-7.514052e+02
2.930000e-06	-6.275238e-06	-1.160460e-08	-4.371564e+01	-7.593094e+02
2.940000e-06	-6.373588e-06	-1.172009e-08	-4.440078e+01	-7.668793e+02
