# Temperatura_=_72.47
# Concentracion g/m^3_=_15000.0
# C_Vs_to_Am_M_A/Vsm_=_65563218390.804596
# pendiente_HvsI_1/m_=_3716.3
# ordenada_HvsI_A/m_=_1297.0
# frecuencia_Hz_=_302341.0846313495

Tiempo_(s)	Campo_(V.s)	Magnetizacion_(V.s)	Campo_(kA/m)	Magnetizacion_(A/m)
0.000000e+00	-8.159762e-06	-1.265841e-08	-5.690421e+01	-8.276159e+02
1.000000e-08	-8.154935e-06	-1.265263e-08	-5.687054e+01	-8.271274e+02
2.000000e-08	-8.147523e-06	-1.264189e-08	-5.681885e+01	-8.264911e+02
3.000000e-08	-8.137244e-06	-1.263035e-08	-5.674717e+01	-8.257256e+02
4.000000e-08	-8.123994e-06	-1.261501e-08	-5.665477e+01	-8.248497e+02
5.000000e-08	-8.107828e-06	-1.259636e-08	-5.654203e+01	-8.238799e+02
6.000000e-08	-8.089123e-06	-1.257660e-08	-5.641158e+01	-8.228289e+02
7.000000e-08	-8.068118e-06	-1.254800e-08	-5.626510e+01	-8.217044e+02
8.000000e-08	-8.044340e-06	-1.257207e-08	-5.609928e+01	-8.205093e+02
9.000000e-08	-8.017378e-06	-1.258587e-08	-5.591126e+01	-8.192416e+02
1.000000e-07	-7.987284e-06	-1.252942e-08	-5.570138e+01	-8.178953e+02
1.100000e-07	-7.954168e-06	-1.248398e-08	-5.547045e+01	-8.164621e+02
1.200000e-07	-7.918201e-06	-1.245338e-08	-5.521962e+01	-8.149320e+02
1.300000e-07	-7.879741e-06	-1.241867e-08	-5.495140e+01	-8.132948e+02
1.400000e-07	-7.838946e-06	-1.235244e-08	-5.466691e+01	-8.115406e+02
1.500000e-07	-7.795740e-06	-1.233679e-08	-5.436560e+01	-8.096600e+02
1.600000e-07	-7.749830e-06	-1.236330e-08	-5.404544e+01	-8.076443e+02
1.700000e-07	-7.700983e-06	-1.226240e-08	-5.370479e+01	-8.054850e+02
1.800000e-07	-7.649310e-06	-1.227004e-08	-5.334444e+01	-8.031735e+02
1.900000e-07	-7.594815e-06	-1.224510e-08	-5.296440e+01	-8.007005e+02
2.000000e-07	-7.537455e-06	-1.213450e-08	-5.256439e+01	-7.980561e+02
2.100000e-07	-7.477395e-06	-1.211303e-08	-5.214555e+01	-7.952303e+02
2.200000e-07	-7.414719e-06	-1.205235e-08	-5.170846e+01	-7.922134e+02
2.300000e-07	-7.349209e-06	-1.203906e-08	-5.125160e+01	-7.889970e+02
2.400000e-07	-7.280802e-06	-1.196584e-08	-5.077455e+01	-7.855755e+02
2.500000e-07	-7.209613e-06	-1.190705e-08	-5.027809e+01	-7.819466e+02
2.600000e-07	-7.135571e-06	-1.186297e-08	-4.976175e+01	-7.781128e+02
2.700000e-07	-7.058736e-06	-1.179840e-08	-4.922592e+01	-7.740810e+02
2.800000e-07	-6.979114e-06	-1.173132e-08	-4.867065e+01	-7.698625e+02
2.900000e-07	-6.896829e-06	-1.166393e-08	-4.809681e+01	-7.654717e+02
3.000000e-07	-6.812212e-06	-1.163020e-08	-4.750672e+01	-7.609245e+02
3.100000e-07	-6.725220e-06	-1.153272e-08	-4.690006e+01	-7.562361e+02
3.200000e-07	-6.635766e-06	-1.144467e-08	-4.627623e+01	-7.514191e+02
3.300000e-07	-6.543876e-06	-1.138857e-08	-4.563541e+01	-7.464813e+02
3.400000e-07	-6.449655e-06	-1.130608e-08	-4.497833e+01	-7.414244e+02
3.500000e-07	-6.353139e-06	-1.120633e-08	-4.430525e+01	-7.362434e+02
3.600000e-07	-6.254281e-06	-1.112304e-08	-4.361584e+01	-7.309270e+02
3.700000e-07	-6.153193e-06	-1.106166e-08	-4.291088e+01	-7.254585e+02
3.800000e-07	-6.049878e-06	-1.097265e-08	-4.219039e+01	-7.198186e+02
3.900000e-07	-5.944400e-06	-1.087236e-08	-4.145481e+01	-7.139870e+02
4.000000e-07	-5.836846e-06	-1.077971e-08	-4.070475e+01	-7.079458e+02
4.100000e-07	-5.727231e-06	-1.068695e-08	-3.994033e+01	-7.016813e+02
4.200000e-07	-5.615490e-06	-1.057962e-08	-3.916107e+01	-6.951858e+02
4.300000e-07	-5.501619e-06	-1.047356e-08	-3.836696e+01	-6.884581e+02
4.400000e-07	-5.385665e-06	-1.038330e-08	-3.755832e+01	-6.815032e+02
4.500000e-07	-5.267615e-06	-1.028326e-08	-3.673507e+01	-6.743308e+02
4.600000e-07	-5.147647e-06	-1.016208e-08	-3.589844e+01	-6.669527e+02
4.700000e-07	-5.025938e-06	-1.004080e-08	-3.504967e+01	-6.593800e+02
4.800000e-07	-4.902377e-06	-9.925768e-09	-3.418799e+01	-6.516208e+02
4.900000e-07	-4.777008e-06	-9.803732e-09	-3.331370e+01	-6.436770e+02
5.000000e-07	-4.649994e-06	-9.676918e-09	-3.242793e+01	-6.355435e+02
5.100000e-07	-4.521272e-06	-9.549916e-09	-3.153026e+01	-6.272071e+02
5.200000e-07	-4.390846e-06	-9.418937e-09	-3.062070e+01	-6.186484e+02
5.300000e-07	-4.258765e-06	-9.277883e-09	-2.969960e+01	-6.098428e+02
5.400000e-07	-4.125157e-06	-9.134511e-09	-2.876785e+01	-6.007640e+02
5.500000e-07	-3.989976e-06	-8.988700e-09	-2.782513e+01	-5.913870e+02
5.600000e-07	-3.853124e-06	-8.838526e-09	-2.687076e+01	-5.816914e+02
5.700000e-07	-3.714835e-06	-8.682087e-09	-2.590636e+01	-5.716637e+02
5.800000e-07	-3.575033e-06	-8.527184e-09	-2.493142e+01	-5.612985e+02
5.900000e-07	-3.433597e-06	-8.369391e-09	-2.394508e+01	-5.505989e+02
6.000000e-07	-3.290803e-06	-8.203345e-09	-2.294927e+01	-5.395742e+02
6.100000e-07	-3.146827e-06	-8.032445e-09	-2.194521e+01	-5.282379e+02
6.200000e-07	-3.001693e-06	-7.854164e-09	-2.093308e+01	-5.166037e+02
6.300000e-07	-2.855427e-06	-7.670309e-09	-1.991306e+01	-5.046814e+02
6.400000e-07	-2.708111e-06	-7.483157e-09	-1.888571e+01	-4.924737e+02
6.500000e-07	-2.559876e-06	-7.293771e-09	-1.785196e+01	-4.799738e+02
6.600000e-07	-2.410858e-06	-7.096707e-09	-1.681274e+01	-4.671638e+02
6.700000e-07	-2.261108e-06	-6.893168e-09	-1.576842e+01	-4.540155e+02
6.800000e-07	-2.110604e-06	-6.682903e-09	-1.471884e+01	-4.404928e+02
6.900000e-07	-1.959310e-06	-6.467752e-09	-1.366375e+01	-4.265555e+02
7.000000e-07	-1.807296e-06	-6.248271e-09	-1.260365e+01	-4.121631e+02
7.100000e-07	-1.654615e-06	-6.021909e-09	-1.153888e+01	-3.972798e+02
7.200000e-07	-1.501314e-06	-5.789754e-09	-1.046980e+01	-3.818780e+02
7.300000e-07	-1.347568e-06	-5.548310e-09	-9.397616e+00	-3.659405e+02
7.400000e-07	-1.193470e-06	-5.296501e-09	-8.322969e+00	-3.494604e+02
7.500000e-07	-1.039050e-06	-5.038610e-09	-7.246085e+00	-3.324391e+02
7.600000e-07	-8.843077e-07	-4.774569e-09	-6.166948e+00	-3.148818e+02
7.700000e-07	-7.292289e-07	-4.499688e-09	-5.085466e+00	-2.967914e+02
7.800000e-07	-5.738785e-07	-4.217602e-09	-4.002090e+00	-2.781615e+02
7.900000e-07	-4.183107e-07	-3.926579e-09	-2.917198e+00	-2.589699e+02
8.000000e-07	-2.625428e-07	-3.623772e-09	-1.830910e+00	-2.391733e+02
8.100000e-07	-1.066287e-07	-3.307556e-09	-7.436030e-01	-2.187049e+02
8.200000e-07	4.937491e-08	-2.977263e-09	3.443287e-01	-1.974748e+02
8.300000e-07	2.054499e-07	-2.634379e-09	1.432758e+00	-1.753750e+02
8.400000e-07	3.615224e-07	-2.277399e-09	2.521170e+00	-1.522879e+02
8.500000e-07	5.174407e-07	-1.907307e-09	3.608507e+00	-1.280976e+02
8.600000e-07	6.730907e-07	-1.524901e-09	4.693972e+00	-1.027050e+02
8.700000e-07	8.285118e-07	-1.127199e-09	5.777841e+00	-7.604152e+01
8.800000e-07	9.836809e-07	-7.082314e-10	6.859953e+00	-4.808373e+01
8.900000e-07	1.138500e-06	-2.710566e-10	7.939622e+00	-1.886448e+01
9.000000e-07	1.292908e-06	1.863356e-10	9.016429e+00	1.151982e+01
9.100000e-07	1.446920e-06	6.647768e-10	1.009047e+01	4.290724e+01
9.200000e-07	1.600493e-06	1.158490e-09	1.116145e+01	7.507408e+01
9.300000e-07	1.753523e-06	1.662942e-09	1.222864e+01	1.077445e+02
9.400000e-07	1.905901e-06	2.169316e-09	1.329129e+01	1.406049e+02
9.500000e-07	2.057482e-06	2.670967e-09	1.434838e+01	1.733225e+02
9.600000e-07	2.208262e-06	3.162411e-09	1.539988e+01	2.055654e+02
9.700000e-07	2.358195e-06	3.640677e-09	1.644548e+01	2.370231e+02
9.800000e-07	2.507249e-06	4.102691e-09	1.748495e+01	2.674245e+02
9.900000e-07	2.655367e-06	4.540530e-09	1.851789e+01	2.965528e+02
1.000000e-06	2.802400e-06	4.952791e-09	1.954326e+01	3.242549e+02
1.010000e-06	2.948449e-06	5.343732e-09	2.056177e+01	3.504455e+02
1.020000e-06	3.093493e-06	5.714769e-09	2.157327e+01	3.751044e+02
1.030000e-06	3.237342e-06	6.064247e-09	2.257644e+01	3.982696e+02
1.040000e-06	3.379977e-06	6.394194e-09	2.357114e+01	4.200254e+02
1.050000e-06	3.521331e-06	6.708362e-09	2.455691e+01	4.404883e+02
1.060000e-06	3.661258e-06	7.006411e-09	2.553273e+01	4.597913e+02
1.070000e-06	3.799737e-06	7.288292e-09	2.649845e+01	4.780699e+02
1.080000e-06	3.936838e-06	7.555674e-09	2.745456e+01	4.954494e+02
1.090000e-06	4.072514e-06	7.810818e-09	2.840073e+01	5.120360e+02
1.100000e-06	4.206658e-06	8.051182e-09	2.933622e+01	5.279121e+02
1.110000e-06	4.339305e-06	8.279560e-09	3.026126e+01	5.431346e+02
1.120000e-06	4.470466e-06	8.500504e-09	3.117595e+01	5.577381e+02
1.130000e-06	4.600083e-06	8.713824e-09	3.207987e+01	5.717393e+02
1.140000e-06	4.728042e-06	8.914014e-09	3.297222e+01	5.851444e+02
1.150000e-06	4.854360e-06	9.101032e-09	3.385314e+01	5.979555e+02
1.160000e-06	4.979027e-06	9.280223e-09	3.472253e+01	6.101773e+02
1.170000e-06	5.101903e-06	9.453175e-09	3.557944e+01	6.218214e+02
1.180000e-06	5.223005e-06	9.622087e-09	3.642398e+01	6.329090e+02
1.190000e-06	5.342234e-06	9.786929e-09	3.725545e+01	6.434707e+02
1.200000e-06	5.459453e-06	9.945507e-09	3.807290e+01	6.535446e+02
1.210000e-06	5.574614e-06	1.009482e-08	3.887601e+01	6.631728e+02
1.220000e-06	5.687611e-06	1.023574e-08	3.966403e+01	6.723972e+02
1.230000e-06	5.798414e-06	1.037428e-08	4.043674e+01	6.812549e+02
1.240000e-06	5.907163e-06	1.050723e-08	4.119513e+01	6.897749e+02
1.250000e-06	6.013834e-06	1.063119e-08	4.193902e+01	6.979764e+02
1.260000e-06	6.118242e-06	1.075011e-08	4.266714e+01	7.058679e+02
1.270000e-06	6.220409e-06	1.086351e-08	4.337963e+01	7.134491e+02
1.280000e-06	6.320359e-06	1.097249e-08	4.407665e+01	7.207135e+02
1.290000e-06	6.417949e-06	1.107742e-08	4.475723e+01	7.276519e+02
1.300000e-06	6.513078e-06	1.117732e-08	4.542063e+01	7.342572e+02
1.310000e-06	6.605848e-06	1.126904e-08	4.606759e+01	7.405272e+02
1.320000e-06	6.696338e-06	1.135499e-08	4.669864e+01	7.464675e+02
1.330000e-06	6.784411e-06	1.143949e-08	4.731284e+01	7.520930e+02
1.340000e-06	6.870085e-06	1.152069e-08	4.791031e+01	7.574267e+02
1.350000e-06	6.953412e-06	1.159918e-08	4.849142e+01	7.624986e+02
1.360000e-06	7.034204e-06	1.167452e-08	4.905484e+01	7.673416e+02
1.370000e-06	7.112432e-06	1.174678e-08	4.960038e+01	7.719883e+02
1.380000e-06	7.188013e-06	1.181570e-08	5.012746e+01	7.764669e+02
1.390000e-06	7.260774e-06	1.188181e-08	5.063488e+01	7.807977e+02
1.400000e-06	7.330954e-06	1.194609e-08	5.112430e+01	7.849911e+02
1.410000e-06	7.398637e-06	1.200623e-08	5.159631e+01	7.890465e+02
1.420000e-06	7.463622e-06	1.206288e-08	5.204949e+01	7.929533e+02
1.430000e-06	7.525986e-06	1.211667e-08	5.248441e+01	7.966932e+02
1.440000e-06	7.585866e-06	1.216898e-08	5.290199e+01	8.002429e+02
1.450000e-06	7.643058e-06	1.221924e-08	5.330084e+01	8.035787e+02
1.460000e-06	7.697465e-06	1.226451e-08	5.368026e+01	8.066797e+02
1.470000e-06	7.748899e-06	1.230782e-08	5.403894e+01	8.095316e+02
1.480000e-06	7.797154e-06	1.234953e-08	5.437547e+01	8.121287e+02
1.490000e-06	7.842500e-06	1.238661e-08	5.469170e+01	8.144746e+02
1.500000e-06	7.885078e-06	1.241912e-08	5.498863e+01	8.165820e+02
1.510000e-06	7.924822e-06	1.244702e-08	5.526580e+01	8.184708e+02
1.520000e-06	7.961843e-06	1.247233e-08	5.552397e+01	8.201651e+02
1.530000e-06	7.996090e-06	1.249628e-08	5.576280e+01	8.216901e+02
1.540000e-06	8.027435e-06	1.251847e-08	5.598139e+01	8.230685e+02
1.550000e-06	8.055988e-06	1.253761e-08	5.618051e+01	8.243180e+02
1.560000e-06	8.081619e-06	1.255340e-08	5.635925e+01	8.254488e+02
1.570000e-06	8.104234e-06	1.256995e-08	5.651697e+01	8.264637e+02
1.580000e-06	8.124050e-06	1.258414e-08	5.665516e+01	8.273578e+02
1.590000e-06	8.140956e-06	1.259431e-08	5.677306e+01	8.281203e+02
1.600000e-06	8.154791e-06	1.260226e-08	5.686954e+01	8.287371e+02
1.610000e-06	8.165482e-06	1.260643e-08	5.694410e+01	8.291933e+02
1.620000e-06	8.173013e-06	1.260865e-08	5.699662e+01	8.294761e+02
1.630000e-06	8.177650e-06	1.260969e-08	5.702895e+01	8.295773e+02
1.640000e-06	8.179449e-06	1.261113e-08	5.704150e+01	8.294944e+02
1.650000e-06	8.178320e-06	1.260948e-08	5.703363e+01	8.292317e+02
1.660000e-06	8.174518e-06	1.260018e-08	5.700711e+01	8.287996e+02
1.670000e-06	8.168037e-06	1.259476e-08	5.696191e+01	8.282134e+02
1.680000e-06	8.158788e-06	1.258728e-08	5.689741e+01	8.274912e+02
1.690000e-06	8.146745e-06	1.257660e-08	5.681343e+01	8.266521e+02
1.700000e-06	8.131832e-06	1.256785e-08	5.670943e+01	8.257136e+02
1.710000e-06	8.114324e-06	1.256059e-08	5.658733e+01	8.246898e+02
1.720000e-06	8.094494e-06	1.255558e-08	5.644904e+01	8.235904e+02
1.730000e-06	8.072031e-06	1.246943e-08	5.629239e+01	8.224199e+02
1.740000e-06	8.046227e-06	1.244017e-08	5.611244e+01	8.211779e+02
1.750000e-06	8.016581e-06	1.246251e-08	5.590570e+01	8.198600e+02
1.760000e-06	7.983477e-06	1.243789e-08	5.567484e+01	8.184583e+02
1.770000e-06	7.947925e-06	1.241410e-08	5.542690e+01	8.169634e+02
1.780000e-06	7.910120e-06	1.244892e-08	5.516327e+01	8.153650e+02
1.790000e-06	7.870111e-06	1.242251e-08	5.488425e+01	8.136531e+02
1.800000e-06	7.828092e-06	1.227823e-08	5.459122e+01	8.118180e+02
1.810000e-06	7.783480e-06	1.236999e-08	5.428011e+01	8.098509e+02
1.820000e-06	7.735989e-06	1.232337e-08	5.394892e+01	8.077433e+02
1.830000e-06	7.685701e-06	1.227672e-08	5.359822e+01	8.054866e+02
1.840000e-06	7.632273e-06	1.231657e-08	5.322563e+01	8.030717e+02
1.850000e-06	7.575978e-06	1.220132e-08	5.283304e+01	8.004891e+02
1.860000e-06	7.516952e-06	1.223394e-08	5.242140e+01	7.977287e+02
1.870000e-06	7.455115e-06	1.211136e-08	5.199017e+01	7.947805e+02
1.880000e-06	7.390624e-06	1.206007e-08	5.154042e+01	7.916356e+02
1.890000e-06	7.323241e-06	1.205414e-08	5.107051e+01	7.882871e+02
1.900000e-06	7.252932e-06	1.192914e-08	5.058019e+01	7.847317e+02
1.910000e-06	7.179731e-06	1.191171e-08	5.006970e+01	7.809699e+02
1.920000e-06	7.103727e-06	1.184096e-08	4.953968e+01	7.770071e+02
1.930000e-06	7.025011e-06	1.182616e-08	4.899072e+01	7.728532e+02
1.940000e-06	6.943651e-06	1.171573e-08	4.842334e+01	7.685215e+02
1.950000e-06	6.859820e-06	1.163947e-08	4.783873e+01	7.640277e+02
1.960000e-06	6.773367e-06	1.161523e-08	4.723582e+01	7.593875e+02
1.970000e-06	6.684328e-06	1.149575e-08	4.661488e+01	7.546147e+02
1.980000e-06	6.592898e-06	1.144844e-08	4.597727e+01	7.497189e+02
1.990000e-06	6.499193e-06	1.137461e-08	4.532380e+01	7.447041e+02
2.000000e-06	6.403171e-06	1.131867e-08	4.465416e+01	7.395679e+02
2.010000e-06	6.304837e-06	1.119701e-08	4.396841e+01	7.343008e+02
2.020000e-06	6.204276e-06	1.110994e-08	4.326712e+01	7.288882e+02
2.030000e-06	6.101409e-06	1.104545e-08	4.254975e+01	7.233112e+02
2.040000e-06	5.996351e-06	1.095991e-08	4.181710e+01	7.175497e+02
2.050000e-06	5.889260e-06	1.087181e-08	4.107027e+01	7.115846e+02
2.060000e-06	5.780238e-06	1.076684e-08	4.030998e+01	7.054005e+02
2.070000e-06	5.669219e-06	1.068279e-08	3.953576e+01	6.989873e+02
2.080000e-06	5.556064e-06	1.055899e-08	3.874665e+01	6.923417e+02
2.090000e-06	5.440698e-06	1.045363e-08	3.794211e+01	6.854664e+02
2.100000e-06	5.323240e-06	1.034965e-08	3.712299e+01	6.783698e+02
2.110000e-06	5.203786e-06	1.025137e-08	3.628994e+01	6.710631e+02
2.120000e-06	5.082467e-06	1.013120e-08	3.544390e+01	6.635582e+02
2.130000e-06	4.959335e-06	1.002403e-08	3.458520e+01	6.558645e+02
2.140000e-06	4.834339e-06	9.915890e-09	3.371351e+01	6.479862e+02
2.150000e-06	4.707689e-06	9.790598e-09	3.283029e+01	6.399209e+02
2.160000e-06	4.579349e-06	9.655827e-09	3.193527e+01	6.316583e+02
2.170000e-06	4.449295e-06	9.517790e-09	3.102831e+01	6.231810e+02
2.180000e-06	4.317588e-06	9.389643e-09	3.010982e+01	6.144660e+02
2.190000e-06	4.184226e-06	9.253118e-09	2.917978e+01	6.054871e+02
2.200000e-06	4.049347e-06	9.117500e-09	2.823917e+01	5.962187e+02
2.210000e-06	3.912972e-06	8.971741e-09	2.728812e+01	5.866382e+02
2.220000e-06	3.774969e-06	8.822201e-09	2.632572e+01	5.767295e+02
2.230000e-06	3.635450e-06	8.662916e-09	2.535275e+01	5.664843e+02
2.240000e-06	3.494568e-06	8.507019e-09	2.437027e+01	5.559028e+02
2.250000e-06	3.352435e-06	8.347674e-09	2.337907e+01	5.449922e+02
2.260000e-06	3.209107e-06	8.180905e-09	2.237954e+01	5.337650e+02
2.270000e-06	3.064532e-06	8.005229e-09	2.137130e+01	5.222351e+02
2.280000e-06	2.918771e-06	7.822332e-09	2.035480e+01	5.104143e+02
2.290000e-06	2.771908e-06	7.636426e-09	1.933061e+01	4.983082e+02
2.300000e-06	2.624065e-06	7.447163e-09	1.829959e+01	4.859136e+02
2.310000e-06	2.475348e-06	7.255634e-09	1.726248e+01	4.732164e+02
2.320000e-06	2.325763e-06	7.057189e-09	1.621931e+01	4.601921e+02
2.330000e-06	2.175353e-06	6.853348e-09	1.517039e+01	4.468070e+02
2.340000e-06	2.024280e-06	6.644012e-09	1.411684e+01	4.330219e+02
2.350000e-06	1.872584e-06	6.425072e-09	1.305895e+01	4.187959e+02
2.360000e-06	1.720257e-06	6.195244e-09	1.199666e+01	4.040909e+02
2.370000e-06	1.567381e-06	5.958287e-09	1.093053e+01	3.888763e+02
2.380000e-06	1.414014e-06	5.719393e-09	9.860991e+00	3.731308e+02
2.390000e-06	1.260180e-06	5.476014e-09	8.788190e+00	3.568440e+02
2.400000e-06	1.105844e-06	5.224841e-09	7.711890e+00	3.400149e+02
2.410000e-06	9.510138e-07	4.965502e-09	6.632140e+00	3.226479e+02
2.420000e-06	7.958841e-07	4.696823e-09	5.550303e+00	3.047474e+02
2.430000e-06	6.405303e-07	4.419266e-09	4.466903e+00	2.863111e+02
2.440000e-06	4.849340e-07	4.130749e-09	3.381813e+00	2.673233e+02
2.450000e-06	3.291975e-07	3.832188e-09	2.295744e+00	2.477486e+02
2.460000e-06	1.732932e-07	3.520630e-09	1.208505e+00	2.275287e+02
2.470000e-06	1.727401e-08	3.192359e-09	1.204647e-01	2.065817e+02
2.480000e-06	-1.387271e-07	2.849487e-09	-9.674494e-01	1.848051e+02
2.490000e-06	-2.946841e-07	2.495224e-09	-2.055055e+00	1.620836e+02
2.500000e-06	-4.505679e-07	2.128086e-09	-3.142151e+00	1.382993e+02
2.510000e-06	-6.063597e-07	1.747117e-09	-4.228606e+00	1.133453e+02
2.520000e-06	-7.619734e-07	1.354661e-09	-5.313818e+00	8.714038e+01
2.530000e-06	-9.173162e-07	9.464366e-10	-6.397141e+00	5.964359e+01
2.540000e-06	-1.072358e-06	5.183358e-10	-7.478366e+00	3.086659e+01
2.550000e-06	-1.227044e-06	6.890541e-11	-8.557110e+00	8.825632e-01
2.560000e-06	-1.381241e-06	-4.027241e-10	-9.632437e+00	-3.016982e+01
2.570000e-06	-1.534835e-06	-8.950814e-10	-1.070357e+01	-6.208813e+01
2.580000e-06	-1.687827e-06	-1.402275e-09	-1.177050e+01	-9.461368e+01
2.590000e-06	-1.840148e-06	-1.916431e-09	-1.283275e+01	-1.274445e+02
2.600000e-06	-1.991717e-06	-2.427743e-09	-1.388975e+01	-1.602523e+02
2.610000e-06	-2.142623e-06	-2.930774e-09	-1.494213e+01	-1.927025e+02
2.620000e-06	-2.292873e-06	-3.420310e-09	-1.598994e+01	-2.244748e+02
2.630000e-06	-2.442258e-06	-3.889618e-09	-1.703172e+01	-2.552820e+02
2.640000e-06	-2.590660e-06	-4.338489e-09	-1.806663e+01	-2.848865e+02
2.650000e-06	-2.738075e-06	-4.764279e-09	-1.909467e+01	-3.131120e+02
2.660000e-06	-2.884485e-06	-5.167895e-09	-2.011570e+01	-3.398486e+02
2.670000e-06	-3.029755e-06	-5.552226e-09	-2.112878e+01	-3.650536e+02
2.680000e-06	-3.173827e-06	-5.914807e-09	-2.213350e+01	-3.887453e+02
2.690000e-06	-3.316762e-06	-6.254760e-09	-2.313030e+01	-4.109931e+02
2.700000e-06	-3.458434e-06	-6.575448e-09	-2.411828e+01	-4.319036e+02
2.710000e-06	-3.598740e-06	-6.878691e-09	-2.509674e+01	-4.516057e+02
2.720000e-06	-3.737671e-06	-7.169064e-09	-2.606561e+01	-4.702356e+02
2.730000e-06	-3.875222e-06	-7.445865e-09	-2.702486e+01	-4.879235e+02
2.740000e-06	-4.011321e-06	-7.707103e-09	-2.797398e+01	-5.047831e+02
2.750000e-06	-4.146001e-06	-7.953845e-09	-2.891321e+01	-5.209057e+02
2.760000e-06	-4.279269e-06	-8.188187e-09	-2.984259e+01	-5.363572e+02
2.770000e-06	-4.411014e-06	-8.415618e-09	-3.076134e+01	-5.511797e+02
2.780000e-06	-4.541314e-06	-8.635549e-09	-3.167003e+01	-5.653955e+02
2.790000e-06	-4.670046e-06	-8.844593e-09	-3.256777e+01	-5.790138e+02
2.800000e-06	-4.797095e-06	-9.042518e-09	-3.345378e+01	-5.920373e+02
2.810000e-06	-4.922536e-06	-9.230750e-09	-3.432857e+01	-6.044693e+02
2.820000e-06	-5.046177e-06	-9.409853e-09	-3.519082e+01	-6.163184e+02
2.830000e-06	-5.167947e-06	-9.580212e-09	-3.604001e+01	-6.276024e+02
2.840000e-06	-5.287853e-06	-9.743951e-09	-3.687621e+01	-6.383484e+02
2.850000e-06	-5.405770e-06	-9.900347e-09	-3.769853e+01	-6.485924e+02
2.860000e-06	-5.521508e-06	-1.004968e-08	-3.850566e+01	-6.583755e+02
2.870000e-06	-5.634949e-06	-1.019349e-08	-3.929677e+01	-6.677402e+02
2.880000e-06	-5.746218e-06	-1.033238e-08	-4.007273e+01	-6.767256e+02
2.890000e-06	-5.855368e-06	-1.046783e-08	-4.083392e+01	-6.853641e+02
2.900000e-06	-5.962466e-06	-1.059673e-08	-4.158079e+01	-6.936784e+02
2.910000e-06	-6.067443e-06	-1.071836e-08	-4.231288e+01	-7.016809e+02
2.920000e-06	-6.170178e-06	-1.083588e-08	-4.302933e+01	-7.093740e+02
2.930000e-06	-6.270637e-06	-1.094902e-08	-4.372991e+01	-7.167531e+02
2.940000e-06	-6.368868e-06	-1.105414e-08	-4.441494e+01	-7.238096e+02
