# Temperatura_=_28.55
# Concentracion g/m^3_=_15000.0
# C_Vs_to_Am_M_A/Vsm_=_65563218390.804596
# pendiente_HvsI_1/m_=_3716.3
# ordenada_HvsI_A/m_=_1297.0
# frecuencia_Hz_=_302340.7445237067

Tiempo_(s)	Campo_(V.s)	Magnetizacion_(V.s)	Campo_(kA/m)	Magnetizacion_(A/m)
0.000000e+00	-8.200048e-06	-1.059524e-08	-5.690597e+01	-6.919331e+02
1.000000e-08	-8.195223e-06	-1.059274e-08	-5.687248e+01	-6.916619e+02
2.000000e-08	-8.187830e-06	-1.058641e-08	-5.682118e+01	-6.912882e+02
3.000000e-08	-8.177584e-06	-1.057933e-08	-5.675008e+01	-6.908199e+02
4.000000e-08	-8.164319e-06	-1.056649e-08	-5.665802e+01	-6.902657e+02
5.000000e-08	-8.148089e-06	-1.055131e-08	-5.654539e+01	-6.896337e+02
6.000000e-08	-8.129309e-06	-1.053773e-08	-5.641506e+01	-6.889305e+02
7.000000e-08	-8.108281e-06	-1.051682e-08	-5.626914e+01	-6.881607e+02
8.000000e-08	-8.084573e-06	-1.054520e-08	-5.610460e+01	-6.873267e+02
9.000000e-08	-8.057609e-06	-1.056671e-08	-5.591749e+01	-6.864286e+02
1.000000e-07	-8.027403e-06	-1.050940e-08	-5.570786e+01	-6.854645e+02
1.100000e-07	-7.994164e-06	-1.047102e-08	-5.547719e+01	-6.844312e+02
1.200000e-07	-7.958046e-06	-1.045135e-08	-5.522655e+01	-6.833246e+02
1.300000e-07	-7.919437e-06	-1.043024e-08	-5.495861e+01	-6.821405e+02
1.400000e-07	-7.878490e-06	-1.038138e-08	-5.467445e+01	-6.808747e+02
1.500000e-07	-7.835161e-06	-1.036678e-08	-5.437376e+01	-6.795234e+02
1.600000e-07	-7.789142e-06	-1.040059e-08	-5.405440e+01	-6.780829e+02
1.700000e-07	-7.740136e-06	-1.026731e-08	-5.371431e+01	-6.765495e+02
1.800000e-07	-7.688282e-06	-1.030947e-08	-5.335446e+01	-6.749192e+02
1.900000e-07	-7.633515e-06	-1.032897e-08	-5.297439e+01	-6.731873e+02
2.000000e-07	-7.575817e-06	-1.022105e-08	-5.257399e+01	-6.713480e+02
2.100000e-07	-7.515465e-06	-1.023278e-08	-5.215516e+01	-6.693947e+02
2.200000e-07	-7.452474e-06	-1.017281e-08	-5.171802e+01	-6.673200e+02
2.300000e-07	-7.386701e-06	-1.016212e-08	-5.126158e+01	-6.651165e+02
2.400000e-07	-7.318110e-06	-1.009551e-08	-5.078557e+01	-6.627771e+02
2.500000e-07	-7.246726e-06	-1.006031e-08	-5.029019e+01	-6.602962e+02
2.600000e-07	-7.172473e-06	-1.002748e-08	-4.977490e+01	-6.576704e+02
2.700000e-07	-7.095327e-06	-9.969675e-09	-4.923952e+01	-6.548985e+02
2.800000e-07	-7.015328e-06	-9.927861e-09	-4.868436e+01	-6.519826e+02
2.900000e-07	-6.932754e-06	-9.877142e-09	-4.811131e+01	-6.489270e+02
3.000000e-07	-6.847806e-06	-9.871000e-09	-4.752180e+01	-6.457384e+02
3.100000e-07	-6.760349e-06	-9.792942e-09	-4.691488e+01	-6.424243e+02
3.200000e-07	-6.670435e-06	-9.720691e-09	-4.629090e+01	-6.389923e+02
3.300000e-07	-6.578175e-06	-9.700100e-09	-4.565064e+01	-6.354482e+02
3.400000e-07	-6.483543e-06	-9.650580e-09	-4.499392e+01	-6.317957e+02
3.500000e-07	-6.386568e-06	-9.573550e-09	-4.432094e+01	-6.280347e+02
3.600000e-07	-6.287258e-06	-9.505568e-09	-4.363175e+01	-6.241616e+02
3.700000e-07	-6.185665e-06	-9.461154e-09	-4.292673e+01	-6.201690e+02
3.800000e-07	-6.081769e-06	-9.384683e-09	-4.220572e+01	-6.160465e+02
3.900000e-07	-5.975681e-06	-9.304428e-09	-4.146951e+01	-6.117818e+02
4.000000e-07	-5.867596e-06	-9.247469e-09	-4.071943e+01	-6.073620e+02
4.100000e-07	-5.757482e-06	-9.185044e-09	-3.995526e+01	-6.027752e+02
4.200000e-07	-5.645208e-06	-9.102486e-09	-3.917612e+01	-5.980114e+02
4.300000e-07	-5.530697e-06	-9.016541e-09	-3.838144e+01	-5.930636e+02
4.400000e-07	-5.414054e-06	-8.952154e-09	-3.757197e+01	-5.879281e+02
4.500000e-07	-5.295424e-06	-8.879896e-09	-3.674871e+01	-5.826041e+02
4.600000e-07	-5.174830e-06	-8.785053e-09	-3.591183e+01	-5.770932e+02
4.700000e-07	-5.052427e-06	-8.693077e-09	-3.506238e+01	-5.713978e+02
4.800000e-07	-4.928287e-06	-8.610276e-09	-3.420089e+01	-5.655197e+02
4.900000e-07	-4.802431e-06	-8.518281e-09	-3.332749e+01	-5.594589e+02
5.000000e-07	-4.674847e-06	-8.414734e-09	-3.244209e+01	-5.532123e+02
5.100000e-07	-4.545486e-06	-8.314884e-09	-3.154436e+01	-5.467730e+02
5.200000e-07	-4.414412e-06	-8.213739e-09	-3.063475e+01	-5.401303e+02
5.300000e-07	-4.281698e-06	-8.104461e-09	-2.971375e+01	-5.332705e+02
5.400000e-07	-4.147452e-06	-7.995615e-09	-2.878212e+01	-5.261777e+02
5.500000e-07	-4.011633e-06	-7.887714e-09	-2.783958e+01	-5.188359e+02
5.600000e-07	-3.874221e-06	-7.773995e-09	-2.688598e+01	-5.112305e+02
5.700000e-07	-3.735229e-06	-7.647387e-09	-2.592141e+01	-5.033498e+02
5.800000e-07	-3.594600e-06	-7.519555e-09	-2.494549e+01	-4.951860e+02
5.900000e-07	-3.452431e-06	-7.392616e-09	-2.395888e+01	-4.867360e+02
6.000000e-07	-3.309025e-06	-7.261871e-09	-2.296368e+01	-4.780004e+02
6.100000e-07	-3.164454e-06	-7.122919e-09	-2.196040e+01	-4.689825e+02
6.200000e-07	-3.018657e-06	-6.978946e-09	-2.094861e+01	-4.596868e+02
6.300000e-07	-2.871721e-06	-6.832030e-09	-1.992892e+01	-4.501159e+02
6.400000e-07	-2.723793e-06	-6.681167e-09	-1.890234e+01	-4.402691e+02
6.500000e-07	-2.574982e-06	-6.527891e-09	-1.786963e+01	-4.301397e+02
6.600000e-07	-2.425349e-06	-6.368989e-09	-1.683123e+01	-4.197146e+02
6.700000e-07	-2.274893e-06	-6.205441e-09	-1.578710e+01	-4.089735e+02
6.800000e-07	-2.123591e-06	-6.034058e-09	-1.473711e+01	-3.978899e+02
6.900000e-07	-1.971528e-06	-5.856880e-09	-1.368183e+01	-3.864332e+02
7.000000e-07	-1.818812e-06	-5.673911e-09	-1.262203e+01	-3.745713e+02
7.100000e-07	-1.665486e-06	-5.486545e-09	-1.155799e+01	-3.622735e+02
7.200000e-07	-1.511583e-06	-5.294133e-09	-1.048995e+01	-3.495135e+02
7.300000e-07	-1.357206e-06	-5.093263e-09	-9.418619e+00	-3.362718e+02
7.400000e-07	-1.202373e-06	-4.882793e-09	-8.344122e+00	-3.225368e+02
7.500000e-07	-1.047026e-06	-4.667342e-09	-7.266057e+00	-3.083046e+02
7.600000e-07	-8.912707e-07	-4.446805e-09	-6.185162e+00	-2.935773e+02
7.700000e-07	-7.352336e-07	-4.214617e-09	-5.102309e+00	-2.783597e+02
7.800000e-07	-5.789204e-07	-3.974684e-09	-4.017541e+00	-2.626549e+02
7.900000e-07	-4.224414e-07	-3.728134e-09	-2.931622e+00	-2.464599e+02
8.000000e-07	-2.658991e-07	-3.475449e-09	-1.845263e+00	-2.297606e+02
8.100000e-07	-1.092421e-07	-3.211966e-09	-7.581084e-01	-2.125285e+02
8.200000e-07	4.750146e-08	-2.939241e-09	3.296465e-01	-1.947190e+02
8.300000e-07	2.042794e-07	-2.655569e-09	1.417640e+00	-1.762717e+02
8.400000e-07	3.610326e-07	-2.357118e-09	2.505462e+00	-1.571137e+02
8.500000e-07	5.176750e-07	-2.048014e-09	3.592515e+00	-1.371656e+02
8.600000e-07	6.742078e-07	-1.730637e-09	4.678808e+00	-1.163489e+02
8.700000e-07	8.305695e-07	-1.403288e-09	5.763913e+00	-9.459659e+01
8.800000e-07	9.866642e-07	-1.058731e-09	6.847165e+00	-7.186252e+01
8.900000e-07	1.142449e-06	-7.007649e-10	7.928267e+00	-4.813181e+01
9.000000e-07	1.297822e-06	-3.278206e-10	9.006511e+00	-2.342876e+01
9.100000e-07	1.452696e-06	6.103204e-11	1.008129e+01	2.177557e+00
9.200000e-07	1.606974e-06	4.620078e-10	1.115194e+01	2.857125e+01
9.300000e-07	1.760680e-06	8.729137e-10	1.221861e+01	5.559149e+01
9.400000e-07	1.913848e-06	1.290990e-09	1.328155e+01	8.303830e+01
9.500000e-07	2.066289e-06	1.713839e-09	1.433945e+01	1.106820e+02
9.600000e-07	2.217929e-06	2.134573e-09	1.539179e+01	1.382753e+02
9.700000e-07	2.368709e-06	2.549286e-09	1.643816e+01	1.655672e+02
9.800000e-07	2.518442e-06	2.956619e-09	1.747726e+01	1.923175e+02
9.900000e-07	2.667218e-06	3.354517e-09	1.850972e+01	2.183099e+02
1.000000e-06	2.815027e-06	3.735491e-09	1.953547e+01	2.433630e+02
1.010000e-06	2.961803e-06	4.095744e-09	2.055406e+01	2.673391e+02
1.020000e-06	3.107516e-06	4.438413e-09	2.156527e+01	2.901477e+02
1.030000e-06	3.252088e-06	4.763147e-09	2.256855e+01	3.117464e+02
1.040000e-06	3.395451e-06	5.070636e-09	2.356345e+01	3.321372e+02
1.050000e-06	3.537485e-06	5.362586e-09	2.454913e+01	3.513595e+02
1.060000e-06	3.678115e-06	5.639533e-09	2.552506e+01	3.694816e+02
1.070000e-06	3.817319e-06	5.899774e-09	2.649110e+01	3.865904e+02
1.080000e-06	3.955088e-06	6.146344e-09	2.744717e+01	4.027805e+02
1.090000e-06	4.091344e-06	6.383278e-09	2.839275e+01	4.181455e+02
1.100000e-06	4.226098e-06	6.608623e-09	2.932790e+01	4.327703e+02
1.110000e-06	4.359404e-06	6.821053e-09	3.025300e+01	4.467253e+02
1.120000e-06	4.491177e-06	7.024077e-09	3.116748e+01	4.600649e+02
1.130000e-06	4.621320e-06	7.218907e-09	3.207063e+01	4.728263e+02
1.140000e-06	4.749831e-06	7.401526e-09	3.296246e+01	4.850323e+02
1.150000e-06	4.876677e-06	7.572249e-09	3.384273e+01	4.966947e+02
1.160000e-06	5.001896e-06	7.734255e-09	3.471172e+01	5.078189e+02
1.170000e-06	5.125449e-06	7.892242e-09	3.556914e+01	5.184078e+02
1.180000e-06	5.247159e-06	8.046893e-09	3.641377e+01	5.284666e+02
1.190000e-06	5.366945e-06	8.196409e-09	3.724505e+01	5.380052e+02
1.200000e-06	5.484808e-06	8.338152e-09	3.806299e+01	5.470396e+02
1.210000e-06	5.600597e-06	8.469925e-09	3.886653e+01	5.555928e+02
1.220000e-06	5.714166e-06	8.592848e-09	3.965466e+01	5.636930e+02
1.230000e-06	5.825484e-06	8.710361e-09	4.042718e+01	5.713723e+02
1.240000e-06	5.934700e-06	8.822363e-09	4.118511e+01	5.786639e+02
1.250000e-06	6.041911e-06	8.926950e-09	4.192912e+01	5.856002e+02
1.260000e-06	6.146864e-06	9.026786e-09	4.265746e+01	5.922102e+02
1.270000e-06	6.249487e-06	9.122461e-09	4.336964e+01	5.985186e+02
1.280000e-06	6.349870e-06	9.214051e-09	4.406627e+01	6.045451e+02
1.290000e-06	6.447921e-06	9.300623e-09	4.474671e+01	6.103046e+02
1.300000e-06	6.543542e-06	9.382380e-09	4.541030e+01	6.158079e+02
1.310000e-06	6.636794e-06	9.460123e-09	4.605744e+01	6.210638e+02
1.320000e-06	6.727710e-06	9.533642e-09	4.668837e+01	6.260794e+02
1.330000e-06	6.816172e-06	9.605837e-09	4.730227e+01	6.308625e+02
1.340000e-06	6.902243e-06	9.676346e-09	4.789958e+01	6.354218e+02
1.350000e-06	6.986023e-06	9.743190e-09	4.848098e+01	6.397675e+02
1.360000e-06	7.067264e-06	9.805655e-09	4.904477e+01	6.439109e+02
1.370000e-06	7.145855e-06	9.864623e-09	4.959017e+01	6.478639e+02
1.380000e-06	7.221846e-06	9.920719e-09	5.011753e+01	6.516378e+02
1.390000e-06	7.295069e-06	9.975403e-09	5.062568e+01	6.552418e+02
1.400000e-06	7.365597e-06	1.002850e-08	5.111512e+01	6.586825e+02
1.410000e-06	7.433647e-06	1.007682e-08	5.158737e+01	6.619628e+02
1.420000e-06	7.499079e-06	1.012119e-08	5.204144e+01	6.650819e+02
1.430000e-06	7.561849e-06	1.016254e-08	5.247705e+01	6.680356e+02
1.440000e-06	7.622044e-06	1.020395e-08	5.289479e+01	6.708174e+02
1.450000e-06	7.679500e-06	1.024173e-08	5.329352e+01	6.734196e+02
1.460000e-06	7.734188e-06	1.027431e-08	5.367303e+01	6.758352e+02
1.470000e-06	7.785942e-06	1.030704e-08	5.403220e+01	6.780593e+02
1.480000e-06	7.834503e-06	1.033985e-08	5.436919e+01	6.800902e+02
1.490000e-06	7.880126e-06	1.036758e-08	5.468580e+01	6.819303e+02
1.500000e-06	7.923016e-06	1.038982e-08	5.498345e+01	6.835864e+02
1.510000e-06	7.963067e-06	1.041012e-08	5.526139e+01	6.850691e+02
1.520000e-06	8.000293e-06	1.043017e-08	5.551973e+01	6.863918e+02
1.530000e-06	8.034755e-06	1.044884e-08	5.575889e+01	6.875696e+02
1.540000e-06	8.066367e-06	1.046350e-08	5.597826e+01	6.886175e+02
1.550000e-06	8.095142e-06	1.047602e-08	5.617795e+01	6.895487e+02
1.560000e-06	8.120943e-06	1.048859e-08	5.635700e+01	6.903738e+02
1.570000e-06	8.143658e-06	1.050183e-08	5.651464e+01	6.910998e+02
1.580000e-06	8.163573e-06	1.051392e-08	5.665284e+01	6.917297e+02
1.590000e-06	8.180609e-06	1.052197e-08	5.677107e+01	6.922633e+02
1.600000e-06	8.194588e-06	1.052601e-08	5.686808e+01	6.926972e+02
1.610000e-06	8.205398e-06	1.052826e-08	5.694310e+01	6.930270e+02
1.620000e-06	8.212993e-06	1.052967e-08	5.699580e+01	6.932475e+02
1.630000e-06	8.217716e-06	1.053246e-08	5.702858e+01	6.933549e+02
1.640000e-06	8.219578e-06	1.053417e-08	5.704150e+01	6.933472e+02
1.650000e-06	8.218551e-06	1.053435e-08	5.703437e+01	6.932251e+02
1.660000e-06	8.214861e-06	1.052706e-08	5.700877e+01	6.929919e+02
1.670000e-06	8.208381e-06	1.052626e-08	5.696380e+01	6.926536e+02
1.680000e-06	8.199135e-06	1.052347e-08	5.689964e+01	6.922178e+02
1.690000e-06	8.187127e-06	1.051404e-08	5.681630e+01	6.916930e+02
1.700000e-06	8.172190e-06	1.050599e-08	5.671264e+01	6.910876e+02
1.710000e-06	8.154659e-06	1.050171e-08	5.659098e+01	6.904089e+02
1.720000e-06	8.134806e-06	1.050453e-08	5.645321e+01	6.896622e+02
1.730000e-06	8.112229e-06	1.042569e-08	5.629653e+01	6.888507e+02
1.740000e-06	8.086259e-06	1.040030e-08	5.611631e+01	6.879753e+02
1.750000e-06	8.056494e-06	1.043910e-08	5.590975e+01	6.870347e+02
1.760000e-06	8.023302e-06	1.042255e-08	5.567941e+01	6.860263e+02
1.770000e-06	7.987619e-06	1.040176e-08	5.543177e+01	6.849461e+02
1.780000e-06	7.949644e-06	1.043675e-08	5.516824e+01	6.837898e+02
1.790000e-06	7.909412e-06	1.043644e-08	5.488904e+01	6.825534e+02
1.800000e-06	7.867220e-06	1.027463e-08	5.459624e+01	6.812327e+02
1.810000e-06	7.822440e-06	1.037808e-08	5.428548e+01	6.798242e+02
1.820000e-06	7.774707e-06	1.035726e-08	5.395422e+01	6.783241e+02
1.830000e-06	7.724152e-06	1.027091e-08	5.360339e+01	6.767286e+02
1.840000e-06	7.670454e-06	1.034041e-08	5.323074e+01	6.750333e+02
1.850000e-06	7.613900e-06	1.020205e-08	5.283827e+01	6.732327e+02
1.860000e-06	7.554587e-06	1.025103e-08	5.242666e+01	6.713206e+02
1.870000e-06	7.492391e-06	1.018920e-08	5.199503e+01	6.692898e+02
1.880000e-06	7.427503e-06	1.016379e-08	5.154473e+01	6.671328e+02
1.890000e-06	7.359739e-06	1.020406e-08	5.107447e+01	6.648424e+02
1.900000e-06	7.289071e-06	1.007153e-08	5.058405e+01	6.624123e+02
1.910000e-06	7.215573e-06	1.006107e-08	5.007399e+01	6.598382e+02
1.920000e-06	7.139317e-06	9.993740e-09	4.954480e+01	6.571181e+02
1.930000e-06	7.060281e-06	1.000673e-08	4.899632e+01	6.542529e+02
1.940000e-06	6.978591e-06	9.935159e-09	4.842941e+01	6.512463e+02
1.950000e-06	6.894380e-06	9.867359e-09	4.784501e+01	6.481040e+02
1.960000e-06	6.807505e-06	9.880202e-09	4.724212e+01	6.448336e+02
1.970000e-06	6.718120e-06	9.766728e-09	4.662182e+01	6.414425e+02
1.980000e-06	6.626334e-06	9.731988e-09	4.598485e+01	6.379376e+02
1.990000e-06	6.532238e-06	9.677923e-09	4.533185e+01	6.343233e+02
2.000000e-06	6.435877e-06	9.651679e-09	4.466313e+01	6.306010e+02
2.010000e-06	6.337246e-06	9.553839e-09	4.397866e+01	6.267683e+02
2.020000e-06	6.236327e-06	9.487624e-09	4.327831e+01	6.228191e+02
2.030000e-06	6.133098e-06	9.454724e-09	4.256193e+01	6.187440e+02
2.040000e-06	6.027702e-06	9.387127e-09	4.183051e+01	6.145312e+02
2.050000e-06	5.920230e-06	9.319201e-09	4.108469e+01	6.101680e+02
2.060000e-06	5.810770e-06	9.232066e-09	4.032507e+01	6.056418e+02
2.070000e-06	5.699233e-06	9.187834e-09	3.955103e+01	6.009419e+02
2.080000e-06	5.585496e-06	9.100245e-09	3.876173e+01	5.960601e+02
2.090000e-06	5.469506e-06	9.028202e-09	3.795679e+01	5.909915e+02
2.100000e-06	5.351465e-06	8.954111e-09	3.713763e+01	5.857345e+02
2.110000e-06	5.231507e-06	8.878821e-09	3.630515e+01	5.802898e+02
2.120000e-06	5.109645e-06	8.772295e-09	3.545946e+01	5.746597e+02
2.130000e-06	4.985948e-06	8.681611e-09	3.460104e+01	5.688464e+02
2.140000e-06	4.860345e-06	8.609873e-09	3.372939e+01	5.628507e+02
2.150000e-06	4.733004e-06	8.523861e-09	3.284568e+01	5.566708e+02
2.160000e-06	4.603960e-06	8.425144e-09	3.195016e+01	5.503010e+02
2.170000e-06	4.473272e-06	8.315577e-09	3.104322e+01	5.437321e+02
2.180000e-06	4.340946e-06	8.216170e-09	3.012491e+01	5.369512e+02
2.190000e-06	4.207027e-06	8.103495e-09	2.919556e+01	5.299432e+02
2.200000e-06	4.071623e-06	7.994139e-09	2.825589e+01	5.226918e+02
2.210000e-06	3.934685e-06	7.880982e-09	2.730558e+01	5.151818e+02
2.220000e-06	3.796095e-06	7.765910e-09	2.634381e+01	5.074002e+02
2.230000e-06	3.655867e-06	7.637792e-09	2.537066e+01	4.993378e+02
2.240000e-06	3.514242e-06	7.513270e-09	2.438783e+01	4.909898e+02
2.250000e-06	3.371310e-06	7.388208e-09	2.339592e+01	4.823556e+02
2.260000e-06	3.227185e-06	7.255728e-09	2.239573e+01	4.734377e+02
2.270000e-06	3.081872e-06	7.114336e-09	2.138731e+01	4.642405e+02
2.280000e-06	2.935422e-06	6.968986e-09	2.037098e+01	4.547674e+02
2.290000e-06	2.787925e-06	6.824458e-09	1.934740e+01	4.450193e+02
2.300000e-06	2.639416e-06	6.673442e-09	1.831679e+01	4.349917e+02
2.310000e-06	2.489995e-06	6.516547e-09	1.727985e+01	4.246738e+02
2.320000e-06	2.339738e-06	6.350574e-09	1.623710e+01	4.140480e+02
2.330000e-06	2.188714e-06	6.177594e-09	1.518905e+01	4.030897e+02
2.340000e-06	2.036943e-06	6.002540e-09	1.413579e+01	3.917697e+02
2.350000e-06	1.884456e-06	5.826989e-09	1.307758e+01	3.800559e+02
2.360000e-06	1.731383e-06	5.645355e-09	1.201530e+01	3.679167e+02
2.370000e-06	1.577812e-06	5.452737e-09	1.094956e+01	3.553241e+02
2.380000e-06	1.423738e-06	5.251712e-09	9.880334e+00	3.422559e+02
2.390000e-06	1.269148e-06	5.044419e-09	8.807521e+00	3.286976e+02
2.400000e-06	1.114078e-06	4.828932e-09	7.731384e+00	3.146427e+02
2.410000e-06	9.585842e-07	4.608528e-09	6.652298e+00	3.000914e+02
2.420000e-06	8.027466e-07	4.383363e-09	5.570830e+00	2.850480e+02
2.430000e-06	6.466456e-07	4.147393e-09	4.487534e+00	2.695169e+02
2.440000e-06	4.902522e-07	3.902430e-09	3.402209e+00	2.534976e+02
2.450000e-06	3.336435e-07	3.652693e-09	2.315390e+00	2.369805e+02
2.460000e-06	1.769827e-07	3.395222e-09	1.228209e+00	2.199427e+02
2.470000e-06	2.022291e-08	3.124132e-09	1.403412e-01	2.023452e+02
2.480000e-06	-1.366351e-07	2.840405e-09	-9.482084e-01	1.841332e+02
2.490000e-06	-2.934835e-07	2.547950e-09	-2.036691e+00	1.652377e+02
2.500000e-06	-4.502334e-07	2.245177e-09	-3.124490e+00	1.455807e+02
2.510000e-06	-6.068862e-07	1.931730e-09	-4.211615e+00	1.250824e+02
2.520000e-06	-7.633619e-07	1.609170e-09	-5.297512e+00	1.036706e+02
2.530000e-06	-9.195130e-07	1.272937e-09	-6.381155e+00	8.129033e+01
2.540000e-06	-1.075319e-06	9.185025e-10	-7.462403e+00	5.791464e+01
2.550000e-06	-1.230700e-06	5.489872e-10	-8.540705e+00	3.355302e+01
2.560000e-06	-1.385601e-06	1.668444e-10	-9.615671e+00	8.258125e+00
2.570000e-06	-1.539975e-06	-2.302828e-10	-1.068698e+01	-1.787088e+01
2.580000e-06	-1.693759e-06	-6.424285e-10	-1.175420e+01	-4.468876e+01
2.590000e-06	-1.846891e-06	-1.065343e-09	-1.281689e+01	-7.200859e+01
2.600000e-06	-1.999355e-06	-1.493434e-09	-1.387495e+01	-9.961003e+01
2.610000e-06	-2.151064e-06	-1.923288e-09	-1.492776e+01	-1.272505e+02
2.620000e-06	-2.301934e-06	-2.346979e-09	-1.597476e+01	-1.546789e+02
2.630000e-06	-2.451963e-06	-2.759740e-09	-1.701592e+01	-1.816493e+02
2.640000e-06	-2.601080e-06	-3.161847e-09	-1.805074e+01	-2.079355e+02
2.650000e-06	-2.749196e-06	-3.550201e-09	-1.907863e+01	-2.333425e+02
2.660000e-06	-2.896282e-06	-3.921538e-09	-2.009936e+01	-2.577165e+02
2.670000e-06	-3.042286e-06	-4.272878e-09	-2.111259e+01	-2.809497e+02
2.680000e-06	-3.187222e-06	-4.607236e-09	-2.211840e+01	-3.029828e+02
2.690000e-06	-3.331028e-06	-4.925298e-09	-2.311637e+01	-3.238025e+02
2.700000e-06	-3.473481e-06	-5.226339e-09	-2.410496e+01	-3.434359e+02
2.710000e-06	-3.614571e-06	-5.510186e-09	-2.508408e+01	-3.619420e+02
2.720000e-06	-3.754249e-06	-5.778833e-09	-2.605340e+01	-3.794023e+02
2.730000e-06	-3.892461e-06	-6.032803e-09	-2.701256e+01	-3.959098e+02
2.740000e-06	-4.029282e-06	-6.272530e-09	-2.796206e+01	-4.115595e+02
2.750000e-06	-4.164641e-06	-6.502768e-09	-2.890141e+01	-4.264400e+02
2.760000e-06	-4.298516e-06	-6.723519e-09	-2.983046e+01	-4.406275e+02
2.770000e-06	-4.430876e-06	-6.934043e-09	-3.074900e+01	-4.541821e+02
2.780000e-06	-4.561687e-06	-7.135767e-09	-3.165679e+01	-4.671469e+02
2.790000e-06	-4.690994e-06	-7.327944e-09	-3.255414e+01	-4.795498e+02
2.800000e-06	-4.818718e-06	-7.508657e-09	-3.344051e+01	-4.914058e+02
2.810000e-06	-4.944713e-06	-7.677465e-09	-3.431488e+01	-5.027221e+02
2.820000e-06	-5.068898e-06	-7.837117e-09	-3.517669e+01	-5.135021e+02
2.830000e-06	-5.191337e-06	-7.989417e-09	-3.602638e+01	-5.237497e+02
2.840000e-06	-5.311946e-06	-8.136546e-09	-3.686337e+01	-5.334729e+02
2.850000e-06	-5.430528e-06	-8.277960e-09	-3.768630e+01	-5.426854e+02
2.860000e-06	-5.546908e-06	-8.413067e-09	-3.849394e+01	-5.514078e+02
2.870000e-06	-5.660965e-06	-8.541772e-09	-3.928547e+01	-5.596665e+02
2.880000e-06	-5.772728e-06	-8.663837e-09	-4.006107e+01	-5.674926e+02
2.890000e-06	-5.882352e-06	-8.780414e-09	-4.082183e+01	-5.749192e+02
2.900000e-06	-5.989982e-06	-8.890661e-09	-4.156875e+01	-5.819792e+02
2.910000e-06	-6.095574e-06	-8.993428e-09	-4.230153e+01	-5.887029e+02
2.920000e-06	-6.198924e-06	-9.091055e-09	-4.301875e+01	-5.951168e+02
2.930000e-06	-6.299856e-06	-9.185820e-09	-4.371919e+01	-6.012424e+02
2.940000e-06	-6.398547e-06	-9.273908e-09	-4.440407e+01	-6.070961e+02
