# Temperatura_=_65.44
# Concentracion g/m^3_=_15000.0
# C_Vs_to_Am_M_A/Vsm_=_65563218390.804596
# pendiente_HvsI_1/m_=_3716.3
# ordenada_HvsI_A/m_=_1297.0
# frecuencia_Hz_=_302340.17628554115

Tiempo_(s)	Campo_(V.s)	Magnetizacion_(V.s)	Campo_(kA/m)	Magnetizacion_(A/m)
0.000000e+00	-8.148187e-06	-1.195176e-08	-5.691836e+01	-7.820721e+02
1.000000e-08	-8.145965e-06	-1.195535e-08	-5.690284e+01	-7.818020e+02
2.000000e-08	-8.140957e-06	-1.195228e-08	-5.686786e+01	-7.813886e+02
3.000000e-08	-8.133406e-06	-1.194315e-08	-5.681510e+01	-7.808418e+02
4.000000e-08	-8.123077e-06	-1.193424e-08	-5.674296e+01	-7.801729e+02
5.000000e-08	-8.109726e-06	-1.192135e-08	-5.664969e+01	-7.793931e+02
6.000000e-08	-8.093427e-06	-1.190418e-08	-5.653584e+01	-7.785123e+02
7.000000e-08	-8.074586e-06	-1.188449e-08	-5.640422e+01	-7.775384e+02
8.000000e-08	-8.053444e-06	-1.185642e-08	-5.625654e+01	-7.764769e+02
9.000000e-08	-8.029571e-06	-1.188591e-08	-5.608978e+01	-7.753309e+02
1.000000e-07	-8.002498e-06	-1.190123e-08	-5.590066e+01	-7.741012e+02
1.100000e-07	-7.972274e-06	-1.183556e-08	-5.568954e+01	-7.727876e+02
1.200000e-07	-7.939055e-06	-1.179170e-08	-5.545749e+01	-7.713884e+02
1.300000e-07	-7.902963e-06	-1.177076e-08	-5.520537e+01	-7.699017e+02
1.400000e-07	-7.864429e-06	-1.173836e-08	-5.493620e+01	-7.683251e+02
1.500000e-07	-7.823558e-06	-1.167106e-08	-5.465070e+01	-7.666557e+02
1.600000e-07	-7.780260e-06	-1.166456e-08	-5.434824e+01	-7.648897e+02
1.700000e-07	-7.734307e-06	-1.167936e-08	-5.402724e+01	-7.630217e+02
1.800000e-07	-7.685431e-06	-1.155232e-08	-5.368582e+01	-7.610445e+02
1.900000e-07	-7.633669e-06	-1.158673e-08	-5.332425e+01	-7.589481e+02
2.000000e-07	-7.579026e-06	-1.158235e-08	-5.294254e+01	-7.567206e+02
2.100000e-07	-7.521513e-06	-1.149035e-08	-5.254079e+01	-7.543478e+02
2.200000e-07	-7.461279e-06	-1.148861e-08	-5.212003e+01	-7.518145e+02
2.300000e-07	-7.398495e-06	-1.141346e-08	-5.168146e+01	-7.491060e+02
2.400000e-07	-7.332987e-06	-1.138679e-08	-5.122386e+01	-7.462092e+02
2.500000e-07	-7.264602e-06	-1.130885e-08	-5.074617e+01	-7.431145e+02
2.600000e-07	-7.193484e-06	-1.126534e-08	-5.024938e+01	-7.398171e+02
2.700000e-07	-7.119504e-06	-1.122233e-08	-4.973260e+01	-7.363175e+02
2.800000e-07	-7.042622e-06	-1.115090e-08	-4.919554e+01	-7.326223e+02
2.900000e-07	-6.962893e-06	-1.108845e-08	-4.863860e+01	-7.287430e+02
3.000000e-07	-6.880581e-06	-1.102575e-08	-4.806363e+01	-7.246946e+02
3.100000e-07	-6.796030e-06	-1.100371e-08	-4.747300e+01	-7.204941e+02
3.200000e-07	-6.709181e-06	-1.091281e-08	-4.686633e+01	-7.161577e+02
3.300000e-07	-6.619802e-06	-1.083043e-08	-4.624198e+01	-7.116985e+02
3.400000e-07	-6.527930e-06	-1.078267e-08	-4.560021e+01	-7.071248e+02
3.500000e-07	-6.433726e-06	-1.071328e-08	-4.494216e+01	-7.024384e+02
3.600000e-07	-6.337154e-06	-1.062872e-08	-4.426757e+01	-6.976341e+02
3.700000e-07	-6.238258e-06	-1.054770e-08	-4.357674e+01	-6.927004e+02
3.800000e-07	-6.137134e-06	-1.048529e-08	-4.287035e+01	-6.876209e+02
3.900000e-07	-6.033804e-06	-1.039636e-08	-4.214854e+01	-6.823763e+02
4.000000e-07	-5.928265e-06	-1.030162e-08	-4.141131e+01	-6.769470e+02
4.100000e-07	-5.820666e-06	-1.022102e-08	-4.065969e+01	-6.713160e+02
4.200000e-07	-5.711091e-06	-1.013987e-08	-3.989427e+01	-6.654708e+02
4.300000e-07	-5.599483e-06	-1.003772e-08	-3.911464e+01	-6.594049e+02
4.400000e-07	-5.485739e-06	-9.929163e-09	-3.832009e+01	-6.531185e+02
4.500000e-07	-5.369824e-06	-9.839681e-09	-3.751037e+01	-6.466177e+02
4.600000e-07	-5.251850e-06	-9.748834e-09	-3.668628e+01	-6.399127e+02
4.700000e-07	-5.132022e-06	-9.642372e-09	-3.584924e+01	-6.330159e+02
4.800000e-07	-5.010399e-06	-9.533369e-09	-3.499965e+01	-6.259383e+02
4.900000e-07	-4.886922e-06	-9.428012e-09	-3.413711e+01	-6.186876e+02
5.000000e-07	-4.761670e-06	-9.313189e-09	-3.326218e+01	-6.112652e+02
5.100000e-07	-4.634704e-06	-9.189665e-09	-3.237527e+01	-6.036652e+02
5.200000e-07	-4.506073e-06	-9.068019e-09	-3.147673e+01	-5.958742e+02
5.300000e-07	-4.375698e-06	-8.945557e-09	-3.056601e+01	-5.878724e+02
5.400000e-07	-4.243659e-06	-8.813972e-09	-2.964366e+01	-5.796351e+02
5.500000e-07	-4.110113e-06	-8.680458e-09	-2.871079e+01	-5.711366e+02
5.600000e-07	-3.975081e-06	-8.549205e-09	-2.776753e+01	-5.623524e+02
5.700000e-07	-3.838616e-06	-8.415359e-09	-2.681428e+01	-5.532627e+02
5.800000e-07	-3.700557e-06	-8.269674e-09	-2.584988e+01	-5.438546e+02
5.900000e-07	-3.560858e-06	-8.119637e-09	-2.487402e+01	-5.341232e+02
6.000000e-07	-3.419702e-06	-7.965821e-09	-2.388799e+01	-5.240716e+02
6.100000e-07	-3.277180e-06	-7.806876e-09	-2.289242e+01	-5.137089e+02
6.200000e-07	-3.133373e-06	-7.644261e-09	-2.188787e+01	-5.030481e+02
6.300000e-07	-2.988346e-06	-7.477762e-09	-2.087480e+01	-4.921019e+02
6.400000e-07	-2.842183e-06	-7.306258e-09	-1.985379e+01	-4.808794e+02
6.500000e-07	-2.695052e-06	-7.128352e-09	-1.882602e+01	-4.693828e+02
6.600000e-07	-2.547091e-06	-6.949461e-09	-1.779246e+01	-4.576047e+02
6.700000e-07	-2.398350e-06	-6.766287e-09	-1.675344e+01	-4.455275e+02
6.800000e-07	-2.248864e-06	-6.576856e-09	-1.570922e+01	-4.331236e+02
6.900000e-07	-2.098619e-06	-6.378596e-09	-1.465970e+01	-4.203582e+02
7.000000e-07	-1.947542e-06	-6.173655e-09	-1.360437e+01	-4.071924e+02
7.100000e-07	-1.795749e-06	-5.964088e-09	-1.254403e+01	-3.935875e+02
7.200000e-07	-1.643421e-06	-5.748788e-09	-1.147996e+01	-3.795094e+02
7.300000e-07	-1.490567e-06	-5.527690e-09	-1.041221e+01	-3.649318e+02
7.400000e-07	-1.337159e-06	-5.299052e-09	-9.340594e+00	-3.498382e+02
7.500000e-07	-1.183212e-06	-5.062578e-09	-8.265213e+00	-3.342222e+02
7.600000e-07	-1.028799e-06	-4.820586e-09	-7.186573e+00	-3.180853e+02
7.700000e-07	-8.740336e-07	-4.571715e-09	-6.105476e+00	-3.014324e+02
7.800000e-07	-7.189564e-07	-4.310616e-09	-5.022199e+00	-2.842668e+02
7.900000e-07	-5.636574e-07	-4.040943e-09	-3.937373e+00	-2.665829e+02
8.000000e-07	-4.082070e-07	-3.763356e-09	-2.851490e+00	-2.483609e+02
8.100000e-07	-2.526101e-07	-3.476305e-09	-1.764583e+00	-2.295613e+02
8.200000e-07	-9.690162e-08	-3.175456e-09	-6.768967e-01	-2.101227e+02
8.300000e-07	5.887619e-08	-2.862361e-09	4.112739e-01	-1.899626e+02
8.400000e-07	2.146698e-07	-2.538918e-09	1.499555e+00	-1.689815e+02
8.500000e-07	3.704390e-07	-2.200766e-09	2.587666e+00	-1.470710e+02
8.600000e-07	5.260998e-07	-1.849810e-09	3.675018e+00	-1.241246e+02
8.700000e-07	6.815927e-07	-1.486158e-09	4.761199e+00	-1.000503e+02
8.800000e-07	8.369270e-07	-1.107746e-09	5.846271e+00	-7.478491e+01
8.900000e-07	9.920353e-07	-7.099786e-10	6.929765e+00	-4.830644e+01
9.000000e-07	1.146814e-06	-2.966310e-10	8.010956e+00	-2.064476e+01
9.100000e-07	1.301176e-06	1.351217e-10	9.089239e+00	8.111648e+00
9.200000e-07	1.454998e-06	5.870218e-10	1.016375e+01	3.781373e+01
9.300000e-07	1.608228e-06	1.053116e-09	1.123412e+01	6.825517e+01
9.400000e-07	1.760887e-06	1.530020e-09	1.230050e+01	9.918099e+01
9.500000e-07	1.912909e-06	2.010941e-09	1.336244e+01	1.303008e+02
9.600000e-07	2.064152e-06	2.490709e-09	1.441893e+01	1.613053e+02
9.700000e-07	2.214576e-06	2.959186e-09	1.546970e+01	1.918851e+02
9.800000e-07	2.364179e-06	3.410710e-09	1.651474e+01	2.217491e+02
9.900000e-07	2.512874e-06	3.845821e-09	1.755343e+01	2.506417e+02
1.000000e-06	2.660636e-06	4.262121e-09	1.858561e+01	2.783561e+02
1.010000e-06	2.807464e-06	4.659059e-09	1.961126e+01	3.047438e+02
1.020000e-06	2.953275e-06	5.035152e-09	2.062981e+01	3.297183e+02
1.030000e-06	3.097994e-06	5.390229e-09	2.164073e+01	3.532539e+02
1.040000e-06	3.241538e-06	5.724149e-09	2.264344e+01	3.753790e+02
1.050000e-06	3.383805e-06	6.038775e-09	2.363723e+01	3.961664e+02
1.060000e-06	3.524738e-06	6.337922e-09	2.462171e+01	4.157200e+02
1.070000e-06	3.664326e-06	6.621313e-09	2.559679e+01	4.341616e+02
1.080000e-06	3.802494e-06	6.888252e-09	2.656195e+01	4.516167e+02
1.090000e-06	3.939223e-06	7.141168e-09	2.751705e+01	4.682040e+02
1.100000e-06	4.074432e-06	7.384526e-09	2.846155e+01	4.840257e+02
1.110000e-06	4.208161e-06	7.616229e-09	2.939570e+01	4.991632e+02
1.120000e-06	4.340495e-06	7.835798e-09	3.032010e+01	5.136747e+02
1.130000e-06	4.471270e-06	8.046471e-09	3.123362e+01	5.275974e+02
1.140000e-06	4.600472e-06	8.249021e-09	3.213615e+01	5.409508e+02
1.150000e-06	4.728032e-06	8.439788e-09	3.302720e+01	5.537431e+02
1.160000e-06	4.853931e-06	8.619398e-09	3.390666e+01	5.659769e+02
1.170000e-06	4.978249e-06	8.790900e-09	3.477507e+01	5.776548e+02
1.180000e-06	5.100888e-06	8.957548e-09	3.563175e+01	5.887843e+02
1.190000e-06	5.221715e-06	9.119448e-09	3.647578e+01	5.993801e+02
1.200000e-06	5.340626e-06	9.276359e-09	3.730642e+01	6.094651e+02
1.210000e-06	5.457515e-06	9.426705e-09	3.812293e+01	6.190692e+02
1.220000e-06	5.572257e-06	9.568743e-09	3.892445e+01	6.282269e+02
1.230000e-06	5.684816e-06	9.704866e-09	3.971072e+01	6.369739e+02
1.240000e-06	5.795297e-06	9.835172e-09	4.048248e+01	6.453437e+02
1.250000e-06	5.903790e-06	9.958232e-09	4.124035e+01	6.533651e+02
1.260000e-06	6.010157e-06	1.007283e-08	4.198336e+01	6.610596e+02
1.270000e-06	6.114261e-06	1.018347e-08	4.271057e+01	6.684411e+02
1.280000e-06	6.216095e-06	1.028972e-08	4.342192e+01	6.755167e+02
1.290000e-06	6.315611e-06	1.038996e-08	4.411708e+01	6.822883e+02
1.300000e-06	6.412755e-06	1.048705e-08	4.479567e+01	6.887552e+02
1.310000e-06	6.507543e-06	1.058006e-08	4.545780e+01	6.949173e+02
1.320000e-06	6.600034e-06	1.066737e-08	4.610389e+01	7.007773e+02
1.330000e-06	6.690211e-06	1.074986e-08	4.673381e+01	7.063431e+02
1.340000e-06	6.777991e-06	1.083035e-08	4.734699e+01	7.116281e+02
1.350000e-06	6.863391e-06	1.090834e-08	4.794354e+01	7.166516e+02
1.360000e-06	6.946420e-06	1.098241e-08	4.852353e+01	7.214368e+02
1.370000e-06	7.026913e-06	1.105314e-08	4.908581e+01	7.260090e+02
1.380000e-06	7.104795e-06	1.112055e-08	4.962984e+01	7.303923e+02
1.390000e-06	7.179999e-06	1.118470e-08	5.015518e+01	7.346073e+02
1.400000e-06	7.252460e-06	1.124564e-08	5.066135e+01	7.386683e+02
1.410000e-06	7.322392e-06	1.130445e-08	5.114985e+01	7.425824e+02
1.420000e-06	7.389822e-06	1.136064e-08	5.162087e+01	7.463483e+02
1.430000e-06	7.454565e-06	1.141518e-08	5.207313e+01	7.499574e+02
1.440000e-06	7.516696e-06	1.146698e-08	5.250714e+01	7.533957e+02
1.450000e-06	7.576239e-06	1.151562e-08	5.292307e+01	7.566461e+02
1.460000e-06	7.633053e-06	1.155927e-08	5.331994e+01	7.596914e+02
1.470000e-06	7.687167e-06	1.159827e-08	5.369795e+01	7.625171e+02
1.480000e-06	7.738311e-06	1.163664e-08	5.405521e+01	7.651139e+02
1.490000e-06	7.786316e-06	1.167374e-08	5.439054e+01	7.674795e+02
1.500000e-06	7.831491e-06	1.170644e-08	5.470611e+01	7.696184e+02
1.510000e-06	7.873941e-06	1.173429e-08	5.500264e+01	7.715424e+02
1.520000e-06	7.913528e-06	1.175969e-08	5.527917e+01	7.732682e+02
1.530000e-06	7.950323e-06	1.178567e-08	5.553620e+01	7.748157e+02
1.540000e-06	7.984351e-06	1.180934e-08	5.577390e+01	7.762056e+02
1.550000e-06	8.015525e-06	1.182783e-08	5.599166e+01	7.774565e+02
1.560000e-06	8.043915e-06	1.184265e-08	5.618998e+01	7.785829e+02
1.570000e-06	8.069363e-06	1.185644e-08	5.636774e+01	7.795942e+02
1.580000e-06	8.091819e-06	1.187149e-08	5.652460e+01	7.804938e+02
1.590000e-06	8.111440e-06	1.188471e-08	5.666167e+01	7.812795e+02
1.600000e-06	8.128136e-06	1.189401e-08	5.677829e+01	7.819450e+02
1.610000e-06	8.141832e-06	1.190092e-08	5.687397e+01	7.824812e+02
1.620000e-06	8.152341e-06	1.190736e-08	5.694738e+01	7.828783e+02
1.630000e-06	8.159683e-06	1.191262e-08	5.699866e+01	7.831278e+02
1.640000e-06	8.164186e-06	1.191475e-08	5.703012e+01	7.832241e+02
1.650000e-06	8.165815e-06	1.191418e-08	5.704150e+01	7.831652e+02
1.660000e-06	8.164600e-06	1.191002e-08	5.703301e+01	7.829535e+02
1.670000e-06	8.160700e-06	1.189937e-08	5.700577e+01	7.825951e+02
1.680000e-06	8.153978e-06	1.189383e-08	5.695881e+01	7.820993e+02
1.690000e-06	8.144480e-06	1.188740e-08	5.689247e+01	7.814768e+02
1.700000e-06	8.132235e-06	1.187804e-08	5.680693e+01	7.807391e+02
1.710000e-06	8.117114e-06	1.187031e-08	5.670130e+01	7.798967e+02
1.720000e-06	8.099447e-06	1.186506e-08	5.657789e+01	7.789585e+02
1.730000e-06	8.079488e-06	1.186068e-08	5.643847e+01	7.779307e+02
1.740000e-06	8.056844e-06	1.177049e-08	5.628029e+01	7.768175e+02
1.750000e-06	8.030793e-06	1.174516e-08	5.609832e+01	7.756205e+02
1.760000e-06	8.000910e-06	1.177503e-08	5.588957e+01	7.743398e+02
1.770000e-06	7.967660e-06	1.174581e-08	5.565731e+01	7.729742e+02
1.780000e-06	7.932020e-06	1.171844e-08	5.540835e+01	7.715220e+02
1.790000e-06	7.894042e-06	1.175792e-08	5.514305e+01	7.699809e+02
1.800000e-06	7.853827e-06	1.173260e-08	5.486214e+01	7.683482e+02
1.810000e-06	7.811659e-06	1.159549e-08	5.456757e+01	7.666205e+02
1.820000e-06	7.766835e-06	1.169985e-08	5.425447e+01	7.647932e+02
1.830000e-06	7.719224e-06	1.163385e-08	5.392188e+01	7.628597e+02
1.840000e-06	7.668857e-06	1.158785e-08	5.357005e+01	7.608112e+02
1.850000e-06	7.615279e-06	1.162632e-08	5.319578e+01	7.586367e+02
1.860000e-06	7.558840e-06	1.148452e-08	5.280153e+01	7.563225e+02
1.870000e-06	7.499778e-06	1.153229e-08	5.238896e+01	7.538539e+02
1.880000e-06	7.437955e-06	1.143460e-08	5.195711e+01	7.512158e+02
1.890000e-06	7.373330e-06	1.142192e-08	5.150567e+01	7.483942e+02
1.900000e-06	7.305845e-06	1.143041e-08	5.103426e+01	7.453779e+02
1.910000e-06	7.235511e-06	1.129550e-08	5.054295e+01	7.421601e+02
1.920000e-06	7.162278e-06	1.128013e-08	5.003139e+01	7.387394e+02
1.930000e-06	7.086312e-06	1.118755e-08	4.950073e+01	7.351198e+02
1.940000e-06	7.007599e-06	1.118699e-08	4.895089e+01	7.313109e+02
1.950000e-06	6.926193e-06	1.110207e-08	4.838224e+01	7.273268e+02
1.960000e-06	6.842291e-06	1.103276e-08	4.779615e+01	7.231839e+02
1.970000e-06	6.755766e-06	1.101089e-08	4.719174e+01	7.188989e+02
1.980000e-06	6.666739e-06	1.088749e-08	4.656985e+01	7.144865e+02
1.990000e-06	6.575424e-06	1.084506e-08	4.593198e+01	7.099570e+02
2.000000e-06	6.481830e-06	1.076376e-08	4.527819e+01	7.053149e+02
2.010000e-06	6.385886e-06	1.072293e-08	4.460798e+01	7.005578e+02
2.020000e-06	6.287619e-06	1.061565e-08	4.392154e+01	6.956765e+02
2.030000e-06	6.187145e-06	1.053604e-08	4.321970e+01	6.906563e+02
2.040000e-06	6.084383e-06	1.047564e-08	4.250186e+01	6.854788e+02
2.050000e-06	5.979385e-06	1.039092e-08	4.176841e+01	6.801241e+02
2.060000e-06	5.872319e-06	1.030617e-08	4.102051e+01	6.745740e+02
2.070000e-06	5.763335e-06	1.019567e-08	4.025921e+01	6.688138e+02
2.080000e-06	5.652342e-06	1.012291e-08	3.948388e+01	6.628348e+02
2.090000e-06	5.539223e-06	1.001784e-08	3.869370e+01	6.566344e+02
2.100000e-06	5.424017e-06	9.932844e-09	3.788894e+01	6.502166e+02
2.110000e-06	5.306734e-06	9.838774e-09	3.706967e+01	6.435903e+02
2.120000e-06	5.187326e-06	9.744678e-09	3.623556e+01	6.367672e+02
2.130000e-06	5.065988e-06	9.618691e-09	3.538796e+01	6.297593e+02
2.140000e-06	4.942958e-06	9.505571e-09	3.452855e+01	6.225759e+02
2.150000e-06	4.818190e-06	9.405734e-09	3.365699e+01	6.152210e+02
2.160000e-06	4.691583e-06	9.297870e-09	3.277259e+01	6.076917e+02
2.170000e-06	4.563187e-06	9.178622e-09	3.187569e+01	5.999777e+02
2.180000e-06	4.433163e-06	9.046903e-09	3.096742e+01	5.920612e+02
2.190000e-06	4.301535e-06	8.924617e-09	3.004795e+01	5.839194e+02
2.200000e-06	4.168406e-06	8.791762e-09	2.911799e+01	5.755264e+02
2.210000e-06	4.033709e-06	8.663913e-09	2.817708e+01	5.668569e+02
2.220000e-06	3.897439e-06	8.529423e-09	2.722518e+01	5.578890e+02
2.230000e-06	3.759657e-06	8.392408e-09	2.626271e+01	5.486068e+02
2.240000e-06	3.620471e-06	8.240809e-09	2.529045e+01	5.390023e+02
2.250000e-06	3.479953e-06	8.091928e-09	2.430887e+01	5.290755e+02
2.260000e-06	3.338046e-06	7.941342e-09	2.331760e+01	5.188335e+02
2.270000e-06	3.194809e-06	7.785507e-09	2.231703e+01	5.082880e+02
2.280000e-06	3.050321e-06	7.620425e-09	2.130772e+01	4.974523e+02
2.290000e-06	2.904743e-06	7.450136e-09	2.029080e+01	4.863375e+02
2.300000e-06	2.758137e-06	7.278417e-09	1.926670e+01	4.749488e+02
2.310000e-06	2.610561e-06	7.102614e-09	1.823582e+01	4.632826e+02
2.320000e-06	2.462093e-06	6.923006e-09	1.719871e+01	4.513255e+02
2.330000e-06	2.312821e-06	6.733193e-09	1.615598e+01	4.390536e+02
2.340000e-06	2.162772e-06	6.535228e-09	1.510783e+01	4.264345e+02
2.350000e-06	2.011912e-06	6.331642e-09	1.405401e+01	4.134306e+02
2.360000e-06	1.860340e-06	6.125265e-09	1.299523e+01	4.000024e+02
2.370000e-06	1.708147e-06	5.914065e-09	1.193209e+01	3.861137e+02
2.380000e-06	1.555384e-06	5.695743e-09	1.086498e+01	3.717347e+02
2.390000e-06	1.402125e-06	5.470765e-09	9.794408e+00	3.568449e+02
2.400000e-06	1.248410e-06	5.238304e-09	8.720647e+00	3.414342e+02
2.410000e-06	1.094276e-06	4.997111e-09	7.643957e+00	3.255012e+02
2.420000e-06	9.398422e-07	4.749600e-09	6.565176e+00	3.090502e+02
2.430000e-06	7.851941e-07	4.494127e-09	5.484896e+00	2.920859e+02
2.440000e-06	6.302428e-07	4.228251e-09	4.402499e+00	2.746069e+02
2.450000e-06	4.749998e-07	3.952052e-09	3.318064e+00	2.565996e+02
2.460000e-06	3.195657e-07	3.667909e-09	2.232294e+00	2.380328e+02
2.470000e-06	1.639457e-07	3.373422e-09	1.145226e+00	2.188538e+02
2.480000e-06	8.250927e-09	3.066103e-09	5.763604e-02	1.989880e+02
2.490000e-06	-1.474480e-07	2.745862e-09	-1.029984e+00	1.783419e+02
2.500000e-06	-3.031620e-07	2.412822e-09	-2.117708e+00	1.568095e+02
2.510000e-06	-4.587773e-07	2.065649e-09	-3.204744e+00	1.342819e+02
2.520000e-06	-6.142157e-07	1.704795e-09	-4.290544e+00	1.106600e+02
2.530000e-06	-7.694725e-07	1.331692e-09	-5.375075e+00	8.586755e+01
2.540000e-06	-9.244640e-07	9.417491e-10	-6.457753e+00	5.986498e+01
2.550000e-06	-1.079112e-06	5.310161e-10	-7.538030e+00	3.266075e+01
2.560000e-06	-1.233406e-06	1.007654e-10	-8.615838e+00	4.319792e+00
2.570000e-06	-1.387305e-06	-3.463505e-10	-9.690880e+00	-2.503253e+01
2.580000e-06	-1.540688e-06	-8.078684e-10	-1.076232e+01	-5.521164e+01
2.590000e-06	-1.693479e-06	-1.280600e-09	-1.182963e+01	-8.598036e+01
2.600000e-06	-1.845611e-06	-1.760717e-09	-1.289234e+01	-1.170604e+02
2.610000e-06	-1.997033e-06	-2.241094e-09	-1.395008e+01	-1.481476e+02
2.620000e-06	-2.147681e-06	-2.716309e-09	-1.500241e+01	-1.789306e+02
2.630000e-06	-2.297546e-06	-3.181944e-09	-1.604928e+01	-2.091088e+02
2.640000e-06	-2.446588e-06	-3.632405e-09	-1.709040e+01	-2.384108e+02
2.650000e-06	-2.594657e-06	-4.063759e-09	-1.812472e+01	-2.666093e+02
2.660000e-06	-2.741733e-06	-4.472753e-09	-1.915210e+01	-2.935322e+02
2.670000e-06	-2.887817e-06	-4.859923e-09	-2.017256e+01	-3.190684e+02
2.680000e-06	-3.032827e-06	-5.225895e-09	-2.118551e+01	-3.431689e+02
2.690000e-06	-3.176700e-06	-5.569677e-09	-2.219053e+01	-3.658418e+02
2.700000e-06	-3.319336e-06	-5.892631e-09	-2.318689e+01	-3.871439e+02
2.710000e-06	-3.460669e-06	-6.197969e-09	-2.417417e+01	-4.071686e+02
2.720000e-06	-3.600636e-06	-6.488635e-09	-2.515189e+01	-4.260322e+02
2.730000e-06	-3.739223e-06	-6.766695e-09	-2.611998e+01	-4.438602e+02
2.740000e-06	-3.876496e-06	-7.029670e-09	-2.707888e+01	-4.607754e+02
2.750000e-06	-4.012337e-06	-7.278161e-09	-2.802779e+01	-4.768871e+02
2.760000e-06	-4.146690e-06	-7.516645e-09	-2.896629e+01	-4.922853e+02
2.770000e-06	-4.279585e-06	-7.744866e-09	-2.989462e+01	-5.070374e+02
2.780000e-06	-4.410975e-06	-7.962659e-09	-3.081243e+01	-5.211884e+02
2.790000e-06	-4.540874e-06	-8.170753e-09	-3.171983e+01	-5.347641e+02
2.800000e-06	-4.669239e-06	-8.369297e-09	-3.261651e+01	-5.477766e+02
2.810000e-06	-4.795948e-06	-8.558853e-09	-3.350162e+01	-5.602298e+02
2.820000e-06	-4.920964e-06	-8.739574e-09	-3.437491e+01	-5.721257e+02
2.830000e-06	-5.044253e-06	-8.912698e-09	-3.523613e+01	-5.834695e+02
2.840000e-06	-5.165766e-06	-9.076060e-09	-3.608495e+01	-5.942728e+02
2.850000e-06	-5.285388e-06	-9.230396e-09	-3.692056e+01	-6.045555e+02
2.860000e-06	-5.402945e-06	-9.378015e-09	-3.774174e+01	-6.143448e+02
2.870000e-06	-5.518278e-06	-9.520874e-09	-3.854739e+01	-6.236737e+02
2.880000e-06	-5.631359e-06	-9.659514e-09	-3.933730e+01	-6.325780e+02
2.890000e-06	-5.742233e-06	-9.793199e-09	-4.011181e+01	-6.410925e+02
2.900000e-06	-5.851080e-06	-9.920819e-09	-4.087214e+01	-6.492480e+02
2.910000e-06	-5.958007e-06	-1.004224e-08	-4.161907e+01	-6.570690e+02
2.920000e-06	-6.062792e-06	-1.015736e-08	-4.235103e+01	-6.645724e+02
2.930000e-06	-6.165266e-06	-1.026624e-08	-4.306686e+01	-6.717679e+02
2.940000e-06	-6.265429e-06	-1.037130e-08	-4.376654e+01	-6.786591e+02
