# Temperatura_=_48.36
# Concentracion g/m^3_=_15000.0
# C_Vs_to_Am_M_A/Vsm_=_65563218390.804596
# pendiente_HvsI_1/m_=_3716.3
# ordenada_HvsI_A/m_=_1297.0
# frecuencia_Hz_=_302338.37306530686

Tiempo_(s)	Campo_(V.s)	Magnetizacion_(V.s)	Campo_(kA/m)	Magnetizacion_(A/m)
0.000000e+00	-8.170772e-06	-1.089499e-08	-5.691884e+01	-7.123926e+02
1.000000e-08	-8.168540e-06	-1.089735e-08	-5.690329e+01	-7.121381e+02
2.000000e-08	-8.163546e-06	-1.089066e-08	-5.686851e+01	-7.117554e+02
3.000000e-08	-8.155951e-06	-1.088247e-08	-5.681560e+01	-7.112567e+02
4.000000e-08	-8.145564e-06	-1.087650e-08	-5.674324e+01	-7.106564e+02
5.000000e-08	-8.132196e-06	-1.086665e-08	-5.665012e+01	-7.099699e+02
6.000000e-08	-8.115923e-06	-1.084927e-08	-5.653676e+01	-7.092118e+02
7.000000e-08	-8.097094e-06	-1.082887e-08	-5.640559e+01	-7.083943e+02
8.000000e-08	-8.075946e-06	-1.080342e-08	-5.625827e+01	-7.075266e+02
9.000000e-08	-8.052037e-06	-1.084864e-08	-5.609172e+01	-7.066136e+02
1.000000e-07	-8.024866e-06	-1.086035e-08	-5.590244e+01	-7.056566e+02
1.100000e-07	-7.994533e-06	-1.079249e-08	-5.569113e+01	-7.046527e+02
1.200000e-07	-7.961245e-06	-1.075642e-08	-5.545925e+01	-7.035963e+02
1.300000e-07	-7.925119e-06	-1.073610e-08	-5.520759e+01	-7.024793e+02
1.400000e-07	-7.886512e-06	-1.069864e-08	-5.493864e+01	-7.012925e+02
1.500000e-07	-7.845521e-06	-1.063276e-08	-5.465310e+01	-7.000256e+02
1.600000e-07	-7.802107e-06	-1.067190e-08	-5.435066e+01	-6.986685e+02
1.700000e-07	-7.756097e-06	-1.068643e-08	-5.403015e+01	-6.972113e+02
1.800000e-07	-7.707114e-06	-1.055017e-08	-5.368893e+01	-6.956441e+02
1.900000e-07	-7.655180e-06	-1.060321e-08	-5.332715e+01	-6.939578e+02
2.000000e-07	-7.600397e-06	-1.058086e-08	-5.294552e+01	-6.921433e+02
2.100000e-07	-7.542776e-06	-1.049298e-08	-5.254412e+01	-6.901924e+02
2.200000e-07	-7.482459e-06	-1.050094e-08	-5.212395e+01	-6.880972e+02
2.300000e-07	-7.419518e-06	-1.045945e-08	-5.168549e+01	-6.858510e+02
2.400000e-07	-7.353772e-06	-1.045059e-08	-5.122750e+01	-6.834486e+02
2.500000e-07	-7.285119e-06	-1.034341e-08	-5.074925e+01	-6.808869e+02
2.600000e-07	-7.213727e-06	-1.032589e-08	-5.025192e+01	-6.781652e+02
2.700000e-07	-7.139508e-06	-1.030800e-08	-4.973490e+01	-6.752857e+02
2.800000e-07	-7.062405e-06	-1.023801e-08	-4.919779e+01	-6.722533e+02
2.900000e-07	-6.982456e-06	-1.017197e-08	-4.864085e+01	-6.690752e+02
3.000000e-07	-6.899930e-06	-1.013090e-08	-4.806596e+01	-6.657604e+02
3.100000e-07	-6.815145e-06	-1.012601e-08	-4.747534e+01	-6.623182e+02
3.200000e-07	-6.727979e-06	-1.003424e-08	-4.686813e+01	-6.587573e+02
3.300000e-07	-6.638323e-06	-9.981823e-09	-4.624357e+01	-6.550843e+02
3.400000e-07	-6.546229e-06	-9.941093e-09	-4.560203e+01	-6.513026e+02
3.500000e-07	-6.451813e-06	-9.870750e-09	-4.494431e+01	-6.474118e+02
3.600000e-07	-6.355019e-06	-9.796172e-09	-4.427003e+01	-6.434071e+02
3.700000e-07	-6.255857e-06	-9.739383e-09	-4.357925e+01	-6.392800e+02
3.800000e-07	-6.154473e-06	-9.695053e-09	-4.287300e+01	-6.350188e+02
3.900000e-07	-6.050882e-06	-9.611057e-09	-4.215136e+01	-6.306101e+02
4.000000e-07	-5.945107e-06	-9.524731e-09	-4.141452e+01	-6.260405e+02
4.100000e-07	-5.837289e-06	-9.447784e-09	-4.066344e+01	-6.212979e+02
4.200000e-07	-5.727472e-06	-9.383609e-09	-3.989844e+01	-6.163732e+02
4.300000e-07	-5.615536e-06	-9.305657e-09	-3.911868e+01	-6.112608e+02
4.400000e-07	-5.501338e-06	-9.225275e-09	-3.832316e+01	-6.059592e+02
4.500000e-07	-5.384987e-06	-9.146549e-09	-3.751264e+01	-6.004704e+02
4.600000e-07	-5.266714e-06	-9.064402e-09	-3.668873e+01	-5.947988e+02
4.700000e-07	-5.146545e-06	-8.970270e-09	-3.585162e+01	-5.889499e+02
4.800000e-07	-5.024491e-06	-8.871238e-09	-3.500137e+01	-5.829279e+02
4.900000e-07	-4.900629e-06	-8.782941e-09	-3.413853e+01	-5.767344e+02
5.000000e-07	-4.775010e-06	-8.689340e-09	-3.326345e+01	-5.703669e+02
5.100000e-07	-4.647695e-06	-8.580222e-09	-3.237655e+01	-5.638177e+02
5.200000e-07	-4.518727e-06	-8.469206e-09	-3.147814e+01	-5.570742e+02
5.300000e-07	-4.388035e-06	-8.372628e-09	-3.056772e+01	-5.501197e+02
5.400000e-07	-4.255705e-06	-8.263122e-09	-2.964589e+01	-5.429347e+02
5.500000e-07	-4.121888e-06	-8.136994e-09	-2.871370e+01	-5.354992e+02
5.600000e-07	-3.986573e-06	-8.013014e-09	-2.777107e+01	-5.277948e+02
5.700000e-07	-3.849653e-06	-7.902149e-09	-2.681727e+01	-5.198067e+02
5.800000e-07	-3.711067e-06	-7.777614e-09	-2.585186e+01	-5.115256e+02
5.900000e-07	-3.570874e-06	-7.643572e-09	-2.487525e+01	-5.029479e+02
6.000000e-07	-3.429214e-06	-7.513374e-09	-2.388843e+01	-4.940755e+02
6.100000e-07	-3.286201e-06	-7.376031e-09	-2.289217e+01	-4.849145e+02
6.200000e-07	-3.141879e-06	-7.224793e-09	-2.188681e+01	-4.754730e+02
6.300000e-07	-2.996451e-06	-7.071652e-09	-2.087373e+01	-4.657581e+02
6.400000e-07	-2.849983e-06	-6.926030e-09	-1.985342e+01	-4.557732e+02
6.500000e-07	-2.702548e-06	-6.772009e-09	-1.882636e+01	-4.455154e+02
6.600000e-07	-2.554260e-06	-6.607604e-09	-1.779336e+01	-4.349739e+02
6.700000e-07	-2.405124e-06	-6.436772e-09	-1.675446e+01	-4.241293e+02
6.800000e-07	-2.255226e-06	-6.265861e-09	-1.571025e+01	-4.129542e+02
6.900000e-07	-2.104533e-06	-6.088247e-09	-1.466050e+01	-4.014157e+02
7.000000e-07	-1.953006e-06	-5.904079e-09	-1.360493e+01	-3.894779e+02
7.100000e-07	-1.800794e-06	-5.716874e-09	-1.254461e+01	-3.771062e+02
7.200000e-07	-1.648034e-06	-5.521126e-09	-1.148045e+01	-3.642703e+02
7.300000e-07	-1.494656e-06	-5.318496e-09	-1.041200e+01	-3.509475e+02
7.400000e-07	-1.340673e-06	-5.109171e-09	-9.339334e+00	-3.371247e+02
7.500000e-07	-1.186218e-06	-4.892773e-09	-8.263374e+00	-3.227981e+02
7.600000e-07	-1.031335e-06	-4.668922e-09	-7.184438e+00	-3.079715e+02
7.700000e-07	-8.760638e-07	-4.436334e-09	-6.102794e+00	-2.926529e+02
7.800000e-07	-7.205131e-07	-4.193896e-09	-5.019204e+00	-2.768493e+02
7.900000e-07	-5.647620e-07	-3.947351e-09	-3.934218e+00	-2.605612e+02
8.000000e-07	-4.088226e-07	-3.695551e-09	-2.847921e+00	-2.437762e+02
8.100000e-07	-2.527731e-07	-3.433470e-09	-1.760856e+00	-2.264653e+02
8.200000e-07	-9.664341e-08	-3.156827e-09	-6.732327e-01	-2.085791e+02
8.300000e-07	5.956708e-08	-2.868757e-09	4.149534e-01	-1.900484e+02
8.400000e-07	2.157763e-07	-2.571559e-09	1.503130e+00	-1.707871e+02
8.500000e-07	3.718854e-07	-2.259894e-09	2.590610e+00	-1.506978e+02
8.600000e-07	5.278921e-07	-1.936934e-09	3.677377e+00	-1.296819e+02
8.700000e-07	6.838294e-07	-1.603297e-09	4.763659e+00	-1.076498e+02
8.800000e-07	8.396028e-07	-1.256424e-09	5.848801e+00	-8.453367e+01
8.900000e-07	9.951397e-07	-8.894048e-10	6.932295e+00	-6.029924e+01
9.000000e-07	1.150356e-06	-5.067072e-10	8.013556e+00	-3.495607e+01
9.100000e-07	1.305189e-06	-1.104005e-10	9.092144e+00	-8.564891e+00
9.200000e-07	1.459541e-06	3.039525e-10	1.016738e+01	1.875892e+01
9.300000e-07	1.613327e-06	7.330487e-10	1.123868e+01	4.684653e+01
9.400000e-07	1.766544e-06	1.172740e-09	1.230601e+01	7.548156e+01
9.500000e-07	1.919108e-06	1.615999e-09	1.336880e+01	1.044103e+02
9.600000e-07	2.070888e-06	2.061264e-09	1.442612e+01	1.333555e+02
9.700000e-07	2.221748e-06	2.500995e-09	1.547704e+01	1.620324e+02
9.800000e-07	2.371663e-06	2.928368e-09	1.652137e+01	1.901653e+02
9.900000e-07	2.520718e-06	3.342669e-09	1.755971e+01	2.175041e+02
1.000000e-06	2.668903e-06	3.741440e-09	1.859198e+01	2.438370e+02
1.010000e-06	2.816143e-06	4.120954e-09	1.961768e+01	2.690016e+02
1.020000e-06	2.962348e-06	4.478686e-09	2.063617e+01	2.928897e+02
1.030000e-06	3.107458e-06	4.818520e-09	2.164702e+01	3.154491e+02
1.040000e-06	3.251397e-06	5.140614e-09	2.264973e+01	3.366796e+02
1.050000e-06	3.394007e-06	5.442061e-09	2.364317e+01	3.566257e+02
1.060000e-06	3.535303e-06	5.724627e-09	2.462746e+01	3.753662e+02
1.070000e-06	3.675264e-06	5.993370e-09	2.560245e+01	3.930027e+02
1.080000e-06	3.813817e-06	6.249431e-09	2.656763e+01	4.096470e+02
1.090000e-06	3.950942e-06	6.491624e-09	2.752286e+01	4.254100e+02
1.100000e-06	4.086523e-06	6.723005e-09	2.846734e+01	4.403929e+02
1.110000e-06	4.220585e-06	6.941859e-09	2.940124e+01	4.546805e+02
1.120000e-06	4.353197e-06	7.147596e-09	3.032503e+01	4.683381e+02
1.130000e-06	4.484304e-06	7.343364e-09	3.123834e+01	4.814109e+02
1.140000e-06	4.613873e-06	7.532566e-09	3.214094e+01	4.939270e+02
1.150000e-06	4.741768e-06	7.712168e-09	3.303188e+01	5.059007e+02
1.160000e-06	4.867972e-06	7.880698e-09	3.391103e+01	5.173379e+02
1.170000e-06	4.992586e-06	8.040864e-09	3.477911e+01	5.282418e+02
1.180000e-06	5.115555e-06	8.196237e-09	3.563573e+01	5.386169e+02
1.190000e-06	5.236711e-06	8.348018e-09	3.647973e+01	5.484727e+02
1.200000e-06	5.355909e-06	8.493625e-09	3.731008e+01	5.578253e+02
1.210000e-06	5.473108e-06	8.631679e-09	3.812650e+01	5.666980e+02
1.220000e-06	5.588246e-06	8.761478e-09	3.892857e+01	5.751194e+02
1.230000e-06	5.701136e-06	8.884249e-09	3.971498e+01	5.831220e+02
1.240000e-06	5.811831e-06	9.000628e-09	4.048610e+01	5.907386e+02
1.250000e-06	5.920526e-06	9.110713e-09	4.124329e+01	5.980003e+02
1.260000e-06	6.027203e-06	9.215678e-09	4.198641e+01	6.049339e+02
1.270000e-06	6.131639e-06	9.316734e-09	4.271393e+01	6.115608e+02
1.280000e-06	6.233752e-06	9.412381e-09	4.342526e+01	6.178966e+02
1.290000e-06	6.333611e-06	9.503065e-09	4.412090e+01	6.239521e+02
1.300000e-06	6.431055e-06	9.589772e-09	4.479971e+01	6.297343e+02
1.310000e-06	6.526074e-06	9.672236e-09	4.546163e+01	6.352489e+02
1.320000e-06	6.618844e-06	9.749470e-09	4.610788e+01	6.405020e+02
1.330000e-06	6.709322e-06	9.823117e-09	4.673816e+01	6.455018e+02
1.340000e-06	6.797312e-06	9.895434e-09	4.735111e+01	6.502598e+02
1.350000e-06	6.882867e-06	9.965128e-09	4.794710e+01	6.547906e+02
1.360000e-06	6.966112e-06	1.003122e-08	4.852700e+01	6.591117e+02
1.370000e-06	7.046855e-06	1.009431e-08	4.908946e+01	6.632417e+02
1.380000e-06	7.124967e-06	1.015622e-08	4.963361e+01	6.671987e+02
1.390000e-06	7.200456e-06	1.021618e-08	5.015947e+01	6.709978e+02
1.400000e-06	7.273190e-06	1.027191e-08	5.066615e+01	6.746496e+02
1.410000e-06	7.343268e-06	1.032349e-08	5.115432e+01	6.781589e+02
1.420000e-06	7.410806e-06	1.037300e-08	5.162481e+01	6.815242e+02
1.430000e-06	7.475637e-06	1.042133e-08	5.207643e+01	6.847380e+02
1.440000e-06	7.537863e-06	1.046496e-08	5.250990e+01	6.877884e+02
1.450000e-06	7.597625e-06	1.050622e-08	5.292621e+01	6.906610e+02
1.460000e-06	7.654717e-06	1.054520e-08	5.332392e+01	6.933412e+02
1.470000e-06	7.708997e-06	1.058077e-08	5.370205e+01	6.958170e+02
1.480000e-06	7.760225e-06	1.061435e-08	5.405891e+01	6.980808e+02
1.490000e-06	7.808275e-06	1.064632e-08	5.439363e+01	7.001311e+02
1.500000e-06	7.853532e-06	1.067584e-08	5.470890e+01	7.019731e+02
1.510000e-06	7.896136e-06	1.069985e-08	5.500568e+01	7.036182e+02
1.520000e-06	7.935863e-06	1.071942e-08	5.528243e+01	7.050831e+02
1.530000e-06	7.972753e-06	1.073888e-08	5.553941e+01	7.063878e+02
1.540000e-06	8.006818e-06	1.075800e-08	5.577671e+01	7.075529e+02
1.550000e-06	8.038022e-06	1.077363e-08	5.599408e+01	7.085977e+02
1.560000e-06	8.066488e-06	1.078599e-08	5.619239e+01	7.095377e+02
1.570000e-06	8.092008e-06	1.079829e-08	5.637016e+01	7.103833e+02
1.580000e-06	8.114462e-06	1.081145e-08	5.652658e+01	7.111390e+02
1.590000e-06	8.134109e-06	1.082203e-08	5.666344e+01	7.118032e+02
1.600000e-06	8.150871e-06	1.082886e-08	5.678021e+01	7.123696e+02
1.610000e-06	8.164537e-06	1.083425e-08	5.687541e+01	7.128286e+02
1.620000e-06	8.174949e-06	1.083896e-08	5.694794e+01	7.131692e+02
1.630000e-06	8.182256e-06	1.084215e-08	5.699884e+01	7.133811e+02
1.640000e-06	8.186771e-06	1.084438e-08	5.703029e+01	7.134569e+02
1.650000e-06	8.188380e-06	1.084599e-08	5.704150e+01	7.133931e+02
1.660000e-06	8.187104e-06	1.084180e-08	5.703261e+01	7.131912e+02
1.670000e-06	8.183213e-06	1.083199e-08	5.700550e+01	7.128574e+02
1.680000e-06	8.176599e-06	1.082891e-08	5.695944e+01	7.124025e+02
1.690000e-06	8.167191e-06	1.082490e-08	5.689389e+01	7.118401e+02
1.700000e-06	8.154948e-06	1.081668e-08	5.680861e+01	7.111855e+02
1.710000e-06	8.139790e-06	1.081152e-08	5.670301e+01	7.104537e+02
1.720000e-06	8.122066e-06	1.081131e-08	5.657955e+01	7.096581e+02
1.730000e-06	8.102014e-06	1.080912e-08	5.643986e+01	7.088091e+02
1.740000e-06	8.079280e-06	1.070795e-08	5.628149e+01	7.079134e+02
1.750000e-06	8.053166e-06	1.069651e-08	5.609958e+01	7.069736e+02
1.760000e-06	8.023206e-06	1.073366e-08	5.589087e+01	7.059885e+02
1.770000e-06	7.989858e-06	1.070420e-08	5.565857e+01	7.049534e+02
1.780000e-06	7.954110e-06	1.068693e-08	5.540954e+01	7.038611e+02
1.790000e-06	7.916081e-06	1.075148e-08	5.514462e+01	7.027027e+02
1.800000e-06	7.875881e-06	1.071908e-08	5.486459e+01	7.014683e+02
1.810000e-06	7.833718e-06	1.057524e-08	5.457087e+01	7.001477e+02
1.820000e-06	7.788900e-06	1.070541e-08	5.425866e+01	6.987308e+02
1.830000e-06	7.741212e-06	1.062193e-08	5.392646e+01	6.972078e+02
1.840000e-06	7.690664e-06	1.060420e-08	5.357433e+01	6.955692e+02
1.850000e-06	7.636922e-06	1.064766e-08	5.319996e+01	6.938059e+02
1.860000e-06	7.580363e-06	1.052874e-08	5.280596e+01	6.919094e+02
1.870000e-06	7.521104e-06	1.057184e-08	5.239315e+01	6.898716e+02
1.880000e-06	7.458982e-06	1.042198e-08	5.196041e+01	6.876853e+02
1.890000e-06	7.394115e-06	1.045865e-08	5.150853e+01	6.853446e+02
1.900000e-06	7.326438e-06	1.047567e-08	5.103709e+01	6.828455e+02
1.910000e-06	7.255860e-06	1.035090e-08	5.054543e+01	6.801864e+02
1.920000e-06	7.182361e-06	1.035473e-08	5.003342e+01	6.773683e+02
1.930000e-06	7.106185e-06	1.026292e-08	4.950276e+01	6.743950e+02
1.940000e-06	7.027264e-06	1.027086e-08	4.895299e+01	6.712730e+02
1.950000e-06	6.945648e-06	1.017623e-08	4.838444e+01	6.680106e+02
1.960000e-06	6.861559e-06	1.014219e-08	4.779867e+01	6.646171e+02
1.970000e-06	6.774791e-06	1.011856e-08	4.719422e+01	6.611018e+02
1.980000e-06	6.685458e-06	1.000756e-08	4.657192e+01	6.574720e+02
1.990000e-06	6.593816e-06	9.988191e-09	4.593353e+01	6.537327e+02
2.000000e-06	6.499897e-06	9.919129e-09	4.527927e+01	6.498849e+02
2.010000e-06	6.403642e-06	9.901435e-09	4.460874e+01	6.459256e+02
2.020000e-06	6.305121e-06	9.786457e-09	4.392243e+01	6.418477e+02
2.030000e-06	6.204351e-06	9.713042e-09	4.322045e+01	6.376405e+02
2.040000e-06	6.101233e-06	9.657998e-09	4.250212e+01	6.332912e+02
2.050000e-06	5.995929e-06	9.604574e-09	4.176855e+01	6.287862e+02
2.060000e-06	5.888669e-06	9.549047e-09	4.102136e+01	6.241127e+02
2.070000e-06	5.779489e-06	9.456187e-09	4.026080e+01	6.192602e+02
2.080000e-06	5.668211e-06	9.384202e-09	3.948562e+01	6.142218e+02
2.090000e-06	5.554824e-06	9.283267e-09	3.869575e+01	6.089943e+02
2.100000e-06	5.439321e-06	9.211143e-09	3.789114e+01	6.035784e+02
2.110000e-06	5.321651e-06	9.130603e-09	3.707143e+01	5.979779e+02
2.120000e-06	5.201907e-06	9.069475e-09	3.623728e+01	5.921978e+02
2.130000e-06	5.080319e-06	8.963075e-09	3.539027e+01	5.862433e+02
2.140000e-06	4.957028e-06	8.857406e-09	3.453141e+01	5.801170e+02
2.150000e-06	4.831921e-06	8.765799e-09	3.365990e+01	5.738183e+02
2.160000e-06	4.704915e-06	8.683145e-09	3.277515e+01	5.673415e+02
2.170000e-06	4.576152e-06	8.584578e-09	3.187817e+01	5.606760e+02
2.180000e-06	4.445785e-06	8.465644e-09	3.097002e+01	5.538065e+02
2.190000e-06	4.313807e-06	8.355756e-09	3.005064e+01	5.467143e+02
2.200000e-06	4.180267e-06	8.242191e-09	2.912038e+01	5.393793e+02
2.210000e-06	4.045132e-06	8.130047e-09	2.817900e+01	5.317823e+02
2.220000e-06	3.908471e-06	8.012028e-09	2.722701e+01	5.239070e+02
2.230000e-06	3.770330e-06	7.895075e-09	2.626469e+01	5.157416e+02
2.240000e-06	3.630687e-06	7.755516e-09	2.529192e+01	5.072803e+02
2.250000e-06	3.489563e-06	7.617890e-09	2.430883e+01	4.985229e+02
2.260000e-06	3.347003e-06	7.489193e-09	2.331573e+01	4.894742e+02
2.270000e-06	3.203207e-06	7.363208e-09	2.231403e+01	4.801418e+02
2.280000e-06	3.058273e-06	7.218184e-09	2.130440e+01	4.705334e+02
2.290000e-06	2.912260e-06	7.056065e-09	2.028725e+01	4.606544e+02
2.300000e-06	2.765263e-06	6.894168e-09	1.926324e+01	4.505045e+02
2.310000e-06	2.617293e-06	6.737985e-09	1.823246e+01	4.400761e+02
2.320000e-06	2.468453e-06	6.581448e-09	1.719562e+01	4.293532e+02
2.330000e-06	2.318752e-06	6.417756e-09	1.615278e+01	4.183115e+02
2.340000e-06	2.168094e-06	6.242894e-09	1.510327e+01	4.069197e+02
2.350000e-06	2.016631e-06	6.055523e-09	1.404816e+01	3.951429e+02
2.360000e-06	1.864577e-06	5.865158e-09	1.298893e+01	3.829455e+02
2.370000e-06	1.711997e-06	5.672915e-09	1.192603e+01	3.702949e+02
2.380000e-06	1.558916e-06	5.474991e-09	1.085964e+01	3.571654e+02
2.390000e-06	1.405377e-06	5.269433e-09	9.790073e+00	3.435398e+02
2.400000e-06	1.251395e-06	5.052161e-09	8.717408e+00	3.294108e+02
2.410000e-06	1.096953e-06	4.826702e-09	7.641539e+00	3.147796e+02
2.420000e-06	9.420660e-07	4.599731e-09	6.562575e+00	2.996531e+02
2.430000e-06	7.868729e-07	4.369999e-09	5.481477e+00	2.840394e+02
2.440000e-06	6.314027e-07	4.127200e-09	4.398447e+00	2.679421e+02
2.450000e-06	4.756694e-07	3.870165e-09	3.313585e+00	2.513546e+02
2.460000e-06	3.197789e-07	3.606328e-09	2.227629e+00	2.342548e+02
2.470000e-06	1.637564e-07	3.335564e-09	1.140752e+00	2.166016e+02
2.480000e-06	7.606324e-09	3.053430e-09	5.298681e-02	1.983334e+02
2.490000e-06	-1.486086e-07	2.760649e-09	-1.035230e+00	1.793701e+02
2.500000e-06	-3.047920e-07	2.457535e-09	-2.123227e+00	1.596178e+02
2.510000e-06	-4.608524e-07	2.138200e-09	-3.210368e+00	1.389773e+02
2.520000e-06	-6.167425e-07	1.805116e-09	-4.296322e+00	1.173537e+02
2.530000e-06	-7.724015e-07	1.463539e-09	-5.380666e+00	9.466952e+01
2.540000e-06	-9.277968e-07	1.110342e-09	-6.463173e+00	7.087575e+01
2.550000e-06	-1.082869e-06	7.376963e-10	-7.543432e+00	4.596369e+01
2.560000e-06	-1.237526e-06	3.443273e-10	-8.620792e+00	1.997335e+01
2.570000e-06	-1.391745e-06	-6.532695e-11	-9.695110e+00	-7.001499e+00
2.580000e-06	-1.545483e-06	-4.901664e-10	-1.076607e+01	-3.481258e+01
2.590000e-06	-1.698641e-06	-9.287219e-10	-1.183299e+01	-6.326118e+01
2.600000e-06	-1.851142e-06	-1.376473e-09	-1.289534e+01	-9.210681e+01
2.610000e-06	-2.003012e-06	-1.826196e-09	-1.395329e+01	-1.210796e+02
2.620000e-06	-2.154160e-06	-2.273978e-09	-1.500621e+01	-1.498958e+02
2.630000e-06	-2.304419e-06	-2.713920e-09	-1.605293e+01	-1.782743e+02
2.640000e-06	-2.453826e-06	-3.135619e-09	-1.709372e+01	-2.059528e+02
2.650000e-06	-2.602355e-06	-3.538957e-09	-1.812840e+01	-2.327034e+02
2.660000e-06	-2.749833e-06	-3.926903e-09	-1.915575e+01	-2.583431e+02
2.670000e-06	-2.896247e-06	-4.300647e-09	-2.017570e+01	-2.827421e+02
2.680000e-06	-3.041664e-06	-4.653480e-09	-2.118870e+01	-3.058265e+02
2.690000e-06	-3.185990e-06	-4.982093e-09	-2.219409e+01	-3.275762e+02
2.700000e-06	-3.329039e-06	-5.292229e-09	-2.319059e+01	-3.480193e+02
2.710000e-06	-3.470831e-06	-5.587518e-09	-2.417834e+01	-3.672225e+02
2.720000e-06	-3.611264e-06	-5.866712e-09	-2.515661e+01	-3.852798e+02
2.730000e-06	-3.750222e-06	-6.130330e-09	-2.612462e+01	-4.023006e+02
2.740000e-06	-3.887792e-06	-6.378652e-09	-2.708295e+01	-4.183972e+02
2.750000e-06	-4.023948e-06	-6.612449e-09	-2.803144e+01	-4.336756e+02
2.760000e-06	-4.158672e-06	-6.837129e-09	-2.896994e+01	-4.482277e+02
2.770000e-06	-4.291944e-06	-7.054389e-09	-2.989834e+01	-4.621264e+02
2.780000e-06	-4.423677e-06	-7.262824e-09	-3.081600e+01	-4.754249e+02
2.790000e-06	-4.553854e-06	-7.460537e-09	-3.172284e+01	-4.881576e+02
2.800000e-06	-4.682541e-06	-7.647276e-09	-3.261929e+01	-5.003434e+02
2.810000e-06	-4.809674e-06	-7.823566e-09	-3.350492e+01	-5.119912e+02
2.820000e-06	-4.935103e-06	-7.989728e-09	-3.437868e+01	-5.231044e+02
2.830000e-06	-5.058726e-06	-8.147672e-09	-3.523986e+01	-5.336866e+02
2.840000e-06	-5.180578e-06	-8.298864e-09	-3.608869e+01	-5.437450e+02
2.850000e-06	-5.300580e-06	-8.443734e-09	-3.692465e+01	-5.532931e+02
2.860000e-06	-5.418475e-06	-8.581772e-09	-3.774592e+01	-5.623513e+02
2.870000e-06	-5.534085e-06	-8.713958e-09	-3.855128e+01	-5.709465e+02
2.880000e-06	-5.647481e-06	-8.841368e-09	-3.934122e+01	-5.791099e+02
2.890000e-06	-5.758716e-06	-8.964340e-09	-4.011609e+01	-5.868744e+02
2.900000e-06	-5.867832e-06	-9.082445e-09	-4.087621e+01	-5.942722e+02
2.910000e-06	-5.974970e-06	-9.193181e-09	-4.162255e+01	-6.013320e+02
2.920000e-06	-6.080016e-06	-9.295823e-09	-4.235431e+01	-6.080774e+02
2.930000e-06	-6.182794e-06	-9.393663e-09	-4.307028e+01	-6.145262e+02
2.940000e-06	-6.283226e-06	-9.487850e-09	-4.376991e+01	-6.206910e+02
