# Temperatura_=_47.26
# Concentracion g/m^3_=_15000.0
# C_Vs_to_Am_M_A/Vsm_=_65563218390.804596
# pendiente_HvsI_1/m_=_3716.3
# ordenada_HvsI_A/m_=_1297.0
# frecuencia_Hz_=_301573.02838021016

Tiempo_(s)	Campo_(V.s)	Magnetizacion_(V.s)	Campo_(kA/m)	Magnetizacion_(A/m)
0.000000e+00	-5.393388e-06	-5.252191e-09	-3.834159e+01	-3.430439e+02
1.000000e-08	-5.390412e-06	-5.252522e-09	-3.832044e+01	-3.429226e+02
2.000000e-08	-5.385675e-06	-5.247994e-09	-3.828676e+01	-3.427288e+02
3.000000e-08	-5.379347e-06	-5.240881e-09	-3.824177e+01	-3.424592e+02
4.000000e-08	-5.371407e-06	-5.233202e-09	-3.818533e+01	-3.421112e+02
5.000000e-08	-5.361617e-06	-5.225319e-09	-3.811573e+01	-3.416836e+02
6.000000e-08	-5.349758e-06	-5.219172e-09	-3.803142e+01	-3.411771e+02
7.000000e-08	-5.335957e-06	-5.211546e-09	-3.793332e+01	-3.405940e+02
8.000000e-08	-5.320065e-06	-5.204955e-09	-3.782034e+01	-3.399389e+02
9.000000e-08	-5.301968e-06	-5.227685e-09	-3.769169e+01	-3.392175e+02
1.000000e-07	-5.281836e-06	-5.222523e-09	-3.754857e+01	-3.384368e+02
1.100000e-07	-5.259842e-06	-5.183031e-09	-3.739221e+01	-3.376034e+02
1.200000e-07	-5.236183e-06	-5.160108e-09	-3.722403e+01	-3.367236e+02
1.300000e-07	-5.210888e-06	-5.097693e-09	-3.704420e+01	-3.358014e+02
1.400000e-07	-5.183964e-06	-5.078071e-09	-3.685280e+01	-3.348388e+02
1.500000e-07	-5.155521e-06	-5.156982e-09	-3.665060e+01	-3.338347e+02
1.600000e-07	-5.125612e-06	-5.081715e-09	-3.643798e+01	-3.327850e+02
1.700000e-07	-5.094029e-06	-5.050791e-09	-3.621345e+01	-3.316828e+02
1.800000e-07	-5.060307e-06	-5.088135e-09	-3.597372e+01	-3.305192e+02
1.900000e-07	-5.024776e-06	-4.998672e-09	-3.572113e+01	-3.292838e+02
2.000000e-07	-4.987763e-06	-5.044120e-09	-3.545801e+01	-3.279661e+02
2.100000e-07	-4.949020e-06	-5.069127e-09	-3.518258e+01	-3.265563e+02
2.200000e-07	-4.908422e-06	-4.959420e-09	-3.489397e+01	-3.250465e+02
2.300000e-07	-4.865807e-06	-4.933912e-09	-3.459102e+01	-3.234316e+02
2.400000e-07	-4.821305e-06	-4.912856e-09	-3.427466e+01	-3.217097e+02
2.500000e-07	-4.775051e-06	-4.877949e-09	-3.394584e+01	-3.198820e+02
2.600000e-07	-4.726850e-06	-4.885093e-09	-3.360317e+01	-3.179528e+02
2.700000e-07	-4.676534e-06	-4.825830e-09	-3.324548e+01	-3.159288e+02
2.800000e-07	-4.624148e-06	-4.778142e-09	-3.287307e+01	-3.138183e+02
2.900000e-07	-4.569927e-06	-4.752099e-09	-3.248761e+01	-3.116301e+02
3.000000e-07	-4.514212e-06	-4.736586e-09	-3.209153e+01	-3.093721e+02
3.100000e-07	-4.456809e-06	-4.721590e-09	-3.168345e+01	-3.070509e+02
3.200000e-07	-4.397596e-06	-4.675231e-09	-3.126251e+01	-3.046710e+02
3.300000e-07	-4.336846e-06	-4.615994e-09	-3.083064e+01	-3.022339e+02
3.400000e-07	-4.274584e-06	-4.552304e-09	-3.038802e+01	-2.997388e+02
3.500000e-07	-4.211043e-06	-4.541425e-09	-2.993630e+01	-2.971823e+02
3.600000e-07	-4.146019e-06	-4.525545e-09	-2.947405e+01	-2.945594e+02
3.700000e-07	-4.079192e-06	-4.471586e-09	-2.899898e+01	-2.918643e+02
3.800000e-07	-4.010870e-06	-4.420595e-09	-2.851327e+01	-2.890909e+02
3.900000e-07	-3.941229e-06	-4.365743e-09	-2.801820e+01	-2.862342e+02
4.000000e-07	-3.870328e-06	-4.327299e-09	-2.751416e+01	-2.832903e+02
4.100000e-07	-3.798199e-06	-4.293920e-09	-2.700140e+01	-2.802575e+02
4.200000e-07	-3.724544e-06	-4.243082e-09	-2.647778e+01	-2.771359e+02
4.300000e-07	-3.649243e-06	-4.184206e-09	-2.594247e+01	-2.739274e+02
4.400000e-07	-3.572462e-06	-4.121654e-09	-2.539663e+01	-2.706354e+02
4.500000e-07	-3.494275e-06	-4.072727e-09	-2.484080e+01	-2.672637e+02
4.600000e-07	-3.414667e-06	-4.034950e-09	-2.427487e+01	-2.638163e+02
4.700000e-07	-3.333758e-06	-3.986880e-09	-2.369969e+01	-2.602964e+02
4.800000e-07	-3.251676e-06	-3.922426e-09	-2.311616e+01	-2.567056e+02
4.900000e-07	-3.168532e-06	-3.856056e-09	-2.252510e+01	-2.530440e+02
5.000000e-07	-3.084437e-06	-3.803693e-09	-2.192726e+01	-2.493100e+02
5.100000e-07	-2.999377e-06	-3.755328e-09	-2.132257e+01	-2.455001e+02
5.200000e-07	-2.913355e-06	-3.700666e-09	-2.071104e+01	-2.416098e+02
5.300000e-07	-2.826402e-06	-3.628039e-09	-2.009289e+01	-2.376339e+02
5.400000e-07	-2.738557e-06	-3.548390e-09	-1.946840e+01	-2.335672e+02
5.500000e-07	-2.649599e-06	-3.479565e-09	-1.883600e+01	-2.294053e+02
5.600000e-07	-2.559352e-06	-3.423588e-09	-1.819444e+01	-2.251452e+02
5.700000e-07	-2.468125e-06	-3.371863e-09	-1.754590e+01	-2.207853e+02
5.800000e-07	-2.376108e-06	-3.303233e-09	-1.689175e+01	-2.163258e+02
5.900000e-07	-2.283228e-06	-3.225575e-09	-1.623147e+01	-2.117686e+02
6.000000e-07	-2.189534e-06	-3.150963e-09	-1.556540e+01	-2.071165e+02
6.100000e-07	-2.095050e-06	-3.081594e-09	-1.489371e+01	-2.023730e+02
6.200000e-07	-1.999909e-06	-3.011204e-09	-1.421735e+01	-1.975415e+02
6.300000e-07	-1.904174e-06	-2.933448e-09	-1.353677e+01	-1.926247e+02
6.400000e-07	-1.807647e-06	-2.851814e-09	-1.285056e+01	-1.876239e+02
6.500000e-07	-1.710223e-06	-2.772173e-09	-1.215797e+01	-1.825388e+02
6.600000e-07	-1.612035e-06	-2.696800e-09	-1.145995e+01	-1.773675e+02
6.700000e-07	-1.513285e-06	-2.620400e-09	-1.075794e+01	-1.721060e+02
6.800000e-07	-1.414061e-06	-2.539608e-09	-1.005256e+01	-1.667495e+02
6.900000e-07	-1.314405e-06	-2.450645e-09	-9.344106e+00	-1.612920e+02
7.000000e-07	-1.214364e-06	-2.360657e-09	-8.632912e+00	-1.557276e+02
7.100000e-07	-1.113960e-06	-2.275295e-09	-7.919143e+00	-1.500509e+02
7.200000e-07	-1.013219e-06	-2.190154e-09	-7.202974e+00	-1.442574e+02
7.300000e-07	-9.122090e-07	-2.099670e-09	-6.484894e+00	-1.383441e+02
7.400000e-07	-8.108925e-07	-2.003186e-09	-5.764634e+00	-1.323093e+02
7.500000e-07	-7.092375e-07	-1.905568e-09	-5.041969e+00	-1.261530e+02
7.600000e-07	-6.072862e-07	-1.809991e-09	-4.317198e+00	-1.198760e+02
7.700000e-07	-5.051190e-07	-1.715174e-09	-3.590891e+00	-1.134797e+02
7.800000e-07	-4.027812e-07	-1.617625e-09	-2.863372e+00	-1.069650e+02
7.900000e-07	-3.003166e-07	-1.516283e-09	-2.134951e+00	-1.003321e+02
8.000000e-07	-1.978054e-07	-1.410472e-09	-1.406198e+00	-9.357959e+01
8.100000e-07	-9.523490e-08	-1.305437e-09	-6.770249e-01	-8.670369e+01
8.200000e-07	7.423112e-09	-1.202317e-09	5.277090e-02	-7.969841e+01
8.300000e-07	1.101536e-07	-1.095727e-09	7.830820e-01	-7.255525e+01
8.400000e-07	2.128401e-07	-9.841919e-10	1.513080e+00	-6.526357e+01
8.500000e-07	3.154366e-07	-8.701340e-10	2.242439e+00	-5.781111e+01
8.600000e-07	4.179812e-07	-7.551787e-10	2.971428e+00	-5.018474e+01
8.700000e-07	5.204196e-07	-6.371366e-10	3.699663e+00	-4.237136e+01
8.800000e-07	6.227075e-07	-5.165028e-10	4.426827e+00	-3.435891e+01
8.900000e-07	7.248340e-07	-3.914898e-10	5.152844e+00	-2.613732e+01
9.000000e-07	8.266581e-07	-2.615463e-10	5.876712e+00	-1.769947e+01
9.100000e-07	9.280887e-07	-1.301563e-10	6.597782e+00	-9.041879e+00
9.200000e-07	1.029156e-06	1.199092e-12	7.316271e+00	-1.653881e-01
9.300000e-07	1.129899e-06	1.358465e-10	8.032455e+00	8.924505e+00
9.400000e-07	1.230317e-06	2.780364e-10	8.746325e+00	1.821742e+01
9.500000e-07	1.330366e-06	4.242469e-10	9.457569e+00	2.769811e+01
9.600000e-07	1.429991e-06	5.732746e-10	1.016580e+01	3.734658e+01
9.700000e-07	1.529099e-06	7.243823e-10	1.087037e+01	4.713842e+01
9.800000e-07	1.627551e-06	8.754178e-10	1.157026e+01	5.704522e+01
9.900000e-07	1.725277e-06	1.027303e-09	1.226499e+01	6.703510e+01
1.000000e-06	1.822202e-06	1.182417e-09	1.295404e+01	7.707327e+01
1.010000e-06	1.918296e-06	1.338653e-09	1.363717e+01	8.712280e+01
1.020000e-06	2.013678e-06	1.493780e-09	1.431523e+01	9.714528e+01
1.030000e-06	2.108358e-06	1.645925e-09	1.498832e+01	1.071017e+02
1.040000e-06	2.202304e-06	1.794766e-09	1.565618e+01	1.169534e+02
1.050000e-06	2.295493e-06	1.942266e-09	1.631866e+01	1.266629e+02
1.060000e-06	2.387948e-06	2.087230e-09	1.697592e+01	1.361946e+02
1.070000e-06	2.479716e-06	2.228718e-09	1.762830e+01	1.455163e+02
1.080000e-06	2.570648e-06	2.367510e-09	1.827474e+01	1.545993e+02
1.090000e-06	2.660573e-06	2.503254e-09	1.891401e+01	1.634196e+02
1.100000e-06	2.749366e-06	2.634390e-09	1.954524e+01	1.719582e+02
1.110000e-06	2.837068e-06	2.758110e-09	2.016872e+01	1.802015e+02
1.120000e-06	2.923888e-06	2.876436e-09	2.078592e+01	1.881413e+02
1.130000e-06	3.009814e-06	2.992323e-09	2.139677e+01	1.957749e+02
1.140000e-06	3.094736e-06	3.105601e-09	2.200048e+01	2.031042e+02
1.150000e-06	3.178735e-06	3.213206e-09	2.259763e+01	2.101356e+02
1.160000e-06	3.261787e-06	3.315926e-09	2.318804e+01	2.168788e+02
1.170000e-06	3.343594e-06	3.415362e-09	2.376961e+01	2.233464e+02
1.180000e-06	3.424035e-06	3.509335e-09	2.434147e+01	2.295524e+02
1.190000e-06	3.503249e-06	3.599562e-09	2.490459e+01	2.355118e+02
1.200000e-06	3.581259e-06	3.687305e-09	2.545917e+01	2.412395e+02
1.210000e-06	3.658045e-06	3.772603e-09	2.600504e+01	2.467495e+02
1.220000e-06	3.733548e-06	3.854213e-09	2.654179e+01	2.520548e+02
1.230000e-06	3.807465e-06	3.931773e-09	2.706727e+01	2.571664e+02
1.240000e-06	3.879711e-06	4.007393e-09	2.758086e+01	2.620937e+02
1.250000e-06	3.950509e-06	4.080421e-09	2.808417e+01	2.668440e+02
1.260000e-06	4.019979e-06	4.150523e-09	2.857803e+01	2.714227e+02
1.270000e-06	4.088097e-06	4.219821e-09	2.906228e+01	2.758337e+02
1.280000e-06	4.154757e-06	4.286013e-09	2.953617e+01	2.800794e+02
1.290000e-06	4.219762e-06	4.347094e-09	2.999829e+01	2.841611e+02
1.300000e-06	4.283174e-06	4.404098e-09	3.044908e+01	2.880792e+02
1.310000e-06	4.345125e-06	4.460468e-09	3.088950e+01	2.918339e+02
1.320000e-06	4.405666e-06	4.514189e-09	3.131988e+01	2.954251e+02
1.330000e-06	4.464846e-06	4.564839e-09	3.174059e+01	2.988532e+02
1.340000e-06	4.522342e-06	4.612806e-09	3.214933e+01	3.021188e+02
1.350000e-06	4.578042e-06	4.658836e-09	3.254530e+01	3.052234e+02
1.360000e-06	4.632121e-06	4.703077e-09	3.292974e+01	3.081694e+02
1.370000e-06	4.684498e-06	4.742219e-09	3.330209e+01	3.109603e+02
1.380000e-06	4.734864e-06	4.778892e-09	3.366014e+01	3.136007e+02
1.390000e-06	4.783231e-06	4.814837e-09	3.400399e+01	3.160961e+02
1.400000e-06	4.829897e-06	4.848045e-09	3.433574e+01	3.184530e+02
1.410000e-06	4.874918e-06	4.879307e-09	3.465579e+01	3.206784e+02
1.420000e-06	4.918323e-06	4.909687e-09	3.496435e+01	3.227797e+02
1.430000e-06	4.959913e-06	4.938919e-09	3.526002e+01	3.247640e+02
1.440000e-06	4.999666e-06	4.966033e-09	3.554263e+01	3.266380e+02
1.450000e-06	5.037783e-06	4.990543e-09	3.581359e+01	3.284076e+02
1.460000e-06	5.074223e-06	5.014302e-09	3.607265e+01	3.300772e+02
1.470000e-06	5.108919e-06	5.037843e-09	3.631930e+01	3.316501e+02
1.480000e-06	5.141702e-06	5.059188e-09	3.655236e+01	3.331279e+02
1.490000e-06	5.172618e-06	5.077966e-09	3.677214e+01	3.345109e+02
1.500000e-06	5.201852e-06	5.094599e-09	3.697996e+01	3.357985e+02
1.510000e-06	5.229413e-06	5.110741e-09	3.717590e+01	3.369891e+02
1.520000e-06	5.254966e-06	5.126579e-09	3.735755e+01	3.380812e+02
1.530000e-06	5.278415e-06	5.141726e-09	3.752425e+01	3.390734e+02
1.540000e-06	5.300020e-06	5.155839e-09	3.767784e+01	3.399652e+02
1.550000e-06	5.319901e-06	5.167727e-09	3.781917e+01	3.407570e+02
1.560000e-06	5.337926e-06	5.179097e-09	3.794731e+01	3.414507e+02
1.570000e-06	5.353950e-06	5.190406e-09	3.806123e+01	3.420496e+02
1.580000e-06	5.368035e-06	5.200125e-09	3.816136e+01	3.425581e+02
1.590000e-06	5.380111e-06	5.207553e-09	3.824721e+01	3.429813e+02
1.600000e-06	5.389997e-06	5.212933e-09	3.831749e+01	3.433248e+02
1.610000e-06	5.397764e-06	5.216535e-09	3.837270e+01	3.435938e+02
1.620000e-06	5.403636e-06	5.220586e-09	3.841445e+01	3.437926e+02
1.630000e-06	5.407730e-06	5.224861e-09	3.844355e+01	3.439245e+02
1.640000e-06	5.409912e-06	5.226852e-09	3.845906e+01	3.439908e+02
1.650000e-06	5.410044e-06	5.228000e-09	3.846000e+01	3.439914e+02
1.660000e-06	5.408351e-06	5.225657e-09	3.844797e+01	3.439248e+02
1.670000e-06	5.405058e-06	5.220946e-09	3.842456e+01	3.437881e+02
1.680000e-06	5.400062e-06	5.221146e-09	3.838904e+01	3.435781e+02
1.690000e-06	5.393129e-06	5.219074e-09	3.833975e+01	3.432917e+02
1.700000e-06	5.384486e-06	5.213029e-09	3.827831e+01	3.429265e+02
1.710000e-06	5.374293e-06	5.205391e-09	3.820585e+01	3.424818e+02
1.720000e-06	5.362327e-06	5.198094e-09	3.812078e+01	3.419584e+02
1.730000e-06	5.348388e-06	5.195850e-09	3.802169e+01	3.413593e+02
1.740000e-06	5.332336e-06	5.149199e-09	3.790758e+01	3.406892e+02
1.750000e-06	5.313889e-06	5.125866e-09	3.777644e+01	3.399544e+02
1.760000e-06	5.292760e-06	5.142699e-09	3.762623e+01	3.391616e+02
1.770000e-06	5.269416e-06	5.140357e-09	3.746028e+01	3.383177e+02
1.780000e-06	5.244922e-06	5.196658e-09	3.728615e+01	3.374284e+02
1.790000e-06	5.219704e-06	5.149763e-09	3.710687e+01	3.364973e+02
1.800000e-06	5.192912e-06	5.030311e-09	3.691641e+01	3.355258e+02
1.810000e-06	5.163864e-06	5.111640e-09	3.670991e+01	3.345122e+02
1.820000e-06	5.133074e-06	5.082467e-09	3.649102e+01	3.334517e+02
1.830000e-06	5.100605e-06	5.023352e-09	3.626020e+01	3.323370e+02
1.840000e-06	5.066162e-06	5.103539e-09	3.601535e+01	3.311588e+02
1.850000e-06	5.030145e-06	5.001825e-09	3.575930e+01	3.299064e+02
1.860000e-06	4.992325e-06	4.970636e-09	3.549043e+01	3.285696e+02
1.870000e-06	4.952617e-06	5.028470e-09	3.520816e+01	3.271387e+02
1.880000e-06	4.911259e-06	4.948428e-09	3.491414e+01	3.256066e+02
1.890000e-06	4.868051e-06	4.980263e-09	3.460698e+01	3.239687e+02
1.900000e-06	4.823169e-06	4.930929e-09	3.428791e+01	3.222237e+02
1.910000e-06	4.776439e-06	4.838080e-09	3.395570e+01	3.203736e+02
1.920000e-06	4.727732e-06	4.878817e-09	3.360945e+01	3.184233e+02
1.930000e-06	4.677421e-06	4.799566e-09	3.325179e+01	3.163799e+02
1.940000e-06	4.625315e-06	4.807410e-09	3.288136e+01	3.142519e+02
1.950000e-06	4.571157e-06	4.793426e-09	3.249635e+01	3.120478e+02
1.960000e-06	4.515084e-06	4.692512e-09	3.209773e+01	3.097757e+02
1.970000e-06	4.457274e-06	4.684844e-09	3.168676e+01	3.074415e+02
1.980000e-06	4.398040e-06	4.654448e-09	3.126566e+01	3.050491e+02
1.990000e-06	4.337266e-06	4.655282e-09	3.083363e+01	3.025995e+02
2.000000e-06	4.274779e-06	4.587669e-09	3.038940e+01	3.000914e+02
2.010000e-06	4.210803e-06	4.511517e-09	2.993460e+01	2.975210e+02
2.020000e-06	4.145342e-06	4.500186e-09	2.946923e+01	2.948830e+02
2.030000e-06	4.078385e-06	4.425791e-09	2.899324e+01	2.921714e+02
2.040000e-06	4.010018e-06	4.419060e-09	2.850722e+01	2.893804e+02
2.050000e-06	3.940132e-06	4.388745e-09	2.801040e+01	2.865051e+02
2.060000e-06	3.868728e-06	4.334345e-09	2.750278e+01	2.835420e+02
2.070000e-06	3.796001e-06	4.287319e-09	2.698577e+01	2.804900e+02
2.080000e-06	3.721995e-06	4.216283e-09	2.645966e+01	2.773494e+02
2.090000e-06	3.646621e-06	4.200594e-09	2.592383e+01	2.741225e+02
2.100000e-06	3.569741e-06	4.141748e-09	2.537728e+01	2.708129e+02
2.110000e-06	3.491257e-06	4.075991e-09	2.481935e+01	2.674245e+02
2.120000e-06	3.411462e-06	4.022280e-09	2.425208e+01	2.639612e+02
2.130000e-06	3.330561e-06	3.969783e-09	2.367696e+01	2.604258e+02
2.140000e-06	3.248478e-06	3.928868e-09	2.309343e+01	2.568197e+02
2.150000e-06	3.165336e-06	3.872379e-09	2.250238e+01	2.531427e+02
2.160000e-06	3.081230e-06	3.820571e-09	2.190446e+01	2.493925e+02
2.170000e-06	2.995885e-06	3.748108e-09	2.129774e+01	2.455657e+02
2.180000e-06	2.909186e-06	3.685941e-09	2.068140e+01	2.416573e+02
2.190000e-06	2.821413e-06	3.635294e-09	2.005743e+01	2.376621e+02
2.200000e-06	2.732674e-06	3.584475e-09	1.942658e+01	2.335752e+02
2.210000e-06	2.642997e-06	3.519373e-09	1.878906e+01	2.293923e+02
2.220000e-06	2.552389e-06	3.435815e-09	1.814493e+01	2.251107e+02
2.230000e-06	2.460967e-06	3.367067e-09	1.749501e+01	2.207293e+02
2.240000e-06	2.368917e-06	3.301600e-09	1.684063e+01	2.162485e+02
2.250000e-06	2.276013e-06	3.242453e-09	1.618017e+01	2.116705e+02
2.260000e-06	2.182085e-06	3.179351e-09	1.551244e+01	2.069983e+02
2.270000e-06	2.087179e-06	3.106809e-09	1.483775e+01	2.022355e+02
2.280000e-06	1.991467e-06	3.025561e-09	1.415734e+01	1.973854e+02
2.290000e-06	1.895060e-06	2.944431e-09	1.347198e+01	1.924503e+02
2.300000e-06	1.798072e-06	2.872338e-09	1.278250e+01	1.874314e+02
2.310000e-06	1.700622e-06	2.801479e-09	1.208972e+01	1.823279e+02
2.320000e-06	1.602556e-06	2.720584e-09	1.139257e+01	1.771374e+02
2.330000e-06	1.503881e-06	2.630449e-09	1.069109e+01	1.718559e+02
2.340000e-06	1.404732e-06	2.551066e-09	9.986238e+00	1.664780e+02
2.350000e-06	1.305178e-06	2.476700e-09	9.278513e+00	1.609980e+02
2.360000e-06	1.205321e-06	2.398043e-09	8.568628e+00	1.554098e+02
2.370000e-06	1.105280e-06	2.309962e-09	7.857433e+00	1.497082e+02
2.380000e-06	1.004972e-06	2.214402e-09	7.144346e+00	1.438891e+02
2.390000e-06	9.041492e-07	2.122001e-09	6.427596e+00	1.379496e+02
2.400000e-06	8.027827e-07	2.031711e-09	5.706982e+00	1.318887e+02
2.410000e-06	7.011155e-07	1.941832e-09	4.984230e+00	1.257062e+02
2.420000e-06	5.992309e-07	1.846965e-09	4.259933e+00	1.194034e+02
2.430000e-06	4.970426e-07	1.743126e-09	3.533476e+00	1.129814e+02
2.440000e-06	3.945808e-07	1.640850e-09	2.805075e+00	1.064413e+02
2.450000e-06	2.919179e-07	1.546335e-09	2.075244e+00	9.978281e+01
2.460000e-06	1.891040e-07	1.450910e-09	1.344340e+00	9.300404e+01
2.470000e-06	8.619508e-08	1.345863e-09	6.127608e-01	8.610084e+01
2.480000e-06	-1.676570e-08	1.230089e-09	-1.191874e-01	7.906664e+01
2.490000e-06	-1.197203e-07	1.110702e-09	-8.510915e-01	7.189244e+01
2.500000e-06	-2.226485e-07	9.964597e-10	-1.582808e+00	6.456722e+01
2.510000e-06	-3.255024e-07	8.870079e-10	-2.313996e+00	5.707844e+01
2.520000e-06	-4.282158e-07	7.759345e-10	-3.044186e+00	4.941291e+01
2.530000e-06	-5.306774e-07	6.572512e-10	-3.772585e+00	4.155766e+01
2.540000e-06	-6.329262e-07	5.316669e-10	-4.499472e+00	3.350098e+01
2.550000e-06	-7.349440e-07	4.042042e-10	-5.224717e+00	2.523337e+01
2.560000e-06	-8.365451e-07	2.735409e-10	-5.946999e+00	1.674841e+01
2.570000e-06	-9.377037e-07	1.382517e-10	-6.666136e+00	8.043518e+00
2.580000e-06	-1.038419e-06	-2.182092e-13	-7.382120e+00	-8.795006e-01
2.590000e-06	-1.138723e-06	-1.425818e-10	-8.095184e+00	-1.001411e+01
2.600000e-06	-1.238694e-06	-2.854262e-10	-8.805872e+00	-1.934889e+01
2.610000e-06	-1.338299e-06	-4.261994e-10	-9.513965e+00	-2.886753e+01
2.620000e-06	-1.437434e-06	-5.697798e-10	-1.021872e+01	-3.854909e+01
2.630000e-06	-1.536058e-06	-7.194337e-10	-1.091984e+01	-4.836826e+01
2.640000e-06	-1.634119e-06	-8.721271e-10	-1.161695e+01	-5.829583e+01
2.650000e-06	-1.731554e-06	-1.023811e-09	-1.230962e+01	-6.829923e+01
2.660000e-06	-1.828407e-06	-1.174336e-09	-1.299815e+01	-7.834318e+01
2.670000e-06	-1.924740e-06	-1.326043e-09	-1.368297e+01	-8.839035e+01
2.680000e-06	-2.020522e-06	-1.477351e-09	-1.436389e+01	-9.840214e+01
2.690000e-06	-2.115591e-06	-1.628252e-09	-1.503974e+01	-1.083396e+02
2.700000e-06	-2.209725e-06	-1.780398e-09	-1.570893e+01	-1.181641e+02
2.710000e-06	-2.302832e-06	-1.929880e-09	-1.637083e+01	-1.278385e+02
2.720000e-06	-2.395021e-06	-2.073740e-09	-1.702620e+01	-1.373280e+02
2.730000e-06	-2.486381e-06	-2.212980e-09	-1.767568e+01	-1.466009e+02
2.740000e-06	-2.576850e-06	-2.350258e-09	-1.831883e+01	-1.556296e+02
2.750000e-06	-2.666385e-06	-2.485980e-09	-1.895533e+01	-1.643912e+02
2.760000e-06	-2.755064e-06	-2.616103e-09	-1.958575e+01	-1.728676e+02
2.770000e-06	-2.842995e-06	-2.739239e-09	-2.021085e+01	-1.810466e+02
2.780000e-06	-2.930040e-06	-2.858342e-09	-2.082965e+01	-1.889210e+02
2.790000e-06	-3.015850e-06	-2.974858e-09	-2.143967e+01	-1.964893e+02
2.800000e-06	-3.100407e-06	-3.089241e-09	-2.204079e+01	-2.037542e+02
2.810000e-06	-3.183927e-06	-3.199461e-09	-2.263453e+01	-2.107231e+02
2.820000e-06	-3.266429e-06	-3.301835e-09	-2.322104e+01	-2.174063e+02
2.830000e-06	-3.347874e-06	-3.397733e-09	-2.380003e+01	-2.238168e+02
2.840000e-06	-3.428261e-06	-3.490761e-09	-2.437151e+01	-2.299689e+02
2.850000e-06	-3.507414e-06	-3.581656e-09	-2.493421e+01	-2.358775e+02
2.860000e-06	-3.585054e-06	-3.668361e-09	-2.548615e+01	-2.415576e+02
2.870000e-06	-3.661145e-06	-3.749293e-09	-2.602708e+01	-2.470229e+02
2.880000e-06	-3.735801e-06	-3.826348e-09	-2.655781e+01	-2.522859e+02
2.890000e-06	-3.809071e-06	-3.902771e-09	-2.707869e+01	-2.573575e+02
2.900000e-06	-3.881043e-06	-3.980745e-09	-2.759033e+01	-2.622465e+02
2.910000e-06	-3.951622e-06	-4.056074e-09	-2.809208e+01	-2.669598e+02
2.920000e-06	-4.020596e-06	-4.125007e-09	-2.858241e+01	-2.715025e+02
2.930000e-06	-4.088127e-06	-4.190192e-09	-2.906249e+01	-2.758781e+02
2.940000e-06	-4.154279e-06	-4.254329e-09	-2.953277e+01	-2.800887e+02
