# Temperatura_=_25.64
# Concentracion g/m^3_=_15000.0
# C_Vs_to_Am_M_A/Vsm_=_65563218390.804596
# pendiente_HvsI_1/m_=_3716.3
# ordenada_HvsI_A/m_=_1297.0
# frecuencia_Hz_=_301574.9075505464

Tiempo_(s)	Campo_(V.s)	Magnetizacion_(V.s)	Campo_(kA/m)	Magnetizacion_(A/m)
0.000000e+00	-5.380928e-06	-4.528651e-09	-3.834142e+01	-2.955171e+02
1.000000e-08	-5.378166e-06	-4.531302e-09	-3.832174e+01	-2.954042e+02
2.000000e-08	-5.373615e-06	-4.525467e-09	-3.828931e+01	-2.952244e+02
3.000000e-08	-5.367489e-06	-4.519735e-09	-3.824566e+01	-2.949786e+02
4.000000e-08	-5.359765e-06	-4.513247e-09	-3.819063e+01	-2.946687e+02
5.000000e-08	-5.350141e-06	-4.502773e-09	-3.812205e+01	-2.942976e+02
6.000000e-08	-5.338444e-06	-4.492710e-09	-3.803870e+01	-2.938695e+02
7.000000e-08	-5.324934e-06	-4.476311e-09	-3.794244e+01	-2.933888e+02
8.000000e-08	-5.309345e-06	-4.468744e-09	-3.783136e+01	-2.928606e+02
9.000000e-08	-5.291488e-06	-4.533997e-09	-3.770412e+01	-2.922891e+02
1.000000e-07	-5.271648e-06	-4.528779e-09	-3.756275e+01	-2.916779e+02
1.100000e-07	-5.249954e-06	-4.467912e-09	-3.740817e+01	-2.910292e+02
1.200000e-07	-5.226520e-06	-4.458848e-09	-3.724120e+01	-2.903434e+02
1.300000e-07	-5.201470e-06	-4.341588e-09	-3.706270e+01	-2.896191e+02
1.400000e-07	-5.174801e-06	-4.360733e-09	-3.687268e+01	-2.888531e+02
1.500000e-07	-5.146570e-06	-4.534821e-09	-3.667152e+01	-2.880409e+02
1.600000e-07	-5.116857e-06	-4.340955e-09	-3.645980e+01	-2.871768e+02
1.700000e-07	-5.085518e-06	-4.357889e-09	-3.623650e+01	-2.862549e+02
1.800000e-07	-5.052038e-06	-4.449679e-09	-3.599794e+01	-2.852693e+02
1.900000e-07	-5.016685e-06	-4.223162e-09	-3.574603e+01	-2.842150e+02
2.000000e-07	-4.979918e-06	-4.362069e-09	-3.548406e+01	-2.830885e+02
2.100000e-07	-4.941405e-06	-4.425308e-09	-3.520963e+01	-2.818879e+02
2.200000e-07	-4.901088e-06	-4.247972e-09	-3.492236e+01	-2.806132e+02
2.300000e-07	-4.858802e-06	-4.289134e-09	-3.462105e+01	-2.792659e+02
2.400000e-07	-4.814540e-06	-4.252777e-09	-3.430566e+01	-2.778493e+02
2.500000e-07	-4.768587e-06	-4.190551e-09	-3.397823e+01	-2.763673e+02
2.600000e-07	-4.720749e-06	-4.234750e-09	-3.363736e+01	-2.748245e+02
2.700000e-07	-4.670814e-06	-4.160784e-09	-3.328155e+01	-2.732252e+02
2.800000e-07	-4.618837e-06	-4.140196e-09	-3.291119e+01	-2.715728e+02
2.900000e-07	-4.564999e-06	-4.114575e-09	-3.252758e+01	-2.698696e+02
3.000000e-07	-4.509554e-06	-4.084486e-09	-3.213250e+01	-2.681165e+02
3.100000e-07	-4.452442e-06	-4.092356e-09	-3.172556e+01	-2.663128e+02
3.200000e-07	-4.393538e-06	-4.073369e-09	-3.130584e+01	-2.644564e+02
3.300000e-07	-4.333065e-06	-4.023518e-09	-3.087494e+01	-2.625441e+02
3.400000e-07	-4.271147e-06	-3.931681e-09	-3.043376e+01	-2.605720e+02
3.500000e-07	-4.207824e-06	-3.943524e-09	-2.998255e+01	-2.585362e+02
3.600000e-07	-4.142962e-06	-3.944124e-09	-2.952038e+01	-2.564327e+02
3.700000e-07	-4.076435e-06	-3.887669e-09	-2.904635e+01	-2.542588e+02
3.800000e-07	-4.008410e-06	-3.864004e-09	-2.856164e+01	-2.520123e+02
3.900000e-07	-3.939005e-06	-3.813654e-09	-2.806710e+01	-2.496926e+02
4.000000e-07	-3.868391e-06	-3.771587e-09	-2.756394e+01	-2.473000e+02
4.100000e-07	-3.796542e-06	-3.736002e-09	-2.705199e+01	-2.448361e+02
4.200000e-07	-3.723210e-06	-3.711176e-09	-2.652947e+01	-2.423030e+02
4.300000e-07	-3.648283e-06	-3.681073e-09	-2.599558e+01	-2.397032e+02
4.400000e-07	-3.571831e-06	-3.617348e-09	-2.545083e+01	-2.370393e+02
4.500000e-07	-3.493950e-06	-3.562922e-09	-2.489589e+01	-2.343131e+02
4.600000e-07	-3.414661e-06	-3.528340e-09	-2.433092e+01	-2.315262e+02
4.700000e-07	-3.334097e-06	-3.502145e-09	-2.375687e+01	-2.286789e+02
4.800000e-07	-3.252274e-06	-3.454650e-09	-2.317384e+01	-2.257706e+02
4.900000e-07	-3.169315e-06	-3.396569e-09	-2.258273e+01	-2.227998e+02
5.000000e-07	-3.085412e-06	-3.356867e-09	-2.198489e+01	-2.197644e+02
5.100000e-07	-3.000621e-06	-3.309293e-09	-2.138071e+01	-2.166613e+02
5.200000e-07	-2.914939e-06	-3.261801e-09	-2.077019e+01	-2.134874e+02
5.300000e-07	-2.828299e-06	-3.211662e-09	-2.015284e+01	-2.102395e+02
5.400000e-07	-2.740658e-06	-3.149322e-09	-1.952836e+01	-2.069143e+02
5.500000e-07	-2.651978e-06	-3.086467e-09	-1.889648e+01	-2.035092e+02
5.600000e-07	-2.562180e-06	-3.029746e-09	-1.825663e+01	-2.000216e+02
5.700000e-07	-2.471293e-06	-2.989935e-09	-1.760902e+01	-1.964498e+02
5.800000e-07	-2.379510e-06	-2.943168e-09	-1.695503e+01	-1.927921e+02
5.900000e-07	-2.286935e-06	-2.883552e-09	-1.629539e+01	-1.890475e+02
6.000000e-07	-2.193548e-06	-2.815706e-09	-1.562997e+01	-1.852150e+02
6.100000e-07	-2.099344e-06	-2.752526e-09	-1.495873e+01	-1.812941e+02
6.200000e-07	-2.004449e-06	-2.692579e-09	-1.428256e+01	-1.772844e+02
6.300000e-07	-1.908913e-06	-2.630758e-09	-1.360182e+01	-1.731856e+02
6.400000e-07	-1.812659e-06	-2.569456e-09	-1.291598e+01	-1.689973e+02
6.500000e-07	-1.715631e-06	-2.499743e-09	-1.222461e+01	-1.647197e+02
6.600000e-07	-1.617849e-06	-2.429933e-09	-1.152787e+01	-1.603527e+02
6.700000e-07	-1.519406e-06	-2.360632e-09	-1.082642e+01	-1.558964e+02
6.800000e-07	-1.420434e-06	-2.293302e-09	-1.012120e+01	-1.513510e+02
6.900000e-07	-1.321023e-06	-2.221499e-09	-9.412858e+00	-1.467165e+02
7.000000e-07	-1.221198e-06	-2.146516e-09	-8.701561e+00	-1.419929e+02
7.100000e-07	-1.121044e-06	-2.072457e-09	-7.987918e+00	-1.371797e+02
7.200000e-07	-1.020628e-06	-1.997234e-09	-7.272413e+00	-1.322762e+02
7.300000e-07	-9.199224e-07	-1.922252e-09	-6.554842e+00	-1.272809e+02
7.400000e-07	-8.188704e-07	-1.845096e-09	-5.834803e+00	-1.221918e+02
7.500000e-07	-7.174625e-07	-1.763876e-09	-5.112228e+00	-1.170062e+02
7.600000e-07	-6.157880e-07	-1.677833e-09	-4.387754e+00	-1.117207e+02
7.700000e-07	-5.139214e-07	-1.593412e-09	-3.661910e+00	-1.063313e+02
7.800000e-07	-4.118829e-07	-1.511887e-09	-2.934842e+00	-1.008336e+02
7.900000e-07	-3.097139e-07	-1.430909e-09	-2.206844e+00	-9.522288e+01
8.000000e-07	-2.074502e-07	-1.345349e-09	-1.478171e+00	-8.949446e+01
8.100000e-07	-1.050852e-07	-1.256986e-09	-7.487770e-01	-8.364363e+01
8.200000e-07	-2.636972e-09	-1.166428e-09	-1.878956e-02	-7.766588e+01
8.300000e-07	9.987180e-08	-1.071699e-09	7.116294e-01	-7.155691e+01
8.400000e-07	2.023672e-07	-9.765519e-10	1.441953e+00	-6.531257e+01
8.500000e-07	3.047722e-07	-8.803410e-10	2.171633e+00	-5.892881e+01
8.600000e-07	4.071116e-07	-7.820328e-10	2.900845e+00	-5.240152e+01
8.700000e-07	5.093606e-07	-6.777715e-10	3.629413e+00	-4.572641e+01
8.800000e-07	6.114249e-07	-5.734952e-10	4.356665e+00	-3.889890e+01
8.900000e-07	7.132557e-07	-4.717784e-10	5.082253e+00	-3.191421e+01
9.000000e-07	8.148411e-07	-3.668357e-10	5.806092e+00	-2.476744e+01
9.100000e-07	9.161126e-07	-2.576431e-10	6.527695e+00	-1.745395e+01
9.200000e-07	1.017024e-06	-1.448171e-10	7.246733e+00	-9.969820e+00
9.300000e-07	1.117589e-06	-2.987410e-11	7.963305e+00	-2.312524e+00
9.400000e-07	1.217802e-06	8.916065e-11	8.677361e+00	5.518321e+00
9.500000e-07	1.317662e-06	2.104540e-10	9.388904e+00	1.352013e+01
9.600000e-07	1.417139e-06	3.346721e-10	1.009772e+01	2.168657e+01
9.700000e-07	1.516119e-06	4.624766e-10	1.080299e+01	3.000688e+01
9.800000e-07	1.614423e-06	5.904278e-10	1.150346e+01	3.846540e+01
9.900000e-07	1.711951e-06	7.167207e-10	1.219838e+01	4.704137e+01
1.000000e-06	1.808691e-06	8.446004e-10	1.288770e+01	5.570905e+01
1.010000e-06	1.904658e-06	9.759345e-10	1.357151e+01	6.443821e+01
1.020000e-06	1.999900e-06	1.111190e-09	1.425014e+01	7.319486e+01
1.030000e-06	2.094428e-06	1.246459e-09	1.492370e+01	8.194240e+01
1.040000e-06	2.188253e-06	1.377875e-09	1.559224e+01	9.064285e+01
1.050000e-06	2.281318e-06	1.506170e-09	1.625537e+01	9.925829e+01
1.060000e-06	2.373641e-06	1.631677e-09	1.691321e+01	1.077522e+02
1.070000e-06	2.465343e-06	1.755857e-09	1.756663e+01	1.160910e+02
1.080000e-06	2.556262e-06	1.878727e-09	1.821447e+01	1.242448e+02
1.090000e-06	2.646025e-06	1.998242e-09	1.885407e+01	1.321885e+02
1.100000e-06	2.734568e-06	2.115479e-09	1.948497e+01	1.399024e+02
1.110000e-06	2.822135e-06	2.226777e-09	2.010892e+01	1.473721e+02
1.120000e-06	2.908819e-06	2.332731e-09	2.072659e+01	1.545886e+02
1.130000e-06	2.994601e-06	2.437530e-09	2.133782e+01	1.615480e+02
1.140000e-06	3.079424e-06	2.543616e-09	2.194222e+01	1.682505e+02
1.150000e-06	3.163310e-06	2.645721e-09	2.253994e+01	1.746999e+02
1.160000e-06	3.246262e-06	2.740776e-09	2.313101e+01	1.809028e+02
1.170000e-06	3.327990e-06	2.831008e-09	2.371336e+01	1.868674e+02
1.180000e-06	3.408361e-06	2.916923e-09	2.428604e+01	1.926033e+02
1.190000e-06	3.487504e-06	2.999062e-09	2.484996e+01	1.981202e+02
1.200000e-06	3.565450e-06	3.079034e-09	2.540536e+01	2.034280e+02
1.210000e-06	3.642209e-06	3.158977e-09	2.595230e+01	2.085356e+02
1.220000e-06	3.717708e-06	3.235601e-09	2.649026e+01	2.134514e+02
1.230000e-06	3.791625e-06	3.308227e-09	2.701696e+01	2.181828e+02
1.240000e-06	3.863879e-06	3.376333e-09	2.753180e+01	2.227361e+02
1.250000e-06	3.934679e-06	3.442595e-09	2.803628e+01	2.271165e+02
1.260000e-06	4.004109e-06	3.506326e-09	2.853100e+01	2.313284e+02
1.270000e-06	4.072227e-06	3.568554e-09	2.901637e+01	2.353753e+02
1.280000e-06	4.138947e-06	3.627748e-09	2.949177e+01	2.392597e+02
1.290000e-06	4.203975e-06	3.683731e-09	2.995512e+01	2.429838e+02
1.300000e-06	4.267358e-06	3.734813e-09	3.040675e+01	2.465493e+02
1.310000e-06	4.329289e-06	3.781810e-09	3.084804e+01	2.499575e+02
1.320000e-06	4.389848e-06	3.829294e-09	3.127955e+01	2.532099e+02
1.330000e-06	4.449142e-06	3.874251e-09	3.170204e+01	2.563079e+02
1.340000e-06	4.506755e-06	3.916330e-09	3.211256e+01	2.592535e+02
1.350000e-06	4.562480e-06	3.957695e-09	3.250963e+01	2.620491e+02
1.360000e-06	4.616544e-06	3.998770e-09	3.289485e+01	2.646980e+02
1.370000e-06	4.668894e-06	4.036374e-09	3.326788e+01	2.672042e+02
1.380000e-06	4.719262e-06	4.070092e-09	3.362677e+01	2.695723e+02
1.390000e-06	4.767622e-06	4.100740e-09	3.397135e+01	2.718077e+02
1.400000e-06	4.814271e-06	4.127846e-09	3.430375e+01	2.739163e+02
1.410000e-06	4.859326e-06	4.152075e-09	3.462479e+01	2.759043e+02
1.420000e-06	4.902856e-06	4.175797e-09	3.493495e+01	2.777777e+02
1.430000e-06	4.944556e-06	4.201220e-09	3.523208e+01	2.795422e+02
1.440000e-06	4.984329e-06	4.227032e-09	3.551548e+01	2.812030e+02
1.450000e-06	5.022448e-06	4.251687e-09	3.578710e+01	2.827645e+02
1.460000e-06	5.058967e-06	4.274216e-09	3.604731e+01	2.842302e+02
1.470000e-06	5.093829e-06	4.296518e-09	3.629572e+01	2.856026e+02
1.480000e-06	5.126723e-06	4.315671e-09	3.653010e+01	2.868836e+02
1.490000e-06	5.157689e-06	4.330306e-09	3.675075e+01	2.880744e+02
1.500000e-06	5.186993e-06	4.343571e-09	3.695955e+01	2.891758e+02
1.510000e-06	5.214645e-06	4.356030e-09	3.715659e+01	2.901889e+02
1.520000e-06	5.240324e-06	4.367898e-09	3.733956e+01	2.911148e+02
1.530000e-06	5.263916e-06	4.379790e-09	3.750766e+01	2.919550e+02
1.540000e-06	5.285649e-06	4.392726e-09	3.766252e+01	2.927118e+02
1.550000e-06	5.305685e-06	4.405493e-09	3.780528e+01	2.933879e+02
1.560000e-06	5.323917e-06	4.416020e-09	3.793519e+01	2.939865e+02
1.570000e-06	5.340031e-06	4.424858e-09	3.805001e+01	2.945112e+02
1.580000e-06	5.354162e-06	4.433302e-09	3.815070e+01	2.949653e+02
1.590000e-06	5.366433e-06	4.439976e-09	3.823814e+01	2.953520e+02
1.600000e-06	5.376555e-06	4.443785e-09	3.831026e+01	2.956737e+02
1.610000e-06	5.384507e-06	4.446040e-09	3.836692e+01	2.959322e+02
1.620000e-06	5.390529e-06	4.449007e-09	3.840983e+01	2.961281e+02
1.630000e-06	5.394789e-06	4.452884e-09	3.844018e+01	2.962613e+02
1.640000e-06	5.397190e-06	4.454910e-09	3.845729e+01	2.963311e+02
1.650000e-06	5.397570e-06	4.458176e-09	3.846000e+01	2.963362e+02
1.660000e-06	5.396094e-06	4.456312e-09	3.844949e+01	2.962754e+02
1.670000e-06	5.392947e-06	4.449424e-09	3.842706e+01	2.961480e+02
1.680000e-06	5.388179e-06	4.450457e-09	3.839309e+01	2.959539e+02
1.690000e-06	5.381581e-06	4.448684e-09	3.834607e+01	2.956940e+02
1.700000e-06	5.373103e-06	4.443295e-09	3.828566e+01	2.953705e+02
1.710000e-06	5.363000e-06	4.439340e-09	3.821368e+01	2.949866e+02
1.720000e-06	5.351253e-06	4.441207e-09	3.812997e+01	2.945467e+02
1.730000e-06	5.337543e-06	4.460558e-09	3.803228e+01	2.940553e+02
1.740000e-06	5.321729e-06	4.365983e-09	3.791960e+01	2.935173e+02
1.750000e-06	5.303528e-06	4.334262e-09	3.778991e+01	2.929369e+02
1.760000e-06	5.282648e-06	4.379453e-09	3.764113e+01	2.923174e+02
1.770000e-06	5.259467e-06	4.365119e-09	3.747596e+01	2.916606e+02
1.780000e-06	5.234995e-06	4.507822e-09	3.730158e+01	2.909665e+02
1.790000e-06	5.209930e-06	4.399437e-09	3.712299e+01	2.902335e+02
1.800000e-06	5.183470e-06	4.201498e-09	3.693445e+01	2.894579e+02
1.810000e-06	5.154728e-06	4.439420e-09	3.672965e+01	2.886349e+02
1.820000e-06	5.124220e-06	4.331912e-09	3.651226e+01	2.877588e+02
1.830000e-06	5.092049e-06	4.271858e-09	3.628303e+01	2.868235e+02
1.840000e-06	5.057822e-06	4.531841e-09	3.603915e+01	2.858234e+02
1.850000e-06	5.021984e-06	4.291269e-09	3.578379e+01	2.847537e+02
1.860000e-06	4.984385e-06	4.270783e-09	3.551588e+01	2.836113e+02
1.870000e-06	4.944842e-06	4.416412e-09	3.523412e+01	2.823946e+02
1.880000e-06	4.903691e-06	4.214071e-09	3.494090e+01	2.811040e+02
1.890000e-06	4.860676e-06	4.342064e-09	3.463440e+01	2.797414e+02
1.900000e-06	4.816003e-06	4.302704e-09	3.431609e+01	2.783102e+02
1.910000e-06	4.769604e-06	4.183182e-09	3.398548e+01	2.768147e+02
1.920000e-06	4.721131e-06	4.317882e-09	3.364008e+01	2.752593e+02
1.930000e-06	4.671058e-06	4.118988e-09	3.328329e+01	2.736481e+02
1.940000e-06	4.619284e-06	4.189603e-09	3.291438e+01	2.719845e+02
1.950000e-06	4.565444e-06	4.230746e-09	3.253075e+01	2.702705e+02
1.960000e-06	4.509682e-06	4.068113e-09	3.213342e+01	2.685065e+02
1.970000e-06	4.452209e-06	4.101207e-09	3.172390e+01	2.666916e+02
1.980000e-06	4.393300e-06	4.037793e-09	3.130415e+01	2.648234e+02
1.990000e-06	4.332899e-06	4.102026e-09	3.087376e+01	2.628984e+02
2.000000e-06	4.270788e-06	4.026078e-09	3.043119e+01	2.609129e+02
2.010000e-06	4.207057e-06	3.931976e-09	2.997709e+01	2.588627e+02
2.020000e-06	4.141814e-06	3.998707e-09	2.951220e+01	2.567442e+02
2.030000e-06	4.075159e-06	3.857592e-09	2.903725e+01	2.545546e+02
2.040000e-06	4.007200e-06	3.865599e-09	2.855302e+01	2.522923e+02
2.050000e-06	3.937766e-06	3.865789e-09	2.805827e+01	2.499568e+02
2.060000e-06	3.866703e-06	3.835871e-09	2.755192e+01	2.475486e+02
2.070000e-06	3.794257e-06	3.797745e-09	2.703571e+01	2.450695e+02
2.080000e-06	3.720555e-06	3.677866e-09	2.651055e+01	2.425218e+02
2.090000e-06	3.645454e-06	3.708739e-09	2.597543e+01	2.399079e+02
2.100000e-06	3.568889e-06	3.665867e-09	2.542987e+01	2.372303e+02
2.110000e-06	3.490747e-06	3.617724e-09	2.487307e+01	2.344909e+02
2.120000e-06	3.411218e-06	3.562966e-09	2.430639e+01	2.316908e+02
2.130000e-06	3.330581e-06	3.511998e-09	2.373182e+01	2.288304e+02
2.140000e-06	3.248797e-06	3.489085e-09	2.314907e+01	2.259087e+02
2.150000e-06	3.165863e-06	3.416969e-09	2.255813e+01	2.229242e+02
2.160000e-06	3.081937e-06	3.406350e-09	2.196012e+01	2.198743e+02
2.170000e-06	2.996981e-06	3.352852e-09	2.135478e+01	2.167562e+02
2.180000e-06	2.910689e-06	3.295288e-09	2.073991e+01	2.135665e+02
2.190000e-06	2.823160e-06	3.242827e-09	2.011623e+01	2.103021e+02
2.200000e-06	2.734686e-06	3.200668e-09	1.948581e+01	2.069599e+02
2.210000e-06	2.645302e-06	3.170423e-09	1.884891e+01	2.035372e+02
2.220000e-06	2.554970e-06	3.097081e-09	1.820526e+01	2.000316e+02
2.230000e-06	2.463827e-06	3.032413e-09	1.755582e+01	1.964413e+02
2.240000e-06	2.372008e-06	2.966966e-09	1.690157e+01	1.927649e+02
2.250000e-06	2.279377e-06	2.921893e-09	1.624154e+01	1.890013e+02
2.260000e-06	2.185883e-06	2.875668e-09	1.557536e+01	1.851498e+02
2.270000e-06	2.091445e-06	2.823517e-09	1.490244e+01	1.812098e+02
2.280000e-06	1.995988e-06	2.757745e-09	1.422227e+01	1.771808e+02
2.290000e-06	1.899740e-06	2.684329e-09	1.353646e+01	1.730627e+02
2.300000e-06	1.802918e-06	2.621679e-09	1.284656e+01	1.688551e+02
2.310000e-06	1.705592e-06	2.560637e-09	1.215307e+01	1.645582e+02
2.320000e-06	1.607682e-06	2.501664e-09	1.145543e+01	1.601719e+02
2.330000e-06	1.509225e-06	2.428222e-09	1.075388e+01	1.556963e+02
2.340000e-06	1.410258e-06	2.354550e-09	1.004869e+01	1.511317e+02
2.350000e-06	1.310866e-06	2.281770e-09	9.340484e+00	1.464779e+02
2.360000e-06	1.211197e-06	2.216744e-09	8.630298e+00	1.417350e+02
2.370000e-06	1.111269e-06	2.153710e-09	7.918270e+00	1.369024e+02
2.380000e-06	1.011073e-06	2.077645e-09	7.204332e+00	1.319792e+02
2.390000e-06	9.105121e-07	1.994444e-09	6.487789e+00	1.269639e+02
2.400000e-06	8.095061e-07	1.913271e-09	5.768078e+00	1.218542e+02
2.410000e-06	7.082013e-07	1.837397e-09	5.046238e+00	1.166474e+02
2.420000e-06	6.066731e-07	1.760401e-09	4.322806e+00	1.113398e+02
2.430000e-06	5.048402e-07	1.676999e-09	3.597203e+00	1.059274e+02
2.440000e-06	4.027309e-07	1.588851e-09	2.869630e+00	1.004057e+02
2.450000e-06	3.004437e-07	1.502312e-09	2.140791e+00	9.477000e+01
2.460000e-06	1.980844e-07	1.414759e-09	1.411436e+00	8.901558e+01
2.470000e-06	9.565772e-08	1.329461e-09	6.816023e-01	8.313777e+01
2.480000e-06	-6.866314e-09	1.241884e-09	-4.892543e-02	7.713210e+01
2.490000e-06	-1.094202e-07	1.143187e-09	-7.796660e-01	7.099430e+01
2.500000e-06	-2.119479e-07	1.039712e-09	-1.510220e+00	6.472028e+01
2.510000e-06	-3.144400e-07	9.414685e-10	-2.240520e+00	5.830596e+01
2.520000e-06	-4.168401e-07	8.468548e-10	-2.970164e+00	5.174720e+01
2.530000e-06	-5.189814e-07	7.452043e-10	-3.697965e+00	4.503967e+01
2.540000e-06	-6.209052e-07	6.371735e-10	-4.424216e+00	3.817873e+01
2.550000e-06	-7.225744e-07	5.280347e-10	-5.148652e+00	3.115956e+01
2.560000e-06	-8.238497e-07	4.160628e-10	-5.870283e+00	2.397729e+01
2.570000e-06	-9.247579e-07	3.016811e-10	-6.589297e+00	1.662737e+01
2.580000e-06	-1.025271e-06	1.882205e-10	-7.305493e+00	9.106129e+00
2.590000e-06	-1.125452e-06	7.147305e-11	-8.019327e+00	1.411431e+00
2.600000e-06	-1.225288e-06	-5.292848e-11	-8.730704e+00	-6.456540e+00
2.610000e-06	-1.324745e-06	-1.791790e-10	-9.439376e+00	-1.449446e+01
2.620000e-06	-1.423760e-06	-3.051848e-10	-1.014490e+01	-2.269510e+01
2.630000e-06	-1.522228e-06	-4.327910e-10	-1.084653e+01	-3.104667e+01
2.640000e-06	-1.620127e-06	-5.629019e-10	-1.154410e+01	-3.953243e+01
2.650000e-06	-1.717451e-06	-6.950408e-10	-1.223757e+01	-4.813054e+01
2.660000e-06	-1.814205e-06	-8.287400e-10	-1.292699e+01	-5.681424e+01
2.670000e-06	-1.910452e-06	-9.642637e-10	-1.361279e+01	-6.555241e+01
2.680000e-06	-2.006164e-06	-1.097874e-09	-1.429478e+01	-7.431042e+01
2.690000e-06	-2.101082e-06	-1.229117e-09	-1.497111e+01	-8.305124e+01
2.700000e-06	-2.194999e-06	-1.362146e-09	-1.564031e+01	-9.173679e+01
2.710000e-06	-2.287908e-06	-1.498345e-09	-1.630233e+01	-1.003293e+02
2.720000e-06	-2.379931e-06	-1.631705e-09	-1.695803e+01	-1.087929e+02
2.730000e-06	-2.471176e-06	-1.759106e-09	-1.760819e+01	-1.170946e+02
2.740000e-06	-2.561578e-06	-1.882676e-09	-1.825234e+01	-1.252054e+02
2.750000e-06	-2.651025e-06	-2.004341e-09	-1.888969e+01	-1.331015e+02
2.760000e-06	-2.739586e-06	-2.122312e-09	-1.952072e+01	-1.407643e+02
2.770000e-06	-2.827427e-06	-2.234718e-09	-2.014663e+01	-1.481805e+02
2.780000e-06	-2.914363e-06	-2.343123e-09	-2.076609e+01	-1.553422e+02
2.790000e-06	-3.000027e-06	-2.447247e-09	-2.137648e+01	-1.622466e+02
2.800000e-06	-3.084472e-06	-2.550338e-09	-2.197819e+01	-1.688946e+02
2.810000e-06	-3.167925e-06	-2.652043e-09	-2.257283e+01	-1.752907e+02
2.820000e-06	-3.250418e-06	-2.746870e-09	-2.316062e+01	-1.814419e+02
2.830000e-06	-3.331827e-06	-2.836792e-09	-2.374069e+01	-1.873568e+02
2.840000e-06	-3.412134e-06	-2.922681e-09	-2.431292e+01	-1.930451e+02
2.850000e-06	-3.491244e-06	-3.004331e-09	-2.487661e+01	-1.985166e+02
2.860000e-06	-3.568822e-06	-3.082923e-09	-2.542939e+01	-2.037808e+02
2.870000e-06	-3.644884e-06	-3.159238e-09	-2.597136e+01	-2.088468e+02
2.880000e-06	-3.719576e-06	-3.234476e-09	-2.650358e+01	-2.137227e+02
2.890000e-06	-3.792885e-06	-3.306332e-09	-2.702593e+01	-2.184156e+02
2.900000e-06	-3.864916e-06	-3.375901e-09	-2.753918e+01	-2.229316e+02
2.910000e-06	-3.935575e-06	-3.442879e-09	-2.804266e+01	-2.272758e+02
2.920000e-06	-4.004592e-06	-3.507443e-09	-2.853444e+01	-2.314522e+02
2.930000e-06	-4.072124e-06	-3.571637e-09	-2.901563e+01	-2.354642e+02
2.940000e-06	-4.138298e-06	-3.633814e-09	-2.948715e+01	-2.393143e+02
