# Temperatura_=_46.66
# Concentracion g/m^3_=_15000.0
# C_Vs_to_Am_M_A/Vsm_=_65563218390.804596
# pendiente_HvsI_1/m_=_3716.3
# ordenada_HvsI_A/m_=_1297.0
# frecuencia_Hz_=_301572.53072734736

Tiempo_(s)	Campo_(V.s)	Magnetizacion_(V.s)	Campo_(kA/m)	Magnetizacion_(A/m)
0.000000e+00	-5.378309e-06	-5.223048e-09	-3.834294e+01	-3.405039e+02
1.000000e-08	-5.375650e-06	-5.224020e-09	-3.832398e+01	-3.403885e+02
2.000000e-08	-5.371254e-06	-5.221126e-09	-3.829264e+01	-3.401965e+02
3.000000e-08	-5.365248e-06	-5.216188e-09	-3.824983e+01	-3.399249e+02
4.000000e-08	-5.357597e-06	-5.208253e-09	-3.819528e+01	-3.395718e+02
5.000000e-08	-5.348107e-06	-5.197016e-09	-3.812762e+01	-3.391369e+02
6.000000e-08	-5.336590e-06	-5.186164e-09	-3.804552e+01	-3.386222e+02
7.000000e-08	-5.323108e-06	-5.173344e-09	-3.794940e+01	-3.380316e+02
8.000000e-08	-5.307584e-06	-5.166661e-09	-3.783873e+01	-3.373709e+02
9.000000e-08	-5.289883e-06	-5.197452e-09	-3.771254e+01	-3.366474e+02
1.000000e-07	-5.270133e-06	-5.198192e-09	-3.757173e+01	-3.358689e+02
1.100000e-07	-5.248520e-06	-5.160091e-09	-3.741765e+01	-3.350428e+02
1.200000e-07	-5.225159e-06	-5.131779e-09	-3.725111e+01	-3.341752e+02
1.300000e-07	-5.200179e-06	-5.053478e-09	-3.707302e+01	-3.332701e+02
1.400000e-07	-5.173642e-06	-5.049891e-09	-3.688383e+01	-3.323285e+02
1.500000e-07	-5.145484e-06	-5.137787e-09	-3.668309e+01	-3.313484e+02
1.600000e-07	-5.115823e-06	-5.048267e-09	-3.647163e+01	-3.303245e+02
1.700000e-07	-5.084595e-06	-5.036160e-09	-3.624900e+01	-3.292489e+02
1.800000e-07	-5.051316e-06	-5.063482e-09	-3.601174e+01	-3.281115e+02
1.900000e-07	-5.016173e-06	-4.943632e-09	-3.576120e+01	-3.269010e+02
2.000000e-07	-4.979551e-06	-4.997565e-09	-3.550012e+01	-3.256065e+02
2.100000e-07	-4.941201e-06	-5.013502e-09	-3.522672e+01	-3.242179e+02
2.200000e-07	-4.901009e-06	-4.894994e-09	-3.494018e+01	-3.227275e+02
2.300000e-07	-4.858884e-06	-4.904725e-09	-3.463986e+01	-3.211305e+02
2.400000e-07	-4.814871e-06	-4.889581e-09	-3.432608e+01	-3.194254e+02
2.500000e-07	-4.769053e-06	-4.840485e-09	-3.399944e+01	-3.176140e+02
2.600000e-07	-4.721326e-06	-4.849150e-09	-3.365919e+01	-3.157012e+02
2.700000e-07	-4.671574e-06	-4.777385e-09	-3.330450e+01	-3.136943e+02
2.800000e-07	-4.619728e-06	-4.729223e-09	-3.293488e+01	-3.116020e+02
2.900000e-07	-4.566047e-06	-4.725139e-09	-3.255218e+01	-3.094333e+02
3.000000e-07	-4.510789e-06	-4.701988e-09	-3.215823e+01	-3.071965e+02
3.100000e-07	-4.453824e-06	-4.671866e-09	-3.175212e+01	-3.048985e+02
3.200000e-07	-4.395042e-06	-4.634748e-09	-3.133305e+01	-3.025439e+02
3.300000e-07	-4.334697e-06	-4.570872e-09	-3.090284e+01	-3.001347e+02
3.400000e-07	-4.272941e-06	-4.499205e-09	-3.046257e+01	-2.976704e+02
3.500000e-07	-4.209772e-06	-4.501929e-09	-3.001223e+01	-2.951482e+02
3.600000e-07	-4.145068e-06	-4.486340e-09	-2.955094e+01	-2.925637e+02
3.700000e-07	-4.078691e-06	-4.420948e-09	-2.907773e+01	-2.899115e+02
3.800000e-07	-4.010762e-06	-4.381194e-09	-2.859345e+01	-2.871862e+02
3.900000e-07	-3.941492e-06	-4.334032e-09	-2.809961e+01	-2.843831e+02
4.000000e-07	-3.871021e-06	-4.284320e-09	-2.759721e+01	-2.814985e+02
4.100000e-07	-3.799291e-06	-4.244093e-09	-2.708583e+01	-2.785307e+02
4.200000e-07	-3.726095e-06	-4.199024e-09	-2.656400e+01	-2.754795e+02
4.300000e-07	-3.651335e-06	-4.148637e-09	-2.603103e+01	-2.723463e+02
4.400000e-07	-3.575064e-06	-4.092096e-09	-2.548728e+01	-2.691336e+02
4.500000e-07	-3.497368e-06	-4.046523e-09	-2.493337e+01	-2.658445e+02
4.600000e-07	-3.418287e-06	-4.007225e-09	-2.436959e+01	-2.624819e+02
4.700000e-07	-3.337870e-06	-3.953197e-09	-2.379628e+01	-2.590480e+02
4.800000e-07	-3.256201e-06	-3.881234e-09	-2.321404e+01	-2.555438e+02
4.900000e-07	-3.173391e-06	-3.820672e-09	-2.262368e+01	-2.519687e+02
5.000000e-07	-3.089615e-06	-3.779242e-09	-2.202643e+01	-2.483205e+02
5.100000e-07	-3.004965e-06	-3.726648e-09	-2.142294e+01	-2.445953e+02
5.200000e-07	-2.919369e-06	-3.668243e-09	-2.081271e+01	-2.407886e+02
5.300000e-07	-2.832749e-06	-3.602760e-09	-2.019518e+01	-2.368949e+02
5.400000e-07	-2.745149e-06	-3.527573e-09	-1.957067e+01	-2.329091e+02
5.500000e-07	-2.656583e-06	-3.459706e-09	-1.893926e+01	-2.288266e+02
5.600000e-07	-2.566952e-06	-3.403044e-09	-1.830026e+01	-2.246441e+02
5.700000e-07	-2.476251e-06	-3.348113e-09	-1.765364e+01	-2.203598e+02
5.800000e-07	-2.384633e-06	-3.277603e-09	-1.700048e+01	-2.159737e+02
5.900000e-07	-2.292186e-06	-3.201700e-09	-1.634141e+01	-2.114870e+02
6.000000e-07	-2.198887e-06	-3.131405e-09	-1.567626e+01	-2.069023e+02
6.100000e-07	-2.104809e-06	-3.063234e-09	-1.500557e+01	-2.022230e+02
6.200000e-07	-2.010041e-06	-2.990101e-09	-1.432994e+01	-1.974524e+02
6.300000e-07	-1.914612e-06	-2.913848e-09	-1.364962e+01	-1.925933e+02
6.400000e-07	-1.818472e-06	-2.838255e-09	-1.296421e+01	-1.876477e+02
6.500000e-07	-1.721585e-06	-2.761681e-09	-1.227349e+01	-1.826160e+02
6.600000e-07	-1.624004e-06	-2.685819e-09	-1.157782e+01	-1.774970e+02
6.700000e-07	-1.525720e-06	-2.608797e-09	-1.087714e+01	-1.722882e+02
6.800000e-07	-1.426771e-06	-2.527025e-09	-1.017171e+01	-1.669857e+02
6.900000e-07	-1.327358e-06	-2.438007e-09	-9.462972e+00	-1.615846e+02
7.000000e-07	-1.227593e-06	-2.350867e-09	-8.751732e+00	-1.560798e+02
7.100000e-07	-1.127482e-06	-2.268088e-09	-8.038022e+00	-1.504663e+02
7.200000e-07	-1.027071e-06	-2.183477e-09	-7.322172e+00	-1.447397e+02
7.300000e-07	-9.263671e-07	-2.094426e-09	-6.604239e+00	-1.388967e+02
7.400000e-07	-8.253707e-07	-2.001608e-09	-5.884217e+00	-1.329353e+02
7.500000e-07	-7.240668e-07	-1.907560e-09	-5.162003e+00	-1.268545e+02
7.600000e-07	-6.224718e-07	-1.812936e-09	-4.437714e+00	-1.206543e+02
7.700000e-07	-5.206336e-07	-1.716864e-09	-3.711691e+00	-1.143353e+02
7.800000e-07	-4.186466e-07	-1.618732e-09	-2.984608e+00	-1.078979e+02
7.900000e-07	-3.165570e-07	-1.518204e-09	-2.256792e+00	-1.013419e+02
8.000000e-07	-2.143858e-07	-1.416194e-09	-1.528395e+00	-9.466570e+01
8.100000e-07	-1.121479e-07	-1.315766e-09	-7.995230e-01	-8.786614e+01
8.200000e-07	-9.857175e-09	-1.215145e-09	-7.027358e-02	-8.093773e+01
8.300000e-07	9.245960e-08	-1.109089e-09	6.591612e-01	-7.387281e+01
8.400000e-07	1.947816e-07	-9.977462e-10	1.388633e+00	-6.666159e+01
8.500000e-07	2.970852e-07	-8.819075e-10	2.117974e+00	-5.929259e+01
8.600000e-07	3.992978e-07	-7.650522e-10	2.846666e+00	-5.175320e+01
8.700000e-07	5.014117e-07	-6.474609e-10	3.574655e+00	-4.403056e+01
8.800000e-07	6.034769e-07	-5.297717e-10	4.302296e+00	-3.611246e+01
8.900000e-07	7.053667e-07	-4.105780e-10	5.028687e+00	-2.798837e+01
9.000000e-07	8.069314e-07	-2.853845e-10	5.752760e+00	-1.965038e+01
9.100000e-07	9.081383e-07	-1.563162e-10	6.474282e+00	-1.109409e+01
9.200000e-07	1.008986e-06	-2.553539e-11	7.193247e+00	-2.319384e+00
9.300000e-07	1.109488e-06	1.104197e-10	7.909738e+00	6.669064e+00
9.400000e-07	1.209659e-06	2.538926e-10	8.623875e+00	1.586145e+01
9.500000e-07	1.309498e-06	3.994713e-10	9.335646e+00	2.524276e+01
9.600000e-07	1.408989e-06	5.456015e-10	1.004494e+01	3.479292e+01
9.700000e-07	1.508016e-06	6.920228e-10	1.075092e+01	4.448714e+01
9.800000e-07	1.606326e-06	8.402543e-10	1.145179e+01	5.429648e+01
9.900000e-07	1.703842e-06	9.905127e-10	1.214700e+01	6.418852e+01
1.000000e-06	1.800608e-06	1.144279e-09	1.283686e+01	7.412819e+01
1.010000e-06	1.896601e-06	1.299695e-09	1.352121e+01	8.407859e+01
1.020000e-06	1.991837e-06	1.452994e-09	1.420017e+01	9.400197e+01
1.030000e-06	2.086352e-06	1.603536e-09	1.487398e+01	1.038606e+02
1.040000e-06	2.180199e-06	1.751182e-09	1.554303e+01	1.136175e+02
1.050000e-06	2.273298e-06	1.896815e-09	1.620675e+01	1.232377e+02
1.060000e-06	2.365652e-06	2.039331e-09	1.686516e+01	1.326882e+02
1.070000e-06	2.457357e-06	2.177863e-09	1.751894e+01	1.419394e+02
1.080000e-06	2.548332e-06	2.312721e-09	1.816752e+01	1.509650e+02
1.090000e-06	2.638289e-06	2.445632e-09	1.880884e+01	1.597429e+02
1.100000e-06	2.727055e-06	2.576129e-09	1.944167e+01	1.682548e+02
1.110000e-06	2.814725e-06	2.700345e-09	2.006669e+01	1.764869e+02
1.120000e-06	2.901488e-06	2.818277e-09	2.068524e+01	1.844298e+02
1.130000e-06	2.987356e-06	2.933104e-09	2.129740e+01	1.920782e+02
1.140000e-06	3.072211e-06	3.047423e-09	2.190234e+01	1.994307e+02
1.150000e-06	3.156107e-06	3.157221e-09	2.250046e+01	2.064898e+02
1.160000e-06	3.239005e-06	3.259203e-09	2.309145e+01	2.132612e+02
1.170000e-06	3.320756e-06	3.355909e-09	2.367427e+01	2.197534e+02
1.180000e-06	3.401213e-06	3.447194e-09	2.424786e+01	2.259772e+02
1.190000e-06	3.480368e-06	3.535560e-09	2.481217e+01	2.319455e+02
1.200000e-06	3.558300e-06	3.622960e-09	2.536777e+01	2.376721e+02
1.210000e-06	3.635034e-06	3.708226e-09	2.591482e+01	2.431714e+02
1.220000e-06	3.710536e-06	3.791116e-09	2.645308e+01	2.484581e+02
1.230000e-06	3.784522e-06	3.869500e-09	2.698054e+01	2.535459e+02
1.240000e-06	3.856830e-06	3.944649e-09	2.749604e+01	2.584478e+02
1.250000e-06	3.927663e-06	4.017073e-09	2.800102e+01	2.631751e+02
1.260000e-06	3.997136e-06	4.085905e-09	2.849630e+01	2.677369e+02
1.270000e-06	4.065259e-06	4.153446e-09	2.898197e+01	2.721406e+02
1.280000e-06	4.132012e-06	4.217670e-09	2.945786e+01	2.763909e+02
1.290000e-06	4.197132e-06	4.276910e-09	2.992211e+01	2.804905e+02
1.300000e-06	4.260585e-06	4.333714e-09	3.037448e+01	2.844401e+02
1.310000e-06	4.322573e-06	4.390929e-09	3.081640e+01	2.882386e+02
1.320000e-06	4.383186e-06	4.446014e-09	3.124853e+01	2.918840e+02
1.330000e-06	4.442463e-06	4.496537e-09	3.167112e+01	2.953735e+02
1.340000e-06	4.500080e-06	4.544953e-09	3.208189e+01	2.987046e+02
1.350000e-06	4.555851e-06	4.593268e-09	3.247949e+01	3.018755e+02
1.360000e-06	4.609992e-06	4.638776e-09	3.286547e+01	3.048856e+02
1.370000e-06	4.662480e-06	4.678014e-09	3.323967e+01	3.077358e+02
1.380000e-06	4.713034e-06	4.713589e-09	3.360007e+01	3.104290e+02
1.390000e-06	4.761533e-06	4.748307e-09	3.394583e+01	3.129702e+02
1.400000e-06	4.808235e-06	4.781361e-09	3.427877e+01	3.153658e+02
1.410000e-06	4.853375e-06	4.812848e-09	3.460059e+01	3.176236e+02
1.420000e-06	4.897019e-06	4.843910e-09	3.491174e+01	3.197522e+02
1.430000e-06	4.938886e-06	4.874084e-09	3.521021e+01	3.217605e+02
1.440000e-06	4.978798e-06	4.901210e-09	3.549475e+01	3.236565e+02
1.450000e-06	5.017025e-06	4.926226e-09	3.576728e+01	3.254475e+02
1.460000e-06	5.053665e-06	4.951306e-09	3.602850e+01	3.271390e+02
1.470000e-06	5.088629e-06	4.976204e-09	3.627776e+01	3.287348e+02
1.480000e-06	5.121706e-06	4.997513e-09	3.651357e+01	3.302366e+02
1.490000e-06	5.152872e-06	5.015118e-09	3.673576e+01	3.316445e+02
1.500000e-06	5.182341e-06	5.031865e-09	3.694585e+01	3.329574e+02
1.510000e-06	5.210172e-06	5.048413e-09	3.714426e+01	3.341731e+02
1.520000e-06	5.235991e-06	5.064518e-09	3.732833e+01	3.352894e+02
1.530000e-06	5.259644e-06	5.079861e-09	3.749695e+01	3.363046e+02
1.540000e-06	5.281449e-06	5.093497e-09	3.765241e+01	3.372178e+02
1.550000e-06	5.301588e-06	5.104982e-09	3.779598e+01	3.380298e+02
1.560000e-06	5.319930e-06	5.116058e-09	3.792674e+01	3.387425e+02
1.570000e-06	5.336257e-06	5.128133e-09	3.804314e+01	3.393597e+02
1.580000e-06	5.350586e-06	5.138994e-09	3.814530e+01	3.398862e+02
1.590000e-06	5.362945e-06	5.145856e-09	3.823341e+01	3.403275e+02
1.600000e-06	5.373130e-06	5.150662e-09	3.830602e+01	3.406892e+02
1.610000e-06	5.381143e-06	5.155253e-09	3.836315e+01	3.409763e+02
1.620000e-06	5.387300e-06	5.159886e-09	3.840704e+01	3.411930e+02
1.630000e-06	5.391717e-06	5.164894e-09	3.843853e+01	3.413416e+02
1.640000e-06	5.394248e-06	5.168473e-09	3.845657e+01	3.414228e+02
1.650000e-06	5.394729e-06	5.170817e-09	3.846000e+01	3.414357e+02
1.660000e-06	5.393346e-06	5.169584e-09	3.845014e+01	3.413780e+02
1.670000e-06	5.390305e-06	5.164856e-09	3.842846e+01	3.412463e+02
1.680000e-06	5.385598e-06	5.163400e-09	3.839490e+01	3.410373e+02
1.690000e-06	5.379047e-06	5.161014e-09	3.834820e+01	3.407482e+02
1.700000e-06	5.370675e-06	5.156565e-09	3.828851e+01	3.403774e+02
1.710000e-06	5.360735e-06	5.151987e-09	3.821765e+01	3.399250e+02
1.720000e-06	5.349113e-06	5.149238e-09	3.813479e+01	3.393935e+02
1.730000e-06	5.335576e-06	5.149714e-09	3.803829e+01	3.387871e+02
1.740000e-06	5.319954e-06	5.097661e-09	3.792691e+01	3.381122e+02
1.750000e-06	5.301932e-06	5.067039e-09	3.779843e+01	3.373761e+02
1.760000e-06	5.281243e-06	5.079849e-09	3.765094e+01	3.365867e+02
1.770000e-06	5.258235e-06	5.079819e-09	3.748691e+01	3.357511e+02
1.780000e-06	5.233899e-06	5.149344e-09	3.731341e+01	3.348750e+02
1.790000e-06	5.208863e-06	5.091819e-09	3.713493e+01	3.339619e+02
1.800000e-06	5.182466e-06	4.969005e-09	3.694674e+01	3.330123e+02
1.810000e-06	5.153962e-06	5.055914e-09	3.674353e+01	3.320232e+02
1.820000e-06	5.123704e-06	5.001086e-09	3.652782e+01	3.309888e+02
1.830000e-06	5.091676e-06	4.955128e-09	3.629948e+01	3.299007e+02
1.840000e-06	5.057631e-06	5.074507e-09	3.605677e+01	3.287484e+02
1.850000e-06	5.021970e-06	4.966775e-09	3.580253e+01	3.275207e+02
1.860000e-06	4.984578e-06	4.941596e-09	3.553596e+01	3.262067e+02
1.870000e-06	4.945244e-06	5.012313e-09	3.525554e+01	3.247967e+02
1.880000e-06	4.904198e-06	4.890020e-09	3.496291e+01	3.232836e+02
1.890000e-06	4.861366e-06	4.915137e-09	3.465756e+01	3.216633e+02
1.900000e-06	4.816874e-06	4.894536e-09	3.434037e+01	3.199350e+02
1.910000e-06	4.770676e-06	4.804058e-09	3.401101e+01	3.181012e+02
1.920000e-06	4.722419e-06	4.865407e-09	3.366698e+01	3.161675e+02
1.930000e-06	4.672458e-06	4.782033e-09	3.331080e+01	3.141414e+02
1.940000e-06	4.620783e-06	4.764956e-09	3.294240e+01	3.120318e+02
1.950000e-06	4.567095e-06	4.765815e-09	3.255964e+01	3.098476e+02
1.960000e-06	4.511470e-06	4.662041e-09	3.216308e+01	3.075971e+02
1.970000e-06	4.454073e-06	4.647313e-09	3.175389e+01	3.052865e+02
1.980000e-06	4.395241e-06	4.629734e-09	3.133447e+01	3.029200e+02
1.990000e-06	4.334956e-06	4.632592e-09	3.090469e+01	3.004990e+02
2.000000e-06	4.273044e-06	4.556853e-09	3.046331e+01	2.980224e+02
2.010000e-06	4.209453e-06	4.480949e-09	3.000995e+01	2.954871e+02
2.020000e-06	4.144293e-06	4.489057e-09	2.954542e+01	2.928884e+02
2.030000e-06	4.077742e-06	4.402997e-09	2.907096e+01	2.902209e+02
2.040000e-06	4.009752e-06	4.388295e-09	2.858625e+01	2.874791e+02
2.050000e-06	3.940399e-06	4.378831e-09	2.809182e+01	2.846586e+02
2.060000e-06	3.869615e-06	4.322856e-09	2.758719e+01	2.817562e+02
2.070000e-06	3.797310e-06	4.270138e-09	2.707171e+01	2.787703e+02
2.080000e-06	3.723656e-06	4.189967e-09	2.654662e+01	2.757012e+02
2.090000e-06	3.648678e-06	4.178900e-09	2.601209e+01	2.725506e+02
2.100000e-06	3.572248e-06	4.126914e-09	2.546720e+01	2.693211e+02
2.110000e-06	3.494282e-06	4.053986e-09	2.491137e+01	2.660158e+02
2.120000e-06	3.414915e-06	4.009244e-09	2.434555e+01	2.626377e+02
2.130000e-06	3.334345e-06	3.965892e-09	2.377115e+01	2.591886e+02
2.140000e-06	3.252681e-06	3.922659e-09	2.318895e+01	2.556692e+02
2.150000e-06	3.169955e-06	3.859085e-09	2.259918e+01	2.520785e+02
2.160000e-06	3.086179e-06	3.816369e-09	2.200193e+01	2.484140e+02
2.170000e-06	3.001287e-06	3.748953e-09	2.139672e+01	2.446716e+02
2.180000e-06	2.915199e-06	3.682096e-09	2.078298e+01	2.408465e+02
2.190000e-06	2.827876e-06	3.637184e-09	2.016044e+01	2.369334e+02
2.200000e-06	2.739432e-06	3.590082e-09	1.952991e+01	2.329270e+02
2.210000e-06	2.650121e-06	3.528853e-09	1.889319e+01	2.288232e+02
2.220000e-06	2.559938e-06	3.443750e-09	1.825026e+01	2.246188e+02
2.230000e-06	2.468836e-06	3.375485e-09	1.760078e+01	2.203125e+02
2.240000e-06	2.376967e-06	3.313367e-09	1.694583e+01	2.159045e+02
2.250000e-06	2.284352e-06	3.253076e-09	1.628556e+01	2.113965e+02
2.260000e-06	2.190903e-06	3.191297e-09	1.561934e+01	2.067911e+02
2.270000e-06	2.096480e-06	3.120867e-09	1.494619e+01	2.020918e+02
2.280000e-06	2.001029e-06	3.040570e-09	1.426570e+01	1.973019e+02
2.290000e-06	1.904778e-06	2.958182e-09	1.357951e+01	1.924240e+02
2.300000e-06	1.807963e-06	2.886742e-09	1.288930e+01	1.874598e+02
2.310000e-06	1.710684e-06	2.816023e-09	1.219578e+01	1.824093e+02
2.320000e-06	1.612895e-06	2.736743e-09	1.149862e+01	1.772713e+02
2.330000e-06	1.514586e-06	2.648927e-09	1.079776e+01	1.720426e+02
2.340000e-06	1.415777e-06	2.570275e-09	1.009333e+01	1.667193e+02
2.350000e-06	1.316523e-06	2.496363e-09	9.385730e+00	1.612962e+02
2.360000e-06	1.216943e-06	2.416875e-09	8.675809e+00	1.557684e+02
2.370000e-06	1.117069e-06	2.329730e-09	7.963785e+00	1.501308e+02
2.380000e-06	1.016850e-06	2.234510e-09	7.249308e+00	1.443794e+02
2.390000e-06	9.162461e-07	2.141480e-09	6.532085e+00	1.385110e+02
2.400000e-06	8.152811e-07	2.052764e-09	5.812287e+00	1.325239e+02
2.410000e-06	7.140863e-07	1.964388e-09	5.090851e+00	1.264174e+02
2.420000e-06	6.126980e-07	1.870546e-09	4.368035e+00	1.201915e+02
2.430000e-06	5.110457e-07	1.768227e-09	3.643337e+00	1.138469e+02
2.440000e-06	4.091591e-07	1.666234e-09	2.916970e+00	1.073840e+02
2.450000e-06	3.070834e-07	1.572365e-09	2.189253e+00	1.008023e+02
2.460000e-06	2.048497e-07	1.477426e-09	1.460410e+00	9.409987e+01
2.470000e-06	1.024666e-07	1.374451e-09	7.305033e-01	8.727308e+01
2.480000e-06	-1.416161e-11	1.261415e-09	-1.009607e-04	8.031599e+01
2.490000e-06	-1.025108e-07	1.143055e-09	-7.308179e-01	7.322047e+01
2.500000e-06	-2.049496e-07	1.029195e-09	-1.461122e+00	6.597631e+01
2.510000e-06	-3.073248e-07	9.196409e-10	-2.190974e+00	5.857172e+01
2.520000e-06	-4.095665e-07	8.088202e-10	-2.919874e+00	5.099399e+01
2.530000e-06	-5.115938e-07	6.906238e-10	-3.647245e+00	4.323031e+01
2.540000e-06	-6.134106e-07	5.670303e-10	-4.373115e+00	3.526874e+01
2.550000e-06	-7.149700e-07	4.415545e-10	-5.097151e+00	2.709922e+01
2.560000e-06	-8.162620e-07	3.141617e-10	-5.819279e+00	1.871454e+01
2.570000e-06	-9.171949e-07	1.826958e-10	-6.538849e+00	1.011115e+01
2.580000e-06	-1.017717e-06	4.445365e-11	-7.255487e+00	1.289931e+00
2.590000e-06	-1.117845e-06	-9.829133e-11	-7.969321e+00	-7.743368e+00
2.600000e-06	-1.217573e-06	-2.413479e-10	-8.680298e+00	-1.697782e+01
2.610000e-06	-1.316921e-06	-3.819617e-10	-9.388571e+00	-2.639732e+01
2.620000e-06	-1.415880e-06	-5.252819e-10	-1.009407e+01	-3.598073e+01
2.630000e-06	-1.514350e-06	-6.748149e-10	-1.079607e+01	-4.570234e+01
2.640000e-06	-1.612231e-06	-8.246664e-10	-1.149389e+01	-5.553238e+01
2.650000e-06	-1.709547e-06	-9.736684e-10	-1.218767e+01	-6.543781e+01
2.660000e-06	-1.806331e-06	-1.122810e-09	-1.287766e+01	-7.538307e+01
2.670000e-06	-1.902564e-06	-1.272265e-09	-1.356372e+01	-8.533102e+01
2.680000e-06	-1.998226e-06	-1.422148e-09	-1.424572e+01	-9.524383e+01
2.690000e-06	-2.093161e-06	-1.572904e-09	-1.492253e+01	-1.050839e+02
2.700000e-06	-2.187110e-06	-1.723920e-09	-1.559230e+01	-1.148145e+02
2.710000e-06	-2.280039e-06	-1.871960e-09	-1.625481e+01	-1.244011e+02
2.720000e-06	-2.372061e-06	-2.015406e-09	-1.691085e+01	-1.338115e+02
2.730000e-06	-2.463314e-06	-2.156494e-09	-1.756141e+01	-1.430166e+02
2.740000e-06	-2.553713e-06	-2.295929e-09	-1.820588e+01	-1.519910e+02
2.750000e-06	-2.643149e-06	-2.430852e-09	-1.884349e+01	-1.607134e+02
2.760000e-06	-2.731724e-06	-2.559452e-09	-1.947495e+01	-1.691665e+02
2.770000e-06	-2.819550e-06	-2.682417e-09	-2.010108e+01	-1.773375e+02
2.780000e-06	-2.906469e-06	-2.801715e-09	-2.072074e+01	-1.852177e+02
2.790000e-06	-2.992177e-06	-2.917833e-09	-2.133177e+01	-1.928028e+02
2.800000e-06	-3.076668e-06	-3.032266e-09	-2.193412e+01	-2.000923e+02
2.810000e-06	-3.160106e-06	-3.144293e-09	-2.252897e+01	-2.070893e+02
2.820000e-06	-3.242585e-06	-3.250062e-09	-2.311698e+01	-2.138002e+02
2.830000e-06	-3.324034e-06	-3.348519e-09	-2.369764e+01	-2.202340e+02
2.840000e-06	-3.404443e-06	-3.441986e-09	-2.427089e+01	-2.264021e+02
2.850000e-06	-3.483637e-06	-3.531606e-09	-2.483548e+01	-2.323176e+02
2.860000e-06	-3.561290e-06	-3.617065e-09	-2.538908e+01	-2.379944e+02
2.870000e-06	-3.637436e-06	-3.697956e-09	-2.593194e+01	-2.434471e+02
2.880000e-06	-3.712184e-06	-3.775438e-09	-2.646483e+01	-2.486901e+02
2.890000e-06	-3.785529e-06	-3.851969e-09	-2.698772e+01	-2.537372e+02
2.900000e-06	-3.857543e-06	-3.928852e-09	-2.750112e+01	-2.586010e+02
2.910000e-06	-3.928122e-06	-4.003428e-09	-2.800429e+01	-2.632922e+02
2.920000e-06	-3.997130e-06	-4.074012e-09	-2.849626e+01	-2.678198e+02
2.930000e-06	-4.064736e-06	-4.141849e-09	-2.897824e+01	-2.721904e+02
2.940000e-06	-4.130985e-06	-4.206172e-09	-2.945054e+01	-2.764084e+02
