# Temperatura_=_38.6
# Concentracion g/m^3_=_15000.0
# C_Vs_to_Am_M_A/Vsm_=_65563218390.804596
# pendiente_HvsI_1/m_=_3716.3
# ordenada_HvsI_A/m_=_1297.0
# frecuencia_Hz_=_301578.61941644613

Tiempo_(s)	Campo_(V.s)	Magnetizacion_(V.s)	Campo_(kA/m)	Magnetizacion_(A/m)
0.000000e+00	-5.392033e-06	-4.926964e-09	-3.834357e+01	-3.215363e+02
1.000000e-08	-5.389310e-06	-4.929218e-09	-3.832421e+01	-3.214179e+02
2.000000e-08	-5.384800e-06	-4.924515e-09	-3.829214e+01	-3.212358e+02
3.000000e-08	-5.378663e-06	-4.917897e-09	-3.824850e+01	-3.209877e+02
4.000000e-08	-5.371010e-06	-4.908397e-09	-3.819408e+01	-3.206713e+02
5.000000e-08	-5.361491e-06	-4.896436e-09	-3.812638e+01	-3.202846e+02
6.000000e-08	-5.349873e-06	-4.886738e-09	-3.804377e+01	-3.198263e+02
7.000000e-08	-5.336378e-06	-4.871145e-09	-3.794780e+01	-3.192963e+02
8.000000e-08	-5.320742e-06	-4.873106e-09	-3.783661e+01	-3.186956e+02
9.000000e-08	-5.302875e-06	-4.928806e-09	-3.770956e+01	-3.180265e+02
1.000000e-07	-5.282990e-06	-4.915768e-09	-3.756815e+01	-3.172923e+02
1.100000e-07	-5.261159e-06	-4.858880e-09	-3.741291e+01	-3.164970e+02
1.200000e-07	-5.237663e-06	-4.833069e-09	-3.724582e+01	-3.156450e+02
1.300000e-07	-5.212603e-06	-4.723025e-09	-3.706762e+01	-3.147403e+02
1.400000e-07	-5.185904e-06	-4.758244e-09	-3.687776e+01	-3.137865e+02
1.500000e-07	-5.157650e-06	-4.888426e-09	-3.667684e+01	-3.127859e+02
1.600000e-07	-5.127938e-06	-4.732308e-09	-3.646555e+01	-3.117394e+02
1.700000e-07	-5.096616e-06	-4.751851e-09	-3.624282e+01	-3.106463e+02
1.800000e-07	-5.063095e-06	-4.788832e-09	-3.600445e+01	-3.095045e+02
1.900000e-07	-5.027722e-06	-4.613554e-09	-3.575290e+01	-3.083102e+02
2.000000e-07	-4.990913e-06	-4.735166e-09	-3.549115e+01	-3.070588e+02
2.100000e-07	-4.952337e-06	-4.760922e-09	-3.521683e+01	-3.057451e+02
2.200000e-07	-4.911970e-06	-4.618487e-09	-3.492977e+01	-3.043639e+02
2.300000e-07	-4.869638e-06	-4.650863e-09	-3.462874e+01	-3.029103e+02
2.400000e-07	-4.825408e-06	-4.607430e-09	-3.431421e+01	-3.013805e+02
2.500000e-07	-4.779418e-06	-4.557268e-09	-3.398717e+01	-2.997720e+02
2.600000e-07	-4.731459e-06	-4.571328e-09	-3.364613e+01	-2.980836e+02
2.700000e-07	-4.681405e-06	-4.510440e-09	-3.329019e+01	-2.963157e+02
2.800000e-07	-4.629318e-06	-4.493780e-09	-3.291979e+01	-2.944700e+02
2.900000e-07	-4.575412e-06	-4.468346e-09	-3.253646e+01	-2.925491e+02
3.000000e-07	-4.520001e-06	-4.443615e-09	-3.214242e+01	-2.905562e+02
3.100000e-07	-4.462865e-06	-4.424011e-09	-3.173612e+01	-2.884948e+02
3.200000e-07	-4.403829e-06	-4.387699e-09	-3.131630e+01	-2.863677e+02
3.300000e-07	-4.343219e-06	-4.334528e-09	-3.088530e+01	-2.841774e+02
3.400000e-07	-4.281142e-06	-4.260748e-09	-3.044386e+01	-2.819251e+02
3.500000e-07	-4.217771e-06	-4.273444e-09	-2.999321e+01	-2.796109e+02
3.600000e-07	-4.152900e-06	-4.257150e-09	-2.953191e+01	-2.772340e+02
3.700000e-07	-4.086253e-06	-4.195660e-09	-2.905797e+01	-2.747923e+02
3.800000e-07	-4.018055e-06	-4.163705e-09	-2.857300e+01	-2.722835e+02
3.900000e-07	-3.948501e-06	-4.106783e-09	-2.807840e+01	-2.697046e+02
4.000000e-07	-3.877764e-06	-4.063996e-09	-2.757538e+01	-2.670529e+02
4.100000e-07	-3.805825e-06	-4.030263e-09	-2.706380e+01	-2.643262e+02
4.200000e-07	-3.732337e-06	-4.000653e-09	-2.654122e+01	-2.615228e+02
4.300000e-07	-3.657222e-06	-3.956096e-09	-2.600707e+01	-2.586420e+02
4.400000e-07	-3.580666e-06	-3.891555e-09	-2.546266e+01	-2.556840e+02
4.500000e-07	-3.502641e-06	-3.841197e-09	-2.490782e+01	-2.526496e+02
4.600000e-07	-3.423153e-06	-3.801728e-09	-2.434257e+01	-2.495402e+02
4.700000e-07	-3.342459e-06	-3.762920e-09	-2.376874e+01	-2.463575e+02
4.800000e-07	-3.260630e-06	-3.706200e-09	-2.318684e+01	-2.431029e+02
4.900000e-07	-3.177647e-06	-3.653878e-09	-2.259673e+01	-2.397771e+02
5.000000e-07	-3.093689e-06	-3.609852e-09	-2.199970e+01	-2.363804e+02
5.100000e-07	-3.008788e-06	-3.554715e-09	-2.139595e+01	-2.329119e+02
5.200000e-07	-2.922949e-06	-3.496566e-09	-2.078554e+01	-2.293697e+02
5.300000e-07	-2.836104e-06	-3.431044e-09	-2.016797e+01	-2.257510e+02
5.400000e-07	-2.748285e-06	-3.362652e-09	-1.954348e+01	-2.220523e+02
5.500000e-07	-2.659480e-06	-3.303251e-09	-1.891197e+01	-2.182695e+02
5.600000e-07	-2.569392e-06	-3.251630e-09	-1.827134e+01	-2.143989e+02
5.700000e-07	-2.478220e-06	-3.203648e-09	-1.762300e+01	-2.104367e+02
5.800000e-07	-2.386327e-06	-3.141360e-09	-1.696953e+01	-2.063799e+02
5.900000e-07	-2.293645e-06	-3.069930e-09	-1.631046e+01	-2.022267e+02
6.000000e-07	-2.200112e-06	-2.997456e-09	-1.564534e+01	-1.979759e+02
6.100000e-07	-2.105807e-06	-2.928662e-09	-1.497472e+01	-1.936276e+02
6.200000e-07	-2.010794e-06	-2.864197e-09	-1.429906e+01	-1.891828e+02
6.300000e-07	-1.915155e-06	-2.797036e-09	-1.361896e+01	-1.846428e+02
6.400000e-07	-1.818841e-06	-2.725908e-09	-1.293405e+01	-1.800097e+02
6.500000e-07	-1.721729e-06	-2.650603e-09	-1.224348e+01	-1.752849e+02
6.600000e-07	-1.623761e-06	-2.575640e-09	-1.154681e+01	-1.704698e+02
6.700000e-07	-1.525085e-06	-2.501641e-09	-1.084511e+01	-1.655648e+02
6.800000e-07	-1.425882e-06	-2.428564e-09	-1.013967e+01	-1.605695e+02
6.900000e-07	-1.326301e-06	-2.349728e-09	-9.431529e+00	-1.554822e+02
7.000000e-07	-1.226407e-06	-2.267151e-09	-8.721169e+00	-1.503006e+02
7.100000e-07	-1.126117e-06	-2.185619e-09	-8.007994e+00	-1.450214e+02
7.200000e-07	-1.025477e-06	-2.103906e-09	-7.292321e+00	-1.396408e+02
7.300000e-07	-9.244971e-07	-2.020865e-09	-6.574240e+00	-1.341549e+02
7.400000e-07	-8.231821e-07	-1.933392e-09	-5.853774e+00	-1.285600e+02
7.500000e-07	-7.215701e-07	-1.843075e-09	-5.131196e+00	-1.228527e+02
7.600000e-07	-6.196937e-07	-1.753418e-09	-4.406737e+00	-1.170302e+02
7.700000e-07	-5.176604e-07	-1.664073e-09	-3.681162e+00	-1.110902e+02
7.800000e-07	-4.154926e-07	-1.573343e-09	-2.954631e+00	-1.050310e+02
7.900000e-07	-3.131931e-07	-1.479571e-09	-2.227164e+00	-9.885118e+01
8.000000e-07	-2.108160e-07	-1.380580e-09	-1.499145e+00	-9.254907e+01
8.100000e-07	-1.083612e-07	-1.281504e-09	-7.705734e-01	-8.612249e+01
8.200000e-07	-5.793802e-09	-1.186096e-09	-4.120062e-02	-7.956829e+01
8.300000e-07	9.683859e-08	-1.088387e-09	6.886340e-01	-7.288194e+01
8.400000e-07	1.994437e-07	-9.854867e-10	1.418275e+00	-6.605730e+01
8.500000e-07	3.019913e-07	-8.769988e-10	2.147507e+00	-5.908656e+01
8.600000e-07	4.045160e-07	-7.646135e-10	2.876575e+00	-5.196038e+01
8.700000e-07	5.069436e-07	-6.513282e-10	3.604953e+00	-4.466827e+01
8.800000e-07	6.091834e-07	-5.393785e-10	4.331996e+00	-3.719920e+01
8.900000e-07	7.112504e-07	-4.276039e-10	5.057811e+00	-2.954245e+01
9.000000e-07	8.130549e-07	-3.103141e-10	5.781758e+00	-2.168851e+01
9.100000e-07	9.145307e-07	-1.870769e-10	6.503368e+00	-1.363014e+01
9.200000e-07	1.015652e-06	-6.224156e-11	7.222457e+00	-5.363387e+00
9.300000e-07	1.116385e-06	6.459013e-11	7.938783e+00	3.111509e+00
9.400000e-07	1.216762e-06	1.976894e-10	8.652578e+00	1.178936e+01
9.500000e-07	1.316800e-06	3.341729e-10	9.363963e+00	2.065952e+01
9.600000e-07	1.416462e-06	4.721005e-10	1.007268e+01	2.970570e+01
9.700000e-07	1.515578e-06	6.110487e-10	1.077751e+01	3.890603e+01
9.800000e-07	1.614052e-06	7.511581e-10	1.147777e+01	4.823350e+01
9.900000e-07	1.711781e-06	8.927897e-10	1.217274e+01	5.765663e+01
1.000000e-06	1.808742e-06	1.037702e-09	1.286224e+01	6.714041e+01
1.010000e-06	1.904984e-06	1.187475e-09	1.354664e+01	7.664735e+01
1.020000e-06	2.000465e-06	1.336646e-09	1.422561e+01	8.613874e+01
1.030000e-06	2.095208e-06	1.482218e-09	1.489935e+01	9.557578e+01
1.040000e-06	2.189220e-06	1.623990e-09	1.556788e+01	1.049207e+02
1.050000e-06	2.282512e-06	1.761951e-09	1.623130e+01	1.141380e+02
1.060000e-06	2.375073e-06	1.897093e-09	1.688951e+01	1.231949e+02
1.070000e-06	2.466962e-06	2.028470e-09	1.754294e+01	1.320623e+02
1.080000e-06	2.558090e-06	2.158168e-09	1.819097e+01	1.407152e+02
1.090000e-06	2.648104e-06	2.285051e-09	1.883107e+01	1.491328e+02
1.100000e-06	2.736982e-06	2.409460e-09	1.946310e+01	1.572988e+02
1.110000e-06	2.824892e-06	2.529380e-09	2.008824e+01	1.652009e+02
1.120000e-06	2.911856e-06	2.645030e-09	2.070666e+01	1.728311e+02
1.130000e-06	2.997877e-06	2.760179e-09	2.131836e+01	1.801849e+02
1.140000e-06	3.082878e-06	2.873629e-09	2.192282e+01	1.872613e+02
1.150000e-06	3.166890e-06	2.978800e-09	2.252024e+01	1.940624e+02
1.160000e-06	3.249942e-06	3.075002e-09	2.311083e+01	2.005928e+02
1.170000e-06	3.331882e-06	3.166738e-09	2.369352e+01	2.068594e+02
1.180000e-06	3.412564e-06	3.254625e-09	2.426726e+01	2.128710e+02
1.190000e-06	3.491955e-06	3.341010e-09	2.483182e+01	2.186378e+02
1.200000e-06	3.570068e-06	3.426056e-09	2.538730e+01	2.241712e+02
1.210000e-06	3.646961e-06	3.509708e-09	2.593410e+01	2.294832e+02
1.220000e-06	3.722597e-06	3.590814e-09	2.647195e+01	2.345860e+02
1.230000e-06	3.796715e-06	3.668280e-09	2.699902e+01	2.394918e+02
1.240000e-06	3.869205e-06	3.741319e-09	2.751451e+01	2.442118e+02
1.250000e-06	3.940204e-06	3.809899e-09	2.801940e+01	2.487567e+02
1.260000e-06	4.009793e-06	3.873441e-09	2.851425e+01	2.531354e+02
1.270000e-06	4.078061e-06	3.935872e-09	2.899972e+01	2.573553e+02
1.280000e-06	4.144938e-06	3.997324e-09	2.947529e+01	2.614220e+02
1.290000e-06	4.210173e-06	4.055172e-09	2.993918e+01	2.653394e+02
1.300000e-06	4.273769e-06	4.109164e-09	3.039143e+01	2.691094e+02
1.310000e-06	4.335887e-06	4.161779e-09	3.083316e+01	2.727325e+02
1.320000e-06	4.396621e-06	4.216363e-09	3.126505e+01	2.762079e+02
1.330000e-06	4.456001e-06	4.268227e-09	3.168730e+01	2.795342e+02
1.340000e-06	4.513759e-06	4.315087e-09	3.209803e+01	2.827097e+02
1.350000e-06	4.569687e-06	4.359394e-09	3.249575e+01	2.857328e+02
1.360000e-06	4.623945e-06	4.401844e-09	3.288158e+01	2.886029e+02
1.370000e-06	4.676554e-06	4.440640e-09	3.325569e+01	2.913203e+02
1.380000e-06	4.727207e-06	4.474252e-09	3.361589e+01	2.938868e+02
1.390000e-06	4.775760e-06	4.506434e-09	3.396116e+01	2.963054e+02
1.400000e-06	4.822461e-06	4.538015e-09	3.429326e+01	2.985810e+02
1.410000e-06	4.867605e-06	4.569207e-09	3.461429e+01	3.007194e+02
1.420000e-06	4.911299e-06	4.600693e-09	3.492500e+01	3.027275e+02
1.430000e-06	4.953180e-06	4.630482e-09	3.522282e+01	3.046127e+02
1.440000e-06	4.993128e-06	4.656178e-09	3.550690e+01	3.063822e+02
1.450000e-06	5.031404e-06	4.678378e-09	3.577909e+01	3.080431e+02
1.460000e-06	5.068090e-06	4.698711e-09	3.603996e+01	3.096015e+02
1.470000e-06	5.103041e-06	4.718895e-09	3.628850e+01	3.110623e+02
1.480000e-06	5.136030e-06	4.738512e-09	3.652309e+01	3.124293e+02
1.490000e-06	5.167151e-06	4.756043e-09	3.674440e+01	3.137048e+02
1.500000e-06	5.196569e-06	4.772581e-09	3.695359e+01	3.148900e+02
1.510000e-06	5.224319e-06	4.789249e-09	3.715093e+01	3.159853e+02
1.520000e-06	5.250149e-06	4.805805e-09	3.733461e+01	3.169903e+02
1.530000e-06	5.273899e-06	4.820936e-09	3.750350e+01	3.179047e+02
1.540000e-06	5.295746e-06	4.834917e-09	3.765886e+01	3.187284e+02
1.550000e-06	5.315876e-06	4.846239e-09	3.780200e+01	3.194617e+02
1.560000e-06	5.334202e-06	4.854941e-09	3.793232e+01	3.201060e+02
1.570000e-06	5.350482e-06	4.863383e-09	3.804809e+01	3.206634e+02
1.580000e-06	5.364784e-06	4.871832e-09	3.814980e+01	3.211370e+02
1.590000e-06	5.377126e-06	4.878967e-09	3.823757e+01	3.215307e+02
1.600000e-06	5.387221e-06	4.884379e-09	3.830935e+01	3.218485e+02
1.610000e-06	5.395171e-06	4.889247e-09	3.836589e+01	3.220949e+02
1.620000e-06	5.401264e-06	4.894751e-09	3.840921e+01	3.222738e+02
1.630000e-06	5.405587e-06	4.900628e-09	3.843995e+01	3.223883e+02
1.640000e-06	5.408033e-06	4.905070e-09	3.845735e+01	3.224407e+02
1.650000e-06	5.408406e-06	4.908746e-09	3.846000e+01	3.224320e+02
1.660000e-06	5.406924e-06	4.904855e-09	3.844947e+01	3.223623e+02
1.670000e-06	5.403810e-06	4.896521e-09	3.842732e+01	3.222302e+02
1.680000e-06	5.399101e-06	4.894081e-09	3.839383e+01	3.220340e+02
1.690000e-06	5.392495e-06	4.891626e-09	3.834686e+01	3.217713e+02
1.700000e-06	5.383982e-06	4.888513e-09	3.828632e+01	3.214398e+02
1.710000e-06	5.373932e-06	4.886118e-09	3.821485e+01	3.210376e+02
1.720000e-06	5.362214e-06	4.887809e-09	3.813153e+01	3.205637e+02
1.730000e-06	5.348532e-06	4.894368e-09	3.803423e+01	3.200183e+02
1.740000e-06	5.332748e-06	4.808092e-09	3.792199e+01	3.194026e+02
1.750000e-06	5.314623e-06	4.786079e-09	3.779310e+01	3.187190e+02
1.760000e-06	5.293809e-06	4.820873e-09	3.764509e+01	3.179712e+02
1.770000e-06	5.270647e-06	4.821504e-09	3.748038e+01	3.171632e+02
1.780000e-06	5.246197e-06	4.937202e-09	3.730651e+01	3.162994e+02
1.790000e-06	5.221102e-06	4.819862e-09	3.712806e+01	3.153837e+02
1.800000e-06	5.194584e-06	4.679991e-09	3.693948e+01	3.144196e+02
1.810000e-06	5.165841e-06	4.835232e-09	3.673509e+01	3.134089e+02
1.820000e-06	5.135342e-06	4.709175e-09	3.651821e+01	3.123523e+02
1.830000e-06	5.103104e-06	4.692251e-09	3.628896e+01	3.112489e+02
1.840000e-06	5.068841e-06	4.847628e-09	3.604530e+01	3.100960e+02
1.850000e-06	5.033064e-06	4.616798e-09	3.579089e+01	3.088897e+02
1.860000e-06	4.995460e-06	4.637479e-09	3.552348e+01	3.076252e+02
1.870000e-06	4.955860e-06	4.725836e-09	3.524188e+01	3.062973e+02
1.880000e-06	4.914659e-06	4.559106e-09	3.494889e+01	3.049008e+02
1.890000e-06	4.871620e-06	4.666507e-09	3.464284e+01	3.034309e+02
1.900000e-06	4.827011e-06	4.606278e-09	3.432561e+01	3.018843e+02
1.910000e-06	4.780644e-06	4.530823e-09	3.399589e+01	3.002585e+02
1.920000e-06	4.732118e-06	4.602776e-09	3.365081e+01	2.985528e+02
1.930000e-06	4.681984e-06	4.437979e-09	3.329430e+01	2.967679e+02
1.940000e-06	4.630164e-06	4.508484e-09	3.292580e+01	2.949056e+02
1.950000e-06	4.576233e-06	4.497171e-09	3.254229e+01	2.929688e+02
1.960000e-06	4.520339e-06	4.378417e-09	3.214482e+01	2.909608e+02
1.970000e-06	4.462779e-06	4.401816e-09	3.173551e+01	2.888849e+02
1.980000e-06	4.403802e-06	4.351168e-09	3.131611e+01	2.867440e+02
1.990000e-06	4.343397e-06	4.389611e-09	3.088656e+01	2.845401e+02
2.000000e-06	4.281336e-06	4.280057e-09	3.044523e+01	2.822744e+02
2.010000e-06	4.217578e-06	4.226016e-09	2.999184e+01	2.799467e+02
2.020000e-06	4.152284e-06	4.264178e-09	2.952753e+01	2.775559e+02
2.030000e-06	4.085564e-06	4.145561e-09	2.905307e+01	2.750999e+02
2.040000e-06	4.017467e-06	4.169060e-09	2.856882e+01	2.725761e+02
2.050000e-06	3.947859e-06	4.135729e-09	2.807383e+01	2.699817e+02
2.060000e-06	3.876644e-06	4.086594e-09	2.756741e+01	2.673139e+02
2.070000e-06	3.804073e-06	4.027700e-09	2.705134e+01	2.645707e+02
2.080000e-06	3.730274e-06	3.942498e-09	2.652655e+01	2.617505e+02
2.090000e-06	3.655135e-06	3.969201e-09	2.599223e+01	2.588530e+02
2.100000e-06	3.578592e-06	3.911973e-09	2.544792e+01	2.558783e+02
2.110000e-06	3.500365e-06	3.859090e-09	2.489163e+01	2.528276e+02
2.120000e-06	3.420660e-06	3.800865e-09	2.432484e+01	2.497022e+02
2.130000e-06	3.339932e-06	3.754330e-09	2.375077e+01	2.465038e+02
2.140000e-06	3.258052e-06	3.711113e-09	2.316851e+01	2.432336e+02
2.150000e-06	3.175038e-06	3.646316e-09	2.257818e+01	2.398925e+02
2.160000e-06	3.091045e-06	3.620331e-09	2.198089e+01	2.364804e+02
2.170000e-06	3.005964e-06	3.557001e-09	2.137587e+01	2.329961e+02
2.180000e-06	2.919535e-06	3.506584e-09	2.076126e+01	2.294376e+02
2.190000e-06	2.831865e-06	3.453041e-09	2.013783e+01	2.258019e+02
2.200000e-06	2.743307e-06	3.405796e-09	1.950807e+01	2.220853e+02
2.210000e-06	2.653845e-06	3.350051e-09	1.887190e+01	2.182839e+02
2.220000e-06	2.563393e-06	3.268235e-09	1.822868e+01	2.143937e+02
2.230000e-06	2.472011e-06	3.207110e-09	1.757885e+01	2.104113e+02
2.240000e-06	2.379893e-06	3.148767e-09	1.692378e+01	2.063338e+02
2.250000e-06	2.287119e-06	3.101756e-09	1.626405e+01	2.021595e+02
2.260000e-06	2.193529e-06	3.043386e-09	1.559852e+01	1.978876e+02
2.270000e-06	2.098856e-06	2.972681e-09	1.492529e+01	1.935184e+02
2.280000e-06	2.003120e-06	2.894620e-09	1.424449e+01	1.890528e+02
2.290000e-06	1.906719e-06	2.821716e-09	1.355897e+01	1.844926e+02
2.300000e-06	1.809776e-06	2.758110e-09	1.286959e+01	1.798395e+02
2.310000e-06	1.712292e-06	2.694785e-09	1.217637e+01	1.750951e+02
2.320000e-06	1.614246e-06	2.622583e-09	1.147915e+01	1.702606e+02
2.330000e-06	1.515632e-06	2.536247e-09	1.077789e+01	1.653361e+02
2.340000e-06	1.416516e-06	2.457151e-09	1.007306e+01	1.603210e+02
2.350000e-06	1.316932e-06	2.381844e-09	9.364905e+00	1.552136e+02
2.360000e-06	1.216979e-06	2.309832e-09	8.654124e+00	1.500112e+02
2.370000e-06	1.116839e-06	2.233073e-09	7.942013e+00	1.447104e+02
2.380000e-06	1.016470e-06	2.145611e-09	7.228275e+00	1.393074e+02
2.390000e-06	9.157255e-07	2.059231e-09	6.511864e+00	1.337983e+02
2.400000e-06	8.146297e-07	1.976447e-09	5.792957e+00	1.281794e+02
2.410000e-06	7.131817e-07	1.891370e-09	5.071544e+00	1.224474e+02
2.420000e-06	6.114863e-07	1.801353e-09	4.348373e+00	1.165997e+02
2.430000e-06	5.095448e-07	1.705870e-09	3.623451e+00	1.106341e+02
2.440000e-06	4.072731e-07	1.613268e-09	2.896181e+00	1.045491e+02
2.450000e-06	3.047469e-07	1.527087e-09	2.167102e+00	9.834300e+01
2.460000e-06	2.020796e-07	1.435223e-09	1.437019e+00	9.201425e+01
2.470000e-06	9.931295e-08	1.336097e-09	7.062296e-01	8.556045e+01
2.480000e-06	-3.552605e-09	1.229395e-09	-2.526312e-02	7.897818e+01
2.490000e-06	-1.064425e-07	1.118852e-09	-7.569291e-01	7.226259e+01
2.500000e-06	-2.093165e-07	1.013111e-09	-1.488482e+00	6.540718e+01
2.510000e-06	-3.121001e-07	9.111953e-10	-2.219391e+00	5.840379e+01
2.520000e-06	-4.146839e-07	8.062747e-10	-2.948881e+00	5.124278e+01
2.530000e-06	-5.170503e-07	6.920346e-10	-3.676824e+00	4.391350e+01
2.540000e-06	-6.192112e-07	5.731867e-10	-4.403305e+00	3.640492e+01
2.550000e-06	-7.211195e-07	4.555878e-10	-5.127991e+00	2.870647e+01
2.560000e-06	-8.226334e-07	3.366819e-10	-5.849872e+00	2.080906e+01
2.570000e-06	-9.237730e-07	2.122814e-10	-6.569091e+00	1.270606e+01
2.580000e-06	-1.024574e-06	8.346990e-11	-7.285900e+00	4.394342e+00
2.590000e-06	-1.125024e-06	-4.857201e-11	-8.000215e+00	-4.124840e+00
2.600000e-06	-1.225132e-06	-1.835717e-10	-8.712102e+00	-1.284517e+01
2.610000e-06	-1.324807e-06	-3.189027e-10	-9.420903e+00	-2.175479e+01
2.620000e-06	-1.423955e-06	-4.570270e-10	-1.012596e+01	-3.083621e+01
2.630000e-06	-1.522611e-06	-5.981034e-10	-1.082752e+01	-4.006640e+01
2.640000e-06	-1.620764e-06	-7.401202e-10	-1.152550e+01	-4.941733e+01
2.650000e-06	-1.718255e-06	-8.830166e-10	-1.221877e+01	-5.885669e+01
2.660000e-06	-1.815145e-06	-1.026143e-09	-1.290777e+01	-6.834882e+01
2.670000e-06	-1.911592e-06	-1.170646e-09	-1.359362e+01	-7.785589e+01
2.680000e-06	-2.007515e-06	-1.315984e-09	-1.427575e+01	-8.733906e+01
2.690000e-06	-2.102656e-06	-1.460912e-09	-1.495231e+01	-9.675966e+01
2.700000e-06	-2.196791e-06	-1.604085e-09	-1.562172e+01	-1.060803e+02
2.710000e-06	-2.289937e-06	-1.745727e-09	-1.628409e+01	-1.152661e+02
2.720000e-06	-2.382257e-06	-1.884293e-09	-1.694059e+01	-1.242848e+02
2.730000e-06	-2.473745e-06	-2.019130e-09	-1.759118e+01	-1.331084e+02
2.740000e-06	-2.564330e-06	-2.151107e-09	-1.823535e+01	-1.417127e+02
2.750000e-06	-2.653981e-06	-2.279950e-09	-1.887286e+01	-1.500778e+02
2.760000e-06	-2.742789e-06	-2.404843e-09	-1.950439e+01	-1.581883e+02
2.770000e-06	-2.830820e-06	-2.523552e-09	-2.013039e+01	-1.660329e+02
2.780000e-06	-2.917875e-06	-2.637189e-09	-2.074946e+01	-1.736042e+02
2.790000e-06	-3.003797e-06	-2.748272e-09	-2.136046e+01	-1.808988e+02
2.800000e-06	-3.088551e-06	-2.858084e-09	-2.196316e+01	-1.879161e+02
2.810000e-06	-3.172170e-06	-2.964933e-09	-2.255779e+01	-1.946589e+02
2.820000e-06	-3.254764e-06	-3.064910e-09	-2.314513e+01	-2.011323e+02
2.830000e-06	-3.336319e-06	-3.158594e-09	-2.372508e+01	-2.073436e+02
2.840000e-06	-3.416777e-06	-3.248308e-09	-2.429723e+01	-2.133020e+02
2.850000e-06	-3.496034e-06	-3.333737e-09	-2.486083e+01	-2.190180e+02
2.860000e-06	-3.573851e-06	-3.416487e-09	-2.541420e+01	-2.245032e+02
2.870000e-06	-3.650151e-06	-3.495643e-09	-2.595678e+01	-2.297695e+02
2.880000e-06	-3.725042e-06	-3.571949e-09	-2.648934e+01	-2.348292e+02
2.890000e-06	-3.798585e-06	-3.646706e-09	-2.701232e+01	-2.396944e+02
2.900000e-06	-3.870755e-06	-3.719836e-09	-2.752553e+01	-2.443763e+02
2.910000e-06	-3.941478e-06	-3.790065e-09	-2.802845e+01	-2.488850e+02
2.920000e-06	-4.010644e-06	-3.855872e-09	-2.852030e+01	-2.532293e+02
2.930000e-06	-4.078320e-06	-3.919576e-09	-2.900156e+01	-2.574162e+02
2.940000e-06	-4.144611e-06	-3.982142e-09	-2.947297e+01	-2.614508e+02
