# Temperatura_=_64.22
# Concentracion g/m^3_=_15000.0
# C_Vs_to_Am_M_A/Vsm_=_65563218390.804596
# pendiente_HvsI_1/m_=_3716.3
# ordenada_HvsI_A/m_=_1297.0
# frecuencia_Hz_=_301577.6769150051

Tiempo_(s)	Campo_(V.s)	Magnetizacion_(V.s)	Campo_(kA/m)	Magnetizacion_(A/m)
0.000000e+00	-5.402170e-06	-5.704713e-09	-3.834027e+01	-3.725816e+02
1.000000e-08	-5.399647e-06	-5.708247e-09	-3.832236e+01	-3.724490e+02
2.000000e-08	-5.395296e-06	-5.702945e-09	-3.829148e+01	-3.722383e+02
3.000000e-08	-5.389320e-06	-5.696791e-09	-3.824906e+01	-3.719458e+02
4.000000e-08	-5.381756e-06	-5.689259e-09	-3.819538e+01	-3.715681e+02
5.000000e-08	-5.372420e-06	-5.677716e-09	-3.812912e+01	-3.711023e+02
6.000000e-08	-5.361015e-06	-5.665557e-09	-3.804818e+01	-3.705472e+02
7.000000e-08	-5.347689e-06	-5.642755e-09	-3.795361e+01	-3.699034e+02
8.000000e-08	-5.332267e-06	-5.631045e-09	-3.784415e+01	-3.691738e+02
9.000000e-08	-5.314594e-06	-5.709096e-09	-3.771872e+01	-3.683630e+02
1.000000e-07	-5.294919e-06	-5.712722e-09	-3.757908e+01	-3.674775e+02
1.100000e-07	-5.273339e-06	-5.645154e-09	-3.742592e+01	-3.665246e+02
1.200000e-07	-5.249967e-06	-5.634438e-09	-3.726006e+01	-3.655114e+02
1.300000e-07	-5.224956e-06	-5.481724e-09	-3.708254e+01	-3.644442e+02
1.400000e-07	-5.198342e-06	-5.461179e-09	-3.689366e+01	-3.633271e+02
1.500000e-07	-5.170190e-06	-5.678934e-09	-3.669386e+01	-3.621617e+02
1.600000e-07	-5.140621e-06	-5.483168e-09	-3.648400e+01	-3.609465e+02
1.700000e-07	-5.109495e-06	-5.479256e-09	-3.626310e+01	-3.596768e+02
1.800000e-07	-5.076271e-06	-5.600982e-09	-3.602729e+01	-3.583451e+02
1.900000e-07	-5.041077e-06	-5.326567e-09	-3.577751e+01	-3.569418e+02
2.000000e-07	-5.004454e-06	-5.436156e-09	-3.551760e+01	-3.554561e+02
2.100000e-07	-4.966088e-06	-5.530023e-09	-3.524531e+01	-3.538771e+02
2.200000e-07	-4.925855e-06	-5.332945e-09	-3.495977e+01	-3.521951e+02
2.300000e-07	-4.883662e-06	-5.358508e-09	-3.466031e+01	-3.504025e+02
2.400000e-07	-4.839497e-06	-5.319733e-09	-3.434687e+01	-3.484943e+02
2.500000e-07	-4.793612e-06	-5.253022e-09	-3.402121e+01	-3.464691e+02
2.600000e-07	-4.745804e-06	-5.309764e-09	-3.368191e+01	-3.443287e+02
2.700000e-07	-4.695855e-06	-5.212251e-09	-3.332741e+01	-3.420776e+02
2.800000e-07	-4.643821e-06	-5.175511e-09	-3.295811e+01	-3.397230e+02
2.900000e-07	-4.589993e-06	-5.141783e-09	-3.257609e+01	-3.372730e+02
3.000000e-07	-4.534637e-06	-5.080330e-09	-3.218322e+01	-3.347364e+02
3.100000e-07	-4.477631e-06	-5.084473e-09	-3.177863e+01	-3.321209e+02
3.200000e-07	-4.418762e-06	-5.087576e-09	-3.136082e+01	-3.294330e+02
3.300000e-07	-4.358226e-06	-5.021159e-09	-3.093119e+01	-3.266770e+02
3.400000e-07	-4.296226e-06	-4.883969e-09	-3.049117e+01	-3.238546e+02
3.500000e-07	-4.232897e-06	-4.880687e-09	-3.004170e+01	-3.209654e+02
3.600000e-07	-4.168026e-06	-4.880603e-09	-2.958130e+01	-3.180069e+02
3.700000e-07	-4.101390e-06	-4.813444e-09	-2.910837e+01	-3.149755e+02
3.800000e-07	-4.033185e-06	-4.782601e-09	-2.862431e+01	-3.118667e+02
3.900000e-07	-3.963675e-06	-4.715919e-09	-2.813099e+01	-3.086765e+02
4.000000e-07	-3.892923e-06	-4.649198e-09	-2.762884e+01	-3.054013e+02
4.100000e-07	-3.820898e-06	-4.595279e-09	-2.711767e+01	-3.020394e+02
4.200000e-07	-3.747440e-06	-4.560696e-09	-2.659632e+01	-2.985901e+02
4.300000e-07	-3.672410e-06	-4.525561e-09	-2.606382e+01	-2.950547e+02
4.400000e-07	-3.595910e-06	-4.442033e-09	-2.552088e+01	-2.914353e+02
4.500000e-07	-3.517994e-06	-4.368343e-09	-2.496790e+01	-2.877350e+02
4.600000e-07	-3.438581e-06	-4.321021e-09	-2.440429e+01	-2.839568e+02
4.700000e-07	-3.357816e-06	-4.288982e-09	-2.383109e+01	-2.801033e+02
4.800000e-07	-3.275905e-06	-4.230590e-09	-2.324974e+01	-2.761759e+02
4.900000e-07	-3.192859e-06	-4.147264e-09	-2.266035e+01	-2.721746e+02
5.000000e-07	-3.108843e-06	-4.086409e-09	-2.206407e+01	-2.680976e+02
5.100000e-07	-3.023908e-06	-4.022542e-09	-2.146127e+01	-2.639417e+02
5.200000e-07	-2.938001e-06	-3.962407e-09	-2.085157e+01	-2.597022e+02
5.300000e-07	-2.851107e-06	-3.900856e-09	-2.023487e+01	-2.553738e+02
5.400000e-07	-2.763265e-06	-3.824523e-09	-1.961144e+01	-2.509508e+02
5.500000e-07	-2.674432e-06	-3.742252e-09	-1.898097e+01	-2.464282e+02
5.600000e-07	-2.584393e-06	-3.661758e-09	-1.834195e+01	-2.418015e+02
5.700000e-07	-2.493272e-06	-3.601867e-09	-1.769524e+01	-2.370680e+02
5.800000e-07	-2.401330e-06	-3.543334e-09	-1.704271e+01	-2.322262e+02
5.900000e-07	-2.308593e-06	-3.469618e-09	-1.638454e+01	-2.272762e+02
6.000000e-07	-2.215051e-06	-3.377507e-09	-1.572065e+01	-2.222195e+02
6.100000e-07	-2.120667e-06	-3.292560e-09	-1.505079e+01	-2.170583e+02
6.200000e-07	-2.025572e-06	-3.216976e-09	-1.437589e+01	-2.117954e+02
6.300000e-07	-1.929835e-06	-3.136378e-09	-1.369642e+01	-2.064332e+02
6.400000e-07	-1.833300e-06	-3.055074e-09	-1.301130e+01	-2.009739e+02
6.500000e-07	-1.735907e-06	-2.969270e-09	-1.232008e+01	-1.954183e+02
6.600000e-07	-1.637719e-06	-2.880109e-09	-1.162321e+01	-1.897663e+02
6.700000e-07	-1.538934e-06	-2.787986e-09	-1.092212e+01	-1.840167e+02
6.800000e-07	-1.439682e-06	-2.702912e-09	-1.021771e+01	-1.781670e+02
6.900000e-07	-1.340044e-06	-2.617735e-09	-9.510558e+00	-1.722140e+02
7.000000e-07	-1.240008e-06	-2.523515e-09	-8.800584e+00	-1.661543e+02
7.100000e-07	-1.139518e-06	-2.422459e-09	-8.087383e+00	-1.599843e+02
7.200000e-07	-1.038694e-06	-2.324396e-09	-7.371813e+00	-1.537006e+02
7.300000e-07	-9.375632e-07	-2.230669e-09	-6.654071e+00	-1.473004e+02
7.400000e-07	-8.361086e-07	-2.133124e-09	-5.934027e+00	-1.407813e+02
7.500000e-07	-7.343324e-07	-2.031217e-09	-5.211702e+00	-1.341412e+02
7.600000e-07	-6.322875e-07	-1.924844e-09	-4.487469e+00	-1.273784e+02
7.700000e-07	-5.300205e-07	-1.816345e-09	-3.761660e+00	-1.204907e+02
7.800000e-07	-4.275758e-07	-1.707651e-09	-3.034590e+00	-1.134754e+02
7.900000e-07	-3.250011e-07	-1.602106e-09	-2.306597e+00	-1.063285e+02
8.000000e-07	-2.223378e-07	-1.494211e-09	-1.577975e+00	-9.904471e+01
8.100000e-07	-1.196162e-07	-1.381466e-09	-8.489395e-01	-9.161698e+01
8.200000e-07	-1.679875e-08	-1.266922e-09	-1.192240e-01	-8.403662e+01
8.300000e-07	8.608018e-08	-1.149946e-09	6.109280e-01	-7.629335e+01
8.400000e-07	1.889491e-07	-1.032042e-09	1.341009e+00	-6.837569e+01
8.500000e-07	2.917479e-07	-9.111808e-10	2.070592e+00	-6.027150e+01
8.600000e-07	3.944669e-07	-7.840008e-10	2.799609e+00	-5.196863e+01
8.700000e-07	4.970699e-07	-6.480666e-10	3.527803e+00	-4.345571e+01
8.800000e-07	5.995346e-07	-5.122910e-10	4.255016e+00	-3.472289e+01
8.900000e-07	7.018344e-07	-3.777245e-10	4.981057e+00	-2.576269e+01
9.000000e-07	8.038830e-07	-2.382078e-10	5.705316e+00	-1.657064e+01
9.100000e-07	9.056093e-07	-9.523496e-11	6.427288e+00	-7.145965e+00
9.200000e-07	1.006970e-06	5.189399e-11	7.146665e+00	2.507956e+00
9.300000e-07	1.107931e-06	2.039333e-10	7.863206e+00	1.238323e+01
9.400000e-07	1.208533e-06	3.600855e-10	8.577199e+00	2.246725e+01
9.500000e-07	1.308802e-06	5.178536e-10	9.288828e+00	3.274259e+01
9.600000e-07	1.408661e-06	6.782567e-10	9.997547e+00	4.318711e+01
9.700000e-07	1.508026e-06	8.411299e-10	1.070276e+01	5.377416e+01
9.800000e-07	1.606845e-06	1.007013e-09	1.140409e+01	6.447296e+01
9.900000e-07	1.705002e-06	1.173219e-09	1.210073e+01	7.524905e+01
1.000000e-06	1.802278e-06	1.339046e-09	1.279112e+01	8.606497e+01
1.010000e-06	1.898700e-06	1.505333e-09	1.347545e+01	9.688100e+01
1.020000e-06	1.994369e-06	1.671797e-09	1.415443e+01	1.076561e+02
1.030000e-06	2.089317e-06	1.837231e-09	1.482829e+01	1.183488e+02
1.040000e-06	2.183620e-06	1.999539e-09	1.549758e+01	1.289184e+02
1.050000e-06	2.277179e-06	2.158224e-09	1.616159e+01	1.393260e+02
1.060000e-06	2.369943e-06	2.312779e-09	1.681995e+01	1.495352e+02
1.070000e-06	2.462006e-06	2.463091e-09	1.747334e+01	1.595137e+02
1.080000e-06	2.553370e-06	2.612553e-09	1.812177e+01	1.692335e+02
1.090000e-06	2.643800e-06	2.760332e-09	1.876357e+01	1.786714e+02
1.100000e-06	2.732993e-06	2.903122e-09	1.939659e+01	1.878101e+02
1.110000e-06	2.821045e-06	3.035345e-09	2.002151e+01	1.966371e+02
1.120000e-06	2.908177e-06	3.161505e-09	2.063990e+01	2.051456e+02
1.130000e-06	2.994386e-06	3.284572e-09	2.125174e+01	2.133332e+02
1.140000e-06	3.079572e-06	3.405760e-09	2.185633e+01	2.212019e+02
1.150000e-06	3.163831e-06	3.522381e-09	2.245434e+01	2.287569e+02
1.160000e-06	3.247249e-06	3.631234e-09	2.304637e+01	2.360064e+02
1.170000e-06	3.329504e-06	3.734632e-09	2.363014e+01	2.429603e+02
1.180000e-06	3.410472e-06	3.833215e-09	2.420479e+01	2.496298e+02
1.190000e-06	3.490206e-06	3.930687e-09	2.477068e+01	2.560269e+02
1.200000e-06	3.568655e-06	4.026531e-09	2.532745e+01	2.621639e+02
1.210000e-06	3.645865e-06	4.118910e-09	2.587543e+01	2.680532e+02
1.220000e-06	3.721803e-06	4.204174e-09	2.641437e+01	2.737070e+02
1.230000e-06	3.796190e-06	4.284254e-09	2.694231e+01	2.791372e+02
1.240000e-06	3.868907e-06	4.361228e-09	2.745840e+01	2.843556e+02
1.250000e-06	3.940149e-06	4.437506e-09	2.796401e+01	2.893735e+02
1.260000e-06	4.010024e-06	4.511977e-09	2.845993e+01	2.942017e+02
1.270000e-06	4.078553e-06	4.584121e-09	2.894629e+01	2.988503e+02
1.280000e-06	4.145715e-06	4.653536e-09	2.942296e+01	3.033286e+02
1.290000e-06	4.211274e-06	4.720630e-09	2.988824e+01	3.076445e+02
1.300000e-06	4.275126e-06	4.783506e-09	3.034142e+01	3.118044e+02
1.310000e-06	4.337499e-06	4.842264e-09	3.078409e+01	3.158131e+02
1.320000e-06	4.398512e-06	4.899107e-09	3.121711e+01	3.196737e+02
1.330000e-06	4.458197e-06	4.952504e-09	3.164070e+01	3.233873e+02
1.340000e-06	4.516293e-06	5.003546e-09	3.205302e+01	3.269535e+02
1.350000e-06	4.572526e-06	5.054133e-09	3.245212e+01	3.303709e+02
1.360000e-06	4.627034e-06	5.103852e-09	3.283897e+01	3.336372e+02
1.370000e-06	4.679907e-06	5.149922e-09	3.321422e+01	3.367502e+02
1.380000e-06	4.730859e-06	5.191754e-09	3.357584e+01	3.397081e+02
1.390000e-06	4.779727e-06	5.232232e-09	3.392267e+01	3.425102e+02
1.400000e-06	4.826778e-06	5.271098e-09	3.425659e+01	3.451576e+02
1.410000e-06	4.872191e-06	5.306747e-09	3.457890e+01	3.476530e+02
1.420000e-06	4.916077e-06	5.339242e-09	3.489037e+01	3.500010e+02
1.430000e-06	4.958226e-06	5.369093e-09	3.518951e+01	3.522076e+02
1.440000e-06	4.998458e-06	5.397150e-09	3.547505e+01	3.542804e+02
1.450000e-06	5.036969e-06	5.424244e-09	3.574837e+01	3.562271e+02
1.460000e-06	5.073889e-06	5.450146e-09	3.601039e+01	3.580557e+02
1.470000e-06	5.109181e-06	5.475478e-09	3.626086e+01	3.597733e+02
1.480000e-06	5.142502e-06	5.499220e-09	3.649735e+01	3.613855e+02
1.490000e-06	5.173860e-06	5.520050e-09	3.671991e+01	3.628966e+02
1.500000e-06	5.203533e-06	5.539024e-09	3.693050e+01	3.643086e+02
1.510000e-06	5.231540e-06	5.557031e-09	3.712927e+01	3.656221e+02
1.520000e-06	5.257572e-06	5.573857e-09	3.731403e+01	3.668363e+02
1.530000e-06	5.281528e-06	5.589128e-09	3.748405e+01	3.679493e+02
1.540000e-06	5.303637e-06	5.602942e-09	3.764096e+01	3.689591e+02
1.550000e-06	5.324003e-06	5.615125e-09	3.778550e+01	3.698642e+02
1.560000e-06	5.342590e-06	5.626789e-09	3.791742e+01	3.706639e+02
1.570000e-06	5.359173e-06	5.639295e-09	3.803511e+01	3.713590e+02
1.580000e-06	5.373719e-06	5.651925e-09	3.813835e+01	3.719517e+02
1.590000e-06	5.386286e-06	5.662351e-09	3.822753e+01	3.724458e+02
1.600000e-06	5.396665e-06	5.669646e-09	3.830120e+01	3.728461e+02
1.610000e-06	5.404865e-06	5.673796e-09	3.835939e+01	3.731579e+02
1.620000e-06	5.411139e-06	5.676688e-09	3.840392e+01	3.733866e+02
1.630000e-06	5.415650e-06	5.680312e-09	3.843593e+01	3.735365e+02
1.640000e-06	5.418360e-06	5.682786e-09	3.845517e+01	3.736110e+02
1.650000e-06	5.419041e-06	5.685646e-09	3.846000e+01	3.736117e+02
1.660000e-06	5.417790e-06	5.682345e-09	3.845113e+01	3.735384e+02
1.670000e-06	5.414871e-06	5.673625e-09	3.843041e+01	3.733892e+02
1.680000e-06	5.410341e-06	5.672897e-09	3.839826e+01	3.731610e+02
1.690000e-06	5.403883e-06	5.669445e-09	3.835242e+01	3.728504e+02
1.700000e-06	5.395584e-06	5.663602e-09	3.829353e+01	3.724538e+02
1.710000e-06	5.385757e-06	5.659347e-09	3.822378e+01	3.719687e+02
1.720000e-06	5.374229e-06	5.662082e-09	3.814196e+01	3.713943e+02
1.730000e-06	5.360707e-06	5.685182e-09	3.804599e+01	3.707317e+02
1.740000e-06	5.345092e-06	5.578519e-09	3.793517e+01	3.699839e+02
1.750000e-06	5.327164e-06	5.526973e-09	3.780793e+01	3.691564e+02
1.760000e-06	5.306559e-06	5.569921e-09	3.766170e+01	3.682556e+02
1.770000e-06	5.283538e-06	5.543662e-09	3.749831e+01	3.672890e+02
1.780000e-06	5.259091e-06	5.710166e-09	3.732481e+01	3.662636e+02
1.790000e-06	5.234040e-06	5.626849e-09	3.714701e+01	3.651852e+02
1.800000e-06	5.207743e-06	5.383447e-09	3.696038e+01	3.640576e+02
1.810000e-06	5.179135e-06	5.615488e-09	3.675734e+01	3.628816e+02
1.820000e-06	5.148597e-06	5.464080e-09	3.654061e+01	3.616550e+02
1.830000e-06	5.116500e-06	5.336609e-09	3.631281e+01	3.603725e+02
1.840000e-06	5.082433e-06	5.643309e-09	3.607103e+01	3.590262e+02
1.850000e-06	5.046708e-06	5.381867e-09	3.581748e+01	3.576060e+02
1.860000e-06	5.009253e-06	5.307880e-09	3.555166e+01	3.561010e+02
1.870000e-06	4.969826e-06	5.497246e-09	3.527183e+01	3.545005e+02
1.880000e-06	4.928825e-06	5.277867e-09	3.498084e+01	3.527952e+02
1.890000e-06	4.886042e-06	5.384691e-09	3.467720e+01	3.509779e+02
1.900000e-06	4.841540e-06	5.339285e-09	3.436137e+01	3.490445e+02
1.910000e-06	4.795238e-06	5.190543e-09	3.403275e+01	3.469941e+02
1.920000e-06	4.746788e-06	5.347010e-09	3.368889e+01	3.448293e+02
1.930000e-06	4.696706e-06	5.112744e-09	3.333345e+01	3.425552e+02
1.940000e-06	4.644962e-06	5.167668e-09	3.296621e+01	3.401793e+02
1.950000e-06	4.591194e-06	5.248555e-09	3.258461e+01	3.377098e+02
1.960000e-06	4.535511e-06	5.042305e-09	3.218941e+01	3.351555e+02
1.970000e-06	4.478049e-06	5.028750e-09	3.178160e+01	3.325238e+02
1.980000e-06	4.419080e-06	4.961248e-09	3.136308e+01	3.298208e+02
1.990000e-06	4.358638e-06	5.042927e-09	3.093411e+01	3.270503e+02
2.000000e-06	4.296437e-06	4.962035e-09	3.049266e+01	3.242135e+02
2.010000e-06	4.232593e-06	4.831581e-09	3.003955e+01	3.213096e+02
2.020000e-06	4.167295e-06	4.896021e-09	2.957612e+01	3.183356e+02
2.030000e-06	4.100580e-06	4.735234e-09	2.910263e+01	3.152878e+02
2.040000e-06	4.032496e-06	4.713658e-09	2.861942e+01	3.121617e+02
2.050000e-06	3.962894e-06	4.708528e-09	2.812544e+01	3.089533e+02
2.060000e-06	3.891711e-06	4.684951e-09	2.762024e+01	3.056595e+02
2.070000e-06	3.819190e-06	4.635178e-09	2.710554e+01	3.022786e+02
2.080000e-06	3.745437e-06	4.476528e-09	2.658210e+01	2.988106e+02
2.090000e-06	3.670276e-06	4.496547e-09	2.604868e+01	2.952567e+02
2.100000e-06	3.593643e-06	4.452723e-09	2.550479e+01	2.916196e+02
2.110000e-06	3.515376e-06	4.391400e-09	2.494932e+01	2.879021e+02
2.120000e-06	3.435714e-06	4.309347e-09	2.438394e+01	2.841074e+02
2.130000e-06	3.354991e-06	4.240038e-09	2.381103e+01	2.802379e+02
2.140000e-06	3.273092e-06	4.212992e-09	2.322978e+01	2.762945e+02
2.150000e-06	3.190112e-06	4.118970e-09	2.264086e+01	2.722770e+02
2.160000e-06	3.106134e-06	4.093402e-09	2.204485e+01	2.681832e+02
2.170000e-06	3.020980e-06	4.031017e-09	2.144049e+01	2.640096e+02
2.180000e-06	2.934439e-06	3.953217e-09	2.082629e+01	2.597514e+02
2.190000e-06	2.846736e-06	3.873313e-09	2.020385e+01	2.554029e+02
2.200000e-06	2.758090e-06	3.815261e-09	1.957471e+01	2.509589e+02
2.210000e-06	2.668526e-06	3.784134e-09	1.893906e+01	2.464140e+02
2.220000e-06	2.578087e-06	3.697086e-09	1.829719e+01	2.417645e+02
2.230000e-06	2.486786e-06	3.598385e-09	1.764921e+01	2.370076e+02
2.240000e-06	2.394715e-06	3.507937e-09	1.699577e+01	2.321424e+02
2.250000e-06	2.301771e-06	3.455491e-09	1.633613e+01	2.271692e+02
2.260000e-06	2.207859e-06	3.392064e-09	1.566961e+01	2.220897e+02
2.270000e-06	2.112987e-06	3.320952e-09	1.499629e+01	2.169063e+02
2.280000e-06	2.017242e-06	3.241495e-09	1.431677e+01	2.116217e+02
2.290000e-06	1.920773e-06	3.145906e-09	1.363211e+01	2.062384e+02
2.300000e-06	1.823673e-06	3.054293e-09	1.294297e+01	2.007582e+02
2.310000e-06	1.726066e-06	2.972583e-09	1.225023e+01	1.951818e+02
2.320000e-06	1.627914e-06	2.903124e-09	1.155362e+01	1.895089e+02
2.330000e-06	1.529213e-06	2.811241e-09	1.085312e+01	1.837379e+02
2.340000e-06	1.430072e-06	2.707565e-09	1.014950e+01	1.778661e+02
2.350000e-06	1.330488e-06	2.611521e-09	9.442732e+00	1.718904e+02
2.360000e-06	1.230587e-06	2.532762e-09	8.733718e+00	1.658072e+02
2.370000e-06	1.130493e-06	2.449958e-09	8.023335e+00	1.596129e+02
2.380000e-06	1.030106e-06	2.349529e-09	7.310863e+00	1.533043e+02
2.390000e-06	9.291971e-07	2.242265e-09	6.594695e+00	1.468786e+02
2.400000e-06	8.276953e-07	2.137852e-09	5.874317e+00	1.403335e+02
2.410000e-06	7.257702e-07	2.040382e-09	5.150934e+00	1.336671e+02
2.420000e-06	6.236432e-07	1.942326e-09	4.426119e+00	1.268775e+02
2.430000e-06	5.212506e-07	1.840402e-09	3.699418e+00	1.199626e+02
2.440000e-06	4.185832e-07	1.731014e-09	2.970767e+00	1.129193e+02
2.450000e-06	3.157902e-07	1.618539e-09	2.241225e+00	1.057433e+02
2.460000e-06	2.129145e-07	1.505753e-09	1.511096e+00	9.842916e+01
2.470000e-06	1.099157e-07	1.397027e-09	7.800937e-01	9.096933e+01
2.480000e-06	6.826191e-09	1.284496e-09	4.844682e-02	8.335478e+01
2.490000e-06	-9.626509e-08	1.157888e-09	-6.832124e-01	7.557495e+01
2.500000e-06	-1.993750e-07	1.025471e-09	-1.415004e+00	6.761816e+01
2.510000e-06	-3.024258e-07	8.988387e-10	-2.146375e+00	5.947222e+01
2.520000e-06	-4.053102e-07	7.787902e-10	-2.876566e+00	5.112507e+01
2.530000e-06	-5.080558e-07	6.541853e-10	-3.605772e+00	4.256560e+01
2.540000e-06	-6.106191e-07	5.226581e-10	-4.333684e+00	3.378440e+01
2.550000e-06	-7.128771e-07	3.861928e-10	-5.059429e+00	2.477459e+01
2.560000e-06	-8.148098e-07	2.435428e-10	-5.782866e+00	1.553243e+01
2.570000e-06	-9.162866e-07	9.622183e-11	-6.503067e+00	6.058014e+00
2.580000e-06	-1.017233e-06	-5.077449e-11	-7.219507e+00	-3.644352e+00
2.590000e-06	-1.117729e-06	-1.976882e-10	-7.932745e+00	-1.356577e+01
2.600000e-06	-1.217813e-06	-3.515101e-10	-8.643060e+00	-2.369261e+01
2.610000e-06	-1.317453e-06	-5.108361e-10	-9.350226e+00	-3.400641e+01
2.620000e-06	-1.416691e-06	-6.697677e-10	-1.005454e+01	-4.448405e+01
2.630000e-06	-1.515507e-06	-8.278084e-10	-1.075585e+01	-5.509796e+01
2.640000e-06	-1.613788e-06	-9.881489e-10	-1.145337e+01	-6.581652e+01
2.650000e-06	-1.711506e-06	-1.151470e-09	-1.214689e+01	-7.660458e+01
2.660000e-06	-1.808632e-06	-1.315807e-09	-1.283622e+01	-8.742411e+01
2.670000e-06	-1.905173e-06	-1.481392e-09	-1.352139e+01	-9.823505e+01
2.680000e-06	-2.001174e-06	-1.645186e-09	-1.420273e+01	-1.089962e+02
2.690000e-06	-2.096544e-06	-1.804193e-09	-1.487959e+01	-1.196661e+02
2.700000e-06	-2.191094e-06	-1.960647e-09	-1.555063e+01	-1.302044e+02
2.710000e-06	-2.284643e-06	-2.119190e-09	-1.621456e+01	-1.405725e+02
2.720000e-06	-2.377150e-06	-2.276908e-09	-1.687110e+01	-1.507351e+02
2.730000e-06	-2.468772e-06	-2.427746e-09	-1.752136e+01	-1.606605e+02
2.740000e-06	-2.559612e-06	-2.572184e-09	-1.816607e+01	-1.703218e+02
2.750000e-06	-2.649585e-06	-2.713719e-09	-1.880463e+01	-1.796972e+02
2.760000e-06	-2.738610e-06	-2.852435e-09	-1.943646e+01	-1.887701e+02
2.770000e-06	-2.826778e-06	-2.986722e-09	-2.006220e+01	-1.975295e+02
2.780000e-06	-2.914115e-06	-3.116509e-09	-2.068205e+01	-2.059694e+02
2.790000e-06	-3.000367e-06	-3.239545e-09	-2.129420e+01	-2.140886e+02
2.800000e-06	-3.085337e-06	-3.357879e-09	-2.189725e+01	-2.218896e+02
2.810000e-06	-3.169176e-06	-3.474654e-09	-2.249227e+01	-2.293787e+02
2.820000e-06	-3.252011e-06	-3.587164e-09	-2.308016e+01	-2.365641e+02
2.830000e-06	-3.333797e-06	-3.694571e-09	-2.366061e+01	-2.434562e+02
2.840000e-06	-3.414502e-06	-3.797347e-09	-2.423339e+01	-2.500665e+02
2.850000e-06	-3.494063e-06	-3.895081e-09	-2.479805e+01	-2.564071e+02
2.860000e-06	-3.572259e-06	-3.988159e-09	-2.535303e+01	-2.624902e+02
2.870000e-06	-3.648874e-06	-4.076371e-09	-2.589678e+01	-2.683281e+02
2.880000e-06	-3.724024e-06	-4.160680e-09	-2.643014e+01	-2.739332e+02
2.890000e-06	-3.797789e-06	-4.242321e-09	-2.695366e+01	-2.793172e+02
2.900000e-06	-3.870241e-06	-4.321597e-09	-2.746786e+01	-2.844919e+02
2.910000e-06	-3.941395e-06	-4.397401e-09	-2.797286e+01	-2.894685e+02
2.920000e-06	-4.010891e-06	-4.469954e-09	-2.846609e+01	-2.942576e+02
2.930000e-06	-4.078792e-06	-4.541465e-09	-2.894799e+01	-2.988691e+02
2.940000e-06	-4.145327e-06	-4.612047e-09	-2.942021e+01	-3.033122e+02
