# Temperatura_=_34.0
# Concentracion g/m^3_=_15000.0
# C_Vs_to_Am_M_A/Vsm_=_65563218390.804596
# pendiente_HvsI_1/m_=_3716.3
# ordenada_HvsI_A/m_=_1297.0
# frecuencia_Hz_=_301581.1511744984

Tiempo_(s)	Campo_(V.s)	Magnetizacion_(V.s)	Campo_(kA/m)	Magnetizacion_(A/m)
0.000000e+00	-5.383032e-06	-4.782723e-09	-3.833933e+01	-3.117261e+02
1.000000e-08	-5.380048e-06	-4.781401e-09	-3.831808e+01	-3.116429e+02
2.000000e-08	-5.375287e-06	-4.777300e-09	-3.828417e+01	-3.115042e+02
3.000000e-08	-5.368953e-06	-4.772069e-09	-3.823906e+01	-3.113083e+02
4.000000e-08	-5.361080e-06	-4.766375e-09	-3.818299e+01	-3.110526e+02
5.000000e-08	-5.351294e-06	-4.760621e-09	-3.811329e+01	-3.107338e+02
6.000000e-08	-5.339472e-06	-4.758733e-09	-3.802909e+01	-3.103485e+02
7.000000e-08	-5.325789e-06	-4.759236e-09	-3.793164e+01	-3.098937e+02
8.000000e-08	-5.309947e-06	-4.754351e-09	-3.781880e+01	-3.093675e+02
9.000000e-08	-5.291843e-06	-4.759607e-09	-3.768987e+01	-3.087689e+02
1.000000e-07	-5.271734e-06	-4.753063e-09	-3.754664e+01	-3.080982e+02
1.100000e-07	-5.249738e-06	-4.717721e-09	-3.738998e+01	-3.073573e+02
1.200000e-07	-5.226080e-06	-4.687727e-09	-3.722149e+01	-3.065490e+02
1.300000e-07	-5.200926e-06	-4.661981e-09	-3.704233e+01	-3.056766e+02
1.400000e-07	-5.174152e-06	-4.646548e-09	-3.685164e+01	-3.047441e+02
1.500000e-07	-5.145739e-06	-4.686107e-09	-3.664927e+01	-3.037550e+02
1.600000e-07	-5.115842e-06	-4.663178e-09	-3.643634e+01	-3.027122e+02
1.700000e-07	-5.084318e-06	-4.622564e-09	-3.621182e+01	-3.016172e+02
1.800000e-07	-5.050703e-06	-4.623151e-09	-3.597241e+01	-3.004707e+02
1.900000e-07	-5.015247e-06	-4.566116e-09	-3.571988e+01	-2.992716e+02
2.000000e-07	-4.978266e-06	-4.556436e-09	-3.545649e+01	-2.980177e+02
2.100000e-07	-4.939564e-06	-4.564265e-09	-3.518084e+01	-2.967058e+02
2.200000e-07	-4.899055e-06	-4.522932e-09	-3.489233e+01	-2.953322e+02
2.300000e-07	-4.856526e-06	-4.527784e-09	-3.458943e+01	-2.938931e+02
2.400000e-07	-4.812139e-06	-4.509700e-09	-3.427329e+01	-2.923852e+02
2.500000e-07	-4.766010e-06	-4.442435e-09	-3.394474e+01	-2.908060e+02
2.600000e-07	-4.717887e-06	-4.417247e-09	-3.360200e+01	-2.891541e+02
2.700000e-07	-4.667748e-06	-4.376711e-09	-3.324490e+01	-2.874292e+02
2.800000e-07	-4.615607e-06	-4.359392e-09	-3.287354e+01	-2.856327e+02
2.900000e-07	-4.561614e-06	-4.365107e-09	-3.248899e+01	-2.837664e+02
3.000000e-07	-4.506053e-06	-4.337967e-09	-3.209327e+01	-2.818331e+02
3.100000e-07	-4.448762e-06	-4.288170e-09	-3.168523e+01	-2.798359e+02
3.200000e-07	-4.389604e-06	-4.236180e-09	-3.126389e+01	-2.777776e+02
3.300000e-07	-4.328966e-06	-4.203738e-09	-3.083201e+01	-2.756602e+02
3.400000e-07	-4.266915e-06	-4.169858e-09	-3.039006e+01	-2.734851e+02
3.500000e-07	-4.203443e-06	-4.144648e-09	-2.993800e+01	-2.712524e+02
3.600000e-07	-4.138442e-06	-4.120951e-09	-2.947505e+01	-2.689611e+02
3.700000e-07	-4.071680e-06	-4.082539e-09	-2.899955e+01	-2.666094e+02
3.800000e-07	-4.003406e-06	-4.045165e-09	-2.851328e+01	-2.641947e+02
3.900000e-07	-3.933811e-06	-3.996408e-09	-2.801762e+01	-2.617142e+02
4.000000e-07	-3.862993e-06	-3.950393e-09	-2.751323e+01	-2.591648e+02
4.100000e-07	-3.790968e-06	-3.912240e-09	-2.700025e+01	-2.565444e+02
4.200000e-07	-3.717518e-06	-3.864053e-09	-2.647712e+01	-2.538510e+02
4.300000e-07	-3.642396e-06	-3.830287e-09	-2.594208e+01	-2.510839e+02
4.400000e-07	-3.565671e-06	-3.801005e-09	-2.539563e+01	-2.482430e+02
4.500000e-07	-3.487597e-06	-3.755586e-09	-2.483956e+01	-2.453292e+02
4.600000e-07	-3.408158e-06	-3.695781e-09	-2.427378e+01	-2.423436e+02
4.700000e-07	-3.327396e-06	-3.635872e-09	-2.369857e+01	-2.392877e+02
4.800000e-07	-3.245524e-06	-3.591693e-09	-2.311546e+01	-2.361627e+02
4.900000e-07	-3.162561e-06	-3.553920e-09	-2.252458e+01	-2.329693e+02
5.000000e-07	-3.078584e-06	-3.510993e-09	-2.192646e+01	-2.297072e+02
5.100000e-07	-2.993711e-06	-3.454976e-09	-2.132198e+01	-2.263754e+02
5.200000e-07	-2.907890e-06	-3.391175e-09	-2.071074e+01	-2.229718e+02
5.300000e-07	-2.821038e-06	-3.323698e-09	-2.009216e+01	-2.194932e+02
5.400000e-07	-2.733135e-06	-3.265214e-09	-1.946609e+01	-2.159362e+02
5.500000e-07	-2.644272e-06	-3.217201e-09	-1.883318e+01	-2.122968e+02
5.600000e-07	-2.554352e-06	-3.165613e-09	-1.819275e+01	-2.085712e+02
5.700000e-07	-2.463276e-06	-3.109379e-09	-1.754408e+01	-2.047561e+02
5.800000e-07	-2.371314e-06	-3.048085e-09	-1.688911e+01	-2.008488e+02
5.900000e-07	-2.278628e-06	-2.987167e-09	-1.622897e+01	-1.968479e+02
6.000000e-07	-2.185109e-06	-2.921590e-09	-1.556291e+01	-1.927528e+02
6.100000e-07	-2.090860e-06	-2.851100e-09	-1.489164e+01	-1.885640e+02
6.200000e-07	-1.995894e-06	-2.782743e-09	-1.421527e+01	-1.842826e+02
6.300000e-07	-1.900175e-06	-2.716280e-09	-1.353354e+01	-1.799104e+02
6.400000e-07	-1.803777e-06	-2.650516e-09	-1.284697e+01	-1.754492e+02
6.500000e-07	-1.706747e-06	-2.584458e-09	-1.215589e+01	-1.709006e+02
6.600000e-07	-1.608994e-06	-2.514305e-09	-1.145967e+01	-1.662655e+02
6.700000e-07	-1.510482e-06	-2.437014e-09	-1.075804e+01	-1.615439e+02
6.800000e-07	-1.411344e-06	-2.359732e-09	-1.005195e+01	-1.567349e+02
6.900000e-07	-1.311692e-06	-2.285282e-09	-9.342207e+00	-1.518365e+02
7.000000e-07	-1.211686e-06	-2.211514e-09	-8.629941e+00	-1.468458e+02
7.100000e-07	-1.111427e-06	-2.133507e-09	-7.915870e+00	-1.417591e+02
7.200000e-07	-1.010903e-06	-2.049686e-09	-7.199914e+00	-1.365722e+02
7.300000e-07	-9.100500e-07	-1.963810e-09	-6.481610e+00	-1.312809e+02
7.400000e-07	-8.088606e-07	-1.880138e-09	-5.760913e+00	-1.258810e+02
7.500000e-07	-7.073060e-07	-1.798583e-09	-5.037615e+00	-1.203686e+02
7.600000e-07	-6.054774e-07	-1.713728e-09	-4.312366e+00	-1.147403e+02
7.700000e-07	-5.034876e-07	-1.624003e-09	-3.585968e+00	-1.089933e+02
7.800000e-07	-4.013681e-07	-1.532611e-09	-2.858647e+00	-1.031250e+02
7.900000e-07	-2.991697e-07	-1.441738e-09	-2.130763e+00	-9.713304e+01
8.000000e-07	-1.968731e-07	-1.348920e-09	-1.402181e+00	-9.101495e+01
8.100000e-07	-9.447558e-08	-1.253827e-09	-6.728794e-01	-8.476784e+01
8.200000e-07	7.973074e-09	-1.157363e-09	5.678628e-02	-7.838806e+01
8.300000e-07	1.104202e-07	-1.059198e-09	7.864414e-01	-7.187102e+01
8.400000e-07	2.128888e-07	-9.589458e-10	1.516248e+00	-6.521099e+01
8.500000e-07	3.153419e-07	-8.571750e-10	2.245946e+00	-5.840113e+01
8.600000e-07	4.176771e-07	-7.519704e-10	2.974804e+00	-5.143361e+01
8.700000e-07	5.199058e-07	-6.414437e-10	3.702903e+00	-4.429998e+01
8.800000e-07	6.219950e-07	-5.294861e-10	4.430009e+00	-3.699160e+01
8.900000e-07	7.238878e-07	-4.176312e-10	5.155715e+00	-2.950028e+01
9.000000e-07	8.254954e-07	-3.045492e-10	5.879391e+00	-2.181893e+01
9.100000e-07	9.267657e-07	-1.871742e-10	6.600663e+00	-1.394241e+01
9.200000e-07	1.027721e-06	-6.553651e-11	7.319694e+00	-5.868222e+00
9.300000e-07	1.128295e-06	5.903625e-11	8.036007e+00	2.402736e+00
9.400000e-07	1.228545e-06	1.870556e-10	8.750012e+00	1.086555e+01
9.500000e-07	1.328532e-06	3.160500e-10	9.462143e+00	1.951082e+01
9.600000e-07	1.428057e-06	4.473644e-10	1.017099e+01	2.832433e+01
9.700000e-07	1.526949e-06	5.833515e-10	1.087532e+01	3.728698e+01
9.800000e-07	1.625146e-06	7.233575e-10	1.157470e+01	4.637489e+01
9.900000e-07	1.722572e-06	8.650821e-10	1.226860e+01	5.555976e+01
1.000000e-06	1.819236e-06	1.007229e-09	1.295707e+01	6.480944e+01
1.010000e-06	1.915141e-06	1.150714e-09	1.364013e+01	7.408869e+01
1.020000e-06	2.010317e-06	1.295542e-09	1.431799e+01	8.336012e+01
1.030000e-06	2.104813e-06	1.438303e-09	1.499102e+01	9.258527e+01
1.040000e-06	2.198622e-06	1.577193e-09	1.565915e+01	1.017257e+02
1.050000e-06	2.291666e-06	1.712913e-09	1.632183e+01	1.107442e+02
1.060000e-06	2.383977e-06	1.845431e-09	1.697929e+01	1.196057e+02
1.070000e-06	2.475660e-06	1.973618e-09	1.763229e+01	1.282786e+02
1.080000e-06	2.566541e-06	2.099783e-09	1.827957e+01	1.367353e+02
1.090000e-06	2.656297e-06	2.225551e-09	1.891883e+01	1.449528e+02
1.100000e-06	2.744878e-06	2.350999e-09	1.954973e+01	1.529136e+02
1.110000e-06	2.832487e-06	2.469833e-09	2.017370e+01	1.606049e+02
1.120000e-06	2.919234e-06	2.580944e-09	2.079154e+01	1.680196e+02
1.130000e-06	3.005014e-06	2.689793e-09	2.140248e+01	1.751550e+02
1.140000e-06	3.089793e-06	2.797974e-09	2.200630e+01	1.820129e+02
1.150000e-06	3.173655e-06	2.900630e-09	2.260359e+01	1.885984e+02
1.160000e-06	3.256472e-06	2.995673e-09	2.319343e+01	1.949197e+02
1.170000e-06	3.338076e-06	3.087292e-09	2.377464e+01	2.009868e+02
1.180000e-06	3.418402e-06	3.175720e-09	2.434674e+01	2.068108e+02
1.190000e-06	3.497452e-06	3.261316e-09	2.490975e+01	2.124034e+02
1.200000e-06	3.575275e-06	3.343662e-09	2.546403e+01	2.177761e+02
1.210000e-06	3.651873e-06	3.423416e-09	2.600958e+01	2.229396e+02
1.220000e-06	3.727130e-06	3.501525e-09	2.654558e+01	2.279039e+02
1.230000e-06	3.800833e-06	3.576054e-09	2.707051e+01	2.326779e+02
1.240000e-06	3.872926e-06	3.646632e-09	2.758397e+01	2.372691e+02
1.250000e-06	3.943578e-06	3.713780e-09	2.808718e+01	2.416839e+02
1.260000e-06	4.012908e-06	3.777798e-09	2.858096e+01	2.459278e+02
1.270000e-06	4.080936e-06	3.839766e-09	2.906547e+01	2.500054e+02
1.280000e-06	4.147519e-06	3.898156e-09	2.953969e+01	2.539205e+02
1.290000e-06	4.212385e-06	3.951086e-09	3.000169e+01	2.576761e+02
1.300000e-06	4.275699e-06	4.000743e-09	3.045263e+01	2.612750e+02
1.310000e-06	4.337623e-06	4.051223e-09	3.089367e+01	2.647196e+02
1.320000e-06	4.398136e-06	4.102624e-09	3.132466e+01	2.680118e+02
1.330000e-06	4.457176e-06	4.150897e-09	3.174516e+01	2.711537e+02
1.340000e-06	4.514469e-06	4.195081e-09	3.215321e+01	2.741470e+02
1.350000e-06	4.570023e-06	4.235598e-09	3.254888e+01	2.769937e+02
1.360000e-06	4.623941e-06	4.272124e-09	3.293290e+01	2.796959e+02
1.370000e-06	4.676127e-06	4.305974e-09	3.330458e+01	2.822561e+02
1.380000e-06	4.726394e-06	4.337236e-09	3.366259e+01	2.846773e+02
1.390000e-06	4.774651e-06	4.367076e-09	3.400629e+01	2.869632e+02
1.400000e-06	4.821133e-06	4.395364e-09	3.433735e+01	2.891180e+02
1.410000e-06	4.866077e-06	4.423625e-09	3.465745e+01	2.911471e+02
1.420000e-06	4.909476e-06	4.452652e-09	3.496655e+01	2.930561e+02
1.430000e-06	4.951024e-06	4.480760e-09	3.526247e+01	2.948514e+02
1.440000e-06	4.990680e-06	4.506627e-09	3.554491e+01	2.965396e+02
1.450000e-06	5.028666e-06	4.529138e-09	3.581545e+01	2.981271e+02
1.460000e-06	5.065077e-06	4.549414e-09	3.607478e+01	2.996203e+02
1.470000e-06	5.099760e-06	4.570736e-09	3.632180e+01	3.010245e+02
1.480000e-06	5.132457e-06	4.591499e-09	3.655468e+01	3.023443e+02
1.490000e-06	5.163353e-06	4.607920e-09	3.677473e+01	3.035828e+02
1.500000e-06	5.192568e-06	4.621193e-09	3.698280e+01	3.047421e+02
1.510000e-06	5.220046e-06	4.635039e-09	3.717851e+01	3.058227e+02
1.520000e-06	5.245494e-06	4.650031e-09	3.735976e+01	3.068244e+02
1.530000e-06	5.268812e-06	4.665807e-09	3.752584e+01	3.077459e+02
1.540000e-06	5.290347e-06	4.681019e-09	3.767921e+01	3.085856e+02
1.550000e-06	5.310226e-06	4.693837e-09	3.782079e+01	3.093421e+02
1.560000e-06	5.328249e-06	4.704240e-09	3.794916e+01	3.100143e+02
1.570000e-06	5.344222e-06	4.713718e-09	3.806292e+01	3.106021e+02
1.580000e-06	5.358276e-06	4.722793e-09	3.816302e+01	3.111063e+02
1.590000e-06	5.370329e-06	4.730219e-09	3.824887e+01	3.115290e+02
1.600000e-06	5.380121e-06	4.734930e-09	3.831860e+01	3.118733e+02
1.610000e-06	5.387792e-06	4.738123e-09	3.837324e+01	3.121432e+02
1.620000e-06	5.393589e-06	4.742917e-09	3.841452e+01	3.123432e+02
1.630000e-06	5.397641e-06	4.749151e-09	3.844338e+01	3.124780e+02
1.640000e-06	5.399808e-06	4.752701e-09	3.845882e+01	3.125516e+02
1.650000e-06	5.399974e-06	4.753735e-09	3.846000e+01	3.125673e+02
1.660000e-06	5.398338e-06	4.752693e-09	3.844835e+01	3.125273e+02
1.670000e-06	5.395063e-06	4.748941e-09	3.842503e+01	3.124322e+02
1.680000e-06	5.390141e-06	4.747507e-09	3.838997e+01	3.122814e+02
1.690000e-06	5.383275e-06	4.746242e-09	3.834107e+01	3.120728e+02
1.700000e-06	5.374570e-06	4.743187e-09	3.827907e+01	3.118037e+02
1.710000e-06	5.364317e-06	4.737686e-09	3.820605e+01	3.114708e+02
1.720000e-06	5.352337e-06	4.728931e-09	3.812072e+01	3.110708e+02
1.730000e-06	5.338336e-06	4.723304e-09	3.802100e+01	3.106007e+02
1.740000e-06	5.322259e-06	4.699479e-09	3.790650e+01	3.100589e+02
1.750000e-06	5.303812e-06	4.679818e-09	3.777511e+01	3.094447e+02
1.760000e-06	5.282644e-06	4.691232e-09	3.762435e+01	3.087587e+02
1.770000e-06	5.259320e-06	4.700531e-09	3.745823e+01	3.080030e+02
1.780000e-06	5.234898e-06	4.714226e-09	3.728429e+01	3.071805e+02
1.790000e-06	5.209754e-06	4.686295e-09	3.710520e+01	3.062948e+02
1.800000e-06	5.182955e-06	4.602493e-09	3.691434e+01	3.053498e+02
1.810000e-06	5.153898e-06	4.618980e-09	3.670739e+01	3.043489e+02
1.820000e-06	5.123227e-06	4.629529e-09	3.648894e+01	3.032946e+02
1.830000e-06	5.090821e-06	4.578131e-09	3.625814e+01	3.021886e+02
1.840000e-06	5.056389e-06	4.596504e-09	3.601290e+01	3.010308e+02
1.850000e-06	5.020413e-06	4.572545e-09	3.575667e+01	2.998201e+02
1.860000e-06	4.982594e-06	4.529578e-09	3.548732e+01	2.985539e+02
1.870000e-06	4.942841e-06	4.519980e-09	3.520419e+01	2.972290e+02
1.880000e-06	4.901450e-06	4.450182e-09	3.490938e+01	2.958416e+02
1.890000e-06	4.858303e-06	4.454802e-09	3.460208e+01	2.943880e+02
1.900000e-06	4.813628e-06	4.465635e-09	3.428389e+01	2.928649e+02
1.910000e-06	4.767086e-06	4.413076e-09	3.395241e+01	2.912700e+02
1.920000e-06	4.718428e-06	4.429866e-09	3.360586e+01	2.896023e+02
1.930000e-06	4.668183e-06	4.379355e-09	3.324800e+01	2.878619e+02
1.940000e-06	4.616213e-06	4.324735e-09	3.287785e+01	2.860500e+02
1.950000e-06	4.562162e-06	4.301611e-09	3.249289e+01	2.841691e+02
1.960000e-06	4.506150e-06	4.264129e-09	3.209396e+01	2.822218e+02
1.970000e-06	4.448470e-06	4.276983e-09	3.168315e+01	2.802112e+02
1.980000e-06	4.389365e-06	4.242605e-09	3.126218e+01	2.781399e+02
1.990000e-06	4.328731e-06	4.207688e-09	3.083033e+01	2.760100e+02
2.000000e-06	4.266389e-06	4.170306e-09	3.038632e+01	2.738224e+02
2.010000e-06	4.202451e-06	4.101059e-09	2.993094e+01	2.715772e+02
2.020000e-06	4.137053e-06	4.077786e-09	2.946516e+01	2.692730e+02
2.030000e-06	4.070235e-06	4.044656e-09	2.898926e+01	2.669080e+02
2.040000e-06	4.002013e-06	4.041680e-09	2.850336e+01	2.644793e+02
2.050000e-06	3.932346e-06	4.006001e-09	2.800718e+01	2.619842e+02
2.060000e-06	3.861074e-06	3.941620e-09	2.749956e+01	2.594197e+02
2.070000e-06	3.788357e-06	3.918606e-09	2.698165e+01	2.567836e+02
2.080000e-06	3.714415e-06	3.856750e-09	2.645502e+01	2.540743e+02
2.090000e-06	3.639121e-06	3.810342e-09	2.591875e+01	2.512913e+02
2.100000e-06	3.562350e-06	3.766465e-09	2.537198e+01	2.484346e+02
2.110000e-06	3.484003e-06	3.731937e-09	2.481396e+01	2.455052e+02
2.120000e-06	3.404293e-06	3.703863e-09	2.424625e+01	2.425043e+02
2.130000e-06	3.323515e-06	3.644448e-09	2.367092e+01	2.394334e+02
2.140000e-06	3.241624e-06	3.601411e-09	2.308768e+01	2.362936e+02
2.150000e-06	3.158620e-06	3.547541e-09	2.249650e+01	2.330854e+02
2.160000e-06	3.074616e-06	3.489318e-09	2.189821e+01	2.298085e+02
2.170000e-06	2.989582e-06	3.442614e-09	2.129257e+01	2.264614e+02
2.180000e-06	2.903219e-06	3.412897e-09	2.067747e+01	2.230418e+02
2.190000e-06	2.815564e-06	3.372309e-09	2.005317e+01	2.195467e+02
2.200000e-06	2.727007e-06	3.305225e-09	1.942245e+01	2.159723e+02
2.210000e-06	2.637517e-06	3.239725e-09	1.878507e+01	2.123146e+02
2.220000e-06	2.547054e-06	3.177405e-09	1.814077e+01	2.085699e+02
2.230000e-06	2.455782e-06	3.124166e-09	1.749071e+01	2.047352e+02
2.240000e-06	2.363716e-06	3.066753e-09	1.683500e+01	2.008078e+02
2.250000e-06	2.270873e-06	3.015053e-09	1.617374e+01	1.967867e+02
2.260000e-06	2.177259e-06	2.959285e-09	1.550700e+01	1.926713e+02
2.270000e-06	2.082623e-06	2.887207e-09	1.483297e+01	1.884624e+02
2.280000e-06	1.986929e-06	2.816857e-09	1.415142e+01	1.841613e+02
2.290000e-06	1.890537e-06	2.752131e-09	1.346489e+01	1.797698e+02
2.300000e-06	1.793678e-06	2.686682e-09	1.277503e+01	1.752897e+02
2.310000e-06	1.696309e-06	2.617871e-09	1.208155e+01	1.707223e+02
2.320000e-06	1.598322e-06	2.549872e-09	1.138366e+01	1.660686e+02
2.330000e-06	1.499797e-06	2.481455e-09	1.068194e+01	1.613283e+02
2.340000e-06	1.400806e-06	2.413549e-09	9.976900e+00	1.565002e+02
2.350000e-06	1.301394e-06	2.336740e-09	9.268859e+00	1.515822e+02
2.360000e-06	1.201635e-06	2.255512e-09	8.558356e+00	1.465712e+02
2.370000e-06	1.101590e-06	2.177437e-09	7.845805e+00	1.414633e+02
2.380000e-06	1.001222e-06	2.099394e-09	7.130960e+00	1.362543e+02
2.390000e-06	9.004597e-07	2.024352e-09	6.413305e+00	1.309399e+02
2.400000e-06	7.993495e-07	1.945286e-09	5.693172e+00	1.255161e+02
2.410000e-06	6.979497e-07	1.857616e-09	4.970977e+00	1.199791e+02
2.420000e-06	5.963633e-07	1.767056e-09	4.247453e+00	1.143255e+02
2.430000e-06	4.945628e-07	1.678182e-09	3.522404e+00	1.085526e+02
2.440000e-06	3.924668e-07	1.594979e-09	2.795250e+00	1.026579e+02
2.450000e-06	2.900965e-07	1.513286e-09	2.066142e+00	9.663898e+01
2.460000e-06	1.875686e-07	1.421509e-09	1.335912e+00	9.049341e+01
2.470000e-06	8.500676e-08	1.320572e-09	6.054400e-01	8.421810e+01
2.480000e-06	-1.761927e-08	1.215324e-09	-1.254890e-01	7.780923e+01
2.490000e-06	-1.202471e-07	1.110453e-09	-8.564311e-01	7.126197e+01
2.500000e-06	-2.228068e-07	1.009077e-09	-1.586887e+00	6.457034e+01
2.510000e-06	-3.252932e-07	9.067535e-10	-2.316822e+00	5.772727e+01
2.520000e-06	-4.276894e-07	8.026165e-10	-3.046113e+00	5.072478e+01
2.530000e-06	-5.298442e-07	6.939300e-10	-3.773686e+00	4.355433e+01
2.540000e-06	-6.317314e-07	5.804486e-10	-4.499353e+00	3.620731e+01
2.550000e-06	-7.333740e-07	4.653343e-10	-5.223278e+00	2.867570e+01
2.560000e-06	-8.346489e-07	3.452871e-10	-5.944584e+00	2.095278e+01
2.570000e-06	-9.355528e-07	2.180269e-10	-6.663247e+00	1.303390e+01
2.580000e-06	-1.036092e-06	8.693231e-11	-7.379314e+00	4.917244e+00
2.590000e-06	-1.136288e-06	-4.234452e-11	-8.092937e+00	-3.395490e+00
2.600000e-06	-1.236128e-06	-1.694674e-10	-8.804023e+00	-1.189846e+01
2.610000e-06	-1.335510e-06	-2.993219e-10	-9.511845e+00	-2.058124e+01
2.620000e-06	-1.434420e-06	-4.358697e-10	-1.021631e+01	-2.942859e+01
2.630000e-06	-1.532860e-06	-5.745287e-10	-1.091743e+01	-3.842035e+01
2.640000e-06	-1.630700e-06	-7.108540e-10	-1.161426e+01	-4.753167e+01
2.650000e-06	-1.727935e-06	-8.475418e-10	-1.230680e+01	-5.673336e+01
2.660000e-06	-1.824631e-06	-9.879285e-10	-1.299549e+01	-6.599253e+01
2.670000e-06	-1.920843e-06	-1.132600e-09	-1.368074e+01	-7.527340e+01
2.680000e-06	-2.016511e-06	-1.278273e-09	-1.436211e+01	-8.453828e+01
2.690000e-06	-2.111393e-06	-1.421414e-09	-1.503788e+01	-9.374859e+01
2.700000e-06	-2.205343e-06	-1.561028e-09	-1.570702e+01	-1.028661e+02
2.710000e-06	-2.298267e-06	-1.696588e-09	-1.636885e+01	-1.118539e+02
2.720000e-06	-2.390219e-06	-1.829761e-09	-1.702375e+01	-1.206776e+02
2.730000e-06	-2.481408e-06	-1.961830e-09	-1.767322e+01	-1.293065e+02
2.740000e-06	-2.571807e-06	-2.090269e-09	-1.831707e+01	-1.377137e+02
2.750000e-06	-2.661253e-06	-2.215081e-09	-1.895413e+01	-1.458777e+02
2.760000e-06	-2.749806e-06	-2.336182e-09	-1.958483e+01	-1.537817e+02
2.770000e-06	-2.837549e-06	-2.453786e-09	-2.020976e+01	-1.614143e+02
2.780000e-06	-2.924335e-06	-2.567453e-09	-2.082787e+01	-1.687693e+02
2.790000e-06	-3.009895e-06	-2.676335e-09	-2.143725e+01	-1.758450e+02
2.800000e-06	-3.094223e-06	-2.781834e-09	-2.203785e+01	-1.826441e+02
2.810000e-06	-3.177546e-06	-2.882745e-09	-2.263130e+01	-1.891724e+02
2.820000e-06	-3.259894e-06	-2.977986e-09	-2.321781e+01	-1.954384e+02
2.830000e-06	-3.341182e-06	-3.069082e-09	-2.379675e+01	-2.014526e+02
2.840000e-06	-3.421414e-06	-3.156107e-09	-2.436819e+01	-2.072261e+02
2.850000e-06	-3.500492e-06	-3.238976e-09	-2.493141e+01	-2.127707e+02
2.860000e-06	-3.578083e-06	-3.318364e-09	-2.548402e+01	-2.180978e+02
2.870000e-06	-3.654101e-06	-3.395271e-09	-2.602545e+01	-2.232179e+02
2.880000e-06	-3.728668e-06	-3.471099e-09	-2.655653e+01	-2.281409e+02
2.890000e-06	-3.801879e-06	-3.545253e-09	-2.707796e+01	-2.328752e+02
2.900000e-06	-3.873859e-06	-3.616226e-09	-2.759062e+01	-2.374281e+02
2.910000e-06	-3.944397e-06	-3.682751e-09	-2.809301e+01	-2.418060e+02
2.920000e-06	-4.013312e-06	-3.746019e-09	-2.858384e+01	-2.460141e+02
2.930000e-06	-4.080741e-06	-3.807379e-09	-2.906409e+01	-2.500567e+02
2.940000e-06	-4.146751e-06	-3.866702e-09	-2.953423e+01	-2.539374e+02
