# Temperatura_=_69.32
# Concentracion g/m^3_=_15000.0
# C_Vs_to_Am_M_A/Vsm_=_65563218390.804596
# pendiente_HvsI_1/m_=_3716.3
# ordenada_HvsI_A/m_=_1297.0
# frecuencia_Hz_=_301579.2751011226

Tiempo_(s)	Campo_(V.s)	Magnetizacion_(V.s)	Campo_(kA/m)	Magnetizacion_(A/m)
0.000000e+00	-5.382056e-06	-5.842645e-09	-3.833938e+01	-3.823174e+02
1.000000e-08	-5.379259e-06	-5.840964e-09	-3.831945e+01	-3.821224e+02
2.000000e-08	-5.374690e-06	-5.836909e-09	-3.828691e+01	-3.818463e+02
3.000000e-08	-5.368488e-06	-5.829396e-09	-3.824272e+01	-3.814896e+02
4.000000e-08	-5.360577e-06	-5.821044e-09	-3.818637e+01	-3.810528e+02
5.000000e-08	-5.350780e-06	-5.812195e-09	-3.811658e+01	-3.805367e+02
6.000000e-08	-5.338999e-06	-5.806374e-09	-3.803266e+01	-3.799426e+02
7.000000e-08	-5.325332e-06	-5.806065e-09	-3.793530e+01	-3.792723e+02
8.000000e-08	-5.309617e-06	-5.777540e-09	-3.782336e+01	-3.785280e+02
9.000000e-08	-5.291700e-06	-5.772752e-09	-3.769572e+01	-3.777122e+02
1.000000e-07	-5.271710e-06	-5.800104e-09	-3.755333e+01	-3.768275e+02
1.100000e-07	-5.249830e-06	-5.772730e-09	-3.739746e+01	-3.758761e+02
1.200000e-07	-5.226287e-06	-5.755643e-09	-3.722975e+01	-3.748595e+02
1.300000e-07	-5.201147e-06	-5.738271e-09	-3.705066e+01	-3.737784e+02
1.400000e-07	-5.174328e-06	-5.598144e-09	-3.685962e+01	-3.726320e+02
1.500000e-07	-5.145970e-06	-5.673506e-09	-3.665760e+01	-3.714185e+02
1.600000e-07	-5.116200e-06	-5.723161e-09	-3.644554e+01	-3.701344e+02
1.700000e-07	-5.084805e-06	-5.596210e-09	-3.622190e+01	-3.687752e+02
1.800000e-07	-5.051391e-06	-5.681340e-09	-3.598387e+01	-3.673357e+02
1.900000e-07	-5.016123e-06	-5.614132e-09	-3.573263e+01	-3.658101e+02
2.000000e-07	-4.979274e-06	-5.489358e-09	-3.547014e+01	-3.641928e+02
2.100000e-07	-4.940668e-06	-5.574419e-09	-3.519513e+01	-3.624789e+02
2.200000e-07	-4.900232e-06	-5.507206e-09	-3.490708e+01	-3.606643e+02
2.300000e-07	-4.857884e-06	-5.447330e-09	-3.460541e+01	-3.587466e+02
2.400000e-07	-4.813658e-06	-5.490525e-09	-3.429036e+01	-3.567250e+02
2.500000e-07	-4.767668e-06	-5.408887e-09	-3.396275e+01	-3.546002e+02
2.600000e-07	-4.719733e-06	-5.407150e-09	-3.362128e+01	-3.523746e+02
2.700000e-07	-4.669677e-06	-5.367015e-09	-3.326471e+01	-3.500518e+02
2.800000e-07	-4.617530e-06	-5.286482e-09	-3.289323e+01	-3.476361e+02
2.900000e-07	-4.563559e-06	-5.269865e-09	-3.250877e+01	-3.451322e+02
3.000000e-07	-4.508053e-06	-5.244962e-09	-3.211337e+01	-3.425446e+02
3.100000e-07	-4.450900e-06	-5.200971e-09	-3.170624e+01	-3.398768e+02
3.200000e-07	-4.391947e-06	-5.143261e-09	-3.128628e+01	-3.371318e+02
3.300000e-07	-4.331397e-06	-5.121175e-09	-3.085495e+01	-3.343108e+02
3.400000e-07	-4.269411e-06	-5.060998e-09	-3.041339e+01	-3.314139e+02
3.500000e-07	-4.206028e-06	-4.994157e-09	-2.996188e+01	-3.284398e+02
3.600000e-07	-4.141097e-06	-4.982893e-09	-2.949934e+01	-3.253863e+02
3.700000e-07	-4.074468e-06	-4.932802e-09	-2.902470e+01	-3.222506e+02
3.800000e-07	-4.006314e-06	-4.874791e-09	-2.853920e+01	-3.190293e+02
3.900000e-07	-3.936799e-06	-4.831591e-09	-2.804401e+01	-3.157196e+02
4.000000e-07	-3.866090e-06	-4.775853e-09	-2.754031e+01	-3.123190e+02
4.100000e-07	-3.794199e-06	-4.727938e-09	-2.702819e+01	-3.088259e+02
4.200000e-07	-3.720789e-06	-4.651676e-09	-2.650525e+01	-3.052395e+02
4.300000e-07	-3.645730e-06	-4.600584e-09	-2.597056e+01	-3.015603e+02
4.400000e-07	-3.569212e-06	-4.557001e-09	-2.542548e+01	-2.977895e+02
4.500000e-07	-3.491278e-06	-4.500684e-09	-2.487031e+01	-2.939287e+02
4.600000e-07	-3.411945e-06	-4.436883e-09	-2.430518e+01	-2.899801e+02
4.700000e-07	-3.331344e-06	-4.367811e-09	-2.373102e+01	-2.859457e+02
4.800000e-07	-3.249555e-06	-4.311721e-09	-2.314839e+01	-2.818270e+02
4.900000e-07	-3.166647e-06	-4.237974e-09	-2.255779e+01	-2.776249e+02
5.000000e-07	-3.082747e-06	-4.173502e-09	-2.196012e+01	-2.733394e+02
5.100000e-07	-2.997914e-06	-4.112381e-09	-2.135581e+01	-2.689695e+02
5.200000e-07	-2.912092e-06	-4.043852e-09	-2.074445e+01	-2.645133e+02
5.300000e-07	-2.825328e-06	-3.966277e-09	-2.012638e+01	-2.599683e+02
5.400000e-07	-2.737693e-06	-3.889385e-09	-1.950211e+01	-2.553315e+02
5.500000e-07	-2.649026e-06	-3.819811e-09	-1.887049e+01	-2.505996e+02
5.600000e-07	-2.559176e-06	-3.749010e-09	-1.823044e+01	-2.457699e+02
5.700000e-07	-2.468229e-06	-3.678504e-09	-1.758257e+01	-2.408398e+02
5.800000e-07	-2.376388e-06	-3.598492e-09	-1.692833e+01	-2.358076e+02
5.900000e-07	-2.283768e-06	-3.518348e-09	-1.626855e+01	-2.306723e+02
6.000000e-07	-2.190337e-06	-3.437453e-09	-1.560299e+01	-2.254338e+02
6.100000e-07	-2.096119e-06	-3.355666e-09	-1.493182e+01	-2.200928e+02
6.200000e-07	-2.001240e-06	-3.270682e-09	-1.425595e+01	-2.146501e+02
6.300000e-07	-1.905742e-06	-3.182385e-09	-1.357566e+01	-2.091072e+02
6.400000e-07	-1.809513e-06	-3.096502e-09	-1.289017e+01	-2.034652e+02
6.500000e-07	-1.712455e-06	-3.014155e-09	-1.219877e+01	-1.977249e+02
6.600000e-07	-1.614605e-06	-2.929948e-09	-1.150173e+01	-1.918863e+02
6.700000e-07	-1.516103e-06	-2.838871e-09	-1.080004e+01	-1.859489e+02
6.800000e-07	-1.417029e-06	-2.745620e-09	-1.009429e+01	-1.799111e+02
6.900000e-07	-1.317479e-06	-2.648181e-09	-9.385138e+00	-1.737706e+02
7.000000e-07	-1.217578e-06	-2.552019e-09	-8.673484e+00	-1.675245e+02
7.100000e-07	-1.117377e-06	-2.457360e-09	-7.959700e+00	-1.611691e+02
7.200000e-07	-1.016873e-06	-2.359761e-09	-7.243754e+00	-1.547007e+02
7.300000e-07	-9.160293e-07	-2.254813e-09	-6.525386e+00	-1.481156e+02
7.400000e-07	-8.149271e-07	-2.148962e-09	-5.805179e+00	-1.414100e+02
7.500000e-07	-7.135470e-07	-2.049274e-09	-5.082993e+00	-1.345805e+02
7.600000e-07	-6.118420e-07	-1.947633e-09	-4.358491e+00	-1.276238e+02
7.700000e-07	-5.098822e-07	-1.839978e-09	-3.632175e+00	-1.205367e+02
7.800000e-07	-4.077369e-07	-1.727571e-09	-2.904537e+00	-1.133158e+02
7.900000e-07	-3.054941e-07	-1.614828e-09	-2.176205e+00	-1.059572e+02
8.000000e-07	-2.031929e-07	-1.499667e-09	-1.447456e+00	-9.845633e+01
8.100000e-07	-1.008093e-07	-1.384442e-09	-7.181207e-01	-9.080734e+01
8.200000e-07	1.627637e-09	-1.269979e-09	1.159456e-02	-8.300311e+01
8.300000e-07	1.040644e-07	-1.150698e-09	7.413086e-01	-7.503502e+01
8.400000e-07	2.065230e-07	-1.025234e-09	1.471178e+00	-6.689301e+01
8.500000e-07	3.089529e-07	-8.981318e-10	2.200843e+00	-5.856589e+01
8.600000e-07	4.112666e-07	-7.701210e-10	2.929681e+00	-5.004176e+01
8.700000e-07	5.134733e-07	-6.358724e-10	3.657756e+00	-4.130874e+01
8.800000e-07	6.155871e-07	-4.970469e-10	4.385170e+00	-3.235577e+01
8.900000e-07	7.175025e-07	-3.549463e-10	5.111169e+00	-2.317361e+01
9.000000e-07	8.191259e-07	-2.117826e-10	5.835090e+00	-1.375583e+01
9.100000e-07	9.204638e-07	-6.602473e-11	6.556976e+00	-4.099795e+00
9.200000e-07	1.021451e-06	8.309992e-11	7.276366e+00	5.792477e+00
9.300000e-07	1.122067e-06	2.373840e-10	7.993106e+00	1.591361e+01
9.400000e-07	1.222361e-06	3.975878e-10	8.707555e+00	2.625045e+01
9.500000e-07	1.322307e-06	5.610978e-10	9.419528e+00	3.678390e+01
9.600000e-07	1.421854e-06	7.262153e-10	1.012866e+01	4.748909e+01
9.700000e-07	1.520860e-06	8.913724e-10	1.083393e+01	5.833586e+01
9.800000e-07	1.619146e-06	1.059993e-09	1.153408e+01	6.928946e+01
9.900000e-07	1.716621e-06	1.229635e-09	1.222845e+01	8.031154e+01
1.000000e-06	1.813343e-06	1.398982e-09	1.291745e+01	9.136127e+01
1.010000e-06	1.909380e-06	1.567116e-09	1.360158e+01	1.023965e+02
1.020000e-06	2.004707e-06	1.735925e-09	1.428064e+01	1.133751e+02
1.030000e-06	2.099299e-06	1.904059e-09	1.495447e+01	1.242560e+02
1.040000e-06	2.193120e-06	2.068562e-09	1.562281e+01	1.350000e+02
1.050000e-06	2.286152e-06	2.230257e-09	1.628553e+01	1.455711e+02
1.060000e-06	2.378476e-06	2.386387e-09	1.694321e+01	1.559366e+02
1.070000e-06	2.470167e-06	2.540450e-09	1.759638e+01	1.660680e+02
1.080000e-06	2.561010e-06	2.691793e-09	1.824350e+01	1.759407e+02
1.090000e-06	2.650743e-06	2.840857e-09	1.888272e+01	1.855345e+02
1.100000e-06	2.739356e-06	2.986167e-09	1.951395e+01	1.948333e+02
1.110000e-06	2.826948e-06	3.121890e-09	2.013793e+01	2.038251e+02
1.120000e-06	2.913613e-06	3.249693e-09	2.075529e+01	2.125015e+02
1.130000e-06	2.999380e-06	3.374755e-09	2.136626e+01	2.208578e+02
1.140000e-06	3.084206e-06	3.499141e-09	2.197051e+01	2.288927e+02
1.150000e-06	3.168067e-06	3.616641e-09	2.256790e+01	2.366077e+02
1.160000e-06	3.250927e-06	3.726891e-09	2.315816e+01	2.440075e+02
1.170000e-06	3.332607e-06	3.832542e-09	2.374002e+01	2.510994e+02
1.180000e-06	3.413012e-06	3.934864e-09	2.431278e+01	2.578933e+02
1.190000e-06	3.492207e-06	4.034419e-09	2.487694e+01	2.644010e+02
1.200000e-06	3.570201e-06	4.130274e-09	2.543253e+01	2.706364e+02
1.210000e-06	3.646938e-06	4.222114e-09	2.597917e+01	2.766148e+02
1.220000e-06	3.722305e-06	4.310569e-09	2.651605e+01	2.823520e+02
1.230000e-06	3.796118e-06	4.394804e-09	2.704186e+01	2.878644e+02
1.240000e-06	3.868340e-06	4.474890e-09	2.755634e+01	2.931679e+02
1.250000e-06	3.939100e-06	4.551758e-09	2.806040e+01	2.982770e+02
1.260000e-06	4.008482e-06	4.626967e-09	2.855464e+01	3.032050e+02
1.270000e-06	4.076535e-06	4.700422e-09	2.903943e+01	3.079625e+02
1.280000e-06	4.143105e-06	4.769896e-09	2.951364e+01	3.125578e+02
1.290000e-06	4.207984e-06	4.837346e-09	2.997581e+01	3.169964e+02
1.300000e-06	4.271298e-06	4.902544e-09	3.042683e+01	3.212808e+02
1.310000e-06	4.333182e-06	4.965753e-09	3.086767e+01	3.254114e+02
1.320000e-06	4.393729e-06	5.026240e-09	3.129897e+01	3.293861e+02
1.330000e-06	4.452902e-06	5.083287e-09	3.172050e+01	3.332018e+02
1.340000e-06	4.510366e-06	5.136866e-09	3.212985e+01	3.368545e+02
1.350000e-06	4.565979e-06	5.188522e-09	3.252601e+01	3.403403e+02
1.360000e-06	4.619955e-06	5.239308e-09	3.291051e+01	3.436560e+02
1.370000e-06	4.672217e-06	5.285641e-09	3.328280e+01	3.468001e+02
1.380000e-06	4.722516e-06	5.328326e-09	3.364111e+01	3.497726e+02
1.390000e-06	4.770852e-06	5.368713e-09	3.398543e+01	3.525761e+02
1.400000e-06	4.817408e-06	5.407360e-09	3.431708e+01	3.552150e+02
1.410000e-06	4.862373e-06	5.443408e-09	3.463739e+01	3.576958e+02
1.420000e-06	4.905791e-06	5.475816e-09	3.494668e+01	3.600265e+02
1.430000e-06	4.947401e-06	5.506164e-09	3.524309e+01	3.622159e+02
1.440000e-06	4.987128e-06	5.535425e-09	3.552609e+01	3.642736e+02
1.450000e-06	5.025175e-06	5.563040e-09	3.579712e+01	3.662083e+02
1.460000e-06	5.061619e-06	5.588190e-09	3.605673e+01	3.680283e+02
1.470000e-06	5.096371e-06	5.612353e-09	3.630429e+01	3.697402e+02
1.480000e-06	5.129159e-06	5.634799e-09	3.653785e+01	3.713491e+02
1.490000e-06	5.160102e-06	5.655582e-09	3.675828e+01	3.728581e+02
1.500000e-06	5.189419e-06	5.674846e-09	3.696712e+01	3.742688e+02
1.510000e-06	5.217020e-06	5.693731e-09	3.716374e+01	3.755813e+02
1.520000e-06	5.242599e-06	5.711506e-09	3.734595e+01	3.767946e+02
1.530000e-06	5.266118e-06	5.727293e-09	3.751349e+01	3.779073e+02
1.540000e-06	5.287822e-06	5.741724e-09	3.766809e+01	3.789175e+02
1.550000e-06	5.307769e-06	5.755271e-09	3.781019e+01	3.798241e+02
1.560000e-06	5.325917e-06	5.768900e-09	3.793947e+01	3.806264e+02
1.570000e-06	5.342103e-06	5.781619e-09	3.805477e+01	3.813246e+02
1.580000e-06	5.356278e-06	5.791012e-09	3.815575e+01	3.819199e+02
1.590000e-06	5.368438e-06	5.797407e-09	3.824237e+01	3.824144e+02
1.600000e-06	5.378443e-06	5.802897e-09	3.831364e+01	3.828109e+02
1.610000e-06	5.386286e-06	5.807253e-09	3.836951e+01	3.831124e+02
1.620000e-06	5.392220e-06	5.811049e-09	3.841178e+01	3.833223e+02
1.630000e-06	5.396396e-06	5.814751e-09	3.844153e+01	3.834436e+02
1.640000e-06	5.398691e-06	5.815804e-09	3.845788e+01	3.834788e+02
1.650000e-06	5.398989e-06	5.815363e-09	3.846000e+01	3.834301e+02
1.660000e-06	5.397413e-06	5.815191e-09	3.844878e+01	3.832989e+02
1.670000e-06	5.394186e-06	5.809639e-09	3.842579e+01	3.830862e+02
1.680000e-06	5.389284e-06	5.805631e-09	3.839087e+01	3.827924e+02
1.690000e-06	5.382530e-06	5.799512e-09	3.834275e+01	3.824181e+02
1.700000e-06	5.373985e-06	5.791582e-09	3.828189e+01	3.819639e+02
1.710000e-06	5.363824e-06	5.783142e-09	3.820950e+01	3.814306e+02
1.720000e-06	5.351967e-06	5.766747e-09	3.812504e+01	3.808197e+02
1.730000e-06	5.338194e-06	5.768404e-09	3.802693e+01	3.801330e+02
1.740000e-06	5.322321e-06	5.769381e-09	3.791386e+01	3.793728e+02
1.750000e-06	5.304039e-06	5.711132e-09	3.778362e+01	3.785417e+02
1.760000e-06	5.283075e-06	5.704662e-09	3.763428e+01	3.776422e+02
1.770000e-06	5.259849e-06	5.683224e-09	3.746883e+01	3.766764e+02
1.780000e-06	5.235352e-06	5.685037e-09	3.729433e+01	3.756456e+02
1.790000e-06	5.210073e-06	5.782819e-09	3.711425e+01	3.745503e+02
1.800000e-06	5.183392e-06	5.608378e-09	3.692418e+01	3.733894e+02
1.810000e-06	5.154631e-06	5.591445e-09	3.671930e+01	3.721607e+02
1.820000e-06	5.124019e-06	5.703287e-09	3.650124e+01	3.708606e+02
1.830000e-06	5.091700e-06	5.518999e-09	3.627101e+01	3.694844e+02
1.840000e-06	5.057470e-06	5.606741e-09	3.602717e+01	3.680266e+02
1.850000e-06	5.021558e-06	5.707807e-09	3.577135e+01	3.664814e+02
1.860000e-06	4.983857e-06	5.528936e-09	3.550278e+01	3.648435e+02
1.870000e-06	4.944233e-06	5.589601e-09	3.522052e+01	3.631079e+02
1.880000e-06	4.902971e-06	5.522872e-09	3.492659e+01	3.612711e+02
1.890000e-06	4.859986e-06	5.433126e-09	3.462039e+01	3.593308e+02
1.900000e-06	4.815322e-06	5.516386e-09	3.430222e+01	3.572866e+02
1.910000e-06	4.768857e-06	5.353923e-09	3.397122e+01	3.551396e+02
1.920000e-06	4.720330e-06	5.401096e-09	3.362554e+01	3.528925e+02
1.930000e-06	4.670109e-06	5.417878e-09	3.326778e+01	3.505491e+02
1.940000e-06	4.618259e-06	5.272095e-09	3.289843e+01	3.481138e+02
1.950000e-06	4.564411e-06	5.314483e-09	3.251484e+01	3.455912e+02
1.960000e-06	4.508559e-06	5.240887e-09	3.211697e+01	3.429858e+02
1.970000e-06	4.450961e-06	5.199948e-09	3.170667e+01	3.403010e+02
1.980000e-06	4.391924e-06	5.154218e-09	3.128612e+01	3.375392e+02
1.990000e-06	4.331404e-06	5.102778e-09	3.085500e+01	3.347017e+02
2.000000e-06	4.269218e-06	5.131793e-09	3.041201e+01	3.317880e+02
2.010000e-06	4.205400e-06	4.996905e-09	2.995740e+01	3.287968e+02
2.020000e-06	4.140045e-06	4.976133e-09	2.949184e+01	3.257256e+02
2.030000e-06	4.073330e-06	4.942890e-09	2.901659e+01	3.225715e+02
2.040000e-06	4.005282e-06	4.869449e-09	2.853186e+01	3.193312e+02
2.050000e-06	3.935690e-06	4.848142e-09	2.803611e+01	3.160018e+02
2.060000e-06	3.864496e-06	4.764913e-09	2.752896e+01	3.125812e+02
2.070000e-06	3.791908e-06	4.768894e-09	2.701187e+01	3.090677e+02
2.080000e-06	3.718029e-06	4.678773e-09	2.648559e+01	3.054611e+02
2.090000e-06	3.642847e-06	4.597852e-09	2.595003e+01	3.017618e+02
2.100000e-06	3.566265e-06	4.556655e-09	2.540449e+01	2.979712e+02
2.110000e-06	3.488081e-06	4.483827e-09	2.484754e+01	2.940911e+02
2.120000e-06	3.408471e-06	4.445931e-09	2.428044e+01	2.901236e+02
2.130000e-06	3.327743e-06	4.362614e-09	2.370537e+01	2.860707e+02
2.140000e-06	3.245907e-06	4.329611e-09	2.312240e+01	2.819338e+02
2.150000e-06	3.162949e-06	4.265780e-09	2.253145e+01	2.777135e+02
2.160000e-06	3.078990e-06	4.185486e-09	2.193336e+01	2.734096e+02
2.170000e-06	2.993950e-06	4.116800e-09	2.132757e+01	2.690211e+02
2.180000e-06	2.907598e-06	4.041233e-09	2.071244e+01	2.645458e+02
2.190000e-06	2.820009e-06	3.986474e-09	2.008849e+01	2.599810e+02
2.200000e-06	2.731414e-06	3.911277e-09	1.945738e+01	2.553237e+02
2.210000e-06	2.641945e-06	3.843474e-09	1.882004e+01	2.505708e+02
2.220000e-06	2.551575e-06	3.765590e-09	1.817629e+01	2.457194e+02
2.230000e-06	2.460343e-06	3.694802e-09	1.752640e+01	2.407672e+02
2.240000e-06	2.368421e-06	3.616675e-09	1.687158e+01	2.357126e+02
2.250000e-06	2.275742e-06	3.537071e-09	1.621138e+01	2.305549e+02
2.260000e-06	2.182150e-06	3.463946e-09	1.554467e+01	2.252940e+02
2.270000e-06	2.087544e-06	3.380032e-09	1.487074e+01	2.199307e+02
2.280000e-06	1.991966e-06	3.293060e-09	1.418988e+01	2.144662e+02
2.290000e-06	1.895655e-06	3.200959e-09	1.350381e+01	2.089016e+02
2.300000e-06	1.798804e-06	3.117187e-09	1.281389e+01	2.032382e+02
2.310000e-06	1.701464e-06	3.032796e-09	1.212047e+01	1.974764e+02
2.320000e-06	1.603556e-06	2.941487e-09	1.142302e+01	1.916164e+02
2.330000e-06	1.505081e-06	2.847054e-09	1.072153e+01	1.856573e+02
2.340000e-06	1.406133e-06	2.761254e-09	1.001667e+01	1.795974e+02
2.350000e-06	1.306787e-06	2.672628e-09	9.308972e+00	1.734342e+02
2.360000e-06	1.207104e-06	2.573814e-09	8.598871e+00	1.671646e+02
2.370000e-06	1.107195e-06	2.473042e-09	7.887163e+00	1.607850e+02
2.380000e-06	1.007005e-06	2.371235e-09	7.173459e+00	1.542916e+02
2.390000e-06	9.063684e-07	2.269750e-09	6.456566e+00	1.476807e+02
2.400000e-06	8.052906e-07	2.165138e-09	5.736533e+00	1.409485e+02
2.410000e-06	7.039427e-07	2.063264e-09	5.014576e+00	1.340917e+02
2.420000e-06	6.024100e-07	1.960167e-09	4.291301e+00	1.271069e+02
2.430000e-06	5.006254e-07	1.849699e-09	3.566233e+00	1.199911e+02
2.440000e-06	3.985952e-07	1.736928e-09	2.839416e+00	1.127407e+02
2.450000e-06	2.963879e-07	1.629151e-09	2.111336e+00	1.053517e+02
2.460000e-06	1.940002e-07	1.517268e-09	1.381971e+00	9.781927e+01
2.470000e-06	9.148131e-08	1.395140e-09	6.516723e-01	9.013733e+01
2.480000e-06	-1.110163e-08	1.269100e-09	-7.908310e-02	8.229842e+01
2.490000e-06	-1.136917e-07	1.143303e-09	-8.098892e-01	7.429362e+01
2.500000e-06	-2.162651e-07	1.018703e-09	-1.540577e+00	6.611258e+01
2.510000e-06	-3.188183e-07	8.927770e-10	-2.271120e+00	5.774391e+01
2.520000e-06	-4.212088e-07	7.656714e-10	-3.000505e+00	4.917567e+01
2.530000e-06	-5.234278e-07	6.345353e-10	-3.728667e+00	4.039606e+01
2.540000e-06	-6.254837e-07	4.976176e-10	-4.455668e+00	3.139434e+01
2.550000e-06	-7.271978e-07	3.569540e-10	-5.180235e+00	2.216178e+01
2.560000e-06	-8.284954e-07	2.122715e-10	-5.901834e+00	1.269268e+01
2.570000e-06	-9.294794e-07	6.121419e-11	-6.621199e+00	2.985340e+00
2.580000e-06	-1.030160e-06	-9.325600e-11	-7.338406e+00	-6.957126e+00
2.590000e-06	-1.130469e-06	-2.472708e-10	-8.052962e+00	-1.712613e+01
2.600000e-06	-1.230348e-06	-4.010688e-10	-8.764455e+00	-2.750725e+01
2.610000e-06	-1.329753e-06	-5.579352e-10	-9.472570e+00	-3.808012e+01
2.620000e-06	-1.428696e-06	-7.195477e-10	-1.017740e+01	-4.881870e+01
2.630000e-06	-1.527157e-06	-8.854321e-10	-1.087879e+01	-5.969176e+01
2.640000e-06	-1.625057e-06	-1.054022e-09	-1.157618e+01	-7.066371e+01
2.650000e-06	-1.722368e-06	-1.221694e-09	-1.226938e+01	-8.169555e+01
2.660000e-06	-1.819155e-06	-1.388547e-09	-1.295886e+01	-9.274608e+01
2.670000e-06	-1.915429e-06	-1.555766e-09	-1.364466e+01	-1.037731e+02
2.680000e-06	-2.011100e-06	-1.723361e-09	-1.432619e+01	-1.147345e+02
2.690000e-06	-2.105960e-06	-1.888503e-09	-1.500192e+01	-1.255895e+02
2.700000e-06	-2.199830e-06	-2.050432e-09	-1.567062e+01	-1.362998e+02
2.710000e-06	-2.292797e-06	-2.211034e-09	-1.633287e+01	-1.468298e+02
2.720000e-06	-2.384934e-06	-2.367794e-09	-1.698921e+01	-1.571477e+02
2.730000e-06	-2.476195e-06	-2.520332e-09	-1.763931e+01	-1.672259e+02
2.740000e-06	-2.566527e-06	-2.668614e-09	-1.828280e+01	-1.770407e+02
2.750000e-06	-2.655928e-06	-2.812964e-09	-1.891965e+01	-1.865729e+02
2.760000e-06	-2.744510e-06	-2.953108e-09	-1.955067e+01	-1.958071e+02
2.770000e-06	-2.832289e-06	-3.088471e-09	-2.017597e+01	-2.047322e+02
2.780000e-06	-2.919056e-06	-3.221163e-09	-2.079406e+01	-2.133407e+02
2.790000e-06	-3.004639e-06	-3.350020e-09	-2.140371e+01	-2.216285e+02
2.800000e-06	-3.089100e-06	-3.473973e-09	-2.200538e+01	-2.295949e+02
2.810000e-06	-3.172507e-06	-3.593427e-09	-2.259954e+01	-2.372422e+02
2.820000e-06	-3.254803e-06	-3.706484e-09	-2.318577e+01	-2.445757e+02
2.830000e-06	-3.336047e-06	-3.813785e-09	-2.376452e+01	-2.516032e+02
2.840000e-06	-3.416282e-06	-3.916373e-09	-2.433608e+01	-2.583350e+02
2.850000e-06	-3.495305e-06	-4.015031e-09	-2.489900e+01	-2.647835e+02
2.860000e-06	-3.572853e-06	-4.110391e-09	-2.545142e+01	-2.709628e+02
2.870000e-06	-3.648862e-06	-4.200416e-09	-2.599288e+01	-2.768885e+02
2.880000e-06	-3.723474e-06	-4.285936e-09	-2.652438e+01	-2.825765e+02
2.890000e-06	-3.796732e-06	-4.369671e-09	-2.704623e+01	-2.880432e+02
2.900000e-06	-3.868673e-06	-4.452231e-09	-2.755871e+01	-2.933041e+02
2.910000e-06	-3.939200e-06	-4.530614e-09	-2.806111e+01	-2.983738e+02
2.920000e-06	-4.008148e-06	-4.604416e-09	-2.855227e+01	-3.032647e+02
2.930000e-06	-4.075674e-06	-4.676485e-09	-2.903330e+01	-3.079873e+02
2.940000e-06	-4.141828e-06	-4.745992e-09	-2.950454e+01	-3.125490e+02
