# Temperatura_=_29.67
# Concentracion g/m^3_=_15000.0
# C_Vs_to_Am_M_A/Vsm_=_65563218390.804596
# pendiente_HvsI_1/m_=_3716.3
# ordenada_HvsI_A/m_=_1297.0
# frecuencia_Hz_=_301574.0301206008

Tiempo_(s)	Campo_(V.s)	Magnetizacion_(V.s)	Campo_(kA/m)	Magnetizacion_(A/m)
0.000000e+00	-5.383718e-06	-4.585939e-09	-3.834547e+01	-2.988744e+02
1.000000e-08	-5.380692e-06	-4.586045e-09	-3.832392e+01	-2.987883e+02
2.000000e-08	-5.375907e-06	-4.581091e-09	-3.828984e+01	-2.986373e+02
3.000000e-08	-5.369480e-06	-4.575736e-09	-3.824406e+01	-2.984207e+02
4.000000e-08	-5.361542e-06	-4.570514e-09	-3.818752e+01	-2.981386e+02
5.000000e-08	-5.351708e-06	-4.563636e-09	-3.811748e+01	-2.977930e+02
6.000000e-08	-5.339782e-06	-4.555669e-09	-3.803254e+01	-2.973872e+02
7.000000e-08	-5.325983e-06	-4.544223e-09	-3.793426e+01	-2.969258e+02
8.000000e-08	-5.310040e-06	-4.546539e-09	-3.782071e+01	-2.964143e+02
9.000000e-08	-5.291916e-06	-4.576850e-09	-3.769161e+01	-2.958583e+02
1.000000e-07	-5.271793e-06	-4.567199e-09	-3.754829e+01	-2.952628e+02
1.100000e-07	-5.249748e-06	-4.533853e-09	-3.739127e+01	-2.946318e+02
1.200000e-07	-5.226002e-06	-4.511246e-09	-3.722214e+01	-2.939672e+02
1.300000e-07	-5.200657e-06	-4.438268e-09	-3.704163e+01	-2.932689e+02
1.400000e-07	-5.173710e-06	-4.446552e-09	-3.684969e+01	-2.925343e+02
1.500000e-07	-5.145252e-06	-4.508662e-09	-3.664700e+01	-2.917585e+02
1.600000e-07	-5.115403e-06	-4.433935e-09	-3.643440e+01	-2.909349e+02
1.700000e-07	-5.083836e-06	-4.460659e-09	-3.620957e+01	-2.900555e+02
1.800000e-07	-5.050107e-06	-4.466154e-09	-3.596933e+01	-2.891120e+02
1.900000e-07	-5.014675e-06	-4.335289e-09	-3.571697e+01	-2.880963e+02
2.000000e-07	-4.977726e-06	-4.372501e-09	-3.545380e+01	-2.870016e+02
2.100000e-07	-4.938988e-06	-4.392630e-09	-3.517789e+01	-2.858230e+02
2.200000e-07	-4.898400e-06	-4.344638e-09	-3.488880e+01	-2.845578e+02
2.300000e-07	-4.855801e-06	-4.353188e-09	-3.458539e+01	-2.832058e+02
2.400000e-07	-4.811327e-06	-4.278583e-09	-3.426863e+01	-2.817692e+02
2.500000e-07	-4.765120e-06	-4.228449e-09	-3.393952e+01	-2.802522e+02
2.600000e-07	-4.716967e-06	-4.256327e-09	-3.359655e+01	-2.786601e+02
2.700000e-07	-4.666753e-06	-4.241422e-09	-3.323890e+01	-2.769993e+02
2.800000e-07	-4.614519e-06	-4.223729e-09	-3.286686e+01	-2.752758e+02
2.900000e-07	-4.560422e-06	-4.167742e-09	-3.248156e+01	-2.734951e+02
3.000000e-07	-4.504777e-06	-4.111253e-09	-3.208522e+01	-2.716611e+02
3.100000e-07	-4.447398e-06	-4.114560e-09	-3.167655e+01	-2.697763e+02
3.200000e-07	-4.388208e-06	-4.119022e-09	-3.125496e+01	-2.678413e+02
3.300000e-07	-4.327518e-06	-4.074876e-09	-3.082270e+01	-2.658550e+02
3.400000e-07	-4.265412e-06	-4.002918e-09	-3.038035e+01	-2.638152e+02
3.500000e-07	-4.201936e-06	-3.972309e-09	-2.992825e+01	-2.617185e+02
3.600000e-07	-4.136887e-06	-3.953624e-09	-2.946494e+01	-2.595614e+02
3.700000e-07	-4.070156e-06	-3.939097e-09	-2.898964e+01	-2.573407e+02
3.800000e-07	-4.001918e-06	-3.915932e-09	-2.850362e+01	-2.550538e+02
3.900000e-07	-3.932311e-06	-3.849306e-09	-2.800785e+01	-2.526989e+02
4.000000e-07	-3.861475e-06	-3.792697e-09	-2.750331e+01	-2.502756e+02
4.100000e-07	-3.789363e-06	-3.758685e-09	-2.698970e+01	-2.477845e+02
4.200000e-07	-3.715788e-06	-3.740178e-09	-2.646566e+01	-2.452270e+02
4.300000e-07	-3.640665e-06	-3.717534e-09	-2.593060e+01	-2.426050e+02
4.400000e-07	-3.564018e-06	-3.667994e-09	-2.538468e+01	-2.399205e+02
4.500000e-07	-3.485972e-06	-3.600313e-09	-2.482880e+01	-2.371754e+02
4.600000e-07	-3.406581e-06	-3.541869e-09	-2.426334e+01	-2.343704e+02
4.700000e-07	-3.325871e-06	-3.515606e-09	-2.368848e+01	-2.315058e+02
4.800000e-07	-3.243982e-06	-3.491448e-09	-2.310523e+01	-2.285802e+02
4.900000e-07	-3.161038e-06	-3.443114e-09	-2.251446e+01	-2.255915e+02
5.000000e-07	-3.077095e-06	-3.380844e-09	-2.191658e+01	-2.225365e+02
5.100000e-07	-2.992187e-06	-3.321144e-09	-2.131182e+01	-2.194114e+02
5.200000e-07	-2.906258e-06	-3.275654e-09	-2.069979e+01	-2.162119e+02
5.300000e-07	-2.819307e-06	-3.235825e-09	-2.008049e+01	-2.129339e+02
5.400000e-07	-2.731463e-06	-3.187614e-09	-1.945482e+01	-2.095736e+02
5.500000e-07	-2.642617e-06	-3.124214e-09	-1.882201e+01	-2.061280e+02
5.600000e-07	-2.552591e-06	-3.053378e-09	-1.818080e+01	-2.025950e+02
5.700000e-07	-2.461476e-06	-3.000867e-09	-1.753183e+01	-1.989732e+02
5.800000e-07	-2.369508e-06	-2.960771e-09	-1.687679e+01	-1.952622e+02
5.900000e-07	-2.276767e-06	-2.906098e-09	-1.621625e+01	-1.914625e+02
6.000000e-07	-2.183271e-06	-2.832143e-09	-1.555032e+01	-1.875750e+02
6.100000e-07	-2.089026e-06	-2.760777e-09	-1.487907e+01	-1.836007e+02
6.200000e-07	-1.994020e-06	-2.701407e-09	-1.420239e+01	-1.795409e+02
6.300000e-07	-1.898316e-06	-2.645830e-09	-1.352074e+01	-1.753963e+02
6.400000e-07	-1.801904e-06	-2.590889e-09	-1.283404e+01	-1.711675e+02
6.500000e-07	-1.704801e-06	-2.527163e-09	-1.214243e+01	-1.668543e+02
6.600000e-07	-1.607009e-06	-2.449031e-09	-1.144590e+01	-1.624558e+02
6.700000e-07	-1.508517e-06	-2.368032e-09	-1.074440e+01	-1.579707e+02
6.800000e-07	-1.409399e-06	-2.299172e-09	-1.003843e+01	-1.533969e+02
6.900000e-07	-1.309814e-06	-2.237177e-09	-9.329133e+00	-1.487317e+02
7.000000e-07	-1.209912e-06	-2.167117e-09	-8.617585e+00	-1.439722e+02
7.100000e-07	-1.109730e-06	-2.086835e-09	-7.904037e+00	-1.391151e+02
7.200000e-07	-1.009226e-06	-2.006032e-09	-7.188199e+00	-1.341569e+02
7.300000e-07	-9.083726e-07	-1.929705e-09	-6.469874e+00	-1.290941e+02
7.400000e-07	-8.071491e-07	-1.856251e-09	-5.748911e+00	-1.239230e+02
7.500000e-07	-7.055908e-07	-1.779724e-09	-5.025563e+00	-1.186402e+02
7.600000e-07	-6.037809e-07	-1.694212e-09	-4.300423e+00	-1.132423e+02
7.700000e-07	-5.018111e-07	-1.601815e-09	-3.574144e+00	-1.077260e+02
7.800000e-07	-3.997056e-07	-1.511056e-09	-2.846899e+00	-1.020885e+02
7.900000e-07	-2.975027e-07	-1.426616e-09	-2.118960e+00	-9.632665e+01
8.000000e-07	-1.952378e-07	-1.343174e-09	-1.390579e+00	-9.043785e+01
8.100000e-07	-9.287912e-08	-1.253499e-09	-6.615305e-01	-8.441936e+01
8.200000e-07	9.527913e-09	-1.158178e-09	6.786246e-02	-7.826844e+01
8.300000e-07	1.119836e-07	-1.062150e-09	7.976018e-01	-7.198214e+01
8.400000e-07	2.144278e-07	-9.672640e-10	1.527259e+00	-6.555721e+01
8.500000e-07	3.167772e-07	-8.704603e-10	2.256242e+00	-5.898990e+01
8.600000e-07	4.190385e-07	-7.687515e-10	2.984597e+00	-5.227593e+01
8.700000e-07	5.211999e-07	-6.604951e-10	3.712240e+00	-4.541038e+01
8.800000e-07	6.232513e-07	-5.510083e-10	4.439100e+00	-3.838783e+01
8.900000e-07	7.251505e-07	-4.441915e-10	5.164876e+00	-3.120252e+01
9.000000e-07	8.267703e-07	-3.376275e-10	5.888662e+00	-2.384872e+01
9.100000e-07	9.280461e-07	-2.278736e-10	6.609998e+00	-1.632123e+01
9.200000e-07	1.028974e-06	-1.125877e-10	7.328855e+00	-8.616055e+00
9.300000e-07	1.129526e-06	7.876336e-12	8.045037e+00	-7.311553e-01
9.400000e-07	1.229728e-06	1.332573e-10	8.758722e+00	7.332734e+00
9.500000e-07	1.329582e-06	2.595045e-10	9.469937e+00	1.557129e+01
9.600000e-07	1.429067e-06	3.844715e-10	1.017851e+01	2.397588e+01
9.700000e-07	1.528044e-06	5.122455e-10	1.088348e+01	3.253301e+01
9.800000e-07	1.626299e-06	6.438808e-10	1.158330e+01	4.122401e+01
9.900000e-07	1.723745e-06	7.775145e-10	1.227736e+01	5.002499e+01
1.000000e-06	1.820405e-06	9.116487e-10	1.296582e+01	5.890717e+01
1.010000e-06	1.916359e-06	1.045599e-09	1.364925e+01	6.783749e+01
1.020000e-06	2.011627e-06	1.181467e-09	1.432779e+01	7.677951e+01
1.030000e-06	2.106147e-06	1.318554e-09	1.500101e+01	8.569467e+01
1.040000e-06	2.199943e-06	1.456077e-09	1.566907e+01	9.454353e+01
1.050000e-06	2.292997e-06	1.590244e-09	1.633184e+01	1.032872e+02
1.060000e-06	2.385307e-06	1.719156e-09	1.698932e+01	1.118889e+02
1.070000e-06	2.476952e-06	1.844122e-09	1.764206e+01	1.203149e+02
1.080000e-06	2.567804e-06	1.967772e-09	1.828916e+01	1.285357e+02
1.090000e-06	2.657563e-06	2.091121e-09	1.892846e+01	1.365271e+02
1.100000e-06	2.746124e-06	2.211879e-09	1.955924e+01	1.442700e+02
1.110000e-06	2.833648e-06	2.325401e-09	2.018262e+01	1.517511e+02
1.120000e-06	2.920284e-06	2.430985e-09	2.079969e+01	1.589628e+02
1.130000e-06	3.006010e-06	2.534863e-09	2.141027e+01	1.659020e+02
1.140000e-06	3.090755e-06	2.640246e-09	2.201387e+01	1.725705e+02
1.150000e-06	3.174571e-06	2.742058e-09	2.261084e+01	1.789735e+02
1.160000e-06	3.257376e-06	2.837421e-09	2.320062e+01	1.851192e+02
1.170000e-06	3.338936e-06	2.927439e-09	2.378154e+01	1.910176e+02
1.180000e-06	3.419198e-06	3.011374e-09	2.435320e+01	1.966802e+02
1.190000e-06	3.498274e-06	3.093239e-09	2.491642e+01	2.021190e+02
1.200000e-06	3.576152e-06	3.174432e-09	2.547110e+01	2.073460e+02
1.210000e-06	3.652764e-06	3.253731e-09	2.601677e+01	2.123725e+02
1.220000e-06	3.728088e-06	3.329083e-09	2.655327e+01	2.172092e+02
1.230000e-06	3.801816e-06	3.399882e-09	2.707839e+01	2.218655e+02
1.240000e-06	3.873834e-06	3.468173e-09	2.759134e+01	2.263494e+02
1.250000e-06	3.944483e-06	3.535371e-09	2.809454e+01	2.306673e+02
1.260000e-06	4.013823e-06	3.601221e-09	2.858841e+01	2.348244e+02
1.270000e-06	4.081815e-06	3.663067e-09	2.907268e+01	2.388241e+02
1.280000e-06	4.148370e-06	3.718580e-09	2.954672e+01	2.426684e+02
1.290000e-06	4.213186e-06	3.770785e-09	3.000837e+01	2.463583e+02
1.300000e-06	4.276344e-06	3.821874e-09	3.045821e+01	2.498937e+02
1.310000e-06	4.338055e-06	3.871567e-09	3.089775e+01	2.532742e+02
1.320000e-06	4.398392e-06	3.919614e-09	3.132750e+01	2.564990e+02
1.330000e-06	4.457446e-06	3.964045e-09	3.174811e+01	2.595677e+02
1.340000e-06	4.514840e-06	4.004445e-09	3.215690e+01	2.624808e+02
1.350000e-06	4.570413e-06	4.044171e-09	3.255271e+01	2.652398e+02
1.360000e-06	4.624389e-06	4.083835e-09	3.293716e+01	2.678476e+02
1.370000e-06	4.676635e-06	4.120043e-09	3.330928e+01	2.703087e+02
1.380000e-06	4.726845e-06	4.152000e-09	3.366690e+01	2.726293e+02
1.390000e-06	4.775037e-06	4.180608e-09	3.401015e+01	2.748167e+02
1.400000e-06	4.821468e-06	4.207828e-09	3.434085e+01	2.768793e+02
1.410000e-06	4.866315e-06	4.234465e-09	3.466028e+01	2.788262e+02
1.420000e-06	4.909652e-06	4.260875e-09	3.496894e+01	2.806660e+02
1.430000e-06	4.951133e-06	4.287688e-09	3.526439e+01	2.824070e+02
1.440000e-06	4.990766e-06	4.312614e-09	3.554668e+01	2.840563e+02
1.450000e-06	5.028775e-06	4.335317e-09	3.581739e+01	2.856191e+02
1.460000e-06	5.065138e-06	4.356807e-09	3.607639e+01	2.870992e+02
1.470000e-06	5.099793e-06	4.378528e-09	3.632322e+01	2.884981e+02
1.480000e-06	5.132479e-06	4.399055e-09	3.655603e+01	2.898159e+02
1.490000e-06	5.163320e-06	4.415420e-09	3.677569e+01	2.910512e+02
1.500000e-06	5.192499e-06	4.429251e-09	3.698352e+01	2.922019e+02
1.510000e-06	5.219996e-06	4.443616e-09	3.717937e+01	2.932656e+02
1.520000e-06	5.245467e-06	4.459053e-09	3.736078e+01	2.942401e+02
1.530000e-06	5.268816e-06	4.474171e-09	3.752708e+01	2.951245e+02
1.540000e-06	5.290354e-06	4.487969e-09	3.768049e+01	2.959188e+02
1.550000e-06	5.310191e-06	4.499619e-09	3.782178e+01	2.966246e+02
1.560000e-06	5.328182e-06	4.509906e-09	3.794992e+01	2.972448e+02
1.570000e-06	5.344147e-06	4.520689e-09	3.806363e+01	2.977837e+02
1.580000e-06	5.358184e-06	4.530061e-09	3.816361e+01	2.982461e+02
1.590000e-06	5.370266e-06	4.535844e-09	3.824966e+01	2.986371e+02
1.600000e-06	5.380078e-06	4.539065e-09	3.831955e+01	2.989614e+02
1.610000e-06	5.387718e-06	4.541573e-09	3.837396e+01	2.992232e+02
1.620000e-06	5.393542e-06	4.546733e-09	3.841545e+01	2.994250e+02
1.630000e-06	5.397616e-06	4.552940e-09	3.844446e+01	2.995683e+02
1.640000e-06	5.399723e-06	4.557032e-09	3.845947e+01	2.996530e+02
1.650000e-06	5.399798e-06	4.560212e-09	3.846000e+01	2.996781e+02
1.660000e-06	5.398143e-06	4.557788e-09	3.844822e+01	2.996416e+02
1.670000e-06	5.394846e-06	4.553844e-09	3.842474e+01	2.995417e+02
1.680000e-06	5.389813e-06	4.554745e-09	3.838889e+01	2.993766e+02
1.690000e-06	5.382865e-06	4.554665e-09	3.833940e+01	2.991458e+02
1.700000e-06	5.374157e-06	4.550033e-09	3.827738e+01	2.988498e+02
1.710000e-06	5.363910e-06	4.543683e-09	3.820439e+01	2.984909e+02
1.720000e-06	5.351967e-06	4.543739e-09	3.811933e+01	2.980726e+02
1.730000e-06	5.338083e-06	4.543581e-09	3.802044e+01	2.976000e+02
1.740000e-06	5.322047e-06	4.491381e-09	3.790622e+01	2.970784e+02
1.750000e-06	5.303565e-06	4.479323e-09	3.777459e+01	2.965134e+02
1.760000e-06	5.282414e-06	4.499100e-09	3.762393e+01	2.959099e+02
1.770000e-06	5.259035e-06	4.501739e-09	3.745742e+01	2.952715e+02
1.780000e-06	5.234543e-06	4.561243e-09	3.728298e+01	2.945997e+02
1.790000e-06	5.209386e-06	4.484658e-09	3.710379e+01	2.938938e+02
1.800000e-06	5.182621e-06	4.413379e-09	3.691316e+01	2.931508e+02
1.810000e-06	5.153622e-06	4.498793e-09	3.670662e+01	2.923653e+02
1.820000e-06	5.122946e-06	4.400586e-09	3.648813e+01	2.915303e+02
1.830000e-06	5.090552e-06	4.377786e-09	3.625740e+01	2.906378e+02
1.840000e-06	5.056108e-06	4.487400e-09	3.601208e+01	2.896793e+02
1.850000e-06	5.020068e-06	4.383558e-09	3.575538e+01	2.886471e+02
1.860000e-06	4.982186e-06	4.373026e-09	3.548556e+01	2.875347e+02
1.870000e-06	4.942390e-06	4.359837e-09	3.520212e+01	2.863376e+02
1.880000e-06	4.900956e-06	4.257516e-09	3.490700e+01	2.850536e+02
1.890000e-06	4.857692e-06	4.352019e-09	3.459886e+01	2.836832e+02
1.900000e-06	4.812903e-06	4.319398e-09	3.427985e+01	2.822289e+02
1.910000e-06	4.766310e-06	4.257474e-09	3.394799e+01	2.806951e+02
1.920000e-06	4.717654e-06	4.266845e-09	3.360144e+01	2.790877e+02
1.930000e-06	4.667425e-06	4.154271e-09	3.324369e+01	2.774129e+02
1.940000e-06	4.615452e-06	4.195564e-09	3.287351e+01	2.756767e+02
1.950000e-06	4.561431e-06	4.208605e-09	3.248874e+01	2.738841e+02
1.960000e-06	4.505473e-06	4.140073e-09	3.209019e+01	2.720390e+02
1.970000e-06	4.447756e-06	4.110506e-09	3.167909e+01	2.701434e+02
1.980000e-06	4.388600e-06	4.041958e-09	3.125776e+01	2.681974e+02
1.990000e-06	4.328019e-06	4.063384e-09	3.082627e+01	2.661998e+02
2.000000e-06	4.265792e-06	4.030829e-09	3.038306e+01	2.641480e+02
2.010000e-06	4.201885e-06	3.982016e-09	2.992788e+01	2.620385e+02
2.020000e-06	4.136426e-06	3.960325e-09	2.946165e+01	2.598680e+02
2.030000e-06	4.069530e-06	3.883733e-09	2.898518e+01	2.576332e+02
2.040000e-06	4.001292e-06	3.877162e-09	2.849916e+01	2.553317e+02
2.050000e-06	3.931662e-06	3.855645e-09	2.800322e+01	2.529621e+02
2.060000e-06	3.860385e-06	3.845987e-09	2.749555e+01	2.505241e+02
2.070000e-06	3.787705e-06	3.803310e-09	2.697789e+01	2.480185e+02
2.080000e-06	3.713782e-06	3.707758e-09	2.645137e+01	2.454469e+02
2.090000e-06	3.638474e-06	3.675906e-09	2.591499e+01	2.428113e+02
2.100000e-06	3.561744e-06	3.652495e-09	2.536848e+01	2.401136e+02
2.110000e-06	3.483471e-06	3.639025e-09	2.481098e+01	2.373555e+02
2.120000e-06	3.403812e-06	3.584586e-09	2.424362e+01	2.345377e+02
2.130000e-06	3.322958e-06	3.521329e-09	2.366774e+01	2.316600e+02
2.140000e-06	3.240947e-06	3.476103e-09	2.308361e+01	2.287211e+02
2.150000e-06	3.157885e-06	3.424998e-09	2.249200e+01	2.257184e+02
2.160000e-06	3.073873e-06	3.405120e-09	2.189363e+01	2.226486e+02
2.170000e-06	2.988798e-06	3.375016e-09	2.128768e+01	2.195078e+02
2.180000e-06	2.902357e-06	3.318267e-09	2.067201e+01	2.162917e+02
2.190000e-06	2.814616e-06	3.238987e-09	2.004708e+01	2.129962e+02
2.200000e-06	2.725936e-06	3.184892e-09	1.941545e+01	2.096178e+02
2.210000e-06	2.636370e-06	3.159175e-09	1.877752e+01	2.061536e+02
2.220000e-06	2.545847e-06	3.112632e-09	1.813276e+01	2.026015e+02
2.230000e-06	2.454527e-06	3.044110e-09	1.748234e+01	1.989605e+02
2.240000e-06	2.362509e-06	2.975572e-09	1.682694e+01	1.952304e+02
2.250000e-06	2.269705e-06	2.923583e-09	1.616595e+01	1.914117e+02
2.260000e-06	2.176048e-06	2.871715e-09	1.549888e+01	1.875054e+02
2.270000e-06	2.081343e-06	2.823796e-09	1.482434e+01	1.835126e+02
2.280000e-06	1.985596e-06	2.767107e-09	1.414238e+01	1.794344e+02
2.290000e-06	1.889099e-06	2.688545e-09	1.345509e+01	1.752717e+02
2.300000e-06	1.792093e-06	2.607996e-09	1.276416e+01	1.710248e+02
2.310000e-06	1.694609e-06	2.548438e-09	1.206983e+01	1.666933e+02
2.320000e-06	1.596611e-06	2.502572e-09	1.137185e+01	1.622763e+02
2.330000e-06	1.498129e-06	2.437191e-09	1.067041e+01	1.577723e+02
2.340000e-06	1.399142e-06	2.354410e-09	9.965371e+00	1.531790e+02
2.350000e-06	1.299665e-06	2.272998e-09	9.256848e+00	1.484938e+02
2.360000e-06	1.199763e-06	2.204818e-09	8.545296e+00	1.437136e+02
2.370000e-06	1.099656e-06	2.143017e-09	7.832290e+00	1.388350e+02
2.380000e-06	9.992983e-07	2.074967e-09	7.117491e+00	1.338546e+02
2.390000e-06	8.985632e-07	1.995262e-09	6.400007e+00	1.287687e+02
2.400000e-06	7.974699e-07	1.903503e-09	5.679971e+00	1.235739e+02
2.410000e-06	6.960428e-07	1.814716e-09	4.957557e+00	1.182666e+02
2.420000e-06	5.944562e-07	1.739087e-09	4.234008e+00	1.128436e+02
2.430000e-06	4.927198e-07	1.666549e-09	3.509391e+00	1.073015e+02
2.440000e-06	3.907451e-07	1.583927e-09	2.783078e+00	1.016374e+02
2.450000e-06	2.885964e-07	1.490473e-09	2.055525e+00	9.584854e+01
2.460000e-06	1.862727e-07	1.394416e-09	1.326725e+00	8.993208e+01
2.470000e-06	8.375149e-08	1.303923e-09	5.965191e-01	8.388536e+01
2.480000e-06	-1.886731e-08	1.214186e-09	-1.343822e-01	7.770559e+01
2.490000e-06	-1.214926e-07	1.115822e-09	-8.653298e-01	7.138978e+01
2.500000e-06	-2.240948e-07	1.010390e-09	-1.596113e+00	6.493458e+01
2.510000e-06	-3.266019e-07	9.056616e-10	-2.326219e+00	5.833613e+01
2.520000e-06	-4.289227e-07	8.061846e-10	-3.054997e+00	5.159002e+01
2.530000e-06	-5.309846e-07	7.065895e-10	-3.781932e+00	4.469121e+01
2.540000e-06	-6.327742e-07	6.019076e-10	-4.506928e+00	3.763418e+01
2.550000e-06	-7.343054e-07	4.895914e-10	-5.230082e+00	3.041314e+01
2.560000e-06	-8.355473e-07	3.676336e-10	-5.951177e+00	2.302243e+01
2.570000e-06	-9.365309e-07	2.446089e-10	-6.670431e+00	1.545706e+01
2.580000e-06	-1.037191e-06	1.276017e-10	-7.387385e+00	7.713368e+00
2.590000e-06	-1.137467e-06	1.174198e-11	-8.101596e+00	-2.101511e-01
2.600000e-06	-1.237310e-06	-1.106775e-10	-8.812724e+00	-8.312062e+00
2.610000e-06	-1.336666e-06	-2.412288e-10	-9.520386e+00	-1.658718e+01
2.620000e-06	-1.435578e-06	-3.762371e-10	-1.022489e+01	-2.502586e+01
2.630000e-06	-1.534035e-06	-5.102055e-10	-1.092615e+01	-3.361352e+01
2.640000e-06	-1.631928e-06	-6.411001e-10	-1.162339e+01	-4.233036e+01
2.650000e-06	-1.729210e-06	-7.723394e-10	-1.231628e+01	-5.115142e+01
2.660000e-06	-1.825925e-06	-9.081809e-10	-1.300513e+01	-6.004692e+01
2.670000e-06	-1.922153e-06	-1.048112e-09	-1.369052e+01	-6.898299e+01
2.680000e-06	-2.017825e-06	-1.186607e-09	-1.437194e+01	-7.792266e+01
2.690000e-06	-2.112660e-06	-1.320623e-09	-1.504740e+01	-8.682702e+01
2.700000e-06	-2.206472e-06	-1.453967e-09	-1.571558e+01	-9.565666e+01
2.710000e-06	-2.299355e-06	-1.591249e-09	-1.637713e+01	-1.043730e+02
2.720000e-06	-2.391412e-06	-1.728088e-09	-1.703281e+01	-1.129399e+02
2.730000e-06	-2.482654e-06	-1.857347e-09	-1.768268e+01	-1.213243e+02
2.740000e-06	-2.572973e-06	-1.978530e-09	-1.832597e+01	-1.294979e+02
2.750000e-06	-2.662325e-06	-2.096467e-09	-1.896238e+01	-1.374375e+02
2.760000e-06	-2.750882e-06	-2.213438e-09	-1.959313e+01	-1.451253e+02
2.770000e-06	-2.838701e-06	-2.328968e-09	-2.021862e+01	-1.525493e+02
2.780000e-06	-2.925532e-06	-2.440825e-09	-2.083707e+01	-1.597028e+02
2.790000e-06	-3.011091e-06	-2.546290e-09	-2.144647e+01	-1.665838e+02
2.800000e-06	-3.095459e-06	-2.646672e-09	-2.204737e+01	-1.731950e+02
2.810000e-06	-3.178843e-06	-2.743697e-09	-2.264127e+01	-1.795422e+02
2.820000e-06	-3.261220e-06	-2.837607e-09	-2.322801e+01	-1.856340e+02
2.830000e-06	-3.342492e-06	-2.927617e-09	-2.380687e+01	-1.914810e+02
2.840000e-06	-3.422726e-06	-3.011880e-09	-2.437833e+01	-1.970947e+02
2.850000e-06	-3.501790e-06	-3.090827e-09	-2.494146e+01	-2.024872e+02
2.860000e-06	-3.579352e-06	-3.167606e-09	-2.549390e+01	-2.076704e+02
2.870000e-06	-3.655332e-06	-3.242456e-09	-2.603506e+01	-2.126555e+02
2.880000e-06	-3.729847e-06	-3.315429e-09	-2.656580e+01	-2.174529e+02
2.890000e-06	-3.803003e-06	-3.386589e-09	-2.708685e+01	-2.220717e+02
2.900000e-06	-3.874910e-06	-3.455049e-09	-2.759900e+01	-2.265196e+02
2.910000e-06	-3.945381e-06	-3.520399e-09	-2.810094e+01	-2.308028e+02
2.920000e-06	-4.014192e-06	-3.583068e-09	-2.859104e+01	-2.349260e+02
2.930000e-06	-4.081570e-06	-3.644951e-09	-2.907094e+01	-2.388923e+02
2.940000e-06	-4.147583e-06	-3.704800e-09	-2.954111e+01	-2.427036e+02
