# Temperatura_=_45.71
# Concentracion g/m^3_=_15000.0
# C_Vs_to_Am_M_A/Vsm_=_65563218390.804596
# pendiente_HvsI_1/m_=_3716.3
# ordenada_HvsI_A/m_=_1297.0
# frecuencia_Hz_=_301569.1370630833

Tiempo_(s)	Campo_(V.s)	Magnetizacion_(V.s)	Campo_(kA/m)	Magnetizacion_(A/m)
0.000000e+00	-5.382907e-06	-5.181291e-09	-3.834470e+01	-3.375400e+02
1.000000e-08	-5.380121e-06	-5.183252e-09	-3.832486e+01	-3.374166e+02
2.000000e-08	-5.375596e-06	-5.178935e-09	-3.829262e+01	-3.372232e+02
3.000000e-08	-5.369503e-06	-5.171745e-09	-3.824922e+01	-3.369584e+02
4.000000e-08	-5.361800e-06	-5.163759e-09	-3.819435e+01	-3.366210e+02
5.000000e-08	-5.352251e-06	-5.154443e-09	-3.812633e+01	-3.362100e+02
6.000000e-08	-5.340654e-06	-5.146845e-09	-3.804371e+01	-3.357254e+02
7.000000e-08	-5.327099e-06	-5.138034e-09	-3.794716e+01	-3.351680e+02
8.000000e-08	-5.311456e-06	-5.132217e-09	-3.783573e+01	-3.345397e+02
9.000000e-08	-5.293567e-06	-5.153802e-09	-3.770829e+01	-3.338438e+02
1.000000e-07	-5.273609e-06	-5.151059e-09	-3.756613e+01	-3.330841e+02
1.100000e-07	-5.251795e-06	-5.114012e-09	-3.741074e+01	-3.322650e+02
1.200000e-07	-5.228319e-06	-5.085984e-09	-3.724350e+01	-3.313909e+02
1.300000e-07	-5.203210e-06	-5.027338e-09	-3.706465e+01	-3.304653e+02
1.400000e-07	-5.176445e-06	-5.008652e-09	-3.687399e+01	-3.294905e+02
1.500000e-07	-5.148153e-06	-5.073842e-09	-3.667245e+01	-3.284671e+02
1.600000e-07	-5.118461e-06	-5.025524e-09	-3.646094e+01	-3.273935e+02
1.700000e-07	-5.087170e-06	-4.999473e-09	-3.623805e+01	-3.262662e+02
1.800000e-07	-5.053770e-06	-5.002014e-09	-3.600012e+01	-3.250799e+02
1.900000e-07	-5.018446e-06	-4.890377e-09	-3.574849e+01	-3.238277e+02
2.000000e-07	-4.981643e-06	-4.905367e-09	-3.548633e+01	-3.225021e+02
2.100000e-07	-4.943194e-06	-4.954980e-09	-3.521244e+01	-3.210954e+02
2.200000e-07	-4.902891e-06	-4.910104e-09	-3.492535e+01	-3.196010e+02
2.300000e-07	-4.860596e-06	-4.893635e-09	-3.462406e+01	-3.180135e+02
2.400000e-07	-4.816392e-06	-4.834332e-09	-3.430918e+01	-3.163297e+02
2.500000e-07	-4.770482e-06	-4.765648e-09	-3.398214e+01	-3.145486e+02
2.600000e-07	-4.722633e-06	-4.768568e-09	-3.364129e+01	-3.126718e+02
2.700000e-07	-4.672651e-06	-4.742149e-09	-3.328525e+01	-3.107028e+02
2.800000e-07	-4.620641e-06	-4.717478e-09	-3.291476e+01	-3.086470e+02
2.900000e-07	-4.566762e-06	-4.670925e-09	-3.253096e+01	-3.065107e+02
3.000000e-07	-4.511299e-06	-4.617570e-09	-3.213588e+01	-3.043003e+02
3.100000e-07	-4.454187e-06	-4.613235e-09	-3.172904e+01	-3.020217e+02
3.200000e-07	-4.395283e-06	-4.603528e-09	-3.130944e+01	-2.996795e+02
3.300000e-07	-4.334805e-06	-4.549685e-09	-3.087863e+01	-2.972768e+02
3.400000e-07	-4.272884e-06	-4.469820e-09	-3.043754e+01	-2.948146e+02
3.500000e-07	-4.209627e-06	-4.432358e-09	-2.998694e+01	-2.922919e+02
3.600000e-07	-4.144841e-06	-4.416212e-09	-2.952544e+01	-2.897062e+02
3.700000e-07	-4.078327e-06	-4.395353e-09	-2.905163e+01	-2.870539e+02
3.800000e-07	-4.010293e-06	-4.365079e-09	-2.856700e+01	-2.843307e+02
3.900000e-07	-3.940904e-06	-4.294429e-09	-2.807271e+01	-2.815327e+02
4.000000e-07	-3.870218e-06	-4.223420e-09	-2.756919e+01	-2.786564e+02
4.100000e-07	-3.798330e-06	-4.180439e-09	-2.705710e+01	-2.756997e+02
4.200000e-07	-3.724993e-06	-4.153608e-09	-2.653469e+01	-2.726618e+02
4.300000e-07	-3.649999e-06	-4.125543e-09	-2.600047e+01	-2.695433e+02
4.400000e-07	-3.573503e-06	-4.069000e-09	-2.545556e+01	-2.663461e+02
4.500000e-07	-3.495597e-06	-3.997968e-09	-2.490060e+01	-2.630727e+02
4.600000e-07	-3.416295e-06	-3.935169e-09	-2.433570e+01	-2.597260e+02
4.700000e-07	-3.335702e-06	-3.892646e-09	-2.376160e+01	-2.563084e+02
4.800000e-07	-3.253912e-06	-3.856924e-09	-2.317898e+01	-2.528215e+02
4.900000e-07	-3.171017e-06	-3.803230e-09	-2.258848e+01	-2.492656e+02
5.000000e-07	-3.087168e-06	-3.739373e-09	-2.199119e+01	-2.456395e+02
5.100000e-07	-3.002397e-06	-3.674710e-09	-2.138733e+01	-2.419406e+02
5.200000e-07	-2.916610e-06	-3.620162e-09	-2.077624e+01	-2.381649e+02
5.300000e-07	-2.829868e-06	-3.566822e-09	-2.015833e+01	-2.343076e+02
5.400000e-07	-2.742308e-06	-3.501500e-09	-1.953461e+01	-2.303636e+02
5.500000e-07	-2.653700e-06	-3.423924e-09	-1.890341e+01	-2.263281e+02
5.600000e-07	-2.563785e-06	-3.347251e-09	-1.826292e+01	-2.221971e+02
5.700000e-07	-2.472812e-06	-3.291644e-09	-1.761488e+01	-2.179679e+02
5.800000e-07	-2.381076e-06	-3.246005e-09	-1.696141e+01	-2.136390e+02
5.900000e-07	-2.288532e-06	-3.186455e-09	-1.630217e+01	-2.092108e+02
6.000000e-07	-2.195192e-06	-3.105551e-09	-1.563727e+01	-2.046847e+02
6.100000e-07	-2.101008e-06	-3.021661e-09	-1.496636e+01	-2.000633e+02
6.200000e-07	-2.006090e-06	-2.945570e-09	-1.429022e+01	-1.953492e+02
6.300000e-07	-1.910598e-06	-2.876029e-09	-1.360999e+01	-1.905453e+02
6.400000e-07	-1.814430e-06	-2.809629e-09	-1.292495e+01	-1.856534e+02
6.500000e-07	-1.717469e-06	-2.736094e-09	-1.223425e+01	-1.806744e+02
6.600000e-07	-1.619616e-06	-2.651416e-09	-1.153720e+01	-1.756077e+02
6.700000e-07	-1.521062e-06	-2.565203e-09	-1.083516e+01	-1.704511e+02
6.800000e-07	-1.422055e-06	-2.489320e-09	-1.012989e+01	-1.652011e+02
6.900000e-07	-1.322637e-06	-2.414630e-09	-9.421701e+00	-1.598532e+02
7.000000e-07	-1.222793e-06	-2.330179e-09	-8.710469e+00	-1.544023e+02
7.100000e-07	-1.122582e-06	-2.239529e-09	-7.996624e+00	-1.488433e+02
7.200000e-07	-1.022075e-06	-2.150146e-09	-7.280671e+00	-1.431715e+02
7.300000e-07	-9.212854e-07	-2.062541e-09	-6.562702e+00	-1.373831e+02
7.400000e-07	-8.201590e-07	-1.975461e-09	-5.842336e+00	-1.314752e+02
7.500000e-07	-7.187338e-07	-1.885620e-09	-5.119842e+00	-1.254465e+02
7.600000e-07	-6.170325e-07	-1.788062e-09	-4.395381e+00	-1.192964e+02
7.700000e-07	-5.150663e-07	-1.685167e-09	-3.669033e+00	-1.130249e+02
7.800000e-07	-4.129504e-07	-1.585866e-09	-2.941619e+00	-1.066322e+02
7.900000e-07	-3.107163e-07	-1.493343e-09	-2.213362e+00	-1.001182e+02
8.000000e-07	-2.083431e-07	-1.398230e-09	-1.484115e+00	-9.348131e+01
8.100000e-07	-1.058289e-07	-1.294933e-09	-7.538640e-01	-8.671870e+01
8.200000e-07	-3.246390e-09	-1.187078e-09	-2.312539e-02	-7.982539e+01
8.300000e-07	9.933224e-08	-1.078219e-09	7.075852e-01	-7.279434e+01
8.400000e-07	2.018632e-07	-9.703087e-10	1.437956e+00	-6.561650e+01
8.500000e-07	3.043435e-07	-8.628448e-10	2.167966e+00	-5.828115e+01
8.600000e-07	4.067238e-07	-7.507528e-10	2.897264e+00	-5.077655e+01
8.700000e-07	5.089892e-07	-6.313821e-10	3.625743e+00	-4.309065e+01
8.800000e-07	6.110997e-07	-5.100831e-10	4.353119e+00	-3.521204e+01
8.900000e-07	7.129779e-07	-3.896568e-10	5.078840e+00	-2.713087e+01
9.000000e-07	8.145941e-07	-2.675367e-10	5.802695e+00	-1.883978e+01
9.100000e-07	9.159004e-07	-1.403773e-10	6.524342e+00	-1.033477e+01
9.200000e-07	1.016841e-06	-7.111981e-12	7.243384e+00	-1.615829e+00
9.300000e-07	1.117439e-06	1.309448e-10	7.959986e+00	7.312536e+00
9.400000e-07	1.217753e-06	2.731039e-10	8.674563e+00	1.644098e+01
9.500000e-07	1.317722e-06	4.152255e-10	9.386688e+00	2.575526e+01
9.600000e-07	1.417222e-06	5.570186e-10	1.009546e+01	3.523630e+01
9.700000e-07	1.516192e-06	7.028524e-10	1.080047e+01	4.486048e+01
9.800000e-07	1.614549e-06	8.530896e-10	1.150111e+01	5.460007e+01
9.900000e-07	1.712124e-06	1.004034e-09	1.219617e+01	6.442377e+01
1.000000e-06	1.808873e-06	1.155270e-09	1.288536e+01	7.429735e+01
1.010000e-06	1.904815e-06	1.308527e-09	1.356880e+01	8.418442e+01
1.020000e-06	2.000067e-06	1.463260e-09	1.424731e+01	9.404718e+01
1.030000e-06	2.094690e-06	1.616788e-09	1.492135e+01	1.038473e+02
1.040000e-06	2.188606e-06	1.767399e-09	1.559036e+01	1.135470e+02
1.050000e-06	2.281769e-06	1.913635e-09	1.625399e+01	1.231094e+02
1.060000e-06	2.374211e-06	2.052892e-09	1.691250e+01	1.325000e+02
1.070000e-06	2.466000e-06	2.186419e-09	1.756635e+01	1.416873e+02
1.080000e-06	2.557016e-06	2.319863e-09	1.821469e+01	1.506435e+02
1.090000e-06	2.646938e-06	2.453834e-09	1.885525e+01	1.593451e+02
1.100000e-06	2.735602e-06	2.584516e-09	1.948684e+01	1.677737e+02
1.110000e-06	2.823205e-06	2.707129e-09	2.011088e+01	1.759158e+02
1.120000e-06	2.909917e-06	2.823308e-09	2.072856e+01	1.837631e+02
1.130000e-06	2.995710e-06	2.938010e-09	2.133970e+01	1.913124e+02
1.140000e-06	3.080540e-06	3.052075e-09	2.194398e+01	1.985652e+02
1.150000e-06	3.164458e-06	3.160608e-09	2.254176e+01	2.055269e+02
1.160000e-06	3.247396e-06	3.260799e-09	2.313256e+01	2.122064e+02
1.170000e-06	3.329104e-06	3.355197e-09	2.371461e+01	2.186148e+02
1.180000e-06	3.409576e-06	3.445211e-09	2.428784e+01	2.247652e+02
1.190000e-06	3.488812e-06	3.534451e-09	2.485227e+01	2.306712e+02
1.200000e-06	3.566784e-06	3.623552e-09	2.540769e+01	2.363466e+02
1.210000e-06	3.643502e-06	3.709270e-09	2.595419e+01	2.418046e+02
1.220000e-06	3.718850e-06	3.789784e-09	2.649093e+01	2.470572e+02
1.230000e-06	3.792652e-06	3.866297e-09	2.701665e+01	2.521151e+02
1.240000e-06	3.864921e-06	3.940540e-09	2.753145e+01	2.569875e+02
1.250000e-06	3.935773e-06	4.013592e-09	2.803616e+01	2.616819e+02
1.260000e-06	4.005177e-06	4.083679e-09	2.853056e+01	2.662044e+02
1.270000e-06	4.073301e-06	4.150395e-09	2.901583e+01	2.705599e+02
1.280000e-06	4.140024e-06	4.212309e-09	2.949113e+01	2.747520e+02
1.290000e-06	4.205040e-06	4.270516e-09	2.995426e+01	2.787836e+02
1.300000e-06	4.268419e-06	4.326719e-09	3.040574e+01	2.826569e+02
1.310000e-06	4.330319e-06	4.382224e-09	3.084668e+01	2.863736e+02
1.320000e-06	4.390865e-06	4.436779e-09	3.127797e+01	2.899350e+02
1.330000e-06	4.450046e-06	4.487060e-09	3.169954e+01	2.933423e+02
1.340000e-06	4.507575e-06	4.533779e-09	3.210935e+01	2.965967e+02
1.350000e-06	4.563335e-06	4.578671e-09	3.250655e+01	2.996995e+02
1.360000e-06	4.617466e-06	4.623008e-09	3.289214e+01	3.026520e+02
1.370000e-06	4.669898e-06	4.664210e-09	3.326564e+01	3.054560e+02
1.380000e-06	4.720271e-06	4.699931e-09	3.362447e+01	3.081138e+02
1.390000e-06	4.768601e-06	4.733801e-09	3.396875e+01	3.106281e+02
1.400000e-06	4.815256e-06	4.767273e-09	3.430109e+01	3.130026e+02
1.410000e-06	4.860338e-06	4.800257e-09	3.462223e+01	3.152414e+02
1.420000e-06	4.903871e-06	4.831928e-09	3.493233e+01	3.173493e+02
1.430000e-06	4.945577e-06	4.861496e-09	3.522942e+01	3.193317e+02
1.440000e-06	4.985358e-06	4.887703e-09	3.551279e+01	3.211943e+02
1.450000e-06	5.023486e-06	4.910624e-09	3.578439e+01	3.229431e+02
1.460000e-06	5.060059e-06	4.933167e-09	3.604492e+01	3.245837e+02
1.470000e-06	5.094892e-06	4.956027e-09	3.629305e+01	3.261212e+02
1.480000e-06	5.127772e-06	4.977584e-09	3.652727e+01	3.275603e+02
1.490000e-06	5.158832e-06	4.995153e-09	3.674852e+01	3.289045e+02
1.500000e-06	5.188224e-06	5.010688e-09	3.695790e+01	3.301564e+02
1.510000e-06	5.215870e-06	5.027214e-09	3.715483e+01	3.313177e+02
1.520000e-06	5.241547e-06	5.044160e-09	3.733774e+01	3.323892e+02
1.530000e-06	5.265205e-06	5.060321e-09	3.750626e+01	3.333711e+02
1.540000e-06	5.286995e-06	5.073712e-09	3.766148e+01	3.342633e+02
1.550000e-06	5.307024e-06	5.084558e-09	3.780415e+01	3.350658e+02
1.560000e-06	5.325247e-06	5.094732e-09	3.793396e+01	3.357787e+02
1.570000e-06	5.341503e-06	5.105931e-09	3.804976e+01	3.364030e+02
1.580000e-06	5.355766e-06	5.117321e-09	3.815136e+01	3.369400e+02
1.590000e-06	5.368044e-06	5.125272e-09	3.823882e+01	3.373919e+02
1.600000e-06	5.378114e-06	5.129583e-09	3.831056e+01	3.377614e+02
1.610000e-06	5.386011e-06	5.133230e-09	3.836681e+01	3.380516e+02
1.620000e-06	5.392063e-06	5.139285e-09	3.840993e+01	3.382657e+02
1.630000e-06	5.396356e-06	5.145733e-09	3.844050e+01	3.384064e+02
1.640000e-06	5.398732e-06	5.149724e-09	3.845743e+01	3.384760e+02
1.650000e-06	5.399093e-06	5.151205e-09	3.846000e+01	3.384759e+02
1.660000e-06	5.397627e-06	5.148170e-09	3.844956e+01	3.384068e+02
1.670000e-06	5.394508e-06	5.142266e-09	3.842734e+01	3.382683e+02
1.680000e-06	5.389676e-06	5.139756e-09	3.839292e+01	3.380595e+02
1.690000e-06	5.382928e-06	5.137498e-09	3.834485e+01	3.377790e+02
1.700000e-06	5.374377e-06	5.133374e-09	3.828394e+01	3.374257e+02
1.710000e-06	5.364275e-06	5.127525e-09	3.821198e+01	3.369988e+02
1.720000e-06	5.352544e-06	5.122934e-09	3.812842e+01	3.364983e+02
1.730000e-06	5.338931e-06	5.120397e-09	3.803144e+01	3.359253e+02
1.740000e-06	5.323199e-06	5.076587e-09	3.791937e+01	3.352821e+02
1.750000e-06	5.305062e-06	5.050913e-09	3.779018e+01	3.345719e+02
1.760000e-06	5.284244e-06	5.065617e-09	3.764188e+01	3.337990e+02
1.770000e-06	5.261160e-06	5.067478e-09	3.747745e+01	3.329676e+02
1.780000e-06	5.236858e-06	5.110963e-09	3.730433e+01	3.320820e+02
1.790000e-06	5.211788e-06	5.069532e-09	3.712575e+01	3.311456e+02
1.800000e-06	5.185235e-06	4.972325e-09	3.693660e+01	3.301602e+02
1.810000e-06	5.156481e-06	5.029103e-09	3.673177e+01	3.291260e+02
1.820000e-06	5.125955e-06	4.988650e-09	3.651433e+01	3.280411e+02
1.830000e-06	5.093784e-06	4.940992e-09	3.628516e+01	3.269015e+02
1.840000e-06	5.059627e-06	5.028549e-09	3.604184e+01	3.257015e+02
1.850000e-06	5.023834e-06	4.944889e-09	3.578687e+01	3.244340e+02
1.860000e-06	4.986307e-06	4.880955e-09	3.551956e+01	3.230915e+02
1.870000e-06	4.946895e-06	4.889068e-09	3.523880e+01	3.216664e+02
1.880000e-06	4.905761e-06	4.802298e-09	3.494579e+01	3.201523e+02
1.890000e-06	4.862800e-06	4.849659e-09	3.463976e+01	3.185441e+02
1.900000e-06	4.818254e-06	4.854317e-09	3.432244e+01	3.168393e+02
1.910000e-06	4.771967e-06	4.785895e-09	3.399272e+01	3.150373e+02
1.920000e-06	4.723602e-06	4.790483e-09	3.364819e+01	3.131402e+02
1.930000e-06	4.673611e-06	4.688936e-09	3.329209e+01	3.111520e+02
1.940000e-06	4.621936e-06	4.695882e-09	3.292399e+01	3.090782e+02
1.950000e-06	4.568186e-06	4.712492e-09	3.254110e+01	3.069252e+02
1.960000e-06	4.512443e-06	4.619631e-09	3.214402e+01	3.046996e+02
1.970000e-06	4.454951e-06	4.590753e-09	3.173448e+01	3.024068e+02
1.980000e-06	4.396005e-06	4.544810e-09	3.131458e+01	3.000513e+02
1.990000e-06	4.335599e-06	4.543005e-09	3.088429e+01	2.976357e+02
2.000000e-06	4.273520e-06	4.511556e-09	3.044207e+01	2.951604e+02
2.010000e-06	4.209816e-06	4.444133e-09	2.998828e+01	2.926243e+02
2.020000e-06	4.144580e-06	4.416950e-09	2.952358e+01	2.900245e+02
2.030000e-06	4.077853e-06	4.338890e-09	2.904826e+01	2.873572e+02
2.040000e-06	4.009770e-06	4.320783e-09	2.856328e+01	2.846182e+02
2.050000e-06	3.940245e-06	4.304684e-09	2.806801e+01	2.818034e+02
2.060000e-06	3.869192e-06	4.268094e-09	2.756188e+01	2.789099e+02
2.070000e-06	3.796752e-06	4.218254e-09	2.704585e+01	2.759356e+02
2.080000e-06	3.722958e-06	4.123019e-09	2.652019e+01	2.728801e+02
2.090000e-06	3.647822e-06	4.085741e-09	2.598496e+01	2.697444e+02
2.100000e-06	3.571218e-06	4.051467e-09	2.543928e+01	2.665305e+02
2.110000e-06	3.492967e-06	4.021751e-09	2.488187e+01	2.632409e+02
2.120000e-06	3.413417e-06	3.973041e-09	2.431520e+01	2.598787e+02
2.130000e-06	3.332791e-06	3.901218e-09	2.374087e+01	2.564459e+02
2.140000e-06	3.250993e-06	3.844383e-09	2.315819e+01	2.529441e+02
2.150000e-06	3.168103e-06	3.781682e-09	2.256772e+01	2.493732e+02
2.160000e-06	3.084278e-06	3.745381e-09	2.197060e+01	2.457316e+02
2.170000e-06	2.999396e-06	3.698467e-09	2.136595e+01	2.420164e+02
2.180000e-06	2.913131e-06	3.634168e-09	2.075145e+01	2.382235e+02
2.190000e-06	2.825592e-06	3.564317e-09	2.012787e+01	2.343478e+02
2.200000e-06	2.737073e-06	3.509503e-09	1.949732e+01	2.303845e+02
2.210000e-06	2.647641e-06	3.467793e-09	1.886025e+01	2.263286e+02
2.220000e-06	2.557285e-06	3.401208e-09	1.821661e+01	2.221766e+02
2.230000e-06	2.466083e-06	3.322079e-09	1.756695e+01	2.179258e+02
2.240000e-06	2.374214e-06	3.245141e-09	1.691252e+01	2.135755e+02
2.250000e-06	2.281623e-06	3.183069e-09	1.625295e+01	2.091259e+02
2.260000e-06	2.188053e-06	3.123096e-09	1.558642e+01	2.045790e+02
2.270000e-06	2.093442e-06	3.064338e-09	1.491247e+01	1.999373e+02
2.280000e-06	1.997904e-06	2.996371e-09	1.423190e+01	1.952036e+02
2.290000e-06	1.901635e-06	2.910007e-09	1.354614e+01	1.903805e+02
2.300000e-06	1.804800e-06	2.824856e-09	1.285634e+01	1.854698e+02
2.310000e-06	1.707451e-06	2.757183e-09	1.216289e+01	1.804719e+02
2.320000e-06	1.609541e-06	2.696384e-09	1.146543e+01	1.753860e+02
2.330000e-06	1.511077e-06	2.617296e-09	1.076403e+01	1.702095e+02
2.340000e-06	1.412133e-06	2.527087e-09	1.005922e+01	1.649387e+02
2.350000e-06	1.312779e-06	2.437719e-09	9.351476e+00	1.595691e+02
2.360000e-06	1.213106e-06	2.355787e-09	8.641461e+00	1.540953e+02
2.370000e-06	1.113207e-06	2.277409e-09	7.929839e+00	1.485123e+02
2.380000e-06	1.013080e-06	2.196531e-09	7.216593e+00	1.428156e+02
2.390000e-06	9.125484e-07	2.108939e-09	6.500465e+00	1.370016e+02
2.400000e-06	8.114712e-07	2.012641e-09	5.780449e+00	1.310678e+02
2.410000e-06	7.100021e-07	1.917852e-09	5.057643e+00	1.250129e+02
2.420000e-06	6.083203e-07	1.829333e-09	4.333320e+00	1.188365e+02
2.430000e-06	5.063937e-07	1.739613e-09	3.607254e+00	1.125389e+02
2.440000e-06	4.041974e-07	1.640894e-09	2.879267e+00	1.061201e+02
2.450000e-06	3.018705e-07	1.535635e-09	2.150350e+00	9.957967e+01
2.460000e-06	1.994196e-07	1.430205e-09	1.420549e+00	9.291600e+01
2.470000e-06	9.676824e-08	1.329281e-09	6.893207e-01	8.612569e+01
2.480000e-06	-5.967185e-09	1.227888e-09	-4.250676e-02	7.920336e+01
2.490000e-06	-1.087073e-07	1.118856e-09	-7.743677e-01	7.214150e+01
2.500000e-06	-2.114440e-07	1.002998e-09	-1.506204e+00	6.493068e+01
2.510000e-06	-3.140929e-07	8.853645e-10	-2.237415e+00	5.755990e+01
2.520000e-06	-4.166400e-07	7.702606e-10	-2.967901e+00	5.001727e+01
2.530000e-06	-5.190270e-07	6.555718e-10	-3.697247e+00	4.229082e+01
2.540000e-06	-6.211799e-07	5.378125e-10	-4.424925e+00	3.436938e+01
2.550000e-06	-7.230475e-07	4.139814e-10	-5.150570e+00	2.624357e+01
2.560000e-06	-8.244328e-07	2.820335e-10	-5.872780e+00	1.790668e+01
2.570000e-06	-9.253428e-07	1.464768e-10	-6.591605e+00	9.355497e+00
2.580000e-06	-1.025854e-06	1.364810e-11	-7.307590e+00	5.909576e-01
2.590000e-06	-1.125962e-06	-1.188434e-10	-8.020698e+00	-8.381413e+00
2.600000e-06	-1.225752e-06	-2.582707e-10	-8.731545e+00	-1.755123e+01
2.610000e-06	-1.325207e-06	-4.048542e-10	-9.440007e+00	-2.690318e+01
2.620000e-06	-1.424171e-06	-5.527346e-10	-1.014497e+01	-3.641721e+01
2.630000e-06	-1.522599e-06	-6.974894e-10	-1.084611e+01	-4.606876e+01
2.640000e-06	-1.620460e-06	-8.413528e-10	-1.154322e+01	-5.582930e+01
2.650000e-06	-1.717774e-06	-9.883754e-10	-1.223643e+01	-6.566683e+01
2.660000e-06	-1.814568e-06	-1.139888e-09	-1.292593e+01	-7.554661e+01
2.670000e-06	-1.910831e-06	-1.293620e-09	-1.361165e+01	-8.543185e+01
2.680000e-06	-2.006512e-06	-1.443918e-09	-1.429323e+01	-9.528461e+01
2.690000e-06	-2.101461e-06	-1.588411e-09	-1.496959e+01	-1.050666e+02
2.700000e-06	-2.195483e-06	-1.730084e-09	-1.563935e+01	-1.147400e+02
2.710000e-06	-2.288474e-06	-1.875723e-09	-1.630176e+01	-1.242686e+02
2.720000e-06	-2.380514e-06	-2.023223e-09	-1.695740e+01	-1.336183e+02
2.730000e-06	-2.471733e-06	-2.165757e-09	-1.760719e+01	-1.427585e+02
2.740000e-06	-2.562099e-06	-2.302600e-09	-1.825091e+01	-1.516621e+02
2.750000e-06	-2.651572e-06	-2.435427e-09	-1.888825e+01	-1.603068e+02
2.760000e-06	-2.740208e-06	-2.564241e-09	-1.951965e+01	-1.686751e+02
2.770000e-06	-2.828073e-06	-2.687656e-09	-2.014555e+01	-1.767547e+02
2.780000e-06	-2.915006e-06	-2.806472e-09	-2.076481e+01	-1.845385e+02
2.790000e-06	-3.000721e-06	-2.919697e-09	-2.137539e+01	-1.920242e+02
2.800000e-06	-3.085243e-06	-3.028221e-09	-2.197748e+01	-1.992142e+02
2.810000e-06	-3.168760e-06	-3.134929e-09	-2.257240e+01	-2.061148e+02
2.820000e-06	-3.251277e-06	-3.239713e-09	-2.316021e+01	-2.127353e+02
2.830000e-06	-3.332689e-06	-3.340909e-09	-2.374014e+01	-2.190875e+02
2.840000e-06	-3.412985e-06	-3.435270e-09	-2.431212e+01	-2.251845e+02
2.850000e-06	-3.492101e-06	-3.521901e-09	-2.487570e+01	-2.310401e+02
2.860000e-06	-3.569744e-06	-3.604584e-09	-2.542878e+01	-2.366681e+02
2.870000e-06	-3.645863e-06	-3.685296e-09	-2.597101e+01	-2.420812e+02
2.880000e-06	-3.720623e-06	-3.764441e-09	-2.650356e+01	-2.472914e+02
2.890000e-06	-3.793980e-06	-3.841198e-09	-2.702611e+01	-2.523091e+02
2.900000e-06	-3.866046e-06	-3.914320e-09	-2.753946e+01	-2.571429e+02
2.910000e-06	-3.936751e-06	-3.984137e-09	-2.804313e+01	-2.618002e+02
2.920000e-06	-4.005844e-06	-4.052673e-09	-2.853530e+01	-2.662867e+02
2.930000e-06	-4.073425e-06	-4.122592e-09	-2.901671e+01	-2.706071e+02
2.940000e-06	-4.139646e-06	-4.190803e-09	-2.948843e+01	-2.747648e+02
