# Temperatura_=_74.96
# Concentracion g/m^3_=_15000.0
# C_Vs_to_Am_M_A/Vsm_=_65563218390.804596
# pendiente_HvsI_1/m_=_3716.3
# ordenada_HvsI_A/m_=_1297.0
# frecuencia_Hz_=_301578.25928678556

Tiempo_(s)	Campo_(V.s)	Magnetizacion_(V.s)	Campo_(kA/m)	Magnetizacion_(A/m)
0.000000e+00	-5.392819e-06	-6.238334e-09	-3.834160e+01	-4.072386e+02
1.000000e-08	-5.389892e-06	-6.239386e-09	-3.832079e+01	-4.070911e+02
2.000000e-08	-5.385163e-06	-6.235358e-09	-3.828717e+01	-4.068500e+02
3.000000e-08	-5.378827e-06	-6.229619e-09	-3.824211e+01	-4.065108e+02
4.000000e-08	-5.370907e-06	-6.221421e-09	-3.818581e+01	-4.060698e+02
5.000000e-08	-5.361085e-06	-6.207844e-09	-3.811598e+01	-4.055257e+02
6.000000e-08	-5.349237e-06	-6.195397e-09	-3.803174e+01	-4.048797e+02
7.000000e-08	-5.335521e-06	-6.179689e-09	-3.793422e+01	-4.041357e+02
8.000000e-08	-5.319664e-06	-6.161955e-09	-3.782148e+01	-4.033005e+02
9.000000e-08	-5.301578e-06	-6.203744e-09	-3.769289e+01	-4.023826e+02
1.000000e-07	-5.281521e-06	-6.211469e-09	-3.755029e+01	-4.013920e+02
1.100000e-07	-5.259583e-06	-6.164786e-09	-3.739432e+01	-4.003385e+02
1.200000e-07	-5.235910e-06	-6.158747e-09	-3.722601e+01	-3.992309e+02
1.300000e-07	-5.210636e-06	-6.055624e-09	-3.704632e+01	-3.980758e+02
1.400000e-07	-5.183741e-06	-5.997405e-09	-3.685510e+01	-3.968764e+02
1.500000e-07	-5.155255e-06	-6.148645e-09	-3.665257e+01	-3.956324e+02
1.600000e-07	-5.125341e-06	-6.024241e-09	-3.643990e+01	-3.943393e+02
1.700000e-07	-5.093844e-06	-5.969140e-09	-3.621596e+01	-3.929893e+02
1.800000e-07	-5.060155e-06	-6.071897e-09	-3.597644e+01	-3.915715e+02
1.900000e-07	-5.024670e-06	-5.897812e-09	-3.572415e+01	-3.900732e+02
2.000000e-07	-4.987810e-06	-5.935461e-09	-3.546208e+01	-3.884811e+02
2.100000e-07	-4.949160e-06	-6.022938e-09	-3.518729e+01	-3.867826e+02
2.200000e-07	-4.908621e-06	-5.889085e-09	-3.489907e+01	-3.849672e+02
2.300000e-07	-4.866093e-06	-5.866329e-09	-3.459671e+01	-3.830272e+02
2.400000e-07	-4.821683e-06	-5.832890e-09	-3.428096e+01	-3.809586e+02
2.500000e-07	-4.775593e-06	-5.762455e-09	-3.395327e+01	-3.787610e+02
2.600000e-07	-4.727478e-06	-5.782915e-09	-3.361119e+01	-3.764378e+02
2.700000e-07	-4.677183e-06	-5.711941e-09	-3.325360e+01	-3.739950e+02
2.800000e-07	-4.624901e-06	-5.660654e-09	-3.288189e+01	-3.714410e+02
2.900000e-07	-4.570765e-06	-5.624398e-09	-3.249700e+01	-3.687850e+02
3.000000e-07	-4.515060e-06	-5.589983e-09	-3.210095e+01	-3.660359e+02
3.100000e-07	-4.457691e-06	-5.577190e-09	-3.169307e+01	-3.632015e+02
3.200000e-07	-4.398527e-06	-5.536785e-09	-3.127243e+01	-3.602877e+02
3.300000e-07	-4.337823e-06	-5.481896e-09	-3.084084e+01	-3.572980e+02
3.400000e-07	-4.275662e-06	-5.382073e-09	-3.039889e+01	-3.542333e+02
3.500000e-07	-4.212158e-06	-5.350943e-09	-2.994739e+01	-3.510923e+02
3.600000e-07	-4.147073e-06	-5.343141e-09	-2.948465e+01	-3.478718e+02
3.700000e-07	-4.080237e-06	-5.285697e-09	-2.900947e+01	-3.445676e+02
3.800000e-07	-4.011925e-06	-5.227743e-09	-2.852379e+01	-3.411753e+02
3.900000e-07	-3.942282e-06	-5.153938e-09	-2.802864e+01	-3.376908e+02
4.000000e-07	-3.871424e-06	-5.098868e-09	-2.752486e+01	-3.341113e+02
4.100000e-07	-3.799291e-06	-5.051078e-09	-2.701201e+01	-3.304353e+02
4.200000e-07	-3.725691e-06	-4.994721e-09	-2.648873e+01	-3.266630e+02
4.300000e-07	-3.650511e-06	-4.942238e-09	-2.595422e+01	-3.227959e+02
4.400000e-07	-3.573818e-06	-4.869339e-09	-2.540895e+01	-3.188368e+02
4.500000e-07	-3.495679e-06	-4.798472e-09	-2.485341e+01	-3.147888e+02
4.600000e-07	-3.416095e-06	-4.742135e-09	-2.428758e+01	-3.106549e+02
4.700000e-07	-3.335317e-06	-4.689962e-09	-2.371327e+01	-3.064374e+02
4.800000e-07	-3.253389e-06	-4.625250e-09	-2.313078e+01	-3.021374e+02
4.900000e-07	-3.170307e-06	-4.544366e-09	-2.254009e+01	-2.977545e+02
5.000000e-07	-3.086212e-06	-4.473867e-09	-2.194220e+01	-2.932864e+02
5.100000e-07	-3.001170e-06	-4.409552e-09	-2.133757e+01	-2.887296e+02
5.200000e-07	-2.915177e-06	-4.346833e-09	-2.072618e+01	-2.840793e+02
5.300000e-07	-2.828264e-06	-4.267845e-09	-2.010825e+01	-2.793301e+02
5.400000e-07	-2.740440e-06	-4.174727e-09	-1.948385e+01	-2.744766e+02
5.500000e-07	-2.651432e-06	-4.087819e-09	-1.885102e+01	-2.695139e+02
5.600000e-07	-2.561252e-06	-4.012103e-09	-1.820986e+01	-2.644383e+02
5.700000e-07	-2.470146e-06	-3.950348e-09	-1.756212e+01	-2.592473e+02
5.800000e-07	-2.378142e-06	-3.877444e-09	-1.690799e+01	-2.539402e+02
5.900000e-07	-2.285310e-06	-3.792838e-09	-1.624798e+01	-2.485177e+02
6.000000e-07	-2.191699e-06	-3.701459e-09	-1.558243e+01	-2.429819e+02
6.100000e-07	-2.097288e-06	-3.610652e-09	-1.491120e+01	-2.373357e+02
6.200000e-07	-2.002241e-06	-3.522917e-09	-1.423543e+01	-2.315824e+02
6.300000e-07	-1.906581e-06	-3.432443e-09	-1.355531e+01	-2.257250e+02
6.400000e-07	-1.810112e-06	-3.338080e-09	-1.286944e+01	-2.197659e+02
6.500000e-07	-1.712754e-06	-3.240972e-09	-1.217726e+01	-2.137064e+02
6.600000e-07	-1.614628e-06	-3.146696e-09	-1.147960e+01	-2.075462e+02
6.700000e-07	-1.515921e-06	-3.053282e-09	-1.077782e+01	-2.012836e+02
6.800000e-07	-1.416753e-06	-2.961354e-09	-1.007276e+01	-1.949154e+02
6.900000e-07	-1.317103e-06	-2.862694e-09	-9.364272e+00	-1.884371e+02
7.000000e-07	-1.216980e-06	-2.759631e-09	-8.652426e+00	-1.818430e+02
7.100000e-07	-1.116516e-06	-2.656337e-09	-7.938151e+00	-1.751271e+02
7.200000e-07	-1.015800e-06	-2.553279e-09	-7.222081e+00	-1.682828e+02
7.300000e-07	-9.148097e-07	-2.448217e-09	-6.504068e+00	-1.613039e+02
7.400000e-07	-8.135283e-07	-2.336945e-09	-5.783983e+00	-1.541842e+02
7.500000e-07	-7.119166e-07	-2.221345e-09	-5.061549e+00	-1.469181e+02
7.600000e-07	-6.100033e-07	-2.103620e-09	-4.336971e+00	-1.395004e+02
7.700000e-07	-5.078335e-07	-1.987232e-09	-3.610569e+00	-1.319264e+02
7.800000e-07	-4.054892e-07	-1.873146e-09	-2.882927e+00	-1.241913e+02
7.900000e-07	-3.030684e-07	-1.758007e-09	-2.154741e+00	-1.162904e+02
8.000000e-07	-2.005389e-07	-1.634699e-09	-1.425782e+00	-1.082184e+02
8.100000e-07	-9.790196e-08	-1.506493e-09	-6.960585e-01	-9.996950e+01
8.200000e-07	4.744612e-09	-1.377401e-09	3.373301e-02	-9.153698e+01
8.300000e-07	1.073891e-07	-1.244815e-09	7.635098e-01	-8.291314e+01
8.400000e-07	2.100508e-07	-1.110125e-09	1.493409e+00	-7.408938e+01
8.500000e-07	3.126515e-07	-9.720513e-10	2.222874e+00	-6.505637e+01
8.600000e-07	4.151938e-07	-8.286519e-10	2.951924e+00	-5.580440e+01
8.700000e-07	5.176320e-07	-6.803186e-10	3.680234e+00	-4.632390e+01
8.800000e-07	6.198950e-07	-5.317698e-10	4.407298e+00	-3.660610e+01
8.900000e-07	7.219928e-07	-3.812641e-10	5.133189e+00	-2.664377e+01
9.000000e-07	8.238681e-07	-2.246526e-10	5.857497e+00	-1.643212e+01
9.100000e-07	9.253945e-07	-6.191997e-11	6.579324e+00	-5.969613e+00
9.200000e-07	1.026511e-06	1.038700e-10	7.298236e+00	4.741103e+00
9.300000e-07	1.127253e-06	2.710987e-10	8.014488e+00	1.569249e+01
9.400000e-07	1.227608e-06	4.415137e-10	8.727985e+00	2.687147e+01
9.500000e-07	1.327605e-06	6.145633e-10	9.438938e+00	3.825902e+01
9.600000e-07	1.427230e-06	7.919738e-10	1.014725e+01	4.983001e+01
9.700000e-07	1.526445e-06	9.716093e-10	1.085265e+01	6.155335e+01
9.800000e-07	1.625143e-06	1.151106e-09	1.155436e+01	7.339244e+01
9.900000e-07	1.723049e-06	1.330321e-09	1.225045e+01	8.530593e+01
1.000000e-06	1.820036e-06	1.511553e-09	1.294000e+01	9.724883e+01
1.010000e-06	1.916146e-06	1.693652e-09	1.362332e+01	1.091737e+02
1.020000e-06	2.011553e-06	1.875392e-09	1.430164e+01	1.210323e+02
1.030000e-06	2.106304e-06	2.055532e-09	1.497529e+01	1.327767e+02
1.040000e-06	2.200308e-06	2.231752e-09	1.564364e+01	1.443615e+02
1.050000e-06	2.293507e-06	2.404674e-09	1.630626e+01	1.557444e+02
1.060000e-06	2.385896e-06	2.573786e-09	1.696312e+01	1.668878e+02
1.070000e-06	2.477633e-06	2.738779e-09	1.761535e+01	1.777598e+02
1.080000e-06	2.568750e-06	2.900008e-09	1.826317e+01	1.883341e+02
1.090000e-06	2.658843e-06	3.057489e-09	1.890371e+01	1.985908e+02
1.100000e-06	2.747613e-06	3.209637e-09	1.953484e+01	2.085159e+02
1.110000e-06	2.835297e-06	3.355979e-09	2.015825e+01	2.181007e+02
1.120000e-06	2.922101e-06	3.497076e-09	2.077541e+01	2.273414e+02
1.130000e-06	3.007979e-06	3.634594e-09	2.138598e+01	2.362381e+02
1.140000e-06	3.092869e-06	3.767842e-09	2.198952e+01	2.447939e+02
1.150000e-06	3.176829e-06	3.893287e-09	2.258646e+01	2.530143e+02
1.160000e-06	3.259872e-06	4.011688e-09	2.317688e+01	2.609063e+02
1.170000e-06	3.341735e-06	4.124438e-09	2.375890e+01	2.684781e+02
1.180000e-06	3.422263e-06	4.231480e-09	2.433144e+01	2.757385e+02
1.190000e-06	3.501505e-06	4.334726e-09	2.489482e+01	2.826973e+02
1.200000e-06	3.579546e-06	4.434804e-09	2.544968e+01	2.893646e+02
1.210000e-06	3.656359e-06	4.531433e-09	2.599580e+01	2.957516e+02
1.220000e-06	3.731893e-06	4.625909e-09	2.653283e+01	3.018700e+02
1.230000e-06	3.805872e-06	4.716732e-09	2.705880e+01	3.077325e+02
1.240000e-06	3.878142e-06	4.802646e-09	2.757262e+01	3.133525e+02
1.250000e-06	3.948949e-06	4.884834e-09	2.807604e+01	3.187438e+02
1.260000e-06	4.018355e-06	4.964330e-09	2.856950e+01	3.239203e+02
1.270000e-06	4.086436e-06	5.040643e-09	2.905354e+01	3.288955e+02
1.280000e-06	4.153153e-06	5.111903e-09	2.952788e+01	3.336819e+02
1.290000e-06	4.218186e-06	5.180524e-09	2.999025e+01	3.382902e+02
1.300000e-06	4.281622e-06	5.247486e-09	3.044126e+01	3.427291e+02
1.310000e-06	4.343643e-06	5.313058e-09	3.088222e+01	3.470051e+02
1.320000e-06	4.404235e-06	5.376926e-09	3.131301e+01	3.511220e+02
1.330000e-06	4.463443e-06	5.437053e-09	3.173396e+01	3.550813e+02
1.340000e-06	4.520942e-06	5.494974e-09	3.214277e+01	3.588827e+02
1.350000e-06	4.576627e-06	5.549792e-09	3.253867e+01	3.625242e+02
1.360000e-06	4.630697e-06	5.600522e-09	3.292310e+01	3.660034e+02
1.370000e-06	4.683061e-06	5.648352e-09	3.329539e+01	3.693181e+02
1.380000e-06	4.733386e-06	5.692446e-09	3.365319e+01	3.724668e+02
1.390000e-06	4.781655e-06	5.733153e-09	3.399637e+01	3.754495e+02
1.400000e-06	4.828204e-06	5.771935e-09	3.432733e+01	3.782682e+02
1.410000e-06	4.873166e-06	5.809201e-09	3.464699e+01	3.809264e+02
1.420000e-06	4.916598e-06	5.846141e-09	3.495578e+01	3.834298e+02
1.430000e-06	4.958211e-06	5.881503e-09	3.525164e+01	3.857851e+02
1.440000e-06	4.997927e-06	5.914000e-09	3.553401e+01	3.880001e+02
1.450000e-06	5.036001e-06	5.944435e-09	3.580471e+01	3.900822e+02
1.460000e-06	5.072481e-06	5.972479e-09	3.606408e+01	3.920385e+02
1.470000e-06	5.107322e-06	5.999636e-09	3.631178e+01	3.938749e+02
1.480000e-06	5.140180e-06	6.024988e-09	3.654540e+01	3.955955e+02
1.490000e-06	5.171125e-06	6.047538e-09	3.676541e+01	3.972030e+02
1.500000e-06	5.200400e-06	6.067876e-09	3.697354e+01	3.986984e+02
1.510000e-06	5.228041e-06	6.085163e-09	3.717006e+01	4.000813e+02
1.520000e-06	5.253734e-06	6.100483e-09	3.735274e+01	4.013509e+02
1.530000e-06	5.277276e-06	6.115647e-09	3.752011e+01	4.025063e+02
1.540000e-06	5.298936e-06	6.131198e-09	3.767411e+01	4.035471e+02
1.550000e-06	5.318850e-06	6.146545e-09	3.781570e+01	4.044740e+02
1.560000e-06	5.336979e-06	6.160910e-09	3.794459e+01	4.052894e+02
1.570000e-06	5.353116e-06	6.173923e-09	3.805931e+01	4.059967e+02
1.580000e-06	5.367227e-06	6.183916e-09	3.815964e+01	4.066009e+02
1.590000e-06	5.379353e-06	6.191414e-09	3.824585e+01	4.071077e+02
1.600000e-06	5.389298e-06	6.197632e-09	3.831656e+01	4.075231e+02
1.610000e-06	5.397098e-06	6.201510e-09	3.837202e+01	4.078522e+02
1.620000e-06	5.402951e-06	6.205379e-09	3.841363e+01	4.080993e+02
1.630000e-06	5.407017e-06	6.210484e-09	3.844254e+01	4.082668e+02
1.640000e-06	5.409240e-06	6.213222e-09	3.845835e+01	4.083548e+02
1.650000e-06	5.409473e-06	6.214905e-09	3.846000e+01	4.083617e+02
1.660000e-06	5.407857e-06	6.212136e-09	3.844851e+01	4.082838e+02
1.670000e-06	5.404535e-06	6.205007e-09	3.842489e+01	4.081165e+02
1.680000e-06	5.399584e-06	6.202404e-09	3.838970e+01	4.078546e+02
1.690000e-06	5.392720e-06	6.197636e-09	3.834089e+01	4.074936e+02
1.700000e-06	5.384008e-06	6.191081e-09	3.827895e+01	4.070303e+02
1.710000e-06	5.373773e-06	6.184445e-09	3.820618e+01	4.064640e+02
1.720000e-06	5.361817e-06	6.177177e-09	3.812118e+01	4.057964e+02
1.730000e-06	5.347861e-06	6.188880e-09	3.802196e+01	4.050320e+02
1.740000e-06	5.331845e-06	6.119854e-09	3.790809e+01	4.041781e+02
1.750000e-06	5.313473e-06	6.074182e-09	3.777747e+01	4.032436e+02
1.760000e-06	5.292372e-06	6.093244e-09	3.762744e+01	4.022385e+02
1.770000e-06	5.269005e-06	6.059732e-09	3.746131e+01	4.011725e+02
1.780000e-06	5.244441e-06	6.166794e-09	3.728666e+01	4.000541e+02
1.790000e-06	5.219189e-06	6.133880e-09	3.710713e+01	3.988891e+02
1.800000e-06	5.192506e-06	5.932088e-09	3.691742e+01	3.976802e+02
1.810000e-06	5.163614e-06	6.078143e-09	3.671200e+01	3.964259e+02
1.820000e-06	5.132871e-06	6.022082e-09	3.649343e+01	3.951212e+02
1.830000e-06	5.100397e-06	5.886589e-09	3.626255e+01	3.937575e+02
1.840000e-06	5.065976e-06	6.065484e-09	3.601783e+01	3.923233e+02
1.850000e-06	5.030019e-06	5.927321e-09	3.576218e+01	3.908058e+02
1.860000e-06	4.992277e-06	5.837858e-09	3.549384e+01	3.891917e+02
1.870000e-06	4.952600e-06	5.938127e-09	3.521175e+01	3.874688e+02
1.880000e-06	4.911280e-06	5.804439e-09	3.491797e+01	3.856270e+02
1.890000e-06	4.868089e-06	5.863004e-09	3.461090e+01	3.836595e+02
1.900000e-06	4.823285e-06	5.829948e-09	3.429235e+01	3.815629e+02
1.910000e-06	4.776694e-06	5.698429e-09	3.396110e+01	3.793378e+02
1.920000e-06	4.728013e-06	5.792878e-09	3.361499e+01	3.769882e+02
1.930000e-06	4.677734e-06	5.651650e-09	3.325752e+01	3.745207e+02
1.940000e-06	4.625695e-06	5.650787e-09	3.288754e+01	3.719438e+02
1.950000e-06	4.571621e-06	5.675098e-09	3.250309e+01	3.692669e+02
1.960000e-06	4.515635e-06	5.530657e-09	3.210504e+01	3.664987e+02
1.970000e-06	4.457880e-06	5.519703e-09	3.169441e+01	3.636467e+02
1.980000e-06	4.398717e-06	5.451508e-09	3.127378e+01	3.607163e+02
1.990000e-06	4.338062e-06	5.471303e-09	3.084254e+01	3.577103e+02
2.000000e-06	4.275718e-06	5.415367e-09	3.039929e+01	3.546292e+02
2.010000e-06	4.211772e-06	5.300649e-09	2.994465e+01	3.514713e+02
2.020000e-06	4.146298e-06	5.316226e-09	2.947915e+01	3.482330e+02
2.030000e-06	4.079427e-06	5.209206e-09	2.900371e+01	3.449102e+02
2.040000e-06	4.011138e-06	5.184526e-09	2.851819e+01	3.414982e+02
2.050000e-06	3.941289e-06	5.152325e-09	2.802158e+01	3.379934e+02
2.060000e-06	3.869922e-06	5.093758e-09	2.751418e+01	3.343931e+02
2.070000e-06	3.797235e-06	5.050320e-09	2.699739e+01	3.306961e+02
2.080000e-06	3.723251e-06	4.929458e-09	2.647138e+01	3.269031e+02
2.090000e-06	3.647873e-06	4.912935e-09	2.593546e+01	3.230159e+02
2.100000e-06	3.571002e-06	4.858937e-09	2.538893e+01	3.190372e+02
2.110000e-06	3.492542e-06	4.794152e-09	2.483110e+01	3.149704e+02
2.120000e-06	3.412784e-06	4.729853e-09	2.426404e+01	3.108182e+02
2.130000e-06	3.331894e-06	4.647573e-09	2.368894e+01	3.065828e+02
2.140000e-06	3.249823e-06	4.601388e-09	2.310543e+01	3.022650e+02
2.150000e-06	3.166740e-06	4.528204e-09	2.251473e+01	2.978638e+02
2.160000e-06	3.082679e-06	4.475444e-09	2.191708e+01	2.933769e+02
2.170000e-06	2.997413e-06	4.396020e-09	2.131086e+01	2.888002e+02
2.180000e-06	2.910802e-06	4.321164e-09	2.069508e+01	2.841290e+02
2.190000e-06	2.823068e-06	4.254883e-09	2.007131e+01	2.793577e+02
2.200000e-06	2.734359e-06	4.188724e-09	1.944061e+01	2.744810e+02
2.210000e-06	2.644743e-06	4.126592e-09	1.880346e+01	2.694942e+02
2.220000e-06	2.554201e-06	4.034560e-09	1.815973e+01	2.643938e+02
2.230000e-06	2.462781e-06	3.946173e-09	1.750976e+01	2.591777e+02
2.240000e-06	2.370643e-06	3.851298e-09	1.685468e+01	2.538456e+02
2.250000e-06	2.277716e-06	3.776711e-09	1.619399e+01	2.483984e+02
2.260000e-06	2.183849e-06	3.710922e-09	1.552662e+01	2.428385e+02
2.270000e-06	2.088982e-06	3.632087e-09	1.485214e+01	2.371689e+02
2.280000e-06	1.993212e-06	3.538849e-09	1.417124e+01	2.313928e+02
2.290000e-06	1.896686e-06	3.441626e-09	1.348496e+01	2.255132e+02
2.300000e-06	1.799616e-06	3.354114e-09	1.279482e+01	2.195324e+02
2.310000e-06	1.702120e-06	3.267901e-09	1.210165e+01	2.134512e+02
2.320000e-06	1.604072e-06	3.176571e-09	1.140455e+01	2.072690e+02
2.330000e-06	1.505429e-06	3.073029e-09	1.070323e+01	2.009840e+02
2.340000e-06	1.406296e-06	2.972630e-09	9.998416e+00	1.945924e+02
2.350000e-06	1.306762e-06	2.873160e-09	9.290748e+00	1.880895e+02
2.360000e-06	1.206945e-06	2.778051e-09	8.581079e+00	1.814697e+02
2.370000e-06	1.106964e-06	2.681775e-09	7.870239e+00	1.747266e+02
2.380000e-06	1.006677e-06	2.572651e-09	7.157220e+00	1.678538e+02
2.390000e-06	9.059007e-07	2.459639e-09	6.440728e+00	1.608450e+02
2.400000e-06	8.046239e-07	2.350590e-09	5.720675e+00	1.536942e+02
2.410000e-06	7.029325e-07	2.247291e-09	4.997674e+00	1.463959e+02
2.420000e-06	6.010263e-07	2.140802e-09	4.273147e+00	1.389449e+02
2.430000e-06	4.989447e-07	2.022179e-09	3.547372e+00	1.313365e+02
2.440000e-06	3.965952e-07	1.896507e-09	2.819693e+00	1.235661e+02
2.450000e-06	2.940178e-07	1.774275e-09	2.090393e+00	1.156288e+02
2.460000e-06	1.912550e-07	1.654479e-09	1.359775e+00	1.075192e+02
2.470000e-06	8.837959e-08	1.534508e-09	6.283568e-01	9.923138e+01
2.480000e-06	-1.453307e-08	1.406924e-09	-1.033265e-01	9.075834e+01
2.490000e-06	-1.174868e-07	1.269707e-09	-8.353019e-01	8.209221e+01
2.500000e-06	-2.204150e-07	1.129921e-09	-1.567096e+00	7.322422e+01
2.510000e-06	-3.231872e-07	9.915503e-10	-2.297780e+00	6.414491e+01
2.520000e-06	-4.258390e-07	8.549491e-10	-3.027609e+00	5.484457e+01
2.530000e-06	-5.284129e-07	7.139230e-10	-3.756884e+00	4.531372e+01
2.540000e-06	-6.306803e-07	5.658447e-10	-4.483979e+00	3.554386e+01
2.550000e-06	-7.325488e-07	4.132794e-10	-5.208239e+00	2.552821e+01
2.560000e-06	-8.340489e-07	2.583026e-10	-5.929879e+00	1.526260e+01
2.570000e-06	-9.351231e-07	9.988788e-11	-6.648492e+00	4.746334e+00
2.580000e-06	-1.035762e-06	-6.137203e-11	-7.364010e+00	-6.016969e+00
2.590000e-06	-1.136008e-06	-2.283438e-10	-8.076730e+00	-1.701862e+01
2.600000e-06	-1.235926e-06	-4.022153e-10	-8.787124e+00	-2.824431e+01
2.610000e-06	-1.335456e-06	-5.763565e-10	-9.494761e+00	-3.967369e+01
2.620000e-06	-1.434513e-06	-7.521267e-10	-1.019903e+01	-5.128034e+01
2.630000e-06	-1.533114e-06	-9.306273e-10	-1.090005e+01	-6.303193e+01
2.640000e-06	-1.631193e-06	-1.113162e-09	-1.159738e+01	-7.489079e+01
2.650000e-06	-1.728663e-06	-1.299372e-09	-1.229036e+01	-8.681467e+01
2.660000e-06	-1.825568e-06	-1.482486e-09	-1.297933e+01	-9.875795e+01
2.670000e-06	-1.921969e-06	-1.661837e-09	-1.366472e+01	-1.106729e+02
2.680000e-06	-2.017824e-06	-1.838797e-09	-1.434622e+01	-1.225112e+02
2.690000e-06	-2.112979e-06	-2.016453e-09	-1.502275e+01	-1.342253e+02
2.700000e-06	-2.207138e-06	-2.195669e-09	-1.569220e+01	-1.457704e+02
2.710000e-06	-2.300201e-06	-2.373231e-09	-1.635385e+01	-1.571052e+02
2.720000e-06	-2.392373e-06	-2.544759e-09	-1.700917e+01	-1.681932e+02
2.730000e-06	-2.483777e-06	-2.708494e-09	-1.765904e+01	-1.790036e+02
2.740000e-06	-2.574317e-06	-2.866651e-09	-1.830275e+01	-1.895115e+02
2.750000e-06	-2.663868e-06	-3.019986e-09	-1.893944e+01	-1.996983e+02
2.760000e-06	-2.752536e-06	-3.168300e-09	-1.956984e+01	-2.095512e+02
2.770000e-06	-2.840538e-06	-3.312264e-09	-2.019551e+01	-2.190627e+02
2.780000e-06	-2.927634e-06	-3.451244e-09	-2.081474e+01	-2.282297e+02
2.790000e-06	-3.013388e-06	-3.585060e-09	-2.142444e+01	-2.370532e+02
2.800000e-06	-3.097883e-06	-3.715933e-09	-2.202517e+01	-2.455369e+02
2.810000e-06	-3.181394e-06	-3.845093e-09	-2.261892e+01	-2.536865e+02
2.820000e-06	-3.263906e-06	-3.969199e-09	-2.320556e+01	-2.615093e+02
2.830000e-06	-3.345336e-06	-4.086282e-09	-2.378450e+01	-2.690138e+02
2.840000e-06	-3.425696e-06	-4.197434e-09	-2.435585e+01	-2.762090e+02
2.850000e-06	-3.504863e-06	-4.303554e-09	-2.491870e+01	-2.831046e+02
2.860000e-06	-3.582497e-06	-4.405471e-09	-2.547066e+01	-2.897111e+02
2.870000e-06	-3.658576e-06	-4.502150e-09	-2.601156e+01	-2.960397e+02
2.880000e-06	-3.733248e-06	-4.593207e-09	-2.654246e+01	-3.021023e+02
2.890000e-06	-3.806554e-06	-4.680733e-09	-2.706365e+01	-3.079119e+02
2.900000e-06	-3.878653e-06	-4.766239e-09	-2.757626e+01	-3.134819e+02
2.910000e-06	-3.949317e-06	-4.850153e-09	-2.807865e+01	-3.188262e+02
2.920000e-06	-4.018305e-06	-4.931224e-09	-2.856915e+01	-3.239587e+02
2.930000e-06	-4.085854e-06	-5.007313e-09	-2.904940e+01	-3.288927e+02
2.940000e-06	-4.152022e-06	-5.079498e-09	-2.951984e+01	-3.336402e+02
