# Temperatura_=_69.4
# Concentracion g/m^3_=_15000.0
# C_Vs_to_Am_M_A/Vsm_=_65563218390.804596
# pendiente_HvsI_1/m_=_3716.3
# ordenada_HvsI_A/m_=_1297.0
# frecuencia_Hz_=_301576.0296986122

Tiempo_(s)	Campo_(V.s)	Magnetizacion_(V.s)	Campo_(kA/m)	Magnetizacion_(A/m)
0.000000e+00	-5.383485e-06	-5.856856e-09	-3.834558e+01	-3.825387e+02
1.000000e-08	-5.380602e-06	-5.855248e-09	-3.832505e+01	-3.823807e+02
2.000000e-08	-5.375960e-06	-5.848995e-09	-3.829199e+01	-3.821417e+02
3.000000e-08	-5.369714e-06	-5.842059e-09	-3.824750e+01	-3.818197e+02
4.000000e-08	-5.361814e-06	-5.835292e-09	-3.819123e+01	-3.814128e+02
5.000000e-08	-5.351988e-06	-5.826702e-09	-3.812124e+01	-3.809203e+02
6.000000e-08	-5.340155e-06	-5.818025e-09	-3.803696e+01	-3.803431e+02
7.000000e-08	-5.326478e-06	-5.803703e-09	-3.793953e+01	-3.796833e+02
8.000000e-08	-5.310729e-06	-5.792659e-09	-3.782736e+01	-3.789447e+02
9.000000e-08	-5.292785e-06	-5.824144e-09	-3.769954e+01	-3.781320e+02
1.000000e-07	-5.272785e-06	-5.828571e-09	-3.755709e+01	-3.772504e+02
1.100000e-07	-5.250881e-06	-5.789593e-09	-3.740107e+01	-3.763050e+02
1.200000e-07	-5.227298e-06	-5.764018e-09	-3.723309e+01	-3.752999e+02
1.300000e-07	-5.202091e-06	-5.678007e-09	-3.705355e+01	-3.742377e+02
1.400000e-07	-5.175232e-06	-5.641401e-09	-3.686224e+01	-3.731187e+02
1.500000e-07	-5.146833e-06	-5.744720e-09	-3.665996e+01	-3.719411e+02
1.600000e-07	-5.117028e-06	-5.678784e-09	-3.644766e+01	-3.707008e+02
1.700000e-07	-5.085645e-06	-5.641523e-09	-3.622413e+01	-3.693916e+02
1.800000e-07	-5.052091e-06	-5.683533e-09	-3.598512e+01	-3.680057e+02
1.900000e-07	-5.016668e-06	-5.551387e-09	-3.573282e+01	-3.665350e+02
2.000000e-07	-4.979802e-06	-5.549947e-09	-3.547023e+01	-3.649712e+02
2.100000e-07	-4.941188e-06	-5.579188e-09	-3.519518e+01	-3.633070e+02
2.200000e-07	-4.900740e-06	-5.485350e-09	-3.490708e+01	-3.615367e+02
2.300000e-07	-4.858332e-06	-5.486057e-09	-3.460502e+01	-3.596570e+02
2.400000e-07	-4.814035e-06	-5.474745e-09	-3.428950e+01	-3.576666e+02
2.500000e-07	-4.767988e-06	-5.425129e-09	-3.396151e+01	-3.555668e+02
2.600000e-07	-4.720016e-06	-5.417140e-09	-3.361981e+01	-3.533608e+02
2.700000e-07	-4.669909e-06	-5.350739e-09	-3.326292e+01	-3.510534e+02
2.800000e-07	-4.617744e-06	-5.316717e-09	-3.289135e+01	-3.486502e+02
2.900000e-07	-4.563818e-06	-5.290166e-09	-3.250725e+01	-3.461567e+02
3.000000e-07	-4.508325e-06	-5.245259e-09	-3.211198e+01	-3.435779e+02
3.100000e-07	-4.451114e-06	-5.210616e-09	-3.170448e+01	-3.409177e+02
3.200000e-07	-4.392047e-06	-5.162892e-09	-3.128375e+01	-3.381783e+02
3.300000e-07	-4.331401e-06	-5.113071e-09	-3.085178e+01	-3.353606e+02
3.400000e-07	-4.269321e-06	-5.047823e-09	-3.040960e+01	-3.324635e+02
3.500000e-07	-4.205906e-06	-5.022561e-09	-2.995791e+01	-3.294851e+02
3.600000e-07	-4.141034e-06	-4.994442e-09	-2.949583e+01	-3.264226e+02
3.700000e-07	-4.074443e-06	-4.936574e-09	-2.902152e+01	-3.232730e+02
3.800000e-07	-4.006284e-06	-4.891891e-09	-2.853603e+01	-3.200338e+02
3.900000e-07	-3.936750e-06	-4.831145e-09	-2.804076e+01	-3.167032e+02
4.000000e-07	-3.866004e-06	-4.774736e-09	-2.753684e+01	-3.132804e+02
4.100000e-07	-3.793991e-06	-4.720524e-09	-2.702391e+01	-3.097659e+02
4.200000e-07	-3.720521e-06	-4.660128e-09	-2.650059e+01	-3.061612e+02
4.300000e-07	-3.645528e-06	-4.610506e-09	-2.596643e+01	-3.024686e+02
4.400000e-07	-3.569002e-06	-4.555957e-09	-2.542136e+01	-2.986908e+02
4.500000e-07	-3.490990e-06	-4.500497e-09	-2.486569e+01	-2.948302e+02
4.600000e-07	-3.411623e-06	-4.439888e-09	-2.430037e+01	-2.908890e+02
4.700000e-07	-3.330956e-06	-4.376058e-09	-2.372580e+01	-2.868681e+02
4.800000e-07	-3.249055e-06	-4.312469e-09	-2.314243e+01	-2.827674e+02
4.900000e-07	-3.166072e-06	-4.247905e-09	-2.255136e+01	-2.785853e+02
5.000000e-07	-3.082146e-06	-4.186321e-09	-2.195357e+01	-2.743193e+02
5.100000e-07	-2.997358e-06	-4.119012e-09	-2.134964e+01	-2.699656e+02
5.200000e-07	-2.911609e-06	-4.047847e-09	-2.073886e+01	-2.655201e+02
5.300000e-07	-2.824820e-06	-3.968242e-09	-2.012068e+01	-2.609786e+02
5.400000e-07	-2.737068e-06	-3.891143e-09	-1.949564e+01	-2.563374e+02
5.500000e-07	-2.648349e-06	-3.822287e-09	-1.886371e+01	-2.515933e+02
5.600000e-07	-2.558482e-06	-3.753642e-09	-1.822361e+01	-2.467445e+02
5.700000e-07	-2.467472e-06	-3.683034e-09	-1.757535e+01	-2.417902e+02
5.800000e-07	-2.375613e-06	-3.603056e-09	-1.692106e+01	-2.367311e+02
5.900000e-07	-2.283012e-06	-3.522082e-09	-1.626148e+01	-2.315686e+02
6.000000e-07	-2.189552e-06	-3.438447e-09	-1.559578e+01	-2.263050e+02
6.100000e-07	-2.095290e-06	-3.352492e-09	-1.492437e+01	-2.209427e+02
6.200000e-07	-2.000347e-06	-3.268020e-09	-1.424811e+01	-2.154842e+02
6.300000e-07	-1.904798e-06	-3.184972e-09	-1.356753e+01	-2.099312e+02
6.400000e-07	-1.808592e-06	-3.102469e-09	-1.288227e+01	-2.042846e+02
6.500000e-07	-1.711583e-06	-3.018476e-09	-1.219129e+01	-1.985443e+02
6.600000e-07	-1.613790e-06	-2.931764e-09	-1.149473e+01	-1.927090e+02
6.700000e-07	-1.515312e-06	-2.837950e-09	-1.079329e+01	-1.867763e+02
6.800000e-07	-1.416207e-06	-2.742190e-09	-1.008739e+01	-1.807431e+02
6.900000e-07	-1.316634e-06	-2.645146e-09	-9.378147e+00	-1.746055e+02
7.000000e-07	-1.216688e-06	-2.549253e-09	-8.666251e+00	-1.683595e+02
7.100000e-07	-1.116440e-06	-2.453799e-09	-7.952202e+00	-1.620012e+02
7.200000e-07	-1.015943e-06	-2.355560e-09	-7.236376e+00	-1.555269e+02
7.300000e-07	-9.151631e-07	-2.254531e-09	-6.518540e+00	-1.489334e+02
7.400000e-07	-8.140836e-07	-2.151156e-09	-5.798570e+00	-1.422179e+02
7.500000e-07	-7.126087e-07	-2.048041e-09	-5.075782e+00	-1.353782e+02
7.600000e-07	-6.107918e-07	-1.943026e-09	-4.350559e+00	-1.284121e+02
7.700000e-07	-5.087834e-07	-1.833022e-09	-3.623972e+00	-1.213173e+02
7.800000e-07	-4.066508e-07	-1.720511e-09	-2.896500e+00	-1.140910e+02
7.900000e-07	-3.043939e-07	-1.606200e-09	-2.168143e+00	-1.067294e+02
8.000000e-07	-2.019966e-07	-1.488067e-09	-1.438785e+00	-9.922764e+01
8.100000e-07	-9.953041e-08	-1.372177e-09	-7.089370e-01	-9.157913e+01
8.200000e-07	2.974074e-09	-1.258170e-09	2.118379e-02	-8.377581e+01
8.300000e-07	1.054889e-07	-1.139570e-09	7.513783e-01	-7.580803e+01
8.400000e-07	2.079653e-07	-1.015848e-09	1.481299e+00	-6.766477e+01
8.500000e-07	3.103898e-07	-8.896809e-10	2.210850e+00	-5.933404e+01
8.600000e-07	4.127615e-07	-7.603088e-10	2.940025e+00	-5.080348e+01
8.700000e-07	5.150453e-07	-6.236693e-10	3.668574e+00	-4.206103e+01
8.800000e-07	6.171366e-07	-4.852016e-10	4.395752e+00	-3.309581e+01
8.900000e-07	7.189782e-07	-3.455838e-10	5.121151e+00	-2.389897e+01
9.000000e-07	8.205934e-07	-2.007540e-10	5.844938e+00	-1.446460e+01
9.100000e-07	9.219182e-07	-5.205948e-11	6.566656e+00	-4.790606e+00
9.200000e-07	1.022885e-06	9.808895e-11	7.285827e+00	5.120534e+00
9.300000e-07	1.123502e-06	2.504042e-10	8.002500e+00	1.526116e+01
9.400000e-07	1.223791e-06	4.082427e-10	8.716838e+00	2.561800e+01
9.500000e-07	1.323738e-06	5.704447e-10	9.428748e+00	3.617205e+01
9.600000e-07	1.423231e-06	7.344184e-10	1.013741e+01	4.689857e+01
9.700000e-07	1.522167e-06	8.988731e-10	1.084212e+01	5.776755e+01
9.800000e-07	1.620450e-06	1.065318e-09	1.154217e+01	6.874428e+01
9.900000e-07	1.717995e-06	1.234988e-09	1.223697e+01	7.979021e+01
1.000000e-06	1.814789e-06	1.408018e-09	1.292641e+01	9.086407e+01
1.010000e-06	1.910802e-06	1.581309e-09	1.361029e+01	1.019230e+02
1.020000e-06	2.006040e-06	1.752507e-09	1.428866e+01	1.129240e+02
1.030000e-06	2.100621e-06	1.920672e-09	1.496234e+01	1.238249e+02
1.040000e-06	2.194517e-06	2.083472e-09	1.563115e+01	1.345857e+02
1.050000e-06	2.287606e-06	2.242329e-09	1.629420e+01	1.451696e+02
1.060000e-06	2.379941e-06	2.397544e-09	1.695188e+01	1.555440e+02
1.070000e-06	2.471575e-06	2.549439e-09	1.760458e+01	1.656806e+02
1.080000e-06	2.562376e-06	2.699808e-09	1.825134e+01	1.755559e+02
1.090000e-06	2.652105e-06	2.849177e-09	1.889046e+01	1.851513e+02
1.100000e-06	2.740713e-06	2.995427e-09	1.952160e+01	1.944528e+02
1.110000e-06	2.828305e-06	3.133944e-09	2.014550e+01	2.034508e+02
1.120000e-06	2.914982e-06	3.264935e-09	2.076289e+01	2.121393e+02
1.130000e-06	3.000685e-06	3.391273e-09	2.137334e+01	2.205156e+02
1.140000e-06	3.085431e-06	3.513674e-09	2.197697e+01	2.285796e+02
1.150000e-06	3.169291e-06	3.630157e-09	2.257429e+01	2.363336e+02
1.160000e-06	3.252140e-06	3.740173e-09	2.316440e+01	2.437818e+02
1.170000e-06	3.333799e-06	3.844661e-09	2.374605e+01	2.509300e+02
1.180000e-06	3.414181e-06	3.944430e-09	2.431859e+01	2.577856e+02
1.190000e-06	3.493339e-06	4.043361e-09	2.488242e+01	2.643573e+02
1.200000e-06	3.571297e-06	4.142428e-09	2.543770e+01	2.706554e+02
1.210000e-06	3.648013e-06	4.237976e-09	2.598413e+01	2.766915e+02
1.220000e-06	3.723350e-06	4.328632e-09	2.652074e+01	2.824782e+02
1.230000e-06	3.797065e-06	4.412931e-09	2.704581e+01	2.880293e+02
1.240000e-06	3.869182e-06	4.491460e-09	2.755948e+01	2.933591e+02
1.250000e-06	3.939890e-06	4.566966e-09	2.806312e+01	2.984817e+02
1.260000e-06	4.009244e-06	4.641531e-09	2.855712e+01	3.034110e+02
1.270000e-06	4.077278e-06	4.715548e-09	2.904171e+01	3.081595e+02
1.280000e-06	4.143876e-06	4.785252e-09	2.951608e+01	3.127380e+02
1.290000e-06	4.208869e-06	4.851616e-09	2.997901e+01	3.171551e+02
1.300000e-06	4.272235e-06	4.917562e-09	3.043036e+01	3.214167e+02
1.310000e-06	4.334082e-06	4.982375e-09	3.087088e+01	3.255261e+02
1.320000e-06	4.394556e-06	5.042485e-09	3.130162e+01	3.294840e+02
1.330000e-06	4.453685e-06	5.097001e-09	3.172279e+01	3.332889e+02
1.340000e-06	4.511149e-06	5.150028e-09	3.213210e+01	3.369378e+02
1.350000e-06	4.566820e-06	5.203301e-09	3.252863e+01	3.404270e+02
1.360000e-06	4.620848e-06	5.253429e-09	3.291346e+01	3.437527e+02
1.370000e-06	4.673129e-06	5.297952e-09	3.328585e+01	3.469120e+02
1.380000e-06	4.723453e-06	5.339895e-09	3.364430e+01	3.499036e+02
1.390000e-06	4.771814e-06	5.381699e-09	3.398876e+01	3.527281e+02
1.400000e-06	4.818397e-06	5.420771e-09	3.432056e+01	3.553887e+02
1.410000e-06	4.863373e-06	5.455503e-09	3.464092e+01	3.578905e+02
1.420000e-06	4.906804e-06	5.487305e-09	3.495028e+01	3.602407e+02
1.430000e-06	4.948382e-06	5.517236e-09	3.524642e+01	3.624478e+02
1.440000e-06	4.988082e-06	5.546127e-09	3.552920e+01	3.645208e+02
1.450000e-06	5.026153e-06	5.573856e-09	3.580038e+01	3.664688e+02
1.460000e-06	5.062652e-06	5.601468e-09	3.606035e+01	3.682998e+02
1.470000e-06	5.097412e-06	5.628265e-09	3.630794e+01	3.700207e+02
1.480000e-06	5.130227e-06	5.652273e-09	3.654168e+01	3.716360e+02
1.490000e-06	5.161176e-06	5.673469e-09	3.676212e+01	3.731488e+02
1.500000e-06	5.190402e-06	5.692201e-09	3.697029e+01	3.745599e+02
1.510000e-06	5.217955e-06	5.709338e-09	3.716655e+01	3.758687e+02
1.520000e-06	5.243539e-06	5.725691e-09	3.734878e+01	3.770739e+02
1.530000e-06	5.267035e-06	5.741847e-09	3.751613e+01	3.781737e+02
1.540000e-06	5.288674e-06	5.757520e-09	3.767027e+01	3.791664e+02
1.550000e-06	5.308645e-06	5.771112e-09	3.781252e+01	3.800517e+02
1.560000e-06	5.326802e-06	5.783039e-09	3.794185e+01	3.808301e+02
1.570000e-06	5.342929e-06	5.795180e-09	3.805671e+01	3.815036e+02
1.580000e-06	5.357075e-06	5.806211e-09	3.815747e+01	3.820758e+02
1.590000e-06	5.369224e-06	5.813849e-09	3.824401e+01	3.825511e+02
1.600000e-06	5.379158e-06	5.820148e-09	3.831476e+01	3.829343e+02
1.610000e-06	5.386937e-06	5.824819e-09	3.837017e+01	3.832306e+02
1.620000e-06	5.392850e-06	5.828217e-09	3.841229e+01	3.834443e+02
1.630000e-06	5.397012e-06	5.831378e-09	3.844194e+01	3.835789e+02
1.640000e-06	5.399269e-06	5.832912e-09	3.845801e+01	3.836364e+02
1.650000e-06	5.399548e-06	5.834729e-09	3.846000e+01	3.836174e+02
1.660000e-06	5.398049e-06	5.832719e-09	3.844932e+01	3.835210e+02
1.670000e-06	5.394877e-06	5.827446e-09	3.842673e+01	3.833456e+02
1.680000e-06	5.389998e-06	5.825522e-09	3.839198e+01	3.830888e+02
1.690000e-06	5.383191e-06	5.822950e-09	3.834349e+01	3.827484e+02
1.700000e-06	5.374537e-06	5.817252e-09	3.828185e+01	3.823229e+02
1.710000e-06	5.364339e-06	5.809795e-09	3.820921e+01	3.818119e+02
1.720000e-06	5.352492e-06	5.806733e-09	3.812483e+01	3.812165e+02
1.730000e-06	5.338668e-06	5.811741e-09	3.802636e+01	3.805392e+02
1.740000e-06	5.322728e-06	5.754979e-09	3.791283e+01	3.797841e+02
1.750000e-06	5.304399e-06	5.712410e-09	3.778227e+01	3.789559e+02
1.760000e-06	5.283384e-06	5.719046e-09	3.763258e+01	3.780600e+02
1.770000e-06	5.260131e-06	5.713292e-09	3.746696e+01	3.771013e+02
1.780000e-06	5.235644e-06	5.794405e-09	3.729254e+01	3.760835e+02
1.790000e-06	5.210445e-06	5.756678e-09	3.711305e+01	3.750089e+02
1.800000e-06	5.183790e-06	5.607872e-09	3.692320e+01	3.738774e+02
1.810000e-06	5.154945e-06	5.684905e-09	3.671774e+01	3.726865e+02
1.820000e-06	5.124340e-06	5.642699e-09	3.649974e+01	3.714318e+02
1.830000e-06	5.092061e-06	5.570670e-09	3.626982e+01	3.701066e+02
1.840000e-06	5.057773e-06	5.695751e-09	3.602560e+01	3.687030e+02
1.850000e-06	5.021836e-06	5.599436e-09	3.576962e+01	3.672128e+02
1.860000e-06	4.984122e-06	5.545721e-09	3.550100e+01	3.656277e+02
1.870000e-06	4.944520e-06	5.602520e-09	3.521892e+01	3.639410e+02
1.880000e-06	4.903265e-06	5.474896e-09	3.492507e+01	3.621472e+02
1.890000e-06	4.860196e-06	5.485062e-09	3.461830e+01	3.602435e+02
1.900000e-06	4.815539e-06	5.456992e-09	3.430021e+01	3.582292e+02
1.910000e-06	4.769069e-06	5.378118e-09	3.396921e+01	3.561061e+02
1.920000e-06	4.720519e-06	5.436844e-09	3.362340e+01	3.538777e+02
1.930000e-06	4.670349e-06	5.325351e-09	3.326605e+01	3.515491e+02
1.940000e-06	4.618414e-06	5.312694e-09	3.289612e+01	3.491258e+02
1.950000e-06	4.564421e-06	5.309069e-09	3.251154e+01	3.466134e+02
1.960000e-06	4.508508e-06	5.202591e-09	3.211328e+01	3.440166e+02
1.970000e-06	4.450867e-06	5.199598e-09	3.170272e+01	3.413390e+02
1.980000e-06	4.391810e-06	5.144984e-09	3.128206e+01	3.385827e+02
1.990000e-06	4.331283e-06	5.142478e-09	3.085094e+01	3.357477e+02
2.000000e-06	4.269062e-06	5.082684e-09	3.040775e+01	3.328332e+02
2.010000e-06	4.205224e-06	4.994111e-09	2.995305e+01	3.298368e+02
2.020000e-06	4.139932e-06	4.994286e-09	2.948798e+01	3.267556e+02
2.030000e-06	4.073214e-06	4.905042e-09	2.901276e+01	3.235868e+02
2.040000e-06	4.005098e-06	4.884850e-09	2.852758e+01	3.203279e+02
2.050000e-06	3.935483e-06	4.843643e-09	2.803173e+01	3.169773e+02
2.060000e-06	3.864240e-06	4.783368e-09	2.752428e+01	3.135345e+02
2.070000e-06	3.791619e-06	4.742881e-09	2.700701e+01	3.100003e+02
2.080000e-06	3.717747e-06	4.643597e-09	2.648084e+01	3.063763e+02
2.090000e-06	3.642553e-06	4.613283e-09	2.594524e+01	3.026650e+02
2.100000e-06	3.565943e-06	4.549820e-09	2.539956e+01	2.988689e+02
2.110000e-06	3.487658e-06	4.490289e-09	2.484195e+01	2.949907e+02
2.120000e-06	3.407986e-06	4.436634e-09	2.427446e+01	2.910321e+02
2.130000e-06	3.327308e-06	4.367460e-09	2.369981e+01	2.869940e+02
2.140000e-06	3.245495e-06	4.320726e-09	2.311707e+01	2.828757e+02
2.150000e-06	3.162575e-06	4.245592e-09	2.252645e+01	2.786757e+02
2.160000e-06	3.078617e-06	4.180771e-09	2.192843e+01	2.743909e+02
2.170000e-06	2.993577e-06	4.105874e-09	2.132270e+01	2.700176e+02
2.180000e-06	2.907243e-06	4.046507e-09	2.070776e+01	2.655517e+02
2.190000e-06	2.819608e-06	3.983783e-09	2.008355e+01	2.609889e+02
2.200000e-06	2.731022e-06	3.913142e-09	1.945257e+01	2.563256e+02
2.210000e-06	2.641586e-06	3.844385e-09	1.881554e+01	2.515589e+02
2.220000e-06	2.551209e-06	3.758305e-09	1.817180e+01	2.466873e+02
2.230000e-06	2.459995e-06	3.683108e-09	1.752209e+01	2.417103e+02
2.240000e-06	2.368044e-06	3.604872e-09	1.686715e+01	2.366286e+02
2.250000e-06	2.275316e-06	3.536044e-09	1.620666e+01	2.314440e+02
2.260000e-06	2.181733e-06	3.462290e-09	1.554008e+01	2.261587e+02
2.270000e-06	2.087134e-06	3.376147e-09	1.486627e+01	2.207754e+02
2.280000e-06	1.991512e-06	3.286274e-09	1.418518e+01	2.152963e+02
2.290000e-06	1.895136e-06	3.197114e-09	1.349871e+01	2.097229e+02
2.300000e-06	1.798272e-06	3.111328e-09	1.280876e+01	2.040560e+02
2.310000e-06	1.700961e-06	3.026625e-09	1.211564e+01	1.982953e+02
2.320000e-06	1.603086e-06	2.939843e-09	1.141849e+01	1.924391e+02
2.330000e-06	1.504602e-06	2.845919e-09	1.071701e+01	1.864849e+02
2.340000e-06	1.405641e-06	2.757391e-09	1.001213e+01	1.804294e+02
2.350000e-06	1.306326e-06	2.665660e-09	9.304722e+00	1.742687e+02
2.360000e-06	1.206671e-06	2.570226e-09	8.594896e+00	1.679987e+02
2.370000e-06	1.106809e-06	2.470822e-09	7.883596e+00	1.616156e+02
2.380000e-06	1.006646e-06	2.366676e-09	7.170160e+00	1.551157e+02
2.390000e-06	9.059492e-07	2.265896e-09	6.452911e+00	1.484960e+02
2.400000e-06	8.047297e-07	2.166047e-09	5.731944e+00	1.417539e+02
2.410000e-06	7.032476e-07	2.064272e-09	5.009105e+00	1.348870e+02
2.420000e-06	6.016253e-07	1.958176e-09	4.285268e+00	1.278933e+02
2.430000e-06	4.997531e-07	1.847229e-09	3.559651e+00	1.207704e+02
2.440000e-06	3.976628e-07	1.737374e-09	2.832480e+00	1.135152e+02
2.450000e-06	2.954353e-07	1.630546e-09	2.104332e+00	1.061238e+02
2.460000e-06	1.930780e-07	1.518358e-09	1.375259e+00	9.859091e+01
2.470000e-06	9.058699e-08	1.399636e-09	6.452347e-01	9.090971e+01
2.480000e-06	-1.204205e-08	1.274627e-09	-8.577336e-02	8.307177e+01
2.490000e-06	-1.146853e-07	1.146318e-09	-8.168822e-01	7.506710e+01
2.500000e-06	-2.172267e-07	1.020077e-09	-1.547266e+00	6.688445e+01
2.510000e-06	-3.196877e-07	8.956029e-10	-2.277077e+00	5.851170e+01
2.520000e-06	-4.219994e-07	7.688050e-10	-3.005825e+00	4.993647e+01
2.530000e-06	-5.241476e-07	6.363413e-10	-3.733408e+00	4.114690e+01
2.540000e-06	-6.261885e-07	4.999861e-10	-4.460227e+00	3.213246e+01
2.550000e-06	-7.280340e-07	3.611425e-10	-5.185654e+00	2.288485e+01
2.560000e-06	-8.294981e-07	2.170599e-10	-5.908364e+00	1.339892e+01
2.570000e-06	-9.305144e-07	6.481448e-11	-6.627885e+00	3.673481e+00
2.580000e-06	-1.031057e-06	-9.083554e-11	-7.344029e+00	-6.287913e+00
2.590000e-06	-1.131229e-06	-2.456246e-10	-8.057537e+00	-1.647643e+01
2.600000e-06	-1.231057e-06	-4.014154e-10	-8.768594e+00	-2.687758e+01
2.610000e-06	-1.330434e-06	-5.591600e-10	-9.476442e+00	-3.747110e+01
2.620000e-06	-1.429368e-06	-7.208728e-10	-1.018113e+01	-4.823110e+01
2.630000e-06	-1.527809e-06	-8.869718e-10	-1.088231e+01	-5.912648e+01
2.640000e-06	-1.625685e-06	-1.054482e-09	-1.157946e+01	-7.012164e+01
2.650000e-06	-1.723000e-06	-1.222016e-09	-1.227262e+01	-8.117735e+01
2.660000e-06	-1.819797e-06	-1.389857e-09	-1.296208e+01	-9.225190e+01
2.670000e-06	-1.916122e-06	-1.557888e-09	-1.364819e+01	-1.033023e+02
2.680000e-06	-2.011823e-06	-1.725102e-09	-1.432985e+01	-1.142855e+02
2.690000e-06	-2.106634e-06	-1.889733e-09	-1.500517e+01	-1.251599e+02
2.700000e-06	-2.200543e-06	-2.051786e-09	-1.567407e+01	-1.358860e+02
2.710000e-06	-2.293551e-06	-2.213108e-09	-1.633655e+01	-1.464280e+02
2.720000e-06	-2.385653e-06	-2.370561e-09	-1.699257e+01	-1.567539e+02
2.730000e-06	-2.476892e-06	-2.523122e-09	-1.764245e+01	-1.668365e+02
2.740000e-06	-2.567245e-06	-2.672345e-09	-1.828602e+01	-1.766534e+02
2.750000e-06	-2.656695e-06	-2.817756e-09	-1.892315e+01	-1.861871e+02
2.760000e-06	-2.745283e-06	-2.957945e-09	-1.955415e+01	-1.954246e+02
2.770000e-06	-2.833056e-06	-3.093491e-09	-2.017934e+01	-2.043569e+02
2.780000e-06	-2.919866e-06	-3.225921e-09	-2.079767e+01	-2.129788e+02
2.790000e-06	-3.005499e-06	-3.353994e-09	-2.140762e+01	-2.212883e+02
2.800000e-06	-3.089953e-06	-3.477897e-09	-2.200917e+01	-2.292859e+02
2.810000e-06	-3.173369e-06	-3.598924e-09	-2.260333e+01	-2.369743e+02
2.820000e-06	-3.255778e-06	-3.714001e-09	-2.319031e+01	-2.443579e+02
2.830000e-06	-3.337149e-06	-3.822514e-09	-2.376991e+01	-2.514430e+02
2.840000e-06	-3.417407e-06	-3.927611e-09	-2.434157e+01	-2.582372e+02
2.850000e-06	-3.496346e-06	-4.029704e-09	-2.490383e+01	-2.647496e+02
2.860000e-06	-3.573801e-06	-4.126534e-09	-2.545554e+01	-2.709908e+02
2.870000e-06	-3.649778e-06	-4.217523e-09	-2.599670e+01	-2.769725e+02
2.880000e-06	-3.724390e-06	-4.303744e-09	-2.652815e+01	-2.827079e+02
2.890000e-06	-3.797637e-06	-4.387204e-09	-2.704988e+01	-2.882106e+02
2.900000e-06	-3.869602e-06	-4.469169e-09	-2.756247e+01	-2.934950e+02
2.910000e-06	-3.940215e-06	-4.547131e-09	-2.806543e+01	-2.985753e+02
2.920000e-06	-4.009237e-06	-4.621709e-09	-2.855707e+01	-3.034651e+02
2.930000e-06	-4.076762e-06	-4.694644e-09	-2.903803e+01	-3.081766e+02
2.940000e-06	-4.142866e-06	-4.764463e-09	-2.950888e+01	-3.127201e+02
