# Temperatura_=_37.05
# Concentracion g/m^3_=_15000.0
# C_Vs_to_Am_M_A/Vsm_=_65563218390.804596
# pendiente_HvsI_1/m_=_3716.3
# ordenada_HvsI_A/m_=_1297.0
# frecuencia_Hz_=_301579.51098856074

Tiempo_(s)	Campo_(V.s)	Magnetizacion_(V.s)	Campo_(kA/m)	Magnetizacion_(A/m)
0.000000e+00	-5.415573e-06	-4.877954e-09	-3.833903e+01	-3.181861e+02
1.000000e-08	-5.412527e-06	-4.876779e-09	-3.831747e+01	-3.180857e+02
2.000000e-08	-5.407709e-06	-4.873919e-09	-3.828336e+01	-3.179248e+02
3.000000e-08	-5.401302e-06	-4.867210e-09	-3.823800e+01	-3.177000e+02
4.000000e-08	-5.393321e-06	-4.859188e-09	-3.818149e+01	-3.174073e+02
5.000000e-08	-5.383423e-06	-4.852059e-09	-3.811142e+01	-3.170431e+02
6.000000e-08	-5.371433e-06	-4.849793e-09	-3.802654e+01	-3.166044e+02
7.000000e-08	-5.357508e-06	-4.858825e-09	-3.792796e+01	-3.160898e+02
8.000000e-08	-5.341491e-06	-4.851140e-09	-3.781457e+01	-3.154994e+02
9.000000e-08	-5.323274e-06	-4.826260e-09	-3.768561e+01	-3.148351e+02
1.000000e-07	-5.302997e-06	-4.827325e-09	-3.754206e+01	-3.141005e+02
1.100000e-07	-5.280783e-06	-4.807136e-09	-3.738480e+01	-3.133002e+02
1.200000e-07	-5.256899e-06	-4.776168e-09	-3.721571e+01	-3.124398e+02
1.300000e-07	-5.231451e-06	-4.800375e-09	-3.703555e+01	-3.115246e+02
1.400000e-07	-5.204378e-06	-4.726329e-09	-3.684389e+01	-3.105594e+02
1.500000e-07	-5.175772e-06	-4.707775e-09	-3.664138e+01	-3.095476e+02
1.600000e-07	-5.145700e-06	-4.790930e-09	-3.642849e+01	-3.084907e+02
1.700000e-07	-5.113856e-06	-4.696109e-09	-3.620305e+01	-3.073881e+02
1.800000e-07	-5.079864e-06	-4.687207e-09	-3.596241e+01	-3.062372e+02
1.900000e-07	-5.044184e-06	-4.717216e-09	-3.570981e+01	-3.050339e+02
2.000000e-07	-5.007052e-06	-4.598507e-09	-3.544694e+01	-3.037723e+02
2.100000e-07	-4.968143e-06	-4.610291e-09	-3.517149e+01	-3.024463e+02
2.200000e-07	-4.927303e-06	-4.630267e-09	-3.488237e+01	-3.010498e+02
2.300000e-07	-4.884379e-06	-4.584878e-09	-3.457849e+01	-2.995776e+02
2.400000e-07	-4.839627e-06	-4.590775e-09	-3.426167e+01	-2.980257e+02
2.500000e-07	-4.793223e-06	-4.522929e-09	-3.393316e+01	-2.963923e+02
2.600000e-07	-4.744799e-06	-4.481544e-09	-3.359035e+01	-2.946772e+02
2.700000e-07	-4.694172e-06	-4.478413e-09	-3.323194e+01	-2.928822e+02
2.800000e-07	-4.641504e-06	-4.442716e-09	-3.285908e+01	-2.910108e+02
2.900000e-07	-4.587126e-06	-4.435274e-09	-3.247412e+01	-2.890672e+02
3.000000e-07	-4.531204e-06	-4.418243e-09	-3.207822e+01	-2.870562e+02
3.100000e-07	-4.473489e-06	-4.364082e-09	-3.166964e+01	-2.849823e+02
3.200000e-07	-4.413969e-06	-4.296403e-09	-3.124827e+01	-2.828490e+02
3.300000e-07	-4.352901e-06	-4.277265e-09	-3.081595e+01	-2.806589e+02
3.400000e-07	-4.290464e-06	-4.265007e-09	-3.037393e+01	-2.784129e+02
3.500000e-07	-4.226623e-06	-4.201647e-09	-2.992197e+01	-2.761104e+02
3.600000e-07	-4.161158e-06	-4.175583e-09	-2.945852e+01	-2.737496e+02
3.700000e-07	-4.093992e-06	-4.157942e-09	-2.898302e+01	-2.713279e+02
3.800000e-07	-4.025317e-06	-4.111701e-09	-2.849685e+01	-2.688423e+02
3.900000e-07	-3.955348e-06	-4.068496e-09	-2.800151e+01	-2.662896e+02
4.000000e-07	-3.884098e-06	-4.020741e-09	-2.749710e+01	-2.636675e+02
4.100000e-07	-3.811468e-06	-3.984729e-09	-2.698292e+01	-2.609744e+02
4.200000e-07	-3.737317e-06	-3.926973e-09	-2.645797e+01	-2.582098e+02
4.300000e-07	-3.661596e-06	-3.886889e-09	-2.592192e+01	-2.553740e+02
4.400000e-07	-3.584422e-06	-3.866473e-09	-2.537557e+01	-2.524683e+02
4.500000e-07	-3.505817e-06	-3.823017e-09	-2.481909e+01	-2.494942e+02
4.600000e-07	-3.425781e-06	-3.754952e-09	-2.425249e+01	-2.464535e+02
4.700000e-07	-3.344526e-06	-3.686587e-09	-2.367725e+01	-2.433472e+02
4.800000e-07	-3.262136e-06	-3.652811e-09	-2.309398e+01	-2.401756e+02
4.900000e-07	-3.178693e-06	-3.614990e-09	-2.250325e+01	-2.369378e+02
5.000000e-07	-3.094291e-06	-3.562334e-09	-2.190574e+01	-2.336317e+02
5.100000e-07	-3.008879e-06	-3.509607e-09	-2.130107e+01	-2.302539e+02
5.200000e-07	-2.922466e-06	-3.451210e-09	-2.068932e+01	-2.268002e+02
5.300000e-07	-2.835145e-06	-3.384967e-09	-2.007113e+01	-2.232659e+02
5.400000e-07	-2.746806e-06	-3.328357e-09	-1.944575e+01	-2.196462e+02
5.500000e-07	-2.657260e-06	-3.278160e-09	-1.881182e+01	-2.159366e+02
5.600000e-07	-2.566626e-06	-3.220025e-09	-1.817018e+01	-2.121336e+02
5.700000e-07	-2.475066e-06	-3.156592e-09	-1.752199e+01	-2.082348e+02
5.800000e-07	-2.382600e-06	-3.094657e-09	-1.686739e+01	-2.042390e+02
5.900000e-07	-2.289236e-06	-3.036367e-09	-1.620642e+01	-2.001464e+02
6.000000e-07	-2.195099e-06	-2.971522e-09	-1.553999e+01	-1.959581e+02
6.100000e-07	-2.100308e-06	-2.899309e-09	-1.486893e+01	-1.916761e+02
6.200000e-07	-2.004859e-06	-2.828108e-09	-1.419320e+01	-1.873024e+02
6.300000e-07	-1.908615e-06	-2.762083e-09	-1.351186e+01	-1.828391e+02
6.400000e-07	-1.811415e-06	-2.696552e-09	-1.282374e+01	-1.782874e+02
6.500000e-07	-1.713416e-06	-2.631433e-09	-1.212996e+01	-1.736478e+02
6.600000e-07	-1.614864e-06	-2.559975e-09	-1.143228e+01	-1.689194e+02
6.700000e-07	-1.515821e-06	-2.479957e-09	-1.073111e+01	-1.641004e+02
6.800000e-07	-1.416279e-06	-2.399520e-09	-1.002641e+01	-1.591878e+02
6.900000e-07	-1.316235e-06	-2.319622e-09	-9.318159e+00	-1.541782e+02
7.000000e-07	-1.215805e-06	-2.242592e-09	-8.607171e+00	-1.490674e+02
7.100000e-07	-1.115055e-06	-2.165345e-09	-7.893925e+00	-1.438515e+02
7.200000e-07	-1.013913e-06	-2.083370e-09	-7.177899e+00	-1.385268e+02
7.300000e-07	-9.123499e-07	-1.996428e-09	-6.458893e+00	-1.330904e+02
7.400000e-07	-8.104648e-07	-1.911078e-09	-5.737608e+00	-1.275398e+02
7.500000e-07	-7.083499e-07	-1.828017e-09	-5.014695e+00	-1.218737e+02
7.600000e-07	-6.059962e-07	-1.741784e-09	-4.290092e+00	-1.160908e+02
7.700000e-07	-5.034509e-07	-1.649393e-09	-3.564132e+00	-1.101906e+02
7.800000e-07	-4.007922e-07	-1.553154e-09	-2.837370e+00	-1.041718e+02
7.900000e-07	-2.980221e-07	-1.459167e-09	-2.109819e+00	-9.803318e+01
8.000000e-07	-1.951744e-07	-1.363680e-09	-1.381718e+00	-9.177204e+01
8.100000e-07	-9.229288e-08	-1.265807e-09	-6.533785e-01	-8.538457e+01
8.200000e-07	1.064057e-08	-1.167263e-09	7.532886e-02	-7.886543e+01
8.300000e-07	1.136190e-07	-1.067609e-09	8.043545e-01	-7.220774e+01
8.400000e-07	2.165701e-07	-9.653570e-10	1.533187e+00	-6.540320e+01
8.500000e-07	3.194440e-07	-8.612148e-10	2.261473e+00	-5.844242e+01
8.600000e-07	4.222278e-07	-7.544095e-10	2.989121e+00	-5.131536e+01
8.700000e-07	5.249392e-07	-6.420845e-10	3.716257e+00	-4.401192e+01
8.800000e-07	6.275843e-07	-5.264358e-10	4.442923e+00	-3.652256e+01
8.900000e-07	7.300295e-07	-4.093573e-10	5.168173e+00	-2.883901e+01
9.000000e-07	8.322090e-07	-2.927546e-10	5.891544e+00	-2.095498e+01
9.100000e-07	9.340896e-07	-1.729021e-10	6.612797e+00	-1.286674e+01
9.200000e-07	1.035644e-06	-4.914611e-11	7.331742e+00	-4.573759e+00
9.300000e-07	1.136813e-06	7.867725e-11	8.047957e+00	3.920825e+00
9.400000e-07	1.237599e-06	2.116956e-10	8.761464e+00	1.260980e+01
9.500000e-07	1.338010e-06	3.484535e-10	9.472310e+00	2.148159e+01
9.600000e-07	1.437968e-06	4.870752e-10	1.017995e+01	3.052013e+01
9.700000e-07	1.537427e-06	6.271007e-10	1.088407e+01	3.970479e+01
9.800000e-07	1.636347e-06	7.692055e-10	1.158436e+01	4.901054e+01
9.900000e-07	1.734655e-06	9.123932e-10	1.228032e+01	5.840823e+01
1.000000e-06	1.832170e-06	1.057907e-09	1.297067e+01	6.786503e+01
1.010000e-06	1.928801e-06	1.203151e-09	1.365476e+01	7.734508e+01
1.020000e-06	2.024560e-06	1.348847e-09	1.433268e+01	8.681029e+01
1.030000e-06	2.119554e-06	1.493423e-09	1.500518e+01	9.622129e+01
1.040000e-06	2.213810e-06	1.634390e-09	1.567245e+01	1.055386e+02
1.050000e-06	2.307318e-06	1.773126e-09	1.633444e+01	1.147236e+02
1.060000e-06	2.400157e-06	1.909290e-09	1.699168e+01	1.237400e+02
1.070000e-06	2.492291e-06	2.042360e-09	1.764393e+01	1.325547e+02
1.080000e-06	2.583665e-06	2.171381e-09	1.829081e+01	1.411391e+02
1.090000e-06	2.674099e-06	2.298275e-09	1.893103e+01	1.494696e+02
1.100000e-06	2.763363e-06	2.423068e-09	1.956296e+01	1.575281e+02
1.110000e-06	2.851484e-06	2.542677e-09	2.018681e+01	1.653027e+02
1.120000e-06	2.938617e-06	2.655602e-09	2.080366e+01	1.727873e+02
1.130000e-06	3.024855e-06	2.764262e-09	2.141417e+01	1.799810e+02
1.140000e-06	3.110119e-06	2.871490e-09	2.201779e+01	1.868880e+02
1.150000e-06	3.194375e-06	2.973283e-09	2.261427e+01	1.935162e+02
1.160000e-06	3.277648e-06	3.069116e-09	2.320379e+01	1.998766e+02
1.170000e-06	3.359757e-06	3.160783e-09	2.378508e+01	2.059818e+02
1.180000e-06	3.440578e-06	3.248464e-09	2.435724e+01	2.118456e+02
1.190000e-06	3.520115e-06	3.333537e-09	2.492032e+01	2.174813e+02
1.200000e-06	3.598356e-06	3.418652e-09	2.547421e+01	2.229017e+02
1.210000e-06	3.675297e-06	3.502746e-09	2.601891e+01	2.281183e+02
1.220000e-06	3.750966e-06	3.582789e-09	2.655460e+01	2.331408e+02
1.230000e-06	3.825195e-06	3.657944e-09	2.708010e+01	2.379772e+02
1.240000e-06	3.897790e-06	3.727762e-09	2.759403e+01	2.426342e+02
1.250000e-06	3.968890e-06	3.792788e-09	2.809738e+01	2.471168e+02
1.260000e-06	4.038590e-06	3.855876e-09	2.859081e+01	2.514290e+02
1.270000e-06	4.106933e-06	3.918911e-09	2.907463e+01	2.555740e+02
1.280000e-06	4.173861e-06	3.979722e-09	2.954845e+01	2.595545e+02
1.290000e-06	4.239118e-06	4.037892e-09	3.001043e+01	2.633729e+02
1.300000e-06	4.302748e-06	4.093161e-09	3.046089e+01	2.670317e+02
1.310000e-06	4.364945e-06	4.146588e-09	3.090121e+01	2.705332e+02
1.320000e-06	4.425756e-06	4.197155e-09	3.133172e+01	2.738797e+02
1.330000e-06	4.485180e-06	4.243675e-09	3.175240e+01	2.770737e+02
1.340000e-06	4.542857e-06	4.285984e-09	3.216072e+01	2.801176e+02
1.350000e-06	4.598669e-06	4.325138e-09	3.255584e+01	2.830142e+02
1.360000e-06	4.652869e-06	4.362943e-09	3.293954e+01	2.857661e+02
1.370000e-06	4.705376e-06	4.398645e-09	3.331126e+01	2.883764e+02
1.380000e-06	4.755935e-06	4.433625e-09	3.366918e+01	2.908485e+02
1.390000e-06	4.804430e-06	4.468546e-09	3.401250e+01	2.931861e+02
1.400000e-06	4.851100e-06	4.500926e-09	3.434289e+01	2.953936e+02
1.410000e-06	4.896187e-06	4.529937e-09	3.466209e+01	2.974758e+02
1.420000e-06	4.939784e-06	4.556815e-09	3.497073e+01	2.994381e+02
1.430000e-06	4.981631e-06	4.582586e-09	3.526698e+01	3.012862e+02
1.440000e-06	5.021538e-06	4.607218e-09	3.554949e+01	3.030258e+02
1.450000e-06	5.059685e-06	4.629236e-09	3.581955e+01	3.046628e+02
1.460000e-06	5.096194e-06	4.650313e-09	3.607802e+01	3.062021e+02
1.470000e-06	5.130992e-06	4.673491e-09	3.632437e+01	3.076482e+02
1.480000e-06	5.163888e-06	4.696323e-09	3.655725e+01	3.090044e+02
1.490000e-06	5.194926e-06	4.715513e-09	3.677698e+01	3.102730e+02
1.500000e-06	5.224226e-06	4.731178e-09	3.698440e+01	3.114549e+02
1.510000e-06	5.251796e-06	4.745801e-09	3.717959e+01	3.125501e+02
1.520000e-06	5.277372e-06	4.760433e-09	3.736065e+01	3.135580e+02
1.530000e-06	5.300879e-06	4.774413e-09	3.752706e+01	3.144775e+02
1.540000e-06	5.322503e-06	4.787007e-09	3.768015e+01	3.153075e+02
1.550000e-06	5.342409e-06	4.797981e-09	3.782107e+01	3.160475e+02
1.560000e-06	5.360547e-06	4.809074e-09	3.794948e+01	3.166979e+02
1.570000e-06	5.376648e-06	4.820517e-09	3.806346e+01	3.172602e+02
1.580000e-06	5.390754e-06	4.831202e-09	3.816332e+01	3.177372e+02
1.590000e-06	5.402851e-06	4.839003e-09	3.824897e+01	3.181328e+02
1.600000e-06	5.412697e-06	4.843145e-09	3.831867e+01	3.184515e+02
1.610000e-06	5.420408e-06	4.846322e-09	3.837326e+01	3.186986e+02
1.620000e-06	5.426261e-06	4.850388e-09	3.841469e+01	3.188790e+02
1.630000e-06	5.430358e-06	4.856362e-09	3.844370e+01	3.189973e+02
1.640000e-06	5.432536e-06	4.859869e-09	3.845912e+01	3.190565e+02
1.650000e-06	5.432661e-06	4.859132e-09	3.846000e+01	3.190587e+02
1.660000e-06	5.430947e-06	4.857940e-09	3.844787e+01	3.190038e+02
1.670000e-06	5.427593e-06	4.855761e-09	3.842412e+01	3.188905e+02
1.680000e-06	5.422532e-06	4.855363e-09	3.838829e+01	3.187161e+02
1.690000e-06	5.415585e-06	4.854410e-09	3.833912e+01	3.184769e+02
1.700000e-06	5.406884e-06	4.850967e-09	3.827751e+01	3.181690e+02
1.710000e-06	5.396599e-06	4.844414e-09	3.820470e+01	3.177889e+02
1.720000e-06	5.384586e-06	4.827770e-09	3.811966e+01	3.173339e+02
1.730000e-06	5.370562e-06	4.805885e-09	3.802037e+01	3.168029e+02
1.740000e-06	5.354391e-06	4.819505e-09	3.790590e+01	3.161963e+02
1.750000e-06	5.335811e-06	4.799031e-09	3.777436e+01	3.155164e+02
1.760000e-06	5.314520e-06	4.796232e-09	3.762363e+01	3.147671e+02
1.770000e-06	5.291041e-06	4.807340e-09	3.745742e+01	3.139534e+02
1.780000e-06	5.266465e-06	4.752546e-09	3.728343e+01	3.130806e+02
1.790000e-06	5.241079e-06	4.801735e-09	3.710371e+01	3.121542e+02
1.800000e-06	5.214016e-06	4.745109e-09	3.691213e+01	3.111787e+02
1.810000e-06	5.184824e-06	4.656360e-09	3.670546e+01	3.101570e+02
1.820000e-06	5.153955e-06	4.758675e-09	3.648693e+01	3.090903e+02
1.830000e-06	5.121320e-06	4.672498e-09	3.625589e+01	3.079775e+02
1.840000e-06	5.086751e-06	4.607198e-09	3.601117e+01	3.068157e+02
1.850000e-06	5.050509e-06	4.726921e-09	3.575459e+01	3.056002e+02
1.860000e-06	5.012401e-06	4.630789e-09	3.548481e+01	3.043252e+02
1.870000e-06	4.972454e-06	4.571698e-09	3.520201e+01	3.029845e+02
1.880000e-06	4.930800e-06	4.577969e-09	3.490713e+01	3.015720e+02
1.890000e-06	4.887351e-06	4.509125e-09	3.459953e+01	3.000828e+02
1.900000e-06	4.842291e-06	4.566885e-09	3.428053e+01	2.985134e+02
1.910000e-06	4.795353e-06	4.504934e-09	3.394824e+01	2.968623e+02
1.920000e-06	4.746404e-06	4.460032e-09	3.360171e+01	2.951297e+02
1.930000e-06	4.695851e-06	4.498693e-09	3.324383e+01	2.933179e+02
1.940000e-06	4.643521e-06	4.383029e-09	3.287336e+01	2.914305e+02
1.950000e-06	4.589100e-06	4.359198e-09	3.248809e+01	2.894719e+02
1.960000e-06	4.532712e-06	4.364357e-09	3.208890e+01	2.874469e+02
1.970000e-06	4.474642e-06	4.353619e-09	3.167780e+01	2.853599e+02
1.980000e-06	4.415166e-06	4.324877e-09	3.125674e+01	2.832142e+02
1.990000e-06	4.354163e-06	4.243687e-09	3.082488e+01	2.810119e+02
2.000000e-06	4.291413e-06	4.262581e-09	3.038064e+01	2.787537e+02
2.010000e-06	4.227066e-06	4.190997e-09	2.992511e+01	2.764388e+02
2.020000e-06	4.161224e-06	4.124275e-09	2.945899e+01	2.740651e+02
2.030000e-06	4.093974e-06	4.133084e-09	2.898289e+01	2.716298e+02
2.040000e-06	4.025333e-06	4.099892e-09	2.849696e+01	2.691299e+02
2.050000e-06	3.955083e-06	4.067338e-09	2.799963e+01	2.665624e+02
2.060000e-06	3.883277e-06	3.991505e-09	2.749129e+01	2.639250e+02
2.070000e-06	3.810191e-06	3.984209e-09	2.697388e+01	2.612165e+02
2.080000e-06	3.735800e-06	3.945543e-09	2.644724e+01	2.584364e+02
2.090000e-06	3.659957e-06	3.859400e-09	2.591031e+01	2.555853e+02
2.100000e-06	3.582530e-06	3.822891e-09	2.536218e+01	2.526647e+02
2.110000e-06	3.503567e-06	3.790581e-09	2.480317e+01	2.496761e+02
2.120000e-06	3.423420e-06	3.774217e-09	2.423577e+01	2.466211e+02
2.130000e-06	3.342198e-06	3.701661e-09	2.366077e+01	2.435007e+02
2.140000e-06	3.259800e-06	3.654939e-09	2.307744e+01	2.403149e+02
2.150000e-06	3.176335e-06	3.616118e-09	2.248656e+01	2.370625e+02
2.160000e-06	3.091779e-06	3.544196e-09	2.188795e+01	2.337412e+02
2.170000e-06	3.005929e-06	3.499309e-09	2.128019e+01	2.303474e+02
2.180000e-06	2.918825e-06	3.462169e-09	2.066354e+01	2.268767e+02
2.190000e-06	2.830690e-06	3.423356e-09	2.003960e+01	2.233244e+02
2.200000e-06	2.741619e-06	3.355792e-09	1.940903e+01	2.196856e+02
2.210000e-06	2.651594e-06	3.287159e-09	1.877171e+01	2.159562e+02
2.220000e-06	2.560638e-06	3.228489e-09	1.812779e+01	2.121326e+02
2.230000e-06	2.468894e-06	3.175725e-09	1.747829e+01	2.082129e+02
2.240000e-06	2.376377e-06	3.117983e-09	1.682333e+01	2.041962e+02
2.250000e-06	2.282871e-06	3.056483e-09	1.616136e+01	2.000828e+02
2.260000e-06	2.188368e-06	2.998419e-09	1.549234e+01	1.958741e+02
2.270000e-06	2.092994e-06	2.929097e-09	1.481715e+01	1.915722e+02
2.280000e-06	1.996772e-06	2.861845e-09	1.413595e+01	1.871790e+02
2.290000e-06	1.899843e-06	2.792393e-09	1.344975e+01	1.826965e+02
2.300000e-06	1.802423e-06	2.722116e-09	1.276008e+01	1.781258e+02
2.310000e-06	1.704468e-06	2.652088e-09	1.206662e+01	1.734671e+02
2.320000e-06	1.605874e-06	2.579947e-09	1.136863e+01	1.687194e+02
2.330000e-06	1.506765e-06	2.509604e-09	1.066700e+01	1.638805e+02
2.340000e-06	1.407279e-06	2.442015e-09	9.962697e+00	1.589473e+02
2.350000e-06	1.307473e-06	2.368119e-09	9.256127e+00	1.539162e+02
2.360000e-06	1.207374e-06	2.284884e-09	8.547490e+00	1.487830e+02
2.370000e-06	1.106958e-06	2.202108e-09	7.836606e+00	1.435440e+02
2.380000e-06	1.006041e-06	2.122071e-09	7.122170e+00	1.381954e+02
2.390000e-06	9.045144e-07	2.044322e-09	6.403423e+00	1.327346e+02
2.400000e-06	8.024831e-07	1.958782e-09	5.681102e+00	1.271592e+02
2.410000e-06	7.001046e-07	1.868404e-09	4.956324e+00	1.214680e+02
2.420000e-06	5.975134e-07	1.779227e-09	4.230038e+00	1.156599e+02
2.430000e-06	4.947853e-07	1.688216e-09	3.502785e+00	1.097342e+02
2.440000e-06	3.919379e-07	1.599400e-09	2.774687e+00	1.036898e+02
2.450000e-06	2.889117e-07	1.513163e-09	2.045323e+00	9.752503e+01
2.460000e-06	1.857770e-07	1.420556e-09	1.315191e+00	9.123704e+01
2.470000e-06	8.256963e-08	1.319280e-09	5.845437e-01	8.482172e+01
2.480000e-06	-2.065049e-08	1.213638e-09	-1.461932e-01	7.827339e+01
2.490000e-06	-1.238685e-07	1.107940e-09	-8.769149e-01	7.158483e+01
2.500000e-06	-2.270936e-07	1.004623e-09	-1.607687e+00	6.474749e+01
2.510000e-06	-3.302536e-07	8.992709e-10	-2.337999e+00	5.775179e+01
2.520000e-06	-4.333508e-07	7.908313e-10	-3.067865e+00	5.058764e+01
2.530000e-06	-5.362957e-07	6.772665e-10	-3.796654e+00	4.324498e+01
2.540000e-06	-6.390419e-07	5.609016e-10	-4.524036e+00	3.571451e+01
2.550000e-06	-7.415509e-07	4.444061e-10	-5.249738e+00	2.798832e+01
2.560000e-06	-8.437457e-07	3.222365e-10	-5.973216e+00	2.006060e+01
2.570000e-06	-9.455047e-07	1.929356e-10	-6.693609e+00	1.192827e+01
2.580000e-06	-1.046753e-06	5.990529e-11	-7.410384e+00	3.591550e+00
2.590000e-06	-1.147521e-06	-7.270551e-11	-8.123761e+00	-4.945581e+00
2.600000e-06	-1.247813e-06	-2.031214e-10	-8.833770e+00	-1.367500e+01
2.610000e-06	-1.347667e-06	-3.351161e-10	-9.540681e+00	-2.258417e+01
2.620000e-06	-1.447082e-06	-4.735759e-10	-1.024447e+01	-3.165605e+01
2.630000e-06	-1.545995e-06	-6.157830e-10	-1.094472e+01	-4.086905e+01
2.640000e-06	-1.644366e-06	-7.574385e-10	-1.164113e+01	-5.019723e+01
2.650000e-06	-1.742146e-06	-8.991599e-10	-1.233335e+01	-5.961061e+01
2.660000e-06	-1.839328e-06	-1.042554e-09	-1.302135e+01	-6.907564e+01
2.670000e-06	-1.935970e-06	-1.188790e-09	-1.370551e+01	-7.855592e+01
2.680000e-06	-2.032052e-06	-1.336119e-09	-1.438572e+01	-8.801298e+01
2.690000e-06	-2.127433e-06	-1.480324e-09	-1.506096e+01	-9.740736e+01
2.700000e-06	-2.221937e-06	-1.620002e-09	-1.572999e+01	-1.066996e+02
2.710000e-06	-2.315464e-06	-1.758025e-09	-1.639210e+01	-1.158516e+02
2.720000e-06	-2.408061e-06	-1.894827e-09	-1.704763e+01	-1.248276e+02
2.730000e-06	-2.499802e-06	-2.029500e-09	-1.769711e+01	-1.335954e+02
2.740000e-06	-2.590649e-06	-2.161043e-09	-1.834025e+01	-1.421273e+02
2.750000e-06	-2.680581e-06	-2.289088e-09	-1.897692e+01	-1.504009e+02
2.760000e-06	-2.769577e-06	-2.412225e-09	-1.960695e+01	-1.583995e+02
2.770000e-06	-2.857710e-06	-2.529236e-09	-2.023088e+01	-1.661125e+02
2.780000e-06	-2.944976e-06	-2.642185e-09	-2.084867e+01	-1.735347e+02
2.790000e-06	-3.031104e-06	-2.751162e-09	-2.145841e+01	-1.806667e+02
2.800000e-06	-3.116040e-06	-2.856310e-09	-2.205970e+01	-1.875133e+02
2.810000e-06	-3.199902e-06	-2.956079e-09	-2.265340e+01	-1.940833e+02
2.820000e-06	-3.282661e-06	-3.051005e-09	-2.323928e+01	-2.003880e+02
2.830000e-06	-3.364352e-06	-3.143674e-09	-2.381761e+01	-2.064405e+02
2.840000e-06	-3.445035e-06	-3.233143e-09	-2.438879e+01	-2.122544e+02
2.850000e-06	-3.524527e-06	-3.318084e-09	-2.495155e+01	-2.178431e+02
2.860000e-06	-3.602505e-06	-3.399952e-09	-2.550359e+01	-2.232191e+02
2.870000e-06	-3.678890e-06	-3.477899e-09	-2.604435e+01	-2.283934e+02
2.880000e-06	-3.753842e-06	-3.551378e-09	-2.657496e+01	-2.333755e+02
2.890000e-06	-3.827402e-06	-3.624724e-09	-2.709573e+01	-2.381732e+02
2.900000e-06	-3.899651e-06	-3.698067e-09	-2.760721e+01	-2.427925e+02
2.910000e-06	-3.970448e-06	-3.766590e-09	-2.810840e+01	-2.472384e+02
2.920000e-06	-4.039647e-06	-3.829855e-09	-2.859829e+01	-2.515147e+02
2.930000e-06	-4.107382e-06	-3.891632e-09	-2.907782e+01	-2.556243e+02
2.940000e-06	-4.173712e-06	-3.953582e-09	-2.954739e+01	-2.595701e+02
