# Temperatura_=_44.95
# Concentracion g/m^3_=_15000.0
# C_Vs_to_Am_M_A/Vsm_=_65563218390.804596
# pendiente_HvsI_1/m_=_3716.3
# ordenada_HvsI_A/m_=_1297.0
# frecuencia_Hz_=_301574.31646945485

Tiempo_(s)	Campo_(V.s)	Magnetizacion_(V.s)	Campo_(kA/m)	Magnetizacion_(A/m)
0.000000e+00	-5.401813e-06	-5.208057e-09	-3.834563e+01	-3.394363e+02
1.000000e-08	-5.398789e-06	-5.208024e-09	-3.832416e+01	-3.392958e+02
2.000000e-08	-5.394055e-06	-5.203408e-09	-3.829056e+01	-3.390785e+02
3.000000e-08	-5.387735e-06	-5.195424e-09	-3.824570e+01	-3.387824e+02
4.000000e-08	-5.379793e-06	-5.187725e-09	-3.818932e+01	-3.384067e+02
5.000000e-08	-5.369932e-06	-5.179618e-09	-3.811932e+01	-3.379525e+02
6.000000e-08	-5.358065e-06	-5.172536e-09	-3.803508e+01	-3.374227e+02
7.000000e-08	-5.344316e-06	-5.167790e-09	-3.793748e+01	-3.368225e+02
8.000000e-08	-5.328362e-06	-5.163310e-09	-3.782423e+01	-3.361586e+02
9.000000e-08	-5.310186e-06	-5.166883e-09	-3.769520e+01	-3.354392e+02
1.000000e-07	-5.290001e-06	-5.163549e-09	-3.755192e+01	-3.346724e+02
1.100000e-07	-5.267946e-06	-5.136410e-09	-3.739536e+01	-3.338659e+02
1.200000e-07	-5.244210e-06	-5.107396e-09	-3.722686e+01	-3.330253e+02
1.300000e-07	-5.218878e-06	-5.079350e-09	-3.704704e+01	-3.321539e+02
1.400000e-07	-5.191933e-06	-5.042044e-09	-3.685577e+01	-3.312514e+02
1.500000e-07	-5.163397e-06	-5.070211e-09	-3.665320e+01	-3.303140e+02
1.600000e-07	-5.133425e-06	-5.075935e-09	-3.644044e+01	-3.293345e+02
1.700000e-07	-5.101718e-06	-5.026820e-09	-3.621536e+01	-3.283029e+02
1.800000e-07	-5.067828e-06	-5.015010e-09	-3.597478e+01	-3.272070e+02
1.900000e-07	-5.032253e-06	-4.968675e-09	-3.572225e+01	-3.260340e+02
2.000000e-07	-4.995204e-06	-4.940450e-09	-3.545926e+01	-3.247716e+02
2.100000e-07	-4.956311e-06	-4.975205e-09	-3.518316e+01	-3.234092e+02
2.200000e-07	-4.915550e-06	-4.959488e-09	-3.489381e+01	-3.219390e+02
2.300000e-07	-4.872852e-06	-4.908099e-09	-3.459072e+01	-3.203569e+02
2.400000e-07	-4.828279e-06	-4.857019e-09	-3.427431e+01	-3.186624e+02
2.500000e-07	-4.781951e-06	-4.805220e-09	-3.394544e+01	-3.168591e+02
2.600000e-07	-4.733616e-06	-4.800648e-09	-3.360233e+01	-3.149534e+02
2.700000e-07	-4.683167e-06	-4.786124e-09	-3.324421e+01	-3.129540e+02
2.800000e-07	-4.630708e-06	-4.752848e-09	-3.287182e+01	-3.108708e+02
2.900000e-07	-4.576436e-06	-4.703919e-09	-3.248656e+01	-3.087134e+02
3.000000e-07	-4.520628e-06	-4.657295e-09	-3.209040e+01	-3.064900e+02
3.100000e-07	-4.463073e-06	-4.651470e-09	-3.168183e+01	-3.042067e+02
3.200000e-07	-4.403714e-06	-4.631759e-09	-3.126047e+01	-3.018668e+02
3.300000e-07	-4.342874e-06	-4.581108e-09	-3.082859e+01	-2.994705e+02
3.400000e-07	-4.280573e-06	-4.524028e-09	-3.038633e+01	-2.970151e+02
3.500000e-07	-4.216853e-06	-4.475080e-09	-2.993401e+01	-2.944961e+02
3.600000e-07	-4.151607e-06	-4.452052e-09	-2.947084e+01	-2.919074e+02
3.700000e-07	-4.084701e-06	-4.435524e-09	-2.899590e+01	-2.892426e+02
3.800000e-07	-4.016254e-06	-4.391414e-09	-2.851002e+01	-2.864961e+02
3.900000e-07	-3.946386e-06	-4.322810e-09	-2.801405e+01	-2.836637e+02
4.000000e-07	-3.875323e-06	-4.264794e-09	-2.750960e+01	-2.807431e+02
4.100000e-07	-3.802974e-06	-4.231685e-09	-2.699602e+01	-2.777347e+02
4.200000e-07	-3.729104e-06	-4.193445e-09	-2.647164e+01	-2.746407e+02
4.300000e-07	-3.653690e-06	-4.152608e-09	-2.593631e+01	-2.714652e+02
4.400000e-07	-3.576832e-06	-4.098421e-09	-2.539071e+01	-2.682132e+02
4.500000e-07	-3.498553e-06	-4.029718e-09	-2.483504e+01	-2.648900e+02
4.600000e-07	-3.418793e-06	-3.968538e-09	-2.426885e+01	-2.615000e+02
4.700000e-07	-3.337741e-06	-3.925973e-09	-2.369348e+01	-2.580461e+02
4.800000e-07	-3.255527e-06	-3.891669e-09	-2.310988e+01	-2.545293e+02
4.900000e-07	-3.172272e-06	-3.834377e-09	-2.251888e+01	-2.509481e+02
5.000000e-07	-3.088064e-06	-3.764789e-09	-2.192112e+01	-2.472989e+02
5.100000e-07	-3.002876e-06	-3.704441e-09	-2.131640e+01	-2.435762e+02
5.200000e-07	-2.916713e-06	-3.652156e-09	-2.070475e+01	-2.397733e+02
5.300000e-07	-2.829547e-06	-3.593762e-09	-2.008599e+01	-2.358832e+02
5.400000e-07	-2.741476e-06	-3.528291e-09	-1.946081e+01	-2.318990e+02
5.500000e-07	-2.652341e-06	-3.455158e-09	-1.882806e+01	-2.278154e+02
5.600000e-07	-2.561947e-06	-3.382075e-09	-1.818639e+01	-2.236287e+02
5.700000e-07	-2.470512e-06	-3.324466e-09	-1.753732e+01	-2.193371e+02
5.800000e-07	-2.378315e-06	-3.272981e-09	-1.688285e+01	-2.149414e+02
5.900000e-07	-2.285357e-06	-3.208413e-09	-1.622297e+01	-2.104438e+02
6.000000e-07	-2.191516e-06	-3.127164e-09	-1.555682e+01	-2.058483e+02
6.100000e-07	-2.096872e-06	-3.047583e-09	-1.488498e+01	-2.011593e+02
6.200000e-07	-2.001572e-06	-2.975417e-09	-1.420848e+01	-1.963816e+02
6.300000e-07	-1.905633e-06	-2.904758e-09	-1.352744e+01	-1.915189e+02
6.400000e-07	-1.808921e-06	-2.831995e-09	-1.284091e+01	-1.865736e+02
6.500000e-07	-1.711382e-06	-2.755319e-09	-1.214852e+01	-1.815467e+02
6.600000e-07	-1.613091e-06	-2.671649e-09	-1.145078e+01	-1.764371e+02
6.700000e-07	-1.514207e-06	-2.587177e-09	-1.074884e+01	-1.712420e+02
6.800000e-07	-1.414844e-06	-2.510735e-09	-1.004350e+01	-1.659570e+02
6.900000e-07	-1.315009e-06	-2.433227e-09	-9.334801e+00	-1.605770e+02
7.000000e-07	-1.214789e-06	-2.347676e-09	-8.623373e+00	-1.550963e+02
7.100000e-07	-1.114265e-06	-2.257216e-09	-7.909788e+00	-1.495095e+02
7.200000e-07	-1.013459e-06	-2.168063e-09	-7.194202e+00	-1.438117e+02
7.300000e-07	-9.123135e-07	-2.078885e-09	-6.476203e+00	-1.379990e+02
7.400000e-07	-8.107919e-07	-1.989750e-09	-5.755536e+00	-1.320686e+02
7.500000e-07	-7.089505e-07	-1.900454e-09	-5.032598e+00	-1.260186e+02
7.600000e-07	-6.068170e-07	-1.805208e-09	-4.307588e+00	-1.198479e+02
7.700000e-07	-5.044597e-07	-1.704091e-09	-3.580988e+00	-1.135557e+02
7.800000e-07	-4.020084e-07	-1.604153e-09	-2.853721e+00	-1.071411e+02
7.900000e-07	-2.994642e-07	-1.509113e-09	-2.125794e+00	-1.006024e+02
8.000000e-07	-1.968286e-07	-1.412026e-09	-1.397219e+00	-9.393669e+01
8.100000e-07	-9.411463e-08	-1.309044e-09	-6.680877e-01	-8.713970e+01
8.200000e-07	8.737052e-09	-1.202983e-09	6.202136e-02	-8.020540e+01
8.300000e-07	1.115857e-07	-1.095769e-09	7.921091e-01	-7.312611e+01
8.400000e-07	2.143465e-07	-9.865846e-10	1.521573e+00	-6.589273e+01
8.500000e-07	3.170378e-07	-8.763114e-10	2.250543e+00	-5.849508e+01
8.600000e-07	4.196745e-07	-7.623630e-10	2.979126e+00	-5.092249e+01
8.700000e-07	5.222425e-07	-6.415977e-10	3.707222e+00	-4.316443e+01
8.800000e-07	6.246994e-07	-5.196854e-10	4.434528e+00	-3.521118e+01
8.900000e-07	7.269764e-07	-3.993929e-10	5.160558e+00	-2.705463e+01
9.000000e-07	8.289780e-07	-2.770305e-10	5.884632e+00	-1.868891e+01
9.100000e-07	9.306330e-07	-1.479555e-10	6.606247e+00	-1.011108e+01
9.200000e-07	1.031845e-06	-1.307864e-11	7.324717e+00	-1.321680e+00
9.300000e-07	1.132655e-06	1.259481e-10	8.040330e+00	7.674774e+00
9.400000e-07	1.233146e-06	2.670890e-10	8.753686e+00	1.686943e+01
9.500000e-07	1.333345e-06	4.093051e-10	9.464965e+00	2.624887e+01
9.600000e-07	1.433183e-06	5.541743e-10	1.017368e+01	3.579497e+01
9.700000e-07	1.532504e-06	7.016430e-10	1.087873e+01	4.548497e+01
9.800000e-07	1.631182e-06	8.523567e-10	1.157921e+01	5.529166e+01
9.900000e-07	1.729122e-06	1.005051e-09	1.227445e+01	6.518376e+01
1.000000e-06	1.826236e-06	1.159193e-09	1.296383e+01	7.512652e+01
1.010000e-06	1.922506e-06	1.313481e-09	1.364722e+01	8.508239e+01
1.020000e-06	2.018022e-06	1.467793e-09	1.432525e+01	9.501204e+01
1.030000e-06	2.112863e-06	1.620868e-09	1.499849e+01	1.048753e+02
1.040000e-06	2.206953e-06	1.770024e-09	1.566641e+01	1.146324e+02
1.050000e-06	2.300272e-06	1.914601e-09	1.632885e+01	1.242452e+02
1.060000e-06	2.392862e-06	2.054726e-09	1.698611e+01	1.336779e+02
1.070000e-06	2.484698e-06	2.191948e-09	1.763803e+01	1.428988e+02
1.080000e-06	2.575759e-06	2.327562e-09	1.828443e+01	1.518803e+02
1.090000e-06	2.665852e-06	2.461358e-09	1.892397e+01	1.606004e+02
1.100000e-06	2.754758e-06	2.591628e-09	1.955509e+01	1.690423e+02
1.110000e-06	2.842575e-06	2.715930e-09	2.017847e+01	1.771946e+02
1.120000e-06	2.929506e-06	2.834451e-09	2.079557e+01	1.850515e+02
1.130000e-06	3.015542e-06	2.948955e-09	2.140631e+01	1.926118e+02
1.140000e-06	3.100590e-06	3.059332e-09	2.201003e+01	1.998786e+02
1.150000e-06	3.184657e-06	3.163985e-09	2.260680e+01	2.068582e+02
1.160000e-06	3.267731e-06	3.263513e-09	2.319651e+01	2.135596e+02
1.170000e-06	3.349618e-06	3.360806e-09	2.377780e+01	2.199935e+02
1.180000e-06	3.430184e-06	3.454914e-09	2.434971e+01	2.261718e+02
1.190000e-06	3.509532e-06	3.545825e-09	2.491297e+01	2.321064e+02
1.200000e-06	3.587666e-06	3.634724e-09	2.546762e+01	2.378095e+02
1.210000e-06	3.664528e-06	3.719982e-09	2.601323e+01	2.432927e+02
1.220000e-06	3.740093e-06	3.801436e-09	2.654964e+01	2.485672e+02
1.230000e-06	3.814063e-06	3.877892e-09	2.707474e+01	2.536432e+02
1.240000e-06	3.886337e-06	3.950356e-09	2.758778e+01	2.585301e+02
1.250000e-06	3.957177e-06	4.021842e-09	2.809066e+01	2.632364e+02
1.260000e-06	4.026680e-06	4.092046e-09	2.858403e+01	2.677697e+02
1.270000e-06	4.094858e-06	4.160547e-09	2.906800e+01	2.721365e+02
1.280000e-06	4.161632e-06	4.224749e-09	2.954201e+01	2.763419e+02
1.290000e-06	4.226732e-06	4.284871e-09	3.000413e+01	2.803901e+02
1.300000e-06	4.290232e-06	4.341897e-09	3.045490e+01	2.842837e+02
1.310000e-06	4.352314e-06	4.396349e-09	3.089560e+01	2.880244e+02
1.320000e-06	4.412960e-06	4.449601e-09	3.132610e+01	2.916126e+02
1.330000e-06	4.472184e-06	4.500442e-09	3.174651e+01	2.950479e+02
1.340000e-06	4.529727e-06	4.548329e-09	3.215499e+01	2.983293e+02
1.350000e-06	4.585447e-06	4.594705e-09	3.255053e+01	3.014559e+02
1.360000e-06	4.639527e-06	4.639117e-09	3.293442e+01	3.044270e+02
1.370000e-06	4.691888e-06	4.681136e-09	3.330611e+01	3.072430e+02
1.380000e-06	4.742291e-06	4.720527e-09	3.366391e+01	3.099056e+02
1.390000e-06	4.790685e-06	4.756743e-09	3.400744e+01	3.124177e+02
1.400000e-06	4.837342e-06	4.790713e-09	3.433864e+01	3.147842e+02
1.410000e-06	4.882461e-06	4.820427e-09	3.465893e+01	3.170115e+02
1.420000e-06	4.926002e-06	4.847216e-09	3.496801e+01	3.191069e+02
1.430000e-06	4.967723e-06	4.874116e-09	3.526417e+01	3.210790e+02
1.440000e-06	5.007527e-06	4.900908e-09	3.554673e+01	3.229361e+02
1.450000e-06	5.045604e-06	4.927049e-09	3.581703e+01	3.246862e+02
1.460000e-06	5.082059e-06	4.951719e-09	3.607581e+01	3.263363e+02
1.470000e-06	5.116759e-06	4.975461e-09	3.632213e+01	3.278919e+02
1.480000e-06	5.149474e-06	4.997127e-09	3.655436e+01	3.293565e+02
1.490000e-06	5.180380e-06	5.015839e-09	3.677375e+01	3.307318e+02
1.500000e-06	5.209661e-06	5.032142e-09	3.698161e+01	3.320180e+02
1.510000e-06	5.237216e-06	5.047681e-09	3.717721e+01	3.332136e+02
1.520000e-06	5.262827e-06	5.062723e-09	3.735902e+01	3.343165e+02
1.530000e-06	5.286389e-06	5.077206e-09	3.752627e+01	3.353246e+02
1.540000e-06	5.308042e-06	5.091539e-09	3.767998e+01	3.362359e+02
1.550000e-06	5.327982e-06	5.103781e-09	3.782153e+01	3.370497e+02
1.560000e-06	5.346055e-06	5.114690e-09	3.794983e+01	3.377663e+02
1.570000e-06	5.362064e-06	5.125477e-09	3.806347e+01	3.383879e+02
1.580000e-06	5.376110e-06	5.134897e-09	3.816318e+01	3.389174e+02
1.590000e-06	5.388151e-06	5.142466e-09	3.824865e+01	3.393593e+02
1.600000e-06	5.397976e-06	5.148215e-09	3.831839e+01	3.397180e+02
1.610000e-06	5.405709e-06	5.151840e-09	3.837329e+01	3.399981e+02
1.620000e-06	5.411602e-06	5.156158e-09	3.841512e+01	3.402034e+02
1.630000e-06	5.415672e-06	5.160331e-09	3.844402e+01	3.403365e+02
1.640000e-06	5.417768e-06	5.161896e-09	3.845889e+01	3.403986e+02
1.650000e-06	5.417924e-06	5.161762e-09	3.846000e+01	3.403894e+02
1.660000e-06	5.416338e-06	5.159068e-09	3.844874e+01	3.403075e+02
1.670000e-06	5.413066e-06	5.155021e-09	3.842552e+01	3.401505e+02
1.680000e-06	5.408064e-06	5.153185e-09	3.839001e+01	3.399162e+02
1.690000e-06	5.401119e-06	5.149834e-09	3.834071e+01	3.396029e+02
1.700000e-06	5.392403e-06	5.144729e-09	3.827884e+01	3.392100e+02
1.710000e-06	5.382187e-06	5.138447e-09	3.820631e+01	3.387391e+02
1.720000e-06	5.370233e-06	5.130114e-09	3.812145e+01	3.381935e+02
1.730000e-06	5.356237e-06	5.116255e-09	3.802210e+01	3.375788e+02
1.740000e-06	5.340086e-06	5.093306e-09	3.790745e+01	3.369021e+02
1.750000e-06	5.321557e-06	5.072021e-09	3.777592e+01	3.361716e+02
1.760000e-06	5.300359e-06	5.074999e-09	3.762544e+01	3.353955e+02
1.770000e-06	5.276933e-06	5.080692e-09	3.745915e+01	3.345811e+02
1.780000e-06	5.252329e-06	5.084979e-09	3.728450e+01	3.337335e+02
1.790000e-06	5.227017e-06	5.070108e-09	3.710481e+01	3.328554e+02
1.800000e-06	5.200208e-06	5.000219e-09	3.691451e+01	3.319456e+02
1.810000e-06	5.171182e-06	5.004253e-09	3.670846e+01	3.309997e+02
1.820000e-06	5.140332e-06	5.020999e-09	3.648947e+01	3.300098e+02
1.830000e-06	5.107716e-06	4.980363e-09	3.625793e+01	3.289653e+02
1.840000e-06	5.073200e-06	5.006931e-09	3.601292e+01	3.278537e+02
1.850000e-06	5.037078e-06	5.002607e-09	3.575650e+01	3.266624e+02
1.860000e-06	4.999109e-06	4.939381e-09	3.548698e+01	3.253791e+02
1.870000e-06	4.959288e-06	4.916730e-09	3.520430e+01	3.239939e+02
1.880000e-06	4.917823e-06	4.893888e-09	3.490995e+01	3.224998e+02
1.890000e-06	4.874578e-06	4.909673e-09	3.460297e+01	3.208932e+02
1.900000e-06	4.829687e-06	4.908626e-09	3.428430e+01	3.191749e+02
1.910000e-06	4.782878e-06	4.837880e-09	3.395203e+01	3.173487e+02
1.920000e-06	4.734045e-06	4.806839e-09	3.360537e+01	3.154220e+02
1.930000e-06	4.683670e-06	4.762791e-09	3.324778e+01	3.134036e+02
1.940000e-06	4.631519e-06	4.743008e-09	3.287758e+01	3.113035e+02
1.950000e-06	4.577230e-06	4.748192e-09	3.249220e+01	3.091311e+02
1.960000e-06	4.521006e-06	4.690276e-09	3.209308e+01	3.068942e+02
1.970000e-06	4.463133e-06	4.646163e-09	3.168226e+01	3.045984e+02
1.980000e-06	4.403854e-06	4.606351e-09	3.126146e+01	3.022463e+02
1.990000e-06	4.343049e-06	4.579147e-09	3.082983e+01	2.998374e+02
2.000000e-06	4.280539e-06	4.565378e-09	3.038609e+01	2.973687e+02
2.010000e-06	4.216421e-06	4.497869e-09	2.993094e+01	2.948351e+02
2.020000e-06	4.150783e-06	4.443845e-09	2.946499e+01	2.922304e+02
2.030000e-06	4.083708e-06	4.406914e-09	2.898885e+01	2.895483e+02
2.040000e-06	4.015202e-06	4.376829e-09	2.850256e+01	2.867834e+02
2.050000e-06	3.945210e-06	4.347430e-09	2.800570e+01	2.839320e+02
2.060000e-06	3.873714e-06	4.302217e-09	2.749818e+01	2.809923e+02
2.070000e-06	3.800875e-06	4.258965e-09	2.698112e+01	2.779651e+02
2.080000e-06	3.726758e-06	4.184013e-09	2.645499e+01	2.748530e+02
2.090000e-06	3.651236e-06	4.129925e-09	2.591888e+01	2.716605e+02
2.100000e-06	3.574172e-06	4.104597e-09	2.537183e+01	2.683926e+02
2.110000e-06	3.495524e-06	4.069198e-09	2.481354e+01	2.650545e+02
2.120000e-06	3.415592e-06	4.015253e-09	2.424612e+01	2.616505e+02
2.130000e-06	3.334544e-06	3.937804e-09	2.367079e+01	2.581829e+02
2.140000e-06	3.252354e-06	3.884342e-09	2.308735e+01	2.546522e+02
2.150000e-06	3.169167e-06	3.835727e-09	2.249683e+01	2.510566e+02
2.160000e-06	3.084994e-06	3.785752e-09	2.189933e+01	2.473920e+02
2.170000e-06	2.999620e-06	3.738473e-09	2.129328e+01	2.436525e+02
2.180000e-06	2.912885e-06	3.673058e-09	2.067758e+01	2.398313e+02
2.190000e-06	2.824939e-06	3.603330e-09	2.005328e+01	2.359213e+02
2.200000e-06	2.736044e-06	3.546757e-09	1.942225e+01	2.319161e+02
2.210000e-06	2.646258e-06	3.499980e-09	1.878488e+01	2.278104e+02
2.220000e-06	2.555586e-06	3.434883e-09	1.814123e+01	2.236010e+02
2.230000e-06	2.464114e-06	3.355482e-09	1.749191e+01	2.192868e+02
2.240000e-06	2.371861e-06	3.282322e-09	1.683703e+01	2.148688e+02
2.250000e-06	2.278694e-06	3.218728e-09	1.617567e+01	2.103496e+02
2.260000e-06	2.184587e-06	3.155584e-09	1.550764e+01	2.057335e+02
2.270000e-06	2.089572e-06	3.091055e-09	1.483316e+01	2.010250e+02
2.280000e-06	1.993649e-06	3.020442e-09	1.415224e+01	1.962285e+02
2.290000e-06	1.897004e-06	2.934738e-09	1.346619e+01	1.913477e+02
2.300000e-06	1.799836e-06	2.850854e-09	1.277642e+01	1.863848e+02
2.310000e-06	1.702136e-06	2.784681e-09	1.208289e+01	1.813401e+02
2.320000e-06	1.603870e-06	2.720633e-09	1.138533e+01	1.762122e+02
2.330000e-06	1.505099e-06	2.638213e-09	1.068419e+01	1.709980e+02
2.340000e-06	1.405909e-06	2.546644e-09	9.980069e+00	1.656929e+02
2.350000e-06	1.306303e-06	2.459897e-09	9.273003e+00	1.602917e+02
2.360000e-06	1.206313e-06	2.379408e-09	8.563208e+00	1.547885e+02
2.370000e-06	1.106081e-06	2.299920e-09	7.851691e+00	1.491781e+02
2.380000e-06	1.005463e-06	2.217165e-09	7.137443e+00	1.434557e+02
2.390000e-06	9.043698e-07	2.128808e-09	6.419814e+00	1.376178e+02
2.400000e-06	8.028380e-07	2.032950e-09	5.699074e+00	1.316616e+02
2.410000e-06	7.009479e-07	1.939047e-09	4.975791e+00	1.255856e+02
2.420000e-06	5.988835e-07	1.850608e-09	4.251270e+00	1.193887e+02
2.430000e-06	4.965611e-07	1.758607e-09	3.524918e+00	1.130702e+02
2.440000e-06	3.939645e-07	1.656915e-09	2.796620e+00	1.066290e+02
2.450000e-06	2.911673e-07	1.550723e-09	2.066898e+00	1.000631e+02
2.460000e-06	1.882293e-07	1.446933e-09	1.336176e+00	9.336952e+01
2.470000e-06	8.520218e-08	1.345527e-09	6.048213e-01	8.654347e+01
2.480000e-06	-1.788169e-08	1.240950e-09	-1.269360e-01	7.957858e+01
2.490000e-06	-1.209615e-07	1.129596e-09	-8.586647e-01	7.246687e+01
2.500000e-06	-2.239800e-07	1.013366e-09	-1.589958e+00	6.519896e+01
2.510000e-06	-3.269246e-07	8.968127e-10	-2.320727e+00	5.776452e+01
2.520000e-06	-4.297796e-07	7.831152e-10	-3.050859e+00	5.015285e+01
2.530000e-06	-5.324587e-07	6.669354e-10	-3.779743e+00	4.235352e+01
2.540000e-06	-6.349006e-07	5.452843e-10	-4.506943e+00	3.435712e+01
2.550000e-06	-7.370638e-07	4.179712e-10	-5.232165e+00	2.615594e+01
2.560000e-06	-8.388881e-07	2.838779e-10	-5.954981e+00	1.774470e+01
2.570000e-06	-9.402972e-07	1.478899e-10	-6.674850e+00	9.121141e+00
2.580000e-06	-1.041236e-06	1.397298e-11	-7.391380e+00	2.866388e-01
2.590000e-06	-1.141688e-06	-1.193739e-10	-8.104453e+00	-8.753396e+00
2.600000e-06	-1.241671e-06	-2.580232e-10	-8.814201e+00	-1.798915e+01
2.610000e-06	-1.341234e-06	-4.043617e-10	-9.520965e+00	-2.740620e+01
2.620000e-06	-1.440414e-06	-5.531389e-10	-1.022501e+01	-3.698542e+01
2.630000e-06	-1.539116e-06	-6.993150e-10	-1.092566e+01	-4.670307e+01
2.640000e-06	-1.637205e-06	-8.441964e-10	-1.162196e+01	-5.653103e+01
2.650000e-06	-1.734723e-06	-9.931580e-10	-1.231421e+01	-6.643723e+01
2.660000e-06	-1.831708e-06	-1.145454e-09	-1.300267e+01	-7.638624e+01
2.670000e-06	-1.928155e-06	-1.297776e-09	-1.368732e+01	-8.634006e+01
2.680000e-06	-2.024013e-06	-1.447568e-09	-1.436778e+01	-9.625908e+01
2.690000e-06	-2.119247e-06	-1.592912e-09	-1.504381e+01	-1.061031e+02
2.700000e-06	-2.213670e-06	-1.738511e-09	-1.571409e+01	-1.158327e+02
2.710000e-06	-2.307017e-06	-1.888078e-09	-1.637673e+01	-1.254099e+02
2.720000e-06	-2.399321e-06	-2.036139e-09	-1.703196e+01	-1.348000e+02
2.730000e-06	-2.490752e-06	-2.176897e-09	-1.768100e+01	-1.439719e+02
2.740000e-06	-2.581331e-06	-2.311096e-09	-1.832399e+01	-1.528994e+02
2.750000e-06	-2.670975e-06	-2.442854e-09	-1.896034e+01	-1.615613e+02
2.760000e-06	-2.759730e-06	-2.572080e-09	-1.959038e+01	-1.699421e+02
2.770000e-06	-2.847700e-06	-2.696266e-09	-2.021485e+01	-1.780316e+02
2.780000e-06	-2.934835e-06	-2.815881e-09	-2.083339e+01	-1.858251e+02
2.790000e-06	-3.020868e-06	-2.930584e-09	-2.144411e+01	-1.933223e+02
2.800000e-06	-3.105581e-06	-3.041215e-09	-2.204546e+01	-2.005271e+02
2.810000e-06	-3.189147e-06	-3.149004e-09	-2.263867e+01	-2.074465e+02
2.820000e-06	-3.271724e-06	-3.253251e-09	-2.322486e+01	-2.140899e+02
2.830000e-06	-3.353277e-06	-3.353141e-09	-2.380377e+01	-2.204683e+02
2.840000e-06	-3.433788e-06	-3.445790e-09	-2.437529e+01	-2.265935e+02
2.850000e-06	-3.513127e-06	-3.533051e-09	-2.493849e+01	-2.324777e+02
2.860000e-06	-3.590994e-06	-3.618473e-09	-2.549124e+01	-2.381329e+02
2.870000e-06	-3.667268e-06	-3.700679e-09	-2.603269e+01	-2.435707e+02
2.880000e-06	-3.742048e-06	-3.779737e-09	-2.656353e+01	-2.488020e+02
2.890000e-06	-3.815425e-06	-3.856770e-09	-2.708440e+01	-2.538369e+02
2.900000e-06	-3.887544e-06	-3.931308e-09	-2.759635e+01	-2.586847e+02
2.910000e-06	-3.958252e-06	-4.002114e-09	-2.809828e+01	-2.633536e+02
2.920000e-06	-4.027325e-06	-4.071034e-09	-2.858861e+01	-2.678509e+02
2.930000e-06	-4.094892e-06	-4.138760e-09	-2.906824e+01	-2.721828e+02
2.940000e-06	-4.161097e-06	-4.203307e-09	-2.953821e+01	-2.763545e+02
