# Temperatura_=_25.33
# Concentracion g/m^3_=_15000.0
# C_Vs_to_Am_M_A/Vsm_=_65563218390.804596
# pendiente_HvsI_1/m_=_3716.3
# ordenada_HvsI_A/m_=_1297.0
# frecuencia_Hz_=_301580.5055749609

Tiempo_(s)	Campo_(V.s)	Magnetizacion_(V.s)	Campo_(kA/m)	Magnetizacion_(A/m)
0.000000e+00	-5.372079e-06	-4.507270e-09	-3.834625e+01	-2.930517e+02
1.000000e-08	-5.369238e-06	-4.507696e-09	-3.832597e+01	-2.929378e+02
2.000000e-08	-5.364666e-06	-4.500943e-09	-3.829333e+01	-2.927645e+02
3.000000e-08	-5.358476e-06	-4.494653e-09	-3.824915e+01	-2.925358e+02
4.000000e-08	-5.350719e-06	-4.488725e-09	-3.819378e+01	-2.922561e+02
5.000000e-08	-5.341091e-06	-4.480348e-09	-3.812505e+01	-2.919294e+02
6.000000e-08	-5.329396e-06	-4.471700e-09	-3.804158e+01	-2.915586e+02
7.000000e-08	-5.315860e-06	-4.459200e-09	-3.794495e+01	-2.911456e+02
8.000000e-08	-5.300209e-06	-4.459967e-09	-3.783323e+01	-2.906905e+02
9.000000e-08	-5.282293e-06	-4.505242e-09	-3.770535e+01	-2.901916e+02
1.000000e-07	-5.262369e-06	-4.496953e-09	-3.756313e+01	-2.896456e+02
1.100000e-07	-5.240572e-06	-4.451866e-09	-3.740754e+01	-2.890479e+02
1.200000e-07	-5.217069e-06	-4.427833e-09	-3.723978e+01	-2.883932e+02
1.300000e-07	-5.192016e-06	-4.329397e-09	-3.706094e+01	-2.876758e+02
1.400000e-07	-5.165307e-06	-4.345975e-09	-3.687029e+01	-2.868909e+02
1.500000e-07	-5.136971e-06	-4.453349e-09	-3.666803e+01	-2.860345e+02
1.600000e-07	-5.107268e-06	-4.352666e-09	-3.645601e+01	-2.851046e+02
1.700000e-07	-5.075987e-06	-4.397944e-09	-3.623272e+01	-2.841007e+02
1.800000e-07	-5.042509e-06	-4.411970e-09	-3.599376e+01	-2.830246e+02
1.900000e-07	-5.007208e-06	-4.201067e-09	-3.574177e+01	-2.818794e+02
2.000000e-07	-4.970551e-06	-4.252560e-09	-3.548011e+01	-2.806697e+02
2.100000e-07	-4.932095e-06	-4.298126e-09	-3.520561e+01	-2.794004e+02
2.200000e-07	-4.891729e-06	-4.240761e-09	-3.491747e+01	-2.780764e+02
2.300000e-07	-4.849422e-06	-4.291073e-09	-3.461549e+01	-2.767019e+02
2.400000e-07	-4.805235e-06	-4.222983e-09	-3.430008e+01	-2.752797e+02
2.500000e-07	-4.759301e-06	-4.139620e-09	-3.397220e+01	-2.738109e+02
2.600000e-07	-4.711416e-06	-4.155702e-09	-3.363039e+01	-2.722947e+02
2.700000e-07	-4.661506e-06	-4.141426e-09	-3.327413e+01	-2.707288e+02
2.800000e-07	-4.609560e-06	-4.148362e-09	-3.290333e+01	-2.691094e+02
2.900000e-07	-4.555749e-06	-4.088224e-09	-3.251923e+01	-2.674320e+02
3.000000e-07	-4.500372e-06	-4.022001e-09	-3.212395e+01	-2.656919e+02
3.100000e-07	-4.443342e-06	-4.032142e-09	-3.171686e+01	-2.638849e+02
3.200000e-07	-4.384494e-06	-4.038788e-09	-3.129680e+01	-2.620078e+02
3.300000e-07	-4.324072e-06	-3.994269e-09	-3.086551e+01	-2.600590e+02
3.400000e-07	-4.262264e-06	-3.905467e-09	-3.042432e+01	-2.580383e+02
3.500000e-07	-4.199064e-06	-3.877447e-09	-2.997319e+01	-2.559473e+02
3.600000e-07	-4.134351e-06	-3.860735e-09	-2.951126e+01	-2.537885e+02
3.700000e-07	-4.067933e-06	-3.851397e-09	-2.903717e+01	-2.515657e+02
3.800000e-07	-3.999948e-06	-3.853679e-09	-2.855189e+01	-2.492827e+02
3.900000e-07	-3.930642e-06	-3.785879e-09	-2.805718e+01	-2.469431e+02
4.000000e-07	-3.860051e-06	-3.704406e-09	-2.755329e+01	-2.445496e+02
4.100000e-07	-3.788248e-06	-3.651211e-09	-2.704076e+01	-2.421039e+02
4.200000e-07	-3.715011e-06	-3.639221e-09	-2.651799e+01	-2.396062e+02
4.300000e-07	-3.640169e-06	-3.638485e-09	-2.598376e+01	-2.370552e+02
4.400000e-07	-3.563898e-06	-3.599672e-09	-2.543933e+01	-2.344486e+02
4.500000e-07	-3.486205e-06	-3.529527e-09	-2.488475e+01	-2.317830e+02
4.600000e-07	-3.407096e-06	-3.461776e-09	-2.432007e+01	-2.290547e+02
4.700000e-07	-3.326652e-06	-3.430833e-09	-2.374585e+01	-2.262599e+02
4.800000e-07	-3.245014e-06	-3.410669e-09	-2.316312e+01	-2.233953e+02
4.900000e-07	-3.162219e-06	-3.372174e-09	-2.257212e+01	-2.204581e+02
5.000000e-07	-3.078371e-06	-3.315305e-09	-2.197361e+01	-2.174465e+02
5.100000e-07	-2.993648e-06	-3.246331e-09	-2.136886e+01	-2.143597e+02
5.200000e-07	-2.907989e-06	-3.193222e-09	-2.075741e+01	-2.111971e+02
5.300000e-07	-2.821314e-06	-3.155362e-09	-2.013872e+01	-2.079591e+02
5.400000e-07	-2.733770e-06	-3.115105e-09	-1.951382e+01	-2.046459e+02
5.500000e-07	-2.645376e-06	-3.054973e-09	-1.888287e+01	-2.012574e+02
5.600000e-07	-2.555753e-06	-2.978440e-09	-1.824313e+01	-1.977933e+02
5.700000e-07	-2.464885e-06	-2.924359e-09	-1.759451e+01	-1.942525e+02
5.800000e-07	-2.373195e-06	-2.890285e-09	-1.694002e+01	-1.906334e+02
5.900000e-07	-2.280792e-06	-2.845974e-09	-1.628044e+01	-1.869338e+02
6.000000e-07	-2.187559e-06	-2.776210e-09	-1.561494e+01	-1.831514e+02
6.100000e-07	-2.093514e-06	-2.699902e-09	-1.494364e+01	-1.792837e+02
6.200000e-07	-1.998756e-06	-2.631963e-09	-1.426725e+01	-1.753288e+02
6.300000e-07	-1.903329e-06	-2.573676e-09	-1.358608e+01	-1.712850e+02
6.400000e-07	-1.807289e-06	-2.525243e-09	-1.290054e+01	-1.671517e+02
6.500000e-07	-1.710543e-06	-2.470058e-09	-1.220997e+01	-1.629288e+02
6.600000e-07	-1.613028e-06	-2.395964e-09	-1.151390e+01	-1.586170e+02
6.700000e-07	-1.514735e-06	-2.310248e-09	-1.081228e+01	-1.542173e+02
6.800000e-07	-1.415748e-06	-2.237575e-09	-1.010570e+01	-1.497307e+02
6.900000e-07	-1.316323e-06	-2.178126e-09	-9.396002e+00	-1.451578e+02
7.000000e-07	-1.216589e-06	-2.115304e-09	-8.684094e+00	-1.404985e+02
7.100000e-07	-1.116608e-06	-2.039644e-09	-7.970420e+00	-1.357517e+02
7.200000e-07	-1.016340e-06	-1.956141e-09	-7.254701e+00	-1.309149e+02
7.300000e-07	-9.157515e-07	-1.875817e-09	-6.536693e+00	-1.259847e+02
7.400000e-07	-8.148481e-07	-1.802747e-09	-5.816438e+00	-1.209565e+02
7.500000e-07	-7.135636e-07	-1.732587e-09	-5.093463e+00	-1.158252e+02
7.600000e-07	-6.119718e-07	-1.653407e-09	-4.368294e+00	-1.105853e+02
7.700000e-07	-5.101832e-07	-1.562555e-09	-3.641721e+00	-1.052318e+02
7.800000e-07	-4.082410e-07	-1.470090e-09	-2.914050e+00	-9.976008e+01
7.900000e-07	-3.062114e-07	-1.387283e-09	-2.185757e+00	-9.416662e+01
8.000000e-07	-2.040702e-07	-1.306674e-09	-1.456667e+00	-8.844890e+01
8.100000e-07	-1.017990e-07	-1.219053e-09	-7.266482e-01	-8.260543e+01
8.200000e-07	5.341415e-10	-1.125788e-09	3.812736e-03	-7.663540e+01
8.300000e-07	1.028565e-07	-1.029748e-09	7.341962e-01	-7.053827e+01
8.400000e-07	2.051551e-07	-9.356220e-10	1.464410e+00	-6.431325e+01
8.500000e-07	3.073947e-07	-8.433743e-10	2.194203e+00	-5.795872e+01
8.600000e-07	4.095323e-07	-7.485738e-10	2.923268e+00	-5.147181e+01
8.700000e-07	5.115573e-07	-6.458883e-10	3.651529e+00	-4.484807e+01
8.800000e-07	6.133870e-07	-5.393570e-10	4.378396e+00	-3.808146e+01
8.900000e-07	7.149883e-07	-4.338607e-10	5.103633e+00	-3.116462e+01
9.000000e-07	8.163971e-07	-3.298989e-10	5.827495e+00	-2.408940e+01
9.100000e-07	9.175068e-07	-2.245026e-10	6.549223e+00	-1.684773e+01
9.200000e-07	1.018239e-06	-1.140928e-10	7.268255e+00	-9.432590e+00
9.300000e-07	1.118647e-06	2.458125e-12	7.984975e+00	-1.839210e+00
9.400000e-07	1.218715e-06	1.247849e-10	8.699265e+00	5.933866e+00
9.500000e-07	1.318456e-06	2.451613e-10	9.411224e+00	1.388377e+01
9.600000e-07	1.417815e-06	3.635868e-10	1.012046e+01	2.200258e+01
9.700000e-07	1.516635e-06	4.846685e-10	1.082584e+01	3.027688e+01
9.800000e-07	1.614761e-06	6.112888e-10	1.152627e+01	3.868772e+01
9.900000e-07	1.712007e-06	7.427312e-10	1.222042e+01	4.721095e+01
1.000000e-06	1.808403e-06	8.752459e-10	1.290850e+01	5.581785e+01
1.010000e-06	1.904093e-06	1.006009e-09	1.359154e+01	6.447615e+01
1.020000e-06	1.999097e-06	1.135368e-09	1.426968e+01	7.315117e+01
1.030000e-06	2.093454e-06	1.266553e-09	1.494321e+01	8.180701e+01
1.040000e-06	2.187150e-06	1.399572e-09	1.561201e+01	9.040789e+01
1.050000e-06	2.280081e-06	1.530305e-09	1.627537e+01	9.891920e+01
1.060000e-06	2.372295e-06	1.653697e-09	1.693359e+01	1.073085e+02
1.070000e-06	2.463834e-06	1.771342e-09	1.758701e+01	1.155464e+02
1.080000e-06	2.554544e-06	1.890152e-09	1.823450e+01	1.236068e+02
1.090000e-06	2.644155e-06	2.010985e-09	1.887415e+01	1.314675e+02
1.100000e-06	2.732641e-06	2.132566e-09	1.950576e+01	1.391102e+02
1.110000e-06	2.820123e-06	2.246590e-09	2.013022e+01	1.465205e+02
1.120000e-06	2.906664e-06	2.351319e-09	2.074796e+01	1.536879e+02
1.130000e-06	2.992239e-06	2.453896e-09	2.135880e+01	1.606054e+02
1.140000e-06	3.076835e-06	2.558390e-09	2.196265e+01	1.672694e+02
1.150000e-06	3.160587e-06	2.658899e-09	2.256048e+01	1.736797e+02
1.160000e-06	3.243306e-06	2.751824e-09	2.315093e+01	1.798388e+02
1.170000e-06	3.324695e-06	2.839019e-09	2.373189e+01	1.857519e+02
1.180000e-06	3.404797e-06	2.920060e-09	2.430366e+01	1.914265e+02
1.190000e-06	3.483789e-06	3.000767e-09	2.486751e+01	1.968720e+02
1.200000e-06	3.561604e-06	3.083780e-09	2.542296e+01	2.020992e+02
1.210000e-06	3.638145e-06	3.165883e-09	2.596931e+01	2.071193e+02
1.220000e-06	3.713444e-06	3.243433e-09	2.650680e+01	2.119442e+02
1.230000e-06	3.787166e-06	3.315125e-09	2.703304e+01	2.165848e+02
1.240000e-06	3.859180e-06	3.381508e-09	2.754707e+01	2.210512e+02
1.250000e-06	3.929779e-06	3.446554e-09	2.805101e+01	2.253519e+02
1.260000e-06	3.999059e-06	3.509631e-09	2.854554e+01	2.294933e+02
1.270000e-06	4.067039e-06	3.569550e-09	2.903079e+01	2.334800e+02
1.280000e-06	4.133583e-06	3.624228e-09	2.950579e+01	2.373144e+02
1.290000e-06	4.198434e-06	3.675894e-09	2.996869e+01	2.409972e+02
1.300000e-06	4.261676e-06	3.726864e-09	3.042012e+01	2.445279e+02
1.310000e-06	4.323474e-06	3.778536e-09	3.086124e+01	2.479051e+02
1.320000e-06	4.383891e-06	3.829444e-09	3.129250e+01	2.511276e+02
1.330000e-06	4.442928e-06	3.874707e-09	3.171391e+01	2.541947e+02
1.340000e-06	4.500239e-06	3.915621e-09	3.212300e+01	2.571065e+02
1.350000e-06	4.555747e-06	3.953636e-09	3.251921e+01	2.598650e+02
1.360000e-06	4.609673e-06	3.990888e-09	3.290414e+01	2.624735e+02
1.370000e-06	4.661943e-06	4.025967e-09	3.327725e+01	2.649370e+02
1.380000e-06	4.712192e-06	4.058341e-09	3.363593e+01	2.672618e+02
1.390000e-06	4.760419e-06	4.088573e-09	3.398018e+01	2.694552e+02
1.400000e-06	4.806936e-06	4.116162e-09	3.431222e+01	2.715247e+02
1.410000e-06	4.851833e-06	4.143916e-09	3.463270e+01	2.734780e+02
1.420000e-06	4.895185e-06	4.171551e-09	3.494215e+01	2.753219e+02
1.430000e-06	4.936684e-06	4.197139e-09	3.523837e+01	2.770623e+02
1.440000e-06	4.976324e-06	4.220383e-09	3.552132e+01	2.787038e+02
1.450000e-06	5.014331e-06	4.241504e-09	3.579262e+01	2.802500e+02
1.460000e-06	5.050768e-06	4.262369e-09	3.605271e+01	2.817032e+02
1.470000e-06	5.085550e-06	4.284090e-09	3.630098e+01	2.830647e+02
1.480000e-06	5.118318e-06	4.304137e-09	3.653488e+01	2.843357e+02
1.490000e-06	5.149239e-06	4.320741e-09	3.675560e+01	2.855170e+02
1.500000e-06	5.178520e-06	4.334342e-09	3.696461e+01	2.866098e+02
1.510000e-06	5.206140e-06	4.347038e-09	3.716176e+01	2.876155e+02
1.520000e-06	5.231763e-06	4.360806e-09	3.734466e+01	2.885365e+02
1.530000e-06	5.255259e-06	4.374753e-09	3.751238e+01	2.893754e+02
1.540000e-06	5.276955e-06	4.387299e-09	3.766724e+01	2.901354e+02
1.550000e-06	5.296963e-06	4.398267e-09	3.781006e+01	2.908196e+02
1.560000e-06	5.315111e-06	4.408160e-09	3.793961e+01	2.914310e+02
1.570000e-06	5.331181e-06	4.417800e-09	3.805432e+01	2.919723e+02
1.580000e-06	5.345269e-06	4.426809e-09	3.815488e+01	2.924452e+02
1.590000e-06	5.357420e-06	4.433584e-09	3.824161e+01	2.928509e+02
1.600000e-06	5.367355e-06	4.438497e-09	3.831252e+01	2.931896e+02
1.610000e-06	5.375171e-06	4.442318e-09	3.836832e+01	2.934610e+02
1.620000e-06	5.381163e-06	4.445917e-09	3.841109e+01	2.936648e+02
1.630000e-06	5.385402e-06	4.450972e-09	3.844135e+01	2.938005e+02
1.640000e-06	5.387725e-06	4.454774e-09	3.845793e+01	2.938681e+02
1.650000e-06	5.388015e-06	4.456814e-09	3.846000e+01	2.938687e+02
1.660000e-06	5.386479e-06	4.453511e-09	3.844904e+01	2.938040e+02
1.670000e-06	5.383274e-06	4.448781e-09	3.842615e+01	2.936769e+02
1.680000e-06	5.378477e-06	4.450658e-09	3.839192e+01	2.934912e+02
1.690000e-06	5.371784e-06	4.450956e-09	3.834414e+01	2.932510e+02
1.700000e-06	5.363227e-06	4.448414e-09	3.828306e+01	2.929608e+02
1.710000e-06	5.353191e-06	4.445466e-09	3.821142e+01	2.926242e+02
1.720000e-06	5.341440e-06	4.446826e-09	3.812754e+01	2.922441e+02
1.730000e-06	5.327642e-06	4.454115e-09	3.802905e+01	2.918220e+02
1.740000e-06	5.311763e-06	4.383859e-09	3.791571e+01	2.913576e+02
1.750000e-06	5.293552e-06	4.364201e-09	3.778572e+01	2.908487e+02
1.760000e-06	5.272627e-06	4.392847e-09	3.763635e+01	2.902919e+02
1.770000e-06	5.249391e-06	4.392634e-09	3.747049e+01	2.896823e+02
1.780000e-06	5.224985e-06	4.489457e-09	3.729628e+01	2.890144e+02
1.790000e-06	5.199976e-06	4.402859e-09	3.711776e+01	2.882828e+02
1.800000e-06	5.173476e-06	4.294685e-09	3.692860e+01	2.874826e+02
1.810000e-06	5.144699e-06	4.424284e-09	3.672320e+01	2.866105e+02
1.820000e-06	5.114169e-06	4.297802e-09	3.650527e+01	2.856645e+02
1.830000e-06	5.081934e-06	4.268928e-09	3.627517e+01	2.846448e+02
1.840000e-06	5.047697e-06	4.450007e-09	3.603078e+01	2.835534e+02
1.850000e-06	5.011948e-06	4.297025e-09	3.577561e+01	2.823938e+02
1.860000e-06	4.974444e-06	4.279939e-09	3.550791e+01	2.811707e+02
1.870000e-06	4.934946e-06	4.293930e-09	3.522596e+01	2.798891e+02
1.880000e-06	4.893790e-06	4.112623e-09	3.493219e+01	2.785538e+02
1.890000e-06	4.850789e-06	4.227455e-09	3.462524e+01	2.771687e+02
1.900000e-06	4.806229e-06	4.230118e-09	3.430717e+01	2.757364e+02
1.910000e-06	4.759928e-06	4.173362e-09	3.397667e+01	2.742573e+02
1.920000e-06	4.711516e-06	4.217468e-09	3.363111e+01	2.727306e+02
1.930000e-06	4.661506e-06	4.038934e-09	3.327413e+01	2.711534e+02
1.940000e-06	4.609785e-06	4.096303e-09	3.290494e+01	2.695218e+02
1.950000e-06	4.556005e-06	4.138624e-09	3.252106e+01	2.678312e+02
1.960000e-06	4.500275e-06	4.037865e-09	3.212325e+01	2.660769e+02
1.970000e-06	4.442832e-06	4.026912e-09	3.171322e+01	2.642549e+02
1.980000e-06	4.383995e-06	3.952149e-09	3.129324e+01	2.623624e+02
1.990000e-06	4.323744e-06	3.993548e-09	3.086317e+01	2.603980e+02
2.000000e-06	4.261849e-06	3.948367e-09	3.042135e+01	2.583619e+02
2.010000e-06	4.198295e-06	3.893735e-09	2.996770e+01	2.562559e+02
2.020000e-06	4.133205e-06	3.903036e-09	2.950308e+01	2.540829e+02
2.030000e-06	4.066674e-06	3.779966e-09	2.902818e+01	2.518467e+02
2.040000e-06	3.998800e-06	3.778591e-09	2.854369e+01	2.495511e+02
2.050000e-06	3.929529e-06	3.777660e-09	2.804923e+01	2.471996e+02
2.060000e-06	3.858628e-06	3.784041e-09	2.754314e+01	2.447947e+02
2.070000e-06	3.786285e-06	3.750505e-09	2.702674e+01	2.423377e+02
2.080000e-06	3.712682e-06	3.615523e-09	2.650136e+01	2.398285e+02
2.090000e-06	3.637661e-06	3.587139e-09	2.596586e+01	2.372657e+02
2.100000e-06	3.561190e-06	3.562631e-09	2.542000e+01	2.346466e+02
2.110000e-06	3.483136e-06	3.561240e-09	2.486285e+01	2.319677e+02
2.120000e-06	3.403662e-06	3.523727e-09	2.429556e+01	2.292253e+02
2.130000e-06	3.323095e-06	3.463889e-09	2.372047e+01	2.264157e+02
2.140000e-06	3.241418e-06	3.409966e-09	2.313745e+01	2.235355e+02
2.150000e-06	3.158600e-06	3.335767e-09	2.254629e+01	2.205823e+02
2.160000e-06	3.074759e-06	3.325800e-09	2.194783e+01	2.175545e+02
2.170000e-06	2.989932e-06	3.303245e-09	2.134233e+01	2.144513e+02
2.180000e-06	2.903818e-06	3.255494e-09	2.072764e+01	2.112724e+02
2.190000e-06	2.816385e-06	3.170950e-09	2.010354e+01	2.080181e+02
2.200000e-06	2.727967e-06	3.113688e-09	1.947240e+01	2.046885e+02
2.210000e-06	2.638683e-06	3.098904e-09	1.883509e+01	2.012837e+02
2.220000e-06	2.548482e-06	3.050924e-09	1.819123e+01	1.978031e+02
2.230000e-06	2.457412e-06	2.984539e-09	1.754116e+01	1.942455e+02
2.240000e-06	2.365584e-06	2.912172e-09	1.688569e+01	1.906092e+02
2.250000e-06	2.273068e-06	2.859123e-09	1.622530e+01	1.868919e+02
2.260000e-06	2.179771e-06	2.806874e-09	1.555935e+01	1.830913e+02
2.270000e-06	2.085424e-06	2.764871e-09	1.488589e+01	1.792049e+02
2.280000e-06	1.989995e-06	2.718747e-09	1.420472e+01	1.752308e+02
2.290000e-06	1.893809e-06	2.640705e-09	1.351813e+01	1.711677e+02
2.300000e-06	1.797108e-06	2.549936e-09	1.282787e+01	1.670150e+02
2.310000e-06	1.699888e-06	2.484781e-09	1.213391e+01	1.627729e+02
2.320000e-06	1.602107e-06	2.449134e-09	1.143594e+01	1.584420e+02
2.330000e-06	1.503817e-06	2.395445e-09	1.073434e+01	1.540234e+02
2.340000e-06	1.405032e-06	2.318713e-09	1.002921e+01	1.495181e+02
2.350000e-06	1.305723e-06	2.232224e-09	9.320333e+00	1.449266e+02
2.360000e-06	1.206038e-06	2.158169e-09	8.608779e+00	1.402485e+02
2.370000e-06	1.106224e-06	2.097140e-09	7.896296e+00	1.354825e+02
2.380000e-06	1.006245e-06	2.034777e-09	7.182642e+00	1.306258e+02
2.390000e-06	9.059021e-07	1.961149e-09	6.466387e+00	1.256749e+02
2.400000e-06	8.051622e-07	1.871353e-09	5.747300e+00	1.206249e+02
2.410000e-06	7.040523e-07	1.780327e-09	5.025571e+00	1.154706e+02
2.420000e-06	6.027435e-07	1.702905e-09	4.302422e+00	1.102066e+02
2.430000e-06	5.013113e-07	1.636820e-09	3.578393e+00	1.048279e+02
2.440000e-06	3.995857e-07	1.564705e-09	2.852268e+00	9.933023e+01
2.450000e-06	2.976377e-07	1.476883e-09	2.124557e+00	9.371015e+01
2.460000e-06	1.955062e-07	1.378802e-09	1.395536e+00	8.796542e+01
2.470000e-06	9.317065e-08	1.287468e-09	6.650581e-01	8.209471e+01
2.480000e-06	-9.219809e-09	1.202024e-09	-6.581159e-02	7.609732e+01
2.490000e-06	-1.116114e-07	1.109028e-09	-7.966895e-01	6.997270e+01
2.500000e-06	-2.140152e-07	1.006659e-09	-1.527654e+00	6.371994e+01
2.510000e-06	-3.163342e-07	9.023343e-10	-2.258014e+00	5.733717e+01
2.520000e-06	-4.184692e-07	8.037676e-10	-2.987060e+00	5.082119e+01
2.530000e-06	-5.203659e-07	7.095413e-10	-3.714405e+00	4.416723e+01
2.540000e-06	-6.220425e-07	6.151815e-10	-4.440180e+00	3.736892e+01
2.550000e-06	-7.234285e-07	5.117417e-10	-5.163879e+00	3.041867e+01
2.560000e-06	-8.244338e-07	3.922703e-10	-5.884862e+00	2.330827e+01
2.570000e-06	-9.251134e-07	2.668146e-10	-6.603519e+00	1.602979e+01
2.580000e-06	-1.025494e-06	1.518698e-10	-7.320043e+00	8.576597e+00
2.590000e-06	-1.125512e-06	4.418087e-11	-8.033979e+00	9.445319e-01
2.600000e-06	-1.225141e-06	-7.204388e-11	-8.745135e+00	-6.867008e+00
2.610000e-06	-1.324405e-06	-2.006550e-10	-9.453688e+00	-1.485413e+01
2.620000e-06	-1.423221e-06	-3.338408e-10	-1.015904e+01	-2.300774e+01
2.630000e-06	-1.521513e-06	-4.622980e-10	-1.086066e+01	-3.131325e+01
2.640000e-06	-1.619252e-06	-5.862930e-10	-1.155832e+01	-3.975054e+01
2.650000e-06	-1.716403e-06	-7.107169e-10	-1.225179e+01	-4.829442e+01
2.660000e-06	-1.813027e-06	-8.417706e-10	-1.294151e+01	-5.691532e+01
2.670000e-06	-1.909168e-06	-9.810662e-10	-1.362776e+01	-6.558036e+01
2.680000e-06	-2.004750e-06	-1.120097e-09	-1.431004e+01	-7.425447e+01
2.690000e-06	-2.099545e-06	-1.251286e-09	-1.498668e+01	-8.290169e+01
2.700000e-06	-2.193278e-06	-1.378125e-09	-1.565576e+01	-9.148639e+01
2.710000e-06	-2.285962e-06	-1.509373e-09	-1.631735e+01	-9.997437e+01
2.720000e-06	-2.377810e-06	-1.643863e-09	-1.697296e+01	-1.083338e+02
2.730000e-06	-2.468920e-06	-1.773709e-09	-1.762331e+01	-1.165358e+02
2.740000e-06	-2.559156e-06	-1.894980e-09	-1.826742e+01	-1.245553e+02
2.750000e-06	-2.648433e-06	-2.010838e-09	-1.890468e+01	-1.323709e+02
2.760000e-06	-2.736887e-06	-2.125810e-09	-1.953608e+01	-1.399651e+02
2.770000e-06	-2.824614e-06	-2.240915e-09	-2.016228e+01	-1.473243e+02
2.780000e-06	-2.911358e-06	-2.353911e-09	-2.078146e+01	-1.544387e+02
2.790000e-06	-2.996822e-06	-2.461052e-09	-2.139151e+01	-1.613023e+02
2.800000e-06	-3.081073e-06	-2.561176e-09	-2.199290e+01	-1.679120e+02
2.810000e-06	-3.164373e-06	-2.657539e-09	-2.258750e+01	-1.742683e+02
2.820000e-06	-3.246709e-06	-2.751501e-09	-2.317522e+01	-1.803743e+02
2.830000e-06	-3.327933e-06	-2.842652e-09	-2.375500e+01	-1.862358e+02
2.840000e-06	-3.408139e-06	-2.929160e-09	-2.432752e+01	-1.918607e+02
2.850000e-06	-3.487082e-06	-3.008371e-09	-2.489102e+01	-1.972586e+02
2.860000e-06	-3.564473e-06	-3.083987e-09	-2.544344e+01	-2.024406e+02
2.870000e-06	-3.640399e-06	-3.158300e-09	-2.598540e+01	-2.074181e+02
2.880000e-06	-3.714932e-06	-3.232139e-09	-2.651743e+01	-2.122027e+02
2.890000e-06	-3.788109e-06	-3.306124e-09	-2.703977e+01	-2.168054e+02
2.900000e-06	-3.860022e-06	-3.376668e-09	-2.755308e+01	-2.212358e+02
2.910000e-06	-3.930439e-06	-3.441751e-09	-2.805573e+01	-2.255021e+02
2.920000e-06	-3.999194e-06	-3.503092e-09	-2.854650e+01	-2.296102e+02
2.930000e-06	-4.066592e-06	-3.563872e-09	-2.902760e+01	-2.335643e+02
2.940000e-06	-4.132647e-06	-3.623648e-09	-2.949910e+01	-2.373664e+02
