# Temperatura_=_38.01
# Concentracion g/m^3_=_15000.0
# C_Vs_to_Am_M_A/Vsm_=_65563218390.804596
# pendiente_HvsI_1/m_=_3716.3
# ordenada_HvsI_A/m_=_1297.0
# frecuencia_Hz_=_301578.031018928

Tiempo_(s)	Campo_(V.s)	Magnetizacion_(V.s)	Campo_(kA/m)	Magnetizacion_(A/m)
0.000000e+00	-5.383783e-06	-4.899684e-09	-3.834172e+01	-3.197132e+02
1.000000e-08	-5.380984e-06	-4.902074e-09	-3.832179e+01	-3.196156e+02
2.000000e-08	-5.376437e-06	-4.897630e-09	-3.828941e+01	-3.194497e+02
3.000000e-08	-5.370288e-06	-4.892511e-09	-3.824562e+01	-3.192135e+02
4.000000e-08	-5.362534e-06	-4.886032e-09	-3.819039e+01	-3.189059e+02
5.000000e-08	-5.352840e-06	-4.875951e-09	-3.812136e+01	-3.185264e+02
6.000000e-08	-5.341080e-06	-4.866522e-09	-3.803760e+01	-3.180758e+02
7.000000e-08	-5.327475e-06	-4.851376e-09	-3.794071e+01	-3.175561e+02
8.000000e-08	-5.311783e-06	-4.850311e-09	-3.782896e+01	-3.169701e+02
9.000000e-08	-5.293868e-06	-4.908739e-09	-3.770137e+01	-3.163218e+02
1.000000e-07	-5.273915e-06	-4.896888e-09	-3.755928e+01	-3.156155e+02
1.100000e-07	-5.252064e-06	-4.835359e-09	-3.740366e+01	-3.148550e+02
1.200000e-07	-5.228578e-06	-4.810273e-09	-3.723640e+01	-3.140440e+02
1.300000e-07	-5.203578e-06	-4.703187e-09	-3.705835e+01	-3.131845e+02
1.400000e-07	-5.176897e-06	-4.738320e-09	-3.686834e+01	-3.122772e+02
1.500000e-07	-5.148580e-06	-4.877674e-09	-3.666667e+01	-3.113212e+02
1.600000e-07	-5.118810e-06	-4.714317e-09	-3.645466e+01	-3.103135e+02
1.700000e-07	-5.087480e-06	-4.738992e-09	-3.623154e+01	-3.092498e+02
1.800000e-07	-5.054003e-06	-4.787044e-09	-3.599313e+01	-3.081247e+02
1.900000e-07	-5.018692e-06	-4.593429e-09	-3.574165e+01	-3.069322e+02
2.000000e-07	-4.981967e-06	-4.704565e-09	-3.548011e+01	-3.056664e+02
2.100000e-07	-4.943419e-06	-4.714504e-09	-3.520558e+01	-3.043221e+02
2.200000e-07	-4.903020e-06	-4.572491e-09	-3.491787e+01	-3.028954e+02
2.300000e-07	-4.860688e-06	-4.640215e-09	-3.461640e+01	-3.013842e+02
2.400000e-07	-4.816486e-06	-4.607814e-09	-3.430160e+01	-2.997884e+02
2.500000e-07	-4.770562e-06	-4.550480e-09	-3.397455e+01	-2.981097e+02
2.600000e-07	-4.722694e-06	-4.552355e-09	-3.363364e+01	-2.963517e+02
2.700000e-07	-4.672705e-06	-4.458527e-09	-3.327764e+01	-2.945192e+02
2.800000e-07	-4.620644e-06	-4.461005e-09	-3.290687e+01	-2.926176e+02
2.900000e-07	-4.566767e-06	-4.463097e-09	-3.252317e+01	-2.906528e+02
3.000000e-07	-4.511349e-06	-4.422470e-09	-3.212850e+01	-2.886296e+02
3.100000e-07	-4.454228e-06	-4.396352e-09	-3.172171e+01	-2.865522e+02
3.200000e-07	-4.395265e-06	-4.355544e-09	-3.130179e+01	-2.844229e+02
3.300000e-07	-4.334733e-06	-4.300567e-09	-3.087070e+01	-2.822426e+02
3.400000e-07	-4.272804e-06	-4.239128e-09	-3.042966e+01	-2.800101e+02
3.500000e-07	-4.209542e-06	-4.256968e-09	-2.997913e+01	-2.777229e+02
3.600000e-07	-4.144660e-06	-4.229309e-09	-2.951705e+01	-2.753773e+02
3.700000e-07	-4.078012e-06	-4.160325e-09	-2.904241e+01	-2.729690e+02
3.800000e-07	-4.009878e-06	-4.138162e-09	-2.855718e+01	-2.704934e+02
3.900000e-07	-3.940394e-06	-4.089376e-09	-2.806233e+01	-2.679465e+02
4.000000e-07	-3.869647e-06	-4.043668e-09	-2.755849e+01	-2.653251e+02
4.100000e-07	-3.797728e-06	-3.997525e-09	-2.704631e+01	-2.626269e+02
4.200000e-07	-3.724305e-06	-3.960866e-09	-2.652341e+01	-2.598512e+02
4.300000e-07	-3.649193e-06	-3.929664e-09	-2.598848e+01	-2.569983e+02
4.400000e-07	-3.572605e-06	-3.880343e-09	-2.544304e+01	-2.540693e+02
4.500000e-07	-3.494651e-06	-3.835173e-09	-2.488788e+01	-2.510662e+02
4.600000e-07	-3.415355e-06	-3.787877e-09	-2.432316e+01	-2.479910e+02
4.700000e-07	-3.334788e-06	-3.732162e-09	-2.374938e+01	-2.448454e+02
4.800000e-07	-3.252987e-06	-3.666963e-09	-2.316682e+01	-2.416305e+02
4.900000e-07	-3.170016e-06	-3.619362e-09	-2.257592e+01	-2.383465e+02
5.000000e-07	-3.086107e-06	-3.586337e-09	-2.197835e+01	-2.349923e+02
5.100000e-07	-3.001354e-06	-3.532410e-09	-2.137476e+01	-2.315660e+02
5.200000e-07	-2.915620e-06	-3.471773e-09	-2.076419e+01	-2.280645e+02
5.300000e-07	-2.828847e-06	-3.407413e-09	-2.014622e+01	-2.244841e+02
5.400000e-07	-2.741154e-06	-3.343615e-09	-1.952169e+01	-2.208208e+02
5.500000e-07	-2.652462e-06	-3.290234e-09	-1.889006e+01	-2.170707e+02
5.600000e-07	-2.562545e-06	-3.235389e-09	-1.824969e+01	-2.132302e+02
5.700000e-07	-2.471495e-06	-3.178724e-09	-1.760127e+01	-2.092967e+02
5.800000e-07	-2.379667e-06	-3.114151e-09	-1.694729e+01	-2.052682e+02
5.900000e-07	-2.287074e-06	-3.050566e-09	-1.628787e+01	-2.011440e+02
6.000000e-07	-2.193624e-06	-2.986672e-09	-1.562235e+01	-1.969240e+02
6.100000e-07	-2.099434e-06	-2.919772e-09	-1.495156e+01	-1.926091e+02
6.200000e-07	-2.004575e-06	-2.850781e-09	-1.427600e+01	-1.882005e+02
6.300000e-07	-1.909020e-06	-2.781069e-09	-1.359548e+01	-1.836994e+02
6.400000e-07	-1.812742e-06	-2.712611e-09	-1.290981e+01	-1.791071e+02
6.500000e-07	-1.715734e-06	-2.640757e-09	-1.221895e+01	-1.744240e+02
6.600000e-07	-1.617954e-06	-2.568406e-09	-1.152259e+01	-1.696500e+02
6.700000e-07	-1.519432e-06	-2.490808e-09	-1.082095e+01	-1.647842e+02
6.800000e-07	-1.420352e-06	-2.410935e-09	-1.011533e+01	-1.598247e+02
6.900000e-07	-1.320806e-06	-2.331319e-09	-9.406394e+00	-1.547691e+02
7.000000e-07	-1.220880e-06	-2.254752e-09	-8.694746e+00	-1.496142e+02
7.100000e-07	-1.120670e-06	-2.176706e-09	-7.981084e+00	-1.443568e+02
7.200000e-07	-1.020157e-06	-2.091683e-09	-7.265259e+00	-1.389936e+02
7.300000e-07	-9.192940e-07	-2.005006e-09	-6.546943e+00	-1.335215e+02
7.400000e-07	-8.180711e-07	-1.920504e-09	-5.826062e+00	-1.279378e+02
7.500000e-07	-7.165304e-07	-1.835395e-09	-5.102919e+00	-1.222405e+02
7.600000e-07	-6.147189e-07	-1.746511e-09	-4.377848e+00	-1.164278e+02
7.700000e-07	-5.127341e-07	-1.653857e-09	-3.651542e+00	-1.104983e+02
7.800000e-07	-4.106589e-07	-1.558198e-09	-2.924592e+00	-1.044508e+02
7.900000e-07	-3.084999e-07	-1.462911e-09	-2.197046e+00	-9.828389e+01
8.000000e-07	-2.062198e-07	-1.366954e-09	-1.468637e+00	-9.199555e+01
8.100000e-07	-1.038334e-07	-1.271274e-09	-7.394712e-01	-8.558293e+01
8.200000e-07	-1.380501e-09	-1.174716e-09	-9.831521e-03	-7.904204e+01
8.300000e-07	1.010609e-07	-1.074177e-09	7.197260e-01	-7.236757e+01
8.400000e-07	2.035058e-07	-9.723911e-10	1.449309e+00	-6.555280e+01
8.500000e-07	3.059280e-07	-8.685126e-10	2.178729e+00	-5.858973e+01
8.600000e-07	4.082564e-07	-7.614765e-10	2.907482e+00	-5.146931e+01
8.700000e-07	5.105047e-07	-6.480679e-10	3.635665e+00	-4.418187e+01
8.800000e-07	6.126416e-07	-5.330303e-10	4.363053e+00	-3.671765e+01
8.900000e-07	7.145699e-07	-4.189685e-10	5.088957e+00	-2.906751e+01
9.000000e-07	8.162267e-07	-3.023712e-10	5.812927e+00	-2.122368e+01
9.100000e-07	9.175513e-07	-1.823470e-10	6.534531e+00	-1.318055e+01
9.200000e-07	1.018471e-06	-5.715393e-11	7.253255e+00	-4.935447e+00
9.300000e-07	1.119079e-06	7.126040e-11	7.969754e+00	3.510620e+00
9.400000e-07	1.219393e-06	2.041458e-10	8.684162e+00	1.215239e+01
9.500000e-07	1.319399e-06	3.369198e-10	9.396371e+00	2.097987e+01
9.600000e-07	1.418991e-06	4.712733e-10	1.010564e+01	2.997808e+01
9.700000e-07	1.517937e-06	6.098166e-10	1.081030e+01	3.912705e+01
9.800000e-07	1.616202e-06	7.509088e-10	1.151012e+01	4.840193e+01
9.900000e-07	1.713758e-06	8.940909e-10	1.220488e+01	5.777347e+01
1.000000e-06	1.810528e-06	1.040771e-09	1.289405e+01	6.720864e+01
1.010000e-06	1.906532e-06	1.190162e-09	1.357776e+01	7.667142e+01
1.020000e-06	2.001747e-06	1.338463e-09	1.425585e+01	8.612380e+01
1.030000e-06	2.096288e-06	1.483516e-09	1.492915e+01	9.552684e+01
1.040000e-06	2.190225e-06	1.623226e-09	1.559814e+01	1.048418e+02
1.050000e-06	2.283383e-06	1.760172e-09	1.626158e+01	1.140313e+02
1.060000e-06	2.375780e-06	1.895493e-09	1.691961e+01	1.230603e+02
1.070000e-06	2.467499e-06	2.027330e-09	1.757280e+01	1.318969e+02
1.080000e-06	2.558422e-06	2.157758e-09	1.822033e+01	1.405135e+02
1.090000e-06	2.648307e-06	2.286448e-09	1.886047e+01	1.488870e+02
1.100000e-06	2.737054e-06	2.412495e-09	1.949249e+01	1.569992e+02
1.110000e-06	2.824723e-06	2.530144e-09	2.011685e+01	1.648370e+02
1.120000e-06	2.911433e-06	2.641567e-09	2.073437e+01	1.723925e+02
1.130000e-06	2.997238e-06	2.751434e-09	2.134545e+01	1.796623e+02
1.140000e-06	3.082088e-06	2.861531e-09	2.194973e+01	1.866474e+02
1.150000e-06	3.166052e-06	2.965201e-09	2.254769e+01	1.933526e+02
1.160000e-06	3.249010e-06	3.060719e-09	2.313850e+01	1.997854e+02
1.170000e-06	3.330742e-06	3.153592e-09	2.372057e+01	2.059560e+02
1.180000e-06	3.411215e-06	3.241824e-09	2.429367e+01	2.118760e+02
1.190000e-06	3.490430e-06	3.327768e-09	2.485782e+01	2.175580e+02
1.200000e-06	3.568377e-06	3.412681e-09	2.541293e+01	2.230150e+02
1.210000e-06	3.645084e-06	3.495874e-09	2.595922e+01	2.282596e+02
1.220000e-06	3.720475e-06	3.573806e-09	2.649613e+01	2.333037e+02
1.230000e-06	3.794298e-06	3.647211e-09	2.702188e+01	2.381582e+02
1.240000e-06	3.866514e-06	3.717753e-09	2.753618e+01	2.428325e+02
1.250000e-06	3.937321e-06	3.785466e-09	2.804045e+01	2.473347e+02
1.260000e-06	4.006737e-06	3.849046e-09	2.853481e+01	2.516710e+02
1.270000e-06	4.074802e-06	3.912949e-09	2.901954e+01	2.558462e+02
1.280000e-06	4.141517e-06	3.975861e-09	2.949467e+01	2.598636e+02
1.290000e-06	4.206587e-06	4.033758e-09	2.995808e+01	2.637253e+02
1.300000e-06	4.270015e-06	4.085944e-09	3.040980e+01	2.674323e+02
1.310000e-06	4.332051e-06	4.135744e-09	3.085159e+01	2.709850e+02
1.320000e-06	4.392718e-06	4.186186e-09	3.128365e+01	2.743833e+02
1.330000e-06	4.451968e-06	4.232872e-09	3.170561e+01	2.776274e+02
1.340000e-06	4.509527e-06	4.276667e-09	3.211553e+01	2.807177e+02
1.350000e-06	4.565245e-06	4.319347e-09	3.251233e+01	2.836554e+02
1.360000e-06	4.619333e-06	4.359552e-09	3.289754e+01	2.864425e+02
1.370000e-06	4.671737e-06	4.396441e-09	3.327074e+01	2.890824e+02
1.380000e-06	4.722119e-06	4.431136e-09	3.362954e+01	2.915795e+02
1.390000e-06	4.770466e-06	4.466060e-09	3.397386e+01	2.939391e+02
1.400000e-06	4.817091e-06	4.498852e-09	3.430591e+01	2.961675e+02
1.410000e-06	4.862131e-06	4.528080e-09	3.462667e+01	2.982717e+02
1.420000e-06	4.905643e-06	4.555310e-09	3.493655e+01	3.002586e+02
1.430000e-06	4.947343e-06	4.581738e-09	3.523353e+01	3.021353e+02
1.440000e-06	4.987151e-06	4.606417e-09	3.551703e+01	3.039079e+02
1.450000e-06	5.025300e-06	4.629373e-09	3.578871e+01	3.055819e+02
1.460000e-06	5.061829e-06	4.652842e-09	3.604886e+01	3.071614e+02
1.470000e-06	5.096687e-06	4.677794e-09	3.629711e+01	3.086493e+02
1.480000e-06	5.129577e-06	4.700365e-09	3.653134e+01	3.100472e+02
1.490000e-06	5.160594e-06	4.718808e-09	3.675224e+01	3.113557e+02
1.500000e-06	5.189976e-06	4.734858e-09	3.696149e+01	3.125744e+02
1.510000e-06	5.217657e-06	4.749517e-09	3.715862e+01	3.137025e+02
1.520000e-06	5.243327e-06	4.762232e-09	3.734144e+01	3.147390e+02
1.530000e-06	5.266891e-06	4.774409e-09	3.750925e+01	3.156834e+02
1.540000e-06	5.288593e-06	4.787561e-09	3.766381e+01	3.165357e+02
1.550000e-06	5.308616e-06	4.800756e-09	3.780641e+01	3.172970e+02
1.560000e-06	5.326807e-06	4.813685e-09	3.793596e+01	3.179691e+02
1.570000e-06	5.342961e-06	4.824918e-09	3.805100e+01	3.185551e+02
1.580000e-06	5.357169e-06	4.834015e-09	3.815219e+01	3.190585e+02
1.590000e-06	5.369409e-06	4.840456e-09	3.823935e+01	3.194835e+02
1.600000e-06	5.379435e-06	4.844188e-09	3.831076e+01	3.198342e+02
1.610000e-06	5.387340e-06	4.847212e-09	3.836706e+01	3.201146e+02
1.620000e-06	5.393393e-06	4.851710e-09	3.841016e+01	3.203277e+02
1.630000e-06	5.397663e-06	4.856972e-09	3.844057e+01	3.204757e+02
1.640000e-06	5.400043e-06	4.860163e-09	3.845753e+01	3.205596e+02
1.650000e-06	5.400391e-06	4.864714e-09	3.846000e+01	3.205795e+02
1.660000e-06	5.398863e-06	4.864142e-09	3.844912e+01	3.205341e+02
1.670000e-06	5.395657e-06	4.857651e-09	3.842628e+01	3.204219e+02
1.680000e-06	5.390862e-06	4.857385e-09	3.839214e+01	3.202409e+02
1.690000e-06	5.384155e-06	4.855207e-09	3.834437e+01	3.199894e+02
1.700000e-06	5.375570e-06	4.850348e-09	3.828323e+01	3.196663e+02
1.710000e-06	5.365468e-06	4.846549e-09	3.821129e+01	3.192714e+02
1.720000e-06	5.353682e-06	4.849023e-09	3.812735e+01	3.188056e+02
1.730000e-06	5.339940e-06	4.860871e-09	3.802949e+01	3.182713e+02
1.740000e-06	5.324111e-06	4.771630e-09	3.791675e+01	3.176715e+02
1.750000e-06	5.305888e-06	4.747898e-09	3.778698e+01	3.170103e+02
1.760000e-06	5.284957e-06	4.787737e-09	3.763791e+01	3.162919e+02
1.770000e-06	5.261684e-06	4.786522e-09	3.747217e+01	3.155203e+02
1.780000e-06	5.237246e-06	4.907496e-09	3.729813e+01	3.146986e+02
1.790000e-06	5.212228e-06	4.784180e-09	3.711996e+01	3.138287e+02
1.800000e-06	5.185679e-06	4.623894e-09	3.693088e+01	3.129110e+02
1.810000e-06	5.156847e-06	4.802432e-09	3.672555e+01	3.119441e+02
1.820000e-06	5.126320e-06	4.674488e-09	3.650815e+01	3.109247e+02
1.830000e-06	5.094132e-06	4.648192e-09	3.627891e+01	3.098482e+02
1.840000e-06	5.059863e-06	4.845867e-09	3.603486e+01	3.087091e+02
1.850000e-06	5.024017e-06	4.617775e-09	3.577958e+01	3.075013e+02
1.860000e-06	4.986399e-06	4.637088e-09	3.551167e+01	3.062189e+02
1.870000e-06	4.946813e-06	4.727210e-09	3.522975e+01	3.048571e+02
1.880000e-06	4.905587e-06	4.518001e-09	3.493615e+01	3.034123e+02
1.890000e-06	4.862491e-06	4.628924e-09	3.462923e+01	3.018828e+02
1.900000e-06	4.817843e-06	4.566962e-09	3.431126e+01	3.002689e+02
1.910000e-06	4.771469e-06	4.496435e-09	3.398100e+01	2.985728e+02
1.920000e-06	4.722929e-06	4.623938e-09	3.363532e+01	2.967982e+02
1.930000e-06	4.672844e-06	4.416127e-09	3.327862e+01	2.949503e+02
1.940000e-06	4.621151e-06	4.460842e-09	3.291048e+01	2.930346e+02
1.950000e-06	4.567384e-06	4.472659e-09	3.252757e+01	2.910567e+02
1.960000e-06	4.511627e-06	4.334056e-09	3.213048e+01	2.890216e+02
1.970000e-06	4.454114e-06	4.379056e-09	3.172090e+01	2.869328e+02
1.980000e-06	4.395148e-06	4.334540e-09	3.130095e+01	2.847924e+02
1.990000e-06	4.334732e-06	4.366115e-09	3.087069e+01	2.826009e+02
2.000000e-06	4.272646e-06	4.256127e-09	3.042853e+01	2.803568e+02
2.010000e-06	4.208896e-06	4.187797e-09	2.997452e+01	2.780574e+02
2.020000e-06	4.143619e-06	4.239925e-09	2.950964e+01	2.756986e+02
2.030000e-06	4.076906e-06	4.109687e-09	2.903453e+01	2.732761e+02
2.040000e-06	4.008833e-06	4.132803e-09	2.854974e+01	2.707855e+02
2.050000e-06	3.939320e-06	4.110165e-09	2.805468e+01	2.682227e+02
2.060000e-06	3.868169e-06	4.063515e-09	2.754797e+01	2.655849e+02
2.070000e-06	3.795582e-06	4.014768e-09	2.703102e+01	2.628700e+02
2.080000e-06	3.721758e-06	3.912402e-09	2.650527e+01	2.600776e+02
2.090000e-06	3.646583e-06	3.935208e-09	2.596990e+01	2.572081e+02
2.100000e-06	3.570027e-06	3.872383e-09	2.542468e+01	2.542630e+02
2.110000e-06	3.491826e-06	3.823230e-09	2.486776e+01	2.512441e+02
2.120000e-06	3.412104e-06	3.784647e-09	2.430000e+01	2.481536e+02
2.130000e-06	3.331311e-06	3.743936e-09	2.372462e+01	2.449930e+02
2.140000e-06	3.249420e-06	3.701205e-09	2.314142e+01	2.417632e+02
2.150000e-06	3.166461e-06	3.621448e-09	2.255060e+01	2.384641e+02
2.160000e-06	3.082478e-06	3.592837e-09	2.195251e+01	2.350946e+02
2.170000e-06	2.997493e-06	3.528738e-09	2.134727e+01	2.316523e+02
2.180000e-06	2.911278e-06	3.485571e-09	2.073327e+01	2.281341e+02
2.190000e-06	2.823705e-06	3.439526e-09	2.010960e+01	2.245362e+02
2.200000e-06	2.735140e-06	3.384729e-09	1.947886e+01	2.208545e+02
2.210000e-06	2.645665e-06	3.329725e-09	1.884165e+01	2.170852e+02
2.220000e-06	2.555267e-06	3.252939e-09	1.819787e+01	2.132249e+02
2.230000e-06	2.464011e-06	3.196809e-09	1.754796e+01	2.092710e+02
2.240000e-06	2.371968e-06	3.134407e-09	1.689246e+01	2.052219e+02
2.250000e-06	2.279222e-06	3.083366e-09	1.623195e+01	2.010770e+02
2.260000e-06	2.185718e-06	3.024409e-09	1.556604e+01	1.968365e+02
2.270000e-06	2.091156e-06	2.954870e-09	1.489260e+01	1.925013e+02
2.280000e-06	1.995509e-06	2.879347e-09	1.421143e+01	1.880726e+02
2.290000e-06	1.899133e-06	2.811087e-09	1.352507e+01	1.835518e+02
2.300000e-06	1.802245e-06	2.748125e-09	1.283506e+01	1.789399e+02
2.310000e-06	1.704888e-06	2.677861e-09	1.214171e+01	1.742372e+02
2.320000e-06	1.606951e-06	2.607475e-09	1.144423e+01	1.694436e+02
2.330000e-06	1.508436e-06	2.531762e-09	1.074264e+01	1.645578e+02
2.340000e-06	1.409461e-06	2.459565e-09	1.003777e+01	1.595778e+02
2.350000e-06	1.310051e-06	2.379833e-09	9.329799e+00	1.545010e+02
2.360000e-06	1.210228e-06	2.301274e-09	8.618892e+00	1.493244e+02
2.370000e-06	1.110171e-06	2.225534e-09	7.906310e+00	1.440444e+02
2.380000e-06	1.009857e-06	2.143707e-09	7.191908e+00	1.386580e+02
2.390000e-06	9.091242e-07	2.059991e-09	6.474516e+00	1.331621e+02
2.400000e-06	8.080234e-07	1.977004e-09	5.754505e+00	1.275541e+02
2.410000e-06	7.066239e-07	1.891220e-09	5.032368e+00	1.218321e+02
2.420000e-06	6.050817e-07	1.798811e-09	4.309215e+00	1.159943e+02
2.430000e-06	5.033379e-07	1.703807e-09	3.584625e+00	1.100396e+02
2.440000e-06	4.013081e-07	1.613502e-09	2.857998e+00	1.039665e+02
2.450000e-06	2.990608e-07	1.526260e-09	2.129824e+00	9.777365e+01
2.460000e-06	1.966687e-07	1.430495e-09	1.400617e+00	9.145883e+01
2.470000e-06	9.421989e-08	1.329736e-09	6.710064e-01	8.501899e+01
2.480000e-06	-8.305558e-09	1.225719e-09	-5.914975e-02	7.844986e+01
2.490000e-06	-1.108763e-07	1.117970e-09	-7.896283e-01	7.174581e+01
2.500000e-06	-2.134284e-07	1.012753e-09	-1.519975e+00	6.489986e+01
2.510000e-06	-3.159050e-07	9.104589e-10	-2.249783e+00	5.790375e+01
2.520000e-06	-4.182228e-07	8.058073e-10	-2.978460e+00	5.074825e+01
2.530000e-06	-5.203008e-07	6.928368e-10	-3.705429e+00	4.342362e+01
2.540000e-06	-6.221894e-07	5.729173e-10	-4.431050e+00	3.592018e+01
2.550000e-06	-7.238448e-07	4.529921e-10	-5.155011e+00	2.822901e+01
2.560000e-06	-8.252155e-07	3.306724e-10	-5.876943e+00	2.034274e+01
2.570000e-06	-9.262108e-07	2.029752e-10	-6.596201e+00	1.225633e+01
2.580000e-06	-1.026788e-06	7.529231e-11	-7.312479e+00	3.967826e+00
2.590000e-06	-1.127015e-06	-5.438550e-11	-8.026272e+00	-4.520892e+00
2.600000e-06	-1.226830e-06	-1.862703e-10	-8.737121e+00	-1.320358e+01
2.610000e-06	-1.326191e-06	-3.201833e-10	-9.444740e+00	-2.206919e+01
2.620000e-06	-1.425150e-06	-4.592726e-10	-1.014950e+01	-3.110168e+01
2.630000e-06	-1.523670e-06	-6.005544e-10	-1.085113e+01	-4.027999e+01
2.640000e-06	-1.621624e-06	-7.419723e-10	-1.154873e+01	-4.957831e+01
2.650000e-06	-1.718986e-06	-8.828986e-10	-1.224212e+01	-5.896650e+01
2.660000e-06	-1.815829e-06	-1.025193e-09	-1.293180e+01	-6.841081e+01
2.670000e-06	-1.912117e-06	-1.170085e-09	-1.361754e+01	-7.787473e+01
2.680000e-06	-2.007777e-06	-1.315479e-09	-1.429880e+01	-8.731994e+01
2.690000e-06	-2.102672e-06	-1.457764e-09	-1.497462e+01	-9.670746e+01
2.700000e-06	-2.196654e-06	-1.597297e-09	-1.564393e+01	-1.059988e+02
2.710000e-06	-2.289687e-06	-1.735876e-09	-1.630648e+01	-1.151568e+02
2.720000e-06	-2.381804e-06	-1.872955e-09	-1.696251e+01	-1.241472e+02
2.730000e-06	-2.473075e-06	-2.008365e-09	-1.761251e+01	-1.329390e+02
2.740000e-06	-2.563474e-06	-2.141163e-09	-1.825631e+01	-1.415054e+02
2.750000e-06	-2.652980e-06	-2.269772e-09	-1.889375e+01	-1.498244e+02
2.760000e-06	-2.741636e-06	-2.394417e-09	-1.952513e+01	-1.578788e+02
2.770000e-06	-2.829458e-06	-2.514250e-09	-2.015057e+01	-1.656567e+02
2.780000e-06	-2.916326e-06	-2.627851e-09	-2.076922e+01	-1.731513e+02
2.790000e-06	-3.002073e-06	-2.736011e-09	-2.137988e+01	-1.803600e+02
2.800000e-06	-3.086655e-06	-2.841971e-09	-2.198225e+01	-1.872847e+02
2.810000e-06	-3.170174e-06	-2.945247e-09	-2.257705e+01	-1.939309e+02
2.820000e-06	-3.252623e-06	-3.042397e-09	-2.316423e+01	-2.003067e+02
2.830000e-06	-3.334035e-06	-3.135828e-09	-2.374402e+01	-2.064227e+02
2.840000e-06	-3.414438e-06	-3.226683e-09	-2.431663e+01	-2.122907e+02
2.850000e-06	-3.493587e-06	-3.312622e-09	-2.488030e+01	-2.179236e+02
2.860000e-06	-3.571169e-06	-3.394314e-09	-2.543282e+01	-2.233341e+02
2.870000e-06	-3.647204e-06	-3.472328e-09	-2.597431e+01	-2.285349e+02
2.880000e-06	-3.721910e-06	-3.546992e-09	-2.650635e+01	-2.335376e+02
2.890000e-06	-3.795305e-06	-3.618823e-09	-2.702905e+01	-2.383529e+02
2.900000e-06	-3.867362e-06	-3.689254e-09	-2.754222e+01	-2.429898e+02
2.910000e-06	-3.937980e-06	-3.759374e-09	-2.804514e+01	-2.474561e+02
2.920000e-06	-4.007038e-06	-3.827119e-09	-2.853695e+01	-2.517576e+02
2.930000e-06	-4.074609e-06	-3.891499e-09	-2.901817e+01	-2.558989e+02
2.940000e-06	-4.140750e-06	-3.953497e-09	-2.948921e+01	-2.598829e+02
