# Temperatura_=_24.26
# Concentracion g/m^3_=_15000.0
# C_Vs_to_Am_M_A/Vsm_=_65563218390.804596
# pendiente_HvsI_1/m_=_3716.3
# ordenada_HvsI_A/m_=_1297.0
# frecuencia_Hz_=_301578.31425312685

Tiempo_(s)	Campo_(V.s)	Magnetizacion_(V.s)	Campo_(kA/m)	Magnetizacion_(A/m)
0.000000e+00	-5.388217e-06	-4.455850e-09	-3.834013e+01	-2.898980e+02
1.000000e-08	-5.385525e-06	-4.459097e-09	-3.832097e+01	-2.897950e+02
2.000000e-08	-5.381067e-06	-4.453747e-09	-3.828925e+01	-2.896363e+02
3.000000e-08	-5.374977e-06	-4.447011e-09	-3.824592e+01	-2.894250e+02
4.000000e-08	-5.367297e-06	-4.441045e-09	-3.819127e+01	-2.891640e+02
5.000000e-08	-5.357727e-06	-4.433586e-09	-3.812317e+01	-2.888551e+02
6.000000e-08	-5.346064e-06	-4.426506e-09	-3.804018e+01	-2.884994e+02
7.000000e-08	-5.332541e-06	-4.417523e-09	-3.794396e+01	-2.880970e+02
8.000000e-08	-5.316893e-06	-4.413577e-09	-3.783261e+01	-2.876465e+02
9.000000e-08	-5.298974e-06	-4.455450e-09	-3.770512e+01	-2.871458e+02
1.000000e-07	-5.279069e-06	-4.453365e-09	-3.756348e+01	-2.865918e+02
1.100000e-07	-5.257258e-06	-4.407057e-09	-3.740828e+01	-2.859808e+02
1.200000e-07	-5.233768e-06	-4.385975e-09	-3.724114e+01	-2.853092e+02
1.300000e-07	-5.208779e-06	-4.288516e-09	-3.706332e+01	-2.845735e+02
1.400000e-07	-5.182148e-06	-4.268761e-09	-3.687383e+01	-2.837708e+02
1.500000e-07	-5.153897e-06	-4.394161e-09	-3.667281e+01	-2.828991e+02
1.600000e-07	-5.124181e-06	-4.312512e-09	-3.646136e+01	-2.819575e+02
1.700000e-07	-5.092864e-06	-4.332397e-09	-3.623853e+01	-2.809466e+02
1.800000e-07	-5.059421e-06	-4.372750e-09	-3.600056e+01	-2.798676e+02
1.900000e-07	-5.024108e-06	-4.154263e-09	-3.574929e+01	-2.787230e+02
2.000000e-07	-4.987377e-06	-4.184300e-09	-3.548793e+01	-2.775159e+02
2.100000e-07	-4.948915e-06	-4.276471e-09	-3.521425e+01	-2.762497e+02
2.200000e-07	-4.908606e-06	-4.221165e-09	-3.492743e+01	-2.749276e+02
2.300000e-07	-4.866296e-06	-4.234013e-09	-3.462637e+01	-2.735526e+02
2.400000e-07	-4.822062e-06	-4.158781e-09	-3.431162e+01	-2.721269e+02
2.500000e-07	-4.776124e-06	-4.066182e-09	-3.398475e+01	-2.706519e+02
2.600000e-07	-4.728214e-06	-4.110639e-09	-3.364384e+01	-2.691278e+02
2.700000e-07	-4.678177e-06	-4.121718e-09	-3.328780e+01	-2.675541e+02
2.800000e-07	-4.626154e-06	-4.119205e-09	-3.291763e+01	-2.659294e+02
2.900000e-07	-4.572310e-06	-4.038347e-09	-3.253450e+01	-2.642517e+02
3.000000e-07	-4.516854e-06	-3.948843e-09	-3.213990e+01	-2.625187e+02
3.100000e-07	-4.459730e-06	-3.962127e-09	-3.173343e+01	-2.607278e+02
3.200000e-07	-4.400788e-06	-3.998981e-09	-3.131402e+01	-2.588768e+02
3.300000e-07	-4.340262e-06	-3.975580e-09	-3.088335e+01	-2.569636e+02
3.400000e-07	-4.278322e-06	-3.870270e-09	-3.044261e+01	-2.549867e+02
3.500000e-07	-4.214986e-06	-3.819449e-09	-2.999194e+01	-2.529451e+02
3.600000e-07	-4.150119e-06	-3.811151e-09	-2.953038e+01	-2.508383e+02
3.700000e-07	-4.083549e-06	-3.811897e-09	-2.905670e+01	-2.486661e+02
3.800000e-07	-4.015432e-06	-3.815072e-09	-2.857200e+01	-2.464289e+02
3.900000e-07	-3.945938e-06	-3.753295e-09	-2.807751e+01	-2.441273e+02
4.000000e-07	-3.875220e-06	-3.668010e-09	-2.757432e+01	-2.417620e+02
4.100000e-07	-3.803245e-06	-3.605415e-09	-2.706218e+01	-2.393336e+02
4.200000e-07	-3.729791e-06	-3.592618e-09	-2.653951e+01	-2.368430e+02
4.300000e-07	-3.654809e-06	-3.606559e-09	-2.600597e+01	-2.342908e+02
4.400000e-07	-3.578322e-06	-3.570455e-09	-2.546173e+01	-2.316774e+02
4.500000e-07	-3.500367e-06	-3.486261e-09	-2.490704e+01	-2.290033e+02
4.600000e-07	-3.420963e-06	-3.408161e-09	-2.434203e+01	-2.262685e+02
4.700000e-07	-3.340285e-06	-3.383109e-09	-2.376796e+01	-2.234730e+02
4.800000e-07	-3.258460e-06	-3.380057e-09	-2.318574e+01	-2.206163e+02
4.900000e-07	-3.175500e-06	-3.341017e-09	-2.259543e+01	-2.176976e+02
5.000000e-07	-3.091460e-06	-3.279517e-09	-2.199744e+01	-2.147156e+02
5.100000e-07	-3.006488e-06	-3.210013e-09	-2.139282e+01	-2.116685e+02
5.200000e-07	-2.920641e-06	-3.155665e-09	-2.078197e+01	-2.085539e+02
5.300000e-07	-2.833885e-06	-3.124271e-09	-2.016465e+01	-2.053690e+02
5.400000e-07	-2.746153e-06	-3.093574e-09	-1.954039e+01	-2.021104e+02
5.500000e-07	-2.657293e-06	-3.033665e-09	-1.890810e+01	-1.987745e+02
5.600000e-07	-2.567293e-06	-2.947651e-09	-1.826770e+01	-1.953577e+02
5.700000e-07	-2.476242e-06	-2.886846e-09	-1.761982e+01	-1.918563e+02
5.800000e-07	-2.384287e-06	-2.857101e-09	-1.696551e+01	-1.882674e+02
5.900000e-07	-2.291569e-06	-2.821606e-09	-1.630577e+01	-1.845887e+02
6.000000e-07	-2.198082e-06	-2.752941e-09	-1.564056e+01	-1.808187e+02
6.100000e-07	-2.103852e-06	-2.675561e-09	-1.497006e+01	-1.769571e+02
6.200000e-07	-2.008931e-06	-2.606958e-09	-1.429465e+01	-1.730045e+02
6.300000e-07	-1.913299e-06	-2.545388e-09	-1.361418e+01	-1.689625e+02
6.400000e-07	-1.816937e-06	-2.496645e-09	-1.292851e+01	-1.648336e+02
6.500000e-07	-1.719797e-06	-2.446583e-09	-1.223730e+01	-1.606203e+02
6.600000e-07	-1.621876e-06	-2.376353e-09	-1.154054e+01	-1.563255e+02
6.700000e-07	-1.523315e-06	-2.288410e-09	-1.083923e+01	-1.519512e+02
6.800000e-07	-1.424237e-06	-2.212327e-09	-1.013423e+01	-1.474989e+02
6.900000e-07	-1.324693e-06	-2.154889e-09	-9.425918e+00	-1.429688e+02
7.000000e-07	-1.224737e-06	-2.095248e-09	-8.714674e+00	-1.383596e+02
7.100000e-07	-1.124418e-06	-2.019438e-09	-8.000855e+00	-1.336688e+02
7.200000e-07	-1.023773e-06	-1.936244e-09	-7.284710e+00	-1.288924e+02
7.300000e-07	-9.227948e-07	-1.857852e-09	-6.566192e+00	-1.240255e+02
7.400000e-07	-8.215076e-07	-1.785771e-09	-5.845478e+00	-1.190624e+02
7.500000e-07	-7.199278e-07	-1.715410e-09	-5.122682e+00	-1.139972e+02
7.600000e-07	-6.181078e-07	-1.636696e-09	-4.398177e+00	-1.088243e+02
7.700000e-07	-5.161033e-07	-1.546040e-09	-3.672358e+00	-1.035388e+02
7.800000e-07	-4.139474e-07	-1.451610e-09	-2.945463e+00	-9.813673e+01
7.900000e-07	-3.116475e-07	-1.366757e-09	-2.217544e+00	-9.261542e+01
8.000000e-07	-2.092286e-07	-1.289022e-09	-1.488777e+00	-8.697330e+01
8.100000e-07	-1.067286e-07	-1.208019e-09	-7.594326e-01	-8.120986e+01
8.200000e-07	-4.165122e-09	-1.118440e-09	-2.963713e-02	-7.532526e+01
8.300000e-07	9.840962e-08	-1.021828e-09	7.002385e-01	-6.931992e+01
8.400000e-07	2.009767e-07	-9.253333e-10	1.430060e+00	-6.319402e+01
8.500000e-07	3.035050e-07	-8.324265e-10	2.159605e+00	-5.694700e+01
8.600000e-07	4.059880e-07	-7.405322e-10	2.888828e+00	-5.057722e+01
8.700000e-07	5.083510e-07	-6.416148e-10	3.617197e+00	-4.408167e+01
8.800000e-07	6.105041e-07	-5.374925e-10	4.344072e+00	-3.745597e+01
8.900000e-07	7.124487e-07	-4.334149e-10	5.069464e+00	-3.069455e+01
9.000000e-07	8.141957e-07	-3.310363e-10	5.793450e+00	-2.379107e+01
9.100000e-07	9.156425e-07	-2.278383e-10	6.515300e+00	-1.673906e+01
9.200000e-07	1.016756e-06	-1.216292e-10	7.234775e+00	-9.532708e+00
9.300000e-07	1.117471e-06	-1.011183e-11	7.951421e+00	-2.167689e+00
9.400000e-07	1.217760e-06	1.096509e-10	8.665031e+00	5.357916e+00
9.500000e-07	1.317726e-06	2.291382e-10	9.376348e+00	1.304282e+01
9.600000e-07	1.417314e-06	3.449158e-10	1.008497e+01	2.088185e+01
9.700000e-07	1.516456e-06	4.596413e-10	1.079042e+01	2.886549e+01
9.800000e-07	1.614970e-06	5.787656e-10	1.149140e+01	3.697967e+01
9.900000e-07	1.712665e-06	7.037814e-10	1.218655e+01	4.520575e+01
1.000000e-06	1.809481e-06	8.318093e-10	1.287545e+01	5.352090e+01
1.010000e-06	1.905504e-06	9.587353e-10	1.355871e+01	6.189858e+01
1.020000e-06	2.000869e-06	1.083915e-09	1.423728e+01	7.030930e+01
1.030000e-06	2.095579e-06	1.211146e-09	1.491119e+01	7.872152e+01
1.040000e-06	2.189560e-06	1.339327e-09	1.557992e+01	8.710258e+01
1.050000e-06	2.282714e-06	1.466433e-09	1.624276e+01	9.541973e+01
1.060000e-06	2.375102e-06	1.589974e-09	1.690016e+01	1.036411e+02
1.070000e-06	2.466906e-06	1.709587e-09	1.755339e+01	1.117365e+02
1.080000e-06	2.558013e-06	1.827804e-09	1.820167e+01	1.196785e+02
1.090000e-06	2.648057e-06	1.946242e-09	1.884238e+01	1.274426e+02
1.100000e-06	2.736890e-06	2.065619e-09	1.947448e+01	1.350080e+02
1.110000e-06	2.824691e-06	2.179411e-09	2.009923e+01	1.423581e+02
1.120000e-06	2.911534e-06	2.285626e-09	2.071716e+01	1.494802e+02
1.130000e-06	2.997408e-06	2.386790e-09	2.132821e+01	1.563658e+02
1.140000e-06	3.082272e-06	2.488093e-09	2.193206e+01	1.630104e+02
1.150000e-06	3.166223e-06	2.588736e-09	2.252942e+01	1.694132e+02
1.160000e-06	3.249294e-06	2.684922e-09	2.312052e+01	1.755766e+02
1.170000e-06	3.331148e-06	2.776874e-09	2.370295e+01	1.815056e+02
1.180000e-06	3.411692e-06	2.863785e-09	2.427607e+01	1.872075e+02
1.190000e-06	3.491002e-06	2.947049e-09	2.484040e+01	1.926910e+02
1.200000e-06	3.569079e-06	3.027855e-09	2.539596e+01	1.979656e+02
1.210000e-06	3.645907e-06	3.107503e-09	2.594263e+01	2.030407e+02
1.220000e-06	3.721438e-06	3.184345e-09	2.648008e+01	2.079257e+02
1.230000e-06	3.795470e-06	3.255488e-09	2.700686e+01	2.126287e+02
1.240000e-06	3.867884e-06	3.321180e-09	2.752212e+01	2.171568e+02
1.250000e-06	3.938860e-06	3.385828e-09	2.802716e+01	2.215154e+02
1.260000e-06	4.008435e-06	3.451622e-09	2.852222e+01	2.257085e+02
1.270000e-06	4.076677e-06	3.515851e-09	2.900780e+01	2.297386e+02
1.280000e-06	4.143498e-06	3.572319e-09	2.948326e+01	2.336071e+02
1.290000e-06	4.208568e-06	3.624077e-09	2.994627e+01	2.373145e+02
1.300000e-06	4.272014e-06	3.674505e-09	3.039773e+01	2.408609e+02
1.310000e-06	4.334071e-06	3.724255e-09	3.083930e+01	2.442465e+02
1.320000e-06	4.394718e-06	3.773189e-09	3.127084e+01	2.474719e+02
1.330000e-06	4.454002e-06	3.819273e-09	3.169267e+01	2.505385e+02
1.340000e-06	4.511641e-06	3.861148e-09	3.210280e+01	2.534486e+02
1.350000e-06	4.567421e-06	3.899738e-09	3.249971e+01	2.562059e+02
1.360000e-06	4.621584e-06	3.937124e-09	3.288511e+01	2.588151e+02
1.370000e-06	4.674099e-06	3.972501e-09	3.325879e+01	2.612818e+02
1.380000e-06	4.724598e-06	4.005376e-09	3.361811e+01	2.636124e+02
1.390000e-06	4.773040e-06	4.035208e-09	3.396280e+01	2.658137e+02
1.400000e-06	4.819755e-06	4.062682e-09	3.429521e+01	2.678929e+02
1.410000e-06	4.864879e-06	4.090106e-09	3.461628e+01	2.698565e+02
1.420000e-06	4.908469e-06	4.117624e-09	3.492645e+01	2.717108e+02
1.430000e-06	4.950240e-06	4.142375e-09	3.522368e+01	2.734614e+02
1.440000e-06	4.990102e-06	4.165166e-09	3.550732e+01	2.751131e+02
1.450000e-06	5.028311e-06	4.187665e-09	3.577919e+01	2.766699e+02
1.460000e-06	5.064897e-06	4.209871e-09	3.603952e+01	2.781349e+02
1.470000e-06	5.099772e-06	4.232257e-09	3.628768e+01	2.795108e+02
1.480000e-06	5.132705e-06	4.252552e-09	3.652201e+01	2.807996e+02
1.490000e-06	5.163785e-06	4.269054e-09	3.674317e+01	2.820032e+02
1.500000e-06	5.193192e-06	4.281932e-09	3.695242e+01	2.831230e+02
1.510000e-06	5.220944e-06	4.295314e-09	3.714989e+01	2.841607e+02
1.520000e-06	5.246692e-06	4.309451e-09	3.733309e+01	2.851175e+02
1.530000e-06	5.270322e-06	4.323038e-09	3.750124e+01	2.859949e+02
1.540000e-06	5.292148e-06	4.335296e-09	3.765654e+01	2.867942e+02
1.550000e-06	5.312316e-06	4.344950e-09	3.780005e+01	2.875165e+02
1.560000e-06	5.330696e-06	4.355376e-09	3.793083e+01	2.881628e+02
1.570000e-06	5.347026e-06	4.367079e-09	3.804703e+01	2.887340e+02
1.580000e-06	5.361321e-06	4.378573e-09	3.814875e+01	2.892308e+02
1.590000e-06	5.373630e-06	4.386231e-09	3.823633e+01	2.896538e+02
1.600000e-06	5.383752e-06	4.389257e-09	3.830836e+01	2.900037e+02
1.610000e-06	5.391742e-06	4.390499e-09	3.836521e+01	2.902814e+02
1.620000e-06	5.397847e-06	4.392995e-09	3.840865e+01	2.904879e+02
1.630000e-06	5.402161e-06	4.398837e-09	3.843934e+01	2.906249e+02
1.640000e-06	5.404629e-06	4.403956e-09	3.845691e+01	2.906946e+02
1.650000e-06	5.405064e-06	4.407367e-09	3.846000e+01	2.906994e+02
1.660000e-06	5.403582e-06	4.405030e-09	3.844946e+01	2.906425e+02
1.670000e-06	5.400447e-06	4.398570e-09	3.842715e+01	2.905272e+02
1.680000e-06	5.395649e-06	4.398451e-09	3.839301e+01	2.903568e+02
1.690000e-06	5.388918e-06	4.398312e-09	3.834511e+01	2.901345e+02
1.700000e-06	5.380388e-06	4.395429e-09	3.828441e+01	2.898629e+02
1.710000e-06	5.370302e-06	4.392163e-09	3.821265e+01	2.895438e+02
1.720000e-06	5.358511e-06	4.391201e-09	3.812875e+01	2.891780e+02
1.730000e-06	5.344754e-06	4.398987e-09	3.803087e+01	2.887652e+02
1.740000e-06	5.328937e-06	4.335697e-09	3.791832e+01	2.883041e+02
1.750000e-06	5.310826e-06	4.307961e-09	3.778945e+01	2.877921e+02
1.760000e-06	5.290087e-06	4.336455e-09	3.764188e+01	2.872260e+02
1.770000e-06	5.266991e-06	4.328713e-09	3.747753e+01	2.866022e+02
1.780000e-06	5.242519e-06	4.425032e-09	3.730341e+01	2.859170e+02
1.790000e-06	5.217395e-06	4.381312e-09	3.712464e+01	2.851670e+02
1.800000e-06	5.190857e-06	4.244623e-09	3.693580e+01	2.843495e+02
1.810000e-06	5.162063e-06	4.372954e-09	3.673092e+01	2.834627e+02
1.820000e-06	5.131462e-06	4.285993e-09	3.651317e+01	2.825060e+02
1.830000e-06	5.099196e-06	4.209173e-09	3.628358e+01	2.814802e+02
1.840000e-06	5.064971e-06	4.404777e-09	3.604005e+01	2.803868e+02
1.850000e-06	5.029142e-06	4.285204e-09	3.578511e+01	2.792284e+02
1.860000e-06	4.991550e-06	4.205158e-09	3.551762e+01	2.780082e+02
1.870000e-06	4.952023e-06	4.237911e-09	3.523637e+01	2.767296e+02
1.880000e-06	4.910837e-06	4.085574e-09	3.494331e+01	2.753958e+02
1.890000e-06	4.867846e-06	4.182574e-09	3.463740e+01	2.740096e+02
1.900000e-06	4.823238e-06	4.216969e-09	3.431999e+01	2.725731e+02
1.910000e-06	4.776885e-06	4.130036e-09	3.399016e+01	2.710874e+02
1.920000e-06	4.728491e-06	4.154797e-09	3.364582e+01	2.695526e+02
1.930000e-06	4.678478e-06	3.982550e-09	3.328995e+01	2.679680e+02
1.940000e-06	4.626728e-06	4.029176e-09	3.292171e+01	2.663320e+02
1.950000e-06	4.572844e-06	4.121250e-09	3.253830e+01	2.646425e+02
1.960000e-06	4.517023e-06	4.022354e-09	3.214110e+01	2.628971e+02
1.970000e-06	4.459517e-06	3.977171e-09	3.173191e+01	2.610934e+02
1.980000e-06	4.400548e-06	3.887577e-09	3.131232e+01	2.592291e+02
1.990000e-06	4.340158e-06	3.926428e-09	3.088261e+01	2.573022e+02
2.000000e-06	4.278050e-06	3.920662e-09	3.044067e+01	2.553114e+02
2.010000e-06	4.214231e-06	3.856934e-09	2.998657e+01	2.532557e+02
2.020000e-06	4.148884e-06	3.868323e-09	2.952159e+01	2.511347e+02
2.030000e-06	4.082120e-06	3.754682e-09	2.904652e+01	2.489484e+02
2.040000e-06	4.013995e-06	3.714691e-09	2.856178e+01	2.466972e+02
2.050000e-06	3.944427e-06	3.717132e-09	2.806676e+01	2.443817e+02
2.060000e-06	3.873341e-06	3.747059e-09	2.756095e+01	2.420027e+02
2.070000e-06	3.800833e-06	3.731420e-09	2.704502e+01	2.395608e+02
2.080000e-06	3.727023e-06	3.582691e-09	2.651982e+01	2.370568e+02
2.090000e-06	3.651870e-06	3.532782e-09	2.598506e+01	2.344912e+02
2.100000e-06	3.575294e-06	3.519589e-09	2.544018e+01	2.318647e+02
2.110000e-06	3.497116e-06	3.530711e-09	2.488390e+01	2.291774e+02
2.120000e-06	3.417501e-06	3.491179e-09	2.431740e+01	2.264294e+02
2.130000e-06	3.336695e-06	3.417740e-09	2.374242e+01	2.236207e+02
2.140000e-06	3.254727e-06	3.368538e-09	2.315917e+01	2.207507e+02
2.150000e-06	3.171766e-06	3.286079e-09	2.256886e+01	2.178184e+02
2.160000e-06	3.087862e-06	3.273532e-09	2.197184e+01	2.148225e+02
2.170000e-06	3.002827e-06	3.273522e-09	2.136676e+01	2.117610e+02
2.180000e-06	2.916540e-06	3.226677e-09	2.075278e+01	2.086315e+02
2.190000e-06	2.829100e-06	3.127222e-09	2.013060e+01	2.054309e+02
2.200000e-06	2.740589e-06	3.054670e-09	1.950080e+01	2.021559e+02
2.210000e-06	2.651091e-06	3.050389e-09	1.886397e+01	1.988029e+02
2.220000e-06	2.560705e-06	3.022274e-09	1.822082e+01	1.953680e+02
2.230000e-06	2.469512e-06	2.954190e-09	1.757193e+01	1.918480e+02
2.240000e-06	2.377583e-06	2.873090e-09	1.691781e+01	1.882399e+02
2.250000e-06	2.284831e-06	2.815446e-09	1.625783e+01	1.845415e+02
2.260000e-06	2.191147e-06	2.759362e-09	1.559122e+01	1.807517e+02
2.270000e-06	2.096494e-06	2.721295e-09	1.491770e+01	1.768704e+02
2.280000e-06	2.000897e-06	2.688534e-09	1.423748e+01	1.728983e+02
2.290000e-06	1.904538e-06	2.613255e-09	1.355183e+01	1.688374e+02
2.300000e-06	1.807581e-06	2.511927e-09	1.286193e+01	1.646900e+02
2.310000e-06	1.710109e-06	2.435803e-09	1.216837e+01	1.604589e+02
2.320000e-06	1.612143e-06	2.404527e-09	1.147128e+01	1.561467e+02
2.330000e-06	1.513648e-06	2.362789e-09	1.077044e+01	1.517555e+02
2.340000e-06	1.414636e-06	2.284521e-09	1.006591e+01	1.472864e+02
2.350000e-06	1.315201e-06	2.192040e-09	9.358378e+00	1.427393e+02
2.360000e-06	1.215418e-06	2.115565e-09	8.648368e+00	1.381128e+02
2.370000e-06	1.115333e-06	2.054019e-09	7.936207e+00	1.334038e+02
2.380000e-06	1.015015e-06	1.996627e-09	7.222391e+00	1.286084e+02
2.390000e-06	9.143223e-07	1.931028e-09	6.505906e+00	1.237212e+02
2.400000e-06	8.130918e-07	1.844246e-09	5.785595e+00	1.187365e+02
2.410000e-06	7.114656e-07	1.751477e-09	5.062469e+00	1.136485e+02
2.420000e-06	6.096393e-07	1.673738e-09	4.337919e+00	1.084517e+02
2.430000e-06	5.076381e-07	1.612868e-09	3.612124e+00	1.031414e+02
2.440000e-06	4.054116e-07	1.545407e-09	2.884726e+00	9.771385e+01
2.450000e-06	3.030027e-07	1.453739e-09	2.156031e+00	9.216660e+01
2.460000e-06	2.004062e-07	1.349880e-09	1.426000e+00	8.649835e+01
2.470000e-06	9.765639e-08	1.258912e-09	6.948789e-01	8.070876e+01
2.480000e-06	-5.122757e-09	1.180274e-09	-3.645123e-02	7.479810e+01
2.490000e-06	-1.079483e-07	1.095611e-09	-7.681113e-01	6.876679e+01
2.500000e-06	-2.107335e-07	9.967295e-10	-1.499485e+00	6.261486e+01
2.510000e-06	-3.134388e-07	8.907359e-10	-2.230289e+00	5.634158e+01
2.520000e-06	-4.160217e-07	7.907508e-10	-2.960223e+00	4.994500e+01
2.530000e-06	-5.183602e-07	6.966935e-10	-3.688418e+00	4.342183e+01
2.540000e-06	-6.204901e-07	6.062270e-10	-4.415128e+00	3.676740e+01
2.550000e-06	-7.223957e-07	5.093929e-10	-5.140242e+00	2.997593e+01
2.560000e-06	-8.239274e-07	3.945826e-10	-5.862697e+00	2.304101e+01
2.570000e-06	-9.249978e-07	2.705219e-10	-6.581868e+00	1.595624e+01
2.580000e-06	-1.025634e-06	1.562447e-10	-7.297946e+00	8.716030e+00
2.590000e-06	-1.125915e-06	5.311704e-11	-8.011505e+00	1.316515e+00
2.600000e-06	-1.225839e-06	-5.737549e-11	-8.722519e+00	-6.243604e+00
2.610000e-06	-1.325358e-06	-1.819012e-10	-9.430651e+00	-1.396226e+01
2.620000e-06	-1.424494e-06	-3.105995e-10	-1.013606e+01	-2.183338e+01
2.630000e-06	-1.523116e-06	-4.349872e-10	-1.083781e+01	-2.984649e+01
2.640000e-06	-1.621127e-06	-5.552012e-10	-1.153521e+01	-3.798651e+01
2.650000e-06	-1.718561e-06	-6.765766e-10	-1.222850e+01	-4.623389e+01
2.660000e-06	-1.815385e-06	-8.045157e-10	-1.291747e+01	-5.456493e+01
2.670000e-06	-1.911673e-06	-9.414635e-10	-1.360261e+01	-6.295240e+01
2.680000e-06	-2.007459e-06	-1.079440e-09	-1.428418e+01	-7.136630e+01
2.690000e-06	-2.102561e-06	-1.208070e-09	-1.496088e+01	-7.977476e+01
2.700000e-06	-2.196699e-06	-1.330196e-09	-1.563072e+01	-8.814501e+01
2.710000e-06	-2.289778e-06	-1.455209e-09	-1.629303e+01	-9.644442e+01
2.720000e-06	-2.381995e-06	-1.585254e-09	-1.694920e+01	-1.046414e+02
2.730000e-06	-2.473395e-06	-1.712671e-09	-1.759957e+01	-1.127063e+02
2.740000e-06	-2.563917e-06	-1.832716e-09	-1.824368e+01	-1.206123e+02
2.750000e-06	-2.653474e-06	-1.948539e-09	-1.888092e+01	-1.283355e+02
2.760000e-06	-2.742081e-06	-2.062145e-09	-1.951141e+01	-1.358562e+02
2.770000e-06	-2.829975e-06	-2.174194e-09	-2.013683e+01	-1.431585e+02
2.780000e-06	-2.917079e-06	-2.285472e-09	-2.075662e+01	-1.502306e+02
2.790000e-06	-3.002989e-06	-2.391799e-09	-2.136791e+01	-1.570650e+02
2.800000e-06	-3.087623e-06	-2.489461e-09	-2.197014e+01	-1.636579e+02
2.810000e-06	-3.171182e-06	-2.581923e-09	-2.256471e+01	-1.700093e+02
2.820000e-06	-3.253727e-06	-2.674660e-09	-2.315206e+01	-1.761221e+02
2.830000e-06	-3.335201e-06	-2.767245e-09	-2.373179e+01	-1.820019e+02
2.840000e-06	-3.415667e-06	-2.854593e-09	-2.430435e+01	-1.876564e+02
2.850000e-06	-3.494950e-06	-2.935124e-09	-2.486849e+01	-1.930945e+02
2.860000e-06	-3.572602e-06	-3.011520e-09	-2.542103e+01	-1.983256e+02
2.870000e-06	-3.648709e-06	-3.086147e-09	-2.596257e+01	-2.033594e+02
2.880000e-06	-3.723480e-06	-3.160975e-09	-2.649461e+01	-2.082049e+02
2.890000e-06	-3.796873e-06	-3.236149e-09	-2.701684e+01	-2.128701e+02
2.900000e-06	-3.868989e-06	-3.308364e-09	-2.752999e+01	-2.173616e+02
2.910000e-06	-3.939661e-06	-3.373280e-09	-2.803286e+01	-2.216846e+02
2.920000e-06	-4.008710e-06	-3.435069e-09	-2.852418e+01	-2.258427e+02
2.930000e-06	-4.076355e-06	-3.497308e-09	-2.900551e+01	-2.298383e+02
2.940000e-06	-4.142617e-06	-3.557162e-09	-2.947700e+01	-2.336723e+02
