# Temperatura_=_64.48
# Concentracion g/m^3_=_15000.0
# C_Vs_to_Am_M_A/Vsm_=_65563218390.804596
# pendiente_HvsI_1/m_=_3716.3
# ordenada_HvsI_A/m_=_1297.0
# frecuencia_Hz_=_302339.39764414093

Tiempo_(s)	Campo_(V.s)	Magnetizacion_(V.s)	Campo_(kA/m)	Magnetizacion_(A/m)
0.000000e+00	-8.168978e-06	-1.188248e-08	-5.691783e+01	-7.770592e+02
1.000000e-08	-8.166549e-06	-1.188814e-08	-5.690090e+01	-7.767937e+02
2.000000e-08	-8.161418e-06	-1.188144e-08	-5.686515e+01	-7.763734e+02
3.000000e-08	-8.153672e-06	-1.187021e-08	-5.681118e+01	-7.758115e+02
4.000000e-08	-8.142981e-06	-1.185978e-08	-5.673669e+01	-7.751261e+02
5.000000e-08	-8.129298e-06	-1.184474e-08	-5.664135e+01	-7.743357e+02
6.000000e-08	-8.112744e-06	-1.182332e-08	-5.652601e+01	-7.734542e+02
7.000000e-08	-8.093657e-06	-1.179737e-08	-5.639302e+01	-7.724886e+02
8.000000e-08	-8.072274e-06	-1.176991e-08	-5.624404e+01	-7.714381e+02
9.000000e-08	-8.048170e-06	-1.183228e-08	-5.607609e+01	-7.702969e+02
1.000000e-07	-8.020836e-06	-1.183599e-08	-5.588564e+01	-7.690574e+02
1.100000e-07	-7.990275e-06	-1.174704e-08	-5.567270e+01	-7.677154e+02
1.200000e-07	-7.956687e-06	-1.171060e-08	-5.543868e+01	-7.662728e+02
1.300000e-07	-7.920252e-06	-1.169467e-08	-5.518481e+01	-7.647383e+02
1.400000e-07	-7.881378e-06	-1.165571e-08	-5.491396e+01	-7.631257e+02
1.500000e-07	-7.840191e-06	-1.157774e-08	-5.462698e+01	-7.614490e+02
1.600000e-07	-7.796566e-06	-1.161718e-08	-5.432302e+01	-7.597165e+02
1.700000e-07	-7.750231e-06	-1.159949e-08	-5.400018e+01	-7.579252e+02
1.800000e-07	-7.701022e-06	-1.145887e-08	-5.365732e+01	-7.560584e+02
1.900000e-07	-7.648916e-06	-1.154640e-08	-5.329426e+01	-7.540856e+02
2.000000e-07	-7.593853e-06	-1.150420e-08	-5.291061e+01	-7.519673e+02
2.100000e-07	-7.535940e-06	-1.140446e-08	-5.250710e+01	-7.496624e+02
2.200000e-07	-7.475344e-06	-1.140338e-08	-5.208489e+01	-7.471366e+02
2.300000e-07	-7.412193e-06	-1.133899e-08	-5.164488e+01	-7.443703e+02
2.400000e-07	-7.346293e-06	-1.133017e-08	-5.118572e+01	-7.413626e+02
2.500000e-07	-7.277491e-06	-1.123222e-08	-5.070634e+01	-7.381322e+02
2.600000e-07	-7.205884e-06	-1.120987e-08	-5.020741e+01	-7.347118e+02
2.700000e-07	-7.131426e-06	-1.115518e-08	-4.968863e+01	-7.311407e+02
2.800000e-07	-7.054163e-06	-1.107398e-08	-4.915029e+01	-7.274550e+02
2.900000e-07	-6.974100e-06	-1.101196e-08	-4.859244e+01	-7.236786e+02
3.000000e-07	-6.891402e-06	-1.096292e-08	-4.801624e+01	-7.198182e+02
3.100000e-07	-6.806408e-06	-1.094992e-08	-4.742404e+01	-7.158617e+02
3.200000e-07	-6.719046e-06	-1.083879e-08	-4.681534e+01	-7.117828e+02
3.300000e-07	-6.629185e-06	-1.077629e-08	-4.618923e+01	-7.075482e+02
3.400000e-07	-6.536935e-06	-1.073065e-08	-4.554647e+01	-7.031267e+02
3.500000e-07	-6.442368e-06	-1.065897e-08	-4.488757e+01	-6.984973e+02
3.600000e-07	-6.345389e-06	-1.056484e-08	-4.421186e+01	-6.936544e+02
3.700000e-07	-6.246038e-06	-1.048305e-08	-4.351963e+01	-6.886082e+02
3.800000e-07	-6.144468e-06	-1.042156e-08	-4.281193e+01	-6.833808e+02
3.900000e-07	-6.040711e-06	-1.032283e-08	-4.208900e+01	-6.779994e+02
4.000000e-07	-5.934803e-06	-1.023791e-08	-4.135108e+01	-6.724872e+02
4.100000e-07	-5.826842e-06	-1.016421e-08	-4.059886e+01	-6.668568e+02
4.200000e-07	-5.716847e-06	-1.009000e-08	-3.983246e+01	-6.611058e+02
4.300000e-07	-5.604729e-06	-9.982546e-09	-3.905127e+01	-6.552166e+02
4.400000e-07	-5.490434e-06	-9.879283e-09	-3.825491e+01	-6.491610e+02
4.500000e-07	-5.374001e-06	-9.791986e-09	-3.744366e+01	-6.429065e+02
4.600000e-07	-5.255579e-06	-9.699786e-09	-3.661855e+01	-6.364242e+02
4.700000e-07	-5.135294e-06	-9.588168e-09	-3.578046e+01	-6.296948e+02
4.800000e-07	-5.013174e-06	-9.474805e-09	-3.492958e+01	-6.227117e+02
4.900000e-07	-4.889190e-06	-9.372714e-09	-3.406572e+01	-6.154804e+02
5.000000e-07	-4.763432e-06	-9.261715e-09	-3.318949e+01	-6.080142e+02
5.100000e-07	-4.636003e-06	-9.141905e-09	-3.230162e+01	-6.003284e+02
5.200000e-07	-4.506859e-06	-9.017408e-09	-3.140180e+01	-5.924339e+02
5.300000e-07	-4.375995e-06	-8.896471e-09	-3.049000e+01	-5.843329e+02
5.400000e-07	-4.243497e-06	-8.764590e-09	-2.956681e+01	-5.760172e+02
5.500000e-07	-4.109523e-06	-8.630571e-09	-2.863334e+01	-5.674702e+02
5.600000e-07	-3.974033e-06	-8.496103e-09	-2.768931e+01	-5.586709e+02
5.700000e-07	-3.836930e-06	-8.362225e-09	-2.673403e+01	-5.495993e+02
5.800000e-07	-3.698339e-06	-8.215878e-09	-2.576839e+01	-5.402409e+02
5.900000e-07	-3.558223e-06	-8.064706e-09	-2.479213e+01	-5.305889e+02
6.000000e-07	-3.416543e-06	-7.915141e-09	-2.380496e+01	-5.206438e+02
6.100000e-07	-3.273477e-06	-7.760993e-09	-2.280814e+01	-5.104102e+02
6.200000e-07	-3.129214e-06	-7.599682e-09	-2.180298e+01	-4.998919e+02
6.300000e-07	-2.983825e-06	-7.430094e-09	-2.078997e+01	-4.890871e+02
6.400000e-07	-2.837281e-06	-7.259142e-09	-1.976892e+01	-4.779859e+02
6.500000e-07	-2.689708e-06	-7.080949e-09	-1.874069e+01	-4.665695e+02
6.600000e-07	-2.541300e-06	-6.900013e-09	-1.770665e+01	-4.548133e+02
6.700000e-07	-2.392095e-06	-6.715333e-09	-1.666706e+01	-4.426913e+02
6.800000e-07	-2.242104e-06	-6.526899e-09	-1.562199e+01	-4.301816e+02
6.900000e-07	-2.091363e-06	-6.330090e-09	-1.457169e+01	-4.172701e+02
7.000000e-07	-1.939842e-06	-6.126469e-09	-1.351596e+01	-4.039520e+02
7.100000e-07	-1.787564e-06	-5.918910e-09	-1.245496e+01	-3.902292e+02
7.200000e-07	-1.634662e-06	-5.703921e-09	-1.138960e+01	-3.761057e+02
7.300000e-07	-1.481239e-06	-5.482678e-09	-1.032062e+01	-3.615810e+02
7.400000e-07	-1.327339e-06	-5.251561e-09	-9.248314e+00	-3.466440e+02
7.500000e-07	-1.173022e-06	-5.012768e-09	-8.173100e+00	-3.312696e+02
7.600000e-07	-1.018292e-06	-4.770326e-09	-7.095007e+00	-3.154185e+02
7.700000e-07	-8.631823e-07	-4.522273e-09	-6.014272e+00	-2.990422e+02
7.800000e-07	-7.078194e-07	-4.262238e-09	-4.931772e+00	-2.820885e+02
7.900000e-07	-5.522680e-07	-3.993914e-09	-3.847959e+00	-2.645099e+02
8.000000e-07	-3.965461e-07	-3.718864e-09	-2.762958e+00	-2.462677e+02
8.100000e-07	-2.406773e-07	-3.434223e-09	-1.676933e+00	-2.273345e+02
8.200000e-07	-8.464722e-08	-3.136011e-09	-5.897844e-01	-2.076893e+02
8.300000e-07	7.147524e-08	-2.824753e-09	4.980078e-01	-1.873106e+02
8.400000e-07	2.275860e-07	-2.501681e-09	1.585719e+00	-1.661658e+02
8.500000e-07	3.835964e-07	-2.162403e-09	2.672730e+00	-1.442027e+02
8.600000e-07	5.394588e-07	-1.812346e-09	3.758710e+00	-1.213465e+02
8.700000e-07	6.952108e-07	-1.450525e-09	4.843921e+00	-9.750325e+01
8.800000e-07	8.507924e-07	-1.072737e-09	5.927945e+00	-7.257335e+01
8.900000e-07	1.006139e-06	-6.755640e-10	7.010330e+00	-4.647239e+01
9.000000e-07	1.161160e-06	-2.625686e-10	8.090451e+00	-1.915636e+01
9.100000e-07	1.315786e-06	1.683287e-10	9.167813e+00	9.353530e+00
9.200000e-07	1.469934e-06	6.193782e-10	1.024185e+01	3.895201e+01
9.300000e-07	1.623541e-06	1.084404e-09	1.131212e+01	6.944173e+01
9.400000e-07	1.776640e-06	1.560327e-09	1.237884e+01	1.005388e+02
9.500000e-07	1.929114e-06	2.038189e-09	1.344121e+01	1.318922e+02
9.600000e-07	2.080820e-06	2.515160e-09	1.449824e+01	1.631145e+02
9.700000e-07	2.231716e-06	2.982557e-09	1.554961e+01	1.938184e+02
9.800000e-07	2.381739e-06	3.431719e-09	1.659491e+01	2.236538e+02
9.900000e-07	2.530771e-06	3.864045e-09	1.763329e+01	2.523386e+02
1.000000e-06	2.678795e-06	4.277857e-09	1.866466e+01	2.796779e+02
1.010000e-06	2.825882e-06	4.671213e-09	1.968949e+01	3.055702e+02
1.020000e-06	2.971939e-06	5.043858e-09	2.070716e+01	3.300001e+02
1.030000e-06	3.116911e-06	5.396008e-09	2.171726e+01	3.530202e+02
1.040000e-06	3.260765e-06	5.726420e-09	2.271957e+01	3.747274e+02
1.050000e-06	3.403336e-06	6.035489e-09	2.371294e+01	3.952381e+02
1.060000e-06	3.544499e-06	6.330432e-09	2.469650e+01	4.146671e+02
1.070000e-06	3.684280e-06	6.612734e-09	2.567043e+01	4.331135e+02
1.080000e-06	3.822735e-06	6.880036e-09	2.663513e+01	4.506549e+02
1.090000e-06	3.959785e-06	7.132048e-09	2.759003e+01	4.673484e+02
1.100000e-06	4.095333e-06	7.372300e-09	2.853447e+01	4.832369e+02
1.110000e-06	4.229422e-06	7.600889e-09	2.946874e+01	4.983566e+02
1.120000e-06	4.362014e-06	7.817863e-09	3.039259e+01	5.127445e+02
1.130000e-06	4.493035e-06	8.024898e-09	3.130548e+01	5.264422e+02
1.140000e-06	4.622514e-06	8.223764e-09	3.220763e+01	5.394963e+02
1.150000e-06	4.750311e-06	8.412160e-09	3.309806e+01	5.519556e+02
1.160000e-06	4.876446e-06	8.591100e-09	3.397692e+01	5.638671e+02
1.170000e-06	5.000925e-06	8.763031e-09	3.484423e+01	5.752711e+02
1.180000e-06	5.123671e-06	8.928126e-09	3.569947e+01	5.861990e+02
1.190000e-06	5.244713e-06	9.088049e-09	3.654284e+01	5.966724e+02
1.200000e-06	5.363836e-06	9.242556e-09	3.737284e+01	6.067052e+02
1.210000e-06	5.480827e-06	9.390468e-09	3.818798e+01	6.163067e+02
1.220000e-06	5.595703e-06	9.529728e-09	3.898839e+01	6.254853e+02
1.230000e-06	5.708454e-06	9.663093e-09	3.977398e+01	6.342513e+02
1.240000e-06	5.819108e-06	9.791480e-09	4.054497e+01	6.426180e+02
1.250000e-06	5.927654e-06	9.913514e-09	4.130127e+01	6.506015e+02
1.260000e-06	6.034075e-06	1.002876e-08	4.204277e+01	6.582189e+02
1.270000e-06	6.138302e-06	1.013869e-08	4.276897e+01	6.654863e+02
1.280000e-06	6.240248e-06	1.024317e-08	4.347929e+01	6.724180e+02
1.290000e-06	6.339910e-06	1.034308e-08	4.417369e+01	6.790258e+02
1.300000e-06	6.437151e-06	1.043871e-08	4.485122e+01	6.853206e+02
1.310000e-06	6.531984e-06	1.052987e-08	4.551198e+01	6.913144e+02
1.320000e-06	6.624495e-06	1.061601e-08	4.615655e+01	6.970223e+02
1.330000e-06	6.714713e-06	1.069739e-08	4.678515e+01	7.024640e+02
1.340000e-06	6.802516e-06	1.077575e-08	4.739693e+01	7.076630e+02
1.350000e-06	6.887917e-06	1.085053e-08	4.799196e+01	7.126450e+02
1.360000e-06	6.970913e-06	1.092289e-08	4.857024e+01	7.174339e+02
1.370000e-06	7.051336e-06	1.099349e-08	4.913059e+01	7.220483e+02
1.380000e-06	7.129174e-06	1.106207e-08	4.967293e+01	7.264983e+02
1.390000e-06	7.204394e-06	1.112734e-08	5.019703e+01	7.307842e+02
1.400000e-06	7.276886e-06	1.118881e-08	5.070212e+01	7.348975e+02
1.410000e-06	7.346764e-06	1.124735e-08	5.118901e+01	7.388238e+02
1.420000e-06	7.414165e-06	1.130115e-08	5.165863e+01	7.425474e+02
1.430000e-06	7.478887e-06	1.135160e-08	5.210958e+01	7.460558e+02
1.440000e-06	7.540967e-06	1.139951e-08	5.254212e+01	7.493433e+02
1.450000e-06	7.600522e-06	1.144585e-08	5.295708e+01	7.524123e+02
1.460000e-06	7.657389e-06	1.148849e-08	5.335330e+01	7.552726e+02
1.470000e-06	7.711437e-06	1.152889e-08	5.372989e+01	7.579379e+02
1.480000e-06	7.762441e-06	1.156945e-08	5.408526e+01	7.604224e+02
1.490000e-06	7.810340e-06	1.160626e-08	5.441899e+01	7.627362e+02
1.500000e-06	7.855412e-06	1.163739e-08	5.473303e+01	7.648836e+02
1.510000e-06	7.897747e-06	1.166333e-08	5.502801e+01	7.668622e+02
1.520000e-06	7.937229e-06	1.168783e-08	5.530310e+01	7.686656e+02
1.530000e-06	7.973920e-06	1.171152e-08	5.555875e+01	7.702865e+02
1.540000e-06	8.007793e-06	1.173134e-08	5.579476e+01	7.717212e+02
1.550000e-06	8.038758e-06	1.174870e-08	5.601051e+01	7.729725e+02
1.560000e-06	8.066913e-06	1.176506e-08	5.620668e+01	7.740512e+02
1.570000e-06	8.092090e-06	1.178039e-08	5.638211e+01	7.749746e+02
1.580000e-06	8.114279e-06	1.179502e-08	5.653671e+01	7.757629e+02
1.590000e-06	8.133693e-06	1.180722e-08	5.667198e+01	7.764350e+02
1.600000e-06	8.150179e-06	1.181504e-08	5.678684e+01	7.770035e+02
1.610000e-06	8.163627e-06	1.182026e-08	5.688054e+01	7.774719e+02
1.620000e-06	8.173905e-06	1.182574e-08	5.695216e+01	7.778343e+02
1.630000e-06	8.181004e-06	1.183052e-08	5.700162e+01	7.780772e+02
1.640000e-06	8.185288e-06	1.183256e-08	5.703146e+01	7.781839e+02
1.650000e-06	8.186728e-06	1.183355e-08	5.704150e+01	7.781398e+02
1.660000e-06	8.185294e-06	1.182814e-08	5.703151e+01	7.779367e+02
1.670000e-06	8.181189e-06	1.181965e-08	5.700291e+01	7.775759e+02
1.680000e-06	8.174296e-06	1.181692e-08	5.695488e+01	7.770675e+02
1.690000e-06	8.164622e-06	1.180995e-08	5.688748e+01	7.764282e+02
1.700000e-06	8.152108e-06	1.179911e-08	5.680029e+01	7.756769e+02
1.710000e-06	8.136782e-06	1.179275e-08	5.669350e+01	7.748298e+02
1.720000e-06	8.118968e-06	1.179402e-08	5.656938e+01	7.738967e+02
1.730000e-06	8.098771e-06	1.178305e-08	5.642866e+01	7.728799e+02
1.740000e-06	8.075821e-06	1.166010e-08	5.626875e+01	7.717751e+02
1.750000e-06	8.049400e-06	1.166259e-08	5.608466e+01	7.705748e+02
1.760000e-06	8.019158e-06	1.170596e-08	5.587395e+01	7.692732e+02
1.770000e-06	7.985710e-06	1.166490e-08	5.564089e+01	7.678692e+02
1.780000e-06	7.949906e-06	1.164779e-08	5.539143e+01	7.663692e+02
1.790000e-06	7.911709e-06	1.171901e-08	5.512529e+01	7.647853e+02
1.800000e-06	7.871293e-06	1.164348e-08	5.484369e+01	7.631322e+02
1.810000e-06	7.828903e-06	1.149912e-08	5.454834e+01	7.614211e+02
1.820000e-06	7.783871e-06	1.165708e-08	5.423457e+01	7.596540e+02
1.830000e-06	7.736002e-06	1.151913e-08	5.390104e+01	7.578196e+02
1.840000e-06	7.685227e-06	1.151831e-08	5.354726e+01	7.558926e+02
1.850000e-06	7.631197e-06	1.154373e-08	5.317080e+01	7.538363e+02
1.860000e-06	7.574396e-06	1.140992e-08	5.277504e+01	7.516093e+02
1.870000e-06	7.514955e-06	1.148222e-08	5.236089e+01	7.491734e+02
1.880000e-06	7.452741e-06	1.131907e-08	5.192741e+01	7.465026e+02
1.890000e-06	7.387762e-06	1.136440e-08	5.147466e+01	7.435884e+02
1.900000e-06	7.319847e-06	1.133473e-08	5.100146e+01	7.404420e+02
1.910000e-06	7.249049e-06	1.120251e-08	5.050817e+01	7.370915e+02
1.920000e-06	7.175365e-06	1.121650e-08	4.999477e+01	7.335748e+02
1.930000e-06	7.098951e-06	1.111434e-08	4.946235e+01	7.299303e+02
1.940000e-06	7.019771e-06	1.112988e-08	4.891066e+01	7.261876e+02
1.950000e-06	6.937970e-06	1.099665e-08	4.834071e+01	7.223604e+02
1.960000e-06	6.853735e-06	1.096455e-08	4.775379e+01	7.184440e+02
1.970000e-06	6.766792e-06	1.093038e-08	4.714801e+01	7.144168e+02
1.980000e-06	6.677320e-06	1.080312e-08	4.652461e+01	7.102473e+02
1.990000e-06	6.585555e-06	1.077789e-08	4.588523e+01	7.059023e+02
2.000000e-06	6.491482e-06	1.069650e-08	4.522977e+01	7.013560e+02
2.010000e-06	6.395071e-06	1.066404e-08	4.455803e+01	6.965964e+02
2.020000e-06	6.296413e-06	1.053119e-08	4.387062e+01	6.916277e+02
2.030000e-06	6.195465e-06	1.047266e-08	4.316726e+01	6.864683e+02
2.040000e-06	6.092180e-06	1.040345e-08	4.244762e+01	6.811440e+02
2.050000e-06	5.986783e-06	1.032190e-08	4.171325e+01	6.756808e+02
2.060000e-06	5.879357e-06	1.023459e-08	4.096476e+01	6.700961e+02
2.070000e-06	5.769936e-06	1.013485e-08	4.020236e+01	6.643936e+02
2.080000e-06	5.658443e-06	1.006757e-08	3.942553e+01	6.585615e+02
2.090000e-06	5.544862e-06	9.956302e-09	3.863415e+01	6.525749e+02
2.100000e-06	5.429108e-06	9.874981e-09	3.782762e+01	6.464022e+02
2.110000e-06	5.311224e-06	9.773984e-09	3.700626e+01	6.400121e+02
2.120000e-06	5.191339e-06	9.681304e-09	3.617096e+01	6.333812e+02
2.130000e-06	5.069595e-06	9.554087e-09	3.532270e+01	6.264976e+02
2.140000e-06	4.946143e-06	9.452411e-09	3.446253e+01	6.193624e+02
2.150000e-06	4.820901e-06	9.352222e-09	3.358991e+01	6.119864e+02
2.160000e-06	4.693884e-06	9.247863e-09	3.270491e+01	6.043851e+02
2.170000e-06	4.565118e-06	9.125249e-09	3.180773e+01	5.965716e+02
2.180000e-06	4.434720e-06	8.993718e-09	3.089917e+01	5.885519e+02
2.190000e-06	4.302709e-06	8.870010e-09	2.997937e+01	5.803220e+02
2.200000e-06	4.169124e-06	8.736805e-09	2.904861e+01	5.718681e+02
2.210000e-06	4.034041e-06	8.608386e-09	2.810741e+01	5.631703e+02
2.220000e-06	3.897340e-06	8.472418e-09	2.715494e+01	5.542077e+02
2.230000e-06	3.758954e-06	8.338133e-09	2.619073e+01	5.449631e+02
2.240000e-06	3.619152e-06	8.189189e-09	2.521665e+01	5.354265e+02
2.250000e-06	3.477998e-06	8.042900e-09	2.423315e+01	5.255960e+02
2.260000e-06	3.335498e-06	7.891231e-09	2.324028e+01	5.154750e+02
2.270000e-06	3.191758e-06	7.736675e-09	2.223876e+01	5.050681e+02
2.280000e-06	3.046775e-06	7.569605e-09	2.122858e+01	4.943764e+02
2.290000e-06	2.900677e-06	7.399011e-09	2.021063e+01	4.833933e+02
2.300000e-06	2.753553e-06	7.229988e-09	1.918554e+01	4.721032e+02
2.310000e-06	2.605491e-06	7.057526e-09	1.815391e+01	4.604835e+02
2.320000e-06	2.456574e-06	6.877787e-09	1.711632e+01	4.485080e+02
2.330000e-06	2.306784e-06	6.687714e-09	1.607265e+01	4.361527e+02
2.340000e-06	2.156189e-06	6.490415e-09	1.502337e+01	4.234000e+02
2.350000e-06	2.004963e-06	6.288883e-09	1.396969e+01	4.102415e+02
2.360000e-06	1.853073e-06	6.084623e-09	1.291139e+01	3.966770e+02
2.370000e-06	1.700515e-06	5.874475e-09	1.184843e+01	3.827104e+02
2.380000e-06	1.547373e-06	5.655645e-09	1.078141e+01	3.683438e+02
2.390000e-06	1.393686e-06	5.430133e-09	9.710585e+00	3.535709e+02
2.400000e-06	1.239517e-06	5.197802e-09	8.636409e+00	3.383720e+02
2.410000e-06	1.084935e-06	4.957571e-09	7.559348e+00	3.227135e+02
2.420000e-06	9.300219e-07	4.711462e-09	6.479981e+00	3.065495e+02
2.430000e-06	7.748162e-07	4.456999e-09	5.398577e+00	2.898286e+02
2.440000e-06	6.193177e-07	4.193076e-09	4.315132e+00	2.725005e+02
2.450000e-06	4.635628e-07	3.918672e-09	3.229900e+00	2.545227e+02
2.460000e-06	3.076154e-07	3.635628e-09	2.143328e+00	2.358635e+02
2.470000e-06	1.514882e-07	3.341699e-09	1.055503e+00	2.165002e+02
2.480000e-06	-4.749027e-09	3.033891e-09	-3.308912e-02	1.964126e+02
2.490000e-06	-1.609638e-07	2.713411e-09	-1.121524e+00	1.755735e+02
2.500000e-06	-3.171182e-07	2.381165e-09	-2.209540e+00	1.539394e+02
2.510000e-06	-4.731553e-07	2.036373e-09	-3.296737e+00	1.314443e+02
2.520000e-06	-6.290374e-07	1.677528e-09	-4.382855e+00	1.080006e+02
2.530000e-06	-7.847774e-07	1.304674e-09	-5.467982e+00	8.350888e+01
2.540000e-06	-9.402346e-07	9.148722e-10	-6.551139e+00	5.787589e+01
2.550000e-06	-1.095318e-06	5.061260e-10	-7.631692e+00	3.103864e+01
2.560000e-06	-1.250026e-06	7.824633e-11	-8.709626e+00	2.990018e+00
2.570000e-06	-1.404270e-06	-3.680499e-10	-9.784334e+00	-2.619937e+01
2.580000e-06	-1.558004e-06	-8.298189e-10	-1.085548e+01	-5.636847e+01
2.590000e-06	-1.711116e-06	-1.304119e-09	-1.192230e+01	-8.726582e+01
2.600000e-06	-1.863491e-06	-1.784848e-09	-1.298398e+01	-1.185637e+02
2.610000e-06	-2.015115e-06	-2.266291e-09	-1.404043e+01	-1.498847e+02
2.620000e-06	-2.166027e-06	-2.741231e-09	-1.509192e+01	-1.808369e+02
2.630000e-06	-2.316196e-06	-3.202607e-09	-1.613823e+01	-2.110517e+02
2.640000e-06	-2.465540e-06	-3.647121e-09	-1.717879e+01	-2.402171e+02
2.650000e-06	-2.614029e-06	-4.071793e-09	-1.821340e+01	-2.681024e+02
2.660000e-06	-2.761501e-06	-4.476295e-09	-1.924092e+01	-2.945696e+02
2.670000e-06	-2.907891e-06	-4.860259e-09	-2.026090e+01	-3.195711e+02
2.680000e-06	-3.053163e-06	-5.223717e-09	-2.127309e+01	-3.431356e+02
2.690000e-06	-3.197206e-06	-5.565696e-09	-2.227672e+01	-3.653454e+02
2.700000e-06	-3.340081e-06	-5.886134e-09	-2.327221e+01	-3.863122e+02
2.710000e-06	-3.481722e-06	-6.190297e-09	-2.425910e+01	-4.061533e+02
2.720000e-06	-3.622017e-06	-6.479761e-09	-2.523661e+01	-4.249754e+02
2.730000e-06	-3.760939e-06	-6.755013e-09	-2.620456e+01	-4.428647e+02
2.740000e-06	-3.898383e-06	-7.013795e-09	-2.716221e+01	-4.598857e+02
2.750000e-06	-4.034330e-06	-7.257156e-09	-2.810943e+01	-4.760861e+02
2.760000e-06	-4.168887e-06	-7.491636e-09	-2.904696e+01	-4.915037e+02
2.770000e-06	-4.302036e-06	-7.718314e-09	-2.997468e+01	-5.061746e+02
2.780000e-06	-4.433620e-06	-7.935384e-09	-3.089151e+01	-5.201383e+02
2.790000e-06	-4.563701e-06	-8.142505e-09	-3.179785e+01	-5.334396e+02
2.800000e-06	-4.692200e-06	-8.339524e-09	-3.269317e+01	-5.461270e+02
2.810000e-06	-4.819050e-06	-8.526520e-09	-3.357701e+01	-5.582486e+02
2.820000e-06	-4.944291e-06	-8.705430e-09	-3.444963e+01	-5.698478e+02
2.830000e-06	-5.067724e-06	-8.875456e-09	-3.530966e+01	-5.809598e+02
2.840000e-06	-5.189264e-06	-9.037176e-09	-3.615650e+01	-5.916099e+02
2.850000e-06	-5.309005e-06	-9.191461e-09	-3.699080e+01	-6.018147e+02
2.860000e-06	-5.426772e-06	-9.338017e-09	-3.781135e+01	-6.115848e+02
2.870000e-06	-5.542268e-06	-9.478872e-09	-3.861607e+01	-6.209286e+02
2.880000e-06	-5.655569e-06	-9.615235e-09	-3.940550e+01	-6.298555e+02
2.890000e-06	-5.766710e-06	-9.746839e-09	-4.017989e+01	-6.383774e+02
2.900000e-06	-5.875631e-06	-9.872579e-09	-4.093880e+01	-6.465096e+02
2.910000e-06	-5.982464e-06	-9.991261e-09	-4.168316e+01	-6.542689e+02
2.920000e-06	-6.087242e-06	-1.010502e-08	-4.241321e+01	-6.616722e+02
2.930000e-06	-6.189804e-06	-1.021443e-08	-4.312782e+01	-6.687344e+02
2.940000e-06	-6.290044e-06	-1.031855e-08	-4.382624e+01	-6.754683e+02
