# Temperatura_=_36.33
# Concentracion g/m^3_=_15000.0
# C_Vs_to_Am_M_A/Vsm_=_65563218390.804596
# pendiente_HvsI_1/m_=_3716.3
# ordenada_HvsI_A/m_=_1297.0
# frecuencia_Hz_=_302340.2579958959

Tiempo_(s)	Campo_(V.s)	Magnetizacion_(V.s)	Campo_(kA/m)	Magnetizacion_(A/m)
0.000000e+00	-8.195542e-06	-1.065004e-08	-5.691926e+01	-6.961309e+02
1.000000e-08	-8.193272e-06	-1.064960e-08	-5.690349e+01	-6.959880e+02
2.000000e-08	-8.188245e-06	-1.064612e-08	-5.686858e+01	-6.957388e+02
3.000000e-08	-8.180579e-06	-1.064110e-08	-5.681534e+01	-6.953843e+02
4.000000e-08	-8.170032e-06	-1.063441e-08	-5.674208e+01	-6.949282e+02
5.000000e-08	-8.156528e-06	-1.062547e-08	-5.664830e+01	-6.943769e+02
6.000000e-08	-8.140156e-06	-1.061417e-08	-5.653459e+01	-6.937369e+02
7.000000e-08	-8.121222e-06	-1.060031e-08	-5.640309e+01	-6.930142e+02
8.000000e-08	-8.099945e-06	-1.058603e-08	-5.625532e+01	-6.922130e+02
9.000000e-08	-8.075897e-06	-1.060393e-08	-5.608830e+01	-6.913359e+02
1.000000e-07	-8.048588e-06	-1.060058e-08	-5.589863e+01	-6.903847e+02
1.100000e-07	-8.018113e-06	-1.055684e-08	-5.568698e+01	-6.893615e+02
1.200000e-07	-7.984671e-06	-1.052754e-08	-5.545473e+01	-6.882696e+02
1.300000e-07	-7.948390e-06	-1.050627e-08	-5.520274e+01	-6.871139e+02
1.400000e-07	-7.909588e-06	-1.047990e-08	-5.493326e+01	-6.859000e+02
1.500000e-07	-7.868397e-06	-1.043988e-08	-5.464718e+01	-6.846318e+02
1.600000e-07	-7.824806e-06	-1.044244e-08	-5.434444e+01	-6.833092e+02
1.700000e-07	-7.778577e-06	-1.042289e-08	-5.402337e+01	-6.819255e+02
1.800000e-07	-7.729406e-06	-1.035148e-08	-5.368187e+01	-6.804663e+02
1.900000e-07	-7.677244e-06	-1.037513e-08	-5.331960e+01	-6.789100e+02
2.000000e-07	-7.622203e-06	-1.035218e-08	-5.293733e+01	-6.772303e+02
2.100000e-07	-7.564364e-06	-1.029434e-08	-5.253563e+01	-6.754008e+02
2.200000e-07	-7.503802e-06	-1.027538e-08	-5.211502e+01	-6.734001e+02
2.300000e-07	-7.440574e-06	-1.023977e-08	-5.167589e+01	-6.712163e+02
2.400000e-07	-7.374588e-06	-1.021633e-08	-5.121761e+01	-6.688502e+02
2.500000e-07	-7.305777e-06	-1.015227e-08	-5.073970e+01	-6.663156e+02
2.600000e-07	-7.234132e-06	-1.012261e-08	-5.024212e+01	-6.636362e+02
2.700000e-07	-7.159573e-06	-1.007921e-08	-4.972429e+01	-6.608402e+02
2.800000e-07	-7.082143e-06	-1.001459e-08	-4.918653e+01	-6.579539e+02
2.900000e-07	-7.001979e-06	-9.970721e-09	-4.862978e+01	-6.549952e+02
3.000000e-07	-6.919228e-06	-9.943853e-09	-4.805506e+01	-6.519688e+02
3.100000e-07	-6.834083e-06	-9.915410e-09	-4.746372e+01	-6.488648e+02
3.200000e-07	-6.746566e-06	-9.842459e-09	-4.685590e+01	-6.456614e+02
3.300000e-07	-6.656599e-06	-9.792082e-09	-4.623106e+01	-6.423294e+02
3.400000e-07	-6.564200e-06	-9.743902e-09	-4.558934e+01	-6.388397e+02
3.500000e-07	-6.469397e-06	-9.681878e-09	-4.493092e+01	-6.351701e+02
3.600000e-07	-6.372188e-06	-9.616816e-09	-4.425579e+01	-6.313105e+02
3.700000e-07	-6.272697e-06	-9.555758e-09	-4.356481e+01	-6.272649e+02
3.800000e-07	-6.171015e-06	-9.496567e-09	-4.285861e+01	-6.230496e+02
3.900000e-07	-6.067111e-06	-9.421881e-09	-4.213699e+01	-6.186881e+02
4.000000e-07	-5.960945e-06	-9.354151e-09	-4.139965e+01	-6.142045e+02
4.100000e-07	-5.852663e-06	-9.288366e-09	-4.064761e+01	-6.096160e+02
4.200000e-07	-5.742372e-06	-9.218695e-09	-3.988163e+01	-6.049281e+02
4.300000e-07	-5.630011e-06	-9.137357e-09	-3.910126e+01	-6.001323e+02
4.400000e-07	-5.515463e-06	-9.061671e-09	-3.830571e+01	-5.952074e+02
4.500000e-07	-5.398733e-06	-8.990717e-09	-3.749500e+01	-5.901242e+02
4.600000e-07	-5.280028e-06	-8.913595e-09	-3.667058e+01	-5.848520e+02
4.700000e-07	-5.159477e-06	-8.825962e-09	-3.583334e+01	-5.793649e+02
4.800000e-07	-5.037088e-06	-8.734118e-09	-3.498333e+01	-5.736468e+02
4.900000e-07	-4.912909e-06	-8.642997e-09	-3.412088e+01	-5.676932e+02
5.000000e-07	-4.786930e-06	-8.548513e-09	-3.324594e+01	-5.615101e+02
5.100000e-07	-4.659251e-06	-8.450301e-09	-3.235919e+01	-5.551096e+02
5.200000e-07	-4.529898e-06	-8.347167e-09	-3.146081e+01	-5.485047e+02
5.300000e-07	-4.398789e-06	-8.243597e-09	-3.055024e+01	-5.417038e+02
5.400000e-07	-4.266037e-06	-8.134019e-09	-2.962826e+01	-5.347070e+02
5.500000e-07	-4.131725e-06	-8.021009e-09	-2.869544e+01	-5.275049e+02
5.600000e-07	-3.995874e-06	-7.906182e-09	-2.775194e+01	-5.200803e+02
5.700000e-07	-3.858440e-06	-7.791622e-09	-2.679744e+01	-5.124123e+02
5.800000e-07	-3.719416e-06	-7.671180e-09	-2.583190e+01	-5.044804e+02
5.900000e-07	-3.578840e-06	-7.546579e-09	-2.485557e+01	-4.962694e+02
6.000000e-07	-3.436738e-06	-7.419541e-09	-2.386866e+01	-4.877707e+02
6.100000e-07	-3.293262e-06	-7.284957e-09	-2.287219e+01	-4.789828e+02
6.200000e-07	-3.148586e-06	-7.142332e-09	-2.186739e+01	-4.699083e+02
6.300000e-07	-3.002799e-06	-6.993674e-09	-2.085489e+01	-4.605501e+02
6.400000e-07	-2.855897e-06	-6.843949e-09	-1.983463e+01	-4.509070e+02
6.500000e-07	-2.708005e-06	-6.691087e-09	-1.880749e+01	-4.409709e+02
6.600000e-07	-2.559320e-06	-6.534754e-09	-1.777486e+01	-4.307259e+02
6.700000e-07	-2.409775e-06	-6.374383e-09	-1.673624e+01	-4.201495e+02
6.800000e-07	-2.259324e-06	-6.209564e-09	-1.569134e+01	-4.092163e+02
6.900000e-07	-2.108047e-06	-6.037219e-09	-1.464070e+01	-3.979020e+02
7.000000e-07	-1.956043e-06	-5.857622e-09	-1.358501e+01	-3.861866e+02
7.100000e-07	-1.803397e-06	-5.673450e-09	-1.252486e+01	-3.740569e+02
7.200000e-07	-1.650142e-06	-5.483028e-09	-1.146048e+01	-3.615054e+02
7.300000e-07	-1.496281e-06	-5.286249e-09	-1.039189e+01	-3.485277e+02
7.400000e-07	-1.341859e-06	-5.081670e-09	-9.319410e+00	-3.351189e+02
7.500000e-07	-1.186945e-06	-4.869154e-09	-8.243509e+00	-3.212689e+02
7.600000e-07	-1.031611e-06	-4.649517e-09	-7.164689e+00	-3.069599e+02
7.700000e-07	-8.759774e-07	-4.422181e-09	-6.083793e+00	-2.921663e+02
7.800000e-07	-7.201263e-07	-4.187349e-09	-5.001384e+00	-2.768559e+02
7.900000e-07	-5.640520e-07	-3.948488e-09	-3.917425e+00	-2.609937e+02
8.000000e-07	-4.077874e-07	-3.702227e-09	-2.832144e+00	-2.445460e+02
8.100000e-07	-2.514259e-07	-3.444374e-09	-1.746190e+00	-2.274827e+02
8.200000e-07	-9.496483e-08	-3.172806e-09	-6.595448e-01	-2.097775e+02
8.300000e-07	6.158992e-08	-2.891373e-09	4.277511e-01	-1.914054e+02
8.400000e-07	2.181643e-07	-2.600617e-09	1.515183e+00	-1.723373e+02
8.500000e-07	3.746718e-07	-2.295853e-09	2.602151e+00	-1.525343e+02
8.600000e-07	5.310663e-07	-1.979386e-09	3.688334e+00	-1.319433e+02
8.700000e-07	6.873351e-07	-1.652025e-09	4.773644e+00	-1.104974e+02
8.800000e-07	8.434012e-07	-1.312233e-09	5.857547e+00	-8.812122e+01
8.900000e-07	9.992593e-07	-9.557578e-10	6.940004e+00	-6.474326e+01
9.000000e-07	1.154903e-06	-5.843336e-10	8.020970e+00	-4.031302e+01
9.100000e-07	1.310153e-06	-1.962102e-10	9.099210e+00	-1.482068e+01
9.200000e-07	1.464905e-06	2.098966e-10	1.017399e+01	1.168473e+01
9.300000e-07	1.619137e-06	6.271158e-10	1.124514e+01	3.908277e+01
9.400000e-07	1.772721e-06	1.052694e-09	1.231181e+01	6.717795e+01
9.500000e-07	1.925629e-06	1.484796e-09	1.337378e+01	9.570704e+01
9.600000e-07	2.077868e-06	1.918839e-09	1.443110e+01	1.243571e+02
9.700000e-07	2.229308e-06	2.348970e-09	1.548287e+01	1.527918e+02
9.800000e-07	2.379831e-06	2.772084e-09	1.652828e+01	1.806820e+02
9.900000e-07	2.529372e-06	3.184508e-09	1.756686e+01	2.077356e+02
1.000000e-06	2.677896e-06	3.580693e-09	1.859838e+01	2.337214e+02
1.010000e-06	2.825470e-06	3.956358e-09	1.962331e+01	2.584839e+02
1.020000e-06	2.972031e-06	4.312251e-09	2.064120e+01	2.819464e+02
1.030000e-06	3.117493e-06	4.651693e-09	2.165145e+01	3.041035e+02
1.040000e-06	3.261822e-06	4.971348e-09	2.265384e+01	3.250054e+02
1.050000e-06	3.404878e-06	5.270988e-09	2.364738e+01	3.447364e+02
1.060000e-06	3.546623e-06	5.553868e-09	2.463182e+01	3.633951e+02
1.070000e-06	3.687026e-06	5.822454e-09	2.560694e+01	3.810762e+02
1.080000e-06	3.826050e-06	6.076568e-09	2.657248e+01	3.978596e+02
1.090000e-06	3.963666e-06	6.316672e-09	2.752824e+01	4.138063e+02
1.100000e-06	4.099781e-06	6.546382e-09	2.847359e+01	4.289601e+02
1.110000e-06	4.234362e-06	6.764469e-09	2.940827e+01	4.433542e+02
1.120000e-06	4.367385e-06	6.970791e-09	3.033214e+01	4.570184e+02
1.130000e-06	4.498857e-06	7.168052e-09	3.124523e+01	4.699858e+02
1.140000e-06	4.628814e-06	7.356767e-09	3.214780e+01	4.822961e+02
1.150000e-06	4.757177e-06	7.534208e-09	3.303930e+01	4.939954e+02
1.160000e-06	4.883862e-06	7.701130e-09	3.391914e+01	5.051330e+02
1.170000e-06	5.008845e-06	7.860059e-09	3.478717e+01	5.157563e+02
1.180000e-06	5.132108e-06	8.012780e-09	3.564325e+01	5.259053e+02
1.190000e-06	5.253570e-06	8.161907e-09	3.648682e+01	5.356093e+02
1.200000e-06	5.373096e-06	8.307107e-09	3.731695e+01	5.448857e+02
1.210000e-06	5.490658e-06	8.443980e-09	3.813344e+01	5.537418e+02
1.220000e-06	5.606150e-06	8.571291e-09	3.893554e+01	5.621787e+02
1.230000e-06	5.719413e-06	8.691145e-09	3.972217e+01	5.701962e+02
1.240000e-06	5.830512e-06	8.806881e-09	4.049377e+01	5.777976e+02
1.250000e-06	5.939534e-06	8.915975e-09	4.125094e+01	5.849931e+02
1.260000e-06	6.046440e-06	9.016196e-09	4.199342e+01	5.918006e+02
1.270000e-06	6.151168e-06	9.112116e-09	4.272078e+01	5.982453e+02
1.280000e-06	6.253616e-06	9.204599e-09	4.343229e+01	6.043566e+02
1.290000e-06	6.353746e-06	9.293222e-09	4.412771e+01	6.101660e+02
1.300000e-06	6.451500e-06	9.378275e-09	4.480663e+01	6.157030e+02
1.310000e-06	6.546818e-06	9.459393e-09	4.546862e+01	6.209940e+02
1.320000e-06	6.639838e-06	9.536886e-09	4.611466e+01	6.260609e+02
1.330000e-06	6.730497e-06	9.608230e-09	4.674430e+01	6.309214e+02
1.340000e-06	6.818685e-06	9.675812e-09	4.735678e+01	6.355896e+02
1.350000e-06	6.904472e-06	9.744390e-09	4.795258e+01	6.400769e+02
1.360000e-06	6.987869e-06	9.811505e-09	4.853178e+01	6.443920e+02
1.370000e-06	7.068791e-06	9.875388e-09	4.909380e+01	6.485411e+02
1.380000e-06	7.147128e-06	9.934375e-09	4.963786e+01	6.525272e+02
1.390000e-06	7.222780e-06	9.990385e-09	5.016328e+01	6.563491e+02
1.400000e-06	7.295674e-06	1.004483e-08	5.066954e+01	6.600020e+02
1.410000e-06	7.365935e-06	1.009689e-08	5.115751e+01	6.634775e+02
1.420000e-06	7.433678e-06	1.014601e-08	5.162800e+01	6.667653e+02
1.430000e-06	7.498775e-06	1.019150e-08	5.208011e+01	6.698557e+02
1.440000e-06	7.561181e-06	1.023333e-08	5.251352e+01	6.727416e+02
1.450000e-06	7.621043e-06	1.027331e-08	5.292928e+01	6.754205e+02
1.460000e-06	7.678291e-06	1.031076e-08	5.332687e+01	6.778958e+02
1.470000e-06	7.732751e-06	1.034493e-08	5.370510e+01	6.801758e+02
1.480000e-06	7.784197e-06	1.037623e-08	5.406240e+01	6.822730e+02
1.490000e-06	7.832454e-06	1.040496e-08	5.439755e+01	6.842008e+02
1.500000e-06	7.877819e-06	1.043075e-08	5.471262e+01	6.859721e+02
1.510000e-06	7.920439e-06	1.045431e-08	5.500862e+01	6.875965e+02
1.520000e-06	7.960171e-06	1.047558e-08	5.528457e+01	6.890799e+02
1.530000e-06	7.997073e-06	1.049541e-08	5.554086e+01	6.904245e+02
1.540000e-06	8.031178e-06	1.051262e-08	5.577772e+01	6.916307e+02
1.550000e-06	8.062414e-06	1.052658e-08	5.599466e+01	6.926986e+02
1.560000e-06	8.090840e-06	1.053950e-08	5.619209e+01	6.936303e+02
1.570000e-06	8.116349e-06	1.055237e-08	5.636925e+01	6.944309e+02
1.580000e-06	8.138874e-06	1.056602e-08	5.652569e+01	6.951083e+02
1.590000e-06	8.158588e-06	1.057662e-08	5.666260e+01	6.956727e+02
1.600000e-06	8.175379e-06	1.058304e-08	5.677922e+01	6.961342e+02
1.610000e-06	8.189101e-06	1.058698e-08	5.687452e+01	6.965014e+02
1.620000e-06	8.199669e-06	1.059084e-08	5.694792e+01	6.967791e+02
1.630000e-06	8.207081e-06	1.059420e-08	5.699939e+01	6.969680e+02
1.640000e-06	8.211573e-06	1.059616e-08	5.703060e+01	6.970652e+02
1.650000e-06	8.213144e-06	1.059785e-08	5.704150e+01	6.970656e+02
1.660000e-06	8.211842e-06	1.059614e-08	5.703246e+01	6.969639e+02
1.670000e-06	8.207878e-06	1.059074e-08	5.700493e+01	6.967565e+02
1.680000e-06	8.201118e-06	1.058723e-08	5.695798e+01	6.964430e+02
1.690000e-06	8.191589e-06	1.058237e-08	5.689180e+01	6.960261e+02
1.700000e-06	8.179294e-06	1.057613e-08	5.680641e+01	6.955113e+02
1.710000e-06	8.164084e-06	1.056934e-08	5.670078e+01	6.949053e+02
1.720000e-06	8.146296e-06	1.056289e-08	5.657724e+01	6.942144e+02
1.730000e-06	8.126211e-06	1.054796e-08	5.643774e+01	6.934436e+02
1.740000e-06	8.103402e-06	1.049188e-08	5.627933e+01	6.925961e+02
1.750000e-06	8.077218e-06	1.048278e-08	5.609748e+01	6.916737e+02
1.760000e-06	8.047272e-06	1.049465e-08	5.588950e+01	6.906784e+02
1.770000e-06	8.013963e-06	1.047966e-08	5.565816e+01	6.896129e+02
1.780000e-06	7.978165e-06	1.047165e-08	5.540954e+01	6.884816e+02
1.790000e-06	7.940027e-06	1.049127e-08	5.514466e+01	6.872899e+02
1.800000e-06	7.899684e-06	1.045057e-08	5.486448e+01	6.860427e+02
1.810000e-06	7.857300e-06	1.038520e-08	5.457011e+01	6.847418e+02
1.820000e-06	7.812226e-06	1.044378e-08	5.425707e+01	6.833833e+02
1.830000e-06	7.764244e-06	1.039064e-08	5.392383e+01	6.819559e+02
1.840000e-06	7.713464e-06	1.037415e-08	5.357115e+01	6.804406e+02
1.850000e-06	7.659541e-06	1.036601e-08	5.319664e+01	6.788126e+02
1.860000e-06	7.602757e-06	1.029371e-08	5.280228e+01	6.770448e+02
1.870000e-06	7.543322e-06	1.030748e-08	5.238949e+01	6.751133e+02
1.880000e-06	7.481025e-06	1.023585e-08	5.195683e+01	6.730020e+02
1.890000e-06	7.415890e-06	1.024165e-08	5.150445e+01	6.707066e+02
1.900000e-06	7.347880e-06	1.021473e-08	5.103211e+01	6.682358e+02
1.910000e-06	7.276975e-06	1.013150e-08	5.053967e+01	6.656099e+02
1.920000e-06	7.203188e-06	1.011943e-08	5.002721e+01	6.628562e+02
1.930000e-06	7.126740e-06	1.006567e-08	4.949627e+01	6.600026e+02
1.940000e-06	7.047565e-06	1.004679e-08	4.894638e+01	6.570710e+02
1.950000e-06	6.965679e-06	9.972602e-09	4.837767e+01	6.540714e+02
1.960000e-06	6.881335e-06	9.928430e-09	4.779189e+01	6.509999e+02
1.970000e-06	6.794336e-06	9.893665e-09	4.718767e+01	6.478387e+02
1.980000e-06	6.704719e-06	9.819153e-09	4.656527e+01	6.445608e+02
1.990000e-06	6.612740e-06	9.786794e-09	4.592646e+01	6.411361e+02
2.000000e-06	6.518497e-06	9.731431e-09	4.527193e+01	6.375391e+02
2.010000e-06	6.421966e-06	9.684498e-09	4.460151e+01	6.337544e+02
2.020000e-06	6.323187e-06	9.600887e-09	4.391547e+01	6.297805e+02
2.030000e-06	6.222183e-06	9.545096e-09	4.321399e+01	6.256293e+02
2.040000e-06	6.118849e-06	9.491283e-09	4.249632e+01	6.213221e+02
2.050000e-06	6.013266e-06	9.425131e-09	4.176303e+01	6.168839e+02
2.060000e-06	5.905607e-06	9.355282e-09	4.101532e+01	6.123351e+02
2.070000e-06	5.796006e-06	9.278731e-09	4.025412e+01	6.076864e+02
2.080000e-06	5.684380e-06	9.214168e-09	3.947886e+01	6.029348e+02
2.090000e-06	5.570549e-06	9.130002e-09	3.868829e+01	5.980637e+02
2.100000e-06	5.454546e-06	9.056753e-09	3.788263e+01	5.930464e+02
2.110000e-06	5.336468e-06	8.977342e-09	3.706256e+01	5.878519e+02
2.120000e-06	5.216388e-06	8.897684e-09	3.622859e+01	5.824517e+02
2.130000e-06	5.094443e-06	8.803940e-09	3.538166e+01	5.768255e+02
2.140000e-06	4.970716e-06	8.718018e-09	3.452236e+01	5.709641e+02
2.150000e-06	4.845111e-06	8.633128e-09	3.365002e+01	5.648699e+02
2.160000e-06	4.717665e-06	8.541389e-09	3.276489e+01	5.585531e+02
2.170000e-06	4.588560e-06	8.439800e-09	3.186823e+01	5.520271e+02
2.180000e-06	4.457837e-06	8.334676e-09	3.096034e+01	5.453026e+02
2.190000e-06	4.325462e-06	8.233689e-09	3.004097e+01	5.383833e+02
2.200000e-06	4.191490e-06	8.126301e-09	2.911052e+01	5.312635e+02
2.210000e-06	4.055948e-06	8.016901e-09	2.816916e+01	5.239286e+02
2.220000e-06	3.918839e-06	7.899662e-09	2.721692e+01	5.163587e+02
2.230000e-06	3.780133e-06	7.778337e-09	2.625358e+01	5.085326e+02
2.240000e-06	3.639942e-06	7.649591e-09	2.527994e+01	5.004326e+02
2.250000e-06	3.498413e-06	7.523795e-09	2.429700e+01	4.920474e+02
2.260000e-06	3.355487e-06	7.396968e-09	2.330436e+01	4.833729e+02
2.270000e-06	3.211323e-06	7.265922e-09	2.230312e+01	4.744105e+02
2.280000e-06	3.066053e-06	7.126180e-09	2.129419e+01	4.651635e+02
2.290000e-06	2.919621e-06	6.979280e-09	2.027720e+01	4.556328e+02
2.300000e-06	2.772093e-06	6.830322e-09	1.925260e+01	4.458133e+02
2.310000e-06	2.623629e-06	6.678483e-09	1.822149e+01	4.356919e+02
2.320000e-06	2.474329e-06	6.520852e-09	1.718458e+01	4.252486e+02
2.330000e-06	2.324177e-06	6.355192e-09	1.614176e+01	4.144586e+02
2.340000e-06	2.173126e-06	6.182687e-09	1.509268e+01	4.032966e+02
2.350000e-06	2.021271e-06	6.005842e-09	1.403803e+01	3.917407e+02
2.360000e-06	1.868831e-06	5.824761e-09	1.297931e+01	3.797748e+02
2.370000e-06	1.715909e-06	5.636182e-09	1.191724e+01	3.673896e+02
2.380000e-06	1.562503e-06	5.438433e-09	1.085181e+01	3.545798e+02
2.390000e-06	1.408642e-06	5.236721e-09	9.783231e+00	3.413411e+02
2.400000e-06	1.254238e-06	5.030465e-09	8.710865e+00	3.276660e+02
2.410000e-06	1.099238e-06	4.815493e-09	7.634371e+00	3.135399e+02
2.420000e-06	9.437901e-07	4.592246e-09	6.554762e+00	2.989402e+02
2.430000e-06	7.880054e-07	4.360911e-09	5.472814e+00	2.838368e+02
2.440000e-06	6.319076e-07	4.120358e-09	4.388692e+00	2.681955e+02
2.450000e-06	4.755449e-07	3.870686e-09	3.302730e+00	2.519816e+02
2.460000e-06	3.190014e-07	3.615260e-09	2.215512e+00	2.351634e+02
2.470000e-06	1.623317e-07	3.351403e-09	1.127418e+00	2.177132e+02
2.480000e-06	5.581814e-09	3.074610e-09	3.876653e-02	1.996062e+02
2.490000e-06	-1.511927e-07	2.786558e-09	-1.050055e+00	1.808154e+02
2.500000e-06	-3.078793e-07	2.490470e-09	-2.138267e+00	1.613066e+02
2.510000e-06	-4.644687e-07	2.182143e-09	-3.225804e+00	1.410323e+02
2.520000e-06	-6.209530e-07	1.860048e-09	-4.312610e+00	1.199310e+02
2.530000e-06	-7.772836e-07	1.525262e-09	-5.398350e+00	9.792927e+01
2.540000e-06	-9.333025e-07	1.174722e-09	-6.481924e+00	7.495241e+01
2.550000e-06	-1.088902e-06	8.077919e-10	-7.562585e+00	5.093936e+01
2.560000e-06	-1.244095e-06	4.269179e-10	-8.640422e+00	2.586199e+01
2.570000e-06	-1.398792e-06	3.003389e-11	-9.714815e+00	-2.557143e-01
2.580000e-06	-1.552931e-06	-3.835524e-10	-1.078534e+01	-2.732235e+01
2.590000e-06	-1.706485e-06	-8.114204e-10	-1.185179e+01	-5.517165e+01
2.600000e-06	-1.859450e-06	-1.248479e-09	-1.291415e+01	-8.356542e+01
2.610000e-06	-2.011749e-06	-1.688992e-09	-1.397190e+01	-1.122075e+02
2.620000e-06	-2.163285e-06	-2.129328e-09	-1.502433e+01	-1.407672e+02
2.630000e-06	-2.313991e-06	-2.562275e-09	-1.607101e+01	-1.689089e+02
2.640000e-06	-2.463853e-06	-2.980536e-09	-1.711183e+01	-1.963226e+02
2.650000e-06	-2.612813e-06	-3.382075e-09	-1.814638e+01	-2.227509e+02
2.660000e-06	-2.760774e-06	-3.766774e-09	-1.917399e+01	-2.480075e+02
2.670000e-06	-2.907681e-06	-4.132925e-09	-2.019428e+01	-2.719850e+02
2.680000e-06	-3.053483e-06	-4.479514e-09	-2.120689e+01	-2.946518e+02
2.690000e-06	-3.198147e-06	-4.806847e-09	-2.221161e+01	-3.160381e+02
2.700000e-06	-3.341631e-06	-5.116078e-09	-2.320812e+01	-3.362178e+02
2.710000e-06	-3.483824e-06	-5.409333e-09	-2.419568e+01	-3.552860e+02
2.720000e-06	-3.624681e-06	-5.687419e-09	-2.517395e+01	-3.733407e+02
2.730000e-06	-3.764129e-06	-5.950975e-09	-2.614244e+01	-3.904685e+02
2.740000e-06	-3.902076e-06	-6.199274e-09	-2.710050e+01	-4.067379e+02
2.750000e-06	-4.038593e-06	-6.432595e-09	-2.804863e+01	-4.221989e+02
2.760000e-06	-4.173708e-06	-6.657052e-09	-2.898702e+01	-4.368879e+02
2.770000e-06	-4.307349e-06	-6.872823e-09	-2.991518e+01	-4.508353e+02
2.780000e-06	-4.439433e-06	-7.077904e-09	-3.083252e+01	-4.640722e+02
2.790000e-06	-4.569996e-06	-7.272421e-09	-3.173930e+01	-4.766355e+02
2.800000e-06	-4.699012e-06	-7.456788e-09	-3.263533e+01	-4.885690e+02
2.810000e-06	-4.826427e-06	-7.631310e-09	-3.352025e+01	-4.999215e+02
2.820000e-06	-4.952178e-06	-7.795694e-09	-3.439361e+01	-5.107416e+02
2.830000e-06	-5.076156e-06	-7.953096e-09	-3.525466e+01	-5.210729e+02
2.840000e-06	-5.198340e-06	-8.103855e-09	-3.610324e+01	-5.309490e+02
2.850000e-06	-5.318644e-06	-8.247280e-09	-3.693877e+01	-5.403921e+02
2.860000e-06	-5.436942e-06	-8.383696e-09	-3.776037e+01	-5.494131e+02
2.870000e-06	-5.553007e-06	-8.514505e-09	-3.856646e+01	-5.580148e+02
2.880000e-06	-5.666715e-06	-8.641008e-09	-3.935618e+01	-5.661970e+02
2.890000e-06	-5.778161e-06	-8.760816e-09	-4.013018e+01	-5.739611e+02
2.900000e-06	-5.887515e-06	-8.874223e-09	-4.088966e+01	-5.813145e+02
2.910000e-06	-5.994867e-06	-8.983401e-09	-4.163524e+01	-5.882718e+02
2.920000e-06	-6.100117e-06	-9.085251e-09	-4.236621e+01	-5.948557e+02
2.930000e-06	-6.203140e-06	-9.180668e-09	-4.308173e+01	-6.010944e+02
2.940000e-06	-6.303805e-06	-9.271204e-09	-4.378086e+01	-6.070188e+02
