# Temperatura_=_30.64
# Concentracion g/m^3_=_15000.0
# C_Vs_to_Am_M_A/Vsm_=_65563218390.804596
# pendiente_HvsI_1/m_=_3716.3
# ordenada_HvsI_A/m_=_1297.0
# frecuencia_Hz_=_302338.433443013

Tiempo_(s)	Campo_(V.s)	Magnetizacion_(V.s)	Campo_(kA/m)	Magnetizacion_(A/m)
0.000000e+00	-8.144687e-06	-1.055826e-08	-5.692094e+01	-6.898613e+02
1.000000e-08	-8.142367e-06	-1.055907e-08	-5.690473e+01	-6.896919e+02
2.000000e-08	-8.137330e-06	-1.055483e-08	-5.686952e+01	-6.894237e+02
3.000000e-08	-8.129689e-06	-1.054847e-08	-5.681612e+01	-6.890550e+02
4.000000e-08	-8.119235e-06	-1.054208e-08	-5.674306e+01	-6.885854e+02
5.000000e-08	-8.105800e-06	-1.053150e-08	-5.664917e+01	-6.880166e+02
6.000000e-08	-8.089413e-06	-1.051776e-08	-5.653464e+01	-6.873523e+02
7.000000e-08	-8.070503e-06	-1.050191e-08	-5.640249e+01	-6.865986e+02
8.000000e-08	-8.049319e-06	-1.048085e-08	-5.625444e+01	-6.857632e+02
9.000000e-08	-8.025438e-06	-1.050940e-08	-5.608754e+01	-6.848551e+02
1.000000e-07	-7.998339e-06	-1.051989e-08	-5.589815e+01	-6.838835e+02
1.100000e-07	-7.968023e-06	-1.046429e-08	-5.568628e+01	-6.828573e+02
1.200000e-07	-7.934692e-06	-1.043057e-08	-5.545334e+01	-6.817838e+02
1.300000e-07	-7.898511e-06	-1.041092e-08	-5.520048e+01	-6.806672e+02
1.400000e-07	-7.859840e-06	-1.037846e-08	-5.493022e+01	-6.795078e+02
1.500000e-07	-7.818840e-06	-1.033477e-08	-5.464368e+01	-6.783009e+02
1.600000e-07	-7.775488e-06	-1.035836e-08	-5.434071e+01	-6.770362e+02
1.700000e-07	-7.729513e-06	-1.034984e-08	-5.401940e+01	-6.756981e+02
1.800000e-07	-7.680662e-06	-1.024321e-08	-5.367799e+01	-6.742673e+02
1.900000e-07	-7.628903e-06	-1.028127e-08	-5.331627e+01	-6.727223e+02
2.000000e-07	-7.574254e-06	-1.024964e-08	-5.293434e+01	-6.710421e+02
2.100000e-07	-7.516758e-06	-1.017585e-08	-5.253252e+01	-6.692095e+02
2.200000e-07	-7.456542e-06	-1.018981e-08	-5.211169e+01	-6.672136e+02
2.300000e-07	-7.393715e-06	-1.014147e-08	-5.167261e+01	-6.650512e+02
2.400000e-07	-7.328110e-06	-1.011212e-08	-5.121411e+01	-6.627271e+02
2.500000e-07	-7.259668e-06	-1.004831e-08	-5.073579e+01	-6.602533e+02
2.600000e-07	-7.188537e-06	-1.003597e-08	-5.023867e+01	-6.576462e+02
2.700000e-07	-7.114556e-06	-9.999525e-09	-4.972164e+01	-6.549228e+02
2.800000e-07	-7.037665e-06	-9.932678e-09	-4.918427e+01	-6.520979e+02
2.900000e-07	-6.957952e-06	-9.887949e-09	-4.862718e+01	-6.491802e+02
3.000000e-07	-6.875640e-06	-9.839198e-09	-4.805192e+01	-6.461714e+02
3.100000e-07	-6.791049e-06	-9.815314e-09	-4.746074e+01	-6.430656e+02
3.200000e-07	-6.704136e-06	-9.745604e-09	-4.685333e+01	-6.398512e+02
3.300000e-07	-6.614725e-06	-9.694309e-09	-4.622846e+01	-6.365139e+02
3.400000e-07	-6.522875e-06	-9.653618e-09	-4.558655e+01	-6.330396e+02
3.500000e-07	-6.428689e-06	-9.596441e-09	-4.492831e+01	-6.294177e+02
3.600000e-07	-6.332152e-06	-9.535739e-09	-4.425364e+01	-6.256428e+02
3.700000e-07	-6.233276e-06	-9.474303e-09	-4.356262e+01	-6.217153e+02
3.800000e-07	-6.132168e-06	-9.419548e-09	-4.285600e+01	-6.176396e+02
3.900000e-07	-6.028891e-06	-9.341902e-09	-4.213423e+01	-6.134223e+02
4.000000e-07	-5.923401e-06	-9.269875e-09	-4.139699e+01	-6.090687e+02
4.100000e-07	-5.815834e-06	-9.205330e-09	-4.064523e+01	-6.045806e+02
4.200000e-07	-5.706285e-06	-9.143725e-09	-3.987963e+01	-5.999548e+02
4.300000e-07	-5.594644e-06	-9.071681e-09	-3.909940e+01	-5.951824e+02
4.400000e-07	-5.480876e-06	-8.989495e-09	-3.830431e+01	-5.902512e+02
4.500000e-07	-5.364984e-06	-8.909846e-09	-3.749437e+01	-5.851471e+02
4.600000e-07	-5.246993e-06	-8.830547e-09	-3.666977e+01	-5.798570e+02
4.700000e-07	-5.127136e-06	-8.742665e-09	-3.583212e+01	-5.743715e+02
4.800000e-07	-5.005576e-06	-8.650154e-09	-3.498257e+01	-5.686851e+02
4.900000e-07	-4.882150e-06	-8.564508e-09	-3.411998e+01	-5.627968e+02
5.000000e-07	-4.756899e-06	-8.475163e-09	-3.324464e+01	-5.567077e+02
5.100000e-07	-4.629963e-06	-8.375325e-09	-3.235751e+01	-5.504193e+02
5.200000e-07	-4.501391e-06	-8.273015e-09	-3.145896e+01	-5.439310e+02
5.300000e-07	-4.371091e-06	-8.175977e-09	-3.054833e+01	-5.372381e+02
5.400000e-07	-4.239104e-06	-8.069795e-09	-2.962591e+01	-5.303318e+02
5.500000e-07	-4.105635e-06	-7.955500e-09	-2.869313e+01	-5.232001e+02
5.600000e-07	-3.970564e-06	-7.841820e-09	-2.774916e+01	-5.158295e+02
5.700000e-07	-3.833964e-06	-7.729295e-09	-2.679450e+01	-5.082074e+02
5.800000e-07	-3.695912e-06	-7.606055e-09	-2.582970e+01	-5.003247e+02
5.900000e-07	-3.556261e-06	-7.477590e-09	-2.485371e+01	-4.921762e+02
6.000000e-07	-3.415006e-06	-7.348678e-09	-2.386652e+01	-4.837606e+02
6.100000e-07	-3.272418e-06	-7.215100e-09	-2.287002e+01	-4.750787e+02
6.200000e-07	-3.128691e-06	-7.075880e-09	-2.186554e+01	-4.661303e+02
6.300000e-07	-2.983779e-06	-6.934587e-09	-2.085280e+01	-4.569118e+02
6.400000e-07	-2.837686e-06	-6.794076e-09	-1.983179e+01	-4.474142e+02
6.500000e-07	-2.690608e-06	-6.643913e-09	-1.880391e+01	-4.376220e+02
6.600000e-07	-2.542647e-06	-6.485993e-09	-1.776985e+01	-4.275146e+02
6.700000e-07	-2.393885e-06	-6.324017e-09	-1.673019e+01	-4.170686e+02
6.800000e-07	-2.244429e-06	-6.158658e-09	-1.568568e+01	-4.062611e+02
6.900000e-07	-2.094175e-06	-5.987959e-09	-1.463560e+01	-3.950728e+02
7.000000e-07	-1.943212e-06	-5.811011e-09	-1.358057e+01	-3.834899e+02
7.100000e-07	-1.791591e-06	-5.628367e-09	-1.252093e+01	-3.715043e+02
7.200000e-07	-1.639261e-06	-5.438934e-09	-1.145633e+01	-3.591122e+02
7.300000e-07	-1.486402e-06	-5.244743e-09	-1.038805e+01	-3.463104e+02
7.400000e-07	-1.333111e-06	-5.045020e-09	-9.316737e+00	-3.330934e+02
7.500000e-07	-1.179379e-06	-4.836313e-09	-8.242352e+00	-3.194496e+02
7.600000e-07	-1.025280e-06	-4.619766e-09	-7.165396e+00	-3.053602e+02
7.700000e-07	-8.707922e-07	-4.397261e-09	-6.085723e+00	-2.907992e+02
7.800000e-07	-7.159349e-07	-4.167057e-09	-5.003468e+00	-2.757359e+02
7.900000e-07	-5.607911e-07	-3.930357e-09	-3.919212e+00	-2.601382e+02
8.000000e-07	-4.054083e-07	-3.685196e-09	-2.833285e+00	-2.439761e+02
8.100000e-07	-2.498621e-07	-3.430586e-09	-1.746216e+00	-2.272233e+02
8.200000e-07	-9.417884e-08	-3.165318e-09	-6.581895e-01	-2.098576e+02
8.300000e-07	6.155490e-08	-2.890558e-09	4.301899e-01	-1.918576e+02
8.400000e-07	2.173273e-07	-2.608016e-09	1.518839e+00	-1.731980e+02
8.500000e-07	3.729891e-07	-2.312656e-09	2.606716e+00	-1.538447e+02
8.600000e-07	5.284432e-07	-2.004797e-09	3.693141e+00	-1.337510e+02
8.700000e-07	6.837780e-07	-1.685624e-09	4.778733e+00	-1.128571e+02
8.800000e-07	8.388849e-07	-1.354814e-09	5.862731e+00	-9.109510e+01
8.900000e-07	9.937034e-07	-1.008730e-09	6.944715e+00	-6.839873e+01
9.000000e-07	1.148207e-06	-6.480407e-10	8.024497e+00	-4.471827e+01
9.100000e-07	1.302334e-06	-2.715638e-10	9.101649e+00	-2.003725e+01
9.200000e-07	1.456003e-06	1.206360e-10	1.017559e+01	5.611222e+00
9.300000e-07	1.609135e-06	5.232639e-10	1.124579e+01	3.213243e+01
9.400000e-07	1.761693e-06	9.356026e-10	1.231198e+01	5.936496e+01
9.500000e-07	1.913562e-06	1.354297e-09	1.337335e+01	8.708459e+01
9.600000e-07	2.064723e-06	1.777317e-09	1.442977e+01	1.150174e+02
9.700000e-07	2.215231e-06	2.200813e-09	1.548163e+01	1.428607e+02
9.800000e-07	2.364950e-06	2.618364e-09	1.652798e+01	1.703081e+02
9.900000e-07	2.513708e-06	3.025361e-09	1.756760e+01	1.970767e+02
1.000000e-06	2.661407e-06	3.418047e-09	1.859983e+01	2.229289e+02
1.010000e-06	2.808108e-06	3.794087e-09	1.962508e+01	2.476898e+02
1.020000e-06	2.953811e-06	4.151748e-09	2.064336e+01	2.712533e+02
1.030000e-06	3.098359e-06	4.491560e-09	2.165356e+01	2.935809e+02
1.040000e-06	3.241774e-06	4.812153e-09	2.265585e+01	3.146907e+02
1.050000e-06	3.383994e-06	5.114737e-09	2.364979e+01	3.346421e+02
1.060000e-06	3.524864e-06	5.400929e-09	2.463428e+01	3.535174e+02
1.070000e-06	3.664282e-06	5.673072e-09	2.560864e+01	3.714055e+02
1.080000e-06	3.802276e-06	5.931121e-09	2.657304e+01	3.883883e+02
1.090000e-06	3.938878e-06	6.175000e-09	2.752771e+01	4.045336e+02
1.100000e-06	4.074095e-06	6.407690e-09	2.847271e+01	4.198930e+02
1.110000e-06	4.207920e-06	6.627931e-09	2.940798e+01	4.345045e+02
1.120000e-06	4.340200e-06	6.836135e-09	3.033244e+01	4.483976e+02
1.130000e-06	4.470876e-06	7.035070e-09	3.124570e+01	4.615996e+02
1.140000e-06	4.600005e-06	7.226655e-09	3.214815e+01	4.741404e+02
1.150000e-06	4.727614e-06	7.407752e-09	3.303997e+01	4.860548e+02
1.160000e-06	4.853609e-06	7.579023e-09	3.392052e+01	4.973822e+02
1.170000e-06	4.977917e-06	7.741043e-09	3.478927e+01	5.081640e+02
1.180000e-06	5.100433e-06	7.896067e-09	3.564550e+01	5.184399e+02
1.190000e-06	5.221122e-06	8.047206e-09	3.648896e+01	5.282440e+02
1.200000e-06	5.339997e-06	8.193291e-09	3.731975e+01	5.376024e+02
1.210000e-06	5.456831e-06	8.331629e-09	3.813626e+01	5.465322e+02
1.220000e-06	5.571496e-06	8.461124e-09	3.893762e+01	5.550431e+02
1.230000e-06	5.684028e-06	8.582476e-09	3.972408e+01	5.631404e+02
1.240000e-06	5.794496e-06	8.697680e-09	4.049611e+01	5.708285e+02
1.250000e-06	5.902931e-06	8.806466e-09	4.125393e+01	5.781145e+02
1.260000e-06	6.009170e-06	8.908948e-09	4.199641e+01	5.850111e+02
1.270000e-06	6.113170e-06	9.008295e-09	4.272323e+01	5.915376e+02
1.280000e-06	6.214947e-06	9.103509e-09	4.343453e+01	5.977194e+02
1.290000e-06	6.314389e-06	9.192603e-09	4.412949e+01	6.035862e+02
1.300000e-06	6.411434e-06	9.276292e-09	4.480772e+01	6.091695e+02
1.310000e-06	6.506130e-06	9.356252e-09	4.546952e+01	6.144997e+02
1.320000e-06	6.598527e-06	9.433245e-09	4.611526e+01	6.196039e+02
1.330000e-06	6.688569e-06	9.507035e-09	4.674453e+01	6.245040e+02
1.340000e-06	6.776204e-06	9.579070e-09	4.735699e+01	6.292161e+02
1.350000e-06	6.861504e-06	9.648926e-09	4.795313e+01	6.337501e+02
1.360000e-06	6.944404e-06	9.715086e-09	4.853250e+01	6.381111e+02
1.370000e-06	7.024768e-06	9.777713e-09	4.909414e+01	6.422995e+02
1.380000e-06	7.102589e-06	9.837164e-09	4.963801e+01	6.463126e+02
1.390000e-06	7.177713e-06	9.893499e-09	5.016303e+01	6.501456e+02
1.400000e-06	7.250147e-06	9.947276e-09	5.066925e+01	6.537924e+02
1.410000e-06	7.320042e-06	9.999121e-09	5.115772e+01	6.572470e+02
1.420000e-06	7.387341e-06	1.004796e-08	5.162806e+01	6.605042e+02
1.430000e-06	7.451998e-06	1.009415e-08	5.207993e+01	6.635609e+02
1.440000e-06	7.514070e-06	1.013607e-08	5.251373e+01	6.664163e+02
1.450000e-06	7.573592e-06	1.017573e-08	5.292972e+01	6.690732e+02
1.460000e-06	7.630501e-06	1.021212e-08	5.332743e+01	6.715371e+02
1.470000e-06	7.684646e-06	1.024525e-08	5.370584e+01	6.738167e+02
1.480000e-06	7.735701e-06	1.027731e-08	5.406265e+01	6.759220e+02
1.490000e-06	7.783597e-06	1.030631e-08	5.439738e+01	6.778638e+02
1.500000e-06	7.828673e-06	1.033222e-08	5.471240e+01	6.796519e+02
1.510000e-06	7.871020e-06	1.035472e-08	5.500836e+01	6.812945e+02
1.520000e-06	7.910514e-06	1.037494e-08	5.528437e+01	6.827972e+02
1.530000e-06	7.947243e-06	1.039461e-08	5.554105e+01	6.841630e+02
1.540000e-06	7.981215e-06	1.041260e-08	5.577848e+01	6.853932e+02
1.550000e-06	8.012335e-06	1.042800e-08	5.599596e+01	6.864885e+02
1.560000e-06	8.040618e-06	1.044218e-08	5.619363e+01	6.874496e+02
1.570000e-06	8.065919e-06	1.045471e-08	5.637045e+01	6.882786e+02
1.580000e-06	8.088252e-06	1.046570e-08	5.652653e+01	6.889793e+02
1.590000e-06	8.107861e-06	1.047551e-08	5.666357e+01	6.895574e+02
1.600000e-06	8.124621e-06	1.048290e-08	5.678070e+01	6.900199e+02
1.610000e-06	8.138282e-06	1.048789e-08	5.687617e+01	6.903739e+02
1.620000e-06	8.148684e-06	1.049246e-08	5.694887e+01	6.906257e+02
1.630000e-06	8.155916e-06	1.049662e-08	5.699941e+01	6.907799e+02
1.640000e-06	8.160335e-06	1.049813e-08	5.703030e+01	6.908392e+02
1.650000e-06	8.161938e-06	1.049834e-08	5.704150e+01	6.908039e+02
1.660000e-06	8.160671e-06	1.049547e-08	5.703265e+01	6.906727e+02
1.670000e-06	8.156755e-06	1.048749e-08	5.700528e+01	6.904435e+02
1.680000e-06	8.150095e-06	1.048451e-08	5.695873e+01	6.901143e+02
1.690000e-06	8.140619e-06	1.048055e-08	5.689250e+01	6.896841e+02
1.700000e-06	8.128358e-06	1.047385e-08	5.680682e+01	6.891538e+02
1.710000e-06	8.113273e-06	1.046818e-08	5.670139e+01	6.885264e+02
1.720000e-06	8.095602e-06	1.046563e-08	5.657790e+01	6.878069e+02
1.730000e-06	8.075604e-06	1.046142e-08	5.643814e+01	6.870025e+02
1.740000e-06	8.052916e-06	1.038578e-08	5.627958e+01	6.861217e+02
1.750000e-06	8.026838e-06	1.036718e-08	5.609732e+01	6.851738e+02
1.760000e-06	7.996984e-06	1.039362e-08	5.588868e+01	6.841680e+02
1.770000e-06	7.963797e-06	1.037442e-08	5.565675e+01	6.831122e+02
1.780000e-06	7.928174e-06	1.036475e-08	5.540779e+01	6.820122e+02
1.790000e-06	7.890177e-06	1.040208e-08	5.514224e+01	6.808698e+02
1.800000e-06	7.849970e-06	1.035849e-08	5.486125e+01	6.796824e+02
1.810000e-06	7.807776e-06	1.025905e-08	5.456636e+01	6.784418e+02
1.820000e-06	7.762965e-06	1.035319e-08	5.425319e+01	6.771346e+02
1.830000e-06	7.715346e-06	1.029014e-08	5.392039e+01	6.757427e+02
1.840000e-06	7.664957e-06	1.027408e-08	5.356824e+01	6.742449e+02
1.850000e-06	7.611426e-06	1.030779e-08	5.319412e+01	6.726200e+02
1.860000e-06	7.554974e-06	1.019422e-08	5.279960e+01	6.708490e+02
1.870000e-06	7.495851e-06	1.022114e-08	5.238641e+01	6.689180e+02
1.880000e-06	7.434019e-06	1.014153e-08	5.195428e+01	6.668207e+02
1.890000e-06	7.369421e-06	1.014829e-08	5.150282e+01	6.645589e+02
1.900000e-06	7.301962e-06	1.013369e-08	5.103137e+01	6.621421e+02
1.910000e-06	7.231640e-06	1.003034e-08	5.053991e+01	6.595851e+02
1.920000e-06	7.158427e-06	1.003866e-08	5.002824e+01	6.569053e+02
1.930000e-06	7.082503e-06	9.954878e-09	4.949763e+01	6.541188e+02
1.940000e-06	7.003768e-06	9.956827e-09	4.894737e+01	6.512368e+02
1.950000e-06	6.922336e-06	9.896550e-09	4.837827e+01	6.482640e+02
1.960000e-06	6.838493e-06	9.846468e-09	4.779232e+01	6.451973e+02
1.970000e-06	6.752007e-06	9.823861e-09	4.718788e+01	6.420271e+02
1.980000e-06	6.662929e-06	9.727294e-09	4.656534e+01	6.387398e+02
1.990000e-06	6.571560e-06	9.704285e-09	4.592680e+01	6.353207e+02
2.000000e-06	6.477969e-06	9.633540e-09	4.527271e+01	6.317576e+02
2.010000e-06	6.382045e-06	9.595729e-09	4.460232e+01	6.280430e+02
2.020000e-06	6.283834e-06	9.513278e-09	4.391596e+01	6.241750e+02
2.030000e-06	6.183420e-06	9.459289e-09	4.321419e+01	6.201567e+02
2.040000e-06	6.080704e-06	9.410632e-09	4.249634e+01	6.159942e+02
2.050000e-06	5.975738e-06	9.347820e-09	4.176276e+01	6.116935e+02
2.060000e-06	5.868739e-06	9.288151e-09	4.101497e+01	6.072583e+02
2.070000e-06	5.759872e-06	9.194744e-09	4.025413e+01	6.026872e+02
2.080000e-06	5.648938e-06	9.131781e-09	3.947884e+01	5.979736e+02
2.090000e-06	5.535833e-06	9.048052e-09	3.868838e+01	5.931063e+02
2.100000e-06	5.420583e-06	8.983894e-09	3.788294e+01	5.880717e+02
2.110000e-06	5.303308e-06	8.904836e-09	3.706333e+01	5.828559e+02
2.120000e-06	5.183978e-06	8.832127e-09	3.622937e+01	5.774480e+02
2.130000e-06	5.062681e-06	8.735991e-09	3.538166e+01	5.718407e+02
2.140000e-06	4.939627e-06	8.643496e-09	3.452167e+01	5.660316e+02
2.150000e-06	4.814801e-06	8.559831e-09	3.364930e+01	5.600210e+02
2.160000e-06	4.688253e-06	8.473434e-09	3.276489e+01	5.538108e+02
2.170000e-06	4.559937e-06	8.377087e-09	3.186812e+01	5.474012e+02
2.180000e-06	4.429959e-06	8.266928e-09	3.095974e+01	5.407893e+02
2.190000e-06	4.298334e-06	8.165259e-09	3.003985e+01	5.339681e+02
2.200000e-06	4.165156e-06	8.053608e-09	2.910911e+01	5.269265e+02
2.210000e-06	4.030508e-06	7.945359e-09	2.816809e+01	5.196511e+02
2.220000e-06	3.894244e-06	7.831393e-09	2.721578e+01	5.121290e+02
2.230000e-06	3.756418e-06	7.719382e-09	2.625255e+01	5.043495e+02
2.240000e-06	3.617221e-06	7.595457e-09	2.527974e+01	4.963056e+02
2.250000e-06	3.476639e-06	7.472868e-09	2.429726e+01	4.879949e+02
2.260000e-06	3.334730e-06	7.348143e-09	2.330550e+01	4.794174e+02
2.270000e-06	3.191581e-06	7.215156e-09	2.230506e+01	4.705737e+02
2.280000e-06	3.047157e-06	7.070084e-09	2.129573e+01	4.614620e+02
2.290000e-06	2.901598e-06	6.920909e-09	2.027845e+01	4.520754e+02
2.300000e-06	2.754999e-06	6.775176e-09	1.925392e+01	4.424011e+02
2.310000e-06	2.607399e-06	6.627494e-09	1.822238e+01	4.324201e+02
2.320000e-06	2.458870e-06	6.475474e-09	1.718435e+01	4.221098e+02
2.330000e-06	2.309529e-06	6.313834e-09	1.614065e+01	4.114468e+02
2.340000e-06	2.159530e-06	6.144368e-09	1.509235e+01	4.004099e+02
2.350000e-06	2.008877e-06	5.968968e-09	1.403948e+01	3.889832e+02
2.360000e-06	1.857504e-06	5.790930e-09	1.298158e+01	3.771564e+02
2.370000e-06	1.705433e-06	5.606512e-09	1.191880e+01	3.649242e+02
2.380000e-06	1.552717e-06	5.412198e-09	1.085150e+01	3.522837e+02
2.390000e-06	1.399464e-06	5.210958e-09	9.780462e+00	3.392307e+02
2.400000e-06	1.245730e-06	5.004441e-09	8.706057e+00	3.257563e+02
2.410000e-06	1.091569e-06	4.789979e-09	7.628669e+00	3.118446e+02
2.420000e-06	9.370527e-07	4.570316e-09	6.548799e+00	2.974722e+02
2.430000e-06	7.822178e-07	4.346809e-09	5.466701e+00	2.826100e+02
2.440000e-06	6.271649e-07	4.114228e-09	4.383080e+00	2.672259e+02
2.450000e-06	4.719377e-07	3.870686e-09	3.298241e+00	2.512887e+02
2.460000e-06	3.165160e-07	3.619698e-09	2.212042e+00	2.347707e+02
2.470000e-06	1.609575e-07	3.359195e-09	1.124887e+00	2.176482e+02
2.480000e-06	5.328371e-09	3.085035e-09	3.723849e-02	1.999000e+02
2.490000e-06	-1.503726e-07	2.799356e-09	-1.050912e+00	1.815028e+02
2.500000e-06	-3.060203e-07	2.507252e-09	-2.138690e+00	1.624268e+02
2.510000e-06	-4.615114e-07	2.206886e-09	-3.225374e+00	1.426304e+02
2.520000e-06	-6.168860e-07	1.895029e-09	-4.311244e+00	1.220585e+02
2.530000e-06	-7.720883e-07	1.570892e-09	-5.395909e+00	1.006457e+02
2.540000e-06	-9.270814e-07	1.232033e-09	-6.479113e+00	7.832351e+01
2.550000e-06	-1.081821e-06	8.768611e-10	-7.560544e+00	5.503374e+01
2.560000e-06	-1.236214e-06	5.045717e-10	-8.639554e+00	3.074482e+01
2.570000e-06	-1.390153e-06	1.168493e-10	-9.715387e+00	5.468629e+00
2.580000e-06	-1.543512e-06	-2.836538e-10	-1.078717e+01	-2.072537e+01
2.590000e-06	-1.696248e-06	-6.965873e-10	-1.185460e+01	-4.770202e+01
2.600000e-06	-1.848285e-06	-1.121551e-09	-1.291715e+01	-7.526070e+01
2.610000e-06	-1.999529e-06	-1.550926e-09	-1.397415e+01	-1.031449e+02
2.620000e-06	-2.150023e-06	-1.978703e-09	-1.502591e+01	-1.310604e+02
2.630000e-06	-2.299766e-06	-2.401822e-09	-1.607242e+01	-1.586991e+02
2.640000e-06	-2.448643e-06	-2.813978e-09	-1.711288e+01	-1.857657e+02
2.650000e-06	-2.596617e-06	-3.213057e-09	-1.814703e+01	-2.120027e+02
2.660000e-06	-2.743693e-06	-3.598849e-09	-1.917490e+01	-2.372089e+02
2.670000e-06	-2.889839e-06	-3.969394e-09	-2.019627e+01	-2.612511e+02
2.680000e-06	-3.034917e-06	-4.321068e-09	-2.121018e+01	-2.840650e+02
2.690000e-06	-3.178728e-06	-4.652461e-09	-2.221524e+01	-3.056481e+02
2.700000e-06	-3.321200e-06	-4.964057e-09	-2.321094e+01	-3.260458e+02
2.710000e-06	-3.462388e-06	-5.258659e-09	-2.419766e+01	-3.453334e+02
2.720000e-06	-3.602328e-06	-5.538759e-09	-2.517566e+01	-3.635990e+02
2.730000e-06	-3.740942e-06	-5.804712e-09	-2.614439e+01	-3.809286e+02
2.740000e-06	-3.878116e-06	-6.055914e-09	-2.710307e+01	-3.973960e+02
2.750000e-06	-4.013786e-06	-6.294208e-09	-2.805123e+01	-4.130591e+02
2.760000e-06	-4.147976e-06	-6.524291e-09	-2.898904e+01	-4.279606e+02
2.770000e-06	-4.280772e-06	-6.744522e-09	-2.991712e+01	-4.421328e+02
2.780000e-06	-4.412191e-06	-6.954258e-09	-3.083557e+01	-4.556031e+02
2.790000e-06	-4.542126e-06	-7.153027e-09	-3.174365e+01	-4.683999e+02
2.800000e-06	-4.670379e-06	-7.339936e-09	-3.263997e+01	-4.805560e+02
2.810000e-06	-4.796960e-06	-7.516235e-09	-3.352461e+01	-4.921092e+02
2.820000e-06	-4.921958e-06	-7.682988e-09	-3.439818e+01	-5.031005e+02
2.830000e-06	-5.045247e-06	-7.841385e-09	-3.525982e+01	-5.135708e+02
2.840000e-06	-5.166659e-06	-7.991990e-09	-3.610834e+01	-5.235568e+02
2.850000e-06	-5.286064e-06	-8.137615e-09	-3.694282e+01	-5.330879e+02
2.860000e-06	-5.403438e-06	-8.277226e-09	-3.776312e+01	-5.421846e+02
2.870000e-06	-5.518685e-06	-8.410415e-09	-3.856854e+01	-5.508594e+02
2.880000e-06	-5.631657e-06	-8.536798e-09	-3.935807e+01	-5.591189e+02
2.890000e-06	-5.742483e-06	-8.656711e-09	-4.013261e+01	-5.669672e+02
2.900000e-06	-5.851267e-06	-8.771831e-09	-4.089287e+01	-5.744100e+02
2.910000e-06	-5.957990e-06	-8.880692e-09	-4.163872e+01	-5.814578e+02
2.920000e-06	-6.062577e-06	-8.982767e-09	-4.236965e+01	-5.881271e+02
2.930000e-06	-6.164894e-06	-9.080487e-09	-4.308472e+01	-5.944411e+02
2.940000e-06	-6.264901e-06	-9.174504e-09	-4.378364e+01	-6.004280e+02
