# Temperatura_=_53.6
# Concentracion g/m^3_=_15000.0
# C_Vs_to_Am_M_A/Vsm_=_65563218390.804596
# pendiente_HvsI_1/m_=_3716.3
# ordenada_HvsI_A/m_=_1297.0
# frecuencia_Hz_=_302342.10315731046

Tiempo_(s)	Campo_(V.s)	Magnetizacion_(V.s)	Campo_(kA/m)	Magnetizacion_(A/m)
0.000000e+00	-8.207376e-06	-1.117308e-08	-5.691981e+01	-7.307684e+02
1.000000e-08	-8.205070e-06	-1.117653e-08	-5.690382e+01	-7.305336e+02
2.000000e-08	-8.199977e-06	-1.117136e-08	-5.686850e+01	-7.301808e+02
3.000000e-08	-8.192319e-06	-1.116256e-08	-5.681539e+01	-7.297163e+02
4.000000e-08	-8.181749e-06	-1.115319e-08	-5.674208e+01	-7.291470e+02
5.000000e-08	-8.168088e-06	-1.113855e-08	-5.664734e+01	-7.284785e+02
6.000000e-08	-8.151463e-06	-1.112132e-08	-5.653204e+01	-7.277139e+02
7.000000e-08	-8.132343e-06	-1.110460e-08	-5.639944e+01	-7.268545e+02
8.000000e-08	-8.110951e-06	-1.108668e-08	-5.625108e+01	-7.259004e+02
9.000000e-08	-8.086794e-06	-1.114198e-08	-5.608355e+01	-7.248528e+02
1.000000e-07	-8.059417e-06	-1.113864e-08	-5.589368e+01	-7.237158e+02
1.100000e-07	-8.028810e-06	-1.105673e-08	-5.568142e+01	-7.224973e+02
1.200000e-07	-7.995197e-06	-1.102223e-08	-5.544831e+01	-7.212085e+02
1.300000e-07	-7.958741e-06	-1.099815e-08	-5.519548e+01	-7.198619e+02
1.400000e-07	-7.919798e-06	-1.096213e-08	-5.492540e+01	-7.184677e+02
1.500000e-07	-7.878504e-06	-1.090069e-08	-5.463901e+01	-7.170301e+02
1.600000e-07	-7.834753e-06	-1.094324e-08	-5.433560e+01	-7.155435e+02
1.700000e-07	-7.788268e-06	-1.093181e-08	-5.401321e+01	-7.139914e+02
1.800000e-07	-7.738834e-06	-1.079829e-08	-5.367038e+01	-7.123471e+02
1.900000e-07	-7.686499e-06	-1.088612e-08	-5.330742e+01	-7.105774e+02
2.000000e-07	-7.631293e-06	-1.083424e-08	-5.292456e+01	-7.086480e+02
2.100000e-07	-7.573275e-06	-1.073366e-08	-5.252219e+01	-7.065304e+02
2.200000e-07	-7.512566e-06	-1.074076e-08	-5.210117e+01	-7.042073e+02
2.300000e-07	-7.449252e-06	-1.067369e-08	-5.166207e+01	-7.016767e+02
2.400000e-07	-7.383142e-06	-1.066602e-08	-5.120358e+01	-6.989515e+02
2.500000e-07	-7.314165e-06	-1.058447e-08	-5.072521e+01	-6.960572e+02
2.600000e-07	-7.242409e-06	-1.057755e-08	-5.022757e+01	-6.930254e+02
2.700000e-07	-7.167740e-06	-1.053639e-08	-4.970973e+01	-6.898865e+02
2.800000e-07	-7.090145e-06	-1.047140e-08	-4.917159e+01	-6.866628e+02
2.900000e-07	-7.009731e-06	-1.040748e-08	-4.861390e+01	-6.833632e+02
3.000000e-07	-6.926806e-06	-1.035388e-08	-4.803880e+01	-6.799818e+02
3.100000e-07	-6.841598e-06	-1.034475e-08	-4.744786e+01	-6.764998e+02
3.200000e-07	-6.753904e-06	-1.024232e-08	-4.683969e+01	-6.728907e+02
3.300000e-07	-6.663671e-06	-1.018619e-08	-4.621390e+01	-6.691272e+02
3.400000e-07	-6.571089e-06	-1.014886e-08	-4.557183e+01	-6.651879e+02
3.500000e-07	-6.476115e-06	-1.008214e-08	-4.491316e+01	-6.610623e+02
3.600000e-07	-6.378735e-06	-9.994928e-09	-4.423782e+01	-6.567529e+02
3.700000e-07	-6.279044e-06	-9.929179e-09	-4.354644e+01	-6.522728e+02
3.800000e-07	-6.177115e-06	-9.880164e-09	-4.283954e+01	-6.476415e+02
3.900000e-07	-6.072958e-06	-9.792953e-09	-4.211719e+01	-6.428783e+02
4.000000e-07	-5.966587e-06	-9.715836e-09	-4.137948e+01	-6.379965e+02
4.100000e-07	-5.858223e-06	-9.648508e-09	-4.062796e+01	-6.329986e+02
4.200000e-07	-5.747866e-06	-9.580859e-09	-3.986261e+01	-6.278751e+02
4.300000e-07	-5.635291e-06	-9.480683e-09	-3.908188e+01	-6.226064e+02
4.400000e-07	-5.520453e-06	-9.386545e-09	-3.828546e+01	-6.171672e+02
4.500000e-07	-5.403518e-06	-9.313282e-09	-3.747449e+01	-6.115324e+02
4.600000e-07	-5.284587e-06	-9.236992e-09	-3.664968e+01	-6.056823e+02
4.700000e-07	-5.163747e-06	-9.135455e-09	-3.581163e+01	-5.996065e+02
4.800000e-07	-5.041129e-06	-9.033266e-09	-3.496125e+01	-5.933041e+02
4.900000e-07	-4.916687e-06	-8.938995e-09	-3.409822e+01	-5.867821e+02
5.000000e-07	-4.790503e-06	-8.831590e-09	-3.322311e+01	-5.800509e+02
5.100000e-07	-4.662605e-06	-8.719304e-09	-3.233611e+01	-5.731195e+02
5.200000e-07	-4.532946e-06	-8.611457e-09	-3.143690e+01	-5.659911e+02
5.300000e-07	-4.401563e-06	-8.509684e-09	-3.052573e+01	-5.586607e+02
5.400000e-07	-4.268575e-06	-8.391450e-09	-2.960343e+01	-5.511157e+02
5.500000e-07	-4.134099e-06	-8.269307e-09	-2.867081e+01	-5.433380e+02
5.600000e-07	-3.997991e-06	-8.146931e-09	-2.772688e+01	-5.353090e+02
5.700000e-07	-3.860270e-06	-8.021006e-09	-2.677175e+01	-5.270127e+02
5.800000e-07	-3.721028e-06	-7.880434e-09	-2.580608e+01	-5.184397e+02
5.900000e-07	-3.580163e-06	-7.741005e-09	-2.482916e+01	-5.095874e+02
6.000000e-07	-3.437708e-06	-7.607274e-09	-2.384120e+01	-5.004584e+02
6.100000e-07	-3.293893e-06	-7.467805e-09	-2.284382e+01	-4.910570e+02
6.200000e-07	-3.148921e-06	-7.319731e-09	-2.183840e+01	-4.813845e+02
6.300000e-07	-3.002890e-06	-7.164004e-09	-2.082565e+01	-4.714359e+02
6.400000e-07	-2.855794e-06	-7.006599e-09	-1.980551e+01	-4.611979e+02
6.500000e-07	-2.707755e-06	-6.842641e-09	-1.877883e+01	-4.506496e+02
6.600000e-07	-2.558835e-06	-6.678210e-09	-1.774604e+01	-4.397651e+02
6.700000e-07	-2.409053e-06	-6.508984e-09	-1.670727e+01	-4.285189e+02
6.800000e-07	-2.258486e-06	-6.333424e-09	-1.566306e+01	-4.168894e+02
6.900000e-07	-2.107083e-06	-6.148342e-09	-1.461305e+01	-4.048629e+02
7.000000e-07	-1.954785e-06	-5.956643e-09	-1.355683e+01	-3.924333e+02
7.100000e-07	-1.801749e-06	-5.760276e-09	-1.249550e+01	-3.796002e+02
7.200000e-07	-1.648175e-06	-5.556383e-09	-1.143043e+01	-3.663643e+02
7.300000e-07	-1.494107e-06	-5.349463e-09	-1.036193e+01	-3.527217e+02
7.400000e-07	-1.339522e-06	-5.136192e-09	-9.289859e+00	-3.386595e+02
7.500000e-07	-1.184434e-06	-4.915623e-09	-8.214290e+00	-3.241531e+02
7.600000e-07	-1.028957e-06	-4.689276e-09	-7.136026e+00	-3.091671e+02
7.700000e-07	-8.731645e-07	-4.454135e-09	-6.055572e+00	-2.936595e+02
7.800000e-07	-7.170791e-07	-4.204971e-09	-4.973088e+00	-2.775871e+02
7.900000e-07	-5.607649e-07	-3.948325e-09	-3.889018e+00	-2.609118e+02
8.000000e-07	-4.042716e-07	-3.686749e-09	-2.803705e+00	-2.436038e+02
8.100000e-07	-2.476057e-07	-3.417478e-09	-1.717195e+00	-2.256426e+02
8.200000e-07	-9.081491e-08	-3.133647e-09	-6.298198e-01	-2.070121e+02
8.300000e-07	6.601613e-08	-2.836725e-09	4.578352e-01	-1.876936e+02
8.400000e-07	2.228848e-07	-2.529317e-09	1.545751e+00	-1.676563e+02
8.500000e-07	3.797182e-07	-2.207211e-09	2.633423e+00	-1.468503e+02
8.600000e-07	5.364226e-07	-1.875737e-09	3.720199e+00	-1.252033e+02
8.700000e-07	6.929822e-07	-1.533211e-09	4.805971e+00	-1.026250e+02
8.800000e-07	8.493550e-07	-1.176517e-09	5.890449e+00	-7.901913e+01
8.900000e-07	1.005508e-06	-7.994380e-10	6.973403e+00	-5.430226e+01
9.000000e-07	1.161368e-06	-4.045630e-10	8.054318e+00	-2.842673e+01
9.100000e-07	1.316800e-06	4.961207e-12	9.132276e+00	-1.403384e+00
9.200000e-07	1.471744e-06	4.318009e-10	1.020684e+01	2.668080e+01
9.300000e-07	1.626206e-06	8.732544e-10	1.127807e+01	5.565420e+01
9.400000e-07	1.780111e-06	1.327044e-09	1.234543e+01	8.526394e+01
9.500000e-07	1.933372e-06	1.784841e-09	1.340832e+01	1.151916e+02
9.600000e-07	2.085843e-06	2.241466e-09	1.446574e+01	1.450794e+02
9.700000e-07	2.237430e-06	2.688694e-09	1.551703e+01	1.745624e+02
9.800000e-07	2.388073e-06	3.122781e-09	1.656177e+01	2.033021e+02
9.900000e-07	2.537768e-06	3.542372e-09	1.759993e+01	2.310158e+02
1.000000e-06	2.686544e-06	3.943187e-09	1.863172e+01	2.574966e+02
1.010000e-06	2.834325e-06	4.322146e-09	1.965661e+01	2.826225e+02
1.020000e-06	2.981109e-06	4.680393e-09	2.067460e+01	3.063533e+02
1.030000e-06	3.126835e-06	5.021910e-09	2.168523e+01	3.287170e+02
1.040000e-06	3.271350e-06	5.344905e-09	2.268747e+01	3.497904e+02
1.050000e-06	3.414572e-06	5.649098e-09	2.368075e+01	3.696766e+02
1.060000e-06	3.556478e-06	5.935480e-09	2.466489e+01	3.884846e+02
1.070000e-06	3.697023e-06	6.206281e-09	2.563960e+01	4.063143e+02
1.080000e-06	3.836148e-06	6.462483e-09	2.660446e+01	4.232477e+02
1.090000e-06	3.973807e-06	6.705810e-09	2.755915e+01	4.393471e+02
1.100000e-06	4.109977e-06	6.938719e-09	2.850352e+01	4.546584e+02
1.110000e-06	4.244621e-06	7.157791e-09	2.943730e+01	4.692178e+02
1.120000e-06	4.377752e-06	7.365153e-09	3.036059e+01	4.830587e+02
1.130000e-06	4.509405e-06	7.565476e-09	3.127364e+01	4.962165e+02
1.140000e-06	4.639571e-06	7.757217e-09	3.217636e+01	5.087317e+02
1.150000e-06	4.768112e-06	7.937282e-09	3.306782e+01	5.206485e+02
1.160000e-06	4.894861e-06	8.107162e-09	3.394685e+01	5.320127e+02
1.170000e-06	5.019905e-06	8.270090e-09	3.481405e+01	5.428667e+02
1.180000e-06	5.143307e-06	8.428626e-09	3.566988e+01	5.532465e+02
1.190000e-06	5.264932e-06	8.583341e-09	3.651337e+01	5.631788e+02
1.200000e-06	5.384632e-06	8.731487e-09	3.734351e+01	5.726812e+02
1.210000e-06	5.502336e-06	8.870700e-09	3.815981e+01	5.817633e+02
1.220000e-06	5.617953e-06	9.001065e-09	3.896164e+01	5.904299e+02
1.230000e-06	5.731334e-06	9.125481e-09	3.974796e+01	5.986846e+02
1.240000e-06	5.842508e-06	9.244826e-09	4.051897e+01	6.065330e+02
1.250000e-06	5.951614e-06	9.356738e-09	4.127564e+01	6.139851e+02
1.260000e-06	6.058685e-06	9.460271e-09	4.201820e+01	6.210557e+02
1.270000e-06	6.163509e-06	9.561040e-09	4.274518e+01	6.277650e+02
1.280000e-06	6.265980e-06	9.658863e-09	4.345584e+01	6.341367e+02
1.290000e-06	6.366200e-06	9.751666e-09	4.415088e+01	6.401970e+02
1.300000e-06	6.464057e-06	9.840263e-09	4.482954e+01	6.459725e+02
1.310000e-06	6.559486e-06	9.923861e-09	4.549136e+01	6.514891e+02
1.320000e-06	6.652564e-06	1.000357e-08	4.613687e+01	6.567710e+02
1.330000e-06	6.743339e-06	1.007995e-08	4.676642e+01	6.618392e+02
1.340000e-06	6.831678e-06	1.015441e-08	4.737907e+01	6.667115e+02
1.350000e-06	6.917527e-06	1.022570e-08	4.797445e+01	6.714011e+02
1.360000e-06	7.000946e-06	1.029276e-08	4.855297e+01	6.759167e+02
1.370000e-06	7.081811e-06	1.035686e-08	4.911379e+01	6.802620e+02
1.380000e-06	7.160121e-06	1.041889e-08	4.965689e+01	6.844357e+02
1.390000e-06	7.235883e-06	1.047923e-08	5.018231e+01	6.884331e+02
1.400000e-06	7.308897e-06	1.053685e-08	5.068868e+01	6.922469e+02
1.410000e-06	7.379220e-06	1.059090e-08	5.117638e+01	6.958696e+02
1.420000e-06	7.446981e-06	1.064150e-08	5.164632e+01	6.992951e+02
1.430000e-06	7.512023e-06	1.068969e-08	5.209740e+01	7.025204e+02
1.440000e-06	7.574362e-06	1.073473e-08	5.252973e+01	7.055465e+02
1.450000e-06	7.634217e-06	1.077754e-08	5.294484e+01	7.083777e+02
1.460000e-06	7.691421e-06	1.081700e-08	5.334156e+01	7.110212e+02
1.470000e-06	7.745836e-06	1.085362e-08	5.371894e+01	7.134851e+02
1.480000e-06	7.797229e-06	1.088961e-08	5.407536e+01	7.157764e+02
1.490000e-06	7.845399e-06	1.092382e-08	5.440942e+01	7.179002e+02
1.500000e-06	7.890703e-06	1.095235e-08	5.472362e+01	7.198588e+02
1.510000e-06	7.933261e-06	1.097492e-08	5.501876e+01	7.216524e+02
1.520000e-06	7.972971e-06	1.099595e-08	5.529416e+01	7.232803e+02
1.530000e-06	8.009904e-06	1.101870e-08	5.555030e+01	7.247430e+02
1.540000e-06	8.043963e-06	1.104144e-08	5.578651e+01	7.260430e+02
1.550000e-06	8.075111e-06	1.106000e-08	5.600253e+01	7.271867e+02
1.560000e-06	8.103507e-06	1.107394e-08	5.619946e+01	7.281833e+02
1.570000e-06	8.128985e-06	1.108533e-08	5.637615e+01	7.290441e+02
1.580000e-06	8.151433e-06	1.109747e-08	5.653183e+01	7.297805e+02
1.590000e-06	8.171060e-06	1.110853e-08	5.666795e+01	7.304019e+02
1.600000e-06	8.187765e-06	1.111432e-08	5.678380e+01	7.309141e+02
1.610000e-06	8.201362e-06	1.111753e-08	5.687810e+01	7.313185e+02
1.620000e-06	8.211754e-06	1.112150e-08	5.695017e+01	7.316128e+02
1.630000e-06	8.219009e-06	1.112703e-08	5.700049e+01	7.317921e+02
1.640000e-06	8.223419e-06	1.113218e-08	5.703107e+01	7.318515e+02
1.650000e-06	8.224923e-06	1.113542e-08	5.704150e+01	7.317877e+02
1.660000e-06	8.223534e-06	1.113033e-08	5.703187e+01	7.316005e+02
1.670000e-06	8.219457e-06	1.111862e-08	5.700359e+01	7.312931e+02
1.680000e-06	8.212661e-06	1.111344e-08	5.695647e+01	7.308715e+02
1.690000e-06	8.203147e-06	1.110701e-08	5.689048e+01	7.303425e+02
1.700000e-06	8.190754e-06	1.109801e-08	5.680453e+01	7.297123e+02
1.710000e-06	8.175415e-06	1.109239e-08	5.669815e+01	7.289850e+02
1.720000e-06	8.157539e-06	1.109099e-08	5.657418e+01	7.281627e+02
1.730000e-06	8.137370e-06	1.108065e-08	5.643430e+01	7.272456e+02
1.740000e-06	8.114454e-06	1.097474e-08	5.627538e+01	7.262342e+02
1.750000e-06	8.088030e-06	1.097755e-08	5.609212e+01	7.251315e+02
1.760000e-06	8.057726e-06	1.101433e-08	5.588195e+01	7.239437e+02
1.770000e-06	8.024117e-06	1.098013e-08	5.564887e+01	7.226808e+02
1.780000e-06	7.988136e-06	1.096892e-08	5.539934e+01	7.213553e+02
1.790000e-06	7.949858e-06	1.103130e-08	5.513387e+01	7.199787e+02
1.800000e-06	7.909382e-06	1.096555e-08	5.485316e+01	7.185581e+02
1.810000e-06	7.866871e-06	1.082131e-08	5.455834e+01	7.170919e+02
1.820000e-06	7.821668e-06	1.097219e-08	5.424485e+01	7.155681e+02
1.830000e-06	7.773619e-06	1.086141e-08	5.391162e+01	7.139636e+02
1.840000e-06	7.722735e-06	1.085433e-08	5.355873e+01	7.122471e+02
1.850000e-06	7.668577e-06	1.088756e-08	5.318313e+01	7.103842e+02
1.860000e-06	7.611568e-06	1.075955e-08	5.278776e+01	7.083431e+02
1.870000e-06	7.551926e-06	1.083333e-08	5.237413e+01	7.061017e+02
1.880000e-06	7.489474e-06	1.069757e-08	5.194101e+01	7.036517e+02
1.890000e-06	7.424235e-06	1.071992e-08	5.148857e+01	7.010003e+02
1.900000e-06	7.356089e-06	1.068212e-08	5.101596e+01	6.981687e+02
1.910000e-06	7.285048e-06	1.055459e-08	5.052328e+01	6.951869e+02
1.920000e-06	7.211129e-06	1.056590e-08	5.001063e+01	6.920867e+02
1.930000e-06	7.134480e-06	1.048698e-08	4.947906e+01	6.888943e+02
1.940000e-06	7.055083e-06	1.051387e-08	4.892843e+01	6.856242e+02
1.950000e-06	6.973009e-06	1.039576e-08	4.835922e+01	6.822764e+02
1.960000e-06	6.888411e-06	1.035767e-08	4.777252e+01	6.788367e+02
1.970000e-06	6.801156e-06	1.033166e-08	4.716739e+01	6.752807e+02
1.980000e-06	6.711357e-06	1.021431e-08	4.654461e+01	6.715807e+02
1.990000e-06	6.619172e-06	1.018984e-08	4.590530e+01	6.677122e+02
2.000000e-06	6.524700e-06	1.012489e-08	4.525011e+01	6.636601e+02
2.010000e-06	6.427971e-06	1.009899e-08	4.457927e+01	6.594217e+02
2.020000e-06	6.329007e-06	9.980562e-09	4.389294e+01	6.550063e+02
2.030000e-06	6.227702e-06	9.923487e-09	4.319037e+01	6.504318e+02
2.040000e-06	6.124026e-06	9.863276e-09	4.247136e+01	6.457183e+02
2.050000e-06	6.018265e-06	9.790206e-09	4.173789e+01	6.408820e+02
2.060000e-06	5.910471e-06	9.709516e-09	4.099031e+01	6.359300e+02
2.070000e-06	5.800652e-06	9.623473e-09	4.022869e+01	6.308575e+02
2.080000e-06	5.688722e-06	9.570456e-09	3.945244e+01	6.256484e+02
2.090000e-06	5.574646e-06	9.469440e-09	3.866130e+01	6.202792e+02
2.100000e-06	5.458431e-06	9.383865e-09	3.785532e+01	6.147238e+02
2.110000e-06	5.340080e-06	9.289955e-09	3.703453e+01	6.089600e+02
2.120000e-06	5.219703e-06	9.209986e-09	3.619969e+01	6.029733e+02
2.130000e-06	5.097493e-06	9.098663e-09	3.535215e+01	5.967593e+02
2.140000e-06	4.973514e-06	9.011969e-09	3.449232e+01	5.903222e+02
2.150000e-06	4.847665e-06	8.929037e-09	3.361954e+01	5.836718e+02
2.160000e-06	4.720017e-06	8.834487e-09	3.273427e+01	5.768181e+02
2.170000e-06	4.590677e-06	8.714454e-09	3.183727e+01	5.697671e+02
2.180000e-06	4.459784e-06	8.588728e-09	3.092950e+01	5.625170e+02
2.190000e-06	4.327217e-06	8.475710e-09	3.001012e+01	5.550580e+02
2.200000e-06	4.192964e-06	8.354370e-09	2.907906e+01	5.473739e+02
2.210000e-06	4.057160e-06	8.238770e-09	2.813722e+01	5.394456e+02
2.220000e-06	3.919835e-06	8.121240e-09	2.718485e+01	5.312557e+02
2.230000e-06	3.780979e-06	8.003243e-09	2.622185e+01	5.227919e+02
2.240000e-06	3.640614e-06	7.865377e-09	2.524840e+01	5.140491e+02
2.250000e-06	3.498796e-06	7.728902e-09	2.426486e+01	5.050281e+02
2.260000e-06	3.355624e-06	7.590347e-09	2.327193e+01	4.957331e+02
2.270000e-06	3.211259e-06	7.445645e-09	2.227073e+01	4.861671e+02
2.280000e-06	3.065698e-06	7.290263e-09	2.126123e+01	4.763280e+02
2.290000e-06	2.919029e-06	7.133175e-09	2.024405e+01	4.662057e+02
2.300000e-06	2.771376e-06	6.976448e-09	1.922005e+01	4.557820e+02
2.310000e-06	2.622704e-06	6.813631e-09	1.818898e+01	4.450325e+02
2.320000e-06	2.473063e-06	6.643406e-09	1.715119e+01	4.339311e+02
2.330000e-06	2.322604e-06	6.466579e-09	1.610773e+01	4.224542e+02
2.340000e-06	2.171324e-06	6.286407e-09	1.505857e+01	4.105846e+02
2.350000e-06	2.019266e-06	6.104469e-09	1.400402e+01	3.983135e+02
2.360000e-06	1.866594e-06	5.917468e-09	1.294521e+01	3.856386e+02
2.370000e-06	1.713344e-06	5.718992e-09	1.188239e+01	3.725609e+02
2.380000e-06	1.559561e-06	5.507809e-09	1.081587e+01	3.590789e+02
2.390000e-06	1.405268e-06	5.290670e-09	9.745817e+00	3.451836e+02
2.400000e-06	1.250523e-06	5.070215e-09	8.672633e+00	3.308552e+02
2.410000e-06	1.095408e-06	4.844083e-09	7.596877e+00	3.160622e+02
2.420000e-06	9.399193e-07	4.612308e-09	6.518530e+00	3.007646e+02
2.430000e-06	7.841141e-07	4.373123e-09	5.437990e+00	2.849189e+02
2.440000e-06	6.279852e-07	4.123076e-09	4.355204e+00	2.684843e+02
2.450000e-06	4.715529e-07	3.862015e-09	3.270314e+00	2.514276e+02
2.460000e-06	3.148744e-07	3.593248e-09	2.183718e+00	2.337249e+02
2.470000e-06	1.580157e-07	3.313630e-09	1.095871e+00	2.153591e+02
2.480000e-06	1.071843e-09	3.021716e-09	7.433449e-03	1.963135e+02
2.490000e-06	-1.559360e-07	2.720705e-09	-1.081448e+00	1.765632e+02
2.500000e-06	-3.128812e-07	2.410163e-09	-2.169894e+00	1.560664e+02
2.510000e-06	-4.696724e-07	2.085423e-09	-3.257273e+00	1.347596e+02
2.520000e-06	-6.262945e-07	1.745731e-09	-4.343479e+00	1.125585e+02
2.530000e-06	-7.827055e-07	1.390688e-09	-5.428221e+00	8.936731e+01
2.540000e-06	-9.388365e-07	1.020249e-09	-6.511020e+00	6.509494e+01
2.550000e-06	-1.094574e-06	6.333598e-10	-7.591094e+00	3.967685e+01
2.560000e-06	-1.249907e-06	2.299572e-10	-8.668356e+00	1.309842e+01
2.570000e-06	-1.404797e-06	-1.909019e-10	-9.742552e+00	-1.458490e+01
2.580000e-06	-1.559157e-06	-6.306619e-10	-1.081307e+01	-4.323500e+01
2.590000e-06	-1.712953e-06	-1.082709e-09	-1.187968e+01	-7.262974e+01
2.600000e-06	-1.866112e-06	-1.539838e-09	-1.294186e+01	-1.024739e+02
2.610000e-06	-2.018587e-06	-1.996644e-09	-1.399931e+01	-1.324214e+02
2.620000e-06	-2.170317e-06	-2.450199e-09	-1.505158e+01	-1.621061e+02
2.630000e-06	-2.321249e-06	-2.895518e-09	-1.609833e+01	-1.911753e+02
2.640000e-06	-2.471299e-06	-3.326030e-09	-1.713896e+01	-2.193214e+02
2.650000e-06	-2.620379e-06	-3.738873e-09	-1.817286e+01	-2.463061e+02
2.660000e-06	-2.768419e-06	-4.132457e-09	-1.919954e+01	-2.719736e+02
2.670000e-06	-2.915402e-06	-4.506927e-09	-2.021890e+01	-2.962527e+02
2.680000e-06	-3.061346e-06	-4.860406e-09	-2.123105e+01	-3.191467e+02
2.690000e-06	-3.206181e-06	-5.191303e-09	-2.223551e+01	-3.407158e+02
2.700000e-06	-3.349877e-06	-5.501062e-09	-2.323208e+01	-3.610555e+02
2.710000e-06	-3.492349e-06	-5.793675e-09	-2.422015e+01	-3.802745e+02
2.720000e-06	-3.633450e-06	-6.071595e-09	-2.519871e+01	-3.984779e+02
2.730000e-06	-3.773037e-06	-6.335408e-09	-2.616678e+01	-4.157551e+02
2.740000e-06	-3.911107e-06	-6.586122e-09	-2.712432e+01	-4.321760e+02
2.750000e-06	-4.047783e-06	-6.824295e-09	-2.807219e+01	-4.477923e+02
2.760000e-06	-4.183114e-06	-7.052750e-09	-2.901074e+01	-4.626433e+02
2.770000e-06	-4.316969e-06	-7.271618e-09	-2.993906e+01	-4.767626e+02
2.780000e-06	-4.449227e-06	-7.480555e-09	-3.085629e+01	-4.901844e+02
2.790000e-06	-4.579907e-06	-7.679486e-09	-3.176258e+01	-5.029471e+02
2.800000e-06	-4.709019e-06	-7.866742e-09	-3.265800e+01	-5.150937e+02
2.810000e-06	-4.836541e-06	-8.042089e-09	-3.354239e+01	-5.266698e+02
2.820000e-06	-4.962369e-06	-8.207932e-09	-3.441503e+01	-5.377197e+02
2.830000e-06	-5.086445e-06	-8.367318e-09	-3.527552e+01	-5.482822e+02
2.840000e-06	-5.208802e-06	-8.521780e-09	-3.612409e+01	-5.583879e+02
2.850000e-06	-5.329318e-06	-8.671054e-09	-3.695990e+01	-5.680579e+02
2.860000e-06	-5.447780e-06	-8.813515e-09	-3.778145e+01	-5.773044e+02
2.870000e-06	-5.563966e-06	-8.948838e-09	-3.858723e+01	-5.861340e+02
2.880000e-06	-5.677861e-06	-9.076211e-09	-3.937711e+01	-5.945502e+02
2.890000e-06	-5.789518e-06	-9.196998e-09	-4.015148e+01	-6.025575e+02
2.900000e-06	-5.898994e-06	-9.313745e-09	-4.091072e+01	-6.101639e+02
2.910000e-06	-6.006446e-06	-9.425789e-09	-4.165592e+01	-6.173824e+02
2.920000e-06	-6.111855e-06	-9.532454e-09	-4.238695e+01	-6.242312e+02
2.930000e-06	-6.214993e-06	-9.633701e-09	-4.310223e+01	-6.307327e+02
2.940000e-06	-6.315733e-06	-9.730124e-09	-4.380089e+01	-6.369123e+02
