# Temperatura_=_57.74
# Concentracion g/m^3_=_15000.0
# C_Vs_to_Am_M_A/Vsm_=_65563218390.804596
# pendiente_HvsI_1/m_=_3716.3
# ordenada_HvsI_A/m_=_1297.0
# frecuencia_Hz_=_302341.4328145912

Tiempo_(s)	Campo_(V.s)	Magnetizacion_(V.s)	Campo_(kA/m)	Magnetizacion_(A/m)
0.000000e+00	-8.186409e-06	-1.138545e-08	-5.689880e+01	-7.435322e+02
1.000000e-08	-8.181593e-06	-1.138103e-08	-5.686533e+01	-7.432407e+02
2.000000e-08	-8.174152e-06	-1.137293e-08	-5.681361e+01	-7.428329e+02
3.000000e-08	-8.163860e-06	-1.136301e-08	-5.674208e+01	-7.423057e+02
4.000000e-08	-8.150611e-06	-1.135083e-08	-5.664999e+01	-7.416578e+02
5.000000e-08	-8.134476e-06	-1.133599e-08	-5.653784e+01	-7.408904e+02
6.000000e-08	-8.115729e-06	-1.132004e-08	-5.640754e+01	-7.400085e+02
7.000000e-08	-8.094634e-06	-1.130576e-08	-5.626092e+01	-7.390210e+02
8.000000e-08	-8.070864e-06	-1.130485e-08	-5.609571e+01	-7.379402e+02
9.000000e-08	-8.043921e-06	-1.130556e-08	-5.590845e+01	-7.367803e+02
1.000000e-07	-8.013694e-06	-1.128081e-08	-5.569836e+01	-7.355559e+02
1.100000e-07	-7.980420e-06	-1.124330e-08	-5.546709e+01	-7.342794e+02
1.200000e-07	-7.944338e-06	-1.120899e-08	-5.521631e+01	-7.329582e+02
1.300000e-07	-7.905772e-06	-1.117909e-08	-5.494826e+01	-7.315926e+02
1.400000e-07	-7.864831e-06	-1.114616e-08	-5.466371e+01	-7.301749e+02
1.500000e-07	-7.821495e-06	-1.111905e-08	-5.436250e+01	-7.286888e+02
1.600000e-07	-7.775492e-06	-1.110783e-08	-5.404276e+01	-7.271111e+02
1.700000e-07	-7.726496e-06	-1.107700e-08	-5.370222e+01	-7.254146e+02
1.800000e-07	-7.674566e-06	-1.104321e-08	-5.334129e+01	-7.235719e+02
1.900000e-07	-7.619770e-06	-1.101791e-08	-5.296043e+01	-7.215592e+02
2.000000e-07	-7.562158e-06	-1.095568e-08	-5.256000e+01	-7.193600e+02
2.100000e-07	-7.501909e-06	-1.090944e-08	-5.214125e+01	-7.169676e+02
2.200000e-07	-7.439057e-06	-1.089156e-08	-5.170441e+01	-7.143856e+02
2.300000e-07	-7.373364e-06	-1.086226e-08	-5.124781e+01	-7.116262e+02
2.400000e-07	-7.304810e-06	-1.081215e-08	-5.077133e+01	-7.087073e+02
2.500000e-07	-7.233493e-06	-1.075687e-08	-5.027565e+01	-7.056487e+02
2.600000e-07	-7.159298e-06	-1.071280e-08	-4.975997e+01	-7.024669e+02
2.700000e-07	-7.082226e-06	-1.065553e-08	-4.922429e+01	-6.991722e+02
2.800000e-07	-7.002360e-06	-1.060387e-08	-4.866918e+01	-6.957669e+02
2.900000e-07	-6.919856e-06	-1.056111e-08	-4.809575e+01	-6.922446e+02
3.000000e-07	-6.835010e-06	-1.050617e-08	-4.750604e+01	-6.885929e+02
3.100000e-07	-6.747753e-06	-1.043927e-08	-4.689957e+01	-6.847965e+02
3.200000e-07	-6.657998e-06	-1.037451e-08	-4.627574e+01	-6.808410e+02
3.300000e-07	-6.565853e-06	-1.031305e-08	-4.563529e+01	-6.767165e+02
3.400000e-07	-6.471293e-06	-1.024629e-08	-4.497806e+01	-6.724196e+02
3.500000e-07	-6.374369e-06	-1.017392e-08	-4.430440e+01	-6.679538e+02
3.600000e-07	-6.275141e-06	-1.009981e-08	-4.361473e+01	-6.633278e+02
3.700000e-07	-6.173684e-06	-1.003149e-08	-4.290956e+01	-6.585529e+02
3.800000e-07	-6.069996e-06	-9.961029e-09	-4.218889e+01	-6.536388e+02
3.900000e-07	-5.964076e-06	-9.883186e-09	-4.145270e+01	-6.485911e+02
4.000000e-07	-5.856126e-06	-9.800286e-09	-4.070240e+01	-6.434089e+02
4.100000e-07	-5.746138e-06	-9.715517e-09	-3.993795e+01	-6.380846e+02
4.200000e-07	-5.634038e-06	-9.631224e-09	-3.915881e+01	-6.326054e+02
4.300000e-07	-5.519732e-06	-9.547715e-09	-3.836434e+01	-6.269554e+02
4.400000e-07	-5.403268e-06	-9.462823e-09	-3.755486e+01	-6.211193e+02
4.500000e-07	-5.284786e-06	-9.371834e-09	-3.673137e+01	-6.150847e+02
4.600000e-07	-5.164401e-06	-9.274006e-09	-3.589464e+01	-6.088436e+02
4.700000e-07	-5.042222e-06	-9.170989e-09	-3.504545e+01	-6.023924e+02
4.800000e-07	-4.918264e-06	-9.069353e-09	-3.418389e+01	-5.957309e+02
4.900000e-07	-4.792592e-06	-8.968026e-09	-3.331042e+01	-5.888595e+02
5.000000e-07	-4.665131e-06	-8.858531e-09	-3.242452e+01	-5.817776e+02
5.100000e-07	-4.535941e-06	-8.743560e-09	-3.152660e+01	-5.744810e+02
5.200000e-07	-4.405072e-06	-8.629499e-09	-3.061701e+01	-5.669618e+02
5.300000e-07	-4.272541e-06	-8.512935e-09	-2.969586e+01	-5.592092e+02
5.400000e-07	-4.138528e-06	-8.388707e-09	-2.876441e+01	-5.512113e+02
5.500000e-07	-4.002903e-06	-8.259054e-09	-2.782177e+01	-5.429570e+02
5.600000e-07	-3.865681e-06	-8.126956e-09	-2.686802e+01	-5.344386e+02
5.700000e-07	-3.726948e-06	-7.991559e-09	-2.590377e+01	-5.256522e+02
5.800000e-07	-3.586641e-06	-7.853574e-09	-2.492858e+01	-5.165972e+02
5.900000e-07	-3.444784e-06	-7.714738e-09	-2.394262e+01	-5.072747e+02
6.000000e-07	-3.301489e-06	-7.570527e-09	-2.294666e+01	-4.976842e+02
6.100000e-07	-3.156954e-06	-7.417818e-09	-2.194209e+01	-4.878213e+02
6.200000e-07	-3.011266e-06	-7.257840e-09	-2.092950e+01	-4.776756e+02
6.300000e-07	-2.864533e-06	-7.096755e-09	-1.990965e+01	-4.672307e+02
6.400000e-07	-2.716870e-06	-6.934208e-09	-1.888333e+01	-4.564654e+02
6.500000e-07	-2.568324e-06	-6.765035e-09	-1.785087e+01	-4.453570e+02
6.600000e-07	-2.418968e-06	-6.588110e-09	-1.681279e+01	-4.338842e+02
6.700000e-07	-2.268827e-06	-6.405110e-09	-1.576925e+01	-4.220310e+02
6.800000e-07	-2.117856e-06	-6.218355e-09	-1.471994e+01	-4.097878e+02
6.900000e-07	-1.966072e-06	-6.025959e-09	-1.366498e+01	-3.971507e+02
7.000000e-07	-1.813583e-06	-5.829238e-09	-1.260513e+01	-3.841194e+02
7.100000e-07	-1.660478e-06	-5.626735e-09	-1.154098e+01	-3.706925e+02
7.200000e-07	-1.506798e-06	-5.416651e-09	-1.047285e+01	-3.568630e+02
7.300000e-07	-1.352600e-06	-5.198511e-09	-9.401106e+00	-3.426150e+02
7.400000e-07	-1.197949e-06	-4.971899e-09	-8.326224e+00	-3.279218e+02
7.500000e-07	-1.042879e-06	-4.738518e-09	-7.248424e+00	-3.127474e+02
7.600000e-07	-8.874071e-07	-4.496499e-09	-6.167833e+00	-2.970503e+02
7.700000e-07	-7.315760e-07	-4.245657e-09	-5.084745e+00	-2.807882e+02
7.800000e-07	-5.754744e-07	-3.988882e-09	-3.999776e+00	-2.639233e+02
7.900000e-07	-4.192080e-07	-3.726889e-09	-2.913662e+00	-2.464254e+02
8.000000e-07	-2.628273e-07	-3.457742e-09	-1.826754e+00	-2.282716e+02
8.100000e-07	-1.062906e-07	-3.172773e-09	-7.387622e-01	-2.094429e+02
8.200000e-07	5.033138e-08	-2.870776e-09	3.498231e-01	-1.899173e+02
8.300000e-07	2.069447e-07	-2.556380e-09	1.438348e+00	-1.696617e+02
8.400000e-07	3.634692e-07	-2.231236e-09	2.526256e+00	-1.486260e+02
8.500000e-07	5.198781e-07	-1.895332e-09	3.613360e+00	-1.267402e+02
8.600000e-07	6.761884e-07	-1.546847e-09	4.699779e+00	-1.039183e+02
8.700000e-07	8.323432e-07	-1.184876e-09	5.785116e+00	-8.006897e+01
8.800000e-07	9.882270e-07	-8.058821e-10	6.868571e+00	-5.511314e+01
8.900000e-07	1.143698e-06	-4.109765e-10	7.949158e+00	-2.900484e+01
9.000000e-07	1.298744e-06	1.524773e-12	9.026786e+00	-1.752890e+00
9.100000e-07	1.453387e-06	4.323859e-10	1.010162e+01	2.656172e+01
9.200000e-07	1.607597e-06	8.776647e-10	1.117344e+01	5.577642e+01
9.300000e-07	1.761201e-06	1.335045e-09	1.224105e+01	8.564852e+01
9.400000e-07	1.914061e-06	1.799303e-09	1.330348e+01	1.158684e+02
9.500000e-07	2.066097e-06	2.261287e-09	1.436020e+01	1.460833e+02
9.600000e-07	2.217286e-06	2.714190e-09	1.541102e+01	1.759277e+02
9.700000e-07	2.367628e-06	3.154030e-09	1.645596e+01	2.050568e+02
9.800000e-07	2.517068e-06	3.578798e-09	1.749462e+01	2.331766e+02
9.900000e-07	2.665590e-06	3.986152e-09	1.852691e+01	2.600663e+02
1.000000e-06	2.813123e-06	4.371164e-09	1.955232e+01	2.855900e+02
1.010000e-06	2.959723e-06	4.734640e-09	2.057125e+01	3.096970e+02
1.020000e-06	3.105252e-06	5.080693e-09	2.158273e+01	3.324099e+02
1.030000e-06	3.249526e-06	5.407181e-09	2.258550e+01	3.538062e+02
1.040000e-06	3.392583e-06	5.713847e-09	2.357980e+01	3.739945e+02
1.050000e-06	3.534335e-06	6.004671e-09	2.456504e+01	3.930928e+02
1.060000e-06	3.674741e-06	6.282140e-09	2.554091e+01	4.112098e+02
1.070000e-06	3.813759e-06	6.544562e-09	2.650715e+01	4.284340e+02
1.080000e-06	3.951277e-06	6.790601e-09	2.746295e+01	4.448295e+02
1.090000e-06	4.087224e-06	7.025262e-09	2.840783e+01	4.604392e+02
1.100000e-06	4.221666e-06	7.249008e-09	2.934226e+01	4.752923e+02
1.110000e-06	4.354682e-06	7.460688e-09	3.026677e+01	4.894129e+02
1.120000e-06	4.486229e-06	7.663625e-09	3.118108e+01	5.028283e+02
1.130000e-06	4.616224e-06	7.858645e-09	3.208459e+01	5.155741e+02
1.140000e-06	4.744582e-06	8.043256e-09	3.297673e+01	5.276951e+02
1.150000e-06	4.871217e-06	8.217099e-09	3.385689e+01	5.392427e+02
1.160000e-06	4.996208e-06	8.383469e-09	3.472563e+01	5.502697e+02
1.170000e-06	5.119588e-06	8.542826e-09	3.558317e+01	5.608240e+02
1.180000e-06	5.241118e-06	8.695819e-09	3.642785e+01	5.709438e+02
1.190000e-06	5.360705e-06	8.843962e-09	3.725903e+01	5.806542e+02
1.200000e-06	5.478354e-06	8.984828e-09	3.807674e+01	5.899674e+02
1.210000e-06	5.593869e-06	9.121305e-09	3.887961e+01	5.988851e+02
1.220000e-06	5.707098e-06	9.252610e-09	3.966660e+01	6.074033e+02
1.230000e-06	5.818111e-06	9.378500e-09	4.043819e+01	6.155172e+02
1.240000e-06	5.927152e-06	9.496209e-09	4.119607e+01	6.232265e+02
1.250000e-06	6.034186e-06	9.604660e-09	4.193999e+01	6.305380e+02
1.260000e-06	6.139008e-06	9.707945e-09	4.266855e+01	6.374671e+02
1.270000e-06	6.241528e-06	9.805308e-09	4.338110e+01	6.440372e+02
1.280000e-06	6.341776e-06	9.897930e-09	4.407787e+01	6.502769e+02
1.290000e-06	6.439684e-06	9.986897e-09	4.475837e+01	6.562171e+02
1.300000e-06	6.535098e-06	1.007341e-08	4.542153e+01	6.618881e+02
1.310000e-06	6.628193e-06	1.015732e-08	4.606858e+01	6.673168e+02
1.320000e-06	6.718916e-06	1.023806e-08	4.669914e+01	6.725254e+02
1.330000e-06	6.807147e-06	1.031478e-08	4.731238e+01	6.775307e+02
1.340000e-06	6.893018e-06	1.038694e-08	4.790922e+01	6.823451e+02
1.350000e-06	6.976536e-06	1.045511e-08	4.848970e+01	6.869764e+02
1.360000e-06	7.057573e-06	1.052037e-08	4.905294e+01	6.914296e+02
1.370000e-06	7.135996e-06	1.058521e-08	4.959801e+01	6.957070e+02
1.380000e-06	7.211815e-06	1.064706e-08	5.012498e+01	6.998089e+02
1.390000e-06	7.284955e-06	1.070483e-08	5.063334e+01	7.037338e+02
1.400000e-06	7.355372e-06	1.076032e-08	5.112276e+01	7.074784e+02
1.410000e-06	7.423130e-06	1.081497e-08	5.159371e+01	7.110386e+02
1.420000e-06	7.488212e-06	1.086719e-08	5.204605e+01	7.144092e+02
1.430000e-06	7.550764e-06	1.091442e-08	5.248082e+01	7.175857e+02
1.440000e-06	7.610846e-06	1.095867e-08	5.289841e+01	7.205643e+02
1.450000e-06	7.668247e-06	1.099957e-08	5.329737e+01	7.233434e+02
1.460000e-06	7.722901e-06	1.103734e-08	5.367724e+01	7.259240e+02
1.470000e-06	7.774537e-06	1.107402e-08	5.403613e+01	7.283096e+02
1.480000e-06	7.822951e-06	1.110919e-08	5.437262e+01	7.305060e+02
1.490000e-06	7.868475e-06	1.114003e-08	5.468903e+01	7.325206e+02
1.500000e-06	7.911253e-06	1.116589e-08	5.498635e+01	7.343616e+02
1.510000e-06	7.951148e-06	1.118936e-08	5.526364e+01	7.360367e+02
1.520000e-06	7.988258e-06	1.121280e-08	5.552157e+01	7.375530e+02
1.530000e-06	8.022621e-06	1.123430e-08	5.576041e+01	7.389161e+02
1.540000e-06	8.054066e-06	1.125246e-08	5.597896e+01	7.401309e+02
1.550000e-06	8.082667e-06	1.126659e-08	5.617775e+01	7.412013e+02
1.560000e-06	8.108426e-06	1.127878e-08	5.635679e+01	7.421310e+02
1.570000e-06	8.131215e-06	1.129200e-08	5.651518e+01	7.429241e+02
1.580000e-06	8.151131e-06	1.130391e-08	5.665360e+01	7.435852e+02
1.590000e-06	8.168111e-06	1.131317e-08	5.677162e+01	7.441197e+02
1.600000e-06	8.182022e-06	1.131979e-08	5.686831e+01	7.445329e+02
1.610000e-06	8.192763e-06	1.132441e-08	5.694296e+01	7.448301e+02
1.620000e-06	8.200374e-06	1.132695e-08	5.699586e+01	7.450157e+02
1.630000e-06	8.205106e-06	1.132801e-08	5.702875e+01	7.450925e+02
1.640000e-06	8.206940e-06	1.132897e-08	5.704150e+01	7.450614e+02
1.650000e-06	8.205844e-06	1.132682e-08	5.703388e+01	7.449216e+02
1.660000e-06	8.201983e-06	1.132018e-08	5.700705e+01	7.446703e+02
1.670000e-06	8.195343e-06	1.131353e-08	5.696089e+01	7.443041e+02
1.680000e-06	8.185990e-06	1.130753e-08	5.689589e+01	7.438195e+02
1.690000e-06	8.173895e-06	1.130086e-08	5.681182e+01	7.432144e+02
1.700000e-06	8.158898e-06	1.129276e-08	5.670759e+01	7.424889e+02
1.710000e-06	8.141273e-06	1.128284e-08	5.658509e+01	7.416468e+02
1.720000e-06	8.121299e-06	1.126595e-08	5.644626e+01	7.406954e+02
1.730000e-06	8.098654e-06	1.123161e-08	5.628886e+01	7.396460e+02
1.740000e-06	8.072653e-06	1.120622e-08	5.610815e+01	7.385123e+02
1.750000e-06	8.042872e-06	1.120123e-08	5.590116e+01	7.373090e+02
1.760000e-06	8.009736e-06	1.119181e-08	5.567085e+01	7.360497e+02
1.770000e-06	7.974079e-06	1.117950e-08	5.542302e+01	7.347436e+02
1.780000e-06	7.936085e-06	1.117319e-08	5.515895e+01	7.333940e+02
1.790000e-06	7.895871e-06	1.115422e-08	5.487944e+01	7.319960e+02
1.800000e-06	7.853609e-06	1.111471e-08	5.458571e+01	7.305363e+02
1.810000e-06	7.808782e-06	1.110890e-08	5.427414e+01	7.289940e+02
1.820000e-06	7.761114e-06	1.109521e-08	5.394283e+01	7.273429e+02
1.830000e-06	7.710614e-06	1.106896e-08	5.359183e+01	7.255551e+02
1.840000e-06	7.656915e-06	1.106382e-08	5.321861e+01	7.236050e+02
1.850000e-06	7.600303e-06	1.102312e-08	5.282513e+01	7.214734e+02
1.860000e-06	7.541050e-06	1.097860e-08	5.241329e+01	7.191498e+02
1.870000e-06	7.479018e-06	1.091699e-08	5.198215e+01	7.166342e+02
1.880000e-06	7.414184e-06	1.087445e-08	5.153153e+01	7.139359e+02
1.890000e-06	7.346453e-06	1.085800e-08	5.106077e+01	7.110714e+02
1.900000e-06	7.275860e-06	1.080316e-08	5.057012e+01	7.080602e+02
1.910000e-06	7.202382e-06	1.075517e-08	5.005942e+01	7.049205e+02
1.920000e-06	7.126149e-06	1.070785e-08	4.952957e+01	7.016651e+02
1.930000e-06	7.047202e-06	1.066043e-08	4.898086e+01	6.982993e+02
1.940000e-06	6.965522e-06	1.060266e-08	4.841315e+01	6.948196e+02
1.950000e-06	6.881329e-06	1.054712e-08	4.782797e+01	6.912155e+02
1.960000e-06	6.794544e-06	1.049992e-08	4.722478e+01	6.874722e+02
1.970000e-06	6.705202e-06	1.043063e-08	4.660382e+01	6.835746e+02
1.980000e-06	6.613505e-06	1.036687e-08	4.596649e+01	6.795109e+02
1.990000e-06	6.519528e-06	1.030837e-08	4.531332e+01	6.752751e+02
2.000000e-06	6.423238e-06	1.025006e-08	4.464406e+01	6.708685e+02
2.010000e-06	6.324690e-06	1.017327e-08	4.395911e+01	6.662982e+02
2.020000e-06	6.223905e-06	1.009556e-08	4.325861e+01	6.615749e+02
2.030000e-06	6.120743e-06	1.002951e-08	4.254160e+01	6.567093e+02
2.040000e-06	6.015379e-06	9.961802e-09	4.180928e+01	6.517087e+02
2.050000e-06	5.907990e-06	9.887238e-09	4.106288e+01	6.465747e+02
2.060000e-06	5.798637e-06	9.801888e-09	4.030283e+01	6.413021e+02
2.070000e-06	5.687225e-06	9.716171e-09	3.952848e+01	6.358796e+02
2.080000e-06	5.573658e-06	9.622042e-09	3.873914e+01	6.302921e+02
2.090000e-06	5.457863e-06	9.529010e-09	3.793432e+01	6.245238e+02
2.100000e-06	5.339892e-06	9.441820e-09	3.711437e+01	6.185609e+02
2.110000e-06	5.219956e-06	9.356281e-09	3.628077e+01	6.123938e+02
2.120000e-06	5.098171e-06	9.258814e-09	3.543432e+01	6.060175e+02
2.130000e-06	4.974576e-06	9.157343e-09	3.457528e+01	5.994306e+02
2.140000e-06	4.849237e-06	9.060158e-09	3.370412e+01	5.926339e+02
2.150000e-06	4.722119e-06	8.959156e-09	3.282061e+01	5.856271e+02
2.160000e-06	4.593209e-06	8.847817e-09	3.192463e+01	5.784075e+02
2.170000e-06	4.462711e-06	8.728579e-09	3.101761e+01	5.709686e+02
2.180000e-06	4.330577e-06	8.609091e-09	3.009924e+01	5.633004e+02
2.190000e-06	4.196850e-06	8.486631e-09	2.916977e+01	5.553911e+02
2.200000e-06	4.061528e-06	8.364020e-09	2.822924e+01	5.472291e+02
2.210000e-06	3.924615e-06	8.242004e-09	2.727764e+01	5.388054e+02
2.220000e-06	3.786186e-06	8.115474e-09	2.631550e+01	5.301145e+02
2.230000e-06	3.646263e-06	7.977993e-09	2.534298e+01	5.211551e+02
2.240000e-06	3.504948e-06	7.836592e-09	2.436078e+01	5.119277e+02
2.250000e-06	3.362314e-06	7.694185e-09	2.336942e+01	5.024328e+02
2.260000e-06	3.218358e-06	7.547576e-09	2.236887e+01	4.926677e+02
2.270000e-06	3.073119e-06	7.393458e-09	2.135940e+01	4.826243e+02
2.280000e-06	2.926841e-06	7.232773e-09	2.034271e+01	4.722881e+02
2.290000e-06	2.779553e-06	7.069133e-09	1.931900e+01	4.616396e+02
2.300000e-06	2.631226e-06	6.901561e-09	1.828807e+01	4.506559e+02
2.310000e-06	2.481994e-06	6.729682e-09	1.725085e+01	4.393151e+02
2.320000e-06	2.331949e-06	6.553989e-09	1.620797e+01	4.275989e+02
2.330000e-06	2.181069e-06	6.373125e-09	1.515930e+01	4.154953e+02
2.340000e-06	2.029443e-06	6.185401e-09	1.410543e+01	4.029987e+02
2.350000e-06	1.877180e-06	5.990120e-09	1.304715e+01	3.901079e+02
2.360000e-06	1.724267e-06	5.786623e-09	1.198434e+01	3.768224e+02
2.370000e-06	1.570818e-06	5.574504e-09	1.091781e+01	3.631376e+02
2.380000e-06	1.416928e-06	5.356400e-09	9.848211e+00	3.490412e+02
2.390000e-06	1.262619e-06	5.133587e-09	8.775702e+00	3.345104e+02
2.400000e-06	1.107883e-06	4.905008e-09	7.700225e+00	3.195121e+02
2.410000e-06	9.527440e-07	4.670650e-09	6.621950e+00	3.040063e+02
2.420000e-06	7.972761e-07	4.428508e-09	5.541386e+00	2.879503e+02
2.430000e-06	6.414864e-07	4.176540e-09	4.458585e+00	2.713042e+02
2.440000e-06	4.854341e-07	3.913440e-09	3.373960e+00	2.540350e+02
2.450000e-06	3.292250e-07	3.640363e-09	2.288245e+00	2.361174e+02
2.460000e-06	1.729045e-07	3.356874e-09	1.201755e+00	2.175316e+02
2.470000e-06	1.646310e-08	3.061079e-09	1.144251e-01	1.982576e+02
2.480000e-06	-1.400452e-07	2.754545e-09	-9.733700e-01	1.782671e+02
2.490000e-06	-2.964760e-07	2.439621e-09	-2.060626e+00	1.575168e+02
2.500000e-06	-4.527611e-07	2.111715e-09	-3.146870e+00	1.359434e+02
2.510000e-06	-6.089372e-07	1.766002e-09	-4.232356e+00	1.134660e+02
2.520000e-06	-7.649260e-07	1.405037e-09	-5.316540e+00	8.999344e+01
2.530000e-06	-9.206206e-07	1.031991e-09	-6.398680e+00	6.543993e+01
2.540000e-06	-1.076026e-06	6.447418e-10	-7.478806e+00	3.974516e+01
2.550000e-06	-1.231089e-06	2.390015e-10	-8.556561e+00	1.289607e+01
2.560000e-06	-1.385711e-06	-1.871651e-10	-9.631244e+00	-1.505370e+01
2.570000e-06	-1.539799e-06	-6.321057e-10	-1.070222e+01	-4.397114e+01
2.580000e-06	-1.693344e-06	-1.089136e-09	-1.176941e+01	-7.364127e+01
2.590000e-06	-1.846348e-06	-1.551555e-09	-1.283285e+01	-1.037762e+02
2.600000e-06	-1.998614e-06	-2.014236e-09	-1.389116e+01	-1.340351e+02
2.610000e-06	-2.150047e-06	-2.473965e-09	-1.494368e+01	-1.640535e+02
2.620000e-06	-2.300772e-06	-2.925558e-09	-1.599128e+01	-1.934755e+02
2.630000e-06	-2.450639e-06	-3.361476e-09	-1.703292e+01	-2.219856e+02
2.640000e-06	-2.599468e-06	-3.777388e-09	-1.806734e+01	-2.493350e+02
2.650000e-06	-2.747326e-06	-4.173399e-09	-1.909501e+01	-2.753570e+02
2.660000e-06	-2.894179e-06	-4.552319e-09	-2.011570e+01	-2.999712e+02
2.670000e-06	-3.040003e-06	-4.912705e-09	-2.112923e+01	-3.231758e+02
2.680000e-06	-3.184700e-06	-5.249898e-09	-2.213493e+01	-3.450313e+02
2.690000e-06	-3.328158e-06	-5.565815e-09	-2.313202e+01	-3.656378e+02
2.700000e-06	-3.470292e-06	-5.865338e-09	-2.411991e+01	-3.851125e+02
2.710000e-06	-3.611035e-06	-6.148742e-09	-2.509813e+01	-4.035690e+02
2.720000e-06	-3.750450e-06	-6.416920e-09	-2.606712e+01	-4.211037e+02
2.730000e-06	-3.888427e-06	-6.671684e-09	-2.702612e+01	-4.377896e+02
2.740000e-06	-4.024918e-06	-6.912121e-09	-2.797478e+01	-4.536764e+02
2.750000e-06	-4.160067e-06	-7.142457e-09	-2.891412e+01	-4.687973e+02
2.760000e-06	-4.293740e-06	-7.364271e-09	-2.984320e+01	-4.831770e+02
2.770000e-06	-4.425796e-06	-7.576108e-09	-3.076105e+01	-4.968410e+02
2.780000e-06	-4.556368e-06	-7.778668e-09	-3.166857e+01	-5.098216e+02
2.790000e-06	-4.685388e-06	-7.970844e-09	-3.256531e+01	-5.221604e+02
2.800000e-06	-4.812760e-06	-8.153907e-09	-3.345060e+01	-5.339070e+02
2.810000e-06	-4.938425e-06	-8.326133e-09	-3.432402e+01	-5.451143e+02
2.820000e-06	-5.062381e-06	-8.488787e-09	-3.518556e+01	-5.558328e+02
2.830000e-06	-5.184668e-06	-8.644508e-09	-3.603551e+01	-5.661046e+02
2.840000e-06	-5.305081e-06	-8.793515e-09	-3.687242e+01	-5.759595e+02
2.850000e-06	-5.423345e-06	-8.936086e-09	-3.769440e+01	-5.854142e+02
2.860000e-06	-5.539399e-06	-9.071760e-09	-3.850103e+01	-5.944738e+02
2.870000e-06	-5.653211e-06	-9.202332e-09	-3.929206e+01	-6.031356e+02
2.880000e-06	-5.764744e-06	-9.328868e-09	-4.006727e+01	-6.113946e+02
2.890000e-06	-5.874180e-06	-9.452688e-09	-4.082789e+01	-6.192484e+02
2.900000e-06	-5.981637e-06	-9.571271e-09	-4.157476e+01	-6.267009e+02
2.910000e-06	-6.087018e-06	-9.681962e-09	-4.230720e+01	-6.337646e+02
2.920000e-06	-6.190122e-06	-9.785467e-09	-4.302381e+01	-6.404602e+02
2.930000e-06	-6.290855e-06	-9.882889e-09	-4.372394e+01	-6.468147e+02
2.940000e-06	-6.389342e-06	-9.974411e-09	-4.440847e+01	-6.528587e+02
