# Temperatura_=_28.98
# Concentracion g/m^3_=_15000.0
# C_Vs_to_Am_M_A/Vsm_=_65563218390.804596
# pendiente_HvsI_1/m_=_3716.3
# ordenada_HvsI_A/m_=_1297.0
# frecuencia_Hz_=_302340.2385834736

Tiempo_(s)	Campo_(V.s)	Magnetizacion_(V.s)	Campo_(kA/m)	Magnetizacion_(A/m)
0.000000e+00	-8.154417e-06	-1.059888e-08	-5.691886e+01	-6.927565e+02
1.000000e-08	-8.151979e-06	-1.060678e-08	-5.690184e+01	-6.926209e+02
2.000000e-08	-8.146842e-06	-1.060352e-08	-5.686599e+01	-6.923894e+02
3.000000e-08	-8.139159e-06	-1.059716e-08	-5.681235e+01	-6.920520e+02
4.000000e-08	-8.128598e-06	-1.059091e-08	-5.673864e+01	-6.916001e+02
5.000000e-08	-8.115032e-06	-1.057726e-08	-5.664394e+01	-6.910300e+02
6.000000e-08	-8.098542e-06	-1.055725e-08	-5.652885e+01	-6.903442e+02
7.000000e-08	-8.079494e-06	-1.053666e-08	-5.639589e+01	-6.895534e+02
8.000000e-08	-8.058142e-06	-1.051163e-08	-5.624685e+01	-6.886749e+02
9.000000e-08	-8.034049e-06	-1.058413e-08	-5.607868e+01	-6.877304e+02
1.000000e-07	-8.006771e-06	-1.059118e-08	-5.588828e+01	-6.867428e+02
1.100000e-07	-7.976351e-06	-1.050439e-08	-5.567594e+01	-6.857318e+02
1.200000e-07	-7.942917e-06	-1.047480e-08	-5.544256e+01	-6.847095e+02
1.300000e-07	-7.906606e-06	-1.045467e-08	-5.518911e+01	-6.836785e+02
1.400000e-07	-7.867849e-06	-1.041278e-08	-5.491858e+01	-6.826297e+02
1.500000e-07	-7.826825e-06	-1.034209e-08	-5.463222e+01	-6.815438e+02
1.600000e-07	-7.783422e-06	-1.043124e-08	-5.432927e+01	-6.803933e+02
1.700000e-07	-7.737330e-06	-1.041684e-08	-5.400754e+01	-6.791466e+02
1.800000e-07	-7.688316e-06	-1.025487e-08	-5.366541e+01	-6.777725e+02
1.900000e-07	-7.636380e-06	-1.039122e-08	-5.330290e+01	-6.762450e+02
2.000000e-07	-7.581517e-06	-1.031166e-08	-5.291995e+01	-6.745462e+02
2.100000e-07	-7.523789e-06	-1.019311e-08	-5.251700e+01	-6.726688e+02
2.200000e-07	-7.463375e-06	-1.021804e-08	-5.209530e+01	-6.706158e+02
2.300000e-07	-7.400355e-06	-1.016256e-08	-5.165541e+01	-6.683990e+02
2.400000e-07	-7.334578e-06	-1.018439e-08	-5.119628e+01	-6.660359e+02
2.500000e-07	-7.265981e-06	-1.008922e-08	-5.071747e+01	-6.635454e+02
2.600000e-07	-7.194611e-06	-1.009620e-08	-5.021929e+01	-6.609447e+02
2.700000e-07	-7.120314e-06	-1.005158e-08	-4.970069e+01	-6.582453e+02
2.800000e-07	-7.043118e-06	-9.985018e-09	-4.916185e+01	-6.554517e+02
2.900000e-07	-6.963181e-06	-9.931337e-09	-4.860389e+01	-6.525611e+02
3.000000e-07	-6.880693e-06	-9.894913e-09	-4.802810e+01	-6.495643e+02
3.100000e-07	-6.795859e-06	-9.900808e-09	-4.743596e+01	-6.464485e+02
3.200000e-07	-6.708604e-06	-9.776207e-09	-4.682690e+01	-6.432005e+02
3.300000e-07	-6.618907e-06	-9.731566e-09	-4.620081e+01	-6.398091e+02
3.400000e-07	-6.526844e-06	-9.705113e-09	-4.555820e+01	-6.362679e+02
3.500000e-07	-6.432444e-06	-9.641041e-09	-4.489927e+01	-6.325758e+02
3.600000e-07	-6.335696e-06	-9.561098e-09	-4.422396e+01	-6.287370e+02
3.700000e-07	-6.236647e-06	-9.512187e-09	-4.353258e+01	-6.247588e+02
3.800000e-07	-6.135339e-06	-9.473656e-09	-4.282544e+01	-6.206497e+02
3.900000e-07	-6.031796e-06	-9.380167e-09	-4.210270e+01	-6.164162e+02
4.000000e-07	-5.926098e-06	-9.312901e-09	-4.136491e+01	-6.120604e+02
4.100000e-07	-5.818297e-06	-9.255103e-09	-4.061245e+01	-6.075791e+02
4.200000e-07	-5.708488e-06	-9.193959e-09	-3.984597e+01	-6.029633e+02
4.300000e-07	-5.596638e-06	-9.100326e-09	-3.906524e+01	-5.981996e+02
4.400000e-07	-5.482607e-06	-9.024452e-09	-3.826929e+01	-5.932723e+02
4.500000e-07	-5.366418e-06	-8.961460e-09	-3.745828e+01	-5.881657e+02
4.600000e-07	-5.248220e-06	-8.885044e-09	-3.663324e+01	-5.828668e+02
4.700000e-07	-5.128163e-06	-8.785681e-09	-3.579522e+01	-5.773664e+02
4.800000e-07	-5.006329e-06	-8.694508e-09	-3.494481e+01	-5.716596e+02
4.900000e-07	-4.882664e-06	-8.613841e-09	-3.408161e+01	-5.657452e+02
5.000000e-07	-4.757229e-06	-8.519305e-09	-3.320606e+01	-5.596236e+02
5.100000e-07	-4.630131e-06	-8.420321e-09	-3.231890e+01	-5.532955e+02
5.200000e-07	-4.501300e-06	-8.314681e-09	-3.141964e+01	-5.467593e+02
5.300000e-07	-4.370769e-06	-8.212945e-09	-3.050852e+01	-5.400106e+02
5.400000e-07	-4.238613e-06	-8.101529e-09	-2.958605e+01	-5.330418e+02
5.500000e-07	-4.104892e-06	-7.994149e-09	-2.865266e+01	-5.258432e+02
5.600000e-07	-3.969617e-06	-7.882713e-09	-2.770843e+01	-5.184043e+02
5.700000e-07	-3.832775e-06	-7.769771e-09	-2.675325e+01	-5.107158e+02
5.800000e-07	-3.694442e-06	-7.643097e-09	-2.578767e+01	-5.027708e+02
5.900000e-07	-3.554564e-06	-7.512638e-09	-2.481130e+01	-4.945652e+02
6.000000e-07	-3.413149e-06	-7.383167e-09	-2.382421e+01	-4.860969e+02
6.100000e-07	-3.270342e-06	-7.249469e-09	-2.282740e+01	-4.773645e+02
6.200000e-07	-3.126328e-06	-7.110900e-09	-2.182216e+01	-4.683645e+02
6.300000e-07	-2.981143e-06	-6.966358e-09	-2.080875e+01	-4.590900e+02
6.400000e-07	-2.834820e-06	-6.824526e-09	-1.978740e+01	-4.495288e+02
6.500000e-07	-2.687577e-06	-6.673655e-09	-1.875963e+01	-4.396637e+02
6.600000e-07	-2.539481e-06	-6.519686e-09	-1.772590e+01	-4.294737e+02
6.700000e-07	-2.390539e-06	-6.355927e-09	-1.668626e+01	-4.189364e+02
6.800000e-07	-2.240775e-06	-6.186858e-09	-1.564089e+01	-4.080308e+02
6.900000e-07	-2.090278e-06	-6.013256e-09	-1.459040e+01	-3.967397e+02
7.000000e-07	-1.939090e-06	-5.834789e-09	-1.353509e+01	-3.850511e+02
7.100000e-07	-1.787195e-06	-5.652406e-09	-1.247485e+01	-3.729582e+02
7.200000e-07	-1.634633e-06	-5.460429e-09	-1.140994e+01	-3.604577e+02
7.300000e-07	-1.481435e-06	-5.263659e-09	-1.034061e+01	-3.475470e+02
7.400000e-07	-1.327722e-06	-5.059709e-09	-9.267670e+00	-3.342205e+02
7.500000e-07	-1.173610e-06	-4.851620e-09	-8.191943e+00	-3.204675e+02
7.600000e-07	-1.019178e-06	-4.636907e-09	-7.113990e+00	-3.062704e+02
7.700000e-07	-8.644348e-07	-4.415565e-09	-6.033864e+00	-2.916052e+02
7.800000e-07	-7.093333e-07	-4.183201e-09	-4.951236e+00	-2.764435e+02
7.900000e-07	-5.539576e-07	-3.943023e-09	-3.866694e+00	-2.607554e+02
8.000000e-07	-3.984013e-07	-3.695733e-09	-2.780892e+00	-2.445124e+02
8.100000e-07	-2.427290e-07	-3.438090e-09	-1.694279e+00	-2.276892e+02
8.200000e-07	-8.692364e-08	-3.170945e-09	-6.067380e-01	-2.102635e+02
8.300000e-07	6.902256e-08	-2.896225e-09	4.817862e-01	-1.922135e+02
8.400000e-07	2.250123e-07	-2.615295e-09	1.570615e+00	-1.735137e+02
8.500000e-07	3.808933e-07	-2.320460e-09	2.658684e+00	-1.541305e+02
8.600000e-07	5.366077e-07	-2.013135e-09	3.745590e+00	-1.340186e+02
8.700000e-07	6.922176e-07	-1.693373e-09	4.831766e+00	-1.131212e+02
8.800000e-07	8.475507e-07	-1.361735e-09	5.916011e+00	-9.137382e+01
8.900000e-07	1.002512e-06	-1.014514e-09	6.997659e+00	-6.871414e+01
9.000000e-07	1.157172e-06	-6.547976e-10	8.077209e+00	-4.509504e+01
9.100000e-07	1.311498e-06	-2.809364e-10	9.154423e+00	-2.050076e+01
9.200000e-07	1.465439e-06	1.090146e-10	1.022895e+01	5.037691e+00
9.300000e-07	1.618891e-06	5.095803e-10	1.130007e+01	3.143061e+01
9.400000e-07	1.771739e-06	9.206630e-10	1.236696e+01	5.852422e+01
9.500000e-07	1.923899e-06	1.337434e-09	1.342906e+01	8.610359e+01
9.600000e-07	2.075266e-06	1.760345e-09	1.448562e+01	1.139046e+02
9.700000e-07	2.225791e-06	2.181933e-09	1.553630e+01	1.416333e+02
9.800000e-07	2.375445e-06	2.596300e-09	1.658090e+01	1.689905e+02
9.900000e-07	2.524181e-06	3.003116e-09	1.761910e+01	1.956975e+02
1.000000e-06	2.672016e-06	3.396476e-09	1.865101e+01	2.215190e+02
1.010000e-06	2.818894e-06	3.773465e-09	1.967624e+01	2.462794e+02
1.020000e-06	2.964763e-06	4.131150e-09	2.069442e+01	2.698712e+02
1.030000e-06	3.109547e-06	4.471908e-09	2.170503e+01	2.922532e+02
1.040000e-06	3.253126e-06	4.794058e-09	2.270723e+01	3.134412e+02
1.050000e-06	3.395439e-06	5.097948e-09	2.370059e+01	3.334916e+02
1.060000e-06	3.536426e-06	5.385608e-09	2.468470e+01	3.524841e+02
1.070000e-06	3.675983e-06	5.658273e-09	2.565883e+01	3.705040e+02
1.080000e-06	3.814156e-06	5.917722e-09	2.662329e+01	3.876293e+02
1.090000e-06	3.950923e-06	6.164648e-09	2.757794e+01	4.039228e+02
1.100000e-06	4.086185e-06	6.402230e-09	2.852209e+01	4.194303e+02
1.110000e-06	4.220019e-06	6.625903e-09	2.945627e+01	4.341844e+02
1.120000e-06	4.352379e-06	6.835970e-09	3.038016e+01	4.482100e+02
1.130000e-06	4.483190e-06	7.036611e-09	3.129323e+01	4.615319e+02
1.140000e-06	4.612451e-06	7.227804e-09	3.219549e+01	4.741800e+02
1.150000e-06	4.740103e-06	7.407351e-09	3.308652e+01	4.861922e+02
1.160000e-06	4.866104e-06	7.578582e-09	3.396602e+01	4.976128e+02
1.170000e-06	4.990440e-06	7.743562e-09	3.483390e+01	5.084898e+02
1.180000e-06	5.113025e-06	7.903239e-09	3.568956e+01	5.188687e+02
1.190000e-06	5.233814e-06	8.057440e-09	3.653268e+01	5.287878e+02
1.200000e-06	5.352660e-06	8.204720e-09	3.736224e+01	5.382741e+02
1.210000e-06	5.469452e-06	8.342679e-09	3.817746e+01	5.473427e+02
1.220000e-06	5.584206e-06	8.472745e-09	3.897846e+01	5.559981e+02
1.230000e-06	5.696798e-06	8.598709e-09	3.976437e+01	5.642386e+02
1.240000e-06	5.807215e-06	8.718303e-09	4.053509e+01	5.720618e+02
1.250000e-06	5.915573e-06	8.828969e-09	4.129145e+01	5.794695e+02
1.260000e-06	6.021851e-06	8.931561e-09	4.203328e+01	5.864719e+02
1.270000e-06	6.125887e-06	9.031628e-09	4.275946e+01	5.930890e+02
1.280000e-06	6.227679e-06	9.128053e-09	4.346998e+01	5.993500e+02
1.290000e-06	6.327225e-06	9.218707e-09	4.416483e+01	6.052899e+02
1.300000e-06	6.424355e-06	9.304983e-09	4.484281e+01	6.109459e+02
1.310000e-06	6.519073e-06	9.385999e-09	4.550396e+01	6.163524e+02
1.320000e-06	6.611523e-06	9.463258e-09	4.614927e+01	6.215377e+02
1.330000e-06	6.701642e-06	9.538881e-09	4.677831e+01	6.265221e+02
1.340000e-06	6.789273e-06	9.612172e-09	4.738998e+01	6.313176e+02
1.350000e-06	6.874537e-06	9.681775e-09	4.798514e+01	6.359291e+02
1.360000e-06	6.957461e-06	9.747155e-09	4.856396e+01	6.403568e+02
1.370000e-06	7.037826e-06	9.809378e-09	4.912492e+01	6.445986e+02
1.380000e-06	7.115570e-06	9.870418e-09	4.966758e+01	6.486522e+02
1.390000e-06	7.190689e-06	9.928455e-09	5.019191e+01	6.525162e+02
1.400000e-06	7.263115e-06	9.983717e-09	5.069746e+01	6.561905e+02
1.410000e-06	7.332947e-06	1.003604e-08	5.118489e+01	6.596759e+02
1.420000e-06	7.400226e-06	1.008472e-08	5.165451e+01	6.629731e+02
1.430000e-06	7.464810e-06	1.013164e-08	5.210531e+01	6.660821e+02
1.440000e-06	7.526785e-06	1.017484e-08	5.253791e+01	6.690023e+02
1.450000e-06	7.586248e-06	1.021546e-08	5.295297e+01	6.717325e+02
1.460000e-06	7.643013e-06	1.025078e-08	5.334920e+01	6.742722e+02
1.470000e-06	7.696995e-06	1.028309e-08	5.372600e+01	6.766227e+02
1.480000e-06	7.747899e-06	1.031617e-08	5.408131e+01	6.787875e+02
1.490000e-06	7.795650e-06	1.034866e-08	5.441462e+01	6.807729e+02
1.500000e-06	7.840675e-06	1.037788e-08	5.472890e+01	6.825877e+02
1.510000e-06	7.882935e-06	1.040174e-08	5.502388e+01	6.842417e+02
1.520000e-06	7.922297e-06	1.042243e-08	5.529863e+01	6.857447e+02
1.530000e-06	7.958959e-06	1.044157e-08	5.555454e+01	6.871047e+02
1.540000e-06	7.992838e-06	1.045955e-08	5.579102e+01	6.883276e+02
1.550000e-06	8.023788e-06	1.047527e-08	5.600705e+01	6.894164e+02
1.560000e-06	8.051997e-06	1.048783e-08	5.620396e+01	6.903726e+02
1.570000e-06	8.077264e-06	1.049895e-08	5.638032e+01	6.911970e+02
1.580000e-06	8.099454e-06	1.051054e-08	5.653521e+01	6.918915e+02
1.590000e-06	8.118895e-06	1.052025e-08	5.667091e+01	6.924600e+02
1.600000e-06	8.135472e-06	1.052720e-08	5.678662e+01	6.929095e+02
1.610000e-06	8.148940e-06	1.053288e-08	5.688063e+01	6.932491e+02
1.620000e-06	8.159165e-06	1.053775e-08	5.695200e+01	6.934891e+02
1.630000e-06	8.166273e-06	1.054088e-08	5.700162e+01	6.936389e+02
1.640000e-06	8.170586e-06	1.054294e-08	5.703172e+01	6.937049e+02
1.650000e-06	8.171987e-06	1.054550e-08	5.704150e+01	6.936892e+02
1.660000e-06	8.170555e-06	1.054028e-08	5.703150e+01	6.935887e+02
1.670000e-06	8.166536e-06	1.053012e-08	5.700345e+01	6.933959e+02
1.680000e-06	8.159728e-06	1.052791e-08	5.695593e+01	6.931012e+02
1.690000e-06	8.150115e-06	1.052358e-08	5.688883e+01	6.926950e+02
1.700000e-06	8.137743e-06	1.051677e-08	5.680247e+01	6.921713e+02
1.710000e-06	8.122560e-06	1.051562e-08	5.669649e+01	6.915301e+02
1.720000e-06	8.104823e-06	1.052169e-08	5.657269e+01	6.907788e+02
1.730000e-06	8.084715e-06	1.052043e-08	5.643233e+01	6.899322e+02
1.740000e-06	8.061870e-06	1.038958e-08	5.627287e+01	6.890108e+02
1.750000e-06	8.035559e-06	1.039730e-08	5.608922e+01	6.880375e+02
1.760000e-06	8.005391e-06	1.044744e-08	5.587864e+01	6.870336e+02
1.770000e-06	7.971913e-06	1.041050e-08	5.564496e+01	6.860148e+02
1.780000e-06	7.936074e-06	1.040576e-08	5.539480e+01	6.849876e+02
1.790000e-06	7.897940e-06	1.049948e-08	5.512861e+01	6.839475e+02
1.800000e-06	7.857645e-06	1.041265e-08	5.484735e+01	6.828790e+02
1.810000e-06	7.815406e-06	1.024410e-08	5.455252e+01	6.817575e+02
1.820000e-06	7.770428e-06	1.046271e-08	5.423857e+01	6.805523e+02
1.830000e-06	7.722597e-06	1.030383e-08	5.390470e+01	6.792317e+02
1.840000e-06	7.672000e-06	1.032512e-08	5.355153e+01	6.777670e+02
1.850000e-06	7.618215e-06	1.039341e-08	5.317610e+01	6.761369e+02
1.860000e-06	7.561599e-06	1.023996e-08	5.278091e+01	6.743298e+02
1.870000e-06	7.502283e-06	1.033603e-08	5.236688e+01	6.723447e+02
1.880000e-06	7.440226e-06	1.015414e-08	5.193372e+01	6.701904e+02
1.890000e-06	7.375427e-06	1.021174e-08	5.148141e+01	6.678824e+02
1.900000e-06	7.307705e-06	1.018109e-08	5.100870e+01	6.654396e+02
1.910000e-06	7.237106e-06	1.005588e-08	5.051591e+01	6.628804e+02
1.920000e-06	7.163649e-06	1.010583e-08	5.000318e+01	6.602187e+02
1.930000e-06	7.087532e-06	1.000951e-08	4.947187e+01	6.574620e+02
1.940000e-06	7.008626e-06	1.004721e-08	4.892109e+01	6.546102e+02
1.950000e-06	6.927001e-06	9.905620e-09	4.835134e+01	6.516565e+02
1.960000e-06	6.842892e-06	9.891719e-09	4.776425e+01	6.485890e+02
1.970000e-06	6.756100e-06	9.884163e-09	4.715843e+01	6.453944e+02
1.980000e-06	6.666789e-06	9.763219e-09	4.653503e+01	6.420603e+02
1.990000e-06	6.575201e-06	9.764084e-09	4.589574e+01	6.385783e+02
2.000000e-06	6.481355e-06	9.690890e-09	4.524067e+01	6.349452e+02
2.010000e-06	6.385158e-06	9.667633e-09	4.456921e+01	6.311632e+02
2.020000e-06	6.286724e-06	9.543214e-09	4.388213e+01	6.272387e+02
2.030000e-06	6.186048e-06	9.514948e-09	4.317940e+01	6.231800e+02
2.040000e-06	6.083048e-06	9.467330e-09	4.246044e+01	6.189947e+02
2.050000e-06	5.977895e-06	9.402846e-09	4.172646e+01	6.146870e+02
2.060000e-06	5.870750e-06	9.331238e-09	4.097858e+01	6.102556e+02
2.070000e-06	5.761651e-06	9.240999e-09	4.021705e+01	6.056940e+02
2.080000e-06	5.650462e-06	9.188271e-09	3.944094e+01	6.009901e+02
2.090000e-06	5.537120e-06	9.085712e-09	3.864979e+01	5.961290e+02
2.100000e-06	5.421617e-06	9.025979e-09	3.784357e+01	5.910945e+02
2.110000e-06	5.304067e-06	8.947668e-09	3.702306e+01	5.858725e+02
2.120000e-06	5.184502e-06	8.880827e-09	3.618848e+01	5.804520e+02
2.130000e-06	5.062988e-06	8.777534e-09	3.534029e+01	5.748265e+02
2.140000e-06	4.939674e-06	8.695924e-09	3.447955e+01	5.689935e+02
2.150000e-06	4.814536e-06	8.610640e-09	3.360607e+01	5.629531e+02
2.160000e-06	4.687634e-06	8.519527e-09	3.272028e+01	5.567061e+02
2.170000e-06	4.559022e-06	8.413885e-09	3.182255e+01	5.502519e+02
2.180000e-06	4.428817e-06	8.305773e-09	3.091370e+01	5.435874e+02
2.190000e-06	4.297049e-06	8.208342e-09	2.999394e+01	5.367061e+02
2.200000e-06	4.163674e-06	8.096924e-09	2.906297e+01	5.295989e+02
2.210000e-06	4.028780e-06	7.987353e-09	2.812140e+01	5.222556e+02
2.220000e-06	3.892358e-06	7.868940e-09	2.716915e+01	5.146660e+02
2.230000e-06	3.754335e-06	7.757894e-09	2.620574e+01	5.068224e+02
2.240000e-06	3.614849e-06	7.635241e-09	2.523210e+01	4.987194e+02
2.250000e-06	3.473979e-06	7.515147e-09	2.424881e+01	4.903544e+02
2.260000e-06	3.331770e-06	7.386460e-09	2.325618e+01	4.817259e+02
2.270000e-06	3.188375e-06	7.248054e-09	2.225526e+01	4.728316e+02
2.280000e-06	3.043717e-06	7.096403e-09	2.124553e+01	4.636660e+02
2.290000e-06	2.897835e-06	6.947504e-09	2.022726e+01	4.542191e+02
2.300000e-06	2.750909e-06	6.804512e-09	1.920169e+01	4.444757e+02
2.310000e-06	2.603084e-06	6.658529e-09	1.816986e+01	4.344159e+02
2.320000e-06	2.454445e-06	6.505879e-09	1.713233e+01	4.240177e+02
2.330000e-06	2.304887e-06	6.342732e-09	1.608840e+01	4.132590e+02
2.340000e-06	2.154487e-06	6.170679e-09	1.503859e+01	4.021210e+02
2.350000e-06	2.003469e-06	5.993783e-09	1.398446e+01	3.905895e+02
2.360000e-06	1.851849e-06	5.812524e-09	1.292614e+01	3.786559e+02
2.370000e-06	1.699603e-06	5.624135e-09	1.186344e+01	3.663158e+02
2.380000e-06	1.546785e-06	5.427008e-09	1.079675e+01	3.535665e+02
2.390000e-06	1.393452e-06	5.225971e-09	9.726470e+00	3.404042e+02
2.400000e-06	1.239582e-06	5.020759e-09	8.652439e+00	3.268204e+02
2.410000e-06	1.085202e-06	4.804206e-09	7.574850e+00	3.128002e+02
2.420000e-06	9.304350e-07	4.581823e-09	6.494554e+00	2.983221e+02
2.430000e-06	7.753882e-07	4.354425e-09	5.412307e+00	2.833590e+02
2.440000e-06	6.201376e-07	4.119404e-09	4.328639e+00	2.678811e+02
2.450000e-06	4.646811e-07	3.876414e-09	3.243533e+00	2.518593e+02
2.460000e-06	3.090551e-07	3.626107e-09	2.157243e+00	2.352667e+02
2.470000e-06	1.533224e-07	3.364223e-09	1.070210e+00	2.180802e+02
2.480000e-06	-2.504962e-09	3.087295e-09	-1.748495e-02	2.002781e+02
2.490000e-06	-1.583645e-07	2.800727e-09	-1.105404e+00	1.818370e+02
2.500000e-06	-3.141706e-07	2.508624e-09	-2.192950e+00	1.627269e+02
2.510000e-06	-4.698857e-07	2.207890e-09	-3.279861e+00	1.429073e+02
2.520000e-06	-6.255062e-07	1.897174e-09	-4.366112e+00	1.223259e+02
2.530000e-06	-7.809748e-07	1.575242e-09	-5.451302e+00	1.009202e+02
2.540000e-06	-9.361826e-07	1.235964e-09	-6.534673e+00	7.862563e+01
2.550000e-06	-1.091081e-06	8.777717e-10	-7.615883e+00	5.538735e+01
2.560000e-06	-1.245596e-06	5.063072e-10	-8.694414e+00	3.117531e+01
2.570000e-06	-1.399618e-06	1.221064e-10	-9.769511e+00	6.000464e+00
2.580000e-06	-1.553108e-06	-2.769378e-10	-1.084089e+01	-2.007161e+01
2.590000e-06	-1.705965e-06	-6.892358e-10	-1.190785e+01	-4.691244e+01
2.600000e-06	-1.858082e-06	-1.109479e-09	-1.296965e+01	-7.433019e+01
2.610000e-06	-2.009512e-06	-1.533398e-09	-1.402665e+01	-1.020781e+02
2.620000e-06	-2.160284e-06	-1.959923e-09	-1.507905e+01	-1.298712e+02
2.630000e-06	-2.310254e-06	-2.382631e-09	-1.612587e+01	-1.574094e+02
2.640000e-06	-2.459263e-06	-2.794884e-09	-1.716597e+01	-1.844029e+02
2.650000e-06	-2.607316e-06	-3.194532e-09	-1.819940e+01	-2.105968e+02
2.660000e-06	-2.754458e-06	-3.579307e-09	-1.922647e+01	-2.357907e+02
2.670000e-06	-2.900578e-06	-3.947957e-09	-2.024640e+01	-2.598502e+02
2.680000e-06	-3.045573e-06	-4.299500e-09	-2.125849e+01	-2.827086e+02
2.690000e-06	-3.189390e-06	-4.632831e-09	-2.226235e+01	-3.043608e+02
2.700000e-06	-3.332021e-06	-4.945992e-09	-2.325792e+01	-3.248496e+02
2.710000e-06	-3.473336e-06	-5.242372e-09	-2.424433e+01	-3.442475e+02
2.720000e-06	-3.613267e-06	-5.524057e-09	-2.522106e+01	-3.626396e+02
2.730000e-06	-3.751861e-06	-5.791480e-09	-2.618846e+01	-3.801080e+02
2.740000e-06	-3.889093e-06	-6.045638e-09	-2.714636e+01	-3.967220e+02
2.750000e-06	-4.024889e-06	-6.287376e-09	-2.809423e+01	-4.125339e+02
2.760000e-06	-4.159217e-06	-6.520058e-09	-2.903186e+01	-4.275808e+02
2.770000e-06	-4.292116e-06	-6.741606e-09	-2.995951e+01	-4.418898e+02
2.780000e-06	-4.423515e-06	-6.951480e-09	-3.087670e+01	-4.554851e+02
2.790000e-06	-4.553407e-06	-7.151433e-09	-3.178335e+01	-4.683939e+02
2.800000e-06	-4.681708e-06	-7.341282e-09	-3.267892e+01	-4.806510e+02
2.810000e-06	-4.808380e-06	-7.520269e-09	-3.356310e+01	-4.922985e+02
2.820000e-06	-4.933391e-06	-7.688672e-09	-3.443569e+01	-5.033834e+02
2.830000e-06	-5.056645e-06	-7.848014e-09	-3.529602e+01	-5.139530e+02
2.840000e-06	-5.178111e-06	-8.000493e-09	-3.614386e+01	-5.240489e+02
2.850000e-06	-5.297668e-06	-8.148247e-09	-3.697839e+01	-5.337029e+02
2.860000e-06	-5.415200e-06	-8.290584e-09	-3.779878e+01	-5.429346e+02
2.870000e-06	-5.530482e-06	-8.426440e-09	-3.860346e+01	-5.517523e+02
2.880000e-06	-5.643479e-06	-8.554364e-09	-3.939219e+01	-5.601563e+02
2.890000e-06	-5.754289e-06	-8.675068e-09	-4.016566e+01	-5.681437e+02
2.900000e-06	-5.863034e-06	-8.791208e-09	-4.092471e+01	-5.757140e+02
2.910000e-06	-5.969853e-06	-8.901739e-09	-4.167033e+01	-5.828738e+02
2.920000e-06	-6.074552e-06	-9.004711e-09	-4.240114e+01	-5.896393e+02
2.930000e-06	-6.176942e-06	-9.103338e-09	-4.311584e+01	-5.960363e+02
2.940000e-06	-6.277036e-06	-9.198512e-09	-4.381450e+01	-6.020981e+02
