# Temperatura_=_32.68
# Concentracion g/m^3_=_15000.0
# C_Vs_to_Am_M_A/Vsm_=_65563218390.804596
# pendiente_HvsI_1/m_=_3716.3
# ordenada_HvsI_A/m_=_1297.0
# frecuencia_Hz_=_302339.475860387

Tiempo_(s)	Campo_(V.s)	Magnetizacion_(V.s)	Campo_(kA/m)	Magnetizacion_(A/m)
0.000000e+00	-8.142119e-06	-1.052338e-08	-5.689866e+01	-6.878194e+02
1.000000e-08	-8.137453e-06	-1.052155e-08	-5.686605e+01	-6.875547e+02
2.000000e-08	-8.130169e-06	-1.051737e-08	-5.681515e+01	-6.871775e+02
3.000000e-08	-8.120011e-06	-1.051248e-08	-5.674416e+01	-6.866949e+02
4.000000e-08	-8.106854e-06	-1.050505e-08	-5.665222e+01	-6.861179e+02
5.000000e-08	-8.090751e-06	-1.049375e-08	-5.653969e+01	-6.854585e+02
6.000000e-08	-8.072109e-06	-1.047758e-08	-5.640942e+01	-6.847275e+02
7.000000e-08	-8.051238e-06	-1.045686e-08	-5.626357e+01	-6.839313e+02
8.000000e-08	-8.027701e-06	-1.045423e-08	-5.609908e+01	-6.830717e+02
9.000000e-08	-8.000957e-06	-1.047099e-08	-5.591220e+01	-6.821467e+02
1.000000e-07	-7.970986e-06	-1.044266e-08	-5.570275e+01	-6.811523e+02
1.100000e-07	-7.938031e-06	-1.040320e-08	-5.547246e+01	-6.800854e+02
1.200000e-07	-7.902193e-06	-1.038276e-08	-5.522202e+01	-6.789459e+02
1.300000e-07	-7.863808e-06	-1.036143e-08	-5.495377e+01	-6.777376e+02
1.400000e-07	-7.823144e-06	-1.032579e-08	-5.466960e+01	-6.764671e+02
1.500000e-07	-7.780078e-06	-1.029972e-08	-5.436865e+01	-6.751408e+02
1.600000e-07	-7.734365e-06	-1.030523e-08	-5.404920e+01	-6.737614e+02
1.700000e-07	-7.685742e-06	-1.023358e-08	-5.370941e+01	-6.723240e+02
1.800000e-07	-7.634198e-06	-1.021950e-08	-5.334921e+01	-6.708148e+02
1.900000e-07	-7.579758e-06	-1.024637e-08	-5.296878e+01	-6.692105e+02
2.000000e-07	-7.522476e-06	-1.019337e-08	-5.256848e+01	-6.674822e+02
2.100000e-07	-7.462549e-06	-1.017808e-08	-5.214970e+01	-6.656002e+02
2.200000e-07	-7.400050e-06	-1.014131e-08	-5.171294e+01	-6.635407e+02
2.300000e-07	-7.334844e-06	-1.009596e-08	-5.125727e+01	-6.612906e+02
2.400000e-07	-7.266808e-06	-1.005273e-08	-5.078182e+01	-6.588516e+02
2.500000e-07	-7.195970e-06	-1.000412e-08	-5.028679e+01	-6.562396e+02
2.600000e-07	-7.122211e-06	-9.970880e-09	-4.977136e+01	-6.534816e+02
2.700000e-07	-7.045574e-06	-9.910508e-09	-4.923580e+01	-6.506091e+02
2.800000e-07	-6.966167e-06	-9.862963e-09	-4.868089e+01	-6.476506e+02
2.900000e-07	-6.884155e-06	-9.823543e-09	-4.810777e+01	-6.446245e+02
3.000000e-07	-6.799807e-06	-9.796597e-09	-4.751833e+01	-6.415348e+02
3.100000e-07	-6.713070e-06	-9.749507e-09	-4.691220e+01	-6.383698e+02
3.200000e-07	-6.623846e-06	-9.679692e-09	-4.628869e+01	-6.351054e+02
3.300000e-07	-6.532233e-06	-9.636503e-09	-4.564848e+01	-6.317115e+02
3.400000e-07	-6.438276e-06	-9.584515e-09	-4.499189e+01	-6.281590e+02
3.500000e-07	-6.341991e-06	-9.526533e-09	-4.431903e+01	-6.244276e+02
3.600000e-07	-6.243356e-06	-9.464726e-09	-4.362975e+01	-6.205097e+02
3.700000e-07	-6.142455e-06	-9.407577e-09	-4.292464e+01	-6.164120e+02
3.800000e-07	-6.039355e-06	-9.336918e-09	-4.220415e+01	-6.121524e+02
3.900000e-07	-5.934066e-06	-9.256888e-09	-4.146837e+01	-6.077540e+02
4.000000e-07	-5.826710e-06	-9.193150e-09	-4.071815e+01	-6.032380e+02
4.100000e-07	-5.717377e-06	-9.129746e-09	-3.995411e+01	-5.986172e+02
4.200000e-07	-5.605958e-06	-9.057292e-09	-3.917549e+01	-5.938918e+02
4.300000e-07	-5.492369e-06	-8.971742e-09	-3.838171e+01	-5.890484e+02
4.400000e-07	-5.376634e-06	-8.896307e-09	-3.757293e+01	-5.840634e+02
4.500000e-07	-5.258834e-06	-8.821965e-09	-3.674972e+01	-5.789082e+02
4.600000e-07	-5.139204e-06	-8.739896e-09	-3.591372e+01	-5.735557e+02
4.700000e-07	-5.017806e-06	-8.652471e-09	-3.506538e+01	-5.679863e+02
4.800000e-07	-4.894566e-06	-8.566426e-09	-3.420415e+01	-5.621909e+02
4.900000e-07	-4.769555e-06	-8.474727e-09	-3.333055e+01	-5.561709e+02
5.000000e-07	-4.642861e-06	-8.374365e-09	-3.244518e+01	-5.499352e+02
5.100000e-07	-4.514465e-06	-8.276312e-09	-3.154793e+01	-5.434950e+02
5.200000e-07	-4.384332e-06	-8.174177e-09	-3.063854e+01	-5.368585e+02
5.300000e-07	-4.252554e-06	-8.064603e-09	-2.971765e+01	-5.300258e+02
5.400000e-07	-4.119214e-06	-7.951584e-09	-2.878585e+01	-5.229880e+02
5.500000e-07	-3.984275e-06	-7.845723e-09	-2.784286e+01	-5.157278e+02
5.600000e-07	-3.847809e-06	-7.738195e-09	-2.688921e+01	-5.082232e+02
5.700000e-07	-3.709850e-06	-7.620310e-09	-2.592513e+01	-5.004528e+02
5.800000e-07	-3.570344e-06	-7.494233e-09	-2.495024e+01	-4.924001e+02
5.900000e-07	-3.429386e-06	-7.363811e-09	-2.396519e+01	-4.840571e+02
6.000000e-07	-3.287040e-06	-7.228090e-09	-2.297046e+01	-4.754241e+02
6.100000e-07	-3.143379e-06	-7.087438e-09	-2.196652e+01	-4.665074e+02
6.200000e-07	-2.998540e-06	-6.945786e-09	-2.095436e+01	-4.573147e+02
6.300000e-07	-2.852583e-06	-6.800794e-09	-1.993439e+01	-4.478498e+02
6.400000e-07	-2.705664e-06	-6.650282e-09	-1.890769e+01	-4.381085e+02
6.500000e-07	-2.557883e-06	-6.495311e-09	-1.787497e+01	-4.280769e+02
6.600000e-07	-2.409242e-06	-6.338717e-09	-1.683624e+01	-4.177315e+02
6.700000e-07	-2.259831e-06	-6.176098e-09	-1.579212e+01	-4.070435e+02
6.800000e-07	-2.109707e-06	-6.006837e-09	-1.474303e+01	-3.959831e+02
6.900000e-07	-1.958848e-06	-5.831932e-09	-1.368880e+01	-3.845247e+02
7.000000e-07	-1.807351e-06	-5.651030e-09	-1.263011e+01	-3.726501e+02
7.100000e-07	-1.655203e-06	-5.463920e-09	-1.156687e+01	-3.603495e+02
7.200000e-07	-1.502375e-06	-5.269108e-09	-1.049888e+01	-3.476190e+02
7.300000e-07	-1.349007e-06	-5.068906e-09	-9.427114e+00	-3.344568e+02
7.400000e-07	-1.195167e-06	-4.860389e-09	-8.352052e+00	-3.208582e+02
7.500000e-07	-1.040924e-06	-4.645934e-09	-7.274173e+00	-3.068117e+02
7.600000e-07	-8.863807e-07	-4.424780e-09	-6.194195e+00	-2.922965e+02
7.700000e-07	-7.315205e-07	-4.194293e-09	-5.112003e+00	-2.772839e+02
7.800000e-07	-5.763309e-07	-3.956164e-09	-4.027509e+00	-2.617401e+02
7.900000e-07	-4.209564e-07	-3.710638e-09	-2.941723e+00	-2.456307e+02
8.000000e-07	-2.654306e-07	-3.458085e-09	-1.854879e+00	-2.289245e+02
8.100000e-07	-1.097209e-07	-3.194924e-09	-7.667504e-01	-2.115950e+02
8.200000e-07	4.607526e-08	-2.922659e-09	3.219826e-01	-1.936195e+02
8.300000e-07	2.018525e-07	-2.638632e-09	1.410584e+00	-1.749739e+02
8.400000e-07	3.575372e-07	-2.340297e-09	2.498538e+00	-1.556274e+02
8.500000e-07	5.131079e-07	-2.030251e-09	3.585695e+00	-1.355363e+02
8.600000e-07	6.685575e-07	-1.710618e-09	4.672006e+00	-1.146421e+02
8.700000e-07	8.237857e-07	-1.379774e-09	5.756770e+00	-9.287475e+01
8.800000e-07	9.787357e-07	-1.033368e-09	6.839590e+00	-7.016164e+01
8.900000e-07	1.133404e-06	-6.712869e-10	7.920439e+00	-4.644377e+01
9.000000e-07	1.287701e-06	-2.956506e-10	8.998697e+00	-2.169471e+01
9.100000e-07	1.441493e-06	9.592407e-11	1.007342e+01	4.060155e+00
9.200000e-07	1.594729e-06	5.008748e-10	1.114427e+01	3.072861e+01
9.300000e-07	1.747342e-06	9.154991e-10	1.221076e+01	5.814478e+01
9.400000e-07	1.899250e-06	1.340077e-09	1.327232e+01	8.607284e+01
9.500000e-07	2.050454e-06	1.768996e-09	1.432896e+01	1.142218e+02
9.600000e-07	2.200912e-06	2.196145e-09	1.538039e+01	1.422697e+02
9.700000e-07	2.350546e-06	2.614611e-09	1.642606e+01	1.698927e+02
9.800000e-07	2.499309e-06	3.023013e-09	1.746564e+01	1.967955e+02
9.900000e-07	2.647131e-06	3.418226e-09	1.849865e+01	2.227366e+02
1.000000e-06	2.794008e-06	3.793016e-09	1.952505e+01	2.475447e+02
1.010000e-06	2.939874e-06	4.147166e-09	2.054439e+01	2.711244e+02
1.020000e-06	3.084589e-06	4.483563e-09	2.155569e+01	2.934508e+02
1.030000e-06	3.228136e-06	4.804125e-09	2.255882e+01	3.145552e+02
1.040000e-06	3.370509e-06	5.108646e-09	2.355375e+01	3.345058e+02
1.050000e-06	3.511639e-06	5.397846e-09	2.454000e+01	3.533871e+02
1.060000e-06	3.651344e-06	5.671459e-09	2.551628e+01	3.712832e+02
1.070000e-06	3.789556e-06	5.926909e-09	2.648213e+01	3.882666e+02
1.080000e-06	3.926315e-06	6.168225e-09	2.743783e+01	4.043935e+02
1.090000e-06	4.061574e-06	6.399190e-09	2.838304e+01	4.197066e+02
1.100000e-06	4.195378e-06	6.619413e-09	2.931809e+01	4.342399e+02
1.110000e-06	4.327740e-06	6.825921e-09	3.024306e+01	4.480267e+02
1.120000e-06	4.458563e-06	7.021818e-09	3.115728e+01	4.611046e+02
1.130000e-06	4.587780e-06	7.211075e-09	3.206027e+01	4.735186e+02
1.140000e-06	4.715411e-06	7.390816e-09	3.295218e+01	4.853195e+02
1.150000e-06	4.841459e-06	7.560856e-09	3.383303e+01	4.965597e+02
1.160000e-06	4.965861e-06	7.722956e-09	3.470238e+01	5.072873e+02
1.170000e-06	5.088585e-06	7.879319e-09	3.555999e+01	5.175407e+02
1.180000e-06	5.209456e-06	8.030494e-09	3.640466e+01	5.273456e+02
1.190000e-06	5.328436e-06	8.175323e-09	3.723611e+01	5.367143e+02
1.200000e-06	5.445506e-06	8.311433e-09	3.805422e+01	5.456492e+02
1.210000e-06	5.560403e-06	8.439012e-09	3.885714e+01	5.541479e+02
1.220000e-06	5.673034e-06	8.559468e-09	3.964423e+01	5.622089e+02
1.230000e-06	5.783582e-06	8.672877e-09	4.041676e+01	5.698371e+02
1.240000e-06	5.892160e-06	8.778058e-09	4.117553e+01	5.770463e+02
1.250000e-06	5.998668e-06	8.878704e-09	4.191982e+01	5.838604e+02
1.260000e-06	6.102969e-06	8.978559e-09	4.264870e+01	5.903101e+02
1.270000e-06	6.204992e-06	9.074982e-09	4.336165e+01	5.964302e+02
1.280000e-06	6.304725e-06	9.164524e-09	4.405861e+01	6.022547e+02
1.290000e-06	6.402086e-06	9.248658e-09	4.473899e+01	6.078134e+02
1.300000e-06	6.497067e-06	9.328483e-09	4.540273e+01	6.131303e+02
1.310000e-06	6.589766e-06	9.403998e-09	4.605053e+01	6.182233e+02
1.320000e-06	6.680115e-06	9.475333e-09	4.668190e+01	6.231054e+02
1.330000e-06	6.768031e-06	9.544289e-09	4.729628e+01	6.277869e+02
1.340000e-06	6.853546e-06	9.612313e-09	4.789387e+01	6.322768e+02
1.350000e-06	6.936664e-06	9.678271e-09	4.847472e+01	6.365836e+02
1.360000e-06	7.017275e-06	9.742161e-09	4.903804e+01	6.407151e+02
1.370000e-06	7.095346e-06	9.803411e-09	4.958361e+01	6.446771e+02
1.380000e-06	7.170831e-06	9.860140e-09	5.011112e+01	6.484717e+02
1.390000e-06	7.243614e-06	9.913283e-09	5.061974e+01	6.520965e+02
1.400000e-06	7.313788e-06	9.963790e-09	5.111013e+01	6.555442e+02
1.410000e-06	7.381418e-06	1.001093e-08	5.158274e+01	6.588047e+02
1.420000e-06	7.446391e-06	1.005578e-08	5.203678e+01	6.618671e+02
1.430000e-06	7.508690e-06	1.009727e-08	5.247214e+01	6.647235e+02
1.440000e-06	7.568412e-06	1.013649e-08	5.288949e+01	6.673712e+02
1.450000e-06	7.625537e-06	1.017360e-08	5.328869e+01	6.698146e+02
1.460000e-06	7.679940e-06	1.020576e-08	5.366887e+01	6.720649e+02
1.470000e-06	7.731360e-06	1.023567e-08	5.402820e+01	6.741383e+02
1.480000e-06	7.779642e-06	1.026586e-08	5.436561e+01	6.760526e+02
1.490000e-06	7.825026e-06	1.029143e-08	5.468276e+01	6.778240e+02
1.500000e-06	7.867659e-06	1.031328e-08	5.498069e+01	6.794635e+02
1.510000e-06	7.907412e-06	1.033380e-08	5.525849e+01	6.809761e+02
1.520000e-06	7.944358e-06	1.035462e-08	5.551667e+01	6.823609e+02
1.530000e-06	7.978573e-06	1.037416e-08	5.575577e+01	6.836130e+02
1.540000e-06	8.009940e-06	1.039087e-08	5.597497e+01	6.847268e+02
1.550000e-06	8.038499e-06	1.040362e-08	5.617454e+01	6.856991e+02
1.560000e-06	8.064186e-06	1.041408e-08	5.635405e+01	6.865315e+02
1.570000e-06	8.086845e-06	1.042636e-08	5.651240e+01	6.872308e+02
1.580000e-06	8.106681e-06	1.043779e-08	5.665102e+01	6.878081e+02
1.590000e-06	8.123694e-06	1.044637e-08	5.676990e+01	6.882760e+02
1.600000e-06	8.137610e-06	1.045206e-08	5.686716e+01	6.886460e+02
1.610000e-06	8.148370e-06	1.045653e-08	5.694235e+01	6.889253e+02
1.620000e-06	8.156021e-06	1.045957e-08	5.699581e+01	6.891154e+02
1.630000e-06	8.160749e-06	1.046023e-08	5.702885e+01	6.892126e+02
1.640000e-06	8.162559e-06	1.046009e-08	5.704150e+01	6.892096e+02
1.650000e-06	8.161513e-06	1.045960e-08	5.703419e+01	6.890986e+02
1.660000e-06	8.157804e-06	1.045354e-08	5.700827e+01	6.888744e+02
1.670000e-06	8.151322e-06	1.044821e-08	5.696298e+01	6.885366e+02
1.680000e-06	8.142095e-06	1.044241e-08	5.689850e+01	6.880903e+02
1.690000e-06	8.130185e-06	1.043506e-08	5.681527e+01	6.875452e+02
1.700000e-06	8.115375e-06	1.042785e-08	5.671177e+01	6.869137e+02
1.710000e-06	8.097894e-06	1.042338e-08	5.658961e+01	6.862070e+02
1.720000e-06	8.078102e-06	1.042040e-08	5.645130e+01	6.854333e+02
1.730000e-06	8.055683e-06	1.038464e-08	5.629463e+01	6.845961e+02
1.740000e-06	8.029967e-06	1.034022e-08	5.611492e+01	6.836947e+02
1.750000e-06	8.000463e-06	1.034769e-08	5.590874e+01	6.827252e+02
1.760000e-06	7.967506e-06	1.034369e-08	5.567843e+01	6.816841e+02
1.770000e-06	7.932034e-06	1.032748e-08	5.543055e+01	6.805700e+02
1.780000e-06	7.894298e-06	1.033834e-08	5.516684e+01	6.793853e+02
1.790000e-06	7.854327e-06	1.034086e-08	5.488752e+01	6.781359e+02
1.800000e-06	7.812353e-06	1.027722e-08	5.459420e+01	6.768287e+02
1.810000e-06	7.767889e-06	1.030824e-08	5.428347e+01	6.754680e+02
1.820000e-06	7.720600e-06	1.032601e-08	5.395301e+01	6.740522e+02
1.830000e-06	7.670510e-06	1.024728e-08	5.360297e+01	6.725705e+02
1.840000e-06	7.617241e-06	1.025869e-08	5.323072e+01	6.710030e+02
1.850000e-06	7.561035e-06	1.018429e-08	5.283794e+01	6.693222e+02
1.860000e-06	7.502171e-06	1.016023e-08	5.242658e+01	6.674980e+02
1.870000e-06	7.440547e-06	1.014914e-08	5.199594e+01	6.655038e+02
1.880000e-06	7.376179e-06	1.010878e-08	5.154613e+01	6.633221e+02
1.890000e-06	7.308933e-06	1.012875e-08	5.107620e+01	6.609491e+02
1.900000e-06	7.238844e-06	1.004912e-08	5.058641e+01	6.583960e+02
1.910000e-06	7.165897e-06	1.000958e-08	5.007664e+01	6.556863e+02
1.920000e-06	7.090194e-06	9.966836e-09	4.954761e+01	6.528508e+02
1.930000e-06	7.011776e-06	9.932018e-09	4.899961e+01	6.499200e+02
1.940000e-06	6.930668e-06	9.899093e-09	4.843281e+01	6.469165e+02
1.950000e-06	6.847084e-06	9.820107e-09	4.784871e+01	6.438498e+02
1.960000e-06	6.760831e-06	9.797806e-09	4.724596e+01	6.407136e+02
1.970000e-06	6.671986e-06	9.726612e-09	4.662510e+01	6.374877e+02
1.980000e-06	6.580816e-06	9.676180e-09	4.598798e+01	6.341433e+02
1.990000e-06	6.487380e-06	9.634265e-09	4.533504e+01	6.306501e+02
2.000000e-06	6.391666e-06	9.580127e-09	4.466617e+01	6.269839e+02
2.010000e-06	6.293676e-06	9.511135e-09	4.398139e+01	6.231322e+02
2.020000e-06	6.193409e-06	9.432519e-09	4.328071e+01	6.190969e+02
2.030000e-06	6.090843e-06	9.391446e-09	4.256396e+01	6.148923e+02
2.040000e-06	5.986109e-06	9.332368e-09	4.183206e+01	6.105405e+02
2.050000e-06	5.879320e-06	9.268931e-09	4.108579e+01	6.060642e+02
2.060000e-06	5.770547e-06	9.185816e-09	4.032567e+01	6.014798e+02
2.070000e-06	5.659723e-06	9.115329e-09	3.955121e+01	5.967924e+02
2.080000e-06	5.546822e-06	9.041040e-09	3.876224e+01	5.919931e+02
2.090000e-06	5.431805e-06	8.969598e-09	3.795847e+01	5.870615e+02
2.100000e-06	5.314739e-06	8.905074e-09	3.714040e+01	5.819701e+02
2.110000e-06	5.195675e-06	8.826411e-09	3.630836e+01	5.766905e+02
2.120000e-06	5.074640e-06	8.729059e-09	3.546254e+01	5.712000e+02
2.130000e-06	4.951783e-06	8.629532e-09	3.460399e+01	5.654853e+02
2.140000e-06	4.827139e-06	8.549845e-09	3.373296e+01	5.595445e+02
2.150000e-06	4.700712e-06	8.466141e-09	3.284946e+01	5.533843e+02
2.160000e-06	4.572546e-06	8.373714e-09	3.195381e+01	5.470156e+02
2.170000e-06	4.442722e-06	8.270130e-09	3.104658e+01	5.404484e+02
2.180000e-06	4.311246e-06	8.168837e-09	3.012780e+01	5.336861e+02
2.190000e-06	4.178261e-06	8.060484e-09	2.919848e+01	5.267229e+02
2.200000e-06	4.043772e-06	7.950933e-09	2.825864e+01	5.195442e+02
2.210000e-06	3.907677e-06	7.840354e-09	2.730758e+01	5.121292e+02
2.220000e-06	3.770057e-06	7.722520e-09	2.634587e+01	5.044556e+02
2.230000e-06	3.630979e-06	7.597076e-09	2.537396e+01	4.965049e+02
2.240000e-06	3.490520e-06	7.473149e-09	2.439241e+01	4.882656e+02
2.250000e-06	3.348720e-06	7.352997e-09	2.340149e+01	4.797354e+02
2.260000e-06	3.205625e-06	7.225147e-09	2.240151e+01	4.709189e+02
2.270000e-06	3.061200e-06	7.085432e-09	2.139224e+01	4.618237e+02
2.280000e-06	2.915621e-06	6.938899e-09	2.037491e+01	4.524557e+02
2.290000e-06	2.769037e-06	6.792971e-09	1.935055e+01	4.428139e+02
2.300000e-06	2.621503e-06	6.647043e-09	1.831956e+01	4.328879e+02
2.310000e-06	2.473177e-06	6.496915e-09	1.728302e+01	4.226574e+02
2.320000e-06	2.324077e-06	6.335323e-09	1.624109e+01	4.120950e+02
2.330000e-06	2.174108e-06	6.163887e-09	1.519308e+01	4.011705e+02
2.340000e-06	2.023329e-06	5.986309e-09	1.413941e+01	3.898565e+02
2.350000e-06	1.871951e-06	5.807976e-09	1.308155e+01	3.781319e+02
2.360000e-06	1.720000e-06	5.627077e-09	1.201968e+01	3.659838e+02
2.370000e-06	1.567456e-06	5.437408e-09	1.095367e+01	3.534067e+02
2.380000e-06	1.414393e-06	5.240516e-09	9.884047e+00	3.403987e+02
2.390000e-06	1.260835e-06	5.033505e-09	8.810953e+00	3.269566e+02
2.400000e-06	1.106797e-06	4.816937e-09	7.734506e+00	3.130716e+02
2.410000e-06	9.523476e-07	4.596946e-09	6.655185e+00	2.987265e+02
2.420000e-06	7.975765e-07	4.372646e-09	5.573615e+00	2.838949e+02
2.430000e-06	6.425812e-07	4.140189e-09	4.490479e+00	2.685446e+02
2.440000e-06	4.873556e-07	3.897753e-09	3.405733e+00	2.526407e+02
2.450000e-06	3.319115e-07	3.649726e-09	2.319460e+00	2.361506e+02
2.460000e-06	1.763437e-07	3.392034e-09	1.232323e+00	2.190462e+02
2.470000e-06	2.068830e-08	3.119512e-09	1.445737e-01	2.013037e+02
2.480000e-06	-1.350423e-07	2.834387e-09	-9.437012e-01	1.829002e+02
2.490000e-06	-2.907648e-07	2.539268e-09	-2.031919e+00	1.638080e+02
2.500000e-06	-4.463927e-07	2.235005e-09	-3.119476e+00	1.439884e+02
2.510000e-06	-6.018494e-07	1.921666e-09	-4.205837e+00	1.233884e+02
2.520000e-06	-7.570987e-07	1.600459e-09	-5.290749e+00	1.019411e+02
2.530000e-06	-9.121086e-07	1.264099e-09	-6.373987e+00	7.957333e+01
2.540000e-06	-1.066793e-06	9.081608e-10	-7.454948e+00	5.621917e+01
2.550000e-06	-1.221099e-06	5.349073e-10	-8.533273e+00	3.183826e+01
2.560000e-06	-1.375032e-06	1.463086e-10	-9.608980e+00	6.435450e+00
2.570000e-06	-1.528445e-06	-2.570519e-10	-1.068106e+01	-1.992219e+01
2.580000e-06	-1.681257e-06	-6.749860e-10	-1.174894e+01	-4.709526e+01
2.590000e-06	-1.833432e-06	-1.103636e-09	-1.281237e+01	-7.487176e+01
2.600000e-06	-1.984873e-06	-1.536552e-09	-1.387066e+01	-1.029781e+02
2.610000e-06	-2.135523e-06	-1.968331e-09	-1.492343e+01	-1.311001e+02
2.620000e-06	-2.285323e-06	-2.395003e-09	-1.597027e+01	-1.589111e+02
2.630000e-06	-2.434272e-06	-2.807885e-09	-1.701115e+01	-1.861024e+02
2.640000e-06	-2.582368e-06	-3.206338e-09	-1.804607e+01	-2.124108e+02
2.650000e-06	-2.729557e-06	-3.593492e-09	-1.907466e+01	-2.376387e+02
2.660000e-06	-2.875787e-06	-3.965146e-09	-2.009654e+01	-2.616637e+02
2.670000e-06	-3.020939e-06	-4.315619e-09	-2.111089e+01	-2.844369e+02
2.680000e-06	-3.164839e-06	-4.645726e-09	-2.211649e+01	-3.059717e+02
2.690000e-06	-3.307438e-06	-4.958857e-09	-2.311300e+01	-3.263254e+02
2.700000e-06	-3.448772e-06	-5.256287e-09	-2.410067e+01	-3.455789e+02
2.710000e-06	-3.588778e-06	-5.536633e-09	-2.507906e+01	-3.638181e+02
2.720000e-06	-3.727463e-06	-5.800808e-09	-2.604822e+01	-3.811204e+02
2.730000e-06	-3.864814e-06	-6.050504e-09	-2.700805e+01	-3.975480e+02
2.740000e-06	-4.000681e-06	-6.287133e-09	-2.795751e+01	-4.131478e+02
2.750000e-06	-4.135080e-06	-6.514553e-09	-2.889672e+01	-4.279562e+02
2.760000e-06	-4.268043e-06	-6.731762e-09	-2.982589e+01	-4.420058e+02
2.770000e-06	-4.399500e-06	-6.938676e-09	-3.074454e+01	-4.553324e+02
2.780000e-06	-4.529459e-06	-7.135469e-09	-3.165272e+01	-4.679783e+02
2.790000e-06	-4.657839e-06	-7.321523e-09	-3.254986e+01	-4.799924e+02
2.800000e-06	-4.784602e-06	-7.498061e-09	-3.343570e+01	-4.914272e+02
2.810000e-06	-4.909782e-06	-7.665127e-09	-3.431048e+01	-5.023331e+02
2.820000e-06	-5.033261e-06	-7.822688e-09	-3.517338e+01	-5.127525e+02
2.830000e-06	-5.154899e-06	-7.971530e-09	-3.602341e+01	-5.227158e+02
2.840000e-06	-5.274574e-06	-8.114927e-09	-3.685972e+01	-5.322399e+02
2.850000e-06	-5.392196e-06	-8.252954e-09	-3.768168e+01	-5.413302e+02
2.860000e-06	-5.507631e-06	-8.385806e-09	-3.848836e+01	-5.499853e+02
2.870000e-06	-5.620774e-06	-8.513359e-09	-3.927903e+01	-5.582028e+02
2.880000e-06	-5.731742e-06	-8.633874e-09	-4.005449e+01	-5.659847e+02
2.890000e-06	-5.840707e-06	-8.749307e-09	-4.081596e+01	-5.733416e+02
2.900000e-06	-5.947700e-06	-8.858141e-09	-4.156365e+01	-5.802939e+02
2.910000e-06	-6.052573e-06	-8.960354e-09	-4.229652e+01	-5.868701e+02
2.920000e-06	-6.155190e-06	-9.055808e-09	-4.301363e+01	-5.931042e+02
2.930000e-06	-6.255518e-06	-9.145698e-09	-4.371474e+01	-5.990309e+02
2.940000e-06	-6.353616e-06	-9.231134e-09	-4.440027e+01	-6.046817e+02
