# Temperatura_=_62.55
# Concentracion g/m^3_=_15000.0
# C_Vs_to_Am_M_A/Vsm_=_65563218390.804596
# pendiente_HvsI_1/m_=_3716.3
# ordenada_HvsI_A/m_=_1297.0
# frecuencia_Hz_=_302341.8911588153

Tiempo_(s)	Campo_(V.s)	Magnetizacion_(V.s)	Campo_(kA/m)	Magnetizacion_(A/m)
0.000000e+00	-8.198115e-06	-1.168709e-08	-5.690208e+01	-7.638844e+02
1.000000e-08	-8.193302e-06	-1.168303e-08	-5.686868e+01	-7.635241e+02
2.000000e-08	-8.185881e-06	-1.167470e-08	-5.681717e+01	-7.630253e+02
3.000000e-08	-8.175592e-06	-1.166433e-08	-5.674576e+01	-7.623983e+02
4.000000e-08	-8.162314e-06	-1.165264e-08	-5.665360e+01	-7.616554e+02
5.000000e-08	-8.146070e-06	-1.163816e-08	-5.654085e+01	-7.608080e+02
6.000000e-08	-8.127257e-06	-1.162148e-08	-5.641027e+01	-7.598647e+02
7.000000e-08	-8.106201e-06	-1.160659e-08	-5.626412e+01	-7.588304e+02
8.000000e-08	-8.082448e-06	-1.160773e-08	-5.609926e+01	-7.577070e+02
9.000000e-08	-8.055456e-06	-1.160119e-08	-5.591191e+01	-7.564955e+02
1.000000e-07	-8.025242e-06	-1.156978e-08	-5.570220e+01	-7.551977e+02
1.100000e-07	-7.992046e-06	-1.153423e-08	-5.547179e+01	-7.538180e+02
1.200000e-07	-7.955969e-06	-1.150485e-08	-5.522138e+01	-7.523634e+02
1.300000e-07	-7.917390e-06	-1.147770e-08	-5.495361e+01	-7.508417e+02
1.400000e-07	-7.876409e-06	-1.144028e-08	-5.466916e+01	-7.492585e+02
1.500000e-07	-7.832929e-06	-1.140300e-08	-5.436737e+01	-7.476136e+02
1.600000e-07	-7.786844e-06	-1.137494e-08	-5.404750e+01	-7.458979e+02
1.700000e-07	-7.737881e-06	-1.134532e-08	-5.370766e+01	-7.440923e+02
1.800000e-07	-7.685993e-06	-1.132026e-08	-5.334751e+01	-7.421687e+02
1.900000e-07	-7.631157e-06	-1.131413e-08	-5.296690e+01	-7.400947e+02
2.000000e-07	-7.573432e-06	-1.126931e-08	-5.256624e+01	-7.378381e+02
2.100000e-07	-7.513039e-06	-1.121530e-08	-5.214706e+01	-7.353745e+02
2.200000e-07	-7.450034e-06	-1.116846e-08	-5.170975e+01	-7.326914e+02
2.300000e-07	-7.384292e-06	-1.111726e-08	-5.125344e+01	-7.297917e+02
2.400000e-07	-7.315734e-06	-1.108304e-08	-5.077759e+01	-7.266924e+02
2.500000e-07	-7.244384e-06	-1.103664e-08	-5.028236e+01	-7.234213e+02
2.600000e-07	-7.170096e-06	-1.098699e-08	-4.976673e+01	-7.200096e+02
2.700000e-07	-7.092842e-06	-1.093243e-08	-4.923053e+01	-7.164851e+02
2.800000e-07	-7.012767e-06	-1.087243e-08	-4.867474e+01	-7.128656e+02
2.900000e-07	-6.930137e-06	-1.081514e-08	-4.810121e+01	-7.091548e+02
3.000000e-07	-6.845157e-06	-1.076225e-08	-4.751138e+01	-7.053420e+02
3.100000e-07	-6.757738e-06	-1.069896e-08	-4.690461e+01	-7.014055e+02
3.200000e-07	-6.667832e-06	-1.062758e-08	-4.628059e+01	-6.973181e+02
3.300000e-07	-6.575495e-06	-1.056855e-08	-4.563968e+01	-6.930547e+02
3.400000e-07	-6.480882e-06	-1.051122e-08	-4.498299e+01	-6.885976e+02
3.500000e-07	-6.383901e-06	-1.043508e-08	-4.430986e+01	-6.839409e+02
3.600000e-07	-6.284599e-06	-1.035161e-08	-4.362061e+01	-6.790908e+02
3.700000e-07	-6.183089e-06	-1.027502e-08	-4.291605e+01	-6.740623e+02
3.800000e-07	-6.079263e-06	-1.019726e-08	-4.219540e+01	-6.688748e+02
3.900000e-07	-5.973166e-06	-1.011413e-08	-4.145899e+01	-6.635450e+02
4.000000e-07	-5.865009e-06	-1.003411e-08	-4.070829e+01	-6.580824e+02
4.100000e-07	-5.754926e-06	-9.957551e-09	-3.994422e+01	-6.524859e+02
4.200000e-07	-5.642711e-06	-9.864899e-09	-3.916534e+01	-6.467443e+02
4.300000e-07	-5.528160e-06	-9.761648e-09	-3.837026e+01	-6.408382e+02
4.400000e-07	-5.411505e-06	-9.666717e-09	-3.756058e+01	-6.347459e+02
4.500000e-07	-5.292958e-06	-9.578527e-09	-3.673776e+01	-6.284472e+02
4.600000e-07	-5.172464e-06	-9.481757e-09	-3.590142e+01	-6.219284e+02
4.700000e-07	-5.050104e-06	-9.375594e-09	-3.505214e+01	-6.151835e+02
4.800000e-07	-4.925989e-06	-9.271644e-09	-3.419067e+01	-6.082137e+02
4.900000e-07	-4.800136e-06	-9.163529e-09	-3.331714e+01	-6.010244e+02
5.000000e-07	-4.672603e-06	-9.047076e-09	-3.243195e+01	-5.936211e+02
5.100000e-07	-4.543263e-06	-8.928578e-09	-3.153422e+01	-5.860058e+02
5.200000e-07	-4.412110e-06	-8.809739e-09	-3.062390e+01	-5.781743e+02
5.300000e-07	-4.279364e-06	-8.682942e-09	-2.970253e+01	-5.701161e+02
5.400000e-07	-4.145144e-06	-8.552329e-09	-2.877093e+01	-5.618164e+02
5.500000e-07	-4.009421e-06	-8.425438e-09	-2.782889e+01	-5.532593e+02
5.600000e-07	-3.872033e-06	-8.294718e-09	-2.687530e+01	-5.444313e+02
5.700000e-07	-3.733017e-06	-8.152059e-09	-2.591040e+01	-5.353241e+02
5.800000e-07	-3.592458e-06	-8.003942e-09	-2.493480e+01	-5.259348e+02
5.900000e-07	-3.450373e-06	-7.858369e-09	-2.394860e+01	-5.162647e+02
6.000000e-07	-3.306846e-06	-7.707531e-09	-2.295240e+01	-5.063160e+02
6.100000e-07	-3.162028e-06	-7.550231e-09	-2.194724e+01	-4.960880e+02
6.200000e-07	-3.016119e-06	-7.387804e-09	-2.093450e+01	-4.855738e+02
6.300000e-07	-2.869238e-06	-7.219365e-09	-1.991502e+01	-4.747588e+02
6.400000e-07	-2.721417e-06	-7.045064e-09	-1.888901e+01	-4.636222e+02
6.500000e-07	-2.572667e-06	-6.868013e-09	-1.785656e+01	-4.521398e+02
6.600000e-07	-2.423072e-06	-6.690605e-09	-1.681824e+01	-4.402890e+02
6.700000e-07	-2.272724e-06	-6.506798e-09	-1.577469e+01	-4.280525e+02
6.800000e-07	-2.121622e-06	-6.314093e-09	-1.472591e+01	-4.154212e+02
6.900000e-07	-1.969710e-06	-6.115112e-09	-1.367151e+01	-4.023938e+02
7.000000e-07	-1.816961e-06	-5.912501e-09	-1.261130e+01	-3.889738e+02
7.100000e-07	-1.663480e-06	-5.701938e-09	-1.154601e+01	-3.751640e+02
7.200000e-07	-1.509423e-06	-5.484377e-09	-1.047672e+01	-3.609605e+02
7.300000e-07	-1.354896e-06	-5.259924e-09	-9.404164e+00	-3.463476e+02
7.400000e-07	-1.199904e-06	-5.026739e-09	-8.328382e+00	-3.312955e+02
7.500000e-07	-1.044472e-06	-4.788554e-09	-7.249549e+00	-3.157622e+02
7.600000e-07	-8.886865e-07	-4.542613e-09	-6.168261e+00	-2.996979e+02
7.700000e-07	-7.326129e-07	-4.287611e-09	-5.084974e+00	-2.830523e+02
7.800000e-07	-5.763463e-07	-4.023853e-09	-4.000347e+00	-2.657815e+02
7.900000e-07	-4.199409e-07	-3.753679e-09	-2.914757e+00	-2.478526e+02
8.000000e-07	-2.634053e-07	-3.475175e-09	-1.828263e+00	-2.292435e+02
8.100000e-07	-1.067446e-07	-3.182119e-09	-7.409005e-01	-2.099390e+02
8.200000e-07	5.000516e-08	-2.875319e-09	3.470795e-01	-1.899219e+02
8.300000e-07	2.067516e-07	-2.554379e-09	1.435037e+00	-1.691626e+02
8.400000e-07	3.634411e-07	-2.218213e-09	2.522599e+00	-1.476108e+02
8.500000e-07	5.200875e-07	-1.870246e-09	3.609862e+00	-1.251920e+02
8.600000e-07	6.766025e-07	-1.514019e-09	4.696213e+00	-1.018116e+02
8.700000e-07	8.329238e-07	-1.146053e-09	5.781220e+00	-7.736787e+01
8.800000e-07	9.890511e-07	-7.600838e-10	6.864879e+00	-5.177233e+01
8.900000e-07	1.144858e-06	-3.565099e-10	7.946317e+00	-2.497459e+01
9.000000e-07	1.300217e-06	6.485734e-11	9.024639e+00	3.013279e+00
9.100000e-07	1.455118e-06	5.081945e-10	1.009979e+01	3.209800e+01
9.200000e-07	1.609500e-06	9.707050e-10	1.117134e+01	6.209637e+01
9.300000e-07	1.763308e-06	1.442774e-09	1.223890e+01	9.273956e+01
9.400000e-07	1.916534e-06	1.916711e-09	1.330242e+01	1.236906e+02
9.500000e-07	2.068958e-06	2.387955e-09	1.436038e+01	1.545731e+02
9.600000e-07	2.220371e-06	2.850250e-09	1.541132e+01	1.850057e+02
9.700000e-07	2.370870e-06	3.296109e-09	1.645591e+01	2.146380e+02
9.800000e-07	2.520480e-06	3.724018e-09	1.749434e+01	2.431811e+02
9.900000e-07	2.669173e-06	4.134797e-09	1.852639e+01	2.704275e+02
1.000000e-06	2.816935e-06	4.525880e-09	1.955199e+01	2.962596e+02
1.010000e-06	2.963691e-06	4.897092e-09	2.057061e+01	3.206447e+02
1.020000e-06	3.109457e-06	5.247790e-09	2.158235e+01	3.436198e+02
1.030000e-06	3.254047e-06	5.577293e-09	2.258593e+01	3.652703e+02
1.040000e-06	3.397312e-06	5.887579e-09	2.358031e+01	3.857064e+02
1.050000e-06	3.539295e-06	6.182469e-09	2.456580e+01	4.050423e+02
1.060000e-06	3.679957e-06	6.462839e-09	2.554212e+01	4.233814e+02
1.070000e-06	3.819169e-06	6.725768e-09	2.650837e+01	4.408083e+02
1.080000e-06	3.956919e-06	6.972293e-09	2.746448e+01	4.573878e+02
1.090000e-06	4.093110e-06	7.209068e-09	2.840976e+01	4.731688e+02
1.100000e-06	4.227746e-06	7.436081e-09	2.934425e+01	4.881911e+02
1.110000e-06	4.360983e-06	7.652559e-09	3.026903e+01	5.024914e+02
1.120000e-06	4.492708e-06	7.860785e-09	3.118332e+01	5.161080e+02
1.130000e-06	4.622871e-06	8.059754e-09	3.208677e+01	5.290824e+02
1.140000e-06	4.751338e-06	8.247149e-09	3.297844e+01	5.414580e+02
1.150000e-06	4.878055e-06	8.423177e-09	3.385797e+01	5.532771e+02
1.160000e-06	5.003181e-06	8.592158e-09	3.472645e+01	5.645778e+02
1.170000e-06	5.126651e-06	8.755235e-09	3.558344e+01	5.753916e+02
1.180000e-06	5.248354e-06	8.913536e-09	3.642817e+01	5.857424e+02
1.190000e-06	5.368116e-06	9.065849e-09	3.725942e+01	5.956473e+02
1.200000e-06	5.485869e-06	9.210715e-09	3.807673e+01	6.051196e+02
1.210000e-06	5.601567e-06	9.349122e-09	3.887977e+01	6.141706e+02
1.220000e-06	5.715021e-06	9.480707e-09	3.966724e+01	6.228121e+02
1.230000e-06	5.826254e-06	9.607507e-09	4.043930e+01	6.310579e+02
1.240000e-06	5.935450e-06	9.727162e-09	4.119721e+01	6.389234e+02
1.250000e-06	6.042607e-06	9.838715e-09	4.194098e+01	6.464246e+02
1.260000e-06	6.147521e-06	9.945656e-09	4.266917e+01	6.535774e+02
1.270000e-06	6.250159e-06	1.004898e-08	4.338157e+01	6.603962e+02
1.280000e-06	6.350536e-06	1.014663e-08	4.407827e+01	6.668946e+02
1.290000e-06	6.448481e-06	1.023839e-08	4.475809e+01	6.730859e+02
1.300000e-06	6.543961e-06	1.032753e-08	4.542081e+01	6.789849e+02
1.310000e-06	6.637162e-06	1.041265e-08	4.606771e+01	6.846091e+02
1.320000e-06	6.728071e-06	1.049356e-08	4.669869e+01	6.899795e+02
1.330000e-06	6.816557e-06	1.057128e-08	4.731286e+01	6.951199e+02
1.340000e-06	6.902639e-06	1.064638e-08	4.791035e+01	7.000546e+02
1.350000e-06	6.986270e-06	1.071828e-08	4.849082e+01	7.048055e+02
1.360000e-06	7.067378e-06	1.078602e-08	4.905378e+01	7.093887e+02
1.370000e-06	7.145977e-06	1.085077e-08	4.959933e+01	7.138117e+02
1.380000e-06	7.221974e-06	1.091376e-08	5.012682e+01	7.180730e+02
1.390000e-06	7.295177e-06	1.097570e-08	5.063491e+01	7.221626e+02
1.400000e-06	7.365653e-06	1.103492e-08	5.112407e+01	7.260655e+02
1.410000e-06	7.433547e-06	1.108872e-08	5.159532e+01	7.297656e+02
1.420000e-06	7.498806e-06	1.113846e-08	5.204827e+01	7.332503e+02
1.430000e-06	7.561432e-06	1.118576e-08	5.248295e+01	7.365137e+02
1.440000e-06	7.621517e-06	1.123356e-08	5.289999e+01	7.395584e+02
1.450000e-06	7.678965e-06	1.127925e-08	5.329873e+01	7.423945e+02
1.460000e-06	7.733688e-06	1.131964e-08	5.367855e+01	7.450371e+02
1.470000e-06	7.785448e-06	1.135708e-08	5.403782e+01	7.475024e+02
1.480000e-06	7.833998e-06	1.139185e-08	5.437480e+01	7.498032e+02
1.490000e-06	7.879626e-06	1.142305e-08	5.469150e+01	7.519470e+02
1.500000e-06	7.922531e-06	1.145160e-08	5.498929e+01	7.539343e+02
1.510000e-06	7.962514e-06	1.147826e-08	5.526681e+01	7.557601e+02
1.520000e-06	7.999643e-06	1.150220e-08	5.552452e+01	7.574166e+02
1.530000e-06	8.034012e-06	1.152290e-08	5.576307e+01	7.588972e+02
1.540000e-06	8.065472e-06	1.154189e-08	5.598143e+01	7.601997e+02
1.550000e-06	8.094115e-06	1.155905e-08	5.618023e+01	7.613283e+02
1.560000e-06	8.119867e-06	1.157509e-08	5.635897e+01	7.622937e+02
1.570000e-06	8.142643e-06	1.159017e-08	5.651706e+01	7.631111e+02
1.580000e-06	8.162572e-06	1.160194e-08	5.665539e+01	7.637969e+02
1.590000e-06	8.179559e-06	1.161023e-08	5.677329e+01	7.643648e+02
1.600000e-06	8.193448e-06	1.161567e-08	5.686969e+01	7.648231e+02
1.610000e-06	8.204185e-06	1.162001e-08	5.694422e+01	7.651727e+02
1.620000e-06	8.211780e-06	1.162332e-08	5.699693e+01	7.654082e+02
1.630000e-06	8.216458e-06	1.162587e-08	5.702940e+01	7.655198e+02
1.640000e-06	8.218201e-06	1.162785e-08	5.704150e+01	7.654971e+02
1.650000e-06	8.217044e-06	1.162676e-08	5.703347e+01	7.653322e+02
1.660000e-06	8.213240e-06	1.162188e-08	5.700707e+01	7.650226e+02
1.670000e-06	8.206711e-06	1.161380e-08	5.696175e+01	7.645719e+02
1.680000e-06	8.197409e-06	1.160387e-08	5.689718e+01	7.639890e+02
1.690000e-06	8.185303e-06	1.159357e-08	5.681316e+01	7.632856e+02
1.700000e-06	8.170300e-06	1.158363e-08	5.670903e+01	7.624740e+02
1.710000e-06	8.152686e-06	1.157337e-08	5.658677e+01	7.615638e+02
1.720000e-06	8.132718e-06	1.155560e-08	5.644817e+01	7.605612e+02
1.730000e-06	8.110049e-06	1.151702e-08	5.629083e+01	7.594691e+02
1.740000e-06	8.084016e-06	1.149259e-08	5.611014e+01	7.582885e+02
1.750000e-06	8.054155e-06	1.148657e-08	5.590288e+01	7.570208e+02
1.760000e-06	8.020917e-06	1.147323e-08	5.567217e+01	7.556692e+02
1.770000e-06	7.985219e-06	1.145903e-08	5.542440e+01	7.542401e+02
1.780000e-06	7.947201e-06	1.145747e-08	5.516052e+01	7.527411e+02
1.790000e-06	7.906916e-06	1.143293e-08	5.488091e+01	7.511791e+02
1.800000e-06	7.864617e-06	1.140057e-08	5.458732e+01	7.495564e+02
1.810000e-06	7.819770e-06	1.142102e-08	5.427604e+01	7.478672e+02
1.820000e-06	7.772059e-06	1.141426e-08	5.394489e+01	7.460961e+02
1.830000e-06	7.721512e-06	1.136788e-08	5.359405e+01	7.442179e+02
1.840000e-06	7.667796e-06	1.132894e-08	5.322121e+01	7.422010e+02
1.850000e-06	7.611177e-06	1.128823e-08	5.282822e+01	7.400125e+02
1.860000e-06	7.551850e-06	1.126628e-08	5.241644e+01	7.376246e+02
1.870000e-06	7.489685e-06	1.123782e-08	5.198496e+01	7.350200e+02
1.880000e-06	7.424748e-06	1.119998e-08	5.153424e+01	7.321959e+02
1.890000e-06	7.356925e-06	1.114680e-08	5.106349e+01	7.291648e+02
1.900000e-06	7.286203e-06	1.107906e-08	5.057262e+01	7.259511e+02
1.910000e-06	7.212607e-06	1.101636e-08	5.006180e+01	7.225856e+02
1.920000e-06	7.136227e-06	1.097303e-08	4.953165e+01	7.190983e+02
1.930000e-06	7.057150e-06	1.094706e-08	4.898279e+01	7.155112e+02
1.940000e-06	6.975482e-06	1.088896e-08	4.841595e+01	7.118330e+02
1.950000e-06	6.891246e-06	1.082395e-08	4.783127e+01	7.080583e+02
1.960000e-06	6.804272e-06	1.076045e-08	4.722759e+01	7.041685e+02
1.970000e-06	6.714804e-06	1.069272e-08	4.660661e+01	7.001378e+02
1.980000e-06	6.623026e-06	1.062061e-08	4.596959e+01	6.959394e+02
1.990000e-06	6.528882e-06	1.056077e-08	4.531615e+01	6.915523e+02
2.000000e-06	6.432444e-06	1.050217e-08	4.464678e+01	6.869664e+02
2.010000e-06	6.333838e-06	1.042149e-08	4.396237e+01	6.821836e+02
2.020000e-06	6.232901e-06	1.034190e-08	4.326178e+01	6.772163e+02
2.030000e-06	6.129521e-06	1.026887e-08	4.254423e+01	6.720830e+02
2.040000e-06	6.024015e-06	1.019785e-08	4.181193e+01	6.668020e+02
2.050000e-06	5.916563e-06	1.010742e-08	4.106612e+01	6.613860e+02
2.060000e-06	5.807086e-06	1.001685e-08	4.030625e+01	6.558377e+02
2.070000e-06	5.695471e-06	9.937501e-09	3.953155e+01	6.501494e+02
2.080000e-06	5.581728e-06	9.855924e-09	3.874208e+01	6.443041e+02
2.090000e-06	5.465784e-06	9.761360e-09	3.793732e+01	6.382804e+02
2.100000e-06	5.347636e-06	9.665309e-09	3.711727e+01	6.320570e+02
2.110000e-06	5.227513e-06	9.566687e-09	3.628351e+01	6.256175e+02
2.120000e-06	5.105582e-06	9.452877e-09	3.543720e+01	6.189531e+02
2.130000e-06	4.981899e-06	9.346804e-09	3.457873e+01	6.120627e+02
2.140000e-06	4.856324e-06	9.254298e-09	3.370713e+01	6.049507e+02
2.150000e-06	4.728931e-06	9.159043e-09	3.282291e+01	5.976230e+02
2.160000e-06	4.599888e-06	9.040582e-09	3.192724e+01	5.900831e+02
2.170000e-06	4.469253e-06	8.912032e-09	3.102053e+01	5.823293e+02
2.180000e-06	4.336984e-06	8.785511e-09	3.010246e+01	5.743532e+02
2.190000e-06	4.203006e-06	8.659529e-09	2.917253e+01	5.661411e+02
2.200000e-06	4.067464e-06	8.530471e-09	2.823176e+01	5.576773e+02
2.210000e-06	3.930466e-06	8.403852e-09	2.728087e+01	5.489470e+02
2.220000e-06	3.791956e-06	8.272842e-09	2.631949e+01	5.399397e+02
2.230000e-06	3.651871e-06	8.129982e-09	2.534718e+01	5.306507e+02
2.240000e-06	3.510258e-06	7.983645e-09	2.436426e+01	5.210802e+02
2.250000e-06	3.367281e-06	7.837367e-09	2.337187e+01	5.112304e+02
2.260000e-06	3.223145e-06	7.684552e-09	2.237144e+01	5.011022e+02
2.270000e-06	3.077837e-06	7.524009e-09	2.136288e+01	4.906911e+02
2.280000e-06	2.931397e-06	7.361634e-09	2.034646e+01	4.799852e+02
2.290000e-06	2.784030e-06	7.196945e-09	1.932360e+01	4.689657e+02
2.300000e-06	2.635698e-06	7.026169e-09	1.829405e+01	4.576092e+02
2.310000e-06	2.486306e-06	6.844617e-09	1.725714e+01	4.458919e+02
2.320000e-06	2.335984e-06	6.657294e-09	1.621377e+01	4.337943e+02
2.330000e-06	2.184807e-06	6.465450e-09	1.516447e+01	4.213040e+02
2.340000e-06	2.032850e-06	6.271435e-09	1.410975e+01	4.084174e+02
2.350000e-06	1.880295e-06	6.076132e-09	1.305089e+01	3.951367e+02
2.360000e-06	1.727232e-06	5.872874e-09	1.198850e+01	3.814657e+02
2.370000e-06	1.573637e-06	5.656772e-09	1.092242e+01	3.674036e+02
2.380000e-06	1.419534e-06	5.431624e-09	9.852804e+00	3.529392e+02
2.390000e-06	1.264959e-06	5.200666e-09	8.779920e+00	3.380478e+02
2.400000e-06	1.109999e-06	4.963693e-09	7.704365e+00	3.226914e+02
2.410000e-06	9.547289e-07	4.721006e-09	6.626653e+00	3.068222e+02
2.420000e-06	7.991619e-07	4.472663e-09	5.546882e+00	2.903893e+02
2.430000e-06	6.433166e-07	4.215632e-09	4.465180e+00	2.733458e+02
2.440000e-06	4.872094e-07	3.947370e-09	3.381659e+00	2.556545e+02
2.450000e-06	3.308771e-07	3.670992e-09	2.296576e+00	2.372899e+02
2.460000e-06	1.743531e-07	3.383388e-09	1.210163e+00	2.182351e+02
2.470000e-06	1.766637e-08	3.079946e-09	1.226200e-01	1.984746e+02
2.480000e-06	-1.391101e-07	2.763334e-09	-9.655459e-01	1.779845e+02
2.490000e-06	-2.958790e-07	2.436610e-09	-2.053659e+00	1.567226e+02
2.500000e-06	-4.525040e-07	2.097915e-09	-3.140773e+00	1.346231e+02
2.510000e-06	-6.089223e-07	1.744555e-09	-4.226453e+00	1.115974e+02
2.520000e-06	-7.651119e-07	1.376464e-09	-5.310545e+00	8.754431e+01
2.530000e-06	-9.209426e-07	9.940888e-10	-6.392147e+00	6.236802e+01
2.540000e-06	-1.076427e-06	5.955452e-10	-7.471341e+00	3.600157e+01
2.550000e-06	-1.231599e-06	1.779111e-10	-8.548374e+00	8.432152e+00
2.560000e-06	-1.386411e-06	-2.603935e-10	-9.622908e+00	-2.027756e+01
2.570000e-06	-1.540770e-06	-7.175515e-10	-1.069429e+01	-4.997670e+01
2.580000e-06	-1.694557e-06	-1.186775e-09	-1.176170e+01	-8.042566e+01
2.590000e-06	-1.847701e-06	-1.662143e-09	-1.282466e+01	-1.113091e+02
2.600000e-06	-2.000168e-06	-2.136318e-09	-1.388292e+01	-1.422607e+02
2.610000e-06	-2.151851e-06	-2.603896e-09	-1.493573e+01	-1.728969e+02
2.620000e-06	-2.302687e-06	-3.061299e-09	-1.598266e+01	-2.028524e+02
2.630000e-06	-2.452795e-06	-3.503066e-09	-1.702454e+01	-2.318133e+02
2.640000e-06	-2.602007e-06	-3.926420e-09	-1.806020e+01	-2.595414e+02
2.650000e-06	-2.750007e-06	-4.329710e-09	-1.908745e+01	-2.858869e+02
2.660000e-06	-2.896966e-06	-4.713619e-09	-2.010748e+01	-3.107882e+02
2.670000e-06	-3.042973e-06	-5.076239e-09	-2.112090e+01	-3.342594e+02
2.680000e-06	-3.187854e-06	-5.416427e-09	-2.212649e+01	-3.563716e+02
2.690000e-06	-3.331542e-06	-5.737009e-09	-2.312381e+01	-3.772285e+02
2.700000e-06	-3.474031e-06	-6.040282e-09	-2.411281e+01	-3.969451e+02
2.710000e-06	-3.615124e-06	-6.327094e-09	-2.509212e+01	-4.156298e+02
2.720000e-06	-3.754647e-06	-6.597951e-09	-2.606053e+01	-4.333745e+02
2.730000e-06	-3.892789e-06	-6.854497e-09	-2.701936e+01	-4.502507e+02
2.740000e-06	-4.029611e-06	-7.098234e-09	-2.796902e+01	-4.663124e+02
2.750000e-06	-4.164961e-06	-7.332351e-09	-2.890847e+01	-4.816018e+02
2.760000e-06	-4.298895e-06	-7.556104e-09	-2.983809e+01	-4.961561e+02
2.770000e-06	-4.431262e-06	-7.770042e-09	-3.075683e+01	-5.100128e+02
2.780000e-06	-4.561970e-06	-7.976324e-09	-3.166406e+01	-5.232120e+02
2.790000e-06	-4.691210e-06	-8.173190e-09	-3.256110e+01	-5.357969e+02
2.800000e-06	-4.818841e-06	-8.359769e-09	-3.344697e+01	-5.478105e+02
2.810000e-06	-4.944801e-06	-8.535966e-09	-3.432124e+01	-5.592928e+02
2.820000e-06	-5.068968e-06	-8.702428e-09	-3.518307e+01	-5.702777e+02
2.830000e-06	-5.191306e-06	-8.860229e-09	-3.603220e+01	-5.807920e+02
2.840000e-06	-5.311836e-06	-9.012224e-09	-3.686878e+01	-5.908549e+02
2.850000e-06	-5.430456e-06	-9.157467e-09	-3.769211e+01	-6.004808e+02
2.860000e-06	-5.546913e-06	-9.296498e-09	-3.850043e+01	-6.096813e+02
2.870000e-06	-5.660972e-06	-9.430742e-09	-3.929210e+01	-6.184680e+02
2.880000e-06	-5.772714e-06	-9.558377e-09	-4.006768e+01	-6.268539e+02
2.890000e-06	-5.882320e-06	-9.682359e-09	-4.082844e+01	-6.348538e+02
2.900000e-06	-5.989923e-06	-9.801916e-09	-4.157530e+01	-6.424836e+02
2.910000e-06	-6.095520e-06	-9.914735e-09	-4.230824e+01	-6.497595e+02
2.920000e-06	-6.198878e-06	-1.002145e-08	-4.302563e+01	-6.566964e+02
2.930000e-06	-6.299810e-06	-1.012217e-08	-4.372619e+01	-6.633081e+02
2.940000e-06	-6.398462e-06	-1.021843e-08	-4.441092e+01	-6.696080e+02
