# Temperatura_=_72.0
# Concentracion g/m^3_=_15000.0
# C_Vs_to_Am_M_A/Vsm_=_65563218390.804596
# pendiente_HvsI_1/m_=_3716.3
# ordenada_HvsI_A/m_=_1297.0
# frecuencia_Hz_=_302341.33355404367

Tiempo_(s)	Campo_(V.s)	Magnetizacion_(V.s)	Campo_(kA/m)	Magnetizacion_(A/m)
0.000000e+00	-8.190982e-06	-1.256654e-08	-5.691799e+01	-8.220717e+02
1.000000e-08	-8.188801e-06	-1.257135e-08	-5.690284e+01	-8.218374e+02
2.000000e-08	-8.183850e-06	-1.256775e-08	-5.686843e+01	-8.214419e+02
3.000000e-08	-8.176271e-06	-1.255936e-08	-5.681577e+01	-8.208934e+02
4.000000e-08	-8.165840e-06	-1.255068e-08	-5.674328e+01	-8.202058e+02
5.000000e-08	-8.152443e-06	-1.253574e-08	-5.665019e+01	-8.193939e+02
6.000000e-08	-8.136094e-06	-1.251508e-08	-5.653658e+01	-8.184696e+02
7.000000e-08	-8.117183e-06	-1.249394e-08	-5.640517e+01	-8.174392e+02
8.000000e-08	-8.096008e-06	-1.246212e-08	-5.625803e+01	-8.163032e+02
9.000000e-08	-8.072082e-06	-1.250760e-08	-5.609177e+01	-8.150582e+02
1.000000e-07	-8.044896e-06	-1.252300e-08	-5.590286e+01	-8.137013e+02
1.100000e-07	-8.014515e-06	-1.243900e-08	-5.569175e+01	-8.122334e+02
1.200000e-07	-7.981122e-06	-1.239411e-08	-5.545970e+01	-8.106625e+02
1.300000e-07	-7.944858e-06	-1.237464e-08	-5.520771e+01	-8.090028e+02
1.400000e-07	-7.906129e-06	-1.234321e-08	-5.493859e+01	-8.072723e+02
1.500000e-07	-7.865051e-06	-1.226314e-08	-5.465314e+01	-8.054866e+02
1.600000e-07	-7.821522e-06	-1.226145e-08	-5.435066e+01	-8.036525e+02
1.700000e-07	-7.775316e-06	-1.228745e-08	-5.402958e+01	-8.017628e+02
1.800000e-07	-7.726161e-06	-1.212304e-08	-5.368801e+01	-7.997933e+02
1.900000e-07	-7.674117e-06	-1.218303e-08	-5.332636e+01	-7.977049e+02
2.000000e-07	-7.619157e-06	-1.218115e-08	-5.294446e+01	-7.954493e+02
2.100000e-07	-7.561329e-06	-1.205783e-08	-5.254262e+01	-7.929780e+02
2.200000e-07	-7.500890e-06	-1.205375e-08	-5.212263e+01	-7.902525e+02
2.300000e-07	-7.437883e-06	-1.196604e-08	-5.168481e+01	-7.872522e+02
2.400000e-07	-7.372093e-06	-1.196465e-08	-5.122765e+01	-7.839796e+02
2.500000e-07	-7.303433e-06	-1.187673e-08	-5.075054e+01	-7.804590e+02
2.600000e-07	-7.231932e-06	-1.183603e-08	-5.025369e+01	-7.767307e+02
2.700000e-07	-7.157535e-06	-1.178855e-08	-4.973671e+01	-7.728414e+02
2.800000e-07	-7.080260e-06	-1.170423e-08	-4.919974e+01	-7.688328e+02
2.900000e-07	-7.000181e-06	-1.163097e-08	-4.864328e+01	-7.647322e+02
3.000000e-07	-6.917554e-06	-1.156549e-08	-4.806911e+01	-7.605463e+02
3.100000e-07	-6.832620e-06	-1.155920e-08	-4.747892e+01	-7.562609e+02
3.200000e-07	-6.745256e-06	-1.145302e-08	-4.687184e+01	-7.518458e+02
3.300000e-07	-6.655335e-06	-1.136679e-08	-4.624699e+01	-7.472636e+02
3.400000e-07	-6.563002e-06	-1.132125e-08	-4.560538e+01	-7.424797e+02
3.500000e-07	-6.468382e-06	-1.124480e-08	-4.494788e+01	-7.374712e+02
3.600000e-07	-6.371394e-06	-1.114591e-08	-4.427393e+01	-7.322325e+02
3.700000e-07	-6.272073e-06	-1.105770e-08	-4.358376e+01	-7.267754e+02
3.800000e-07	-6.170533e-06	-1.099422e-08	-4.287817e+01	-7.211244e+02
3.900000e-07	-6.066703e-06	-1.089452e-08	-4.215667e+01	-7.153091e+02
4.000000e-07	-5.960650e-06	-1.079307e-08	-4.141972e+01	-7.093549e+02
4.100000e-07	-5.852541e-06	-1.071139e-08	-4.066849e+01	-7.032759e+02
4.200000e-07	-5.742436e-06	-1.063019e-08	-3.990338e+01	-6.970705e+02
4.300000e-07	-5.630174e-06	-1.051814e-08	-3.912329e+01	-6.907220e+02
4.400000e-07	-5.515653e-06	-1.039993e-08	-3.832750e+01	-6.842032e+02
4.500000e-07	-5.399042e-06	-1.030768e-08	-3.751719e+01	-6.774834e+02
4.600000e-07	-5.280475e-06	-1.021678e-08	-3.669329e+01	-6.705357e+02
4.700000e-07	-5.160012e-06	-1.010249e-08	-3.585620e+01	-6.633430e+02
4.800000e-07	-5.037720e-06	-9.983775e-09	-3.500641e+01	-6.559000e+02
4.900000e-07	-4.913639e-06	-9.871537e-09	-3.414419e+01	-6.482120e+02
5.000000e-07	-4.787859e-06	-9.749667e-09	-3.327016e+01	-6.402903e+02
5.100000e-07	-4.660375e-06	-9.619759e-09	-3.238429e+01	-6.321462e+02
5.200000e-07	-4.531084e-06	-9.492202e-09	-3.148587e+01	-6.237854e+02
5.300000e-07	-4.400054e-06	-9.365021e-09	-3.057536e+01	-6.152046e+02
5.400000e-07	-4.267408e-06	-9.225577e-09	-2.965362e+01	-6.063915e+02
5.500000e-07	-4.133260e-06	-9.083851e-09	-2.872145e+01	-5.973275e+02
5.600000e-07	-3.997562e-06	-8.943041e-09	-2.777850e+01	-5.879930e+02
5.700000e-07	-3.860191e-06	-8.800462e-09	-2.682393e+01	-5.783715e+02
5.800000e-07	-3.721250e-06	-8.643755e-09	-2.585845e+01	-5.684539e+02
5.900000e-07	-3.580788e-06	-8.484430e-09	-2.488239e+01	-5.582388e+02
6.000000e-07	-3.438764e-06	-8.324698e-09	-2.389549e+01	-5.477302e+02
6.100000e-07	-3.295333e-06	-8.160450e-09	-2.289881e+01	-5.369329e+02
6.200000e-07	-3.150697e-06	-7.990368e-09	-2.189375e+01	-5.258471e+02
6.300000e-07	-3.004960e-06	-7.812512e-09	-2.088105e+01	-5.144643e+02
6.400000e-07	-2.858199e-06	-7.630596e-09	-1.986122e+01	-5.027660e+02
6.500000e-07	-2.710445e-06	-7.443474e-09	-1.883450e+01	-4.907258e+02
6.600000e-07	-2.561769e-06	-7.255337e-09	-1.780137e+01	-4.783139e+02
6.700000e-07	-2.412280e-06	-7.061032e-09	-1.676260e+01	-4.655043e+02
6.800000e-07	-2.262008e-06	-6.862148e-09	-1.571837e+01	-4.522797e+02
6.900000e-07	-2.110916e-06	-6.655014e-09	-1.466846e+01	-4.386348e+02
7.000000e-07	-1.959001e-06	-6.441051e-09	-1.361282e+01	-4.245753e+02
7.100000e-07	-1.806336e-06	-6.221256e-09	-1.255198e+01	-4.101122e+02
7.200000e-07	-1.653031e-06	-5.994874e-09	-1.148668e+01	-3.952542e+02
7.300000e-07	-1.499231e-06	-5.763569e-09	-1.041795e+01	-3.799985e+02
7.400000e-07	-1.345004e-06	-5.522314e-09	-9.346244e+00	-3.643249e+02
7.500000e-07	-1.190300e-06	-5.271681e-09	-8.271227e+00	-3.481930e+02
7.600000e-07	-1.035128e-06	-5.015667e-09	-7.192956e+00	-3.315456e+02
7.700000e-07	-8.795872e-07	-4.755827e-09	-6.112129e+00	-3.143167e+02
7.800000e-07	-7.237734e-07	-4.483882e-09	-5.029400e+00	-2.964421e+02
7.900000e-07	-5.677590e-07	-4.201361e-09	-3.945278e+00	-2.778691e+02
8.000000e-07	-4.116005e-07	-3.909514e-09	-2.860154e+00	-2.585631e+02
8.100000e-07	-2.552894e-07	-3.606171e-09	-1.773970e+00	-2.385068e+02
8.200000e-07	-9.882895e-08	-3.288312e-09	-6.867486e-01	-2.176940e+02
8.300000e-07	5.767956e-08	-2.956788e-09	4.008072e-01	-1.961160e+02
8.400000e-07	2.141603e-07	-2.614339e-09	1.488170e+00	-1.737482e+02
8.500000e-07	3.706067e-07	-2.258133e-09	2.575294e+00	-1.505371e+02
8.600000e-07	5.269753e-07	-1.888768e-09	3.661878e+00	-1.263965e+02
8.700000e-07	6.832436e-07	-1.505847e-09	4.747765e+00	-1.012129e+02
8.800000e-07	8.393516e-07	-1.109376e-09	5.832537e+00	-7.486312e+01
8.900000e-07	9.952198e-07	-6.895903e-10	6.915643e+00	-4.724058e+01
9.000000e-07	1.150744e-06	-2.488087e-10	7.996358e+00	-1.828717e+01
9.100000e-07	1.305853e-06	2.117901e-10	9.074192e+00	1.197712e+01
9.200000e-07	1.460486e-06	6.911560e-10	1.014871e+01	4.343267e+01
9.300000e-07	1.614610e-06	1.183593e-09	1.121970e+01	7.585265e+01
9.400000e-07	1.768216e-06	1.687838e-09	1.228709e+01	1.089121e+02
9.500000e-07	1.921204e-06	2.195479e-09	1.335018e+01	1.422131e+02
9.600000e-07	2.073442e-06	2.700063e-09	1.440806e+01	1.753227e+02
9.700000e-07	2.224781e-06	3.192925e-09	1.545969e+01	2.078155e+02
9.800000e-07	2.375165e-06	3.669356e-09	1.650469e+01	2.393164e+02
9.900000e-07	2.524609e-06	4.126030e-09	1.754316e+01	2.695320e+02
1.000000e-06	2.673110e-06	4.559102e-09	1.857507e+01	2.982706e+02
1.010000e-06	2.820621e-06	4.968884e-09	1.960010e+01	3.254439e+02
1.020000e-06	2.967135e-06	5.358878e-09	2.061820e+01	3.510554e+02
1.030000e-06	3.112630e-06	5.729066e-09	2.162923e+01	3.751773e+02
1.040000e-06	3.256979e-06	6.075503e-09	2.263229e+01	3.979224e+02
1.050000e-06	3.400034e-06	6.401905e-09	2.362636e+01	4.194171e+02
1.060000e-06	3.541755e-06	6.712843e-09	2.461116e+01	4.397802e+02
1.070000e-06	3.682085e-06	7.007026e-09	2.558629e+01	4.591104e+02
1.080000e-06	3.820998e-06	7.283766e-09	2.655158e+01	4.774826e+02
1.090000e-06	3.958541e-06	7.547199e-09	2.750735e+01	4.949524e+02
1.100000e-06	4.094578e-06	7.800717e-09	2.845265e+01	5.115639e+02
1.110000e-06	4.229059e-06	8.040289e-09	2.938714e+01	5.273583e+02
1.120000e-06	4.362082e-06	8.267477e-09	3.031150e+01	5.423808e+02
1.130000e-06	4.493581e-06	8.485247e-09	3.122526e+01	5.566821e+02
1.140000e-06	4.623543e-06	8.694098e-09	3.212835e+01	5.703176e+02
1.150000e-06	4.751906e-06	8.890384e-09	3.302033e+01	5.833419e+02
1.160000e-06	4.878536e-06	9.075967e-09	3.390026e+01	5.958044e+02
1.170000e-06	5.003470e-06	9.254566e-09	3.476842e+01	6.077447e+02
1.180000e-06	5.126722e-06	9.426379e-09	3.562488e+01	6.191913e+02
1.190000e-06	5.248194e-06	9.592073e-09	3.646897e+01	6.301636e+02
1.200000e-06	5.367742e-06	9.752711e-09	3.729969e+01	6.406750e+02
1.210000e-06	5.485279e-06	9.907591e-09	3.811644e+01	6.507378e+02
1.220000e-06	5.600737e-06	1.005465e-08	3.891874e+01	6.603670e+02
1.230000e-06	5.714000e-06	1.019554e-08	3.970579e+01	6.695812e+02
1.240000e-06	5.825061e-06	1.033136e-08	4.047754e+01	6.784023e+02
1.250000e-06	5.934054e-06	1.046067e-08	4.123491e+01	6.868520e+02
1.260000e-06	6.040969e-06	1.058252e-08	4.197785e+01	6.949481e+02
1.270000e-06	6.145662e-06	1.070102e-08	4.270535e+01	7.027013e+02
1.280000e-06	6.248088e-06	1.081439e-08	4.341709e+01	7.101151e+02
1.290000e-06	6.348210e-06	1.092082e-08	4.411282e+01	7.171866e+02
1.300000e-06	6.445928e-06	1.102183e-08	4.479185e+01	7.239117e+02
1.310000e-06	6.541193e-06	1.111812e-08	4.545384e+01	7.302902e+02
1.320000e-06	6.634182e-06	1.120929e-08	4.610000e+01	7.363309e+02
1.330000e-06	6.724879e-06	1.129598e-08	4.673024e+01	7.420543e+02
1.340000e-06	6.813092e-06	1.137951e-08	4.734322e+01	7.474924e+02
1.350000e-06	6.898896e-06	1.145843e-08	4.793946e+01	7.526845e+02
1.360000e-06	6.982325e-06	1.153411e-08	4.851920e+01	7.576714e+02
1.370000e-06	7.063219e-06	1.160728e-08	4.908132e+01	7.624874e+02
1.380000e-06	7.141534e-06	1.167759e-08	4.962552e+01	7.671543e+02
1.390000e-06	7.217224e-06	1.174505e-08	5.015148e+01	7.716781e+02
1.400000e-06	7.290115e-06	1.180957e-08	5.065799e+01	7.760495e+02
1.410000e-06	7.360367e-06	1.187216e-08	5.114616e+01	7.802478e+02
1.420000e-06	7.428134e-06	1.193165e-08	5.161706e+01	7.842477e+02
1.430000e-06	7.493229e-06	1.198871e-08	5.206940e+01	7.880268e+02
1.440000e-06	7.555659e-06	1.204161e-08	5.250322e+01	7.915715e+02
1.450000e-06	7.615565e-06	1.209200e-08	5.291950e+01	7.948807e+02
1.460000e-06	7.672821e-06	1.213882e-08	5.331736e+01	7.979646e+02
1.470000e-06	7.727313e-06	1.218208e-08	5.369602e+01	8.008416e+02
1.480000e-06	7.778810e-06	1.222522e-08	5.405386e+01	8.035318e+02
1.490000e-06	7.827093e-06	1.226648e-08	5.438938e+01	8.060515e+02
1.500000e-06	7.872477e-06	1.230298e-08	5.470474e+01	8.084083e+02
1.510000e-06	7.915093e-06	1.233265e-08	5.500087e+01	8.105998e+02
1.520000e-06	7.954814e-06	1.235849e-08	5.527689e+01	8.126156e+02
1.530000e-06	7.991822e-06	1.238428e-08	5.553406e+01	8.144414e+02
1.540000e-06	8.026086e-06	1.240933e-08	5.577215e+01	8.160652e+02
1.550000e-06	8.057424e-06	1.243132e-08	5.598991e+01	8.174819e+02
1.560000e-06	8.085961e-06	1.244947e-08	5.618821e+01	8.186969e+02
1.570000e-06	8.111544e-06	1.246501e-08	5.636598e+01	8.197256e+02
1.580000e-06	8.134045e-06	1.247990e-08	5.652234e+01	8.205902e+02
1.590000e-06	8.153803e-06	1.249263e-08	5.665963e+01	8.213146e+02
1.600000e-06	8.170703e-06	1.250126e-08	5.677708e+01	8.219187e+02
1.610000e-06	8.184458e-06	1.250682e-08	5.687266e+01	8.224137e+02
1.620000e-06	8.195005e-06	1.251179e-08	5.694594e+01	8.228001e+02
1.630000e-06	8.202445e-06	1.251632e-08	5.699764e+01	8.230690e+02
1.640000e-06	8.207055e-06	1.251913e-08	5.702968e+01	8.232055e+02
1.650000e-06	8.208756e-06	1.252125e-08	5.704150e+01	8.231940e+02
1.660000e-06	8.207511e-06	1.251836e-08	5.703285e+01	8.230234e+02
1.670000e-06	8.203601e-06	1.250636e-08	5.700567e+01	8.226905e+02
1.680000e-06	8.196942e-06	1.250131e-08	5.695940e+01	8.222006e+02
1.690000e-06	8.187489e-06	1.249525e-08	5.689372e+01	8.215658e+02
1.700000e-06	8.175279e-06	1.248453e-08	5.680887e+01	8.208009e+02
1.710000e-06	8.160196e-06	1.247651e-08	5.670406e+01	8.199196e+02
1.720000e-06	8.142508e-06	1.247147e-08	5.658115e+01	8.189304e+02
1.730000e-06	8.122487e-06	1.246675e-08	5.644203e+01	8.178360e+02
1.740000e-06	8.099777e-06	1.234668e-08	5.628422e+01	8.166342e+02
1.750000e-06	8.073655e-06	1.232881e-08	5.610270e+01	8.153213e+02
1.760000e-06	8.043689e-06	1.237676e-08	5.589447e+01	8.138964e+02
1.770000e-06	8.010361e-06	1.234278e-08	5.566288e+01	8.123644e+02
1.780000e-06	7.974595e-06	1.231193e-08	5.541434e+01	8.107375e+02
1.790000e-06	7.936493e-06	1.237103e-08	5.514958e+01	8.090325e+02
1.800000e-06	7.896186e-06	1.233913e-08	5.486950e+01	8.072669e+02
1.810000e-06	7.853911e-06	1.215313e-08	5.457573e+01	8.054517e+02
1.820000e-06	7.808963e-06	1.231268e-08	5.426339e+01	8.035857e+02
1.830000e-06	7.761158e-06	1.221826e-08	5.393120e+01	8.016514e+02
1.840000e-06	7.710541e-06	1.216640e-08	5.357947e+01	7.996150e+02
1.850000e-06	7.656720e-06	1.223094e-08	5.320547e+01	7.974310e+02
1.860000e-06	7.600063e-06	1.206426e-08	5.281178e+01	7.950497e+02
1.870000e-06	7.540663e-06	1.215398e-08	5.239901e+01	7.924275e+02
1.880000e-06	7.478421e-06	1.201318e-08	5.196650e+01	7.895361e+02
1.890000e-06	7.413501e-06	1.200253e-08	5.151539e+01	7.863686e+02
1.900000e-06	7.345677e-06	1.200933e-08	5.104408e+01	7.829412e+02
1.910000e-06	7.274927e-06	1.184708e-08	5.055245e+01	7.792889e+02
1.920000e-06	7.201357e-06	1.185328e-08	5.004122e+01	7.754572e+02
1.930000e-06	7.124974e-06	1.175296e-08	4.951045e+01	7.714911e+02
1.940000e-06	7.045796e-06	1.177125e-08	4.896025e+01	7.674246e+02
1.950000e-06	6.964003e-06	1.164940e-08	4.839188e+01	7.632726e+02
1.960000e-06	6.879747e-06	1.157527e-08	4.780640e+01	7.590291e+02
1.970000e-06	6.792842e-06	1.156383e-08	4.720251e+01	7.546691e+02
1.980000e-06	6.703353e-06	1.141686e-08	4.658066e+01	7.501570e+02
1.990000e-06	6.611466e-06	1.138062e-08	4.594215e+01	7.454557e+02
2.000000e-06	6.517272e-06	1.129600e-08	4.528761e+01	7.405370e+02
2.010000e-06	6.420767e-06	1.126377e-08	4.461701e+01	7.353882e+02
2.020000e-06	6.322064e-06	1.113319e-08	4.393114e+01	7.300144e+02
2.030000e-06	6.221102e-06	1.105008e-08	4.322957e+01	7.244360e+02
2.040000e-06	6.117748e-06	1.098605e-08	4.251138e+01	7.186817e+02
2.050000e-06	6.012249e-06	1.089395e-08	4.177828e+01	7.127795e+02
2.060000e-06	5.904744e-06	1.080222e-08	4.103124e+01	7.067487e+02
2.070000e-06	5.795243e-06	1.068851e-08	4.027033e+01	7.005940e+02
2.080000e-06	5.683644e-06	1.062347e-08	3.949485e+01	6.943044e+02
2.090000e-06	5.569911e-06	1.050487e-08	3.870453e+01	6.878561e+02
2.100000e-06	5.453996e-06	1.040759e-08	3.789906e+01	6.812187e+02
2.110000e-06	5.335975e-06	1.030132e-08	3.707895e+01	6.743631e+02
2.120000e-06	5.215953e-06	1.020341e-08	3.624493e+01	6.672678e+02
2.130000e-06	5.094093e-06	1.006873e-08	3.539814e+01	6.599229e+02
2.140000e-06	4.970469e-06	9.955083e-09	3.453909e+01	6.523299e+02
2.150000e-06	4.844950e-06	9.854224e-09	3.366688e+01	6.444984e+02
2.160000e-06	4.717666e-06	9.742525e-09	3.278240e+01	6.364405e+02
2.170000e-06	4.588706e-06	9.613039e-09	3.188628e+01	6.281646e+02
2.180000e-06	4.458160e-06	9.468619e-09	3.097913e+01	6.196710e+02
2.190000e-06	4.325929e-06	9.335515e-09	3.006027e+01	6.109510e+02
2.200000e-06	4.191984e-06	9.192567e-09	2.912951e+01	6.019879e+02
2.210000e-06	4.056518e-06	9.058902e-09	2.818818e+01	5.927618e+02
2.220000e-06	3.919560e-06	8.919733e-09	2.723647e+01	5.832544e+02
2.230000e-06	3.781038e-06	8.778765e-09	2.627390e+01	5.734536e+02
2.240000e-06	3.640981e-06	8.618799e-09	2.530066e+01	5.633550e+02
2.250000e-06	3.499519e-06	8.461910e-09	2.431767e+01	5.529610e+02
2.260000e-06	3.356752e-06	8.304261e-09	2.332560e+01	5.422766e+02
2.270000e-06	3.212718e-06	8.141100e-09	2.232473e+01	5.313045e+02
2.280000e-06	3.067424e-06	7.966058e-09	2.131510e+01	5.200400e+02
2.290000e-06	2.921006e-06	7.785397e-09	2.029766e+01	5.084683e+02
2.300000e-06	2.773637e-06	7.606303e-09	1.927362e+01	4.965658e+02
2.310000e-06	2.625355e-06	7.422030e-09	1.824322e+01	4.843032e+02
2.320000e-06	2.476056e-06	7.232138e-09	1.720577e+01	4.716524e+02
2.330000e-06	2.325815e-06	7.031687e-09	1.616176e+01	4.585920e+02
2.340000e-06	2.174823e-06	6.823205e-09	1.511254e+01	4.451120e+02
2.350000e-06	2.023164e-06	6.610747e-09	1.405868e+01	4.312141e+02
2.360000e-06	1.870849e-06	6.394924e-09	1.300027e+01	4.169081e+02
2.370000e-06	1.717940e-06	6.172797e-09	1.193772e+01	4.022046e+02
2.380000e-06	1.564504e-06	5.941731e-09	1.087152e+01	3.871064e+02
2.390000e-06	1.410546e-06	5.703521e-09	9.801690e+00	3.716005e+02
2.400000e-06	1.256099e-06	5.457577e-09	8.728454e+00	3.556546e+02
2.410000e-06	1.101225e-06	5.205057e-09	7.652256e+00	3.392172e+02
2.420000e-06	9.459939e-07	4.947604e-09	6.573579e+00	3.222246e+02
2.430000e-06	7.904921e-07	4.680692e-09	5.493019e+00	3.046107e+02
2.440000e-06	6.346859e-07	4.402139e-09	4.410343e+00	2.863172e+02
2.450000e-06	4.785745e-07	4.112102e-09	3.325548e+00	2.673019e+02
2.460000e-06	3.223057e-07	3.812470e-09	2.239657e+00	2.475414e+02
2.470000e-06	1.658788e-07	3.501551e-09	1.152669e+00	2.270263e+02
2.480000e-06	9.305630e-09	3.176159e-09	6.466352e-02	2.057505e+02
2.490000e-06	-1.473222e-07	2.838041e-09	-1.023721e+00	1.836975e+02
2.500000e-06	-3.039245e-07	2.487961e-09	-2.111929e+00	1.608260e+02
2.510000e-06	-4.604417e-07	2.122000e-09	-3.199545e+00	1.370627e+02
2.520000e-06	-6.168075e-07	1.741430e-09	-4.286109e+00	1.123035e+02
2.530000e-06	-7.729002e-07	1.347859e-09	-5.370776e+00	8.642602e+01
2.540000e-06	-9.286527e-07	9.362102e-10	-6.453078e+00	5.931369e+01
2.550000e-06	-1.084089e-06	5.031229e-10	-7.533181e+00	3.088554e+01
2.560000e-06	-1.239152e-06	5.013207e-11	-8.610694e+00	1.127710e+00
2.570000e-06	-1.393720e-06	-4.208385e-10	-9.684768e+00	-2.988109e+01
2.580000e-06	-1.547812e-06	-9.098948e-10	-1.075553e+01	-6.195603e+01
2.590000e-06	-1.701349e-06	-1.414826e-09	-1.182244e+01	-9.480851e+01
2.600000e-06	-1.854214e-06	-1.928433e-09	-1.288467e+01	-1.280654e+02
2.610000e-06	-2.006383e-06	-2.442889e-09	-1.394207e+01	-1.613024e+02
2.620000e-06	-2.157853e-06	-2.949608e-09	-1.499462e+01	-1.940860e+02
2.630000e-06	-2.308555e-06	-3.437711e-09	-1.604183e+01	-2.260168e+02
2.640000e-06	-2.458401e-06	-3.902703e-09	-1.708309e+01	-2.567662e+02
2.650000e-06	-2.607322e-06	-4.348054e-09	-1.811792e+01	-2.861013e+02
2.660000e-06	-2.755163e-06	-4.772584e-09	-1.914524e+01	-3.138938e+02
2.670000e-06	-2.901930e-06	-5.174164e-09	-2.016511e+01	-3.401136e+02
2.680000e-06	-3.047675e-06	-5.555015e-09	-2.117787e+01	-3.648090e+02
2.690000e-06	-3.192297e-06	-5.916325e-09	-2.218282e+01	-3.880802e+02
2.700000e-06	-3.335718e-06	-6.254804e-09	-2.317944e+01	-4.100513e+02
2.710000e-06	-3.477945e-06	-6.572876e-09	-2.416775e+01	-4.308460e+02
2.720000e-06	-3.618822e-06	-6.874440e-09	-2.514669e+01	-4.505719e+02
2.730000e-06	-3.758209e-06	-7.161867e-09	-2.611527e+01	-4.693130e+02
2.740000e-06	-3.896156e-06	-7.434173e-09	-2.707384e+01	-4.871318e+02
2.750000e-06	-4.032652e-06	-7.688508e-09	-2.802234e+01	-5.040757e+02
2.760000e-06	-4.167725e-06	-7.932144e-09	-2.896094e+01	-5.201861e+02
2.770000e-06	-4.301380e-06	-8.166725e-09	-2.988969e+01	-5.355063e+02
2.780000e-06	-4.433464e-06	-8.392202e-09	-3.080752e+01	-5.500846e+02
2.790000e-06	-4.564020e-06	-8.607746e-09	-3.171474e+01	-5.639751e+02
2.800000e-06	-4.693052e-06	-8.813983e-09	-3.261136e+01	-5.772333e+02
2.810000e-06	-4.820421e-06	-9.012140e-09	-3.349643e+01	-5.899113e+02
2.820000e-06	-4.946094e-06	-9.201013e-09	-3.436972e+01	-6.020528e+02
2.830000e-06	-5.069949e-06	-9.380721e-09	-3.523037e+01	-6.136908e+02
2.840000e-06	-5.192038e-06	-9.551100e-09	-3.607875e+01	-6.248477e+02
2.850000e-06	-5.312372e-06	-9.714259e-09	-3.691493e+01	-6.355388e+02
2.860000e-06	-5.430717e-06	-9.867939e-09	-3.773730e+01	-6.457764e+02
2.870000e-06	-5.546795e-06	-1.001473e-08	-3.854390e+01	-6.555740e+02
2.880000e-06	-5.660567e-06	-1.015752e-08	-3.933449e+01	-6.649489e+02
2.890000e-06	-5.772156e-06	-1.029441e-08	-4.010991e+01	-6.739219e+02
2.900000e-06	-5.881594e-06	-1.042620e-08	-4.087037e+01	-6.825152e+02
2.910000e-06	-5.988993e-06	-1.055281e-08	-4.161668e+01	-6.907486e+02
2.920000e-06	-6.094300e-06	-1.067475e-08	-4.234844e+01	-6.986358e+02
2.930000e-06	-6.197341e-06	-1.079309e-08	-4.306446e+01	-7.061831e+02
2.940000e-06	-6.298004e-06	-1.090561e-08	-4.376395e+01	-7.133897e+02
