# Temperatura_=_39.2
# Concentracion g/m^3_=_15000.0
# C_Vs_to_Am_M_A/Vsm_=_65563218390.804596
# pendiente_HvsI_1/m_=_3716.3
# ordenada_HvsI_A/m_=_1297.0
# frecuencia_Hz_=_302337.5060998431

Tiempo_(s)	Campo_(V.s)	Magnetizacion_(V.s)	Campo_(kA/m)	Magnetizacion_(A/m)
0.000000e+00	-8.122434e-06	-1.063103e-08	-5.692079e+01	-6.945159e+02
1.000000e-08	-8.120201e-06	-1.063508e-08	-5.690515e+01	-6.943453e+02
2.000000e-08	-8.115234e-06	-1.063084e-08	-5.687034e+01	-6.940669e+02
3.000000e-08	-8.107635e-06	-1.062268e-08	-5.681708e+01	-6.936837e+02
4.000000e-08	-8.097226e-06	-1.061542e-08	-5.674414e+01	-6.932012e+02
5.000000e-08	-8.083914e-06	-1.060452e-08	-5.665085e+01	-6.926263e+02
6.000000e-08	-8.067708e-06	-1.058966e-08	-5.653728e+01	-6.919662e+02
7.000000e-08	-8.048975e-06	-1.057146e-08	-5.640600e+01	-6.912270e+02
8.000000e-08	-8.027913e-06	-1.054275e-08	-5.625841e+01	-6.904136e+02
9.000000e-08	-8.004105e-06	-1.058564e-08	-5.609156e+01	-6.895297e+02
1.000000e-07	-7.977109e-06	-1.060339e-08	-5.590237e+01	-6.885786e+02
1.100000e-07	-7.946891e-06	-1.053710e-08	-5.569062e+01	-6.875647e+02
1.200000e-07	-7.913663e-06	-1.050061e-08	-5.545776e+01	-6.864933e+02
1.300000e-07	-7.877624e-06	-1.048068e-08	-5.520520e+01	-6.853709e+02
1.400000e-07	-7.839158e-06	-1.044593e-08	-5.493563e+01	-6.842033e+02
1.500000e-07	-7.798420e-06	-1.038473e-08	-5.465015e+01	-6.829932e+02
1.600000e-07	-7.755298e-06	-1.042868e-08	-5.434796e+01	-6.817379e+02
1.700000e-07	-7.709529e-06	-1.042794e-08	-5.402722e+01	-6.804262e+02
1.800000e-07	-7.660876e-06	-1.028918e-08	-5.368626e+01	-6.790389e+02
1.900000e-07	-7.609279e-06	-1.036695e-08	-5.332468e+01	-6.775489e+02
2.000000e-07	-7.554768e-06	-1.033377e-08	-5.294267e+01	-6.759254e+02
2.100000e-07	-7.497439e-06	-1.024913e-08	-5.254092e+01	-6.741384e+02
2.200000e-07	-7.437444e-06	-1.027273e-08	-5.212049e+01	-6.721645e+02
2.300000e-07	-7.374903e-06	-1.021038e-08	-5.168221e+01	-6.699913e+02
2.400000e-07	-7.309628e-06	-1.019395e-08	-5.122477e+01	-6.676207e+02
2.500000e-07	-7.241501e-06	-1.011060e-08	-5.074735e+01	-6.650679e+02
2.600000e-07	-7.170632e-06	-1.010517e-08	-5.025071e+01	-6.623588e+02
2.700000e-07	-7.096887e-06	-1.007644e-08	-4.973391e+01	-6.595241e+02
2.800000e-07	-7.020264e-06	-9.999478e-09	-4.919695e+01	-6.565924e+02
2.900000e-07	-6.940797e-06	-9.939549e-09	-4.864006e+01	-6.535834e+02
3.000000e-07	-6.858692e-06	-9.897093e-09	-4.806468e+01	-6.505042e+02
3.100000e-07	-6.774301e-06	-9.889791e-09	-4.747328e+01	-6.473474e+02
3.200000e-07	-6.687568e-06	-9.800447e-09	-4.686547e+01	-6.440939e+02
3.300000e-07	-6.598360e-06	-9.758829e-09	-4.624031e+01	-6.407174e+02
3.400000e-07	-6.506776e-06	-9.730985e-09	-4.559850e+01	-6.371918e+02
3.500000e-07	-6.412915e-06	-9.661570e-09	-4.494074e+01	-6.334971e+02
3.600000e-07	-6.316713e-06	-9.585994e-09	-4.426657e+01	-6.296241e+02
3.700000e-07	-6.218094e-06	-9.527405e-09	-4.357547e+01	-6.255763e+02
3.800000e-07	-6.117213e-06	-9.477172e-09	-4.286851e+01	-6.213675e+02
3.900000e-07	-6.014163e-06	-9.389533e-09	-4.214635e+01	-6.170172e+02
4.000000e-07	-5.908957e-06	-9.319523e-09	-4.140908e+01	-6.125439e+02
4.100000e-07	-5.801712e-06	-9.264979e-09	-4.065752e+01	-6.079595e+02
4.200000e-07	-5.692475e-06	-9.204045e-09	-3.989201e+01	-6.032647e+02
4.300000e-07	-5.581187e-06	-9.116149e-09	-3.911212e+01	-5.984475e+02
4.400000e-07	-5.467756e-06	-9.032158e-09	-3.831721e+01	-5.934862e+02
4.500000e-07	-5.352175e-06	-8.959090e-09	-3.750724e+01	-5.883533e+02
4.600000e-07	-5.234572e-06	-8.877998e-09	-3.668309e+01	-5.830223e+02
4.700000e-07	-5.115093e-06	-8.788860e-09	-3.584580e+01	-5.774732e+02
4.800000e-07	-4.993814e-06	-8.706683e-09	-3.499590e+01	-5.716966e+02
4.900000e-07	-4.870693e-06	-8.622420e-09	-3.413308e+01	-5.656940e+02
5.000000e-07	-4.745768e-06	-8.519269e-09	-3.325763e+01	-5.594760e+02
5.100000e-07	-4.619176e-06	-8.412334e-09	-3.237049e+01	-5.530569e+02
5.200000e-07	-4.490906e-06	-8.310137e-09	-3.147159e+01	-5.464496e+02
5.300000e-07	-4.360988e-06	-8.211390e-09	-3.056115e+01	-5.396599e+02
5.400000e-07	-4.229433e-06	-8.100346e-09	-2.963923e+01	-5.326837e+02
5.500000e-07	-4.096367e-06	-7.988704e-09	-2.870672e+01	-5.255066e+02
5.600000e-07	-3.961801e-06	-7.877903e-09	-2.776371e+01	-5.181069e+02
5.700000e-07	-3.825618e-06	-7.763780e-09	-2.680936e+01	-5.104602e+02
5.800000e-07	-3.687930e-06	-7.638693e-09	-2.584446e+01	-5.025443e+02
5.900000e-07	-3.548727e-06	-7.512860e-09	-2.486894e+01	-4.943441e+02
6.000000e-07	-3.407952e-06	-7.385122e-09	-2.388241e+01	-4.858533e+02
6.100000e-07	-3.265802e-06	-7.249643e-09	-2.288625e+01	-4.770736e+02
6.200000e-07	-3.122481e-06	-7.108920e-09	-2.188187e+01	-4.680116e+02
6.300000e-07	-2.977948e-06	-6.963812e-09	-2.086901e+01	-4.586738e+02
6.400000e-07	-2.832219e-06	-6.815446e-09	-1.984776e+01	-4.490621e+02
6.500000e-07	-2.685543e-06	-6.657014e-09	-1.881988e+01	-4.391700e+02
6.600000e-07	-2.538022e-06	-6.498329e-09	-1.778608e+01	-4.289817e+02
6.700000e-07	-2.389680e-06	-6.339725e-09	-1.674652e+01	-4.184736e+02
6.800000e-07	-2.240598e-06	-6.178981e-09	-1.570177e+01	-4.076180e+02
6.900000e-07	-2.090795e-06	-6.009936e-09	-1.465198e+01	-3.963877e+02
7.000000e-07	-1.940273e-06	-5.832850e-09	-1.359714e+01	-3.847600e+02
7.100000e-07	-1.789060e-06	-5.649982e-09	-1.253747e+01	-3.727189e+02
7.200000e-07	-1.637229e-06	-5.457292e-09	-1.147345e+01	-3.602553e+02
7.300000e-07	-1.484776e-06	-5.258963e-09	-1.040509e+01	-3.473639e+02
7.400000e-07	-1.331750e-06	-5.055440e-09	-9.332704e+00	-3.340399e+02
7.500000e-07	-1.178251e-06	-4.845878e-09	-8.257004e+00	-3.202743e+02
7.600000e-07	-1.024426e-06	-4.629289e-09	-7.179024e+00	-3.060507e+02
7.700000e-07	-8.703044e-07	-4.406118e-09	-6.098962e+00	-2.913452e+02
7.800000e-07	-7.158842e-07	-4.173038e-09	-5.016808e+00	-2.761271e+02
7.900000e-07	-5.612362e-07	-3.933198e-09	-3.933058e+00	-2.603627e+02
8.000000e-07	-4.063931e-07	-3.686426e-09	-2.847942e+00	-2.440186e+02
8.100000e-07	-2.513528e-07	-3.429800e-09	-1.761443e+00	-2.270648e+02
8.200000e-07	-9.616314e-08	-3.162789e-09	-6.738968e-01	-2.094747e+02
8.300000e-07	5.909254e-08	-2.884832e-09	4.141116e-01	-1.912226e+02
8.400000e-07	2.144494e-07	-2.595864e-09	1.502829e+00	-1.722789e+02
8.500000e-07	3.697598e-07	-2.292055e-09	2.591221e+00	-1.526044e+02
8.600000e-07	5.248813e-07	-1.977410e-09	3.678289e+00	-1.321460e+02
8.700000e-07	6.798263e-07	-1.652834e-09	4.764120e+00	-1.108369e+02
8.800000e-07	8.345371e-07	-1.315482e-09	5.848310e+00	-8.860203e+01
8.900000e-07	9.889834e-07	-9.614523e-10	6.930647e+00	-6.536954e+01
9.000000e-07	1.143109e-06	-5.929116e-10	8.010739e+00	-4.108807e+01
9.100000e-07	1.296889e-06	-2.076593e-10	9.088404e+00	-1.574594e+01
9.200000e-07	1.450305e-06	1.962433e-10	1.016352e+01	1.061077e+01
9.300000e-07	1.603153e-06	6.117431e-10	1.123465e+01	3.786543e+01
9.400000e-07	1.755272e-06	1.035593e-09	1.230068e+01	6.582686e+01
9.500000e-07	1.906697e-06	1.464181e-09	1.336184e+01	9.423608e+01
9.600000e-07	2.057456e-06	1.895919e-09	1.441834e+01	1.227837e+02
9.700000e-07	2.207474e-06	2.326006e-09	1.546964e+01	1.511358e+02
9.800000e-07	2.356684e-06	2.748415e-09	1.651529e+01	1.789639e+02
9.900000e-07	2.505008e-06	3.159674e-09	1.755472e+01	2.059750e+02
1.000000e-06	2.652367e-06	3.554662e-09	1.858739e+01	2.319357e+02
1.010000e-06	2.798737e-06	3.929276e-09	1.961313e+01	2.566873e+02
1.020000e-06	2.944039e-06	4.284520e-09	2.063138e+01	2.801496e+02
1.030000e-06	3.088216e-06	4.622003e-09	2.164175e+01	3.023144e+02
1.040000e-06	3.231225e-06	4.940649e-09	2.264394e+01	3.232294e+02
1.050000e-06	3.373007e-06	5.241907e-09	2.363752e+01	3.429781e+02
1.060000e-06	3.513513e-06	5.527074e-09	2.462217e+01	3.616587e+02
1.070000e-06	3.652643e-06	5.797405e-09	2.559717e+01	3.793661e+02
1.080000e-06	3.790345e-06	6.051215e-09	2.656217e+01	3.961805e+02
1.090000e-06	3.926616e-06	6.290954e-09	2.751713e+01	4.121624e+02
1.100000e-06	4.061463e-06	6.520340e-09	2.846212e+01	4.273546e+02
1.110000e-06	4.194902e-06	6.737403e-09	2.939724e+01	4.417880e+02
1.120000e-06	4.326876e-06	6.943601e-09	3.032210e+01	4.554897e+02
1.130000e-06	4.457296e-06	7.141423e-09	3.123606e+01	4.684899e+02
1.140000e-06	4.586108e-06	7.330413e-09	3.213875e+01	4.808257e+02
1.150000e-06	4.713314e-06	7.507452e-09	3.303019e+01	4.925422e+02
1.160000e-06	4.838934e-06	7.674876e-09	3.391052e+01	5.036887e+02
1.170000e-06	4.962898e-06	7.835055e-09	3.477924e+01	5.143142e+02
1.180000e-06	5.085093e-06	7.989437e-09	3.563557e+01	5.244615e+02
1.190000e-06	5.205476e-06	8.139783e-09	3.647919e+01	5.341630e+02
1.200000e-06	5.323969e-06	8.284383e-09	3.730958e+01	5.434388e+02
1.210000e-06	5.440433e-06	8.419694e-09	3.812573e+01	5.522978e+02
1.220000e-06	5.554745e-06	8.545709e-09	3.892681e+01	5.607415e+02
1.230000e-06	5.666928e-06	8.665706e-09	3.971298e+01	5.687684e+02
1.240000e-06	5.777034e-06	8.781526e-09	4.048459e+01	5.763795e+02
1.250000e-06	5.885073e-06	8.890164e-09	4.124170e+01	5.835824e+02
1.260000e-06	5.991018e-06	8.993065e-09	4.198415e+01	5.903926e+02
1.270000e-06	6.094767e-06	9.092866e-09	4.271121e+01	5.968345e+02
1.280000e-06	6.196284e-06	9.185785e-09	4.342263e+01	6.029381e+02
1.290000e-06	6.295493e-06	9.271980e-09	4.411786e+01	6.087370e+02
1.300000e-06	6.392368e-06	9.354333e-09	4.479675e+01	6.142642e+02
1.310000e-06	6.486928e-06	9.434233e-09	4.545941e+01	6.195492e+02
1.320000e-06	6.579180e-06	9.511020e-09	4.610590e+01	6.246169e+02
1.330000e-06	6.669069e-06	9.584165e-09	4.673583e+01	6.294859e+02
1.340000e-06	6.756511e-06	9.656178e-09	4.734861e+01	6.341692e+02
1.350000e-06	6.841588e-06	9.725244e-09	4.794482e+01	6.386747e+02
1.360000e-06	6.924276e-06	9.789936e-09	4.852428e+01	6.430066e+02
1.370000e-06	7.004482e-06	9.851623e-09	4.908635e+01	6.471654e+02
1.380000e-06	7.082150e-06	9.911503e-09	4.963064e+01	6.511492e+02
1.390000e-06	7.157163e-06	9.968478e-09	5.015632e+01	6.549540e+02
1.400000e-06	7.229456e-06	1.002154e-08	5.066293e+01	6.585740e+02
1.410000e-06	7.299167e-06	1.007204e-08	5.115146e+01	6.620030e+02
1.420000e-06	7.366316e-06	1.011951e-08	5.162203e+01	6.652353e+02
1.430000e-06	7.430797e-06	1.016474e-08	5.207390e+01	6.682670e+02
1.440000e-06	7.492688e-06	1.020620e-08	5.250763e+01	6.710974e+02
1.450000e-06	7.552078e-06	1.024650e-08	5.292382e+01	6.737296e+02
1.460000e-06	7.608895e-06	1.028279e-08	5.332199e+01	6.761706e+02
1.470000e-06	7.662929e-06	1.031431e-08	5.370065e+01	6.784306e+02
1.480000e-06	7.713903e-06	1.034619e-08	5.405787e+01	6.805211e+02
1.490000e-06	7.761774e-06	1.037627e-08	5.439335e+01	6.824535e+02
1.500000e-06	7.806808e-06	1.040184e-08	5.470893e+01	6.842371e+02
1.510000e-06	7.849059e-06	1.042344e-08	5.500502e+01	6.858781e+02
1.520000e-06	7.888507e-06	1.044357e-08	5.528147e+01	6.873798e+02
1.530000e-06	7.925254e-06	1.046331e-08	5.553899e+01	6.887426e+02
1.540000e-06	7.959188e-06	1.048162e-08	5.577679e+01	6.899663e+02
1.550000e-06	7.990202e-06	1.049659e-08	5.599413e+01	6.910513e+02
1.560000e-06	8.018447e-06	1.050887e-08	5.619207e+01	6.920000e+02
1.570000e-06	8.043782e-06	1.052062e-08	5.636961e+01	6.928178e+02
1.580000e-06	8.066101e-06	1.053239e-08	5.652602e+01	6.935123e+02
1.590000e-06	8.085669e-06	1.054285e-08	5.666315e+01	6.940924e+02
1.600000e-06	8.102374e-06	1.055033e-08	5.678022e+01	6.945665e+02
1.610000e-06	8.115984e-06	1.055499e-08	5.687559e+01	6.949410e+02
1.620000e-06	8.126350e-06	1.055928e-08	5.694824e+01	6.952191e+02
1.630000e-06	8.133609e-06	1.056314e-08	5.699910e+01	6.954006e+02
1.640000e-06	8.138074e-06	1.056540e-08	5.703040e+01	6.954826e+02
1.650000e-06	8.139659e-06	1.056730e-08	5.704150e+01	6.954612e+02
1.660000e-06	8.138344e-06	1.056465e-08	5.703229e+01	6.953329e+02
1.670000e-06	8.134411e-06	1.055566e-08	5.700473e+01	6.950966e+02
1.680000e-06	8.127785e-06	1.055184e-08	5.695829e+01	6.947540e+02
1.690000e-06	8.118378e-06	1.054693e-08	5.689237e+01	6.943096e+02
1.700000e-06	8.106215e-06	1.054007e-08	5.680713e+01	6.937700e+02
1.710000e-06	8.091176e-06	1.053664e-08	5.670174e+01	6.931425e+02
1.720000e-06	8.073556e-06	1.053791e-08	5.657826e+01	6.924336e+02
1.730000e-06	8.053671e-06	1.054293e-08	5.643892e+01	6.916488e+02
1.740000e-06	8.031067e-06	1.044839e-08	5.628051e+01	6.907921e+02
1.750000e-06	8.005054e-06	1.043271e-08	5.609821e+01	6.898669e+02
1.760000e-06	7.975294e-06	1.046781e-08	5.588966e+01	6.888770e+02
1.770000e-06	7.942181e-06	1.043918e-08	5.565761e+01	6.878273e+02
1.780000e-06	7.906660e-06	1.042671e-08	5.540868e+01	6.867241e+02
1.790000e-06	7.868844e-06	1.049279e-08	5.514367e+01	6.855736e+02
1.800000e-06	7.828790e-06	1.045076e-08	5.486298e+01	6.843801e+02
1.810000e-06	7.786762e-06	1.031521e-08	5.456845e+01	6.831432e+02
1.820000e-06	7.742149e-06	1.045553e-08	5.425582e+01	6.818555e+02
1.830000e-06	7.694760e-06	1.035526e-08	5.392372e+01	6.805006e+02
1.840000e-06	7.644624e-06	1.034393e-08	5.357237e+01	6.790544e+02
1.850000e-06	7.591293e-06	1.039168e-08	5.319863e+01	6.774870e+02
1.860000e-06	7.535006e-06	1.024807e-08	5.280419e+01	6.757674e+02
1.870000e-06	7.476053e-06	1.031598e-08	5.239105e+01	6.738690e+02
1.880000e-06	7.414426e-06	1.019574e-08	5.195918e+01	6.717747e+02
1.890000e-06	7.350043e-06	1.022425e-08	5.150799e+01	6.694804e+02
1.900000e-06	7.282779e-06	1.022369e-08	5.103661e+01	6.669964e+02
1.910000e-06	7.212670e-06	1.008632e-08	5.054530e+01	6.643451e+02
1.920000e-06	7.139677e-06	1.011169e-08	5.003378e+01	6.615560e+02
1.930000e-06	7.063975e-06	1.003063e-08	4.950327e+01	6.586593e+02
1.940000e-06	6.985469e-06	1.004824e-08	4.895312e+01	6.556790e+02
1.950000e-06	6.904229e-06	9.960423e-09	4.838379e+01	6.526273e+02
1.960000e-06	6.820618e-06	9.917936e-09	4.779786e+01	6.495027e+02
1.970000e-06	6.734461e-06	9.896942e-09	4.719409e+01	6.462899e+02
1.980000e-06	6.645729e-06	9.764077e-09	4.657227e+01	6.429650e+02
1.990000e-06	6.554640e-06	9.755575e-09	4.593393e+01	6.395007e+02
2.000000e-06	6.461324e-06	9.699970e-09	4.527998e+01	6.358741e+02
2.010000e-06	6.365648e-06	9.677715e-09	4.460950e+01	6.320713e+02
2.020000e-06	6.267719e-06	9.579189e-09	4.392323e+01	6.280910e+02
2.030000e-06	6.167605e-06	9.524859e-09	4.322165e+01	6.239432e+02
2.040000e-06	6.065138e-06	9.472084e-09	4.250357e+01	6.196459e+02
2.050000e-06	5.960469e-06	9.391796e-09	4.177007e+01	6.152189e+02
2.060000e-06	5.853801e-06	9.326116e-09	4.102256e+01	6.106774e+02
2.070000e-06	5.745200e-06	9.241459e-09	4.026149e+01	6.060265e+02
2.080000e-06	5.634569e-06	9.189386e-09	3.948621e+01	6.012595e+02
2.090000e-06	5.521857e-06	9.098283e-09	3.869634e+01	5.963578e+02
2.100000e-06	5.407086e-06	9.039114e-09	3.789204e+01	5.912955e+02
2.110000e-06	5.290220e-06	8.962522e-09	3.707306e+01	5.860451e+02
2.120000e-06	5.171250e-06	8.879353e-09	3.623934e+01	5.805834e+02
2.130000e-06	5.050340e-06	8.766632e-09	3.539202e+01	5.748965e+02
2.140000e-06	4.927668e-06	8.677460e-09	3.453235e+01	5.689817e+02
2.150000e-06	4.803233e-06	8.600540e-09	3.366033e+01	5.628466e+02
2.160000e-06	4.677042e-06	8.514673e-09	3.277600e+01	5.565047e+02
2.170000e-06	4.549047e-06	8.417325e-09	3.187904e+01	5.499701e+02
2.180000e-06	4.419383e-06	8.307248e-09	3.097037e+01	5.432518e+02
2.190000e-06	4.288224e-06	8.202996e-09	3.005123e+01	5.363500e+02
2.200000e-06	4.155492e-06	8.088434e-09	2.912106e+01	5.292540e+02
2.210000e-06	4.021223e-06	7.984369e-09	2.818013e+01	5.219445e+02
2.220000e-06	3.885426e-06	7.872406e-09	2.722848e+01	5.143976e+02
2.230000e-06	3.748069e-06	7.756213e-09	2.626590e+01	5.065896e+02
2.240000e-06	3.609323e-06	7.624322e-09	2.529359e+01	4.985023e+02
2.250000e-06	3.469163e-06	7.497952e-09	2.431137e+01	4.901258e+02
2.260000e-06	3.327598e-06	7.371806e-09	2.331931e+01	4.814589e+02
2.270000e-06	3.184849e-06	7.239982e-09	2.231894e+01	4.725068e+02
2.280000e-06	3.040810e-06	7.097552e-09	2.130954e+01	4.632766e+02
2.290000e-06	2.895534e-06	6.952433e-09	2.029147e+01	4.537727e+02
2.300000e-06	2.749294e-06	6.809179e-09	1.926664e+01	4.439920e+02
2.310000e-06	2.602167e-06	6.659756e-09	1.823560e+01	4.339224e+02
2.320000e-06	2.454163e-06	6.503342e-09	1.719840e+01	4.235430e+02
2.330000e-06	2.305297e-06	6.335446e-09	1.615517e+01	4.128272e+02
2.340000e-06	2.155579e-06	6.161243e-09	1.510597e+01	4.017471e+02
2.350000e-06	2.005182e-06	5.985612e-09	1.405201e+01	3.902777e+02
2.360000e-06	1.854295e-06	5.808567e-09	1.299462e+01	3.784004e+02
2.370000e-06	1.702815e-06	5.626408e-09	1.193307e+01	3.661034e+02
2.380000e-06	1.550656e-06	5.432830e-09	1.086676e+01	3.533805e+02
2.390000e-06	1.397848e-06	5.228318e-09	9.795907e+00	3.402271e+02
2.400000e-06	1.244507e-06	5.016661e-09	8.721321e+00	3.266364e+02
2.410000e-06	1.090807e-06	4.800012e-09	7.644214e+00	3.125951e+02
2.420000e-06	9.367595e-07	4.580977e-09	6.564670e+00	2.980822e+02
2.430000e-06	7.824106e-07	4.356062e-09	5.483016e+00	2.830693e+02
2.440000e-06	6.278752e-07	4.119873e-09	4.400055e+00	2.675235e+02
2.450000e-06	4.731166e-07	3.870869e-09	3.315530e+00	2.514108e+02
2.460000e-06	3.181003e-07	3.615298e-09	2.229199e+00	2.346997e+02
2.470000e-06	1.629037e-07	3.351198e-09	1.141605e+00	2.173625e+02
2.480000e-06	7.625661e-09	3.074248e-09	5.343948e-02	1.993736e+02
2.490000e-06	-1.476736e-07	2.787333e-09	-1.034875e+00	1.807056e+02
2.500000e-06	-3.029438e-07	2.491723e-09	-2.122984e+00	1.613236e+02
2.510000e-06	-4.580855e-07	2.185135e-09	-3.210194e+00	1.411803e+02
2.520000e-06	-6.130769e-07	1.867285e-09	-4.296350e+00	1.202140e+02
2.530000e-06	-7.678731e-07	1.537400e-09	-5.381139e+00	9.835181e+01
2.540000e-06	-9.224211e-07	1.189467e-09	-6.464188e+00	7.551880e+01
2.550000e-06	-1.076714e-06	8.228183e-10	-7.545448e+00	5.165337e+01
2.560000e-06	-1.230627e-06	4.416991e-10	-8.624050e+00	2.672589e+01
2.570000e-06	-1.384086e-06	4.751805e-11	-9.699468e+00	7.578591e-01
2.580000e-06	-1.536998e-06	-3.626203e-10	-1.077105e+01	-2.616283e+01
2.590000e-06	-1.689213e-06	-7.900894e-10	-1.183775e+01	-5.387411e+01
2.600000e-06	-1.840752e-06	-1.227512e-09	-1.289972e+01	-8.214211e+01
2.610000e-06	-1.991660e-06	-1.667309e-09	-1.395725e+01	-1.106746e+02
2.620000e-06	-2.141877e-06	-2.104529e-09	-1.500995e+01	-1.391437e+02
2.630000e-06	-2.291294e-06	-2.533347e-09	-1.605704e+01	-1.672153e+02
2.640000e-06	-2.439778e-06	-2.949734e-09	-1.709760e+01	-1.945791e+02
2.650000e-06	-2.587368e-06	-3.352024e-09	-1.813188e+01	-2.209758e+02
2.660000e-06	-2.734046e-06	-3.738941e-09	-1.915978e+01	-2.462163e+02
2.670000e-06	-2.879741e-06	-4.108142e-09	-2.018079e+01	-2.701899e+02
2.680000e-06	-3.024328e-06	-4.456447e-09	-2.119404e+01	-2.928616e+02
2.690000e-06	-3.167654e-06	-4.783813e-09	-2.219844e+01	-3.142592e+02
2.700000e-06	-3.309724e-06	-5.092043e-09	-2.319404e+01	-3.344549e+02
2.710000e-06	-3.450528e-06	-5.384476e-09	-2.418078e+01	-3.535433e+02
2.720000e-06	-3.590059e-06	-5.661494e-09	-2.515859e+01	-3.716226e+02
2.730000e-06	-3.728284e-06	-5.924021e-09	-2.612725e+01	-3.887796e+02
2.740000e-06	-3.865113e-06	-6.172971e-09	-2.708613e+01	-4.050826e+02
2.750000e-06	-4.000447e-06	-6.410104e-09	-2.803453e+01	-4.205810e+02
2.760000e-06	-4.134281e-06	-6.637276e-09	-2.897242e+01	-4.353093e+02
2.770000e-06	-4.266716e-06	-6.853237e-09	-2.990050e+01	-4.492953e+02
2.780000e-06	-4.397704e-06	-7.058773e-09	-3.081844e+01	-4.625671e+02
2.790000e-06	-4.527201e-06	-7.254273e-09	-3.172594e+01	-4.751591e+02
2.800000e-06	-4.655163e-06	-7.439262e-09	-3.262268e+01	-4.871132e+02
2.810000e-06	-4.781478e-06	-7.612779e-09	-3.350788e+01	-4.984778e+02
2.820000e-06	-4.906127e-06	-7.776466e-09	-3.438140e+01	-5.093025e+02
2.830000e-06	-5.029044e-06	-7.932910e-09	-3.524278e+01	-5.196333e+02
2.840000e-06	-5.150173e-06	-8.082884e-09	-3.609164e+01	-5.295069e+02
2.850000e-06	-5.269372e-06	-8.227478e-09	-3.692696e+01	-5.389484e+02
2.860000e-06	-5.386463e-06	-8.365547e-09	-3.774752e+01	-5.479708e+02
2.870000e-06	-5.501429e-06	-8.497246e-09	-3.855318e+01	-5.565779e+02
2.880000e-06	-5.614187e-06	-8.622958e-09	-3.934337e+01	-5.647687e+02
2.890000e-06	-5.724741e-06	-8.741785e-09	-4.011812e+01	-5.725428e+02
2.900000e-06	-5.833266e-06	-8.854722e-09	-4.087865e+01	-5.799047e+02
2.910000e-06	-5.939781e-06	-8.961572e-09	-4.162509e+01	-5.868669e+02
2.920000e-06	-6.044119e-06	-9.062288e-09	-4.235627e+01	-5.934502e+02
2.930000e-06	-6.146179e-06	-9.158897e-09	-4.307149e+01	-5.996830e+02
2.940000e-06	-6.246024e-06	-9.251939e-09	-4.377120e+01	-6.055976e+02
