# Temperatura_=_31.9
# Concentracion g/m^3_=_15000.0
# C_Vs_to_Am_M_A/Vsm_=_65563218390.804596
# pendiente_HvsI_1/m_=_3716.3
# ordenada_HvsI_A/m_=_1297.0
# frecuencia_Hz_=_302340.2639676764

Tiempo_(s)	Campo_(V.s)	Magnetizacion_(V.s)	Campo_(kA/m)	Magnetizacion_(A/m)
0.000000e+00	-8.168382e-06	-1.062845e-08	-5.691719e+01	-6.951250e+02
1.000000e-08	-8.165828e-06	-1.063380e-08	-5.689939e+01	-6.949647e+02
2.000000e-08	-8.160596e-06	-1.062946e-08	-5.686293e+01	-6.947034e+02
3.000000e-08	-8.152763e-06	-1.062357e-08	-5.680836e+01	-6.943389e+02
4.000000e-08	-8.142056e-06	-1.061799e-08	-5.673375e+01	-6.938712e+02
5.000000e-08	-8.128308e-06	-1.060621e-08	-5.663796e+01	-6.933039e+02
6.000000e-08	-8.111601e-06	-1.058862e-08	-5.652154e+01	-6.926433e+02
7.000000e-08	-8.092429e-06	-1.056771e-08	-5.638795e+01	-6.918980e+02
8.000000e-08	-8.071032e-06	-1.055000e-08	-5.623886e+01	-6.910775e+02
9.000000e-08	-8.046825e-06	-1.061470e-08	-5.607018e+01	-6.901909e+02
1.000000e-07	-8.019358e-06	-1.060771e-08	-5.587879e+01	-6.892462e+02
1.100000e-07	-7.988712e-06	-1.052988e-08	-5.566525e+01	-6.882491e+02
1.200000e-07	-7.955101e-06	-1.050418e-08	-5.543105e+01	-6.872026e+02
1.300000e-07	-7.918667e-06	-1.048691e-08	-5.517718e+01	-6.861066e+02
1.400000e-07	-7.879756e-06	-1.044726e-08	-5.490605e+01	-6.849579e+02
1.500000e-07	-7.838562e-06	-1.038418e-08	-5.461901e+01	-6.837493e+02
1.600000e-07	-7.794936e-06	-1.046314e-08	-5.431503e+01	-6.824700e+02
1.700000e-07	-7.748627e-06	-1.041709e-08	-5.399234e+01	-6.811053e+02
1.800000e-07	-7.699433e-06	-1.029444e-08	-5.364956e+01	-6.796375e+02
1.900000e-07	-7.647314e-06	-1.040407e-08	-5.328639e+01	-6.780473e+02
2.000000e-07	-7.592307e-06	-1.032671e-08	-5.290311e+01	-6.763159e+02
2.100000e-07	-7.534473e-06	-1.025031e-08	-5.250012e+01	-6.744271e+02
2.200000e-07	-7.473962e-06	-1.026337e-08	-5.207848e+01	-6.723705e+02
2.300000e-07	-7.410835e-06	-1.022551e-08	-5.163861e+01	-6.701428e+02
2.400000e-07	-7.344860e-06	-1.021642e-08	-5.117890e+01	-6.677491e+02
2.500000e-07	-7.276057e-06	-1.011766e-08	-5.069948e+01	-6.652020e+02
2.600000e-07	-7.204533e-06	-1.011752e-08	-5.020110e+01	-6.625197e+02
2.700000e-07	-7.130073e-06	-1.006401e-08	-4.968227e+01	-6.597218e+02
2.800000e-07	-7.052706e-06	-9.988689e-09	-4.914318e+01	-6.568262e+02
2.900000e-07	-6.972530e-06	-9.940018e-09	-4.858451e+01	-6.538445e+02
3.000000e-07	-6.889801e-06	-9.923614e-09	-4.800805e+01	-6.507798e+02
3.100000e-07	-6.804774e-06	-9.916843e-09	-4.741559e+01	-6.476262e+02
3.200000e-07	-6.717321e-06	-9.808837e-09	-4.680622e+01	-6.443696e+02
3.300000e-07	-6.627432e-06	-9.773072e-09	-4.617987e+01	-6.409913e+02
3.400000e-07	-6.535157e-06	-9.729668e-09	-4.553690e+01	-6.374719e+02
3.500000e-07	-6.440510e-06	-9.656792e-09	-4.487740e+01	-6.337956e+02
3.600000e-07	-6.343552e-06	-9.582264e-09	-4.420180e+01	-6.299533e+02
3.700000e-07	-6.244290e-06	-9.539184e-09	-4.351014e+01	-6.259444e+02
3.800000e-07	-6.142776e-06	-9.496565e-09	-4.280279e+01	-6.217756e+02
3.900000e-07	-6.039003e-06	-9.404140e-09	-4.207970e+01	-6.174583e+02
4.000000e-07	-5.932969e-06	-9.335170e-09	-4.134086e+01	-6.130049e+02
4.100000e-07	-5.824910e-06	-9.270564e-09	-4.058791e+01	-6.084247e+02
4.200000e-07	-5.714874e-06	-9.204667e-09	-3.982117e+01	-6.037203e+02
4.300000e-07	-5.602713e-06	-9.113301e-09	-3.903964e+01	-5.988865e+02
4.400000e-07	-5.488393e-06	-9.041783e-09	-3.824306e+01	-5.939104e+02
4.500000e-07	-5.371936e-06	-8.974983e-09	-3.743159e+01	-5.887743e+02
4.600000e-07	-5.253450e-06	-8.893042e-09	-3.660598e+01	-5.834584e+02
4.700000e-07	-5.133104e-06	-8.796286e-09	-3.576741e+01	-5.779453e+02
4.800000e-07	-5.010957e-06	-8.705941e-09	-3.491629e+01	-5.722223e+02
4.900000e-07	-4.886977e-06	-8.622295e-09	-3.405240e+01	-5.662831e+02
5.000000e-07	-4.761288e-06	-8.526158e-09	-3.317660e+01	-5.601271e+02
5.100000e-07	-4.633890e-06	-8.430260e-09	-3.228889e+01	-5.537572e+02
5.200000e-07	-4.504804e-06	-8.329693e-09	-3.138942e+01	-5.471773e+02
5.300000e-07	-4.374021e-06	-8.229259e-09	-3.047813e+01	-5.403889e+02
5.400000e-07	-4.241560e-06	-8.112809e-09	-2.955514e+01	-5.333890e+02
5.500000e-07	-4.107625e-06	-7.996981e-09	-2.862188e+01	-5.261695e+02
5.600000e-07	-3.972091e-06	-7.883543e-09	-2.767748e+01	-5.187185e+02
5.700000e-07	-3.834996e-06	-7.772630e-09	-2.672220e+01	-5.110216e+02
5.800000e-07	-3.696428e-06	-7.652366e-09	-2.575667e+01	-5.030650e+02
5.900000e-07	-3.556229e-06	-7.527966e-09	-2.477976e+01	-4.948377e+02
6.000000e-07	-3.414475e-06	-7.401255e-09	-2.379202e+01	-4.863326e+02
6.100000e-07	-3.271405e-06	-7.264523e-09	-2.279511e+01	-4.775461e+02
6.200000e-07	-3.127120e-06	-7.121335e-09	-2.178974e+01	-4.684767e+02
6.300000e-07	-2.981656e-06	-6.973504e-09	-2.077614e+01	-4.591224e+02
6.400000e-07	-2.835126e-06	-6.828316e-09	-1.975512e+01	-4.494786e+02
6.500000e-07	-2.687624e-06	-6.676098e-09	-1.872733e+01	-4.395359e+02
6.600000e-07	-2.539222e-06	-6.519607e-09	-1.769327e+01	-4.292800e+02
6.700000e-07	-2.390030e-06	-6.356643e-09	-1.665370e+01	-4.186927e+02
6.800000e-07	-2.240086e-06	-6.188782e-09	-1.560890e+01	-4.077535e+02
6.900000e-07	-2.089358e-06	-6.015232e-09	-1.455862e+01	-3.964428e+02
7.000000e-07	-1.937824e-06	-5.836579e-09	-1.350274e+01	-3.847430e+02
7.100000e-07	-1.785536e-06	-5.656327e-09	-1.244159e+01	-3.726404e+02
7.200000e-07	-1.632639e-06	-5.467482e-09	-1.137621e+01	-3.601242e+02
7.300000e-07	-1.479281e-06	-5.270571e-09	-1.030761e+01	-3.471849e+02
7.400000e-07	-1.325489e-06	-5.064636e-09	-9.235991e+00	-3.338120e+02
7.500000e-07	-1.171228e-06	-4.851775e-09	-8.161106e+00	-3.199919e+02
7.600000e-07	-1.016484e-06	-4.632440e-09	-7.082848e+00	-3.057061e+02
7.700000e-07	-8.613068e-07	-4.406485e-09	-6.001576e+00	-2.909320e+02
7.800000e-07	-7.058577e-07	-4.170814e-09	-4.918408e+00	-2.756436e+02
7.900000e-07	-5.501703e-07	-3.929607e-09	-3.833580e+00	-2.598143e+02
8.000000e-07	-3.942993e-07	-3.683795e-09	-2.747473e+00	-2.434187e+02
8.100000e-07	-2.383099e-07	-3.427546e-09	-1.660541e+00	-2.264338e+02
8.200000e-07	-8.215920e-08	-3.160411e-09	-5.724843e-01	-2.088378e+02
8.300000e-07	7.405174e-08	-2.883360e-09	5.159916e-01	-1.906069e+02
8.400000e-07	2.302104e-07	-2.596112e-09	1.604103e+00	-1.717111e+02
8.500000e-07	3.862910e-07	-2.293233e-09	2.691671e+00	-1.521094e+02
8.600000e-07	5.422853e-07	-1.979367e-09	3.778638e+00	-1.317471e+02
8.700000e-07	6.981626e-07	-1.655530e-09	4.864789e+00	-1.105575e+02
8.800000e-07	8.538607e-07	-1.319238e-09	5.949691e+00	-8.846751e+01
8.900000e-07	1.009285e-06	-9.664277e-10	7.032684e+00	-6.540924e+01
9.000000e-07	1.164365e-06	-6.001235e-10	8.113284e+00	-4.133573e+01
9.100000e-07	1.319008e-06	-2.205717e-10	9.190829e+00	-1.623824e+01
9.200000e-07	1.473101e-06	1.773308e-10	1.026455e+01	9.837774e+00
9.300000e-07	1.626647e-06	5.877888e-10	1.133446e+01	3.678151e+01
9.400000e-07	1.779701e-06	1.007721e-09	1.240093e+01	6.441344e+01
9.500000e-07	1.932153e-06	1.433091e-09	1.346322e+01	9.249140e+01
9.600000e-07	2.083817e-06	1.862002e-09	1.452001e+01	1.207260e+02
9.700000e-07	2.234657e-06	2.288184e-09	1.557106e+01	1.488034e+02
9.800000e-07	2.384635e-06	2.705649e-09	1.661611e+01	1.764128e+02
9.900000e-07	2.533648e-06	3.113173e-09	1.765443e+01	2.032727e+02
1.000000e-06	2.681673e-06	3.507262e-09	1.868587e+01	2.291539e+02
1.010000e-06	2.828757e-06	3.883537e-09	1.971074e+01	2.538941e+02
1.020000e-06	2.974836e-06	4.241112e-09	2.072863e+01	2.774028e+02
1.030000e-06	3.119774e-06	4.582180e-09	2.173855e+01	2.996565e+02
1.040000e-06	3.263545e-06	4.904416e-09	2.274034e+01	3.206862e+02
1.050000e-06	3.406105e-06	5.206593e-09	2.373370e+01	3.405599e+02
1.060000e-06	3.547347e-06	5.492203e-09	2.471787e+01	3.593634e+02
1.070000e-06	3.687140e-06	5.763275e-09	2.569195e+01	3.771846e+02
1.080000e-06	3.825502e-06	6.018958e-09	2.665605e+01	3.941011e+02
1.090000e-06	3.962497e-06	6.260899e-09	2.761063e+01	4.101753e+02
1.100000e-06	4.098001e-06	6.492071e-09	2.855482e+01	4.254542e+02
1.110000e-06	4.231989e-06	6.711016e-09	2.948845e+01	4.399737e+02
1.120000e-06	4.364488e-06	6.919251e-09	3.041170e+01	4.537654e+02
1.130000e-06	4.495460e-06	7.118780e-09	3.132431e+01	4.668617e+02
1.140000e-06	4.624902e-06	7.309862e-09	3.222626e+01	4.793007e+02
1.150000e-06	4.752707e-06	7.491102e-09	3.311681e+01	4.911256e+02
1.160000e-06	4.878839e-06	7.661668e-09	3.399570e+01	5.023835e+02
1.170000e-06	5.003327e-06	7.822627e-09	3.486313e+01	5.131202e+02
1.180000e-06	5.126053e-06	7.977126e-09	3.571828e+01	5.233758e+02
1.190000e-06	5.246935e-06	8.125922e-09	3.656058e+01	5.331806e+02
1.200000e-06	5.365916e-06	8.268879e-09	3.738964e+01	5.425536e+02
1.210000e-06	5.482912e-06	8.406570e-09	3.820486e+01	5.515032e+02
1.220000e-06	5.597804e-06	8.538252e-09	3.900543e+01	5.600305e+02
1.230000e-06	5.710462e-06	8.664370e-09	3.979044e+01	5.681343e+02
1.240000e-06	5.820982e-06	8.781478e-09	4.056053e+01	5.758158e+02
1.250000e-06	5.929498e-06	8.888909e-09	4.131667e+01	5.830830e+02
1.260000e-06	6.035883e-06	8.989281e-09	4.205796e+01	5.899521e+02
1.270000e-06	6.139975e-06	9.086701e-09	4.278327e+01	5.964484e+02
1.280000e-06	6.241850e-06	9.180075e-09	4.349314e+01	6.026033e+02
1.290000e-06	6.341482e-06	9.267893e-09	4.418737e+01	6.084515e+02
1.300000e-06	6.438690e-06	9.351894e-09	4.486472e+01	6.140274e+02
1.310000e-06	6.533492e-06	9.432760e-09	4.552529e+01	6.193613e+02
1.320000e-06	6.626018e-06	9.510893e-09	4.617001e+01	6.244780e+02
1.330000e-06	6.716199e-06	9.585625e-09	4.679840e+01	6.293955e+02
1.340000e-06	6.803899e-06	9.657334e-09	4.740949e+01	6.341256e+02
1.350000e-06	6.889213e-06	9.725876e-09	4.800396e+01	6.386753e+02
1.360000e-06	6.972128e-06	9.791761e-09	4.858170e+01	6.430478e+02
1.370000e-06	7.052459e-06	9.855828e-09	4.914145e+01	6.472441e+02
1.380000e-06	7.130248e-06	9.917164e-09	4.968348e+01	6.512633e+02
1.390000e-06	7.205431e-06	9.974635e-09	5.020736e+01	6.551035e+02
1.400000e-06	7.277842e-06	1.002863e-08	5.071192e+01	6.587616e+02
1.410000e-06	7.347655e-06	1.008049e-08	5.119837e+01	6.622334e+02
1.420000e-06	7.414940e-06	1.012981e-08	5.166721e+01	6.655146e+02
1.430000e-06	7.479563e-06	1.017590e-08	5.211751e+01	6.686009e+02
1.440000e-06	7.541550e-06	1.021825e-08	5.254943e+01	6.714898e+02
1.450000e-06	7.601027e-06	1.025881e-08	5.296387e+01	6.741812e+02
1.460000e-06	7.657866e-06	1.029544e-08	5.335992e+01	6.766786e+02
1.470000e-06	7.711874e-06	1.032851e-08	5.373625e+01	6.789886e+02
1.480000e-06	7.762832e-06	1.036054e-08	5.409132e+01	6.811206e+02
1.490000e-06	7.810663e-06	1.038997e-08	5.442461e+01	6.830855e+02
1.500000e-06	7.855657e-06	1.041615e-08	5.473813e+01	6.848939e+02
1.510000e-06	7.897887e-06	1.043966e-08	5.503238e+01	6.865543e+02
1.520000e-06	7.937247e-06	1.046220e-08	5.530665e+01	6.880726e+02
1.530000e-06	7.973841e-06	1.048366e-08	5.556163e+01	6.894517e+02
1.540000e-06	8.007621e-06	1.050242e-08	5.579701e+01	6.906918e+02
1.550000e-06	8.038490e-06	1.051866e-08	5.601210e+01	6.917924e+02
1.560000e-06	8.066616e-06	1.053226e-08	5.620809e+01	6.927535e+02
1.570000e-06	8.091819e-06	1.054304e-08	5.638370e+01	6.935771e+02
1.580000e-06	8.114001e-06	1.055433e-08	5.653826e+01	6.942683e+02
1.590000e-06	8.133446e-06	1.056501e-08	5.667376e+01	6.948345e+02
1.600000e-06	8.149978e-06	1.057238e-08	5.678895e+01	6.952851e+02
1.610000e-06	8.163378e-06	1.057717e-08	5.688233e+01	6.956299e+02
1.620000e-06	8.173552e-06	1.058175e-08	5.695322e+01	6.958770e+02
1.630000e-06	8.180608e-06	1.058590e-08	5.700238e+01	6.960320e+02
1.640000e-06	8.184864e-06	1.058826e-08	5.703203e+01	6.960967e+02
1.650000e-06	8.186222e-06	1.059038e-08	5.704150e+01	6.960698e+02
1.660000e-06	8.184678e-06	1.058349e-08	5.703074e+01	6.959479e+02
1.670000e-06	8.180457e-06	1.057432e-08	5.700133e+01	6.957266e+02
1.680000e-06	8.173509e-06	1.057078e-08	5.695291e+01	6.954027e+02
1.690000e-06	8.163824e-06	1.056547e-08	5.688543e+01	6.949752e+02
1.700000e-06	8.151315e-06	1.055971e-08	5.679826e+01	6.944463e+02
1.710000e-06	8.135938e-06	1.055846e-08	5.669112e+01	6.938213e+02
1.720000e-06	8.118016e-06	1.056408e-08	5.656624e+01	6.931081e+02
1.730000e-06	8.097742e-06	1.055072e-08	5.642497e+01	6.923159e+02
1.740000e-06	8.074720e-06	1.044045e-08	5.626455e+01	6.914542e+02
1.750000e-06	8.048216e-06	1.045424e-08	5.607988e+01	6.905314e+02
1.760000e-06	8.017896e-06	1.048708e-08	5.586860e+01	6.895543e+02
1.770000e-06	7.984361e-06	1.045129e-08	5.563494e+01	6.885269e+02
1.780000e-06	7.948469e-06	1.045418e-08	5.538484e+01	6.874505e+02
1.790000e-06	7.910200e-06	1.053539e-08	5.511818e+01	6.863230e+02
1.800000e-06	7.869754e-06	1.043517e-08	5.483635e+01	6.851390e+02
1.810000e-06	7.827273e-06	1.032625e-08	5.454034e+01	6.838889e+02
1.820000e-06	7.782099e-06	1.048629e-08	5.422557e+01	6.825596e+02
1.830000e-06	7.734136e-06	1.033152e-08	5.389137e+01	6.811344e+02
1.840000e-06	7.683293e-06	1.037615e-08	5.353710e+01	6.795946e+02
1.850000e-06	7.629272e-06	1.038034e-08	5.316068e+01	6.779207e+02
1.860000e-06	7.572431e-06	1.027182e-08	5.276461e+01	6.760953e+02
1.870000e-06	7.512911e-06	1.033236e-08	5.234987e+01	6.741053e+02
1.880000e-06	7.450668e-06	1.016087e-08	5.191617e+01	6.719445e+02
1.890000e-06	7.385611e-06	1.023945e-08	5.146285e+01	6.696148e+02
1.900000e-06	7.317590e-06	1.019395e-08	5.098888e+01	6.671260e+02
1.910000e-06	7.246684e-06	1.009580e-08	5.049481e+01	6.644943e+02
1.920000e-06	7.172954e-06	1.012753e-08	4.998106e+01	6.617395e+02
1.930000e-06	7.096546e-06	1.004986e-08	4.944865e+01	6.588804e+02
1.940000e-06	7.017360e-06	1.005696e-08	4.889688e+01	6.559315e+02
1.950000e-06	6.935485e-06	9.917168e-09	4.832638e+01	6.528995e+02
1.960000e-06	6.851120e-06	9.915999e-09	4.773852e+01	6.497820e+02
1.970000e-06	6.764093e-06	9.880468e-09	4.713212e+01	6.465679e+02
1.980000e-06	6.674544e-06	9.781221e-09	4.650814e+01	6.432397e+02
1.990000e-06	6.582695e-06	9.778712e-09	4.586814e+01	6.397778e+02
2.000000e-06	6.488600e-06	9.718213e-09	4.521249e+01	6.361645e+02
2.010000e-06	6.392199e-06	9.677545e-09	4.454077e+01	6.323879e+02
2.020000e-06	6.293536e-06	9.551612e-09	4.385329e+01	6.284440e+02
2.030000e-06	6.192646e-06	9.518879e-09	4.315028e+01	6.243367e+02
2.040000e-06	6.089424e-06	9.467186e-09	4.243104e+01	6.200761e+02
2.050000e-06	5.984021e-06	9.409827e-09	4.169659e+01	6.156747e+02
2.060000e-06	5.876615e-06	9.340279e-09	4.094818e+01	6.111435e+02
2.070000e-06	5.767246e-06	9.263886e-09	4.018610e+01	6.064879e+02
2.080000e-06	5.655765e-06	9.196121e-09	3.940930e+01	6.017060e+02
2.090000e-06	5.542127e-06	9.094149e-09	3.861748e+01	5.967877e+02
2.100000e-06	5.426346e-06	9.032309e-09	3.781072e+01	5.917166e+02
2.110000e-06	5.308498e-06	8.958620e-09	3.698955e+01	5.864736e+02
2.120000e-06	5.188640e-06	8.886793e-09	3.615438e+01	5.810397e+02
2.130000e-06	5.066908e-06	8.782744e-09	3.530616e+01	5.754002e+02
2.140000e-06	4.943365e-06	8.701227e-09	3.444531e+01	5.695462e+02
2.150000e-06	4.817995e-06	8.611369e-09	3.357173e+01	5.634750e+02
2.160000e-06	4.690918e-06	8.519292e-09	3.268626e+01	5.571886e+02
2.170000e-06	4.562076e-06	8.415287e-09	3.178849e+01	5.506907e+02
2.180000e-06	4.431639e-06	8.313095e-09	3.087961e+01	5.439842e+02
2.190000e-06	4.299600e-06	8.214070e-09	2.995956e+01	5.370680e+02
2.200000e-06	4.165928e-06	8.105457e-09	2.902814e+01	5.299359e+02
2.210000e-06	4.030716e-06	7.995013e-09	2.808599e+01	5.225774e+02
2.220000e-06	3.893903e-06	7.874126e-09	2.713267e+01	5.149787e+02
2.230000e-06	3.755517e-06	7.753321e-09	2.616840e+01	5.071255e+02
2.240000e-06	3.615731e-06	7.624741e-09	2.519437e+01	4.990056e+02
2.250000e-06	3.474590e-06	7.503242e-09	2.421090e+01	4.906102e+02
2.260000e-06	3.332128e-06	7.377205e-09	2.321823e+01	4.819344e+02
2.270000e-06	3.188403e-06	7.244859e-09	2.221675e+01	4.729762e+02
2.280000e-06	3.043414e-06	7.097078e-09	2.120647e+01	4.637341e+02
2.290000e-06	2.897277e-06	6.946434e-09	2.018819e+01	4.542047e+02
2.300000e-06	2.750167e-06	6.798500e-09	1.916313e+01	4.443807e+02
2.310000e-06	2.602135e-06	6.649975e-09	1.813164e+01	4.342498e+02
2.320000e-06	2.453146e-06	6.495254e-09	1.709349e+01	4.237950e+02
2.330000e-06	2.303304e-06	6.331341e-09	1.604940e+01	4.129964e+02
2.340000e-06	2.152775e-06	6.159872e-09	1.500051e+01	4.018338e+02
2.350000e-06	2.001564e-06	5.982220e-09	1.394687e+01	3.902886e+02
2.360000e-06	1.849643e-06	5.798291e-09	1.288829e+01	3.783456e+02
2.370000e-06	1.697082e-06	5.608874e-09	1.182525e+01	3.659929e+02
2.380000e-06	1.543940e-06	5.412872e-09	1.075816e+01	3.532209e+02
2.390000e-06	1.390292e-06	5.212024e-09	9.687537e+00	3.400196e+02
2.400000e-06	1.236194e-06	5.005641e-09	8.613783e+00	3.263770e+02
2.410000e-06	1.081648e-06	4.791313e-09	7.536912e+00	3.122766e+02
2.420000e-06	9.267454e-07	4.570525e-09	6.457551e+00	2.976972e+02
2.430000e-06	7.715974e-07	4.340312e-09	5.376481e+00	2.826139e+02
2.440000e-06	6.161984e-07	4.100076e-09	4.293663e+00	2.670001e+02
2.450000e-06	4.605786e-07	3.852535e-09	3.209307e+00	2.508298e+02
2.460000e-06	3.047666e-07	3.600418e-09	2.123610e+00	2.340789e+02
2.470000e-06	1.488333e-07	3.337047e-09	1.037069e+00	2.167255e+02
2.480000e-06	-7.222771e-09	3.058809e-09	-5.032818e-02	1.987471e+02
2.490000e-06	-1.634075e-07	2.770431e-09	-1.138621e+00	1.801167e+02
2.500000e-06	-3.195413e-07	2.474937e-09	-2.226560e+00	1.607979e+02
2.510000e-06	-4.755094e-07	2.169962e-09	-3.313344e+00	1.407417e+02
2.520000e-06	-6.312837e-07	1.853842e-09	-4.398777e+00	1.198856e+02
2.530000e-06	-7.867811e-07	1.526324e-09	-5.482281e+00	9.815791e+01
2.540000e-06	-9.420373e-07	1.183111e-09	-6.564105e+00	7.548707e+01
2.550000e-06	-1.097083e-06	8.220068e-10	-7.644460e+00	5.181586e+01
2.560000e-06	-1.251801e-06	4.447117e-10	-8.722538e+00	2.711844e+01
2.570000e-06	-1.406090e-06	5.252803e-11	-9.797620e+00	1.417326e+00
2.580000e-06	-1.559820e-06	-3.559841e-10	-1.086881e+01	-2.520325e+01
2.590000e-06	-1.712908e-06	-7.786286e-10	-1.193552e+01	-5.259057e+01
2.600000e-06	-1.865316e-06	-1.208767e-09	-1.299750e+01	-8.052574e+01
2.610000e-06	-2.016993e-06	-1.640812e-09	-1.405438e+01	-1.087355e+02
2.620000e-06	-2.167908e-06	-2.072776e-09	-1.510596e+01	-1.369127e+02
2.630000e-06	-2.318084e-06	-2.499163e-09	-1.615238e+01	-1.647418e+02
2.640000e-06	-2.467451e-06	-2.913203e-09	-1.719317e+01	-1.919268e+02
2.650000e-06	-2.615846e-06	-3.314547e-09	-1.822718e+01	-2.182159e+02
2.660000e-06	-2.763196e-06	-3.700064e-09	-1.925392e+01	-2.434193e+02
2.670000e-06	-2.909529e-06	-4.067845e-09	-2.027356e+01	-2.674181e+02
2.680000e-06	-3.054799e-06	-4.416371e-09	-2.128581e+01	-2.901639e+02
2.690000e-06	-3.198870e-06	-4.744666e-09	-2.228969e+01	-3.116681e+02
2.700000e-06	-3.341709e-06	-5.054374e-09	-2.328499e+01	-3.319864e+02
2.710000e-06	-3.483323e-06	-5.347389e-09	-2.427175e+01	-3.511997e+02
2.720000e-06	-3.623559e-06	-5.625802e-09	-2.524892e+01	-3.693969e+02
2.730000e-06	-3.762389e-06	-5.891000e-09	-2.621628e+01	-3.866606e+02
2.740000e-06	-3.899895e-06	-6.142149e-09	-2.717442e+01	-4.030594e+02
2.750000e-06	-4.035914e-06	-6.381090e-09	-2.812220e+01	-4.186461e+02
2.760000e-06	-4.170401e-06	-6.609846e-09	-2.905931e+01	-4.334601e+02
2.770000e-06	-4.303486e-06	-6.827471e-09	-2.998664e+01	-4.475341e+02
2.780000e-06	-4.435033e-06	-7.032187e-09	-3.090326e+01	-4.608996e+02
2.790000e-06	-4.565054e-06	-7.225346e-09	-3.180925e+01	-4.735920e+02
2.800000e-06	-4.693543e-06	-7.410169e-09	-3.270455e+01	-4.856527e+02
2.810000e-06	-4.820407e-06	-7.586644e-09	-3.358854e+01	-4.971278e+02
2.820000e-06	-4.945659e-06	-7.754891e-09	-3.446129e+01	-5.080641e+02
2.830000e-06	-5.069147e-06	-7.914615e-09	-3.532176e+01	-5.185046e+02
2.840000e-06	-5.190797e-06	-8.066077e-09	-3.616941e+01	-5.284838e+02
2.850000e-06	-5.310530e-06	-8.211021e-09	-3.700371e+01	-5.380250e+02
2.860000e-06	-5.428198e-06	-8.350121e-09	-3.782362e+01	-5.471405e+02
2.870000e-06	-5.543607e-06	-8.482944e-09	-3.862779e+01	-5.558340e+02
2.880000e-06	-5.656741e-06	-8.608301e-09	-3.941611e+01	-5.641043e+02
2.890000e-06	-5.767677e-06	-8.727540e-09	-4.018911e+01	-5.719513e+02
2.900000e-06	-5.876468e-06	-8.842884e-09	-4.094716e+01	-5.793799e+02
2.910000e-06	-5.983301e-06	-8.952729e-09	-4.169157e+01	-5.864030e+02
2.920000e-06	-6.088064e-06	-9.055902e-09	-4.242156e+01	-5.930424e+02
2.930000e-06	-6.190532e-06	-9.153209e-09	-4.313555e+01	-5.993274e+02
2.940000e-06	-6.290725e-06	-9.245167e-09	-4.383370e+01	-6.052920e+02
