# Temperatura_=_70.4
# Concentracion g/m^3_=_15000.0
# C_Vs_to_Am_M_A/Vsm_=_65563218390.804596
# pendiente_HvsI_1/m_=_3716.3
# ordenada_HvsI_A/m_=_1297.0
# frecuencia_Hz_=_301596.6670014851

Tiempo_(s)	Campo_(V.s)	Magnetizacion_(V.s)	Campo_(kA/m)	Magnetizacion_(A/m)
0.000000e+00	-5.413282e-06	-9.254881e-09	-3.833907e+01	-6.051238e+02
1.000000e-08	-5.410764e-06	-9.253677e-09	-3.832124e+01	-6.048641e+02
2.000000e-08	-5.406433e-06	-9.246151e-09	-3.829056e+01	-6.044793e+02
3.000000e-08	-5.400430e-06	-9.239482e-09	-3.824805e+01	-6.039651e+02
4.000000e-08	-5.392836e-06	-9.229133e-09	-3.819427e+01	-6.033184e+02
5.000000e-08	-5.383419e-06	-9.212790e-09	-3.812757e+01	-6.025383e+02
6.000000e-08	-5.371951e-06	-9.193136e-09	-3.804635e+01	-6.016269e+02
7.000000e-08	-5.358603e-06	-9.164034e-09	-3.795182e+01	-6.005896e+02
8.000000e-08	-5.343189e-06	-9.166346e-09	-3.784265e+01	-5.994354e+02
9.000000e-08	-5.325498e-06	-9.220104e-09	-3.771735e+01	-5.981758e+02
1.000000e-07	-5.305737e-06	-9.182970e-09	-3.757740e+01	-5.968243e+02
1.100000e-07	-5.284064e-06	-9.114551e-09	-3.742390e+01	-5.953942e+02
1.200000e-07	-5.260608e-06	-9.069793e-09	-3.725777e+01	-5.938976e+02
1.300000e-07	-5.235547e-06	-8.929138e-09	-3.708028e+01	-5.923431e+02
1.400000e-07	-5.208870e-06	-9.014345e-09	-3.689134e+01	-5.907350e+02
1.500000e-07	-5.180605e-06	-9.121285e-09	-3.669116e+01	-5.890718e+02
1.600000e-07	-5.150892e-06	-8.899922e-09	-3.648072e+01	-5.873464e+02
1.700000e-07	-5.119650e-06	-8.969401e-09	-3.625945e+01	-5.855465e+02
1.800000e-07	-5.086291e-06	-8.962947e-09	-3.602319e+01	-5.836552e+02
1.900000e-07	-5.051009e-06	-8.746213e-09	-3.577331e+01	-5.816531e+02
2.000000e-07	-5.014307e-06	-8.909555e-09	-3.551337e+01	-5.795202e+02
2.100000e-07	-4.975849e-06	-8.875006e-09	-3.524099e+01	-5.772376e+02
2.200000e-07	-4.935504e-06	-8.688155e-09	-3.495526e+01	-5.747901e+02
2.300000e-07	-4.893218e-06	-8.739534e-09	-3.465577e+01	-5.721672e+02
2.400000e-07	-4.849019e-06	-8.683800e-09	-3.434274e+01	-5.693641e+02
2.500000e-07	-4.803075e-06	-8.629962e-09	-3.401734e+01	-5.663824e+02
2.600000e-07	-4.755199e-06	-8.613911e-09	-3.367826e+01	-5.632289e+02
2.700000e-07	-4.705112e-06	-8.516551e-09	-3.332352e+01	-5.599151e+02
2.800000e-07	-4.652988e-06	-8.472564e-09	-3.295436e+01	-5.564551e+02
2.900000e-07	-4.599142e-06	-8.401755e-09	-3.257300e+01	-5.528641e+02
3.000000e-07	-4.543708e-06	-8.350519e-09	-3.218040e+01	-5.491558e+02
3.100000e-07	-4.486537e-06	-8.328360e-09	-3.177549e+01	-5.453416e+02
3.200000e-07	-4.427476e-06	-8.278778e-09	-3.135719e+01	-5.414285e+02
3.300000e-07	-4.366796e-06	-8.185491e-09	-3.092743e+01	-5.374189e+02
3.400000e-07	-4.304689e-06	-8.087730e-09	-3.048757e+01	-5.333107e+02
3.500000e-07	-4.241233e-06	-8.082727e-09	-3.003815e+01	-5.290972e+02
3.600000e-07	-4.176228e-06	-8.019275e-09	-2.957775e+01	-5.247692e+02
3.700000e-07	-4.109477e-06	-7.915758e-09	-2.910499e+01	-5.203156e+02
3.800000e-07	-4.041202e-06	-7.859110e-09	-2.862144e+01	-5.157254e+02
3.900000e-07	-3.971579e-06	-7.776240e-09	-2.812834e+01	-5.109891e+02
4.000000e-07	-3.900722e-06	-7.697245e-09	-2.762651e+01	-5.060997e+02
4.100000e-07	-3.828603e-06	-7.624557e-09	-2.711573e+01	-5.010537e+02
4.200000e-07	-3.754989e-06	-7.568229e-09	-2.659436e+01	-4.958507e+02
4.300000e-07	-3.679796e-06	-7.484435e-09	-2.606182e+01	-4.904935e+02
4.400000e-07	-3.603144e-06	-7.375953e-09	-2.551894e+01	-4.849871e+02
4.500000e-07	-3.525013e-06	-7.291182e-09	-2.496558e+01	-4.793378e+02
4.600000e-07	-3.445394e-06	-7.221259e-09	-2.440169e+01	-4.735515e+02
4.700000e-07	-3.364535e-06	-7.141644e-09	-2.382901e+01	-4.676330e+02
4.800000e-07	-3.282548e-06	-7.030918e-09	-2.324834e+01	-4.615850e+02
4.900000e-07	-3.199455e-06	-6.931914e-09	-2.265985e+01	-4.554073e+02
5.000000e-07	-3.115373e-06	-6.843601e-09	-2.206434e+01	-4.490969e+02
5.100000e-07	-3.030337e-06	-6.741277e-09	-2.146209e+01	-4.426485e+02
5.200000e-07	-2.944304e-06	-6.640328e-09	-2.085277e+01	-4.360546e+02
5.300000e-07	-2.857280e-06	-6.539588e-09	-2.023642e+01	-4.293070e+02
5.400000e-07	-2.769355e-06	-6.429710e-09	-1.961370e+01	-4.223975e+02
5.500000e-07	-2.680403e-06	-6.317067e-09	-1.898371e+01	-4.153190e+02
5.600000e-07	-2.590176e-06	-6.207414e-09	-1.834468e+01	-4.080660e+02
5.700000e-07	-2.498867e-06	-6.102367e-09	-1.769800e+01	-4.006352e+02
5.800000e-07	-2.406768e-06	-5.985430e-09	-1.704572e+01	-3.930254e+02
5.900000e-07	-2.313840e-06	-5.858907e-09	-1.638756e+01	-3.852372e+02
6.000000e-07	-2.220058e-06	-5.733114e-09	-1.572336e+01	-3.772725e+02
6.100000e-07	-2.125493e-06	-5.609977e-09	-1.505361e+01	-3.691334e+02
6.200000e-07	-2.030179e-06	-5.487871e-09	-1.437856e+01	-3.608215e+02
6.300000e-07	-1.934162e-06	-5.359370e-09	-1.369852e+01	-3.523373e+02
6.400000e-07	-1.837395e-06	-5.225700e-09	-1.301318e+01	-3.436792e+02
6.500000e-07	-1.739750e-06	-5.087364e-09	-1.232162e+01	-3.348437e+02
6.600000e-07	-1.641335e-06	-4.946666e-09	-1.162460e+01	-3.258250e+02
6.700000e-07	-1.542352e-06	-4.805372e-09	-1.092356e+01	-3.166159e+02
6.800000e-07	-1.442876e-06	-4.663981e-09	-1.021903e+01	-3.072080e+02
6.900000e-07	-1.343013e-06	-4.515807e-09	-9.511768e+00	-2.975927e+02
7.000000e-07	-1.242789e-06	-4.363553e-09	-8.801939e+00	-2.877620e+02
7.100000e-07	-1.142171e-06	-4.209582e-09	-8.089321e+00	-2.777091e+02
7.200000e-07	-1.041233e-06	-4.050978e-09	-7.374435e+00	-2.674291e+02
7.300000e-07	-9.399733e-07	-3.891237e-09	-6.657275e+00	-2.569191e+02
7.400000e-07	-8.383197e-07	-3.727307e-09	-5.937323e+00	-2.461780e+02
7.500000e-07	-7.363578e-07	-3.557385e-09	-5.215187e+00	-2.352065e+02
7.600000e-07	-6.341257e-07	-3.383289e-09	-4.491138e+00	-2.240059e+02
7.700000e-07	-5.316258e-07	-3.207594e-09	-3.765191e+00	-2.125775e+02
7.800000e-07	-4.290096e-07	-3.030525e-09	-3.038421e+00	-2.009218e+02
7.900000e-07	-3.263429e-07	-2.849619e-09	-2.311294e+00	-1.890376e+02
8.000000e-07	-2.235600e-07	-2.662402e-09	-1.583344e+00	-1.769212e+02
8.100000e-07	-1.206344e-07	-2.472319e-09	-8.543818e-01	-1.645660e+02
8.200000e-07	-1.762234e-08	-2.281455e-09	-1.248086e-01	-1.519625e+02
8.300000e-07	8.540790e-08	-2.087861e-09	6.048937e-01	-1.390981e+02
8.400000e-07	1.884091e-07	-1.891238e-09	1.334390e+00	-1.259577e+02
8.500000e-07	2.913339e-07	-1.688110e-09	2.063346e+00	-1.125244e+02
8.600000e-07	3.941982e-07	-1.478227e-09	2.791872e+00	-9.877995e+01
8.700000e-07	4.969528e-07	-1.260400e-09	3.519622e+00	-8.470619e+01
8.800000e-07	5.995346e-07	-1.037549e-09	4.246149e+00	-7.028585e+01
8.900000e-07	7.019597e-07	-8.105892e-10	4.971566e+00	-5.550368e+01
9.000000e-07	8.042095e-07	-5.768329e-10	5.695740e+00	-4.034772e+01
9.100000e-07	9.062019e-07	-3.399975e-10	6.418092e+00	-2.481035e+01
9.200000e-07	1.007823e-06	-1.005240e-10	7.137817e+00	-8.889544e+00
9.300000e-07	1.109071e-06	1.438362e-10	7.854896e+00	7.410044e+00
9.400000e-07	1.209932e-06	3.966239e-10	8.569236e+00	2.407601e+01
9.500000e-07	1.310356e-06	6.544266e-10	9.280475e+00	4.108730e+01
9.600000e-07	1.410357e-06	9.160026e-10	9.988727e+00	5.841348e+01
9.700000e-07	1.509945e-06	1.183071e-09	1.069405e+01	7.601440e+01
9.800000e-07	1.609027e-06	1.453821e-09	1.139579e+01	9.384018e+01
9.900000e-07	1.707436e-06	1.725959e-09	1.209276e+01	1.118317e+02
1.000000e-06	1.805031e-06	1.998472e-09	1.278397e+01	1.299219e+02
1.010000e-06	1.901712e-06	2.272762e-09	1.346870e+01	1.480371e+02
1.020000e-06	1.997566e-06	2.547224e-09	1.414758e+01	1.660994e+02
1.030000e-06	2.092714e-06	2.819887e-09	1.482145e+01	1.840293e+02
1.040000e-06	2.187172e-06	3.089379e-09	1.549045e+01	2.017487e+02
1.050000e-06	2.280899e-06	3.351617e-09	1.615426e+01	2.191835e+02
1.060000e-06	2.373857e-06	3.607528e-09	1.681263e+01	2.362670e+02
1.070000e-06	2.466087e-06	3.858356e-09	1.746583e+01	2.529419e+02
1.080000e-06	2.557629e-06	4.105544e-09	1.811418e+01	2.691622e+02
1.090000e-06	2.648348e-06	4.346277e-09	1.875668e+01	2.848941e+02
1.100000e-06	2.737851e-06	4.578692e-09	1.939058e+01	3.001166e+02
1.110000e-06	2.826074e-06	4.801193e-09	2.001541e+01	3.148201e+02
1.120000e-06	2.913303e-06	5.015314e-09	2.063320e+01	3.290054e+02
1.130000e-06	2.999706e-06	5.222880e-09	2.124514e+01	3.426812e+02
1.140000e-06	3.085133e-06	5.423515e-09	2.185017e+01	3.558618e+02
1.150000e-06	3.169531e-06	5.616074e-09	2.244791e+01	3.685642e+02
1.160000e-06	3.253094e-06	5.801584e-09	2.303974e+01	3.808059e+02
1.170000e-06	3.335633e-06	5.982910e-09	2.362432e+01	3.926026e+02
1.180000e-06	3.416779e-06	6.157074e-09	2.419903e+01	4.039671e+02
1.190000e-06	3.496676e-06	6.323504e-09	2.476489e+01	4.149083e+02
1.200000e-06	3.575383e-06	6.482306e-09	2.532233e+01	4.254316e+02
1.210000e-06	3.652797e-06	6.636639e-09	2.587060e+01	4.355394e+02
1.220000e-06	3.728955e-06	6.784918e-09	2.640998e+01	4.452328e+02
1.230000e-06	3.803636e-06	6.926182e-09	2.693891e+01	4.545126e+02
1.240000e-06	3.876606e-06	7.060549e-09	2.745571e+01	4.633813e+02
1.250000e-06	3.948051e-06	7.189207e-09	2.796171e+01	4.718445e+02
1.260000e-06	4.018138e-06	7.310960e-09	2.845809e+01	4.799116e+02
1.270000e-06	4.086818e-06	7.427779e-09	2.894452e+01	4.875966e+02
1.280000e-06	4.154162e-06	7.539163e-09	2.942147e+01	4.949172e+02
1.290000e-06	4.219860e-06	7.642785e-09	2.988677e+01	5.018950e+02
1.300000e-06	4.283835e-06	7.742628e-09	3.033987e+01	5.085532e+02
1.310000e-06	4.346388e-06	7.838530e-09	3.078290e+01	5.149159e+02
1.320000e-06	4.407513e-06	7.930635e-09	3.121581e+01	5.210059e+02
1.330000e-06	4.467259e-06	8.018654e-09	3.163896e+01	5.268435e+02
1.340000e-06	4.525412e-06	8.103682e-09	3.205082e+01	5.324453e+02
1.350000e-06	4.581681e-06	8.186436e-09	3.244934e+01	5.378233e+02
1.360000e-06	4.636261e-06	8.264252e-09	3.283590e+01	5.429854e+02
1.370000e-06	4.689270e-06	8.338043e-09	3.321133e+01	5.479351e+02
1.380000e-06	4.740385e-06	8.409471e-09	3.357334e+01	5.526725e+02
1.390000e-06	4.789369e-06	8.478678e-09	3.392027e+01	5.571958e+02
1.400000e-06	4.836476e-06	8.543485e-09	3.425390e+01	5.615023e+02
1.410000e-06	4.881968e-06	8.603240e-09	3.457609e+01	5.655894e+02
1.420000e-06	4.925979e-06	8.660902e-09	3.488780e+01	5.694560e+02
1.430000e-06	4.968226e-06	8.716396e-09	3.518701e+01	5.731027e+02
1.440000e-06	5.008489e-06	8.768964e-09	3.547216e+01	5.765323e+02
1.450000e-06	5.047067e-06	8.818600e-09	3.574539e+01	5.797493e+02
1.460000e-06	5.084038e-06	8.865393e-09	3.600723e+01	5.827598e+02
1.470000e-06	5.119352e-06	8.908114e-09	3.625735e+01	5.855706e+02
1.480000e-06	5.152730e-06	8.946770e-09	3.649374e+01	5.881882e+02
1.490000e-06	5.184143e-06	8.981636e-09	3.671622e+01	5.906187e+02
1.500000e-06	5.213857e-06	9.011523e-09	3.692666e+01	5.928667e+02
1.510000e-06	5.241943e-06	9.038245e-09	3.712558e+01	5.949357e+02
1.520000e-06	5.268084e-06	9.064117e-09	3.731073e+01	5.968278e+02
1.530000e-06	5.292126e-06	9.089958e-09	3.748100e+01	5.985445e+02
1.540000e-06	5.314309e-06	9.114449e-09	3.763811e+01	6.000869e+02
1.550000e-06	5.334729e-06	9.135942e-09	3.778273e+01	6.014568e+02
1.560000e-06	5.353388e-06	9.154299e-09	3.791488e+01	6.026570e+02
1.570000e-06	5.370081e-06	9.170666e-09	3.803311e+01	6.036918e+02
1.580000e-06	5.384718e-06	9.184241e-09	3.813677e+01	6.045670e+02
1.590000e-06	5.397335e-06	9.194140e-09	3.822613e+01	6.052898e+02
1.600000e-06	5.407803e-06	9.200858e-09	3.830027e+01	6.058683e+02
1.610000e-06	5.416104e-06	9.206273e-09	3.835906e+01	6.063108e+02
1.620000e-06	5.422424e-06	9.210997e-09	3.840382e+01	6.066247e+02
1.630000e-06	5.426961e-06	9.216013e-09	3.843596e+01	6.068159e+02
1.640000e-06	5.429675e-06	9.221529e-09	3.845518e+01	6.068881e+02
1.650000e-06	5.430356e-06	9.225777e-09	3.846000e+01	6.068425e+02
1.660000e-06	5.429130e-06	9.221238e-09	3.845132e+01	6.066779e+02
1.670000e-06	5.426213e-06	9.211634e-09	3.843066e+01	6.063913e+02
1.680000e-06	5.421656e-06	9.204887e-09	3.839838e+01	6.059786e+02
1.690000e-06	5.415200e-06	9.196789e-09	3.835266e+01	6.054358e+02
1.700000e-06	5.406856e-06	9.186973e-09	3.829357e+01	6.047602e+02
1.710000e-06	5.396955e-06	9.178805e-09	3.822344e+01	6.039512e+02
1.720000e-06	5.385438e-06	9.181077e-09	3.814187e+01	6.030118e+02
1.730000e-06	5.372015e-06	9.177299e-09	3.804681e+01	6.019482e+02
1.740000e-06	5.356483e-06	9.068641e-09	3.793680e+01	6.007699e+02
1.750000e-06	5.338566e-06	9.045766e-09	3.780990e+01	5.994890e+02
1.760000e-06	5.317897e-06	9.065240e-09	3.766352e+01	5.981191e+02
1.770000e-06	5.294800e-06	9.063687e-09	3.749993e+01	5.966735e+02
1.780000e-06	5.270357e-06	9.184741e-09	3.732682e+01	5.951634e+02
1.790000e-06	5.245296e-06	9.002407e-09	3.714933e+01	5.935969e+02
1.800000e-06	5.218915e-06	8.893956e-09	3.696249e+01	5.919768e+02
1.810000e-06	5.190234e-06	9.066592e-09	3.675936e+01	5.903007e+02
1.820000e-06	5.159666e-06	8.876102e-09	3.654286e+01	5.885602e+02
1.830000e-06	5.127526e-06	8.917027e-09	3.631523e+01	5.867418e+02
1.840000e-06	5.093399e-06	9.060916e-09	3.607354e+01	5.848280e+02
1.850000e-06	5.057643e-06	8.772101e-09	3.582030e+01	5.827991e+02
1.860000e-06	5.020144e-06	8.847948e-09	3.555471e+01	5.806352e+02
1.870000e-06	4.980642e-06	8.904286e-09	3.527494e+01	5.783180e+02
1.880000e-06	4.939514e-06	8.698041e-09	3.498365e+01	5.758332e+02
1.890000e-06	4.896532e-06	8.800059e-09	3.467924e+01	5.731714e+02
1.900000e-06	4.851920e-06	8.682967e-09	3.436328e+01	5.703293e+02
1.910000e-06	4.805597e-06	8.625036e-09	3.403520e+01	5.673096e+02
1.920000e-06	4.757154e-06	8.668281e-09	3.369211e+01	5.641202e+02
1.930000e-06	4.707079e-06	8.465484e-09	3.333745e+01	5.607734e+02
1.940000e-06	4.655281e-06	8.561179e-09	3.297060e+01	5.572837e+02
1.950000e-06	4.601405e-06	8.501207e-09	3.258903e+01	5.536660e+02
1.960000e-06	4.545562e-06	8.330224e-09	3.219353e+01	5.499338e+02
1.970000e-06	4.487936e-06	8.318272e-09	3.178540e+01	5.460975e+02
1.980000e-06	4.428878e-06	8.251270e-09	3.136712e+01	5.421633e+02
1.990000e-06	4.368317e-06	8.273231e-09	3.093821e+01	5.381325e+02
2.000000e-06	4.306022e-06	8.121119e-09	3.049701e+01	5.340019e+02
2.010000e-06	4.242150e-06	8.067948e-09	3.004464e+01	5.297644e+02
2.020000e-06	4.176770e-06	8.074424e-09	2.958159e+01	5.254100e+02
2.030000e-06	4.109937e-06	7.898141e-09	2.910825e+01	5.209275e+02
2.040000e-06	4.041670e-06	7.883196e-09	2.862475e+01	5.163063e+02
2.050000e-06	3.971873e-06	7.825774e-09	2.813043e+01	5.115373e+02
2.060000e-06	3.900553e-06	7.752353e-09	2.762531e+01	5.066142e+02
2.070000e-06	3.827857e-06	7.638267e-09	2.711045e+01	5.015340e+02
2.080000e-06	3.753893e-06	7.522102e-09	2.658660e+01	4.962972e+02
2.090000e-06	3.678531e-06	7.523668e-09	2.605286e+01	4.909071e+02
2.100000e-06	3.601711e-06	7.425903e-09	2.550879e+01	4.853691e+02
2.110000e-06	3.523323e-06	7.324856e-09	2.495361e+01	4.796895e+02
2.120000e-06	3.443509e-06	7.225319e-09	2.438834e+01	4.738741e+02
2.130000e-06	3.362566e-06	7.147076e-09	2.381507e+01	4.679274e+02
2.140000e-06	3.280493e-06	7.049890e-09	2.323379e+01	4.618512e+02
2.150000e-06	3.197360e-06	6.936714e-09	2.264501e+01	4.556450e+02
2.160000e-06	3.113186e-06	6.872354e-09	2.204885e+01	4.493052e+02
2.170000e-06	3.027833e-06	6.763945e-09	2.144435e+01	4.428258e+02
2.180000e-06	2.941126e-06	6.654602e-09	2.083025e+01	4.361993e+02
2.190000e-06	2.853210e-06	6.547207e-09	2.020760e+01	4.294173e+02
2.200000e-06	2.764386e-06	6.461631e-09	1.957851e+01	4.224717e+02
2.210000e-06	2.674662e-06	6.365312e-09	1.894305e+01	4.153558e+02
2.220000e-06	2.584028e-06	6.235719e-09	1.830114e+01	4.080645e+02
2.230000e-06	2.492525e-06	6.116626e-09	1.765308e+01	4.005949e+02
2.240000e-06	2.400184e-06	5.999271e-09	1.699908e+01	3.929463e+02
2.250000e-06	2.306983e-06	5.888511e-09	1.633900e+01	3.851197e+02
2.260000e-06	2.212887e-06	5.765820e-09	1.567257e+01	3.771170e+02
2.270000e-06	2.117821e-06	5.640686e-09	1.499928e+01	3.689404e+02
2.280000e-06	2.021812e-06	5.512566e-09	1.431930e+01	3.605912e+02
2.290000e-06	1.925116e-06	5.383080e-09	1.363446e+01	3.520694e+02
2.300000e-06	1.827897e-06	5.256685e-09	1.294592e+01	3.433733e+02
2.310000e-06	1.730166e-06	5.130621e-09	1.225374e+01	3.344986e+02
2.320000e-06	1.631866e-06	4.995474e-09	1.155754e+01	3.254394e+02
2.330000e-06	1.533022e-06	4.844014e-09	1.085749e+01	3.161880e+02
2.340000e-06	1.433693e-06	4.691900e-09	1.015400e+01	3.067360e+02
2.350000e-06	1.333925e-06	4.540670e-09	9.447402e+00	2.970747e+02
2.360000e-06	1.233857e-06	4.397034e-09	8.738682e+00	2.871965e+02
2.370000e-06	1.133462e-06	4.251327e-09	8.027640e+00	2.770948e+02
2.380000e-06	1.032657e-06	4.092277e-09	7.313701e+00	2.667653e+02
2.390000e-06	9.314814e-07	3.930275e-09	6.597132e+00	2.562054e+02
2.400000e-06	8.299649e-07	3.771375e-09	5.878150e+00	2.454144e+02
2.410000e-06	7.280770e-07	3.611783e-09	5.156539e+00	2.343933e+02
2.420000e-06	6.257970e-07	3.442163e-09	4.432150e+00	2.231433e+02
2.430000e-06	5.232387e-07	3.260986e-09	3.705790e+00	2.116658e+02
2.440000e-06	4.204902e-07	3.077616e-09	2.978084e+00	1.999609e+02
2.450000e-06	3.175348e-07	2.893581e-09	2.248911e+00	1.880269e+02
2.460000e-06	2.143118e-07	2.706342e-09	1.517844e+00	1.758596e+02
2.470000e-06	1.109138e-07	2.523240e-09	7.855368e-01	1.634517e+02
2.480000e-06	7.480064e-09	2.336146e-09	5.297687e-02	1.507930e+02
2.490000e-06	-9.593543e-08	2.137430e-09	-6.794539e-01	1.378704e+02
2.500000e-06	-1.992912e-07	1.932476e-09	-1.411461e+00	1.246683e+02
2.510000e-06	-3.025762e-07	1.727701e-09	-2.142968e+00	1.111694e+02
2.520000e-06	-4.057515e-07	1.521342e-09	-2.873698e+00	9.735549e+01
2.530000e-06	-5.087723e-07	1.303432e-09	-3.603333e+00	8.320844e+01
2.540000e-06	-6.116053e-07	1.079538e-09	-4.331639e+00	6.871133e+01
2.550000e-06	-7.141243e-07	8.532644e-10	-5.057720e+00	5.384952e+01
2.560000e-06	-8.162384e-07	6.194310e-10	-5.780934e+00	3.861187e+01
2.570000e-06	-9.179431e-07	3.798209e-10	-6.501248e+00	2.299187e+01
2.580000e-06	-1.019164e-06	1.368815e-10	-7.218137e+00	6.988837e+00
2.590000e-06	-1.119871e-06	-1.115488e-10	-7.931383e+00	-9.391010e+00
2.600000e-06	-1.220151e-06	-3.674783e-10	-8.641606e+00	-2.613348e+01
2.610000e-06	-1.320075e-06	-6.266106e-10	-9.349310e+00	-4.321556e+01
2.620000e-06	-1.419587e-06	-8.899215e-10	-1.005410e+01	-6.060475e+01
2.630000e-06	-1.518588e-06	-1.161020e-09	-1.075526e+01	-7.825880e+01
2.640000e-06	-1.617101e-06	-1.439738e-09	-1.145297e+01	-9.612580e+01
2.650000e-06	-1.715105e-06	-1.723272e-09	-1.214707e+01	-1.141448e+02
2.660000e-06	-1.812474e-06	-2.005786e-09	-1.283668e+01	-1.322472e+02
2.670000e-06	-1.909211e-06	-2.284706e-09	-1.352182e+01	-1.503581e+02
2.680000e-06	-2.005387e-06	-2.556997e-09	-1.420297e+01	-1.683991e+02
2.690000e-06	-2.100990e-06	-2.826711e-09	-1.488007e+01	-1.862908e+02
2.700000e-06	-2.195803e-06	-3.097507e-09	-1.555157e+01	-2.039557e+02
2.710000e-06	-2.289564e-06	-3.365332e-09	-1.621563e+01	-2.213210e+02
2.720000e-06	-2.382293e-06	-3.625693e-09	-1.687237e+01	-2.383218e+02
2.730000e-06	-2.474141e-06	-3.877981e-09	-1.752288e+01	-2.549032e+02
2.740000e-06	-2.565163e-06	-4.124466e-09	-1.816753e+01	-2.710216e+02
2.750000e-06	-2.655270e-06	-4.365123e-09	-1.880571e+01	-2.866462e+02
2.760000e-06	-2.744419e-06	-4.598880e-09	-1.943710e+01	-3.017583e+02
2.770000e-06	-2.832729e-06	-4.824054e-09	-2.006254e+01	-3.163508e+02
2.780000e-06	-2.920255e-06	-5.038785e-09	-2.068244e+01	-3.304264e+02
2.790000e-06	-3.006672e-06	-5.244425e-09	-2.129448e+01	-3.439951e+02
2.800000e-06	-3.091789e-06	-5.445478e-09	-2.189731e+01	-3.570722e+02
2.810000e-06	-3.175839e-06	-5.640267e-09	-2.249259e+01	-3.696749e+02
2.820000e-06	-3.258890e-06	-5.825560e-09	-2.308079e+01	-3.818204e+02
2.830000e-06	-3.340876e-06	-6.002623e-09	-2.366145e+01	-3.935240e+02
2.840000e-06	-3.421760e-06	-6.173474e-09	-2.423430e+01	-4.047975e+02
2.850000e-06	-3.501494e-06	-6.338363e-09	-2.479901e+01	-4.156493e+02
2.860000e-06	-3.579800e-06	-6.495632e-09	-2.535361e+01	-4.260838e+02
2.870000e-06	-3.656554e-06	-6.646885e-09	-2.589721e+01	-4.361032e+02
2.880000e-06	-3.731869e-06	-6.792860e-09	-2.643062e+01	-4.457083e+02
2.890000e-06	-3.805754e-06	-6.931881e-09	-2.695390e+01	-4.549001e+02
2.900000e-06	-3.878332e-06	-7.066533e-09	-2.746793e+01	-4.636818e+02
2.910000e-06	-3.949589e-06	-7.198641e-09	-2.797261e+01	-4.720596e+02
2.920000e-06	-4.019217e-06	-7.324146e-09	-2.846574e+01	-4.800439e+02
2.930000e-06	-4.087275e-06	-7.441009e-09	-2.894775e+01	-4.876496e+02
2.940000e-06	-4.153936e-06	-7.552691e-09	-2.941987e+01	-4.948953e+02
