# Temperatura_=_55.19
# Concentracion g/m^3_=_15000.0
# C_Vs_to_Am_M_A/Vsm_=_65563218390.804596
# pendiente_HvsI_1/m_=_3716.3
# ordenada_HvsI_A/m_=_1297.0
# frecuencia_Hz_=_301595.36739011086

Tiempo_(s)	Campo_(V.s)	Magnetizacion_(V.s)	Campo_(kA/m)	Magnetizacion_(A/m)
0.000000e+00	-5.383646e-06	-8.634628e-09	-3.833327e+01	-5.636306e+02
1.000000e-08	-5.380642e-06	-8.630901e-09	-3.831188e+01	-5.633944e+02
2.000000e-08	-5.375906e-06	-8.626057e-09	-3.827816e+01	-5.630464e+02
3.000000e-08	-5.369504e-06	-8.622406e-09	-3.823258e+01	-5.625839e+02
4.000000e-08	-5.361533e-06	-8.611741e-09	-3.817582e+01	-5.620048e+02
5.000000e-08	-5.351724e-06	-8.594918e-09	-3.810598e+01	-5.613085e+02
6.000000e-08	-5.339822e-06	-8.573263e-09	-3.802123e+01	-5.604968e+02
7.000000e-08	-5.326050e-06	-8.540969e-09	-3.792317e+01	-5.595741e+02
8.000000e-08	-5.310163e-06	-8.571728e-09	-3.781005e+01	-5.585473e+02
9.000000e-08	-5.291956e-06	-8.613931e-09	-3.768041e+01	-5.574256e+02
1.000000e-07	-5.271743e-06	-8.555539e-09	-3.753649e+01	-5.562192e+02
1.100000e-07	-5.249670e-06	-8.509379e-09	-3.737932e+01	-5.549385e+02
1.200000e-07	-5.225878e-06	-8.433599e-09	-3.720992e+01	-5.535925e+02
1.300000e-07	-5.200534e-06	-8.316367e-09	-3.702946e+01	-5.521879e+02
1.400000e-07	-5.173586e-06	-8.493873e-09	-3.683758e+01	-5.507275e+02
1.500000e-07	-5.145055e-06	-8.471724e-09	-3.663443e+01	-5.492100e+02
1.600000e-07	-5.115072e-06	-8.280663e-09	-3.642095e+01	-5.476294e+02
1.700000e-07	-5.083448e-06	-8.422977e-09	-3.619577e+01	-5.459757e+02
1.800000e-07	-5.049678e-06	-8.295465e-09	-3.595532e+01	-5.442355e+02
1.900000e-07	-5.014101e-06	-8.181102e-09	-3.570199e+01	-5.423932e+02
2.000000e-07	-4.977111e-06	-8.351723e-09	-3.543861e+01	-5.404330e+02
2.100000e-07	-4.938385e-06	-8.208656e-09	-3.516288e+01	-5.383398e+02
2.200000e-07	-4.897773e-06	-8.100305e-09	-3.487370e+01	-5.361015e+02
2.300000e-07	-4.855184e-06	-8.168590e-09	-3.457046e+01	-5.337096e+02
2.400000e-07	-4.810757e-06	-8.105490e-09	-3.425412e+01	-5.311601e+02
2.500000e-07	-4.764581e-06	-8.100400e-09	-3.392534e+01	-5.284540e+02
2.600000e-07	-4.716454e-06	-8.011058e-09	-3.358265e+01	-5.255963e+02
2.700000e-07	-4.666200e-06	-7.924396e-09	-3.322483e+01	-5.225957e+02
2.800000e-07	-4.613856e-06	-7.911937e-09	-3.285213e+01	-5.194630e+02
2.900000e-07	-4.559657e-06	-7.848744e-09	-3.246621e+01	-5.162099e+02
3.000000e-07	-4.503939e-06	-7.828326e-09	-3.206948e+01	-5.128469e+02
3.100000e-07	-4.446592e-06	-7.804235e-09	-3.166115e+01	-5.093830e+02
3.200000e-07	-4.387422e-06	-7.734537e-09	-3.123985e+01	-5.058239e+02
3.300000e-07	-4.326694e-06	-7.625115e-09	-3.080744e+01	-5.021715e+02
3.400000e-07	-4.264542e-06	-7.570178e-09	-3.036490e+01	-4.984246e+02
3.500000e-07	-4.201038e-06	-7.572226e-09	-2.991273e+01	-4.945784e+02
3.600000e-07	-4.135982e-06	-7.485656e-09	-2.944951e+01	-4.906262e+02
3.700000e-07	-4.069189e-06	-7.403235e-09	-2.897392e+01	-4.865598e+02
3.800000e-07	-4.000879e-06	-7.359600e-09	-2.848753e+01	-4.823708e+02
3.900000e-07	-3.931228e-06	-7.283880e-09	-2.799160e+01	-4.780520e+02
4.000000e-07	-3.860342e-06	-7.207490e-09	-2.748687e+01	-4.735979e+02
4.100000e-07	-3.788251e-06	-7.130990e-09	-2.697355e+01	-4.690054e+02
4.200000e-07	-3.714686e-06	-7.081642e-09	-2.644975e+01	-4.642737e+02
4.300000e-07	-3.639478e-06	-6.997661e-09	-2.591424e+01	-4.594043e+02
4.400000e-07	-3.562763e-06	-6.909011e-09	-2.536801e+01	-4.544001e+02
4.500000e-07	-3.484687e-06	-6.849767e-09	-2.481208e+01	-4.492650e+02
4.600000e-07	-3.405217e-06	-6.782433e-09	-2.424623e+01	-4.440026e+02
4.700000e-07	-3.324368e-06	-6.690171e-09	-2.367056e+01	-4.386159e+02
4.800000e-07	-3.242330e-06	-6.578663e-09	-2.308642e+01	-4.331061e+02
4.900000e-07	-3.159210e-06	-6.502885e-09	-2.249458e+01	-4.274725e+02
5.000000e-07	-3.075136e-06	-6.424593e-09	-2.189595e+01	-4.217126e+02
5.100000e-07	-2.990214e-06	-6.333041e-09	-2.129128e+01	-4.158219e+02
5.200000e-07	-2.904292e-06	-6.238680e-09	-2.067948e+01	-4.097949e+02
5.300000e-07	-2.817354e-06	-6.138199e-09	-2.006046e+01	-4.036252e+02
5.400000e-07	-2.729585e-06	-6.037088e-09	-1.943551e+01	-3.973068e+02
5.500000e-07	-2.640883e-06	-5.936809e-09	-1.880393e+01	-3.908341e+02
5.600000e-07	-2.550901e-06	-5.841063e-09	-1.816323e+01	-3.842029e+02
5.700000e-07	-2.459748e-06	-5.739636e-09	-1.751419e+01	-3.774104e+02
5.800000e-07	-2.367817e-06	-5.632881e-09	-1.685961e+01	-3.704552e+02
5.900000e-07	-2.275165e-06	-5.523915e-09	-1.619990e+01	-3.633370e+02
6.000000e-07	-2.181747e-06	-5.414539e-09	-1.553473e+01	-3.560564e+02
6.100000e-07	-2.087515e-06	-5.299463e-09	-1.486377e+01	-3.486138e+02
6.200000e-07	-1.992519e-06	-5.181316e-09	-1.418737e+01	-3.410093e+02
6.300000e-07	-1.896917e-06	-5.060940e-09	-1.350665e+01	-3.332419e+02
6.400000e-07	-1.800672e-06	-4.938640e-09	-1.282136e+01	-3.253092e+02
6.500000e-07	-1.703640e-06	-4.816073e-09	-1.213046e+01	-3.172071e+02
6.600000e-07	-1.605793e-06	-4.688648e-09	-1.143376e+01	-3.089300e+02
6.700000e-07	-1.507169e-06	-4.555723e-09	-1.073153e+01	-3.004710e+02
6.800000e-07	-1.407936e-06	-4.419144e-09	-1.002495e+01	-2.918224e+02
6.900000e-07	-1.308324e-06	-4.285021e-09	-9.315682e+00	-2.829762e+02
7.000000e-07	-1.208393e-06	-4.149485e-09	-8.604147e+00	-2.739247e+02
7.100000e-07	-1.108153e-06	-4.008179e-09	-7.890403e+00	-2.646612e+02
7.200000e-07	-1.007596e-06	-3.860429e-09	-7.174403e+00	-2.551798e+02
7.300000e-07	-9.066827e-07	-3.711464e-09	-6.455870e+00	-2.454764e+02
7.400000e-07	-8.054391e-07	-3.558927e-09	-5.734983e+00	-2.355480e+02
7.500000e-07	-7.038897e-07	-3.400258e-09	-5.011919e+00	-2.253927e+02
7.600000e-07	-6.020772e-07	-3.239535e-09	-4.286981e+00	-2.150096e+02
7.700000e-07	-5.000979e-07	-3.076742e-09	-3.560857e+00	-2.043978e+02
7.800000e-07	-3.979897e-07	-2.912320e-09	-2.833814e+00	-1.935560e+02
7.900000e-07	-2.957355e-07	-2.743407e-09	-2.105731e+00	-1.824822e+02
8.000000e-07	-1.933478e-07	-2.570314e-09	-1.376698e+00	-1.711730e+02
8.100000e-07	-9.084388e-08	-2.392580e-09	-6.468374e-01	-1.596233e+02
8.200000e-07	1.174874e-08	-2.211281e-09	8.365478e-02	-1.478259e+02
8.300000e-07	1.143446e-07	-2.026685e-09	8.141703e-01	-1.357718e+02
8.400000e-07	2.169038e-07	-1.839852e-09	1.544424e+00	-1.234502e+02
8.500000e-07	3.194320e-07	-1.649700e-09	2.274457e+00	-1.108485e+02
8.600000e-07	4.218381e-07	-1.453222e-09	3.003621e+00	-9.795331e+01
8.700000e-07	5.240619e-07	-1.250194e-09	3.731488e+00	-8.475038e+01
8.800000e-07	6.261648e-07	-1.041658e-09	4.458493e+00	-7.122582e+01
8.900000e-07	7.280869e-07	-8.300904e-10	5.184211e+00	-5.736671e+01
9.000000e-07	8.297398e-07	-6.151871e-10	5.908012e+00	-4.316218e+01
9.100000e-07	9.311079e-07	-3.969472e-10	6.629785e+00	-2.860450e+01
9.200000e-07	1.032122e-06	-1.706969e-10	7.349037e+00	-1.369023e+01
9.300000e-07	1.132715e-06	6.388504e-11	8.065292e+00	1.578460e+00
9.400000e-07	1.232953e-06	3.027804e-10	8.779021e+00	1.719261e+01
9.500000e-07	1.332904e-06	5.437110e-10	9.490699e+00	3.313535e+01
9.600000e-07	1.432514e-06	7.883944e-10	1.019996e+01	4.938105e+01
9.700000e-07	1.531625e-06	1.039404e-09	1.090566e+01	6.589471e+01
9.800000e-07	1.629952e-06	1.294371e-09	1.160577e+01	8.263190e+01
9.900000e-07	1.727362e-06	1.551945e-09	1.229937e+01	9.953917e+01
1.000000e-06	1.823955e-06	1.810569e-09	1.298714e+01	1.165551e+02
1.010000e-06	1.919856e-06	2.069745e-09	1.366999e+01	1.336118e+02
1.020000e-06	2.015078e-06	2.329099e-09	1.434800e+01	1.506371e+02
1.030000e-06	2.109574e-06	2.588231e-09	1.502084e+01	1.675570e+02
1.040000e-06	2.203348e-06	2.843688e-09	1.568854e+01	1.842987e+02
1.050000e-06	2.296307e-06	3.092079e-09	1.635044e+01	2.007927e+02
1.060000e-06	2.388533e-06	3.335661e-09	1.700712e+01	2.169762e+02
1.070000e-06	2.480210e-06	3.574855e-09	1.765989e+01	2.327947e+02
1.080000e-06	2.571034e-06	3.809308e-09	1.830658e+01	2.482039e+02
1.090000e-06	2.660581e-06	4.037429e-09	1.894419e+01	2.631701e+02
1.100000e-06	2.748966e-06	4.257326e-09	1.957352e+01	2.776707e+02
1.110000e-06	2.836522e-06	4.467619e-09	2.019694e+01	2.916932e+02
1.120000e-06	2.923240e-06	4.669819e-09	2.081440e+01	3.052335e+02
1.130000e-06	3.008983e-06	4.868510e-09	2.142492e+01	3.182947e+02
1.140000e-06	3.093740e-06	5.063728e-09	2.202841e+01	3.308845e+02
1.150000e-06	3.177606e-06	5.250368e-09	2.262557e+01	3.430127e+02
1.160000e-06	3.260422e-06	5.427366e-09	2.321524e+01	3.546902e+02
1.170000e-06	3.341889e-06	5.598564e-09	2.379531e+01	3.659264e+02
1.180000e-06	3.422137e-06	5.763648e-09	2.436671e+01	3.767290e+02
1.190000e-06	3.501178e-06	5.922365e-09	2.492950e+01	3.871035e+02
1.200000e-06	3.578970e-06	6.072624e-09	2.548341e+01	3.970536e+02
1.210000e-06	3.655577e-06	6.215607e-09	2.602888e+01	4.065817e+02
1.220000e-06	3.730869e-06	6.352592e-09	2.656498e+01	4.156906e+02
1.230000e-06	3.804513e-06	6.484544e-09	2.708935e+01	4.243842e+02
1.240000e-06	3.876558e-06	6.612901e-09	2.760233e+01	4.326694e+02
1.250000e-06	3.947252e-06	6.734770e-09	2.810569e+01	4.405564e+02
1.260000e-06	4.016544e-06	6.848655e-09	2.859907e+01	4.480596e+02
1.270000e-06	4.084555e-06	6.955472e-09	2.908334e+01	4.551975e+02
1.280000e-06	4.151137e-06	7.057993e-09	2.955742e+01	4.619917e+02
1.290000e-06	4.215996e-06	7.155548e-09	3.001923e+01	4.684663e+02
1.300000e-06	4.279299e-06	7.247724e-09	3.046997e+01	4.746463e+02
1.310000e-06	4.341190e-06	7.336226e-09	3.091066e+01	4.805560e+02
1.320000e-06	4.401682e-06	7.421406e-09	3.134138e+01	4.862174e+02
1.330000e-06	4.460729e-06	7.503019e-09	3.176181e+01	4.916492e+02
1.340000e-06	4.518017e-06	7.583320e-09	3.216972e+01	4.968656e+02
1.350000e-06	4.573506e-06	7.660832e-09	3.256482e+01	5.018760e+02
1.360000e-06	4.627377e-06	7.732982e-09	3.294840e+01	5.066854e+02
1.370000e-06	4.679522e-06	7.801644e-09	3.331969e+01	5.112946e+02
1.380000e-06	4.729616e-06	7.868105e-09	3.367637e+01	5.157017e+02
1.390000e-06	4.777735e-06	7.933017e-09	3.401900e+01	5.199031e+02
1.400000e-06	4.824188e-06	7.993630e-09	3.434976e+01	5.238947e+02
1.410000e-06	4.869070e-06	8.048866e-09	3.466933e+01	5.276736e+02
1.420000e-06	4.912375e-06	8.100197e-09	3.497767e+01	5.312384e+02
1.430000e-06	4.953798e-06	8.148951e-09	3.527262e+01	5.345900e+02
1.440000e-06	4.993376e-06	8.196424e-09	3.555443e+01	5.377319e+02
1.450000e-06	5.031331e-06	8.243032e-09	3.582468e+01	5.406697e+02
1.460000e-06	5.067680e-06	8.286632e-09	3.608349e+01	5.434105e+02
1.470000e-06	5.102253e-06	8.324263e-09	3.632967e+01	5.459625e+02
1.480000e-06	5.134885e-06	8.356776e-09	3.656202e+01	5.483336e+02
1.490000e-06	5.165734e-06	8.385545e-09	3.678167e+01	5.505312e+02
1.500000e-06	5.194915e-06	8.412120e-09	3.698945e+01	5.525615e+02
1.510000e-06	5.222348e-06	8.438457e-09	3.718478e+01	5.544290e+02
1.520000e-06	5.247765e-06	8.463306e-09	3.736576e+01	5.561370e+02
1.530000e-06	5.271133e-06	8.486075e-09	3.753214e+01	5.576877e+02
1.540000e-06	5.292678e-06	8.506581e-09	3.768556e+01	5.590828e+02
1.550000e-06	5.312529e-06	8.524842e-09	3.782690e+01	5.603239e+02
1.560000e-06	5.330473e-06	8.541008e-09	3.795467e+01	5.614134e+02
1.570000e-06	5.346351e-06	8.555085e-09	3.806772e+01	5.623547e+02
1.580000e-06	5.360258e-06	8.566068e-09	3.816674e+01	5.631525e+02
1.590000e-06	5.372153e-06	8.574135e-09	3.825144e+01	5.638126e+02
1.600000e-06	5.381867e-06	8.581469e-09	3.832061e+01	5.643416e+02
1.610000e-06	5.389479e-06	8.588319e-09	3.837481e+01	5.647463e+02
1.620000e-06	5.395256e-06	8.594452e-09	3.841594e+01	5.650331e+02
1.630000e-06	5.399285e-06	8.599727e-09	3.844463e+01	5.652070e+02
1.640000e-06	5.401385e-06	8.604057e-09	3.845958e+01	5.652718e+02
1.650000e-06	5.401444e-06	8.606172e-09	3.846000e+01	5.652290e+02
1.660000e-06	5.399701e-06	8.601216e-09	3.844759e+01	5.650784e+02
1.670000e-06	5.396395e-06	8.597893e-09	3.842405e+01	5.648181e+02
1.680000e-06	5.391299e-06	8.591881e-09	3.838776e+01	5.644454e+02
1.690000e-06	5.384251e-06	8.581355e-09	3.833758e+01	5.639577e+02
1.700000e-06	5.375546e-06	8.571823e-09	3.827560e+01	5.633530e+02
1.710000e-06	5.365313e-06	8.566864e-09	3.820274e+01	5.626314e+02
1.720000e-06	5.353309e-06	8.583276e-09	3.811727e+01	5.617951e+02
1.730000e-06	5.339270e-06	8.547617e-09	3.801730e+01	5.608490e+02
1.740000e-06	5.323047e-06	8.448827e-09	3.790179e+01	5.598007e+02
1.750000e-06	5.304382e-06	8.462914e-09	3.776889e+01	5.586596e+02
1.760000e-06	5.283060e-06	8.464781e-09	3.761707e+01	5.574360e+02
1.770000e-06	5.259587e-06	8.525719e-09	3.744994e+01	5.561402e+02
1.780000e-06	5.235050e-06	8.586996e-09	3.727522e+01	5.547809e+02
1.790000e-06	5.209789e-06	8.324022e-09	3.709536e+01	5.533638e+02
1.800000e-06	5.182908e-06	8.393473e-09	3.690396e+01	5.518910e+02
1.810000e-06	5.153800e-06	8.469429e-09	3.669670e+01	5.503602e+02
1.820000e-06	5.122974e-06	8.220217e-09	3.647721e+01	5.487646e+02
1.830000e-06	5.090431e-06	8.406448e-09	3.624549e+01	5.470932e+02
1.840000e-06	5.055985e-06	8.387517e-09	3.600023e+01	5.453321e+02
1.850000e-06	5.019913e-06	8.123944e-09	3.574338e+01	5.434655e+02
1.860000e-06	4.981973e-06	8.315817e-09	3.547323e+01	5.414775e+02
1.870000e-06	4.942180e-06	8.234551e-09	3.518990e+01	5.393538e+02
1.880000e-06	4.900691e-06	8.110200e-09	3.489448e+01	5.370827e+02
1.890000e-06	4.857456e-06	8.178771e-09	3.458663e+01	5.346568e+02
1.900000e-06	4.812676e-06	8.007913e-09	3.426779e+01	5.320732e+02
1.910000e-06	4.765942e-06	8.108347e-09	3.393502e+01	5.293336e+02
1.920000e-06	4.717174e-06	8.035610e-09	3.358778e+01	5.264441e+02
1.930000e-06	4.666857e-06	7.888116e-09	3.322951e+01	5.234139e+02
1.940000e-06	4.614747e-06	8.024008e-09	3.285847e+01	5.202540e+02
1.950000e-06	4.560589e-06	7.843181e-09	3.247285e+01	5.169761e+02
1.960000e-06	4.504518e-06	7.746691e-09	3.207360e+01	5.135905e+02
1.970000e-06	4.446789e-06	7.746243e-09	3.166256e+01	5.101054e+02
1.980000e-06	4.387669e-06	7.718558e-09	3.124160e+01	5.065258e+02
1.990000e-06	4.326953e-06	7.714136e-09	3.080929e+01	5.028531e+02
2.000000e-06	4.264489e-06	7.531669e-09	3.036452e+01	4.990850e+02
2.010000e-06	4.200425e-06	7.560501e-09	2.990836e+01	4.952164e+02
2.020000e-06	4.134920e-06	7.491913e-09	2.944195e+01	4.912400e+02
2.030000e-06	4.068046e-06	7.345123e-09	2.896578e+01	4.871475e+02
2.040000e-06	3.999734e-06	7.365736e-09	2.847938e+01	4.829309e+02
2.050000e-06	3.929884e-06	7.299539e-09	2.798203e+01	4.785832e+02
2.060000e-06	3.858505e-06	7.246421e-09	2.747379e+01	4.740992e+02
2.070000e-06	3.785813e-06	7.104959e-09	2.695620e+01	4.694765e+02
2.080000e-06	3.711840e-06	7.050356e-09	2.642949e+01	4.647147e+02
2.090000e-06	3.636498e-06	7.033385e-09	2.589302e+01	4.598157e+02
2.100000e-06	3.559638e-06	6.912452e-09	2.534576e+01	4.547827e+02
2.110000e-06	3.481157e-06	6.836054e-09	2.478695e+01	4.496196e+02
2.120000e-06	3.401424e-06	6.752784e-09	2.421923e+01	4.443301e+02
2.130000e-06	3.320625e-06	6.701384e-09	2.364391e+01	4.389165e+02
2.140000e-06	3.238702e-06	6.595880e-09	2.306059e+01	4.333799e+02
2.150000e-06	3.155736e-06	6.506847e-09	2.246984e+01	4.277192e+02
2.160000e-06	3.071754e-06	6.432059e-09	2.187187e+01	4.219313e+02
2.170000e-06	2.986559e-06	6.324101e-09	2.126525e+01	4.160115e+02
2.180000e-06	2.899975e-06	6.240093e-09	2.064875e+01	4.099541e+02
2.190000e-06	2.812265e-06	6.147289e-09	2.002422e+01	4.037527e+02
2.200000e-06	2.723646e-06	6.074015e-09	1.939323e+01	3.974012e+02
2.210000e-06	2.634082e-06	5.970339e-09	1.875550e+01	3.908945e+02
2.220000e-06	2.543559e-06	5.853340e-09	1.811095e+01	3.842285e+02
2.230000e-06	2.452228e-06	5.740163e-09	1.746064e+01	3.774008e+02
2.240000e-06	2.360271e-06	5.634790e-09	1.680588e+01	3.704103e+02
2.250000e-06	2.267493e-06	5.539781e-09	1.614527e+01	3.632569e+02
2.260000e-06	2.173694e-06	5.430823e-09	1.547739e+01	3.559411e+02
2.270000e-06	2.078854e-06	5.314526e-09	1.480211e+01	3.484634e+02
2.280000e-06	1.983097e-06	5.194941e-09	1.412028e+01	3.408238e+02
2.290000e-06	1.886718e-06	5.079932e-09	1.343404e+01	3.330208e+02
2.300000e-06	1.789876e-06	4.958716e-09	1.274449e+01	3.250518e+02
2.310000e-06	1.692531e-06	4.838333e-09	1.205136e+01	3.169124e+02
2.320000e-06	1.594565e-06	4.712480e-09	1.135381e+01	3.085965e+02
2.330000e-06	1.496020e-06	4.579862e-09	1.065214e+01	3.000972e+02
2.340000e-06	1.396998e-06	4.443896e-09	9.947072e+00	2.914065e+02
2.350000e-06	1.297567e-06	4.309073e-09	9.239091e+00	2.825166e+02
2.360000e-06	1.197858e-06	4.178757e-09	8.529133e+00	2.734198e+02
2.370000e-06	1.097998e-06	4.037105e-09	7.818094e+00	2.641096e+02
2.380000e-06	9.979017e-07	3.886409e-09	7.105378e+00	2.545806e+02
2.390000e-06	8.974128e-07	3.740570e-09	6.389865e+00	2.448288e+02
2.400000e-06	7.964432e-07	3.599085e-09	5.670930e+00	2.348515e+02
2.410000e-06	6.949974e-07	3.448720e-09	4.948603e+00	2.246471e+02
2.420000e-06	5.931858e-07	3.286141e-09	4.223672e+00	2.142147e+02
2.430000e-06	4.911508e-07	3.118078e-09	3.497150e+00	2.035533e+02
2.440000e-06	3.889028e-07	2.950977e-09	2.769112e+00	1.926616e+02
2.450000e-06	2.864229e-07	2.781771e-09	2.039423e+00	1.815374e+02
2.460000e-06	1.837706e-07	2.611834e-09	1.308505e+00	1.701767e+02
2.470000e-06	8.098077e-08	2.441510e-09	5.766089e-01	1.585742e+02
2.480000e-06	-2.195803e-08	2.261609e-09	-1.563482e-01	1.467222e+02
2.490000e-06	-1.248808e-07	2.073623e-09	-8.891910e-01	1.346114e+02
2.500000e-06	-2.276684e-07	1.885220e-09	-1.621072e+00	1.222305e+02
2.510000e-06	-3.303683e-07	1.696783e-09	-2.352328e+00	1.095667e+02
2.520000e-06	-4.329761e-07	1.501276e-09	-3.082928e+00	9.660635e+01
2.530000e-06	-5.354336e-07	1.295443e-09	-3.812458e+00	8.333527e+01
2.540000e-06	-6.375429e-07	1.085991e-09	-4.539509e+00	6.973966e+01
2.550000e-06	-7.392080e-07	8.742330e-10	-5.263397e+00	5.580697e+01
2.560000e-06	-8.404350e-07	6.553743e-10	-5.984165e+00	4.152690e+01
2.570000e-06	-9.412159e-07	4.312531e-10	-6.701757e+00	2.689253e+01
2.580000e-06	-1.041605e-06	2.030960e-10	-7.416561e+00	1.190154e+01
2.590000e-06	-1.141714e-06	-3.094915e-11	-8.129365e+00	-3.442573e+00
2.600000e-06	-1.241546e-06	-2.707301e-10	-8.840202e+00	-1.912923e+01
2.610000e-06	-1.340993e-06	-5.142685e-10	-9.548296e+00	-3.513975e+01
2.620000e-06	-1.439914e-06	-7.627264e-10	-1.025265e+01	-5.144653e+01
2.630000e-06	-1.538294e-06	-1.017189e-09	-1.095314e+01	-6.801253e+01
2.640000e-06	-1.636161e-06	-1.277528e-09	-1.164999e+01	-8.479134e+01
2.650000e-06	-1.733405e-06	-1.539763e-09	-1.234240e+01	-1.017277e+02
2.660000e-06	-1.829993e-06	-1.799304e-09	-1.303013e+01	-1.187586e+02
2.670000e-06	-1.926112e-06	-2.057355e-09	-1.371453e+01	-1.358152e+02
2.680000e-06	-2.021817e-06	-2.314351e-09	-1.439598e+01	-1.528245e+02
2.690000e-06	-2.116791e-06	-2.573224e-09	-1.507223e+01	-1.697127e+02
2.700000e-06	-2.210683e-06	-2.830531e-09	-1.574077e+01	-1.864073e+02
2.710000e-06	-2.303481e-06	-3.082501e-09	-1.640152e+01	-2.028402e+02
2.720000e-06	-2.395408e-06	-3.329843e-09	-1.705607e+01	-2.189502e+02
2.730000e-06	-2.486550e-06	-3.570869e-09	-1.770503e+01	-2.346848e+02
2.740000e-06	-2.576807e-06	-3.806046e-09	-1.834769e+01	-2.500019e+02
2.750000e-06	-2.666074e-06	-4.034773e-09	-1.898329e+01	-2.648703e+02
2.760000e-06	-2.754501e-06	-4.258731e-09	-1.961293e+01	-2.792695e+02
2.770000e-06	-2.842226e-06	-4.473514e-09	-2.023756e+01	-2.931891e+02
2.780000e-06	-2.929014e-06	-4.676780e-09	-2.085551e+01	-3.066267e+02
2.790000e-06	-3.014535e-06	-4.874320e-09	-2.146445e+01	-3.195865e+02
2.800000e-06	-3.098887e-06	-5.068238e-09	-2.206507e+01	-3.320769e+02
2.810000e-06	-3.182251e-06	-5.254675e-09	-2.265864e+01	-3.441080e+02
2.820000e-06	-3.264557e-06	-5.429950e-09	-2.324469e+01	-3.556906e+02
2.830000e-06	-3.345785e-06	-5.598155e-09	-2.382306e+01	-3.668336e+02
2.840000e-06	-3.425936e-06	-5.760125e-09	-2.439376e+01	-3.775445e+02
2.850000e-06	-3.504897e-06	-5.915621e-09	-2.495599e+01	-3.878283e+02
2.860000e-06	-3.582356e-06	-6.065168e-09	-2.550752e+01	-3.976881e+02
2.870000e-06	-3.658227e-06	-6.208880e-09	-2.604774e+01	-4.071265e+02
2.880000e-06	-3.732660e-06	-6.345899e-09	-2.657773e+01	-4.161464e+02
2.890000e-06	-3.805764e-06	-6.477076e-09	-2.709825e+01	-4.247522e+02
2.900000e-06	-3.877651e-06	-6.607117e-09	-2.761011e+01	-4.329514e+02
2.910000e-06	-3.948117e-06	-6.733515e-09	-2.811185e+01	-4.407552e+02
2.920000e-06	-4.016946e-06	-6.849585e-09	-2.860194e+01	-4.481789e+02
2.930000e-06	-4.084296e-06	-6.957232e-09	-2.908149e+01	-4.552416e+02
2.940000e-06	-4.150272e-06	-7.058875e-09	-2.955126e+01	-4.619656e+02
