# Temperatura_=_40.8
# Concentracion g/m^3_=_15000.0
# C_Vs_to_Am_M_A/Vsm_=_65563218390.804596
# pendiente_HvsI_1/m_=_3716.3
# ordenada_HvsI_A/m_=_1297.0
# frecuencia_Hz_=_301595.5291293743

Tiempo_(s)	Campo_(V.s)	Magnetizacion_(V.s)	Campo_(kA/m)	Magnetizacion_(A/m)
0.000000e+00	-5.397110e-06	-8.211630e-09	-3.834092e+01	-5.361347e+02
1.000000e-08	-5.394832e-06	-8.205682e-09	-3.832474e+01	-5.359379e+02
2.000000e-08	-5.390773e-06	-8.199896e-09	-3.829590e+01	-5.356338e+02
3.000000e-08	-5.385055e-06	-8.193977e-09	-3.825528e+01	-5.352228e+02
4.000000e-08	-5.377734e-06	-8.184913e-09	-3.820327e+01	-5.347058e+02
5.000000e-08	-5.368546e-06	-8.173912e-09	-3.813800e+01	-5.340845e+02
6.000000e-08	-5.357317e-06	-8.160544e-09	-3.805823e+01	-5.333620e+02
7.000000e-08	-5.344235e-06	-8.147054e-09	-3.796529e+01	-5.325429e+02
8.000000e-08	-5.329078e-06	-8.151190e-09	-3.785762e+01	-5.316333e+02
9.000000e-08	-5.311660e-06	-8.143773e-09	-3.773388e+01	-5.306406e+02
1.000000e-07	-5.292195e-06	-8.119351e-09	-3.759561e+01	-5.295729e+02
1.100000e-07	-5.270831e-06	-8.105466e-09	-3.744383e+01	-5.284380e+02
1.200000e-07	-5.247705e-06	-8.057715e-09	-3.727955e+01	-5.272428e+02
1.300000e-07	-5.222963e-06	-8.003856e-09	-3.710378e+01	-5.259924e+02
1.400000e-07	-5.196626e-06	-8.049297e-09	-3.691668e+01	-5.246889e+02
1.500000e-07	-5.168685e-06	-7.995768e-09	-3.671819e+01	-5.233314e+02
1.600000e-07	-5.139219e-06	-7.956777e-09	-3.650886e+01	-5.219154e+02
1.700000e-07	-5.108223e-06	-8.002034e-09	-3.628867e+01	-5.204332e+02
1.800000e-07	-5.075234e-06	-7.899166e-09	-3.605432e+01	-5.188740e+02
1.900000e-07	-5.040307e-06	-7.867520e-09	-3.580620e+01	-5.172256e+02
2.000000e-07	-5.003896e-06	-7.887099e-09	-3.554753e+01	-5.154748e+02
2.100000e-07	-4.965858e-06	-7.797572e-09	-3.527731e+01	-5.136088e+02
2.200000e-07	-4.925975e-06	-7.770713e-09	-3.499399e+01	-5.116166e+02
2.300000e-07	-4.884109e-06	-7.772098e-09	-3.469657e+01	-5.094898e+02
2.400000e-07	-4.840283e-06	-7.727640e-09	-3.438523e+01	-5.072234e+02
2.500000e-07	-4.794706e-06	-7.699411e-09	-3.406145e+01	-5.048162e+02
2.600000e-07	-4.747270e-06	-7.635933e-09	-3.372447e+01	-5.022703e+02
2.700000e-07	-4.697682e-06	-7.605066e-09	-3.337220e+01	-4.995912e+02
2.800000e-07	-4.645945e-06	-7.564143e-09	-3.300466e+01	-4.967864e+02
2.900000e-07	-4.592357e-06	-7.512431e-09	-3.262397e+01	-4.938647e+02
3.000000e-07	-4.537180e-06	-7.478522e-09	-3.223200e+01	-4.908350e+02
3.100000e-07	-4.480282e-06	-7.426434e-09	-3.182779e+01	-4.877052e+02
3.200000e-07	-4.421590e-06	-7.374957e-09	-3.141085e+01	-4.844813e+02
3.300000e-07	-4.361334e-06	-7.314120e-09	-3.098280e+01	-4.811668e+02
3.400000e-07	-4.299641e-06	-7.280128e-09	-3.054453e+01	-4.777627e+02
3.500000e-07	-4.236585e-06	-7.243747e-09	-3.009658e+01	-4.742672e+02
3.600000e-07	-4.172006e-06	-7.168603e-09	-2.963781e+01	-4.706763e+02
3.700000e-07	-4.105725e-06	-7.104219e-09	-2.916695e+01	-4.669846e+02
3.800000e-07	-4.037905e-06	-7.049393e-09	-2.868516e+01	-4.631860e+02
3.900000e-07	-3.968698e-06	-6.985541e-09	-2.819352e+01	-4.592741e+02
4.000000e-07	-3.898240e-06	-6.919804e-09	-2.769299e+01	-4.552435e+02
4.100000e-07	-3.826509e-06	-6.859190e-09	-2.718341e+01	-4.510898e+02
4.200000e-07	-3.753282e-06	-6.804634e-09	-2.666321e+01	-4.468102e+02
4.300000e-07	-3.678455e-06	-6.730420e-09	-2.613164e+01	-4.424031e+02
4.400000e-07	-3.602093e-06	-6.665767e-09	-2.558917e+01	-4.378684e+02
4.500000e-07	-3.524256e-06	-6.602036e-09	-2.503621e+01	-4.332064e+02
4.600000e-07	-3.445008e-06	-6.526817e-09	-2.447324e+01	-4.284179e+02
4.700000e-07	-3.364466e-06	-6.443877e-09	-2.390107e+01	-4.235034e+02
4.800000e-07	-3.282752e-06	-6.360548e-09	-2.332058e+01	-4.184626e+02
4.900000e-07	-3.199982e-06	-6.296362e-09	-2.273258e+01	-4.132945e+02
5.000000e-07	-3.116214e-06	-6.218978e-09	-2.213749e+01	-4.079967e+02
5.100000e-07	-3.031448e-06	-6.130363e-09	-2.153532e+01	-4.025661e+02
5.200000e-07	-2.945684e-06	-6.036581e-09	-2.092605e+01	-3.969986e+02
5.300000e-07	-2.858953e-06	-5.946909e-09	-2.030992e+01	-3.912900e+02
5.400000e-07	-2.771192e-06	-5.860463e-09	-1.968647e+01	-3.854361e+02
5.500000e-07	-2.682415e-06	-5.769317e-09	-1.905580e+01	-3.794331e+02
5.600000e-07	-2.592625e-06	-5.676701e-09	-1.841793e+01	-3.732782e+02
5.700000e-07	-2.501768e-06	-5.580419e-09	-1.777249e+01	-3.669692e+02
5.800000e-07	-2.409988e-06	-5.481720e-09	-1.712049e+01	-3.605052e+02
5.900000e-07	-2.317361e-06	-5.378551e-09	-1.646247e+01	-3.538859e+02
6.000000e-07	-2.223946e-06	-5.275524e-09	-1.579885e+01	-3.471113e+02
6.100000e-07	-2.129793e-06	-5.168377e-09	-1.512999e+01	-3.401817e+02
6.200000e-07	-2.034898e-06	-5.059576e-09	-1.445586e+01	-3.330968e+02
6.300000e-07	-1.939244e-06	-4.948990e-09	-1.377634e+01	-3.258555e+02
6.400000e-07	-1.842833e-06	-4.837918e-09	-1.309143e+01	-3.184556e+02
6.500000e-07	-1.745701e-06	-4.725295e-09	-1.240141e+01	-3.108938e+02
6.600000e-07	-1.647874e-06	-4.603380e-09	-1.170645e+01	-3.031651e+02
6.700000e-07	-1.549375e-06	-4.477010e-09	-1.100672e+01	-2.952639e+02
6.800000e-07	-1.450224e-06	-4.350651e-09	-1.030235e+01	-2.871834e+02
6.900000e-07	-1.350563e-06	-4.225141e-09	-9.594364e+00	-2.789166e+02
7.000000e-07	-1.250538e-06	-4.097807e-09	-8.883788e+00	-2.704561e+02
7.100000e-07	-1.150211e-06	-3.969108e-09	-8.171065e+00	-2.617952e+02
7.200000e-07	-1.049572e-06	-3.832475e-09	-7.456131e+00	-2.529276e+02
7.300000e-07	-9.485905e-07	-3.689559e-09	-6.738760e+00	-2.438481e+02
7.400000e-07	-8.472443e-07	-3.545156e-09	-6.018800e+00	-2.345521e+02
7.500000e-07	-7.455441e-07	-3.399934e-09	-5.296324e+00	-2.250361e+02
7.600000e-07	-6.436124e-07	-3.252708e-09	-4.572204e+00	-2.152973e+02
7.700000e-07	-5.414846e-07	-3.099335e-09	-3.846691e+00	-2.053331e+02
7.800000e-07	-4.391988e-07	-2.942562e-09	-3.120056e+00	-1.951412e+02
7.900000e-07	-3.368433e-07	-2.781924e-09	-2.392925e+00	-1.847192e+02
8.000000e-07	-2.343927e-07	-2.617849e-09	-1.665119e+00	-1.740640e+02
8.100000e-07	-1.318212e-07	-2.449543e-09	-9.364542e-01	-1.631716e+02
8.200000e-07	-2.919449e-08	-2.278806e-09	-2.073968e-01	-1.520373e+02
8.300000e-07	7.345452e-08	-2.106402e-09	5.218188e-01	-1.406548e+02
8.400000e-07	1.760871e-07	-1.928341e-09	1.250918e+00	-1.290171e+02
8.500000e-07	2.786484e-07	-1.743664e-09	1.979510e+00	-1.171155e+02
8.600000e-07	3.811321e-07	-1.555816e-09	2.707552e+00	-1.049404e+02
8.700000e-07	4.835213e-07	-1.365332e-09	3.434922e+00	-9.248147e+01
8.800000e-07	5.858359e-07	-1.170149e-09	4.161761e+00	-7.972768e+01
8.900000e-07	6.880436e-07	-9.727545e-10	4.887842e+00	-6.666810e+01
9.000000e-07	7.900636e-07	-7.732073e-10	5.612590e+00	-5.329250e+01
9.100000e-07	8.918074e-07	-5.691190e-10	6.335375e+00	-3.959222e+01
9.200000e-07	9.931825e-07	-3.587200e-10	7.055540e+00	-2.556122e+01
9.300000e-07	1.094186e-06	-1.411367e-10	7.773065e+00	-1.119727e+01
9.400000e-07	1.194812e-06	8.320599e-11	8.487914e+00	3.496828e+00
9.500000e-07	1.295043e-06	3.123059e-10	9.199952e+00	1.851194e+01
9.600000e-07	1.394899e-06	5.442651e-10	9.909320e+00	3.383151e+01
9.700000e-07	1.494316e-06	7.816173e-10	1.061558e+01	4.943058e+01
9.800000e-07	1.593083e-06	1.024469e-09	1.131721e+01	6.527536e+01
9.900000e-07	1.691085e-06	1.270069e-09	1.201342e+01	8.132303e+01
1.000000e-06	1.788328e-06	1.516190e-09	1.270423e+01	9.752230e+01
1.010000e-06	1.884819e-06	1.763660e-09	1.338970e+01	1.138144e+02
1.020000e-06	1.980590e-06	2.012332e-09	1.407006e+01	1.301346e+02
1.030000e-06	2.075590e-06	2.259792e-09	1.474493e+01	1.464146e+02
1.040000e-06	2.169832e-06	2.505371e-09	1.541443e+01	1.625845e+02
1.050000e-06	2.263356e-06	2.747021e-09	1.607882e+01	1.785758e+02
1.060000e-06	2.356126e-06	2.985106e-09	1.673785e+01	1.943238e+02
1.070000e-06	2.448195e-06	3.219353e-09	1.739191e+01	2.097698e+02
1.080000e-06	2.539566e-06	3.448330e-09	1.804100e+01	2.248631e+02
1.090000e-06	2.629996e-06	3.670088e-09	1.868342e+01	2.395626e+02
1.100000e-06	2.719292e-06	3.884695e-09	1.931777e+01	2.538368e+02
1.110000e-06	2.807505e-06	4.092562e-09	1.994443e+01	2.676640e+02
1.120000e-06	2.894742e-06	4.293761e-09	2.056416e+01	2.810318e+02
1.130000e-06	2.981035e-06	4.490575e-09	2.117719e+01	2.939351e+02
1.140000e-06	3.066337e-06	4.680450e-09	2.178317e+01	3.063752e+02
1.150000e-06	3.150666e-06	4.862158e-09	2.238224e+01	3.183574e+02
1.160000e-06	3.234034e-06	5.037464e-09	2.297449e+01	3.298892e+02
1.170000e-06	3.316286e-06	5.206947e-09	2.355880e+01	3.409791e+02
1.180000e-06	3.397288e-06	5.369803e-09	2.413424e+01	3.516352e+02
1.190000e-06	3.476990e-06	5.525784e-09	2.470044e+01	3.618646e+02
1.200000e-06	3.555424e-06	5.674890e-09	2.525763e+01	3.716730e+02
1.210000e-06	3.632664e-06	5.816833e-09	2.580634e+01	3.810657e+02
1.220000e-06	3.708695e-06	5.952786e-09	2.634646e+01	3.900477e+02
1.230000e-06	3.783303e-06	6.084172e-09	2.687648e+01	3.986248e+02
1.240000e-06	3.856264e-06	6.210098e-09	2.739479e+01	4.068046e+02
1.250000e-06	3.927695e-06	6.328587e-09	2.790223e+01	4.145976e+02
1.260000e-06	3.997742e-06	6.439953e-09	2.839985e+01	4.220171e+02
1.270000e-06	4.066440e-06	6.546483e-09	2.888788e+01	4.290796e+02
1.280000e-06	4.133789e-06	6.648143e-09	2.936632e+01	4.358046e+02
1.290000e-06	4.199533e-06	6.741709e-09	2.983336e+01	4.422137e+02
1.300000e-06	4.263591e-06	6.831232e-09	3.028843e+01	4.483295e+02
1.310000e-06	4.326129e-06	6.919165e-09	3.073269e+01	4.541742e+02
1.320000e-06	4.387197e-06	7.005302e-09	3.116652e+01	4.597686e+02
1.330000e-06	4.446925e-06	7.089862e-09	3.159083e+01	4.651306e+02
1.340000e-06	4.505108e-06	7.172679e-09	3.200416e+01	4.702742e+02
1.350000e-06	4.561463e-06	7.252258e-09	3.240450e+01	4.752095e+02
1.360000e-06	4.616098e-06	7.323736e-09	3.279263e+01	4.799423e+02
1.370000e-06	4.669072e-06	7.388521e-09	3.316895e+01	4.844744e+02
1.380000e-06	4.720197e-06	7.450129e-09	3.353215e+01	4.888048e+02
1.390000e-06	4.769287e-06	7.510980e-09	3.388088e+01	4.929304e+02
1.400000e-06	4.816475e-06	7.569692e-09	3.421610e+01	4.968474e+02
1.410000e-06	4.861993e-06	7.623520e-09	3.453946e+01	5.005523e+02
1.420000e-06	4.905974e-06	7.675329e-09	3.485190e+01	5.040433e+02
1.430000e-06	4.948279e-06	7.726099e-09	3.515244e+01	5.073204e+02
1.440000e-06	4.988713e-06	7.773919e-09	3.543967e+01	5.103864e+02
1.450000e-06	5.027411e-06	7.817740e-09	3.571459e+01	5.132465e+02
1.460000e-06	5.064488e-06	7.857269e-09	3.597798e+01	5.159079e+02
1.470000e-06	5.099878e-06	7.891628e-09	3.622939e+01	5.183796e+02
1.480000e-06	5.133411e-06	7.922875e-09	3.646761e+01	5.206712e+02
1.490000e-06	5.165063e-06	7.951212e-09	3.669246e+01	5.227922e+02
1.500000e-06	5.194979e-06	7.976026e-09	3.690499e+01	5.247516e+02
1.510000e-06	5.223197e-06	8.000031e-09	3.710544e+01	5.265570e+02
1.520000e-06	5.249514e-06	8.024206e-09	3.729240e+01	5.282144e+02
1.530000e-06	5.273727e-06	8.047682e-09	3.746440e+01	5.297284e+02
1.540000e-06	5.295980e-06	8.069290e-09	3.762249e+01	5.311022e+02
1.550000e-06	5.316489e-06	8.089484e-09	3.776819e+01	5.323381e+02
1.560000e-06	5.335232e-06	8.106143e-09	3.790134e+01	5.334378e+02
1.570000e-06	5.352023e-06	8.119080e-09	3.802062e+01	5.344030e+02
1.580000e-06	5.366815e-06	8.129698e-09	3.812570e+01	5.352359e+02
1.590000e-06	5.379651e-06	8.139008e-09	3.821689e+01	5.359390e+02
1.600000e-06	5.390357e-06	8.147604e-09	3.829294e+01	5.365155e+02
1.610000e-06	5.398891e-06	8.156075e-09	3.835357e+01	5.369690e+02
1.620000e-06	5.405421e-06	8.162993e-09	3.839996e+01	5.373032e+02
1.630000e-06	5.410135e-06	8.168915e-09	3.843345e+01	5.375219e+02
1.640000e-06	5.413006e-06	8.173719e-09	3.845384e+01	5.376281e+02
1.650000e-06	5.413873e-06	8.175066e-09	3.846000e+01	5.376241e+02
1.660000e-06	5.412876e-06	8.173377e-09	3.845292e+01	5.375117e+02
1.670000e-06	5.410212e-06	8.171337e-09	3.843400e+01	5.372915e+02
1.680000e-06	5.405867e-06	8.164757e-09	3.840312e+01	5.369642e+02
1.690000e-06	5.399606e-06	8.156508e-09	3.835864e+01	5.365301e+02
1.700000e-06	5.391488e-06	8.149362e-09	3.830098e+01	5.359903e+02
1.710000e-06	5.381761e-06	8.143041e-09	3.823187e+01	5.353467e+02
1.720000e-06	5.370354e-06	8.138415e-09	3.815084e+01	5.346028e+02
1.730000e-06	5.357064e-06	8.114688e-09	3.805643e+01	5.337634e+02
1.740000e-06	5.341744e-06	8.087849e-09	3.794760e+01	5.328351e+02
1.750000e-06	5.324113e-06	8.083562e-09	3.782235e+01	5.318253e+02
1.760000e-06	5.303823e-06	8.058689e-09	3.767821e+01	5.307422e+02
1.770000e-06	5.281092e-06	8.073567e-09	3.751673e+01	5.295936e+02
1.780000e-06	5.256832e-06	8.070113e-09	3.734438e+01	5.283859e+02
1.790000e-06	5.231839e-06	7.978485e-09	3.716684e+01	5.271238e+02
1.800000e-06	5.205657e-06	8.022382e-09	3.698084e+01	5.258086e+02
1.810000e-06	5.177352e-06	7.972784e-09	3.677976e+01	5.244388e+02
1.820000e-06	5.147128e-06	7.894347e-09	3.656505e+01	5.230091e+02
1.830000e-06	5.115231e-06	7.981948e-09	3.633846e+01	5.215110e+02
1.840000e-06	5.081397e-06	7.898311e-09	3.609810e+01	5.199336e+02
1.850000e-06	5.045918e-06	7.850454e-09	3.584606e+01	5.182641e+02
1.860000e-06	5.008750e-06	7.929551e-09	3.558202e+01	5.164893e+02
1.870000e-06	4.969661e-06	7.833893e-09	3.530433e+01	5.145968e+02
1.880000e-06	4.928821e-06	7.794374e-09	3.501421e+01	5.125761e+02
1.890000e-06	4.886174e-06	7.781989e-09	3.471124e+01	5.104194e+02
1.900000e-06	4.841880e-06	7.714663e-09	3.439658e+01	5.081225e+02
1.910000e-06	4.795924e-06	7.733442e-09	3.407011e+01	5.056850e+02
1.920000e-06	4.747930e-06	7.640915e-09	3.372916e+01	5.031097e+02
1.930000e-06	4.698154e-06	7.618004e-09	3.337555e+01	5.004026e+02
1.940000e-06	4.646690e-06	7.619217e-09	3.300995e+01	4.975717e+02
1.950000e-06	4.593181e-06	7.511611e-09	3.262983e+01	4.946259e+02
1.960000e-06	4.537698e-06	7.485150e-09	3.223568e+01	4.915738e+02
1.970000e-06	4.480448e-06	7.433916e-09	3.182897e+01	4.884232e+02
1.980000e-06	4.421685e-06	7.403396e-09	3.141152e+01	4.851794e+02
1.990000e-06	4.361435e-06	7.348086e-09	3.098351e+01	4.818454e+02
2.000000e-06	4.299528e-06	7.254790e-09	3.054372e+01	4.784217e+02
2.010000e-06	4.236021e-06	7.250328e-09	3.009257e+01	4.749058e+02
2.020000e-06	4.170983e-06	7.170378e-09	2.963054e+01	4.712935e+02
2.030000e-06	4.104464e-06	7.113499e-09	2.915800e+01	4.675792e+02
2.040000e-06	4.036511e-06	7.084145e-09	2.867526e+01	4.637565e+02
2.050000e-06	3.967098e-06	7.017567e-09	2.818215e+01	4.598193e+02
2.060000e-06	3.896173e-06	6.945745e-09	2.767830e+01	4.557623e+02
2.070000e-06	3.823833e-06	6.851935e-09	2.716440e+01	4.515816e+02
2.080000e-06	3.750179e-06	6.816649e-09	2.664116e+01	4.472744e+02
2.090000e-06	3.675158e-06	6.752573e-09	2.610822e+01	4.428397e+02
2.100000e-06	3.598703e-06	6.671487e-09	2.556508e+01	4.382773e+02
2.110000e-06	3.520678e-06	6.597909e-09	2.501080e+01	4.335879e+02
2.120000e-06	3.441182e-06	6.527841e-09	2.444606e+01	4.287721e+02
2.130000e-06	3.360530e-06	6.465429e-09	2.387311e+01	4.238303e+02
2.140000e-06	3.278810e-06	6.370202e-09	2.329258e+01	4.187621e+02
2.150000e-06	3.196043e-06	6.301111e-09	2.270460e+01	4.135661e+02
2.160000e-06	3.112222e-06	6.219758e-09	2.210914e+01	4.082399e+02
2.170000e-06	3.027262e-06	6.134512e-09	2.150558e+01	4.027799e+02
2.180000e-06	2.941074e-06	6.050474e-09	2.089330e+01	3.971823e+02
2.190000e-06	2.853660e-06	5.963865e-09	2.027232e+01	3.914426e+02
2.200000e-06	2.765171e-06	5.883028e-09	1.964370e+01	3.855568e+02
2.210000e-06	2.675771e-06	5.781734e-09	1.900860e+01	3.795212e+02
2.220000e-06	2.585479e-06	5.684432e-09	1.836717e+01	3.733330e+02
2.230000e-06	2.494283e-06	5.590981e-09	1.771932e+01	3.669906e+02
2.240000e-06	2.402255e-06	5.502900e-09	1.706555e+01	3.604931e+02
2.250000e-06	2.309439e-06	5.403907e-09	1.640619e+01	3.538402e+02
2.260000e-06	2.215809e-06	5.295173e-09	1.574104e+01	3.470321e+02
2.270000e-06	2.121264e-06	5.183765e-09	1.506940e+01	3.400690e+02
2.280000e-06	2.025752e-06	5.075494e-09	1.439089e+01	3.329504e+02
2.290000e-06	1.929430e-06	4.967857e-09	1.370661e+01	3.256750e+02
2.300000e-06	1.832540e-06	4.855632e-09	1.301831e+01	3.182405e+02
2.310000e-06	1.735164e-06	4.744396e-09	1.232655e+01	3.106430e+02
2.320000e-06	1.637202e-06	4.624702e-09	1.163063e+01	3.028777e+02
2.330000e-06	1.538666e-06	4.502438e-09	1.093064e+01	2.949383e+02
2.340000e-06	1.439689e-06	4.381384e-09	1.022751e+01	2.868182e+02
2.350000e-06	1.340314e-06	4.259501e-09	9.521550e+00	2.785101e+02
2.360000e-06	1.240527e-06	4.129785e-09	8.812671e+00	2.700070e+02
2.370000e-06	1.140383e-06	3.992780e-09	8.101247e+00	2.613020e+02
2.380000e-06	1.039876e-06	3.854516e-09	7.387247e+00	2.523892e+02
2.390000e-06	9.390110e-07	3.719011e-09	6.670708e+00	2.432633e+02
2.400000e-06	8.378287e-07	3.581574e-09	5.951911e+00	2.339201e+02
2.410000e-06	7.363447e-07	3.436345e-09	5.230972e+00	2.243563e+02
2.420000e-06	6.346037e-07	3.285079e-09	4.508207e+00	2.145691e+02
2.430000e-06	5.325904e-07	3.131317e-09	3.783507e+00	2.045560e+02
2.440000e-06	4.303753e-07	2.980050e-09	3.057374e+00	1.943148e+02
2.450000e-06	3.279595e-07	2.825438e-09	2.329815e+00	1.838428e+02
2.460000e-06	2.253121e-07	2.664610e-09	1.600611e+00	1.731368e+02
2.470000e-06	1.225187e-07	2.498065e-09	8.703692e-01	1.621928e+02
2.480000e-06	1.967922e-08	2.323948e-09	1.398006e-01	1.510055e+02
2.490000e-06	-8.311316e-08	2.147509e-09	-5.904335e-01	1.395687e+02
2.500000e-06	-1.859022e-07	1.972940e-09	-1.320644e+00	1.278749e+02
2.510000e-06	-2.887101e-07	1.795794e-09	-2.050989e+00	1.159152e+02
2.520000e-06	-3.913886e-07	1.611735e-09	-2.780413e+00	1.036800e+02
2.530000e-06	-4.938992e-07	1.419839e-09	-3.508646e+00	9.115850e+01
2.540000e-06	-5.961989e-07	1.223919e-09	-4.235380e+00	7.833980e+01
2.550000e-06	-6.981567e-07	1.025047e-09	-4.959686e+00	6.521304e+01
2.560000e-06	-7.998147e-07	8.170181e-10	-5.681861e+00	5.176823e+01
2.570000e-06	-9.011957e-07	6.008255e-10	-6.402069e+00	3.799719e+01
2.580000e-06	-1.002201e-06	3.807844e-10	-7.119605e+00	2.389459e+01
2.590000e-06	-1.102849e-06	1.580581e-10	-7.834605e+00	9.459165e+00
2.600000e-06	-1.203155e-06	-6.547638e-11	-8.547179e+00	-5.305020e+00
2.610000e-06	-1.302987e-06	-2.928602e-10	-9.256385e+00	-2.038733e+01
2.620000e-06	-1.402260e-06	-5.281896e-10	-9.961614e+00	-3.576948e+01
2.630000e-06	-1.501057e-06	-7.686235e-10	-1.066346e+01	-5.142465e+01
2.640000e-06	-1.599407e-06	-1.011255e-09	-1.136214e+01	-6.731710e+01
2.650000e-06	-1.697158e-06	-1.255646e-09	-1.205656e+01	-8.340214e+01
2.660000e-06	-1.794255e-06	-1.502485e-09	-1.274634e+01	-9.962676e+01
2.670000e-06	-1.890818e-06	-1.752043e-09	-1.343231e+01	-1.159308e+02
2.680000e-06	-1.986898e-06	-2.002467e-09	-1.411486e+01	-1.322485e+02
2.690000e-06	-2.082317e-06	-2.251518e-09	-1.479272e+01	-1.485111e+02
2.700000e-06	-2.176796e-06	-2.496714e-09	-1.546390e+01	-1.646487e+02
2.710000e-06	-2.270279e-06	-2.737907e-09	-1.612800e+01	-1.805934e+02
2.720000e-06	-2.362900e-06	-2.975908e-09	-1.678597e+01	-1.962816e+02
2.730000e-06	-2.454665e-06	-3.211056e-09	-1.743787e+01	-2.116563e+02
2.740000e-06	-2.545494e-06	-3.442730e-09	-1.808312e+01	-2.266687e+02
2.750000e-06	-2.635401e-06	-3.668936e-09	-1.872182e+01	-2.412796e+02
2.760000e-06	-2.724441e-06	-3.889070e-09	-1.935435e+01	-2.554598e+02
2.770000e-06	-2.812729e-06	-4.103152e-09	-1.998155e+01	-2.691897e+02
2.780000e-06	-2.900159e-06	-4.309057e-09	-2.060265e+01	-2.824584e+02
2.790000e-06	-2.986382e-06	-4.505261e-09	-2.121517e+01	-2.952625e+02
2.800000e-06	-3.071357e-06	-4.693892e-09	-2.181883e+01	-3.076042e+02
2.810000e-06	-3.155298e-06	-4.873911e-09	-2.241515e+01	-3.194894e+02
2.820000e-06	-3.238244e-06	-5.045686e-09	-2.300439e+01	-3.309261e+02
2.830000e-06	-3.320131e-06	-5.212521e-09	-2.358611e+01	-3.419228e+02
2.840000e-06	-3.400970e-06	-5.372767e-09	-2.416039e+01	-3.524872e+02
2.850000e-06	-3.480629e-06	-5.526852e-09	-2.472629e+01	-3.626261e+02
2.860000e-06	-3.558848e-06	-5.674223e-09	-2.528195e+01	-3.723454e+02
2.870000e-06	-3.635558e-06	-5.815659e-09	-2.582690e+01	-3.816499e+02
2.880000e-06	-3.710813e-06	-5.952526e-09	-2.636151e+01	-3.905448e+02
2.890000e-06	-3.784643e-06	-6.084092e-09	-2.688600e+01	-3.990364e+02
2.900000e-06	-3.857192e-06	-6.211328e-09	-2.740139e+01	-4.071327e+02
2.910000e-06	-3.928360e-06	-6.333351e-09	-2.790696e+01	-4.148447e+02
2.920000e-06	-3.997916e-06	-6.446676e-09	-2.840108e+01	-4.221864e+02
2.930000e-06	-4.065993e-06	-6.552148e-09	-2.888470e+01	-4.291752e+02
2.940000e-06	-4.132693e-06	-6.653560e-09	-2.935854e+01	-4.358309e+02
