# Temperatura_=_51.03
# Concentracion g/m^3_=_15000.0
# C_Vs_to_Am_M_A/Vsm_=_65563218390.804596
# pendiente_HvsI_1/m_=_3716.3
# ordenada_HvsI_A/m_=_1297.0
# frecuencia_Hz_=_301593.29803452047

Tiempo_(s)	Campo_(V.s)	Magnetizacion_(V.s)	Campo_(kA/m)	Magnetizacion_(A/m)
0.000000e+00	-5.429308e-06	-8.530806e-09	-3.833952e+01	-5.567775e+02
1.000000e-08	-5.426560e-06	-8.530083e-09	-3.832012e+01	-5.566304e+02
2.000000e-08	-5.422016e-06	-8.523997e-09	-3.828803e+01	-5.563711e+02
3.000000e-08	-5.415829e-06	-8.517818e-09	-3.824434e+01	-5.559944e+02
4.000000e-08	-5.408056e-06	-8.506558e-09	-3.818945e+01	-5.554963e+02
5.000000e-08	-5.398476e-06	-8.490540e-09	-3.812180e+01	-5.548755e+02
6.000000e-08	-5.386816e-06	-8.472121e-09	-3.803946e+01	-5.541346e+02
7.000000e-08	-5.373198e-06	-8.443589e-09	-3.794330e+01	-5.532797e+02
8.000000e-08	-5.357421e-06	-8.467336e-09	-3.783188e+01	-5.523212e+02
9.000000e-08	-5.339376e-06	-8.525123e-09	-3.770446e+01	-5.512721e+02
1.000000e-07	-5.319337e-06	-8.473403e-09	-3.756295e+01	-5.501475e+02
1.100000e-07	-5.297386e-06	-8.418223e-09	-3.740794e+01	-5.489622e+02
1.200000e-07	-5.273671e-06	-8.368220e-09	-3.724048e+01	-5.477291e+02
1.300000e-07	-5.248387e-06	-8.220186e-09	-3.706193e+01	-5.464577e+02
1.400000e-07	-5.221506e-06	-8.365317e-09	-3.687211e+01	-5.451521e+02
1.500000e-07	-5.193010e-06	-8.433620e-09	-3.667089e+01	-5.438104e+02
1.600000e-07	-5.163037e-06	-8.197857e-09	-3.645922e+01	-5.424243e+02
1.700000e-07	-5.131489e-06	-8.323427e-09	-3.623645e+01	-5.409796e+02
1.800000e-07	-5.097784e-06	-8.262248e-09	-3.599844e+01	-5.394578e+02
1.900000e-07	-5.062222e-06	-8.074224e-09	-3.574732e+01	-5.378371e+02
2.000000e-07	-5.025201e-06	-8.287304e-09	-3.548588e+01	-5.360956e+02
2.100000e-07	-4.986389e-06	-8.208551e-09	-3.521181e+01	-5.342126e+02
2.200000e-07	-4.945698e-06	-8.051251e-09	-3.492447e+01	-5.321713e+02
2.300000e-07	-4.903022e-06	-8.123211e-09	-3.462311e+01	-5.299601e+02
2.400000e-07	-4.858521e-06	-8.042164e-09	-3.430886e+01	-5.275738e+02
2.500000e-07	-4.812288e-06	-8.006555e-09	-3.398238e+01	-5.250134e+02
2.600000e-07	-4.764002e-06	-7.975413e-09	-3.364141e+01	-5.222861e+02
2.700000e-07	-4.713536e-06	-7.897012e-09	-3.328504e+01	-5.194037e+02
2.800000e-07	-4.661063e-06	-7.869518e-09	-3.291449e+01	-5.163807e+02
2.900000e-07	-4.606804e-06	-7.810682e-09	-3.253134e+01	-5.132327e+02
3.000000e-07	-4.551009e-06	-7.781751e-09	-3.213734e+01	-5.099739e+02
3.100000e-07	-4.493474e-06	-7.746787e-09	-3.173105e+01	-5.066158e+02
3.200000e-07	-4.434064e-06	-7.702254e-09	-3.131152e+01	-5.031655e+02
3.300000e-07	-4.373085e-06	-7.610564e-09	-3.088091e+01	-4.996255e+02
3.400000e-07	-4.310664e-06	-7.524867e-09	-3.044012e+01	-4.959932e+02
3.500000e-07	-4.246872e-06	-7.538487e-09	-2.998965e+01	-4.922623e+02
3.600000e-07	-4.181398e-06	-7.472052e-09	-2.952730e+01	-4.884231e+02
3.700000e-07	-4.114214e-06	-7.380879e-09	-2.905288e+01	-4.844649e+02
3.800000e-07	-4.045659e-06	-7.334645e-09	-2.856876e+01	-4.803770e+02
3.900000e-07	-3.975779e-06	-7.254882e-09	-2.807531e+01	-4.761505e+02
4.000000e-07	-3.904658e-06	-7.182693e-09	-2.757308e+01	-4.717791e+02
4.100000e-07	-3.832187e-06	-7.115192e-09	-2.706132e+01	-4.672602e+02
4.200000e-07	-3.758163e-06	-7.072848e-09	-2.653859e+01	-4.625944e+02
4.300000e-07	-3.682594e-06	-6.991345e-09	-2.600495e+01	-4.577855e+02
4.400000e-07	-3.605537e-06	-6.893943e-09	-2.546081e+01	-4.528393e+02
4.500000e-07	-3.526986e-06	-6.818399e-09	-2.490611e+01	-4.477627e+02
4.600000e-07	-3.446983e-06	-6.752110e-09	-2.434117e+01	-4.425621e+02
4.700000e-07	-3.365702e-06	-6.682018e-09	-2.376719e+01	-4.372425e+02
4.800000e-07	-3.283283e-06	-6.579797e-09	-2.318518e+01	-4.318064e+02
4.900000e-07	-3.199852e-06	-6.499000e-09	-2.259603e+01	-4.262535e+02
5.000000e-07	-3.115399e-06	-6.420736e-09	-2.199966e+01	-4.205806e+02
5.100000e-07	-3.029955e-06	-6.327137e-09	-2.139629e+01	-4.147821e+02
5.200000e-07	-2.943572e-06	-6.231405e-09	-2.078628e+01	-4.088506e+02
5.300000e-07	-2.856234e-06	-6.136738e-09	-2.016954e+01	-4.027780e+02
5.400000e-07	-2.767857e-06	-6.035617e-09	-1.954546e+01	-3.965567e+02
5.500000e-07	-2.678322e-06	-5.930309e-09	-1.891320e+01	-3.901804e+02
5.600000e-07	-2.587617e-06	-5.832162e-09	-1.827268e+01	-3.836446e+02
5.700000e-07	-2.495888e-06	-5.738645e-09	-1.762493e+01	-3.769476e+02
5.800000e-07	-2.403354e-06	-5.638312e-09	-1.697149e+01	-3.700896e+02
5.900000e-07	-2.310048e-06	-5.527887e-09	-1.631260e+01	-3.630729e+02
6.000000e-07	-2.215932e-06	-5.415817e-09	-1.564800e+01	-3.559008e+02
6.100000e-07	-2.121077e-06	-5.302725e-09	-1.497817e+01	-3.485766e+02
6.200000e-07	-2.025551e-06	-5.188829e-09	-1.430360e+01	-3.411029e+02
6.300000e-07	-1.929245e-06	-5.070011e-09	-1.362353e+01	-3.334805e+02
6.400000e-07	-1.832016e-06	-4.948578e-09	-1.293694e+01	-3.257079e+02
6.500000e-07	-1.733934e-06	-4.824616e-09	-1.224432e+01	-3.177806e+02
6.600000e-07	-1.635155e-06	-4.695781e-09	-1.154679e+01	-3.096920e+02
6.700000e-07	-1.535849e-06	-4.567711e-09	-1.084553e+01	-3.014327e+02
6.800000e-07	-1.436095e-06	-4.443628e-09	-1.014111e+01	-2.929922e+02
6.900000e-07	-1.335886e-06	-4.315754e-09	-9.433474e+00	-2.843592e+02
7.000000e-07	-1.235218e-06	-4.180105e-09	-8.722596e+00	-2.755227e+02
7.100000e-07	-1.134175e-06	-4.039393e-09	-8.009076e+00	-2.664728e+02
7.200000e-07	-1.032763e-06	-3.893301e-09	-7.292944e+00	-2.572013e+02
7.300000e-07	-9.310407e-07	-3.746610e-09	-6.574623e+00	-2.477021e+02
7.400000e-07	-8.290553e-07	-3.595225e-09	-5.854445e+00	-2.379716e+02
7.500000e-07	-7.267270e-07	-3.439696e-09	-5.131845e+00	-2.280077e+02
7.600000e-07	-6.241365e-07	-3.280178e-09	-4.407394e+00	-2.178099e+02
7.700000e-07	-5.213492e-07	-3.118964e-09	-3.681552e+00	-2.073783e+02
7.800000e-07	-4.184668e-07	-2.960703e-09	-2.955039e+00	-1.967131e+02
7.900000e-07	-3.154911e-07	-2.797102e-09	-2.227867e+00	-1.858134e+02
8.000000e-07	-2.123636e-07	-2.624951e-09	-1.499623e+00	-1.746769e+02
8.100000e-07	-1.091519e-07	-2.447441e-09	-7.707857e-01	-1.632993e+02
8.200000e-07	-5.929056e-09	-2.268210e-09	-4.186853e-02	-1.516740e+02
8.300000e-07	9.731832e-08	-2.086494e-09	6.872216e-01	-1.397921e+02
8.400000e-07	2.005917e-07	-1.900621e-09	1.416495e+00	-1.276427e+02
8.500000e-07	3.038142e-07	-1.709819e-09	2.145410e+00	-1.152128e+02
8.600000e-07	4.069590e-07	-1.515527e-09	2.873776e+00	-1.024886e+02
8.700000e-07	5.100200e-07	-1.316583e-09	3.601550e+00	-8.945546e+01
8.800000e-07	6.129657e-07	-1.113514e-09	4.328510e+00	-7.609896e+01
8.900000e-07	7.157866e-07	-9.066642e-10	5.054588e+00	-6.240580e+01
9.000000e-07	8.183703e-07	-6.932662e-10	5.778992e+00	-4.836463e+01
9.100000e-07	9.206013e-07	-4.758180e-10	6.500905e+00	-3.396712e+01
9.200000e-07	1.022505e-06	-2.528687e-10	7.220504e+00	-1.920909e+01
9.300000e-07	1.124001e-06	-2.528416e-11	7.937227e+00	-4.091614e+00
9.400000e-07	1.225099e-06	2.083709e-10	8.651139e+00	1.137775e+01
9.500000e-07	1.325797e-06	4.486461e-10	9.362232e+00	2.718388e+01
9.600000e-07	1.425988e-06	6.939705e-10	1.006973e+01	4.330313e+01
9.700000e-07	1.525749e-06	9.462650e-10	1.077420e+01	5.970265e+01
9.800000e-07	1.625057e-06	1.202525e-09	1.147548e+01	7.634011e+01
9.900000e-07	1.723744e-06	1.459457e-09	1.217236e+01	9.316390e+01
1.000000e-06	1.821642e-06	1.714285e-09	1.286368e+01	1.101139e+02
1.010000e-06	1.918602e-06	1.970294e-09	1.354837e+01	1.271231e+02
1.020000e-06	2.014680e-06	2.228297e-09	1.422684e+01	1.441192e+02
1.030000e-06	2.110032e-06	2.486639e-09	1.490017e+01	1.610274e+02
1.040000e-06	2.204634e-06	2.743601e-09	1.556821e+01	1.777731e+02
1.050000e-06	2.298477e-06	2.994797e-09	1.623090e+01	1.942849e+02
1.060000e-06	2.391592e-06	3.240587e-09	1.688843e+01	2.104971e+02
1.070000e-06	2.483919e-06	3.480667e-09	1.754040e+01	2.263525e+02
1.080000e-06	2.575499e-06	3.715349e-09	1.818711e+01	2.418040e+02
1.090000e-06	2.666283e-06	3.942179e-09	1.882819e+01	2.568156e+02
1.100000e-06	2.755933e-06	4.161660e-09	1.946125e+01	2.713628e+02
1.110000e-06	2.844297e-06	4.374045e-09	2.008525e+01	2.854318e+02
1.120000e-06	2.931663e-06	4.579927e-09	2.070219e+01	2.990180e+02
1.130000e-06	3.018181e-06	4.781421e-09	2.131315e+01	3.121246e+02
1.140000e-06	3.103768e-06	4.976047e-09	2.191752e+01	3.247594e+02
1.150000e-06	3.188338e-06	5.162250e-09	2.251472e+01	3.369331e+02
1.160000e-06	3.271913e-06	5.340575e-09	2.310489e+01	3.486569e+02
1.170000e-06	3.354440e-06	5.513836e-09	2.368767e+01	3.599409e+02
1.180000e-06	3.435680e-06	5.680359e-09	2.426134e+01	3.707926e+02
1.190000e-06	3.515610e-06	5.839187e-09	2.482578e+01	3.812171e+02
1.200000e-06	3.594257e-06	5.991019e-09	2.538115e+01	3.912170e+02
1.210000e-06	3.671635e-06	6.137731e-09	2.592757e+01	4.007935e+02
1.220000e-06	3.747761e-06	6.277179e-09	2.646513e+01	4.099476e+02
1.230000e-06	3.822507e-06	6.410397e-09	2.699296e+01	4.186818e+02
1.240000e-06	3.895538e-06	6.539015e-09	2.750867e+01	4.270012e+02
1.250000e-06	3.966954e-06	6.661515e-09	2.801299e+01	4.349148e+02
1.260000e-06	4.037046e-06	6.775284e-09	2.850794e+01	4.424362e+02
1.270000e-06	4.105791e-06	6.882343e-09	2.899339e+01	4.495833e+02
1.280000e-06	4.173199e-06	6.985254e-09	2.946940e+01	4.563780e+02
1.290000e-06	4.238961e-06	7.080787e-09	2.993379e+01	4.628450e+02
1.300000e-06	4.303010e-06	7.171961e-09	3.038608e+01	4.690098e+02
1.310000e-06	4.365547e-06	7.261010e-09	3.082768e+01	4.748978e+02
1.320000e-06	4.426635e-06	7.348502e-09	3.125906e+01	4.805317e+02
1.330000e-06	4.486357e-06	7.433277e-09	3.168079e+01	4.859305e+02
1.340000e-06	4.544491e-06	7.514939e-09	3.209132e+01	4.911089e+02
1.350000e-06	4.600827e-06	7.592769e-09	3.248913e+01	4.960761e+02
1.360000e-06	4.655478e-06	7.663728e-09	3.287506e+01	5.008366e+02
1.370000e-06	4.708456e-06	7.729823e-09	3.324916e+01	5.053908e+02
1.380000e-06	4.759452e-06	7.793815e-09	3.360928e+01	5.097361e+02
1.390000e-06	4.808350e-06	7.856658e-09	3.395457e+01	5.138684e+02
1.400000e-06	4.855459e-06	7.916443e-09	3.428724e+01	5.177836e+02
1.410000e-06	4.900959e-06	7.971200e-09	3.460854e+01	5.214790e+02
1.420000e-06	4.944891e-06	8.022286e-09	3.491877e+01	5.249541e+02
1.430000e-06	4.987050e-06	8.071419e-09	3.521648e+01	5.282111e+02
1.440000e-06	5.027283e-06	8.119262e-09	3.550059e+01	5.312553e+02
1.450000e-06	5.065798e-06	8.164025e-09	3.577257e+01	5.340942e+02
1.460000e-06	5.102720e-06	8.203890e-09	3.603329e+01	5.367372e+02
1.470000e-06	5.138031e-06	8.237068e-09	3.628264e+01	5.391944e+02
1.480000e-06	5.171394e-06	8.266487e-09	3.651824e+01	5.414756e+02
1.490000e-06	5.202776e-06	8.294651e-09	3.673985e+01	5.435896e+02
1.500000e-06	5.232437e-06	8.320552e-09	3.694930e+01	5.455437e+02
1.510000e-06	5.260420e-06	8.346038e-09	3.714690e+01	5.473432e+02
1.520000e-06	5.286440e-06	8.370481e-09	3.733065e+01	5.489917e+02
1.530000e-06	5.310322e-06	8.393710e-09	3.749930e+01	5.504918e+02
1.540000e-06	5.332331e-06	8.414111e-09	3.765471e+01	5.518452e+02
1.550000e-06	5.352634e-06	8.430396e-09	3.779808e+01	5.530540e+02
1.560000e-06	5.371143e-06	8.444524e-09	3.792878e+01	5.541211e+02
1.570000e-06	5.387613e-06	8.456956e-09	3.804509e+01	5.550506e+02
1.580000e-06	5.402037e-06	8.467531e-09	3.814695e+01	5.558480e+02
1.590000e-06	5.414472e-06	8.476361e-09	3.823476e+01	5.565201e+02
1.600000e-06	5.424710e-06	8.484924e-09	3.830705e+01	5.570741e+02
1.610000e-06	5.432785e-06	8.494146e-09	3.836408e+01	5.575171e+02
1.620000e-06	5.438980e-06	8.502494e-09	3.840782e+01	5.578552e+02
1.630000e-06	5.443407e-06	8.509284e-09	3.843908e+01	5.580928e+02
1.640000e-06	5.445911e-06	8.513166e-09	3.845677e+01	5.582317e+02
1.650000e-06	5.446369e-06	8.515413e-09	3.846000e+01	5.582711e+02
1.660000e-06	5.444981e-06	8.509775e-09	3.845020e+01	5.582078e+02
1.670000e-06	5.441912e-06	8.503835e-09	3.842853e+01	5.580370e+02
1.680000e-06	5.437076e-06	8.500133e-09	3.839437e+01	5.577528e+02
1.690000e-06	5.430317e-06	8.494390e-09	3.834665e+01	5.573502e+02
1.700000e-06	5.421803e-06	8.489103e-09	3.828653e+01	5.568256e+02
1.710000e-06	5.411723e-06	8.485253e-09	3.821534e+01	5.561786e+02
1.720000e-06	5.399917e-06	8.495437e-09	3.813198e+01	5.554124e+02
1.730000e-06	5.386111e-06	8.477523e-09	3.803449e+01	5.545342e+02
1.740000e-06	5.370257e-06	8.365071e-09	3.792253e+01	5.535549e+02
1.750000e-06	5.352048e-06	8.368018e-09	3.779394e+01	5.524882e+02
1.760000e-06	5.331035e-06	8.383507e-09	3.764556e+01	5.513492e+02
1.770000e-06	5.307711e-06	8.407873e-09	3.748086e+01	5.501525e+02
1.780000e-06	5.283129e-06	8.527549e-09	3.730727e+01	5.489104e+02
1.790000e-06	5.257855e-06	8.288947e-09	3.712879e+01	5.476314e+02
1.800000e-06	5.231208e-06	8.260918e-09	3.694062e+01	5.463183e+02
1.810000e-06	5.202252e-06	8.415836e-09	3.673615e+01	5.449678e+02
1.820000e-06	5.171392e-06	8.182639e-09	3.651823e+01	5.435703e+02
1.830000e-06	5.138919e-06	8.314984e-09	3.628891e+01	5.421107e+02
1.840000e-06	5.104499e-06	8.377060e-09	3.604586e+01	5.405694e+02
1.850000e-06	5.068454e-06	8.052362e-09	3.579132e+01	5.389245e+02
1.860000e-06	5.030588e-06	8.213168e-09	3.552393e+01	5.371541e+02
1.870000e-06	4.990795e-06	8.199652e-09	3.524292e+01	5.352383e+02
1.880000e-06	4.949382e-06	8.016712e-09	3.495048e+01	5.331612e+02
1.890000e-06	4.906148e-06	8.142992e-09	3.464518e+01	5.309125e+02
1.900000e-06	4.861266e-06	7.992491e-09	3.432825e+01	5.284884e+02
1.910000e-06	4.814561e-06	8.011796e-09	3.399843e+01	5.258914e+02
1.920000e-06	4.765789e-06	7.995491e-09	3.365403e+01	5.231296e+02
1.930000e-06	4.715370e-06	7.817940e-09	3.329799e+01	5.202155e+02
1.940000e-06	4.663116e-06	7.949929e-09	3.292899e+01	5.171643e+02
1.950000e-06	4.608742e-06	7.822247e-09	3.254502e+01	5.139912e+02
1.960000e-06	4.552467e-06	7.718024e-09	3.214764e+01	5.107102e+02
1.970000e-06	4.494501e-06	7.705452e-09	3.173831e+01	5.073317e+02
1.980000e-06	4.435162e-06	7.652973e-09	3.131928e+01	5.038620e+02
1.990000e-06	4.374233e-06	7.683349e-09	3.088902e+01	5.003024e+02
2.000000e-06	4.311491e-06	7.489888e-09	3.044596e+01	4.966496e+02
2.010000e-06	4.247236e-06	7.494890e-09	2.999222e+01	4.928961e+02
2.020000e-06	4.181535e-06	7.470926e-09	2.952826e+01	4.890322e+02
2.030000e-06	4.114405e-06	7.312786e-09	2.905422e+01	4.850469e+02
2.040000e-06	4.045772e-06	7.332744e-09	2.856956e+01	4.809298e+02
2.050000e-06	3.975513e-06	7.262430e-09	2.807343e+01	4.766725e+02
2.060000e-06	3.903757e-06	7.209198e-09	2.756672e+01	4.722695e+02
2.070000e-06	3.830731e-06	7.074555e-09	2.705104e+01	4.677187e+02
2.080000e-06	3.756433e-06	6.996912e-09	2.652637e+01	4.630217e+02
2.090000e-06	3.680731e-06	6.999795e-09	2.599179e+01	4.581827e+02
2.100000e-06	3.603475e-06	6.898436e-09	2.544625e+01	4.532078e+02
2.110000e-06	3.524617e-06	6.818468e-09	2.488939e+01	4.481040e+02
2.120000e-06	3.444521e-06	6.719679e-09	2.432378e+01	4.428774e+02
2.130000e-06	3.363326e-06	6.665584e-09	2.375042e+01	4.375325e+02
2.140000e-06	3.280934e-06	6.562648e-09	2.316859e+01	4.320713e+02
2.150000e-06	3.197479e-06	6.468009e-09	2.257927e+01	4.264929e+02
2.160000e-06	3.112972e-06	6.411420e-09	2.198251e+01	4.207936e+02
2.170000e-06	3.027178e-06	6.311676e-09	2.137668e+01	4.149670e+02
2.180000e-06	2.940094e-06	6.218972e-09	2.076173e+01	4.090058e+02
2.190000e-06	2.851967e-06	6.118910e-09	2.013941e+01	4.029018e+02
2.200000e-06	2.762900e-06	6.048540e-09	1.951046e+01	3.966476e+02
2.210000e-06	2.672897e-06	5.950842e-09	1.887489e+01	3.902372e+02
2.220000e-06	2.581978e-06	5.831212e-09	1.823286e+01	3.836668e+02
2.230000e-06	2.490254e-06	5.722124e-09	1.758514e+01	3.769351e+02
2.240000e-06	2.397697e-06	5.623018e-09	1.693154e+01	3.700427e+02
2.250000e-06	2.304102e-06	5.527281e-09	1.627061e+01	3.629922e+02
2.260000e-06	2.209541e-06	5.414945e-09	1.560286e+01	3.557870e+02
2.270000e-06	2.114115e-06	5.300743e-09	1.492900e+01	3.484305e+02
2.280000e-06	2.017886e-06	5.183800e-09	1.424947e+01	3.409248e+02
2.290000e-06	1.920933e-06	5.069364e-09	1.356484e+01	3.332703e+02
2.300000e-06	1.823447e-06	4.954538e-09	1.287642e+01	3.254648e+02
2.310000e-06	1.725486e-06	4.843715e-09	1.218467e+01	3.175035e+02
2.320000e-06	1.626890e-06	4.720867e-09	1.148842e+01	3.093789e+02
2.330000e-06	1.527735e-06	4.584650e-09	1.078823e+01	3.010816e+02
2.340000e-06	1.428155e-06	4.448670e-09	1.008504e+01	2.926006e+02
2.350000e-06	1.328197e-06	4.315201e-09	9.379175e+00	2.839248e+02
2.360000e-06	1.227906e-06	4.186654e-09	8.670962e+00	2.750431e+02
2.370000e-06	1.127260e-06	4.053019e-09	7.960242e+00	2.659462e+02
2.380000e-06	1.026135e-06	3.909446e-09	7.246138e+00	2.566261e+02
2.390000e-06	9.244632e-07	3.763896e-09	6.528176e+00	2.470775e+02
2.400000e-06	8.222755e-07	3.621920e-09	5.806569e+00	2.372969e+02
2.410000e-06	7.196981e-07	3.475863e-09	5.082210e+00	2.272828e+02
2.420000e-06	6.168663e-07	3.319522e-09	4.356054e+00	2.170347e+02
2.430000e-06	5.138298e-07	3.154913e-09	3.628453e+00	2.065529e+02
2.440000e-06	4.106127e-07	2.991427e-09	2.899576e+00	1.958374e+02
2.450000e-06	3.072377e-07	2.827035e-09	2.169585e+00	1.848870e+02
2.460000e-06	2.037149e-07	2.659498e-09	1.438550e+00	1.736991e+02
2.470000e-06	1.000971e-07	2.491949e-09	7.068439e-01	1.622689e+02
2.480000e-06	-3.536695e-09	2.315679e-09	-2.497468e-02	1.505893e+02
2.490000e-06	-1.071612e-07	2.128563e-09	-7.567279e-01	1.386509e+02
2.500000e-06	-2.107510e-07	1.939314e-09	-1.488236e+00	1.264424e+02
2.510000e-06	-3.142669e-07	1.753151e-09	-2.219223e+00	1.139505e+02
2.520000e-06	-4.177112e-07	1.563645e-09	-2.949704e+00	1.011612e+02
2.530000e-06	-5.210700e-07	1.362846e-09	-3.679580e+00	8.805973e+01
2.540000e-06	-6.242999e-07	1.155545e-09	-4.408547e+00	7.463200e+01
2.550000e-06	-7.272667e-07	9.448364e-10	-5.135656e+00	6.086497e+01
2.560000e-06	-8.298505e-07	7.266516e-10	-5.860060e+00	4.674786e+01
2.570000e-06	-9.320633e-07	5.043857e-10	-6.581844e+00	3.227313e+01
2.580000e-06	-1.033765e-06	2.789711e-10	-7.300023e+00	1.743761e+01
2.590000e-06	-1.134815e-06	4.688709e-11	-8.013592e+00	2.243696e+00
2.600000e-06	-1.235347e-06	-1.918912e-10	-8.723510e+00	-1.329954e+01
2.610000e-06	-1.335485e-06	-4.331530e-10	-9.430644e+00	-2.917523e+01
2.620000e-06	-1.435190e-06	-6.779361e-10	-1.013471e+01	-4.535779e+01
2.630000e-06	-1.534464e-06	-9.298047e-10	-1.083575e+01	-6.181234e+01
2.640000e-06	-1.633251e-06	-1.187616e-09	-1.153334e+01	-7.849454e+01
2.650000e-06	-1.731396e-06	-1.447253e-09	-1.222640e+01	-9.535087e+01
2.660000e-06	-1.828891e-06	-1.705387e-09	-1.291487e+01	-1.123196e+02
2.670000e-06	-1.925788e-06	-1.963777e-09	-1.359912e+01	-1.293323e+02
2.680000e-06	-2.022075e-06	-2.220842e-09	-1.427905e+01	-1.463161e+02
2.690000e-06	-2.117797e-06	-2.479085e-09	-1.495501e+01	-1.631958e+02
2.700000e-06	-2.212872e-06	-2.737455e-09	-1.562638e+01	-1.798974e+02
2.710000e-06	-2.307025e-06	-2.990797e-09	-1.629125e+01	-1.963505e+02
2.720000e-06	-2.400042e-06	-3.237117e-09	-1.694810e+01	-2.124909e+02
2.730000e-06	-2.492035e-06	-3.476182e-09	-1.759772e+01	-2.282635e+02
2.740000e-06	-2.583239e-06	-3.710893e-09	-1.824176e+01	-2.436235e+02
2.750000e-06	-2.673513e-06	-3.940437e-09	-1.887924e+01	-2.585375e+02
2.760000e-06	-2.762766e-06	-4.163867e-09	-1.950951e+01	-2.729832e+02
2.770000e-06	-2.851136e-06	-4.380065e-09	-2.013354e+01	-2.869489e+02
2.780000e-06	-2.938743e-06	-4.587196e-09	-2.075219e+01	-3.004321e+02
2.790000e-06	-3.025434e-06	-4.786417e-09	-2.136436e+01	-3.134369e+02
2.800000e-06	-3.110821e-06	-4.980242e-09	-2.196733e+01	-3.259721e+02
2.810000e-06	-3.194932e-06	-5.165836e-09	-2.256128e+01	-3.380487e+02
2.820000e-06	-3.278013e-06	-5.340952e-09	-2.314797e+01	-3.496776e+02
2.830000e-06	-3.360072e-06	-5.509735e-09	-2.372744e+01	-3.608686e+02
2.840000e-06	-3.440997e-06	-5.673650e-09	-2.429890e+01	-3.716286e+02
2.850000e-06	-3.520776e-06	-5.830471e-09	-2.486226e+01	-3.819621e+02
2.860000e-06	-3.599176e-06	-5.979520e-09	-2.541589e+01	-3.918713e+02
2.870000e-06	-3.676017e-06	-6.123255e-09	-2.595851e+01	-4.013574e+02
2.880000e-06	-3.751386e-06	-6.261555e-09	-2.649073e+01	-4.104214e+02
2.890000e-06	-3.825315e-06	-6.393443e-09	-2.701279e+01	-4.190663e+02
2.900000e-06	-3.897851e-06	-6.522601e-09	-2.752501e+01	-4.272980e+02
2.910000e-06	-3.969061e-06	-6.648748e-09	-2.802787e+01	-4.351264e+02
2.920000e-06	-4.038753e-06	-6.765791e-09	-2.852000e+01	-4.425661e+02
2.930000e-06	-4.106811e-06	-6.873852e-09	-2.900060e+01	-4.496359e+02
2.940000e-06	-4.173453e-06	-6.976287e-09	-2.947120e+01	-4.563584e+02
