# Temperatura_=_74.1
# Concentracion g/m^3_=_15000.0
# C_Vs_to_Am_M_A/Vsm_=_65563218390.804596
# pendiente_HvsI_1/m_=_3716.3
# ordenada_HvsI_A/m_=_1297.0
# frecuencia_Hz_=_301602.09262096306

Tiempo_(s)	Campo_(V.s)	Magnetizacion_(V.s)	Campo_(kA/m)	Magnetizacion_(A/m)
0.000000e+00	-5.409421e-06	-9.380316e-09	-3.833773e+01	-6.122238e+02
1.000000e-08	-5.406981e-06	-9.378540e-09	-3.832043e+01	-6.119716e+02
2.000000e-08	-5.402678e-06	-9.372588e-09	-3.828994e+01	-6.115812e+02
3.000000e-08	-5.396695e-06	-9.366695e-09	-3.824754e+01	-6.110500e+02
4.000000e-08	-5.389164e-06	-9.356806e-09	-3.819416e+01	-6.103780e+02
5.000000e-08	-5.379883e-06	-9.339781e-09	-3.812839e+01	-6.095684e+02
6.000000e-08	-5.368470e-06	-9.319403e-09	-3.804750e+01	-6.086279e+02
7.000000e-08	-5.355089e-06	-9.296916e-09	-3.795267e+01	-6.075666e+02
8.000000e-08	-5.339708e-06	-9.292871e-09	-3.784366e+01	-6.063975e+02
9.000000e-08	-5.322081e-06	-9.325336e-09	-3.771873e+01	-6.051353e+02
1.000000e-07	-5.302376e-06	-9.299914e-09	-3.757908e+01	-6.037947e+02
1.100000e-07	-5.280743e-06	-9.239932e-09	-3.742576e+01	-6.023893e+02
1.200000e-07	-5.257326e-06	-9.192783e-09	-3.725980e+01	-6.009295e+02
1.300000e-07	-5.232395e-06	-9.099490e-09	-3.708310e+01	-5.994214e+02
1.400000e-07	-5.205889e-06	-9.132322e-09	-3.689525e+01	-5.978656e+02
1.500000e-07	-5.177721e-06	-9.201214e-09	-3.669562e+01	-5.962570e+02
1.600000e-07	-5.148106e-06	-9.056060e-09	-3.648573e+01	-5.945846e+02
1.700000e-07	-5.116973e-06	-9.072727e-09	-3.626509e+01	-5.928329e+02
1.800000e-07	-5.083741e-06	-9.074003e-09	-3.602956e+01	-5.909825e+02
1.900000e-07	-5.048497e-06	-8.903119e-09	-3.577978e+01	-5.890127e+02
2.000000e-07	-5.011769e-06	-8.968385e-09	-3.551948e+01	-5.869028e+02
2.100000e-07	-4.973326e-06	-8.947976e-09	-3.524703e+01	-5.846343e+02
2.200000e-07	-4.933052e-06	-8.801975e-09	-3.496160e+01	-5.821926e+02
2.300000e-07	-4.890867e-06	-8.831888e-09	-3.466262e+01	-5.795683e+02
2.400000e-07	-4.846754e-06	-8.813032e-09	-3.434999e+01	-5.767575e+02
2.500000e-07	-4.800852e-06	-8.738295e-09	-3.402467e+01	-5.737622e+02
2.600000e-07	-4.753033e-06	-8.704765e-09	-3.368576e+01	-5.705897e+02
2.700000e-07	-4.703114e-06	-8.621840e-09	-3.333198e+01	-5.672510e+02
2.800000e-07	-4.651100e-06	-8.569384e-09	-3.296334e+01	-5.637595e+02
2.900000e-07	-4.597227e-06	-8.513499e-09	-3.258153e+01	-5.601294e+02
3.000000e-07	-4.541698e-06	-8.463379e-09	-3.218799e+01	-5.563740e+02
3.100000e-07	-4.484530e-06	-8.424470e-09	-3.178283e+01	-5.525038e+02
3.200000e-07	-4.425582e-06	-8.362547e-09	-3.136505e+01	-5.485259e+02
3.300000e-07	-4.364981e-06	-8.286257e-09	-3.093556e+01	-5.444434e+02
3.400000e-07	-4.302950e-06	-8.204520e-09	-3.049593e+01	-5.402552e+02
3.500000e-07	-4.239575e-06	-8.172576e-09	-3.004678e+01	-5.359563e+02
3.600000e-07	-4.174641e-06	-8.105065e-09	-2.958658e+01	-5.315393e+02
3.700000e-07	-4.107954e-06	-8.003400e-09	-2.911395e+01	-5.269949e+02
3.800000e-07	-4.039774e-06	-7.944085e-09	-2.863075e+01	-5.223137e+02
3.900000e-07	-3.970237e-06	-7.874237e-09	-2.813792e+01	-5.174868e+02
4.000000e-07	-3.899400e-06	-7.790184e-09	-2.763589e+01	-5.125072e+02
4.100000e-07	-3.827301e-06	-7.713678e-09	-2.712491e+01	-5.073704e+02
4.200000e-07	-3.753752e-06	-7.644541e-09	-2.660365e+01	-5.020743e+02
4.300000e-07	-3.678647e-06	-7.560817e-09	-2.607136e+01	-4.966195e+02
4.400000e-07	-3.602031e-06	-7.462963e-09	-2.552837e+01	-4.910083e+02
4.500000e-07	-3.523980e-06	-7.380901e-09	-2.497521e+01	-4.852446e+02
4.600000e-07	-3.444489e-06	-7.302019e-09	-2.441183e+01	-4.793325e+02
4.700000e-07	-3.363659e-06	-7.208241e-09	-2.383897e+01	-4.732758e+02
4.800000e-07	-3.281685e-06	-7.101647e-09	-2.325800e+01	-4.670774e+02
4.900000e-07	-3.198592e-06	-7.005925e-09	-2.266911e+01	-4.607386e+02
5.000000e-07	-3.114443e-06	-6.918058e-09	-2.207272e+01	-4.542588e+02
5.100000e-07	-3.029317e-06	-6.811239e-09	-2.146942e+01	-4.476361e+02
5.200000e-07	-2.943242e-06	-6.702019e-09	-2.085938e+01	-4.408668e+02
5.300000e-07	-2.856228e-06	-6.598052e-09	-2.024270e+01	-4.339465e+02
5.400000e-07	-2.768278e-06	-6.490690e-09	-1.961938e+01	-4.268705e+02
5.500000e-07	-2.679353e-06	-6.380343e-09	-1.898915e+01	-4.196338e+02
5.600000e-07	-2.589272e-06	-6.267993e-09	-1.835073e+01	-4.122325e+02
5.700000e-07	-2.498059e-06	-6.155340e-09	-1.770428e+01	-4.046630e+02
5.800000e-07	-2.405952e-06	-6.032883e-09	-1.705149e+01	-3.969228e+02
5.900000e-07	-2.313069e-06	-5.907513e-09	-1.639322e+01	-3.890103e+02
6.000000e-07	-2.219388e-06	-5.783920e-09	-1.572928e+01	-3.809242e+02
6.100000e-07	-2.124904e-06	-5.660173e-09	-1.505965e+01	-3.726637e+02
6.200000e-07	-2.029700e-06	-5.532563e-09	-1.438492e+01	-3.642276e+02
6.300000e-07	-1.933727e-06	-5.400871e-09	-1.370474e+01	-3.556141e+02
6.400000e-07	-1.836939e-06	-5.267202e-09	-1.301878e+01	-3.468208e+02
6.500000e-07	-1.739426e-06	-5.129290e-09	-1.232768e+01	-3.378443e+02
6.600000e-07	-1.641225e-06	-4.986761e-09	-1.163171e+01	-3.286803e+02
6.700000e-07	-1.542318e-06	-4.839822e-09	-1.093074e+01	-3.193236e+02
6.800000e-07	-1.442831e-06	-4.692779e-09	-1.022565e+01	-3.097686e+02
6.900000e-07	-1.342941e-06	-4.542901e-09	-9.517711e+00	-3.000097e+02
7.000000e-07	-1.242708e-06	-4.392264e-09	-8.807342e+00	-2.900412e+02
7.100000e-07	-1.142157e-06	-4.238904e-09	-8.094715e+00	-2.798581e+02
7.200000e-07	-1.041242e-06	-4.078144e-09	-7.379508e+00	-2.694559e+02
7.300000e-07	-9.399846e-07	-3.911758e-09	-6.661872e+00	-2.588311e+02
7.400000e-07	-8.384077e-07	-3.741789e-09	-5.941975e+00	-2.479809e+02
7.500000e-07	-7.364922e-07	-3.571010e-09	-5.219678e+00	-2.369030e+02
7.600000e-07	-6.343038e-07	-3.396515e-09	-4.495447e+00	-2.255957e+02
7.700000e-07	-5.318983e-07	-3.217653e-09	-3.769678e+00	-2.140571e+02
7.800000e-07	-4.293369e-07	-3.036908e-09	-3.042802e+00	-2.022847e+02
7.900000e-07	-3.267065e-07	-2.854384e-09	-2.315439e+00	-1.902754e+02
8.000000e-07	-2.239938e-07	-2.666728e-09	-1.587492e+00	-1.780248e+02
8.100000e-07	-1.211361e-07	-2.475174e-09	-8.585179e-01	-1.655268e+02
8.200000e-07	-1.819971e-08	-2.282120e-09	-1.289852e-01	-1.527735e+02
8.300000e-07	8.473235e-08	-2.085689e-09	6.005163e-01	-1.397549e+02
8.400000e-07	1.876471e-07	-1.885664e-09	1.329895e+00	-1.264591e+02
8.500000e-07	2.905209e-07	-1.680104e-09	2.058984e+00	-1.128720e+02
8.600000e-07	3.933068e-07	-1.469336e-09	2.787449e+00	-9.897831e+01
8.700000e-07	4.959802e-07	-1.250471e-09	3.515118e+00	-8.476140e+01
8.800000e-07	5.985381e-07	-1.024504e-09	4.241968e+00	-7.020446e+01
8.900000e-07	7.009450e-07	-7.943262e-10	4.967747e+00	-5.529140e+01
9.000000e-07	8.031327e-07	-5.600723e-10	5.691974e+00	-4.000807e+01
9.100000e-07	9.050527e-07	-3.220834e-10	6.414303e+00	-2.434371e+01
9.200000e-07	1.006641e-06	-7.946032e-11	7.134278e+00	-8.292568e+00
9.300000e-07	1.107835e-06	1.699798e-10	7.851461e+00	8.144510e+00
9.400000e-07	1.208613e-06	4.268120e-10	8.565696e+00	2.495845e+01
9.500000e-07	1.308962e-06	6.866469e-10	9.276894e+00	4.213061e+01
9.600000e-07	1.408953e-06	9.495848e-10	9.985549e+00	5.963169e+01
9.700000e-07	1.508549e-06	1.217487e-09	1.069141e+01	7.742125e+01
9.800000e-07	1.607549e-06	1.490380e-09	1.139304e+01	9.544770e+01
9.900000e-07	1.705778e-06	1.765749e-09	1.208922e+01	1.136491e+02
1.000000e-06	1.803220e-06	2.041134e-09	1.277981e+01	1.319546e+02
1.010000e-06	1.899922e-06	2.317395e-09	1.346515e+01	1.502865e+02
1.020000e-06	1.995892e-06	2.594682e-09	1.414531e+01	1.685632e+02
1.030000e-06	2.091070e-06	2.871566e-09	1.481986e+01	1.867018e+02
1.040000e-06	2.185494e-06	3.144444e-09	1.548906e+01	2.046218e+02
1.050000e-06	2.279167e-06	3.409469e-09	1.615295e+01	2.222482e+02
1.060000e-06	2.372029e-06	3.667965e-09	1.681108e+01	2.395140e+02
1.070000e-06	2.464216e-06	3.922071e-09	1.746443e+01	2.563628e+02
1.080000e-06	2.555779e-06	4.171685e-09	1.811335e+01	2.727502e+02
1.090000e-06	2.646367e-06	4.415216e-09	1.875537e+01	2.886444e+02
1.100000e-06	2.735699e-06	4.651132e-09	1.938848e+01	3.040262e+02
1.110000e-06	2.823947e-06	4.875187e-09	2.001392e+01	3.188872e+02
1.120000e-06	2.911222e-06	5.089591e-09	2.063245e+01	3.332290e+02
1.130000e-06	2.997551e-06	5.297973e-09	2.124429e+01	3.470600e+02
1.140000e-06	3.082911e-06	5.502170e-09	2.184925e+01	3.603937e+02
1.150000e-06	3.167327e-06	5.698837e-09	2.244752e+01	3.732455e+02
1.160000e-06	3.250812e-06	5.886702e-09	2.303920e+01	3.856312e+02
1.170000e-06	3.333149e-06	6.068870e-09	2.362274e+01	3.975646e+02
1.180000e-06	3.414200e-06	6.244127e-09	2.419717e+01	4.090573e+02
1.190000e-06	3.494018e-06	6.412400e-09	2.476285e+01	4.201174e+02
1.200000e-06	3.572613e-06	6.573866e-09	2.531987e+01	4.307505e+02
1.210000e-06	3.649913e-06	6.729451e-09	2.586772e+01	4.409599e+02
1.220000e-06	3.725943e-06	6.877783e-09	2.640656e+01	4.507483e+02
1.230000e-06	3.800493e-06	7.018959e-09	2.693491e+01	4.601186e+02
1.240000e-06	3.873368e-06	7.155460e-09	2.745139e+01	4.690755e+02
1.250000e-06	3.944749e-06	7.287263e-09	2.795728e+01	4.776266e+02
1.260000e-06	4.014787e-06	7.411174e-09	2.845366e+01	4.857826e+02
1.270000e-06	4.083495e-06	7.527652e-09	2.894060e+01	4.935577e+02
1.280000e-06	4.150826e-06	7.639419e-09	2.941780e+01	5.009696e+02
1.290000e-06	4.216501e-06	7.746341e-09	2.988325e+01	5.080380e+02
1.300000e-06	4.280454e-06	7.847650e-09	3.033650e+01	5.147845e+02
1.310000e-06	4.342982e-06	7.943748e-09	3.077964e+01	5.212302e+02
1.320000e-06	4.404132e-06	8.036018e-09	3.121303e+01	5.273957e+02
1.330000e-06	4.463856e-06	8.125361e-09	3.163630e+01	5.332992e+02
1.340000e-06	4.521905e-06	8.212559e-09	3.204771e+01	5.389557e+02
1.350000e-06	4.578147e-06	8.296957e-09	3.244631e+01	5.443773e+02
1.360000e-06	4.632775e-06	8.376249e-09	3.283347e+01	5.495723e+02
1.370000e-06	4.685730e-06	8.451509e-09	3.320877e+01	5.545461e+02
1.380000e-06	4.736731e-06	8.523259e-09	3.357023e+01	5.593015e+02
1.390000e-06	4.785674e-06	8.592976e-09	3.391710e+01	5.638398e+02
1.400000e-06	4.832777e-06	8.659456e-09	3.425092e+01	5.681609e+02
1.410000e-06	4.878310e-06	8.720676e-09	3.457363e+01	5.722651e+02
1.420000e-06	4.922367e-06	8.777800e-09	3.488587e+01	5.761528e+02
1.430000e-06	4.964628e-06	8.832103e-09	3.518538e+01	5.798253e+02
1.440000e-06	5.004911e-06	8.885062e-09	3.547088e+01	5.832847e+02
1.450000e-06	5.043447e-06	8.936696e-09	3.574399e+01	5.865339e+02
1.460000e-06	5.080386e-06	8.983955e-09	3.600579e+01	5.895767e+02
1.470000e-06	5.115756e-06	9.025037e-09	3.625646e+01	5.924168e+02
1.480000e-06	5.149200e-06	9.061522e-09	3.649348e+01	5.950583e+02
1.490000e-06	5.180684e-06	9.095729e-09	3.671662e+01	5.975048e+02
1.500000e-06	5.210435e-06	9.127382e-09	3.692747e+01	5.997601e+02
1.510000e-06	5.238450e-06	9.156161e-09	3.712602e+01	6.018274e+02
1.520000e-06	5.264571e-06	9.182130e-09	3.731114e+01	6.037104e+02
1.530000e-06	5.288638e-06	9.206284e-09	3.748171e+01	6.054130e+02
1.540000e-06	5.310833e-06	9.228534e-09	3.763901e+01	6.069398e+02
1.550000e-06	5.331308e-06	9.247802e-09	3.778412e+01	6.082964e+02
1.560000e-06	5.349937e-06	9.264487e-09	3.791615e+01	6.094891e+02
1.570000e-06	5.366501e-06	9.279866e-09	3.803354e+01	6.105253e+02
1.580000e-06	5.381074e-06	9.294413e-09	3.813682e+01	6.114126e+02
1.590000e-06	5.393721e-06	9.306909e-09	3.822646e+01	6.121587e+02
1.600000e-06	5.404172e-06	9.316739e-09	3.830053e+01	6.127705e+02
1.610000e-06	5.412413e-06	9.323607e-09	3.835893e+01	6.132537e+02
1.620000e-06	5.418748e-06	9.328594e-09	3.840383e+01	6.136120e+02
1.630000e-06	5.423313e-06	9.332417e-09	3.843619e+01	6.138469e+02
1.640000e-06	5.426020e-06	9.335362e-09	3.845537e+01	6.139577e+02
1.650000e-06	5.426674e-06	9.337771e-09	3.846000e+01	6.139417e+02
1.660000e-06	5.425399e-06	9.335202e-09	3.845096e+01	6.137951e+02
1.670000e-06	5.422451e-06	9.328250e-09	3.843007e+01	6.135132e+02
1.680000e-06	5.417851e-06	9.322621e-09	3.839747e+01	6.130924e+02
1.690000e-06	5.411344e-06	9.313178e-09	3.835135e+01	6.125306e+02
1.700000e-06	5.403009e-06	9.302757e-09	3.829228e+01	6.118283e+02
1.710000e-06	5.393125e-06	9.294743e-09	3.822223e+01	6.109896e+02
1.720000e-06	5.381584e-06	9.291154e-09	3.814044e+01	6.100218e+02
1.730000e-06	5.368084e-06	9.279747e-09	3.804476e+01	6.089359e+02
1.740000e-06	5.352482e-06	9.204081e-09	3.793419e+01	6.077453e+02
1.750000e-06	5.334584e-06	9.172835e-09	3.780734e+01	6.064646e+02
1.760000e-06	5.314061e-06	9.183202e-09	3.766189e+01	6.051087e+02
1.770000e-06	5.291160e-06	9.186465e-09	3.749959e+01	6.036905e+02
1.780000e-06	5.266806e-06	9.253663e-09	3.732699e+01	6.022196e+02
1.790000e-06	5.241684e-06	9.144500e-09	3.714894e+01	6.007011e+02
1.800000e-06	5.215260e-06	9.035931e-09	3.696167e+01	5.991342e+02
1.810000e-06	5.186642e-06	9.136270e-09	3.675885e+01	5.975127e+02
1.820000e-06	5.156086e-06	9.036780e-09	3.654229e+01	5.958244e+02
1.830000e-06	5.123956e-06	9.025238e-09	3.631457e+01	5.940528e+02
1.840000e-06	5.089912e-06	9.124960e-09	3.607330e+01	5.921783e+02
1.850000e-06	5.054164e-06	8.956350e-09	3.581995e+01	5.901798e+02
1.860000e-06	5.016685e-06	8.966004e-09	3.555433e+01	5.880370e+02
1.870000e-06	4.977256e-06	9.006179e-09	3.527488e+01	5.857321e+02
1.880000e-06	4.936134e-06	8.829568e-09	3.498344e+01	5.832515e+02
1.890000e-06	4.893232e-06	8.855793e-09	3.467938e+01	5.805869e+02
1.900000e-06	4.848678e-06	8.810986e-09	3.436362e+01	5.777358e+02
1.910000e-06	4.802394e-06	8.729966e-09	3.403560e+01	5.747015e+02
1.920000e-06	4.754018e-06	8.754268e-09	3.369275e+01	5.714919e+02
1.930000e-06	4.703907e-06	8.618293e-09	3.333760e+01	5.681189e+02
1.940000e-06	4.652071e-06	8.634719e-09	3.297023e+01	5.645961e+02
1.950000e-06	4.598119e-06	8.598695e-09	3.258786e+01	5.609378e+02
1.960000e-06	4.542225e-06	8.448662e-09	3.219172e+01	5.571566e+02
1.970000e-06	4.484653e-06	8.423569e-09	3.178370e+01	5.532625e+02
1.980000e-06	4.425658e-06	8.364495e-09	3.136558e+01	5.492617e+02
1.990000e-06	4.365186e-06	8.339239e-09	3.093701e+01	5.451564e+02
2.000000e-06	4.302979e-06	8.237849e-09	3.049614e+01	5.409446e+02
2.010000e-06	4.239183e-06	8.166631e-09	3.004400e+01	5.366208e+02
2.020000e-06	4.173901e-06	8.158170e-09	2.958133e+01	5.321769e+02
2.030000e-06	4.107176e-06	8.011517e-09	2.910844e+01	5.276036e+02
2.040000e-06	4.038971e-06	7.965405e-09	2.862506e+01	5.228915e+02
2.050000e-06	3.969222e-06	7.922753e-09	2.813073e+01	5.180320e+02
2.060000e-06	3.897969e-06	7.829084e-09	2.762574e+01	5.130186e+02
2.070000e-06	3.825349e-06	7.735647e-09	2.711107e+01	5.078474e+02
2.080000e-06	3.751438e-06	7.630968e-09	2.658724e+01	5.025168e+02
2.090000e-06	3.676104e-06	7.601902e-09	2.605334e+01	4.970278e+02
2.100000e-06	3.599241e-06	7.506320e-09	2.550859e+01	4.913833e+02
2.110000e-06	3.520803e-06	7.397437e-09	2.495268e+01	4.855870e+02
2.120000e-06	3.441060e-06	7.312781e-09	2.438753e+01	4.796432e+02
2.130000e-06	3.360264e-06	7.223009e-09	2.381491e+01	4.735556e+02
2.140000e-06	3.278306e-06	7.127244e-09	2.323406e+01	4.673267e+02
2.150000e-06	3.195241e-06	7.016177e-09	2.264536e+01	4.609574e+02
2.160000e-06	3.111158e-06	6.939342e-09	2.204945e+01	4.544469e+02
2.170000e-06	3.025887e-06	6.831945e-09	2.144511e+01	4.477927e+02
2.180000e-06	2.939277e-06	6.716652e-09	2.083129e+01	4.409911e+02
2.190000e-06	2.851456e-06	6.612571e-09	2.020888e+01	4.340374e+02
2.200000e-06	2.762717e-06	6.515781e-09	1.957997e+01	4.269270e+02
2.210000e-06	2.673098e-06	6.414426e-09	1.894482e+01	4.196550e+02
2.220000e-06	2.582560e-06	6.289073e-09	1.830315e+01	4.122175e+02
2.230000e-06	2.491186e-06	6.172736e-09	1.765557e+01	4.046112e+02
2.240000e-06	2.398982e-06	6.053992e-09	1.700210e+01	3.968339e+02
2.250000e-06	2.305906e-06	5.935021e-09	1.634245e+01	3.888839e+02
2.260000e-06	2.211917e-06	5.809185e-09	1.567633e+01	3.807601e+02
2.270000e-06	2.116961e-06	5.681115e-09	1.500336e+01	3.724617e+02
2.280000e-06	2.021054e-06	5.552827e-09	1.432364e+01	3.639874e+02
2.290000e-06	1.924437e-06	5.422148e-09	1.363890e+01	3.553352e+02
2.300000e-06	1.827363e-06	5.292417e-09	1.295091e+01	3.465027e+02
2.310000e-06	1.729772e-06	5.159820e-09	1.225926e+01	3.374860e+02
2.320000e-06	1.631497e-06	5.021054e-09	1.156277e+01	3.282807e+02
2.330000e-06	1.532634e-06	4.870336e-09	1.086211e+01	3.188817e+02
2.340000e-06	1.433363e-06	4.719864e-09	1.015855e+01	3.092831e+02
2.350000e-06	1.333746e-06	4.570151e-09	9.452541e+00	2.994793e+02
2.360000e-06	1.233839e-06	4.422785e-09	8.744481e+00	2.894649e+02
2.370000e-06	1.133553e-06	4.272430e-09	8.033731e+00	2.792347e+02
2.380000e-06	1.032780e-06	4.112794e-09	7.319531e+00	2.687848e+02
2.390000e-06	9.316271e-07	3.951382e-09	6.602641e+00	2.581115e+02
2.400000e-06	8.301159e-07	3.791029e-09	5.883210e+00	2.472123e+02
2.410000e-06	7.282208e-07	3.626571e-09	5.161057e+00	2.360851e+02
2.420000e-06	6.259693e-07	3.453788e-09	4.436379e+00	2.247280e+02
2.430000e-06	5.234155e-07	3.274397e-09	3.709558e+00	2.131391e+02
2.440000e-06	4.206970e-07	3.093628e-09	2.981570e+00	2.013159e+02
2.450000e-06	3.178090e-07	2.911429e-09	2.252381e+00	1.892550e+02
2.460000e-06	2.147373e-07	2.723347e-09	1.521889e+00	1.769515e+02
2.470000e-06	1.115721e-07	2.534665e-09	7.907355e-01	1.643992e+02
2.480000e-06	8.317518e-09	2.340118e-09	5.894803e-02	1.515896e+02
2.490000e-06	-9.498383e-08	2.138220e-09	-6.731708e-01	1.385122e+02
2.500000e-06	-1.982689e-07	1.934560e-09	-1.405174e+00	1.251548e+02
2.510000e-06	-3.014767e-07	1.728281e-09	-2.136630e+00	1.115031e+02
2.520000e-06	-4.045604e-07	1.516327e-09	-2.867207e+00	9.754112e+01
2.530000e-06	-5.074926e-07	1.296531e-09	-3.596709e+00	8.325238e+01
2.540000e-06	-6.102175e-07	1.073887e-09	-4.324742e+00	6.862007e+01
2.550000e-06	-7.125963e-07	8.478949e-10	-5.050323e+00	5.362838e+01
2.560000e-06	-8.145608e-07	6.123631e-10	-5.772967e+00	3.826379e+01
2.570000e-06	-9.161397e-07	3.693062e-10	-6.492879e+00	2.251646e+01
2.580000e-06	-1.017243e-06	1.231056e-10	-7.209420e+00	6.381906e+00
2.590000e-06	-1.117904e-06	-1.278007e-10	-7.922825e+00	-1.013738e+01
2.600000e-06	-1.218209e-06	-3.853019e-10	-8.633712e+00	-2.703037e+01
2.610000e-06	-1.318099e-06	-6.472414e-10	-9.341651e+00	-4.427623e+01
2.620000e-06	-1.417534e-06	-9.135503e-10	-1.004637e+01	-6.184330e+01
2.630000e-06	-1.516501e-06	-1.187453e-09	-1.074777e+01	-7.968870e+01
2.640000e-06	-1.614942e-06	-1.467996e-09	-1.144544e+01	-9.775856e+01
2.650000e-06	-1.712797e-06	-1.752040e-09	-1.213896e+01	-1.159889e+02
2.660000e-06	-1.809993e-06	-2.035967e-09	-1.282781e+01	-1.343071e+02
2.670000e-06	-1.906591e-06	-2.318288e-09	-1.351242e+01	-1.526346e+02
2.680000e-06	-2.002718e-06	-2.597277e-09	-1.419369e+01	-1.708890e+02
2.690000e-06	-2.098341e-06	-2.873358e-09	-1.487139e+01	-1.889878e+02
2.700000e-06	-2.193113e-06	-3.147413e-09	-1.554306e+01	-2.068513e+02
2.710000e-06	-2.286802e-06	-3.417619e-09	-1.620705e+01	-2.244061e+02
2.720000e-06	-2.379533e-06	-3.680910e-09	-1.686426e+01	-2.415872e+02
2.730000e-06	-2.471379e-06	-3.936608e-09	-1.751519e+01	-2.583409e+02
2.740000e-06	-2.562356e-06	-4.184729e-09	-1.815997e+01	-2.746252e+02
2.750000e-06	-2.652394e-06	-4.425230e-09	-1.879808e+01	-2.904113e+02
2.760000e-06	-2.741471e-06	-4.658897e-09	-1.942939e+01	-3.056821e+02
2.770000e-06	-2.829724e-06	-4.885284e-09	-2.005486e+01	-3.204319e+02
2.780000e-06	-2.917150e-06	-5.104561e-09	-2.067447e+01	-3.346636e+02
2.790000e-06	-3.003517e-06	-5.315681e-09	-2.128657e+01	-3.483872e+02
2.800000e-06	-3.088600e-06	-5.521459e-09	-2.188957e+01	-3.616167e+02
2.810000e-06	-3.172568e-06	-5.719600e-09	-2.248467e+01	-3.743677e+02
2.820000e-06	-3.255562e-06	-5.906454e-09	-2.307287e+01	-3.866557e+02
2.830000e-06	-3.337443e-06	-6.086267e-09	-2.365317e+01	-3.984943e+02
2.840000e-06	-3.418198e-06	-6.259938e-09	-2.422550e+01	-4.098940e+02
2.850000e-06	-3.497848e-06	-6.426070e-09	-2.479000e+01	-4.208626e+02
2.860000e-06	-3.576155e-06	-6.584277e-09	-2.534498e+01	-4.314051e+02
2.870000e-06	-3.652888e-06	-6.737163e-09	-2.588880e+01	-4.415244e+02
2.880000e-06	-3.728100e-06	-6.885937e-09	-2.642185e+01	-4.512233e+02
2.890000e-06	-3.801921e-06	-7.027101e-09	-2.694503e+01	-4.605049e+02
2.900000e-06	-3.874453e-06	-7.163505e-09	-2.745908e+01	-4.693746e+02
2.910000e-06	-3.945665e-06	-7.296832e-09	-2.796377e+01	-4.778403e+02
2.920000e-06	-4.015288e-06	-7.423825e-09	-2.845721e+01	-4.859137e+02
2.930000e-06	-4.083307e-06	-7.543166e-09	-2.893927e+01	-4.936098e+02
2.940000e-06	-4.149933e-06	-7.656651e-09	-2.941147e+01	-5.009467e+02
