# Temperatura_=_37.37
# Concentracion g/m^3_=_15000.0
# C_Vs_to_Am_M_A/Vsm_=_65563218390.804596
# pendiente_HvsI_1/m_=_3716.3
# ordenada_HvsI_A/m_=_1297.0
# frecuencia_Hz_=_301602.33565391786

Tiempo_(s)	Campo_(V.s)	Magnetizacion_(V.s)	Campo_(kA/m)	Magnetizacion_(A/m)
0.000000e+00	-5.426191e-06	-8.182418e-09	-3.833543e+01	-5.339967e+02
1.000000e-08	-5.423588e-06	-8.180979e-09	-3.831704e+01	-5.337475e+02
2.000000e-08	-5.419174e-06	-8.173797e-09	-3.828586e+01	-5.333964e+02
3.000000e-08	-5.413120e-06	-8.167248e-09	-3.824309e+01	-5.329415e+02
4.000000e-08	-5.405464e-06	-8.158353e-09	-3.818899e+01	-5.323817e+02
5.000000e-08	-5.395983e-06	-8.143978e-09	-3.812201e+01	-5.317174e+02
6.000000e-08	-5.384434e-06	-8.125493e-09	-3.804042e+01	-5.309513e+02
7.000000e-08	-5.370945e-06	-8.101292e-09	-3.794512e+01	-5.300890e+02
8.000000e-08	-5.355319e-06	-8.113256e-09	-3.783472e+01	-5.291390e+02
9.000000e-08	-5.337409e-06	-8.150722e-09	-3.770820e+01	-5.281119e+02
1.000000e-07	-5.317487e-06	-8.114534e-09	-3.756745e+01	-5.270199e+02
1.100000e-07	-5.295681e-06	-8.066557e-09	-3.741339e+01	-5.258749e+02
1.200000e-07	-5.272129e-06	-8.018788e-09	-3.724700e+01	-5.246875e+02
1.300000e-07	-5.246937e-06	-7.921715e-09	-3.706902e+01	-5.234651e+02
1.400000e-07	-5.220096e-06	-7.998037e-09	-3.687939e+01	-5.222108e+02
1.500000e-07	-5.191703e-06	-8.040272e-09	-3.667880e+01	-5.209226e+02
1.600000e-07	-5.161842e-06	-7.902581e-09	-3.646783e+01	-5.195928e+02
1.700000e-07	-5.130399e-06	-7.960496e-09	-3.624569e+01	-5.182089e+02
1.800000e-07	-5.096852e-06	-7.910306e-09	-3.600868e+01	-5.167540e+02
1.900000e-07	-5.061388e-06	-7.766661e-09	-3.575814e+01	-5.152091e+02
2.000000e-07	-5.024458e-06	-7.869462e-09	-3.549723e+01	-5.135542e+02
2.100000e-07	-4.985807e-06	-7.835375e-09	-3.522417e+01	-5.117708e+02
2.200000e-07	-4.945261e-06	-7.751359e-09	-3.493771e+01	-5.098437e+02
2.300000e-07	-4.902720e-06	-7.795049e-09	-3.463716e+01	-5.077624e+02
2.400000e-07	-4.858221e-06	-7.724306e-09	-3.432279e+01	-5.055222e+02
2.500000e-07	-4.811982e-06	-7.656037e-09	-3.399611e+01	-5.031241e+02
2.600000e-07	-4.763831e-06	-7.621063e-09	-3.365593e+01	-5.005750e+02
2.700000e-07	-4.713504e-06	-7.576988e-09	-3.330037e+01	-4.978857e+02
2.800000e-07	-4.661125e-06	-7.553672e-09	-3.293032e+01	-4.950702e+02
2.900000e-07	-4.606919e-06	-7.484076e-09	-3.254736e+01	-4.921431e+02
3.000000e-07	-4.551136e-06	-7.436378e-09	-3.215326e+01	-4.891183e+02
3.100000e-07	-4.493654e-06	-7.416695e-09	-3.174716e+01	-4.860067e+02
3.200000e-07	-4.434386e-06	-7.388308e-09	-3.132844e+01	-4.828153e+02
3.300000e-07	-4.373579e-06	-7.320247e-09	-3.089884e+01	-4.795467e+02
3.400000e-07	-4.311305e-06	-7.240062e-09	-3.045889e+01	-4.761983e+02
3.500000e-07	-4.247610e-06	-7.209336e-09	-3.000888e+01	-4.727638e+02
3.600000e-07	-4.182261e-06	-7.148248e-09	-2.954720e+01	-4.692335e+02
3.700000e-07	-4.115183e-06	-7.089351e-09	-2.907331e+01	-4.655961e+02
3.800000e-07	-4.046653e-06	-7.053011e-09	-2.858915e+01	-4.618402e+02
3.900000e-07	-3.976806e-06	-6.976998e-09	-2.809568e+01	-4.579559e+02
4.000000e-07	-3.905755e-06	-6.897207e-09	-2.759372e+01	-4.539355e+02
4.100000e-07	-3.833441e-06	-6.835430e-09	-2.708283e+01	-4.497747e+02
4.200000e-07	-3.759554e-06	-6.797537e-09	-2.656082e+01	-4.454727e+02
4.300000e-07	-3.684033e-06	-6.734960e-09	-2.602728e+01	-4.410316e+02
4.400000e-07	-3.607082e-06	-6.650210e-09	-2.548363e+01	-4.364561e+02
4.500000e-07	-3.528615e-06	-6.568982e-09	-2.492927e+01	-4.317521e+02
4.600000e-07	-3.448627e-06	-6.493346e-09	-2.436416e+01	-4.269257e+02
4.700000e-07	-3.367408e-06	-6.427049e-09	-2.379036e+01	-4.219817e+02
4.800000e-07	-3.285053e-06	-6.351085e-09	-2.320853e+01	-4.169231e+02
4.900000e-07	-3.201661e-06	-6.277404e-09	-2.261938e+01	-4.117503e+02
5.000000e-07	-3.117363e-06	-6.194329e-09	-2.202382e+01	-4.064608e+02
5.100000e-07	-3.032072e-06	-6.100275e-09	-2.142125e+01	-4.010496e+02
5.200000e-07	-2.945708e-06	-6.013669e-09	-2.081109e+01	-3.955098e+02
5.300000e-07	-2.858362e-06	-5.933958e-09	-2.019401e+01	-3.898332e+02
5.400000e-07	-2.770101e-06	-5.847982e-09	-1.957045e+01	-3.840119e+02
5.500000e-07	-2.680734e-06	-5.746505e-09	-1.893908e+01	-3.780385e+02
5.600000e-07	-2.590136e-06	-5.641933e-09	-1.829902e+01	-3.719072e+02
5.700000e-07	-2.498517e-06	-5.549176e-09	-1.765174e+01	-3.656143e+02
5.800000e-07	-2.406094e-06	-5.461799e-09	-1.699879e+01	-3.591584e+02
5.900000e-07	-2.312896e-06	-5.365684e-09	-1.634035e+01	-3.525397e+02
6.000000e-07	-2.218883e-06	-5.257045e-09	-1.567616e+01	-3.457600e+02
6.100000e-07	-2.124076e-06	-5.145806e-09	-1.500635e+01	-3.388217e+02
6.200000e-07	-2.028521e-06	-5.038918e-09	-1.433127e+01	-3.317271e+02
6.300000e-07	-1.932251e-06	-4.932126e-09	-1.365113e+01	-3.244776e+02
6.400000e-07	-1.835221e-06	-4.821603e-09	-1.296563e+01	-3.170729e+02
6.500000e-07	-1.737341e-06	-4.702498e-09	-1.227412e+01	-3.095109e+02
6.600000e-07	-1.638672e-06	-4.573127e-09	-1.157703e+01	-3.017876e+02
6.700000e-07	-1.539398e-06	-4.443804e-09	-1.087567e+01	-2.938968e+02
6.800000e-07	-1.439671e-06	-4.324663e-09	-1.017111e+01	-2.858311e+02
6.900000e-07	-1.339579e-06	-4.207837e-09	-9.463973e+00	-2.775824e+02
7.000000e-07	-1.239126e-06	-4.082608e-09	-8.754287e+00	-2.691422e+02
7.100000e-07	-1.138257e-06	-3.948361e-09	-8.041659e+00	-2.605023e+02
7.200000e-07	-1.036953e-06	-3.809644e-09	-7.325957e+00	-2.516556e+02
7.300000e-07	-9.352823e-07	-3.672048e-09	-6.607664e+00	-2.425960e+02
7.400000e-07	-8.332883e-07	-3.532371e-09	-5.887088e+00	-2.333189e+02
7.500000e-07	-7.310345e-07	-3.385685e-09	-5.164677e+00	-2.238206e+02
7.600000e-07	-6.285537e-07	-3.229913e-09	-4.440661e+00	-2.140985e+02
7.700000e-07	-5.258587e-07	-3.069378e-09	-3.715132e+00	-2.041504e+02
7.800000e-07	-4.230469e-07	-2.913885e-09	-2.988779e+00	-1.939742e+02
7.900000e-07	-3.201043e-07	-2.760609e-09	-2.261501e+00	-1.835673e+02
8.000000e-07	-2.170361e-07	-2.600533e-09	-1.533336e+00	-1.729268e+02
8.100000e-07	-1.138471e-07	-2.432277e-09	-8.043167e-01	-1.620485e+02
8.200000e-07	-1.055346e-08	-2.258876e-09	-7.455903e-02	-1.509272e+02
8.300000e-07	9.269481e-08	-2.083151e-09	6.548784e-01	-1.395568e+02
8.400000e-07	1.959119e-07	-1.905477e-09	1.384096e+00	-1.279300e+02
8.500000e-07	2.991064e-07	-1.723167e-09	2.113153e+00	-1.160387e+02
8.600000e-07	4.021809e-07	-1.536099e-09	2.841362e+00	-1.038739e+02
8.700000e-07	5.051455e-07	-1.343783e-09	3.568796e+00	-9.142642e+01
8.800000e-07	6.080264e-07	-1.147976e-09	4.295638e+00	-7.868642e+01
8.900000e-07	7.107190e-07	-9.513112e-10	5.021150e+00	-6.564433e+01
9.000000e-07	8.131526e-07	-7.522696e-10	5.744832e+00	-5.229109e+01
9.100000e-07	9.153311e-07	-5.494385e-10	6.466711e+00	-3.861883e+01
9.200000e-07	1.017139e-06	-3.391212e-10	7.185973e+00	-2.462174e+01
9.300000e-07	1.118544e-06	-1.215372e-10	7.902388e+00	-1.029709e+01
9.400000e-07	1.219580e-06	1.016307e-10	8.616192e+00	4.353485e+00
9.500000e-07	1.320222e-06	3.289908e-10	9.327223e+00	1.932264e+01
9.600000e-07	1.420452e-06	5.606614e-10	1.003533e+01	3.459599e+01
9.700000e-07	1.520214e-06	7.986955e-10	1.074014e+01	5.015090e+01
9.800000e-07	1.619488e-06	1.040497e-09	1.144150e+01	6.595561e+01
9.900000e-07	1.718149e-06	1.284114e-09	1.213853e+01	8.196882e+01
1.000000e-06	1.816032e-06	1.528730e-09	1.283006e+01	9.813984e+01
1.010000e-06	1.913034e-06	1.774775e-09	1.351537e+01	1.144095e+02
1.020000e-06	2.009150e-06	2.022768e-09	1.419442e+01	1.307118e+02
1.030000e-06	2.104507e-06	2.271950e-09	1.486810e+01	1.469759e+02
1.040000e-06	2.199123e-06	2.520812e-09	1.553656e+01	1.631291e+02
1.050000e-06	2.292949e-06	2.764179e-09	1.619942e+01	1.790997e+02
1.060000e-06	2.385993e-06	3.000874e-09	1.685677e+01	1.948198e+02
1.070000e-06	2.478373e-06	3.231558e-09	1.750943e+01	2.102288e+02
1.080000e-06	2.570073e-06	3.459273e-09	1.815728e+01	2.252747e+02
1.090000e-06	2.660890e-06	3.682581e-09	1.879889e+01	2.399166e+02
1.100000e-06	2.750622e-06	3.897181e-09	1.943284e+01	2.541247e+02
1.110000e-06	2.839131e-06	4.103114e-09	2.005814e+01	2.678805e+02
1.120000e-06	2.926556e-06	4.302307e-09	2.067579e+01	2.811753e+02
1.130000e-06	3.013060e-06	4.497024e-09	2.128693e+01	2.940091e+02
1.140000e-06	3.098609e-06	4.687018e-09	2.189133e+01	3.063875e+02
1.150000e-06	3.183184e-06	4.870137e-09	2.248883e+01	3.183200e+02
1.160000e-06	3.266787e-06	5.047057e-09	2.307948e+01	3.298173e+02
1.170000e-06	3.349278e-06	5.217402e-09	2.366227e+01	3.408891e+02
1.180000e-06	3.430496e-06	5.379717e-09	2.423607e+01	3.515434e+02
1.190000e-06	3.510431e-06	5.535625e-09	2.480080e+01	3.617853e+02
1.200000e-06	3.589134e-06	5.684261e-09	2.535683e+01	3.716170e+02
1.210000e-06	3.666597e-06	5.825407e-09	2.590410e+01	3.810392e+02
1.220000e-06	3.742753e-06	5.959680e-09	2.644213e+01	3.900517e+02
1.230000e-06	3.817510e-06	6.089694e-09	2.697028e+01	3.986555e+02
1.240000e-06	3.890637e-06	6.215262e-09	2.748691e+01	4.068537e+02
1.250000e-06	3.962183e-06	6.335162e-09	2.799238e+01	4.146536e+02
1.260000e-06	4.032372e-06	6.447405e-09	2.848825e+01	4.220667e+02
1.270000e-06	4.101171e-06	6.553524e-09	2.897431e+01	4.291096e+02
1.280000e-06	4.168551e-06	6.654497e-09	2.945035e+01	4.358031e+02
1.290000e-06	4.234317e-06	6.748728e-09	2.991497e+01	4.421716e+02
1.300000e-06	4.298364e-06	6.838582e-09	3.036745e+01	4.482411e+02
1.310000e-06	4.360913e-06	6.924992e-09	3.080936e+01	4.540374e+02
1.320000e-06	4.422104e-06	7.008395e-09	3.124167e+01	4.595848e+02
1.330000e-06	4.481901e-06	7.089004e-09	3.166413e+01	4.649037e+02
1.340000e-06	4.540039e-06	7.168063e-09	3.207487e+01	4.700100e+02
1.350000e-06	4.596325e-06	7.245476e-09	3.247252e+01	4.749139e+02
1.360000e-06	4.650945e-06	7.318397e-09	3.285840e+01	4.796204e+02
1.370000e-06	4.703938e-06	7.386366e-09	3.323279e+01	4.841298e+02
1.380000e-06	4.755031e-06	7.450322e-09	3.359376e+01	4.884384e+02
1.390000e-06	4.804070e-06	7.511200e-09	3.394021e+01	4.925406e+02
1.400000e-06	4.851265e-06	7.568471e-09	3.427364e+01	4.964304e+02
1.410000e-06	4.896823e-06	7.621467e-09	3.459551e+01	5.001026e+02
1.420000e-06	4.940803e-06	7.671819e-09	3.490622e+01	5.035543e+02
1.430000e-06	4.983087e-06	7.720376e-09	3.520495e+01	5.067857e+02
1.440000e-06	5.023446e-06	7.767430e-09	3.549008e+01	5.098005e+02
1.450000e-06	5.061997e-06	7.812200e-09	3.576244e+01	5.126054e+02
1.460000e-06	5.098938e-06	7.852399e-09	3.602342e+01	5.152094e+02
1.470000e-06	5.134216e-06	7.888184e-09	3.627266e+01	5.176232e+02
1.480000e-06	5.167600e-06	7.919225e-09	3.650851e+01	5.198578e+02
1.490000e-06	5.199070e-06	7.945881e-09	3.673084e+01	5.219234e+02
1.500000e-06	5.228821e-06	7.970418e-09	3.694103e+01	5.238287e+02
1.510000e-06	5.256880e-06	7.994814e-09	3.713926e+01	5.255803e+02
1.520000e-06	5.282994e-06	8.018048e-09	3.732376e+01	5.271827e+02
1.530000e-06	5.307030e-06	8.039382e-09	3.749357e+01	5.286385e+02
1.540000e-06	5.329158e-06	8.058761e-09	3.764990e+01	5.299489e+02
1.550000e-06	5.349563e-06	8.074775e-09	3.779406e+01	5.311146e+02
1.560000e-06	5.368156e-06	8.089146e-09	3.792542e+01	5.321366e+02
1.570000e-06	5.384684e-06	8.103361e-09	3.804219e+01	5.330166e+02
1.580000e-06	5.399186e-06	8.116237e-09	3.814464e+01	5.337580e+02
1.590000e-06	5.411710e-06	8.125580e-09	3.823312e+01	5.343653e+02
1.600000e-06	5.421984e-06	8.131264e-09	3.830570e+01	5.348444e+02
1.610000e-06	5.430041e-06	8.135990e-09	3.836263e+01	5.352022e+02
1.620000e-06	5.436248e-06	8.140316e-09	3.840648e+01	5.354452e+02
1.630000e-06	5.440737e-06	8.144605e-09	3.843819e+01	5.355796e+02
1.640000e-06	5.443307e-06	8.148001e-09	3.845635e+01	5.356101e+02
1.650000e-06	5.443823e-06	8.149043e-09	3.846000e+01	5.355394e+02
1.660000e-06	5.442497e-06	8.145411e-09	3.845063e+01	5.353687e+02
1.670000e-06	5.439508e-06	8.140660e-09	3.842951e+01	5.350974e+02
1.680000e-06	5.434823e-06	8.136031e-09	3.839641e+01	5.347237e+02
1.690000e-06	5.428225e-06	8.127997e-09	3.834980e+01	5.342460e+02
1.700000e-06	5.419768e-06	8.118116e-09	3.829005e+01	5.336633e+02
1.710000e-06	5.409713e-06	8.109573e-09	3.821901e+01	5.329764e+02
1.720000e-06	5.397983e-06	8.111735e-09	3.813614e+01	5.321886e+02
1.730000e-06	5.384259e-06	8.089362e-09	3.803919e+01	5.313063e+02
1.740000e-06	5.368433e-06	8.006909e-09	3.792737e+01	5.303384e+02
1.750000e-06	5.350286e-06	8.003125e-09	3.779917e+01	5.292959e+02
1.760000e-06	5.329487e-06	8.019574e-09	3.765222e+01	5.281911e+02
1.770000e-06	5.306400e-06	8.046817e-09	3.748912e+01	5.270358e+02
1.780000e-06	5.281977e-06	8.108006e-09	3.731658e+01	5.258400e+02
1.790000e-06	5.256761e-06	7.942548e-09	3.713842e+01	5.246102e+02
1.800000e-06	5.230133e-06	7.907403e-09	3.695030e+01	5.233486e+02
1.810000e-06	5.201257e-06	7.996882e-09	3.674630e+01	5.220518e+02
1.820000e-06	5.170461e-06	7.853759e-09	3.652873e+01	5.207112e+02
1.830000e-06	5.138014e-06	7.934155e-09	3.629949e+01	5.193131e+02
1.840000e-06	5.103637e-06	7.985229e-09	3.605662e+01	5.178402e+02
1.850000e-06	5.067661e-06	7.786711e-09	3.580245e+01	5.162729e+02
1.860000e-06	5.029928e-06	7.867188e-09	3.553587e+01	5.145915e+02
1.870000e-06	4.990254e-06	7.831614e-09	3.525558e+01	5.127780e+02
1.880000e-06	4.948910e-06	7.686536e-09	3.496349e+01	5.108182e+02
1.890000e-06	4.905774e-06	7.774451e-09	3.465874e+01	5.087026e+02
1.900000e-06	4.860956e-06	7.707751e-09	3.434211e+01	5.064278e+02
1.910000e-06	4.814316e-06	7.697885e-09	3.401260e+01	5.039962e+02
1.920000e-06	4.765608e-06	7.651874e-09	3.366849e+01	5.014155e+02
1.930000e-06	4.715273e-06	7.511589e-09	3.331287e+01	4.986975e+02
1.940000e-06	4.663205e-06	7.598436e-09	3.294502e+01	4.958564e+02
1.950000e-06	4.609016e-06	7.522074e-09	3.256218e+01	4.929069e+02
1.960000e-06	4.552900e-06	7.428371e-09	3.216573e+01	4.898622e+02
1.970000e-06	4.495084e-06	7.407633e-09	3.175726e+01	4.867326e+02
1.980000e-06	4.435823e-06	7.346235e-09	3.133859e+01	4.835243e+02
1.990000e-06	4.375017e-06	7.347012e-09	3.090900e+01	4.802384e+02
2.000000e-06	4.312437e-06	7.234384e-09	3.046688e+01	4.768719e+02
2.010000e-06	4.248260e-06	7.219126e-09	3.001348e+01	4.734173e+02
2.020000e-06	4.182604e-06	7.177259e-09	2.954963e+01	4.698645e+02
2.030000e-06	4.115538e-06	7.044496e-09	2.907581e+01	4.662022e+02
2.040000e-06	4.047018e-06	7.041113e-09	2.859173e+01	4.624192e+02
2.050000e-06	3.976869e-06	6.995013e-09	2.809613e+01	4.585058e+02
2.060000e-06	3.905229e-06	6.946186e-09	2.759000e+01	4.544551e+02
2.070000e-06	3.832293e-06	6.842467e-09	2.707472e+01	4.502636e+02
2.080000e-06	3.758044e-06	6.757902e-09	2.655016e+01	4.459310e+02
2.090000e-06	3.682324e-06	6.732304e-09	2.601521e+01	4.414602e+02
2.100000e-06	3.605058e-06	6.653797e-09	2.546933e+01	4.368563e+02
2.110000e-06	3.526277e-06	6.591251e-09	2.491275e+01	4.321251e+02
2.120000e-06	3.446240e-06	6.507820e-09	2.434730e+01	4.272727e+02
2.130000e-06	3.365128e-06	6.437682e-09	2.377425e+01	4.223036e+02
2.140000e-06	3.282850e-06	6.341341e-09	2.319297e+01	4.172201e+02
2.150000e-06	3.199504e-06	6.255971e-09	2.260413e+01	4.120222e+02
2.160000e-06	3.115121e-06	6.207578e-09	2.200798e+01	4.067066e+02
2.170000e-06	3.029467e-06	6.128869e-09	2.140284e+01	4.012681e+02
2.180000e-06	2.942386e-06	6.035658e-09	2.078763e+01	3.956992e+02
2.190000e-06	2.854192e-06	5.930059e-09	2.016455e+01	3.899919e+02
2.200000e-06	2.765137e-06	5.857211e-09	1.953538e+01	3.841381e+02
2.210000e-06	2.675127e-06	5.778972e-09	1.889947e+01	3.781308e+02
2.220000e-06	2.584233e-06	5.678031e-09	1.825731e+01	3.719647e+02
2.230000e-06	2.492553e-06	5.572061e-09	1.760961e+01	3.656365e+02
2.240000e-06	2.400063e-06	5.468889e-09	1.695618e+01	3.591451e+02
2.250000e-06	2.306587e-06	5.370889e-09	1.629578e+01	3.524913e+02
2.260000e-06	2.212104e-06	5.267864e-09	1.562827e+01	3.456770e+02
2.270000e-06	2.116672e-06	5.170399e-09	1.495405e+01	3.387046e+02
2.280000e-06	2.020441e-06	5.064271e-09	1.427418e+01	3.315763e+02
2.290000e-06	1.923578e-06	4.946314e-09	1.358986e+01	3.242932e+02
2.300000e-06	1.826061e-06	4.828161e-09	1.290091e+01	3.168546e+02
2.310000e-06	1.727983e-06	4.724047e-09	1.220800e+01	3.092580e+02
2.320000e-06	1.629374e-06	4.615847e-09	1.151134e+01	3.014989e+02
2.330000e-06	1.530250e-06	4.489910e-09	1.081104e+01	2.935708e+02
2.340000e-06	1.430713e-06	4.356665e-09	1.010783e+01	2.854663e+02
2.350000e-06	1.330768e-06	4.222954e-09	9.401729e+00	2.771768e+02
2.360000e-06	1.230468e-06	4.096673e-09	8.693120e+00	2.686940e+02
2.370000e-06	1.129860e-06	3.972781e-09	7.982330e+00	2.600099e+02
2.380000e-06	1.028889e-06	3.842145e-09	7.268987e+00	2.511176e+02
2.390000e-06	9.274494e-07	3.700591e-09	6.552326e+00	2.420113e+02
2.400000e-06	8.254994e-07	3.554852e-09	5.832060e+00	2.326866e+02
2.410000e-06	7.231052e-07	3.411994e-09	5.108657e+00	2.231402e+02
2.420000e-06	6.203767e-07	3.269893e-09	4.382892e+00	2.133693e+02
2.430000e-06	5.174540e-07	3.121612e-09	3.655754e+00	2.033721e+02
2.440000e-06	4.143407e-07	2.965801e-09	2.927270e+00	1.931462e+02
2.450000e-06	3.110395e-07	2.803822e-09	2.197459e+00	1.826892e+02
2.460000e-06	2.075726e-07	2.639487e-09	1.466477e+00	1.719976e+02
2.470000e-06	1.039970e-07	2.478868e-09	7.347272e-01	1.610673e+02
2.480000e-06	3.690764e-10	2.315227e-09	2.607483e-03	1.498927e+02
2.490000e-06	-1.032632e-07	2.140866e-09	-7.295432e-01	1.384676e+02
2.500000e-06	-2.068210e-07	1.958204e-09	-1.461167e+00	1.267844e+02
2.510000e-06	-3.103428e-07	1.774851e-09	-2.192537e+00	1.148348e+02
2.520000e-06	-4.137897e-07	1.591573e-09	-2.923378e+00	1.026098e+02
2.530000e-06	-5.170818e-07	1.403832e-09	-3.653125e+00	9.010002e+01
2.540000e-06	-6.201541e-07	1.210629e-09	-4.381319e+00	7.729564e+01
2.550000e-06	-7.229428e-07	1.010068e-09	-5.107510e+00	6.418717e+01
2.560000e-06	-8.253874e-07	7.993454e-10	-5.831269e+00	5.076574e+01
2.570000e-06	-9.274400e-07	5.841332e-10	-6.552259e+00	3.702384e+01
2.580000e-06	-1.028990e-06	3.708213e-10	-7.269696e+00	2.295621e+01
2.590000e-06	-1.130023e-06	1.539361e-10	-7.983486e+00	8.560966e+00
2.600000e-06	-1.230662e-06	-7.300058e-11	-8.694487e+00	-6.159150e+00
2.610000e-06	-1.330847e-06	-3.074024e-10	-9.402282e+00	-2.119540e+01
2.620000e-06	-1.430508e-06	-5.446224e-10	-1.010638e+01	-3.653173e+01
2.630000e-06	-1.529646e-06	-7.820469e-10	-1.080678e+01	-5.214361e+01
2.640000e-06	-1.628296e-06	-1.020919e-09	-1.150373e+01	-6.799724e+01
2.650000e-06	-1.726388e-06	-1.265019e-09	-1.219674e+01	-8.404928e+01
2.660000e-06	-1.823851e-06	-1.513949e-09	-1.288530e+01	-1.002471e+02
2.670000e-06	-1.920721e-06	-1.763757e-09	-1.356968e+01	-1.165300e+02
2.680000e-06	-2.017016e-06	-2.010021e-09	-1.424999e+01	-1.328306e+02
2.690000e-06	-2.112696e-06	-2.253291e-09	-1.492596e+01	-1.490775e+02
2.700000e-06	-2.207643e-06	-2.497498e-09	-1.559675e+01	-1.651980e+02
2.710000e-06	-2.301668e-06	-2.743313e-09	-1.626102e+01	-1.811208e+02
2.720000e-06	-2.394709e-06	-2.986600e-09	-1.691835e+01	-1.967796e+02
2.730000e-06	-2.486783e-06	-3.222358e-09	-1.756884e+01	-2.121152e+02
2.740000e-06	-2.577933e-06	-3.450788e-09	-1.821280e+01	-2.270781e+02
2.750000e-06	-2.668157e-06	-3.674936e-09	-1.885023e+01	-2.416296e+02
2.760000e-06	-2.757450e-06	-3.896067e-09	-1.948107e+01	-2.557424e+02
2.770000e-06	-2.845930e-06	-4.109921e-09	-2.010618e+01	-2.694002e+02
2.780000e-06	-2.933538e-06	-4.311408e-09	-2.072512e+01	-2.825965e+02
2.790000e-06	-3.020107e-06	-4.500957e-09	-2.133672e+01	-2.953324e+02
2.800000e-06	-3.105495e-06	-4.686909e-09	-2.193998e+01	-3.076149e+02
2.810000e-06	-3.189646e-06	-4.869411e-09	-2.253449e+01	-3.194537e+02
2.820000e-06	-3.272696e-06	-5.044683e-09	-2.312123e+01	-3.308594e+02
2.830000e-06	-3.354701e-06	-5.213270e-09	-2.370059e+01	-3.418417e+02
2.840000e-06	-3.435619e-06	-5.373113e-09	-2.427226e+01	-3.524077e+02
2.850000e-06	-3.515358e-06	-5.525622e-09	-2.483561e+01	-3.625620e+02
2.860000e-06	-3.593750e-06	-5.672502e-09	-2.538944e+01	-3.723064e+02
2.870000e-06	-3.670647e-06	-5.815573e-09	-2.593271e+01	-3.816412e+02
2.880000e-06	-3.746051e-06	-5.953785e-09	-2.646543e+01	-3.905665e+02
2.890000e-06	-3.820031e-06	-6.085674e-09	-2.698809e+01	-3.990834e+02
2.900000e-06	-3.892678e-06	-6.212962e-09	-2.750133e+01	-4.071960e+02
2.910000e-06	-3.963982e-06	-6.335532e-09	-2.800509e+01	-4.149122e+02
2.920000e-06	-4.033751e-06	-6.450583e-09	-2.849799e+01	-4.222449e+02
2.930000e-06	-4.101940e-06	-6.557751e-09	-2.897975e+01	-4.292115e+02
2.940000e-06	-4.168632e-06	-6.659522e-09	-2.945092e+01	-4.358337e+02
