# Temperatura_=_57.5
# Concentracion g/m^3_=_15000.0
# C_Vs_to_Am_M_A/Vsm_=_65563218390.804596
# pendiente_HvsI_1/m_=_3716.3
# ordenada_HvsI_A/m_=_1297.0
# frecuencia_Hz_=_301595.2258628635

Tiempo_(s)	Campo_(V.s)	Magnetizacion_(V.s)	Campo_(kA/m)	Magnetizacion_(A/m)
0.000000e+00	-5.388433e-06	-8.717824e-09	-3.833816e+01	-5.697060e+02
1.000000e-08	-5.385678e-06	-8.714153e-09	-3.831856e+01	-5.694851e+02
2.000000e-08	-5.381124e-06	-8.707429e-09	-3.828616e+01	-5.691385e+02
3.000000e-08	-5.374942e-06	-8.702839e-09	-3.824218e+01	-5.686650e+02
4.000000e-08	-5.367232e-06	-8.693632e-09	-3.818731e+01	-5.680654e+02
5.000000e-08	-5.357763e-06	-8.679836e-09	-3.811995e+01	-5.673425e+02
6.000000e-08	-5.346240e-06	-8.661888e-09	-3.803796e+01	-5.665020e+02
7.000000e-08	-5.332835e-06	-8.629511e-09	-3.794258e+01	-5.655517e+02
8.000000e-08	-5.317360e-06	-8.645200e-09	-3.783248e+01	-5.645013e+02
9.000000e-08	-5.299558e-06	-8.701898e-09	-3.770582e+01	-5.633613e+02
1.000000e-07	-5.279681e-06	-8.654580e-09	-3.756440e+01	-5.621421e+02
1.100000e-07	-5.257951e-06	-8.595271e-09	-3.740980e+01	-5.608528e+02
1.200000e-07	-5.234524e-06	-8.536364e-09	-3.724311e+01	-5.594997e+02
1.300000e-07	-5.209549e-06	-8.388614e-09	-3.706541e+01	-5.580861e+02
1.400000e-07	-5.182927e-06	-8.533800e-09	-3.687600e+01	-5.566110e+02
1.500000e-07	-5.154632e-06	-8.598286e-09	-3.667469e+01	-5.550694e+02
1.600000e-07	-5.124884e-06	-8.372040e-09	-3.646304e+01	-5.534525e+02
1.700000e-07	-5.093581e-06	-8.502052e-09	-3.624031e+01	-5.517485e+02
1.800000e-07	-5.060200e-06	-8.442545e-09	-3.600282e+01	-5.499440e+02
1.900000e-07	-5.024970e-06	-8.239511e-09	-3.575216e+01	-5.480251e+02
2.000000e-07	-4.988261e-06	-8.410683e-09	-3.549098e+01	-5.459787e+02
2.100000e-07	-4.949786e-06	-8.306621e-09	-3.521723e+01	-5.437941e+02
2.200000e-07	-4.909503e-06	-8.140956e-09	-3.493062e+01	-5.414639e+02
2.300000e-07	-4.867301e-06	-8.235329e-09	-3.463036e+01	-5.389847e+02
2.400000e-07	-4.823173e-06	-8.202060e-09	-3.431639e+01	-5.363570e+02
2.500000e-07	-4.777252e-06	-8.182393e-09	-3.398967e+01	-5.335850e+02
2.600000e-07	-4.729475e-06	-8.119445e-09	-3.364974e+01	-5.306760e+02
2.700000e-07	-4.679666e-06	-8.008535e-09	-3.329535e+01	-5.276389e+02
2.800000e-07	-4.627697e-06	-7.988276e-09	-3.292560e+01	-5.244837e+02
2.900000e-07	-4.573847e-06	-7.930375e-09	-3.254246e+01	-5.212193e+02
3.000000e-07	-4.518416e-06	-7.896969e-09	-3.214807e+01	-5.178532e+02
3.100000e-07	-4.461293e-06	-7.872900e-09	-3.174165e+01	-5.143903e+02
3.200000e-07	-4.402307e-06	-7.814951e-09	-3.132197e+01	-5.108325e+02
3.300000e-07	-4.341711e-06	-7.718102e-09	-3.089084e+01	-5.071789e+02
3.400000e-07	-4.279700e-06	-7.643507e-09	-3.044963e+01	-5.034257e+02
3.500000e-07	-4.216349e-06	-7.646390e-09	-2.999890e+01	-4.995673e+02
3.600000e-07	-4.151502e-06	-7.563701e-09	-2.953752e+01	-4.955969e+02
3.700000e-07	-4.084956e-06	-7.464964e-09	-2.906406e+01	-4.915073e+02
3.800000e-07	-4.016893e-06	-7.430937e-09	-2.857979e+01	-4.872923e+02
3.900000e-07	-3.947419e-06	-7.369900e-09	-2.808549e+01	-4.829466e+02
4.000000e-07	-3.876663e-06	-7.298277e-09	-2.758207e+01	-4.784668e+02
4.100000e-07	-3.804751e-06	-7.213654e-09	-2.707042e+01	-4.738515e+02
4.200000e-07	-3.731466e-06	-7.153636e-09	-2.654900e+01	-4.691005e+02
4.300000e-07	-3.656558e-06	-7.073573e-09	-2.601604e+01	-4.642153e+02
4.400000e-07	-3.580058e-06	-6.987680e-09	-2.547175e+01	-4.591978e+02
4.500000e-07	-3.502149e-06	-6.929578e-09	-2.491744e+01	-4.540500e+02
4.600000e-07	-3.422846e-06	-6.864096e-09	-2.435321e+01	-4.487734e+02
4.700000e-07	-3.342243e-06	-6.773372e-09	-2.377972e+01	-4.433684e+02
4.800000e-07	-3.260448e-06	-6.656713e-09	-2.319776e+01	-4.378342e+02
4.900000e-07	-3.177471e-06	-6.572106e-09	-2.260738e+01	-4.321687e+02
5.000000e-07	-3.093496e-06	-6.497515e-09	-2.200991e+01	-4.263686e+02
5.100000e-07	-3.008650e-06	-6.405436e-09	-2.140624e+01	-4.204298e+02
5.200000e-07	-2.922848e-06	-6.307694e-09	-2.079577e+01	-4.143480e+02
5.300000e-07	-2.835977e-06	-6.210135e-09	-2.017769e+01	-4.081186e+02
5.400000e-07	-2.748225e-06	-6.115189e-09	-1.955334e+01	-4.017379e+02
5.500000e-07	-2.659613e-06	-6.021046e-09	-1.892288e+01	-3.952026e+02
5.600000e-07	-2.569803e-06	-5.920799e-09	-1.828389e+01	-3.885103e+02
5.700000e-07	-2.478799e-06	-5.809809e-09	-1.763641e+01	-3.816596e+02
5.800000e-07	-2.386920e-06	-5.691200e-09	-1.698270e+01	-3.746495e+02
5.900000e-07	-2.294312e-06	-5.577528e-09	-1.632380e+01	-3.674793e+02
6.000000e-07	-2.200901e-06	-5.472147e-09	-1.565919e+01	-3.601479e+02
6.100000e-07	-2.106724e-06	-5.363116e-09	-1.498913e+01	-3.526542e+02
6.200000e-07	-2.011808e-06	-5.247199e-09	-1.431381e+01	-3.449957e+02
6.300000e-07	-1.916142e-06	-5.123156e-09	-1.363316e+01	-3.371694e+02
6.400000e-07	-1.819799e-06	-4.999579e-09	-1.294769e+01	-3.291711e+02
6.500000e-07	-1.722786e-06	-4.879376e-09	-1.225745e+01	-3.209955e+02
6.600000e-07	-1.624983e-06	-4.754209e-09	-1.156159e+01	-3.126370e+02
6.700000e-07	-1.526375e-06	-4.619004e-09	-1.086000e+01	-3.040895e+02
6.800000e-07	-1.427103e-06	-4.478310e-09	-1.015369e+01	-2.953469e+02
6.900000e-07	-1.327385e-06	-4.339317e-09	-9.444214e+00	-2.864035e+02
7.000000e-07	-1.227379e-06	-4.202499e-09	-8.732676e+00	-2.772543e+02
7.100000e-07	-1.127109e-06	-4.062041e-09	-8.019269e+00	-2.678948e+02
7.200000e-07	-1.026571e-06	-3.911297e-09	-7.303951e+00	-2.583214e+02
7.300000e-07	-9.257439e-07	-3.756865e-09	-6.586575e+00	-2.485311e+02
7.400000e-07	-8.245437e-07	-3.601421e-09	-5.866545e+00	-2.385215e+02
7.500000e-07	-7.229303e-07	-3.446406e-09	-5.143577e+00	-2.282901e+02
7.600000e-07	-6.210222e-07	-3.289306e-09	-4.418510e+00	-2.178345e+02
7.700000e-07	-5.189392e-07	-3.125444e-09	-3.692200e+00	-2.071519e+02
7.800000e-07	-4.167295e-07	-2.956960e-09	-2.964988e+00	-1.962387e+02
7.900000e-07	-3.144154e-07	-2.784410e-09	-2.237034e+00	-1.850907e+02
8.000000e-07	-2.119712e-07	-2.609580e-09	-1.508154e+00	-1.737027e+02
8.100000e-07	-1.094163e-07	-2.431872e-09	-7.784861e-01	-1.620684e+02
8.200000e-07	-6.844138e-09	-2.250675e-09	-4.869536e-02	-1.501803e+02
8.300000e-07	9.570376e-08	-2.064858e-09	6.809227e-01	-1.380302e+02
8.400000e-07	1.982519e-07	-1.874442e-09	1.410542e+00	-1.256084e+02
8.500000e-07	3.007977e-07	-1.679396e-09	2.140145e+00	-1.129044e+02
8.600000e-07	4.032670e-07	-1.481703e-09	2.869204e+00	-9.990649e+01
8.700000e-07	5.056458e-07	-1.279418e-09	3.597619e+00	-8.660248e+01
8.800000e-07	6.078718e-07	-1.070506e-09	4.324947e+00	-7.297973e+01
8.900000e-07	7.098863e-07	-8.577153e-10	5.050769e+00	-5.902586e+01
9.000000e-07	8.116732e-07	-6.407277e-10	5.774973e+00	-4.472959e+01
9.100000e-07	9.131339e-07	-4.205378e-10	6.496856e+00	-3.008186e+01
9.200000e-07	1.014205e-06	-1.942415e-10	7.215969e+00	-1.507711e+01
9.300000e-07	1.114937e-06	4.005046e-11	7.932662e+00	2.851802e-01
9.400000e-07	1.215352e-06	2.814264e-10	8.647108e+00	1.599893e+01
9.500000e-07	1.315442e-06	5.261744e-10	9.359236e+00	3.204999e+01
9.600000e-07	1.415178e-06	7.741454e-10	1.006885e+01	4.841490e+01
9.700000e-07	1.514423e-06	1.027706e-09	1.077497e+01	6.506002e+01
9.800000e-07	1.612913e-06	1.283825e-09	1.147572e+01	8.194129e+01
9.900000e-07	1.710514e-06	1.542644e-09	1.217014e+01	9.900456e+01
1.000000e-06	1.807316e-06	1.803487e-09	1.285887e+01	1.161867e+02
1.010000e-06	1.903393e-06	2.065387e-09	1.354245e+01	1.334175e+02
1.020000e-06	1.998806e-06	2.326572e-09	1.422130e+01	1.506217e+02
1.030000e-06	2.093525e-06	2.586323e-09	1.489522e+01	1.677224e+02
1.040000e-06	2.187509e-06	2.844931e-09	1.556391e+01	1.846437e+02
1.050000e-06	2.280725e-06	3.097545e-09	1.622713e+01	2.013139e+02
1.060000e-06	2.373240e-06	3.344535e-09	1.688536e+01	2.176683e+02
1.070000e-06	2.465147e-06	3.587094e-09	1.753928e+01	2.336514e+02
1.080000e-06	2.556245e-06	3.824952e-09	1.818742e+01	2.492183e+02
1.090000e-06	2.646198e-06	4.055889e-09	1.882744e+01	2.643357e+02
1.100000e-06	2.734944e-06	4.277586e-09	1.945885e+01	2.789816e+02
1.110000e-06	2.822697e-06	4.488870e-09	2.008321e+01	2.931443e+02
1.120000e-06	2.909524e-06	4.692354e-09	2.070097e+01	3.068207e+02
1.130000e-06	2.995431e-06	4.892064e-09	2.131219e+01	3.200144e+02
1.140000e-06	3.080385e-06	5.087072e-09	2.191663e+01	3.327336e+02
1.150000e-06	3.164453e-06	5.273977e-09	2.251476e+01	3.449884e+02
1.160000e-06	3.247573e-06	5.452366e-09	2.310615e+01	3.567895e+02
1.170000e-06	3.329421e-06	5.625726e-09	2.368850e+01	3.681464e+02
1.180000e-06	3.410012e-06	5.793260e-09	2.426189e+01	3.790667e+02
1.190000e-06	3.489410e-06	5.953807e-09	2.482680e+01	3.895561e+02
1.200000e-06	3.567587e-06	6.106070e-09	2.538302e+01	3.996185e+02
1.210000e-06	3.644533e-06	6.252507e-09	2.593049e+01	4.092571e+02
1.220000e-06	3.720179e-06	6.392734e-09	2.646870e+01	4.184757e+02
1.230000e-06	3.794220e-06	6.527022e-09	2.699549e+01	4.272792e+02
1.240000e-06	3.866578e-06	6.655320e-09	2.751031e+01	4.356756e+02
1.250000e-06	3.937551e-06	6.776314e-09	2.801528e+01	4.436760e+02
1.260000e-06	4.007231e-06	6.888866e-09	2.851105e+01	4.512951e+02
1.270000e-06	4.075592e-06	6.995034e-09	2.899743e+01	4.585512e+02
1.280000e-06	4.142503e-06	7.099146e-09	2.947349e+01	4.654654e+02
1.290000e-06	4.207671e-06	7.200615e-09	2.993716e+01	4.720603e+02
1.300000e-06	4.271264e-06	7.297972e-09	3.038962e+01	4.783593e+02
1.310000e-06	4.333489e-06	7.389425e-09	3.083234e+01	4.843845e+02
1.320000e-06	4.394283e-06	7.477355e-09	3.126488e+01	4.901563e+02
1.330000e-06	4.453678e-06	7.562225e-09	3.168747e+01	4.956914e+02
1.340000e-06	4.511343e-06	7.643525e-09	3.209776e+01	5.010029e+02
1.350000e-06	4.567175e-06	7.720782e-09	3.249499e+01	5.061001e+02
1.360000e-06	4.621365e-06	7.793553e-09	3.288055e+01	5.109882e+02
1.370000e-06	4.673842e-06	7.862984e-09	3.325392e+01	5.156693e+02
1.380000e-06	4.724332e-06	7.930161e-09	3.361315e+01	5.201434e+02
1.390000e-06	4.772802e-06	7.995768e-09	3.395800e+01	5.244089e+02
1.400000e-06	4.819525e-06	8.058701e-09	3.429044e+01	5.284643e+02
1.410000e-06	4.864708e-06	8.117097e-09	3.461191e+01	5.323083e+02
1.420000e-06	4.908364e-06	8.171158e-09	3.492252e+01	5.359410e+02
1.430000e-06	4.950129e-06	8.220945e-09	3.521967e+01	5.393641e+02
1.440000e-06	4.990034e-06	8.267579e-09	3.550359e+01	5.425808e+02
1.450000e-06	5.028318e-06	8.312974e-09	3.577598e+01	5.455956e+02
1.460000e-06	5.064993e-06	8.355700e-09	3.603691e+01	5.484141e+02
1.470000e-06	5.099907e-06	8.393269e-09	3.628532e+01	5.510423e+02
1.480000e-06	5.132850e-06	8.427170e-09	3.651971e+01	5.534860e+02
1.490000e-06	5.163975e-06	8.458787e-09	3.674116e+01	5.557510e+02
1.500000e-06	5.193388e-06	8.487398e-09	3.695043e+01	5.578421e+02
1.510000e-06	5.221144e-06	8.513835e-09	3.714792e+01	5.597638e+02
1.520000e-06	5.246947e-06	8.539544e-09	3.733150e+01	5.615201e+02
1.530000e-06	5.270618e-06	8.563968e-09	3.749991e+01	5.631146e+02
1.540000e-06	5.292486e-06	8.585011e-09	3.765550e+01	5.645511e+02
1.550000e-06	5.312672e-06	8.603980e-09	3.779913e+01	5.658339e+02
1.560000e-06	5.330979e-06	8.620656e-09	3.792938e+01	5.669677e+02
1.570000e-06	5.347259e-06	8.634901e-09	3.804521e+01	5.679579e+02
1.580000e-06	5.361629e-06	8.647129e-09	3.814745e+01	5.688100e+02
1.590000e-06	5.374021e-06	8.657867e-09	3.823562e+01	5.695299e+02
1.600000e-06	5.384162e-06	8.667727e-09	3.830777e+01	5.701230e+02
1.610000e-06	5.392201e-06	8.675586e-09	3.836497e+01	5.705936e+02
1.620000e-06	5.398358e-06	8.681596e-09	3.840878e+01	5.709450e+02
1.630000e-06	5.402721e-06	8.687447e-09	3.843982e+01	5.711788e+02
1.640000e-06	5.405164e-06	8.692283e-09	3.845720e+01	5.712951e+02
1.650000e-06	5.405558e-06	8.695085e-09	3.846000e+01	5.712923e+02
1.660000e-06	5.404160e-06	8.690179e-09	3.845005e+01	5.711683e+02
1.670000e-06	5.401184e-06	8.685764e-09	3.842888e+01	5.709203e+02
1.680000e-06	5.396463e-06	8.681926e-09	3.839529e+01	5.705463e+02
1.690000e-06	5.389773e-06	8.672934e-09	3.834769e+01	5.700453e+02
1.700000e-06	5.381371e-06	8.663989e-09	3.828791e+01	5.694186e+02
1.710000e-06	5.371427e-06	8.657577e-09	3.821716e+01	5.686697e+02
1.720000e-06	5.359780e-06	8.666574e-09	3.813430e+01	5.678046e+02
1.730000e-06	5.346176e-06	8.649776e-09	3.803750e+01	5.668316e+02
1.740000e-06	5.330479e-06	8.537950e-09	3.792582e+01	5.657608e+02
1.750000e-06	5.312390e-06	8.534175e-09	3.779712e+01	5.646026e+02
1.760000e-06	5.291524e-06	8.547707e-09	3.764866e+01	5.633674e+02
1.770000e-06	5.268339e-06	8.575600e-09	3.748370e+01	5.620637e+02
1.780000e-06	5.243847e-06	8.686750e-09	3.730944e+01	5.606973e+02
1.790000e-06	5.218683e-06	8.447127e-09	3.713040e+01	5.592704e+02
1.800000e-06	5.192151e-06	8.418222e-09	3.694163e+01	5.577813e+02
1.810000e-06	5.163313e-06	8.559414e-09	3.673645e+01	5.562240e+02
1.820000e-06	5.132644e-06	8.312076e-09	3.651825e+01	5.545892e+02
1.830000e-06	5.100383e-06	8.437253e-09	3.628871e+01	5.528646e+02
1.840000e-06	5.066194e-06	8.529599e-09	3.604546e+01	5.510364e+02
1.850000e-06	5.030393e-06	8.236087e-09	3.579074e+01	5.490908e+02
1.860000e-06	4.992834e-06	8.393685e-09	3.552351e+01	5.470153e+02
1.870000e-06	4.953398e-06	8.384881e-09	3.524293e+01	5.447997e+02
1.880000e-06	4.912322e-06	8.172302e-09	3.495068e+01	5.424374e+02
1.890000e-06	4.869405e-06	8.252996e-09	3.464533e+01	5.399259e+02
1.900000e-06	4.824875e-06	8.104230e-09	3.432850e+01	5.372665e+02
1.910000e-06	4.778504e-06	8.138710e-09	3.399858e+01	5.344641e+02
1.920000e-06	4.730026e-06	8.143923e-09	3.365366e+01	5.315265e+02
1.930000e-06	4.679975e-06	7.959885e-09	3.329755e+01	5.284630e+02
1.940000e-06	4.628185e-06	8.091168e-09	3.292907e+01	5.252833e+02
1.950000e-06	4.574299e-06	7.961820e-09	3.254568e+01	5.219963e+02
1.960000e-06	4.518470e-06	7.821322e-09	3.214846e+01	5.186088e+02
1.970000e-06	4.460940e-06	7.826359e-09	3.173914e+01	5.151252e+02
1.980000e-06	4.402024e-06	7.773509e-09	3.131996e+01	5.115468e+02
1.990000e-06	4.341569e-06	7.793915e-09	3.088983e+01	5.078719e+02
2.000000e-06	4.279373e-06	7.623704e-09	3.044731e+01	5.040963e+02
2.010000e-06	4.215566e-06	7.622649e-09	2.999333e+01	5.002142e+02
2.020000e-06	4.150302e-06	7.605340e-09	2.952898e+01	4.962185e+02
2.030000e-06	4.083656e-06	7.427005e-09	2.905480e+01	4.921022e+02
2.040000e-06	4.015534e-06	7.431625e-09	2.857012e+01	4.878593e+02
2.050000e-06	3.945899e-06	7.370282e-09	2.807468e+01	4.834847e+02
2.060000e-06	3.874804e-06	7.315411e-09	2.756884e+01	4.789757e+02
2.070000e-06	3.802341e-06	7.197943e-09	2.705327e+01	4.743309e+02
2.080000e-06	3.728573e-06	7.114241e-09	2.652842e+01	4.695507e+02
2.090000e-06	3.653471e-06	7.109297e-09	2.599408e+01	4.646367e+02
2.100000e-06	3.576883e-06	6.989633e-09	2.544916e+01	4.595908e+02
2.110000e-06	3.498645e-06	6.900937e-09	2.489251e+01	4.544150e+02
2.120000e-06	3.419080e-06	6.817883e-09	2.432641e+01	4.491105e+02
2.130000e-06	3.338447e-06	6.768233e-09	2.375271e+01	4.436776e+02
2.140000e-06	3.256637e-06	6.678957e-09	2.317065e+01	4.381152e+02
2.150000e-06	3.173768e-06	6.579311e-09	2.258104e+01	4.324208e+02
2.160000e-06	3.089922e-06	6.510482e-09	2.198448e+01	4.265910e+02
2.170000e-06	3.004891e-06	6.400669e-09	2.137950e+01	4.206217e+02
2.180000e-06	2.918458e-06	6.304647e-09	2.076454e+01	4.145083e+02
2.190000e-06	2.830861e-06	6.202603e-09	2.014129e+01	4.082465e+02
2.200000e-06	2.742347e-06	6.125092e-09	1.951153e+01	4.018325e+02
2.210000e-06	2.652921e-06	6.033103e-09	1.887526e+01	3.952634e+02
2.220000e-06	2.562518e-06	5.919477e-09	1.823206e+01	3.885370e+02
2.230000e-06	2.471249e-06	5.814427e-09	1.758269e+01	3.816519e+02
2.240000e-06	2.379306e-06	5.710068e-09	1.692853e+01	3.746073e+02
2.250000e-06	2.286602e-06	5.608888e-09	1.626894e+01	3.674022e+02
2.260000e-06	2.192979e-06	5.490429e-09	1.560282e+01	3.600359e+02
2.270000e-06	2.098313e-06	5.369941e-09	1.492929e+01	3.525068e+02
2.280000e-06	2.002691e-06	5.252493e-09	1.424894e+01	3.448124e+02
2.290000e-06	1.906359e-06	5.137084e-09	1.356355e+01	3.369493e+02
2.300000e-06	1.809519e-06	5.015650e-09	1.287455e+01	3.289130e+02
2.310000e-06	1.712216e-06	4.893639e-09	1.218224e+01	3.206985e+02
2.320000e-06	1.614314e-06	4.766925e-09	1.148568e+01	3.122997e+02
2.330000e-06	1.515820e-06	4.632173e-09	1.078491e+01	3.037105e+02
2.340000e-06	1.416840e-06	4.499339e-09	1.008068e+01	2.949250e+02
2.350000e-06	1.317435e-06	4.365555e-09	9.373415e+00	2.859376e+02
2.360000e-06	1.217702e-06	4.232421e-09	8.663828e+00	2.767434e+02
2.370000e-06	1.117686e-06	4.089890e-09	7.952225e+00	2.673380e+02
2.380000e-06	1.017407e-06	3.937719e-09	7.238752e+00	2.577180e+02
2.390000e-06	9.168106e-07	3.788881e-09	6.523015e+00	2.478807e+02
2.400000e-06	8.157898e-07	3.643270e-09	5.804262e+00	2.378234e+02
2.410000e-06	7.143669e-07	3.491456e-09	5.082649e+00	2.275439e+02
2.420000e-06	6.126104e-07	3.329053e-09	4.358662e+00	2.170396e+02
2.430000e-06	5.105115e-07	3.161641e-09	3.632238e+00	2.063075e+02
2.440000e-06	4.081451e-07	2.997867e-09	2.903911e+00	1.953441e+02
2.450000e-06	3.056069e-07	2.831388e-09	2.174362e+00	1.841449e+02
2.460000e-06	2.028577e-07	2.656783e-09	1.443312e+00	1.727043e+02
2.470000e-06	9.994067e-08	2.480600e-09	7.110679e-01	1.610159e+02
2.480000e-06	-3.019918e-09	2.298054e-09	-2.148641e-02	1.490722e+02
2.490000e-06	-1.059402e-07	2.108822e-09	-7.537541e-01	1.368644e+02
2.500000e-06	-2.088259e-07	1.919545e-09	-1.485776e+00	1.243827e+02
2.510000e-06	-3.116282e-07	1.730754e-09	-2.217203e+00	1.116164e+02
2.520000e-06	-4.142831e-07	1.536935e-09	-2.947582e+00	9.855361e+01
2.530000e-06	-5.167865e-07	1.331343e-09	-3.676884e+00	8.518204e+01
2.540000e-06	-6.190029e-07	1.120563e-09	-4.404143e+00	7.148904e+01
2.550000e-06	-7.208723e-07	9.060735e-10	-5.128934e+00	5.746237e+01
2.560000e-06	-8.223105e-07	6.813910e-10	-5.850657e+00	4.309114e+01
2.570000e-06	-9.232587e-07	4.506130e-10	-6.568893e+00	2.836690e+01
2.580000e-06	-1.023835e-06	2.187178e-10	-7.284483e+00	1.328506e+01
2.590000e-06	-1.124074e-06	-1.469724e-11	-7.997675e+00	-2.153629e+00
2.600000e-06	-1.223972e-06	-2.516336e-10	-8.708441e+00	-1.794147e+01
2.610000e-06	-1.323502e-06	-4.925714e-10	-9.416585e+00	-3.406242e+01
2.620000e-06	-1.422554e-06	-7.414849e-10	-1.012133e+01	-5.049087e+01
2.630000e-06	-1.521067e-06	-9.999422e-10	-1.082224e+01	-6.719098e+01
2.640000e-06	-1.619119e-06	-1.263340e-09	-1.151987e+01	-8.411645e+01
2.650000e-06	-1.716593e-06	-1.526890e-09	-1.221339e+01	-1.012111e+02
2.660000e-06	-1.813362e-06	-1.789974e-09	-1.290189e+01	-1.184101e+02
2.670000e-06	-1.909574e-06	-2.055362e-09	-1.358643e+01	-1.356419e+02
2.680000e-06	-2.005335e-06	-2.317973e-09	-1.426776e+01	-1.528308e+02
2.690000e-06	-2.100541e-06	-2.577863e-09	-1.494514e+01	-1.698997e+02
2.700000e-06	-2.194784e-06	-2.834694e-09	-1.561567e+01	-1.867733e+02
2.710000e-06	-2.287868e-06	-3.086706e-09	-1.627795e+01	-2.033814e+02
2.720000e-06	-2.380066e-06	-3.334517e-09	-1.693393e+01	-2.196608e+02
2.730000e-06	-2.471485e-06	-3.576187e-09	-1.758436e+01	-2.355584e+02
2.740000e-06	-2.562026e-06	-3.812970e-09	-1.822855e+01	-2.510317e+02
2.750000e-06	-2.651570e-06	-4.044277e-09	-1.886565e+01	-2.660499e+02
2.760000e-06	-2.740140e-06	-4.269511e-09	-1.949582e+01	-2.805933e+02
2.770000e-06	-2.828032e-06	-4.489148e-09	-2.012117e+01	-2.946520e+02
2.780000e-06	-2.915169e-06	-4.700343e-09	-2.074113e+01	-3.082248e+02
2.790000e-06	-3.001082e-06	-4.902486e-09	-2.135240e+01	-3.213164e+02
2.800000e-06	-3.085679e-06	-5.097622e-09	-2.195430e+01	-3.339355e+02
2.810000e-06	-3.169211e-06	-5.283258e-09	-2.254862e+01	-3.460926e+02
2.820000e-06	-3.251780e-06	-5.457640e-09	-2.313609e+01	-3.577980e+02
2.830000e-06	-3.333270e-06	-5.626018e-09	-2.371588e+01	-3.690611e+02
2.840000e-06	-3.413690e-06	-5.790478e-09	-2.428806e+01	-3.798890e+02
2.850000e-06	-3.492950e-06	-5.948249e-09	-2.485199e+01	-3.902869e+02
2.860000e-06	-3.570708e-06	-6.098785e-09	-2.540523e+01	-4.002585e+02
2.870000e-06	-3.646933e-06	-6.244784e-09	-2.594756e+01	-4.098071e+02
2.880000e-06	-3.721724e-06	-6.386587e-09	-2.647969e+01	-4.189366e+02
2.890000e-06	-3.795105e-06	-6.520928e-09	-2.700179e+01	-4.276524e+02
2.900000e-06	-3.867249e-06	-6.650324e-09	-2.751509e+01	-4.359632e+02
2.910000e-06	-3.938030e-06	-6.776622e-09	-2.801868e+01	-4.438808e+02
2.920000e-06	-4.007167e-06	-6.894436e-09	-2.851059e+01	-4.514209e+02
2.930000e-06	-4.074796e-06	-7.001273e-09	-2.899176e+01	-4.586021e+02
2.940000e-06	-4.141102e-06	-7.103655e-09	-2.946353e+01	-4.654462e+02
