# Temperatura_=_59.77
# Concentracion g/m^3_=_15000.0
# C_Vs_to_Am_M_A/Vsm_=_65563218390.804596
# pendiente_HvsI_1/m_=_3716.3
# ordenada_HvsI_A/m_=_1297.0
# frecuencia_Hz_=_301598.86455158604

Tiempo_(s)	Campo_(V.s)	Magnetizacion_(V.s)	Campo_(kA/m)	Magnetizacion_(A/m)
0.000000e+00	-5.420052e-06	-8.831412e-09	-3.834075e+01	-5.770579e+02
1.000000e-08	-5.417958e-06	-8.827816e-09	-3.832594e+01	-5.768274e+02
2.000000e-08	-5.413992e-06	-8.821956e-09	-3.829789e+01	-5.764779e+02
3.000000e-08	-5.408328e-06	-8.815564e-09	-3.825782e+01	-5.760072e+02
4.000000e-08	-5.401033e-06	-8.807700e-09	-3.820622e+01	-5.754142e+02
5.000000e-08	-5.391970e-06	-8.795811e-09	-3.814211e+01	-5.747002e+02
6.000000e-08	-5.380896e-06	-8.780825e-09	-3.806377e+01	-5.738688e+02
7.000000e-08	-5.367908e-06	-8.767191e-09	-3.797189e+01	-5.729264e+02
8.000000e-08	-5.352944e-06	-8.755023e-09	-3.786604e+01	-5.718822e+02
9.000000e-08	-5.335734e-06	-8.752421e-09	-3.774430e+01	-5.707472e+02
1.000000e-07	-5.316374e-06	-8.746812e-09	-3.760735e+01	-5.695330e+02
1.100000e-07	-5.295055e-06	-8.711613e-09	-3.745654e+01	-5.682511e+02
1.200000e-07	-5.271948e-06	-8.668491e-09	-3.729309e+01	-5.669109e+02
1.300000e-07	-5.247227e-06	-8.626998e-09	-3.711822e+01	-5.655188e+02
1.400000e-07	-5.220899e-06	-8.595570e-09	-3.693197e+01	-5.640768e+02
1.500000e-07	-5.192985e-06	-8.613287e-09	-3.673452e+01	-5.625823e+02
1.600000e-07	-5.163564e-06	-8.594567e-09	-3.652639e+01	-5.610279e+02
1.700000e-07	-5.132604e-06	-8.546073e-09	-3.630739e+01	-5.594020e+02
1.800000e-07	-5.099697e-06	-8.540383e-09	-3.607461e+01	-5.576895e+02
1.900000e-07	-5.064795e-06	-8.474572e-09	-3.582771e+01	-5.558737e+02
2.000000e-07	-5.028367e-06	-8.427053e-09	-3.557002e+01	-5.539377e+02
2.100000e-07	-4.990259e-06	-8.436107e-09	-3.530046e+01	-5.518659e+02
2.200000e-07	-4.950279e-06	-8.361644e-09	-3.501764e+01	-5.496459e+02
2.300000e-07	-4.908383e-06	-8.321062e-09	-3.472127e+01	-5.472692e+02
2.400000e-07	-4.864520e-06	-8.326688e-09	-3.441099e+01	-5.447323e+02
2.500000e-07	-4.818864e-06	-8.258162e-09	-3.408803e+01	-5.420362e+02
2.600000e-07	-4.771357e-06	-8.212506e-09	-3.375197e+01	-5.391866e+02
2.700000e-07	-4.721717e-06	-8.180537e-09	-3.340083e+01	-5.361921e+02
2.800000e-07	-4.669940e-06	-8.120506e-09	-3.303456e+01	-5.330635e+02
2.900000e-07	-4.616331e-06	-8.061652e-09	-3.265533e+01	-5.298119e+02
3.000000e-07	-4.561060e-06	-8.012542e-09	-3.226436e+01	-5.264476e+02
3.100000e-07	-4.504106e-06	-7.973797e-09	-3.186147e+01	-5.229785e+02
3.200000e-07	-4.445380e-06	-7.919433e-09	-3.144605e+01	-5.194094e+02
3.300000e-07	-4.384976e-06	-7.862701e-09	-3.101876e+01	-5.157416e+02
3.400000e-07	-4.323090e-06	-7.804622e-09	-3.058098e+01	-5.119729e+02
3.500000e-07	-4.259797e-06	-7.742708e-09	-3.013326e+01	-5.080981e+02
3.600000e-07	-4.194971e-06	-7.687913e-09	-2.967469e+01	-5.041099e+02
3.700000e-07	-4.128473e-06	-7.614503e-09	-2.920429e+01	-5.000002e+02
3.800000e-07	-4.060447e-06	-7.547469e-09	-2.872308e+01	-4.957607e+02
3.900000e-07	-3.991045e-06	-7.488215e-09	-2.823214e+01	-4.913843e+02
4.000000e-07	-3.920385e-06	-7.411072e-09	-2.773230e+01	-4.868659e+02
4.100000e-07	-3.848476e-06	-7.344231e-09	-2.722362e+01	-4.822024e+02
4.200000e-07	-3.775116e-06	-7.275196e-09	-2.670469e+01	-4.773930e+02
4.300000e-07	-3.700168e-06	-7.199565e-09	-2.617452e+01	-4.724392e+02
4.400000e-07	-3.623689e-06	-7.119391e-09	-2.563351e+01	-4.673435e+02
4.500000e-07	-3.545704e-06	-7.041891e-09	-2.508185e+01	-4.621092e+02
4.600000e-07	-3.466248e-06	-6.964928e-09	-2.451980e+01	-4.567394e+02
4.700000e-07	-3.385502e-06	-6.880862e-09	-2.394861e+01	-4.512362e+02
4.800000e-07	-3.303640e-06	-6.795993e-09	-2.336953e+01	-4.456005e+02
4.900000e-07	-3.220703e-06	-6.706147e-09	-2.278284e+01	-4.398312e+02
5.000000e-07	-3.136716e-06	-6.614329e-09	-2.218873e+01	-4.339257e+02
5.100000e-07	-3.051697e-06	-6.517526e-09	-2.158732e+01	-4.278802e+02
5.200000e-07	-2.965718e-06	-6.420136e-09	-2.097911e+01	-4.216899e+02
5.300000e-07	-2.878845e-06	-6.325908e-09	-2.036458e+01	-4.153496e+02
5.400000e-07	-2.790999e-06	-6.229753e-09	-1.974317e+01	-4.088546e+02
5.500000e-07	-2.702095e-06	-6.127096e-09	-1.911427e+01	-4.022010e+02
5.600000e-07	-2.612004e-06	-6.019941e-09	-1.847698e+01	-3.953860e+02
5.700000e-07	-2.520811e-06	-5.913722e-09	-1.783190e+01	-3.884083e+02
5.800000e-07	-2.428721e-06	-5.803612e-09	-1.718047e+01	-3.812675e+02
5.900000e-07	-2.335806e-06	-5.688785e-09	-1.652319e+01	-3.739641e+02
6.000000e-07	-2.242066e-06	-5.575630e-09	-1.586009e+01	-3.664988e+02
6.100000e-07	-2.147564e-06	-5.462215e-09	-1.519159e+01	-3.588721e+02
6.200000e-07	-2.052389e-06	-5.344293e-09	-1.451834e+01	-3.510837e+02
6.300000e-07	-1.956492e-06	-5.221213e-09	-1.383998e+01	-3.431319e+02
6.400000e-07	-1.859804e-06	-5.096169e-09	-1.315601e+01	-3.350138e+02
6.500000e-07	-1.762304e-06	-4.969626e-09	-1.246631e+01	-3.267248e+02
6.600000e-07	-1.664022e-06	-4.836818e-09	-1.177108e+01	-3.182589e+02
6.700000e-07	-1.565030e-06	-4.702162e-09	-1.107082e+01	-3.096093e+02
6.800000e-07	-1.465495e-06	-4.567714e-09	-1.036673e+01	-3.007684e+02
6.900000e-07	-1.365568e-06	-4.429896e-09	-9.659850e+00	-2.917290e+02
7.000000e-07	-1.265268e-06	-4.287942e-09	-8.950342e+00	-2.824840e+02
7.100000e-07	-1.164558e-06	-4.142406e-09	-8.237932e+00	-2.730274e+02
7.200000e-07	-1.063473e-06	-3.994209e-09	-7.522869e+00	-2.633545e+02
7.300000e-07	-9.620634e-07	-3.841180e-09	-6.805513e+00	-2.534615e+02
7.400000e-07	-8.603214e-07	-3.684585e-09	-6.085804e+00	-2.433459e+02
7.500000e-07	-7.582422e-07	-3.524994e-09	-5.363708e+00	-2.330060e+02
7.600000e-07	-6.559007e-07	-3.360551e-09	-4.639757e+00	-2.224404e+02
7.700000e-07	-5.533445e-07	-3.193036e-09	-3.914289e+00	-2.116477e+02
7.800000e-07	-4.506015e-07	-3.023895e-09	-3.187497e+00	-2.006262e+02
7.900000e-07	-3.477690e-07	-2.853821e-09	-2.460073e+00	-1.893730e+02
8.000000e-07	-2.448614e-07	-2.679183e-09	-1.732119e+00	-1.778841e+02
8.100000e-07	-1.418567e-07	-2.497936e-09	-1.003476e+00	-1.661541e+02
8.200000e-07	-3.876323e-08	-2.313304e-09	-2.742061e-01	-1.541758e+02
8.300000e-07	6.434061e-08	-2.126962e-09	4.551373e-01	-1.419404e+02
8.400000e-07	1.674236e-07	-1.936568e-09	1.184333e+00	-1.294377e+02
8.500000e-07	2.704743e-07	-1.739915e-09	1.913301e+00	-1.166559e+02
8.600000e-07	3.734439e-07	-1.541384e-09	2.641695e+00	-1.035823e+02
8.700000e-07	4.763329e-07	-1.339218e-09	3.369518e+00	-9.020304e+01
8.800000e-07	5.791289e-07	-1.131273e-09	4.096684e+00	-7.650432e+01
8.900000e-07	6.817682e-07	-9.186338e-10	4.822741e+00	-6.247258e+01
9.000000e-07	7.842182e-07	-7.009086e-10	5.547460e+00	-4.809549e+01
9.100000e-07	8.863983e-07	-4.773254e-10	6.270269e+00	-3.336301e+01
9.200000e-07	9.882009e-07	-2.475452e-10	6.990407e+00	-1.826866e+01
9.300000e-07	1.089598e-06	-1.225225e-11	7.707677e+00	-2.810852e+00
9.400000e-07	1.190617e-06	2.283129e-10	8.422274e+00	1.300559e+01
9.500000e-07	1.291248e-06	4.731272e-10	9.134125e+00	2.916800e+01
9.600000e-07	1.391475e-06	7.219174e-10	9.843115e+00	4.565464e+01
9.700000e-07	1.491295e-06	9.758039e-10	1.054923e+01	6.243375e+01
9.800000e-07	1.590622e-06	1.234415e-09	1.125186e+01	7.946313e+01
9.900000e-07	1.689323e-06	1.495246e-09	1.195006e+01	9.669034e+01
1.000000e-06	1.787274e-06	1.756700e-09	1.264295e+01	1.140535e+02
1.010000e-06	1.884349e-06	2.019024e-09	1.332965e+01	1.314830e+02
1.020000e-06	1.980533e-06	2.283617e-09	1.401004e+01	1.489034e+02
1.030000e-06	2.075948e-06	2.548121e-09	1.468499e+01	1.662367e+02
1.040000e-06	2.170687e-06	2.810030e-09	1.535516e+01	1.834050e+02
1.050000e-06	2.264694e-06	3.066491e-09	1.602015e+01	2.003339e+02
1.060000e-06	2.357893e-06	3.316207e-09	1.667943e+01	2.169553e+02
1.070000e-06	2.450355e-06	3.560870e-09	1.733350e+01	2.332101e+02
1.080000e-06	2.542145e-06	3.802548e-09	1.798281e+01	2.490501e+02
1.090000e-06	2.633123e-06	4.038189e-09	1.862637e+01	2.644390e+02
1.100000e-06	2.722979e-06	4.265478e-09	1.926201e+01	2.793527e+02
1.110000e-06	2.811587e-06	4.482360e-09	1.988881e+01	2.937780e+02
1.120000e-06	2.899151e-06	4.689612e-09	2.050822e+01	3.077118e+02
1.130000e-06	2.985819e-06	4.892054e-09	2.112130e+01	3.211586e+02
1.140000e-06	3.071527e-06	5.090318e-09	2.172759e+01	3.341280e+02
1.150000e-06	3.156249e-06	5.280749e-09	2.232690e+01	3.466325e+02
1.160000e-06	3.240056e-06	5.463194e-09	2.291974e+01	3.586848e+02
1.170000e-06	3.322842e-06	5.639482e-09	2.350536e+01	3.702964e+02
1.180000e-06	3.404367e-06	5.809533e-09	2.408206e+01	3.814763e+02
1.190000e-06	3.484580e-06	5.973221e-09	2.464948e+01	3.922303e+02
1.200000e-06	3.563561e-06	6.130863e-09	2.520817e+01	4.025619e+02
1.210000e-06	3.641281e-06	6.282238e-09	2.575796e+01	4.124724e+02
1.220000e-06	3.717712e-06	6.427660e-09	2.629862e+01	4.219626e+02
1.230000e-06	3.792736e-06	6.566628e-09	2.682933e+01	4.310343e+02
1.240000e-06	3.866096e-06	6.697903e-09	2.734827e+01	4.396917e+02
1.250000e-06	3.937882e-06	6.821534e-09	2.785608e+01	4.479422e+02
1.260000e-06	4.008288e-06	6.937698e-09	2.835411e+01	4.557976e+02
1.270000e-06	4.077315e-06	7.048405e-09	2.884240e+01	4.632739e+02
1.280000e-06	4.145033e-06	7.155321e-09	2.932143e+01	4.703909e+02
1.290000e-06	4.211217e-06	7.257981e-09	2.978961e+01	4.771714e+02
1.300000e-06	4.275617e-06	7.356590e-09	3.024517e+01	4.836396e+02
1.310000e-06	4.338468e-06	7.450745e-09	3.068977e+01	4.898198e+02
1.320000e-06	4.399932e-06	7.539309e-09	3.112456e+01	4.957345e+02
1.330000e-06	4.460038e-06	7.624432e-09	3.154974e+01	5.014035e+02
1.340000e-06	4.518613e-06	7.707957e-09	3.196409e+01	5.068424e+02
1.350000e-06	4.575371e-06	7.789443e-09	3.236559e+01	5.120626e+02
1.360000e-06	4.630404e-06	7.865169e-09	3.275489e+01	5.170709e+02
1.370000e-06	4.683801e-06	7.936549e-09	3.313261e+01	5.218703e+02
1.380000e-06	4.735373e-06	8.005923e-09	3.349743e+01	5.264605e+02
1.390000e-06	4.784904e-06	8.073649e-09	3.384780e+01	5.308395e+02
1.400000e-06	4.832510e-06	8.137900e-09	3.418456e+01	5.350048e+02
1.410000e-06	4.878465e-06	8.196211e-09	3.450964e+01	5.389540e+02
1.420000e-06	4.922833e-06	8.250180e-09	3.482349e+01	5.426861e+02
1.430000e-06	4.965435e-06	8.301893e-09	3.512485e+01	5.462020e+02
1.440000e-06	5.006123e-06	8.352378e-09	3.541268e+01	5.495046e+02
1.450000e-06	5.045062e-06	8.402835e-09	3.568812e+01	5.525986e+02
1.460000e-06	5.082391e-06	8.450080e-09	3.595219e+01	5.554901e+02
1.470000e-06	5.118141e-06	8.490195e-09	3.620507e+01	5.581858e+02
1.480000e-06	5.152009e-06	8.525594e-09	3.644465e+01	5.606927e+02
1.490000e-06	5.183865e-06	8.557286e-09	3.667000e+01	5.630169e+02
1.500000e-06	5.214019e-06	8.585132e-09	3.688331e+01	5.651638e+02
1.510000e-06	5.242551e-06	8.611414e-09	3.708514e+01	5.671377e+02
1.520000e-06	5.269220e-06	8.636178e-09	3.727379e+01	5.689419e+02
1.530000e-06	5.293781e-06	8.659917e-09	3.744753e+01	5.705788e+02
1.540000e-06	5.316383e-06	8.681719e-09	3.760742e+01	5.720511e+02
1.550000e-06	5.337225e-06	8.702310e-09	3.775485e+01	5.733613e+02
1.560000e-06	5.356212e-06	8.719505e-09	3.788916e+01	5.745130e+02
1.570000e-06	5.373241e-06	8.733618e-09	3.800962e+01	5.755108e+02
1.580000e-06	5.388306e-06	8.746693e-09	3.811619e+01	5.763603e+02
1.590000e-06	5.401379e-06	8.757467e-09	3.820867e+01	5.770680e+02
1.600000e-06	5.412278e-06	8.766339e-09	3.828576e+01	5.776409e+02
1.610000e-06	5.421004e-06	8.772913e-09	3.834749e+01	5.780856e+02
1.620000e-06	5.427776e-06	8.778512e-09	3.839540e+01	5.784081e+02
1.630000e-06	5.432706e-06	8.783528e-09	3.843027e+01	5.786130e+02
1.640000e-06	5.435822e-06	8.786693e-09	3.845231e+01	5.787030e+02
1.650000e-06	5.436909e-06	8.786718e-09	3.846000e+01	5.786789e+02
1.660000e-06	5.436010e-06	8.784302e-09	3.845364e+01	5.785398e+02
1.670000e-06	5.433437e-06	8.779000e-09	3.843544e+01	5.782837e+02
1.680000e-06	5.429230e-06	8.773365e-09	3.840568e+01	5.779080e+02
1.690000e-06	5.423158e-06	8.766258e-09	3.836273e+01	5.774107e+02
1.700000e-06	5.415228e-06	8.756899e-09	3.830663e+01	5.767913e+02
1.710000e-06	5.405707e-06	8.746707e-09	3.823928e+01	5.760514e+02
1.720000e-06	5.394562e-06	8.735646e-09	3.816044e+01	5.751952e+02
1.730000e-06	5.381501e-06	8.720178e-09	3.806805e+01	5.742298e+02
1.740000e-06	5.366336e-06	8.694052e-09	3.796077e+01	5.731648e+02
1.750000e-06	5.348918e-06	8.654932e-09	3.783756e+01	5.720115e+02
1.760000e-06	5.328907e-06	8.648064e-09	3.769600e+01	5.707815e+02
1.770000e-06	5.306370e-06	8.652930e-09	3.753658e+01	5.694861e+02
1.780000e-06	5.282185e-06	8.653827e-09	3.736550e+01	5.681340e+02
1.790000e-06	5.257183e-06	8.633455e-09	3.718864e+01	5.667308e+02
1.800000e-06	5.231038e-06	8.547379e-09	3.700370e+01	5.652775e+02
1.810000e-06	5.202788e-06	8.536016e-09	3.680385e+01	5.637706e+02
1.820000e-06	5.172502e-06	8.553015e-09	3.658962e+01	5.622017e+02
1.830000e-06	5.140637e-06	8.509584e-09	3.636421e+01	5.605582e+02
1.840000e-06	5.106884e-06	8.533521e-09	3.612544e+01	5.588247e+02
1.850000e-06	5.071349e-06	8.524615e-09	3.587408e+01	5.569842e+02
1.860000e-06	5.034172e-06	8.461215e-09	3.561109e+01	5.550199e+02
1.870000e-06	4.995075e-06	8.478586e-09	3.533452e+01	5.529169e+02
1.880000e-06	4.954271e-06	8.407410e-09	3.504588e+01	5.506635e+02
1.890000e-06	4.911750e-06	8.342363e-09	3.474509e+01	5.482523e+02
1.900000e-06	4.867481e-06	8.363710e-09	3.443194e+01	5.456806e+02
1.910000e-06	4.821450e-06	8.277851e-09	3.410632e+01	5.429508e+02
1.920000e-06	4.773321e-06	8.232299e-09	3.376586e+01	5.400689e+02
1.930000e-06	4.723413e-06	8.203197e-09	3.341282e+01	5.370444e+02
1.940000e-06	4.671839e-06	8.151196e-09	3.304799e+01	5.338881e+02
1.950000e-06	4.618245e-06	8.134562e-09	3.266888e+01	5.306112e+02
1.960000e-06	4.562710e-06	8.043129e-09	3.227603e+01	5.272235e+02
1.970000e-06	4.505391e-06	7.986240e-09	3.187056e+01	5.237323e+02
1.980000e-06	4.446545e-06	7.940862e-09	3.145429e+01	5.201417e+02
1.990000e-06	4.386235e-06	7.879012e-09	3.102767e+01	5.164523e+02
2.000000e-06	4.324240e-06	7.843884e-09	3.058912e+01	5.126610e+02
2.010000e-06	4.260601e-06	7.762439e-09	3.013895e+01	5.087622e+02
2.020000e-06	4.195425e-06	7.724934e-09	2.967790e+01	5.047484e+02
2.030000e-06	4.128791e-06	7.650165e-09	2.920654e+01	5.006111e+02
2.040000e-06	4.060686e-06	7.567946e-09	2.872478e+01	4.963425e+02
2.050000e-06	3.991057e-06	7.532544e-09	2.823223e+01	4.919357e+02
2.060000e-06	3.919948e-06	7.439325e-09	2.772921e+01	4.873859e+02
2.070000e-06	3.847458e-06	7.371769e-09	2.721643e+01	4.826908e+02
2.080000e-06	3.773649e-06	7.290988e-09	2.669431e+01	4.778500e+02
2.090000e-06	3.698456e-06	7.220111e-09	2.616241e+01	4.728652e+02
2.100000e-06	3.621791e-06	7.155924e-09	2.562008e+01	4.677391e+02
2.110000e-06	3.543557e-06	7.060284e-09	2.506667e+01	4.624752e+02
2.120000e-06	3.463896e-06	6.986549e-09	2.450316e+01	4.570763e+02
2.130000e-06	3.383125e-06	6.893615e-09	2.393180e+01	4.515444e+02
2.140000e-06	3.301244e-06	6.810007e-09	2.335258e+01	4.458797e+02
2.150000e-06	3.218230e-06	6.722287e-09	2.276535e+01	4.400812e+02
2.160000e-06	3.134146e-06	6.637854e-09	2.217055e+01	4.341457e+02
2.170000e-06	3.048919e-06	6.554395e-09	2.156766e+01	4.280693e+02
2.180000e-06	2.962432e-06	6.446839e-09	2.095586e+01	4.218469e+02
2.190000e-06	2.874741e-06	6.344580e-09	2.033555e+01	4.154734e+02
2.200000e-06	2.786064e-06	6.245823e-09	1.970826e+01	4.089444e+02
2.210000e-06	2.696420e-06	6.153320e-09	1.907413e+01	4.022560e+02
2.220000e-06	2.605843e-06	6.047391e-09	1.843340e+01	3.954059e+02
2.230000e-06	2.514392e-06	5.940181e-09	1.778648e+01	3.883929e+02
2.240000e-06	2.422116e-06	5.834992e-09	1.713374e+01	3.812169e+02
2.250000e-06	2.328996e-06	5.722675e-09	1.647502e+01	3.738783e+02
2.260000e-06	2.234958e-06	5.606553e-09	1.580981e+01	3.663781e+02
2.270000e-06	2.139987e-06	5.487527e-09	1.513800e+01	3.587164e+02
2.280000e-06	2.044086e-06	5.371877e-09	1.445961e+01	3.508928e+02
2.290000e-06	1.947433e-06	5.248385e-09	1.377589e+01	3.429054e+02
2.300000e-06	1.850239e-06	5.122974e-09	1.308835e+01	3.347507e+02
2.310000e-06	1.752555e-06	5.000657e-09	1.239735e+01	3.264240e+02
2.320000e-06	1.654300e-06	4.874353e-09	1.170231e+01	3.179190e+02
2.330000e-06	1.555468e-06	4.737772e-09	1.100318e+01	3.092286e+02
2.340000e-06	1.456166e-06	4.599424e-09	1.030073e+01	3.003455e+02
2.350000e-06	1.356457e-06	4.462199e-09	9.595401e+00	2.912622e+02
2.360000e-06	1.256364e-06	4.322777e-09	8.887362e+00	2.819719e+02
2.370000e-06	1.155902e-06	4.182127e-09	8.176700e+00	2.724690e+02
2.380000e-06	1.055049e-06	4.037131e-09	7.463281e+00	2.627488e+02
2.390000e-06	9.537447e-07	3.887094e-09	6.746668e+00	2.528080e+02
2.400000e-06	8.520145e-07	3.731352e-09	6.027042e+00	2.426441e+02
2.410000e-06	7.499270e-07	3.573597e-09	5.304888e+00	2.322556e+02
2.420000e-06	6.475024e-07	3.413568e-09	4.580349e+00	2.216411e+02
2.430000e-06	5.447735e-07	3.250011e-09	3.853658e+00	2.107992e+02
2.440000e-06	4.418851e-07	3.083475e-09	3.125838e+00	1.997280e+02
2.450000e-06	3.388515e-07	2.914149e-09	2.396992e+00	1.884243e+02
2.460000e-06	2.356093e-07	2.738217e-09	1.666670e+00	1.768839e+02
2.470000e-06	1.322485e-07	2.558201e-09	9.355091e-01	1.651009e+02
2.480000e-06	2.882077e-08	2.375216e-09	2.038744e-01	1.530680e+02
2.490000e-06	-7.469935e-08	2.187237e-09	-5.284137e-01	1.407759e+02
2.500000e-06	-1.781506e-07	1.994045e-09	-1.260215e+00	1.282140e+02
2.510000e-06	-2.814495e-07	1.797517e-09	-1.990938e+00	1.153705e+02
2.520000e-06	-3.846894e-07	1.600097e-09	-2.721244e+00	1.022322e+02
2.530000e-06	-4.878233e-07	1.397187e-09	-3.450800e+00	8.878527e+01
2.540000e-06	-5.907764e-07	1.187564e-09	-4.179077e+00	7.501594e+01
2.550000e-06	-6.935649e-07	9.704212e-10	-4.906190e+00	6.091081e+01
2.560000e-06	-7.960773e-07	7.448545e-10	-5.631349e+00	4.645796e+01
2.570000e-06	-8.981428e-07	5.135966e-10	-6.353347e+00	3.164798e+01
2.580000e-06	-9.996790e-07	2.804425e-10	-7.071601e+00	1.647533e+01
2.590000e-06	-1.100696e-06	4.456826e-11	-7.786184e+00	9.396573e-01
2.600000e-06	-1.201238e-06	-1.962674e-10	-8.497401e+00	-1.495264e+01
2.610000e-06	-1.301301e-06	-4.429424e-10	-9.205238e+00	-3.118704e+01
2.620000e-06	-1.400923e-06	-6.948864e-10	-9.909953e+00	-4.773974e+01
2.630000e-06	-1.500136e-06	-9.513609e-10	-1.061177e+01	-6.457674e+01
2.640000e-06	-1.598902e-06	-1.213691e-09	-1.131043e+01	-8.165363e+01
2.650000e-06	-1.697078e-06	-1.480759e-09	-1.200491e+01	-9.891583e+01
2.660000e-06	-1.794633e-06	-1.749646e-09	-1.269501e+01	-1.162997e+02
2.670000e-06	-1.891606e-06	-2.017984e-09	-1.338098e+01	-1.337340e+02
2.680000e-06	-1.987966e-06	-2.283871e-09	-1.406262e+01	-1.511428e+02
2.690000e-06	-2.083730e-06	-2.547512e-09	-1.474004e+01	-1.684476e+02
2.700000e-06	-2.178798e-06	-2.809658e-09	-1.541254e+01	-1.855710e+02
2.710000e-06	-2.272921e-06	-3.069132e-09	-1.607835e+01	-2.024398e+02
2.720000e-06	-2.366052e-06	-3.321805e-09	-1.673715e+01	-2.189876e+02
2.730000e-06	-2.458232e-06	-3.567021e-09	-1.738922e+01	-2.351576e+02
2.740000e-06	-2.549512e-06	-3.806916e-09	-1.803492e+01	-2.509039e+02
2.750000e-06	-2.639927e-06	-4.040644e-09	-1.867451e+01	-2.661930e+02
2.760000e-06	-2.729399e-06	-4.269192e-09	-1.930742e+01	-2.810031e+02
2.770000e-06	-2.817969e-06	-4.492953e-09	-1.993395e+01	-2.953234e+02
2.780000e-06	-2.905735e-06	-4.707419e-09	-2.055480e+01	-3.091526e+02
2.790000e-06	-2.992535e-06	-4.912099e-09	-2.116881e+01	-3.224965e+02
2.800000e-06	-3.078102e-06	-5.109359e-09	-2.177410e+01	-3.353656e+02
2.810000e-06	-3.162453e-06	-5.301245e-09	-2.237079e+01	-3.477725e+02
2.820000e-06	-3.245755e-06	-5.485933e-09	-2.296005e+01	-3.597298e+02
2.830000e-06	-3.328021e-06	-5.662037e-09	-2.354200e+01	-3.712486e+02
2.840000e-06	-3.409183e-06	-5.829473e-09	-2.411612e+01	-3.823372e+02
2.850000e-06	-3.489229e-06	-5.988564e-09	-2.468236e+01	-3.930009e+02
2.860000e-06	-3.568002e-06	-6.142102e-09	-2.523959e+01	-4.032425e+02
2.870000e-06	-3.645210e-06	-6.291429e-09	-2.578575e+01	-4.130632e+02
2.880000e-06	-3.720833e-06	-6.436636e-09	-2.632070e+01	-4.224639e+02
2.890000e-06	-3.795021e-06	-6.575483e-09	-2.684549e+01	-4.314468e+02
2.900000e-06	-3.867904e-06	-6.708909e-09	-2.736106e+01	-4.400165e+02
2.910000e-06	-3.939551e-06	-6.838399e-09	-2.786788e+01	-4.481816e+02
2.920000e-06	-4.009697e-06	-6.960715e-09	-2.836408e+01	-4.559546e+02
2.930000e-06	-4.078169e-06	-7.073853e-09	-2.884845e+01	-4.633525e+02
2.940000e-06	-4.145207e-06	-7.181516e-09	-2.932267e+01	-4.703957e+02
