# Temperatura_=_62.08
# Concentracion g/m^3_=_15000.0
# C_Vs_to_Am_M_A/Vsm_=_65563218390.804596
# pendiente_HvsI_1/m_=_3716.3
# ordenada_HvsI_A/m_=_1297.0
# frecuencia_Hz_=_301597.08759138925

Tiempo_(s)	Campo_(V.s)	Magnetizacion_(V.s)	Campo_(kA/m)	Magnetizacion_(A/m)
0.000000e+00	-5.415855e-06	-8.910628e-09	-3.833579e+01	-5.821332e+02
1.000000e-08	-5.413082e-06	-8.907361e-09	-3.831616e+01	-5.819073e+02
2.000000e-08	-5.408550e-06	-8.900691e-09	-3.828409e+01	-5.815668e+02
3.000000e-08	-5.402369e-06	-8.894717e-09	-3.824033e+01	-5.811070e+02
4.000000e-08	-5.394611e-06	-8.885038e-09	-3.818542e+01	-5.805242e+02
5.000000e-08	-5.385035e-06	-8.870070e-09	-3.811763e+01	-5.798168e+02
6.000000e-08	-5.373340e-06	-8.850181e-09	-3.803485e+01	-5.789866e+02
7.000000e-08	-5.359724e-06	-8.819162e-09	-3.793847e+01	-5.780390e+02
8.000000e-08	-5.344042e-06	-8.839417e-09	-3.782747e+01	-5.769831e+02
9.000000e-08	-5.326070e-06	-8.890332e-09	-3.770025e+01	-5.758311e+02
1.000000e-07	-5.306021e-06	-8.843322e-09	-3.755834e+01	-5.745971e+02
1.100000e-07	-5.284073e-06	-8.791068e-09	-3.740298e+01	-5.732951e+02
1.200000e-07	-5.260453e-06	-8.735380e-09	-3.723579e+01	-5.719375e+02
1.300000e-07	-5.235244e-06	-8.596391e-09	-3.705735e+01	-5.705334e+02
1.400000e-07	-5.208370e-06	-8.727878e-09	-3.686713e+01	-5.690867e+02
1.500000e-07	-5.179914e-06	-8.781631e-09	-3.666570e+01	-5.675957e+02
1.600000e-07	-5.149992e-06	-8.567639e-09	-3.645389e+01	-5.660522e+02
1.700000e-07	-5.118468e-06	-8.672206e-09	-3.623076e+01	-5.644425e+02
1.800000e-07	-5.084868e-06	-8.614370e-09	-3.599292e+01	-5.627482e+02
1.900000e-07	-5.049398e-06	-8.451001e-09	-3.574185e+01	-5.609482e+02
2.000000e-07	-5.012426e-06	-8.617004e-09	-3.548014e+01	-5.590208e+02
2.100000e-07	-4.973683e-06	-8.530698e-09	-3.520590e+01	-5.569457e+02
2.200000e-07	-4.933047e-06	-8.385340e-09	-3.491826e+01	-5.547064e+02
2.300000e-07	-4.890466e-06	-8.437422e-09	-3.461686e+01	-5.522915e+02
2.400000e-07	-4.845977e-06	-8.378135e-09	-3.430195e+01	-5.496958e+02
2.500000e-07	-4.799745e-06	-8.361203e-09	-3.397469e+01	-5.469205e+02
2.600000e-07	-4.751570e-06	-8.302992e-09	-3.363369e+01	-5.439727e+02
2.700000e-07	-4.701319e-06	-8.198388e-09	-3.327799e+01	-5.408641e+02
2.800000e-07	-4.649027e-06	-8.169964e-09	-3.290785e+01	-5.376094e+02
2.900000e-07	-4.594875e-06	-8.112407e-09	-3.252454e+01	-5.342240e+02
3.000000e-07	-4.539119e-06	-8.082327e-09	-3.212987e+01	-5.307223e+02
3.100000e-07	-4.481628e-06	-8.063162e-09	-3.172292e+01	-5.271159e+02
3.200000e-07	-4.422352e-06	-8.005814e-09	-3.130335e+01	-5.234121e+02
3.300000e-07	-4.361482e-06	-7.897165e-09	-3.087248e+01	-5.196136e+02
3.400000e-07	-4.299152e-06	-7.820588e-09	-3.043128e+01	-5.157182e+02
3.500000e-07	-4.235460e-06	-7.822337e-09	-2.998044e+01	-5.117199e+02
3.600000e-07	-4.170205e-06	-7.748674e-09	-2.951853e+01	-5.076095e+02
3.700000e-07	-4.103232e-06	-7.656927e-09	-2.904447e+01	-5.033762e+02
3.800000e-07	-4.034746e-06	-7.604206e-09	-2.855970e+01	-4.990096e+02
3.900000e-07	-3.964868e-06	-7.527576e-09	-2.806507e+01	-4.945004e+02
4.000000e-07	-3.893807e-06	-7.453601e-09	-2.756207e+01	-4.898420e+02
4.100000e-07	-3.821550e-06	-7.377477e-09	-2.705061e+01	-4.850309e+02
4.200000e-07	-3.747730e-06	-7.323212e-09	-2.652808e+01	-4.800669e+02
4.300000e-07	-3.672294e-06	-7.238366e-09	-2.599411e+01	-4.749524e+02
4.400000e-07	-3.595393e-06	-7.140264e-09	-2.544976e+01	-4.696920e+02
4.500000e-07	-3.516979e-06	-7.068902e-09	-2.489472e+01	-4.642913e+02
4.600000e-07	-3.437094e-06	-7.003836e-09	-2.432926e+01	-4.587556e+02
4.700000e-07	-3.355975e-06	-6.919372e-09	-2.375506e+01	-4.530891e+02
4.800000e-07	-3.273673e-06	-6.805119e-09	-2.317249e+01	-4.472940e+02
4.900000e-07	-3.190313e-06	-6.717238e-09	-2.258244e+01	-4.413702e+02
5.000000e-07	-3.105974e-06	-6.635078e-09	-2.198544e+01	-4.353153e+02
5.100000e-07	-3.020695e-06	-6.540657e-09	-2.138180e+01	-4.291248e+02
5.200000e-07	-2.934487e-06	-6.442595e-09	-2.077158e+01	-4.227930e+02
5.300000e-07	-2.847314e-06	-6.337284e-09	-2.015453e+01	-4.163139e+02
5.400000e-07	-2.759159e-06	-6.225760e-09	-1.953054e+01	-4.096817e+02
5.500000e-07	-2.669920e-06	-6.117563e-09	-1.889886e+01	-4.028919e+02
5.600000e-07	-2.579548e-06	-6.018552e-09	-1.825917e+01	-3.959413e+02
5.700000e-07	-2.488101e-06	-5.917939e-09	-1.761187e+01	-3.888288e+02
5.800000e-07	-2.395754e-06	-5.805953e-09	-1.695820e+01	-3.815544e+02
5.900000e-07	-2.302606e-06	-5.687756e-09	-1.629885e+01	-3.741194e+02
6.000000e-07	-2.208694e-06	-5.572002e-09	-1.563410e+01	-3.665251e+02
6.100000e-07	-2.114062e-06	-5.454279e-09	-1.496425e+01	-3.587724e+02
6.200000e-07	-2.018684e-06	-5.333848e-09	-1.428913e+01	-3.508609e+02
6.300000e-07	-1.922569e-06	-5.208538e-09	-1.360878e+01	-3.427883e+02
6.400000e-07	-1.825662e-06	-5.079501e-09	-1.292284e+01	-3.345503e+02
6.500000e-07	-1.727947e-06	-4.948305e-09	-1.223116e+01	-3.261404e+02
6.600000e-07	-1.629462e-06	-4.814671e-09	-1.153404e+01	-3.175505e+02
6.700000e-07	-1.530353e-06	-4.680320e-09	-1.083251e+01	-3.087713e+02
6.800000e-07	-1.430752e-06	-4.542854e-09	-1.012749e+01	-2.997935e+02
6.900000e-07	-1.330698e-06	-4.402016e-09	-9.419264e+00	-2.906083e+02
7.000000e-07	-1.230269e-06	-4.259244e-09	-8.708383e+00	-2.812082e+02
7.100000e-07	-1.129438e-06	-4.113970e-09	-7.994657e+00	-2.715877e+02
7.200000e-07	-1.028275e-06	-3.961679e-09	-7.278583e+00	-2.617436e+02
7.300000e-07	-9.268210e-07	-3.806135e-09	-6.560445e+00	-2.516746e+02
7.400000e-07	-8.250426e-07	-3.646006e-09	-5.840012e+00	-2.413814e+02
7.500000e-07	-7.229815e-07	-3.480041e-09	-5.117580e+00	-2.308653e+02
7.600000e-07	-6.206712e-07	-3.312043e-09	-4.393382e+00	-2.201282e+02
7.700000e-07	-5.181057e-07	-3.143904e-09	-3.667379e+00	-2.091710e+02
7.800000e-07	-4.153840e-07	-2.976804e-09	-2.940270e+00	-1.979930e+02
7.900000e-07	-3.125552e-07	-2.804663e-09	-2.212402e+00	-1.865913e+02
8.000000e-07	-2.096111e-07	-2.625482e-09	-1.483719e+00	-1.749600e+02
8.100000e-07	-1.066142e-07	-2.440792e-09	-7.546618e-01	-1.630906e+02
8.200000e-07	-3.563287e-09	-2.253693e-09	-2.522251e-02	-1.509716e+02
8.300000e-07	9.953149e-08	-2.065641e-09	7.045274e-01	-1.385892e+02
8.400000e-07	2.026273e-07	-1.874046e-09	1.434285e+00	-1.259278e+02
8.500000e-07	3.056414e-07	-1.677293e-09	2.163463e+00	-1.129709e+02
8.600000e-07	4.085506e-07	-1.475817e-09	2.891900e+00	-9.970157e+01
8.700000e-07	5.113964e-07	-1.268126e-09	3.619887e+00	-8.610361e+01
8.800000e-07	6.141578e-07	-1.055006e-09	4.347277e+00	-7.216224e+01
8.900000e-07	7.167234e-07	-8.377096e-10	5.073282e+00	-5.786487e+01
9.000000e-07	8.190378e-07	-6.148321e-10	5.797508e+00	-4.320194e+01
9.100000e-07	9.210632e-07	-3.883584e-10	6.519688e+00	-2.816775e+01
9.200000e-07	1.022738e-06	-1.564689e-10	7.239385e+00	-1.276129e+01
9.300000e-07	1.124000e-06	8.347843e-11	7.956165e+00	3.012809e+00
9.400000e-07	1.224860e-06	3.303685e-10	8.670098e+00	1.914327e+01
9.500000e-07	1.325357e-06	5.809831e-10	9.381457e+00	3.561127e+01
9.600000e-07	1.425432e-06	8.345938e-10	1.008983e+01	5.238954e+01
9.700000e-07	1.525054e-06	1.093637e-09	1.079500e+01	6.944174e+01
9.800000e-07	1.624202e-06	1.355721e-09	1.149681e+01	8.672219e+01
9.900000e-07	1.722652e-06	1.618635e-09	1.219368e+01	1.041761e+02
1.000000e-06	1.820118e-06	1.882226e-09	1.288359e+01	1.217402e+02
1.010000e-06	1.916671e-06	2.147648e-09	1.356703e+01	1.393444e+02
1.020000e-06	2.012502e-06	2.414783e-09	1.424537e+01	1.569136e+02
1.030000e-06	2.107649e-06	2.681420e-09	1.491886e+01	1.743703e+02
1.040000e-06	2.202095e-06	2.944665e-09	1.558739e+01	1.916377e+02
1.050000e-06	2.295807e-06	3.201503e-09	1.625073e+01	2.086424e+02
1.060000e-06	2.388733e-06	3.452234e-09	1.690850e+01	2.253175e+02
1.070000e-06	2.480930e-06	3.697717e-09	1.756110e+01	2.416054e+02
1.080000e-06	2.572471e-06	3.938503e-09	1.820908e+01	2.574593e+02
1.090000e-06	2.663043e-06	4.172628e-09	1.885019e+01	2.728447e+02
1.100000e-06	2.752233e-06	4.397384e-09	1.948151e+01	2.877390e+02
1.110000e-06	2.840274e-06	4.612779e-09	2.010470e+01	3.021316e+02
1.120000e-06	2.927532e-06	4.820588e-09	2.072235e+01	3.160214e+02
1.130000e-06	3.013875e-06	5.024984e-09	2.133353e+01	3.294153e+02
1.140000e-06	3.099170e-06	5.223997e-09	2.193728e+01	3.423253e+02
1.150000e-06	3.183521e-06	5.414618e-09	2.253436e+01	3.547658e+02
1.160000e-06	3.266968e-06	5.595971e-09	2.312503e+01	3.667512e+02
1.170000e-06	3.349265e-06	5.770522e-09	2.370756e+01	3.782941e+02
1.180000e-06	3.430235e-06	5.939088e-09	2.428070e+01	3.894040e+02
1.190000e-06	3.509979e-06	6.100953e-09	2.484517e+01	4.000869e+02
1.200000e-06	3.588460e-06	6.256211e-09	2.540069e+01	4.103456e+02
1.210000e-06	3.665612e-06	6.405131e-09	2.594681e+01	4.201809e+02
1.220000e-06	3.741523e-06	6.548757e-09	2.648414e+01	4.295929e+02
1.230000e-06	3.815968e-06	6.688428e-09	2.701109e+01	4.385827e+02
1.240000e-06	3.888681e-06	6.823202e-09	2.752579e+01	4.471542e+02
1.250000e-06	3.959922e-06	6.949048e-09	2.803006e+01	4.553155e+02
1.260000e-06	4.029868e-06	7.065018e-09	2.852517e+01	4.630792e+02
1.270000e-06	4.098433e-06	7.174096e-09	2.901050e+01	4.704630e+02
1.280000e-06	4.165596e-06	7.278983e-09	2.948591e+01	4.774888e+02
1.290000e-06	4.231084e-06	7.377738e-09	2.994946e+01	4.841815e+02
1.300000e-06	4.294908e-06	7.471557e-09	3.040124e+01	4.905675e+02
1.310000e-06	4.357334e-06	7.562271e-09	3.084312e+01	4.966728e+02
1.320000e-06	4.418336e-06	7.651899e-09	3.127492e+01	5.025208e+02
1.330000e-06	4.477970e-06	7.740392e-09	3.169703e+01	5.081312e+02
1.340000e-06	4.535935e-06	7.825778e-09	3.210734e+01	5.135189e+02
1.350000e-06	4.592047e-06	7.905686e-09	3.250452e+01	5.186933e+02
1.360000e-06	4.646556e-06	7.978028e-09	3.289036e+01	5.236586e+02
1.370000e-06	4.699357e-06	8.046631e-09	3.326410e+01	5.284146e+02
1.380000e-06	4.750164e-06	8.114529e-09	3.362374e+01	5.329581e+02
1.390000e-06	4.798905e-06	8.181094e-09	3.396875e+01	5.372844e+02
1.400000e-06	4.845795e-06	8.243804e-09	3.430066e+01	5.413887e+02
1.410000e-06	4.891122e-06	8.302242e-09	3.462150e+01	5.452678e+02
1.420000e-06	4.934983e-06	8.357644e-09	3.493197e+01	5.489208e+02
1.430000e-06	4.976975e-06	8.409574e-09	3.522921e+01	5.523500e+02
1.440000e-06	5.017056e-06	8.458906e-09	3.551292e+01	5.555607e+02
1.450000e-06	5.055505e-06	8.505784e-09	3.578508e+01	5.585605e+02
1.460000e-06	5.092313e-06	8.548488e-09	3.604562e+01	5.613590e+02
1.470000e-06	5.127382e-06	8.584843e-09	3.629385e+01	5.639663e+02
1.480000e-06	5.160455e-06	8.615791e-09	3.652796e+01	5.663919e+02
1.490000e-06	5.191660e-06	8.645500e-09	3.674884e+01	5.686441e+02
1.500000e-06	5.221190e-06	8.675372e-09	3.695787e+01	5.707290e+02
1.510000e-06	5.249025e-06	8.704598e-09	3.715490e+01	5.726508e+02
1.520000e-06	5.274902e-06	8.730557e-09	3.733806e+01	5.744114e+02
1.530000e-06	5.298686e-06	8.753039e-09	3.750642e+01	5.760114e+02
1.540000e-06	5.320627e-06	8.773370e-09	3.766173e+01	5.774509e+02
1.550000e-06	5.340892e-06	8.791593e-09	3.780517e+01	5.787303e+02
1.560000e-06	5.359284e-06	8.808399e-09	3.793535e+01	5.798510e+02
1.570000e-06	5.375563e-06	8.822069e-09	3.805059e+01	5.808164e+02
1.580000e-06	5.389896e-06	8.832406e-09	3.815205e+01	5.816316e+02
1.590000e-06	5.402245e-06	8.841472e-09	3.823945e+01	5.823038e+02
1.600000e-06	5.412344e-06	8.850237e-09	3.831094e+01	5.828412e+02
1.610000e-06	5.420310e-06	8.858750e-09	3.836733e+01	5.832523e+02
1.620000e-06	5.426371e-06	8.865617e-09	3.841023e+01	5.835454e+02
1.630000e-06	5.430661e-06	8.870804e-09	3.844060e+01	5.837268e+02
1.640000e-06	5.433048e-06	8.874526e-09	3.845749e+01	5.838007e+02
1.650000e-06	5.433402e-06	8.876056e-09	3.846000e+01	5.837684e+02
1.660000e-06	5.431963e-06	8.869178e-09	3.844981e+01	5.836288e+02
1.670000e-06	5.428882e-06	8.861823e-09	3.842800e+01	5.833783e+02
1.680000e-06	5.424069e-06	8.855846e-09	3.839393e+01	5.830124e+02
1.690000e-06	5.417320e-06	8.848743e-09	3.834616e+01	5.825261e+02
1.700000e-06	5.408775e-06	8.841570e-09	3.828567e+01	5.819163e+02
1.710000e-06	5.398640e-06	8.837025e-09	3.821394e+01	5.811820e+02
1.720000e-06	5.386822e-06	8.847915e-09	3.813029e+01	5.803256e+02
1.730000e-06	5.373072e-06	8.823490e-09	3.803296e+01	5.793535e+02
1.740000e-06	5.357201e-06	8.720569e-09	3.792061e+01	5.782756e+02
1.750000e-06	5.338928e-06	8.718556e-09	3.779127e+01	5.771045e+02
1.760000e-06	5.317945e-06	8.725999e-09	3.764274e+01	5.758544e+02
1.770000e-06	5.294680e-06	8.755207e-09	3.747807e+01	5.745391e+02
1.780000e-06	5.270110e-06	8.848611e-09	3.730415e+01	5.731706e+02
1.790000e-06	5.244809e-06	8.618889e-09	3.712505e+01	5.717569e+02
1.800000e-06	5.218070e-06	8.604949e-09	3.693579e+01	5.703007e+02
1.810000e-06	5.189017e-06	8.729258e-09	3.673013e+01	5.687990e+02
1.820000e-06	5.158172e-06	8.500039e-09	3.651180e+01	5.672423e+02
1.830000e-06	5.125733e-06	8.626801e-09	3.628218e+01	5.656157e+02
1.840000e-06	5.091367e-06	8.688905e-09	3.603892e+01	5.639003e+02
1.850000e-06	5.055363e-06	8.419002e-09	3.578407e+01	5.620744e+02
1.860000e-06	5.017538e-06	8.565690e-09	3.551633e+01	5.601166e+02
1.870000e-06	4.977849e-06	8.546717e-09	3.523539e+01	5.580073e+02
1.880000e-06	4.936491e-06	8.398321e-09	3.494264e+01	5.557307e+02
1.890000e-06	4.893294e-06	8.478571e-09	3.463688e+01	5.532769e+02
1.900000e-06	4.848472e-06	8.325460e-09	3.431960e+01	5.506420e+02
1.910000e-06	4.801817e-06	8.368717e-09	3.398937e+01	5.478286e+02
1.920000e-06	4.753114e-06	8.349822e-09	3.364462e+01	5.448449e+02
1.930000e-06	4.702767e-06	8.187865e-09	3.328824e+01	5.417034e+02
1.940000e-06	4.650550e-06	8.300379e-09	3.291863e+01	5.384190e+02
1.950000e-06	4.596281e-06	8.164218e-09	3.253449e+01	5.350072e+02
1.960000e-06	4.540165e-06	8.037273e-09	3.213728e+01	5.314819e+02
1.970000e-06	4.482322e-06	8.022789e-09	3.172784e+01	5.278537e+02
1.980000e-06	4.423055e-06	7.988673e-09	3.130832e+01	5.241292e+02
1.990000e-06	4.362180e-06	7.998728e-09	3.087742e+01	5.203099e+02
2.000000e-06	4.299561e-06	7.827946e-09	3.043418e+01	5.163928e+02
2.010000e-06	4.235438e-06	7.822622e-09	2.998028e+01	5.123710e+02
2.020000e-06	4.169827e-06	7.781257e-09	2.951586e+01	5.082348e+02
2.030000e-06	4.102774e-06	7.628985e-09	2.904123e+01	5.039735e+02
2.040000e-06	4.034187e-06	7.627085e-09	2.855574e+01	4.995766e+02
2.050000e-06	3.964056e-06	7.567312e-09	2.805932e+01	4.950355e+02
2.060000e-06	3.892475e-06	7.505771e-09	2.755264e+01	4.903443e+02
2.070000e-06	3.819509e-06	7.365636e-09	2.703616e+01	4.855000e+02
2.080000e-06	3.745247e-06	7.288561e-09	2.651050e+01	4.805030e+02
2.090000e-06	3.669560e-06	7.279526e-09	2.597475e+01	4.753564e+02
2.100000e-06	3.592357e-06	7.174320e-09	2.542827e+01	4.700652e+02
2.110000e-06	3.513727e-06	7.082689e-09	2.487169e+01	4.646347e+02
2.120000e-06	3.433836e-06	6.989612e-09	2.430619e+01	4.590704e+02
2.130000e-06	3.352742e-06	6.926740e-09	2.373217e+01	4.533758e+02
2.140000e-06	3.270473e-06	6.821624e-09	2.314984e+01	4.475529e+02
2.150000e-06	3.187174e-06	6.727478e-09	2.256021e+01	4.416009e+02
2.160000e-06	3.102736e-06	6.654718e-09	2.196252e+01	4.355170e+02
2.170000e-06	3.017026e-06	6.543492e-09	2.135583e+01	4.292964e+02
2.180000e-06	2.930089e-06	6.442554e-09	2.074045e+01	4.229332e+02
2.190000e-06	2.842106e-06	6.344351e-09	2.011767e+01	4.164214e+02
2.200000e-06	2.753190e-06	6.268278e-09	1.948829e+01	4.097554e+02
2.210000e-06	2.663301e-06	6.166682e-09	1.885201e+01	4.029310e+02
2.220000e-06	2.572525e-06	6.043443e-09	1.820946e+01	3.959454e+02
2.230000e-06	2.480919e-06	5.925281e-09	1.756103e+01	3.887978e+02
2.240000e-06	2.388433e-06	5.815318e-09	1.690638e+01	3.814885e+02
2.250000e-06	2.295005e-06	5.713200e-09	1.624505e+01	3.740188e+02
2.260000e-06	2.200727e-06	5.601795e-09	1.557771e+01	3.663902e+02
2.270000e-06	2.105587e-06	5.479113e-09	1.490427e+01	3.586032e+02
2.280000e-06	2.009549e-06	5.349702e-09	1.422447e+01	3.506571e+02
2.290000e-06	1.912799e-06	5.225334e-09	1.353963e+01	3.425492e+02
2.300000e-06	1.815507e-06	5.104395e-09	1.285095e+01	3.342746e+02
2.310000e-06	1.717731e-06	4.988228e-09	1.215885e+01	3.258265e+02
2.320000e-06	1.619394e-06	4.861038e-09	1.146278e+01	3.171964e+02
2.330000e-06	1.520475e-06	4.720582e-09	1.076259e+01	3.083752e+02
2.340000e-06	1.421134e-06	4.575766e-09	1.005941e+01	2.993533e+02
2.350000e-06	1.321451e-06	4.431780e-09	9.353809e+00	2.901222e+02
2.360000e-06	1.221394e-06	4.293376e-09	8.645563e+00	2.806749e+02
2.370000e-06	1.120977e-06	4.148558e-09	7.934768e+00	2.710063e+02
2.380000e-06	1.020114e-06	3.993747e-09	7.220816e+00	2.611137e+02
2.390000e-06	9.187737e-07	3.840895e-09	6.503482e+00	2.509962e+02
2.400000e-06	8.169883e-07	3.693705e-09	5.783001e+00	2.406547e+02
2.410000e-06	7.148281e-07	3.542101e-09	5.059866e+00	2.300908e+02
2.420000e-06	6.123203e-07	3.378578e-09	4.334271e+00	2.193062e+02
2.430000e-06	5.094995e-07	3.205476e-09	3.606460e+00	2.083014e+02
2.440000e-06	4.065499e-07	3.031168e-09	2.877738e+00	1.970754e+02
2.450000e-06	3.035311e-07	2.855651e-09	2.148526e+00	1.856247e+02
2.460000e-06	2.003621e-07	2.680019e-09	1.418250e+00	1.739429e+02
2.470000e-06	9.702201e-08	2.505202e-09	6.867642e-01	1.620207e+02
2.480000e-06	-6.373567e-09	2.320421e-09	-4.511490e-02	1.498461e+02
2.490000e-06	-1.097323e-07	2.124987e-09	-7.767334e-01	1.374049e+02
2.500000e-06	-2.130621e-07	1.928515e-09	-1.508146e+00	1.246813e+02
2.510000e-06	-3.163804e-07	1.735132e-09	-2.239479e+00	1.116585e+02
2.520000e-06	-4.196080e-07	1.538342e-09	-2.970169e+00	9.831969e+01
2.530000e-06	-5.227231e-07	1.329862e-09	-3.700063e+00	8.464897e+01
2.540000e-06	-6.256845e-07	1.112779e-09	-4.428869e+00	7.063192e+01
2.550000e-06	-7.283067e-07	8.897079e-10	-5.155273e+00	5.625654e+01
2.560000e-06	-8.305460e-07	6.602713e-10	-5.878968e+00	4.151404e+01
2.570000e-06	-9.323923e-07	4.288129e-10	-6.599881e+00	2.639962e+01
2.580000e-06	-1.033678e-06	1.947645e-10	-7.316827e+00	1.091342e+01
2.590000e-06	-1.134447e-06	-4.613031e-11	-8.030111e+00	-4.938591e+00
2.600000e-06	-1.234772e-06	-2.941322e-10	-8.740255e+00	-2.114360e+01
2.610000e-06	-1.334648e-06	-5.450365e-10	-9.447219e+00	-3.768105e+01
2.620000e-06	-1.434099e-06	-8.003871e-10	-1.015118e+01	-5.452174e+01
2.630000e-06	-1.533078e-06	-1.063134e-09	-1.085179e+01	-7.162738e+01
2.640000e-06	-1.631547e-06	-1.331296e-09	-1.154881e+01	-8.895027e+01
2.650000e-06	-1.729418e-06	-1.603736e-09	-1.224158e+01	-1.064337e+02
2.660000e-06	-1.826641e-06	-1.874940e-09	-1.292976e+01	-1.240129e+02
2.670000e-06	-1.923251e-06	-2.142792e-09	-1.361361e+01	-1.416164e+02
2.680000e-06	-2.019299e-06	-2.408456e-09	-1.429348e+01	-1.591684e+02
2.690000e-06	-2.114821e-06	-2.675380e-09	-1.496963e+01	-1.765913e+02
2.700000e-06	-2.209677e-06	-2.943672e-09	-1.564106e+01	-1.938087e+02
2.710000e-06	-2.303530e-06	-3.205136e-09	-1.630539e+01	-2.107485e+02
2.720000e-06	-2.396223e-06	-3.456724e-09	-1.696151e+01	-2.273455e+02
2.730000e-06	-2.487951e-06	-3.700468e-09	-1.761080e+01	-2.435443e+02
2.740000e-06	-2.578889e-06	-3.939127e-09	-1.825450e+01	-2.593007e+02
2.750000e-06	-2.668955e-06	-4.173288e-09	-1.889203e+01	-2.745826e+02
2.760000e-06	-2.757999e-06	-4.402586e-09	-1.952232e+01	-2.893704e+02
2.770000e-06	-2.846136e-06	-4.625385e-09	-2.014620e+01	-3.036553e+02
2.780000e-06	-2.933592e-06	-4.838213e-09	-2.076525e+01	-3.174385e+02
2.790000e-06	-3.020099e-06	-5.042504e-09	-2.137758e+01	-3.307279e+02
2.800000e-06	-3.105177e-06	-5.242908e-09	-2.197980e+01	-3.435364e+02
2.810000e-06	-3.189009e-06	-5.435132e-09	-2.257320e+01	-3.558785e+02
2.820000e-06	-3.271862e-06	-5.614094e-09	-2.315967e+01	-3.677685e+02
2.830000e-06	-3.353687e-06	-5.784071e-09	-2.373887e+01	-3.792183e+02
2.840000e-06	-3.434432e-06	-5.948110e-09	-2.431041e+01	-3.902367e+02
2.850000e-06	-3.514088e-06	-6.107515e-09	-2.487425e+01	-4.008289e+02
2.860000e-06	-3.592319e-06	-6.261625e-09	-2.542801e+01	-4.109973e+02
2.870000e-06	-3.668863e-06	-6.411641e-09	-2.596982e+01	-4.207422e+02
2.880000e-06	-3.743971e-06	-6.557347e-09	-2.650147e+01	-4.300638e+02
2.890000e-06	-3.817743e-06	-6.694940e-09	-2.702366e+01	-4.389639e+02
2.900000e-06	-3.890174e-06	-6.826866e-09	-2.753636e+01	-4.474471e+02
2.910000e-06	-3.961324e-06	-6.954270e-09	-2.803999e+01	-4.555223e+02
2.920000e-06	-4.030846e-06	-7.072816e-09	-2.853209e+01	-4.632033e+02
2.930000e-06	-4.098702e-06	-7.182275e-09	-2.901241e+01	-4.705088e+02
2.940000e-06	-4.165235e-06	-7.286926e-09	-2.948336e+01	-4.774614e+02
