# Temperatura_=_80.3
# Concentracion g/m^3_=_15000.0
# C_Vs_to_Am_M_A/Vsm_=_65563218390.804596
# pendiente_HvsI_1/m_=_3716.3
# ordenada_HvsI_A/m_=_1297.0
# frecuencia_Hz_=_301594.1381351966

Tiempo_(s)	Campo_(V.s)	Magnetizacion_(V.s)	Campo_(kA/m)	Magnetizacion_(A/m)
0.000000e+00	-5.417431e-06	-9.667443e-09	-3.833890e+01	-6.315718e+02
1.000000e-08	-5.414755e-06	-9.663661e-09	-3.831996e+01	-6.312836e+02
2.000000e-08	-5.410310e-06	-9.655469e-09	-3.828850e+01	-6.308476e+02
3.000000e-08	-5.404252e-06	-9.646459e-09	-3.824563e+01	-6.302628e+02
4.000000e-08	-5.396573e-06	-9.634627e-09	-3.819128e+01	-6.295312e+02
5.000000e-08	-5.387002e-06	-9.619471e-09	-3.812356e+01	-6.286582e+02
6.000000e-08	-5.375358e-06	-9.600878e-09	-3.804115e+01	-6.276529e+02
7.000000e-08	-5.361858e-06	-9.579331e-09	-3.794561e+01	-6.265269e+02
8.000000e-08	-5.346334e-06	-9.592740e-09	-3.783575e+01	-6.252939e+02
9.000000e-08	-5.328499e-06	-9.600550e-09	-3.770953e+01	-6.239683e+02
1.000000e-07	-5.308547e-06	-9.554642e-09	-3.756833e+01	-6.225636e+02
1.100000e-07	-5.286731e-06	-9.517279e-09	-3.741394e+01	-6.210907e+02
1.200000e-07	-5.263191e-06	-9.451700e-09	-3.724735e+01	-6.195568e+02
1.300000e-07	-5.238036e-06	-9.373814e-09	-3.706933e+01	-6.179647e+02
1.400000e-07	-5.211271e-06	-9.454829e-09	-3.687991e+01	-6.163115e+02
1.500000e-07	-5.182952e-06	-9.412188e-09	-3.667950e+01	-6.145893e+02
1.600000e-07	-5.153173e-06	-9.327396e-09	-3.646876e+01	-6.127854e+02
1.700000e-07	-5.121821e-06	-9.409371e-09	-3.624688e+01	-6.108838e+02
1.800000e-07	-5.088375e-06	-9.291909e-09	-3.601018e+01	-6.088663e+02
1.900000e-07	-5.052998e-06	-9.194321e-09	-3.575982e+01	-6.067144e+02
2.000000e-07	-5.016136e-06	-9.237334e-09	-3.549895e+01	-6.044108e+02
2.100000e-07	-4.977530e-06	-9.141607e-09	-3.522574e+01	-6.019411e+02
2.200000e-07	-4.937035e-06	-9.110214e-09	-3.493916e+01	-5.992952e+02
2.300000e-07	-4.894597e-06	-9.137317e-09	-3.463883e+01	-5.964674e+02
2.400000e-07	-4.850259e-06	-9.045127e-09	-3.432505e+01	-5.934570e+02
2.500000e-07	-4.804161e-06	-8.986362e-09	-3.399882e+01	-5.902681e+02
2.600000e-07	-4.756106e-06	-8.932351e-09	-3.365873e+01	-5.869080e+02
2.700000e-07	-4.705891e-06	-8.891986e-09	-3.330336e+01	-5.833870e+02
2.800000e-07	-4.653600e-06	-8.848955e-09	-3.293331e+01	-5.797160e+02
2.900000e-07	-4.599502e-06	-8.757424e-09	-3.255045e+01	-5.759062e+02
3.000000e-07	-4.543857e-06	-8.682113e-09	-3.215666e+01	-5.719667e+02
3.100000e-07	-4.486514e-06	-8.649340e-09	-3.175084e+01	-5.679045e+02
3.200000e-07	-4.427308e-06	-8.620616e-09	-3.133184e+01	-5.637235e+02
3.300000e-07	-4.366466e-06	-8.530833e-09	-3.090127e+01	-5.594244e+02
3.400000e-07	-4.304257e-06	-8.454179e-09	-3.046102e+01	-5.550049e+02
3.500000e-07	-4.240670e-06	-8.393849e-09	-3.001102e+01	-5.504604e+02
3.600000e-07	-4.175487e-06	-8.299624e-09	-2.954972e+01	-5.457849e+02
3.700000e-07	-4.108603e-06	-8.241380e-09	-2.907639e+01	-5.409716e+02
3.800000e-07	-4.040188e-06	-8.191412e-09	-2.859221e+01	-5.360141e+02
3.900000e-07	-3.970426e-06	-8.093631e-09	-2.809851e+01	-5.309069e+02
4.000000e-07	-3.899400e-06	-7.986925e-09	-2.759587e+01	-5.256460e+02
4.100000e-07	-3.827068e-06	-7.904358e-09	-2.708398e+01	-5.202291e+02
4.200000e-07	-3.753256e-06	-7.847095e-09	-2.656161e+01	-5.146556e+02
4.300000e-07	-3.677863e-06	-7.767457e-09	-2.602806e+01	-5.089265e+02
4.400000e-07	-3.600933e-06	-7.674311e-09	-2.548363e+01	-5.030433e+02
4.500000e-07	-3.522584e-06	-7.575055e-09	-2.492916e+01	-4.970084e+02
4.600000e-07	-3.442851e-06	-7.471962e-09	-2.436489e+01	-4.908238e+02
4.700000e-07	-3.361859e-06	-7.377618e-09	-2.379171e+01	-4.844911e+02
4.800000e-07	-3.279718e-06	-7.285064e-09	-2.321040e+01	-4.780110e+02
4.900000e-07	-3.196437e-06	-7.195081e-09	-2.262103e+01	-4.713831e+02
5.000000e-07	-3.112111e-06	-7.082116e-09	-2.202426e+01	-4.646061e+02
5.100000e-07	-3.026813e-06	-6.959960e-09	-2.142061e+01	-4.576780e+02
5.200000e-07	-2.940576e-06	-6.851082e-09	-2.081031e+01	-4.505962e+02
5.300000e-07	-2.853415e-06	-6.754323e-09	-2.019348e+01	-4.433578e+02
5.400000e-07	-2.765240e-06	-6.650203e-09	-1.956947e+01	-4.359599e+02
5.500000e-07	-2.676004e-06	-6.525419e-09	-1.893795e+01	-4.283999e+02
5.600000e-07	-2.585680e-06	-6.394430e-09	-1.829874e+01	-4.206756e+02
5.700000e-07	-2.494288e-06	-6.273731e-09	-1.765196e+01	-4.127849e+02
5.800000e-07	-2.402047e-06	-6.163978e-09	-1.699917e+01	-4.047260e+02
5.900000e-07	-2.309011e-06	-6.042970e-09	-1.634076e+01	-3.964971e+02
6.000000e-07	-2.215092e-06	-5.907507e-09	-1.567610e+01	-3.880961e+02
6.100000e-07	-2.120424e-06	-5.769247e-09	-1.500614e+01	-3.795205e+02
6.200000e-07	-2.025050e-06	-5.633003e-09	-1.433118e+01	-3.707671e+02
6.300000e-07	-1.928866e-06	-5.496959e-09	-1.365049e+01	-3.618323e+02
6.400000e-07	-1.831872e-06	-5.363875e-09	-1.296407e+01	-3.527116e+02
6.500000e-07	-1.734115e-06	-5.225419e-09	-1.227225e+01	-3.434001e+02
6.600000e-07	-1.635675e-06	-5.070499e-09	-1.157560e+01	-3.338926e+02
6.700000e-07	-1.536646e-06	-4.912196e-09	-1.087477e+01	-3.241837e+02
6.800000e-07	-1.437064e-06	-4.761489e-09	-1.017003e+01	-3.142684e+02
6.900000e-07	-1.337014e-06	-4.613812e-09	-9.461984e+00	-3.041420e+02
7.000000e-07	-1.236603e-06	-4.457635e-09	-8.751377e+00	-2.938004e+02
7.100000e-07	-1.135830e-06	-4.292728e-09	-8.038212e+00	-2.832401e+02
7.200000e-07	-1.034697e-06	-4.122972e-09	-7.322498e+00	-2.724583e+02
7.300000e-07	-9.332254e-07	-3.951387e-09	-6.604391e+00	-2.614526e+02
7.400000e-07	-8.314871e-07	-3.780783e-09	-5.884394e+00	-2.502211e+02
7.500000e-07	-7.294498e-07	-3.608161e-09	-5.162281e+00	-2.387619e+02
7.600000e-07	-6.271003e-07	-3.427580e-09	-4.437959e+00	-2.270729e+02
7.700000e-07	-5.245695e-07	-3.238486e-09	-3.712353e+00	-2.151517e+02
7.800000e-07	-4.218942e-07	-3.048979e-09	-2.985725e+00	-2.029948e+02
7.900000e-07	-3.190916e-07	-2.862500e-09	-2.258196e+00	-1.905979e+02
8.000000e-07	-2.161979e-07	-2.675113e-09	-1.530022e+00	-1.779554e+02
8.100000e-07	-1.132134e-07	-2.480657e-09	-8.012057e-01	-1.650599e+02
8.200000e-07	-1.017580e-08	-2.278680e-09	-7.201364e-02	-1.519025e+02
8.300000e-07	9.284583e-08	-2.072929e-09	6.570655e-01	-1.384722e+02
8.400000e-07	1.958758e-07	-1.865039e-09	1.386203e+00	-1.247560e+02
8.500000e-07	2.988672e-07	-1.653731e-09	2.115069e+00	-1.107390e+02
8.600000e-07	4.017835e-07	-1.437131e-09	2.843402e+00	-9.640460e+01
8.700000e-07	5.046312e-07	-1.210568e-09	3.571251e+00	-8.173510e+01
8.800000e-07	6.073389e-07	-9.752465e-10	4.298108e+00	-6.671235e+01
8.900000e-07	7.098586e-07	-7.369670e-10	5.023635e+00	-5.131889e+01
9.000000e-07	8.121558e-07	-4.952737e-10	5.747588e+00	-3.553935e+01
9.100000e-07	9.141578e-07	-2.503537e-10	6.469451e+00	-1.936206e+01
9.200000e-07	1.015832e-06	-5.725513e-14	7.188993e+00	-2.780962e+00
9.300000e-07	1.117148e-06	2.573738e-10	7.906004e+00	1.420256e+01
9.400000e-07	1.218087e-06	5.212652e-10	8.620344e+00	3.157784e+01
9.500000e-07	1.318625e-06	7.889586e-10	9.331849e+00	4.932338e+01
9.600000e-07	1.418708e-06	1.059636e-09	1.004012e+01	6.740581e+01
9.700000e-07	1.518295e-06	1.336896e-09	1.074490e+01	8.577939e+01
9.800000e-07	1.617392e-06	1.619590e-09	1.144620e+01	1.043863e+02
9.900000e-07	1.715866e-06	1.904562e-09	1.214310e+01	1.231578e+02
1.000000e-06	1.813594e-06	2.189589e-09	1.283472e+01	1.420159e+02
1.010000e-06	1.910464e-06	2.473772e-09	1.352026e+01	1.608764e+02
1.020000e-06	2.006404e-06	2.757271e-09	1.419923e+01	1.796515e+02
1.030000e-06	2.101608e-06	3.040279e-09	1.487298e+01	1.982540e+02
1.040000e-06	2.196157e-06	3.321278e-09	1.554210e+01	2.166002e+02
1.050000e-06	2.289937e-06	3.593307e-09	1.620577e+01	2.346136e+02
1.060000e-06	2.382930e-06	3.854762e-09	1.686388e+01	2.522279e+02
1.070000e-06	2.475231e-06	4.110369e-09	1.751709e+01	2.693888e+02
1.080000e-06	2.566790e-06	4.362775e-09	1.816505e+01	2.860554e+02
1.090000e-06	2.657428e-06	4.609808e-09	1.880649e+01	3.022006e+02
1.100000e-06	2.746886e-06	4.847409e-09	1.943958e+01	3.178099e+02
1.110000e-06	2.835126e-06	5.074722e-09	2.006405e+01	3.328807e+02
1.120000e-06	2.922417e-06	5.293709e-09	2.068181e+01	3.474192e+02
1.130000e-06	3.008848e-06	5.507716e-09	2.129347e+01	3.614384e+02
1.140000e-06	3.094302e-06	5.715101e-09	2.189822e+01	3.749550e+02
1.150000e-06	3.178762e-06	5.913628e-09	2.249594e+01	3.879874e+02
1.160000e-06	3.262270e-06	6.104260e-09	2.308693e+01	4.005527e+02
1.170000e-06	3.344680e-06	6.287959e-09	2.367014e+01	4.126659e+02
1.180000e-06	3.425765e-06	6.464247e-09	2.424397e+01	4.243385e+02
1.190000e-06	3.505536e-06	6.635661e-09	2.480851e+01	4.355784e+02
1.200000e-06	3.584104e-06	6.801063e-09	2.536453e+01	4.463907e+02
1.210000e-06	3.661430e-06	6.958599e-09	2.591176e+01	4.567780e+02
1.220000e-06	3.737438e-06	7.109946e-09	2.644967e+01	4.667422e+02
1.230000e-06	3.811954e-06	7.255558e-09	2.697701e+01	4.762857e+02
1.240000e-06	3.884826e-06	7.394083e-09	2.749273e+01	4.854124e+02
1.250000e-06	3.956223e-06	7.526489e-09	2.799800e+01	4.941293e+02
1.260000e-06	4.026253e-06	7.654022e-09	2.849360e+01	5.024463e+02
1.270000e-06	4.094902e-06	7.775755e-09	2.897942e+01	5.103770e+02
1.280000e-06	4.162229e-06	7.891337e-09	2.945589e+01	5.179383e+02
1.290000e-06	4.227970e-06	7.999423e-09	2.992114e+01	5.251491e+02
1.300000e-06	4.291954e-06	8.102558e-09	3.037395e+01	5.320301e+02
1.310000e-06	4.354399e-06	8.200950e-09	3.081587e+01	5.386023e+02
1.320000e-06	4.415445e-06	8.295046e-09	3.124789e+01	5.448860e+02
1.330000e-06	4.475135e-06	8.386186e-09	3.167032e+01	5.508995e+02
1.340000e-06	4.533201e-06	8.474815e-09	3.208125e+01	5.566591e+02
1.350000e-06	4.589440e-06	8.559942e-09	3.247924e+01	5.621780e+02
1.360000e-06	4.644017e-06	8.638854e-09	3.286548e+01	5.674664e+02
1.370000e-06	4.696940e-06	8.714210e-09	3.324002e+01	5.725319e+02
1.380000e-06	4.747928e-06	8.788155e-09	3.360086e+01	5.773794e+02
1.390000e-06	4.796840e-06	8.859595e-09	3.394700e+01	5.820122e+02
1.400000e-06	4.843917e-06	8.926801e-09	3.428017e+01	5.864318e+02
1.410000e-06	4.889383e-06	8.990046e-09	3.460193e+01	5.906393e+02
1.420000e-06	4.933287e-06	9.051530e-09	3.491264e+01	5.946349e+02
1.430000e-06	4.975386e-06	9.109664e-09	3.521057e+01	5.984188e+02
1.440000e-06	5.015550e-06	9.164548e-09	3.549481e+01	6.019915e+02
1.450000e-06	5.054041e-06	9.216875e-09	3.576720e+01	6.053531e+02
1.460000e-06	5.090949e-06	9.264482e-09	3.602840e+01	6.085042e+02
1.470000e-06	5.126181e-06	9.306664e-09	3.627774e+01	6.114457e+02
1.480000e-06	5.159451e-06	9.344216e-09	3.651318e+01	6.141785e+02
1.490000e-06	5.190782e-06	9.378676e-09	3.673491e+01	6.167042e+02
1.500000e-06	5.220405e-06	9.410160e-09	3.694455e+01	6.190250e+02
1.510000e-06	5.248382e-06	9.438960e-09	3.714255e+01	6.211440e+02
1.520000e-06	5.274441e-06	9.465984e-09	3.732697e+01	6.230656e+02
1.530000e-06	5.298360e-06	9.492120e-09	3.749624e+01	6.247953e+02
1.540000e-06	5.320351e-06	9.515819e-09	3.765187e+01	6.263402e+02
1.550000e-06	5.340609e-06	9.535690e-09	3.779524e+01	6.277083e+02
1.560000e-06	5.359094e-06	9.553449e-09	3.792605e+01	6.289089e+02
1.570000e-06	5.375554e-06	9.569771e-09	3.804254e+01	6.299514e+02
1.580000e-06	5.390005e-06	9.583837e-09	3.814480e+01	6.308450e+02
1.590000e-06	5.402467e-06	9.594727e-09	3.823300e+01	6.315979e+02
1.600000e-06	5.412714e-06	9.603591e-09	3.830551e+01	6.322168e+02
1.610000e-06	5.420823e-06	9.609943e-09	3.836291e+01	6.327059e+02
1.620000e-06	5.427030e-06	9.613651e-09	3.840683e+01	6.330672e+02
1.630000e-06	5.431462e-06	9.618086e-09	3.843820e+01	6.333000e+02
1.640000e-06	5.434016e-06	9.623655e-09	3.845627e+01	6.334014e+02
1.650000e-06	5.434543e-06	9.625999e-09	3.846000e+01	6.333672e+02
1.660000e-06	5.433202e-06	9.621543e-09	3.845051e+01	6.331923e+02
1.670000e-06	5.430160e-06	9.616885e-09	3.842898e+01	6.328721e+02
1.680000e-06	5.425382e-06	9.609944e-09	3.839517e+01	6.324038e+02
1.690000e-06	5.418707e-06	9.599719e-09	3.834793e+01	6.317868e+02
1.700000e-06	5.410250e-06	9.589280e-09	3.828808e+01	6.310239e+02
1.710000e-06	5.400247e-06	9.579532e-09	3.821729e+01	6.301213e+02
1.720000e-06	5.388543e-06	9.577573e-09	3.813446e+01	6.290885e+02
1.730000e-06	5.374913e-06	9.540090e-09	3.803800e+01	6.279379e+02
1.740000e-06	5.359201e-06	9.482169e-09	3.792681e+01	6.266835e+02
1.750000e-06	5.341118e-06	9.476604e-09	3.779884e+01	6.253394e+02
1.760000e-06	5.320345e-06	9.462156e-09	3.765183e+01	6.239188e+02
1.770000e-06	5.297222e-06	9.489209e-09	3.748818e+01	6.224319e+02
1.780000e-06	5.272813e-06	9.496698e-09	3.731544e+01	6.208851e+02
1.790000e-06	5.247638e-06	9.356129e-09	3.713728e+01	6.192799e+02
1.800000e-06	5.221036e-06	9.389345e-09	3.694902e+01	6.176123e+02
1.810000e-06	5.192279e-06	9.392322e-09	3.674551e+01	6.158733e+02
1.820000e-06	5.161671e-06	9.274559e-09	3.652889e+01	6.140495e+02
1.830000e-06	5.129326e-06	9.368392e-09	3.629999e+01	6.121242e+02
1.840000e-06	5.095034e-06	9.337992e-09	3.605731e+01	6.100790e+02
1.850000e-06	5.059108e-06	9.243211e-09	3.580307e+01	6.078955e+02
1.860000e-06	5.021385e-06	9.310187e-09	3.553610e+01	6.055569e+02
1.870000e-06	4.981779e-06	9.181787e-09	3.525581e+01	6.030497e+02
1.880000e-06	4.940519e-06	9.091895e-09	3.496381e+01	6.003647e+02
1.890000e-06	4.897448e-06	9.128733e-09	3.465901e+01	5.974972e+02
1.900000e-06	4.852704e-06	9.055890e-09	3.434235e+01	5.944477e+02
1.910000e-06	4.806197e-06	9.058191e-09	3.401323e+01	5.912208e+02
1.920000e-06	4.757637e-06	8.957106e-09	3.366957e+01	5.878249e+02
1.930000e-06	4.707346e-06	8.874205e-09	3.331366e+01	5.842704e+02
1.940000e-06	4.655292e-06	8.905407e-09	3.294527e+01	5.805683e+02
1.950000e-06	4.601165e-06	8.813020e-09	3.256222e+01	5.767295e+02
1.960000e-06	4.545111e-06	8.740263e-09	3.216553e+01	5.727628e+02
1.970000e-06	4.487338e-06	8.659837e-09	3.175668e+01	5.686745e+02
1.980000e-06	4.428115e-06	8.594302e-09	3.133756e+01	5.644678e+02
1.990000e-06	4.367419e-06	8.544560e-09	3.090801e+01	5.601427e+02
2.000000e-06	4.305021e-06	8.462869e-09	3.046643e+01	5.556964e+02
2.010000e-06	4.240956e-06	8.451169e-09	3.001304e+01	5.511240e+02
2.020000e-06	4.175368e-06	8.339057e-09	2.954888e+01	5.464191e+02
2.030000e-06	4.108335e-06	8.226212e-09	2.907449e+01	5.415750e+02
2.040000e-06	4.039766e-06	8.182563e-09	2.858923e+01	5.365854e+02
2.050000e-06	3.969670e-06	8.118279e-09	2.809317e+01	5.314450e+02
2.060000e-06	3.898162e-06	8.054141e-09	2.758711e+01	5.261504e+02
2.070000e-06	3.825296e-06	7.938102e-09	2.707144e+01	5.206995e+02
2.080000e-06	3.751117e-06	7.849985e-09	2.654647e+01	5.150921e+02
2.090000e-06	3.675549e-06	7.760926e-09	2.601169e+01	5.093293e+02
2.100000e-06	3.598510e-06	7.668077e-09	2.546648e+01	5.034130e+02
2.110000e-06	3.519963e-06	7.597928e-09	2.491061e+01	4.973454e+02
2.120000e-06	3.440041e-06	7.507854e-09	2.434500e+01	4.911285e+02
2.130000e-06	3.358953e-06	7.408435e-09	2.377115e+01	4.847638e+02
2.140000e-06	3.276743e-06	7.283281e-09	2.318935e+01	4.782516e+02
2.150000e-06	3.193494e-06	7.185150e-09	2.260020e+01	4.715914e+02
2.160000e-06	3.109159e-06	7.101959e-09	2.200337e+01	4.647818e+02
2.170000e-06	3.023602e-06	7.005040e-09	2.139789e+01	4.578206e+02
2.180000e-06	2.936780e-06	6.884078e-09	2.078345e+01	4.507050e+02
2.190000e-06	2.848775e-06	6.753178e-09	2.016065e+01	4.434322e+02
2.200000e-06	2.759805e-06	6.649671e-09	1.953101e+01	4.359993e+02
2.210000e-06	2.669928e-06	6.551355e-09	1.889495e+01	4.284038e+02
2.220000e-06	2.579218e-06	6.441042e-09	1.825300e+01	4.206436e+02
2.230000e-06	2.487640e-06	6.309670e-09	1.760491e+01	4.127165e+02
2.240000e-06	2.395107e-06	6.178258e-09	1.695006e+01	4.046209e+02
2.250000e-06	2.301719e-06	6.046517e-09	1.628915e+01	3.963548e+02
2.260000e-06	2.207528e-06	5.917978e-09	1.562257e+01	3.879162e+02
2.270000e-06	2.112385e-06	5.800343e-09	1.494925e+01	3.793024e+02
2.280000e-06	2.016288e-06	5.675772e-09	1.426917e+01	3.705100e+02
2.290000e-06	1.919487e-06	5.528218e-09	1.358412e+01	3.615353e+02
2.300000e-06	1.822133e-06	5.375391e-09	1.289515e+01	3.523737e+02
2.310000e-06	1.724228e-06	5.241577e-09	1.220228e+01	3.430202e+02
2.320000e-06	1.625817e-06	5.111668e-09	1.150583e+01	3.334695e+02
2.330000e-06	1.526969e-06	4.967861e-09	1.080629e+01	3.237164e+02
2.340000e-06	1.427670e-06	4.807416e-09	1.010355e+01	3.137558e+02
2.350000e-06	1.327930e-06	4.644176e-09	9.397695e+00	3.035832e+02
2.360000e-06	1.227774e-06	4.485782e-09	8.688900e+00	2.931945e+02
2.370000e-06	1.127242e-06	4.332096e-09	7.977436e+00	2.825865e+02
2.380000e-06	1.026298e-06	4.176137e-09	7.263058e+00	2.717565e+02
2.390000e-06	9.249796e-07	4.008889e-09	6.546036e+00	2.607021e+02
2.400000e-06	8.232725e-07	3.831268e-09	5.826260e+00	2.494215e+02
2.410000e-06	7.211460e-07	3.653979e-09	5.103516e+00	2.379128e+02
2.420000e-06	6.187254e-07	3.481759e-09	4.378690e+00	2.261738e+02
2.430000e-06	5.160753e-07	3.306726e-09	3.652240e+00	2.142019e+02
2.440000e-06	4.133134e-07	3.121559e-09	2.924999e+00	2.019936e+02
2.450000e-06	3.103763e-07	2.923840e-09	2.196518e+00	1.895441e+02
2.460000e-06	2.071467e-07	2.723152e-09	1.465967e+00	1.768476e+02
2.470000e-06	1.038053e-07	2.528472e-09	7.346249e-01	1.638964e+02
2.480000e-06	4.258659e-10	2.334276e-09	3.013832e-03	1.506811e+02
2.490000e-06	-1.030031e-07	2.132599e-09	-7.289479e-01	1.371902e+02
2.500000e-06	-2.064106e-07	1.920389e-09	-1.460758e+00	1.234104e+02
2.510000e-06	-3.097692e-07	1.701267e-09	-2.192222e+00	1.093264e+02
2.520000e-06	-4.130240e-07	1.480979e-09	-2.922951e+00	9.492127e+01
2.530000e-06	-5.160321e-07	1.259316e-09	-3.651935e+00	8.017715e+01
2.540000e-06	-6.187930e-07	1.034425e-09	-4.379168e+00	6.507593e+01
2.550000e-06	-7.213510e-07	8.000405e-10	-5.104966e+00	4.960049e+01
2.560000e-06	-8.236323e-07	5.514677e-10	-5.828806e+00	3.373608e+01
2.570000e-06	-9.255175e-07	2.977913e-10	-6.549843e+00	1.747210e+01
2.580000e-06	-1.026909e-06	4.590549e-11	-7.267388e+00	8.039118e-01
2.590000e-06	-1.127784e-06	-2.087332e-10	-7.981274e+00	-1.626526e+01
2.600000e-06	-1.228189e-06	-4.721067e-10	-8.691831e+00	-3.372253e+01
2.610000e-06	-1.328150e-06	-7.452432e-10	-9.399253e+00	-5.154394e+01
2.620000e-06	-1.427687e-06	-1.027024e-09	-1.010368e+01	-6.969347e+01
2.630000e-06	-1.526827e-06	-1.312139e-09	-1.080528e+01	-8.812276e+01
2.640000e-06	-1.625466e-06	-1.597526e-09	-1.150334e+01	-1.067715e+02
2.650000e-06	-1.723451e-06	-1.886520e-09	-1.219678e+01	-1.255688e+02
2.660000e-06	-1.820818e-06	-2.180204e-09	-1.288584e+01	-1.444352e+02
2.670000e-06	-1.917578e-06	-2.474989e-09	-1.357061e+01	-1.632852e+02
2.680000e-06	-2.013698e-06	-2.763344e-09	-1.425084e+01	-1.820311e+02
2.690000e-06	-2.109220e-06	-3.045055e-09	-1.492685e+01	-2.005860e+02
2.700000e-06	-2.204051e-06	-3.322823e-09	-1.559796e+01	-2.188674e+02
2.710000e-06	-2.298016e-06	-3.598294e-09	-1.626295e+01	-2.368010e+02
2.720000e-06	-2.390867e-06	-3.869883e-09	-1.692005e+01	-2.543227e+02
2.730000e-06	-2.482711e-06	-4.132283e-09	-1.757002e+01	-2.713811e+02
2.740000e-06	-2.573759e-06	-4.383692e-09	-1.821437e+01	-2.879382e+02
2.750000e-06	-2.663872e-06	-4.625409e-09	-1.885209e+01	-3.039698e+02
2.760000e-06	-2.752985e-06	-4.862068e-09	-1.948274e+01	-3.194641e+02
2.770000e-06	-2.841248e-06	-5.094695e-09	-2.010738e+01	-3.344205e+02
2.780000e-06	-2.928721e-06	-5.320276e-09	-2.072641e+01	-3.488469e+02
2.790000e-06	-3.015237e-06	-5.536156e-09	-2.133868e+01	-3.627573e+02
2.800000e-06	-3.100481e-06	-5.742387e-09	-2.194196e+01	-3.761691e+02
2.810000e-06	-3.184459e-06	-5.939444e-09	-2.253626e+01	-3.891004e+02
2.820000e-06	-3.267453e-06	-6.129320e-09	-2.312361e+01	-4.015682e+02
2.830000e-06	-3.349380e-06	-6.314098e-09	-2.370340e+01	-4.135865e+02
2.840000e-06	-3.430146e-06	-6.489892e-09	-2.427498e+01	-4.251663e+02
2.850000e-06	-3.509840e-06	-6.655990e-09	-2.483897e+01	-4.363148e+02
2.860000e-06	-3.588157e-06	-6.815893e-09	-2.539321e+01	-4.470362e+02
2.870000e-06	-3.664854e-06	-6.972286e-09	-2.593600e+01	-4.573332e+02
2.880000e-06	-3.740083e-06	-7.124226e-09	-2.646839e+01	-4.672074e+02
2.890000e-06	-3.813899e-06	-7.269040e-09	-2.699078e+01	-4.766616e+02
2.900000e-06	-3.886400e-06	-7.407819e-09	-2.750387e+01	-4.857003e+02
2.910000e-06	-3.957612e-06	-7.542727e-09	-2.800783e+01	-4.943309e+02
2.920000e-06	-4.027237e-06	-7.670596e-09	-2.850056e+01	-5.025644e+02
2.930000e-06	-4.095246e-06	-7.792535e-09	-2.898186e+01	-5.104149e+02
2.940000e-06	-4.161832e-06	-7.910801e-09	-2.945309e+01	-5.178998e+02
