# Temperatura_=_40.38
# Concentracion g/m^3_=_15000.0
# C_Vs_to_Am_M_A/Vsm_=_65563218390.804596
# pendiente_HvsI_1/m_=_3716.3
# ordenada_HvsI_A/m_=_1297.0
# frecuencia_Hz_=_301597.3179819974

Tiempo_(s)	Campo_(V.s)	Magnetizacion_(V.s)	Campo_(kA/m)	Magnetizacion_(A/m)
0.000000e+00	-5.396948e-06	-8.223279e-09	-3.834230e+01	-5.371107e+02
1.000000e-08	-5.394352e-06	-8.220517e-09	-3.832385e+01	-5.368681e+02
2.000000e-08	-5.389944e-06	-8.215841e-09	-3.829254e+01	-5.365190e+02
3.000000e-08	-5.383878e-06	-8.210939e-09	-3.824944e+01	-5.360647e+02
4.000000e-08	-5.376253e-06	-8.199200e-09	-3.819527e+01	-5.355074e+02
5.000000e-08	-5.366852e-06	-8.182798e-09	-3.812848e+01	-5.348501e+02
6.000000e-08	-5.355388e-06	-8.163398e-09	-3.804704e+01	-5.340971e+02
7.000000e-08	-5.342014e-06	-8.134830e-09	-3.795202e+01	-5.332540e+02
8.000000e-08	-5.326543e-06	-8.153305e-09	-3.784211e+01	-5.323270e+02
9.000000e-08	-5.308797e-06	-8.197064e-09	-3.771604e+01	-5.313230e+02
1.000000e-07	-5.289000e-06	-8.157236e-09	-3.757539e+01	-5.302484e+02
1.100000e-07	-5.267284e-06	-8.115199e-09	-3.742111e+01	-5.291091e+02
1.200000e-07	-5.243800e-06	-8.058453e-09	-3.725427e+01	-5.279090e+02
1.300000e-07	-5.218712e-06	-7.933354e-09	-3.707603e+01	-5.266501e+02
1.400000e-07	-5.192037e-06	-8.059537e-09	-3.688652e+01	-5.253316e+02
1.500000e-07	-5.163823e-06	-8.083063e-09	-3.668608e+01	-5.239500e+02
1.600000e-07	-5.134153e-06	-7.906499e-09	-3.647529e+01	-5.224990e+02
1.700000e-07	-5.102882e-06	-8.023469e-09	-3.625312e+01	-5.209703e+02
1.800000e-07	-5.069527e-06	-7.943907e-09	-3.601616e+01	-5.193540e+02
1.900000e-07	-5.034326e-06	-7.808512e-09	-3.576607e+01	-5.176395e+02
2.000000e-07	-4.997647e-06	-7.965583e-09	-3.550549e+01	-5.158168e+02
2.100000e-07	-4.959200e-06	-7.848230e-09	-3.523234e+01	-5.138768e+02
2.200000e-07	-4.918947e-06	-7.714134e-09	-3.494637e+01	-5.118127e+02
2.300000e-07	-4.876743e-06	-7.796329e-09	-3.464653e+01	-5.096201e+02
2.400000e-07	-4.832609e-06	-7.748519e-09	-3.433299e+01	-5.072975e+02
2.500000e-07	-4.786699e-06	-7.728391e-09	-3.400682e+01	-5.048459e+02
2.600000e-07	-4.738847e-06	-7.681635e-09	-3.366686e+01	-5.022688e+02
2.700000e-07	-4.688885e-06	-7.584820e-09	-3.331191e+01	-4.995712e+02
2.800000e-07	-4.636856e-06	-7.553432e-09	-3.294227e+01	-4.967592e+02
2.900000e-07	-4.583032e-06	-7.528419e-09	-3.255988e+01	-4.938387e+02
3.000000e-07	-4.527647e-06	-7.508598e-09	-3.216640e+01	-4.908149e+02
3.100000e-07	-4.470507e-06	-7.465777e-09	-3.176045e+01	-4.876918e+02
3.200000e-07	-4.411525e-06	-7.413829e-09	-3.134142e+01	-4.844715e+02
3.300000e-07	-4.350997e-06	-7.320685e-09	-3.091140e+01	-4.811541e+02
3.400000e-07	-4.289006e-06	-7.255807e-09	-3.047099e+01	-4.777380e+02
3.500000e-07	-4.225683e-06	-7.269010e-09	-3.002111e+01	-4.742202e+02
3.600000e-07	-4.160805e-06	-7.196316e-09	-2.956019e+01	-4.705966e+02
3.700000e-07	-4.094133e-06	-7.103258e-09	-2.908653e+01	-4.668625e+02
3.800000e-07	-4.025949e-06	-7.064899e-09	-2.860212e+01	-4.630137e+02
3.900000e-07	-3.956454e-06	-7.005050e-09	-2.810839e+01	-4.590463e+02
4.000000e-07	-3.885762e-06	-6.940523e-09	-2.760616e+01	-4.549575e+02
4.100000e-07	-3.813824e-06	-6.871076e-09	-2.709509e+01	-4.507452e+02
4.200000e-07	-3.740388e-06	-6.817180e-09	-2.657337e+01	-4.464087e+02
4.300000e-07	-3.665336e-06	-6.740059e-09	-2.604016e+01	-4.419477e+02
4.400000e-07	-3.588767e-06	-6.661878e-09	-2.549618e+01	-4.373625e+02
4.500000e-07	-3.510758e-06	-6.605914e-09	-2.494198e+01	-4.326534e+02
4.600000e-07	-3.431327e-06	-6.547108e-09	-2.437766e+01	-4.278202e+02
4.700000e-07	-3.350579e-06	-6.464976e-09	-2.380399e+01	-4.228622e+02
4.800000e-07	-3.268646e-06	-6.355207e-09	-2.322190e+01	-4.177780e+02
4.900000e-07	-3.185655e-06	-6.285187e-09	-2.263230e+01	-4.125653e+02
5.000000e-07	-3.101683e-06	-6.223898e-09	-2.203572e+01	-4.072211e+02
5.100000e-07	-3.016795e-06	-6.135227e-09	-2.143264e+01	-4.017418e+02
5.200000e-07	-2.930966e-06	-6.038311e-09	-2.082287e+01	-3.961239e+02
5.300000e-07	-2.844109e-06	-5.944068e-09	-2.020580e+01	-3.903639e+02
5.400000e-07	-2.756335e-06	-5.849647e-09	-1.958222e+01	-3.844588e+02
5.500000e-07	-2.667549e-06	-5.758899e-09	-1.895145e+01	-3.784061e+02
5.600000e-07	-2.577531e-06	-5.674581e-09	-1.831192e+01	-3.722040e+02
5.700000e-07	-2.486429e-06	-5.581885e-09	-1.766469e+01	-3.658515e+02
5.800000e-07	-2.394491e-06	-5.474667e-09	-1.701152e+01	-3.593481e+02
5.900000e-07	-2.301785e-06	-5.366410e-09	-1.635289e+01	-3.526932e+02
6.000000e-07	-2.208291e-06	-5.268021e-09	-1.568867e+01	-3.458864e+02
6.100000e-07	-2.114013e-06	-5.165484e-09	-1.501888e+01	-3.389268e+02
6.200000e-07	-2.018996e-06	-5.052586e-09	-1.434384e+01	-3.318130e+02
6.300000e-07	-1.923246e-06	-4.935645e-09	-1.366359e+01	-3.245424e+02
6.400000e-07	-1.826772e-06	-4.822492e-09	-1.297819e+01	-3.171118e+02
6.500000e-07	-1.729551e-06	-4.710628e-09	-1.228749e+01	-3.095169e+02
6.600000e-07	-1.631471e-06	-4.593007e-09	-1.159069e+01	-3.017525e+02
6.700000e-07	-1.532710e-06	-4.469669e-09	-1.088905e+01	-2.938129e+02
6.800000e-07	-1.433522e-06	-4.340458e-09	-1.018437e+01	-2.856919e+02
6.900000e-07	-1.333904e-06	-4.209985e-09	-9.476640e+00	-2.773834e+02
7.000000e-07	-1.233910e-06	-4.082308e-09	-8.766239e+00	-2.688810e+02
7.100000e-07	-1.133575e-06	-3.954425e-09	-8.053416e+00	-2.601787e+02
7.200000e-07	-1.032890e-06	-3.817460e-09	-7.338104e+00	-2.512710e+02
7.300000e-07	-9.318537e-07	-3.673364e-09	-6.620299e+00	-2.421526e+02
7.400000e-07	-8.304292e-07	-3.525558e-09	-5.899735e+00	-2.328188e+02
7.500000e-07	-7.286543e-07	-3.376850e-09	-5.176681e+00	-2.232652e+02
7.600000e-07	-6.266454e-07	-3.228930e-09	-4.451965e+00	-2.134877e+02
7.700000e-07	-5.244780e-07	-3.077763e-09	-3.726123e+00	-2.034827e+02
7.800000e-07	-4.221227e-07	-2.922281e-09	-2.998946e+00	-1.932464e+02
7.900000e-07	-3.196842e-07	-2.759854e-09	-2.271177e+00	-1.827755e+02
8.000000e-07	-2.171709e-07	-2.593502e-09	-1.542878e+00	-1.720663e+02
8.100000e-07	-1.144878e-07	-2.424933e-09	-8.133721e-01	-1.611151e+02
8.200000e-07	-1.175491e-08	-2.253200e-09	-8.351208e-02	-1.499178e+02
8.300000e-07	9.095176e-08	-2.077585e-09	6.461614e-01	-1.384697e+02
8.400000e-07	1.936870e-07	-1.897457e-09	1.376038e+00	-1.267654e+02
8.500000e-07	2.964035e-07	-1.713227e-09	2.105781e+00	-1.147984e+02
8.600000e-07	3.990472e-07	-1.527160e-09	2.835008e+00	-1.025609e+02
8.700000e-07	5.015597e-07	-1.337721e-09	3.563301e+00	-9.004406e+01
8.800000e-07	6.038928e-07	-1.142081e-09	4.290321e+00	-7.723773e+01
8.900000e-07	7.060554e-07	-9.419081e-10	5.016129e+00	-6.413113e+01
9.000000e-07	8.080002e-07	-7.380365e-10	5.740390e+00	-5.071336e+01
9.100000e-07	9.096708e-07	-5.315768e-10	6.462703e+00	-3.697443e+01
9.200000e-07	1.011027e-06	-3.213528e-10	7.182783e+00	-2.290646e+01
9.300000e-07	1.111986e-06	-1.044260e-10	7.900041e+00	-8.505210e+00
9.400000e-07	1.212512e-06	1.202515e-10	8.614217e+00	6.228351e+00
9.500000e-07	1.312644e-06	3.487457e-10	9.325600e+00	2.128641e+01
9.600000e-07	1.412421e-06	5.819241e-10	1.003446e+01	3.665292e+01
9.700000e-07	1.511778e-06	8.218637e-10	1.074034e+01	5.230247e+01
9.800000e-07	1.610505e-06	1.064685e-09	1.144174e+01	6.819972e+01
9.900000e-07	1.708495e-06	1.310128e-09	1.213790e+01	8.429938e+01
1.000000e-06	1.805632e-06	1.557718e-09	1.282801e+01	1.005469e+02
1.010000e-06	1.901936e-06	1.807892e-09	1.351219e+01	1.168800e+02
1.020000e-06	1.997494e-06	2.057688e-09	1.419108e+01	1.332305e+02
1.030000e-06	2.092311e-06	2.304495e-09	1.486470e+01	1.495269e+02
1.040000e-06	2.186447e-06	2.550915e-09	1.553349e+01	1.656972e+02
1.050000e-06	2.279830e-06	2.793534e-09	1.619692e+01	1.816719e+02
1.060000e-06	2.372429e-06	3.030664e-09	1.685478e+01	1.973866e+02
1.070000e-06	2.464348e-06	3.261850e-09	1.750781e+01	2.127843e+02
1.080000e-06	2.555543e-06	3.489413e-09	1.815570e+01	2.278174e+02
1.090000e-06	2.645768e-06	3.712284e-09	1.879670e+01	2.424482e+02
1.100000e-06	2.734840e-06	3.928211e-09	1.942951e+01	2.566496e+02
1.110000e-06	2.822794e-06	4.134671e-09	2.005438e+01	2.704044e+02
1.120000e-06	2.909787e-06	4.332892e-09	2.067241e+01	2.837040e+02
1.130000e-06	2.995863e-06	4.526951e-09	2.128393e+01	2.965465e+02
1.140000e-06	3.081003e-06	4.716851e-09	2.188880e+01	3.089355e+02
1.150000e-06	3.165236e-06	4.899770e-09	2.248723e+01	3.208770e+02
1.160000e-06	3.248480e-06	5.075046e-09	2.307864e+01	3.323786e+02
1.170000e-06	3.330537e-06	5.245291e-09	2.366161e+01	3.434476e+02
1.180000e-06	3.411353e-06	5.408443e-09	2.423575e+01	3.540901e+02
1.190000e-06	3.490916e-06	5.564361e-09	2.480101e+01	3.643107e+02
1.200000e-06	3.569210e-06	5.714288e-09	2.535724e+01	3.741128e+02
1.210000e-06	3.646259e-06	5.857939e-09	2.590463e+01	3.834993e+02
1.220000e-06	3.722036e-06	5.993014e-09	2.644299e+01	3.924732e+02
1.230000e-06	3.796272e-06	6.122127e-09	2.697039e+01	4.010392e+02
1.240000e-06	3.868844e-06	6.245677e-09	2.748598e+01	4.092044e+02
1.250000e-06	3.940001e-06	6.362998e-09	2.799150e+01	4.169789e+02
1.260000e-06	4.009808e-06	6.473080e-09	2.848745e+01	4.243765e+02
1.270000e-06	4.078273e-06	6.577952e-09	2.897385e+01	4.314146e+02
1.280000e-06	4.145312e-06	6.679321e-09	2.945012e+01	4.381133e+02
1.290000e-06	4.210692e-06	6.775377e-09	2.991461e+01	4.444950e+02
1.300000e-06	4.274441e-06	6.866678e-09	3.036751e+01	4.505827e+02
1.310000e-06	4.336739e-06	6.953884e-09	3.081011e+01	4.563989e+02
1.320000e-06	4.397603e-06	7.038808e-09	3.124251e+01	4.619644e+02
1.330000e-06	4.457068e-06	7.120886e-09	3.166497e+01	4.672967e+02
1.340000e-06	4.514918e-06	7.199155e-09	3.207597e+01	4.724099e+02
1.350000e-06	4.570966e-06	7.273682e-09	3.247416e+01	4.773137e+02
1.360000e-06	4.625378e-06	7.343010e-09	3.286073e+01	4.820139e+02
1.370000e-06	4.678162e-06	7.409188e-09	3.323573e+01	4.865127e+02
1.380000e-06	4.728946e-06	7.473447e-09	3.359652e+01	4.908095e+02
1.390000e-06	4.777655e-06	7.535887e-09	3.394257e+01	4.949021e+02
1.400000e-06	4.824594e-06	7.594519e-09	3.427604e+01	4.987874e+02
1.410000e-06	4.869900e-06	7.647816e-09	3.459792e+01	5.024630e+02
1.420000e-06	4.913651e-06	7.698453e-09	3.490875e+01	5.059277e+02
1.430000e-06	4.955606e-06	7.747356e-09	3.520681e+01	5.091818e+02
1.440000e-06	4.995632e-06	7.794094e-09	3.549117e+01	5.122281e+02
1.450000e-06	5.033966e-06	7.837444e-09	3.576351e+01	5.150712e+02
1.460000e-06	5.070752e-06	7.876862e-09	3.602486e+01	5.177173e+02
1.470000e-06	5.105867e-06	7.912147e-09	3.627433e+01	5.201738e+02
1.480000e-06	5.139023e-06	7.943324e-09	3.650989e+01	5.224489e+02
1.490000e-06	5.170285e-06	7.971597e-09	3.673198e+01	5.245504e+02
1.500000e-06	5.199835e-06	7.997865e-09	3.694192e+01	5.264858e+02
1.510000e-06	5.227743e-06	8.023821e-09	3.714019e+01	5.282617e+02
1.520000e-06	5.253769e-06	8.047963e-09	3.732509e+01	5.298837e+02
1.530000e-06	5.277621e-06	8.069549e-09	3.749454e+01	5.313565e+02
1.540000e-06	5.299530e-06	8.088903e-09	3.765019e+01	5.326838e+02
1.550000e-06	5.319794e-06	8.106275e-09	3.779416e+01	5.338690e+02
1.560000e-06	5.338257e-06	8.122187e-09	3.792533e+01	5.349153e+02
1.570000e-06	5.354670e-06	8.135352e-09	3.804194e+01	5.358257e+02
1.580000e-06	5.369128e-06	8.146525e-09	3.814465e+01	5.366039e+02
1.590000e-06	5.381609e-06	8.156433e-09	3.823333e+01	5.372533e+02
1.600000e-06	5.391874e-06	8.164434e-09	3.830625e+01	5.377778e+02
1.610000e-06	5.399974e-06	8.170642e-09	3.836380e+01	5.381812e+02
1.620000e-06	5.406162e-06	8.175901e-09	3.840776e+01	5.384672e+02
1.630000e-06	5.410585e-06	8.180182e-09	3.843918e+01	5.386388e+02
1.640000e-06	5.413083e-06	8.183460e-09	3.845693e+01	5.386987e+02
1.650000e-06	5.413515e-06	8.184740e-09	3.846000e+01	5.386486e+02
1.660000e-06	5.412125e-06	8.179759e-09	3.845012e+01	5.384901e+02
1.670000e-06	5.409132e-06	8.176459e-09	3.842886e+01	5.382242e+02
1.680000e-06	5.404529e-06	8.172529e-09	3.839616e+01	5.378520e+02
1.690000e-06	5.398028e-06	8.164883e-09	3.834997e+01	5.373750e+02
1.700000e-06	5.389651e-06	8.157059e-09	3.829045e+01	5.367956e+02
1.710000e-06	5.379691e-06	8.151320e-09	3.821970e+01	5.361170e+02
1.720000e-06	5.368082e-06	8.157867e-09	3.813722e+01	5.353438e+02
1.730000e-06	5.354534e-06	8.136940e-09	3.804097e+01	5.344818e+02
1.740000e-06	5.338879e-06	8.048414e-09	3.792975e+01	5.335373e+02
1.750000e-06	5.320871e-06	8.049266e-09	3.780181e+01	5.325172e+02
1.760000e-06	5.300135e-06	8.052458e-09	3.765449e+01	5.314279e+02
1.770000e-06	5.277014e-06	8.084961e-09	3.749024e+01	5.302749e+02
1.780000e-06	5.252640e-06	8.164536e-09	3.731707e+01	5.290617e+02
1.790000e-06	5.227622e-06	7.956934e-09	3.713933e+01	5.277898e+02
1.800000e-06	5.201185e-06	7.970371e-09	3.695151e+01	5.264577e+02
1.810000e-06	5.172533e-06	8.052352e-09	3.674796e+01	5.250614e+02
1.820000e-06	5.142055e-06	7.838614e-09	3.653143e+01	5.235941e+02
1.830000e-06	5.109878e-06	7.978300e-09	3.630283e+01	5.220471e+02
1.840000e-06	5.075675e-06	8.008200e-09	3.605983e+01	5.204102e+02
1.850000e-06	5.039870e-06	7.770275e-09	3.580546e+01	5.186730e+02
1.860000e-06	5.002327e-06	7.934594e-09	3.553873e+01	5.168254e+02
1.870000e-06	4.962872e-06	7.900192e-09	3.525843e+01	5.148589e+02
1.880000e-06	4.921768e-06	7.750935e-09	3.496641e+01	5.127672e+02
1.890000e-06	4.878857e-06	7.827285e-09	3.466155e+01	5.105463e+02
1.900000e-06	4.834406e-06	7.676620e-09	3.434575e+01	5.081955e+02
1.910000e-06	4.788133e-06	7.718993e-09	3.401701e+01	5.057162e+02
1.920000e-06	4.739657e-06	7.713833e-09	3.367262e+01	5.031124e+02
1.930000e-06	4.689564e-06	7.568623e-09	3.331673e+01	5.003894e+02
1.940000e-06	4.637837e-06	7.662965e-09	3.294924e+01	4.975532e+02
1.950000e-06	4.584002e-06	7.538429e-09	3.256677e+01	4.946098e+02
1.960000e-06	4.528162e-06	7.432479e-09	3.217006e+01	4.915641e+02
1.970000e-06	4.470660e-06	7.427329e-09	3.176154e+01	4.884196e+02
1.980000e-06	4.411759e-06	7.408991e-09	3.134308e+01	4.851781e+02
1.990000e-06	4.351413e-06	7.409606e-09	3.091436e+01	4.818394e+02
2.000000e-06	4.289319e-06	7.234731e-09	3.047322e+01	4.784014e+02
2.010000e-06	4.225529e-06	7.244288e-09	3.002002e+01	4.748609e+02
2.020000e-06	4.160258e-06	7.212070e-09	2.955631e+01	4.712136e+02
2.030000e-06	4.093539e-06	7.070973e-09	2.908231e+01	4.674549e+02
2.040000e-06	4.025374e-06	7.082770e-09	2.859803e+01	4.635805e+02
2.050000e-06	3.955639e-06	7.026382e-09	2.810260e+01	4.595869e+02
2.060000e-06	3.884373e-06	6.968423e-09	2.759630e+01	4.554713e+02
2.070000e-06	3.811776e-06	6.846979e-09	2.708054e+01	4.512321e+02
2.080000e-06	3.737879e-06	6.788899e-09	2.655554e+01	4.468685e+02
2.090000e-06	3.662623e-06	6.783599e-09	2.602089e+01	4.423805e+02
2.100000e-06	3.585948e-06	6.672926e-09	2.547615e+01	4.377683e+02
2.110000e-06	3.507678e-06	6.587227e-09	2.492009e+01	4.330322e+02
2.120000e-06	3.428009e-06	6.514598e-09	2.435409e+01	4.281719e+02
2.130000e-06	3.347251e-06	6.472119e-09	2.378035e+01	4.231866e+02
2.140000e-06	3.265315e-06	6.375049e-09	2.319824e+01	4.180747e+02
2.150000e-06	3.182255e-06	6.289022e-09	2.260814e+01	4.128337e+02
2.160000e-06	3.098287e-06	6.229316e-09	2.201160e+01	4.074604e+02
2.170000e-06	3.013261e-06	6.127427e-09	2.140754e+01	4.019513e+02
2.180000e-06	2.926870e-06	6.042102e-09	2.079378e+01	3.963029e+02
2.190000e-06	2.839246e-06	5.960647e-09	2.017125e+01	3.905116e+02
2.200000e-06	2.750630e-06	5.892463e-09	1.954169e+01	3.845746e+02
2.210000e-06	2.661106e-06	5.789887e-09	1.890567e+01	3.784896e+02
2.220000e-06	2.570601e-06	5.676024e-09	1.826269e+01	3.722550e+02
2.230000e-06	2.479200e-06	5.581669e-09	1.761333e+01	3.658698e+02
2.240000e-06	2.387141e-06	5.491089e-09	1.695930e+01	3.593335e+02
2.250000e-06	2.294334e-06	5.397944e-09	1.629996e+01	3.526456e+02
2.260000e-06	2.200579e-06	5.290727e-09	1.563388e+01	3.458058e+02
2.270000e-06	2.105777e-06	5.179029e-09	1.496037e+01	3.388129e+02
2.280000e-06	2.010009e-06	5.064489e-09	1.427999e+01	3.316653e+02
2.290000e-06	1.913524e-06	4.956241e-09	1.359452e+01	3.243604e+02
2.300000e-06	1.816554e-06	4.848594e-09	1.290560e+01	3.168946e+02
2.310000e-06	1.719117e-06	4.736926e-09	1.221336e+01	3.092633e+02
2.320000e-06	1.621107e-06	4.613643e-09	1.151706e+01	3.014615e+02
2.330000e-06	1.522493e-06	4.486909e-09	1.081646e+01	2.934832e+02
2.340000e-06	1.423378e-06	4.364759e-09	1.011230e+01	2.853221e+02
2.350000e-06	1.323869e-06	4.241657e-09	9.405347e+00	2.769721e+02
2.360000e-06	1.223985e-06	4.116666e-09	8.695733e+00	2.684270e+02
2.370000e-06	1.123846e-06	3.980814e-09	7.984300e+00	2.596808e+02
2.380000e-06	1.023474e-06	3.837306e-09	7.271214e+00	2.507279e+02
2.390000e-06	9.226719e-07	3.700148e-09	6.555068e+00	2.415633e+02
2.400000e-06	8.213531e-07	3.568389e-09	5.835255e+00	2.321824e+02
2.410000e-06	7.197448e-07	3.426879e-09	5.113385e+00	2.225807e+02
2.420000e-06	6.179395e-07	3.271773e-09	4.390115e+00	2.127544e+02
2.430000e-06	5.158606e-07	3.111947e-09	3.664901e+00	2.026997e+02
2.440000e-06	4.135097e-07	2.958436e-09	2.937755e+00	1.924131e+02
2.450000e-06	3.109041e-07	2.804446e-09	2.208800e+00	1.818909e+02
2.460000e-06	2.080515e-07	2.644018e-09	1.478090e+00	1.711298e+02
2.470000e-06	1.050699e-07	2.480579e-09	7.464627e-01	1.601258e+02
2.480000e-06	2.126174e-09	2.306579e-09	1.510527e-02	1.488747e+02
2.490000e-06	-1.008363e-07	2.126212e-09	-7.163858e-01	1.373719e+02
2.500000e-06	-2.038407e-07	1.948912e-09	-1.448174e+00	1.256115e+02
2.510000e-06	-3.067343e-07	1.772943e-09	-2.179175e+00	1.135868e+02
2.520000e-06	-4.094616e-07	1.589135e-09	-2.908996e+00	1.012898e+02
2.530000e-06	-5.120670e-07	1.393741e-09	-3.637950e+00	8.871139e+01
2.540000e-06	-6.144276e-07	1.194982e-09	-4.365165e+00	7.584124e+01
2.550000e-06	-7.164361e-07	9.949262e-10	-5.089878e+00	6.266845e+01
2.560000e-06	-8.181000e-07	7.877510e-10	-5.812143e+00	4.918225e+01
2.570000e-06	-9.193665e-07	5.722788e-10	-6.531585e+00	3.537296e+01
2.580000e-06	-1.020183e-06	3.519992e-10	-7.247830e+00	2.123337e+01
2.590000e-06	-1.120645e-06	1.291969e-10	-7.961553e+00	6.760208e+00
2.600000e-06	-1.220787e-06	-9.520847e-11	-8.673009e+00	-8.044216e+00
2.610000e-06	-1.320534e-06	-3.223930e-10	-9.381658e+00	-2.317044e+01
2.620000e-06	-1.419811e-06	-5.574864e-10	-1.008697e+01	-3.860048e+01
2.630000e-06	-1.518555e-06	-7.998276e-10	-1.078848e+01	-5.430684e+01
2.640000e-06	-1.616751e-06	-1.044801e-09	-1.148611e+01	-7.025201e+01
2.650000e-06	-1.714363e-06	-1.290977e-09	-1.217959e+01	-8.638865e+01
2.660000e-06	-1.811387e-06	-1.537944e-09	-1.286889e+01	-1.026604e+02
2.670000e-06	-1.907887e-06	-1.786287e-09	-1.355447e+01	-1.190036e+02
2.680000e-06	-2.003889e-06	-2.034550e-09	-1.423651e+01	-1.353489e+02
2.690000e-06	-2.099214e-06	-2.282289e-09	-1.491375e+01	-1.516247e+02
2.700000e-06	-2.193588e-06	-2.528373e-09	-1.558421e+01	-1.677593e+02
2.710000e-06	-2.286875e-06	-2.771980e-09	-1.624697e+01	-1.836839e+02
2.720000e-06	-2.379240e-06	-3.012923e-09	-1.690317e+01	-1.993355e+02
2.730000e-06	-2.470801e-06	-3.248783e-09	-1.755366e+01	-2.146592e+02
2.740000e-06	-2.561490e-06	-3.478578e-09	-1.819795e+01	-2.296093e+02
2.750000e-06	-2.651296e-06	-3.702239e-09	-1.883597e+01	-2.441504e+02
2.760000e-06	-2.740191e-06	-3.920589e-09	-1.946753e+01	-2.582577e+02
2.770000e-06	-2.828249e-06	-4.133193e-09	-2.009313e+01	-2.719158e+02
2.780000e-06	-2.915421e-06	-4.336123e-09	-2.071243e+01	-2.851178e+02
2.790000e-06	-3.001418e-06	-4.530262e-09	-2.132339e+01	-2.978631e+02
2.800000e-06	-3.086236e-06	-4.719580e-09	-2.192598e+01	-3.101560e+02
2.810000e-06	-3.170021e-06	-4.900707e-09	-2.252122e+01	-3.220030e+02
2.820000e-06	-3.252768e-06	-5.072163e-09	-2.310910e+01	-3.334118e+02
2.830000e-06	-3.334447e-06	-5.237841e-09	-2.368938e+01	-3.443893e+02
2.840000e-06	-3.415066e-06	-5.397430e-09	-2.426214e+01	-3.549414e+02
2.850000e-06	-3.494510e-06	-5.549711e-09	-2.482654e+01	-3.650725e+02
2.860000e-06	-3.572508e-06	-5.695914e-09	-2.538067e+01	-3.747858e+02
2.870000e-06	-3.648958e-06	-5.839046e-09	-2.592381e+01	-3.840839e+02
2.880000e-06	-3.723964e-06	-5.976865e-09	-2.645668e+01	-3.929704e+02
2.890000e-06	-3.797582e-06	-6.107278e-09	-2.697970e+01	-4.014503e+02
2.900000e-06	-3.869915e-06	-6.234787e-09	-2.749358e+01	-4.095311e+02
2.910000e-06	-3.940880e-06	-6.359955e-09	-2.799775e+01	-4.172240e+02
2.920000e-06	-4.010232e-06	-6.476060e-09	-2.849046e+01	-4.245434e+02
2.930000e-06	-4.078065e-06	-6.581919e-09	-2.897237e+01	-4.315074e+02
2.940000e-06	-4.144508e-06	-6.682328e-09	-2.944441e+01	-4.381367e+02
