# Temperatura_=_70.33
# Concentracion g/m^3_=_15000.0
# C_Vs_to_Am_M_A/Vsm_=_65563218390.804596
# pendiente_HvsI_1/m_=_3716.3
# ordenada_HvsI_A/m_=_1297.0
# frecuencia_Hz_=_301599.1460133689

Tiempo_(s)	Campo_(V.s)	Magnetizacion_(V.s)	Campo_(kA/m)	Magnetizacion_(A/m)
0.000000e+00	-5.419437e-06	-9.259775e-09	-3.833512e+01	-6.051505e+02
1.000000e-08	-5.416893e-06	-9.255890e-09	-3.831713e+01	-6.048827e+02
2.000000e-08	-5.412485e-06	-9.247971e-09	-3.828595e+01	-6.044794e+02
3.000000e-08	-5.406433e-06	-9.241652e-09	-3.824314e+01	-6.039386e+02
4.000000e-08	-5.398797e-06	-9.232050e-09	-3.818913e+01	-6.032607e+02
5.000000e-08	-5.389299e-06	-9.218839e-09	-3.812194e+01	-6.024491e+02
6.000000e-08	-5.377719e-06	-9.203093e-09	-3.804003e+01	-6.015104e+02
7.000000e-08	-5.364248e-06	-9.180463e-09	-3.794474e+01	-6.004547e+02
8.000000e-08	-5.348702e-06	-9.187020e-09	-3.783477e+01	-5.992943e+02
9.000000e-08	-5.330905e-06	-9.220604e-09	-3.770889e+01	-5.980434e+02
1.000000e-07	-5.311074e-06	-9.180282e-09	-3.756860e+01	-5.967159e+02
1.100000e-07	-5.289337e-06	-9.120907e-09	-3.741484e+01	-5.953241e+02
1.200000e-07	-5.265856e-06	-9.069170e-09	-3.724875e+01	-5.938773e+02
1.300000e-07	-5.240780e-06	-8.964874e-09	-3.707137e+01	-5.923800e+02
1.400000e-07	-5.214038e-06	-9.033443e-09	-3.688221e+01	-5.908314e+02
1.500000e-07	-5.185734e-06	-9.087171e-09	-3.668200e+01	-5.892252e+02
1.600000e-07	-5.156010e-06	-8.926968e-09	-3.647174e+01	-5.875493e+02
1.700000e-07	-5.124707e-06	-8.985980e-09	-3.625032e+01	-5.857877e+02
1.800000e-07	-5.091237e-06	-8.963775e-09	-3.601356e+01	-5.839211e+02
1.900000e-07	-5.055846e-06	-8.808259e-09	-3.576322e+01	-5.819294e+02
2.000000e-07	-5.019043e-06	-8.913400e-09	-3.550288e+01	-5.797934e+02
2.100000e-07	-4.980485e-06	-8.845121e-09	-3.523014e+01	-5.774968e+02
2.200000e-07	-4.940074e-06	-8.678039e-09	-3.494428e+01	-5.750277e+02
2.300000e-07	-4.897695e-06	-8.711573e-09	-3.464452e+01	-5.723793e+02
2.400000e-07	-4.853421e-06	-8.687538e-09	-3.433133e+01	-5.695511e+02
2.500000e-07	-4.807397e-06	-8.654126e-09	-3.400578e+01	-5.665477e+02
2.600000e-07	-4.759376e-06	-8.626957e-09	-3.366610e+01	-5.633784e+02
2.700000e-07	-4.709179e-06	-8.531592e-09	-3.331102e+01	-5.600557e+02
2.800000e-07	-4.656952e-06	-8.469193e-09	-3.294158e+01	-5.565933e+02
2.900000e-07	-4.602877e-06	-8.406328e-09	-3.255908e+01	-5.530050e+02
3.000000e-07	-4.547202e-06	-8.366807e-09	-3.216525e+01	-5.493022e+02
3.100000e-07	-4.489901e-06	-8.331589e-09	-3.175993e+01	-5.454932e+02
3.200000e-07	-4.430770e-06	-8.271478e-09	-3.134166e+01	-5.415824e+02
3.300000e-07	-4.370015e-06	-8.183464e-09	-3.091190e+01	-5.375697e+02
3.400000e-07	-4.307777e-06	-8.103369e-09	-3.047165e+01	-5.334513e+02
3.500000e-07	-4.244185e-06	-8.089795e-09	-3.002182e+01	-5.292201e+02
3.600000e-07	-4.179040e-06	-8.020064e-09	-2.956101e+01	-5.248673e+02
3.700000e-07	-4.112143e-06	-7.913343e-09	-2.908781e+01	-5.203833e+02
3.800000e-07	-4.043706e-06	-7.851518e-09	-2.860371e+01	-5.157593e+02
3.900000e-07	-3.973933e-06	-7.781760e-09	-2.811016e+01	-5.109883e+02
4.000000e-07	-3.902970e-06	-7.705125e-09	-2.760819e+01	-5.060657e+02
4.100000e-07	-3.830741e-06	-7.629804e-09	-2.709727e+01	-5.009896e+02
4.200000e-07	-3.756974e-06	-7.562429e-09	-2.657547e+01	-4.957611e+02
4.300000e-07	-3.681615e-06	-7.473257e-09	-2.604240e+01	-4.903829e+02
4.400000e-07	-3.604783e-06	-7.375564e-09	-2.549892e+01	-4.848594e+02
4.500000e-07	-3.526489e-06	-7.302794e-09	-2.494510e+01	-4.791952e+02
4.600000e-07	-3.446748e-06	-7.233015e-09	-2.438104e+01	-4.733943e+02
4.700000e-07	-3.365750e-06	-7.139797e-09	-2.380809e+01	-4.674592e+02
4.800000e-07	-3.283620e-06	-7.020769e-09	-2.322713e+01	-4.613906e+02
4.900000e-07	-3.200352e-06	-6.922522e-09	-2.263812e+01	-4.551871e+02
5.000000e-07	-3.116041e-06	-6.839797e-09	-2.204174e+01	-4.488451e+02
5.100000e-07	-3.030768e-06	-6.741971e-09	-2.143855e+01	-4.423597e+02
5.200000e-07	-2.944516e-06	-6.640497e-09	-2.082843e+01	-4.357249e+02
5.300000e-07	-2.857326e-06	-6.536874e-09	-2.021168e+01	-4.289345e+02
5.400000e-07	-2.769199e-06	-6.425535e-09	-1.958831e+01	-4.219828e+02
5.500000e-07	-2.680039e-06	-6.314282e-09	-1.895762e+01	-4.148654e+02
5.600000e-07	-2.589699e-06	-6.207883e-09	-1.831859e+01	-4.075789e+02
5.700000e-07	-2.498251e-06	-6.099005e-09	-1.767172e+01	-4.001218e+02
5.800000e-07	-2.405980e-06	-5.974319e-09	-1.701903e+01	-3.924934e+02
5.900000e-07	-2.312905e-06	-5.846348e-09	-1.636065e+01	-3.846944e+02
6.000000e-07	-2.218982e-06	-5.728473e-09	-1.569627e+01	-3.767252e+02
6.100000e-07	-2.124316e-06	-5.611762e-09	-1.502664e+01	-3.685861e+02
6.200000e-07	-2.028938e-06	-5.485147e-09	-1.435197e+01	-3.602765e+02
6.300000e-07	-1.932832e-06	-5.349284e-09	-1.367215e+01	-3.517942e+02
6.400000e-07	-1.835957e-06	-5.214853e-09	-1.298689e+01	-3.431359e+02
6.500000e-07	-1.738217e-06	-5.083470e-09	-1.229551e+01	-3.342962e+02
6.600000e-07	-1.639692e-06	-4.948543e-09	-1.159859e+01	-3.252689e+02
6.700000e-07	-1.540586e-06	-4.806872e-09	-1.089755e+01	-3.160468e+02
6.800000e-07	-1.441005e-06	-4.659804e-09	-1.019314e+01	-3.066227e+02
6.900000e-07	-1.341002e-06	-4.507138e-09	-9.485763e+00	-2.969897e+02
7.000000e-07	-1.240584e-06	-4.354444e-09	-8.775437e+00	-2.871419e+02
7.100000e-07	-1.139752e-06	-4.203179e-09	-8.062194e+00	-2.770745e+02
7.200000e-07	-1.038563e-06	-4.045448e-09	-7.346418e+00	-2.667846e+02
7.300000e-07	-9.370186e-07	-3.879980e-09	-6.628129e+00	-2.562706e+02
7.400000e-07	-8.351695e-07	-3.711858e-09	-5.907685e+00	-2.455319e+02
7.500000e-07	-7.330751e-07	-3.545386e-09	-5.185507e+00	-2.345688e+02
7.600000e-07	-6.307027e-07	-3.376758e-09	-4.461361e+00	-2.233818e+02
7.700000e-07	-5.281261e-07	-3.200953e-09	-3.735772e+00	-2.119707e+02
7.800000e-07	-4.254237e-07	-3.019756e-09	-3.009293e+00	-2.003343e+02
7.900000e-07	-3.225895e-07	-2.837195e-09	-2.281881e+00	-1.884695e+02
8.000000e-07	-2.196466e-07	-2.652179e-09	-1.553700e+00	-1.763713e+02
8.100000e-07	-1.166035e-07	-2.464360e-09	-8.248109e-01	-1.640324e+02
8.200000e-07	-1.349528e-08	-2.274270e-09	-9.546070e-02	-1.514428e+02
8.300000e-07	8.968203e-08	-2.079055e-09	6.343780e-01	-1.385904e+02
8.400000e-07	1.928249e-07	-1.879177e-09	1.363973e+00	-1.254611e+02
8.500000e-07	2.958869e-07	-1.675906e-09	2.092996e+00	-1.120388e+02
8.600000e-07	3.988454e-07	-1.469274e-09	2.821287e+00	-9.830680e+01
8.700000e-07	5.016667e-07	-1.255033e-09	3.548608e+00	-8.424764e+01
8.800000e-07	6.044144e-07	-1.031809e-09	4.275408e+00	-6.984444e+01
8.900000e-07	7.070167e-07	-8.031136e-10	5.001179e+00	-5.508169e+01
9.000000e-07	8.093985e-07	-5.719397e-10	5.725390e+00	-3.994644e+01
9.100000e-07	9.114799e-07	-3.379352e-10	6.447477e+00	-2.442952e+01
9.200000e-07	1.013198e-06	-9.743279e-11	7.166995e+00	-8.526947e+00
9.300000e-07	1.114577e-06	1.499889e-10	7.884114e+00	7.758673e+00
9.400000e-07	1.215533e-06	4.040778e-10	8.598236e+00	2.441674e+01
9.500000e-07	1.316061e-06	6.626170e-10	9.309336e+00	4.142746e+01
9.600000e-07	1.416235e-06	9.256689e-10	1.001793e+01	5.876085e+01
9.700000e-07	1.515984e-06	1.193123e-09	1.072352e+01	7.637628e+01
9.800000e-07	1.615145e-06	1.464295e-09	1.142495e+01	9.422247e+01
9.900000e-07	1.713559e-06	1.737718e-09	1.212109e+01	1.122382e+02
1.000000e-06	1.811176e-06	2.010955e-09	1.281160e+01	1.303536e+02
1.010000e-06	1.908063e-06	2.284406e-09	1.349694e+01	1.484922e+02
1.020000e-06	2.004170e-06	2.557115e-09	1.417677e+01	1.665737e+02
1.030000e-06	2.099455e-06	2.830578e-09	1.485078e+01	1.845166e+02
1.040000e-06	2.193997e-06	3.101825e-09	1.551954e+01	2.022417e+02
1.050000e-06	2.287781e-06	3.365371e-09	1.618293e+01	2.196752e+02
1.060000e-06	2.380798e-06	3.621929e-09	1.684090e+01	2.367513e+02
1.070000e-06	2.473116e-06	3.873313e-09	1.749392e+01	2.534147e+02
1.080000e-06	2.564774e-06	4.120740e-09	1.814228e+01	2.696222e+02
1.090000e-06	2.655534e-06	4.362053e-09	1.878428e+01	2.853428e+02
1.100000e-06	2.745087e-06	4.595177e-09	1.941775e+01	3.005580e+02
1.110000e-06	2.833466e-06	4.816657e-09	2.004291e+01	3.152603e+02
1.120000e-06	2.920855e-06	5.027821e-09	2.066106e+01	3.294514e+02
1.130000e-06	3.007302e-06	5.233580e-09	2.127256e+01	3.431398e+02
1.140000e-06	3.092773e-06	5.435512e-09	2.187715e+01	3.563386e+02
1.150000e-06	3.177261e-06	5.630681e-09	2.247479e+01	3.690624e+02
1.160000e-06	3.260829e-06	5.817373e-09	2.306592e+01	3.813256e+02
1.170000e-06	3.343301e-06	5.997719e-09	2.364929e+01	3.931407e+02
1.180000e-06	3.424441e-06	6.171657e-09	2.422325e+01	4.045172e+02
1.190000e-06	3.504305e-06	6.339982e-09	2.478818e+01	4.154616e+02
1.200000e-06	3.582941e-06	6.501435e-09	2.534442e+01	4.259775e+02
1.210000e-06	3.660335e-06	6.654529e-09	2.589187e+01	4.360672e+02
1.220000e-06	3.736432e-06	6.800144e-09	2.643016e+01	4.457323e+02
1.230000e-06	3.811116e-06	6.939110e-09	2.695845e+01	4.549756e+02
1.240000e-06	3.884218e-06	7.073329e-09	2.747554e+01	4.638025e+02
1.250000e-06	3.955744e-06	7.202486e-09	2.798150e+01	4.722214e+02
1.260000e-06	4.025874e-06	7.323169e-09	2.847757e+01	4.802452e+02
1.270000e-06	4.094628e-06	7.437644e-09	2.896391e+01	4.878902e+02
1.280000e-06	4.161984e-06	7.548395e-09	2.944036e+01	4.951764e+02
1.290000e-06	4.227752e-06	7.654770e-09	2.990558e+01	5.021260e+02
1.300000e-06	4.291837e-06	7.754978e-09	3.035889e+01	5.087623e+02
1.310000e-06	4.354418e-06	7.849131e-09	3.080157e+01	5.151080e+02
1.320000e-06	4.415515e-06	7.939354e-09	3.123375e+01	5.211841e+02
1.330000e-06	4.475247e-06	8.027092e-09	3.165627e+01	5.270085e+02
1.340000e-06	4.533419e-06	8.113740e-09	3.206776e+01	5.325955e+02
1.350000e-06	4.589749e-06	8.196829e-09	3.246621e+01	5.379555e+02
1.360000e-06	4.644381e-06	8.273613e-09	3.285266e+01	5.430948e+02
1.370000e-06	4.697333e-06	8.345688e-09	3.322722e+01	5.480165e+02
1.380000e-06	4.748442e-06	8.415337e-09	3.358875e+01	5.527217e+02
1.390000e-06	4.797508e-06	8.484474e-09	3.393583e+01	5.572097e+02
1.400000e-06	4.844661e-06	8.550459e-09	3.426937e+01	5.614797e+02
1.410000e-06	4.890182e-06	8.610733e-09	3.459137e+01	5.655315e+02
1.420000e-06	4.934158e-06	8.666733e-09	3.490244e+01	5.693661e+02
1.430000e-06	4.976359e-06	8.720956e-09	3.520095e+01	5.729857e+02
1.440000e-06	5.016661e-06	8.773847e-09	3.548603e+01	5.763942e+02
1.450000e-06	5.055200e-06	8.824176e-09	3.575865e+01	5.795964e+02
1.460000e-06	5.092077e-06	8.870076e-09	3.601950e+01	5.825979e+02
1.470000e-06	5.127326e-06	8.909370e-09	3.626884e+01	5.854042e+02
1.480000e-06	5.160634e-06	8.945046e-09	3.650445e+01	5.880205e+02
1.490000e-06	5.192050e-06	8.979922e-09	3.672667e+01	5.904509e+02
1.500000e-06	5.221811e-06	9.012201e-09	3.693719e+01	5.926990e+02
1.510000e-06	5.249849e-06	9.040885e-09	3.713552e+01	5.947672e+02
1.520000e-06	5.275952e-06	9.065794e-09	3.732016e+01	5.966575e+02
1.530000e-06	5.299947e-06	9.089913e-09	3.748990e+01	5.983719e+02
1.540000e-06	5.322009e-06	9.113790e-09	3.764595e+01	5.999128e+02
1.550000e-06	5.342334e-06	9.135316e-09	3.778972e+01	6.012836e+02
1.560000e-06	5.360870e-06	9.153204e-09	3.792085e+01	6.024885e+02
1.570000e-06	5.377402e-06	9.167724e-09	3.803779e+01	6.035334e+02
1.580000e-06	5.391929e-06	9.181085e-09	3.814054e+01	6.044247e+02
1.590000e-06	5.404472e-06	9.192808e-09	3.822927e+01	6.051697e+02
1.600000e-06	5.414831e-06	9.202040e-09	3.830255e+01	6.057753e+02
1.610000e-06	5.423035e-06	9.209140e-09	3.836058e+01	6.062477e+02
1.620000e-06	5.429309e-06	9.213593e-09	3.840495e+01	6.065915e+02
1.630000e-06	5.433825e-06	9.216721e-09	3.843690e+01	6.068094e+02
1.640000e-06	5.436502e-06	9.219910e-09	3.845584e+01	6.069019e+02
1.650000e-06	5.437090e-06	9.221914e-09	3.846000e+01	6.068676e+02
1.660000e-06	5.435759e-06	9.217005e-09	3.845058e+01	6.067037e+02
1.670000e-06	5.432765e-06	9.208699e-09	3.842940e+01	6.064067e+02
1.680000e-06	5.428104e-06	9.203245e-09	3.839644e+01	6.059736e+02
1.690000e-06	5.421560e-06	9.195496e-09	3.835015e+01	6.054029e+02
1.700000e-06	5.413171e-06	9.186496e-09	3.829080e+01	6.046955e+02
1.710000e-06	5.403195e-06	9.178322e-09	3.822024e+01	6.038556e+02
1.720000e-06	5.391545e-06	9.177346e-09	3.813783e+01	6.028904e+02
1.730000e-06	5.377925e-06	9.155048e-09	3.804149e+01	6.018107e+02
1.740000e-06	5.362218e-06	9.069651e-09	3.793038e+01	6.006294e+02
1.750000e-06	5.344162e-06	9.053910e-09	3.780266e+01	5.993605e+02
1.760000e-06	5.323411e-06	9.062605e-09	3.765587e+01	5.980178e+02
1.770000e-06	5.300304e-06	9.073911e-09	3.749242e+01	5.966132e+02
1.780000e-06	5.275836e-06	9.140520e-09	3.731935e+01	5.951549e+02
1.790000e-06	5.250648e-06	8.989234e-09	3.714117e+01	5.936464e+02
1.800000e-06	5.224101e-06	8.925401e-09	3.695339e+01	5.920858e+02
1.810000e-06	5.195338e-06	9.032362e-09	3.674993e+01	5.904654e+02
1.820000e-06	5.164702e-06	8.897685e-09	3.653323e+01	5.887723e+02
1.830000e-06	5.132428e-06	8.937391e-09	3.630493e+01	5.869894e+02
1.840000e-06	5.098171e-06	9.004616e-09	3.606260e+01	5.850973e+02
1.850000e-06	5.062297e-06	8.804414e-09	3.580885e+01	5.830758e+02
1.860000e-06	5.024701e-06	8.880757e-09	3.554290e+01	5.809062e+02
1.870000e-06	4.985115e-06	8.909211e-09	3.526289e+01	5.785730e+02
1.880000e-06	4.943866e-06	8.751242e-09	3.497111e+01	5.760654e+02
1.890000e-06	4.900817e-06	8.780538e-09	3.466660e+01	5.733780e+02
1.900000e-06	4.856073e-06	8.668340e-09	3.435009e+01	5.705112e+02
1.910000e-06	4.809559e-06	8.623329e-09	3.402107e+01	5.674709e+02
1.920000e-06	4.760975e-06	8.635938e-09	3.367740e+01	5.642672e+02
1.930000e-06	4.710730e-06	8.513750e-09	3.332199e+01	5.609129e+02
1.940000e-06	4.658733e-06	8.570271e-09	3.295418e+01	5.574221e+02
1.950000e-06	4.604662e-06	8.480219e-09	3.257170e+01	5.538079e+02
1.960000e-06	4.548676e-06	8.338989e-09	3.217568e+01	5.500814e+02
1.970000e-06	4.490945e-06	8.315110e-09	3.176731e+01	5.462500e+02
1.980000e-06	4.431755e-06	8.265316e-09	3.134862e+01	5.423170e+02
1.990000e-06	4.371045e-06	8.258252e-09	3.091918e+01	5.382817e+02
2.000000e-06	4.308569e-06	8.126149e-09	3.047725e+01	5.341393e+02
2.010000e-06	4.244504e-06	8.082464e-09	3.002408e+01	5.298825e+02
2.020000e-06	4.178988e-06	8.060528e-09	2.956064e+01	5.255019e+02
2.030000e-06	4.112031e-06	7.909455e-09	2.908701e+01	5.209882e+02
2.040000e-06	4.043578e-06	7.877610e-09	2.860280e+01	5.163328e+02
2.050000e-06	3.973526e-06	7.820333e-09	2.810727e+01	5.115292e+02
2.060000e-06	3.901965e-06	7.739597e-09	2.760108e+01	5.065733e+02
2.070000e-06	3.829110e-06	7.634102e-09	2.708573e+01	5.014640e+02
2.080000e-06	3.755008e-06	7.548645e-09	2.656156e+01	4.962027e+02
2.090000e-06	3.679517e-06	7.525191e-09	2.602757e+01	4.907926e+02
2.100000e-06	3.602468e-06	7.415577e-09	2.548255e+01	4.852381e+02
2.110000e-06	3.523812e-06	7.305732e-09	2.492617e+01	4.795439e+02
2.120000e-06	3.443844e-06	7.215066e-09	2.436050e+01	4.737136e+02
2.130000e-06	3.362747e-06	7.144071e-09	2.378685e+01	4.677495e+02
2.140000e-06	3.280477e-06	7.050831e-09	2.320490e+01	4.616518e+02
2.150000e-06	3.197165e-06	6.949096e-09	2.261558e+01	4.554185e+02
2.160000e-06	3.112861e-06	6.872146e-09	2.201925e+01	4.490459e+02
2.170000e-06	3.027337e-06	6.755779e-09	2.141428e+01	4.425286e+02
2.180000e-06	2.940477e-06	6.642022e-09	2.079986e+01	4.358605e+02
2.190000e-06	2.852502e-06	6.540284e-09	2.017756e+01	4.290356e+02
2.200000e-06	2.763532e-06	6.453527e-09	1.954822e+01	4.220483e+02
2.210000e-06	2.673597e-06	6.348524e-09	1.891205e+01	4.148944e+02
2.220000e-06	2.582846e-06	6.221369e-09	1.827011e+01	4.075711e+02
2.230000e-06	2.491316e-06	6.107270e-09	1.762267e+01	4.000768e+02
2.240000e-06	2.398905e-06	5.995323e-09	1.696898e+01	3.924114e+02
2.250000e-06	2.305535e-06	5.882237e-09	1.630852e+01	3.845754e+02
2.260000e-06	2.211220e-06	5.758677e-09	1.564137e+01	3.765694e+02
2.270000e-06	2.115967e-06	5.632802e-09	1.496758e+01	3.683935e+02
2.280000e-06	2.019824e-06	5.502727e-09	1.428750e+01	3.600467e+02
2.290000e-06	1.922998e-06	5.371651e-09	1.360259e+01	3.515266e+02
2.300000e-06	1.825639e-06	5.242632e-09	1.291391e+01	3.428294e+02
2.310000e-06	1.727763e-06	5.112898e-09	1.222157e+01	3.339497e+02
2.320000e-06	1.629345e-06	4.973625e-09	1.152539e+01	3.248809e+02
2.330000e-06	1.530427e-06	4.825509e-09	1.082569e+01	3.156157e+02
2.340000e-06	1.431055e-06	4.682661e-09	1.012276e+01	3.061470e+02
2.350000e-06	1.331226e-06	4.539662e-09	9.416605e+00	2.964680e+02
2.360000e-06	1.230999e-06	4.394293e-09	8.707639e+00	2.865730e+02
2.370000e-06	1.130408e-06	4.240440e-09	7.996095e+00	2.764578e+02
2.380000e-06	1.029439e-06	4.077148e-09	7.281878e+00	2.661195e+02
2.390000e-06	9.280546e-07	3.916273e-09	6.564721e+00	2.555569e+02
2.400000e-06	8.263015e-07	3.759553e-09	5.844956e+00	2.447697e+02
2.410000e-06	7.241810e-07	3.599683e-09	5.122593e+00	2.337582e+02
2.420000e-06	6.216940e-07	3.429517e-09	4.397637e+00	2.225228e+02
2.430000e-06	5.189733e-07	3.249631e-09	3.671029e+00	2.110631e+02
2.440000e-06	4.160674e-07	3.069023e-09	2.943109e+00	1.993776e+02
2.450000e-06	3.129860e-07	2.889715e-09	2.213949e+00	1.874629e+02
2.460000e-06	2.097392e-07	2.707264e-09	1.483619e+00	1.753135e+02
2.470000e-06	1.063326e-07	2.521794e-09	7.521578e-01	1.629213e+02
2.480000e-06	2.850558e-09	2.328063e-09	2.016381e-02	1.502761e+02
2.490000e-06	-1.006597e-07	2.126286e-09	-7.120302e-01	1.373652e+02
2.500000e-06	-2.041271e-07	1.923387e-09	-1.443921e+00	1.241740e+02
2.510000e-06	-3.074905e-07	1.721240e-09	-2.175076e+00	1.106864e+02
2.520000e-06	-4.107221e-07	1.513496e-09	-2.905299e+00	9.688534e+01
2.530000e-06	-5.137587e-07	1.295867e-09	-3.634142e+00	8.275342e+01
2.540000e-06	-6.165436e-07	1.074673e-09	-4.361205e+00	6.827399e+01
2.550000e-06	-7.190974e-07	8.495047e-10	-5.086634e+00	5.343199e+01
2.560000e-06	-8.213287e-07	6.154627e-10	-5.809780e+00	3.821515e+01
2.570000e-06	-9.230792e-07	3.749619e-10	-6.529526e+00	2.261530e+01
2.580000e-06	-1.024391e-06	1.304955e-10	-7.246172e+00	6.629748e+00
2.590000e-06	-1.125307e-06	-1.192995e-10	-7.960013e+00	-9.737294e+00
2.600000e-06	-1.225828e-06	-3.738152e-10	-8.671064e+00	-2.647335e+01
2.610000e-06	-1.325893e-06	-6.302550e-10	-9.378882e+00	-4.355651e+01
2.620000e-06	-1.425437e-06	-8.924167e-10	-1.008302e+01	-6.095455e+01
2.630000e-06	-1.524457e-06	-1.164921e-09	-1.078345e+01	-7.862452e+01
2.640000e-06	-1.622985e-06	-1.443494e-09	-1.148040e+01	-9.651294e+01
2.650000e-06	-1.720995e-06	-1.723313e-09	-1.217369e+01	-1.145566e+02
2.660000e-06	-1.818404e-06	-2.002873e-09	-1.286273e+01	-1.326840e+02
2.670000e-06	-1.915229e-06	-2.282508e-09	-1.354764e+01	-1.508177e+02
2.680000e-06	-2.011476e-06	-2.559207e-09	-1.422845e+01	-1.688767e+02
2.690000e-06	-2.107093e-06	-2.833200e-09	-1.490481e+01	-1.867799e+02
2.700000e-06	-2.201952e-06	-3.105672e-09	-1.557580e+01	-2.044489e+02
2.710000e-06	-2.295866e-06	-3.372164e-09	-1.624012e+01	-2.218114e+02
2.720000e-06	-2.388764e-06	-3.629861e-09	-1.689725e+01	-2.388038e+02
2.730000e-06	-2.480733e-06	-3.880852e-09	-1.754780e+01	-2.553731e+02
2.740000e-06	-2.571836e-06	-4.126998e-09	-1.819223e+01	-2.714789e+02
2.750000e-06	-2.662008e-06	-4.366323e-09	-1.883008e+01	-2.870928e+02
2.760000e-06	-2.751262e-06	-4.599080e-09	-1.946143e+01	-3.021988e+02
2.770000e-06	-2.839675e-06	-4.825513e-09	-2.008682e+01	-3.167915e+02
2.780000e-06	-2.927247e-06	-5.044407e-09	-2.070628e+01	-3.308744e+02
2.790000e-06	-3.013741e-06	-5.253991e-09	-2.131811e+01	-3.444571e+02
2.800000e-06	-3.098992e-06	-5.455124e-09	-2.192114e+01	-3.575533e+02
2.810000e-06	-3.183146e-06	-5.648208e-09	-2.251642e+01	-3.701776e+02
2.820000e-06	-3.266264e-06	-5.832573e-09	-2.310436e+01	-3.823443e+02
2.830000e-06	-3.348258e-06	-6.010290e-09	-2.368436e+01	-3.940651e+02
2.840000e-06	-3.429087e-06	-6.181898e-09	-2.425612e+01	-4.053490e+02
2.850000e-06	-3.508835e-06	-6.346256e-09	-2.482022e+01	-4.162018e+02
2.860000e-06	-3.587270e-06	-6.502899e-09	-2.537504e+01	-4.266267e+02
2.870000e-06	-3.664104e-06	-6.653315e-09	-2.591854e+01	-4.366256e+02
2.880000e-06	-3.739429e-06	-6.798342e-09	-2.645136e+01	-4.462005e+02
2.890000e-06	-3.813335e-06	-6.937629e-09	-2.697414e+01	-4.553544e+02
2.900000e-06	-3.885909e-06	-7.073869e-09	-2.748751e+01	-4.640934e+02
2.910000e-06	-3.957169e-06	-7.206792e-09	-2.799157e+01	-4.724269e+02
2.920000e-06	-4.026871e-06	-7.330501e-09	-2.848462e+01	-4.803684e+02
2.930000e-06	-4.094964e-06	-7.445032e-09	-2.896628e+01	-4.879352e+02
2.940000e-06	-4.161580e-06	-7.555746e-09	-2.943750e+01	-4.951478e+02
