# Temperatura_=_38.62
# Concentracion g/m^3_=_15000.0
# C_Vs_to_Am_M_A/Vsm_=_65563218390.804596
# pendiente_HvsI_1/m_=_3716.3
# ordenada_HvsI_A/m_=_1297.0
# frecuencia_Hz_=_301597.6622121547

Tiempo_(s)	Campo_(V.s)	Magnetizacion_(V.s)	Campo_(kA/m)	Magnetizacion_(A/m)
0.000000e+00	-5.406141e-06	-8.196213e-09	-3.833770e+01	-5.356241e+02
1.000000e-08	-5.403742e-06	-8.193096e-09	-3.832068e+01	-5.354185e+02
2.000000e-08	-5.399470e-06	-8.187126e-09	-3.829039e+01	-5.351042e+02
3.000000e-08	-5.393601e-06	-8.183015e-09	-3.824877e+01	-5.346798e+02
4.000000e-08	-5.386152e-06	-8.175503e-09	-3.819595e+01	-5.341447e+02
5.000000e-08	-5.376865e-06	-8.163724e-09	-3.813009e+01	-5.335004e+02
6.000000e-08	-5.365495e-06	-8.148093e-09	-3.804946e+01	-5.327506e+02
7.000000e-08	-5.352261e-06	-8.122360e-09	-3.795561e+01	-5.319017e+02
8.000000e-08	-5.336957e-06	-8.117560e-09	-3.784708e+01	-5.309627e+02
9.000000e-08	-5.319355e-06	-8.167720e-09	-3.772226e+01	-5.299442e+02
1.000000e-07	-5.299717e-06	-8.150566e-09	-3.758299e+01	-5.288580e+02
1.100000e-07	-5.278151e-06	-8.092275e-09	-3.743005e+01	-5.277153e+02
1.200000e-07	-5.254791e-06	-8.056783e-09	-3.726440e+01	-5.265257e+02
1.300000e-07	-5.229822e-06	-7.936097e-09	-3.708733e+01	-5.252958e+02
1.400000e-07	-5.203270e-06	-7.981450e-09	-3.689903e+01	-5.240280e+02
1.500000e-07	-5.175175e-06	-8.100942e-09	-3.669980e+01	-5.227202e+02
1.600000e-07	-5.145627e-06	-7.921691e-09	-3.649026e+01	-5.213653e+02
1.700000e-07	-5.114576e-06	-7.951319e-09	-3.627006e+01	-5.199519e+02
1.800000e-07	-5.081435e-06	-7.976724e-09	-3.603504e+01	-5.184651e+02
1.900000e-07	-5.046305e-06	-7.775581e-09	-3.578592e+01	-5.168876e+02
2.000000e-07	-5.009777e-06	-7.891387e-09	-3.552688e+01	-5.152020e+02
2.100000e-07	-4.971541e-06	-7.901563e-09	-3.525573e+01	-5.133917e+02
2.200000e-07	-4.931391e-06	-7.735602e-09	-3.497100e+01	-5.114432e+02
2.300000e-07	-4.889238e-06	-7.769604e-09	-3.467208e+01	-5.093469e+02
2.400000e-07	-4.845187e-06	-7.746505e-09	-3.435969e+01	-5.070979e+02
2.500000e-07	-4.799492e-06	-7.696349e-09	-3.403564e+01	-5.046964e+02
2.600000e-07	-4.751925e-06	-7.679719e-09	-3.369832e+01	-5.021473e+02
2.700000e-07	-4.702131e-06	-7.585595e-09	-3.334521e+01	-4.994591e+02
2.800000e-07	-4.650192e-06	-7.546484e-09	-3.297688e+01	-4.966431e+02
2.900000e-07	-4.596380e-06	-7.496631e-09	-3.259527e+01	-4.937111e+02
3.000000e-07	-4.540999e-06	-7.460506e-09	-3.220254e+01	-4.906747e+02
3.100000e-07	-4.484017e-06	-7.452023e-09	-3.179845e+01	-4.875434e+02
3.200000e-07	-4.425159e-06	-7.411047e-09	-3.138106e+01	-4.843240e+02
3.300000e-07	-4.364669e-06	-7.335619e-09	-3.095209e+01	-4.810194e+02
3.400000e-07	-4.302708e-06	-7.246580e-09	-3.051269e+01	-4.776292e+02
3.500000e-07	-4.239420e-06	-7.236459e-09	-3.006389e+01	-4.741493e+02
3.600000e-07	-4.174609e-06	-7.189653e-09	-2.960428e+01	-4.705736e+02
3.700000e-07	-4.108043e-06	-7.097763e-09	-2.913223e+01	-4.668941e+02
3.800000e-07	-4.039971e-06	-7.052553e-09	-2.864949e+01	-4.631026e+02
3.900000e-07	-3.970542e-06	-6.993303e-09	-2.815713e+01	-4.591915e+02
4.000000e-07	-3.899880e-06	-6.926942e-09	-2.765603e+01	-4.551549e+02
4.100000e-07	-3.827937e-06	-6.863420e-09	-2.714585e+01	-4.509888e+02
4.200000e-07	-3.754526e-06	-6.813198e-09	-2.662526e+01	-4.466915e+02
4.300000e-07	-3.679523e-06	-6.745381e-09	-2.609337e+01	-4.422637e+02
4.400000e-07	-3.603023e-06	-6.655394e-09	-2.555087e+01	-4.377071e+02
4.500000e-07	-3.525050e-06	-6.588628e-09	-2.499792e+01	-4.330246e+02
4.600000e-07	-3.445485e-06	-6.532351e-09	-2.443369e+01	-4.282192e+02
4.700000e-07	-3.364644e-06	-6.461907e-09	-2.386040e+01	-4.232929e+02
4.800000e-07	-3.282727e-06	-6.368358e-09	-2.327949e+01	-4.182465e+02
4.900000e-07	-3.199721e-06	-6.285067e-09	-2.269085e+01	-4.130791e+02
5.000000e-07	-3.115726e-06	-6.213794e-09	-2.209520e+01	-4.077879e+02
5.100000e-07	-3.030789e-06	-6.129388e-09	-2.149287e+01	-4.023685e+02
5.200000e-07	-2.944883e-06	-6.044059e-09	-2.088366e+01	-3.968154e+02
5.300000e-07	-2.858017e-06	-5.958095e-09	-2.026765e+01	-3.911226e+02
5.400000e-07	-2.770252e-06	-5.862277e-09	-1.964527e+01	-3.852842e+02
5.500000e-07	-2.681457e-06	-5.764006e-09	-1.901558e+01	-3.792949e+02
5.600000e-07	-2.591420e-06	-5.670816e-09	-1.837708e+01	-3.731507e+02
5.700000e-07	-2.500275e-06	-5.582649e-09	-1.773072e+01	-3.668492e+02
5.800000e-07	-2.408298e-06	-5.483326e-09	-1.707847e+01	-3.603893e+02
5.900000e-07	-2.315527e-06	-5.379567e-09	-1.642058e+01	-3.537711e+02
6.000000e-07	-2.221935e-06	-5.277643e-09	-1.575687e+01	-3.469959e+02
6.100000e-07	-2.127536e-06	-5.174614e-09	-1.508744e+01	-3.400649e+02
6.200000e-07	-2.032408e-06	-5.068454e-09	-1.441284e+01	-3.329791e+02
6.300000e-07	-1.936560e-06	-4.955566e-09	-1.373313e+01	-3.257389e+02
6.400000e-07	-1.839924e-06	-4.839173e-09	-1.304784e+01	-3.183430e+02
6.500000e-07	-1.742499e-06	-4.720933e-09	-1.235695e+01	-3.107887e+02
6.600000e-07	-1.644326e-06	-4.601798e-09	-1.166076e+01	-3.030718e+02
6.700000e-07	-1.545511e-06	-4.479278e-09	-1.096001e+01	-2.951863e+02
6.800000e-07	-1.446177e-06	-4.357215e-09	-1.025557e+01	-2.871253e+02
6.900000e-07	-1.346370e-06	-4.234307e-09	-9.547797e+00	-2.788810e+02
7.000000e-07	-1.246184e-06	-4.108431e-09	-8.837328e+00	-2.704452e+02
7.100000e-07	-1.145685e-06	-3.977510e-09	-8.124634e+00	-2.618099e+02
7.200000e-07	-1.044813e-06	-3.840157e-09	-7.409299e+00	-2.529677e+02
7.300000e-07	-9.436207e-07	-3.700374e-09	-6.691695e+00	-2.439120e+02
7.400000e-07	-8.421337e-07	-3.555697e-09	-5.971999e+00	-2.346371e+02
7.500000e-07	-7.403211e-07	-3.406529e-09	-5.249994e+00	-2.251383e+02
7.600000e-07	-6.382546e-07	-3.256186e-09	-4.526189e+00	-2.154119e+02
7.700000e-07	-5.359549e-07	-3.105082e-09	-3.800729e+00	-2.054546e+02
7.800000e-07	-4.334628e-07	-2.951530e-09	-3.073905e+00	-1.952638e+02
7.900000e-07	-3.308362e-07	-2.794437e-09	-2.346128e+00	-1.848371e+02
8.000000e-07	-2.280822e-07	-2.631860e-09	-1.617447e+00	-1.741717e+02
8.100000e-07	-1.253003e-07	-2.463746e-09	-8.885679e-01	-1.632647e+02
8.200000e-07	-2.252201e-08	-2.291125e-09	-1.597150e-01	-1.521124e+02
8.300000e-07	8.029530e-08	-2.114769e-09	5.694148e-01	-1.407103e+02
8.400000e-07	1.831015e-07	-1.935746e-09	1.298466e+00	-1.290529e+02
8.500000e-07	2.858554e-07	-1.751109e-09	2.027146e+00	-1.171334e+02
8.600000e-07	3.885363e-07	-1.563529e-09	2.755309e+00	-1.049439e+02
8.700000e-07	4.911363e-07	-1.373424e-09	3.482898e+00	-9.247521e+01
8.800000e-07	5.936412e-07	-1.180322e-09	4.209812e+00	-7.971726e+01
8.900000e-07	6.959975e-07	-9.845483e-10	4.935673e+00	-6.665925e+01
9.000000e-07	7.981528e-07	-7.837493e-10	5.660107e+00	-5.329045e+01
9.100000e-07	9.000218e-07	-5.779902e-10	6.382513e+00	-3.960100e+01
9.200000e-07	1.001507e-06	-3.667579e-10	7.102199e+00	-2.558306e+01
9.300000e-07	1.102595e-06	-1.494607e-10	7.819065e+00	-1.123219e+01
9.400000e-07	1.203345e-06	7.477724e-11	8.533534e+00	3.451146e+00
9.500000e-07	1.303763e-06	3.028815e-10	9.245648e+00	1.846006e+01
9.600000e-07	1.403782e-06	5.351934e-10	9.954929e+00	3.377976e+01
9.700000e-07	1.503319e-06	7.740366e-10	1.066080e+01	4.938642e+01
9.800000e-07	1.602253e-06	1.017466e-09	1.136239e+01	6.524640e+01
9.900000e-07	1.700476e-06	1.261721e-09	1.205894e+01	8.131611e+01
1.000000e-06	1.797887e-06	1.507039e-09	1.274973e+01	9.754246e+01
1.010000e-06	1.894486e-06	1.755122e-09	1.343476e+01	1.138641e+02
1.020000e-06	1.990307e-06	2.004069e-09	1.411428e+01	1.302133e+02
1.030000e-06	2.085365e-06	2.252435e-09	1.478838e+01	1.465182e+02
1.040000e-06	2.179735e-06	2.499050e-09	1.545761e+01	1.627060e+02
1.050000e-06	2.273371e-06	2.741354e-09	1.612163e+01	1.787056e+02
1.060000e-06	2.366237e-06	2.979007e-09	1.678019e+01	1.944507e+02
1.070000e-06	2.458401e-06	3.212183e-09	1.743377e+01	2.098823e+02
1.080000e-06	2.549872e-06	3.441153e-09	1.808244e+01	2.249508e+02
1.090000e-06	2.640427e-06	3.663009e-09	1.872462e+01	2.396169e+02
1.100000e-06	2.729782e-06	3.876843e-09	1.935828e+01	2.538525e+02
1.110000e-06	2.817993e-06	4.084069e-09	1.998382e+01	2.676398e+02
1.120000e-06	2.905290e-06	4.285409e-09	2.060289e+01	2.809706e+02
1.130000e-06	2.991684e-06	4.480794e-09	2.121556e+01	2.938437e+02
1.140000e-06	3.077029e-06	4.670902e-09	2.182078e+01	3.062638e+02
1.150000e-06	3.161399e-06	4.854356e-09	2.241909e+01	3.182383e+02
1.160000e-06	3.244910e-06	5.031163e-09	2.301131e+01	3.297759e+02
1.170000e-06	3.327343e-06	5.200903e-09	2.359589e+01	3.408847e+02
1.180000e-06	3.408458e-06	5.363491e-09	2.417111e+01	3.515709e+02
1.190000e-06	3.488297e-06	5.521170e-09	2.473729e+01	3.618388e+02
1.200000e-06	3.566894e-06	5.670779e-09	2.529466e+01	3.716905e+02
1.210000e-06	3.644208e-06	5.813984e-09	2.584293e+01	3.811272e+02
1.220000e-06	3.720274e-06	5.951111e-09	2.638236e+01	3.901501e+02
1.230000e-06	3.794891e-06	6.081565e-09	2.691151e+01	3.987615e+02
1.240000e-06	3.867841e-06	6.205144e-09	2.742883e+01	4.069666e+02
1.250000e-06	3.939296e-06	6.321883e-09	2.793556e+01	4.147742e+02
1.260000e-06	4.009400e-06	6.432179e-09	2.843269e+01	4.221973e+02
1.270000e-06	4.078094e-06	6.537629e-09	2.891984e+01	4.292534e+02
1.280000e-06	4.145401e-06	6.639451e-09	2.939715e+01	4.359635e+02
1.290000e-06	4.211128e-06	6.735366e-09	2.986325e+01	4.423515e+02
1.300000e-06	4.275170e-06	6.826379e-09	3.031740e+01	4.484425e+02
1.310000e-06	4.337697e-06	6.914114e-09	3.076081e+01	4.542612e+02
1.320000e-06	4.398777e-06	6.999298e-09	3.119397e+01	4.598306e+02
1.330000e-06	4.458492e-06	7.081757e-09	3.161744e+01	4.651701e+02
1.340000e-06	4.516599e-06	7.161207e-09	3.202951e+01	4.702947e+02
1.350000e-06	4.572922e-06	7.237624e-09	3.242892e+01	4.752148e+02
1.360000e-06	4.627584e-06	7.308969e-09	3.281655e+01	4.799358e+02
1.370000e-06	4.680602e-06	7.376607e-09	3.319253e+01	4.844590e+02
1.380000e-06	4.731709e-06	7.441975e-09	3.355496e+01	4.887824e+02
1.390000e-06	4.780728e-06	7.504200e-09	3.390258e+01	4.929021e+02
1.400000e-06	4.827878e-06	7.562025e-09	3.423694e+01	4.968135e+02
1.410000e-06	4.873384e-06	7.616024e-09	3.455965e+01	5.005131e+02
1.420000e-06	4.917407e-06	7.667078e-09	3.487184e+01	5.039986e+02
1.430000e-06	4.959703e-06	7.716059e-09	3.517178e+01	5.072704e+02
1.440000e-06	5.000037e-06	7.763281e-09	3.545781e+01	5.103315e+02
1.450000e-06	5.038645e-06	7.807355e-09	3.573160e+01	5.131874e+02
1.460000e-06	5.075661e-06	7.846941e-09	3.599410e+01	5.158455e+02
1.470000e-06	5.111020e-06	7.882068e-09	3.624485e+01	5.183143e+02
1.480000e-06	5.144489e-06	7.914196e-09	3.648219e+01	5.206030e+02
1.490000e-06	5.176024e-06	7.943291e-09	3.670582e+01	5.227201e+02
1.500000e-06	5.205820e-06	7.968975e-09	3.691712e+01	5.246732e+02
1.510000e-06	5.233946e-06	7.993047e-09	3.711658e+01	5.264687e+02
1.520000e-06	5.260168e-06	8.016478e-09	3.730253e+01	5.281113e+02
1.530000e-06	5.284259e-06	8.039644e-09	3.747337e+01	5.296048e+02
1.540000e-06	5.306414e-06	8.060632e-09	3.763048e+01	5.309517e+02
1.550000e-06	5.326882e-06	8.078716e-09	3.777564e+01	5.321547e+02
1.560000e-06	5.345588e-06	8.094000e-09	3.790829e+01	5.332165e+02
1.570000e-06	5.362310e-06	8.107534e-09	3.802687e+01	5.341402e+02
1.580000e-06	5.377014e-06	8.119900e-09	3.813114e+01	5.349299e+02
1.590000e-06	5.389731e-06	8.129727e-09	3.822133e+01	5.355906e+02
1.600000e-06	5.400311e-06	8.137805e-09	3.829636e+01	5.361275e+02
1.610000e-06	5.408728e-06	8.144963e-09	3.835604e+01	5.365462e+02
1.620000e-06	5.415233e-06	8.150334e-09	3.840217e+01	5.368517e+02
1.630000e-06	5.419953e-06	8.154843e-09	3.843565e+01	5.370479e+02
1.640000e-06	5.422727e-06	8.158103e-09	3.845532e+01	5.371374e+02
1.650000e-06	5.423387e-06	8.161013e-09	3.846000e+01	5.371215e+02
1.660000e-06	5.422144e-06	8.159348e-09	3.845118e+01	5.369997e+02
1.670000e-06	5.419266e-06	8.153795e-09	3.843077e+01	5.367707e+02
1.680000e-06	5.414838e-06	8.150224e-09	3.839937e+01	5.364326e+02
1.690000e-06	5.408556e-06	8.143076e-09	3.835483e+01	5.359842e+02
1.700000e-06	5.400343e-06	8.134047e-09	3.829658e+01	5.354251e+02
1.710000e-06	5.390510e-06	8.127241e-09	3.822685e+01	5.347575e+02
1.720000e-06	5.379044e-06	8.128106e-09	3.814554e+01	5.339855e+02
1.730000e-06	5.365666e-06	8.126958e-09	3.805067e+01	5.331162e+02
1.740000e-06	5.350200e-06	8.034390e-09	3.794099e+01	5.321589e+02
1.750000e-06	5.332424e-06	8.005054e-09	3.781493e+01	5.311246e+02
1.760000e-06	5.311940e-06	8.026694e-09	3.766967e+01	5.300251e+02
1.770000e-06	5.288981e-06	8.029843e-09	3.750686e+01	5.288713e+02
1.780000e-06	5.264605e-06	8.139928e-09	3.733399e+01	5.276723e+02
1.790000e-06	5.239628e-06	8.003530e-09	3.715687e+01	5.264338e+02
1.800000e-06	5.213442e-06	7.882014e-09	3.697117e+01	5.251575e+02
1.810000e-06	5.184984e-06	8.027877e-09	3.676936e+01	5.238401e+02
1.820000e-06	5.154587e-06	7.881306e-09	3.655380e+01	5.224735e+02
1.830000e-06	5.122581e-06	7.894971e-09	3.632683e+01	5.210454e+02
1.840000e-06	5.088544e-06	8.049960e-09	3.608545e+01	5.195403e+02
1.850000e-06	5.052830e-06	7.820729e-09	3.583219e+01	5.179408e+02
1.860000e-06	5.015423e-06	7.855897e-09	3.556692e+01	5.162294e+02
1.870000e-06	4.976053e-06	7.933576e-09	3.528773e+01	5.143903e+02
1.880000e-06	4.935045e-06	7.751583e-09	3.499692e+01	5.124104e+02
1.890000e-06	4.892245e-06	7.810927e-09	3.469340e+01	5.102813e+02
1.900000e-06	4.847815e-06	7.736819e-09	3.437832e+01	5.079991e+02
1.910000e-06	4.801677e-06	7.690578e-09	3.405113e+01	5.055651e+02
1.920000e-06	4.753397e-06	7.743488e-09	3.370876e+01	5.029851e+02
1.930000e-06	4.703436e-06	7.571132e-09	3.335446e+01	5.002682e+02
1.940000e-06	4.651727e-06	7.650013e-09	3.298776e+01	4.974260e+02
1.950000e-06	4.597881e-06	7.600339e-09	3.260592e+01	4.944704e+02
1.960000e-06	4.542097e-06	7.427977e-09	3.221032e+01	4.914126e+02
1.970000e-06	4.484568e-06	7.438639e-09	3.180235e+01	4.882617e+02
1.980000e-06	4.425605e-06	7.387072e-09	3.138421e+01	4.850236e+02
1.990000e-06	4.365199e-06	7.403889e-09	3.095585e+01	4.817005e+02
2.000000e-06	4.303038e-06	7.289324e-09	3.051503e+01	4.782912e+02
2.010000e-06	4.239257e-06	7.229235e-09	3.006273e+01	4.747911e+02
2.020000e-06	4.174017e-06	7.247431e-09	2.960008e+01	4.711935e+02
2.030000e-06	4.107343e-06	7.089490e-09	2.912726e+01	4.674904e+02
2.040000e-06	4.039249e-06	7.072859e-09	2.864437e+01	4.636735e+02
2.050000e-06	3.969603e-06	7.040770e-09	2.815047e+01	4.597357e+02
2.060000e-06	3.898397e-06	6.972510e-09	2.764551e+01	4.556712e+02
2.070000e-06	3.825841e-06	6.882983e-09	2.713098e+01	4.514768e+02
2.080000e-06	3.752041e-06	6.783865e-09	2.660763e+01	4.471511e+02
2.090000e-06	3.676912e-06	6.787416e-09	2.607486e+01	4.426952e+02
2.100000e-06	3.600264e-06	6.697616e-09	2.553130e+01	4.381110e+02
2.110000e-06	3.521947e-06	6.608014e-09	2.497592e+01	4.334017e+02
2.120000e-06	3.442253e-06	6.533486e-09	2.441077e+01	4.285699e+02
2.130000e-06	3.361470e-06	6.468764e-09	2.383790e+01	4.236176e+02
2.140000e-06	3.279557e-06	6.396080e-09	2.325701e+01	4.185451e+02
2.150000e-06	3.196558e-06	6.300689e-09	2.266842e+01	4.133511e+02
2.160000e-06	3.112542e-06	6.244534e-09	2.207262e+01	4.080325e+02
2.170000e-06	3.027356e-06	6.148529e-09	2.146852e+01	4.025846e+02
2.180000e-06	2.940837e-06	6.056107e-09	2.085497e+01	3.970018e+02
2.190000e-06	2.853136e-06	5.970104e-09	2.023304e+01	3.912780e+02
2.200000e-06	2.764476e-06	5.896280e-09	1.960431e+01	3.854073e+02
2.210000e-06	2.674849e-06	5.814089e-09	1.896872e+01	3.793848e+02
2.220000e-06	2.584283e-06	5.701511e-09	1.832646e+01	3.732068e+02
2.230000e-06	2.492898e-06	5.599860e-09	1.767841e+01	3.668710e+02
2.240000e-06	2.400738e-06	5.498416e-09	1.702485e+01	3.603768e+02
2.250000e-06	2.307712e-06	5.405865e-09	1.636516e+01	3.537246e+02
2.260000e-06	2.213821e-06	5.305152e-09	1.569933e+01	3.469156e+02
2.270000e-06	2.119009e-06	5.199637e-09	1.502697e+01	3.399510e+02
2.280000e-06	2.023171e-06	5.091853e-09	1.434734e+01	3.328319e+02
2.290000e-06	1.926578e-06	4.981620e-09	1.366235e+01	3.255581e+02
2.300000e-06	1.829510e-06	4.870025e-09	1.297399e+01	3.181282e+02
2.310000e-06	1.732012e-06	4.757558e-09	1.228258e+01	3.105392e+02
2.320000e-06	1.633908e-06	4.641003e-09	1.158687e+01	3.027864e+02
2.330000e-06	1.535207e-06	4.511405e-09	1.088693e+01	2.948636e+02
2.340000e-06	1.436056e-06	4.384463e-09	1.018381e+01	2.867637e+02
2.350000e-06	1.336507e-06	4.258753e-09	9.477854e+00	2.784787e+02
2.360000e-06	1.236562e-06	4.134892e-09	8.769089e+00	2.700005e+02
2.370000e-06	1.136245e-06	4.005644e-09	8.057691e+00	2.613212e+02
2.380000e-06	1.035587e-06	3.865891e-09	7.343876e+00	2.524335e+02
2.390000e-06	9.345371e-07	3.725908e-09	6.627278e+00	2.433309e+02
2.400000e-06	8.330539e-07	3.588742e-09	5.907609e+00	2.340081e+02
2.410000e-06	7.311988e-07	3.449839e-09	5.185303e+00	2.244605e+02
2.420000e-06	6.291333e-07	3.301799e-09	4.461504e+00	2.146845e+02
2.430000e-06	5.268354e-07	3.145539e-09	3.736058e+00	2.046771e+02
2.440000e-06	4.242680e-07	2.986747e-09	3.008700e+00	1.944357e+02
2.450000e-06	3.215503e-07	2.828610e-09	2.280277e+00	1.839577e+02
2.460000e-06	2.186458e-07	2.667573e-09	1.550529e+00	1.732405e+02
2.470000e-06	1.155305e-07	2.505697e-09	8.192854e-01	1.622810e+02
2.480000e-06	1.240049e-08	2.336208e-09	8.793817e-02	1.510752e+02
2.490000e-06	-9.066959e-08	2.157333e-09	-6.429842e-01	1.396186e+02
2.500000e-06	-1.937332e-07	1.978076e-09	-1.373861e+00	1.279053e+02
2.510000e-06	-2.967682e-07	1.799976e-09	-2.104535e+00	1.159284e+02
2.520000e-06	-3.997072e-07	1.618689e-09	-2.834527e+00	1.036795e+02
2.530000e-06	-5.024837e-07	1.426535e-09	-3.563367e+00	9.114945e+01
2.540000e-06	-6.050261e-07	1.227527e-09	-4.290548e+00	7.832780e+01
2.550000e-06	-7.072845e-07	1.026436e-09	-5.015715e+00	6.520378e+01
2.560000e-06	-8.092740e-07	8.196196e-10	-5.738974e+00	5.176673e+01
2.570000e-06	-9.108511e-07	6.060061e-10	-6.459309e+00	3.800714e+01
2.580000e-06	-1.011943e-06	3.888627e-10	-7.176204e+00	2.391778e+01
2.590000e-06	-1.112631e-06	1.682427e-10	-7.890234e+00	9.495117e+00
2.600000e-06	-1.212896e-06	-5.710883e-11	-8.601264e+00	-5.259131e+00
2.610000e-06	-1.312776e-06	-2.863210e-10	-9.309566e+00	-2.033649e+01
2.620000e-06	-1.412203e-06	-5.215327e-10	-1.001465e+01	-3.572033e+01
2.630000e-06	-1.511072e-06	-7.613767e-10	-1.071578e+01	-5.138476e+01
2.640000e-06	-1.609430e-06	-1.004081e-09	-1.141328e+01	-6.729400e+01
2.650000e-06	-1.707272e-06	-1.249754e-09	-1.210713e+01	-8.340236e+01
2.660000e-06	-1.804492e-06	-1.497506e-09	-1.279657e+01	-9.965487e+01
2.670000e-06	-1.901121e-06	-1.747781e-09	-1.348182e+01	-1.159886e+02
2.680000e-06	-1.997232e-06	-1.996949e-09	-1.416339e+01	-1.323347e+02
2.690000e-06	-2.092731e-06	-2.244457e-09	-1.484062e+01	-1.486210e+02
2.700000e-06	-2.187396e-06	-2.491196e-09	-1.551194e+01	-1.647746e+02
2.710000e-06	-2.281051e-06	-2.734672e-09	-1.617609e+01	-1.807254e+02
2.720000e-06	-2.373717e-06	-2.973541e-09	-1.683324e+01	-1.964083e+02
2.730000e-06	-2.465486e-06	-3.208424e-09	-1.748401e+01	-2.117662e+02
2.740000e-06	-2.556389e-06	-3.439963e-09	-1.812865e+01	-2.267517e+02
2.750000e-06	-2.646390e-06	-3.666517e-09	-1.876690e+01	-2.413279e+02
2.760000e-06	-2.735493e-06	-3.886975e-09	-1.939878e+01	-2.554689e+02
2.770000e-06	-2.823799e-06	-4.100611e-09	-2.002499e+01	-2.691591e+02
2.780000e-06	-2.911270e-06	-4.304770e-09	-2.064530e+01	-2.823920e+02
2.790000e-06	-2.997629e-06	-4.498683e-09	-2.125771e+01	-2.951679e+02
2.800000e-06	-3.082690e-06	-4.686414e-09	-2.186092e+01	-3.074921e+02
2.810000e-06	-3.166646e-06	-4.867686e-09	-2.245630e+01	-3.193725e+02
2.820000e-06	-3.249649e-06	-5.040190e-09	-2.304492e+01	-3.308180e+02
2.830000e-06	-3.331601e-06	-5.205450e-09	-2.362608e+01	-3.418360e+02
2.840000e-06	-3.412455e-06	-5.364995e-09	-2.419945e+01	-3.524326e+02
2.850000e-06	-3.492206e-06	-5.519422e-09	-2.476501e+01	-3.626115e+02
2.860000e-06	-3.570632e-06	-5.668341e-09	-2.532117e+01	-3.723745e+02
2.870000e-06	-3.647421e-06	-5.813282e-09	-2.586572e+01	-3.817228e+02
2.880000e-06	-3.722680e-06	-5.952820e-09	-2.639942e+01	-3.906575e+02
2.890000e-06	-3.796586e-06	-6.083688e-09	-2.692353e+01	-3.991816e+02
2.900000e-06	-3.869159e-06	-6.209781e-09	-2.743818e+01	-4.073009e+02
2.910000e-06	-3.940425e-06	-6.332429e-09	-2.794356e+01	-4.150252e+02
2.920000e-06	-4.010140e-06	-6.446806e-09	-2.843794e+01	-4.223684e+02
2.930000e-06	-4.078219e-06	-6.553200e-09	-2.892073e+01	-4.293488e+02
2.940000e-06	-4.144849e-06	-6.654684e-09	-2.939324e+01	-4.359881e+02
