# Temperatura_=_71.16
# Concentracion g/m^3_=_15000.0
# C_Vs_to_Am_M_A/Vsm_=_65563218390.804596
# pendiente_HvsI_1/m_=_3716.3
# ordenada_HvsI_A/m_=_1297.0
# frecuencia_Hz_=_301595.344663616

Tiempo_(s)	Campo_(V.s)	Magnetizacion_(V.s)	Campo_(kA/m)	Magnetizacion_(A/m)
0.000000e+00	-5.413126e-06	-9.247829e-09	-3.834280e+01	-6.041720e+02
1.000000e-08	-5.410836e-06	-9.245207e-09	-3.832658e+01	-6.039350e+02
2.000000e-08	-5.406639e-06	-9.237386e-09	-3.829686e+01	-6.035596e+02
3.000000e-08	-5.400791e-06	-9.230430e-09	-3.825543e+01	-6.030436e+02
4.000000e-08	-5.393410e-06	-9.220563e-09	-3.820315e+01	-6.023870e+02
5.000000e-08	-5.384255e-06	-9.203951e-09	-3.813830e+01	-6.015933e+02
6.000000e-08	-5.372962e-06	-9.183347e-09	-3.805831e+01	-6.006696e+02
7.000000e-08	-5.359788e-06	-9.158058e-09	-3.796499e+01	-5.996261e+02
8.000000e-08	-5.344645e-06	-9.152044e-09	-3.785773e+01	-5.984754e+02
9.000000e-08	-5.327243e-06	-9.195037e-09	-3.773447e+01	-5.972317e+02
1.000000e-07	-5.307704e-06	-9.172210e-09	-3.759607e+01	-5.959088e+02
1.100000e-07	-5.286194e-06	-9.105406e-09	-3.744371e+01	-5.945190e+02
1.200000e-07	-5.262955e-06	-9.061536e-09	-3.727909e+01	-5.930711e+02
1.300000e-07	-5.238130e-06	-8.946608e-09	-3.710325e+01	-5.915697e+02
1.400000e-07	-5.211674e-06	-8.982966e-09	-3.691586e+01	-5.900141e+02
1.500000e-07	-5.183632e-06	-9.082842e-09	-3.671722e+01	-5.883984e+02
1.600000e-07	-5.154106e-06	-8.921827e-09	-3.650808e+01	-5.867115e+02
1.700000e-07	-5.123069e-06	-8.945947e-09	-3.628824e+01	-5.849384e+02
1.800000e-07	-5.089933e-06	-8.961183e-09	-3.605353e+01	-5.830616e+02
1.900000e-07	-5.054790e-06	-8.764620e-09	-3.580460e+01	-5.810631e+02
2.000000e-07	-5.018273e-06	-8.840886e-09	-3.554594e+01	-5.789255e+02
2.100000e-07	-4.980024e-06	-8.828096e-09	-3.527501e+01	-5.766345e+02
2.200000e-07	-4.939926e-06	-8.674716e-09	-3.499098e+01	-5.741796e+02
2.300000e-07	-4.897871e-06	-8.712003e-09	-3.469309e+01	-5.715555e+02
2.400000e-07	-4.853847e-06	-8.687511e-09	-3.438126e+01	-5.687617e+02
2.500000e-07	-4.808119e-06	-8.625304e-09	-3.405736e+01	-5.658026e+02
2.600000e-07	-4.760478e-06	-8.589069e-09	-3.371990e+01	-5.626862e+02
2.700000e-07	-4.710671e-06	-8.503814e-09	-3.336710e+01	-5.594232e+02
2.800000e-07	-4.658762e-06	-8.482635e-09	-3.299941e+01	-5.560249e+02
2.900000e-07	-4.605017e-06	-8.422522e-09	-3.261872e+01	-5.525023e+02
3.000000e-07	-4.549769e-06	-8.352248e-09	-3.222739e+01	-5.488641e+02
3.100000e-07	-4.492854e-06	-8.316209e-09	-3.182424e+01	-5.451163e+02
3.200000e-07	-4.433974e-06	-8.254717e-09	-3.140717e+01	-5.412611e+02
3.300000e-07	-4.373475e-06	-8.180576e-09	-3.097864e+01	-5.372974e+02
3.400000e-07	-4.311572e-06	-8.106897e-09	-3.054017e+01	-5.332210e+02
3.500000e-07	-4.248339e-06	-8.083944e-09	-3.009226e+01	-5.290254e+02
3.600000e-07	-4.183544e-06	-8.012248e-09	-2.963330e+01	-5.247030e+02
3.700000e-07	-4.116961e-06	-7.908047e-09	-2.916168e+01	-5.202463e+02
3.800000e-07	-4.048850e-06	-7.855525e-09	-2.867922e+01	-5.156487e+02
3.900000e-07	-3.979403e-06	-7.781836e-09	-2.818731e+01	-5.109053e+02
4.000000e-07	-3.908705e-06	-7.696984e-09	-2.768654e+01	-5.060138e+02
4.100000e-07	-3.836796e-06	-7.616753e-09	-2.717718e+01	-5.009736e+02
4.200000e-07	-3.763332e-06	-7.555226e-09	-2.665682e+01	-4.957865e+02
4.300000e-07	-3.688217e-06	-7.481831e-09	-2.612475e+01	-4.904554e+02
4.400000e-07	-3.611650e-06	-7.383895e-09	-2.558240e+01	-4.849834e+02
4.500000e-07	-3.533614e-06	-7.300673e-09	-2.502965e+01	-4.793738e+02
4.600000e-07	-3.454128e-06	-7.216780e-09	-2.446663e+01	-4.736281e+02
4.700000e-07	-3.373379e-06	-7.120939e-09	-2.389466e+01	-4.677467e+02
4.800000e-07	-3.291473e-06	-7.019356e-09	-2.331449e+01	-4.617279e+02
4.900000e-07	-3.208449e-06	-6.934277e-09	-2.272641e+01	-4.555682e+02
5.000000e-07	-3.124438e-06	-6.850418e-09	-2.213134e+01	-4.492629e+02
5.100000e-07	-3.039493e-06	-6.741793e-09	-2.152964e+01	-4.428063e+02
5.200000e-07	-2.953584e-06	-6.632360e-09	-2.092113e+01	-4.361929e+02
5.300000e-07	-2.866671e-06	-6.527650e-09	-2.030550e+01	-4.294177e+02
5.400000e-07	-2.778853e-06	-6.423369e-09	-1.968345e+01	-4.224767e+02
5.500000e-07	-2.690011e-06	-6.318382e-09	-1.905416e+01	-4.153678e+02
5.600000e-07	-2.599830e-06	-6.204755e-09	-1.841538e+01	-4.080902e+02
5.700000e-07	-2.508522e-06	-6.089505e-09	-1.776861e+01	-4.006446e+02
5.800000e-07	-2.416427e-06	-5.968861e-09	-1.711628e+01	-3.930324e+02
5.900000e-07	-2.323553e-06	-5.849095e-09	-1.645843e+01	-3.852553e+02
6.000000e-07	-2.229848e-06	-5.728754e-09	-1.579468e+01	-3.773144e+02
6.100000e-07	-2.135372e-06	-5.603113e-09	-1.512548e+01	-3.692099e+02
6.200000e-07	-2.040224e-06	-5.476520e-09	-1.445152e+01	-3.609400e+02
6.300000e-07	-1.944406e-06	-5.347895e-09	-1.377281e+01	-3.525012e+02
6.400000e-07	-1.847783e-06	-5.219506e-09	-1.308840e+01	-3.438883e+02
6.500000e-07	-1.750251e-06	-5.089088e-09	-1.239756e+01	-3.350944e+02
6.600000e-07	-1.651911e-06	-4.951134e-09	-1.170098e+01	-3.261116e+02
6.700000e-07	-1.552958e-06	-4.803220e-09	-1.100007e+01	-3.169317e+02
6.800000e-07	-1.453544e-06	-4.655487e-09	-1.029589e+01	-3.075472e+02
6.900000e-07	-1.353736e-06	-4.510849e-09	-9.588919e+00	-2.979513e+02
7.000000e-07	-1.253533e-06	-4.364996e-09	-8.879149e+00	-2.881391e+02
7.100000e-07	-1.152953e-06	-4.211080e-09	-8.166711e+00	-2.781073e+02
7.200000e-07	-1.051993e-06	-4.047492e-09	-7.451584e+00	-2.678543e+02
7.300000e-07	-9.506815e-07	-3.882463e-09	-6.733963e+00	-2.573801e+02
7.400000e-07	-8.490452e-07	-3.718273e-09	-6.014043e+00	-2.466855e+02
7.500000e-07	-7.470361e-07	-3.553036e-09	-5.291482e+00	-2.357714e+02
7.600000e-07	-6.447184e-07	-3.383289e-09	-4.566735e+00	-2.246383e+02
7.700000e-07	-5.422230e-07	-3.207396e-09	-3.840729e+00	-2.132852e+02
7.800000e-07	-4.395989e-07	-3.028000e-09	-3.113811e+00	-2.017095e+02
7.900000e-07	-3.368925e-07	-2.846857e-09	-2.386311e+00	-1.899063e+02
8.000000e-07	-2.341368e-07	-2.661319e-09	-1.658462e+00	-1.778683e+02
8.100000e-07	-1.312773e-07	-2.470436e-09	-9.298766e-01	-1.655859e+02
8.200000e-07	-2.834650e-08	-2.278048e-09	-2.007868e-01	-1.530476e+02
8.300000e-07	7.461439e-08	-2.086060e-09	5.285162e-01	-1.402402e+02
8.400000e-07	1.776237e-07	-1.891294e-09	1.258162e+00	-1.271492e+02
8.500000e-07	2.805922e-07	-1.689235e-09	1.987519e+00	-1.137596e+02
8.600000e-07	3.834558e-07	-1.480855e-09	2.716133e+00	-1.000564e+02
8.700000e-07	4.862153e-07	-1.264522e-09	3.444009e+00	-8.602481e+01
8.800000e-07	5.888231e-07	-1.041254e-09	4.170812e+00	-7.165118e+01
8.900000e-07	6.912229e-07	-8.140114e-10	4.896140e+00	-5.692336e+01
9.000000e-07	7.934291e-07	-5.825747e-10	5.620097e+00	-4.183149e+01
9.100000e-07	8.954421e-07	-3.475569e-10	6.342686e+00	-2.636881e+01
9.200000e-07	9.971681e-07	-1.082821e-10	7.063242e+00	-1.053268e+01
9.300000e-07	1.098551e-06	1.360327e-10	7.781371e+00	5.674307e+00
9.400000e-07	1.199516e-06	3.878838e-10	8.496534e+00	2.224301e+01
9.500000e-07	1.300013e-06	6.452745e-10	9.208387e+00	3.915652e+01
9.600000e-07	1.400097e-06	9.075447e-10	9.917306e+00	5.638899e+01
9.700000e-07	1.499728e-06	1.173711e-09	1.062302e+01	7.390478e+01
9.800000e-07	1.598828e-06	1.442253e-09	1.132498e+01	9.165802e+01
9.900000e-07	1.697305e-06	1.713153e-09	1.202252e+01	1.095928e+02
1.000000e-06	1.795038e-06	1.985813e-09	1.271479e+01	1.276438e+02
1.010000e-06	1.891948e-06	2.259684e-09	1.340124e+01	1.457384e+02
1.020000e-06	1.988044e-06	2.533009e-09	1.408192e+01	1.637980e+02
1.030000e-06	2.083344e-06	2.805577e-09	1.475695e+01	1.817417e+02
1.040000e-06	2.177897e-06	3.075630e-09	1.542670e+01	1.994888e+02
1.050000e-06	2.271716e-06	3.339739e-09	1.609125e+01	2.169628e+02
1.060000e-06	2.364794e-06	3.598004e-09	1.675055e+01	2.340936e+02
1.070000e-06	2.457140e-06	3.849951e-09	1.740466e+01	2.508210e+02
1.080000e-06	2.548776e-06	4.096921e-09	1.805375e+01	2.670964e+02
1.090000e-06	2.639526e-06	4.337741e-09	1.869656e+01	2.828840e+02
1.100000e-06	2.729057e-06	4.572348e-09	1.933073e+01	2.981608e+02
1.110000e-06	2.817421e-06	4.796242e-09	1.995664e+01	3.129163e+02
1.120000e-06	2.904787e-06	5.010038e-09	2.057548e+01	3.271505e+02
1.130000e-06	2.991245e-06	5.216545e-09	2.118789e+01	3.408718e+02
1.140000e-06	3.076779e-06	5.417179e-09	2.179375e+01	3.540946e+02
1.150000e-06	3.161351e-06	5.610381e-09	2.239280e+01	3.668360e+02
1.160000e-06	3.244989e-06	5.796091e-09	2.298523e+01	3.791140e+02
1.170000e-06	3.327545e-06	5.977525e-09	2.357001e+01	3.909447e+02
1.180000e-06	3.408781e-06	6.151659e-09	2.414542e+01	4.023414e+02
1.190000e-06	3.488711e-06	6.318697e-09	2.471159e+01	4.133137e+02
1.200000e-06	3.567443e-06	6.479429e-09	2.526927e+01	4.238676e+02
1.210000e-06	3.644933e-06	6.635370e-09	2.581816e+01	4.340061e+02
1.220000e-06	3.721134e-06	6.783349e-09	2.635792e+01	4.437305e+02
1.230000e-06	3.795906e-06	6.924409e-09	2.688755e+01	4.530422e+02
1.240000e-06	3.869069e-06	7.060113e-09	2.740578e+01	4.619437e+02
1.250000e-06	3.940666e-06	7.190471e-09	2.791292e+01	4.704401e+02
1.260000e-06	4.010831e-06	7.313262e-09	2.840993e+01	4.785402e+02
1.270000e-06	4.079655e-06	7.430471e-09	2.889742e+01	4.862568e+02
1.280000e-06	4.147172e-06	7.542306e-09	2.937567e+01	4.936065e+02
1.290000e-06	4.213111e-06	7.646784e-09	2.984273e+01	5.006092e+02
1.300000e-06	4.277352e-06	7.746182e-09	3.029778e+01	5.072868e+02
1.310000e-06	4.340052e-06	7.841409e-09	3.074190e+01	5.136622e+02
1.320000e-06	4.401296e-06	7.933780e-09	3.117570e+01	5.197574e+02
1.330000e-06	4.461130e-06	8.023012e-09	3.159952e+01	5.255927e+02
1.340000e-06	4.519399e-06	8.110033e-09	3.201226e+01	5.311856e+02
1.350000e-06	4.575926e-06	8.192856e-09	3.241266e+01	5.365498e+02
1.360000e-06	4.630720e-06	8.269383e-09	3.280078e+01	5.416951e+02
1.370000e-06	4.683848e-06	8.343038e-09	3.317711e+01	5.466278e+02
1.380000e-06	4.735115e-06	8.415369e-09	3.354024e+01	5.513511e+02
1.390000e-06	4.784302e-06	8.486183e-09	3.388866e+01	5.558657e+02
1.400000e-06	4.831637e-06	8.553713e-09	3.422394e+01	5.601711e+02
1.410000e-06	4.877341e-06	8.615726e-09	3.454767e+01	5.642658e+02
1.420000e-06	4.921497e-06	8.673839e-09	3.486045e+01	5.681488e+02
1.430000e-06	4.963943e-06	8.729956e-09	3.516110e+01	5.718195e+02
1.440000e-06	5.004439e-06	8.783017e-09	3.544795e+01	5.752784e+02
1.450000e-06	5.043150e-06	8.832101e-09	3.572215e+01	5.785270e+02
1.460000e-06	5.080221e-06	8.876600e-09	3.598473e+01	5.815674e+02
1.470000e-06	5.115656e-06	8.918162e-09	3.623573e+01	5.844028e+02
1.480000e-06	5.149248e-06	8.958133e-09	3.647367e+01	5.870365e+02
1.490000e-06	5.180892e-06	8.994509e-09	3.669782e+01	5.894723e+02
1.500000e-06	5.210740e-06	9.025880e-09	3.690924e+01	5.917140e+02
1.510000e-06	5.238953e-06	9.054096e-09	3.710908e+01	5.937658e+02
1.520000e-06	5.265355e-06	9.080217e-09	3.729610e+01	5.956319e+02
1.530000e-06	5.289637e-06	9.103877e-09	3.746809e+01	5.973173e+02
1.540000e-06	5.311949e-06	9.125177e-09	3.762613e+01	5.988279e+02
1.550000e-06	5.332533e-06	9.144272e-09	3.777193e+01	6.001700e+02
1.560000e-06	5.351285e-06	9.160986e-09	3.790476e+01	6.013511e+02
1.570000e-06	5.367993e-06	9.176517e-09	3.802311e+01	6.023791e+02
1.580000e-06	5.382730e-06	9.190816e-09	3.812750e+01	6.032622e+02
1.590000e-06	5.395538e-06	9.202716e-09	3.821822e+01	6.040082e+02
1.600000e-06	5.406209e-06	9.211835e-09	3.829381e+01	6.046238e+02
1.610000e-06	5.414702e-06	9.219383e-09	3.835396e+01	6.051143e+02
1.620000e-06	5.421238e-06	9.225557e-09	3.840026e+01	6.054829e+02
1.630000e-06	5.425966e-06	9.231234e-09	3.843375e+01	6.057303e+02
1.640000e-06	5.428830e-06	9.235928e-09	3.845403e+01	6.058551e+02
1.650000e-06	5.429672e-06	9.238721e-09	3.846000e+01	6.058540e+02
1.660000e-06	5.428631e-06	9.235769e-09	3.845263e+01	6.057224e+02
1.670000e-06	5.425926e-06	9.228362e-09	3.843347e+01	6.054558e+02
1.680000e-06	5.421596e-06	9.223613e-09	3.840280e+01	6.050501e+02
1.690000e-06	5.415357e-06	9.216702e-09	3.835860e+01	6.045035e+02
1.700000e-06	5.407179e-06	9.206952e-09	3.830068e+01	6.038167e+02
1.710000e-06	5.397408e-06	9.197548e-09	3.823147e+01	6.029942e+02
1.720000e-06	5.386036e-06	9.193301e-09	3.815092e+01	6.020435e+02
1.730000e-06	5.372791e-06	9.195387e-09	3.805710e+01	6.009755e+02
1.740000e-06	5.357466e-06	9.107604e-09	3.794854e+01	5.998034e+02
1.750000e-06	5.339829e-06	9.070107e-09	3.782362e+01	5.985412e+02
1.760000e-06	5.319481e-06	9.086695e-09	3.767949e+01	5.972027e+02
1.770000e-06	5.296595e-06	9.078738e-09	3.751738e+01	5.957995e+02
1.780000e-06	5.272208e-06	9.176639e-09	3.734464e+01	5.943396e+02
1.790000e-06	5.247213e-06	9.057941e-09	3.716759e+01	5.928265e+02
1.800000e-06	5.221030e-06	8.926909e-09	3.698213e+01	5.912584e+02
1.810000e-06	5.192580e-06	9.049190e-09	3.678060e+01	5.896281e+02
1.820000e-06	5.162202e-06	8.905510e-09	3.656543e+01	5.879237e+02
1.830000e-06	5.130227e-06	8.879022e-09	3.633894e+01	5.861296e+02
1.840000e-06	5.096251e-06	9.014032e-09	3.609828e+01	5.842280e+02
1.850000e-06	5.060622e-06	8.800702e-09	3.584591e+01	5.822007e+02
1.860000e-06	5.023316e-06	8.815865e-09	3.558166e+01	5.800310e+02
1.870000e-06	4.984029e-06	8.881400e-09	3.530338e+01	5.777052e+02
1.880000e-06	4.943103e-06	8.674850e-09	3.501348e+01	5.752141e+02
1.890000e-06	4.900364e-06	8.713954e-09	3.471075e+01	5.725531e+02
1.900000e-06	4.855945e-06	8.650791e-09	3.439612e+01	5.697230e+02
1.910000e-06	4.809810e-06	8.586533e-09	3.406933e+01	5.667291e+02
1.920000e-06	4.761505e-06	8.630123e-09	3.372717e+01	5.635800e+02
1.930000e-06	4.711568e-06	8.435147e-09	3.337345e+01	5.602867e+02
1.940000e-06	4.660033e-06	8.488796e-09	3.300841e+01	5.568606e+02
1.950000e-06	4.606369e-06	8.461039e-09	3.262830e+01	5.533122e+02
1.960000e-06	4.550694e-06	8.292502e-09	3.223394e+01	5.496498e+02
1.970000e-06	4.493253e-06	8.303207e-09	3.182707e+01	5.458785e+02
1.980000e-06	4.434321e-06	8.226851e-09	3.140963e+01	5.420000e+02
1.990000e-06	4.373967e-06	8.208629e-09	3.098213e+01	5.380123e+02
2.000000e-06	4.311839e-06	8.091235e-09	3.054205e+01	5.339106e+02
2.010000e-06	4.248045e-06	8.018567e-09	3.009018e+01	5.296881e+02
2.020000e-06	4.182802e-06	8.034755e-09	2.962805e+01	5.253373e+02
2.030000e-06	4.116086e-06	7.869455e-09	2.915548e+01	5.208505e+02
2.040000e-06	4.048007e-06	7.840729e-09	2.867326e+01	5.162216e+02
2.050000e-06	3.978419e-06	7.794040e-09	2.818034e+01	5.114463e+02
2.060000e-06	3.907211e-06	7.705547e-09	2.767595e+01	5.065225e+02
2.070000e-06	3.834645e-06	7.616150e-09	2.716194e+01	5.014504e+02
2.080000e-06	3.760861e-06	7.498764e-09	2.663931e+01	4.962318e+02
2.090000e-06	3.685663e-06	7.482014e-09	2.610666e+01	4.908699e+02
2.100000e-06	3.609004e-06	7.379405e-09	2.556366e+01	4.853679e+02
2.110000e-06	3.530714e-06	7.284322e-09	2.500911e+01	4.797286e+02
2.120000e-06	3.450961e-06	7.204669e-09	2.444419e+01	4.739536e+02
2.130000e-06	3.370152e-06	7.115844e-09	2.387180e+01	4.680426e+02
2.140000e-06	3.288244e-06	7.025445e-09	2.329163e+01	4.619936e+02
2.150000e-06	3.205230e-06	6.909957e-09	2.270361e+01	4.558028e+02
2.160000e-06	3.121184e-06	6.838717e-09	2.210829e+01	4.494652e+02
2.170000e-06	3.036025e-06	6.735190e-09	2.150508e+01	4.429752e+02
2.180000e-06	2.949436e-06	6.634987e-09	2.089175e+01	4.363271e+02
2.190000e-06	2.861602e-06	6.526711e-09	2.026959e+01	4.295163e+02
2.200000e-06	2.772849e-06	6.421712e-09	1.964093e+01	4.225392e+02
2.210000e-06	2.683201e-06	6.324845e-09	1.900592e+01	4.153938e+02
2.220000e-06	2.592666e-06	6.204617e-09	1.836463e+01	4.080798e+02
2.230000e-06	2.501233e-06	6.095801e-09	1.771699e+01	4.005980e+02
2.240000e-06	2.409039e-06	5.980964e-09	1.706395e+01	3.929500e+02
2.250000e-06	2.316036e-06	5.871727e-09	1.640518e+01	3.851373e+02
2.260000e-06	2.222056e-06	5.747134e-09	1.573949e+01	3.771611e+02
2.270000e-06	2.127082e-06	5.614872e-09	1.506676e+01	3.690210e+02
2.280000e-06	2.031190e-06	5.486430e-09	1.438753e+01	3.607149e+02
2.290000e-06	1.934584e-06	5.357340e-09	1.370324e+01	3.522391e+02
2.300000e-06	1.837435e-06	5.226192e-09	1.301510e+01	3.435876e+02
2.310000e-06	1.739794e-06	5.095175e-09	1.232349e+01	3.347536e+02
2.320000e-06	1.641571e-06	4.966826e-09	1.162774e+01	3.257289e+02
2.330000e-06	1.542772e-06	4.824810e-09	1.092792e+01	3.165054e+02
2.340000e-06	1.443497e-06	4.678153e-09	1.022473e+01	3.070758e+02
2.350000e-06	1.343867e-06	4.527339e-09	9.519017e+00	2.974336e+02
2.360000e-06	1.243934e-06	4.379310e-09	8.811156e+00	2.875742e+02
2.370000e-06	1.143646e-06	4.229470e-09	8.100785e+00	2.774947e+02
2.380000e-06	1.042989e-06	4.073265e-09	7.387805e+00	2.671940e+02
2.390000e-06	9.419095e-07	3.916952e-09	6.671828e+00	2.566721e+02
2.400000e-06	8.403702e-07	3.756355e-09	5.952595e+00	2.459301e+02
2.410000e-06	7.383873e-07	3.590495e-09	5.230220e+00	2.349687e+02
2.420000e-06	6.360534e-07	3.419322e-09	4.505358e+00	2.237882e+02
2.430000e-06	5.334963e-07	3.245893e-09	3.778915e+00	2.123874e+02
2.440000e-06	4.308070e-07	3.072561e-09	3.051535e+00	2.007631e+02
2.450000e-06	3.279797e-07	2.896692e-09	2.323179e+00	1.889099e+02
2.460000e-06	2.249464e-07	2.711072e-09	1.593363e+00	1.768201e+02
2.470000e-06	1.216875e-07	2.522650e-09	8.619491e-01	1.644836e+02
2.480000e-06	1.832464e-08	2.330712e-09	1.297989e-01	1.518885e+02
2.490000e-06	-8.502893e-08	2.132666e-09	-6.022855e-01	1.390212e+02
2.500000e-06	-1.883034e-07	1.932187e-09	-1.333810e+00	1.258671e+02
2.510000e-06	-2.914805e-07	1.728994e-09	-2.064644e+00	1.124113e+02
2.520000e-06	-3.945211e-07	1.522390e-09	-2.794512e+00	9.863856e+01
2.530000e-06	-4.973763e-07	1.307589e-09	-3.523066e+00	8.453446e+01
2.540000e-06	-6.000790e-07	1.087247e-09	-4.250540e+00	7.008555e+01
2.550000e-06	-7.025900e-07	8.628693e-10	-4.976657e+00	5.528013e+01
2.560000e-06	-8.048043e-07	6.290422e-10	-5.700671e+00	4.010891e+01
2.570000e-06	-9.065690e-07	3.870404e-10	-6.421501e+00	2.456593e+01
2.580000e-06	-1.007844e-06	1.450191e-10	-7.138866e+00	8.649565e+00
2.590000e-06	-1.108727e-06	-9.879787e-11	-7.853445e+00	-7.636283e+00
2.600000e-06	-1.209226e-06	-3.499822e-10	-8.565313e+00	-2.428092e+01
2.610000e-06	-1.309241e-06	-6.089397e-10	-9.273750e+00	-4.126562e+01
2.620000e-06	-1.408742e-06	-8.742208e-10	-9.978547e+00	-5.856248e+01
2.630000e-06	-1.507775e-06	-1.144326e-09	-1.068003e+01	-7.613370e+01
2.640000e-06	-1.606350e-06	-1.419437e-09	-1.137826e+01	-9.393121e+01
2.650000e-06	-1.704367e-06	-1.697412e-09	-1.207254e+01	-1.118970e+02
2.660000e-06	-1.801751e-06	-1.975871e-09	-1.276235e+01	-1.299641e+02
2.670000e-06	-1.898580e-06	-2.254849e-09	-1.344821e+01	-1.480582e+02
2.680000e-06	-1.994893e-06	-2.531951e-09	-1.413043e+01	-1.661002e+02
2.690000e-06	-2.090545e-06	-2.806244e-09	-1.480796e+01	-1.840088e+02
2.700000e-06	-2.185325e-06	-3.077020e-09	-1.547932e+01	-2.017040e+02
2.710000e-06	-2.279138e-06	-3.342688e-09	-1.614382e+01	-2.191104e+02
2.720000e-06	-2.372032e-06	-3.602639e-09	-1.680182e+01	-2.361598e+02
2.730000e-06	-2.463998e-06	-3.857109e-09	-1.745324e+01	-2.527943e+02
2.740000e-06	-2.555060e-06	-4.104263e-09	-1.809826e+01	-2.689681e+02
2.750000e-06	-2.645236e-06	-4.342262e-09	-1.873700e+01	-2.846480e+02
2.760000e-06	-2.734483e-06	-4.574750e-09	-1.936916e+01	-2.998140e+02
2.770000e-06	-2.822890e-06	-4.802771e-09	-1.999538e+01	-3.144578e+02
2.780000e-06	-2.910430e-06	-5.022963e-09	-2.061545e+01	-3.285815e+02
2.790000e-06	-2.996885e-06	-5.232499e-09	-2.122784e+01	-3.421950e+02
2.800000e-06	-3.082149e-06	-5.434403e-09	-2.183179e+01	-3.553134e+02
2.810000e-06	-3.166310e-06	-5.629519e-09	-2.242793e+01	-3.679544e+02
2.820000e-06	-3.249425e-06	-5.814642e-09	-2.301666e+01	-3.801356e+02
2.830000e-06	-3.331410e-06	-5.991969e-09	-2.359738e+01	-3.918727e+02
2.840000e-06	-3.412336e-06	-6.163860e-09	-2.417060e+01	-4.031781e+02
2.850000e-06	-3.492195e-06	-6.328055e-09	-2.473627e+01	-4.140607e+02
2.860000e-06	-3.570633e-06	-6.484649e-09	-2.529187e+01	-4.245257e+02
2.870000e-06	-3.647512e-06	-6.637525e-09	-2.583642e+01	-4.345757e+02
2.880000e-06	-3.722965e-06	-6.785835e-09	-2.637088e+01	-4.442119e+02
2.890000e-06	-3.797011e-06	-6.926660e-09	-2.689537e+01	-4.534358e+02
2.900000e-06	-3.869736e-06	-7.062039e-09	-2.741051e+01	-4.622502e+02
2.910000e-06	-3.941184e-06	-7.194391e-09	-2.791659e+01	-4.706612e+02
2.920000e-06	-4.011076e-06	-7.319012e-09	-2.841166e+01	-4.786782e+02
2.930000e-06	-4.079348e-06	-7.434792e-09	-2.889525e+01	-4.863150e+02
2.940000e-06	-4.146163e-06	-7.546857e-09	-2.936852e+01	-4.935890e+02
