# Temperatura_=_77.79
# Concentracion g/m^3_=_15000.0
# C_Vs_to_Am_M_A/Vsm_=_65563218390.804596
# pendiente_HvsI_1/m_=_3716.3
# ordenada_HvsI_A/m_=_1297.0
# frecuencia_Hz_=_301599.9952318249

Tiempo_(s)	Campo_(V.s)	Magnetizacion_(V.s)	Campo_(kA/m)	Magnetizacion_(A/m)
0.000000e+00	-5.431514e-06	-9.575115e-09	-3.833814e+01	-6.261535e+02
1.000000e-08	-5.428854e-06	-9.574870e-09	-3.831936e+01	-6.258809e+02
2.000000e-08	-5.424414e-06	-9.568283e-09	-3.828802e+01	-6.254676e+02
3.000000e-08	-5.418314e-06	-9.564208e-09	-3.824496e+01	-6.249141e+02
4.000000e-08	-5.410597e-06	-9.556256e-09	-3.819050e+01	-6.242227e+02
5.000000e-08	-5.401013e-06	-9.539519e-09	-3.812284e+01	-6.233981e+02
6.000000e-08	-5.389321e-06	-9.516654e-09	-3.804032e+01	-6.224472e+02
7.000000e-08	-5.375786e-06	-9.479913e-09	-3.794478e+01	-6.213787e+02
8.000000e-08	-5.360185e-06	-9.496225e-09	-3.783466e+01	-6.202028e+02
9.000000e-08	-5.342312e-06	-9.557527e-09	-3.770850e+01	-6.189297e+02
1.000000e-07	-5.322357e-06	-9.503495e-09	-3.756766e+01	-6.175689e+02
1.100000e-07	-5.300450e-06	-9.437860e-09	-3.741302e+01	-6.161280e+02
1.200000e-07	-5.276876e-06	-9.387794e-09	-3.724663e+01	-6.146115e+02
1.300000e-07	-5.251679e-06	-9.223361e-09	-3.706878e+01	-6.130204e+02
1.400000e-07	-5.224825e-06	-9.350869e-09	-3.687923e+01	-6.113517e+02
1.500000e-07	-5.196422e-06	-9.427471e-09	-3.667875e+01	-6.095983e+02
1.600000e-07	-5.166518e-06	-9.181771e-09	-3.646767e+01	-6.077495e+02
1.700000e-07	-5.135003e-06	-9.325113e-09	-3.624522e+01	-6.057921e+02
1.800000e-07	-5.101348e-06	-9.286169e-09	-3.600768e+01	-6.037114e+02
1.900000e-07	-5.065817e-06	-9.033568e-09	-3.575688e+01	-6.014928e+02
2.000000e-07	-5.028806e-06	-9.184905e-09	-3.549564e+01	-5.991227e+02
2.100000e-07	-4.990047e-06	-9.101595e-09	-3.522206e+01	-5.965904e+02
2.200000e-07	-4.949464e-06	-8.962602e-09	-3.493560e+01	-5.938886e+02
2.300000e-07	-4.906894e-06	-9.056250e-09	-3.463513e+01	-5.910139e+02
2.400000e-07	-4.862366e-06	-8.973908e-09	-3.432082e+01	-5.879673e+02
2.500000e-07	-4.816122e-06	-8.921430e-09	-3.399442e+01	-5.847534e+02
2.600000e-07	-4.767891e-06	-8.871456e-09	-3.365398e+01	-5.813800e+02
2.700000e-07	-4.717443e-06	-8.782404e-09	-3.329789e+01	-5.778568e+02
2.800000e-07	-4.664973e-06	-8.762713e-09	-3.292754e+01	-5.741943e+02
2.900000e-07	-4.610744e-06	-8.668943e-09	-3.254476e+01	-5.704027e+02
3.000000e-07	-4.554933e-06	-8.603599e-09	-3.215083e+01	-5.664903e+02
3.100000e-07	-4.497372e-06	-8.589945e-09	-3.174453e+01	-5.624634e+02
3.200000e-07	-4.437984e-06	-8.554332e-09	-3.132534e+01	-5.583251e+02
3.300000e-07	-4.377003e-06	-8.449762e-09	-3.089491e+01	-5.540758e+02
3.400000e-07	-4.314610e-06	-8.341234e-09	-3.045451e+01	-5.497128e+02
3.500000e-07	-4.250844e-06	-8.318893e-09	-3.000442e+01	-5.452316e+02
3.600000e-07	-4.185476e-06	-8.236211e-09	-2.954302e+01	-5.406259e+02
3.700000e-07	-4.118412e-06	-8.161448e-09	-2.906965e+01	-5.358890e+02
3.800000e-07	-4.049832e-06	-8.124305e-09	-2.858559e+01	-5.310145e+02
3.900000e-07	-3.979886e-06	-8.024167e-09	-2.809188e+01	-5.259967e+02
4.000000e-07	-3.908772e-06	-7.918016e-09	-2.758992e+01	-5.208316e+02
4.100000e-07	-3.836355e-06	-7.821936e-09	-2.707877e+01	-5.155165e+02
4.200000e-07	-3.762368e-06	-7.774067e-09	-2.655653e+01	-5.100507e+02
4.300000e-07	-3.686841e-06	-7.698832e-09	-2.602343e+01	-5.044344e+02
4.400000e-07	-3.609839e-06	-7.598991e-09	-2.547991e+01	-4.986691e+02
4.500000e-07	-3.531258e-06	-7.511249e-09	-2.492525e+01	-4.927566e+02
4.600000e-07	-3.451231e-06	-7.418492e-09	-2.436039e+01	-4.866985e+02
4.700000e-07	-3.369997e-06	-7.328587e-09	-2.378699e+01	-4.804958e+02
4.800000e-07	-3.287581e-06	-7.222517e-09	-2.320526e+01	-4.741488e+02
4.900000e-07	-3.204123e-06	-7.125291e-09	-2.261618e+01	-4.676568e+02
5.000000e-07	-3.119646e-06	-7.023137e-09	-2.201990e+01	-4.610181e+02
5.100000e-07	-3.034168e-06	-6.911619e-09	-2.141656e+01	-4.542300e+02
5.200000e-07	-2.947764e-06	-6.805954e-09	-2.080668e+01	-4.472896e+02
5.300000e-07	-2.860471e-06	-6.704901e-09	-2.019052e+01	-4.401936e+02
5.400000e-07	-2.772193e-06	-6.596000e-09	-1.956742e+01	-4.329388e+02
5.500000e-07	-2.682706e-06	-6.473975e-09	-1.893578e+01	-4.255222e+02
5.600000e-07	-2.592086e-06	-6.346530e-09	-1.829614e+01	-4.179412e+02
5.700000e-07	-2.500493e-06	-6.229857e-09	-1.764964e+01	-4.101936e+02
5.800000e-07	-2.407965e-06	-6.124177e-09	-1.699653e+01	-4.022775e+02
5.900000e-07	-2.314622e-06	-6.007569e-09	-1.633768e+01	-3.941910e+02
6.000000e-07	-2.220501e-06	-5.872891e-09	-1.567332e+01	-3.859317e+02
6.100000e-07	-2.125682e-06	-5.734476e-09	-1.500404e+01	-3.774972e+02
6.200000e-07	-2.030158e-06	-5.600094e-09	-1.432979e+01	-3.688840e+02
6.300000e-07	-1.933755e-06	-5.465231e-09	-1.364934e+01	-3.600882e+02
6.400000e-07	-1.836426e-06	-5.334371e-09	-1.296234e+01	-3.511050e+02
6.500000e-07	-1.738263e-06	-5.199672e-09	-1.226947e+01	-3.419289e+02
6.600000e-07	-1.639511e-06	-5.052214e-09	-1.157243e+01	-3.325542e+02
6.700000e-07	-1.540255e-06	-4.896938e-09	-1.087183e+01	-3.229750e+02
6.800000e-07	-1.440483e-06	-4.745192e-09	-1.016759e+01	-3.131855e+02
6.900000e-07	-1.340234e-06	-4.596891e-09	-9.459993e+00	-3.031804e+02
7.000000e-07	-1.239563e-06	-4.442944e-09	-8.749410e+00	-2.929551e+02
7.100000e-07	-1.138534e-06	-4.280838e-09	-8.036300e+00	-2.825060e+02
7.200000e-07	-1.037175e-06	-4.112346e-09	-7.320858e+00	-2.718302e+02
7.300000e-07	-9.354860e-07	-3.944255e-09	-6.603092e+00	-2.609254e+02
7.400000e-07	-8.333865e-07	-3.775822e-09	-5.882427e+00	-2.497901e+02
7.500000e-07	-7.309426e-07	-3.604232e-09	-5.159331e+00	-2.384231e+02
7.600000e-07	-6.282904e-07	-3.424490e-09	-4.434764e+00	-2.268228e+02
7.700000e-07	-5.254607e-07	-3.236068e-09	-3.708945e+00	-2.149875e+02
7.800000e-07	-4.225326e-07	-3.047741e-09	-2.982430e+00	-2.029146e+02
7.900000e-07	-3.195486e-07	-2.862021e-09	-2.255522e+00	-1.906003e+02
8.000000e-07	-2.164875e-07	-2.674037e-09	-1.528069e+00	-1.780393e+02
8.100000e-07	-1.133507e-07	-2.479755e-09	-8.000819e-01	-1.652247e+02
8.200000e-07	-1.017236e-08	-2.279863e-09	-7.180124e-02	-1.521475e+02
8.300000e-07	9.299434e-08	-2.076164e-09	6.563970e-01	-1.387967e+02
8.400000e-07	1.961449e-07	-1.869998e-09	1.384482e+00	-1.251594e+02
8.500000e-07	2.993047e-07	-1.660707e-09	2.112631e+00	-1.112206e+02
8.600000e-07	4.024275e-07	-1.446846e-09	2.840520e+00	-9.696380e+01
8.700000e-07	5.054647e-07	-1.222365e-09	3.567804e+00	-8.237158e+01
8.800000e-07	6.083795e-07	-9.887960e-10	4.294224e+00	-6.742624e+01
8.900000e-07	7.111909e-07	-7.506982e-10	5.019914e+00	-5.211099e+01
9.000000e-07	8.138262e-07	-5.087191e-10	5.744361e+00	-3.641126e+01
9.100000e-07	9.161461e-07	-2.647915e-10	6.466583e+00	-2.031630e+01
9.200000e-07	1.018089e-06	-1.511836e-11	7.186146e+00	-3.820874e+00
9.300000e-07	1.119629e-06	2.416303e-10	7.902856e+00	1.307292e+01
9.400000e-07	1.220746e-06	5.049523e-10	8.616588e+00	3.035397e+01
9.500000e-07	1.321457e-06	7.705888e-10	9.327452e+00	4.800070e+01
9.600000e-07	1.421792e-06	1.037920e-09	1.003566e+01	6.598001e+01
9.700000e-07	1.521669e-06	1.311123e-09	1.074064e+01	8.424685e+01
9.800000e-07	1.621047e-06	1.591109e-09	1.144210e+01	1.027444e+02
9.900000e-07	1.719842e-06	1.875557e-09	1.213944e+01	1.214052e+02
1.000000e-06	1.817866e-06	2.159943e-09	1.283134e+01	1.401526e+02
1.010000e-06	1.915002e-06	2.443880e-09	1.351697e+01	1.589035e+02
1.020000e-06	2.011170e-06	2.727121e-09	1.419577e+01	1.775714e+02
1.030000e-06	2.106549e-06	3.009816e-09	1.486900e+01	1.960694e+02
1.040000e-06	2.201320e-06	3.289395e-09	1.553793e+01	2.143143e+02
1.050000e-06	2.295313e-06	3.558843e-09	1.620138e+01	2.322292e+02
1.060000e-06	2.388483e-06	3.819150e-09	1.685901e+01	2.497472e+02
1.070000e-06	2.480938e-06	4.073473e-09	1.751161e+01	2.668127e+02
1.080000e-06	2.572707e-06	4.325100e-09	1.815935e+01	2.833838e+02
1.090000e-06	2.663626e-06	4.571050e-09	1.880111e+01	2.994317e+02
1.100000e-06	2.753375e-06	4.807293e-09	1.943459e+01	3.149411e+02
1.110000e-06	2.841845e-06	5.033320e-09	2.005905e+01	3.299080e+02
1.120000e-06	2.929300e-06	5.250293e-09	2.067635e+01	3.443382e+02
1.130000e-06	3.015899e-06	5.461932e-09	2.128761e+01	3.582445e+02
1.140000e-06	3.101538e-06	5.668482e-09	2.189209e+01	3.716439e+02
1.150000e-06	3.186151e-06	5.866384e-09	2.248932e+01	3.845552e+02
1.160000e-06	3.269824e-06	6.054847e-09	2.307993e+01	3.969967e+02
1.170000e-06	3.352472e-06	6.235724e-09	2.366330e+01	4.089840e+02
1.180000e-06	3.433819e-06	6.409559e-09	2.423748e+01	4.205297e+02
1.190000e-06	3.513837e-06	6.578682e-09	2.480228e+01	4.316423e+02
1.200000e-06	3.592616e-06	6.742389e-09	2.535834e+01	4.423273e+02
1.210000e-06	3.670139e-06	6.899997e-09	2.590554e+01	4.525876e+02
1.220000e-06	3.746395e-06	7.050397e-09	2.644379e+01	4.624247e+02
1.230000e-06	3.821285e-06	7.195024e-09	2.697240e+01	4.718408e+02
1.240000e-06	3.894454e-06	7.332253e-09	2.748886e+01	4.808396e+02
1.250000e-06	3.966012e-06	7.463073e-09	2.799395e+01	4.894276e+02
1.260000e-06	4.036242e-06	7.586767e-09	2.848966e+01	4.976150e+02
1.270000e-06	4.105027e-06	7.702980e-09	2.897518e+01	5.054159e+02
1.280000e-06	4.172473e-06	7.814386e-09	2.945124e+01	5.128480e+02
1.290000e-06	4.238369e-06	7.919844e-09	2.991637e+01	5.199318e+02
1.300000e-06	4.302520e-06	8.022074e-09	3.036918e+01	5.266900e+02
1.310000e-06	4.365180e-06	8.119960e-09	3.081146e+01	5.331456e+02
1.320000e-06	4.426384e-06	8.213112e-09	3.124347e+01	5.393212e+02
1.330000e-06	4.486208e-06	8.301570e-09	3.166573e+01	5.452374e+02
1.340000e-06	4.544426e-06	8.387698e-09	3.207666e+01	5.509118e+02
1.350000e-06	4.600805e-06	8.471617e-09	3.247461e+01	5.563590e+02
1.360000e-06	4.655503e-06	8.550633e-09	3.286069e+01	5.615894e+02
1.370000e-06	4.708541e-06	8.626518e-09	3.323506e+01	5.666102e+02
1.380000e-06	4.759679e-06	8.700177e-09	3.359602e+01	5.714253e+02
1.390000e-06	4.808730e-06	8.771602e-09	3.394224e+01	5.760360e+02
1.400000e-06	4.855933e-06	8.839254e-09	3.427542e+01	5.804419e+02
1.410000e-06	4.901491e-06	8.902605e-09	3.459699e+01	5.846416e+02
1.420000e-06	4.945539e-06	8.962825e-09	3.490790e+01	5.886336e+02
1.430000e-06	4.987836e-06	9.020402e-09	3.520645e+01	5.924162e+02
1.440000e-06	5.028147e-06	9.074614e-09	3.549099e+01	5.959889e+02
1.450000e-06	5.066728e-06	9.125615e-09	3.576331e+01	5.993516e+02
1.460000e-06	5.103675e-06	9.173414e-09	3.602409e+01	6.025051e+02
1.470000e-06	5.138979e-06	9.216890e-09	3.627329e+01	6.054513e+02
1.480000e-06	5.172324e-06	9.255822e-09	3.650865e+01	6.081926e+02
1.490000e-06	5.203754e-06	9.290235e-09	3.673050e+01	6.107320e+02
1.500000e-06	5.233525e-06	9.322099e-09	3.694064e+01	6.130729e+02
1.510000e-06	5.261631e-06	9.353539e-09	3.713902e+01	6.152195e+02
1.520000e-06	5.287822e-06	9.383497e-09	3.732390e+01	6.171763e+02
1.530000e-06	5.311857e-06	9.409965e-09	3.749354e+01	6.189483e+02
1.540000e-06	5.333972e-06	9.432297e-09	3.764964e+01	6.205412e+02
1.550000e-06	5.354382e-06	9.452310e-09	3.779370e+01	6.219612e+02
1.560000e-06	5.372969e-06	9.471280e-09	3.792490e+01	6.232149e+02
1.570000e-06	5.389478e-06	9.488661e-09	3.804143e+01	6.243090e+02
1.580000e-06	5.403954e-06	9.503952e-09	3.814361e+01	6.252501e+02
1.590000e-06	5.416503e-06	9.516415e-09	3.823218e+01	6.260444e+02
1.600000e-06	5.426828e-06	9.526027e-09	3.830506e+01	6.266972e+02
1.610000e-06	5.434949e-06	9.533235e-09	3.836238e+01	6.272123e+02
1.620000e-06	5.441184e-06	9.538142e-09	3.840639e+01	6.275922e+02
1.630000e-06	5.445641e-06	9.543683e-09	3.843785e+01	6.278379e+02
1.640000e-06	5.448226e-06	9.548533e-09	3.845610e+01	6.279489e+02
1.650000e-06	5.448779e-06	9.551026e-09	3.846000e+01	6.279237e+02
1.660000e-06	5.447455e-06	9.544002e-09	3.845066e+01	6.277604e+02
1.670000e-06	5.444436e-06	9.535893e-09	3.842934e+01	6.274573e+02
1.680000e-06	5.439701e-06	9.530447e-09	3.839592e+01	6.270134e+02
1.690000e-06	5.433034e-06	9.522035e-09	3.834887e+01	6.264297e+02
1.700000e-06	5.424521e-06	9.512117e-09	3.828878e+01	6.257088e+02
1.710000e-06	5.414427e-06	9.504952e-09	3.821753e+01	6.248561e+02
1.720000e-06	5.402665e-06	9.513948e-09	3.813450e+01	6.238788e+02
1.730000e-06	5.388954e-06	9.496772e-09	3.803773e+01	6.227860e+02
1.740000e-06	5.373165e-06	9.372634e-09	3.792629e+01	6.215880e+02
1.750000e-06	5.355053e-06	9.366942e-09	3.779844e+01	6.202950e+02
1.760000e-06	5.334161e-06	9.383606e-09	3.765097e+01	6.189160e+02
1.770000e-06	5.310839e-06	9.392208e-09	3.748636e+01	6.174582e+02
1.780000e-06	5.286201e-06	9.516676e-09	3.731245e+01	6.159253e+02
1.790000e-06	5.260937e-06	9.280422e-09	3.713412e+01	6.143176e+02
1.800000e-06	5.234375e-06	9.237915e-09	3.694664e+01	6.126311e+02
1.810000e-06	5.205501e-06	9.408913e-09	3.674283e+01	6.108578e+02
1.820000e-06	5.174710e-06	9.131797e-09	3.652549e+01	6.089865e+02
1.830000e-06	5.142278e-06	9.234914e-09	3.629657e+01	6.070035e+02
1.840000e-06	5.107838e-06	9.373437e-09	3.605348e+01	6.048941e+02
1.850000e-06	5.071796e-06	9.073854e-09	3.579908e+01	6.026436e+02
1.860000e-06	5.034010e-06	9.217018e-09	3.553237e+01	6.002392e+02
1.870000e-06	4.994266e-06	9.179087e-09	3.525184e+01	5.976706e+02
1.880000e-06	4.952907e-06	8.943291e-09	3.495991e+01	5.949315e+02
1.890000e-06	4.909740e-06	9.068131e-09	3.465521e+01	5.920193e+02
1.900000e-06	4.864854e-06	8.927892e-09	3.433839e+01	5.889359e+02
1.910000e-06	4.818191e-06	8.955112e-09	3.400902e+01	5.856866e+02
1.920000e-06	4.769495e-06	8.943486e-09	3.366530e+01	5.822798e+02
1.930000e-06	4.719164e-06	8.709078e-09	3.331004e+01	5.787255e+02
1.940000e-06	4.667029e-06	8.846362e-09	3.294205e+01	5.750341e+02
1.950000e-06	4.612743e-06	8.734839e-09	3.255887e+01	5.712156e+02
1.960000e-06	4.556511e-06	8.591867e-09	3.216196e+01	5.672778e+02
1.970000e-06	4.498551e-06	8.572061e-09	3.175285e+01	5.632264e+02
1.980000e-06	4.439216e-06	8.486513e-09	3.133404e+01	5.590640e+02
1.990000e-06	4.378372e-06	8.518063e-09	3.090457e+01	5.547902e+02
2.000000e-06	4.315767e-06	8.361687e-09	3.046268e+01	5.504019e+02
2.010000e-06	4.251607e-06	8.347382e-09	3.000981e+01	5.458942e+02
2.020000e-06	4.185944e-06	8.294018e-09	2.954633e+01	5.412605e+02
2.030000e-06	4.118799e-06	8.098383e-09	2.907239e+01	5.364943e+02
2.040000e-06	4.050114e-06	8.093732e-09	2.858758e+01	5.315891e+02
2.050000e-06	3.979850e-06	8.032495e-09	2.809162e+01	5.265396e+02
2.060000e-06	3.908127e-06	7.997315e-09	2.758537e+01	5.213420e+02
2.070000e-06	3.835065e-06	7.859771e-09	2.706966e+01	5.159943e+02
2.080000e-06	3.760725e-06	7.741315e-09	2.654494e+01	5.104957e+02
2.090000e-06	3.684955e-06	7.709408e-09	2.601011e+01	5.048469e+02
2.100000e-06	3.607608e-06	7.596915e-09	2.546417e+01	4.990495e+02
2.110000e-06	3.528771e-06	7.531502e-09	2.490769e+01	4.931053e+02
2.120000e-06	3.448703e-06	7.424563e-09	2.434254e+01	4.870157e+02
2.130000e-06	3.367477e-06	7.342986e-09	2.376921e+01	4.807817e+02
2.140000e-06	3.285068e-06	7.227666e-09	2.318753e+01	4.744033e+02
2.150000e-06	3.201598e-06	7.109227e-09	2.259836e+01	4.678796e+02
2.160000e-06	3.117037e-06	7.042630e-09	2.200149e+01	4.612087e+02
2.170000e-06	3.031199e-06	6.938490e-09	2.139560e+01	4.543878e+02
2.180000e-06	2.944063e-06	6.826077e-09	2.078056e+01	4.474139e+02
2.190000e-06	2.855828e-06	6.695143e-09	2.015775e+01	4.402837e+02
2.200000e-06	2.766667e-06	6.605237e-09	1.952841e+01	4.329941e+02
2.210000e-06	2.676567e-06	6.516692e-09	1.889245e+01	4.255420e+02
2.220000e-06	2.585565e-06	6.395194e-09	1.825011e+01	4.179251e+02
2.230000e-06	2.493825e-06	6.256333e-09	1.760257e+01	4.101412e+02
2.240000e-06	2.401231e-06	6.126119e-09	1.694900e+01	4.021883e+02
2.250000e-06	2.307568e-06	6.012499e-09	1.628788e+01	3.940645e+02
2.260000e-06	2.213001e-06	5.889252e-09	1.562039e+01	3.857675e+02
2.270000e-06	2.117644e-06	5.772591e-09	1.494731e+01	3.772945e+02
2.280000e-06	2.021446e-06	5.645280e-09	1.426830e+01	3.686422e+02
2.290000e-06	1.924500e-06	5.498541e-09	1.358401e+01	3.598062e+02
2.300000e-06	1.827018e-06	5.344921e-09	1.289594e+01	3.507818e+02
2.310000e-06	1.728965e-06	5.212117e-09	1.220384e+01	3.415632e+02
2.320000e-06	1.630279e-06	5.088534e-09	1.150726e+01	3.321448e+02
2.330000e-06	1.531136e-06	4.944007e-09	1.080747e+01	3.225205e+02
2.340000e-06	1.431622e-06	4.783198e-09	1.010505e+01	3.126848e+02
2.350000e-06	1.331695e-06	4.624005e-09	9.399719e+00	3.026324e+02
2.360000e-06	1.231334e-06	4.474081e-09	8.691326e+00	2.923591e+02
2.370000e-06	1.130557e-06	4.321028e-09	7.979993e+00	2.818612e+02
2.380000e-06	1.029283e-06	4.160679e-09	7.265158e+00	2.711361e+02
2.390000e-06	9.274810e-07	3.993215e-09	6.546590e+00	2.601816e+02
2.400000e-06	8.252458e-07	3.821484e-09	5.824966e+00	2.489963e+02
2.410000e-06	7.227118e-07	3.649480e-09	5.101234e+00	2.375790e+02
2.420000e-06	6.199367e-07	3.477468e-09	4.375800e+00	2.259281e+02
2.430000e-06	5.169242e-07	3.301514e-09	3.648690e+00	2.140417e+02
2.440000e-06	4.137390e-07	3.115932e-09	2.920361e+00	2.019170e+02
2.450000e-06	3.104607e-07	2.919539e-09	2.191375e+00	1.895499e+02
2.460000e-06	2.070224e-07	2.722056e-09	1.461260e+00	1.769348e+02
2.470000e-06	1.034514e-07	2.531919e-09	7.302078e-01	1.640644e+02
2.480000e-06	-9.337761e-11	2.338523e-09	-6.591023e-04	1.509291e+02
2.490000e-06	-1.036260e-07	2.133056e-09	-7.314402e-01	1.375177e+02
2.500000e-06	-2.071768e-07	1.918771e-09	-1.462350e+00	1.238167e+02
2.510000e-06	-3.106180e-07	1.701930e-09	-2.192486e+00	1.098107e+02
2.520000e-06	-4.139437e-07	1.485676e-09	-2.921806e+00	9.548313e+01
2.530000e-06	-5.171530e-07	1.266440e-09	-3.650305e+00	8.081629e+01
2.540000e-06	-6.201994e-07	1.042592e-09	-4.377654e+00	6.579262e+01
2.550000e-06	-7.230995e-07	8.094932e-10	-5.103970e+00	5.039569e+01
2.560000e-06	-8.257253e-07	5.636078e-10	-5.828351e+00	3.461159e+01
2.570000e-06	-9.278870e-07	3.126073e-10	-6.549456e+00	1.843062e+01
2.580000e-06	-1.029554e-06	6.115189e-11	-7.267071e+00	1.848945e+00
2.590000e-06	-1.130745e-06	-1.951527e-10	-7.981324e+00	-1.512953e+01
2.600000e-06	-1.231428e-06	-4.614988e-10	-8.691992e+00	-3.249156e+01
2.610000e-06	-1.331589e-06	-7.350638e-10	-9.398970e+00	-5.021316e+01
2.620000e-06	-1.431267e-06	-1.012618e-09	-1.010254e+01	-6.825870e+01
2.630000e-06	-1.530527e-06	-1.293038e-09	-1.080317e+01	-8.658058e+01
2.640000e-06	-1.629355e-06	-1.575505e-09	-1.150074e+01	-1.051196e+02
2.650000e-06	-1.727636e-06	-1.861743e-09	-1.219446e+01	-1.238060e+02
2.660000e-06	-1.825244e-06	-2.152917e-09	-1.288342e+01	-1.425618e+02
2.670000e-06	-1.922230e-06	-2.445690e-09	-1.356799e+01	-1.613027e+02
2.680000e-06	-2.018582e-06	-2.731961e-09	-1.424808e+01	-1.799418e+02
2.690000e-06	-2.114318e-06	-3.012721e-09	-1.492384e+01	-1.983928e+02
2.700000e-06	-2.209397e-06	-3.291095e-09	-1.559495e+01	-2.165736e+02
2.710000e-06	-2.303565e-06	-3.566683e-09	-1.625963e+01	-2.344092e+02
2.720000e-06	-2.396667e-06	-3.835825e-09	-1.691678e+01	-2.518348e+02
2.730000e-06	-2.488743e-06	-4.094049e-09	-1.756670e+01	-2.687979e+02
2.740000e-06	-2.579978e-06	-4.341967e-09	-1.821068e+01	-2.852593e+02
2.750000e-06	-2.670367e-06	-4.582392e-09	-1.884869e+01	-3.011931e+02
2.760000e-06	-2.759748e-06	-4.819484e-09	-1.947958e+01	-3.165866e+02
2.770000e-06	-2.848225e-06	-5.051559e-09	-2.010409e+01	-3.314381e+02
2.780000e-06	-2.935941e-06	-5.274972e-09	-2.072323e+01	-3.457552e+02
2.790000e-06	-3.022653e-06	-5.488743e-09	-2.133528e+01	-3.595518e+02
2.800000e-06	-3.108089e-06	-5.694146e-09	-2.193833e+01	-3.728454e+02
2.810000e-06	-3.192305e-06	-5.891218e-09	-2.253277e+01	-3.856550e+02
2.820000e-06	-3.275443e-06	-6.078819e-09	-2.311959e+01	-3.979984e+02
2.830000e-06	-3.357497e-06	-6.259199e-09	-2.369877e+01	-4.098906e+02
2.840000e-06	-3.438458e-06	-6.432019e-09	-2.427023e+01	-4.213433e+02
2.850000e-06	-3.518371e-06	-6.597496e-09	-2.483429e+01	-4.323643e+02
2.860000e-06	-3.596946e-06	-6.756087e-09	-2.538891e+01	-4.429586e+02
2.870000e-06	-3.673904e-06	-6.909746e-09	-2.593211e+01	-4.531284e+02
2.880000e-06	-3.749323e-06	-7.059914e-09	-2.646446e+01	-4.628756e+02
2.890000e-06	-3.823324e-06	-7.202791e-09	-2.698679e+01	-4.722023e+02
2.900000e-06	-3.896011e-06	-7.340646e-09	-2.749984e+01	-4.811128e+02
2.910000e-06	-3.967368e-06	-7.474500e-09	-2.800352e+01	-4.896144e+02
2.920000e-06	-4.037122e-06	-7.599862e-09	-2.849587e+01	-4.977181e+02
2.930000e-06	-4.105299e-06	-7.717262e-09	-2.897710e+01	-5.054387e+02
2.940000e-06	-4.172093e-06	-7.830474e-09	-2.944856e+01	-5.127948e+02
