# Temperatura_=_37.69
# Concentracion g/m^3_=_15000.0
# C_Vs_to_Am_M_A/Vsm_=_65563218390.804596
# pendiente_HvsI_1/m_=_3716.3
# ordenada_HvsI_A/m_=_1297.0
# frecuencia_Hz_=_301601.07609773544

Tiempo_(s)	Campo_(V.s)	Magnetizacion_(V.s)	Campo_(kA/m)	Magnetizacion_(A/m)
0.000000e+00	-5.428794e-06	-8.158140e-09	-3.833795e+01	-5.330564e+02
1.000000e-08	-5.426662e-06	-8.155549e-09	-3.832289e+01	-5.328734e+02
2.000000e-08	-5.422653e-06	-8.150828e-09	-3.829458e+01	-5.325875e+02
3.000000e-08	-5.416991e-06	-8.145318e-09	-3.825460e+01	-5.321959e+02
4.000000e-08	-5.409736e-06	-8.138103e-09	-3.820336e+01	-5.316965e+02
5.000000e-08	-5.400742e-06	-8.125611e-09	-3.813985e+01	-5.310895e+02
6.000000e-08	-5.389695e-06	-8.109882e-09	-3.806184e+01	-5.303770e+02
7.000000e-08	-5.376606e-06	-8.095358e-09	-3.796940e+01	-5.295646e+02
8.000000e-08	-5.361442e-06	-8.087686e-09	-3.786231e+01	-5.286603e+02
9.000000e-08	-5.344099e-06	-8.093030e-09	-3.773984e+01	-5.276746e+02
1.000000e-07	-5.324681e-06	-8.092415e-09	-3.760271e+01	-5.266192e+02
1.100000e-07	-5.303254e-06	-8.064791e-09	-3.745139e+01	-5.255059e+02
1.200000e-07	-5.280034e-06	-8.026350e-09	-3.728741e+01	-5.243449e+02
1.300000e-07	-5.255177e-06	-7.980499e-09	-3.711187e+01	-5.231439e+02
1.400000e-07	-5.228723e-06	-7.952738e-09	-3.692505e+01	-5.219061e+02
1.500000e-07	-5.200726e-06	-7.975378e-09	-3.672734e+01	-5.206304e+02
1.600000e-07	-5.171233e-06	-7.954062e-09	-3.651907e+01	-5.193102e+02
1.700000e-07	-5.140248e-06	-7.902761e-09	-3.630024e+01	-5.179344e+02
1.800000e-07	-5.107298e-06	-7.896513e-09	-3.606755e+01	-5.164880e+02
1.900000e-07	-5.072305e-06	-7.849008e-09	-3.582044e+01	-5.149537e+02
2.000000e-07	-5.035722e-06	-7.822510e-09	-3.556209e+01	-5.133134e+02
2.100000e-07	-4.997485e-06	-7.841299e-09	-3.529206e+01	-5.115498e+02
2.200000e-07	-4.957345e-06	-7.781239e-09	-3.500860e+01	-5.096489e+02
2.300000e-07	-4.915264e-06	-7.734420e-09	-3.471142e+01	-5.076004e+02
2.400000e-07	-4.871329e-06	-7.722905e-09	-3.440115e+01	-5.053993e+02
2.500000e-07	-4.825618e-06	-7.667420e-09	-3.407835e+01	-5.030459e+02
2.600000e-07	-4.777997e-06	-7.634779e-09	-3.374204e+01	-5.005455e+02
2.700000e-07	-4.728208e-06	-7.602616e-09	-3.339044e+01	-4.979074e+02
2.800000e-07	-4.676313e-06	-7.535994e-09	-3.302395e+01	-4.951439e+02
2.900000e-07	-4.622564e-06	-7.478945e-09	-3.264438e+01	-4.922682e+02
3.000000e-07	-4.567193e-06	-7.446837e-09	-3.225336e+01	-4.892931e+02
3.100000e-07	-4.510158e-06	-7.426239e-09	-3.185058e+01	-4.862293e+02
3.200000e-07	-4.451284e-06	-7.386098e-09	-3.143481e+01	-4.830841e+02
3.300000e-07	-4.390760e-06	-7.329482e-09	-3.100739e+01	-4.798609e+02
3.400000e-07	-4.328761e-06	-7.267437e-09	-3.056956e+01	-4.765588e+02
3.500000e-07	-4.265382e-06	-7.211895e-09	-3.012198e+01	-4.731731e+02
3.600000e-07	-4.200511e-06	-7.172300e-09	-2.966386e+01	-4.696960e+02
3.700000e-07	-4.133923e-06	-7.117325e-09	-2.919361e+01	-4.661175e+02
3.800000e-07	-4.065785e-06	-7.056033e-09	-2.871243e+01	-4.624271e+02
3.900000e-07	-3.996266e-06	-6.997048e-09	-2.822149e+01	-4.586149e+02
4.000000e-07	-3.925455e-06	-6.928452e-09	-2.772142e+01	-4.546724e+02
4.100000e-07	-3.853380e-06	-6.872492e-09	-2.721243e+01	-4.505936e+02
4.200000e-07	-3.779785e-06	-6.815986e-09	-2.669271e+01	-4.463752e+02
4.300000e-07	-3.704575e-06	-6.747128e-09	-2.616158e+01	-4.420168e+02
4.400000e-07	-3.627902e-06	-6.669632e-09	-2.562011e+01	-4.375201e+02
4.500000e-07	-3.549701e-06	-6.595764e-09	-2.506786e+01	-4.328884e+02
4.600000e-07	-3.469995e-06	-6.532460e-09	-2.450498e+01	-4.281256e+02
4.700000e-07	-3.389050e-06	-6.466751e-09	-2.393335e+01	-4.232358e+02
4.800000e-07	-3.306981e-06	-6.391735e-09	-2.335378e+01	-4.182217e+02
4.900000e-07	-3.223869e-06	-6.309108e-09	-2.276685e+01	-4.130846e+02
5.000000e-07	-3.139705e-06	-6.224677e-09	-2.217249e+01	-4.078239e+02
5.100000e-07	-3.054482e-06	-6.138055e-09	-2.157064e+01	-4.024371e+02
5.200000e-07	-2.968296e-06	-6.052428e-09	-2.096200e+01	-3.969202e+02
5.300000e-07	-2.881212e-06	-5.970236e-09	-2.034701e+01	-3.912679e+02
5.400000e-07	-2.793118e-06	-5.882111e-09	-1.972490e+01	-3.854744e+02
5.500000e-07	-2.703847e-06	-5.783803e-09	-1.909447e+01	-3.795342e+02
5.600000e-07	-2.613495e-06	-5.687397e-09	-1.845641e+01	-3.734422e+02
5.700000e-07	-2.522176e-06	-5.599963e-09	-1.781151e+01	-3.671945e+02
5.800000e-07	-2.429923e-06	-5.509069e-09	-1.716003e+01	-3.607884e+02
5.900000e-07	-2.336830e-06	-5.404505e-09	-1.650261e+01	-3.542225e+02
6.000000e-07	-2.242925e-06	-5.295980e-09	-1.583946e+01	-3.474962e+02
6.100000e-07	-2.148269e-06	-5.189694e-09	-1.517100e+01	-3.406099e+02
6.200000e-07	-2.052931e-06	-5.084259e-09	-1.449772e+01	-3.335639e+02
6.300000e-07	-1.956798e-06	-4.975932e-09	-1.381884e+01	-3.263582e+02
6.400000e-07	-1.859757e-06	-4.862583e-09	-1.313354e+01	-3.189923e+02
6.500000e-07	-1.761861e-06	-4.746355e-09	-1.244220e+01	-3.114644e+02
6.600000e-07	-1.663287e-06	-4.624488e-09	-1.174607e+01	-3.037718e+02
6.700000e-07	-1.564174e-06	-4.501604e-09	-1.104614e+01	-2.959103e+02
6.800000e-07	-1.464556e-06	-4.380453e-09	-1.034264e+01	-2.878751e+02
6.900000e-07	-1.364449e-06	-4.255460e-09	-9.635691e+00	-2.796602e+02
7.000000e-07	-1.263918e-06	-4.124960e-09	-8.925743e+00	-2.712594e+02
7.100000e-07	-1.163026e-06	-3.992603e-09	-8.213249e+00	-2.626662e+02
7.200000e-07	-1.061760e-06	-3.859563e-09	-7.498110e+00	-2.538741e+02
7.300000e-07	-9.601240e-07	-3.722967e-09	-6.780362e+00	-2.448773e+02
7.400000e-07	-8.581736e-07	-3.581312e-09	-6.060391e+00	-2.356700e+02
7.500000e-07	-7.559004e-07	-3.433640e-09	-5.338141e+00	-2.262473e+02
7.600000e-07	-6.533448e-07	-3.280925e-09	-4.613898e+00	-2.166047e+02
7.700000e-07	-5.506262e-07	-3.127329e-09	-3.888502e+00	-2.067379e+02
7.800000e-07	-4.478238e-07	-2.974986e-09	-3.162515e+00	-1.966431e+02
7.900000e-07	-3.449376e-07	-2.820787e-09	-2.435937e+00	-1.863167e+02
8.000000e-07	-2.419458e-07	-2.658804e-09	-1.708613e+00	-1.757549e+02
8.100000e-07	-1.388907e-07	-2.488930e-09	-9.808412e-01	-1.649537e+02
8.200000e-07	-3.579490e-08	-2.316149e-09	-2.527823e-01	-1.539087e+02
8.300000e-07	6.740042e-08	-2.142954e-09	4.759794e-01	-1.426149e+02
8.400000e-07	1.706595e-07	-1.967798e-09	1.205191e+00	-1.310667e+02
8.500000e-07	2.738442e-07	-1.786838e-09	1.933878e+00	-1.192572e+02
8.600000e-07	3.769750e-07	-1.600972e-09	2.662184e+00	-1.071788e+02
8.700000e-07	4.800297e-07	-1.411685e-09	3.389953e+00	-9.482234e+01
8.800000e-07	5.829368e-07	-1.218311e-09	4.116679e+00	-8.217801e+01
8.900000e-07	6.856717e-07	-1.021376e-09	4.842189e+00	-6.923507e+01
9.000000e-07	7.881785e-07	-8.211222e-10	5.566089e+00	-5.598263e+01
9.100000e-07	8.904881e-07	-6.160093e-10	6.288595e+00	-4.241041e+01
9.200000e-07	9.925015e-07	-4.062426e-10	7.009010e+00	-2.850985e+01
9.300000e-07	1.094114e-06	-1.922751e-10	7.726597e+00	-1.427548e+01
9.400000e-07	1.195331e-06	2.756452e-11	8.441382e+00	2.935848e-01
9.500000e-07	1.296135e-06	2.531245e-10	9.153260e+00	1.519203e+01
9.600000e-07	1.396552e-06	4.844763e-10	9.862400e+00	3.040686e+01
9.700000e-07	1.496536e-06	7.221371e-10	1.056848e+01	4.591610e+01
9.800000e-07	1.596012e-06	9.634409e-10	1.127098e+01	6.168800e+01
9.900000e-07	1.694901e-06	1.205891e-09	1.196933e+01	7.768075e+01
1.000000e-06	1.793018e-06	1.450260e-09	1.266223e+01	9.384286e+01
1.010000e-06	1.890214e-06	1.697650e-09	1.334863e+01	1.101143e+02
1.020000e-06	1.986573e-06	1.947757e-09	1.402911e+01	1.264281e+02
1.030000e-06	2.082128e-06	2.197040e-09	1.470391e+01	1.427132e+02
1.040000e-06	2.176952e-06	2.443247e-09	1.537356e+01	1.588967e+02
1.050000e-06	2.271096e-06	2.684148e-09	1.603840e+01	1.749071e+02
1.060000e-06	2.364458e-06	2.921396e-09	1.669772e+01	1.906771e+02
1.070000e-06	2.457046e-06	3.156136e-09	1.735157e+01	2.061466e+02
1.080000e-06	2.548893e-06	3.386476e-09	1.800019e+01	2.212640e+02
1.090000e-06	2.639978e-06	3.609747e-09	1.864343e+01	2.359883e+02
1.100000e-06	2.729976e-06	3.825052e-09	1.927900e+01	2.502891e+02
1.110000e-06	2.818709e-06	4.033537e-09	1.990562e+01	2.641464e+02
1.120000e-06	2.906411e-06	4.234421e-09	2.052497e+01	2.775494e+02
1.130000e-06	2.993224e-06	4.430767e-09	2.113804e+01	2.904951e+02
1.140000e-06	3.079121e-06	4.622489e-09	2.174465e+01	3.029862e+02
1.150000e-06	3.163985e-06	4.805762e-09	2.234395e+01	3.150285e+02
1.160000e-06	3.247856e-06	4.981887e-09	2.293625e+01	3.266295e+02
1.170000e-06	3.330756e-06	5.152906e-09	2.352168e+01	3.377966e+02
1.180000e-06	3.412438e-06	5.317440e-09	2.409851e+01	3.485358e+02
1.190000e-06	3.492848e-06	5.474502e-09	2.466637e+01	3.588515e+02
1.200000e-06	3.571995e-06	5.622950e-09	2.522530e+01	3.687466e+02
1.210000e-06	3.649858e-06	5.764677e-09	2.577517e+01	3.782230e+02
1.220000e-06	3.726419e-06	5.901074e-09	2.631584e+01	3.872832e+02
1.230000e-06	3.801514e-06	6.031956e-09	2.684616e+01	3.959308e+02
1.240000e-06	3.874962e-06	6.156823e-09	2.736484e+01	4.041722e+02
1.250000e-06	3.946876e-06	6.275695e-09	2.787270e+01	4.120172e+02
1.260000e-06	4.017403e-06	6.388998e-09	2.837076e+01	4.194797e+02
1.270000e-06	4.086503e-06	6.495910e-09	2.885874e+01	4.265776e+02
1.280000e-06	4.154287e-06	6.596160e-09	2.933743e+01	4.333320e+02
1.290000e-06	4.220595e-06	6.691242e-09	2.980569e+01	4.397664e+02
1.300000e-06	4.285152e-06	6.782961e-09	3.026159e+01	4.459049e+02
1.310000e-06	4.348111e-06	6.870966e-09	3.070621e+01	4.517714e+02
1.320000e-06	4.409628e-06	6.955108e-09	3.114063e+01	4.573870e+02
1.330000e-06	4.469736e-06	7.037026e-09	3.156512e+01	4.627699e+02
1.340000e-06	4.528385e-06	7.117390e-09	3.197930e+01	4.679335e+02
1.350000e-06	4.585238e-06	7.195281e-09	3.238079e+01	4.728868e+02
1.360000e-06	4.640285e-06	7.267757e-09	3.276953e+01	4.776342e+02
1.370000e-06	4.693720e-06	7.334871e-09	3.314689e+01	4.821762e+02
1.380000e-06	4.745330e-06	7.399323e-09	3.351135e+01	4.865107e+02
1.390000e-06	4.794822e-06	7.462294e-09	3.386086e+01	4.906340e+02
1.400000e-06	4.842363e-06	7.522601e-09	3.419660e+01	4.945423e+02
1.410000e-06	4.888259e-06	7.577146e-09	3.452071e+01	4.982329e+02
1.420000e-06	4.932600e-06	7.626692e-09	3.483384e+01	5.017051e+02
1.430000e-06	4.975284e-06	7.673578e-09	3.513528e+01	5.049607e+02
1.440000e-06	5.016057e-06	7.719978e-09	3.542322e+01	5.080041e+02
1.450000e-06	5.055027e-06	7.764288e-09	3.569842e+01	5.108420e+02
1.460000e-06	5.092356e-06	7.803964e-09	3.596203e+01	5.134829e+02
1.470000e-06	5.128068e-06	7.839328e-09	3.621424e+01	5.159360e+02
1.480000e-06	5.161947e-06	7.871899e-09	3.645348e+01	5.182106e+02
1.490000e-06	5.193846e-06	7.902041e-09	3.667876e+01	5.203152e+02
1.500000e-06	5.223963e-06	7.929110e-09	3.689144e+01	5.222570e+02
1.510000e-06	5.252401e-06	7.954486e-09	3.709227e+01	5.240415e+02
1.520000e-06	5.278988e-06	7.978406e-09	3.728003e+01	5.256727e+02
1.530000e-06	5.303470e-06	7.999214e-09	3.745292e+01	5.271536e+02
1.540000e-06	5.325971e-06	8.016893e-09	3.761182e+01	5.284863e+02
1.550000e-06	5.346729e-06	8.033799e-09	3.775841e+01	5.296730e+02
1.560000e-06	5.365749e-06	8.049591e-09	3.789273e+01	5.307165e+02
1.570000e-06	5.382805e-06	8.062159e-09	3.801318e+01	5.316204e+02
1.580000e-06	5.397820e-06	8.072490e-09	3.811921e+01	5.323898e+02
1.590000e-06	5.410882e-06	8.083668e-09	3.821146e+01	5.330307e+02
1.600000e-06	5.421777e-06	8.094475e-09	3.828840e+01	5.335498e+02
1.610000e-06	5.430397e-06	8.102425e-09	3.834927e+01	5.339541e+02
1.620000e-06	5.437043e-06	8.107348e-09	3.839621e+01	5.342500e+02
1.630000e-06	5.441943e-06	8.111182e-09	3.843080e+01	5.344427e+02
1.640000e-06	5.445018e-06	8.113744e-09	3.845253e+01	5.345356e+02
1.650000e-06	5.446077e-06	8.113104e-09	3.846000e+01	5.345302e+02
1.660000e-06	5.445195e-06	8.110455e-09	3.845377e+01	5.344259e+02
1.670000e-06	5.442608e-06	8.105597e-09	3.843550e+01	5.342209e+02
1.680000e-06	5.438345e-06	8.100017e-09	3.840540e+01	5.339123e+02
1.690000e-06	5.432222e-06	8.093690e-09	3.836216e+01	5.334974e+02
1.700000e-06	5.424234e-06	8.086812e-09	3.830575e+01	5.329746e+02
1.710000e-06	5.414596e-06	8.080332e-09	3.823768e+01	5.323444e+02
1.720000e-06	5.403277e-06	8.073510e-09	3.815775e+01	5.316097e+02
1.730000e-06	5.389982e-06	8.057517e-09	3.806386e+01	5.307766e+02
1.740000e-06	5.374613e-06	8.027850e-09	3.795532e+01	5.298537e+02
1.750000e-06	5.357060e-06	7.992933e-09	3.783137e+01	5.288518e+02
1.760000e-06	5.336913e-06	7.987044e-09	3.768909e+01	5.277827e+02
1.770000e-06	5.314257e-06	7.995536e-09	3.752909e+01	5.266581e+02
1.780000e-06	5.289998e-06	8.001844e-09	3.735778e+01	5.254878e+02
1.790000e-06	5.264949e-06	7.975043e-09	3.718088e+01	5.242784e+02
1.800000e-06	5.238743e-06	7.906709e-09	3.699582e+01	5.230326e+02
1.810000e-06	5.210375e-06	7.899372e-09	3.679548e+01	5.217477e+02
1.820000e-06	5.179950e-06	7.903209e-09	3.658063e+01	5.204164e+02
1.830000e-06	5.147952e-06	7.876497e-09	3.635465e+01	5.190266e+02
1.840000e-06	5.114046e-06	7.890806e-09	3.611521e+01	5.175627e+02
1.850000e-06	5.078413e-06	7.875097e-09	3.586357e+01	5.160069e+02
1.860000e-06	5.041164e-06	7.834269e-09	3.560052e+01	5.143412e+02
1.870000e-06	5.001992e-06	7.836378e-09	3.532389e+01	5.125491e+02
1.880000e-06	4.961076e-06	7.788362e-09	3.503494e+01	5.106169e+02
1.890000e-06	4.918350e-06	7.753995e-09	3.473321e+01	5.085357e+02
1.900000e-06	4.873850e-06	7.756091e-09	3.441896e+01	5.063015e+02
1.910000e-06	4.827665e-06	7.691164e-09	3.409280e+01	5.039158e+02
1.920000e-06	4.779482e-06	7.649134e-09	3.375253e+01	5.013847e+02
1.930000e-06	4.729506e-06	7.621516e-09	3.339960e+01	4.987183e+02
1.940000e-06	4.677811e-06	7.592112e-09	3.303454e+01	4.959294e+02
1.950000e-06	4.624055e-06	7.563699e-09	3.265491e+01	4.930311e+02
1.960000e-06	4.568354e-06	7.473950e-09	3.226156e+01	4.900359e+02
1.970000e-06	4.510886e-06	7.417480e-09	3.185571e+01	4.869539e+02
1.980000e-06	4.451928e-06	7.387236e-09	3.143936e+01	4.837916e+02
1.990000e-06	4.391472e-06	7.345012e-09	3.101242e+01	4.805514e+02
2.000000e-06	4.329268e-06	7.307328e-09	3.057313e+01	4.772317e+02
2.010000e-06	4.265451e-06	7.242431e-09	3.012246e+01	4.738269e+02
2.020000e-06	4.200132e-06	7.197108e-09	2.966118e+01	4.703286e+02
2.030000e-06	4.133400e-06	7.126173e-09	2.918992e+01	4.667268e+02
2.040000e-06	4.065181e-06	7.056551e-09	2.870817e+01	4.630108e+02
2.050000e-06	3.995391e-06	7.027844e-09	2.821531e+01	4.591710e+02
2.060000e-06	3.924152e-06	6.956408e-09	2.771222e+01	4.551995e+02
2.070000e-06	3.851524e-06	6.883900e-09	2.719933e+01	4.510907e+02
2.080000e-06	3.777587e-06	6.816604e-09	2.667718e+01	4.468420e+02
2.090000e-06	3.702286e-06	6.762900e-09	2.614541e+01	4.424535e+02
2.100000e-06	3.625451e-06	6.709020e-09	2.560281e+01	4.379272e+02
2.110000e-06	3.547043e-06	6.623138e-09	2.504909e+01	4.332668e+02
2.120000e-06	3.467227e-06	6.550966e-09	2.448543e+01	4.284763e+02
2.130000e-06	3.386239e-06	6.470436e-09	2.391350e+01	4.235594e+02
2.140000e-06	3.304190e-06	6.387107e-09	2.333407e+01	4.185186e+02
2.150000e-06	3.221095e-06	6.311284e-09	2.274726e+01	4.133548e+02
2.160000e-06	3.136857e-06	6.240552e-09	2.215237e+01	4.080671e+02
2.170000e-06	3.051338e-06	6.164071e-09	2.154844e+01	4.026526e+02
2.180000e-06	2.964555e-06	6.065104e-09	2.093558e+01	3.971069e+02
2.190000e-06	2.876661e-06	5.976674e-09	2.031487e+01	3.914245e+02
2.200000e-06	2.787755e-06	5.899709e-09	1.968703e+01	3.855998e+02
2.210000e-06	2.697923e-06	5.816925e-09	1.905263e+01	3.796272e+02
2.220000e-06	2.607223e-06	5.718016e-09	1.841212e+01	3.735019e+02
2.230000e-06	2.515660e-06	5.614777e-09	1.776550e+01	3.672201e+02
2.240000e-06	2.423228e-06	5.515201e-09	1.711275e+01	3.607796e+02
2.250000e-06	2.329838e-06	5.413083e-09	1.645323e+01	3.541790e+02
2.260000e-06	2.235561e-06	5.312474e-09	1.578745e+01	3.474182e+02
2.270000e-06	2.140442e-06	5.211313e-09	1.511573e+01	3.404974e+02
2.280000e-06	2.044417e-06	5.106542e-09	1.443760e+01	3.334169e+02
2.290000e-06	1.947593e-06	4.993184e-09	1.375383e+01	3.261767e+02
2.300000e-06	1.850145e-06	4.881006e-09	1.306566e+01	3.187760e+02
2.310000e-06	1.752206e-06	4.773338e-09	1.237402e+01	3.112128e+02
2.320000e-06	1.653762e-06	4.657690e-09	1.167881e+01	3.034841e+02
2.330000e-06	1.554794e-06	4.528913e-09	1.097990e+01	2.955856e+02
2.340000e-06	1.455401e-06	4.398799e-09	1.027799e+01	2.875121e+02
2.350000e-06	1.355581e-06	4.274699e-09	9.573066e+00	2.792577e+02
2.360000e-06	1.255307e-06	4.150708e-09	8.864937e+00	2.708159e+02
2.370000e-06	1.154679e-06	4.024043e-09	8.154302e+00	2.621803e+02
2.380000e-06	1.053638e-06	3.889130e-09	7.440757e+00	2.533446e+02
2.390000e-06	9.521253e-07	3.748583e-09	6.723875e+00	2.443029e+02
2.400000e-06	8.501928e-07	3.607865e-09	6.004032e+00	2.350496e+02
2.410000e-06	7.478493e-07	3.468134e-09	5.281285e+00	2.255798e+02
2.420000e-06	6.452041e-07	3.326119e-09	4.556408e+00	2.158892e+02
2.430000e-06	5.423761e-07	3.176025e-09	3.830241e+00	2.059736e+02
2.440000e-06	4.393912e-07	3.019391e-09	3.102965e+00	1.958293e+02
2.450000e-06	3.362313e-07	2.859990e-09	2.374453e+00	1.854525e+02
2.460000e-06	2.329287e-07	2.699899e-09	1.644934e+00	1.748394e+02
2.470000e-06	1.294352e-07	2.540429e-09	9.140667e-01	1.639861e+02
2.480000e-06	2.577360e-08	2.375363e-09	1.820122e-01	1.528880e+02
2.490000e-06	-7.786662e-08	2.199915e-09	-5.498913e-01	1.415399e+02
2.500000e-06	-1.814675e-07	2.019765e-09	-1.281517e+00	1.299360e+02
2.510000e-06	-2.850175e-07	1.841322e-09	-2.012783e+00	1.180694e+02
2.520000e-06	-3.884458e-07	1.661678e-09	-2.743190e+00	1.059319e+02
2.530000e-06	-4.917223e-07	1.474735e-09	-3.472525e+00	9.351435e+01
2.540000e-06	-5.948002e-07	1.280637e-09	-4.200458e+00	8.080669e+01
2.550000e-06	-6.976592e-07	1.081181e-09	-4.926845e+00	6.779807e+01
2.560000e-06	-8.001929e-07	8.750676e-10	-5.650934e+00	5.447766e+01
2.570000e-06	-9.023116e-07	6.630377e-10	-6.372092e+00	4.083545e+01
2.580000e-06	-1.004006e-06	4.475978e-10	-7.090255e+00	2.686342e+01
2.590000e-06	-1.105270e-06	2.279329e-10	-7.805381e+00	1.255695e+01
2.600000e-06	-1.206091e-06	3.142017e-12	-8.517369e+00	-2.083654e+00
2.610000e-06	-1.306394e-06	-2.255547e-10	-9.225705e+00	-1.705155e+01
2.620000e-06	-1.406157e-06	-4.591401e-10	-9.930231e+00	-3.233190e+01
2.630000e-06	-1.505422e-06	-6.958512e-10	-1.063124e+01	-4.790071e+01
2.640000e-06	-1.604260e-06	-9.368535e-10	-1.132923e+01	-6.372406e+01
2.650000e-06	-1.702607e-06	-1.183201e-09	-1.202375e+01	-7.975802e+01
2.660000e-06	-1.800310e-06	-1.432369e-09	-1.271372e+01	-9.594914e+01
2.670000e-06	-1.897371e-06	-1.681908e-09	-1.339917e+01	-1.122357e+02
2.680000e-06	-1.993874e-06	-1.928952e-09	-1.408067e+01	-1.285498e+02
2.690000e-06	-2.089815e-06	-2.174639e-09	-1.475820e+01	-1.448195e+02
2.700000e-06	-2.185077e-06	-2.419908e-09	-1.543094e+01	-1.609721e+02
2.710000e-06	-2.279411e-06	-2.664007e-09	-1.609712e+01	-1.769367e+02
2.720000e-06	-2.372705e-06	-2.904540e-09	-1.675596e+01	-1.926474e+02
2.730000e-06	-2.465025e-06	-3.140755e-09	-1.740792e+01	-2.080457e+02
2.740000e-06	-2.556401e-06	-3.372698e-09	-1.805322e+01	-2.230822e+02
2.750000e-06	-2.646840e-06	-3.599718e-09	-1.869189e+01	-2.377182e+02
2.760000e-06	-2.736331e-06	-3.820783e-09	-1.932387e+01	-2.519256e+02
2.770000e-06	-2.824976e-06	-4.035109e-09	-1.994988e+01	-2.656864e+02
2.780000e-06	-2.912844e-06	-4.239744e-09	-2.057040e+01	-2.789917e+02
2.790000e-06	-2.999745e-06	-4.433521e-09	-2.118409e+01	-2.918399e+02
2.800000e-06	-3.085443e-06	-4.620619e-09	-2.178929e+01	-3.042345e+02
2.810000e-06	-3.169911e-06	-4.803599e-09	-2.238580e+01	-3.161819e+02
2.820000e-06	-3.253300e-06	-4.979881e-09	-2.297469e+01	-3.276896e+02
2.830000e-06	-3.335658e-06	-5.149326e-09	-2.355629e+01	-3.387648e+02
2.840000e-06	-3.416922e-06	-5.311041e-09	-2.413018e+01	-3.494132e+02
2.850000e-06	-3.497095e-06	-5.466335e-09	-2.469636e+01	-3.596389e+02
2.860000e-06	-3.575938e-06	-5.616565e-09	-2.525315e+01	-3.694443e+02
2.870000e-06	-3.653201e-06	-5.761134e-09	-2.579878e+01	-3.788317e+02
2.880000e-06	-3.728954e-06	-5.899050e-09	-2.633374e+01	-3.878033e+02
2.890000e-06	-3.803282e-06	-6.029424e-09	-2.685864e+01	-3.963634e+02
2.900000e-06	-3.876213e-06	-6.155668e-09	-2.737368e+01	-4.045192e+02
2.910000e-06	-3.947914e-06	-6.278714e-09	-2.788003e+01	-4.122812e+02
2.920000e-06	-4.018200e-06	-6.396570e-09	-2.837638e+01	-4.196643e+02
2.930000e-06	-4.086837e-06	-6.507812e-09	-2.886109e+01	-4.266870e+02
2.940000e-06	-4.154014e-06	-6.611436e-09	-2.933550e+01	-4.333710e+02
