# Temperatura_=_35.03
# Concentracion g/m^3_=_15000.0
# C_Vs_to_Am_M_A/Vsm_=_65563218390.804596
# pendiente_HvsI_1/m_=_3716.3
# ordenada_HvsI_A/m_=_1297.0
# frecuencia_Hz_=_301606.5494385998

Tiempo_(s)	Campo_(V.s)	Magnetizacion_(V.s)	Campo_(kA/m)	Magnetizacion_(A/m)
0.000000e+00	-5.430101e-06	-8.173126e-09	-3.833321e+01	-5.339738e+02
1.000000e-08	-5.427391e-06	-8.172752e-09	-3.831408e+01	-5.337663e+02
2.000000e-08	-5.422861e-06	-8.166886e-09	-3.828209e+01	-5.334550e+02
3.000000e-08	-5.416725e-06	-8.163240e-09	-3.823878e+01	-5.330409e+02
4.000000e-08	-5.409056e-06	-8.155017e-09	-3.818464e+01	-5.325254e+02
5.000000e-08	-5.399538e-06	-8.140232e-09	-3.811745e+01	-5.319116e+02
6.000000e-08	-5.387887e-06	-8.120103e-09	-3.803520e+01	-5.312036e+02
7.000000e-08	-5.374287e-06	-8.084897e-09	-3.793919e+01	-5.304073e+02
8.000000e-08	-5.358579e-06	-8.109399e-09	-3.782830e+01	-5.295292e+02
9.000000e-08	-5.340618e-06	-8.178357e-09	-3.770151e+01	-5.285767e+02
1.000000e-07	-5.320611e-06	-8.127823e-09	-3.756027e+01	-5.275570e+02
1.100000e-07	-5.298684e-06	-8.072631e-09	-3.740548e+01	-5.264758e+02
1.200000e-07	-5.274978e-06	-8.024033e-09	-3.723813e+01	-5.253375e+02
1.300000e-07	-5.249715e-06	-7.848507e-09	-3.705979e+01	-5.241434e+02
1.400000e-07	-5.222888e-06	-7.997139e-09	-3.687041e+01	-5.228920e+02
1.500000e-07	-5.194399e-06	-8.097217e-09	-3.666929e+01	-5.215786e+02
1.600000e-07	-5.164414e-06	-7.851233e-09	-3.645762e+01	-5.201954e+02
1.700000e-07	-5.132832e-06	-8.002478e-09	-3.623467e+01	-5.187321e+02
1.800000e-07	-5.099183e-06	-7.951788e-09	-3.599713e+01	-5.171770e+02
1.900000e-07	-5.063679e-06	-7.706577e-09	-3.574649e+01	-5.155179e+02
2.000000e-07	-5.026625e-06	-7.901123e-09	-3.548491e+01	-5.137433e+02
2.100000e-07	-4.987816e-06	-7.832100e-09	-3.521095e+01	-5.118437e+02
2.200000e-07	-4.947163e-06	-7.690592e-09	-3.492396e+01	-5.098121e+02
2.300000e-07	-4.904517e-06	-7.791025e-09	-3.462290e+01	-5.076449e+02
2.400000e-07	-4.859975e-06	-7.705784e-09	-3.430846e+01	-5.053421e+02
2.500000e-07	-4.813676e-06	-7.666398e-09	-3.398162e+01	-5.029070e+02
2.600000e-07	-4.765380e-06	-7.642289e-09	-3.364068e+01	-5.003456e+02
2.700000e-07	-4.714981e-06	-7.561524e-09	-3.328489e+01	-4.976659e+02
2.800000e-07	-4.662518e-06	-7.550517e-09	-3.291454e+01	-4.948766e+02
2.900000e-07	-4.608227e-06	-7.480938e-09	-3.253128e+01	-4.919860e+02
3.000000e-07	-4.552334e-06	-7.425474e-09	-3.213671e+01	-4.890011e+02
3.100000e-07	-4.494727e-06	-7.416084e-09	-3.173004e+01	-4.859267e+02
3.200000e-07	-4.435318e-06	-7.406904e-09	-3.131064e+01	-4.827648e+02
3.300000e-07	-4.374313e-06	-7.313876e-09	-3.087998e+01	-4.795147e+02
3.400000e-07	-4.311904e-06	-7.215196e-09	-3.043942e+01	-4.761730e+02
3.500000e-07	-4.248091e-06	-7.221869e-09	-2.998893e+01	-4.727342e+02
3.600000e-07	-4.182671e-06	-7.157235e-09	-2.952711e+01	-4.691913e+02
3.700000e-07	-4.115540e-06	-7.085351e-09	-2.905321e+01	-4.655370e+02
3.800000e-07	-4.046871e-06	-7.059942e-09	-2.856844e+01	-4.617642e+02
3.900000e-07	-3.976880e-06	-6.978623e-09	-2.807435e+01	-4.578670e+02
4.000000e-07	-3.905664e-06	-6.892511e-09	-2.757161e+01	-4.538410e+02
4.100000e-07	-3.833112e-06	-6.821169e-09	-2.705943e+01	-4.496836e+02
4.200000e-07	-3.759023e-06	-6.797478e-09	-2.653641e+01	-4.453942e+02
4.300000e-07	-3.683356e-06	-6.741383e-09	-2.600225e+01	-4.409736e+02
4.400000e-07	-3.606219e-06	-6.651940e-09	-2.545771e+01	-4.364237e+02
4.500000e-07	-3.527623e-06	-6.574026e-09	-2.490287e+01	-4.317468e+02
4.600000e-07	-3.447592e-06	-6.503884e-09	-2.433790e+01	-4.269453e+02
4.700000e-07	-3.366262e-06	-6.439965e-09	-2.376376e+01	-4.220207e+02
4.800000e-07	-3.283823e-06	-6.350755e-09	-2.318179e+01	-4.169734e+02
4.900000e-07	-3.200338e-06	-6.273936e-09	-2.259244e+01	-4.118028e+02
5.000000e-07	-3.115779e-06	-6.194973e-09	-2.199550e+01	-4.065068e+02
5.100000e-07	-3.030252e-06	-6.099451e-09	-2.139173e+01	-4.010822e+02
5.200000e-07	-2.943854e-06	-6.011656e-09	-2.078182e+01	-3.955253e+02
5.300000e-07	-2.856466e-06	-5.935964e-09	-2.016491e+01	-3.898317e+02
5.400000e-07	-2.768027e-06	-5.851810e-09	-1.954059e+01	-3.839973e+02
5.500000e-07	-2.678590e-06	-5.751849e-09	-1.890921e+01	-3.780182e+02
5.600000e-07	-2.588025e-06	-5.649829e-09	-1.826988e+01	-3.718913e+02
5.700000e-07	-2.496351e-06	-5.558280e-09	-1.762272e+01	-3.656140e+02
5.800000e-07	-2.403829e-06	-5.471086e-09	-1.696957e+01	-3.591847e+02
5.900000e-07	-2.310498e-06	-5.369815e-09	-1.631071e+01	-3.526018e+02
6.000000e-07	-2.216330e-06	-5.257707e-09	-1.564594e+01	-3.458645e+02
6.100000e-07	-2.121414e-06	-5.148352e-09	-1.497589e+01	-3.389715e+02
6.200000e-07	-2.025685e-06	-5.042599e-09	-1.430010e+01	-3.319213e+02
6.300000e-07	-1.929143e-06	-4.936583e-09	-1.361857e+01	-3.247116e+02
6.400000e-07	-1.831861e-06	-4.832739e-09	-1.293182e+01	-3.173396e+02
6.500000e-07	-1.733809e-06	-4.720519e-09	-1.223964e+01	-3.098016e+02
6.600000e-07	-1.635017e-06	-4.592999e-09	-1.154223e+01	-3.020929e+02
6.700000e-07	-1.535603e-06	-4.461896e-09	-1.084042e+01	-2.942086e+02
6.800000e-07	-1.435679e-06	-4.340633e-09	-1.013502e+01	-2.861432e+02
6.900000e-07	-1.335346e-06	-4.223302e-09	-9.426728e+00	-2.778908e+02
7.000000e-07	-1.234664e-06	-4.096409e-09	-8.715979e+00	-2.694459e+02
7.100000e-07	-1.133645e-06	-3.960957e-09	-8.002840e+00	-2.608029e+02
7.200000e-07	-1.032298e-06	-3.821953e-09	-7.287394e+00	-2.519565e+02
7.300000e-07	-9.305731e-07	-3.684012e-09	-6.569279e+00	-2.429017e+02
7.400000e-07	-8.285080e-07	-3.544425e-09	-5.848762e+00	-2.336336e+02
7.500000e-07	-7.262083e-07	-3.401349e-09	-5.126588e+00	-2.241476e+02
7.600000e-07	-6.236876e-07	-3.250552e-09	-4.402854e+00	-2.144393e+02
7.700000e-07	-5.209577e-07	-3.091804e-09	-3.677644e+00	-2.045041e+02
7.800000e-07	-4.180581e-07	-2.933109e-09	-2.951235e+00	-1.943374e+02
7.900000e-07	-3.150568e-07	-2.775149e-09	-2.224109e+00	-1.839346e+02
8.000000e-07	-2.119775e-07	-2.614185e-09	-1.496432e+00	-1.732909e+02
8.100000e-07	-1.088233e-07	-2.445878e-09	-7.682260e-01	-1.624015e+02
8.200000e-07	-5.591948e-09	-2.272394e-09	-3.947575e-02	-1.512612e+02
8.300000e-07	9.768664e-08	-2.097052e-09	6.896082e-01	-1.398648e+02
8.400000e-07	2.009382e-07	-1.921442e-09	1.418501e+00	-1.282064e+02
8.500000e-07	3.040980e-07	-1.741689e-09	2.146747e+00	-1.162798e+02
8.600000e-07	4.071668e-07	-1.555604e-09	2.874350e+00	-1.040781e+02
8.700000e-07	5.101675e-07	-1.363347e-09	3.601472e+00	-9.159373e+01
8.800000e-07	6.130817e-07	-1.166841e-09	4.327983e+00	-7.881833e+01
8.900000e-07	7.158464e-07	-9.682047e-10	5.053439e+00	-6.574332e+01
9.000000e-07	8.184279e-07	-7.664191e-10	5.777603e+00	-5.236014e+01
9.100000e-07	9.207725e-07	-5.625694e-10	6.500093e+00	-3.866105e+01
9.200000e-07	1.022730e-06	-3.524524e-10	7.219848e+00	-2.464021e+01
9.300000e-07	1.124235e-06	-1.350159e-10	7.936413e+00	-1.029488e+01
9.400000e-07	1.225331e-06	8.867820e-11	8.650094e+00	4.373093e+00
9.500000e-07	1.326084e-06	3.143935e-10	9.361347e+00	1.935584e+01
9.600000e-07	1.426452e-06	5.431087e-10	1.006988e+01	3.463807e+01
9.700000e-07	1.526300e-06	7.797069e-10	1.077475e+01	5.019596e+01
9.800000e-07	1.625550e-06	1.022450e-09	1.147539e+01	6.599644e+01
9.900000e-07	1.724152e-06	1.269798e-09	1.217146e+01	8.199705e+01
1.000000e-06	1.822027e-06	1.516655e-09	1.286240e+01	9.814642e+01
1.010000e-06	1.919075e-06	1.762846e-09	1.354750e+01	1.143854e+02
1.020000e-06	2.015232e-06	2.007742e-09	1.422631e+01	1.306489e+02
1.030000e-06	2.110579e-06	2.253191e-09	1.489940e+01	1.468679e+02
1.040000e-06	2.205244e-06	2.499824e-09	1.556768e+01	1.629726e+02
1.050000e-06	2.299178e-06	2.741756e-09	1.623080e+01	1.788946e+02
1.060000e-06	2.392304e-06	2.977656e-09	1.688821e+01	1.945700e+02
1.070000e-06	2.484717e-06	3.208605e-09	1.754059e+01	2.099415e+02
1.080000e-06	2.576362e-06	3.438691e-09	1.818755e+01	2.249605e+02
1.090000e-06	2.667054e-06	3.664695e-09	1.882778e+01	2.395876e+02
1.100000e-06	2.756670e-06	3.880619e-09	1.946041e+01	2.537937e+02
1.110000e-06	2.845139e-06	4.087295e-09	2.008495e+01	2.675592e+02
1.120000e-06	2.932582e-06	4.286245e-09	2.070224e+01	2.808731e+02
1.130000e-06	3.019165e-06	4.481450e-09	2.131347e+01	2.937314e+02
1.140000e-06	3.104796e-06	4.672400e-09	2.191797e+01	3.061352e+02
1.150000e-06	3.189398e-06	4.855340e-09	2.251521e+01	3.180892e+02
1.160000e-06	3.273030e-06	5.029437e-09	2.310560e+01	3.295995e+02
1.170000e-06	3.355602e-06	5.195912e-09	2.368850e+01	3.406723e+02
1.180000e-06	3.436918e-06	5.357000e-09	2.426254e+01	3.513135e+02
1.190000e-06	3.516897e-06	5.514187e-09	2.482715e+01	3.615275e+02
1.200000e-06	3.595646e-06	5.665142e-09	2.538307e+01	3.713180e+02
1.210000e-06	3.673186e-06	5.809482e-09	2.593046e+01	3.806883e+02
1.220000e-06	3.749436e-06	5.944688e-09	2.646873e+01	3.896425e+02
1.230000e-06	3.824137e-06	6.072126e-09	2.699608e+01	3.981861e+02
1.240000e-06	3.897116e-06	6.195480e-09	2.751126e+01	4.063272e+02
1.250000e-06	3.968557e-06	6.312771e-09	2.801560e+01	4.140770e+02
1.260000e-06	4.038599e-06	6.423327e-09	2.851005e+01	4.214503e+02
1.270000e-06	4.107307e-06	6.528885e-09	2.899509e+01	4.284653e+02
1.280000e-06	4.174694e-06	6.630112e-09	2.947080e+01	4.351431e+02
1.290000e-06	4.240453e-06	6.725686e-09	2.993502e+01	4.415064e+02
1.300000e-06	4.304509e-06	6.817333e-09	3.038721e+01	4.475786e+02
1.310000e-06	4.367106e-06	6.905546e-09	3.082911e+01	4.533824e+02
1.320000e-06	4.428287e-06	6.990888e-09	3.126101e+01	4.589381e+02
1.330000e-06	4.488086e-06	7.072977e-09	3.168315e+01	4.642630e+02
1.340000e-06	4.546278e-06	7.151928e-09	3.209395e+01	4.693705e+02
1.350000e-06	4.602565e-06	7.227992e-09	3.249130e+01	4.742695e+02
1.360000e-06	4.657128e-06	7.298635e-09	3.287648e+01	4.789652e+02
1.370000e-06	4.710115e-06	7.363591e-09	3.325054e+01	4.834588e+02
1.380000e-06	4.761195e-06	7.426191e-09	3.361114e+01	4.877491e+02
1.390000e-06	4.810158e-06	7.488006e-09	3.395679e+01	4.918333e+02
1.400000e-06	4.857286e-06	7.548374e-09	3.428948e+01	4.957082e+02
1.410000e-06	4.902787e-06	7.603949e-09	3.461069e+01	4.993712e+02
1.420000e-06	4.946794e-06	7.654289e-09	3.492135e+01	5.028211e+02
1.430000e-06	4.989033e-06	7.702183e-09	3.521953e+01	5.060589e+02
1.440000e-06	5.029267e-06	7.748377e-09	3.550356e+01	5.090878e+02
1.450000e-06	5.067783e-06	7.792843e-09	3.577546e+01	5.119128e+02
1.460000e-06	5.104708e-06	7.833285e-09	3.603613e+01	5.145410e+02
1.470000e-06	5.139952e-06	7.868741e-09	3.628493e+01	5.169803e+02
1.480000e-06	5.173221e-06	7.900074e-09	3.651979e+01	5.192392e+02
1.490000e-06	5.204556e-06	7.927726e-09	3.674100e+01	5.213259e+02
1.500000e-06	5.234190e-06	7.953276e-09	3.695019e+01	5.232482e+02
1.510000e-06	5.262143e-06	7.977983e-09	3.714752e+01	5.250125e+02
1.520000e-06	5.288152e-06	8.001417e-09	3.733113e+01	5.266244e+02
1.530000e-06	5.312048e-06	8.022441e-09	3.749982e+01	5.280885e+02
1.540000e-06	5.334053e-06	8.041849e-09	3.765517e+01	5.294086e+02
1.550000e-06	5.354351e-06	8.059313e-09	3.779846e+01	5.305881e+02
1.560000e-06	5.372890e-06	8.075342e-09	3.792933e+01	5.316303e+02
1.570000e-06	5.389402e-06	8.089245e-09	3.804589e+01	5.325387e+02
1.580000e-06	5.403853e-06	8.100030e-09	3.814791e+01	5.333172e+02
1.590000e-06	5.416312e-06	8.109662e-09	3.823586e+01	5.339700e+02
1.600000e-06	5.426523e-06	8.119180e-09	3.830795e+01	5.345013e+02
1.610000e-06	5.434536e-06	8.127886e-09	3.836451e+01	5.349157e+02
1.620000e-06	5.440681e-06	8.133562e-09	3.840789e+01	5.352169e+02
1.630000e-06	5.445095e-06	8.137221e-09	3.843906e+01	5.354084e+02
1.640000e-06	5.447621e-06	8.140625e-09	3.845689e+01	5.354927e+02
1.650000e-06	5.448062e-06	8.144027e-09	3.846000e+01	5.354713e+02
1.660000e-06	5.446602e-06	8.138217e-09	3.844969e+01	5.353454e+02
1.670000e-06	5.443537e-06	8.132681e-09	3.842805e+01	5.351153e+02
1.680000e-06	5.438751e-06	8.128714e-09	3.839427e+01	5.347816e+02
1.690000e-06	5.431958e-06	8.122025e-09	3.834632e+01	5.343452e+02
1.700000e-06	5.423393e-06	8.116863e-09	3.828585e+01	5.338081e+02
1.710000e-06	5.413309e-06	8.114742e-09	3.821467e+01	5.331733e+02
1.720000e-06	5.401482e-06	8.132314e-09	3.813117e+01	5.324456e+02
1.730000e-06	5.387664e-06	8.111170e-09	3.803363e+01	5.316308e+02
1.740000e-06	5.371781e-06	7.984158e-09	3.792150e+01	5.307359e+02
1.750000e-06	5.353513e-06	7.989270e-09	3.779254e+01	5.297681e+02
1.760000e-06	5.332512e-06	8.009727e-09	3.764429e+01	5.287343e+02
1.770000e-06	5.309194e-06	8.045942e-09	3.747967e+01	5.276404e+02
1.780000e-06	5.284582e-06	8.187185e-09	3.730593e+01	5.264897e+02
1.790000e-06	5.259277e-06	7.919746e-09	3.712729e+01	5.252833e+02
1.800000e-06	5.232542e-06	7.894658e-09	3.693856e+01	5.240188e+02
1.810000e-06	5.203439e-06	8.071008e-09	3.673311e+01	5.226909e+02
1.820000e-06	5.172509e-06	7.785582e-09	3.651476e+01	5.212911e+02
1.830000e-06	5.139981e-06	7.942092e-09	3.628513e+01	5.198088e+02
1.840000e-06	5.105576e-06	8.067672e-09	3.604226e+01	5.182321e+02
1.850000e-06	5.069596e-06	7.734015e-09	3.578826e+01	5.165489e+02
1.860000e-06	5.031743e-06	7.910475e-09	3.552104e+01	5.147479e+02
1.870000e-06	4.991955e-06	7.887523e-09	3.524016e+01	5.128201e+02
1.880000e-06	4.950549e-06	7.674360e-09	3.494786e+01	5.107593e+02
1.890000e-06	4.907291e-06	7.816856e-09	3.464249e+01	5.085626e+02
1.900000e-06	4.862306e-06	7.671539e-09	3.432492e+01	5.062308e+02
1.910000e-06	4.815521e-06	7.719427e-09	3.399465e+01	5.037677e+02
1.920000e-06	4.766726e-06	7.698379e-09	3.365018e+01	5.011799e+02
1.930000e-06	4.716317e-06	7.480650e-09	3.329432e+01	4.984757e+02
1.940000e-06	4.664067e-06	7.652393e-09	3.292547e+01	4.956637e+02
1.950000e-06	4.609677e-06	7.551249e-09	3.254151e+01	4.927520e+02
1.960000e-06	4.553393e-06	7.421858e-09	3.214418e+01	4.897473e+02
1.970000e-06	4.495404e-06	7.404414e-09	3.173481e+01	4.866537e+02
1.980000e-06	4.435999e-06	7.353083e-09	3.131545e+01	4.834728e+02
1.990000e-06	4.375043e-06	7.394723e-09	3.088514e+01	4.802031e+02
2.000000e-06	4.312346e-06	7.223239e-09	3.044253e+01	4.768408e+02
2.010000e-06	4.248088e-06	7.241630e-09	2.998891e+01	4.733799e+02
2.020000e-06	4.182382e-06	7.213737e-09	2.952507e+01	4.698135e+02
2.030000e-06	4.115269e-06	7.036817e-09	2.905129e+01	4.661340e+02
2.040000e-06	4.046549e-06	7.052765e-09	2.856617e+01	4.623347e+02
2.050000e-06	3.976272e-06	7.011522e-09	2.807005e+01	4.584099e+02
2.060000e-06	3.904617e-06	6.985437e-09	2.756422e+01	4.543556e+02
2.070000e-06	3.831616e-06	6.845471e-09	2.704888e+01	4.501696e+02
2.080000e-06	3.757271e-06	6.752759e-09	2.652404e+01	4.458516e+02
2.090000e-06	3.681403e-06	6.751563e-09	2.598847e+01	4.414028e+02
2.100000e-06	3.603979e-06	6.662698e-09	2.544189e+01	4.368251e+02
2.110000e-06	3.525052e-06	6.605487e-09	2.488472e+01	4.321211e+02
2.120000e-06	3.444889e-06	6.517426e-09	2.431882e+01	4.272927e+02
2.130000e-06	3.363620e-06	6.465550e-09	2.374511e+01	4.223415e+02
2.140000e-06	3.281181e-06	6.360444e-09	2.316314e+01	4.172676e+02
2.150000e-06	3.197660e-06	6.262032e-09	2.257354e+01	4.120700e+02
2.160000e-06	3.112995e-06	6.221222e-09	2.197585e+01	4.067464e+02
2.170000e-06	3.027211e-06	6.137350e-09	2.137027e+01	4.012935e+02
2.180000e-06	2.940211e-06	6.041428e-09	2.075610e+01	3.957073e+02
2.190000e-06	2.852020e-06	5.931569e-09	2.013352e+01	3.899836e+02
2.200000e-06	2.762858e-06	5.867700e-09	1.950409e+01	3.841181e+02
2.210000e-06	2.672776e-06	5.796139e-09	1.886817e+01	3.781073e+02
2.220000e-06	2.581793e-06	5.691633e-09	1.822588e+01	3.719480e+02
2.230000e-06	2.489909e-06	5.580434e-09	1.757724e+01	3.656380e+02
2.240000e-06	2.397143e-06	5.481509e-09	1.692237e+01	3.591755e+02
2.250000e-06	2.303489e-06	5.388576e-09	1.626123e+01	3.525593e+02
2.260000e-06	2.208981e-06	5.282011e-09	1.559406e+01	3.457884e+02
2.270000e-06	2.113535e-06	5.184974e-09	1.492027e+01	3.388615e+02
2.280000e-06	2.017234e-06	5.077839e-09	1.424044e+01	3.317770e+02
2.290000e-06	1.920271e-06	4.957803e-09	1.355594e+01	3.245325e+02
2.300000e-06	1.822688e-06	4.835880e-09	1.286707e+01	3.171250e+02
2.310000e-06	1.724546e-06	4.731417e-09	1.217425e+01	3.095504e+02
2.320000e-06	1.625901e-06	4.628724e-09	1.147787e+01	3.018043e+02
2.330000e-06	1.526787e-06	4.502391e-09	1.077819e+01	2.938813e+02
2.340000e-06	1.427211e-06	4.364109e-09	1.007524e+01	2.857760e+02
2.350000e-06	1.327159e-06	4.230704e-09	9.368932e+00	2.774825e+02
2.360000e-06	1.226626e-06	4.106776e-09	8.659230e+00	2.689953e+02
2.370000e-06	1.125695e-06	3.981901e-09	7.946722e+00	2.603088e+02
2.380000e-06	1.024407e-06	3.850865e-09	7.231692e+00	2.514178e+02
2.390000e-06	9.227005e-07	3.712978e-09	6.513704e+00	2.423174e+02
2.400000e-06	8.206070e-07	3.568887e-09	5.792985e+00	2.330026e+02
2.410000e-06	7.182157e-07	3.421689e-09	5.070166e+00	2.234691e+02
2.420000e-06	6.155450e-07	3.276064e-09	4.345372e+00	2.137122e+02
2.430000e-06	5.126336e-07	3.130084e-09	3.618881e+00	2.037274e+02
2.440000e-06	4.095654e-07	2.978120e-09	2.891282e+00	1.935102e+02
2.450000e-06	3.063460e-07	2.815648e-09	2.162616e+00	1.830559e+02
2.460000e-06	2.028879e-07	2.650427e-09	1.432265e+00	1.723596e+02
2.470000e-06	9.928251e-08	2.490387e-09	7.008741e-01	1.614166e+02
2.480000e-06	-4.297297e-09	2.324776e-09	-3.033630e-02	1.502216e+02
2.490000e-06	-1.078688e-07	2.147051e-09	-7.614878e-01	1.387692e+02
2.500000e-06	-2.114249e-07	1.964948e-09	-1.492531e+00	1.270536e+02
2.510000e-06	-3.149329e-07	1.785698e-09	-2.223234e+00	1.150683e+02
2.520000e-06	-4.183900e-07	1.604115e-09	-2.953579e+00	1.028064e+02
2.530000e-06	-5.216917e-07	1.414528e-09	-3.682826e+00	9.025998e+01
2.540000e-06	-6.247122e-07	1.219317e-09	-4.410088e+00	7.742080e+01
2.550000e-06	-7.274039e-07	1.016026e-09	-5.135029e+00	6.428013e+01
2.560000e-06	-8.298373e-07	8.013938e-10	-5.858146e+00	5.082953e+01
2.570000e-06	-9.319653e-07	5.840327e-10	-6.579107e+00	3.706158e+01
2.580000e-06	-1.033695e-06	3.704258e-10	-7.297260e+00	2.297098e+01
2.590000e-06	-1.134994e-06	1.541670e-10	-8.012364e+00	8.555848e+00
2.600000e-06	-1.235805e-06	-7.079933e-11	-8.724031e+00	-6.180800e+00
2.610000e-06	-1.336091e-06	-3.031880e-10	-9.431991e+00	-2.122961e+01
2.620000e-06	-1.435806e-06	-5.400695e-10	-1.013592e+01	-3.657355e+01
2.630000e-06	-1.534995e-06	-7.797249e-10	-1.083613e+01	-5.218685e+01
2.640000e-06	-1.633737e-06	-1.020552e-09	-1.153319e+01	-6.803443e+01
2.650000e-06	-1.731965e-06	-1.263662e-09	-1.222662e+01	-8.407185e+01
2.660000e-06	-1.829516e-06	-1.511023e-09	-1.291527e+01	-1.002460e+02
2.670000e-06	-1.926405e-06	-1.761096e-09	-1.359925e+01	-1.164962e+02
2.680000e-06	-2.022736e-06	-2.008898e-09	-1.427929e+01	-1.327563e+02
2.690000e-06	-2.118453e-06	-2.253838e-09	-1.495499e+01	-1.489570e+02
2.700000e-06	-2.213378e-06	-2.497938e-09	-1.562510e+01	-1.650285e+02
2.710000e-06	-2.307397e-06	-2.741196e-09	-1.628881e+01	-1.809032e+02
2.720000e-06	-2.400495e-06	-2.980775e-09	-1.694603e+01	-1.965184e+02
2.730000e-06	-2.492581e-06	-3.214472e-09	-1.759610e+01	-2.118185e+02
2.740000e-06	-2.583714e-06	-3.443874e-09	-1.823945e+01	-2.267568e+02
2.750000e-06	-2.673983e-06	-3.668684e-09	-1.887669e+01	-2.412961e+02
2.760000e-06	-2.763334e-06	-3.888794e-09	-1.950745e+01	-2.554095e+02
2.770000e-06	-2.851811e-06	-4.102253e-09	-2.013205e+01	-2.690792e+02
2.780000e-06	-2.939455e-06	-4.305678e-09	-2.075076e+01	-2.822959e+02
2.790000e-06	-3.026091e-06	-4.498133e-09	-2.136236e+01	-2.950569e+02
2.800000e-06	-3.111463e-06	-4.683131e-09	-2.196503e+01	-3.073642e+02
2.810000e-06	-3.195592e-06	-4.862754e-09	-2.255894e+01	-3.192229e+02
2.820000e-06	-3.278672e-06	-5.036940e-09	-2.314543e+01	-3.306392e+02
2.830000e-06	-3.360715e-06	-5.205778e-09	-2.372460e+01	-3.416194e+02
2.840000e-06	-3.441676e-06	-5.367055e-09	-2.429614e+01	-3.521690e+02
2.850000e-06	-3.521495e-06	-5.520091e-09	-2.485961e+01	-3.622923e+02
2.860000e-06	-3.599881e-06	-5.666734e-09	-2.541297e+01	-3.719928e+02
2.870000e-06	-3.676690e-06	-5.810015e-09	-2.595519e+01	-3.812740e+02
2.880000e-06	-3.752064e-06	-5.947412e-09	-2.648728e+01	-3.901400e+02
2.890000e-06	-3.826067e-06	-6.076486e-09	-2.700970e+01	-3.985968e+02
2.900000e-06	-3.898700e-06	-6.200632e-09	-2.752245e+01	-4.066533e+02
2.910000e-06	-3.970025e-06	-6.322014e-09	-2.802596e+01	-4.143214e+02
2.920000e-06	-4.039852e-06	-6.436662e-09	-2.851890e+01	-4.216166e+02
2.930000e-06	-4.108045e-06	-6.542618e-09	-2.900029e+01	-4.285578e+02
2.940000e-06	-4.174747e-06	-6.643359e-09	-2.947117e+01	-4.351666e+02
