# Temperatura_=_38.94
# Concentracion g/m^3_=_15000.0
# C_Vs_to_Am_M_A/Vsm_=_65563218390.804596
# pendiente_HvsI_1/m_=_3716.3
# ordenada_HvsI_A/m_=_1297.0
# frecuencia_Hz_=_301595.3953581944

Tiempo_(s)	Campo_(V.s)	Magnetizacion_(V.s)	Campo_(kA/m)	Magnetizacion_(A/m)
0.000000e+00	-5.397619e-06	-8.180559e-09	-3.834107e+01	-5.342506e+02
1.000000e-08	-5.395255e-06	-8.178997e-09	-3.832428e+01	-5.340811e+02
2.000000e-08	-5.391048e-06	-8.173261e-09	-3.829439e+01	-5.338062e+02
3.000000e-08	-5.385194e-06	-8.166803e-09	-3.825281e+01	-5.334256e+02
4.000000e-08	-5.377817e-06	-8.158755e-09	-3.820041e+01	-5.329403e+02
5.000000e-08	-5.368725e-06	-8.146525e-09	-3.813582e+01	-5.323524e+02
6.000000e-08	-5.357536e-06	-8.131489e-09	-3.805635e+01	-5.316656e+02
7.000000e-08	-5.344365e-06	-8.114190e-09	-3.796279e+01	-5.308855e+02
8.000000e-08	-5.329206e-06	-8.107407e-09	-3.785511e+01	-5.300188e+02
9.000000e-08	-5.311829e-06	-8.135960e-09	-3.773168e+01	-5.290733e+02
1.000000e-07	-5.292340e-06	-8.130225e-09	-3.759324e+01	-5.280569e+02
1.100000e-07	-5.270944e-06	-8.085055e-09	-3.744126e+01	-5.269771e+02
1.200000e-07	-5.247761e-06	-8.043744e-09	-3.727658e+01	-5.258397e+02
1.300000e-07	-5.222976e-06	-7.961726e-09	-3.710052e+01	-5.246482e+02
1.400000e-07	-5.196597e-06	-7.965740e-09	-3.691315e+01	-5.234032e+02
1.500000e-07	-5.168601e-06	-8.037294e-09	-3.671428e+01	-5.221019e+02
1.600000e-07	-5.139103e-06	-7.949758e-09	-3.650474e+01	-5.207384e+02
1.700000e-07	-5.108108e-06	-7.944184e-09	-3.628458e+01	-5.193036e+02
1.800000e-07	-5.075109e-06	-7.960676e-09	-3.605018e+01	-5.177861e+02
1.900000e-07	-5.040115e-06	-7.825108e-09	-3.580160e+01	-5.161733e+02
2.000000e-07	-5.003639e-06	-7.844686e-09	-3.554250e+01	-5.144521e+02
2.100000e-07	-4.965457e-06	-7.847113e-09	-3.527128e+01	-5.126104e+02
2.200000e-07	-4.925402e-06	-7.723475e-09	-3.498676e+01	-5.106381e+02
2.300000e-07	-4.883440e-06	-7.737995e-09	-3.468869e+01	-5.085276e+02
2.400000e-07	-4.839626e-06	-7.756503e-09	-3.437746e+01	-5.062750e+02
2.500000e-07	-4.794053e-06	-7.698003e-09	-3.405374e+01	-5.038796e+02
2.600000e-07	-4.746549e-06	-7.657154e-09	-3.371630e+01	-5.013441e+02
2.700000e-07	-4.696954e-06	-7.585147e-09	-3.336402e+01	-4.986742e+02
2.800000e-07	-4.645205e-06	-7.537277e-09	-3.299642e+01	-4.958772e+02
2.900000e-07	-4.591533e-06	-7.502470e-09	-3.261517e+01	-4.929617e+02
3.000000e-07	-4.536302e-06	-7.473445e-09	-3.222285e+01	-4.899362e+02
3.100000e-07	-4.479464e-06	-7.443348e-09	-3.181911e+01	-4.868083e+02
3.200000e-07	-4.420782e-06	-7.383758e-09	-3.140227e+01	-4.835837e+02
3.300000e-07	-4.360443e-06	-7.319854e-09	-3.097366e+01	-4.802658e+02
3.400000e-07	-4.298652e-06	-7.253902e-09	-3.053475e+01	-4.768559e+02
3.500000e-07	-4.235505e-06	-7.223826e-09	-3.008619e+01	-4.733525e+02
3.600000e-07	-4.170867e-06	-7.180025e-09	-2.962704e+01	-4.697522e+02
3.700000e-07	-4.104536e-06	-7.097443e-09	-2.915588e+01	-4.660502e+02
3.800000e-07	-4.036658e-06	-7.043671e-09	-2.867372e+01	-4.622407e+02
3.900000e-07	-3.967415e-06	-6.989992e-09	-2.818186e+01	-4.583180e+02
4.000000e-07	-3.896943e-06	-6.918224e-09	-2.768127e+01	-4.542769e+02
4.100000e-07	-3.825205e-06	-6.850437e-09	-2.717169e+01	-4.501129e+02
4.200000e-07	-3.752019e-06	-6.790610e-09	-2.665183e+01	-4.458231e+02
4.300000e-07	-3.677259e-06	-6.728636e-09	-2.612079e+01	-4.414057e+02
4.400000e-07	-3.600955e-06	-6.656977e-09	-2.557877e+01	-4.368604e+02
4.500000e-07	-3.523200e-06	-6.594147e-09	-2.502645e+01	-4.321873e+02
4.600000e-07	-3.443989e-06	-6.528392e-09	-2.446379e+01	-4.273875e+02
4.700000e-07	-3.363429e-06	-6.446420e-09	-2.389155e+01	-4.224617e+02
4.800000e-07	-3.281699e-06	-6.355525e-09	-2.331099e+01	-4.174105e+02
4.900000e-07	-3.198856e-06	-6.275798e-09	-2.272253e+01	-4.122335e+02
5.000000e-07	-3.115004e-06	-6.208439e-09	-2.212690e+01	-4.069294e+02
5.100000e-07	-3.030222e-06	-6.126074e-09	-2.152467e+01	-4.014961e+02
5.200000e-07	-2.944476e-06	-6.033828e-09	-2.091559e+01	-3.959304e+02
5.300000e-07	-2.857736e-06	-5.940971e-09	-2.029944e+01	-3.902284e+02
5.400000e-07	-2.770056e-06	-5.848375e-09	-1.967662e+01	-3.843859e+02
5.500000e-07	-2.681406e-06	-5.758350e-09	-1.904691e+01	-3.783987e+02
5.600000e-07	-2.591581e-06	-5.667395e-09	-1.840886e+01	-3.722628e+02
5.700000e-07	-2.500641e-06	-5.574375e-09	-1.776288e+01	-3.659749e+02
5.800000e-07	-2.408793e-06	-5.472753e-09	-1.711045e+01	-3.595326e+02
5.900000e-07	-2.316138e-06	-5.368804e-09	-1.645229e+01	-3.529341e+02
6.000000e-07	-2.222737e-06	-5.266903e-09	-1.578883e+01	-3.461786e+02
6.100000e-07	-2.128593e-06	-5.162439e-09	-1.512010e+01	-3.392657e+02
6.200000e-07	-2.033716e-06	-5.053818e-09	-1.444616e+01	-3.321956e+02
6.300000e-07	-1.938136e-06	-4.941944e-09	-1.376722e+01	-3.249682e+02
6.400000e-07	-1.841844e-06	-4.830481e-09	-1.308323e+01	-3.175834e+02
6.500000e-07	-1.744810e-06	-4.718147e-09	-1.239396e+01	-3.100402e+02
6.600000e-07	-1.646999e-06	-4.599003e-09	-1.169918e+01	-3.023367e+02
6.700000e-07	-1.548388e-06	-4.471665e-09	-1.099871e+01	-2.944698e+02
6.800000e-07	-1.449160e-06	-4.343993e-09	-1.029386e+01	-2.864353e+02
6.900000e-07	-1.349504e-06	-4.218496e-09	-9.585971e+00	-2.782274e+02
7.000000e-07	-1.249476e-06	-4.094166e-09	-8.875440e+00	-2.698396e+02
7.100000e-07	-1.149110e-06	-3.968339e-09	-8.162511e+00	-2.612640e+02
7.200000e-07	-1.048420e-06	-3.834982e-09	-7.447275e+00	-2.524925e+02
7.300000e-07	-9.474214e-07	-3.694960e-09	-6.729847e+00	-2.435164e+02
7.400000e-07	-8.461263e-07	-3.551914e-09	-6.010315e+00	-2.343271e+02
7.500000e-07	-7.445209e-07	-3.405755e-09	-5.288578e+00	-2.249167e+02
7.600000e-07	-6.425917e-07	-3.256389e-09	-4.564541e+00	-2.152778e+02
7.700000e-07	-5.404273e-07	-3.103880e-09	-3.838834e+00	-2.054043e+02
7.800000e-07	-4.381045e-07	-2.948952e-09	-3.112001e+00	-1.952908e+02
7.900000e-07	-3.356436e-07	-2.791516e-09	-2.384187e+00	-1.849336e+02
8.000000e-07	-2.330580e-07	-2.629251e-09	-1.655488e+00	-1.743295e+02
8.100000e-07	-1.304133e-07	-2.463136e-09	-9.263691e-01	-1.634763e+02
8.200000e-07	-2.772147e-08	-2.293817e-09	-1.969147e-01	-1.523721e+02
8.300000e-07	7.500352e-08	-2.120915e-09	5.327748e-01	-1.410144e+02
8.400000e-07	1.776972e-07	-1.943259e-09	1.262242e+00	-1.294003e+02
8.500000e-07	2.803273e-07	-1.759180e-09	1.991257e+00	-1.175254e+02
8.600000e-07	3.828912e-07	-1.571845e-09	2.719802e+00	-1.053836e+02
8.700000e-07	4.853961e-07	-1.381557e-09	3.447929e+00	-9.296691e+01
8.800000e-07	5.877564e-07	-1.187351e-09	4.175028e+00	-8.026548e+01
8.900000e-07	6.899519e-07	-9.905293e-10	4.900956e+00	-6.726809e+01
9.000000e-07	7.919757e-07	-7.907821e-10	5.625665e+00	-5.396285e+01
9.100000e-07	8.936898e-07	-5.872698e-10	6.348174e+00	-4.033835e+01
9.200000e-07	9.950158e-07	-3.782457e-10	7.067925e+00	-2.638511e+01
9.300000e-07	1.095979e-06	-1.626238e-10	7.785098e+00	-1.209718e+01
9.400000e-07	1.196624e-06	6.026094e-11	8.500015e+00	2.526037e+00
9.500000e-07	1.296978e-06	2.875269e-10	9.212860e+00	1.747817e+01
9.600000e-07	1.396919e-06	5.185106e-10	9.922779e+00	3.274440e+01
9.700000e-07	1.496343e-06	7.552666e-10	1.062902e+01	4.830039e+01
9.800000e-07	1.595181e-06	9.963257e-10	1.133110e+01	6.411173e+01
9.900000e-07	1.693296e-06	1.239374e-09	1.202804e+01	8.013410e+01
1.000000e-06	1.790591e-06	1.483839e-09	1.271916e+01	9.631399e+01
1.010000e-06	1.887114e-06	1.731613e-09	1.340479e+01	1.125902e+02
1.020000e-06	1.982860e-06	1.981659e-09	1.408491e+01	1.288957e+02
1.030000e-06	2.077816e-06	2.231211e-09	1.475941e+01	1.451603e+02
1.040000e-06	2.172069e-06	2.478283e-09	1.542893e+01	1.613134e+02
1.050000e-06	2.265572e-06	2.720571e-09	1.609311e+01	1.772864e+02
1.060000e-06	2.358332e-06	2.959131e-09	1.675201e+01	1.930158e+02
1.070000e-06	2.450464e-06	3.191883e-09	1.740645e+01	2.084446e+02
1.080000e-06	2.541826e-06	3.419949e-09	1.805543e+01	2.235248e+02
1.090000e-06	2.632144e-06	3.643555e-09	1.869699e+01	2.382177e+02
1.100000e-06	2.721359e-06	3.860300e-09	1.933071e+01	2.524942e+02
1.110000e-06	2.809517e-06	4.069004e-09	1.995693e+01	2.663345e+02
1.120000e-06	2.896688e-06	4.270217e-09	2.057613e+01	2.797267e+02
1.130000e-06	2.982936e-06	4.466443e-09	2.118878e+01	2.926659e+02
1.140000e-06	3.068210e-06	4.658362e-09	2.179451e+01	3.051518e+02
1.150000e-06	3.152547e-06	4.843141e-09	2.239359e+01	3.171875e+02
1.160000e-06	3.235938e-06	5.019709e-09	2.298594e+01	3.287775e+02
1.170000e-06	3.318186e-06	5.189937e-09	2.357017e+01	3.399268e+02
1.180000e-06	3.399199e-06	5.353775e-09	2.414563e+01	3.506403e+02
1.190000e-06	3.478971e-06	5.509836e-09	2.471228e+01	3.609218e+02
1.200000e-06	3.557490e-06	5.657414e-09	2.527002e+01	3.707748e+02
1.210000e-06	3.634730e-06	5.800047e-09	2.581868e+01	3.802031e+02
1.220000e-06	3.710679e-06	5.937805e-09	2.635818e+01	3.892108e+02
1.230000e-06	3.785182e-06	6.069440e-09	2.688740e+01	3.978042e+02
1.240000e-06	3.858093e-06	6.193619e-09	2.740531e+01	4.059919e+02
1.250000e-06	3.929494e-06	6.311333e-09	2.791249e+01	4.137853e+02
1.260000e-06	3.999495e-06	6.423451e-09	2.840974e+01	4.211996e+02
1.270000e-06	4.068151e-06	6.528778e-09	2.889742e+01	4.282525e+02
1.280000e-06	4.135412e-06	6.627748e-09	2.937519e+01	4.349648e+02
1.290000e-06	4.201040e-06	6.721873e-09	2.984137e+01	4.413585e+02
1.300000e-06	4.265035e-06	6.813314e-09	3.029595e+01	4.474564e+02
1.310000e-06	4.327611e-06	6.902557e-09	3.074045e+01	4.532805e+02
1.320000e-06	4.388776e-06	6.988703e-09	3.117493e+01	4.588509e+02
1.330000e-06	4.448538e-06	7.072623e-09	3.159944e+01	4.641850e+02
1.340000e-06	4.506710e-06	7.152828e-09	3.201265e+01	4.692964e+02
1.350000e-06	4.563030e-06	7.228163e-09	3.241271e+01	4.741950e+02
1.360000e-06	4.617632e-06	7.297384e-09	3.280057e+01	4.788871e+02
1.370000e-06	4.670642e-06	7.361797e-09	3.317711e+01	4.833754e+02
1.380000e-06	4.721739e-06	7.423914e-09	3.354007e+01	4.876602e+02
1.390000e-06	4.770734e-06	7.484583e-09	3.388810e+01	4.917400e+02
1.400000e-06	4.817903e-06	7.542920e-09	3.422316e+01	4.956127e+02
1.410000e-06	4.863465e-06	7.596775e-09	3.454680e+01	4.992766e+02
1.420000e-06	4.907498e-06	7.647254e-09	3.485958e+01	5.027307e+02
1.430000e-06	4.949804e-06	7.695569e-09	3.516010e+01	5.059759e+02
1.440000e-06	4.990146e-06	7.742299e-09	3.544665e+01	5.090146e+02
1.450000e-06	5.028718e-06	7.785803e-09	3.572064e+01	5.118511e+02
1.460000e-06	5.065698e-06	7.824237e-09	3.598333e+01	5.144913e+02
1.470000e-06	5.101058e-06	7.858475e-09	3.623450e+01	5.169419e+02
1.480000e-06	5.134505e-06	7.890580e-09	3.647208e+01	5.192107e+02
1.490000e-06	5.166010e-06	7.919740e-09	3.669587e+01	5.213052e+02
1.500000e-06	5.195822e-06	7.944572e-09	3.690764e+01	5.232328e+02
1.510000e-06	5.223982e-06	7.968500e-09	3.710767e+01	5.250003e+02
1.520000e-06	5.250280e-06	7.991788e-09	3.729447e+01	5.266138e+02
1.530000e-06	5.274501e-06	8.013436e-09	3.746652e+01	5.280789e+02
1.540000e-06	5.296788e-06	8.032928e-09	3.762484e+01	5.294004e+02
1.550000e-06	5.317319e-06	8.049925e-09	3.777067e+01	5.305830e+02
1.560000e-06	5.336052e-06	8.065368e-09	3.790374e+01	5.316310e+02
1.570000e-06	5.352789e-06	8.078781e-09	3.802263e+01	5.325491e+02
1.580000e-06	5.367511e-06	8.089229e-09	3.812720e+01	5.333416e+02
1.590000e-06	5.380319e-06	8.098227e-09	3.821818e+01	5.340133e+02
1.600000e-06	5.390997e-06	8.106591e-09	3.829403e+01	5.345683e+02
1.610000e-06	5.399447e-06	8.113573e-09	3.835406e+01	5.350109e+02
1.620000e-06	5.405968e-06	8.118760e-09	3.840038e+01	5.353443e+02
1.630000e-06	5.410696e-06	8.123611e-09	3.843396e+01	5.355710e+02
1.640000e-06	5.413543e-06	8.128509e-09	3.845418e+01	5.356927e+02
1.650000e-06	5.414362e-06	8.131701e-09	3.846000e+01	5.357101e+02
1.660000e-06	5.413273e-06	8.130746e-09	3.845227e+01	5.356229e+02
1.670000e-06	5.410517e-06	8.126080e-09	3.843269e+01	5.354306e+02
1.680000e-06	5.406141e-06	8.122220e-09	3.840161e+01	5.351328e+02
1.690000e-06	5.399893e-06	8.115664e-09	3.835723e+01	5.347295e+02
1.700000e-06	5.391759e-06	8.108562e-09	3.829944e+01	5.342217e+02
1.710000e-06	5.382019e-06	8.102960e-09	3.823026e+01	5.336120e+02
1.720000e-06	5.370634e-06	8.099767e-09	3.814939e+01	5.329045e+02
1.730000e-06	5.357327e-06	8.095479e-09	3.805486e+01	5.321049e+02
1.740000e-06	5.341931e-06	8.039278e-09	3.794550e+01	5.312205e+02
1.750000e-06	5.324267e-06	8.002642e-09	3.782003e+01	5.302589e+02
1.760000e-06	5.303982e-06	8.008882e-09	3.767593e+01	5.292281e+02
1.770000e-06	5.281235e-06	8.014379e-09	3.751435e+01	5.281353e+02
1.780000e-06	5.256927e-06	8.071554e-09	3.734169e+01	5.269859e+02
1.790000e-06	5.231930e-06	8.000962e-09	3.716413e+01	5.257828e+02
1.800000e-06	5.205846e-06	7.899379e-09	3.697885e+01	5.245258e+02
1.810000e-06	5.177621e-06	7.964645e-09	3.677835e+01	5.232116e+02
1.820000e-06	5.147409e-06	7.895666e-09	3.656375e+01	5.218334e+02
1.830000e-06	5.115537e-06	7.869575e-09	3.633735e+01	5.203817e+02
1.840000e-06	5.081648e-06	7.968854e-09	3.609662e+01	5.188447e+02
1.850000e-06	5.046103e-06	7.864007e-09	3.584414e+01	5.172095e+02
1.860000e-06	5.008947e-06	7.847863e-09	3.558021e+01	5.154632e+02
1.870000e-06	4.969787e-06	7.903138e-09	3.530204e+01	5.135941e+02
1.880000e-06	4.928958e-06	7.767922e-09	3.501201e+01	5.115924e+02
1.890000e-06	4.886378e-06	7.751427e-09	3.470955e+01	5.094515e+02
1.900000e-06	4.842066e-06	7.734962e-09	3.439480e+01	5.071680e+02
1.910000e-06	4.796005e-06	7.678099e-09	3.406761e+01	5.047420e+02
1.920000e-06	4.747848e-06	7.702717e-09	3.372553e+01	5.021770e+02
1.930000e-06	4.697991e-06	7.605552e-09	3.337138e+01	4.994789e+02
1.940000e-06	4.646530e-06	7.600609e-09	3.300583e+01	4.966556e+02
1.950000e-06	4.593077e-06	7.564488e-09	3.262615e+01	4.937156e+02
1.960000e-06	4.537588e-06	7.434565e-09	3.223198e+01	4.906674e+02
1.970000e-06	4.480232e-06	7.427167e-09	3.182457e+01	4.875180e+02
1.980000e-06	4.421427e-06	7.391053e-09	3.140685e+01	4.842730e+02
1.990000e-06	4.361243e-06	7.368673e-09	3.097935e+01	4.809352e+02
2.000000e-06	4.299353e-06	7.290382e-09	3.053973e+01	4.775052e+02
2.010000e-06	4.235815e-06	7.209201e-09	3.008839e+01	4.739812e+02
2.020000e-06	4.170767e-06	7.205760e-09	2.962634e+01	4.703593e+02
2.030000e-06	4.104245e-06	7.093674e-09	2.915381e+01	4.666345e+02
2.040000e-06	4.036269e-06	7.051374e-09	2.867095e+01	4.628011e+02
2.050000e-06	3.966798e-06	7.031335e-09	2.817747e+01	4.588532e+02
2.060000e-06	3.895798e-06	6.953043e-09	2.767314e+01	4.547858e+02
2.070000e-06	3.823396e-06	6.880870e-09	2.715885e+01	4.505948e+02
2.080000e-06	3.749771e-06	6.790963e-09	2.663586e+01	4.462776e+02
2.090000e-06	3.674784e-06	6.756225e-09	2.610320e+01	4.418326e+02
2.100000e-06	3.598328e-06	6.676579e-09	2.556011e+01	4.372596e+02
2.110000e-06	3.520279e-06	6.587912e-09	2.500571e+01	4.325591e+02
2.120000e-06	3.440816e-06	6.529973e-09	2.444125e+01	4.277320e+02
2.130000e-06	3.360277e-06	6.461340e-09	2.386916e+01	4.227791e+02
2.140000e-06	3.278570e-06	6.389013e-09	2.328877e+01	4.177007e+02
2.150000e-06	3.195750e-06	6.294573e-09	2.270046e+01	4.124964e+02
2.160000e-06	3.111909e-06	6.220703e-09	2.210492e+01	4.071646e+02
2.170000e-06	3.026948e-06	6.132341e-09	2.150141e+01	4.017030e+02
2.180000e-06	2.940704e-06	6.043665e-09	2.088879e+01	3.961082e+02
2.190000e-06	2.853175e-06	5.964771e-09	2.026705e+01	3.903762e+02
2.200000e-06	2.764640e-06	5.883685e-09	1.963815e+01	3.845028e+02
2.210000e-06	2.675207e-06	5.796307e-09	1.900288e+01	3.784838e+02
2.220000e-06	2.584850e-06	5.688981e-09	1.836104e+01	3.723154e+02
2.230000e-06	2.493648e-06	5.591897e-09	1.771321e+01	3.659944e+02
2.240000e-06	2.401635e-06	5.494888e-09	1.705961e+01	3.595185e+02
2.250000e-06	2.308789e-06	5.399094e-09	1.640009e+01	3.528862e+02
2.260000e-06	2.215044e-06	5.297076e-09	1.573419e+01	3.460967e+02
2.270000e-06	2.120369e-06	5.187908e-09	1.506168e+01	3.391499e+02
2.280000e-06	2.024738e-06	5.079292e-09	1.438239e+01	3.320459e+02
2.290000e-06	1.928306e-06	4.968113e-09	1.369739e+01	3.247846e+02
2.300000e-06	1.831352e-06	4.855646e-09	1.300870e+01	3.173657e+02
2.310000e-06	1.733957e-06	4.741426e-09	1.231687e+01	3.097882e+02
2.320000e-06	1.636010e-06	4.625848e-09	1.162112e+01	3.020497e+02
2.330000e-06	1.537483e-06	4.502853e-09	1.092125e+01	2.941471e+02
2.340000e-06	1.438483e-06	4.381268e-09	1.021802e+01	2.860757e+02
2.350000e-06	1.339072e-06	4.257583e-09	9.511869e+00	2.778296e+02
2.360000e-06	1.239321e-06	4.128765e-09	8.803305e+00	2.694020e+02
2.370000e-06	1.139249e-06	3.995429e-09	8.092465e+00	2.607850e+02
2.380000e-06	1.038807e-06	3.858136e-09	7.378987e+00	2.519701e+02
2.390000e-06	9.379526e-07	3.724608e-09	6.662587e+00	2.429488e+02
2.400000e-06	8.367110e-07	3.591486e-09	5.943434e+00	2.337126e+02
2.410000e-06	7.351230e-07	3.451247e-09	5.221821e+00	2.242536e+02
2.420000e-06	6.332537e-07	3.301532e-09	4.498210e+00	2.145647e+02
2.430000e-06	5.312016e-07	3.146734e-09	3.773301e+00	2.046399e+02
2.440000e-06	4.288995e-07	2.991644e-09	3.046615e+00	1.944743e+02
2.450000e-06	3.263465e-07	2.837280e-09	2.318147e+00	1.840641e+02
2.460000e-06	2.236252e-07	2.677229e-09	1.588483e+00	1.734066e+02
2.470000e-06	1.207244e-07	2.512248e-09	8.575456e-01	1.624996e+02
2.480000e-06	1.771951e-08	2.341084e-09	1.258675e-01	1.513410e+02
2.490000e-06	-8.528227e-08	2.164266e-09	-6.057881e-01	1.399285e+02
2.500000e-06	-1.882465e-07	1.988225e-09	-1.337177e+00	1.282587e+02
2.510000e-06	-2.911477e-07	1.812410e-09	-2.068118e+00	1.163270e+02
2.520000e-06	-3.939530e-07	1.631318e-09	-2.798378e+00	1.041268e+02
2.530000e-06	-4.965783e-07	1.440314e-09	-3.527359e+00	9.164969e+01
2.540000e-06	-5.989470e-07	1.244667e-09	-4.254518e+00	7.888560e+01
2.550000e-06	-7.010297e-07	1.045328e-09	-4.979646e+00	6.582302e+01
2.560000e-06	-8.027804e-07	8.378825e-10	-5.702415e+00	5.245007e+01
2.570000e-06	-9.041674e-07	6.228284e-10	-6.422600e+00	3.875560e+01
2.580000e-06	-1.005133e-06	4.038560e-10	-7.139790e+00	2.473076e+01
2.590000e-06	-1.105697e-06	1.835786e-10	-7.854131e+00	1.037060e+01
2.600000e-06	-1.205858e-06	-3.916136e-11	-8.565606e+00	-4.324132e+00
2.610000e-06	-1.305573e-06	-2.651721e-10	-9.273913e+00	-1.934536e+01
2.620000e-06	-1.404848e-06	-4.987800e-10	-9.979098e+00	-3.467629e+01
2.630000e-06	-1.503674e-06	-7.396044e-10	-1.068110e+01	-5.029046e+01
2.640000e-06	-1.601953e-06	-9.838046e-10	-1.137920e+01	-6.615131e+01
2.650000e-06	-1.699594e-06	-1.229126e-09	-1.207277e+01	-8.221245e+01
2.660000e-06	-1.796716e-06	-1.475150e-09	-1.276267e+01	-9.841858e+01
2.670000e-06	-1.893343e-06	-1.724416e-09	-1.344904e+01	-1.147070e+02
2.680000e-06	-1.989425e-06	-1.974697e-09	-1.413154e+01	-1.310100e+02
2.690000e-06	-2.084832e-06	-2.222972e-09	-1.480925e+01	-1.472569e+02
2.700000e-06	-2.179354e-06	-2.467064e-09	-1.548067e+01	-1.633772e+02
2.710000e-06	-2.272927e-06	-2.707908e-09	-1.614535e+01	-1.793034e+02
2.720000e-06	-2.365546e-06	-2.946742e-09	-1.680326e+01	-1.949731e+02
2.730000e-06	-2.457282e-06	-3.182722e-09	-1.745489e+01	-2.103312e+02
2.740000e-06	-2.548144e-06	-3.414005e-09	-1.810031e+01	-2.253316e+02
2.750000e-06	-2.638061e-06	-3.639111e-09	-1.873902e+01	-2.399376e+02
2.760000e-06	-2.727089e-06	-3.859223e-09	-1.937141e+01	-2.541222e+02
2.770000e-06	-2.815310e-06	-4.073341e-09	-1.999808e+01	-2.678674e+02
2.780000e-06	-2.902657e-06	-4.278231e-09	-2.061853e+01	-2.811631e+02
2.790000e-06	-2.988872e-06	-4.473710e-09	-2.123094e+01	-2.940052e+02
2.800000e-06	-3.073880e-06	-4.662759e-09	-2.183479e+01	-3.063945e+02
2.810000e-06	-3.157817e-06	-4.844265e-09	-2.243102e+01	-3.183345e+02
2.820000e-06	-3.240699e-06	-5.016841e-09	-2.301976e+01	-3.298299e+02
2.830000e-06	-3.322501e-06	-5.184364e-09	-2.360082e+01	-3.408857e+02
2.840000e-06	-3.403243e-06	-5.346932e-09	-2.417436e+01	-3.515065e+02
2.850000e-06	-3.482822e-06	-5.502415e-09	-2.473963e+01	-3.616961e+02
2.860000e-06	-3.560991e-06	-5.650187e-09	-2.529489e+01	-3.714580e+02
2.870000e-06	-3.637627e-06	-5.792427e-09	-2.583926e+01	-3.807960e+02
2.880000e-06	-3.712804e-06	-5.930525e-09	-2.637327e+01	-3.897146e+02
2.890000e-06	-3.786645e-06	-6.062134e-09	-2.689779e+01	-3.982204e+02
2.900000e-06	-3.859196e-06	-6.188735e-09	-2.741314e+01	-4.063227e+02
2.910000e-06	-3.930338e-06	-6.311390e-09	-2.791849e+01	-4.140338e+02
2.920000e-06	-3.999910e-06	-6.426319e-09	-2.841268e+01	-4.213692e+02
2.930000e-06	-4.067956e-06	-6.532260e-09	-2.889604e+01	-4.283476e+02
2.940000e-06	-4.134595e-06	-6.633444e-09	-2.936940e+01	-4.349900e+02
