# Temperatura_=_63.84
# Concentracion g/m^3_=_15000.0
# C_Vs_to_Am_M_A/Vsm_=_65563218390.804596
# pendiente_HvsI_1/m_=_3716.3
# ordenada_HvsI_A/m_=_1297.0
# frecuencia_Hz_=_301599.541951441

Tiempo_(s)	Campo_(V.s)	Magnetizacion_(V.s)	Campo_(kA/m)	Magnetizacion_(A/m)
0.000000e+00	-5.411273e-06	-8.992483e-09	-3.833393e+01	-5.870540e+02
1.000000e-08	-5.408586e-06	-8.989091e-09	-3.831490e+01	-5.868241e+02
2.000000e-08	-5.404113e-06	-8.981436e-09	-3.828321e+01	-5.864643e+02
3.000000e-08	-5.397981e-06	-8.975448e-09	-3.823978e+01	-5.859723e+02
4.000000e-08	-5.390319e-06	-8.965610e-09	-3.818550e+01	-5.853474e+02
5.000000e-08	-5.380858e-06	-8.949635e-09	-3.811847e+01	-5.845919e+02
6.000000e-08	-5.369255e-06	-8.930183e-09	-3.803628e+01	-5.837110e+02
7.000000e-08	-5.355761e-06	-8.901021e-09	-3.794068e+01	-5.827131e+02
8.000000e-08	-5.340208e-06	-8.916006e-09	-3.783050e+01	-5.816093e+02
9.000000e-08	-5.322370e-06	-8.968312e-09	-3.770414e+01	-5.804126e+02
1.000000e-07	-5.302463e-06	-8.918606e-09	-3.756312e+01	-5.791364e+02
1.100000e-07	-5.280624e-06	-8.854880e-09	-3.740841e+01	-5.777936e+02
1.200000e-07	-5.257079e-06	-8.798379e-09	-3.724162e+01	-5.763944e+02
1.300000e-07	-5.231955e-06	-8.659225e-09	-3.706363e+01	-5.749455e+02
1.400000e-07	-5.205224e-06	-8.787372e-09	-3.687427e+01	-5.734487e+02
1.500000e-07	-5.176915e-06	-8.854782e-09	-3.667372e+01	-5.719009e+02
1.600000e-07	-5.147156e-06	-8.637797e-09	-3.646291e+01	-5.702932e+02
1.700000e-07	-5.115870e-06	-8.744253e-09	-3.624128e+01	-5.686124e+02
1.800000e-07	-5.082427e-06	-8.687109e-09	-3.600436e+01	-5.668416e+02
1.900000e-07	-5.047063e-06	-8.489329e-09	-3.575384e+01	-5.649620e+02
2.000000e-07	-5.010252e-06	-8.656791e-09	-3.549307e+01	-5.629547e+02
2.100000e-07	-4.971677e-06	-8.582485e-09	-3.521980e+01	-5.608022e+02
2.200000e-07	-4.931252e-06	-8.441622e-09	-3.493343e+01	-5.584904e+02
2.300000e-07	-4.888884e-06	-8.518787e-09	-3.463329e+01	-5.560099e+02
2.400000e-07	-4.844582e-06	-8.444731e-09	-3.431945e+01	-5.533562e+02
2.500000e-07	-4.798479e-06	-8.395078e-09	-3.399285e+01	-5.505305e+02
2.600000e-07	-4.750483e-06	-8.345345e-09	-3.365284e+01	-5.475387e+02
2.700000e-07	-4.700420e-06	-8.255376e-09	-3.329819e+01	-5.443905e+02
2.800000e-07	-4.648232e-06	-8.248720e-09	-3.292848e+01	-5.410983e+02
2.900000e-07	-4.594156e-06	-8.190053e-09	-3.254541e+01	-5.376752e+02
3.000000e-07	-4.538560e-06	-8.134466e-09	-3.215156e+01	-5.341337e+02
3.100000e-07	-4.481323e-06	-8.101077e-09	-3.174609e+01	-5.304839e+02
3.200000e-07	-4.422193e-06	-8.049817e-09	-3.132721e+01	-5.267329e+02
3.300000e-07	-4.361420e-06	-7.955367e-09	-3.089669e+01	-5.228840e+02
3.400000e-07	-4.299250e-06	-7.876997e-09	-3.045627e+01	-5.189366e+02
3.500000e-07	-4.235763e-06	-7.876396e-09	-3.000652e+01	-5.148864e+02
3.600000e-07	-4.170695e-06	-7.795850e-09	-2.954557e+01	-5.107267e+02
3.700000e-07	-4.103876e-06	-7.702616e-09	-2.907222e+01	-5.064489e+02
3.800000e-07	-4.035554e-06	-7.661290e-09	-2.858822e+01	-5.020441e+02
3.900000e-07	-3.965864e-06	-7.579278e-09	-2.809453e+01	-4.975040e+02
4.000000e-07	-3.894915e-06	-7.496160e-09	-2.759192e+01	-4.928217e+02
4.100000e-07	-3.822735e-06	-7.418845e-09	-2.708059e+01	-4.879928e+02
4.200000e-07	-3.749062e-06	-7.369507e-09	-2.655869e+01	-4.830146e+02
4.300000e-07	-3.673795e-06	-7.294424e-09	-2.602549e+01	-4.778873e+02
4.400000e-07	-3.597062e-06	-7.196835e-09	-2.548191e+01	-4.726123e+02
4.500000e-07	-3.518890e-06	-7.118221e-09	-2.492812e+01	-4.671925e+02
4.600000e-07	-3.439256e-06	-7.041418e-09	-2.436399e+01	-4.616308e+02
4.700000e-07	-3.358314e-06	-6.954047e-09	-2.379059e+01	-4.559300e+02
4.800000e-07	-3.276223e-06	-6.849343e-09	-2.320905e+01	-4.500918e+02
4.900000e-07	-3.193057e-06	-6.768851e-09	-2.261990e+01	-4.441164e+02
5.000000e-07	-3.108916e-06	-6.684537e-09	-2.202384e+01	-4.380028e+02
5.100000e-07	-3.023830e-06	-6.578261e-09	-2.142108e+01	-4.317483e+02
5.200000e-07	-2.937766e-06	-6.474858e-09	-2.081139e+01	-4.253495e+02
5.300000e-07	-2.850744e-06	-6.375631e-09	-2.019492e+01	-4.188022e+02
5.400000e-07	-2.762778e-06	-6.273069e-09	-1.957177e+01	-4.121023e+02
5.500000e-07	-2.673717e-06	-6.166389e-09	-1.894085e+01	-4.052459e+02
5.600000e-07	-2.583468e-06	-6.058840e-09	-1.830152e+01	-3.982301e+02
5.700000e-07	-2.492169e-06	-5.951141e-09	-1.765475e+01	-3.910528e+02
5.800000e-07	-2.400002e-06	-5.838256e-09	-1.700183e+01	-3.837127e+02
5.900000e-07	-2.307026e-06	-5.722791e-09	-1.634317e+01	-3.762091e+02
6.000000e-07	-2.213195e-06	-5.604857e-09	-1.567847e+01	-3.685415e+02
6.100000e-07	-2.118552e-06	-5.482205e-09	-1.500801e+01	-3.607091e+02
6.200000e-07	-2.023263e-06	-5.360748e-09	-1.433297e+01	-3.527105e+02
6.300000e-07	-1.927331e-06	-5.239123e-09	-1.365338e+01	-3.445431e+02
6.400000e-07	-1.830560e-06	-5.113759e-09	-1.296785e+01	-3.362030e+02
6.500000e-07	-1.732886e-06	-4.981253e-09	-1.227592e+01	-3.276853e+02
6.600000e-07	-1.634459e-06	-4.841769e-09	-1.157865e+01	-3.189835e+02
6.700000e-07	-1.535445e-06	-4.699578e-09	-1.087723e+01	-3.100908e+02
6.800000e-07	-1.435950e-06	-4.560513e-09	-1.017239e+01	-3.009998e+02
6.900000e-07	-1.336053e-06	-4.423329e-09	-9.464717e+00	-2.917035e+02
7.000000e-07	-1.235779e-06	-4.281865e-09	-8.754368e+00	-2.821955e+02
7.100000e-07	-1.135120e-06	-4.131595e-09	-8.041293e+00	-2.724707e+02
7.200000e-07	-1.034118e-06	-3.973495e-09	-7.325783e+00	-2.625252e+02
7.300000e-07	-9.327592e-07	-3.816467e-09	-6.607749e+00	-2.523566e+02
7.400000e-07	-8.310425e-07	-3.657209e-09	-5.887178e+00	-2.419638e+02
7.500000e-07	-7.290240e-07	-3.491899e-09	-5.164470e+00	-2.313465e+02
7.600000e-07	-6.267048e-07	-3.322614e-09	-4.439632e+00	-2.205049e+02
7.700000e-07	-5.241926e-07	-3.149125e-09	-3.713427e+00	-2.094390e+02
7.800000e-07	-4.215578e-07	-2.977077e-09	-2.986353e+00	-1.981481e+02
7.900000e-07	-3.187919e-07	-2.803462e-09	-2.258350e+00	-1.866299e+02
8.000000e-07	-2.159628e-07	-2.624234e-09	-1.529899e+00	-1.748804e+02
8.100000e-07	-1.130668e-07	-2.442066e-09	-8.009754e-01	-1.628936e+02
8.200000e-07	-1.008617e-08	-2.256290e-09	-7.145135e-02	-1.506608e+02
8.300000e-07	9.292660e-08	-2.065098e-09	6.583002e-01	-1.381711e+02
8.400000e-07	1.959527e-07	-1.869475e-09	1.388147e+00	-1.254114e+02
8.500000e-07	2.989571e-07	-1.668067e-09	2.117838e+00	-1.123667e+02
8.600000e-07	4.018747e-07	-1.462035e-09	2.846916e+00	-9.902091e+01
8.700000e-07	5.047213e-07	-1.251316e-09	3.575490e+00	-8.535707e+01
8.800000e-07	6.074427e-07	-1.039084e-09	4.303178e+00	-7.135865e+01
8.900000e-07	7.099668e-07	-8.255283e-10	5.029467e+00	-5.701035e+01
9.000000e-07	8.122558e-07	-6.041997e-10	5.754092e+00	-4.229931e+01
9.100000e-07	9.142535e-07	-3.763404e-10	6.476653e+00	-2.721634e+01
9.200000e-07	1.015867e-06	-1.411827e-10	7.196490e+00	-1.175728e+01
9.300000e-07	1.117056e-06	1.009083e-10	7.913325e+00	4.075604e+00
9.400000e-07	1.217871e-06	3.497997e-10	8.627507e+00	2.027240e+01
9.500000e-07	1.318277e-06	6.028717e-10	9.338794e+00	3.681436e+01
9.600000e-07	1.418237e-06	8.583879e-10	1.004692e+01	5.367308e+01
9.700000e-07	1.517788e-06	1.117508e-09	1.075214e+01	7.081003e+01
9.800000e-07	1.616808e-06	1.379406e-09	1.145361e+01	8.817662e+01
9.900000e-07	1.715151e-06	1.643470e-09	1.215028e+01	1.057148e+02
1.000000e-06	1.812713e-06	1.908767e-09	1.284142e+01	1.233584e+02
1.010000e-06	1.909387e-06	2.176396e-09	1.352627e+01	1.410347e+02
1.020000e-06	2.005245e-06	2.445108e-09	1.420533e+01	1.586671e+02
1.030000e-06	2.100350e-06	2.711714e-09	1.487906e+01	1.761778e+02
1.040000e-06	2.194724e-06	2.974257e-09	1.554762e+01	1.934904e+02
1.050000e-06	2.288359e-06	3.231182e-09	1.621094e+01	2.105334e+02
1.060000e-06	2.381221e-06	3.483639e-09	1.686878e+01	2.272421e+02
1.070000e-06	2.473393e-06	3.730208e-09	1.752173e+01	2.435614e+02
1.080000e-06	2.564876e-06	3.971371e-09	1.816981e+01	2.594471e+02
1.090000e-06	2.655387e-06	4.205688e-09	1.881099e+01	2.748667e+02
1.100000e-06	2.744684e-06	4.432217e-09	1.944359e+01	2.897990e+02
1.110000e-06	2.832858e-06	4.648492e-09	2.006821e+01	3.042335e+02
1.120000e-06	2.920075e-06	4.857073e-09	2.068607e+01	3.181690e+02
1.130000e-06	3.006368e-06	5.062113e-09	2.129738e+01	3.316112e+02
1.140000e-06	3.091674e-06	5.260697e-09	2.190169e+01	3.445704e+02
1.150000e-06	3.176061e-06	5.449879e-09	2.249950e+01	3.570594e+02
1.160000e-06	3.259540e-06	5.630974e-09	2.309087e+01	3.690915e+02
1.170000e-06	3.341816e-06	5.807698e-09	2.367372e+01	3.806785e+02
1.180000e-06	3.422743e-06	5.977979e-09	2.424701e+01	3.918302e+02
1.190000e-06	3.502399e-06	6.141241e-09	2.481130e+01	4.025534e+02
1.200000e-06	3.580814e-06	6.297218e-09	2.536681e+01	4.128526e+02
1.210000e-06	3.658036e-06	6.447513e-09	2.591385e+01	4.227308e+02
1.220000e-06	3.734033e-06	6.592170e-09	2.645222e+01	4.321902e+02
1.230000e-06	3.808539e-06	6.730667e-09	2.698003e+01	4.412342e+02
1.240000e-06	3.881391e-06	6.863084e-09	2.749612e+01	4.498678e+02
1.250000e-06	3.952718e-06	6.987867e-09	2.800140e+01	4.580996e+02
1.260000e-06	4.022630e-06	7.103475e-09	2.849667e+01	4.659415e+02
1.270000e-06	4.091215e-06	7.213963e-09	2.898253e+01	4.734094e+02
1.280000e-06	4.158431e-06	7.321439e-09	2.945870e+01	4.805225e+02
1.290000e-06	4.223969e-06	7.423433e-09	2.992297e+01	4.873026e+02
1.300000e-06	4.287835e-06	7.519498e-09	3.037540e+01	4.937726e+02
1.310000e-06	4.350257e-06	7.611273e-09	3.081761e+01	4.999554e+02
1.320000e-06	4.411266e-06	7.702019e-09	3.124980e+01	5.058726e+02
1.330000e-06	4.470885e-06	7.790096e-09	3.167215e+01	5.115428e+02
1.340000e-06	4.528865e-06	7.874744e-09	3.208288e+01	5.169811e+02
1.350000e-06	4.585019e-06	7.955508e-09	3.248068e+01	5.221985e+02
1.360000e-06	4.639539e-06	8.030218e-09	3.286690e+01	5.272019e+02
1.370000e-06	4.692384e-06	8.101197e-09	3.324126e+01	5.319946e+02
1.380000e-06	4.743273e-06	8.169842e-09	3.360177e+01	5.365770e+02
1.390000e-06	4.792087e-06	8.236837e-09	3.394756e+01	5.409476e+02
1.400000e-06	4.839029e-06	8.301010e-09	3.428011e+01	5.451040e+02
1.410000e-06	4.884405e-06	8.360414e-09	3.460156e+01	5.490443e+02
1.420000e-06	4.928304e-06	8.416970e-09	3.491254e+01	5.527674e+02
1.430000e-06	4.970398e-06	8.471626e-09	3.521074e+01	5.562738e+02
1.440000e-06	5.010540e-06	8.522774e-09	3.549511e+01	5.595659e+02
1.450000e-06	5.048988e-06	8.569065e-09	3.576747e+01	5.626476e+02
1.460000e-06	5.085825e-06	8.610888e-09	3.602843e+01	5.655245e+02
1.470000e-06	5.120941e-06	8.648607e-09	3.627720e+01	5.682027e+02
1.480000e-06	5.154143e-06	8.682749e-09	3.651241e+01	5.706891e+02
1.490000e-06	5.185465e-06	8.713469e-09	3.673430e+01	5.729900e+02
1.500000e-06	5.215051e-06	8.741988e-09	3.694388e+01	5.751117e+02
1.510000e-06	5.243018e-06	8.770594e-09	3.714201e+01	5.770594e+02
1.520000e-06	5.269087e-06	8.798242e-09	3.732668e+01	5.788381e+02
1.530000e-06	5.293009e-06	8.823757e-09	3.749614e+01	5.804519e+02
1.540000e-06	5.314979e-06	8.845817e-09	3.765178e+01	5.819053e+02
1.550000e-06	5.335234e-06	8.864022e-09	3.779527e+01	5.832026e+02
1.560000e-06	5.353737e-06	8.878794e-09	3.792635e+01	5.843486e+02
1.570000e-06	5.370201e-06	8.892624e-09	3.804298e+01	5.853486e+02
1.580000e-06	5.384626e-06	8.905108e-09	3.814517e+01	5.862082e+02
1.590000e-06	5.397056e-06	8.915141e-09	3.823322e+01	5.869333e+02
1.600000e-06	5.407289e-06	8.923523e-09	3.830571e+01	5.875295e+02
1.610000e-06	5.415405e-06	8.931068e-09	3.836321e+01	5.880016e+02
1.620000e-06	5.421628e-06	8.938450e-09	3.840729e+01	5.883528e+02
1.630000e-06	5.426028e-06	8.945836e-09	3.843846e+01	5.885852e+02
1.640000e-06	5.428561e-06	8.951964e-09	3.845641e+01	5.886987e+02
1.650000e-06	5.429068e-06	8.954989e-09	3.846000e+01	5.886916e+02
1.660000e-06	5.427687e-06	8.948617e-09	3.845021e+01	5.885609e+02
1.670000e-06	5.424647e-06	8.940759e-09	3.842868e+01	5.883031e+02
1.680000e-06	5.419917e-06	8.934661e-09	3.839517e+01	5.879148e+02
1.690000e-06	5.413269e-06	8.924976e-09	3.834807e+01	5.873939e+02
1.700000e-06	5.404827e-06	8.915102e-09	3.828827e+01	5.867404e+02
1.710000e-06	5.394857e-06	8.908092e-09	3.821764e+01	5.859572e+02
1.720000e-06	5.383185e-06	8.916222e-09	3.813496e+01	5.850501e+02
1.730000e-06	5.369505e-06	8.899667e-09	3.803805e+01	5.840281e+02
1.740000e-06	5.353694e-06	8.791636e-09	3.792604e+01	5.829030e+02
1.750000e-06	5.335505e-06	8.788833e-09	3.779719e+01	5.816878e+02
1.760000e-06	5.314603e-06	8.806764e-09	3.764912e+01	5.803960e+02
1.770000e-06	5.291415e-06	8.830911e-09	3.748485e+01	5.790399e+02
1.780000e-06	5.266985e-06	8.932536e-09	3.731178e+01	5.776293e+02
1.790000e-06	5.241880e-06	8.703111e-09	3.713394e+01	5.761698e+02
1.800000e-06	5.215357e-06	8.664100e-09	3.694605e+01	5.746623e+02
1.810000e-06	5.186508e-06	8.808168e-09	3.674168e+01	5.731022e+02
1.820000e-06	5.155772e-06	8.582594e-09	3.652394e+01	5.714798e+02
1.830000e-06	5.123429e-06	8.701028e-09	3.629483e+01	5.697809e+02
1.840000e-06	5.089158e-06	8.795487e-09	3.605204e+01	5.679880e+02
1.850000e-06	5.053298e-06	8.501455e-09	3.579801e+01	5.660823e+02
1.860000e-06	5.015646e-06	8.636348e-09	3.553128e+01	5.640449e+02
1.870000e-06	4.976044e-06	8.624923e-09	3.525074e+01	5.618590e+02
1.880000e-06	4.934785e-06	8.425753e-09	3.495846e+01	5.595114e+02
1.890000e-06	4.891665e-06	8.537021e-09	3.465299e+01	5.569936e+02
1.900000e-06	4.846966e-06	8.411318e-09	3.433633e+01	5.543024e+02
1.910000e-06	4.800457e-06	8.430100e-09	3.400686e+01	5.514401e+02
1.920000e-06	4.751796e-06	8.422676e-09	3.366214e+01	5.484135e+02
1.930000e-06	4.701537e-06	8.213129e-09	3.330610e+01	5.452331e+02
1.940000e-06	4.649533e-06	8.334340e-09	3.293770e+01	5.419114e+02
1.950000e-06	4.595426e-06	8.229559e-09	3.255440e+01	5.384616e+02
1.960000e-06	4.539441e-06	8.093703e-09	3.215780e+01	5.348957e+02
1.970000e-06	4.481738e-06	8.097875e-09	3.174902e+01	5.312235e+02
1.980000e-06	4.422573e-06	8.036737e-09	3.132990e+01	5.274511e+02
1.990000e-06	4.361973e-06	8.042275e-09	3.090060e+01	5.235809e+02
2.000000e-06	4.299640e-06	7.871541e-09	3.045903e+01	5.196116e+02
2.010000e-06	4.235664e-06	7.863349e-09	3.000582e+01	5.155382e+02
2.020000e-06	4.170206e-06	7.843053e-09	2.954211e+01	5.113536e+02
2.030000e-06	4.103279e-06	7.668291e-09	2.906799e+01	5.070490e+02
2.040000e-06	4.034921e-06	7.678638e-09	2.858374e+01	5.026155e+02
2.050000e-06	3.964966e-06	7.618110e-09	2.808817e+01	4.980451e+02
2.060000e-06	3.893456e-06	7.552320e-09	2.758159e+01	4.933314e+02
2.070000e-06	3.820673e-06	7.423815e-09	2.706599e+01	4.884703e+02
2.080000e-06	3.746625e-06	7.328731e-09	2.654142e+01	4.834598e+02
2.090000e-06	3.671202e-06	7.323813e-09	2.600712e+01	4.783003e+02
2.100000e-06	3.594274e-06	7.212087e-09	2.546216e+01	4.729937e+02
2.110000e-06	3.515740e-06	7.129811e-09	2.490581e+01	4.675428e+02
2.120000e-06	3.435910e-06	7.042496e-09	2.434029e+01	4.619508e+02
2.130000e-06	3.355030e-06	6.972782e-09	2.376733e+01	4.562201e+02
2.140000e-06	3.272962e-06	6.865338e-09	2.318595e+01	4.503522e+02
2.150000e-06	3.189769e-06	6.759631e-09	2.259660e+01	4.443470e+02
2.160000e-06	3.105577e-06	6.696375e-09	2.200018e+01	4.382031e+02
2.170000e-06	3.020162e-06	6.591189e-09	2.139510e+01	4.319178e+02
2.180000e-06	2.933354e-06	6.494347e-09	2.078014e+01	4.254871e+02
2.190000e-06	2.845445e-06	6.385528e-09	2.015738e+01	4.189071e+02
2.200000e-06	2.756630e-06	6.298337e-09	1.952821e+01	4.121736e+02
2.210000e-06	2.666841e-06	6.198177e-09	1.889213e+01	4.052830e+02
2.220000e-06	2.576103e-06	6.077457e-09	1.824934e+01	3.982324e+02
2.230000e-06	2.484535e-06	5.966425e-09	1.760066e+01	3.910200e+02
2.240000e-06	2.392169e-06	5.856300e-09	1.694634e+01	3.836446e+02
2.250000e-06	2.298936e-06	5.752207e-09	1.628586e+01	3.761055e+02
2.260000e-06	2.204726e-06	5.633375e-09	1.561847e+01	3.684023e+02
2.270000e-06	2.109548e-06	5.510529e-09	1.494423e+01	3.605342e+02
2.280000e-06	2.013544e-06	5.384201e-09	1.426412e+01	3.524993e+02
2.290000e-06	1.916869e-06	5.258733e-09	1.357927e+01	3.442949e+02
2.300000e-06	1.819657e-06	5.131648e-09	1.289061e+01	3.359169e+02
2.310000e-06	1.721952e-06	5.009147e-09	1.219846e+01	3.273599e+02
2.320000e-06	1.623664e-06	4.883140e-09	1.150218e+01	3.186175e+02
2.330000e-06	1.524785e-06	4.743442e-09	1.080171e+01	3.096826e+02
2.340000e-06	1.425470e-06	4.598143e-09	1.009815e+01	3.005479e+02
2.350000e-06	1.325826e-06	4.450487e-09	9.392267e+00	2.912063e+02
2.360000e-06	1.225896e-06	4.310265e-09	8.684356e+00	2.816520e+02
2.370000e-06	1.125700e-06	4.167319e-09	7.974555e+00	2.718798e+02
2.380000e-06	1.025138e-06	4.015230e-09	7.262167e+00	2.618863e+02
2.390000e-06	9.240198e-07	3.861070e-09	6.545838e+00	2.516694e+02
2.400000e-06	8.224159e-07	3.706798e-09	5.826067e+00	2.412281e+02
2.410000e-06	7.204296e-07	3.546619e-09	5.103587e+00	2.305624e+02
2.420000e-06	6.180109e-07	3.378614e-09	4.378044e+00	2.196725e+02
2.430000e-06	5.152937e-07	3.207277e-09	3.650386e+00	2.085581e+02
2.440000e-06	4.124139e-07	3.037409e-09	2.921577e+00	1.972184e+02
2.450000e-06	3.093672e-07	2.864208e-09	2.191585e+00	1.856507e+02
2.460000e-06	2.061498e-07	2.685317e-09	1.460383e+00	1.738506e+02
2.470000e-06	1.028401e-07	2.506406e-09	7.285280e-01	1.618116e+02
2.480000e-06	-4.393439e-10	2.319129e-09	-3.112351e-03	1.495244e+02
2.490000e-06	-1.036933e-07	2.122642e-09	-7.345725e-01	1.369777e+02
2.500000e-06	-2.069477e-07	1.925629e-09	-1.466036e+00	1.241579e+02
2.510000e-06	-3.101913e-07	1.730553e-09	-2.197422e+00	1.110497e+02
2.520000e-06	-4.133891e-07	1.530309e-09	-2.928485e+00	9.763687e+01
2.530000e-06	-5.164297e-07	1.319921e-09	-3.658434e+00	8.390236e+01
2.540000e-06	-6.192195e-07	1.104822e-09	-4.386606e+00	6.982986e+01
2.550000e-06	-7.217391e-07	8.833023e-10	-5.112864e+00	5.540447e+01
2.560000e-06	-8.238766e-07	6.515955e-10	-5.836415e+00	4.061401e+01
2.570000e-06	-9.255182e-07	4.155008e-10	-6.556452e+00	2.545027e+01
2.580000e-06	-1.026633e-06	1.794215e-10	-7.272761e+00	9.910340e+00
2.590000e-06	-1.127259e-06	-6.068199e-11	-7.985601e+00	-6.001985e+00
2.600000e-06	-1.227492e-06	-3.078669e-10	-8.695659e+00	-2.227498e+01
2.610000e-06	-1.327341e-06	-5.599137e-10	-9.402999e+00	-3.888788e+01
2.620000e-06	-1.426753e-06	-8.169243e-10	-1.010724e+01	-5.581015e+01
2.630000e-06	-1.525720e-06	-1.080045e-09	-1.080833e+01	-7.300107e+01
2.640000e-06	-1.624194e-06	-1.348864e-09	-1.150594e+01	-9.040995e+01
2.650000e-06	-1.722110e-06	-1.621188e-09	-1.219958e+01	-1.079769e+02
2.660000e-06	-1.819408e-06	-1.893658e-09	-1.288885e+01	-1.256341e+02
2.670000e-06	-1.916063e-06	-2.166450e-09	-1.357356e+01	-1.433079e+02
2.680000e-06	-2.012152e-06	-2.437975e-09	-1.425427e+01	-1.609211e+02
2.690000e-06	-2.107690e-06	-2.706661e-09	-1.493106e+01	-1.783960e+02
2.700000e-06	-2.202435e-06	-2.970202e-09	-1.560225e+01	-1.956570e+02
2.710000e-06	-2.296143e-06	-3.229472e-09	-1.626608e+01	-2.126338e+02
2.720000e-06	-2.388810e-06	-3.483883e-09	-1.692254e+01	-2.292636e+02
2.730000e-06	-2.480575e-06	-3.731088e-09	-1.757262e+01	-2.454937e+02
2.740000e-06	-2.571520e-06	-3.971075e-09	-1.821687e+01	-2.612823e+02
2.750000e-06	-2.661489e-06	-4.204259e-09	-1.885422e+01	-2.765991e+02
2.760000e-06	-2.750478e-06	-4.434134e-09	-1.948463e+01	-2.914256e+02
2.770000e-06	-2.838692e-06	-4.658778e-09	-2.010955e+01	-3.057534e+02
2.780000e-06	-2.926110e-06	-4.873537e-09	-2.072882e+01	-3.195829e+02
2.790000e-06	-3.012442e-06	-5.078792e-09	-2.134041e+01	-3.329209e+02
2.800000e-06	-3.097518e-06	-5.277439e-09	-2.194309e+01	-3.457785e+02
2.810000e-06	-3.181445e-06	-5.468195e-09	-2.253764e+01	-3.581689e+02
2.820000e-06	-3.264361e-06	-5.648677e-09	-2.312502e+01	-3.701050e+02
2.830000e-06	-3.346218e-06	-5.822509e-09	-2.370491e+01	-3.815984e+02
2.840000e-06	-3.427008e-06	-5.991066e-09	-2.427723e+01	-3.926581e+02
2.850000e-06	-3.506633e-06	-6.151643e-09	-2.484130e+01	-4.032904e+02
2.860000e-06	-3.584776e-06	-6.305947e-09	-2.539487e+01	-4.134996e+02
2.870000e-06	-3.661357e-06	-6.457143e-09	-2.593738e+01	-4.232881e+02
2.880000e-06	-3.736466e-06	-6.603058e-09	-2.646945e+01	-4.326585e+02
2.890000e-06	-3.810174e-06	-6.740117e-09	-2.699161e+01	-4.416144e+02
2.900000e-06	-3.882593e-06	-6.872568e-09	-2.750463e+01	-4.501614e+02
2.910000e-06	-3.953695e-06	-7.000891e-09	-2.800832e+01	-4.583089e+02
2.920000e-06	-4.023207e-06	-7.119755e-09	-2.850075e+01	-4.660695e+02
2.930000e-06	-4.091125e-06	-7.231266e-09	-2.898189e+01	-4.734600e+02
2.940000e-06	-4.157685e-06	-7.340113e-09	-2.945341e+01	-4.805002e+02
