# Temperatura_=_27.63
# Concentracion g/m^3_=_15000.0
# C_Vs_to_Am_M_A/Vsm_=_65563218390.804596
# pendiente_HvsI_1/m_=_3716.3
# ordenada_HvsI_A/m_=_1297.0
# frecuencia_Hz_=_301600.0019672166

Tiempo_(s)	Campo_(V.s)	Magnetizacion_(V.s)	Campo_(kA/m)	Magnetizacion_(A/m)
0.000000e+00	-5.416864e-06	-9.063526e-09	-3.834058e+01	-5.911143e+02
1.000000e-08	-5.414345e-06	-9.061082e-09	-3.832275e+01	-5.908882e+02
2.000000e-08	-5.410027e-06	-9.053391e-09	-3.829218e+01	-5.905363e+02
3.000000e-08	-5.404033e-06	-9.046119e-09	-3.824976e+01	-5.900577e+02
4.000000e-08	-5.396491e-06	-9.035785e-09	-3.819638e+01	-5.894533e+02
5.000000e-08	-5.387073e-06	-9.019447e-09	-3.812971e+01	-5.887266e+02
6.000000e-08	-5.375529e-06	-8.998449e-09	-3.804800e+01	-5.878836e+02
7.000000e-08	-5.362171e-06	-8.969128e-09	-3.795346e+01	-5.869332e+02
8.000000e-08	-5.346741e-06	-8.977599e-09	-3.784424e+01	-5.858867e+02
9.000000e-08	-5.329037e-06	-9.027575e-09	-3.771893e+01	-5.847569e+02
1.000000e-07	-5.309297e-06	-8.993061e-09	-3.757921e+01	-5.835568e+02
1.100000e-07	-5.287626e-06	-8.939236e-09	-3.742583e+01	-5.822987e+02
1.200000e-07	-5.264163e-06	-8.895891e-09	-3.725976e+01	-5.809923e+02
1.300000e-07	-5.239088e-06	-8.756096e-09	-3.708227e+01	-5.796437e+02
1.400000e-07	-5.212495e-06	-8.844720e-09	-3.689405e+01	-5.782542e+02
1.500000e-07	-5.184329e-06	-8.926004e-09	-3.669469e+01	-5.768201e+02
1.600000e-07	-5.154630e-06	-8.714140e-09	-3.648448e+01	-5.753322e+02
1.700000e-07	-5.123348e-06	-8.794825e-09	-3.626307e+01	-5.737771e+02
1.800000e-07	-5.089981e-06	-8.781231e-09	-3.602690e+01	-5.721375e+02
1.900000e-07	-5.054758e-06	-8.603585e-09	-3.577759e+01	-5.703946e+02
2.000000e-07	-5.018057e-06	-8.754500e-09	-3.551782e+01	-5.685291e+02
2.100000e-07	-4.979624e-06	-8.685878e-09	-3.524579e+01	-5.665235e+02
2.200000e-07	-4.939307e-06	-8.514884e-09	-3.496042e+01	-5.643637e+02
2.300000e-07	-4.896964e-06	-8.565062e-09	-3.466072e+01	-5.620401e+02
2.400000e-07	-4.852732e-06	-8.519571e-09	-3.434765e+01	-5.595483e+02
2.500000e-07	-4.806762e-06	-8.499574e-09	-3.402227e+01	-5.568894e+02
2.600000e-07	-4.758794e-06	-8.475889e-09	-3.368275e+01	-5.540696e+02
2.700000e-07	-4.708668e-06	-8.360282e-09	-3.332796e+01	-5.510989e+02
2.800000e-07	-4.656528e-06	-8.312729e-09	-3.295892e+01	-5.479897e+02
2.900000e-07	-4.602589e-06	-8.276017e-09	-3.257714e+01	-5.447557e+02
3.000000e-07	-4.547060e-06	-8.245479e-09	-3.218410e+01	-5.414093e+02
3.100000e-07	-4.489816e-06	-8.214959e-09	-3.177892e+01	-5.379610e+02
3.200000e-07	-4.430755e-06	-8.170914e-09	-3.136089e+01	-5.344178e+02
3.300000e-07	-4.370120e-06	-8.072984e-09	-3.093172e+01	-5.307826e+02
3.400000e-07	-4.308046e-06	-7.982562e-09	-3.049236e+01	-5.270542e+02
3.500000e-07	-4.244594e-06	-7.992648e-09	-3.004324e+01	-5.232278e+02
3.600000e-07	-4.179565e-06	-7.928650e-09	-2.958297e+01	-5.192954e+02
3.700000e-07	-4.112802e-06	-7.825540e-09	-2.911042e+01	-5.152474e+02
3.800000e-07	-4.044528e-06	-7.775829e-09	-2.862717e+01	-5.110738e+02
3.900000e-07	-3.974902e-06	-7.712658e-09	-2.813436e+01	-5.067649e+02
4.000000e-07	-3.904073e-06	-7.647347e-09	-2.763304e+01	-5.023130e+02
4.100000e-07	-3.831946e-06	-7.572202e-09	-2.712252e+01	-4.977123e+02
4.200000e-07	-3.758197e-06	-7.513146e-09	-2.660052e+01	-4.929600e+02
4.300000e-07	-3.682854e-06	-7.428711e-09	-2.606725e+01	-4.880554e+02
4.400000e-07	-3.606094e-06	-7.328629e-09	-2.552394e+01	-4.830000e+02
4.500000e-07	-3.527849e-06	-7.260480e-09	-2.497012e+01	-4.777965e+02
4.600000e-07	-3.448132e-06	-7.206719e-09	-2.440589e+01	-4.724480e+02
4.700000e-07	-3.367150e-06	-7.130651e-09	-2.383270e+01	-4.669574e+02
4.800000e-07	-3.285038e-06	-7.015183e-09	-2.325150e+01	-4.613265e+02
4.900000e-07	-3.201873e-06	-6.923716e-09	-2.266287e+01	-4.555557e+02
5.000000e-07	-3.117728e-06	-6.848615e-09	-2.206729e+01	-4.496435e+02
5.100000e-07	-3.032606e-06	-6.753504e-09	-2.146479e+01	-4.435873e+02
5.200000e-07	-2.946518e-06	-6.654884e-09	-2.085546e+01	-4.373830e+02
5.300000e-07	-2.859448e-06	-6.556487e-09	-2.023918e+01	-4.310259e+02
5.400000e-07	-2.771341e-06	-6.445791e-09	-1.961556e+01	-4.245114e+02
5.500000e-07	-2.682204e-06	-6.338260e-09	-1.898465e+01	-4.178351e+02
5.600000e-07	-2.591933e-06	-6.245442e-09	-1.834570e+01	-4.109935e+02
5.700000e-07	-2.500576e-06	-6.151328e-09	-1.769908e+01	-4.039841e+02
5.800000e-07	-2.408360e-06	-6.037193e-09	-1.704638e+01	-3.968052e+02
5.900000e-07	-2.315297e-06	-5.915763e-09	-1.638768e+01	-3.894560e+02
6.000000e-07	-2.221449e-06	-5.803602e-09	-1.572342e+01	-3.819359e+02
6.100000e-07	-2.126916e-06	-5.691554e-09	-1.505432e+01	-3.742442e+02
6.200000e-07	-2.031608e-06	-5.570258e-09	-1.437972e+01	-3.663795e+02
6.300000e-07	-1.935508e-06	-5.441095e-09	-1.369953e+01	-3.583392e+02
6.400000e-07	-1.838635e-06	-5.310689e-09	-1.301386e+01	-3.501197e+02
6.500000e-07	-1.740947e-06	-5.179126e-09	-1.232243e+01	-3.417159e+02
6.600000e-07	-1.642504e-06	-5.049208e-09	-1.162565e+01	-3.331218e+02
6.700000e-07	-1.543383e-06	-4.917893e-09	-1.092407e+01	-3.243307e+02
6.800000e-07	-1.443769e-06	-4.779379e-09	-1.021900e+01	-3.153357e+02
6.900000e-07	-1.343817e-06	-4.634779e-09	-9.511536e+00	-3.061305e+02
7.000000e-07	-1.243502e-06	-4.489188e-09	-8.801507e+00	-2.967095e+02
7.100000e-07	-1.142787e-06	-4.343639e-09	-8.088650e+00	-2.870687e+02
7.200000e-07	-1.041685e-06	-4.192361e-09	-7.373047e+00	-2.772054e+02
7.300000e-07	-9.401999e-07	-4.036400e-09	-6.654737e+00	-2.671185e+02
7.400000e-07	-8.384026e-07	-3.875319e-09	-5.934216e+00	-2.568081e+02
7.500000e-07	-7.363533e-07	-3.709884e-09	-5.211910e+00	-2.462750e+02
7.600000e-07	-6.341040e-07	-3.543877e-09	-4.488189e+00	-2.355203e+02
7.700000e-07	-5.316776e-07	-3.377654e-09	-3.763215e+00	-2.245446e+02
7.800000e-07	-4.290452e-07	-3.208347e-09	-3.036783e+00	-2.133475e+02
7.900000e-07	-3.262746e-07	-3.033552e-09	-2.309373e+00	-2.019270e+02
8.000000e-07	-2.233840e-07	-2.853633e-09	-1.581112e+00	-1.902793e+02
8.100000e-07	-1.203879e-07	-2.670132e-09	-8.521059e-01	-1.783988e+02
8.200000e-07	-1.731299e-08	-2.484842e-09	-1.225414e-01	-1.662777e+02
8.300000e-07	8.579372e-08	-2.296481e-09	6.072481e-01	-1.539070e+02
8.400000e-07	1.888672e-07	-2.103627e-09	1.336802e+00	-1.412762e+02
8.500000e-07	2.918904e-07	-1.906112e-09	2.066001e+00	-1.283742e+02
8.600000e-07	3.948184e-07	-1.707062e-09	2.794526e+00	-1.151897e+02
8.700000e-07	4.976362e-07	-1.503803e-09	3.522270e+00	-1.017117e+02
8.800000e-07	6.003258e-07	-1.294149e-09	4.249107e+00	-8.792973e+01
8.900000e-07	7.028428e-07	-1.078411e-09	4.974723e+00	-7.383481e+01
9.000000e-07	8.051312e-07	-8.570398e-10	5.698720e+00	-5.941933e+01
9.100000e-07	9.071305e-07	-6.323214e-10	6.420671e+00	-4.467781e+01
9.200000e-07	1.008829e-06	-4.030575e-10	7.140492e+00	-2.960733e+01
9.300000e-07	1.110182e-06	-1.698393e-10	7.857869e+00	-1.420816e+01
9.400000e-07	1.211079e-06	6.910279e-11	8.572017e+00	1.515490e+00
9.500000e-07	1.311493e-06	3.125909e-10	9.282751e+00	1.755462e+01
9.600000e-07	1.411525e-06	5.601865e-10	9.990776e+00	3.389459e+01
9.700000e-07	1.511217e-06	8.126611e-10	1.069640e+01	5.051423e+01
9.800000e-07	1.610426e-06	1.068452e-09	1.139860e+01	6.738519e+01
9.900000e-07	1.708972e-06	1.327097e-09	1.209611e+01	8.447147e+01
1.000000e-06	1.806678e-06	1.586601e-09	1.278767e+01	1.017293e+02
1.010000e-06	1.903468e-06	1.848791e-09	1.347275e+01	1.191078e+02
1.020000e-06	1.999419e-06	2.114353e-09	1.415189e+01	1.365495e+02
1.030000e-06	2.094606e-06	2.381043e-09	1.482562e+01	1.539919e+02
1.040000e-06	2.189089e-06	2.647368e-09	1.549438e+01	1.713698e+02
1.050000e-06	2.282920e-06	2.908900e-09	1.615852e+01	1.886167e+02
1.060000e-06	2.375974e-06	3.164576e-09	1.681715e+01	2.056679e+02
1.070000e-06	2.468232e-06	3.415562e-09	1.747015e+01	2.224625e+02
1.080000e-06	2.559806e-06	3.663577e-09	1.811831e+01	2.389454e+02
1.090000e-06	2.650500e-06	3.908103e-09	1.876024e+01	2.550693e+02
1.100000e-06	2.739956e-06	4.146768e-09	1.939342e+01	2.707955e+02
1.110000e-06	2.828212e-06	4.377533e-09	2.001809e+01	2.860948e+02
1.120000e-06	2.915536e-06	4.602478e-09	2.063617e+01	3.009466e+02
1.130000e-06	3.001980e-06	4.823652e-09	2.124802e+01	3.153388e+02
1.140000e-06	3.087462e-06	5.038884e-09	2.185306e+01	3.292660e+02
1.150000e-06	3.171934e-06	5.244193e-09	2.245096e+01	3.427279e+02
1.160000e-06	3.255494e-06	5.438886e-09	2.304239e+01	3.557277e+02
1.170000e-06	3.338037e-06	5.626955e-09	2.362663e+01	3.682705e+02
1.180000e-06	3.419256e-06	5.809039e-09	2.420150e+01	3.803614e+02
1.190000e-06	3.499088e-06	5.985045e-09	2.476655e+01	3.920051e+02
1.200000e-06	3.577696e-06	6.154379e-09	2.532294e+01	4.032053e+02
1.210000e-06	3.655066e-06	6.317720e-09	2.587056e+01	4.139642e+02
1.220000e-06	3.731155e-06	6.475116e-09	2.640912e+01	4.242838e+02
1.230000e-06	3.805812e-06	6.628002e-09	2.693755e+01	4.341659e+02
1.240000e-06	3.878811e-06	6.775772e-09	2.745423e+01	4.436134e+02
1.250000e-06	3.950274e-06	6.915175e-09	2.796005e+01	4.526315e+02
1.260000e-06	4.020313e-06	7.043874e-09	2.845579e+01	4.612279e+02
1.270000e-06	4.088987e-06	7.165063e-09	2.894186e+01	4.694137e+02
1.280000e-06	4.156385e-06	7.282366e-09	2.941890e+01	4.772034e+02
1.290000e-06	4.222231e-06	7.393678e-09	2.988496e+01	4.846143e+02
1.300000e-06	4.286367e-06	7.498671e-09	3.033891e+01	4.916663e+02
1.310000e-06	4.348993e-06	7.598593e-09	3.078218e+01	4.983807e+02
1.320000e-06	4.410171e-06	7.695684e-09	3.121520e+01	5.047789e+02
1.330000e-06	4.469954e-06	7.789281e-09	3.163835e+01	5.108816e+02
1.340000e-06	4.528183e-06	7.879537e-09	3.205049e+01	5.167074e+02
1.350000e-06	4.584574e-06	7.965415e-09	3.244963e+01	5.222723e+02
1.360000e-06	4.639287e-06	8.043954e-09	3.283688e+01	5.275893e+02
1.370000e-06	4.692382e-06	8.117572e-09	3.321269e+01	5.326680e+02
1.380000e-06	4.743571e-06	8.189897e-09	3.357500e+01	5.375150e+02
1.390000e-06	4.792643e-06	8.261504e-09	3.392234e+01	5.421344e+02
1.400000e-06	4.839835e-06	8.329988e-09	3.425636e+01	5.465286e+02
1.410000e-06	4.885408e-06	8.393684e-09	3.457893e+01	5.506986e+02
1.420000e-06	4.929454e-06	8.453298e-09	3.489069e+01	5.546456e+02
1.430000e-06	4.971812e-06	8.509790e-09	3.519050e+01	5.583705e+02
1.440000e-06	5.012203e-06	8.563179e-09	3.547638e+01	5.618751e+02
1.450000e-06	5.050800e-06	8.613589e-09	3.574957e+01	5.651623e+02
1.460000e-06	5.087747e-06	8.660581e-09	3.601108e+01	5.682353e+02
1.470000e-06	5.123027e-06	8.702535e-09	3.626079e+01	5.710987e+02
1.480000e-06	5.156432e-06	8.739534e-09	3.649724e+01	5.737571e+02
1.490000e-06	5.187892e-06	8.774125e-09	3.671991e+01	5.762155e+02
1.500000e-06	5.217599e-06	8.807896e-09	3.693018e+01	5.784791e+02
1.510000e-06	5.245663e-06	8.838862e-09	3.712881e+01	5.805529e+02
1.520000e-06	5.271873e-06	8.865803e-09	3.731433e+01	5.824419e+02
1.530000e-06	5.295962e-06	8.890228e-09	3.748483e+01	5.841510e+02
1.540000e-06	5.318102e-06	8.912329e-09	3.764154e+01	5.856856e+02
1.550000e-06	5.338494e-06	8.932033e-09	3.778587e+01	5.870511e+02
1.560000e-06	5.357121e-06	8.949043e-09	3.791771e+01	5.882536e+02
1.570000e-06	5.373791e-06	8.964249e-09	3.803571e+01	5.892995e+02
1.580000e-06	5.388399e-06	8.977639e-09	3.813910e+01	5.901957e+02
1.590000e-06	5.401012e-06	8.989738e-09	3.822837e+01	5.909490e+02
1.600000e-06	5.411452e-06	9.000088e-09	3.830227e+01	5.915660e+02
1.610000e-06	5.419669e-06	9.008622e-09	3.836043e+01	5.920524e+02
1.620000e-06	5.425967e-06	9.015397e-09	3.840501e+01	5.924128e+02
1.630000e-06	5.430476e-06	9.020256e-09	3.843692e+01	5.926503e+02
1.640000e-06	5.433114e-06	9.024461e-09	3.845559e+01	5.927662e+02
1.650000e-06	5.433737e-06	9.026460e-09	3.846000e+01	5.927605e+02
1.660000e-06	5.432459e-06	9.020572e-09	3.845096e+01	5.926319e+02
1.670000e-06	5.429510e-06	9.013898e-09	3.843008e+01	5.923787e+02
1.680000e-06	5.424967e-06	9.008374e-09	3.839793e+01	5.919993e+02
1.690000e-06	5.418534e-06	9.000688e-09	3.835239e+01	5.914932e+02
1.700000e-06	5.410181e-06	8.993358e-09	3.829327e+01	5.908619e+02
1.710000e-06	5.400244e-06	8.989092e-09	3.822294e+01	5.901094e+02
1.720000e-06	5.388637e-06	8.995194e-09	3.814078e+01	5.892422e+02
1.730000e-06	5.375090e-06	8.986452e-09	3.804490e+01	5.882699e+02
1.740000e-06	5.359444e-06	8.890938e-09	3.793415e+01	5.872041e+02
1.750000e-06	5.341442e-06	8.874797e-09	3.780673e+01	5.860577e+02
1.760000e-06	5.320749e-06	8.883255e-09	3.766027e+01	5.848439e+02
1.770000e-06	5.297668e-06	8.887162e-09	3.749690e+01	5.835744e+02
1.780000e-06	5.273197e-06	8.997020e-09	3.732370e+01	5.822583e+02
1.790000e-06	5.248080e-06	8.823763e-09	3.714592e+01	5.809007e+02
1.800000e-06	5.221695e-06	8.757859e-09	3.695917e+01	5.795018e+02
1.810000e-06	5.193098e-06	8.894913e-09	3.675675e+01	5.780567e+02
1.820000e-06	5.162650e-06	8.687748e-09	3.654125e+01	5.765554e+02
1.830000e-06	5.130529e-06	8.740583e-09	3.631389e+01	5.749834e+02
1.840000e-06	5.096360e-06	8.847223e-09	3.607204e+01	5.733230e+02
1.850000e-06	5.060555e-06	8.582060e-09	3.581862e+01	5.715550e+02
1.860000e-06	5.023044e-06	8.673248e-09	3.555312e+01	5.696605e+02
1.870000e-06	4.983564e-06	8.719718e-09	3.527367e+01	5.676227e+02
1.880000e-06	4.942434e-06	8.562833e-09	3.498256e+01	5.654281e+02
1.890000e-06	4.899509e-06	8.630578e-09	3.467874e+01	5.630683e+02
1.900000e-06	4.854886e-06	8.488713e-09	3.436289e+01	5.605401e+02
1.910000e-06	4.808498e-06	8.472605e-09	3.403456e+01	5.578457e+02
1.920000e-06	4.760006e-06	8.510193e-09	3.369133e+01	5.549922e+02
1.930000e-06	4.709851e-06	8.347268e-09	3.333633e+01	5.519904e+02
1.940000e-06	4.657998e-06	8.426728e-09	3.296932e+01	5.488530e+02
1.950000e-06	4.604028e-06	8.345483e-09	3.258732e+01	5.455936e+02
1.960000e-06	4.548069e-06	8.200875e-09	3.219124e+01	5.422243e+02
1.970000e-06	4.490360e-06	8.176781e-09	3.178278e+01	5.387549e+02
1.980000e-06	4.431255e-06	8.146828e-09	3.136443e+01	5.351915e+02
1.990000e-06	4.370655e-06	8.163970e-09	3.093550e+01	5.315362e+02
2.000000e-06	4.308336e-06	8.002762e-09	3.049441e+01	5.277870e+02
2.010000e-06	4.244427e-06	7.975801e-09	3.004206e+01	5.239383e+02
2.020000e-06	4.178984e-06	7.966064e-09	2.957886e+01	5.199816e+02
2.030000e-06	4.112140e-06	7.810584e-09	2.910573e+01	5.159073e+02
2.040000e-06	4.043904e-06	7.790536e-09	2.862276e+01	5.117051e+02
2.050000e-06	3.974115e-06	7.743413e-09	2.812880e+01	5.073658e+02
2.060000e-06	3.902754e-06	7.687113e-09	2.762370e+01	5.028821e+02
2.070000e-06	3.830020e-06	7.563956e-09	2.710889e+01	4.982488e+02
2.080000e-06	3.755992e-06	7.483963e-09	2.658492e+01	4.934634e+02
2.090000e-06	3.680597e-06	7.485067e-09	2.605127e+01	4.885260e+02
2.100000e-06	3.603765e-06	7.379566e-09	2.550746e+01	4.834383e+02
2.110000e-06	3.525368e-06	7.274597e-09	2.495257e+01	4.782031e+02
2.120000e-06	3.445529e-06	7.182567e-09	2.438746e+01	4.728237e+02
2.130000e-06	3.364525e-06	7.128553e-09	2.381412e+01	4.673026e+02
2.140000e-06	3.282398e-06	7.034822e-09	2.323282e+01	4.616414e+02
2.150000e-06	3.199196e-06	6.938206e-09	2.264392e+01	4.558401e+02
2.160000e-06	3.114936e-06	6.877398e-09	2.204753e+01	4.498970e+02
2.170000e-06	3.029481e-06	6.763757e-09	2.144267e+01	4.438091e+02
2.180000e-06	2.942735e-06	6.655723e-09	2.082869e+01	4.375721e+02
2.190000e-06	2.854793e-06	6.564510e-09	2.020623e+01	4.311814e+02
2.200000e-06	2.765856e-06	6.488899e-09	1.957674e+01	4.246322e+02
2.210000e-06	2.676028e-06	6.387792e-09	1.894093e+01	4.179204e+02
2.220000e-06	2.585334e-06	6.265648e-09	1.829900e+01	4.110427e+02
2.230000e-06	2.493822e-06	6.154684e-09	1.765128e+01	4.039967e+02
2.240000e-06	2.401500e-06	6.045445e-09	1.699783e+01	3.967810e+02
2.250000e-06	2.308284e-06	5.938028e-09	1.633804e+01	3.893950e+02
2.260000e-06	2.214184e-06	5.825318e-09	1.567200e+01	3.818379e+02
2.270000e-06	2.119101e-06	5.709007e-09	1.499900e+01	3.741089e+02
2.280000e-06	2.023004e-06	5.583415e-09	1.431883e+01	3.662065e+02
2.290000e-06	1.926211e-06	5.462408e-09	1.363373e+01	3.581278e+02
2.300000e-06	1.828944e-06	5.345220e-09	1.294527e+01	3.498689e+02
2.310000e-06	1.731145e-06	5.221908e-09	1.225305e+01	3.414246e+02
2.320000e-06	1.632743e-06	5.086407e-09	1.155656e+01	3.327885e+02
2.330000e-06	1.533831e-06	4.942123e-09	1.085646e+01	3.239539e+02
2.340000e-06	1.434496e-06	4.801099e-09	1.015337e+01	3.149141e+02
2.350000e-06	1.334742e-06	4.664542e-09	9.447309e+00	3.056627e+02
2.360000e-06	1.234576e-06	4.531636e-09	8.738330e+00	2.961946e+02
2.370000e-06	1.134063e-06	4.387954e-09	8.026902e+00	2.865060e+02
2.380000e-06	1.033206e-06	4.228547e-09	7.313035e+00	2.765945e+02
2.390000e-06	9.319608e-07	4.069611e-09	6.596421e+00	2.664593e+02
2.400000e-06	8.303364e-07	3.919634e-09	5.877123e+00	2.561007e+02
2.410000e-06	7.283570e-07	3.766349e-09	5.155313e+00	2.455198e+02
2.420000e-06	6.260637e-07	3.601920e-09	4.431280e+00	2.347174e+02
2.430000e-06	5.235022e-07	3.430391e-09	3.705349e+00	2.236940e+02
2.440000e-06	4.207321e-07	3.258019e-09	2.977943e+00	2.124489e+02
2.450000e-06	3.177600e-07	3.086407e-09	2.249106e+00	2.009798e+02
2.460000e-06	2.145700e-07	2.914122e-09	1.518727e+00	1.892824e+02
2.470000e-06	1.112105e-07	2.738292e-09	7.871481e-01	1.773507e+02
2.480000e-06	7.799061e-09	2.550465e-09	5.520177e-02	1.651766e+02
2.490000e-06	-9.561834e-08	2.352383e-09	-6.767868e-01	1.527507e+02
2.500000e-06	-1.990154e-07	2.155719e-09	-1.408631e+00	1.400624e+02
2.510000e-06	-3.023018e-07	1.961742e-09	-2.139693e+00	1.271005e+02
2.520000e-06	-4.054619e-07	1.761138e-09	-2.869860e+00	1.138537e+02
2.530000e-06	-5.085116e-07	1.552852e-09	-3.599246e+00	1.003110e+02
2.540000e-06	-6.113412e-07	1.342390e-09	-4.327074e+00	8.646245e+01
2.550000e-06	-7.138223e-07	1.128694e-09	-5.052436e+00	7.229907e+01
2.560000e-06	-8.159166e-07	9.075292e-10	-5.775060e+00	5.781378e+01
2.570000e-06	-9.175895e-07	6.809906e-10	-6.494700e+00	4.300159e+01
2.580000e-06	-1.018860e-06	4.496372e-10	-7.211495e+00	2.786020e+01
2.590000e-06	-1.119761e-06	2.098640e-10	-7.925668e+00	1.239066e+01
2.600000e-06	-1.220255e-06	-3.548122e-11	-8.636969e+00	-3.401859e+00
2.610000e-06	-1.320261e-06	-2.806991e-10	-9.344813e+00	-1.950723e+01
2.620000e-06	-1.419783e-06	-5.290361e-10	-1.004923e+01	-3.590947e+01
2.630000e-06	-1.518861e-06	-7.845656e-10	-1.075050e+01	-5.258594e+01
2.640000e-06	-1.617463e-06	-1.045354e-09	-1.144841e+01	-6.950667e+01
2.650000e-06	-1.715509e-06	-1.307716e-09	-1.214238e+01	-8.663399e+01
2.660000e-06	-1.812885e-06	-1.569632e-09	-1.283160e+01	-1.039226e+02
2.670000e-06	-1.909671e-06	-1.834098e-09	-1.351666e+01	-1.213199e+02
2.680000e-06	-2.006002e-06	-2.100810e-09	-1.419849e+01	-1.387675e+02
2.690000e-06	-2.101751e-06	-2.370539e-09	-1.487620e+01	-1.562020e+02
2.700000e-06	-2.196588e-06	-2.641381e-09	-1.554745e+01	-1.735577e+02
2.710000e-06	-2.290387e-06	-2.908003e-09	-1.621136e+01	-1.907684e+02
2.720000e-06	-2.383277e-06	-3.167697e-09	-1.686884e+01	-2.077699e+02
2.730000e-06	-2.475277e-06	-3.422725e-09	-1.752002e+01	-2.245024e+02
2.740000e-06	-2.566391e-06	-3.674520e-09	-1.816492e+01	-2.409124e+02
2.750000e-06	-2.656594e-06	-3.919066e-09	-1.880337e+01	-2.569543e+02
2.760000e-06	-2.745817e-06	-4.156121e-09	-1.943490e+01	-2.725916e+02
2.770000e-06	-2.834263e-06	-4.388216e-09	-2.006092e+01	-2.877967e+02
2.780000e-06	-2.921948e-06	-4.615410e-09	-2.068156e+01	-3.025511e+02
2.790000e-06	-3.008417e-06	-4.836326e-09	-2.129358e+01	-3.168443e+02
2.800000e-06	-3.093560e-06	-5.052405e-09	-2.189623e+01	-3.306719e+02
2.810000e-06	-3.177616e-06	-5.262186e-09	-2.249117e+01	-3.440348e+02
2.820000e-06	-3.260723e-06	-5.460871e-09	-2.307941e+01	-3.569366e+02
2.830000e-06	-3.342763e-06	-5.649310e-09	-2.366009e+01	-3.693824e+02
2.840000e-06	-3.423704e-06	-5.831315e-09	-2.423298e+01	-3.813775e+02
2.850000e-06	-3.503548e-06	-6.006031e-09	-2.479812e+01	-3.929262e+02
2.860000e-06	-3.581975e-06	-6.171101e-09	-2.535323e+01	-4.040320e+02
2.870000e-06	-3.658823e-06	-6.330220e-09	-2.589716e+01	-4.146970e+02
2.880000e-06	-3.734188e-06	-6.486161e-09	-2.643059e+01	-4.249230e+02
2.890000e-06	-3.808112e-06	-6.637740e-09	-2.695383e+01	-4.347120e+02
2.900000e-06	-3.880731e-06	-6.785312e-09	-2.746782e+01	-4.440673e+02
2.910000e-06	-3.952012e-06	-6.926245e-09	-2.797235e+01	-4.529946e+02
2.920000e-06	-4.021668e-06	-7.056650e-09	-2.846537e+01	-4.615023e+02
2.930000e-06	-4.089777e-06	-7.178897e-09	-2.894745e+01	-4.696022e+02
2.940000e-06	-4.156511e-06	-7.296910e-09	-2.941979e+01	-4.773095e+02
