# Temperatura_=_81.46
# Concentracion g/m^3_=_15000.0
# C_Vs_to_Am_M_A/Vsm_=_65563218390.804596
# pendiente_HvsI_1/m_=_3716.3
# ordenada_HvsI_A/m_=_1297.0
# frecuencia_Hz_=_301598.08969264204

Tiempo_(s)	Campo_(V.s)	Magnetizacion_(V.s)	Campo_(kA/m)	Magnetizacion_(A/m)
0.000000e+00	-5.438027e-06	-9.738913e-09	-3.833742e+01	-6.360957e+02
1.000000e-08	-5.435246e-06	-9.736225e-09	-3.831782e+01	-6.358206e+02
2.000000e-08	-5.430656e-06	-9.727798e-09	-3.828546e+01	-6.354011e+02
3.000000e-08	-5.424448e-06	-9.720313e-09	-3.824170e+01	-6.348338e+02
4.000000e-08	-5.416664e-06	-9.709116e-09	-3.818682e+01	-6.341179e+02
5.000000e-08	-5.407037e-06	-9.692211e-09	-3.811895e+01	-6.332561e+02
6.000000e-08	-5.395370e-06	-9.670919e-09	-3.803670e+01	-6.322548e+02
7.000000e-08	-5.381808e-06	-9.638739e-09	-3.794109e+01	-6.311238e+02
8.000000e-08	-5.366182e-06	-9.658331e-09	-3.783093e+01	-6.298758e+02
9.000000e-08	-5.348302e-06	-9.707952e-09	-3.770488e+01	-6.285245e+02
1.000000e-07	-5.328305e-06	-9.650031e-09	-3.756390e+01	-6.270841e+02
1.100000e-07	-5.306322e-06	-9.588845e-09	-3.740892e+01	-6.255668e+02
1.200000e-07	-5.282598e-06	-9.530886e-09	-3.724167e+01	-6.239817e+02
1.300000e-07	-5.257296e-06	-9.386703e-09	-3.706330e+01	-6.223332e+02
1.400000e-07	-5.230388e-06	-9.513336e-09	-3.687360e+01	-6.206206e+02
1.500000e-07	-5.201890e-06	-9.554178e-09	-3.667269e+01	-6.188377e+02
1.600000e-07	-5.171933e-06	-9.337094e-09	-3.646150e+01	-6.169728e+02
1.700000e-07	-5.140395e-06	-9.457889e-09	-3.623916e+01	-6.150104e+02
1.800000e-07	-5.106714e-06	-9.379934e-09	-3.600171e+01	-6.129321e+02
1.900000e-07	-5.071155e-06	-9.178861e-09	-3.575103e+01	-6.107187e+02
2.000000e-07	-5.034119e-06	-9.341750e-09	-3.548992e+01	-6.083519e+02
2.100000e-07	-4.995311e-06	-9.266611e-09	-3.521633e+01	-6.058164e+02
2.200000e-07	-4.954637e-06	-9.147839e-09	-3.492958e+01	-6.031008e+02
2.300000e-07	-4.911980e-06	-9.197394e-09	-3.462886e+01	-6.001991e+02
2.400000e-07	-4.867390e-06	-9.076744e-09	-3.431450e+01	-5.971109e+02
2.500000e-07	-4.821028e-06	-9.023939e-09	-3.398766e+01	-5.938408e+02
2.600000e-07	-4.772685e-06	-8.994749e-09	-3.364685e+01	-5.903979e+02
2.700000e-07	-4.722195e-06	-8.933283e-09	-3.329090e+01	-5.867946e+02
2.800000e-07	-4.669704e-06	-8.895983e-09	-3.292084e+01	-5.830443e+02
2.900000e-07	-4.615393e-06	-8.781543e-09	-3.253796e+01	-5.791608e+02
3.000000e-07	-4.559471e-06	-8.714819e-09	-3.214371e+01	-5.751558e+02
3.100000e-07	-4.501782e-06	-8.703406e-09	-3.173701e+01	-5.710381e+02
3.200000e-07	-4.442242e-06	-8.677094e-09	-3.131726e+01	-5.668128e+02
3.300000e-07	-4.381193e-06	-8.576090e-09	-3.088687e+01	-5.624809e+02
3.400000e-07	-4.318750e-06	-8.466493e-09	-3.044666e+01	-5.580394e+02
3.500000e-07	-4.254896e-06	-8.429613e-09	-2.999650e+01	-5.534822e+02
3.600000e-07	-4.189350e-06	-8.343447e-09	-2.953441e+01	-5.488012e+02
3.700000e-07	-4.122084e-06	-8.275044e-09	-2.906019e+01	-5.439868e+02
3.800000e-07	-4.053371e-06	-8.228581e-09	-2.857577e+01	-5.390300e+02
3.900000e-07	-3.983275e-06	-8.122339e-09	-2.808160e+01	-5.339226e+02
4.000000e-07	-3.911972e-06	-8.022846e-09	-2.757892e+01	-5.286588e+02
4.100000e-07	-3.839278e-06	-7.939459e-09	-2.706644e+01	-5.232348e+02
4.200000e-07	-3.764966e-06	-7.892330e-09	-2.654255e+01	-5.176495e+02
4.300000e-07	-3.689175e-06	-7.806905e-09	-2.600823e+01	-5.119038e+02
4.400000e-07	-3.612001e-06	-7.692289e-09	-2.546416e+01	-5.060004e+02
4.500000e-07	-3.533345e-06	-7.588473e-09	-2.490965e+01	-4.999425e+02
4.600000e-07	-3.453242e-06	-7.494726e-09	-2.434493e+01	-4.937338e+02
4.700000e-07	-3.371894e-06	-7.419991e-09	-2.377144e+01	-4.873769e+02
4.800000e-07	-3.289368e-06	-7.325053e-09	-2.318964e+01	-4.808735e+02
4.900000e-07	-3.205786e-06	-7.222792e-09	-2.260040e+01	-4.742234e+02
5.000000e-07	-3.121211e-06	-7.105765e-09	-2.200416e+01	-4.674250e+02
5.100000e-07	-3.035628e-06	-6.983866e-09	-2.140081e+01	-4.604753e+02
5.200000e-07	-2.949064e-06	-6.878493e-09	-2.079054e+01	-4.533698e+02
5.300000e-07	-2.861629e-06	-6.784254e-09	-2.017414e+01	-4.461038e+02
5.400000e-07	-2.773201e-06	-6.676984e-09	-1.955073e+01	-4.386722e+02
5.500000e-07	-2.683512e-06	-6.546622e-09	-1.891843e+01	-4.310707e+02
5.600000e-07	-2.592703e-06	-6.413478e-09	-1.827824e+01	-4.232952e+02
5.700000e-07	-2.500954e-06	-6.298452e-09	-1.763142e+01	-4.153431e+02
5.800000e-07	-2.408297e-06	-6.194135e-09	-1.697820e+01	-4.072126e+02
5.900000e-07	-2.314848e-06	-6.071622e-09	-1.631940e+01	-3.989026e+02
6.000000e-07	-2.220582e-06	-5.928756e-09	-1.565483e+01	-3.904127e+02
6.100000e-07	-2.125585e-06	-5.786649e-09	-1.498512e+01	-3.817427e+02
6.200000e-07	-2.029987e-06	-5.652349e-09	-1.431116e+01	-3.728919e+02
6.300000e-07	-1.933528e-06	-5.516621e-09	-1.363113e+01	-3.638592e+02
6.400000e-07	-1.836048e-06	-5.379937e-09	-1.294391e+01	-3.546427e+02
6.500000e-07	-1.737708e-06	-5.235622e-09	-1.225063e+01	-3.452392e+02
6.600000e-07	-1.638768e-06	-5.079548e-09	-1.155311e+01	-3.356446e+02
6.700000e-07	-1.539426e-06	-4.924195e-09	-1.085276e+01	-3.258540e+02
6.800000e-07	-1.439605e-06	-4.778210e-09	-1.014904e+01	-3.158618e+02
6.900000e-07	-1.339250e-06	-4.633108e-09	-9.441551e+00	-3.056617e+02
7.000000e-07	-1.238427e-06	-4.474315e-09	-8.730758e+00	-2.952478e+02
7.100000e-07	-1.137191e-06	-4.302267e-09	-8.017059e+00	-2.846141e+02
7.200000e-07	-1.035627e-06	-4.127832e-09	-7.301041e+00	-2.737554e+02
7.300000e-07	-9.337234e-07	-3.959204e-09	-6.582635e+00	-2.626669e+02
7.400000e-07	-8.314720e-07	-3.791279e-09	-5.861776e+00	-2.513448e+02
7.500000e-07	-7.289148e-07	-3.616739e-09	-5.138760e+00	-2.397858e+02
7.600000e-07	-6.260864e-07	-3.431225e-09	-4.413833e+00	-2.279871e+02
7.700000e-07	-5.230898e-07	-3.239051e-09	-3.687719e+00	-2.159461e+02
7.800000e-07	-4.200164e-07	-3.050251e-09	-2.961064e+00	-2.036602e+02
7.900000e-07	-3.168771e-07	-2.864373e-09	-2.233945e+00	-1.911262e+02
8.000000e-07	-2.136412e-07	-2.674479e-09	-1.506145e+00	-1.783400e+02
8.100000e-07	-1.103276e-07	-2.476033e-09	-7.777960e-01	-1.652957e+02
8.200000e-07	-6.966626e-09	-2.271929e-09	-4.911386e-02	-1.519861e+02
8.300000e-07	9.639259e-08	-2.065663e-09	6.795560e-01	-1.384014e+02
8.400000e-07	1.997050e-07	-1.857593e-09	1.407896e+00	-1.245295e+02
8.500000e-07	3.029675e-07	-1.644659e-09	2.135884e+00	-1.103560e+02
8.600000e-07	4.061693e-07	-1.424194e-09	2.863444e+00	-9.586430e+01
8.700000e-07	5.093259e-07	-1.193806e-09	3.590685e+00	-8.103610e+01
8.800000e-07	6.124056e-07	-9.567035e-10	4.317385e+00	-6.585241e+01
8.900000e-07	7.153699e-07	-7.178606e-10	5.043270e+00	-5.029472e+01
9.000000e-07	8.181195e-07	-4.751714e-10	5.767642e+00	-3.434654e+01
9.100000e-07	9.205601e-07	-2.276267e-10	6.489836e+00	-1.799525e+01
9.200000e-07	1.022679e-06	2.664190e-11	7.209761e+00	-1.234076e+00
9.300000e-07	1.124375e-06	2.868863e-10	7.926709e+00	1.593581e+01
9.400000e-07	1.225631e-06	5.532018e-10	8.640549e+00	3.350343e+01
9.500000e-07	1.326494e-06	8.235339e-10	9.351621e+00	5.144634e+01
9.600000e-07	1.426931e-06	1.096985e-09	1.005969e+01	6.972961e+01
9.700000e-07	1.526835e-06	1.377782e-09	1.076400e+01	8.830533e+01
9.800000e-07	1.626162e-06	1.663905e-09	1.146424e+01	1.071130e+02
9.900000e-07	1.724991e-06	1.951501e-09	1.216098e+01	1.260809e+02
1.000000e-06	1.823148e-06	2.238804e-09	1.285297e+01	1.451277e+02
1.010000e-06	1.920422e-06	2.525636e-09	1.353874e+01	1.641660e+02
1.020000e-06	2.016775e-06	2.812151e-09	1.421802e+01	1.831049e+02
1.030000e-06	2.112280e-06	3.098557e-09	1.489132e+01	2.018544e+02
1.040000e-06	2.207119e-06	3.382398e-09	1.555992e+01	2.203287e+02
1.050000e-06	2.301237e-06	3.658143e-09	1.622344e+01	2.384499e+02
1.060000e-06	2.394537e-06	3.922707e-09	1.688119e+01	2.561512e+02
1.070000e-06	2.487069e-06	4.178336e-09	1.753353e+01	2.733784e+02
1.080000e-06	2.578844e-06	4.429295e-09	1.818053e+01	2.900920e+02
1.090000e-06	2.669818e-06	4.675446e-09	1.882189e+01	3.062666e+02
1.100000e-06	2.759784e-06	4.914204e-09	1.945614e+01	3.218907e+02
1.110000e-06	2.848510e-06	5.141947e-09	2.008164e+01	3.369644e+02
1.120000e-06	2.936094e-06	5.360732e-09	2.069910e+01	3.514976e+02
1.130000e-06	3.022746e-06	5.574398e-09	2.130999e+01	3.655064e+02
1.140000e-06	3.108460e-06	5.782116e-09	2.191427e+01	3.790110e+02
1.150000e-06	3.193241e-06	5.980644e-09	2.251196e+01	3.920322e+02
1.160000e-06	3.277064e-06	6.170540e-09	2.310290e+01	4.045895e+02
1.170000e-06	3.359775e-06	6.355247e-09	2.368600e+01	4.166992e+02
1.180000e-06	3.441185e-06	6.533156e-09	2.425993e+01	4.283735e+02
1.190000e-06	3.521290e-06	6.703516e-09	2.482467e+01	4.396203e+02
1.200000e-06	3.600153e-06	6.866347e-09	2.538064e+01	4.504441e+02
1.210000e-06	3.677724e-06	7.024078e-09	2.592751e+01	4.608465e+02
1.220000e-06	3.753994e-06	7.176023e-09	2.646520e+01	4.708280e+02
1.230000e-06	3.828805e-06	7.321901e-09	2.699261e+01	4.803894e+02
1.240000e-06	3.901961e-06	7.462517e-09	2.750835e+01	4.895336e+02
1.250000e-06	3.973575e-06	7.598521e-09	2.801322e+01	4.982663e+02
1.260000e-06	4.043850e-06	7.727221e-09	2.850865e+01	5.065967e+02
1.270000e-06	4.112763e-06	7.848542e-09	2.899448e+01	5.145382e+02
1.280000e-06	4.180282e-06	7.963987e-09	2.947048e+01	5.221073e+02
1.290000e-06	4.246188e-06	8.071742e-09	2.993511e+01	5.293236e+02
1.300000e-06	4.310346e-06	8.173184e-09	3.038741e+01	5.362080e+02
1.310000e-06	4.373011e-06	8.268928e-09	3.082919e+01	5.427823e+02
1.320000e-06	4.434281e-06	8.362975e-09	3.126114e+01	5.490671e+02
1.330000e-06	4.494174e-06	8.455547e-09	3.168338e+01	5.550815e+02
1.340000e-06	4.552491e-06	8.544733e-09	3.209450e+01	5.608418e+02
1.350000e-06	4.608977e-06	8.629071e-09	3.249272e+01	5.663614e+02
1.360000e-06	4.663749e-06	8.708768e-09	3.287886e+01	5.716507e+02
1.370000e-06	4.716815e-06	8.785526e-09	3.325297e+01	5.767171e+02
1.380000e-06	4.767966e-06	8.858382e-09	3.361358e+01	5.815658e+02
1.390000e-06	4.817020e-06	8.928173e-09	3.395940e+01	5.862001e+02
1.400000e-06	4.864176e-06	8.994584e-09	3.429185e+01	5.906220e+02
1.410000e-06	4.909717e-06	9.057558e-09	3.461290e+01	5.948330e+02
1.420000e-06	4.953727e-06	9.118495e-09	3.492317e+01	5.988344e+02
1.430000e-06	4.995996e-06	9.177945e-09	3.522116e+01	6.026273e+02
1.440000e-06	5.036298e-06	9.235412e-09	3.550529e+01	6.062128e+02
1.450000e-06	5.074881e-06	9.289328e-09	3.577729e+01	6.095923e+02
1.460000e-06	5.111893e-06	9.338603e-09	3.603822e+01	6.127666e+02
1.470000e-06	5.147191e-06	9.382989e-09	3.628707e+01	6.157366e+02
1.480000e-06	5.180521e-06	9.422224e-09	3.652204e+01	6.185030e+02
1.490000e-06	5.211932e-06	9.455709e-09	3.674348e+01	6.210661e+02
1.500000e-06	5.241592e-06	9.485548e-09	3.695258e+01	6.234268e+02
1.510000e-06	5.269573e-06	9.514478e-09	3.714985e+01	6.255860e+02
1.520000e-06	5.295642e-06	9.543093e-09	3.733363e+01	6.275460e+02
1.530000e-06	5.319561e-06	9.570653e-09	3.750226e+01	6.293100e+02
1.540000e-06	5.341548e-06	9.594809e-09	3.765726e+01	6.308832e+02
1.550000e-06	5.361824e-06	9.616067e-09	3.780021e+01	6.322722e+02
1.560000e-06	5.380247e-06	9.635141e-09	3.793008e+01	6.334855e+02
1.570000e-06	5.396635e-06	9.651450e-09	3.804562e+01	6.345325e+02
1.580000e-06	5.411098e-06	9.663991e-09	3.814758e+01	6.354233e+02
1.590000e-06	5.423615e-06	9.673755e-09	3.823582e+01	6.361677e+02
1.600000e-06	5.433880e-06	9.681827e-09	3.830819e+01	6.367746e+02
1.610000e-06	5.441906e-06	9.688436e-09	3.836478e+01	6.372508e+02
1.620000e-06	5.448041e-06	9.693466e-09	3.840802e+01	6.376007e+02
1.630000e-06	5.452442e-06	9.698226e-09	3.843905e+01	6.378257e+02
1.640000e-06	5.454949e-06	9.703851e-09	3.845673e+01	6.379246e+02
1.650000e-06	5.455414e-06	9.707592e-09	3.846000e+01	6.378938e+02
1.660000e-06	5.454012e-06	9.702565e-09	3.845012e+01	6.377282e+02
1.670000e-06	5.450937e-06	9.696802e-09	3.842844e+01	6.374222e+02
1.680000e-06	5.446172e-06	9.690987e-09	3.839485e+01	6.369708e+02
1.690000e-06	5.439479e-06	9.680483e-09	3.834766e+01	6.363712e+02
1.700000e-06	5.430961e-06	9.669385e-09	3.828761e+01	6.356232e+02
1.710000e-06	5.420867e-06	9.661216e-09	3.821645e+01	6.347304e+02
1.720000e-06	5.409051e-06	9.667755e-09	3.813315e+01	6.337000e+02
1.730000e-06	5.395181e-06	9.639532e-09	3.803537e+01	6.325424e+02
1.740000e-06	5.379232e-06	9.527491e-09	3.792293e+01	6.312706e+02
1.750000e-06	5.361004e-06	9.529123e-09	3.779442e+01	6.298987e+02
1.760000e-06	5.340003e-06	9.540542e-09	3.764637e+01	6.284404e+02
1.770000e-06	5.316632e-06	9.561601e-09	3.748161e+01	6.269075e+02
1.780000e-06	5.291988e-06	9.654003e-09	3.730787e+01	6.253082e+02
1.790000e-06	5.266652e-06	9.423755e-09	3.712925e+01	6.236458e+02
1.800000e-06	5.239930e-06	9.412365e-09	3.694086e+01	6.219185e+02
1.810000e-06	5.210918e-06	9.538158e-09	3.673633e+01	6.201186e+02
1.820000e-06	5.180070e-06	9.295485e-09	3.651886e+01	6.182339e+02
1.830000e-06	5.147591e-06	9.418578e-09	3.628989e+01	6.162478e+02
1.840000e-06	5.113129e-06	9.483577e-09	3.604694e+01	6.141417e+02
1.850000e-06	5.077072e-06	9.199545e-09	3.579274e+01	6.118965e+02
1.860000e-06	5.039203e-06	9.334917e-09	3.552577e+01	6.094943e+02
1.870000e-06	4.999372e-06	9.269958e-09	3.524496e+01	6.069206e+02
1.880000e-06	4.957925e-06	9.100171e-09	3.495277e+01	6.041650e+02
1.890000e-06	4.914658e-06	9.236553e-09	3.464774e+01	6.012228e+02
1.900000e-06	4.869644e-06	9.086511e-09	3.433040e+01	5.980946e+02
1.910000e-06	4.822764e-06	9.086134e-09	3.399989e+01	5.947862e+02
1.920000e-06	4.773887e-06	9.025850e-09	3.365532e+01	5.913074e+02
1.930000e-06	4.723435e-06	8.839845e-09	3.329964e+01	5.876709e+02
1.940000e-06	4.671166e-06	8.988668e-09	3.293115e+01	5.838906e+02
1.950000e-06	4.616734e-06	8.876684e-09	3.254741e+01	5.799798e+02
1.960000e-06	4.560419e-06	8.750420e-09	3.215039e+01	5.759496e+02
1.970000e-06	4.502444e-06	8.701541e-09	3.174168e+01	5.718081e+02
1.980000e-06	4.442992e-06	8.609951e-09	3.132255e+01	5.675596e+02
1.990000e-06	4.381910e-06	8.627829e-09	3.089193e+01	5.632041e+02
2.000000e-06	4.319045e-06	8.484598e-09	3.044874e+01	5.587380e+02
2.010000e-06	4.254643e-06	8.482433e-09	2.999471e+01	5.541546e+02
2.020000e-06	4.188801e-06	8.409805e-09	2.953054e+01	5.494454e+02
2.030000e-06	4.121533e-06	8.233734e-09	2.905630e+01	5.446008e+02
2.040000e-06	4.052748e-06	8.223630e-09	2.857138e+01	5.396119e+02
2.050000e-06	3.982395e-06	8.149131e-09	2.807540e+01	5.344710e+02
2.060000e-06	3.910568e-06	8.108176e-09	2.756903e+01	5.291727e+02
2.070000e-06	3.837456e-06	7.968269e-09	2.705360e+01	5.237137e+02
2.080000e-06	3.763051e-06	7.863509e-09	2.652905e+01	5.180935e+02
2.090000e-06	3.687189e-06	7.827504e-09	2.599423e+01	5.123133e+02
2.100000e-06	3.609744e-06	7.722676e-09	2.544826e+01	5.063760e+02
2.110000e-06	3.530733e-06	7.655789e-09	2.489124e+01	5.002852e+02
2.120000e-06	3.450490e-06	7.534483e-09	2.432554e+01	4.940441e+02
2.130000e-06	3.369132e-06	7.442224e-09	2.375197e+01	4.876553e+02
2.140000e-06	3.286611e-06	7.322334e-09	2.317020e+01	4.811200e+02
2.150000e-06	3.203070e-06	7.216159e-09	2.258126e+01	4.744380e+02
2.160000e-06	3.118464e-06	7.155803e-09	2.198479e+01	4.676070e+02
2.170000e-06	3.032524e-06	7.051171e-09	2.137892e+01	4.606239e+02
2.180000e-06	2.945283e-06	6.926002e-09	2.076389e+01	4.534840e+02
2.190000e-06	2.856994e-06	6.781245e-09	2.014146e+01	4.461825e+02
2.200000e-06	2.767743e-06	6.688214e-09	1.951225e+01	4.387145e+02
2.210000e-06	2.677527e-06	6.600447e-09	1.887624e+01	4.310755e+02
2.220000e-06	2.586426e-06	6.480221e-09	1.823399e+01	4.232620e+02
2.230000e-06	2.494544e-06	6.338203e-09	1.758623e+01	4.152713e+02
2.240000e-06	2.401775e-06	6.204005e-09	1.693222e+01	4.071020e+02
2.250000e-06	2.307942e-06	6.082844e-09	1.627071e+01	3.987530e+02
2.260000e-06	2.213168e-06	5.953659e-09	1.560256e+01	3.902242e+02
2.270000e-06	2.117582e-06	5.835344e-09	1.492870e+01	3.815150e+02
2.280000e-06	2.021167e-06	5.707809e-09	1.424898e+01	3.726249e+02
2.290000e-06	1.924015e-06	5.559676e-09	1.356407e+01	3.635527e+02
2.300000e-06	1.826349e-06	5.404272e-09	1.287553e+01	3.542959e+02
2.310000e-06	1.728174e-06	5.269605e-09	1.218342e+01	3.448514e+02
2.320000e-06	1.629365e-06	5.139860e-09	1.148682e+01	3.352149e+02
2.330000e-06	1.530095e-06	4.986390e-09	1.078698e+01	3.253812e+02
2.340000e-06	1.430496e-06	4.817797e-09	1.008482e+01	3.153444e+02
2.350000e-06	1.330519e-06	4.656105e-09	9.379999e+00	3.050986e+02
2.360000e-06	1.230139e-06	4.507684e-09	8.672329e+00	2.946377e+02
2.370000e-06	1.129268e-06	4.357129e-09	7.961199e+00	2.839558e+02
2.380000e-06	1.027853e-06	4.195433e-09	7.246235e+00	2.730478e+02
2.390000e-06	9.259247e-07	4.020886e-09	6.527656e+00	2.619092e+02
2.400000e-06	8.235582e-07	3.839847e-09	5.805985e+00	2.505361e+02
2.410000e-06	7.208486e-07	3.662364e-09	5.081894e+00	2.389255e+02
2.420000e-06	6.178836e-07	3.490731e-09	4.356004e+00	2.270747e+02
2.430000e-06	5.147407e-07	3.314646e-09	3.628859e+00	2.149810e+02
2.440000e-06	4.114456e-07	3.125391e-09	2.900641e+00	2.026419e+02
2.450000e-06	3.079963e-07	2.922939e-09	2.171336e+00	1.900538e+02
2.460000e-06	2.044223e-07	2.720308e-09	1.441153e+00	1.772123e+02
2.470000e-06	1.007180e-07	2.527051e-09	7.100493e-01	1.641115e+02
2.480000e-06	-3.026632e-09	2.331491e-09	-2.133738e-02	1.507434e+02
2.490000e-06	-1.067600e-07	2.124127e-09	-7.526452e-01	1.370978e+02
2.500000e-06	-2.105201e-07	1.905456e-09	-1.484141e+00	1.231622e+02
2.510000e-06	-3.142002e-07	1.683221e-09	-2.215073e+00	1.089215e+02
2.520000e-06	-4.177655e-07	1.461334e-09	-2.945196e+00	9.435887e+01
2.530000e-06	-5.212147e-07	1.236964e-09	-3.674500e+00	7.945567e+01
2.540000e-06	-6.245008e-07	1.008562e-09	-4.402654e+00	6.419293e+01
2.550000e-06	-7.275635e-07	7.702455e-10	-5.129234e+00	4.855243e+01
2.560000e-06	-8.303331e-07	5.200336e-10	-5.853747e+00	3.251834e+01
2.570000e-06	-9.327293e-07	2.663064e-10	-6.575627e+00	1.607912e+01
2.580000e-06	-1.034667e-06	1.362079e-11	-7.294276e+00	-7.704649e-01
2.590000e-06	-1.136059e-06	-2.453220e-10	-8.009074e+00	-1.802730e+01
2.600000e-06	-1.236850e-06	-5.174044e-10	-8.719638e+00	-3.567806e+01
2.610000e-06	-1.337085e-06	-7.971327e-10	-9.426289e+00	-5.369771e+01
2.620000e-06	-1.436828e-06	-1.079280e-09	-1.012946e+01	-7.204855e+01
2.630000e-06	-1.536135e-06	-1.363934e-09	-1.082957e+01	-9.067991e+01
2.640000e-06	-1.635007e-06	-1.651504e-09	-1.152660e+01	-1.095288e+02
2.650000e-06	-1.733285e-06	-1.944633e-09	-1.221945e+01	-1.285211e+02
2.660000e-06	-1.830884e-06	-2.242660e-09	-1.290751e+01	-1.475740e+02
2.670000e-06	-1.927888e-06	-2.539625e-09	-1.359137e+01	-1.665991e+02
2.680000e-06	-2.024316e-06	-2.828288e-09	-1.427118e+01	-1.855053e+02
2.690000e-06	-2.120100e-06	-3.110924e-09	-1.494644e+01	-2.042033e+02
2.700000e-06	-2.215197e-06	-3.391501e-09	-1.561687e+01	-2.226086e+02
2.710000e-06	-2.309477e-06	-3.670757e-09	-1.628153e+01	-2.406455e+02
2.720000e-06	-2.402708e-06	-3.944521e-09	-1.693880e+01	-2.582496e+02
2.730000e-06	-2.494910e-06	-4.206201e-09	-1.758881e+01	-2.753701e+02
2.740000e-06	-2.586243e-06	-4.457241e-09	-1.823270e+01	-2.919702e+02
2.750000e-06	-2.676634e-06	-4.700542e-09	-1.886994e+01	-3.080279e+02
2.760000e-06	-2.766035e-06	-4.938461e-09	-1.950021e+01	-3.235340e+02
2.770000e-06	-2.854598e-06	-5.170711e-09	-2.012457e+01	-3.384913e+02
2.780000e-06	-2.942366e-06	-5.394566e-09	-2.074332e+01	-3.529109e+02
2.790000e-06	-3.029144e-06	-5.608288e-09	-2.135509e+01	-3.668104e+02
2.800000e-06	-3.114640e-06	-5.814583e-09	-2.195783e+01	-3.802101e+02
2.810000e-06	-3.198890e-06	-6.014491e-09	-2.255178e+01	-3.931307e+02
2.820000e-06	-3.282107e-06	-6.206482e-09	-2.313845e+01	-4.055913e+02
2.830000e-06	-3.364288e-06	-6.392018e-09	-2.371782e+01	-4.176072e+02
2.840000e-06	-3.445366e-06	-6.569289e-09	-2.428941e+01	-4.291898e+02
2.850000e-06	-3.525291e-06	-6.735728e-09	-2.485287e+01	-4.403462e+02
2.860000e-06	-3.603888e-06	-6.894182e-09	-2.540697e+01	-4.510800e+02
2.870000e-06	-3.680984e-06	-7.048412e-09	-2.595049e+01	-4.613926e+02
2.880000e-06	-3.756556e-06	-7.198494e-09	-2.648326e+01	-4.712844e+02
2.890000e-06	-3.830602e-06	-7.342435e-09	-2.700528e+01	-4.807565e+02
2.900000e-06	-3.903254e-06	-7.481296e-09	-2.751746e+01	-4.898124e+02
2.910000e-06	-3.974583e-06	-7.616323e-09	-2.802032e+01	-4.984583e+02
2.920000e-06	-4.044407e-06	-7.745410e-09	-2.851258e+01	-5.067046e+02
2.930000e-06	-4.112682e-06	-7.868493e-09	-2.899391e+01	-5.145652e+02
2.940000e-06	-4.179530e-06	-7.986700e-09	-2.946517e+01	-5.220574e+02
