# Temperatura_=_79.98
# Concentracion g/m^3_=_15000.0
# C_Vs_to_Am_M_A/Vsm_=_65563218390.804596
# pendiente_HvsI_1/m_=_3716.3
# ordenada_HvsI_A/m_=_1297.0
# frecuencia_Hz_=_301590.63720545656

Tiempo_(s)	Campo_(V.s)	Magnetizacion_(V.s)	Campo_(kA/m)	Magnetizacion_(A/m)
0.000000e+00	-5.394503e-06	-9.651723e-09	-3.833718e+01	-6.297807e+02
1.000000e-08	-5.391593e-06	-9.644130e-09	-3.831650e+01	-6.294519e+02
2.000000e-08	-5.386971e-06	-9.633366e-09	-3.828365e+01	-6.289745e+02
3.000000e-08	-5.380757e-06	-9.623587e-09	-3.823950e+01	-6.283504e+02
4.000000e-08	-5.372954e-06	-9.611284e-09	-3.818404e+01	-6.275845e+02
5.000000e-08	-5.363216e-06	-9.595443e-09	-3.811483e+01	-6.266856e+02
6.000000e-08	-5.351414e-06	-9.575465e-09	-3.803096e+01	-6.256651e+02
7.000000e-08	-5.337730e-06	-9.549531e-09	-3.793371e+01	-6.245364e+02
8.000000e-08	-5.321884e-06	-9.575614e-09	-3.782110e+01	-6.233137e+02
9.000000e-08	-5.303785e-06	-9.603042e-09	-3.769248e+01	-6.220102e+02
1.000000e-07	-5.283678e-06	-9.541917e-09	-3.754958e+01	-6.206370e+02
1.100000e-07	-5.261691e-06	-9.493588e-09	-3.739333e+01	-6.192010e+02
1.200000e-07	-5.238095e-06	-9.414965e-09	-3.722563e+01	-6.177048e+02
1.300000e-07	-5.212963e-06	-9.302462e-09	-3.704703e+01	-6.161452e+02
1.400000e-07	-5.186131e-06	-9.445890e-09	-3.685634e+01	-6.145140e+02
1.500000e-07	-5.157701e-06	-9.407702e-09	-3.665430e+01	-6.127983e+02
1.600000e-07	-5.127870e-06	-9.266017e-09	-3.644230e+01	-6.109817e+02
1.700000e-07	-5.096382e-06	-9.419425e-09	-3.621852e+01	-6.090460e+02
1.800000e-07	-5.062704e-06	-9.276646e-09	-3.597918e+01	-6.069726e+02
1.900000e-07	-5.027258e-06	-9.135368e-09	-3.572728e+01	-6.047450e+02
2.000000e-07	-4.990371e-06	-9.237749e-09	-3.546513e+01	-6.023494e+02
2.100000e-07	-4.951666e-06	-9.076578e-09	-3.519007e+01	-5.997768e+02
2.200000e-07	-4.911128e-06	-9.004703e-09	-3.490198e+01	-5.970232e+02
2.300000e-07	-4.868605e-06	-9.086793e-09	-3.459978e+01	-5.940897e+02
2.400000e-07	-4.824202e-06	-9.003984e-09	-3.428422e+01	-5.909818e+02
2.500000e-07	-4.778031e-06	-8.976966e-09	-3.395610e+01	-5.877090e+02
2.600000e-07	-4.729936e-06	-8.904356e-09	-3.361430e+01	-5.842828e+02
2.700000e-07	-4.679807e-06	-8.823970e-09	-3.325804e+01	-5.807153e+02
2.800000e-07	-4.627528e-06	-8.792271e-09	-3.288651e+01	-5.770181e+02
2.900000e-07	-4.573432e-06	-8.712856e-09	-3.250207e+01	-5.732003e+02
3.000000e-07	-4.517795e-06	-8.654736e-09	-3.210667e+01	-5.692684e+02
3.100000e-07	-4.460408e-06	-8.622228e-09	-3.169884e+01	-5.652251e+02
3.200000e-07	-4.401251e-06	-8.576649e-09	-3.127843e+01	-5.610696e+02
3.300000e-07	-4.340523e-06	-8.464615e-09	-3.084685e+01	-5.567984e+02
3.400000e-07	-4.278366e-06	-8.387136e-09	-3.040512e+01	-5.524052e+02
3.500000e-07	-4.214826e-06	-8.357557e-09	-2.995356e+01	-5.478828e+02
3.600000e-07	-4.149720e-06	-8.259182e-09	-2.949087e+01	-5.432236e+02
3.700000e-07	-4.082946e-06	-8.187828e-09	-2.901633e+01	-5.384209e+02
3.800000e-07	-4.014605e-06	-8.143097e-09	-2.853065e+01	-5.334693e+02
3.900000e-07	-3.944956e-06	-8.048564e-09	-2.803567e+01	-5.283654e+02
4.000000e-07	-3.874130e-06	-7.950878e-09	-2.753233e+01	-5.231076e+02
4.100000e-07	-3.801974e-06	-7.861470e-09	-2.701954e+01	-5.176961e+02
4.200000e-07	-3.728345e-06	-7.799802e-09	-2.649628e+01	-5.121325e+02
4.300000e-07	-3.653147e-06	-7.711036e-09	-2.596186e+01	-5.064188e+02
4.400000e-07	-3.576438e-06	-7.620478e-09	-2.541672e+01	-5.005568e+02
4.500000e-07	-3.498300e-06	-7.539195e-09	-2.486142e+01	-4.945479e+02
4.600000e-07	-3.418773e-06	-7.446696e-09	-2.429624e+01	-4.883921e+02
4.700000e-07	-3.337955e-06	-7.348998e-09	-2.372189e+01	-4.820883e+02
4.800000e-07	-3.255952e-06	-7.235446e-09	-2.313912e+01	-4.756343e+02
4.900000e-07	-3.172843e-06	-7.139122e-09	-2.254849e+01	-4.690266e+02
5.000000e-07	-3.088728e-06	-7.034668e-09	-2.195070e+01	-4.622615e+02
5.100000e-07	-3.003665e-06	-6.921207e-09	-2.134618e+01	-4.553353e+02
5.200000e-07	-2.917682e-06	-6.812189e-09	-2.073513e+01	-4.482448e+02
5.300000e-07	-2.830757e-06	-6.708569e-09	-2.011738e+01	-4.409877e+02
5.400000e-07	-2.742888e-06	-6.602114e-09	-1.949292e+01	-4.335630e+02
5.500000e-07	-2.654022e-06	-6.484157e-09	-1.886137e+01	-4.259704e+02
5.600000e-07	-2.564039e-06	-6.360024e-09	-1.822189e+01	-4.182107e+02
5.700000e-07	-2.472927e-06	-6.237149e-09	-1.757438e+01	-4.102853e+02
5.800000e-07	-2.380891e-06	-6.118315e-09	-1.692031e+01	-4.021951e+02
5.900000e-07	-2.288083e-06	-5.988353e-09	-1.626075e+01	-3.939406e+02
6.000000e-07	-2.194437e-06	-5.853158e-09	-1.559523e+01	-3.855211e+02
6.100000e-07	-2.100065e-06	-5.721144e-09	-1.492456e+01	-3.769344e+02
6.200000e-07	-2.005027e-06	-5.588898e-09	-1.424915e+01	-3.681766e+02
6.300000e-07	-1.909214e-06	-5.453269e-09	-1.356824e+01	-3.592424e+02
6.400000e-07	-1.812634e-06	-5.318837e-09	-1.288187e+01	-3.501249e+02
6.500000e-07	-1.715382e-06	-5.181838e-09	-1.219072e+01	-3.408168e+02
6.600000e-07	-1.617423e-06	-5.031485e-09	-1.149456e+01	-3.313103e+02
6.700000e-07	-1.518712e-06	-4.874723e-09	-1.079305e+01	-3.215980e+02
6.800000e-07	-1.419388e-06	-4.719428e-09	-1.008719e+01	-3.116735e+02
6.900000e-07	-1.319632e-06	-4.566158e-09	-9.378248e+00	-3.015315e+02
7.000000e-07	-1.219524e-06	-4.408986e-09	-8.666809e+00	-2.911684e+02
7.100000e-07	-1.119117e-06	-4.244667e-09	-7.953241e+00	-2.805819e+02
7.200000e-07	-1.018412e-06	-4.074051e-09	-7.237562e+00	-2.697711e+02
7.300000e-07	-9.173787e-07	-3.901805e-09	-6.519547e+00	-2.587360e+02
7.400000e-07	-8.160259e-07	-3.730130e-09	-5.799262e+00	-2.474771e+02
7.500000e-07	-7.143087e-07	-3.557817e-09	-5.076387e+00	-2.359949e+02
7.600000e-07	-6.123067e-07	-3.380429e-09	-4.351488e+00	-2.242891e+02
7.700000e-07	-5.101593e-07	-3.194392e-09	-3.625556e+00	-2.123586e+02
7.800000e-07	-4.078114e-07	-3.005886e-09	-2.898198e+00	-2.002006e+02
7.900000e-07	-3.053591e-07	-2.817263e-09	-2.170100e+00	-1.878108e+02
8.000000e-07	-2.028944e-07	-2.625963e-09	-1.441913e+00	-1.751828e+02
8.100000e-07	-1.003573e-07	-2.428735e-09	-7.132106e-01	-1.623083e+02
8.200000e-07	2.253417e-09	-2.228453e-09	1.601439e-02	-1.491769e+02
8.300000e-07	1.049187e-07	-2.025647e-09	7.456269e-01	-1.357764e+02
8.400000e-07	2.075596e-07	-1.819276e-09	1.475067e+00	-1.220926e+02
8.500000e-07	3.101921e-07	-1.608507e-09	2.204446e+00	-1.081099e+02
8.600000e-07	4.127311e-07	-1.391184e-09	2.933161e+00	-9.381120e+01
8.700000e-07	5.151299e-07	-1.164880e-09	3.660880e+00	-7.917891e+01
8.800000e-07	6.174272e-07	-9.307287e-10	4.387878e+00	-6.419534e+01
8.900000e-07	7.195296e-07	-6.930149e-10	5.113490e+00	-4.884385e+01
9.000000e-07	8.214012e-07	-4.520243e-10	5.837462e+00	-3.311009e+01
9.100000e-07	9.229815e-07	-2.082054e-10	6.559364e+00	-1.698356e+01
9.200000e-07	1.024181e-06	4.255082e-11	7.278563e+00	-4.593149e-01
9.300000e-07	1.125021e-06	3.009918e-10	7.995203e+00	1.646022e+01
9.400000e-07	1.225499e-06	5.647908e-10	8.709267e+00	3.376354e+01
9.500000e-07	1.325589e-06	8.312425e-10	9.420582e+00	5.142855e+01
9.600000e-07	1.425320e-06	1.100706e-09	1.012934e+01	6.942154e+01
9.700000e-07	1.524591e-06	1.377247e-09	1.083483e+01	8.769669e+01
9.800000e-07	1.623152e-06	1.657984e-09	1.153528e+01	1.061964e+02
9.900000e-07	1.720854e-06	1.939638e-09	1.222961e+01	1.248522e+02
1.000000e-06	1.817770e-06	2.220637e-09	1.291837e+01	1.435871e+02
1.010000e-06	1.913961e-06	2.502631e-09	1.360197e+01	1.623176e+02
1.020000e-06	2.009452e-06	2.785188e-09	1.428060e+01	1.809572e+02
1.030000e-06	2.104238e-06	3.066658e-09	1.495421e+01	1.994201e+02
1.040000e-06	2.198306e-06	3.344008e-09	1.562273e+01	2.176243e+02
1.050000e-06	2.291616e-06	3.612266e-09	1.628586e+01	2.354953e+02
1.060000e-06	2.384170e-06	3.873465e-09	1.694361e+01	2.529687e+02
1.070000e-06	2.476044e-06	4.129263e-09	1.759653e+01	2.699921e+02
1.080000e-06	2.567104e-06	4.380283e-09	1.824367e+01	2.865268e+02
1.090000e-06	2.657082e-06	4.625479e-09	1.888312e+01	3.025472e+02
1.100000e-06	2.745908e-06	4.861458e-09	1.951438e+01	3.180402e+02
1.110000e-06	2.833747e-06	5.086241e-09	2.013863e+01	3.330038e+02
1.120000e-06	2.920657e-06	5.302218e-09	2.075627e+01	3.474448e+02
1.130000e-06	3.006588e-06	5.513243e-09	2.136696e+01	3.613756e+02
1.140000e-06	3.091513e-06	5.719093e-09	2.197049e+01	3.748122e+02
1.150000e-06	3.175506e-06	5.916928e-09	2.256741e+01	3.877714e+02
1.160000e-06	3.258553e-06	6.106307e-09	2.315760e+01	4.002689e+02
1.170000e-06	3.340421e-06	6.290384e-09	2.373941e+01	4.123178e+02
1.180000e-06	3.420981e-06	6.467759e-09	2.431193e+01	4.239280e+02
1.190000e-06	3.500279e-06	6.637226e-09	2.487548e+01	4.351061e+02
1.200000e-06	3.578387e-06	6.799156e-09	2.543057e+01	4.458562e+02
1.210000e-06	3.655258e-06	6.956675e-09	2.597687e+01	4.561806e+02
1.220000e-06	3.730785e-06	7.109300e-09	2.651362e+01	4.660816e+02
1.230000e-06	3.804774e-06	7.255561e-09	2.703943e+01	4.755623e+02
1.240000e-06	3.877169e-06	7.395588e-09	2.755392e+01	4.846282e+02
1.250000e-06	3.948119e-06	7.529486e-09	2.805815e+01	4.932878e+02
1.260000e-06	4.017676e-06	7.655243e-09	2.855247e+01	5.015529e+02
1.270000e-06	4.085926e-06	7.772009e-09	2.903750e+01	5.094386e+02
1.280000e-06	4.152795e-06	7.884041e-09	2.951272e+01	5.169629e+02
1.290000e-06	4.217966e-06	7.991571e-09	2.997587e+01	5.241455e+02
1.300000e-06	4.281486e-06	8.094454e-09	3.042730e+01	5.310073e+02
1.310000e-06	4.343540e-06	8.193222e-09	3.086830e+01	5.375685e+02
1.320000e-06	4.404202e-06	8.289772e-09	3.129940e+01	5.438482e+02
1.330000e-06	4.463484e-06	8.383044e-09	3.172070e+01	5.498634e+02
1.340000e-06	4.521069e-06	8.471778e-09	3.212994e+01	5.556281e+02
1.350000e-06	4.576822e-06	8.555270e-09	3.252616e+01	5.611535e+02
1.360000e-06	4.630989e-06	8.633336e-09	3.291111e+01	5.664479e+02
1.370000e-06	4.683477e-06	8.708670e-09	3.328413e+01	5.715170e+02
1.380000e-06	4.733902e-06	8.781581e-09	3.364249e+01	5.763643e+02
1.390000e-06	4.782280e-06	8.852620e-09	3.398629e+01	5.809920e+02
1.400000e-06	4.828926e-06	8.920819e-09	3.431779e+01	5.854013e+02
1.410000e-06	4.873998e-06	8.984967e-09	3.463810e+01	5.895928e+02
1.420000e-06	4.917542e-06	9.046317e-09	3.494756e+01	5.935670e+02
1.430000e-06	4.959257e-06	9.104884e-09	3.524401e+01	5.973248e+02
1.440000e-06	4.999083e-06	9.159657e-09	3.552705e+01	6.008668e+02
1.450000e-06	5.037236e-06	9.209582e-09	3.579819e+01	6.041941e+02
1.460000e-06	5.073766e-06	9.256046e-09	3.605780e+01	6.073080e+02
1.470000e-06	5.108564e-06	9.298630e-09	3.630510e+01	6.102100e+02
1.480000e-06	5.141432e-06	9.336536e-09	3.653868e+01	6.129019e+02
1.490000e-06	5.172501e-06	9.370196e-09	3.675948e+01	6.153860e+02
1.500000e-06	5.201874e-06	9.401500e-09	3.696823e+01	6.176653e+02
1.510000e-06	5.229552e-06	9.431647e-09	3.716493e+01	6.197438e+02
1.520000e-06	5.255271e-06	9.459921e-09	3.734770e+01	6.216267e+02
1.530000e-06	5.278879e-06	9.486355e-09	3.751548e+01	6.233204e+02
1.540000e-06	5.300588e-06	9.509959e-09	3.766976e+01	6.248325e+02
1.550000e-06	5.320585e-06	9.528822e-09	3.781187e+01	6.261718e+02
1.560000e-06	5.338708e-06	9.544657e-09	3.794066e+01	6.273475e+02
1.570000e-06	5.354757e-06	9.558728e-09	3.805472e+01	6.283687e+02
1.580000e-06	5.368887e-06	9.571087e-09	3.815514e+01	6.292440e+02
1.590000e-06	5.381068e-06	9.582039e-09	3.824170e+01	6.299806e+02
1.600000e-06	5.391052e-06	9.591263e-09	3.831266e+01	6.305834e+02
1.610000e-06	5.398936e-06	9.598906e-09	3.836869e+01	6.310554e+02
1.620000e-06	5.404948e-06	9.605060e-09	3.841141e+01	6.313967e+02
1.630000e-06	5.409175e-06	9.610507e-09	3.844145e+01	6.316054e+02
1.640000e-06	5.411499e-06	9.613912e-09	3.845797e+01	6.316778e+02
1.650000e-06	5.411785e-06	9.613719e-09	3.846000e+01	6.316095e+02
1.660000e-06	5.410254e-06	9.605823e-09	3.844912e+01	6.313963e+02
1.670000e-06	5.407094e-06	9.600146e-09	3.842666e+01	6.310351e+02
1.680000e-06	5.402184e-06	9.594146e-09	3.839177e+01	6.305255e+02
1.690000e-06	5.395340e-06	9.584781e-09	3.834313e+01	6.298698e+02
1.700000e-06	5.386735e-06	9.575244e-09	3.828198e+01	6.290741e+02
1.710000e-06	5.376561e-06	9.567230e-09	3.820967e+01	6.281475e+02
1.720000e-06	5.364686e-06	9.572655e-09	3.812528e+01	6.271021e+02
1.730000e-06	5.350832e-06	9.535474e-09	3.802683e+01	6.259515e+02
1.740000e-06	5.334866e-06	9.447329e-09	3.791336e+01	6.247099e+02
1.750000e-06	5.316529e-06	9.453834e-09	3.778305e+01	6.233901e+02
1.760000e-06	5.295492e-06	9.447589e-09	3.763354e+01	6.220024e+02
1.770000e-06	5.272226e-06	9.485550e-09	3.746820e+01	6.205530e+02
1.780000e-06	5.247745e-06	9.530902e-09	3.729422e+01	6.190431e+02
1.790000e-06	5.222474e-06	9.314307e-09	3.711462e+01	6.174684e+02
1.800000e-06	5.195704e-06	9.371252e-09	3.692438e+01	6.158198e+02
1.810000e-06	5.166753e-06	9.408073e-09	3.671863e+01	6.140834e+02
1.820000e-06	5.136068e-06	9.181716e-09	3.650056e+01	6.122424e+02
1.830000e-06	5.103652e-06	9.344526e-09	3.627019e+01	6.102781e+02
1.840000e-06	5.069243e-06	9.348561e-09	3.602566e+01	6.081725e+02
1.850000e-06	5.033279e-06	9.160281e-09	3.577007e+01	6.059093e+02
1.860000e-06	4.995469e-06	9.319102e-09	3.550136e+01	6.034758e+02
1.870000e-06	4.955766e-06	9.191892e-09	3.521921e+01	6.008641e+02
1.880000e-06	4.914450e-06	9.034227e-09	3.492559e+01	5.980711e+02
1.890000e-06	4.871323e-06	9.090630e-09	3.461909e+01	5.950990e+02
1.900000e-06	4.826540e-06	8.950096e-09	3.430083e+01	5.919544e+02
1.910000e-06	4.779891e-06	9.010352e-09	3.396931e+01	5.886472e+02
1.920000e-06	4.731242e-06	8.942584e-09	3.362358e+01	5.851891e+02
1.930000e-06	4.680996e-06	8.810654e-09	3.326650e+01	5.815924e+02
1.940000e-06	4.628970e-06	8.895575e-09	3.289676e+01	5.778680e+02
1.950000e-06	4.574825e-06	8.750253e-09	3.251197e+01	5.740249e+02
1.960000e-06	4.518759e-06	8.660328e-09	3.211352e+01	5.700684e+02
1.970000e-06	4.461068e-06	8.606967e-09	3.170353e+01	5.660007e+02
1.980000e-06	4.401951e-06	8.548164e-09	3.128340e+01	5.618203e+02
1.990000e-06	4.341257e-06	8.537650e-09	3.085207e+01	5.575229e+02
2.000000e-06	4.278811e-06	8.395225e-09	3.040828e+01	5.531021e+02
2.010000e-06	4.214761e-06	8.399172e-09	2.995310e+01	5.485505e+02
2.020000e-06	4.149252e-06	8.303582e-09	2.948754e+01	5.438606e+02
2.030000e-06	4.082362e-06	8.162075e-09	2.901217e+01	5.390258e+02
2.040000e-06	4.014046e-06	8.147508e-09	2.852667e+01	5.340412e+02
2.050000e-06	3.944196e-06	8.072144e-09	2.803027e+01	5.289038e+02
2.060000e-06	3.872812e-06	8.022251e-09	2.752296e+01	5.236125e+02
2.070000e-06	3.800139e-06	7.885353e-09	2.700650e+01	5.181677e+02
2.080000e-06	3.726188e-06	7.796156e-09	2.648095e+01	5.125712e+02
2.090000e-06	3.650762e-06	7.733283e-09	2.594491e+01	5.068250e+02
2.100000e-06	3.573802e-06	7.620113e-09	2.539798e+01	5.009309e+02
2.110000e-06	3.495291e-06	7.544637e-09	2.484003e+01	4.948900e+02
2.120000e-06	3.415481e-06	7.440440e-09	2.427284e+01	4.887021e+02
2.130000e-06	3.334549e-06	7.366091e-09	2.369768e+01	4.823658e+02
2.140000e-06	3.252533e-06	7.250562e-09	2.311482e+01	4.758786e+02
2.150000e-06	3.169527e-06	7.145135e-09	2.252492e+01	4.692370e+02
2.160000e-06	3.085467e-06	7.062394e-09	2.192753e+01	4.624371e+02
2.170000e-06	3.000217e-06	6.951327e-09	2.132168e+01	4.554754e+02
2.180000e-06	2.913620e-06	6.835064e-09	2.070626e+01	4.483488e+02
2.190000e-06	2.825815e-06	6.706544e-09	2.008225e+01	4.410553e+02
2.200000e-06	2.737087e-06	6.612918e-09	1.945169e+01	4.335940e+02
2.210000e-06	2.647461e-06	6.512482e-09	1.881475e+01	4.259650e+02
2.220000e-06	2.556882e-06	6.390302e-09	1.817103e+01	4.181692e+02
2.230000e-06	2.465451e-06	6.256346e-09	1.752126e+01	4.102078e+02
2.240000e-06	2.373255e-06	6.133936e-09	1.686604e+01	4.020818e+02
2.250000e-06	2.280245e-06	6.015472e-09	1.620505e+01	3.937916e+02
2.260000e-06	2.186387e-06	5.883402e-09	1.553802e+01	3.853359e+02
2.270000e-06	2.091504e-06	5.756047e-09	1.486372e+01	3.767124e+02
2.280000e-06	1.995637e-06	5.623217e-09	1.418242e+01	3.679168e+02
2.290000e-06	1.899115e-06	5.478260e-09	1.349647e+01	3.589433e+02
2.300000e-06	1.802112e-06	5.330037e-09	1.280709e+01	3.497851e+02
2.310000e-06	1.704599e-06	5.196713e-09	1.211409e+01	3.404345e+02
2.320000e-06	1.606522e-06	5.064819e-09	1.141709e+01	3.308840e+02
2.330000e-06	1.507950e-06	4.917153e-09	1.071657e+01	3.211262e+02
2.340000e-06	1.408946e-06	4.757364e-09	1.001297e+01	3.111549e+02
2.350000e-06	1.309450e-06	4.598802e-09	9.305888e+00	3.009653e+02
2.360000e-06	1.209510e-06	4.445670e-09	8.595642e+00	2.905539e+02
2.370000e-06	1.109247e-06	4.288418e-09	7.883101e+00	2.799188e+02
2.380000e-06	1.008634e-06	4.124337e-09	7.168070e+00	2.690593e+02
2.390000e-06	9.076905e-07	3.954852e-09	6.450696e+00	2.579757e+02
2.400000e-06	8.064794e-07	3.781990e-09	5.731418e+00	2.466684e+02
2.410000e-06	7.050078e-07	3.607552e-09	5.010288e+00	2.351377e+02
2.420000e-06	6.032267e-07	3.431128e-09	4.286959e+00	2.233834e+02
2.430000e-06	5.011603e-07	3.250774e-09	3.561603e+00	2.114039e+02
2.440000e-06	3.988172e-07	3.065541e-09	2.834279e+00	1.991961e+02
2.450000e-06	2.962219e-07	2.871938e-09	2.105164e+00	1.867553e+02
2.460000e-06	1.934807e-07	2.675945e-09	1.375012e+00	1.740747e+02
2.470000e-06	9.066102e-08	2.481739e-09	6.443018e-01	1.611455e+02
2.480000e-06	-1.224897e-08	2.282086e-09	-8.704994e-02	1.479570e+02
2.490000e-06	-1.152201e-07	2.074251e-09	-8.188363e-01	1.344965e+02
2.500000e-06	-2.181009e-07	1.861867e-09	-1.549981e+00	1.207495e+02
2.510000e-06	-3.208960e-07	1.650348e-09	-2.280516e+00	1.067000e+02
2.520000e-06	-4.235895e-07	1.434984e-09	-3.010329e+00	9.233077e+01
2.530000e-06	-5.260604e-07	1.212797e-09	-3.738560e+00	7.762413e+01
2.540000e-06	-6.282887e-07	9.856643e-10	-4.465067e+00	6.256251e+01
2.550000e-06	-7.302531e-07	7.494442e-10	-5.189699e+00	4.712966e+01
2.560000e-06	-8.318541e-07	5.020734e-10	-5.911748e+00	3.131190e+01
2.570000e-06	-9.330669e-07	2.495092e-10	-6.631038e+00	1.509979e+01
2.580000e-06	-1.033891e-06	-1.864497e-12	-7.347566e+00	-1.510192e+00
2.590000e-06	-1.134318e-06	-2.565632e-10	-8.061274e+00	-1.851382e+01
2.600000e-06	-1.234361e-06	-5.195053e-10	-8.772250e+00	-3.589744e+01
2.610000e-06	-1.333970e-06	-7.902708e-10	-9.480139e+00	-5.363653e+01
2.620000e-06	-1.433087e-06	-1.067117e-09	-1.018454e+01	-7.169480e+01
2.630000e-06	-1.531703e-06	-1.349115e-09	-1.088537e+01	-9.002385e+01
2.640000e-06	-1.629761e-06	-1.634834e-09	-1.158225e+01	-1.085636e+02
2.650000e-06	-1.727214e-06	-1.923598e-09	-1.227482e+01	-1.272437e+02
2.660000e-06	-1.824053e-06	-2.215467e-09	-1.296302e+01	-1.459854e+02
2.670000e-06	-1.920386e-06	-2.506631e-09	-1.364763e+01	-1.647042e+02
2.680000e-06	-2.016231e-06	-2.793340e-09	-1.432878e+01	-1.833137e+02
2.690000e-06	-2.111414e-06	-3.075309e-09	-1.500521e+01	-2.017284e+02
2.700000e-06	-2.205648e-06	-3.353306e-09	-1.567490e+01	-2.198677e+02
2.710000e-06	-2.298824e-06	-3.626292e-09	-1.633708e+01	-2.376591e+02
2.720000e-06	-2.391098e-06	-3.892488e-09	-1.699285e+01	-2.550406e+02
2.730000e-06	-2.482487e-06	-4.149839e-09	-1.764232e+01	-2.719627e+02
2.740000e-06	-2.572978e-06	-4.398636e-09	-1.828541e+01	-2.883894e+02
2.750000e-06	-2.662558e-06	-4.640698e-09	-1.892204e+01	-3.042980e+02
2.760000e-06	-2.751280e-06	-4.878346e-09	-1.955256e+01	-3.196779e+02
2.770000e-06	-2.839259e-06	-5.111335e-09	-2.017780e+01	-3.345293e+02
2.780000e-06	-2.926344e-06	-5.336323e-09	-2.079669e+01	-3.488603e+02
2.790000e-06	-3.012261e-06	-5.550365e-09	-2.140727e+01	-3.626843e+02
2.800000e-06	-3.096962e-06	-5.755015e-09	-2.200922e+01	-3.760178e+02
2.810000e-06	-3.180564e-06	-5.950042e-09	-2.260336e+01	-3.888774e+02
2.820000e-06	-3.263137e-06	-6.136852e-09	-2.319018e+01	-4.012783e+02
2.830000e-06	-3.344633e-06	-6.318595e-09	-2.376935e+01	-4.132330e+02
2.840000e-06	-3.425084e-06	-6.493353e-09	-2.434109e+01	-4.247507e+02
2.850000e-06	-3.504321e-06	-6.659885e-09	-2.490421e+01	-4.358374e+02
2.860000e-06	-3.582061e-06	-6.818717e-09	-2.545668e+01	-4.464966e+02
2.870000e-06	-3.658242e-06	-6.973572e-09	-2.599808e+01	-4.567306e+02
2.880000e-06	-3.732984e-06	-7.124318e-09	-2.652925e+01	-4.665418e+02
2.890000e-06	-3.806388e-06	-7.269891e-09	-2.705091e+01	-4.759336e+02
2.900000e-06	-3.878516e-06	-7.411251e-09	-2.756350e+01	-4.849122e+02
2.910000e-06	-3.949237e-06	-7.545891e-09	-2.806610e+01	-4.934867e+02
2.920000e-06	-4.018330e-06	-7.670953e-09	-2.855712e+01	-5.016697e+02
2.930000e-06	-4.085932e-06	-7.788666e-09	-2.903755e+01	-5.094769e+02
2.940000e-06	-4.152178e-06	-7.903953e-09	-2.950834e+01	-5.169268e+02
