# Temperatura_=_50.32
# Concentracion g/m^3_=_15000.0
# C_Vs_to_Am_M_A/Vsm_=_65563218390.804596
# pendiente_HvsI_1/m_=_3716.3
# ordenada_HvsI_A/m_=_1297.0
# frecuencia_Hz_=_301595.5783540285

Tiempo_(s)	Campo_(V.s)	Magnetizacion_(V.s)	Campo_(kA/m)	Magnetizacion_(A/m)
0.000000e+00	-5.408105e-06	-8.490460e-09	-3.834097e+01	-5.545719e+02
1.000000e-08	-5.405654e-06	-8.486987e-09	-3.832359e+01	-5.543557e+02
2.000000e-08	-5.401342e-06	-8.480302e-09	-3.829303e+01	-5.540248e+02
3.000000e-08	-5.395363e-06	-8.474750e-09	-3.825063e+01	-5.535769e+02
4.000000e-08	-5.387817e-06	-8.466070e-09	-3.819714e+01	-5.530107e+02
5.000000e-08	-5.378499e-06	-8.452429e-09	-3.813108e+01	-5.523271e+02
6.000000e-08	-5.367129e-06	-8.435806e-09	-3.805047e+01	-5.515299e+02
7.000000e-08	-5.353799e-06	-8.413969e-09	-3.795597e+01	-5.506256e+02
8.000000e-08	-5.338362e-06	-8.415721e-09	-3.784653e+01	-5.496239e+02
9.000000e-08	-5.320705e-06	-8.446167e-09	-3.772135e+01	-5.485363e+02
1.000000e-07	-5.300999e-06	-8.424111e-09	-3.758164e+01	-5.473757e+02
1.100000e-07	-5.279383e-06	-8.381848e-09	-3.742839e+01	-5.461545e+02
1.200000e-07	-5.255972e-06	-8.336629e-09	-3.726242e+01	-5.448834e+02
1.300000e-07	-5.230925e-06	-8.239149e-09	-3.708485e+01	-5.435696e+02
1.400000e-07	-5.204306e-06	-8.291081e-09	-3.689613e+01	-5.422162e+02
1.500000e-07	-5.176120e-06	-8.336895e-09	-3.669630e+01	-5.408206e+02
1.600000e-07	-5.146485e-06	-8.199778e-09	-3.648621e+01	-5.393753e+02
1.700000e-07	-5.115307e-06	-8.234763e-09	-3.626517e+01	-5.378675e+02
1.800000e-07	-5.082060e-06	-8.205764e-09	-3.602946e+01	-5.362808e+02
1.900000e-07	-5.046830e-06	-8.089301e-09	-3.577970e+01	-5.345965e+02
2.000000e-07	-5.010080e-06	-8.200679e-09	-3.551916e+01	-5.327953e+02
2.100000e-07	-4.971614e-06	-8.165778e-09	-3.524645e+01	-5.308594e+02
2.200000e-07	-4.931343e-06	-8.028749e-09	-3.496095e+01	-5.287744e+02
2.300000e-07	-4.889137e-06	-8.031178e-09	-3.466172e+01	-5.265303e+02
2.400000e-07	-4.844989e-06	-7.974081e-09	-3.434874e+01	-5.241226e+02
2.500000e-07	-4.799075e-06	-7.942084e-09	-3.402323e+01	-5.215527e+02
2.600000e-07	-4.751271e-06	-7.944117e-09	-3.368432e+01	-5.188271e+02
2.700000e-07	-4.701344e-06	-7.860156e-09	-3.333036e+01	-5.159565e+02
2.800000e-07	-4.649277e-06	-7.799567e-09	-3.296123e+01	-5.129545e+02
2.900000e-07	-4.595348e-06	-7.751867e-09	-3.257890e+01	-5.098354e+02
3.000000e-07	-4.539829e-06	-7.705793e-09	-3.218529e+01	-5.066129e+02
3.100000e-07	-4.482679e-06	-7.686231e-09	-3.178013e+01	-5.032983e+02
3.200000e-07	-4.423705e-06	-7.658168e-09	-3.136203e+01	-4.998991e+02
3.300000e-07	-4.363077e-06	-7.571555e-09	-3.093221e+01	-4.964187e+02
3.400000e-07	-4.301004e-06	-7.489156e-09	-3.049213e+01	-4.928559e+02
3.500000e-07	-4.237597e-06	-7.475965e-09	-3.004261e+01	-4.892058e+02
3.600000e-07	-4.172643e-06	-7.420938e-09	-2.958211e+01	-4.854602e+02
3.700000e-07	-4.105921e-06	-7.331889e-09	-2.910909e+01	-4.816090e+02
3.800000e-07	-4.037673e-06	-7.276014e-09	-2.862524e+01	-4.776417e+02
3.900000e-07	-3.968097e-06	-7.213813e-09	-2.813198e+01	-4.735485e+02
4.000000e-07	-3.897283e-06	-7.150794e-09	-2.762994e+01	-4.693215e+02
4.100000e-07	-3.825228e-06	-7.092284e-09	-2.711911e+01	-4.649553e+02
4.200000e-07	-3.751692e-06	-7.033186e-09	-2.659776e+01	-4.604474e+02
4.300000e-07	-3.676571e-06	-6.951237e-09	-2.606519e+01	-4.557979e+02
4.400000e-07	-3.599940e-06	-6.852428e-09	-2.552191e+01	-4.510090e+02
4.500000e-07	-3.521805e-06	-6.778151e-09	-2.496797e+01	-4.460842e+02
4.600000e-07	-3.442260e-06	-6.730235e-09	-2.440403e+01	-4.410274e+02
4.700000e-07	-3.361436e-06	-6.667612e-09	-2.383103e+01	-4.358419e+02
4.800000e-07	-3.279413e-06	-6.570656e-09	-2.324953e+01	-4.305295e+02
4.900000e-07	-3.196334e-06	-6.480356e-09	-2.266054e+01	-4.250903e+02
5.000000e-07	-3.112258e-06	-6.397647e-09	-2.206447e+01	-4.195223e+02
5.100000e-07	-3.027245e-06	-6.303302e-09	-2.146177e+01	-4.138217e+02
5.200000e-07	-2.941285e-06	-6.214435e-09	-2.085235e+01	-4.079830e+02
5.300000e-07	-2.854341e-06	-6.127897e-09	-2.023596e+01	-4.020002e+02
5.400000e-07	-2.766433e-06	-6.027011e-09	-1.961273e+01	-3.958670e+02
5.500000e-07	-2.677476e-06	-5.922197e-09	-1.898207e+01	-3.895776e+02
5.600000e-07	-2.587318e-06	-5.828185e-09	-1.834289e+01	-3.831275e+02
5.700000e-07	-2.496066e-06	-5.739081e-09	-1.769596e+01	-3.765136e+02
5.800000e-07	-2.403981e-06	-5.634609e-09	-1.704312e+01	-3.697344e+02
5.900000e-07	-2.311109e-06	-5.521761e-09	-1.638470e+01	-3.627896e+02
6.000000e-07	-2.217423e-06	-5.415902e-09	-1.572051e+01	-3.556799e+02
6.100000e-07	-2.122963e-06	-5.311603e-09	-1.505083e+01	-3.484063e+02
6.200000e-07	-2.027846e-06	-5.199900e-09	-1.437649e+01	-3.409695e+02
6.300000e-07	-1.932075e-06	-5.078878e-09	-1.369752e+01	-3.333693e+02
6.400000e-07	-1.835515e-06	-4.953169e-09	-1.301296e+01	-3.256043e+02
6.500000e-07	-1.738089e-06	-4.825120e-09	-1.232225e+01	-3.176714e+02
6.600000e-07	-1.639850e-06	-4.699597e-09	-1.162578e+01	-3.095658e+02
6.700000e-07	-1.540993e-06	-4.579319e-09	-1.092493e+01	-3.012816e+02
6.800000e-07	-1.441668e-06	-4.455533e-09	-1.022076e+01	-2.928117e+02
6.900000e-07	-1.341906e-06	-4.321038e-09	-9.513492e+00	-2.841485e+02
7.000000e-07	-1.241754e-06	-4.183080e-09	-8.803463e+00	-2.752846e+02
7.100000e-07	-1.141194e-06	-4.045289e-09	-8.090537e+00	-2.662129e+02
7.200000e-07	-1.040302e-06	-3.903195e-09	-7.375259e+00	-2.569274e+02
7.300000e-07	-9.390806e-07	-3.756391e-09	-6.657649e+00	-2.474233e+02
7.400000e-07	-8.375106e-07	-3.605151e-09	-5.937564e+00	-2.376971e+02
7.500000e-07	-7.356241e-07	-3.448092e-09	-5.215235e+00	-2.277461e+02
7.600000e-07	-6.334395e-07	-3.287108e-09	-4.490794e+00	-2.175688e+02
7.700000e-07	-5.310274e-07	-3.127786e-09	-3.764739e+00	-2.071637e+02
7.800000e-07	-4.284941e-07	-2.969282e-09	-3.037826e+00	-1.965294e+02
7.900000e-07	-3.258526e-07	-2.806517e-09	-2.310145e+00	-1.856640e+02
8.000000e-07	-2.230747e-07	-2.636878e-09	-1.581497e+00	-1.745645e+02
8.100000e-07	-1.201795e-07	-2.461618e-09	-8.520175e-01	-1.632267e+02
8.200000e-07	-1.722114e-08	-2.282805e-09	-1.220899e-01	-1.516448e+02
8.300000e-07	8.571215e-08	-2.101272e-09	6.076596e-01	-1.398113e+02
8.400000e-07	1.886572e-07	-1.915210e-09	1.337493e+00	-1.277170e+02
8.500000e-07	2.915646e-07	-1.723089e-09	2.067058e+00	-1.153515e+02
8.600000e-07	3.944053e-07	-1.528547e-09	2.796152e+00	-1.027028e+02
8.700000e-07	4.971350e-07	-1.333155e-09	3.524458e+00	-8.975830e+01
8.800000e-07	5.997014e-07	-1.134597e-09	4.251607e+00	-7.650506e+01
8.900000e-07	7.021242e-07	-9.309462e-10	4.977737e+00	-6.293052e+01
9.000000e-07	8.042909e-07	-7.214783e-10	5.702052e+00	-4.902337e+01
9.100000e-07	9.061279e-07	-5.068198e-10	6.424029e+00	-3.477461e+01
9.200000e-07	1.007659e-06	-2.864427e-10	7.143839e+00	-2.017867e+01
9.300000e-07	1.108865e-06	-6.014160e-11	7.861340e+00	-5.234752e+00
9.400000e-07	1.209655e-06	1.723585e-10	8.575896e+00	1.005187e+01
9.500000e-07	1.310022e-06	4.105547e-10	9.287453e+00	2.566853e+01
9.600000e-07	1.409986e-06	6.544482e-10	9.996153e+00	4.159413e+01
9.700000e-07	1.509490e-06	9.026203e-10	1.070159e+01	5.779826e+01
9.800000e-07	1.608496e-06	1.151407e-09	1.140349e+01	7.424087e+01
9.900000e-07	1.706825e-06	1.401030e-09	1.210060e+01	9.087248e+01
1.000000e-06	1.804268e-06	1.654095e-09	1.279143e+01	1.076349e+02
1.010000e-06	1.900801e-06	1.909660e-09	1.347580e+01	1.244628e+02
1.020000e-06	1.996537e-06	2.164532e-09	1.415452e+01	1.412854e+02
1.030000e-06	2.091607e-06	2.420088e-09	1.482853e+01	1.580295e+02
1.040000e-06	2.185972e-06	2.675092e-09	1.549753e+01	1.746218e+02
1.050000e-06	2.279546e-06	2.925015e-09	1.616093e+01	1.909921e+02
1.060000e-06	2.372344e-06	3.168489e-09	1.681883e+01	2.070756e+02
1.070000e-06	2.464447e-06	3.405049e-09	1.747179e+01	2.228158e+02
1.080000e-06	2.555903e-06	3.635980e-09	1.812018e+01	2.381661e+02
1.090000e-06	2.646474e-06	3.860543e-09	1.876228e+01	2.530902e+02
1.100000e-06	2.735740e-06	4.078897e-09	1.939513e+01	2.675633e+02
1.110000e-06	2.823790e-06	4.290195e-09	2.001937e+01	2.815706e+02
1.120000e-06	2.910942e-06	4.494284e-09	2.063724e+01	2.951063e+02
1.130000e-06	2.997240e-06	4.691649e-09	2.124905e+01	3.081717e+02
1.140000e-06	3.082590e-06	4.884083e-09	2.185414e+01	3.207730e+02
1.150000e-06	3.166960e-06	5.070102e-09	2.245229e+01	3.329191e+02
1.160000e-06	3.250424e-06	5.248531e-09	2.304401e+01	3.446195e+02
1.170000e-06	3.332813e-06	5.421086e-09	2.362811e+01	3.558830e+02
1.180000e-06	3.413822e-06	5.585998e-09	2.420242e+01	3.667162e+02
1.190000e-06	3.493506e-06	5.744201e-09	2.476735e+01	3.771238e+02
1.200000e-06	3.571991e-06	5.894784e-09	2.532377e+01	3.871083e+02
1.210000e-06	3.649255e-06	6.038754e-09	2.587154e+01	3.966716e+02
1.220000e-06	3.725248e-06	6.176908e-09	2.641029e+01	4.058153e+02
1.230000e-06	3.799738e-06	6.308552e-09	2.693839e+01	4.145430e+02
1.240000e-06	3.872552e-06	6.435324e-09	2.745461e+01	4.228607e+02
1.250000e-06	3.943896e-06	6.557156e-09	2.796040e+01	4.307786e+02
1.260000e-06	4.013919e-06	6.672296e-09	2.845683e+01	4.383110e+02
1.270000e-06	4.082556e-06	6.779777e-09	2.894344e+01	4.454763e+02
1.280000e-06	4.149795e-06	6.880267e-09	2.942013e+01	4.522969e+02
1.290000e-06	4.215426e-06	6.975331e-09	2.988543e+01	4.587971e+02
1.300000e-06	4.279414e-06	7.066897e-09	3.033907e+01	4.650027e+02
1.310000e-06	4.341917e-06	7.156727e-09	3.078219e+01	4.709384e+02
1.320000e-06	4.402946e-06	7.244151e-09	3.121486e+01	4.766267e+02
1.330000e-06	4.462600e-06	7.328309e-09	3.163778e+01	4.820864e+02
1.340000e-06	4.520693e-06	7.408656e-09	3.204963e+01	4.873318e+02
1.350000e-06	4.576981e-06	7.485808e-09	3.244868e+01	4.923720e+02
1.360000e-06	4.631562e-06	7.558162e-09	3.283564e+01	4.972112e+02
1.370000e-06	4.684457e-06	7.626141e-09	3.321064e+01	5.018497e+02
1.380000e-06	4.735446e-06	7.691827e-09	3.357213e+01	5.062846e+02
1.390000e-06	4.784404e-06	7.756106e-09	3.391922e+01	5.105114e+02
1.400000e-06	4.831562e-06	7.817180e-09	3.425354e+01	5.145252e+02
1.410000e-06	4.877069e-06	7.873847e-09	3.457617e+01	5.183222e+02
1.420000e-06	4.921055e-06	7.926401e-09	3.488801e+01	5.219007e+02
1.430000e-06	4.963271e-06	7.975900e-09	3.518730e+01	5.252615e+02
1.440000e-06	5.003502e-06	8.023366e-09	3.547252e+01	5.284081e+02
1.450000e-06	5.042038e-06	8.068242e-09	3.574573e+01	5.313466e+02
1.460000e-06	5.078968e-06	8.110116e-09	3.600754e+01	5.340849e+02
1.470000e-06	5.114222e-06	8.146763e-09	3.625747e+01	5.366319e+02
1.480000e-06	5.147547e-06	8.179064e-09	3.649374e+01	5.389967e+02
1.490000e-06	5.178980e-06	8.208625e-09	3.671658e+01	5.411878e+02
1.500000e-06	5.208719e-06	8.236226e-09	3.692742e+01	5.432123e+02
1.510000e-06	5.236796e-06	8.263089e-09	3.712647e+01	5.450757e+02
1.520000e-06	5.262947e-06	8.287878e-09	3.731187e+01	5.467822e+02
1.530000e-06	5.286993e-06	8.310797e-09	3.748234e+01	5.483346e+02
1.540000e-06	5.309131e-06	8.331660e-09	3.763929e+01	5.497349e+02
1.550000e-06	5.329528e-06	8.349227e-09	3.778390e+01	5.509851e+02
1.560000e-06	5.348138e-06	8.363796e-09	3.791583e+01	5.520877e+02
1.570000e-06	5.364711e-06	8.377356e-09	3.803333e+01	5.530459e+02
1.580000e-06	5.379280e-06	8.388585e-09	3.813661e+01	5.538641e+02
1.590000e-06	5.391892e-06	8.396613e-09	3.822603e+01	5.545475e+02
1.600000e-06	5.402289e-06	8.404066e-09	3.829974e+01	5.551022e+02
1.610000e-06	5.410543e-06	8.412041e-09	3.835826e+01	5.555343e+02
1.620000e-06	5.416912e-06	8.419323e-09	3.840341e+01	5.558490e+02
1.630000e-06	5.421488e-06	8.423886e-09	3.843585e+01	5.560509e+02
1.640000e-06	5.424213e-06	8.427183e-09	3.845517e+01	5.561424e+02
1.650000e-06	5.424894e-06	8.429031e-09	3.846000e+01	5.561245e+02
1.660000e-06	5.423661e-06	8.425491e-09	3.845126e+01	5.559961e+02
1.670000e-06	5.420758e-06	8.419448e-09	3.843067e+01	5.557552e+02
1.680000e-06	5.416246e-06	8.412313e-09	3.839868e+01	5.553991e+02
1.690000e-06	5.409867e-06	8.402942e-09	3.835346e+01	5.549255e+02
1.700000e-06	5.401611e-06	8.393040e-09	3.829493e+01	5.543337e+02
1.710000e-06	5.391752e-06	8.385493e-09	3.822504e+01	5.536250e+02
1.720000e-06	5.380169e-06	8.387232e-09	3.814292e+01	5.528039e+02
1.730000e-06	5.366624e-06	8.376000e-09	3.804689e+01	5.518775e+02
1.740000e-06	5.351011e-06	8.307263e-09	3.793620e+01	5.508560e+02
1.750000e-06	5.333106e-06	8.282914e-09	3.780926e+01	5.497513e+02
1.760000e-06	5.312548e-06	8.283765e-09	3.766351e+01	5.485764e+02
1.770000e-06	5.289572e-06	8.294530e-09	3.750063e+01	5.473434e+02
1.780000e-06	5.265198e-06	8.356035e-09	3.732782e+01	5.460623e+02
1.790000e-06	5.240143e-06	8.228258e-09	3.715020e+01	5.447397e+02
1.800000e-06	5.213761e-06	8.164596e-09	3.696316e+01	5.433772e+02
1.810000e-06	5.185074e-06	8.254407e-09	3.675978e+01	5.419715e+02
1.820000e-06	5.154506e-06	8.149482e-09	3.654307e+01	5.405136e+02
1.830000e-06	5.122407e-06	8.189695e-09	3.631550e+01	5.389901e+02
1.840000e-06	5.088313e-06	8.263816e-09	3.607379e+01	5.373838e+02
1.850000e-06	5.052504e-06	8.097699e-09	3.581992e+01	5.356757e+02
1.860000e-06	5.015027e-06	8.138138e-09	3.555423e+01	5.338468e+02
1.870000e-06	4.975635e-06	8.166037e-09	3.527496e+01	5.318797e+02
1.880000e-06	4.934533e-06	8.060285e-09	3.498356e+01	5.297609e+02
1.890000e-06	4.891589e-06	8.114481e-09	3.467911e+01	5.274816e+02
1.900000e-06	4.846953e-06	8.018087e-09	3.436266e+01	5.250385e+02
1.910000e-06	4.800642e-06	7.949045e-09	3.403434e+01	5.224342e+02
1.920000e-06	4.752305e-06	7.966163e-09	3.369165e+01	5.196762e+02
1.930000e-06	4.702292e-06	7.857029e-09	3.333708e+01	5.167759e+02
1.940000e-06	4.650553e-06	7.899046e-09	3.297028e+01	5.137472e+02
1.950000e-06	4.596692e-06	7.863452e-09	3.258843e+01	5.106046e+02
1.960000e-06	4.540882e-06	7.720404e-09	3.219276e+01	5.073612e+02
1.970000e-06	4.483342e-06	7.670998e-09	3.178483e+01	5.040276e+02
1.980000e-06	4.424377e-06	7.642518e-09	3.136679e+01	5.006105e+02
1.990000e-06	4.363896e-06	7.633397e-09	3.093801e+01	4.971124e+02
2.000000e-06	4.301633e-06	7.528639e-09	3.049660e+01	4.935311e+02
2.010000e-06	4.237752e-06	7.483602e-09	3.004371e+01	4.898610e+02
2.020000e-06	4.172390e-06	7.467800e-09	2.958032e+01	4.860933e+02
2.030000e-06	4.105613e-06	7.344231e-09	2.910690e+01	4.822178e+02
2.040000e-06	4.037350e-06	7.305257e-09	2.862295e+01	4.782239e+02
2.050000e-06	3.967568e-06	7.266232e-09	2.812823e+01	4.741023e+02
2.060000e-06	3.896309e-06	7.194112e-09	2.762303e+01	4.698455e+02
2.070000e-06	3.823653e-06	7.099040e-09	2.710794e+01	4.654487e+02
2.080000e-06	3.749715e-06	7.018879e-09	2.658375e+01	4.609101e+02
2.090000e-06	3.674412e-06	7.008416e-09	2.604988e+01	4.562302e+02
2.100000e-06	3.597596e-06	6.929911e-09	2.550530e+01	4.514115e+02
2.110000e-06	3.519180e-06	6.821901e-09	2.494936e+01	4.464578e+02
2.120000e-06	3.439416e-06	6.737282e-09	2.438387e+01	4.413728e+02
2.130000e-06	3.358559e-06	6.665872e-09	2.381063e+01	4.361596e+02
2.140000e-06	3.276565e-06	6.583258e-09	2.322934e+01	4.308198e+02
2.150000e-06	3.193530e-06	6.503491e-09	2.264065e+01	4.253529e+02
2.160000e-06	3.109460e-06	6.446582e-09	2.204464e+01	4.197565e+02
2.170000e-06	3.024183e-06	6.346632e-09	2.144006e+01	4.140265e+02
2.180000e-06	2.937613e-06	6.234667e-09	2.082632e+01	4.081572e+02
2.190000e-06	2.849852e-06	6.144802e-09	2.020414e+01	4.021423e+02
2.200000e-06	2.761110e-06	6.070577e-09	1.957500e+01	3.959757e+02
2.210000e-06	2.671467e-06	5.981915e-09	1.893947e+01	3.896519e+02
2.220000e-06	2.580899e-06	5.870252e-09	1.829738e+01	3.831666e+02
2.230000e-06	2.489480e-06	5.765942e-09	1.764926e+01	3.765170e+02
2.240000e-06	2.397290e-06	5.661396e-09	1.699568e+01	3.697020e+02
2.250000e-06	2.304181e-06	5.554959e-09	1.633558e+01	3.627214e+02
2.260000e-06	2.210170e-06	5.447430e-09	1.566909e+01	3.555762e+02
2.270000e-06	2.115294e-06	5.337622e-09	1.499646e+01	3.482673e+02
2.280000e-06	2.019491e-06	5.223097e-09	1.431726e+01	3.407952e+02
2.290000e-06	1.922916e-06	5.108162e-09	1.363259e+01	3.331596e+02
2.300000e-06	1.825810e-06	4.997654e-09	1.294415e+01	3.253585e+02
2.310000e-06	1.728252e-06	4.881504e-09	1.225251e+01	3.173887e+02
2.320000e-06	1.630057e-06	4.751720e-09	1.155635e+01	3.092451e+02
2.330000e-06	1.531246e-06	4.614630e-09	1.085583e+01	3.009214e+02
2.340000e-06	1.432045e-06	4.482002e-09	1.015254e+01	2.924104e+02
2.350000e-06	1.332510e-06	4.352978e-09	9.446882e+00	2.837045e+02
2.360000e-06	1.232698e-06	4.227082e-09	8.739262e+00	2.747962e+02
2.370000e-06	1.132591e-06	4.094097e-09	8.029551e+00	2.656789e+02
2.380000e-06	1.032031e-06	3.945059e-09	7.316623e+00	2.563466e+02
2.390000e-06	9.309692e-07	3.793239e-09	6.600143e+00	2.467948e+02
2.400000e-06	8.294615e-07	3.648152e-09	5.880500e+00	2.370203e+02
2.410000e-06	7.275248e-07	3.504238e-09	5.157815e+00	2.270206e+02
2.420000e-06	6.252343e-07	3.351073e-09	4.432623e+00	2.167942e+02
2.430000e-06	5.226624e-07	3.189274e-09	3.705435e+00	2.063398e+02
2.440000e-06	4.198676e-07	3.025257e-09	2.976667e+00	1.956559e+02
2.450000e-06	3.169374e-07	2.860467e-09	2.246940e+00	1.847403e+02
2.460000e-06	2.138820e-07	2.693824e-09	1.516325e+00	1.735898e+02
2.470000e-06	1.106993e-07	2.526021e-09	7.848068e-01	1.621999e+02
2.480000e-06	7.481319e-09	2.349405e-09	5.303910e-02	1.505645e+02
2.490000e-06	-9.573858e-08	2.162469e-09	-6.787424e-01	1.386755e+02
2.500000e-06	-1.990077e-07	1.975082e-09	-1.410873e+00	1.265238e+02
2.510000e-06	-3.022362e-07	1.789176e-09	-2.142715e+00	1.140982e+02
2.520000e-06	-4.053531e-07	1.598866e-09	-2.873767e+00	1.013869e+02
2.530000e-06	-5.082745e-07	1.398925e-09	-3.603432e+00	8.837704e+01
2.540000e-06	-6.109570e-07	1.193467e-09	-4.331403e+00	7.505564e+01
2.550000e-06	-7.133634e-07	9.849560e-10	-5.057417e+00	6.141039e+01
2.560000e-06	-8.153818e-07	7.700808e-10	-5.780681e+00	4.743037e+01
2.570000e-06	-9.169462e-07	5.493440e-10	-6.500726e+00	3.310721e+01
2.580000e-06	-1.018014e-06	3.229553e-10	-7.217251e+00	1.843625e+01
2.590000e-06	-1.118616e-06	9.117657e-11	-7.930472e+00	3.417894e+00
2.600000e-06	-1.218805e-06	-1.439663e-10	-8.640766e+00	-1.194112e+01
2.610000e-06	-1.318598e-06	-3.816229e-10	-9.348251e+00	-2.762640e+01
2.620000e-06	-1.417994e-06	-6.241398e-10	-1.005292e+01	-4.361490e+01
2.630000e-06	-1.516922e-06	-8.725668e-10	-1.075428e+01	-5.987416e+01
2.640000e-06	-1.615312e-06	-1.125969e-09	-1.145182e+01	-7.636208e+01
2.650000e-06	-1.713134e-06	-1.383342e-09	-1.214533e+01	-9.302722e+01
2.660000e-06	-1.810328e-06	-1.641568e-09	-1.283439e+01	-1.098097e+02
2.670000e-06	-1.906915e-06	-1.898277e-09	-1.351915e+01	-1.266429e+02
2.680000e-06	-2.002986e-06	-2.152487e-09	-1.420025e+01	-1.434552e+02
2.690000e-06	-2.098512e-06	-2.406520e-09	-1.487749e+01	-1.601733e+02
2.700000e-06	-2.193261e-06	-2.660467e-09	-1.554921e+01	-1.767241e+02
2.710000e-06	-2.286968e-06	-2.911700e-09	-1.621355e+01	-1.930384e+02
2.720000e-06	-2.379575e-06	-3.156843e-09	-1.687009e+01	-2.090531e+02
2.730000e-06	-2.471286e-06	-3.395564e-09	-1.752028e+01	-2.247137e+02
2.740000e-06	-2.562205e-06	-3.629231e-09	-1.816485e+01	-2.399756e+02
2.750000e-06	-2.652224e-06	-3.856132e-09	-1.880304e+01	-2.548052e+02
2.760000e-06	-2.741321e-06	-4.078182e-09	-1.943470e+01	-2.691797e+02
2.770000e-06	-2.829577e-06	-4.295310e-09	-2.006039e+01	-2.830865e+02
2.780000e-06	-2.917046e-06	-4.504052e-09	-2.068051e+01	-2.965214e+02
2.790000e-06	-3.003487e-06	-4.703254e-09	-2.129334e+01	-3.094870e+02
2.800000e-06	-3.088568e-06	-4.895947e-09	-2.189652e+01	-3.219903e+02
2.810000e-06	-3.172484e-06	-5.083023e-09	-2.249145e+01	-3.340405e+02
2.820000e-06	-3.255422e-06	-5.259904e-09	-2.307944e+01	-3.456469e+02
2.830000e-06	-3.337322e-06	-5.426737e-09	-2.366008e+01	-3.568180e+02
2.840000e-06	-3.418147e-06	-5.586766e-09	-2.423309e+01	-3.675601e+02
2.850000e-06	-3.497761e-06	-5.742188e-09	-2.479751e+01	-3.778771e+02
2.860000e-06	-3.575961e-06	-5.892355e-09	-2.535192e+01	-3.877716e+02
2.870000e-06	-3.652577e-06	-6.037274e-09	-2.589508e+01	-3.972451e+02
2.880000e-06	-3.727742e-06	-6.176957e-09	-2.642797e+01	-4.062997e+02
2.890000e-06	-3.801586e-06	-6.311169e-09	-2.695149e+01	-4.149392e+02
2.900000e-06	-3.874152e-06	-6.442332e-09	-2.746595e+01	-4.231706e+02
2.910000e-06	-3.945386e-06	-6.568608e-09	-2.797097e+01	-4.310048e+02
2.920000e-06	-4.014972e-06	-6.685029e-09	-2.846430e+01	-4.384572e+02
2.930000e-06	-4.082966e-06	-6.791569e-09	-2.894635e+01	-4.455470e+02
2.940000e-06	-4.149568e-06	-6.892562e-09	-2.941853e+01	-4.522971e+02
