# Temperatura_=_79.16
# Concentracion g/m^3_=_15000.0
# C_Vs_to_Am_M_A/Vsm_=_65563218390.804596
# pendiente_HvsI_1/m_=_3716.3
# ordenada_HvsI_A/m_=_1297.0
# frecuencia_Hz_=_301602.48025006265

Tiempo_(s)	Campo_(V.s)	Magnetizacion_(V.s)	Campo_(kA/m)	Magnetizacion_(A/m)
0.000000e+00	-5.428647e-06	-9.638017e-09	-3.833394e+01	-6.296842e+02
1.000000e-08	-5.426003e-06	-9.633811e-09	-3.831526e+01	-6.294113e+02
2.000000e-08	-5.421555e-06	-9.624153e-09	-3.828386e+01	-6.290005e+02
3.000000e-08	-5.415401e-06	-9.617283e-09	-3.824040e+01	-6.284492e+02
4.000000e-08	-5.407626e-06	-9.606529e-09	-3.818550e+01	-6.277570e+02
5.000000e-08	-5.398082e-06	-9.589825e-09	-3.811811e+01	-6.269263e+02
6.000000e-08	-5.386497e-06	-9.569018e-09	-3.803630e+01	-6.259630e+02
7.000000e-08	-5.373009e-06	-9.534275e-09	-3.794105e+01	-6.248759e+02
8.000000e-08	-5.357423e-06	-9.549590e-09	-3.783099e+01	-6.236762e+02
9.000000e-08	-5.339570e-06	-9.614888e-09	-3.770492e+01	-6.223765e+02
1.000000e-07	-5.319665e-06	-9.560071e-09	-3.756437e+01	-6.209895e+02
1.100000e-07	-5.297827e-06	-9.485862e-09	-3.741016e+01	-6.195263e+02
1.200000e-07	-5.274217e-06	-9.433750e-09	-3.724344e+01	-6.179955e+02
1.300000e-07	-5.249021e-06	-9.268340e-09	-3.706552e+01	-6.164017e+02
1.400000e-07	-5.222232e-06	-9.392228e-09	-3.687635e+01	-6.147445e+02
1.500000e-07	-5.193811e-06	-9.489384e-09	-3.667566e+01	-6.130188e+02
1.600000e-07	-5.163876e-06	-9.239637e-09	-3.646428e+01	-6.112145e+02
1.700000e-07	-5.132372e-06	-9.364701e-09	-3.624182e+01	-6.093177e+02
1.800000e-07	-5.098747e-06	-9.326512e-09	-3.600437e+01	-6.073114e+02
1.900000e-07	-5.063240e-06	-9.062775e-09	-3.575365e+01	-6.051777e+02
2.000000e-07	-5.026337e-06	-9.233612e-09	-3.549306e+01	-6.028990e+02
2.100000e-07	-4.987660e-06	-9.187406e-09	-3.521994e+01	-6.004597e+02
2.200000e-07	-4.947075e-06	-9.048077e-09	-3.493335e+01	-5.978475e+02
2.300000e-07	-4.904527e-06	-9.117450e-09	-3.463290e+01	-5.950547e+02
2.400000e-07	-4.860073e-06	-9.009446e-09	-3.431900e+01	-5.920780e+02
2.500000e-07	-4.813821e-06	-8.949016e-09	-3.399239e+01	-5.889191e+02
2.600000e-07	-4.765544e-06	-8.915680e-09	-3.365149e+01	-5.855839e+02
2.700000e-07	-4.715119e-06	-8.841119e-09	-3.329541e+01	-5.820813e+02
2.800000e-07	-4.662691e-06	-8.836284e-09	-3.292520e+01	-5.784223e+02
2.900000e-07	-4.608504e-06	-8.731674e-09	-3.254256e+01	-5.746182e+02
3.000000e-07	-4.552754e-06	-8.645897e-09	-3.214889e+01	-5.706796e+02
3.100000e-07	-4.495284e-06	-8.633780e-09	-3.174307e+01	-5.666154e+02
3.200000e-07	-4.435941e-06	-8.605037e-09	-3.132403e+01	-5.624314e+02
3.300000e-07	-4.375038e-06	-8.505072e-09	-3.089396e+01	-5.581304e+02
3.400000e-07	-4.312761e-06	-8.393688e-09	-3.045420e+01	-5.537120e+02
3.500000e-07	-4.249084e-06	-8.367465e-09	-3.000455e+01	-5.491729e+02
3.600000e-07	-4.183781e-06	-8.286124e-09	-2.954342e+01	-5.445077e+02
3.700000e-07	-4.116757e-06	-8.213560e-09	-2.907013e+01	-5.397095e+02
3.800000e-07	-4.048229e-06	-8.172033e-09	-2.858623e+01	-5.347712e+02
3.900000e-07	-3.978350e-06	-8.065758e-09	-2.809278e+01	-5.296858e+02
4.000000e-07	-3.907252e-06	-7.962811e-09	-2.759073e+01	-5.244478e+02
4.100000e-07	-3.834827e-06	-7.871099e-09	-2.707931e+01	-5.190528e+02
4.200000e-07	-3.760814e-06	-7.825549e-09	-2.655667e+01	-5.134985e+02
4.300000e-07	-3.685252e-06	-7.753528e-09	-2.602310e+01	-5.077842e+02
4.400000e-07	-3.608254e-06	-7.643614e-09	-2.547938e+01	-5.019107e+02
4.500000e-07	-3.529725e-06	-7.538571e-09	-2.492485e+01	-4.958796e+02
4.600000e-07	-3.449716e-06	-7.439408e-09	-2.435988e+01	-4.896933e+02
4.700000e-07	-3.368484e-06	-7.359462e-09	-2.378627e+01	-4.833541e+02
4.800000e-07	-3.286134e-06	-7.265427e-09	-2.320476e+01	-4.768638e+02
4.900000e-07	-3.202739e-06	-7.165453e-09	-2.261587e+01	-4.702235e+02
5.000000e-07	-3.118363e-06	-7.054638e-09	-2.202006e+01	-4.634337e+02
5.100000e-07	-3.032965e-06	-6.936329e-09	-2.141703e+01	-4.564938e+02
5.200000e-07	-2.946595e-06	-6.826853e-09	-2.080714e+01	-4.494023e+02
5.300000e-07	-2.859326e-06	-6.726261e-09	-2.019089e+01	-4.421574e+02
5.400000e-07	-2.771038e-06	-6.621673e-09	-1.956745e+01	-4.347567e+02
5.500000e-07	-2.681574e-06	-6.500823e-09	-1.893571e+01	-4.271977e+02
5.600000e-07	-2.590935e-06	-6.368089e-09	-1.829567e+01	-4.194779e+02
5.700000e-07	-2.499297e-06	-6.247168e-09	-1.764857e+01	-4.115949e+02
5.800000e-07	-2.406864e-06	-6.140471e-09	-1.699587e+01	-4.035462e+02
5.900000e-07	-2.313652e-06	-6.022243e-09	-1.633766e+01	-3.953297e+02
6.000000e-07	-2.219592e-06	-5.881627e-09	-1.567346e+01	-3.869429e+02
6.100000e-07	-2.124775e-06	-5.739469e-09	-1.500392e+01	-3.783832e+02
6.200000e-07	-2.029253e-06	-5.607168e-09	-1.432940e+01	-3.696476e+02
6.300000e-07	-1.932895e-06	-5.475689e-09	-1.364898e+01	-3.607328e+02
6.400000e-07	-1.835654e-06	-5.343709e-09	-1.296231e+01	-3.516349e+02
6.500000e-07	-1.737632e-06	-5.203379e-09	-1.227014e+01	-3.423496e+02
6.600000e-07	-1.638963e-06	-5.050082e-09	-1.157340e+01	-3.328723e+02
6.700000e-07	-1.539707e-06	-4.891009e-09	-1.087251e+01	-3.231980e+02
6.800000e-07	-1.439885e-06	-4.740937e-09	-1.016763e+01	-3.133217e+02
6.900000e-07	-1.339618e-06	-4.596918e-09	-9.459602e+00	-3.032385e+02
7.000000e-07	-1.239030e-06	-4.443764e-09	-8.749304e+00	-2.929436e+02
7.100000e-07	-1.138102e-06	-4.277125e-09	-8.036611e+00	-2.824326e+02
7.200000e-07	-1.036819e-06	-4.104016e-09	-7.321414e+00	-2.717014e+02
7.300000e-07	-9.351848e-07	-3.934232e-09	-6.603729e+00	-2.607463e+02
7.400000e-07	-8.331736e-07	-3.766011e-09	-5.883385e+00	-2.495640e+02
7.500000e-07	-7.308360e-07	-3.594468e-09	-5.160737e+00	-2.381515e+02
7.600000e-07	-6.282690e-07	-3.413361e-09	-4.436469e+00	-2.265056e+02
7.700000e-07	-5.255423e-07	-3.225814e-09	-3.711073e+00	-2.146235e+02
7.800000e-07	-4.226843e-07	-3.039985e-09	-2.984750e+00	-2.025018e+02
7.900000e-07	-3.197124e-07	-2.856149e-09	-2.257622e+00	-1.901365e+02
8.000000e-07	-2.166368e-07	-2.668321e-09	-1.529763e+00	-1.775229e+02
8.100000e-07	-1.134823e-07	-2.471243e-09	-8.013460e-01	-1.646548e+02
8.200000e-07	-1.026917e-08	-2.267907e-09	-7.251487e-02	-1.515247e+02
8.300000e-07	9.298494e-08	-2.061480e-09	6.566054e-01	-1.381229e+02
8.400000e-07	1.961764e-07	-1.855234e-09	1.385283e+00	-1.244376e+02
8.500000e-07	2.993178e-07	-1.647829e-09	2.113607e+00	-1.104552e+02
8.600000e-07	4.024447e-07	-1.432980e-09	2.841830e+00	-9.615952e+01
8.700000e-07	5.054943e-07	-1.205981e-09	3.569505e+00	-8.153306e+01
8.800000e-07	6.084458e-07	-9.734077e-10	4.296489e+00	-6.655737e+01
8.900000e-07	7.112237e-07	-7.389271e-10	5.022246e+00	-5.121422e+01
9.000000e-07	8.137886e-07	-4.990607e-10	5.746500e+00	-3.548709e+01
9.100000e-07	9.160698e-07	-2.529339e-10	6.468750e+00	-1.936293e+01
9.200000e-07	1.017943e-06	4.263775e-13	7.188117e+00	-2.834158e+00
9.300000e-07	1.119405e-06	2.588716e-10	7.904582e+00	1.409933e+01
9.400000e-07	1.220490e-06	5.223202e-10	8.618389e+00	3.142819e+01
9.500000e-07	1.321195e-06	7.881240e-10	9.329509e+00	4.913196e+01
9.600000e-07	1.421460e-06	1.057844e-09	1.003752e+01	6.717794e+01
9.700000e-07	1.521248e-06	1.333918e-09	1.074217e+01	8.552063e+01
9.800000e-07	1.620568e-06	1.615057e-09	1.144350e+01	1.041021e+02
9.900000e-07	1.719315e-06	1.899124e-09	1.214080e+01	1.228529e+02
1.000000e-06	1.817245e-06	2.182481e-09	1.283233e+01	1.416945e+02
1.010000e-06	1.914207e-06	2.466428e-09	1.351701e+01	1.605415e+02
1.020000e-06	2.010321e-06	2.750701e-09	1.419571e+01	1.793052e+02
1.030000e-06	2.105705e-06	3.035538e-09	1.486926e+01	1.978971e+02
1.040000e-06	2.200385e-06	3.317274e-09	1.553783e+01	2.162327e+02
1.050000e-06	2.294347e-06	3.588635e-09	1.620134e+01	2.342350e+02
1.060000e-06	2.387531e-06	3.850791e-09	1.685935e+01	2.518372e+02
1.070000e-06	2.479921e-06	4.105763e-09	1.751176e+01	2.689850e+02
1.080000e-06	2.571601e-06	4.356239e-09	1.815915e+01	2.856378e+02
1.090000e-06	2.662452e-06	4.601363e-09	1.880068e+01	3.017688e+02
1.100000e-06	2.752104e-06	4.839238e-09	1.943375e+01	3.173643e+02
1.110000e-06	2.840538e-06	5.066494e-09	2.005822e+01	3.324221e+02
1.120000e-06	2.927985e-06	5.286107e-09	2.067572e+01	3.469492e+02
1.130000e-06	3.014501e-06	5.501225e-09	2.128665e+01	3.609590e+02
1.140000e-06	3.100054e-06	5.710597e-09	2.189077e+01	3.744687e+02
1.150000e-06	3.184648e-06	5.911074e-09	2.248812e+01	3.874963e+02
1.160000e-06	3.268326e-06	6.101659e-09	2.307901e+01	4.000590e+02
1.170000e-06	3.350960e-06	6.285529e-09	2.366252e+01	4.121710e+02
1.180000e-06	3.432260e-06	6.461263e-09	2.423661e+01	4.238432e+02
1.190000e-06	3.512247e-06	6.630940e-09	2.480144e+01	4.350828e+02
1.200000e-06	3.591025e-06	6.794605e-09	2.535773e+01	4.458937e+02
1.210000e-06	3.668550e-06	6.953310e-09	2.590516e+01	4.562779e+02
1.220000e-06	3.744771e-06	7.105405e-09	2.644339e+01	4.662365e+02
1.230000e-06	3.819528e-06	7.251208e-09	2.697128e+01	4.757714e+02
1.240000e-06	3.892643e-06	7.392274e-09	2.748758e+01	4.848864e+02
1.250000e-06	3.964211e-06	7.527642e-09	2.799294e+01	4.935884e+02
1.260000e-06	4.034359e-06	7.654855e-09	2.848829e+01	5.018876e+02
1.270000e-06	4.103143e-06	7.774390e-09	2.897400e+01	5.097980e+02
1.280000e-06	4.170649e-06	7.887702e-09	2.945069e+01	5.173369e+02
1.290000e-06	4.236560e-06	7.994272e-09	2.991611e+01	5.245236e+02
1.300000e-06	4.300738e-06	8.096282e-09	3.036930e+01	5.313791e+02
1.310000e-06	4.363396e-06	8.194638e-09	3.081175e+01	5.379244e+02
1.320000e-06	4.424585e-06	8.290924e-09	3.124384e+01	5.441796e+02
1.330000e-06	4.484420e-06	8.383351e-09	3.166636e+01	5.501627e+02
1.340000e-06	4.542671e-06	8.471649e-09	3.207769e+01	5.558890e+02
1.350000e-06	4.599064e-06	8.556246e-09	3.247591e+01	5.613711e+02
1.360000e-06	4.653745e-06	8.637216e-09	3.286203e+01	5.666184e+02
1.370000e-06	4.706780e-06	8.714394e-09	3.323653e+01	5.716377e+02
1.380000e-06	4.757896e-06	8.786917e-09	3.359749e+01	5.764337e+02
1.390000e-06	4.806893e-06	8.855481e-09	3.394347e+01	5.810094e+02
1.400000e-06	4.854043e-06	8.919661e-09	3.427642e+01	5.853671e+02
1.410000e-06	4.899619e-06	8.980328e-09	3.459825e+01	5.895085e+02
1.420000e-06	4.943719e-06	9.040125e-09	3.490965e+01	5.934356e+02
1.430000e-06	4.986033e-06	9.099449e-09	3.520845e+01	5.971505e+02
1.440000e-06	5.026367e-06	9.155132e-09	3.549327e+01	6.006554e+02
1.450000e-06	5.064985e-06	9.206107e-09	3.576597e+01	6.039530e+02
1.460000e-06	5.101955e-06	9.253225e-09	3.602703e+01	6.070455e+02
1.470000e-06	5.137236e-06	9.296524e-09	3.627616e+01	6.099355e+02
1.480000e-06	5.170577e-06	9.334855e-09	3.651160e+01	6.126248e+02
1.490000e-06	5.201973e-06	9.367853e-09	3.673330e+01	6.151153e+02
1.500000e-06	5.231668e-06	9.396937e-09	3.694298e+01	6.174089e+02
1.510000e-06	5.259750e-06	9.425368e-09	3.714128e+01	6.195073e+02
1.520000e-06	5.285895e-06	9.453290e-09	3.732590e+01	6.214133e+02
1.530000e-06	5.309871e-06	9.480227e-09	3.749521e+01	6.231304e+02
1.540000e-06	5.331946e-06	9.504154e-09	3.765109e+01	6.246633e+02
1.550000e-06	5.352336e-06	9.523308e-09	3.779507e+01	6.260182e+02
1.560000e-06	5.370878e-06	9.539760e-09	3.792600e+01	6.272027e+02
1.570000e-06	5.387333e-06	9.555760e-09	3.804220e+01	6.282252e+02
1.580000e-06	5.401804e-06	9.570256e-09	3.814439e+01	6.290948e+02
1.590000e-06	5.414337e-06	9.580937e-09	3.823289e+01	6.298205e+02
1.600000e-06	5.424650e-06	9.588321e-09	3.830571e+01	6.304102e+02
1.610000e-06	5.432768e-06	9.593837e-09	3.836304e+01	6.308706e+02
1.620000e-06	5.438996e-06	9.598872e-09	3.840701e+01	6.312058e+02
1.630000e-06	5.443455e-06	9.604243e-09	3.843850e+01	6.314179e+02
1.640000e-06	5.446021e-06	9.609759e-09	3.845662e+01	6.315064e+02
1.650000e-06	5.446500e-06	9.614740e-09	3.846000e+01	6.314687e+02
1.660000e-06	5.445107e-06	9.610377e-09	3.845017e+01	6.313007e+02
1.670000e-06	5.442103e-06	9.603666e-09	3.842895e+01	6.309981e+02
1.680000e-06	5.437444e-06	9.598249e-09	3.839606e+01	6.305570e+02
1.690000e-06	5.430838e-06	9.587902e-09	3.834941e+01	6.299750e+02
1.700000e-06	5.422393e-06	9.576929e-09	3.828977e+01	6.292523e+02
1.710000e-06	5.412398e-06	9.569173e-09	3.821920e+01	6.283922e+02
1.720000e-06	5.400695e-06	9.577196e-09	3.813656e+01	6.274011e+02
1.730000e-06	5.386978e-06	9.562459e-09	3.803969e+01	6.262885e+02
1.740000e-06	5.371192e-06	9.433878e-09	3.792822e+01	6.250658e+02
1.750000e-06	5.353063e-06	9.429209e-09	3.780021e+01	6.237459e+02
1.760000e-06	5.332177e-06	9.455289e-09	3.765272e+01	6.223412e+02
1.770000e-06	5.308946e-06	9.467502e-09	3.748867e+01	6.208626e+02
1.780000e-06	5.284331e-06	9.599031e-09	3.731486e+01	6.193176e+02
1.790000e-06	5.259015e-06	9.353841e-09	3.713610e+01	6.177100e+02
1.800000e-06	5.232390e-06	9.289176e-09	3.694808e+01	6.160383e+02
1.810000e-06	5.203423e-06	9.477664e-09	3.674354e+01	6.142963e+02
1.820000e-06	5.172562e-06	9.205156e-09	3.652562e+01	6.124731e+02
1.830000e-06	5.140122e-06	9.303881e-09	3.629654e+01	6.105538e+02
1.840000e-06	5.105731e-06	9.454401e-09	3.605369e+01	6.085213e+02
1.850000e-06	5.069771e-06	9.120767e-09	3.579977e+01	6.063575e+02
1.860000e-06	5.032017e-06	9.240425e-09	3.553316e+01	6.040452e+02
1.870000e-06	4.992290e-06	9.222156e-09	3.525264e+01	6.015693e+02
1.880000e-06	4.950909e-06	9.005018e-09	3.496043e+01	5.989185e+02
1.890000e-06	4.907730e-06	9.163342e-09	3.465553e+01	5.960859e+02
1.900000e-06	4.862912e-06	9.018903e-09	3.433905e+01	5.930695e+02
1.910000e-06	4.816243e-06	9.019945e-09	3.400950e+01	5.898718e+02
1.920000e-06	4.767471e-06	9.006622e-09	3.366510e+01	5.864995e+02
1.930000e-06	4.717054e-06	8.745051e-09	3.330908e+01	5.829620e+02
1.940000e-06	4.664861e-06	8.906319e-09	3.294053e+01	5.792704e+02
1.950000e-06	4.610601e-06	8.832207e-09	3.255737e+01	5.754362e+02
1.960000e-06	4.554437e-06	8.676927e-09	3.216077e+01	5.714697e+02
1.970000e-06	4.496502e-06	8.650074e-09	3.175167e+01	5.673790e+02
1.980000e-06	4.437144e-06	8.546850e-09	3.133252e+01	5.631694e+02
1.990000e-06	4.376327e-06	8.578766e-09	3.090307e+01	5.588429e+02
2.000000e-06	4.313728e-06	8.424473e-09	3.046103e+01	5.543986e+02
2.010000e-06	4.249526e-06	8.398945e-09	3.000767e+01	5.498326e+02
2.020000e-06	4.183891e-06	8.360084e-09	2.954419e+01	5.451390e+02
2.030000e-06	4.116832e-06	8.169869e-09	2.907066e+01	5.403110e+02
2.040000e-06	4.048240e-06	8.164124e-09	2.858631e+01	5.353412e+02
2.050000e-06	3.978053e-06	8.093005e-09	2.809069e+01	5.302232e+02
2.060000e-06	3.906403e-06	8.057709e-09	2.758474e+01	5.249513e+02
2.070000e-06	3.833420e-06	7.920924e-09	2.706937e+01	5.195219e+02
2.080000e-06	3.759113e-06	7.785547e-09	2.654466e+01	5.139329e+02
2.090000e-06	3.683363e-06	7.759931e-09	2.600976e+01	5.081840e+02
2.100000e-06	3.606061e-06	7.658531e-09	2.546390e+01	5.022761e+02
2.110000e-06	3.527210e-06	7.598285e-09	2.490710e+01	4.962111e+02
2.120000e-06	3.447111e-06	7.478818e-09	2.434148e+01	4.899915e+02
2.130000e-06	3.365889e-06	7.384259e-09	2.376794e+01	4.836193e+02
2.140000e-06	3.283519e-06	7.271896e-09	2.318629e+01	4.770963e+02
2.150000e-06	3.200106e-06	7.149998e-09	2.259728e+01	4.704236e+02
2.160000e-06	3.115628e-06	7.084751e-09	2.200074e+01	4.636013e+02
2.170000e-06	3.029918e-06	6.983205e-09	2.139551e+01	4.566286e+02
2.180000e-06	2.942867e-06	6.869968e-09	2.078081e+01	4.495040e+02
2.190000e-06	2.854674e-06	6.724077e-09	2.015804e+01	4.422255e+02
2.200000e-06	2.765573e-06	6.621344e-09	1.952886e+01	4.347906e+02
2.210000e-06	2.675542e-06	6.538072e-09	1.889311e+01	4.271969e+02
2.220000e-06	2.584610e-06	6.420768e-09	1.825101e+01	4.194419e+02
2.230000e-06	2.492860e-06	6.279868e-09	1.760312e+01	4.115232e+02
2.240000e-06	2.400192e-06	6.144018e-09	1.694875e+01	4.034383e+02
2.250000e-06	2.306532e-06	6.029393e-09	1.628738e+01	3.951851e+02
2.260000e-06	2.211974e-06	5.901596e-09	1.561967e+01	3.867610e+02
2.270000e-06	2.116517e-06	5.777700e-09	1.494561e+01	3.781634e+02
2.280000e-06	2.020221e-06	5.648535e-09	1.426562e+01	3.693893e+02
2.290000e-06	1.923290e-06	5.505092e-09	1.358115e+01	3.604352e+02
2.300000e-06	1.825822e-06	5.352115e-09	1.289289e+01	3.512971e+02
2.310000e-06	1.727778e-06	5.215906e-09	1.220056e+01	3.419706e+02
2.320000e-06	1.629166e-06	5.092555e-09	1.150422e+01	3.324510e+02
2.330000e-06	1.530081e-06	4.947430e-09	1.080454e+01	3.227335e+02
2.340000e-06	1.430569e-06	4.780012e-09	1.010184e+01	3.128128e+02
2.350000e-06	1.330693e-06	4.611734e-09	9.396580e+00	3.026842e+02
2.360000e-06	1.230442e-06	4.460727e-09	8.688663e+00	2.923430e+02
2.370000e-06	1.129754e-06	4.312329e-09	7.977664e+00	2.817847e+02
2.380000e-06	1.028642e-06	4.154391e-09	7.263668e+00	2.710054e+02
2.390000e-06	9.271178e-07	3.984560e-09	6.546765e+00	2.600014e+02
2.400000e-06	8.251728e-07	3.808447e-09	5.826888e+00	2.487696e+02
2.410000e-06	7.228519e-07	3.633921e-09	5.104358e+00	2.373069e+02
2.420000e-06	6.201590e-07	3.460760e-09	4.379201e+00	2.256102e+02
2.430000e-06	5.171713e-07	3.285048e-09	3.651962e+00	2.136767e+02
2.440000e-06	4.140423e-07	3.100994e-09	2.923725e+00	2.015027e+02
2.450000e-06	3.107989e-07	2.903726e-09	2.194680e+00	1.890842e+02
2.460000e-06	2.073535e-07	2.701720e-09	1.464209e+00	1.764162e+02
2.470000e-06	1.037058e-07	2.509239e-09	7.323099e-01	1.634922e+02
2.480000e-06	3.658792e-11	2.317811e-09	2.583626e-04	1.503043e+02
2.490000e-06	-1.036247e-07	2.114417e-09	-7.317371e-01	1.368424e+02
2.500000e-06	-2.072544e-07	1.897808e-09	-1.463510e+00	1.230943e+02
2.510000e-06	-3.107876e-07	1.678160e-09	-2.194600e+00	1.090457e+02
2.520000e-06	-4.142286e-07	1.461792e-09	-2.925041e+00	9.468022e+01
2.530000e-06	-5.175157e-07	1.242064e-09	-3.654393e+00	7.998007e+01
2.540000e-06	-6.206124e-07	1.016030e-09	-4.382402e+00	6.492671e+01
2.550000e-06	-7.234344e-07	7.803882e-10	-5.108472e+00	4.950214e+01
2.560000e-06	-8.259251e-07	5.334711e-10	-5.832201e+00	3.369045e+01
2.570000e-06	-9.280249e-07	2.819666e-10	-6.553170e+00	1.747957e+01
2.580000e-06	-1.029629e-06	3.177283e-11	-7.270641e+00	8.633524e-01
2.590000e-06	-1.130730e-06	-2.209860e-10	-7.984555e+00	-1.615643e+01
2.600000e-06	-1.231353e-06	-4.858638e-10	-8.695094e+00	-3.356819e+01
2.610000e-06	-1.331514e-06	-7.616376e-10	-9.402372e+00	-5.134891e+01
2.620000e-06	-1.431205e-06	-1.042093e-09	-1.010633e+01	-6.946316e+01
2.630000e-06	-1.530441e-06	-1.322730e-09	-1.080708e+01	-8.786273e+01
2.640000e-06	-1.629170e-06	-1.604974e-09	-1.150425e+01	-1.064871e+02
2.650000e-06	-1.727312e-06	-1.894241e-09	-1.219727e+01	-1.252647e+02
2.660000e-06	-1.824832e-06	-2.189150e-09	-1.288589e+01	-1.441153e+02
2.670000e-06	-1.921693e-06	-2.484741e-09	-1.356988e+01	-1.629524e+02
2.680000e-06	-2.017987e-06	-2.772833e-09	-1.424985e+01	-1.816870e+02
2.690000e-06	-2.113785e-06	-3.054081e-09	-1.492631e+01	-2.002313e+02
2.700000e-06	-2.208859e-06	-3.333024e-09	-1.559767e+01	-2.185021e+02
2.710000e-06	-2.302953e-06	-3.609725e-09	-1.626211e+01	-2.364244e+02
2.720000e-06	-2.395988e-06	-3.880894e-09	-1.691907e+01	-2.539338e+02
2.730000e-06	-2.488016e-06	-4.141242e-09	-1.756892e+01	-2.709789e+02
2.740000e-06	-2.579197e-06	-4.390321e-09	-1.821279e+01	-2.875220e+02
2.750000e-06	-2.669517e-06	-4.631560e-09	-1.885057e+01	-3.035394e+02
2.760000e-06	-2.758838e-06	-4.868984e-09	-1.948131e+01	-3.190200e+02
2.770000e-06	-2.847253e-06	-5.101605e-09	-2.010564e+01	-3.339636e+02
2.780000e-06	-2.934877e-06	-5.325576e-09	-2.072439e+01	-3.483790e+02
2.790000e-06	-3.021472e-06	-5.539858e-09	-2.133587e+01	-3.622806e+02
2.800000e-06	-3.106796e-06	-5.746715e-09	-2.193838e+01	-3.756859e+02
2.810000e-06	-3.190957e-06	-5.946148e-09	-2.253268e+01	-3.886129e+02
2.820000e-06	-3.274086e-06	-6.136440e-09	-2.311968e+01	-4.010784e+02
2.830000e-06	-3.356153e-06	-6.319575e-09	-2.369919e+01	-4.130958e+02
2.840000e-06	-3.437138e-06	-6.495753e-09	-2.427106e+01	-4.246753e+02
2.850000e-06	-3.517010e-06	-6.662359e-09	-2.483507e+01	-4.358232e+02
2.860000e-06	-3.595520e-06	-6.821135e-09	-2.538947e+01	-4.465430e+02
2.870000e-06	-3.672482e-06	-6.976620e-09	-2.593292e+01	-4.568363e+02
2.880000e-06	-3.747929e-06	-7.129199e-09	-2.646569e+01	-4.667043e+02
2.890000e-06	-3.821920e-06	-7.275632e-09	-2.698817e+01	-4.761492e+02
2.900000e-06	-3.894587e-06	-7.414876e-09	-2.750130e+01	-4.851755e+02
2.910000e-06	-3.965961e-06	-7.549238e-09	-2.800530e+01	-4.937906e+02
2.920000e-06	-4.035754e-06	-7.677081e-09	-2.849814e+01	-5.020056e+02
2.930000e-06	-4.103902e-06	-7.796750e-09	-2.897936e+01	-5.098353e+02
2.940000e-06	-4.170651e-06	-7.910678e-09	-2.945070e+01	-5.172974e+02
