# Temperatura_=_67.72
# Concentracion g/m^3_=_15000.0
# C_Vs_to_Am_M_A/Vsm_=_65563218390.804596
# pendiente_HvsI_1/m_=_3716.3
# ordenada_HvsI_A/m_=_1297.0
# frecuencia_Hz_=_301899.8205421198

Tiempo_(s)	Campo_(V.s)	Magnetizacion_(V.s)	Campo_(kA/m)	Magnetizacion_(A/m)
0.000000e+00	-6.868569e-06	-9.889510e-09	-4.750261e+01	-6.470138e+02
1.000000e-08	-6.866146e-06	-9.889978e-09	-4.748585e+01	-6.467895e+02
2.000000e-08	-6.861434e-06	-9.887790e-09	-4.745326e+01	-6.464547e+02
3.000000e-08	-6.854602e-06	-9.879661e-09	-4.740601e+01	-6.460023e+02
4.000000e-08	-6.845490e-06	-9.871414e-09	-4.734300e+01	-6.454253e+02
5.000000e-08	-6.833883e-06	-9.861805e-09	-4.726272e+01	-6.447190e+02
6.000000e-08	-6.819743e-06	-9.849800e-09	-4.716494e+01	-6.438833e+02
7.000000e-08	-6.803212e-06	-9.833435e-09	-4.705060e+01	-6.429240e+02
8.000000e-08	-6.784496e-06	-9.811094e-09	-4.692117e+01	-6.418532e+02
9.000000e-08	-6.763451e-06	-9.814035e-09	-4.677562e+01	-6.406883e+02
1.000000e-07	-6.739682e-06	-9.817457e-09	-4.661124e+01	-6.394504e+02
1.100000e-07	-6.713125e-06	-9.771152e-09	-4.642757e+01	-6.381613e+02
1.200000e-07	-6.684079e-06	-9.731394e-09	-4.622669e+01	-6.368399e+02
1.300000e-07	-6.652960e-06	-9.723756e-09	-4.601147e+01	-6.354992e+02
1.400000e-07	-6.619961e-06	-9.672075e-09	-4.578325e+01	-6.341434e+02
1.500000e-07	-6.585039e-06	-9.609048e-09	-4.554173e+01	-6.327655e+02
1.600000e-07	-6.548086e-06	-9.682230e-09	-4.528617e+01	-6.313475e+02
1.700000e-07	-6.509051e-06	-9.596432e-09	-4.501620e+01	-6.298615e+02
1.800000e-07	-6.467701e-06	-9.542278e-09	-4.473023e+01	-6.282722e+02
1.900000e-07	-6.423814e-06	-9.583396e-09	-4.442671e+01	-6.265415e+02
2.000000e-07	-6.377605e-06	-9.485438e-09	-4.410713e+01	-6.246329e+02
2.100000e-07	-6.328985e-06	-9.522868e-09	-4.377088e+01	-6.225166e+02
2.200000e-07	-6.277646e-06	-9.509546e-09	-4.341582e+01	-6.201735e+02
2.300000e-07	-6.223778e-06	-9.423448e-09	-4.304327e+01	-6.175978e+02
2.400000e-07	-6.167521e-06	-9.372782e-09	-4.265421e+01	-6.147972e+02
2.500000e-07	-6.108903e-06	-9.292735e-09	-4.224880e+01	-6.117916e+02
2.600000e-07	-6.048080e-06	-9.254230e-09	-4.182816e+01	-6.086091e+02
2.700000e-07	-5.985069e-06	-9.227212e-09	-4.139237e+01	-6.052813e+02
2.800000e-07	-5.919825e-06	-9.180732e-09	-4.094115e+01	-6.018381e+02
2.900000e-07	-5.852350e-06	-9.103170e-09	-4.047450e+01	-5.983019e+02
3.000000e-07	-5.782742e-06	-9.030207e-09	-3.999309e+01	-5.946855e+02
3.100000e-07	-5.711049e-06	-9.009226e-09	-3.949727e+01	-5.909894e+02
3.200000e-07	-5.637073e-06	-8.943922e-09	-3.898566e+01	-5.872034e+02
3.300000e-07	-5.560704e-06	-8.892035e-09	-3.845749e+01	-5.833095e+02
3.400000e-07	-5.482055e-06	-8.829297e-09	-3.791356e+01	-5.792859e+02
3.500000e-07	-5.401309e-06	-8.746823e-09	-3.735513e+01	-5.751115e+02
3.600000e-07	-5.318704e-06	-8.693159e-09	-3.678384e+01	-5.707705e+02
3.700000e-07	-5.234372e-06	-8.633806e-09	-3.620060e+01	-5.662548e+02
3.800000e-07	-5.148316e-06	-8.572331e-09	-3.560544e+01	-5.615650e+02
3.900000e-07	-5.060490e-06	-8.475113e-09	-3.499804e+01	-5.567087e+02
4.000000e-07	-4.970830e-06	-8.385367e-09	-3.437796e+01	-5.516985e+02
4.100000e-07	-4.879375e-06	-8.314130e-09	-3.374546e+01	-5.465477e+02
4.200000e-07	-4.786299e-06	-8.253390e-09	-3.310175e+01	-5.412672e+02
4.300000e-07	-4.691612e-06	-8.177755e-09	-3.244690e+01	-5.358623e+02
4.400000e-07	-4.595179e-06	-8.079589e-09	-3.177998e+01	-5.303317e+02
4.500000e-07	-4.497009e-06	-7.982432e-09	-3.110105e+01	-5.246677e+02
4.600000e-07	-4.397231e-06	-7.881139e-09	-3.041098e+01	-5.188579e+02
4.700000e-07	-4.295955e-06	-7.797401e-09	-2.971057e+01	-5.128878e+02
4.800000e-07	-4.193275e-06	-7.720795e-09	-2.900043e+01	-5.067438e+02
4.900000e-07	-4.089139e-06	-7.630892e-09	-2.828024e+01	-5.004157e+02
5.000000e-07	-3.983390e-06	-7.519257e-09	-2.754889e+01	-4.938975e+02
5.100000e-07	-3.876062e-06	-7.412297e-09	-2.680661e+01	-4.871882e+02
5.200000e-07	-3.767326e-06	-7.313533e-09	-2.605460e+01	-4.802902e+02
5.300000e-07	-3.657358e-06	-7.205361e-09	-2.529407e+01	-4.732080e+02
5.400000e-07	-3.546144e-06	-7.085671e-09	-2.452492e+01	-4.659456e+02
5.500000e-07	-3.433474e-06	-6.959001e-09	-2.374570e+01	-4.585053e+02
5.600000e-07	-3.319248e-06	-6.838838e-09	-2.295572e+01	-4.508862e+02
5.700000e-07	-3.203596e-06	-6.725867e-09	-2.215588e+01	-4.430844e+02
5.800000e-07	-3.086680e-06	-6.619262e-09	-2.134729e+01	-4.350932e+02
5.900000e-07	-2.968656e-06	-6.500717e-09	-2.053104e+01	-4.269046e+02
6.000000e-07	-2.849603e-06	-6.365333e-09	-1.970768e+01	-4.185103e+02
6.100000e-07	-2.729427e-06	-6.221820e-09	-1.887655e+01	-4.099028e+02
6.200000e-07	-2.608255e-06	-6.084608e-09	-1.803853e+01	-4.010759e+02
6.300000e-07	-2.486146e-06	-5.949658e-09	-1.719404e+01	-3.920247e+02
6.400000e-07	-2.362994e-06	-5.807213e-09	-1.634232e+01	-3.827452e+02
6.500000e-07	-2.238916e-06	-5.659501e-09	-1.548421e+01	-3.732337e+02
6.600000e-07	-2.114070e-06	-5.506423e-09	-1.462078e+01	-3.634863e+02
6.700000e-07	-1.988535e-06	-5.352290e-09	-1.375259e+01	-3.534986e+02
6.800000e-07	-1.862441e-06	-5.199030e-09	-1.288053e+01	-3.432651e+02
6.900000e-07	-1.735803e-06	-5.045963e-09	-1.200471e+01	-3.327799e+02
7.000000e-07	-1.608472e-06	-4.882472e-09	-1.112409e+01	-3.220365e+02
7.100000e-07	-1.480465e-06	-4.710201e-09	-1.023881e+01	-3.110274e+02
7.200000e-07	-1.351956e-06	-4.535368e-09	-9.350048e+00	-2.997442e+02
7.300000e-07	-1.223018e-06	-4.360000e-09	-8.458318e+00	-2.881766e+02
7.400000e-07	-1.093714e-06	-4.182108e-09	-7.564057e+00	-2.763120e+02
7.500000e-07	-9.640837e-07	-3.995780e-09	-6.667545e+00	-2.641353e+02
7.600000e-07	-8.341325e-07	-3.801544e-09	-5.768810e+00	-2.516290e+02
7.700000e-07	-7.038890e-07	-3.602454e-09	-4.868054e+00	-2.387738e+02
7.800000e-07	-5.734322e-07	-3.402082e-09	-3.965822e+00	-2.255504e+02
7.900000e-07	-4.428159e-07	-3.199411e-09	-3.062488e+00	-2.119407e+02
8.000000e-07	-3.119759e-07	-2.990296e-09	-2.157606e+00	-1.979293e+02
8.100000e-07	-1.809518e-07	-2.770218e-09	-1.251452e+00	-1.835037e+02
8.200000e-07	-4.983587e-08	-2.541828e-09	-3.446618e-01	-1.686541e+02
8.300000e-07	8.129313e-08	-2.309278e-09	5.622184e-01	-1.533705e+02
8.400000e-07	2.124121e-07	-2.071905e-09	1.469029e+00	-1.376400e+02
8.500000e-07	3.434946e-07	-1.827408e-09	2.375588e+00	-1.214429e+02
8.600000e-07	4.744569e-07	-1.574533e-09	3.281315e+00	-1.047502e+02
8.700000e-07	6.052579e-07	-1.313033e-09	4.185927e+00	-8.752241e+01
8.800000e-07	7.358846e-07	-1.041594e-09	5.089333e+00	-6.971142e+01
8.900000e-07	8.662780e-07	-7.626574e-10	5.991127e+00	-5.126584e+01
9.000000e-07	9.963916e-07	-4.736128e-10	6.890984e+00	-3.213905e+01
9.100000e-07	1.126194e-06	-1.708784e-10	7.788687e+00	-1.229968e+01
9.200000e-07	1.255653e-06	1.448763e-10	8.684018e+00	8.257490e+00
9.300000e-07	1.384714e-06	4.694573e-10	9.576601e+00	2.950197e+01
9.400000e-07	1.513251e-06	7.999788e-10	1.046556e+01	5.136138e+01
9.500000e-07	1.641164e-06	1.137778e-09	1.135019e+01	7.372002e+01
9.600000e-07	1.768340e-06	1.480115e-09	1.222973e+01	9.642306e+01
9.700000e-07	1.894790e-06	1.827008e-09	1.310425e+01	1.192860e+02
9.800000e-07	2.020645e-06	2.173214e-09	1.397466e+01	1.421082e+02
9.900000e-07	2.145896e-06	2.515646e-09	1.484089e+01	1.646888e+02
1.000000e-06	2.270455e-06	2.852396e-09	1.570233e+01	1.868422e+02
1.010000e-06	2.394201e-06	3.180563e-09	1.655815e+01	2.084111e+02
1.020000e-06	2.517030e-06	3.501253e-09	1.740763e+01	2.292755e+02
1.030000e-06	2.638914e-06	3.809312e-09	1.825057e+01	2.493561e+02
1.040000e-06	2.759856e-06	4.103466e-09	1.908700e+01	2.686130e+02
1.050000e-06	2.879673e-06	4.382712e-09	1.991564e+01	2.870396e+02
1.060000e-06	2.998313e-06	4.647255e-09	2.073615e+01	3.046541e+02
1.070000e-06	3.115950e-06	4.901262e-09	2.154972e+01	3.214896e+02
1.080000e-06	3.232481e-06	5.144520e-09	2.235564e+01	3.375856e+02
1.090000e-06	3.347726e-06	5.375722e-09	2.315267e+01	3.529816e+02
1.100000e-06	3.461634e-06	5.597188e-09	2.394045e+01	3.677126e+02
1.110000e-06	3.574177e-06	5.809915e-09	2.471879e+01	3.818088e+02
1.120000e-06	3.685333e-06	6.015380e-09	2.548754e+01	3.952961e+02
1.130000e-06	3.795254e-06	6.211343e-09	2.624775e+01	4.081986e+02
1.140000e-06	3.904051e-06	6.398594e-09	2.700018e+01	4.205404e+02
1.150000e-06	4.011571e-06	6.578584e-09	2.774379e+01	4.323478e+02
1.160000e-06	4.117614e-06	6.749516e-09	2.847717e+01	4.436488e+02
1.170000e-06	4.222104e-06	6.914742e-09	2.919982e+01	4.544730e+02
1.180000e-06	4.325065e-06	7.072744e-09	2.991189e+01	4.648489e+02
1.190000e-06	4.426536e-06	7.225389e-09	3.061366e+01	4.748026e+02
1.200000e-06	4.526519e-06	7.372261e-09	3.130513e+01	4.843555e+02
1.210000e-06	4.624839e-06	7.511132e-09	3.198511e+01	4.935235e+02
1.220000e-06	4.721300e-06	7.645173e-09	3.265222e+01	5.023172e+02
1.230000e-06	4.815978e-06	7.772963e-09	3.330701e+01	5.107430e+02
1.240000e-06	4.909037e-06	7.896066e-09	3.395061e+01	5.188049e+02
1.250000e-06	5.000535e-06	8.014916e-09	3.458340e+01	5.265064e+02
1.260000e-06	5.090285e-06	8.127810e-09	3.520411e+01	5.338528e+02
1.270000e-06	5.178025e-06	8.235161e-09	3.581091e+01	5.408522e+02
1.280000e-06	5.263839e-06	8.337995e-09	3.640439e+01	5.475163e+02
1.290000e-06	5.347879e-06	8.436636e-09	3.698561e+01	5.538603e+02
1.300000e-06	5.430067e-06	8.527981e-09	3.755402e+01	5.599022e+02
1.310000e-06	5.510222e-06	8.612614e-09	3.810836e+01	5.656619e+02
1.320000e-06	5.588332e-06	8.692868e-09	3.864857e+01	5.711601e+02
1.330000e-06	5.664460e-06	8.771078e-09	3.917506e+01	5.764174e+02
1.340000e-06	5.738392e-06	8.849018e-09	3.968637e+01	5.814531e+02
1.350000e-06	5.810114e-06	8.924796e-09	4.018240e+01	5.862849e+02
1.360000e-06	5.879766e-06	8.996105e-09	4.066411e+01	5.909275e+02
1.370000e-06	5.947346e-06	9.063916e-09	4.113149e+01	5.953924e+02
1.380000e-06	6.012741e-06	9.128800e-09	4.158375e+01	5.996873e+02
1.390000e-06	6.075964e-06	9.190834e-09	4.202100e+01	6.038152e+02
1.400000e-06	6.137182e-06	9.250775e-09	4.244438e+01	6.077752e+02
1.410000e-06	6.196389e-06	9.308312e-09	4.285386e+01	6.115622e+02
1.420000e-06	6.253349e-06	9.362334e-09	4.324779e+01	6.151686e+02
1.430000e-06	6.308017e-06	9.411771e-09	4.362587e+01	6.185854e+02
1.440000e-06	6.360344e-06	9.458975e-09	4.398775e+01	6.218043e+02
1.450000e-06	6.409988e-06	9.505193e-09	4.433109e+01	6.248193e+02
1.460000e-06	6.457116e-06	9.548952e-09	4.465702e+01	6.276284e+02
1.470000e-06	6.502100e-06	9.588771e-09	4.496813e+01	6.302340e+02
1.480000e-06	6.544880e-06	9.625483e-09	4.526400e+01	6.326431e+02
1.490000e-06	6.585239e-06	9.660917e-09	4.554312e+01	6.348661e+02
1.500000e-06	6.623249e-06	9.693053e-09	4.580599e+01	6.369148e+02
1.510000e-06	6.659113e-06	9.720361e-09	4.605402e+01	6.388010e+02
1.520000e-06	6.692595e-06	9.744861e-09	4.628558e+01	6.405344e+02
1.530000e-06	6.723579e-06	9.767001e-09	4.649987e+01	6.421211e+02
1.540000e-06	6.752326e-06	9.786429e-09	4.669868e+01	6.435635e+02
1.550000e-06	6.778722e-06	9.804231e-09	4.688123e+01	6.448609e+02
1.560000e-06	6.802487e-06	9.820962e-09	4.704559e+01	6.460103e+02
1.570000e-06	6.823764e-06	9.836140e-09	4.719274e+01	6.470086e+02
1.580000e-06	6.842754e-06	9.849012e-09	4.732408e+01	6.478544e+02
1.590000e-06	6.859282e-06	9.859609e-09	4.743838e+01	6.485490e+02
1.600000e-06	6.873233e-06	9.868812e-09	4.753486e+01	6.490971e+02
1.610000e-06	6.884530e-06	9.875409e-09	4.761300e+01	6.495066e+02
1.620000e-06	6.893160e-06	9.879292e-09	4.767268e+01	6.497874e+02
1.630000e-06	6.899321e-06	9.881981e-09	4.771529e+01	6.499496e+02
1.640000e-06	6.903113e-06	9.883894e-09	4.774152e+01	6.500015e+02
1.650000e-06	6.904449e-06	9.884245e-09	4.775075e+01	6.499485e+02
1.660000e-06	6.903385e-06	9.883818e-09	4.774339e+01	6.497917e+02
1.670000e-06	6.900155e-06	9.876896e-09	4.772106e+01	6.495280e+02
1.680000e-06	6.894606e-06	9.870031e-09	4.768268e+01	6.491514e+02
1.690000e-06	6.886674e-06	9.862431e-09	4.762782e+01	6.486545e+02
1.700000e-06	6.876547e-06	9.853174e-09	4.755778e+01	6.480310e+02
1.710000e-06	6.864118e-06	9.843382e-09	4.747183e+01	6.472776e+02
1.720000e-06	6.849244e-06	9.830504e-09	4.736896e+01	6.463961e+02
1.730000e-06	6.832167e-06	9.822503e-09	4.725086e+01	6.453946e+02
1.740000e-06	6.812946e-06	9.780801e-09	4.711793e+01	6.442873e+02
1.750000e-06	6.790828e-06	9.733230e-09	4.696496e+01	6.430931e+02
1.760000e-06	6.765393e-06	9.743750e-09	4.678905e+01	6.418338e+02
1.770000e-06	6.737189e-06	9.735628e-09	4.659399e+01	6.405305e+02
1.780000e-06	6.706847e-06	9.689577e-09	4.638415e+01	6.392005e+02
1.790000e-06	6.674854e-06	9.748771e-09	4.616289e+01	6.378538e+02
1.800000e-06	6.641407e-06	9.708552e-09	4.593157e+01	6.364908e+02
1.810000e-06	6.605763e-06	9.627051e-09	4.568506e+01	6.351005e+02
1.820000e-06	6.567541e-06	9.718847e-09	4.542072e+01	6.336613e+02
1.830000e-06	6.527143e-06	9.625632e-09	4.514133e+01	6.321420e+02
1.840000e-06	6.484545e-06	9.621247e-09	4.484673e+01	6.305059e+02
1.850000e-06	6.439743e-06	9.633408e-09	4.453688e+01	6.287149e+02
1.860000e-06	6.392616e-06	9.490299e-09	4.421095e+01	6.267344e+02
1.870000e-06	6.343034e-06	9.522542e-09	4.386804e+01	6.245380e+02
1.880000e-06	6.291127e-06	9.444447e-09	4.350906e+01	6.221111e+02
1.890000e-06	6.236586e-06	9.447648e-09	4.313186e+01	6.194528e+02
1.900000e-06	6.179536e-06	9.478918e-09	4.273730e+01	6.165755e+02
1.910000e-06	6.120219e-06	9.354924e-09	4.232706e+01	6.135025e+02
1.920000e-06	6.058502e-06	9.333028e-09	4.190023e+01	6.102639e+02
1.930000e-06	5.994586e-06	9.237492e-09	4.145820e+01	6.068911e+02
1.940000e-06	5.928572e-06	9.215731e-09	4.100165e+01	6.034118e+02
1.950000e-06	5.860434e-06	9.184797e-09	4.053041e+01	5.998455e+02
1.960000e-06	5.789959e-06	9.102922e-09	4.004301e+01	5.962004e+02
1.970000e-06	5.717108e-06	9.084711e-09	3.953917e+01	5.924732e+02
1.980000e-06	5.642147e-06	8.958588e-09	3.902075e+01	5.886504e+02
1.990000e-06	5.564924e-06	8.933917e-09	3.848668e+01	5.847121e+02
2.000000e-06	5.485532e-06	8.882478e-09	3.793761e+01	5.806361e+02
2.010000e-06	5.404225e-06	8.802182e-09	3.737529e+01	5.764030e+02
2.020000e-06	5.321139e-06	8.737725e-09	3.680067e+01	5.719995e+02
2.030000e-06	5.236158e-06	8.643282e-09	3.621295e+01	5.674205e+02
2.040000e-06	5.149106e-06	8.603318e-09	3.561091e+01	5.626693e+02
2.050000e-06	5.060238e-06	8.518695e-09	3.499630e+01	5.577558e+02
2.060000e-06	4.969759e-06	8.457149e-09	3.437055e+01	5.526932e+02
2.070000e-06	4.877707e-06	8.369724e-09	3.373393e+01	5.474945e+02
2.080000e-06	4.783859e-06	8.274163e-09	3.308488e+01	5.421685e+02
2.090000e-06	4.688222e-06	8.189118e-09	3.242346e+01	5.367186e+02
2.100000e-06	4.590998e-06	8.115777e-09	3.175107e+01	5.311409e+02
2.110000e-06	4.492289e-06	8.060634e-09	3.106840e+01	5.254257e+02
2.120000e-06	4.392063e-06	7.958161e-09	3.037524e+01	5.195596e+02
2.130000e-06	4.290174e-06	7.847784e-09	2.967059e+01	5.135282e+02
2.140000e-06	4.186668e-06	7.735004e-09	2.895474e+01	5.073188e+02
2.150000e-06	4.081611e-06	7.643117e-09	2.822818e+01	5.009225e+02
2.160000e-06	3.975165e-06	7.551971e-09	2.749200e+01	4.943353e+02
2.170000e-06	3.867341e-06	7.464120e-09	2.674629e+01	4.875575e+02
2.180000e-06	3.758146e-06	7.362043e-09	2.599111e+01	4.805925e+02
2.190000e-06	3.647509e-06	7.243959e-09	2.522595e+01	4.734449e+02
2.200000e-06	3.535432e-06	7.131649e-09	2.445084e+01	4.661182e+02
2.210000e-06	3.422076e-06	7.025048e-09	2.366687e+01	4.586136e+02
2.220000e-06	3.307387e-06	6.914699e-09	2.287369e+01	4.509292e+02
2.230000e-06	3.191252e-06	6.782805e-09	2.207051e+01	4.430599e+02
2.240000e-06	3.073733e-06	6.650398e-09	2.125775e+01	4.349985e+02
2.250000e-06	2.955028e-06	6.523424e-09	2.043680e+01	4.267367e+02
2.260000e-06	2.835166e-06	6.406608e-09	1.960784e+01	4.182664e+02
2.270000e-06	2.714253e-06	6.284754e-09	1.877161e+01	4.095806e+02
2.280000e-06	2.592408e-06	6.151235e-09	1.792894e+01	4.006734e+02
2.290000e-06	2.469744e-06	6.002776e-09	1.708060e+01	3.915404e+02
2.300000e-06	2.346221e-06	5.853003e-09	1.622632e+01	3.821778e+02
2.310000e-06	2.221823e-06	5.713889e-09	1.536600e+01	3.725819e+02
2.320000e-06	2.096674e-06	5.576849e-09	1.450047e+01	3.627485e+02
2.330000e-06	1.970828e-06	5.425538e-09	1.363013e+01	3.526729e+02
2.340000e-06	1.844333e-06	5.257541e-09	1.275530e+01	3.423496e+02
2.350000e-06	1.717159e-06	5.085898e-09	1.187577e+01	3.317723e+02
2.360000e-06	1.589315e-06	4.919185e-09	1.099161e+01	3.209343e+02
2.370000e-06	1.460924e-06	4.759102e-09	1.010366e+01	3.098277e+02
2.380000e-06	1.332098e-06	4.591108e-09	9.212710e+00	2.984435e+02
2.390000e-06	1.202869e-06	4.410227e-09	8.318969e+00	2.867707e+02
2.400000e-06	1.073237e-06	4.221070e-09	7.422445e+00	2.747959e+02
2.410000e-06	9.432677e-07	4.032791e-09	6.523582e+00	2.625029e+02
2.420000e-06	8.130389e-07	3.847386e-09	5.622928e+00	2.498736e+02
2.430000e-06	6.826013e-07	3.653619e-09	4.720830e+00	2.368884e+02
2.440000e-06	5.519993e-07	3.446135e-09	3.817594e+00	2.235283e+02
2.450000e-06	4.212698e-07	3.228739e-09	2.913477e+00	2.097761e+02
2.460000e-06	2.903864e-07	3.008500e-09	2.008295e+00	1.956173e+02
2.470000e-06	1.593816e-07	2.788067e-09	1.102274e+00	1.810408e+02
2.480000e-06	2.832200e-08	2.564043e-09	1.958732e-01	1.660367e+02
2.490000e-06	-1.027722e-07	2.330918e-09	-7.107665e-01	1.505946e+02
2.500000e-06	-2.338726e-07	2.082586e-09	-1.617449e+00	1.346995e+02
2.510000e-06	-3.648758e-07	1.823945e-09	-2.523459e+00	1.183286e+02
2.520000e-06	-4.956935e-07	1.563989e-09	-3.428187e+00	1.014491e+02
2.530000e-06	-6.264014e-07	1.301723e-09	-4.332154e+00	8.401822e+01
2.540000e-06	-7.570073e-07	1.030695e-09	-5.235417e+00	6.598578e+01
2.550000e-06	-8.874236e-07	7.442409e-10	-6.137368e+00	4.730102e+01
2.560000e-06	-1.017523e-06	4.442455e-10	-7.037125e+00	2.792154e+01
2.570000e-06	-1.147308e-06	1.365677e-10	-7.934713e+00	7.824067e+00
2.580000e-06	-1.276799e-06	-1.789639e-10	-8.830264e+00	-1.298483e+01
2.590000e-06	-1.405879e-06	-5.063384e-10	-9.722976e+00	-3.446018e+01
2.600000e-06	-1.534438e-06	-8.452135e-10	-1.061208e+01	-5.651402e+01
2.610000e-06	-1.662402e-06	-1.193312e-09	-1.149707e+01	-7.901590e+01
2.620000e-06	-1.789726e-06	-1.546167e-09	-1.237764e+01	-1.017990e+02
2.630000e-06	-1.916380e-06	-1.896364e-09	-1.325357e+01	-1.246715e+02
2.640000e-06	-2.042342e-06	-2.242771e-09	-1.412471e+01	-1.474307e+02
2.650000e-06	-2.167488e-06	-2.586844e-09	-1.499021e+01	-1.698795e+02
2.660000e-06	-2.291734e-06	-2.925289e-09	-1.584950e+01	-1.918410e+02
2.670000e-06	-2.415060e-06	-3.250642e-09	-1.670241e+01	-2.131707e+02
2.680000e-06	-2.537438e-06	-3.560386e-09	-1.754877e+01	-2.337627e+02
2.690000e-06	-2.658895e-06	-3.858339e-09	-1.838876e+01	-2.535525e+02
2.700000e-06	-2.779393e-06	-4.147586e-09	-1.922212e+01	-2.725129e+02
2.710000e-06	-2.898842e-06	-4.429724e-09	-2.004822e+01	-2.906471e+02
2.720000e-06	-3.017164e-06	-4.701486e-09	-2.086653e+01	-3.079797e+02
2.730000e-06	-3.134303e-06	-4.956851e-09	-2.167665e+01	-3.245471e+02
2.740000e-06	-3.250181e-06	-5.197130e-09	-2.247806e+01	-3.403894e+02
2.750000e-06	-3.364710e-06	-5.427770e-09	-2.327013e+01	-3.555448e+02
2.760000e-06	-3.477858e-06	-5.651133e-09	-2.405266e+01	-3.700466e+02
2.770000e-06	-3.589617e-06	-5.866127e-09	-2.482558e+01	-3.839232e+02
2.780000e-06	-3.699951e-06	-6.070663e-09	-2.558864e+01	-3.971996e+02
2.790000e-06	-3.809017e-06	-6.265785e-09	-2.634293e+01	-4.098996e+02
2.800000e-06	-3.916928e-06	-6.453068e-09	-2.708924e+01	-4.220481e+02
2.810000e-06	-4.023564e-06	-6.631422e-09	-2.782673e+01	-4.336720e+02
2.820000e-06	-4.128845e-06	-6.802357e-09	-2.855484e+01	-4.448000e+02
2.830000e-06	-4.232603e-06	-6.964724e-09	-2.927243e+01	-4.554616e+02
2.840000e-06	-4.334772e-06	-7.117513e-09	-2.997902e+01	-4.656846e+02
2.850000e-06	-4.435360e-06	-7.263645e-09	-3.067469e+01	-4.754936e+02
2.860000e-06	-4.534396e-06	-7.406925e-09	-3.135961e+01	-4.849082e+02
2.870000e-06	-4.631892e-06	-7.546921e-09	-3.203389e+01	-4.939422e+02
2.880000e-06	-4.727734e-06	-7.680553e-09	-3.269672e+01	-5.026047e+02
2.890000e-06	-4.821835e-06	-7.808156e-09	-3.334752e+01	-5.109008e+02
2.900000e-06	-4.914166e-06	-7.930744e-09	-3.398607e+01	-5.188341e+02
2.910000e-06	-5.004753e-06	-8.046660e-09	-3.461257e+01	-5.264088e+02
2.920000e-06	-5.093579e-06	-8.154881e-09	-3.522689e+01	-5.336308e+02
2.930000e-06	-5.180513e-06	-8.256699e-09	-3.582812e+01	-5.405096e+02
2.940000e-06	-5.265484e-06	-8.353234e-09	-3.641577e+01	-5.470582e+02
