# Temperatura_=_60.12
# Concentracion g/m^3_=_15000.0
# C_Vs_to_Am_M_A/Vsm_=_65563218390.804596
# pendiente_HvsI_1/m_=_3716.3
# ordenada_HvsI_A/m_=_1297.0
# frecuencia_Hz_=_301894.521816197

Tiempo_(s)	Campo_(V.s)	Magnetizacion_(V.s)	Campo_(kA/m)	Magnetizacion_(A/m)
0.000000e+00	-6.830543e-06	-9.263969e-09	-4.750332e+01	-6.054573e+02
1.000000e-08	-6.827439e-06	-9.258778e-09	-4.748173e+01	-6.052632e+02
2.000000e-08	-6.822132e-06	-9.254971e-09	-4.744482e+01	-6.049569e+02
3.000000e-08	-6.814732e-06	-9.250474e-09	-4.739336e+01	-6.045297e+02
4.000000e-08	-6.804998e-06	-9.242944e-09	-4.732566e+01	-6.039759e+02
5.000000e-08	-6.792725e-06	-9.233031e-09	-4.724031e+01	-6.032962e+02
6.000000e-08	-6.777930e-06	-9.215741e-09	-4.713742e+01	-6.024989e+02
7.000000e-08	-6.760821e-06	-9.197759e-09	-4.701843e+01	-6.015996e+02
8.000000e-08	-6.741583e-06	-9.204459e-09	-4.688464e+01	-6.006198e+02
9.000000e-08	-6.719945e-06	-9.192960e-09	-4.673416e+01	-5.995826e+02
1.000000e-07	-6.695503e-06	-9.174537e-09	-4.656417e+01	-5.985091e+02
1.100000e-07	-6.668388e-06	-9.161550e-09	-4.637560e+01	-5.974140e+02
1.200000e-07	-6.638963e-06	-9.135186e-09	-4.617097e+01	-5.963024e+02
1.300000e-07	-6.607552e-06	-9.076550e-09	-4.595252e+01	-5.951681e+02
1.400000e-07	-6.574257e-06	-9.059389e-09	-4.572097e+01	-5.939943e+02
1.500000e-07	-6.539004e-06	-9.050371e-09	-4.547579e+01	-5.927559e+02
1.600000e-07	-6.501702e-06	-9.005640e-09	-4.521638e+01	-5.914232e+02
1.700000e-07	-6.462329e-06	-9.032249e-09	-4.494256e+01	-5.899663e+02
1.800000e-07	-6.420639e-06	-8.973708e-09	-4.465262e+01	-5.883593e+02
1.900000e-07	-6.376394e-06	-8.927635e-09	-4.434492e+01	-5.865834e+02
2.000000e-07	-6.329812e-06	-8.917264e-09	-4.402096e+01	-5.846288e+02
2.100000e-07	-6.280789e-06	-8.882655e-09	-4.368003e+01	-5.824944e+02
2.200000e-07	-6.229115e-06	-8.897149e-09	-4.332066e+01	-5.801867e+02
2.300000e-07	-6.174894e-06	-8.824336e-09	-4.294358e+01	-5.777173e+02
2.400000e-07	-6.118263e-06	-8.742759e-09	-4.254974e+01	-5.751001e+02
2.500000e-07	-6.059346e-06	-8.719805e-09	-4.213999e+01	-5.723485e+02
2.600000e-07	-5.998226e-06	-8.676310e-09	-4.171493e+01	-5.694735e+02
2.700000e-07	-5.934990e-06	-8.638916e-09	-4.127515e+01	-5.664826e+02
2.800000e-07	-5.869599e-06	-8.596317e-09	-4.082039e+01	-5.633793e+02
2.900000e-07	-5.801900e-06	-8.532210e-09	-4.034958e+01	-5.601638e+02
3.000000e-07	-5.731997e-06	-8.448454e-09	-3.986343e+01	-5.568341e+02
3.100000e-07	-5.660033e-06	-8.423342e-09	-3.936295e+01	-5.533867e+02
3.200000e-07	-5.585880e-06	-8.420471e-09	-3.884725e+01	-5.498178e+02
3.300000e-07	-5.509395e-06	-8.340668e-09	-3.831533e+01	-5.461242e+02
3.400000e-07	-5.430679e-06	-8.264104e-09	-3.776790e+01	-5.423034e+02
3.500000e-07	-5.349899e-06	-8.194914e-09	-3.720611e+01	-5.383537e+02
3.600000e-07	-5.267202e-06	-8.140594e-09	-3.663099e+01	-5.342743e+02
3.700000e-07	-5.182764e-06	-8.094114e-09	-3.604376e+01	-5.300647e+02
3.800000e-07	-5.096608e-06	-8.031722e-09	-3.544459e+01	-5.257244e+02
3.900000e-07	-5.008750e-06	-7.953793e-09	-3.483358e+01	-5.212530e+02
4.000000e-07	-4.919139e-06	-7.856829e-09	-3.421037e+01	-5.166495e+02
4.100000e-07	-4.827730e-06	-7.782194e-09	-3.357467e+01	-5.119126e+02
4.200000e-07	-4.734709e-06	-7.730107e-09	-3.292775e+01	-5.070404e+02
4.300000e-07	-4.640080e-06	-7.667351e-09	-3.226964e+01	-5.020306e+02
4.400000e-07	-4.543754e-06	-7.575032e-09	-3.159974e+01	-4.968806e+02
4.500000e-07	-4.445705e-06	-7.480959e-09	-3.091786e+01	-4.915874e+02
4.600000e-07	-4.345984e-06	-7.399986e-09	-3.022434e+01	-4.861480e+02
4.700000e-07	-4.244769e-06	-7.317517e-09	-2.952043e+01	-4.805593e+02
4.800000e-07	-4.142112e-06	-7.242649e-09	-2.880650e+01	-4.748184e+02
4.900000e-07	-4.038038e-06	-7.154947e-09	-2.808272e+01	-4.689223e+02
5.000000e-07	-3.932459e-06	-7.044488e-09	-2.734846e+01	-4.628683e+02
5.100000e-07	-3.825286e-06	-6.939716e-09	-2.660312e+01	-4.566533e+02
5.200000e-07	-3.716721e-06	-6.853474e-09	-2.584810e+01	-4.502742e+02
5.300000e-07	-3.606968e-06	-6.763288e-09	-2.508482e+01	-4.437276e+02
5.400000e-07	-3.495909e-06	-6.651941e-09	-2.431245e+01	-4.370098e+02
5.500000e-07	-3.383416e-06	-6.534579e-09	-2.353012e+01	-4.301169e+02
5.600000e-07	-3.269523e-06	-6.419904e-09	-2.273805e+01	-4.230454e+02
5.700000e-07	-3.154210e-06	-6.311330e-09	-2.193609e+01	-4.157918e+02
5.800000e-07	-3.037576e-06	-6.209639e-09	-2.112496e+01	-4.083535e+02
5.900000e-07	-2.919820e-06	-6.104724e-09	-2.030602e+01	-4.007282e+02
6.000000e-07	-2.801045e-06	-5.978497e-09	-1.947999e+01	-3.929140e+02
6.100000e-07	-2.681285e-06	-5.839842e-09	-1.864712e+01	-3.849084e+02
6.200000e-07	-2.560584e-06	-5.710985e-09	-1.780769e+01	-3.767081e+02
6.300000e-07	-2.438874e-06	-5.589003e-09	-1.696126e+01	-3.683080e+02
6.400000e-07	-2.316178e-06	-5.460427e-09	-1.610796e+01	-3.597011e+02
6.500000e-07	-2.192591e-06	-5.322468e-09	-1.524847e+01	-3.508779e+02
6.600000e-07	-2.068194e-06	-5.181564e-09	-1.438335e+01	-3.418276e+02
6.700000e-07	-1.943176e-06	-5.039339e-09	-1.351391e+01	-3.325384e+02
6.800000e-07	-1.817634e-06	-4.894922e-09	-1.264082e+01	-3.229991e+02
6.900000e-07	-1.691461e-06	-4.749149e-09	-1.176334e+01	-3.131998e+02
7.000000e-07	-1.564603e-06	-4.596561e-09	-1.088110e+01	-3.031329e+02
7.100000e-07	-1.437194e-06	-4.433081e-09	-9.995032e+00	-2.927929e+02
7.200000e-07	-1.309332e-06	-4.267268e-09	-9.105809e+00	-2.821758e+02
7.300000e-07	-1.181084e-06	-4.103850e-09	-8.213899e+00	-2.712777e+02
7.400000e-07	-1.052474e-06	-3.936910e-09	-7.319478e+00	-2.600932e+02
7.500000e-07	-9.235017e-07	-3.762939e-09	-6.422534e+00	-2.486137e+02
7.600000e-07	-7.942273e-07	-3.579705e-09	-5.523489e+00	-2.368269e+02
7.700000e-07	-6.647385e-07	-3.391198e-09	-4.622954e+00	-2.247162e+02
7.800000e-07	-5.350077e-07	-3.199648e-09	-3.720735e+00	-2.122625e+02
7.900000e-07	-4.050039e-07	-3.007420e-09	-2.816618e+00	-1.994459e+02
8.000000e-07	-2.748074e-07	-2.811954e-09	-1.911160e+00	-1.862474e+02
8.100000e-07	-1.445283e-07	-2.606283e-09	-1.005128e+00	-1.726512e+02
8.200000e-07	-1.417261e-08	-2.390689e-09	-9.856407e-02	-1.586450e+02
8.300000e-07	1.162638e-07	-2.168834e-09	8.085619e-01	-1.442190e+02
8.400000e-07	2.466664e-07	-1.944547e-09	1.715453e+00	-1.293637e+02
8.500000e-07	3.769938e-07	-1.715267e-09	2.621820e+00	-1.140665e+02
8.600000e-07	5.071877e-07	-1.477836e-09	3.527260e+00	-9.830790e+01
8.700000e-07	6.371679e-07	-1.229840e-09	4.431213e+00	-8.205946e+01
8.800000e-07	7.669247e-07	-9.722089e-10	5.333612e+00	-6.528387e+01
8.900000e-07	8.964476e-07	-7.083733e-10	6.234385e+00	-4.793817e+01
9.000000e-07	1.025639e-06	-4.374413e-10	7.132855e+00	-2.998031e+01
9.100000e-07	1.154523e-06	-1.558449e-10	8.029181e+00	-1.137863e+01
9.200000e-07	1.283089e-06	1.371857e-10	8.923299e+00	7.877502e+00
9.300000e-07	1.411183e-06	4.409383e-10	9.814138e+00	2.776746e+01
9.400000e-07	1.538754e-06	7.531761e-10	1.070133e+01	4.823190e+01
9.500000e-07	1.665764e-06	1.071039e-09	1.158463e+01	6.916977e+01
9.600000e-07	1.792233e-06	1.393211e-09	1.246416e+01	9.044091e+01
9.700000e-07	1.918012e-06	1.719480e-09	1.333890e+01	1.118743e+02
9.800000e-07	2.043078e-06	2.048194e-09	1.420867e+01	1.332814e+02
9.900000e-07	2.167588e-06	2.374775e-09	1.507459e+01	1.544714e+02
1.000000e-06	2.291361e-06	2.693084e-09	1.593538e+01	1.752677e+02
1.010000e-06	2.414124e-06	3.000488e-09	1.678914e+01	1.955216e+02
1.020000e-06	2.535913e-06	3.298122e-09	1.763612e+01	2.151213e+02
1.030000e-06	2.656866e-06	3.585469e-09	1.847729e+01	2.339957e+02
1.040000e-06	2.776792e-06	3.861124e-09	1.931132e+01	2.521123e+02
1.050000e-06	2.895575e-06	4.123783e-09	2.013741e+01	2.694698e+02
1.060000e-06	3.013320e-06	4.371831e-09	2.095627e+01	2.860885e+02
1.070000e-06	3.130040e-06	4.610163e-09	2.176800e+01	3.019997e+02
1.080000e-06	3.245478e-06	4.839008e-09	2.257082e+01	3.172362e+02
1.090000e-06	3.359532e-06	5.060566e-09	2.336402e+01	3.318265e+02
1.100000e-06	3.472378e-06	5.273815e-09	2.414881e+01	3.457923e+02
1.110000e-06	3.583958e-06	5.477893e-09	2.492480e+01	3.591494e+02
1.120000e-06	3.694248e-06	5.670870e-09	2.569181e+01	3.719111e+02
1.130000e-06	3.803358e-06	5.853389e-09	2.645063e+01	3.840929e+02
1.140000e-06	3.911232e-06	6.030912e-09	2.720084e+01	3.957155e+02
1.150000e-06	4.017704e-06	6.201003e-09	2.794130e+01	4.068068e+02
1.160000e-06	4.122716e-06	6.361141e-09	2.867161e+01	4.174010e+02
1.170000e-06	4.226198e-06	6.514598e-09	2.939129e+01	4.275356e+02
1.180000e-06	4.328154e-06	6.662353e-09	3.010034e+01	4.372468e+02
1.190000e-06	4.428658e-06	6.804728e-09	3.079930e+01	4.465651e+02
1.200000e-06	4.527589e-06	6.943469e-09	3.148732e+01	4.555119e+02
1.210000e-06	4.624756e-06	7.074793e-09	3.216307e+01	4.640979e+02
1.220000e-06	4.720140e-06	7.199794e-09	3.282642e+01	4.723248e+02
1.230000e-06	4.813898e-06	7.317451e-09	3.347847e+01	4.801881e+02
1.240000e-06	4.906127e-06	7.431184e-09	3.411988e+01	4.876819e+02
1.250000e-06	4.996613e-06	7.540458e-09	3.474917e+01	4.948042e+02
1.260000e-06	5.085207e-06	7.643412e-09	3.536530e+01	5.015603e+02
1.270000e-06	5.171966e-06	7.740743e-09	3.596867e+01	5.079649e+02
1.280000e-06	5.256959e-06	7.832372e-09	3.655976e+01	5.140420e+02
1.290000e-06	5.340127e-06	7.920012e-09	3.713815e+01	5.198224e+02
1.300000e-06	5.421299e-06	8.003180e-09	3.770267e+01	5.253396e+02
1.310000e-06	5.500447e-06	8.082557e-09	3.825310e+01	5.306263e+02
1.320000e-06	5.577587e-06	8.159275e-09	3.878958e+01	5.357095e+02
1.330000e-06	5.652676e-06	8.234141e-09	3.931179e+01	5.406092e+02
1.340000e-06	5.725525e-06	8.307457e-09	3.981842e+01	5.453368e+02
1.350000e-06	5.796204e-06	8.377616e-09	4.030996e+01	5.498963e+02
1.360000e-06	5.864900e-06	8.444183e-09	4.078771e+01	5.542861e+02
1.370000e-06	5.931528e-06	8.507053e-09	4.125108e+01	5.585017e+02
1.380000e-06	5.995994e-06	8.565323e-09	4.169941e+01	5.625379e+02
1.390000e-06	6.058331e-06	8.621609e-09	4.213293e+01	5.663905e+02
1.400000e-06	6.118679e-06	8.677591e-09	4.255263e+01	5.700570e+02
1.410000e-06	6.176955e-06	8.731615e-09	4.295791e+01	5.735365e+02
1.420000e-06	6.232982e-06	8.783249e-09	4.334755e+01	5.768294e+02
1.430000e-06	6.286782e-06	8.831345e-09	4.372171e+01	5.799362e+02
1.440000e-06	6.338151e-06	8.875971e-09	4.407895e+01	5.828578e+02
1.450000e-06	6.386870e-06	8.917314e-09	4.441777e+01	5.855952e+02
1.460000e-06	6.433177e-06	8.953879e-09	4.473982e+01	5.881498e+02
1.470000e-06	6.477383e-06	8.986148e-09	4.504725e+01	5.905246e+02
1.480000e-06	6.519332e-06	9.017647e-09	4.533899e+01	5.927244e+02
1.490000e-06	6.558839e-06	9.049798e-09	4.561374e+01	5.947559e+02
1.500000e-06	6.596080e-06	9.080346e-09	4.587273e+01	5.966273e+02
1.510000e-06	6.631085e-06	9.106953e-09	4.611618e+01	5.983473e+02
1.520000e-06	6.663655e-06	9.129647e-09	4.634269e+01	5.999236e+02
1.530000e-06	6.693832e-06	9.149270e-09	4.655255e+01	6.013618e+02
1.540000e-06	6.721822e-06	9.168017e-09	4.674721e+01	6.026648e+02
1.550000e-06	6.747390e-06	9.185539e-09	4.692503e+01	6.038330e+02
1.560000e-06	6.770425e-06	9.200309e-09	4.708523e+01	6.048649e+02
1.570000e-06	6.791122e-06	9.212348e-09	4.722916e+01	6.057590e+02
1.580000e-06	6.809421e-06	9.222452e-09	4.735643e+01	6.065152e+02
1.590000e-06	6.825199e-06	9.231521e-09	4.746615e+01	6.071362e+02
1.600000e-06	6.838442e-06	9.240212e-09	4.755825e+01	6.076280e+02
1.610000e-06	6.849004e-06	9.248516e-09	4.763170e+01	6.079992e+02
1.620000e-06	6.856848e-06	9.254706e-09	4.768625e+01	6.082596e+02
1.630000e-06	6.862283e-06	9.257883e-09	4.772405e+01	6.084182e+02
1.640000e-06	6.865427e-06	9.259401e-09	4.774592e+01	6.084807e+02
1.650000e-06	6.866122e-06	9.260657e-09	4.775075e+01	6.084483e+02
1.660000e-06	6.864442e-06	9.258013e-09	4.773907e+01	6.083172e+02
1.670000e-06	6.860605e-06	9.256206e-09	4.771238e+01	6.080796e+02
1.680000e-06	6.854447e-06	9.248727e-09	4.766956e+01	6.077261e+02
1.690000e-06	6.845966e-06	9.239225e-09	4.761058e+01	6.072489e+02
1.700000e-06	6.835365e-06	9.231452e-09	4.753685e+01	6.066446e+02
1.710000e-06	6.822424e-06	9.225792e-09	4.744685e+01	6.059166e+02
1.720000e-06	6.807048e-06	9.223025e-09	4.733992e+01	6.050764e+02
1.730000e-06	6.789528e-06	9.181643e-09	4.721808e+01	6.041421e+02
1.740000e-06	6.769684e-06	9.165868e-09	4.708007e+01	6.031364e+02
1.750000e-06	6.746745e-06	9.154356e-09	4.692054e+01	6.020821e+02
1.760000e-06	6.720626e-06	9.122924e-09	4.673890e+01	6.009982e+02
1.770000e-06	6.692005e-06	9.117599e-09	4.653985e+01	5.998960e+02
1.780000e-06	6.661351e-06	9.133220e-09	4.632666e+01	5.987762e+02
1.790000e-06	6.629119e-06	9.085675e-09	4.610251e+01	5.976283e+02
1.800000e-06	6.595346e-06	9.109973e-09	4.586763e+01	5.964319e+02
1.810000e-06	6.559263e-06	9.085999e-09	4.561669e+01	5.951595e+02
1.820000e-06	6.520739e-06	9.035022e-09	4.534877e+01	5.937808e+02
1.830000e-06	6.480028e-06	9.084276e-09	4.506564e+01	5.922670e+02
1.840000e-06	6.437036e-06	8.998246e-09	4.476666e+01	5.905949e+02
1.850000e-06	6.391890e-06	8.990107e-09	4.445269e+01	5.887488e+02
1.860000e-06	6.344385e-06	8.957421e-09	4.412231e+01	5.867226e+02
1.870000e-06	6.294533e-06	8.841254e-09	4.377561e+01	5.845184e+02
1.880000e-06	6.242344e-06	8.875233e-09	4.341266e+01	5.821450e+02
1.890000e-06	6.187401e-06	8.841506e-09	4.303056e+01	5.796153e+02
1.900000e-06	6.130055e-06	8.825267e-09	4.263174e+01	5.769431e+02
1.910000e-06	6.070548e-06	8.807395e-09	4.221790e+01	5.741413e+02
1.920000e-06	6.008672e-06	8.687908e-09	4.178758e+01	5.712195e+02
1.930000e-06	5.944544e-06	8.662927e-09	4.134160e+01	5.681836e+02
1.940000e-06	5.878372e-06	8.623493e-09	4.088140e+01	5.650357e+02
1.950000e-06	5.810070e-06	8.609132e-09	4.040639e+01	5.617752e+02
1.960000e-06	5.739330e-06	8.528355e-09	3.991443e+01	5.583990e+02
1.970000e-06	5.666322e-06	8.443729e-09	3.940669e+01	5.549037e+02
1.980000e-06	5.591214e-06	8.409461e-09	3.888435e+01	5.512855e+02
1.990000e-06	5.513908e-06	8.334164e-09	3.834672e+01	5.475416e+02
2.000000e-06	5.434489e-06	8.322174e-09	3.779439e+01	5.436697e+02
2.010000e-06	5.353080e-06	8.250022e-09	3.722824e+01	5.396685e+02
2.020000e-06	5.269861e-06	8.167380e-09	3.664948e+01	5.355374e+02
2.030000e-06	5.184795e-06	8.087859e-09	3.605789e+01	5.312759e+02
2.040000e-06	5.097763e-06	8.019280e-09	3.545262e+01	5.268836e+02
2.050000e-06	5.008922e-06	7.987876e-09	3.483477e+01	5.223598e+02
2.060000e-06	4.918467e-06	7.917183e-09	3.420570e+01	5.177034e+02
2.070000e-06	4.826404e-06	7.844760e-09	3.356544e+01	5.129130e+02
2.080000e-06	4.732594e-06	7.749412e-09	3.291303e+01	5.079864e+02
2.090000e-06	4.637046e-06	7.670377e-09	3.224855e+01	5.029213e+02
2.100000e-06	4.539917e-06	7.594051e-09	3.157306e+01	4.977148e+02
2.110000e-06	4.441301e-06	7.534116e-09	3.088723e+01	4.923639e+02
2.120000e-06	4.341174e-06	7.455821e-09	3.019089e+01	4.868656e+02
2.130000e-06	4.239446e-06	7.342892e-09	2.948342e+01	4.812168e+02
2.140000e-06	4.136087e-06	7.245097e-09	2.876461e+01	4.754147e+02
2.150000e-06	4.031193e-06	7.157595e-09	2.803511e+01	4.694563e+02
2.160000e-06	3.924935e-06	7.086028e-09	2.729614e+01	4.633388e+02
2.170000e-06	3.817308e-06	6.995903e-09	2.654764e+01	4.570591e+02
2.180000e-06	3.708369e-06	6.892142e-09	2.579002e+01	4.506140e+02
2.190000e-06	3.598047e-06	6.780859e-09	2.502278e+01	4.440000e+02
2.200000e-06	3.486302e-06	6.684628e-09	2.424564e+01	4.372132e+02
2.210000e-06	3.373208e-06	6.594628e-09	2.345913e+01	4.302500e+02
2.220000e-06	3.258758e-06	6.492205e-09	2.266318e+01	4.231066e+02
2.230000e-06	3.142962e-06	6.364459e-09	2.185787e+01	4.157802e+02
2.240000e-06	3.025924e-06	6.232063e-09	2.104392e+01	4.082681e+02
2.250000e-06	2.907704e-06	6.114861e-09	2.022175e+01	4.005682e+02
2.260000e-06	2.788268e-06	6.004555e-09	1.939114e+01	3.926785e+02
2.270000e-06	2.667760e-06	5.899014e-09	1.855305e+01	3.845962e+02
2.280000e-06	2.546319e-06	5.778629e-09	1.770849e+01	3.763176e+02
2.290000e-06	2.424048e-06	5.641098e-09	1.685815e+01	3.678366e+02
2.300000e-06	2.300921e-06	5.496429e-09	1.600186e+01	3.591453e+02
2.310000e-06	2.177008e-06	5.364775e-09	1.514010e+01	3.502337e+02
2.320000e-06	2.052402e-06	5.239383e-09	1.427352e+01	3.410903e+02
2.330000e-06	1.927134e-06	5.099079e-09	1.340234e+01	3.317035e+02
2.340000e-06	1.801211e-06	4.938807e-09	1.252661e+01	3.220625e+02
2.350000e-06	1.674593e-06	4.777131e-09	1.164603e+01	3.121583e+02
2.360000e-06	1.547366e-06	4.624507e-09	1.076123e+01	3.019840e+02
2.370000e-06	1.419597e-06	4.475641e-09	9.872650e+00	2.915350e+02
2.380000e-06	1.291353e-06	4.321018e-09	8.980772e+00	2.808074e+02
2.390000e-06	1.162680e-06	4.150900e-09	8.085910e+00	2.697970e+02
2.400000e-06	1.033574e-06	3.970993e-09	7.188037e+00	2.584972e+02
2.410000e-06	9.041554e-07	3.792694e-09	6.287989e+00	2.468980e+02
2.420000e-06	7.745143e-07	3.617126e-09	5.386394e+00	2.349855e+02
2.430000e-06	6.447221e-07	3.435101e-09	4.483749e+00	2.227418e+02
2.440000e-06	5.147962e-07	3.238201e-09	3.580173e+00	2.101473e+02
2.450000e-06	3.846713e-07	3.028596e-09	2.675214e+00	1.971822e+02
2.460000e-06	2.543425e-07	2.818916e-09	1.768836e+00	1.838285e+02
2.470000e-06	1.239276e-07	2.612775e-09	8.618603e-01	1.700719e+02
2.480000e-06	-6.522895e-09	2.405096e-09	-4.536377e-02	1.559012e+02
2.490000e-06	-1.370193e-07	2.187981e-09	-9.529065e-01	1.413072e+02
2.500000e-06	-2.674930e-07	1.953999e-09	-1.860292e+00	1.262796e+02
2.510000e-06	-3.978978e-07	1.709295e-09	-2.767198e+00	1.108033e+02
2.520000e-06	-5.281618e-07	1.463804e-09	-3.673125e+00	9.485550e+01
2.530000e-06	-6.582576e-07	1.216137e-09	-4.577882e+00	7.840422e+01
2.540000e-06	-7.881701e-07	9.605039e-10	-5.481364e+00	6.140930e+01
2.550000e-06	-9.178514e-07	6.882607e-10	-6.383239e+00	4.382716e+01
2.560000e-06	-1.047261e-06	4.008957e-10	-7.283226e+00	2.561862e+01
2.570000e-06	-1.176375e-06	1.105025e-10	-8.181150e+00	6.758958e+00
2.580000e-06	-1.305163e-06	-1.816516e-10	-9.076816e+00	-1.275127e+01
2.590000e-06	-1.433500e-06	-4.814595e-10	-9.969342e+00	-3.287691e+01
2.600000e-06	-1.561203e-06	-7.946118e-10	-1.085745e+01	-5.354229e+01
2.610000e-06	-1.688189e-06	-1.121536e-09	-1.174059e+01	-7.463036e+01
2.620000e-06	-1.814474e-06	-1.454216e-09	-1.261884e+01	-9.598757e+01
2.630000e-06	-1.940116e-06	-1.782274e-09	-1.349262e+01	-1.174342e+02
2.640000e-06	-2.065055e-06	-2.104564e-09	-1.436152e+01	-1.387789e+02
2.650000e-06	-2.189169e-06	-2.423864e-09	-1.522467e+01	-1.598347e+02
2.660000e-06	-2.312383e-06	-2.740384e-09	-1.608157e+01	-1.804343e+02
2.670000e-06	-2.434668e-06	-3.047064e-09	-1.693201e+01	-2.004429e+02
2.680000e-06	-2.556125e-06	-3.338852e-09	-1.777669e+01	-2.197646e+02
2.690000e-06	-2.676740e-06	-3.620274e-09	-1.861551e+01	-2.383438e+02
2.700000e-06	-2.796274e-06	-3.893928e-09	-1.944681e+01	-2.561615e+02
2.710000e-06	-2.914636e-06	-4.160911e-09	-2.026997e+01	-2.732262e+02
2.720000e-06	-3.031909e-06	-4.418010e-09	-2.108555e+01	-2.895635e+02
2.730000e-06	-3.148003e-06	-4.659626e-09	-2.189293e+01	-3.052065e+02
2.740000e-06	-3.262821e-06	-4.886832e-09	-2.269143e+01	-3.201867e+02
2.750000e-06	-3.376246e-06	-5.104734e-09	-2.348025e+01	-3.345301e+02
2.760000e-06	-3.488295e-06	-5.315683e-09	-2.425950e+01	-3.482557e+02
2.770000e-06	-3.599019e-06	-5.518264e-09	-2.502954e+01	-3.613779e+02
2.780000e-06	-3.708478e-06	-5.711708e-09	-2.579078e+01	-3.739104e+02
2.790000e-06	-3.816770e-06	-5.894938e-09	-2.654390e+01	-3.858702e+02
2.800000e-06	-3.923828e-06	-6.068316e-09	-2.728844e+01	-3.972810e+02
2.810000e-06	-4.029603e-06	-6.233344e-09	-2.802405e+01	-4.081733e+02
2.820000e-06	-4.133921e-06	-6.392903e-09	-2.874954e+01	-4.185830e+02
2.830000e-06	-4.236612e-06	-6.547301e-09	-2.946370e+01	-4.285478e+02
2.840000e-06	-4.337705e-06	-6.694022e-09	-3.016676e+01	-4.381021e+02
2.850000e-06	-4.437261e-06	-6.832621e-09	-3.085913e+01	-4.472731e+02
2.860000e-06	-4.535352e-06	-6.964908e-09	-3.154131e+01	-4.560780e+02
2.870000e-06	-4.631959e-06	-7.094437e-09	-3.221317e+01	-4.645238e+02
2.880000e-06	-4.726834e-06	-7.219371e-09	-3.287297e+01	-4.726092e+02
2.890000e-06	-4.819946e-06	-7.339526e-09	-3.352053e+01	-4.803285e+02
2.900000e-06	-4.911413e-06	-7.453993e-09	-3.415664e+01	-4.876769e+02
2.910000e-06	-5.001180e-06	-7.559914e-09	-3.478093e+01	-4.946548e+02
2.920000e-06	-5.089129e-06	-7.660235e-09	-3.539258e+01	-5.012711e+02
2.930000e-06	-5.175152e-06	-7.756155e-09	-3.599082e+01	-5.075444e+02
2.940000e-06	-5.259256e-06	-7.848198e-09	-3.657573e+01	-5.135016e+02
