# Temperatura_=_68.52
# Concentracion g/m^3_=_15000.0
# C_Vs_to_Am_M_A/Vsm_=_65563218390.804596
# pendiente_HvsI_1/m_=_3716.3
# ordenada_HvsI_A/m_=_1297.0
# frecuencia_Hz_=_301898.58879957156

Tiempo_(s)	Campo_(V.s)	Magnetizacion_(V.s)	Campo_(kA/m)	Magnetizacion_(A/m)
0.000000e+00	-6.859773e-06	-9.958741e-09	-4.750104e+01	-6.511491e+02
1.000000e-08	-6.857039e-06	-9.955113e-09	-4.748211e+01	-6.508642e+02
2.000000e-08	-6.852019e-06	-9.951587e-09	-4.744735e+01	-6.504632e+02
3.000000e-08	-6.844894e-06	-9.945036e-09	-4.739801e+01	-6.499492e+02
4.000000e-08	-6.835503e-06	-9.936725e-09	-4.733298e+01	-6.493237e+02
5.000000e-08	-6.823611e-06	-9.925192e-09	-4.725064e+01	-6.485871e+02
6.000000e-08	-6.809246e-06	-9.912213e-09	-4.715116e+01	-6.477389e+02
7.000000e-08	-6.792560e-06	-9.900554e-09	-4.703562e+01	-6.467795e+02
8.000000e-08	-6.773680e-06	-9.881241e-09	-4.690488e+01	-6.457116e+02
9.000000e-08	-6.752430e-06	-9.860043e-09	-4.675773e+01	-6.445413e+02
1.000000e-07	-6.728450e-06	-9.858283e-09	-4.659169e+01	-6.432792e+02
1.100000e-07	-6.701662e-06	-9.836686e-09	-4.640619e+01	-6.419401e+02
1.200000e-07	-6.672426e-06	-9.799740e-09	-4.620374e+01	-6.405407e+02
1.300000e-07	-6.641149e-06	-9.782347e-09	-4.598716e+01	-6.390973e+02
1.400000e-07	-6.607974e-06	-9.752382e-09	-4.575744e+01	-6.376216e+02
1.500000e-07	-6.572868e-06	-9.678385e-09	-4.551434e+01	-6.361177e+02
1.600000e-07	-6.535708e-06	-9.702217e-09	-4.525703e+01	-6.345790e+02
1.700000e-07	-6.496561e-06	-9.663072e-09	-4.498595e+01	-6.329868e+02
1.800000e-07	-6.455136e-06	-9.582681e-09	-4.469910e+01	-6.313120e+02
1.900000e-07	-6.411122e-06	-9.609032e-09	-4.439432e+01	-6.295177e+02
2.000000e-07	-6.364834e-06	-9.555421e-09	-4.407380e+01	-6.275648e+02
2.100000e-07	-6.316115e-06	-9.568587e-09	-4.373643e+01	-6.254174e+02
2.200000e-07	-6.264642e-06	-9.579442e-09	-4.338001e+01	-6.230487e+02
2.300000e-07	-6.210628e-06	-9.476893e-09	-4.300598e+01	-6.204457e+02
2.400000e-07	-6.154188e-06	-9.400244e-09	-4.261516e+01	-6.176104e+02
2.500000e-07	-6.095414e-06	-9.342637e-09	-4.220818e+01	-6.145597e+02
2.600000e-07	-6.034442e-06	-9.290274e-09	-4.178597e+01	-6.113213e+02
2.700000e-07	-5.971272e-06	-9.251928e-09	-4.134855e+01	-6.079285e+02
2.800000e-07	-5.905918e-06	-9.216656e-09	-4.089599e+01	-6.044138e+02
2.900000e-07	-5.838303e-06	-9.145680e-09	-4.042779e+01	-6.008029e+02
3.000000e-07	-5.768495e-06	-9.057169e-09	-3.994440e+01	-5.971105e+02
3.100000e-07	-5.696619e-06	-9.038170e-09	-3.944669e+01	-5.933385e+02
3.200000e-07	-5.622533e-06	-8.992028e-09	-3.893368e+01	-5.894771e+02
3.300000e-07	-5.546153e-06	-8.920581e-09	-3.840478e+01	-5.855081e+02
3.400000e-07	-5.467552e-06	-8.860851e-09	-3.786050e+01	-5.814097e+02
3.500000e-07	-5.386831e-06	-8.787107e-09	-3.730154e+01	-5.771620e+02
3.600000e-07	-5.304199e-06	-8.729132e-09	-3.672935e+01	-5.727507e+02
3.700000e-07	-5.219822e-06	-8.662219e-09	-3.614507e+01	-5.681703e+02
3.800000e-07	-5.133711e-06	-8.589920e-09	-3.554879e+01	-5.634235e+02
3.900000e-07	-5.045834e-06	-8.496469e-09	-3.494028e+01	-5.585199e+02
4.000000e-07	-4.956122e-06	-8.403966e-09	-3.431906e+01	-5.534725e+02
4.100000e-07	-4.864651e-06	-8.334383e-09	-3.368566e+01	-5.482936e+02
4.200000e-07	-4.771536e-06	-8.276674e-09	-3.304088e+01	-5.429910e+02
4.300000e-07	-4.676819e-06	-8.204413e-09	-3.238501e+01	-5.375664e+02
4.400000e-07	-4.580408e-06	-8.102384e-09	-3.171740e+01	-5.320148e+02
4.500000e-07	-4.482231e-06	-8.001718e-09	-3.103756e+01	-5.263252e+02
4.600000e-07	-4.382384e-06	-7.907444e-09	-3.034617e+01	-5.204840e+02
4.700000e-07	-4.281010e-06	-7.818732e-09	-2.964420e+01	-5.144773e+02
4.800000e-07	-4.178238e-06	-7.736279e-09	-2.893254e+01	-5.082941e+02
4.900000e-07	-4.074042e-06	-7.646151e-09	-2.821103e+01	-5.019279e+02
5.000000e-07	-3.968283e-06	-7.535405e-09	-2.747869e+01	-4.953768e+02
5.100000e-07	-3.860937e-06	-7.426469e-09	-2.673536e+01	-4.886428e+02
5.200000e-07	-3.752212e-06	-7.328734e-09	-2.598249e+01	-4.817299e+02
5.300000e-07	-3.642249e-06	-7.224285e-09	-2.522104e+01	-4.746416e+02
5.400000e-07	-3.531008e-06	-7.106300e-09	-2.445074e+01	-4.673791e+02
5.500000e-07	-3.418297e-06	-6.981874e-09	-2.367027e+01	-4.599402e+02
5.600000e-07	-3.304031e-06	-6.861968e-09	-2.287903e+01	-4.523191e+02
5.700000e-07	-3.188310e-06	-6.748131e-09	-2.207771e+01	-4.445076e+02
5.800000e-07	-3.071322e-06	-6.637056e-09	-2.126761e+01	-4.364964e+02
5.900000e-07	-2.953267e-06	-6.515674e-09	-2.045013e+01	-4.282764e+02
6.000000e-07	-2.834231e-06	-6.379756e-09	-1.962586e+01	-4.198405e+02
6.100000e-07	-2.714194e-06	-6.238501e-09	-1.879465e+01	-4.111839e+02
6.200000e-07	-2.593041e-06	-6.104966e-09	-1.795572e+01	-4.023032e+02
6.300000e-07	-2.470834e-06	-5.971709e-09	-1.710948e+01	-3.931962e+02
6.400000e-07	-2.347718e-06	-5.825646e-09	-1.625696e+01	-3.838605e+02
6.500000e-07	-2.223717e-06	-5.671894e-09	-1.539831e+01	-3.742922e+02
6.600000e-07	-2.098973e-06	-5.515807e-09	-1.453450e+01	-3.644855e+02
6.700000e-07	-1.973596e-06	-5.361087e-09	-1.366632e+01	-3.544329e+02
6.800000e-07	-1.847569e-06	-5.207585e-09	-1.279364e+01	-3.441259e+02
6.900000e-07	-1.720929e-06	-5.052675e-09	-1.191671e+01	-3.335557e+02
7.000000e-07	-1.593740e-06	-4.889412e-09	-1.103598e+01	-3.227144e+02
7.100000e-07	-1.466069e-06	-4.718181e-09	-1.015191e+01	-3.115945e+02
7.200000e-07	-1.337913e-06	-4.543966e-09	-9.264484e+00	-3.001893e+02
7.300000e-07	-1.209212e-06	-4.368303e-09	-8.373285e+00	-2.884912e+02
7.400000e-07	-1.080048e-06	-4.186569e-09	-7.478880e+00	-2.764910e+02
7.500000e-07	-9.505162e-07	-3.994823e-09	-6.581924e+00	-2.641762e+02
7.600000e-07	-8.206067e-07	-3.797399e-09	-5.682356e+00	-2.515308e+02
7.700000e-07	-6.903861e-07	-3.597416e-09	-4.780633e+00	-2.385361e+02
7.800000e-07	-5.599392e-07	-3.395770e-09	-3.877343e+00	-2.251713e+02
7.900000e-07	-4.292715e-07	-3.191324e-09	-2.972525e+00	-2.114163e+02
8.000000e-07	-2.984277e-07	-2.979062e-09	-2.066486e+00	-1.972531e+02
8.100000e-07	-1.674879e-07	-2.756145e-09	-1.159783e+00	-1.826674e+02
8.200000e-07	-3.651101e-08	-2.525955e-09	-2.528233e-01	-1.676484e+02
8.300000e-07	9.452593e-08	-2.291914e-09	6.545523e-01	-1.521870e+02
8.400000e-07	2.256070e-07	-2.054006e-09	1.562233e+00	-1.362722e+02
8.500000e-07	3.566411e-07	-1.807514e-09	2.469589e+00	-1.198882e+02
8.600000e-07	4.875928e-07	-1.551894e-09	3.376375e+00	-1.030100e+02
8.700000e-07	6.183967e-07	-1.287290e-09	4.282137e+00	-8.560220e+01
8.800000e-07	7.489798e-07	-1.012395e-09	5.186370e+00	-6.761997e+01
8.900000e-07	8.793075e-07	-7.288017e-10	6.088834e+00	-4.901378e+01
9.000000e-07	1.009333e-06	-4.356577e-10	6.989203e+00	-2.973735e+01
9.100000e-07	1.138981e-06	-1.305359e-10	7.886964e+00	-9.758238e+00
9.200000e-07	1.268138e-06	1.868006e-10	8.781325e+00	1.093080e+01
9.300000e-07	1.396792e-06	5.122326e-10	9.672196e+00	3.230156e+01
9.400000e-07	1.524962e-06	8.432437e-10	1.055972e+01	5.428343e+01
9.500000e-07	1.652538e-06	1.181975e-09	1.144313e+01	7.676140e+01
9.600000e-07	1.779492e-06	1.528324e-09	1.232223e+01	9.957976e+01
9.700000e-07	1.905827e-06	1.879573e-09	1.319705e+01	1.225517e+02
9.800000e-07	2.031530e-06	2.227258e-09	1.406749e+01	1.454730e+02
9.900000e-07	2.156591e-06	2.570151e-09	1.493348e+01	1.681388e+02
1.000000e-06	2.280942e-06	2.907394e-09	1.579456e+01	1.903599e+02
1.010000e-06	2.404524e-06	3.236525e-09	1.665032e+01	2.119766e+02
1.020000e-06	2.527195e-06	3.557469e-09	1.749976e+01	2.328684e+02
1.030000e-06	2.648791e-06	3.864613e-09	1.834176e+01	2.529582e+02
1.040000e-06	2.769229e-06	4.157725e-09	1.917575e+01	2.722100e+02
1.050000e-06	2.888567e-06	4.437023e-09	2.000211e+01	2.906230e+02
1.060000e-06	3.006960e-06	4.702349e-09	2.082193e+01	3.082218e+02
1.070000e-06	3.124409e-06	4.956691e-09	2.163522e+01	3.250451e+02
1.080000e-06	3.240775e-06	5.200389e-09	2.244100e+01	3.411369e+02
1.090000e-06	3.355859e-06	5.433008e-09	2.323791e+01	3.565378e+02
1.100000e-06	3.469423e-06	5.654341e-09	2.402429e+01	3.712818e+02
1.110000e-06	3.581516e-06	5.867285e-09	2.480049e+01	3.853952e+02
1.120000e-06	3.692375e-06	6.071893e-09	2.556814e+01	3.988981e+02
1.130000e-06	3.802094e-06	6.268546e-09	2.632790e+01	4.118086e+02
1.140000e-06	3.910657e-06	6.458650e-09	2.707966e+01	4.241458e+02
1.150000e-06	4.017946e-06	6.639376e-09	2.782258e+01	4.359333e+02
1.160000e-06	4.123721e-06	6.810947e-09	2.855503e+01	4.471994e+02
1.170000e-06	4.227893e-06	6.974622e-09	2.927638e+01	4.579772e+02
1.180000e-06	4.330565e-06	7.130219e-09	2.998734e+01	4.683014e+02
1.190000e-06	4.431760e-06	7.280103e-09	3.068807e+01	4.782049e+02
1.200000e-06	4.531473e-06	7.425126e-09	3.137855e+01	4.877161e+02
1.210000e-06	4.629514e-06	7.564476e-09	3.205744e+01	4.968553e+02
1.220000e-06	4.725661e-06	7.699341e-09	3.272321e+01	5.056344e+02
1.230000e-06	4.820033e-06	7.827973e-09	3.337670e+01	5.140575e+02
1.240000e-06	4.912849e-06	7.951512e-09	3.401941e+01	5.221229e+02
1.250000e-06	5.004114e-06	8.069401e-09	3.465138e+01	5.298272e+02
1.260000e-06	5.093501e-06	8.180301e-09	3.527035e+01	5.371683e+02
1.270000e-06	5.180914e-06	8.285146e-09	3.587565e+01	5.441494e+02
1.280000e-06	5.266491e-06	8.386189e-09	3.646823e+01	5.507806e+02
1.290000e-06	5.350269e-06	8.482374e-09	3.704836e+01	5.570801e+02
1.300000e-06	5.432150e-06	8.572093e-09	3.761535e+01	5.630727e+02
1.310000e-06	5.511928e-06	8.656939e-09	3.816778e+01	5.687878e+02
1.320000e-06	5.589665e-06	8.738267e-09	3.870607e+01	5.742562e+02
1.330000e-06	5.665443e-06	8.816699e-09	3.923081e+01	5.795067e+02
1.340000e-06	5.738997e-06	8.893541e-09	3.974014e+01	5.845630e+02
1.350000e-06	5.810310e-06	8.970204e-09	4.023395e+01	5.894422e+02
1.360000e-06	5.879612e-06	9.044687e-09	4.071384e+01	5.941534e+02
1.370000e-06	5.946887e-06	9.115472e-09	4.117969e+01	5.986990e+02
1.380000e-06	6.011978e-06	9.182009e-09	4.163042e+01	6.030753e+02
1.390000e-06	6.074856e-06	9.244926e-09	4.206582e+01	6.072755e+02
1.400000e-06	6.135731e-06	9.303974e-09	4.248736e+01	6.112916e+02
1.410000e-06	6.194618e-06	9.359833e-09	4.289512e+01	6.151166e+02
1.420000e-06	6.251252e-06	9.413465e-09	4.328729e+01	6.187461e+02
1.430000e-06	6.305579e-06	9.465636e-09	4.366348e+01	6.221787e+02
1.440000e-06	6.357486e-06	9.515084e-09	4.402291e+01	6.254162e+02
1.450000e-06	6.406740e-06	9.561293e-09	4.436398e+01	6.284623e+02
1.460000e-06	6.453576e-06	9.604921e-09	4.468830e+01	6.313222e+02
1.470000e-06	6.498299e-06	9.645646e-09	4.499798e+01	6.340011e+02
1.480000e-06	6.540842e-06	9.683989e-09	4.529258e+01	6.365033e+02
1.490000e-06	6.580927e-06	9.720746e-09	4.557015e+01	6.388318e+02
1.500000e-06	6.618630e-06	9.754886e-09	4.583123e+01	6.409886e+02
1.510000e-06	6.654147e-06	9.784253e-09	4.607717e+01	6.429746e+02
1.520000e-06	6.687273e-06	9.809717e-09	4.630655e+01	6.447911e+02
1.530000e-06	6.717984e-06	9.831481e-09	4.651921e+01	6.464396e+02
1.540000e-06	6.746474e-06	9.851608e-09	4.671649e+01	6.479227e+02
1.550000e-06	6.772555e-06	9.870887e-09	4.689709e+01	6.492440e+02
1.560000e-06	6.796013e-06	9.887779e-09	4.705953e+01	6.504079e+02
1.570000e-06	6.817101e-06	9.904266e-09	4.720556e+01	6.514193e+02
1.580000e-06	6.835896e-06	9.920240e-09	4.733570e+01	6.522826e+02
1.590000e-06	6.852100e-06	9.932984e-09	4.744791e+01	6.530018e+02
1.600000e-06	6.865759e-06	9.941360e-09	4.754249e+01	6.535800e+02
1.610000e-06	6.876849e-06	9.946794e-09	4.761929e+01	6.540194e+02
1.620000e-06	6.885232e-06	9.951704e-09	4.767734e+01	6.543222e+02
1.630000e-06	6.891145e-06	9.956353e-09	4.771828e+01	6.544907e+02
1.640000e-06	6.894732e-06	9.959096e-09	4.774311e+01	6.545280e+02
1.650000e-06	6.895834e-06	9.958128e-09	4.775075e+01	6.544377e+02
1.660000e-06	6.894547e-06	9.955968e-09	4.774184e+01	6.542243e+02
1.670000e-06	6.891067e-06	9.951209e-09	4.771774e+01	6.538924e+02
1.680000e-06	6.885210e-06	9.944290e-09	4.767718e+01	6.534457e+02
1.690000e-06	6.877011e-06	9.936209e-09	4.762041e+01	6.528867e+02
1.700000e-06	6.866639e-06	9.926945e-09	4.754858e+01	6.522166e+02
1.710000e-06	6.853989e-06	9.916504e-09	4.746099e+01	6.514352e+02
1.720000e-06	6.838964e-06	9.898957e-09	4.735695e+01	6.505422e+02
1.730000e-06	6.821776e-06	9.880923e-09	4.723793e+01	6.495386e+02
1.740000e-06	6.802390e-06	9.864665e-09	4.710369e+01	6.484285e+02
1.750000e-06	6.779940e-06	9.824644e-09	4.694823e+01	6.472196e+02
1.760000e-06	6.754188e-06	9.804442e-09	4.676991e+01	6.459244e+02
1.770000e-06	6.725820e-06	9.800176e-09	4.657347e+01	6.445585e+02
1.780000e-06	6.695309e-06	9.761693e-09	4.636220e+01	6.431390e+02
1.790000e-06	6.663193e-06	9.779176e-09	4.613981e+01	6.416808e+02
1.800000e-06	6.629633e-06	9.782891e-09	4.590742e+01	6.401932e+02
1.810000e-06	6.593767e-06	9.700078e-09	4.565906e+01	6.386760e+02
1.820000e-06	6.555336e-06	9.744689e-09	4.539295e+01	6.371181e+02
1.830000e-06	6.514800e-06	9.716541e-09	4.511225e+01	6.354965e+02
1.840000e-06	6.472082e-06	9.657364e-09	4.481644e+01	6.337784e+02
1.850000e-06	6.427174e-06	9.669682e-09	4.450548e+01	6.319254e+02
1.860000e-06	6.379902e-06	9.548976e-09	4.417814e+01	6.298989e+02
1.870000e-06	6.330183e-06	9.519907e-09	4.383385e+01	6.276661e+02
1.880000e-06	6.278175e-06	9.514487e-09	4.347372e+01	6.252051e+02
1.890000e-06	6.223467e-06	9.503313e-09	4.309489e+01	6.225087e+02
1.900000e-06	6.166215e-06	9.523664e-09	4.269844e+01	6.195850e+02
1.910000e-06	6.106719e-06	9.429064e-09	4.228646e+01	6.164558e+02
1.920000e-06	6.044840e-06	9.359715e-09	4.185797e+01	6.131517e+02
1.930000e-06	5.980752e-06	9.291360e-09	4.141419e+01	6.097064e+02
1.940000e-06	5.914555e-06	9.254017e-09	4.095581e+01	6.061504e+02
1.950000e-06	5.846276e-06	9.229965e-09	4.048300e+01	6.025054e+02
1.960000e-06	5.775635e-06	9.143685e-09	3.999384e+01	5.987812e+02
1.970000e-06	5.702650e-06	9.110105e-09	3.948845e+01	5.949748e+02
1.980000e-06	5.627591e-06	9.016355e-09	3.896870e+01	5.910725e+02
1.990000e-06	5.550189e-06	8.956910e-09	3.843272e+01	5.870543e+02
2.000000e-06	5.470633e-06	8.911981e-09	3.788183e+01	5.828984e+02
2.010000e-06	5.389264e-06	8.828930e-09	3.731838e+01	5.785867e+02
2.020000e-06	5.306157e-06	8.765585e-09	3.674291e+01	5.741081e+02
2.030000e-06	5.221118e-06	8.680564e-09	3.615404e+01	5.694605e+02
2.040000e-06	5.133974e-06	8.633439e-09	3.555061e+01	5.646497e+02
2.050000e-06	5.044978e-06	8.554898e-09	3.493435e+01	5.596871e+02
2.060000e-06	4.954390e-06	8.472988e-09	3.430706e+01	5.545857e+02
2.070000e-06	4.862301e-06	8.390270e-09	3.366938e+01	5.493565e+02
2.080000e-06	4.768454e-06	8.301485e-09	3.301953e+01	5.440052e+02
2.090000e-06	4.672795e-06	8.229379e-09	3.235714e+01	5.385307e+02
2.100000e-06	4.575507e-06	8.149412e-09	3.168346e+01	5.329253e+02
2.110000e-06	4.476758e-06	8.085110e-09	3.099966e+01	5.271769e+02
2.120000e-06	4.376514e-06	7.986790e-09	3.030552e+01	5.212712e+02
2.130000e-06	4.274579e-06	7.869343e-09	2.959966e+01	5.151952e+02
2.140000e-06	4.170982e-06	7.756587e-09	2.888229e+01	5.089396e+02
2.150000e-06	4.065862e-06	7.664592e-09	2.815438e+01	5.024997e+02
2.160000e-06	3.959372e-06	7.578021e-09	2.741699e+01	4.958754e+02
2.170000e-06	3.851579e-06	7.485244e-09	2.667056e+01	4.890696e+02
2.180000e-06	3.742430e-06	7.383040e-09	2.591475e+01	4.820865e+02
2.190000e-06	3.631790e-06	7.267894e-09	2.514861e+01	4.749288e+02
2.200000e-06	3.519769e-06	7.158771e-09	2.437292e+01	4.675964e+02
2.210000e-06	3.406428e-06	7.046647e-09	2.358808e+01	4.600858e+02
2.220000e-06	3.291752e-06	6.931846e-09	2.279399e+01	4.523900e+02
2.230000e-06	3.175732e-06	6.802409e-09	2.199061e+01	4.445001e+02
2.240000e-06	3.058258e-06	6.670851e-09	2.117715e+01	4.364068e+02
2.250000e-06	2.939547e-06	6.542650e-09	2.035512e+01	4.281018e+02
2.260000e-06	2.819791e-06	6.418351e-09	1.952587e+01	4.195786e+02
2.270000e-06	2.698926e-06	6.293413e-09	1.868893e+01	4.108332e+02
2.280000e-06	2.577066e-06	6.162130e-09	1.784510e+01	4.018629e+02
2.290000e-06	2.454394e-06	6.022536e-09	1.699565e+01	3.926655e+02
2.300000e-06	2.330924e-06	5.879383e-09	1.614067e+01	3.832379e+02
2.310000e-06	2.206728e-06	5.741530e-09	1.528066e+01	3.735757e+02
2.320000e-06	2.081828e-06	5.598659e-09	1.441578e+01	3.636723e+02
2.330000e-06	1.956082e-06	5.440192e-09	1.354505e+01	3.535198e+02
2.340000e-06	1.829538e-06	5.267366e-09	1.266878e+01	3.431095e+02
2.350000e-06	1.702345e-06	5.094550e-09	1.178802e+01	3.324327e+02
2.360000e-06	1.574603e-06	4.928303e-09	1.090346e+01	3.214817e+02
2.370000e-06	1.446326e-06	4.767607e-09	1.001520e+01	3.102496e+02
2.380000e-06	1.317574e-06	4.601491e-09	9.123647e+00	2.987293e+02
2.390000e-06	1.188461e-06	4.421490e-09	8.229589e+00	2.869127e+02
2.400000e-06	1.058975e-06	4.230714e-09	7.332957e+00	2.747896e+02
2.410000e-06	9.291423e-07	4.038791e-09	6.433919e+00	2.623460e+02
2.420000e-06	7.990415e-07	3.847373e-09	5.533026e+00	2.495648e+02
2.430000e-06	6.687120e-07	3.648714e-09	4.630549e+00	2.364261e+02
2.440000e-06	5.381779e-07	3.439102e-09	3.726655e+00	2.229093e+02
2.450000e-06	4.074741e-07	3.218802e-09	2.821587e+00	2.089949e+02
2.460000e-06	2.766246e-07	2.995283e-09	1.915509e+00	1.946662e+02
2.470000e-06	1.456851e-07	2.772254e-09	1.008808e+00	1.799105e+02
2.480000e-06	1.466711e-08	2.545833e-09	1.015636e-01	1.647178e+02
2.490000e-06	-1.164021e-07	2.310461e-09	-8.060356e-01	1.490787e+02
2.500000e-06	-2.474332e-07	2.060113e-09	-1.713371e+00	1.329809e+02
2.510000e-06	-3.783719e-07	1.800533e-09	-2.620066e+00	1.164053e+02
2.520000e-06	-5.091916e-07	1.537607e-09	-3.525937e+00	9.932282e+01
2.530000e-06	-6.398630e-07	1.267714e-09	-4.430782e+00	8.169408e+01
2.540000e-06	-7.703583e-07	9.888046e-10	-5.334407e+00	6.347165e+01
2.550000e-06	-9.006041e-07	6.980483e-10	-6.236304e+00	4.460615e+01
2.560000e-06	-1.030511e-06	3.968003e-10	-7.135856e+00	2.505538e+01
2.570000e-06	-1.160070e-06	8.995635e-11	-8.032997e+00	4.795460e+00
2.580000e-06	-1.289268e-06	-2.243910e-10	-8.927636e+00	-1.616801e+01
2.590000e-06	-1.418030e-06	-5.519247e-10	-9.819263e+00	-3.779076e+01
2.600000e-06	-1.546367e-06	-8.935119e-10	-1.070794e+01	-5.998465e+01
2.610000e-06	-1.674164e-06	-1.245567e-09	-1.159288e+01	-8.261791e+01
2.620000e-06	-1.801289e-06	-1.600763e-09	-1.247317e+01	-1.055212e+02
2.630000e-06	-1.927734e-06	-1.954209e-09	-1.334875e+01	-1.284990e+02
2.640000e-06	-2.053325e-06	-2.303982e-09	-1.421841e+01	-1.513449e+02
2.650000e-06	-2.178009e-06	-2.648767e-09	-1.508180e+01	-1.738582e+02
2.660000e-06	-2.301859e-06	-2.987244e-09	-1.593941e+01	-1.958599e+02
2.670000e-06	-2.424804e-06	-3.312594e-09	-1.679074e+01	-2.172048e+02
2.680000e-06	-2.546822e-06	-3.621512e-09	-1.763567e+01	-2.377894e+02
2.690000e-06	-2.667950e-06	-3.918360e-09	-1.847443e+01	-2.575531e+02
2.700000e-06	-2.788166e-06	-4.207637e-09	-1.930687e+01	-2.764749e+02
2.710000e-06	-2.907350e-06	-4.490308e-09	-2.013217e+01	-2.945651e+02
2.720000e-06	-3.025389e-06	-4.761368e-09	-2.094954e+01	-3.118551e+02
2.730000e-06	-3.142183e-06	-5.016960e-09	-2.175830e+01	-3.283869e+02
2.740000e-06	-3.257676e-06	-5.258143e-09	-2.255804e+01	-3.442037e+02
2.750000e-06	-3.371874e-06	-5.488199e-09	-2.334881e+01	-3.593439e+02
2.760000e-06	-3.484698e-06	-5.711470e-09	-2.413006e+01	-3.738385e+02
2.770000e-06	-3.596081e-06	-5.925860e-09	-2.490135e+01	-3.877108e+02
2.780000e-06	-3.706119e-06	-6.128194e-09	-2.566331e+01	-4.009799e+02
2.790000e-06	-3.814929e-06	-6.319504e-09	-2.641677e+01	-4.136637e+02
2.800000e-06	-3.922616e-06	-6.504865e-09	-2.716247e+01	-4.257829e+02
2.810000e-06	-4.029080e-06	-6.685094e-09	-2.789968e+01	-4.373629e+02
2.820000e-06	-4.134120e-06	-6.856967e-09	-2.862704e+01	-4.484341e+02
2.830000e-06	-4.237634e-06	-7.019709e-09	-2.934383e+01	-4.590305e+02
2.840000e-06	-4.339479e-06	-7.173514e-09	-3.004907e+01	-4.691867e+02
2.850000e-06	-4.439725e-06	-7.320608e-09	-3.074323e+01	-4.789342e+02
2.860000e-06	-4.538504e-06	-7.463471e-09	-3.142723e+01	-4.882982e+02
2.870000e-06	-4.635773e-06	-7.600687e-09	-3.210078e+01	-4.972960e+02
2.880000e-06	-4.731405e-06	-7.731587e-09	-3.276299e+01	-5.059362e+02
2.890000e-06	-4.825235e-06	-7.856932e-09	-3.341272e+01	-5.142201e+02
2.900000e-06	-4.917315e-06	-7.978527e-09	-3.405034e+01	-5.221451e+02
2.910000e-06	-5.007692e-06	-8.096073e-09	-3.467616e+01	-5.297078e+02
2.920000e-06	-5.096273e-06	-8.208122e-09	-3.528955e+01	-5.369077e+02
2.930000e-06	-5.182902e-06	-8.313343e-09	-3.588941e+01	-5.437507e+02
2.940000e-06	-5.267525e-06	-8.411470e-09	-3.647539e+01	-5.502501e+02
