# Temperatura_=_78.14
# Concentracion g/m^3_=_15000.0
# C_Vs_to_Am_M_A/Vsm_=_65563218390.804596
# pendiente_HvsI_1/m_=_3716.3
# ordenada_HvsI_A/m_=_1297.0
# frecuencia_Hz_=_301895.0416961931

Tiempo_(s)	Campo_(V.s)	Magnetizacion_(V.s)	Campo_(kA/m)	Magnetizacion_(A/m)
0.000000e+00	-6.851315e-06	-1.059363e-08	-4.750381e+01	-6.926624e+02
1.000000e-08	-6.849011e-06	-1.059567e-08	-4.748783e+01	-6.924597e+02
2.000000e-08	-6.844384e-06	-1.059079e-08	-4.745575e+01	-6.921161e+02
3.000000e-08	-6.837671e-06	-1.058107e-08	-4.740921e+01	-6.916297e+02
4.000000e-08	-6.828691e-06	-1.057373e-08	-4.734694e+01	-6.910012e+02
5.000000e-08	-6.817246e-06	-1.056199e-08	-4.726759e+01	-6.902353e+02
6.000000e-08	-6.803323e-06	-1.054691e-08	-4.717105e+01	-6.893407e+02
7.000000e-08	-6.787004e-06	-1.051939e-08	-4.705790e+01	-6.883293e+02
8.000000e-08	-6.768499e-06	-1.048344e-08	-4.692960e+01	-6.872162e+02
9.000000e-08	-6.747744e-06	-1.053547e-08	-4.678569e+01	-6.860179e+02
1.000000e-07	-6.724345e-06	-1.055902e-08	-4.662345e+01	-6.847509e+02
1.100000e-07	-6.698090e-06	-1.047741e-08	-4.644142e+01	-6.834299e+02
1.200000e-07	-6.669304e-06	-1.043159e-08	-4.624183e+01	-6.820652e+02
1.300000e-07	-6.638494e-06	-1.042122e-08	-4.602821e+01	-6.806614e+02
1.400000e-07	-6.605777e-06	-1.029757e-08	-4.580136e+01	-6.792149e+02
1.500000e-07	-6.571105e-06	-1.028445e-08	-4.556096e+01	-6.777138e+02
1.600000e-07	-6.534403e-06	-1.044525e-08	-4.530649e+01	-6.761375e+02
1.700000e-07	-6.495682e-06	-1.022334e-08	-4.503801e+01	-6.744582e+02
1.800000e-07	-6.454741e-06	-1.023164e-08	-4.475415e+01	-6.726436e+02
1.900000e-07	-6.411225e-06	-1.028618e-08	-4.445243e+01	-6.706602e+02
2.000000e-07	-6.365333e-06	-1.010613e-08	-4.413424e+01	-6.684773e+02
2.100000e-07	-6.317033e-06	-1.020767e-08	-4.379934e+01	-6.660711e+02
2.200000e-07	-6.266014e-06	-1.013463e-08	-4.344561e+01	-6.634274e+02
2.300000e-07	-6.212403e-06	-1.004817e-08	-4.307389e+01	-6.605437e+02
2.400000e-07	-6.156430e-06	-1.001741e-08	-4.268580e+01	-6.574288e+02
2.500000e-07	-6.098140e-06	-9.926865e-09	-4.228165e+01	-6.541008e+02
2.600000e-07	-6.037622e-06	-9.924364e-09	-4.186204e+01	-6.505845e+02
2.700000e-07	-5.974977e-06	-9.861123e-09	-4.142769e+01	-6.469064e+02
2.800000e-07	-5.910136e-06	-9.787221e-09	-4.097811e+01	-6.430909e+02
2.900000e-07	-5.842998e-06	-9.706209e-09	-4.051261e+01	-6.391564e+02
3.000000e-07	-5.773689e-06	-9.656817e-09	-4.003205e+01	-6.351131e+02
3.100000e-07	-5.702356e-06	-9.627722e-09	-3.953746e+01	-6.309625e+02
3.200000e-07	-5.628798e-06	-9.522585e-09	-3.902744e+01	-6.266981e+02
3.300000e-07	-5.552884e-06	-9.496559e-09	-3.850110e+01	-6.223082e+02
3.400000e-07	-5.474717e-06	-9.406555e-09	-3.795912e+01	-6.177788e+02
3.500000e-07	-5.394394e-06	-9.313028e-09	-3.740220e+01	-6.130968e+02
3.600000e-07	-5.312115e-06	-9.266795e-09	-3.683172e+01	-6.082526e+02
3.700000e-07	-5.228097e-06	-9.193989e-09	-3.624918e+01	-6.032417e+02
3.800000e-07	-5.142372e-06	-9.122706e-09	-3.565480e+01	-5.980645e+02
3.900000e-07	-5.054899e-06	-9.010912e-09	-3.504830e+01	-5.927254e+02
4.000000e-07	-4.965616e-06	-8.932880e-09	-3.442925e+01	-5.872312e+02
4.100000e-07	-4.874494e-06	-8.850118e-09	-3.379745e+01	-5.815886e+02
4.200000e-07	-4.781731e-06	-8.769686e-09	-3.315428e+01	-5.758029e+02
4.300000e-07	-4.687475e-06	-8.677524e-09	-3.250075e+01	-5.698759e+02
4.400000e-07	-4.591489e-06	-8.575071e-09	-3.183523e+01	-5.638063e+02
4.500000e-07	-4.493744e-06	-8.481859e-09	-3.115752e+01	-5.575897e+02
4.600000e-07	-4.394363e-06	-8.372940e-09	-3.046845e+01	-5.512195e+02
4.700000e-07	-4.293385e-06	-8.287616e-09	-2.976832e+01	-5.446883e+02
4.800000e-07	-4.190915e-06	-8.192156e-09	-2.905784e+01	-5.379888e+02
4.900000e-07	-4.086959e-06	-8.082718e-09	-2.833706e+01	-5.311148e+02
5.000000e-07	-3.981557e-06	-7.964389e-09	-2.760625e+01	-5.240616e+02
5.100000e-07	-3.874636e-06	-7.856655e-09	-2.686491e+01	-5.168257e+02
5.200000e-07	-3.766240e-06	-7.749149e-09	-2.611335e+01	-5.094049e+02
5.300000e-07	-3.656590e-06	-7.629066e-09	-2.535308e+01	-5.017972e+02
5.400000e-07	-3.545682e-06	-7.503968e-09	-2.458409e+01	-4.940010e+02
5.500000e-07	-3.433322e-06	-7.372786e-09	-2.380505e+01	-4.860142e+02
5.600000e-07	-3.319524e-06	-7.249440e-09	-2.301602e+01	-4.778345e+02
5.700000e-07	-3.204375e-06	-7.123517e-09	-2.221763e+01	-4.694589e+02
5.800000e-07	-3.087855e-06	-7.000589e-09	-2.140974e+01	-4.608834e+02
5.900000e-07	-2.970130e-06	-6.866356e-09	-2.059349e+01	-4.521034e+02
6.000000e-07	-2.851442e-06	-6.726049e-09	-1.977056e+01	-4.431129e+02
6.100000e-07	-2.731680e-06	-6.581600e-09	-1.894019e+01	-4.339043e+02
6.200000e-07	-2.610810e-06	-6.436515e-09	-1.810213e+01	-4.244688e+02
6.300000e-07	-2.489042e-06	-6.288891e-09	-1.725785e+01	-4.147966e+02
6.400000e-07	-2.366311e-06	-6.133395e-09	-1.640689e+01	-4.048778e+02
6.500000e-07	-2.242579e-06	-5.975922e-09	-1.554899e+01	-3.947029e+02
6.600000e-07	-2.118051e-06	-5.814362e-09	-1.468557e+01	-3.842646e+02
6.700000e-07	-1.992888e-06	-5.651492e-09	-1.381775e+01	-3.735585e+02
6.800000e-07	-1.867134e-06	-5.485921e-09	-1.294584e+01	-3.625827e+02
6.900000e-07	-1.740850e-06	-5.318369e-09	-1.207024e+01	-3.513381e+02
7.000000e-07	-1.613953e-06	-5.141898e-09	-1.119039e+01	-3.398263e+02
7.100000e-07	-1.486389e-06	-4.960518e-09	-1.030593e+01	-3.280477e+02
7.200000e-07	-1.358198e-06	-4.777411e-09	-9.417111e+00	-3.159989e+02
7.300000e-07	-1.229508e-06	-4.591407e-09	-8.524833e+00	-3.036707e+02
7.400000e-07	-1.100478e-06	-4.402559e-09	-7.630197e+00	-2.910470e+02
7.500000e-07	-9.711320e-07	-4.206227e-09	-6.733374e+00	-2.781050e+02
7.600000e-07	-8.415379e-07	-4.002475e-09	-5.834829e+00	-2.648168e+02
7.700000e-07	-7.117347e-07	-3.790952e-09	-4.934835e+00	-2.511526e+02
7.800000e-07	-5.817327e-07	-3.574348e-09	-4.033462e+00	-2.370843e+02
7.900000e-07	-4.515698e-07	-3.353653e-09	-3.130973e+00	-2.225888e+02
8.000000e-07	-3.212642e-07	-3.128718e-09	-2.227495e+00	-2.076503e+02
8.100000e-07	-1.907897e-07	-2.895323e-09	-1.322846e+00	-1.922600e+02
8.200000e-07	-6.015759e-08	-2.653964e-09	-4.171045e-01	-1.764143e+02
8.300000e-07	7.055625e-08	-2.408471e-09	4.892040e-01	-1.601104e+02
8.400000e-07	2.012783e-07	-2.156381e-09	1.395569e+00	-1.433405e+02
8.500000e-07	3.318958e-07	-1.897595e-09	2.301210e+00	-1.260866e+02
8.600000e-07	4.623624e-07	-1.630420e-09	3.205804e+00	-1.083166e+02
8.700000e-07	5.926989e-07	-1.352564e-09	4.109497e+00	-8.998341e+01
8.800000e-07	7.228627e-07	-1.060148e-09	5.011991e+00	-7.102812e+01
8.900000e-07	8.528150e-07	-7.567314e-10	5.913019e+00	-5.138716e+01
9.000000e-07	9.825684e-07	-4.449817e-10	6.812669e+00	-3.100309e+01
9.100000e-07	1.112084e-06	-1.225086e-10	7.710670e+00	-9.837402e+00
9.200000e-07	1.241283e-06	2.115797e-10	8.606473e+00	1.211684e+01
9.300000e-07	1.370038e-06	5.551657e-10	9.499201e+00	3.482452e+01
9.400000e-07	1.498270e-06	9.068648e-10	1.038830e+01	5.820236e+01
9.500000e-07	1.625917e-06	1.269010e-09	1.127335e+01	8.211850e+01
9.600000e-07	1.752867e-06	1.638597e-09	1.215356e+01	1.063983e+02
9.700000e-07	1.879133e-06	2.012294e-09	1.302903e+01	1.308357e+02
9.800000e-07	2.004810e-06	2.384535e-09	1.390041e+01	1.552088e+02
9.900000e-07	2.129878e-06	2.751953e-09	1.476758e+01	1.792970e+02
1.000000e-06	2.254225e-06	3.110257e-09	1.562974e+01	2.028982e+02
1.010000e-06	2.377671e-06	3.457613e-09	1.648566e+01	2.258427e+02
1.020000e-06	2.500132e-06	3.795113e-09	1.733474e+01	2.480023e+02
1.030000e-06	2.621728e-06	4.119293e-09	1.817783e+01	2.692944e+02
1.040000e-06	2.742451e-06	4.430892e-09	1.901487e+01	2.896802e+02
1.050000e-06	2.862056e-06	4.726730e-09	1.984416e+01	3.091581e+02
1.060000e-06	2.980522e-06	5.009000e-09	2.066554e+01	3.277548e+02
1.070000e-06	3.097930e-06	5.278279e-09	2.147959e+01	3.455140e+02
1.080000e-06	3.214216e-06	5.536669e-09	2.228587e+01	3.624867e+02
1.090000e-06	3.329241e-06	5.782380e-09	2.308340e+01	3.787228e+02
1.100000e-06	3.442954e-06	6.015697e-09	2.387183e+01	3.942656e+02
1.110000e-06	3.555305e-06	6.239453e-09	2.465082e+01	4.091501e+02
1.120000e-06	3.666271e-06	6.456673e-09	2.542021e+01	4.234034e+02
1.130000e-06	3.776035e-06	6.664952e-09	2.618125e+01	4.370470e+02
1.140000e-06	3.884656e-06	6.862129e-09	2.693439e+01	4.501002e+02
1.150000e-06	3.991962e-06	7.051371e-09	2.767839e+01	4.625835e+02
1.160000e-06	4.097855e-06	7.230956e-09	2.841261e+01	4.745207e+02
1.170000e-06	4.202256e-06	7.403310e-09	2.913647e+01	4.859397e+02
1.180000e-06	4.305081e-06	7.568157e-09	2.984942e+01	4.968718e+02
1.190000e-06	4.406447e-06	7.728362e-09	3.055224e+01	5.073493e+02
1.200000e-06	4.506282e-06	7.883634e-09	3.124444e+01	5.174034e+02
1.210000e-06	4.604463e-06	8.031195e-09	3.192519e+01	5.270612e+02
1.220000e-06	4.700852e-06	8.173502e-09	3.259351e+01	5.363431e+02
1.230000e-06	4.795408e-06	8.312082e-09	3.324911e+01	5.452627e+02
1.240000e-06	4.888377e-06	8.444068e-09	3.389371e+01	5.538262e+02
1.250000e-06	4.979743e-06	8.568156e-09	3.452720e+01	5.620344e+02
1.260000e-06	5.069291e-06	8.685779e-09	3.514808e+01	5.698852e+02
1.270000e-06	5.156935e-06	8.799243e-09	3.575577e+01	5.773769e+02
1.280000e-06	5.242757e-06	8.907694e-09	3.635082e+01	5.845106e+02
1.290000e-06	5.326846e-06	9.011115e-09	3.693385e+01	5.912930e+02
1.300000e-06	5.409003e-06	9.108052e-09	3.750349e+01	5.977378e+02
1.310000e-06	5.489078e-06	9.198177e-09	3.805869e+01	6.038651e+02
1.320000e-06	5.567157e-06	9.284713e-09	3.860006e+01	6.097003e+02
1.330000e-06	5.643244e-06	9.369097e-09	3.912761e+01	6.152720e+02
1.340000e-06	5.717152e-06	9.451052e-09	3.964005e+01	6.206086e+02
1.350000e-06	5.788838e-06	9.529728e-09	4.013709e+01	6.257354e+02
1.360000e-06	5.858466e-06	9.604021e-09	4.061986e+01	6.306723e+02
1.370000e-06	5.926095e-06	9.676106e-09	4.108877e+01	6.354318e+02
1.380000e-06	5.991520e-06	9.745854e-09	4.154239e+01	6.400196e+02
1.390000e-06	6.054744e-06	9.812806e-09	4.198076e+01	6.444343e+02
1.400000e-06	6.115998e-06	9.876019e-09	4.240546e+01	6.486703e+02
1.410000e-06	6.175241e-06	9.936039e-09	4.281622e+01	6.527197e+02
1.420000e-06	6.232262e-06	9.993964e-09	4.321158e+01	6.565749e+02
1.430000e-06	6.287054e-06	1.005010e-08	4.359148e+01	6.602307e+02
1.440000e-06	6.339515e-06	1.010410e-08	4.395523e+01	6.636855e+02
1.450000e-06	6.389331e-06	1.015335e-08	4.430062e+01	6.669413e+02
1.460000e-06	6.436583e-06	1.019885e-08	4.462825e+01	6.700032e+02
1.470000e-06	6.481595e-06	1.024158e-08	4.494034e+01	6.728782e+02
1.480000e-06	6.524427e-06	1.028295e-08	4.523732e+01	6.755728e+02
1.490000e-06	6.564833e-06	1.032320e-08	4.551747e+01	6.780924e+02
1.500000e-06	6.602866e-06	1.035955e-08	4.578118e+01	6.804397e+02
1.510000e-06	6.638807e-06	1.039114e-08	4.603038e+01	6.826150e+02
1.520000e-06	6.672420e-06	1.041895e-08	4.626343e+01	6.846162e+02
1.530000e-06	6.703555e-06	1.044471e-08	4.647931e+01	6.864407e+02
1.540000e-06	6.732474e-06	1.046741e-08	4.667982e+01	6.880861e+02
1.550000e-06	6.758999e-06	1.048657e-08	4.686373e+01	6.895524e+02
1.560000e-06	6.782951e-06	1.050391e-08	4.702980e+01	6.908421e+02
1.570000e-06	6.804488e-06	1.052005e-08	4.717913e+01	6.919609e+02
1.580000e-06	6.823663e-06	1.053590e-08	4.731208e+01	6.929173e+02
1.590000e-06	6.840397e-06	1.054949e-08	4.742811e+01	6.937210e+02
1.600000e-06	6.854606e-06	1.055935e-08	4.752662e+01	6.943822e+02
1.610000e-06	6.866228e-06	1.056643e-08	4.760720e+01	6.949092e+02
1.620000e-06	6.875105e-06	1.057158e-08	4.766875e+01	6.953082e+02
1.630000e-06	6.881360e-06	1.057655e-08	4.771212e+01	6.955817e+02
1.640000e-06	6.885344e-06	1.058075e-08	4.773975e+01	6.957294e+02
1.650000e-06	6.886931e-06	1.058291e-08	4.775075e+01	6.957482e+02
1.660000e-06	6.886043e-06	1.058438e-08	4.774459e+01	6.956334e+02
1.670000e-06	6.882960e-06	1.057151e-08	4.772322e+01	6.953803e+02
1.680000e-06	6.877638e-06	1.056511e-08	4.768632e+01	6.949853e+02
1.690000e-06	6.869961e-06	1.055788e-08	4.763309e+01	6.944473e+02
1.700000e-06	6.860051e-06	1.054688e-08	4.756438e+01	6.937686e+02
1.710000e-06	6.847912e-06	1.053874e-08	4.748021e+01	6.929551e+02
1.720000e-06	6.833338e-06	1.053571e-08	4.737916e+01	6.920167e+02
1.730000e-06	6.816505e-06	1.055327e-08	4.726245e+01	6.909667e+02
1.740000e-06	6.797562e-06	1.045355e-08	4.713111e+01	6.898207e+02
1.750000e-06	6.775764e-06	1.038309e-08	4.697997e+01	6.885955e+02
1.760000e-06	6.750577e-06	1.043236e-08	4.680534e+01	6.873073e+02
1.770000e-06	6.722625e-06	1.040925e-08	4.661153e+01	6.859692e+02
1.780000e-06	6.692503e-06	1.039283e-08	4.640268e+01	6.845900e+02
1.790000e-06	6.660666e-06	1.052082e-08	4.618194e+01	6.831712e+02
1.800000e-06	6.627478e-06	1.033939e-08	4.595183e+01	6.817066e+02
1.810000e-06	6.592235e-06	1.028582e-08	4.570746e+01	6.801809e+02
1.820000e-06	6.554322e-06	1.042517e-08	4.544460e+01	6.785709e+02
1.830000e-06	6.514215e-06	1.021075e-08	4.516652e+01	6.768466e+02
1.840000e-06	6.471916e-06	1.035992e-08	4.487323e+01	6.749750e+02
1.850000e-06	6.427396e-06	1.030079e-08	4.456455e+01	6.729231e+02
1.860000e-06	6.380588e-06	1.011755e-08	4.424001e+01	6.706622e+02
1.870000e-06	6.331308e-06	1.027189e-08	4.389832e+01	6.681717e+02
1.880000e-06	6.279860e-06	1.007168e-08	4.354161e+01	6.654416e+02
1.890000e-06	6.225777e-06	1.013072e-08	4.316662e+01	6.624732e+02
1.900000e-06	6.169043e-06	1.011284e-08	4.277325e+01	6.592792e+02
1.910000e-06	6.110093e-06	9.938695e-09	4.236452e+01	6.558805e+02
1.920000e-06	6.048813e-06	1.002321e-08	4.193963e+01	6.523029e+02
1.930000e-06	5.985302e-06	9.850820e-09	4.149928e+01	6.485727e+02
1.940000e-06	5.919560e-06	9.877878e-09	4.104345e+01	6.447124e+02
1.950000e-06	5.851640e-06	9.796488e-09	4.057253e+01	6.407379e+02
1.960000e-06	5.781476e-06	9.705044e-09	4.008604e+01	6.366561e+02
1.970000e-06	5.709011e-06	9.695567e-09	3.958361e+01	6.324654e+02
1.980000e-06	5.634511e-06	9.519752e-09	3.906706e+01	6.281572e+02
1.990000e-06	5.557764e-06	9.574928e-09	3.853493e+01	6.237186e+02
2.000000e-06	5.478767e-06	9.448942e-09	3.798720e+01	6.191356e+02
2.010000e-06	5.397791e-06	9.370918e-09	3.742575e+01	6.143960e+02
2.020000e-06	5.315027e-06	9.308670e-09	3.685191e+01	6.094921e+02
2.030000e-06	5.230468e-06	9.199217e-09	3.626562e+01	6.044210e+02
2.040000e-06	5.143849e-06	9.166415e-09	3.566504e+01	5.991848e+02
2.050000e-06	5.055317e-06	9.047075e-09	3.505120e+01	5.937890e+02
2.060000e-06	4.965161e-06	9.015773e-09	3.442610e+01	5.882406e+02
2.070000e-06	4.873458e-06	8.892968e-09	3.379027e+01	5.825460e+02
2.080000e-06	4.780050e-06	8.800523e-09	3.314263e+01	5.767092e+02
2.090000e-06	4.684818e-06	8.706219e-09	3.248233e+01	5.707311e+02
2.100000e-06	4.587881e-06	8.627706e-09	3.181021e+01	5.646092e+02
2.110000e-06	4.489425e-06	8.551013e-09	3.112757e+01	5.583381e+02
2.120000e-06	4.389509e-06	8.418592e-09	3.043480e+01	5.519108e+02
2.130000e-06	4.288020e-06	8.331056e-09	2.973112e+01	5.453198e+02
2.140000e-06	4.184859e-06	8.218505e-09	2.901585e+01	5.385581e+02
2.150000e-06	4.080088e-06	8.125379e-09	2.828942e+01	5.316200e+02
2.160000e-06	3.973976e-06	8.008567e-09	2.755369e+01	5.245014e+02
2.170000e-06	3.866572e-06	7.908581e-09	2.680900e+01	5.171993e+02
2.180000e-06	3.757734e-06	7.789036e-09	2.605436e+01	5.097114e+02
2.190000e-06	3.647502e-06	7.667828e-09	2.529007e+01	5.020361e+02
2.200000e-06	3.535926e-06	7.554017e-09	2.451645e+01	4.941716e+02
2.210000e-06	3.422963e-06	7.441736e-09	2.373322e+01	4.861157e+02
2.220000e-06	3.308675e-06	7.319904e-09	2.294080e+01	4.778659e+02
2.230000e-06	3.193047e-06	7.176217e-09	2.213909e+01	4.694189e+02
2.240000e-06	3.075987e-06	7.042424e-09	2.132745e+01	4.607706e+02
2.250000e-06	2.957761e-06	6.906215e-09	2.050773e+01	4.519156e+02
2.260000e-06	2.838413e-06	6.779583e-09	1.968022e+01	4.428476e+02
2.270000e-06	2.717868e-06	6.638260e-09	1.884442e+01	4.335586e+02
2.280000e-06	2.596329e-06	6.494955e-09	1.800173e+01	4.240393e+02
2.290000e-06	2.473964e-06	6.342396e-09	1.715331e+01	4.142796e+02
2.300000e-06	2.350874e-06	6.191719e-09	1.629986e+01	4.042698e+02
2.310000e-06	2.227023e-06	6.038950e-09	1.544113e+01	3.940011e+02
2.320000e-06	2.102297e-06	5.883105e-09	1.457634e+01	3.834671e+02
2.330000e-06	1.976763e-06	5.717682e-09	1.370595e+01	3.726641e+02
2.340000e-06	1.850600e-06	5.543021e-09	1.283119e+01	3.615917e+02
2.350000e-06	1.723844e-06	5.366827e-09	1.195232e+01	3.502510e+02
2.360000e-06	1.596471e-06	5.187568e-09	1.106918e+01	3.386435e+02
2.370000e-06	1.468445e-06	5.012307e-09	1.018151e+01	3.267686e+02
2.380000e-06	1.339900e-06	4.828158e-09	9.290241e+00	3.146209e+02
2.390000e-06	1.210932e-06	4.635928e-09	8.396033e+00	3.021890e+02
2.400000e-06	1.081553e-06	4.438346e-09	7.498982e+00	2.894540e+02
2.410000e-06	9.518665e-07	4.240106e-09	6.599796e+00	2.763912e+02
2.420000e-06	8.219180e-07	4.040259e-09	5.698794e+00	2.629717e+02
2.430000e-06	6.917532e-07	3.830013e-09	4.796292e+00	2.491657e+02
2.440000e-06	5.614744e-07	3.609964e-09	3.893000e+00	2.349466e+02
2.450000e-06	4.310604e-07	3.384618e-09	2.988771e+00	2.202939e+02
2.460000e-06	3.004764e-07	3.153386e-09	2.083363e+00	2.051942e+02
2.470000e-06	1.697878e-07	2.916311e-09	1.177229e+00	1.896410e+02
2.480000e-06	3.903113e-08	2.672491e-09	2.706236e-01	1.736317e+02
2.490000e-06	-9.176043e-08	2.421850e-09	-6.362238e-01	1.571621e+02
2.500000e-06	-2.225458e-07	2.159947e-09	-1.543028e+00	1.402216e+02
2.510000e-06	-3.532814e-07	1.889057e-09	-2.449488e+00	1.227874e+02
2.520000e-06	-4.839463e-07	1.614070e-09	-3.355457e+00	1.048219e+02
2.530000e-06	-6.145020e-07	1.331393e-09	-4.260669e+00	8.627325e+01
2.540000e-06	-7.449431e-07	1.039154e-09	-5.165087e+00	6.707982e+01
2.550000e-06	-8.751758e-07	7.351265e-10	-6.068058e+00	4.717887e+01
2.560000e-06	-1.005075e-06	4.205133e-10	-6.968718e+00	2.651820e+01
2.570000e-06	-1.134642e-06	9.566258e-11	-7.867075e+00	5.069195e+00
2.580000e-06	-1.263861e-06	-2.409675e-10	-8.763020e+00	-1.716108e+01
2.590000e-06	-1.392721e-06	-5.912693e-10	-9.656476e+00	-4.012072e+01
2.600000e-06	-1.521064e-06	-9.537842e-10	-1.054634e+01	-6.370884e+01
2.610000e-06	-1.648717e-06	-1.324611e-09	-1.143143e+01	-8.777733e+01
2.620000e-06	-1.775624e-06	-1.699572e-09	-1.231134e+01	-1.121387e+02
2.630000e-06	-1.901861e-06	-2.073875e-09	-1.318662e+01	-1.365794e+02
2.640000e-06	-2.027481e-06	-2.445582e-09	-1.405760e+01	-1.608760e+02
2.650000e-06	-2.152348e-06	-2.812875e-09	-1.492337e+01	-1.848125e+02
2.660000e-06	-2.276293e-06	-3.171981e-09	-1.578275e+01	-2.081972e+02
2.670000e-06	-2.399245e-06	-3.517833e-09	-1.663524e+01	-2.308742e+02
2.680000e-06	-2.521333e-06	-3.848529e-09	-1.748174e+01	-2.527316e+02
2.690000e-06	-2.642630e-06	-4.166081e-09	-1.832276e+01	-2.737029e+02
2.700000e-06	-2.762933e-06	-4.471337e-09	-1.915688e+01	-2.937633e+02
2.710000e-06	-2.882059e-06	-4.766533e-09	-1.998284e+01	-3.129229e+02
2.720000e-06	-3.000083e-06	-5.052018e-09	-2.080117e+01	-3.312153e+02
2.730000e-06	-3.116999e-06	-5.324121e-09	-2.161181e+01	-3.486882e+02
2.740000e-06	-3.232617e-06	-5.580865e-09	-2.241345e+01	-3.653929e+02
2.750000e-06	-3.346812e-06	-5.824419e-09	-2.320523e+01	-3.813772e+02
2.760000e-06	-3.459630e-06	-6.057757e-09	-2.398745e+01	-3.966819e+02
2.770000e-06	-3.571129e-06	-6.281464e-09	-2.476053e+01	-4.113387e+02
2.780000e-06	-3.681351e-06	-6.495821e-09	-2.552477e+01	-4.253725e+02
2.790000e-06	-3.790368e-06	-6.701920e-09	-2.628064e+01	-4.388034e+02
2.800000e-06	-3.898109e-06	-6.901074e-09	-2.702766e+01	-4.516511e+02
2.810000e-06	-4.004549e-06	-7.093475e-09	-2.776567e+01	-4.639369e+02
2.820000e-06	-4.109682e-06	-7.276438e-09	-2.849461e+01	-4.756862e+02
2.830000e-06	-4.213286e-06	-7.447944e-09	-2.921295e+01	-4.869281e+02
2.840000e-06	-4.315301e-06	-7.610085e-09	-2.992028e+01	-4.976945e+02
2.850000e-06	-4.415703e-06	-7.766614e-09	-3.061641e+01	-5.080179e+02
2.860000e-06	-4.514557e-06	-7.919004e-09	-3.130182e+01	-5.179282e+02
2.870000e-06	-4.611962e-06	-8.065369e-09	-3.197718e+01	-5.274502e+02
2.880000e-06	-4.707723e-06	-8.203932e-09	-3.264115e+01	-5.366021e+02
2.890000e-06	-4.801776e-06	-8.334954e-09	-3.329326e+01	-5.453946e+02
2.900000e-06	-4.894136e-06	-8.463296e-09	-3.393365e+01	-5.538318e+02
2.910000e-06	-4.984770e-06	-8.588956e-09	-3.456206e+01	-5.619131e+02
2.920000e-06	-5.073624e-06	-8.708990e-09	-3.517813e+01	-5.696363e+02
2.930000e-06	-5.160557e-06	-8.822734e-09	-3.578088e+01	-5.770002e+02
2.940000e-06	-5.245475e-06	-8.930379e-09	-3.636966e+01	-5.840078e+02
