# Temperatura_=_35.94
# Concentracion g/m^3_=_15000.0
# C_Vs_to_Am_M_A/Vsm_=_65563218390.804596
# pendiente_HvsI_1/m_=_3716.3
# ordenada_HvsI_A/m_=_1297.0
# frecuencia_Hz_=_301892.85041305947

Tiempo_(s)	Campo_(V.s)	Magnetizacion_(V.s)	Campo_(kA/m)	Magnetizacion_(A/m)
0.000000e+00	-6.870333e-06	-8.339260e-09	-4.749667e+01	-5.447393e+02
1.000000e-08	-6.867460e-06	-8.339046e-09	-4.747680e+01	-5.446017e+02
2.000000e-08	-6.862339e-06	-8.336299e-09	-4.744140e+01	-5.443727e+02
3.000000e-08	-6.855102e-06	-8.333348e-09	-4.739137e+01	-5.440472e+02
4.000000e-08	-6.845513e-06	-8.328627e-09	-4.732508e+01	-5.436223e+02
5.000000e-08	-6.833368e-06	-8.319872e-09	-4.724112e+01	-5.430985e+02
6.000000e-08	-6.818704e-06	-8.306587e-09	-4.713974e+01	-5.424805e+02
7.000000e-08	-6.801666e-06	-8.291680e-09	-4.702195e+01	-5.417767e+02
8.000000e-08	-6.782535e-06	-8.286781e-09	-4.688969e+01	-5.409981e+02
9.000000e-08	-6.761114e-06	-8.295462e-09	-4.674161e+01	-5.401573e+02
1.000000e-07	-6.736880e-06	-8.277923e-09	-4.657407e+01	-5.392664e+02
1.100000e-07	-6.709858e-06	-8.248301e-09	-4.638726e+01	-5.383356e+02
1.200000e-07	-6.680494e-06	-8.228468e-09	-4.618426e+01	-5.373728e+02
1.300000e-07	-6.649079e-06	-8.196225e-09	-4.596707e+01	-5.363817e+02
1.400000e-07	-6.615689e-06	-8.158655e-09	-4.573624e+01	-5.353625e+02
1.500000e-07	-6.580427e-06	-8.173468e-09	-4.549246e+01	-5.343109e+02
1.600000e-07	-6.543108e-06	-8.155513e-09	-4.523447e+01	-5.332181e+02
1.700000e-07	-6.503704e-06	-8.100291e-09	-4.496205e+01	-5.320710e+02
1.800000e-07	-6.461939e-06	-8.103984e-09	-4.467331e+01	-5.308524e+02
1.900000e-07	-6.417575e-06	-8.073732e-09	-4.436662e+01	-5.295422e+02
2.000000e-07	-6.370981e-06	-8.064217e-09	-4.404450e+01	-5.281185e+02
2.100000e-07	-6.321894e-06	-8.079415e-09	-4.370514e+01	-5.265606e+02
2.200000e-07	-6.270017e-06	-8.045414e-09	-4.334651e+01	-5.248511e+02
2.300000e-07	-6.215653e-06	-7.992674e-09	-4.297067e+01	-5.229787e+02
2.400000e-07	-6.158938e-06	-7.930674e-09	-4.257858e+01	-5.209405e+02
2.500000e-07	-6.099903e-06	-7.895385e-09	-4.217045e+01	-5.187428e+02
2.600000e-07	-6.038696e-06	-7.869867e-09	-4.174731e+01	-5.163998e+02
2.700000e-07	-5.975298e-06	-7.829918e-09	-4.130902e+01	-5.139320e+02
2.800000e-07	-5.909588e-06	-7.791838e-09	-4.085475e+01	-5.113619e+02
2.900000e-07	-5.841640e-06	-7.741148e-09	-4.038500e+01	-5.087098e+02
3.000000e-07	-5.771563e-06	-7.701846e-09	-3.990055e+01	-5.059898e+02
3.100000e-07	-5.699356e-06	-7.673777e-09	-3.940135e+01	-5.032071e+02
3.200000e-07	-5.624902e-06	-7.644445e-09	-3.888663e+01	-5.003571e+02
3.300000e-07	-5.548118e-06	-7.595568e-09	-3.835580e+01	-4.974267e+02
3.400000e-07	-5.469120e-06	-7.531003e-09	-3.780966e+01	-4.943978e+02
3.500000e-07	-5.388062e-06	-7.482465e-09	-3.724928e+01	-4.912514e+02
3.600000e-07	-5.305144e-06	-7.439588e-09	-3.667605e+01	-4.879724e+02
3.700000e-07	-5.220490e-06	-7.393722e-09	-3.609081e+01	-4.845524e+02
3.800000e-07	-5.134095e-06	-7.330584e-09	-3.549354e+01	-4.809916e+02
3.900000e-07	-5.045905e-06	-7.263706e-09	-3.488385e+01	-4.772977e+02
4.000000e-07	-4.955844e-06	-7.203680e-09	-3.426123e+01	-4.734831e+02
4.100000e-07	-4.863995e-06	-7.152261e-09	-3.362625e+01	-4.695607e+02
4.200000e-07	-4.770590e-06	-7.100829e-09	-3.298051e+01	-4.655396e+02
4.300000e-07	-4.675606e-06	-7.033962e-09	-3.232387e+01	-4.614222e+02
4.400000e-07	-4.578876e-06	-6.958467e-09	-3.165514e+01	-4.572027e+02
4.500000e-07	-4.480407e-06	-6.882258e-09	-3.097439e+01	-4.528681e+02
4.600000e-07	-4.380314e-06	-6.814211e-09	-3.028242e+01	-4.484013e+02
4.700000e-07	-4.278714e-06	-6.752858e-09	-2.958003e+01	-4.437847e+02
4.800000e-07	-4.175657e-06	-6.686171e-09	-2.886757e+01	-4.390052e+02
4.900000e-07	-4.071170e-06	-6.606405e-09	-2.814521e+01	-4.340558e+02
5.000000e-07	-3.965161e-06	-6.519291e-09	-2.741234e+01	-4.289379e+02
5.100000e-07	-3.857546e-06	-6.439269e-09	-2.666837e+01	-4.236589e+02
5.200000e-07	-3.748544e-06	-6.361718e-09	-2.591481e+01	-4.182298e+02
5.300000e-07	-3.638334e-06	-6.274053e-09	-2.515289e+01	-4.126608e+02
5.400000e-07	-3.526836e-06	-6.177465e-09	-2.438207e+01	-4.069575e+02
5.500000e-07	-3.413836e-06	-6.080709e-09	-2.360087e+01	-4.011186e+02
5.600000e-07	-3.299342e-06	-5.986829e-09	-2.280934e+01	-3.951353e+02
5.700000e-07	-3.183469e-06	-5.898212e-09	-2.200827e+01	-3.889933e+02
5.800000e-07	-3.066318e-06	-5.811387e-09	-2.119838e+01	-3.826754e+02
5.900000e-07	-2.948039e-06	-5.715675e-09	-2.038067e+01	-3.761666e+02
6.000000e-07	-2.828726e-06	-5.609136e-09	-1.955583e+01	-3.694566e+02
6.100000e-07	-2.708406e-06	-5.497732e-09	-1.872402e+01	-3.625417e+02
6.200000e-07	-2.587013e-06	-5.388755e-09	-1.788479e+01	-3.554251e+02
6.300000e-07	-2.464580e-06	-5.277072e-09	-1.703838e+01	-3.481135e+02
6.400000e-07	-2.341212e-06	-5.157323e-09	-1.618550e+01	-3.406137e+02
6.500000e-07	-2.216982e-06	-5.035448e-09	-1.532666e+01	-3.329281e+02
6.600000e-07	-2.092039e-06	-4.914622e-09	-1.446289e+01	-3.250516e+02
6.700000e-07	-1.966482e-06	-4.794674e-09	-1.359488e+01	-3.169705e+02
6.800000e-07	-1.840299e-06	-4.673067e-09	-1.272254e+01	-3.086632e+02
6.900000e-07	-1.713443e-06	-4.545754e-09	-1.184555e+01	-3.001038e+02
7.000000e-07	-1.585987e-06	-4.409012e-09	-1.096440e+01	-2.912669e+02
7.100000e-07	-1.457989e-06	-4.265434e-09	-1.007951e+01	-2.821316e+02
7.200000e-07	-1.329460e-06	-4.119608e-09	-9.190952e+00	-2.726857e+02
7.300000e-07	-1.200503e-06	-3.970730e-09	-8.299437e+00	-2.629260e+02
7.400000e-07	-1.071131e-06	-3.817420e-09	-7.405051e+00	-2.528573e+02
7.500000e-07	-9.413498e-07	-3.657332e-09	-6.507832e+00	-2.424885e+02
7.600000e-07	-8.112272e-07	-3.491485e-09	-5.608256e+00	-2.318276e+02
7.700000e-07	-6.807805e-07	-3.322084e-09	-4.706439e+00	-2.208775e+02
7.800000e-07	-5.501124e-07	-3.151100e-09	-3.803092e+00	-2.096323e+02
7.900000e-07	-4.192834e-07	-2.977239e-09	-2.898632e+00	-1.980765e+02
8.000000e-07	-2.883122e-07	-2.797849e-09	-1.993189e+00	-1.861868e+02
8.100000e-07	-1.572855e-07	-2.611112e-09	-1.087362e+00	-1.739357e+02
8.200000e-07	-2.617415e-08	-2.417678e-09	-1.809497e-01	-1.612956e+02
8.300000e-07	1.050020e-07	-2.220995e-09	7.259104e-01	-1.482428e+02
8.400000e-07	2.361989e-07	-2.018925e-09	1.632914e+00	-1.347593e+02
8.500000e-07	3.673778e-07	-1.809302e-09	2.539793e+00	-1.208325e+02
8.600000e-07	4.984603e-07	-1.590976e-09	3.446006e+00	-1.064527e+02
8.700000e-07	6.293808e-07	-1.363836e-09	4.351098e+00	-9.160875e+01
8.800000e-07	7.601075e-07	-1.129283e-09	5.254851e+00	-7.628471e+01
8.900000e-07	8.906208e-07	-8.883371e-10	6.157128e+00	-6.045806e+01
9.000000e-07	1.020865e-06	-6.414497e-10	7.057545e+00	-4.410109e+01
9.100000e-07	1.150733e-06	-3.864866e-10	7.955361e+00	-2.718619e+01
9.200000e-07	1.280169e-06	-1.223762e-10	8.850188e+00	-9.694170e+00
9.300000e-07	1.409118e-06	1.511164e-10	9.741658e+00	8.375548e+00
9.400000e-07	1.537426e-06	4.335876e-10	1.062868e+01	2.699521e+01
9.500000e-07	1.665077e-06	7.241680e-10	1.151118e+01	4.610170e+01
9.600000e-07	1.792189e-06	1.021353e-09	1.238994e+01	6.559421e+01
9.700000e-07	1.918680e-06	1.323527e-09	1.326441e+01	8.533759e+01
9.800000e-07	2.044481e-06	1.627784e-09	1.413411e+01	1.051712e+02
9.900000e-07	2.169606e-06	1.930302e-09	1.499913e+01	1.249220e+02
1.000000e-06	2.294012e-06	2.226993e-09	1.585919e+01	1.444197e+02
1.010000e-06	2.417605e-06	2.516395e-09	1.671363e+01	1.635112e+02
1.020000e-06	2.540334e-06	2.799586e-09	1.756209e+01	1.820715e+02
1.030000e-06	2.662142e-06	3.072868e-09	1.840418e+01	2.000106e+02
1.040000e-06	2.782847e-06	3.334000e-09	1.923866e+01	2.172742e+02
1.050000e-06	2.902404e-06	3.583975e-09	2.006518e+01	2.338393e+02
1.060000e-06	3.020892e-06	3.821244e-09	2.088433e+01	2.497072e+02
1.070000e-06	3.138369e-06	4.049157e-09	2.169648e+01	2.648941e+02
1.080000e-06	3.254726e-06	4.268183e-09	2.250090e+01	2.794226e+02
1.090000e-06	3.369827e-06	4.476781e-09	2.329662e+01	2.933157e+02
1.100000e-06	3.483511e-06	4.676401e-09	2.408255e+01	3.065935e+02
1.110000e-06	3.595683e-06	4.868813e-09	2.485803e+01	3.192731e+02
1.120000e-06	3.706575e-06	5.054068e-09	2.562466e+01	3.313705e+02
1.130000e-06	3.816318e-06	5.230350e-09	2.638335e+01	3.429028e+02
1.140000e-06	3.924820e-06	5.400320e-09	2.713346e+01	3.538913e+02
1.150000e-06	4.032051e-06	5.562724e-09	2.787477e+01	3.643614e+02
1.160000e-06	4.137839e-06	5.715055e-09	2.860612e+01	3.743421e+02
1.170000e-06	4.241954e-06	5.858036e-09	2.932589e+01	3.838634e+02
1.180000e-06	4.344516e-06	5.993604e-09	3.003494e+01	3.929527e+02
1.190000e-06	4.445617e-06	6.124892e-09	3.073388e+01	4.016325e+02
1.200000e-06	4.545273e-06	6.251612e-09	3.142283e+01	4.099183e+02
1.210000e-06	4.643356e-06	6.371157e-09	3.210091e+01	4.178194e+02
1.220000e-06	4.739583e-06	6.483969e-09	3.276616e+01	4.253404e+02
1.230000e-06	4.834010e-06	6.592914e-09	3.341896e+01	4.324852e+02
1.240000e-06	4.926819e-06	6.696826e-09	3.406057e+01	4.392602e+02
1.250000e-06	5.018052e-06	6.794648e-09	3.469130e+01	4.456778e+02
1.260000e-06	5.107439e-06	6.886739e-09	3.530925e+01	4.517577e+02
1.270000e-06	5.194826e-06	6.972038e-09	3.591339e+01	4.575262e+02
1.280000e-06	5.280413e-06	7.054224e-09	3.650507e+01	4.630148e+02
1.290000e-06	5.364235e-06	7.133982e-09	3.708456e+01	4.682561e+02
1.300000e-06	5.446085e-06	7.211550e-09	3.765041e+01	4.732801e+02
1.310000e-06	5.525862e-06	7.285574e-09	3.820194e+01	4.781113e+02
1.320000e-06	5.603676e-06	7.355113e-09	3.873989e+01	4.827666e+02
1.330000e-06	5.679482e-06	7.421082e-09	3.926396e+01	4.872553e+02
1.340000e-06	5.753031e-06	7.485909e-09	3.977243e+01	4.915799e+02
1.350000e-06	5.824390e-06	7.551196e-09	4.026575e+01	4.957387e+02
1.360000e-06	5.893700e-06	7.612733e-09	4.074491e+01	4.997280e+02
1.370000e-06	5.960991e-06	7.669451e-09	4.121011e+01	5.035443e+02
1.380000e-06	6.026081e-06	7.721269e-09	4.166010e+01	5.071855e+02
1.390000e-06	6.088934e-06	7.771487e-09	4.209462e+01	5.106509e+02
1.400000e-06	6.149825e-06	7.821884e-09	4.251558e+01	5.139408e+02
1.410000e-06	6.208716e-06	7.871320e-09	4.292271e+01	5.170553e+02
1.420000e-06	6.265383e-06	7.916155e-09	4.331447e+01	5.199939e+02
1.430000e-06	6.319743e-06	7.955481e-09	4.369028e+01	5.227547e+02
1.440000e-06	6.371691e-06	7.992177e-09	4.404941e+01	5.253356e+02
1.450000e-06	6.420895e-06	8.027608e-09	4.438957e+01	5.277350e+02
1.460000e-06	6.467572e-06	8.061590e-09	4.471226e+01	5.299537e+02
1.470000e-06	6.512192e-06	8.093062e-09	4.502073e+01	5.319956e+02
1.480000e-06	6.554615e-06	8.121960e-09	4.531402e+01	5.338687e+02
1.490000e-06	6.594603e-06	8.148114e-09	4.559046e+01	5.355846e+02
1.500000e-06	6.632233e-06	8.171904e-09	4.585061e+01	5.371565e+02
1.510000e-06	6.667630e-06	8.193536e-09	4.609532e+01	5.385982e+02
1.520000e-06	6.700610e-06	8.212585e-09	4.632332e+01	5.399213e+02
1.530000e-06	6.731172e-06	8.228290e-09	4.653460e+01	5.411338e+02
1.540000e-06	6.759590e-06	8.243166e-09	4.673107e+01	5.422395e+02
1.550000e-06	6.785535e-06	8.258097e-09	4.691043e+01	5.432387e+02
1.560000e-06	6.808813e-06	8.271586e-09	4.707136e+01	5.441288e+02
1.570000e-06	6.829775e-06	8.283655e-09	4.721628e+01	5.449070e+02
1.580000e-06	6.848456e-06	8.293541e-09	4.734543e+01	5.455717e+02
1.590000e-06	6.864562e-06	8.301586e-09	4.745677e+01	5.461240e+02
1.600000e-06	6.878062e-06	8.308974e-09	4.755010e+01	5.465681e+02
1.610000e-06	6.888917e-06	8.315704e-09	4.762515e+01	5.469106e+02
1.620000e-06	6.897103e-06	8.321012e-09	4.768174e+01	5.471593e+02
1.630000e-06	6.902848e-06	8.324808e-09	4.772145e+01	5.473210e+02
1.640000e-06	6.906227e-06	8.327690e-09	4.774482e+01	5.474003e+02
1.650000e-06	6.907086e-06	8.329706e-09	4.775075e+01	5.473985e+02
1.660000e-06	6.905518e-06	8.327809e-09	4.773992e+01	5.473133e+02
1.670000e-06	6.901858e-06	8.323593e-09	4.771461e+01	5.471400e+02
1.680000e-06	6.895906e-06	8.318928e-09	4.767346e+01	5.468733e+02
1.690000e-06	6.887568e-06	8.313590e-09	4.761582e+01	5.465085e+02
1.700000e-06	6.877076e-06	8.308664e-09	4.754329e+01	5.460441e+02
1.710000e-06	6.864226e-06	8.303539e-09	4.745445e+01	5.454821e+02
1.720000e-06	6.848904e-06	8.298916e-09	4.734852e+01	5.448288e+02
1.730000e-06	6.831445e-06	8.276630e-09	4.722782e+01	5.440938e+02
1.740000e-06	6.811794e-06	8.234709e-09	4.709197e+01	5.432889e+02
1.750000e-06	6.789023e-06	8.230527e-09	4.693455e+01	5.424266e+02
1.760000e-06	6.762900e-06	8.229105e-09	4.675395e+01	5.415185e+02
1.770000e-06	6.734284e-06	8.214635e-09	4.655612e+01	5.405741e+02
1.780000e-06	6.703571e-06	8.235333e-09	4.634379e+01	5.395994e+02
1.790000e-06	6.671264e-06	8.224136e-09	4.612045e+01	5.385972e+02
1.800000e-06	6.637529e-06	8.174445e-09	4.588723e+01	5.375656e+02
1.810000e-06	6.601358e-06	8.183935e-09	4.563716e+01	5.364987e+02
1.820000e-06	6.562629e-06	8.159715e-09	4.536942e+01	5.353860e+02
1.830000e-06	6.521824e-06	8.143893e-09	4.508732e+01	5.342126e+02
1.840000e-06	6.478781e-06	8.137313e-09	4.478975e+01	5.329602e+02
1.850000e-06	6.433572e-06	8.055932e-09	4.447721e+01	5.316076e+02
1.860000e-06	6.386023e-06	8.053373e-09	4.414849e+01	5.301331e+02
1.870000e-06	6.336068e-06	8.020348e-09	4.380313e+01	5.285170e+02
1.880000e-06	6.283817e-06	7.991904e-09	4.344191e+01	5.267440e+02
1.890000e-06	6.228831e-06	8.031580e-09	4.306178e+01	5.248060e+02
1.900000e-06	6.171351e-06	7.977954e-09	4.266440e+01	5.227035e+02
1.910000e-06	6.111581e-06	7.942220e-09	4.225119e+01	5.204462e+02
1.920000e-06	6.049470e-06	7.889944e-09	4.182180e+01	5.180511e+02
1.930000e-06	5.985230e-06	7.843969e-09	4.137769e+01	5.155401e+02
1.940000e-06	5.918828e-06	7.843230e-09	4.091863e+01	5.129352e+02
1.950000e-06	5.850275e-06	7.784710e-09	4.044470e+01	5.102548e+02
1.960000e-06	5.779337e-06	7.749308e-09	3.995429e+01	5.075097e+02
1.970000e-06	5.706070e-06	7.683291e-09	3.944777e+01	5.047013e+02
1.980000e-06	5.630690e-06	7.642552e-09	3.892665e+01	5.018212e+02
1.990000e-06	5.553024e-06	7.612548e-09	3.838972e+01	4.988540e+02
2.000000e-06	5.473244e-06	7.554648e-09	3.783818e+01	4.957807e+02
2.010000e-06	5.391552e-06	7.517043e-09	3.727341e+01	4.925833e+02
2.020000e-06	5.308036e-06	7.450945e-09	3.669604e+01	4.892490e+02
2.030000e-06	5.222633e-06	7.402760e-09	3.610562e+01	4.857728e+02
2.040000e-06	5.135213e-06	7.351659e-09	3.550127e+01	4.821581e+02
2.050000e-06	5.045991e-06	7.299610e-09	3.488444e+01	4.784148e+02
2.060000e-06	4.955191e-06	7.239347e-09	3.425672e+01	4.745560e+02
2.070000e-06	4.862778e-06	7.171777e-09	3.361784e+01	4.705936e+02
2.080000e-06	4.768534e-06	7.113795e-09	3.296630e+01	4.665344e+02
2.090000e-06	4.672530e-06	7.057618e-09	3.230260e+01	4.623777e+02
2.100000e-06	4.574968e-06	7.008841e-09	3.162812e+01	4.581144e+02
2.110000e-06	4.475941e-06	6.936724e-09	3.094352e+01	4.537296e+02
2.120000e-06	4.375423e-06	6.860586e-09	3.024861e+01	4.492055e+02
2.130000e-06	4.273265e-06	6.775117e-09	2.954236e+01	4.445258e+02
2.140000e-06	4.169429e-06	6.696163e-09	2.882451e+01	4.396795e+02
2.150000e-06	4.064079e-06	6.627042e-09	2.809619e+01	4.346630e+02
2.160000e-06	3.957380e-06	6.560314e-09	2.735855e+01	4.294802e+02
2.170000e-06	3.849281e-06	6.488730e-09	2.661123e+01	4.241405e+02
2.180000e-06	3.739813e-06	6.400225e-09	2.585445e+01	4.186550e+02
2.190000e-06	3.628889e-06	6.313635e-09	2.508760e+01	4.130325e+02
2.200000e-06	3.516586e-06	6.232487e-09	2.431121e+01	4.072761e+02
2.210000e-06	3.402927e-06	6.150447e-09	2.352545e+01	4.013815e+02
2.220000e-06	3.287910e-06	6.050775e-09	2.273030e+01	3.953374e+02
2.230000e-06	3.171533e-06	5.945344e-09	2.192575e+01	3.891279e+02
2.240000e-06	3.053693e-06	5.843048e-09	2.111109e+01	3.827363e+02
2.250000e-06	2.934656e-06	5.745693e-09	2.028816e+01	3.761489e+02
2.260000e-06	2.814518e-06	5.647547e-09	1.945760e+01	3.693580e+02
2.270000e-06	2.693328e-06	5.547739e-09	1.861978e+01	3.623629e+02
2.280000e-06	2.571238e-06	5.443150e-09	1.777573e+01	3.551684e+02
2.290000e-06	2.448379e-06	5.329851e-09	1.692637e+01	3.477817e+02
2.300000e-06	2.324733e-06	5.215844e-09	1.607157e+01	3.402086e+02
2.310000e-06	2.200267e-06	5.102051e-09	1.521110e+01	3.324487e+02
2.320000e-06	2.074972e-06	4.981836e-09	1.434490e+01	3.244935e+02
2.330000e-06	1.948874e-06	4.847976e-09	1.347315e+01	3.163261e+02
2.340000e-06	1.822085e-06	4.710786e-09	1.259662e+01	3.079225e+02
2.350000e-06	1.694703e-06	4.577913e-09	1.171599e+01	2.992566e+02
2.360000e-06	1.566737e-06	4.448720e-09	1.083132e+01	2.903041e+02
2.370000e-06	1.438192e-06	4.316329e-09	9.942649e+00	2.810474e+02
2.380000e-06	1.309195e-06	4.174379e-09	9.050860e+00	2.714777e+02
2.390000e-06	1.179843e-06	4.022594e-09	8.156605e+00	2.615953e+02
2.400000e-06	1.050176e-06	3.863636e-09	7.260183e+00	2.514071e+02
2.410000e-06	9.201655e-07	3.706315e-09	6.361380e+00	2.409224e+02
2.420000e-06	7.898584e-07	3.546745e-09	5.460528e+00	2.301476e+02
2.430000e-06	6.593528e-07	3.377024e-09	4.558303e+00	2.190824e+02
2.440000e-06	5.286605e-07	3.199271e-09	3.654788e+00	2.077171e+02
2.450000e-06	3.978129e-07	3.017735e-09	2.750200e+00	1.960329e+02
2.460000e-06	2.668146e-07	2.835202e-09	1.844569e+00	1.840042e+02
2.470000e-06	1.356603e-07	2.647796e-09	9.378599e-01	1.716030e+02
2.480000e-06	4.420287e-09	2.452949e-09	3.055876e-02	1.588029e+02
2.490000e-06	-1.268195e-07	2.251997e-09	-8.767414e-01	1.455822e+02
2.500000e-06	-2.580241e-07	2.040986e-09	-1.783798e+00	1.319255e+02
2.510000e-06	-3.891821e-07	1.820517e-09	-2.690532e+00	1.178215e+02
2.520000e-06	-5.202266e-07	1.596518e-09	-3.596482e+00	1.032605e+02
2.530000e-06	-6.510641e-07	1.367738e-09	-4.501001e+00	8.822977e+01
2.540000e-06	-7.816968e-07	1.130952e-09	-5.404104e+00	7.271092e+01
2.550000e-06	-9.121003e-07	8.840347e-10	-6.305622e+00	5.667898e+01
2.560000e-06	-1.042197e-06	6.294010e-10	-7.205018e+00	4.010547e+01
2.570000e-06	-1.171959e-06	3.684127e-10	-8.102105e+00	2.296493e+01
2.580000e-06	-1.301365e-06	9.716585e-11	-8.996723e+00	5.244260e+00
2.590000e-06	-1.430381e-06	-1.838913e-10	-9.888651e+00	-1.304706e+01
2.600000e-06	-1.558918e-06	-4.726893e-10	-1.077727e+01	-3.186799e+01
2.610000e-06	-1.686859e-06	-7.697681e-10	-1.166176e+01	-5.114060e+01
2.620000e-06	-1.814123e-06	-1.072513e-09	-1.254157e+01	-7.074985e+01
2.630000e-06	-1.940721e-06	-1.374832e-09	-1.341679e+01	-9.054923e+01
2.640000e-06	-2.066576e-06	-1.673409e-09	-1.428686e+01	-1.103715e+02
2.650000e-06	-2.191528e-06	-1.969675e-09	-1.515069e+01	-1.300430e+02
2.660000e-06	-2.315550e-06	-2.265480e-09	-1.600809e+01	-1.493984e+02
2.670000e-06	-2.438680e-06	-2.556198e-09	-1.685932e+01	-1.682946e+02
2.680000e-06	-2.560884e-06	-2.836110e-09	-1.770416e+01	-1.866200e+02
2.690000e-06	-2.682150e-06	-3.106026e-09	-1.854250e+01	-2.042988e+02
2.700000e-06	-2.802445e-06	-3.366692e-09	-1.937414e+01	-2.212895e+02
2.710000e-06	-2.921739e-06	-3.619224e-09	-2.019886e+01	-2.375800e+02
2.720000e-06	-3.039976e-06	-3.861406e-09	-2.101626e+01	-2.531783e+02
2.730000e-06	-3.156911e-06	-4.091276e-09	-2.182467e+01	-2.681041e+02
2.740000e-06	-3.272476e-06	-4.310990e-09	-2.262361e+01	-2.823807e+02
2.750000e-06	-3.386760e-06	-4.522418e-09	-2.341369e+01	-2.960303e+02
2.760000e-06	-3.499739e-06	-4.725231e-09	-2.419474e+01	-3.090716e+02
2.770000e-06	-3.611216e-06	-4.915346e-09	-2.496541e+01	-3.215210e+02
2.780000e-06	-3.721256e-06	-5.093964e-09	-2.572616e+01	-3.333945e+02
2.790000e-06	-3.830126e-06	-5.263535e-09	-2.647881e+01	-3.447108e+02
2.800000e-06	-3.937845e-06	-5.427360e-09	-2.722350e+01	-3.554928e+02
2.810000e-06	-4.044325e-06	-5.585507e-09	-2.795963e+01	-3.657674e+02
2.820000e-06	-4.149439e-06	-5.735921e-09	-2.868631e+01	-3.755645e+02
2.830000e-06	-4.252997e-06	-5.879768e-09	-2.940224e+01	-3.849134e+02
2.840000e-06	-4.354799e-06	-6.015974e-09	-3.010603e+01	-3.938400e+02
2.850000e-06	-4.454974e-06	-6.146674e-09	-3.079857e+01	-4.023639e+02
2.860000e-06	-4.553736e-06	-6.272873e-09	-3.148134e+01	-4.104982e+02
2.870000e-06	-4.650988e-06	-6.393007e-09	-3.215367e+01	-4.182499e+02
2.880000e-06	-4.746625e-06	-6.505334e-09	-3.281484e+01	-4.256230e+02
2.890000e-06	-4.840483e-06	-6.611168e-09	-3.346370e+01	-4.326219e+02
2.900000e-06	-4.932565e-06	-6.713264e-09	-3.410030e+01	-4.392551e+02
2.910000e-06	-5.023024e-06	-6.810113e-09	-3.472567e+01	-4.455376e+02
2.920000e-06	-5.111733e-06	-6.901408e-09	-3.533894e+01	-4.514921e+02
2.930000e-06	-5.198410e-06	-6.988851e-09	-3.593816e+01	-4.571472e+02
2.940000e-06	-5.283026e-06	-7.072943e-09	-3.652314e+01	-4.625352e+02
