# Temperatura_=_54.5
# Concentracion g/m^3_=_15000.0
# C_Vs_to_Am_M_A/Vsm_=_65563218390.804596
# pendiente_HvsI_1/m_=_3716.3
# ordenada_HvsI_A/m_=_1297.0
# frecuencia_Hz_=_301896.12730248045

Tiempo_(s)	Campo_(V.s)	Magnetizacion_(V.s)	Campo_(kA/m)	Magnetizacion_(A/m)
0.000000e+00	-6.828913e-06	-8.976516e-09	-4.749873e+01	-5.863833e+02
1.000000e-08	-6.825988e-06	-8.972276e-09	-4.747838e+01	-5.862141e+02
2.000000e-08	-6.820804e-06	-8.966572e-09	-4.744233e+01	-5.859527e+02
3.000000e-08	-6.813515e-06	-8.960854e-09	-4.739163e+01	-5.855813e+02
4.000000e-08	-6.803879e-06	-8.952850e-09	-4.732460e+01	-5.850837e+02
5.000000e-08	-6.791796e-06	-8.941984e-09	-4.724056e+01	-5.844503e+02
6.000000e-08	-6.777252e-06	-8.926351e-09	-4.713940e+01	-5.836821e+02
7.000000e-08	-6.760370e-06	-8.908163e-09	-4.702198e+01	-5.827925e+02
8.000000e-08	-6.741332e-06	-8.913876e-09	-4.688956e+01	-5.818050e+02
9.000000e-08	-6.719861e-06	-8.918048e-09	-4.674022e+01	-5.807496e+02
1.000000e-07	-6.695572e-06	-8.894536e-09	-4.657127e+01	-5.796560e+02
1.100000e-07	-6.668518e-06	-8.870230e-09	-4.638310e+01	-5.785478e+02
1.200000e-07	-6.639104e-06	-8.843284e-09	-4.617851e+01	-5.774367e+02
1.300000e-07	-6.607787e-06	-8.779160e-09	-4.596068e+01	-5.763198e+02
1.400000e-07	-6.574643e-06	-8.760107e-09	-4.573014e+01	-5.751800e+02
1.500000e-07	-6.539448e-06	-8.791939e-09	-4.548535e+01	-5.739886e+02
1.600000e-07	-6.502120e-06	-8.729745e-09	-4.522571e+01	-5.727109e+02
1.700000e-07	-6.462762e-06	-8.742797e-09	-4.495196e+01	-5.713124e+02
1.800000e-07	-6.421150e-06	-8.723319e-09	-4.466252e+01	-5.697648e+02
1.900000e-07	-6.377044e-06	-8.639398e-09	-4.435574e+01	-5.680495e+02
2.000000e-07	-6.330674e-06	-8.653225e-09	-4.403321e+01	-5.661603e+02
2.100000e-07	-6.281885e-06	-8.619933e-09	-4.369386e+01	-5.641015e+02
2.200000e-07	-6.230347e-06	-8.581757e-09	-4.333538e+01	-5.618858e+02
2.300000e-07	-6.176204e-06	-8.539671e-09	-4.295879e+01	-5.595298e+02
2.400000e-07	-6.119660e-06	-8.477106e-09	-4.256549e+01	-5.570498e+02
2.500000e-07	-6.060792e-06	-8.450058e-09	-4.215604e+01	-5.544585e+02
2.600000e-07	-5.999708e-06	-8.426997e-09	-4.173117e+01	-5.517632e+02
2.700000e-07	-5.936539e-06	-8.387398e-09	-4.129180e+01	-5.489655e+02
2.800000e-07	-5.871216e-06	-8.331512e-09	-4.083744e+01	-5.460628e+02
2.900000e-07	-5.803626e-06	-8.278057e-09	-4.036731e+01	-5.430499e+02
3.000000e-07	-5.733857e-06	-8.219247e-09	-3.988203e+01	-5.399218e+02
3.100000e-07	-5.661954e-06	-8.166986e-09	-3.938191e+01	-5.366749e+02
3.200000e-07	-5.587873e-06	-8.149905e-09	-3.886664e+01	-5.333080e+02
3.300000e-07	-5.511540e-06	-8.087470e-09	-3.833570e+01	-5.298218e+02
3.400000e-07	-5.433015e-06	-8.012597e-09	-3.778952e+01	-5.262185e+02
3.500000e-07	-5.352341e-06	-7.963520e-09	-3.722838e+01	-5.224999e+02
3.600000e-07	-5.269717e-06	-7.912627e-09	-3.665369e+01	-5.186663e+02
3.700000e-07	-5.185362e-06	-7.857207e-09	-3.606696e+01	-5.147165e+02
3.800000e-07	-5.099325e-06	-7.789070e-09	-3.546853e+01	-5.106471e+02
3.900000e-07	-5.011621e-06	-7.722346e-09	-3.485850e+01	-5.064533e+02
4.000000e-07	-4.922102e-06	-7.644872e-09	-3.423585e+01	-5.021304e+02
4.100000e-07	-4.830733e-06	-7.578043e-09	-3.360032e+01	-4.976739e+02
4.200000e-07	-4.737723e-06	-7.517868e-09	-3.295339e+01	-4.930808e+02
4.300000e-07	-4.643135e-06	-7.444409e-09	-3.229548e+01	-4.883496e+02
4.400000e-07	-4.546893e-06	-7.361743e-09	-3.162606e+01	-4.834798e+02
4.500000e-07	-4.448912e-06	-7.275280e-09	-3.094456e+01	-4.784713e+02
4.600000e-07	-4.349280e-06	-7.205469e-09	-3.025156e+01	-4.733233e+02
4.700000e-07	-4.248184e-06	-7.136808e-09	-2.954838e+01	-4.680343e+02
4.800000e-07	-4.145597e-06	-7.059576e-09	-2.883484e+01	-4.626009e+02
4.900000e-07	-4.041554e-06	-6.970188e-09	-2.811116e+01	-4.570188e+02
5.000000e-07	-3.936083e-06	-6.869641e-09	-2.737756e+01	-4.512828e+02
5.100000e-07	-3.829042e-06	-6.772494e-09	-2.663303e+01	-4.453878e+02
5.200000e-07	-3.720574e-06	-6.683138e-09	-2.587858e+01	-4.393294e+02
5.300000e-07	-3.610878e-06	-6.592661e-09	-2.511558e+01	-4.331044e+02
5.400000e-07	-3.499861e-06	-6.491680e-09	-2.434340e+01	-4.267108e+02
5.500000e-07	-3.387501e-06	-6.389614e-09	-2.356188e+01	-4.201476e+02
5.600000e-07	-3.273826e-06	-6.285781e-09	-2.277120e+01	-4.134140e+02
5.700000e-07	-3.158672e-06	-6.181678e-09	-2.197025e+01	-4.065093e+02
5.800000e-07	-3.042079e-06	-6.077344e-09	-2.115928e+01	-3.994314e+02
5.900000e-07	-2.924367e-06	-5.967681e-09	-2.034053e+01	-3.921770e+02
6.000000e-07	-2.805681e-06	-5.848293e-09	-1.951501e+01	-3.847409e+02
6.100000e-07	-2.685985e-06	-5.726716e-09	-1.868246e+01	-3.771165e+02
6.200000e-07	-2.565243e-06	-5.610443e-09	-1.784264e+01	-3.692954e+02
6.300000e-07	-2.443530e-06	-5.491137e-09	-1.699605e+01	-3.612679e+02
6.400000e-07	-2.320882e-06	-5.361298e-09	-1.614297e+01	-3.530236e+02
6.500000e-07	-2.197278e-06	-5.226226e-09	-1.528324e+01	-3.445517e+02
6.600000e-07	-2.072884e-06	-5.091720e-09	-1.441801e+01	-3.358414e+02
6.700000e-07	-1.947930e-06	-4.956848e-09	-1.354889e+01	-3.268829e+02
6.800000e-07	-1.822440e-06	-4.820468e-09	-1.267604e+01	-3.176676e+02
6.900000e-07	-1.696338e-06	-4.678791e-09	-1.179894e+01	-3.081887e+02
7.000000e-07	-1.569582e-06	-4.528357e-09	-1.091728e+01	-2.984417e+02
7.100000e-07	-1.442275e-06	-4.369251e-09	-1.003179e+01	-2.884236e+02
7.200000e-07	-1.314463e-06	-4.206754e-09	-9.142789e+00	-2.781328e+02
7.300000e-07	-1.186182e-06	-4.044138e-09	-8.250531e+00	-2.675672e+02
7.400000e-07	-1.057530e-06	-3.880305e-09	-7.355688e+00	-2.567234e+02
7.500000e-07	-9.285511e-07	-3.712407e-09	-6.458568e+00	-2.455947e+02
7.600000e-07	-7.993196e-07	-3.539226e-09	-5.559694e+00	-2.341701e+02
7.700000e-07	-6.698693e-07	-3.360650e-09	-4.659298e+00	-2.224344e+02
7.800000e-07	-5.402216e-07	-3.175869e-09	-3.757529e+00	-2.103686e+02
7.900000e-07	-4.104343e-07	-2.987241e-09	-2.854789e+00	-1.979516e+02
8.000000e-07	-2.804811e-07	-2.792207e-09	-1.950896e+00	-1.851623e+02
8.100000e-07	-1.503573e-07	-2.589891e-09	-1.045815e+00	-1.719818e+02
8.200000e-07	-2.011201e-08	-2.382343e-09	-1.398898e-01	-1.583947e+02
8.300000e-07	1.101956e-07	-2.171419e-09	7.664691e-01	-1.443890e+02
8.400000e-07	2.404750e-07	-1.956105e-09	1.672632e+00	-1.299549e+02
8.500000e-07	3.706811e-07	-1.731612e-09	2.578285e+00	-1.150821e+02
8.600000e-07	5.007551e-07	-1.498105e-09	3.483019e+00	-9.975621e+01
8.700000e-07	6.306708e-07	-1.255151e-09	4.386652e+00	-8.395584e+01
8.800000e-07	7.604543e-07	-1.005929e-09	5.289365e+00	-6.765169e+01
8.900000e-07	8.900118e-07	-7.514661e-10	6.190507e+00	-5.080791e+01
9.000000e-07	1.019301e-06	-4.898260e-10	7.089784e+00	-3.338694e+01
9.100000e-07	1.148304e-06	-2.179557e-10	7.987068e+00	-1.535740e+01
9.200000e-07	1.276945e-06	6.610169e-11	8.881832e+00	3.295968e+00
9.300000e-07	1.405141e-06	3.612746e-10	9.773502e+00	2.256204e+01
9.400000e-07	1.532740e-06	6.650394e-10	1.066103e+01	4.239475e+01
9.500000e-07	1.659731e-06	9.745478e-10	1.154431e+01	6.270828e+01
9.600000e-07	1.786140e-06	1.288336e-09	1.242355e+01	8.337745e+01
9.700000e-07	1.911941e-06	1.607131e-09	1.329857e+01	1.042440e+02
9.800000e-07	2.037086e-06	1.927286e-09	1.416902e+01	1.251277e+02
9.900000e-07	2.161582e-06	2.244901e-09	1.503495e+01	1.458416e+02
1.000000e-06	2.285361e-06	2.556969e-09	1.589591e+01	1.662080e+02
1.010000e-06	2.408175e-06	2.859981e-09	1.675014e+01	1.860731e+02
1.020000e-06	2.529991e-06	3.153134e-09	1.759744e+01	2.053174e+02
1.030000e-06	2.650911e-06	3.433740e-09	1.843850e+01	2.238615e+02
1.040000e-06	2.770783e-06	3.701703e-09	1.927228e+01	2.416648e+02
1.050000e-06	2.889521e-06	3.958103e-09	2.009816e+01	2.587200e+02
1.060000e-06	3.007298e-06	4.202847e-09	2.091736e+01	2.750434e+02
1.070000e-06	3.124102e-06	4.438440e-09	2.172979e+01	2.906643e+02
1.080000e-06	3.239650e-06	4.664633e-09	2.253349e+01	3.056153e+02
1.090000e-06	3.353832e-06	4.881919e-09	2.332769e+01	3.199257e+02
1.100000e-06	3.466688e-06	5.088602e-09	2.411266e+01	3.336184e+02
1.110000e-06	3.578235e-06	5.287121e-09	2.488853e+01	3.467104e+02
1.120000e-06	3.688531e-06	5.477063e-09	2.565570e+01	3.592161e+02
1.130000e-06	3.797649e-06	5.656861e-09	2.641467e+01	3.711512e+02
1.140000e-06	3.905552e-06	5.829340e-09	2.716520e+01	3.825369e+02
1.150000e-06	4.012046e-06	5.994958e-09	2.790592e+01	3.934007e+02
1.160000e-06	4.117029e-06	6.152688e-09	2.863613e+01	4.037759e+02
1.170000e-06	4.220516e-06	6.303576e-09	2.935594e+01	4.136986e+02
1.180000e-06	4.322547e-06	6.448887e-09	3.006562e+01	4.232026e+02
1.190000e-06	4.423179e-06	6.589698e-09	3.076557e+01	4.323151e+02
1.200000e-06	4.522229e-06	6.723950e-09	3.145451e+01	4.410537e+02
1.210000e-06	4.619498e-06	6.848563e-09	3.213107e+01	4.494256e+02
1.220000e-06	4.714961e-06	6.969099e-09	3.279507e+01	4.574296e+02
1.230000e-06	4.808757e-06	7.085555e-09	3.344747e+01	4.650600e+02
1.240000e-06	4.901064e-06	7.195774e-09	3.408951e+01	4.723123e+02
1.250000e-06	4.991701e-06	7.299016e-09	3.471994e+01	4.791882e+02
1.260000e-06	5.080394e-06	7.396663e-09	3.533685e+01	4.856991e+02
1.270000e-06	5.167175e-06	7.490231e-09	3.594046e+01	4.918669e+02
1.280000e-06	5.252209e-06	7.579200e-09	3.653192e+01	4.977230e+02
1.290000e-06	5.335525e-06	7.662835e-09	3.711142e+01	5.033039e+02
1.300000e-06	5.416855e-06	7.743505e-09	3.767711e+01	5.086463e+02
1.310000e-06	5.496102e-06	7.821122e-09	3.822832e+01	5.137823e+02
1.320000e-06	5.573361e-06	7.894636e-09	3.876570e+01	5.187358e+02
1.330000e-06	5.648483e-06	7.965688e-09	3.928821e+01	5.235205e+02
1.340000e-06	5.721377e-06	8.036572e-09	3.979523e+01	5.281409e+02
1.350000e-06	5.792188e-06	8.106537e-09	4.028775e+01	5.325948e+02
1.360000e-06	5.861005e-06	8.172636e-09	4.076642e+01	5.368765e+02
1.370000e-06	5.927760e-06	8.234461e-09	4.123073e+01	5.409802e+02
1.380000e-06	5.992320e-06	8.292724e-09	4.167978e+01	5.449024e+02
1.390000e-06	6.054763e-06	8.348852e-09	4.211411e+01	5.486426e+02
1.400000e-06	6.115275e-06	8.402802e-09	4.253500e+01	5.522027e+02
1.410000e-06	6.173680e-06	8.453524e-09	4.294124e+01	5.555854e+02
1.420000e-06	6.229821e-06	8.500438e-09	4.333173e+01	5.587921e+02
1.430000e-06	6.283737e-06	8.544871e-09	4.370674e+01	5.618220e+02
1.440000e-06	6.335149e-06	8.588042e-09	4.406434e+01	5.646718e+02
1.450000e-06	6.383919e-06	8.629136e-09	4.440356e+01	5.673369e+02
1.460000e-06	6.430311e-06	8.665988e-09	4.472624e+01	5.698136e+02
1.470000e-06	6.474562e-06	8.698020e-09	4.503403e+01	5.721016e+02
1.480000e-06	6.516516e-06	8.727820e-09	4.532584e+01	5.742057e+02
1.490000e-06	6.556048e-06	8.757160e-09	4.560081e+01	5.761364e+02
1.500000e-06	6.593400e-06	8.785565e-09	4.586061e+01	5.779086e+02
1.510000e-06	6.628524e-06	8.811303e-09	4.610492e+01	5.795394e+02
1.520000e-06	6.661230e-06	8.832241e-09	4.633241e+01	5.810443e+02
1.530000e-06	6.691583e-06	8.849277e-09	4.654353e+01	5.824342e+02
1.540000e-06	6.719692e-06	8.866333e-09	4.673904e+01	5.837130e+02
1.550000e-06	6.745334e-06	8.883296e-09	4.691739e+01	5.848770e+02
1.560000e-06	6.768388e-06	8.897908e-09	4.707774e+01	5.859171e+02
1.570000e-06	6.789131e-06	8.910161e-09	4.722203e+01	5.868217e+02
1.580000e-06	6.807575e-06	8.921308e-09	4.735031e+01	5.875808e+02
1.590000e-06	6.823477e-06	8.931367e-09	4.746092e+01	5.881900e+02
1.600000e-06	6.836826e-06	8.940586e-09	4.755377e+01	5.886524e+02
1.610000e-06	6.847521e-06	8.948217e-09	4.762816e+01	5.889795e+02
1.620000e-06	6.855553e-06	8.952686e-09	4.768402e+01	5.891882e+02
1.630000e-06	6.861158e-06	8.954783e-09	4.772301e+01	5.892976e+02
1.640000e-06	6.864406e-06	8.955265e-09	4.774561e+01	5.893240e+02
1.650000e-06	6.865146e-06	8.955827e-09	4.775075e+01	5.892767e+02
1.660000e-06	6.863492e-06	8.951074e-09	4.773924e+01	5.891556e+02
1.670000e-06	6.859755e-06	8.946267e-09	4.771325e+01	5.889516e+02
1.680000e-06	6.853750e-06	8.938765e-09	4.767149e+01	5.886486e+02
1.690000e-06	6.845413e-06	8.931928e-09	4.761349e+01	5.882288e+02
1.700000e-06	6.834903e-06	8.929183e-09	4.754040e+01	5.876779e+02
1.710000e-06	6.822037e-06	8.926252e-09	4.745091e+01	5.869901e+02
1.720000e-06	6.806783e-06	8.926987e-09	4.734480e+01	5.861715e+02
1.730000e-06	6.789421e-06	8.889450e-09	4.722404e+01	5.852395e+02
1.740000e-06	6.769801e-06	8.849933e-09	4.708757e+01	5.842211e+02
1.750000e-06	6.747059e-06	8.840243e-09	4.692939e+01	5.831468e+02
1.760000e-06	6.721011e-06	8.817417e-09	4.674821e+01	5.820446e+02
1.770000e-06	6.692490e-06	8.807933e-09	4.654983e+01	5.809341e+02
1.780000e-06	6.661938e-06	8.848963e-09	4.633733e+01	5.798213e+02
1.790000e-06	6.629808e-06	8.794429e-09	4.611385e+01	5.786977e+02
1.800000e-06	6.596214e-06	8.781298e-09	4.588018e+01	5.775409e+02
1.810000e-06	6.560236e-06	8.791378e-09	4.562994e+01	5.763193e+02
1.820000e-06	6.521766e-06	8.717940e-09	4.536236e+01	5.749975e+02
1.830000e-06	6.481148e-06	8.775566e-09	4.507984e+01	5.735427e+02
1.840000e-06	6.438268e-06	8.735536e-09	4.478158e+01	5.719302e+02
1.850000e-06	6.393241e-06	8.664305e-09	4.446840e+01	5.701462e+02
1.860000e-06	6.345802e-06	8.688048e-09	4.413844e+01	5.681886e+02
1.870000e-06	6.295980e-06	8.599071e-09	4.379190e+01	5.660658e+02
1.880000e-06	6.243935e-06	8.595263e-09	4.342989e+01	5.637924e+02
1.890000e-06	6.189144e-06	8.591632e-09	4.304880e+01	5.613853e+02
1.900000e-06	6.131906e-06	8.524535e-09	4.265067e+01	5.588598e+02
1.910000e-06	6.072484e-06	8.510841e-09	4.223737e+01	5.562265e+02
1.920000e-06	6.010731e-06	8.416813e-09	4.180784e+01	5.534906e+02
1.930000e-06	5.946761e-06	8.392363e-09	4.136290e+01	5.506516e+02
1.940000e-06	5.880622e-06	8.375438e-09	4.090286e+01	5.477056e+02
1.950000e-06	5.812416e-06	8.330178e-09	4.042845e+01	5.446475e+02
1.960000e-06	5.741806e-06	8.283666e-09	3.993732e+01	5.414724e+02
1.970000e-06	5.668884e-06	8.188610e-09	3.943011e+01	5.381778e+02
1.980000e-06	5.593963e-06	8.161644e-09	3.890899e+01	5.347633e+02
1.990000e-06	5.516789e-06	8.103174e-09	3.837221e+01	5.312303e+02
2.000000e-06	5.437422e-06	8.052416e-09	3.782017e+01	5.275810e+02
2.010000e-06	5.356122e-06	8.008118e-09	3.725469e+01	5.238166e+02
2.020000e-06	5.273066e-06	7.932015e-09	3.667699e+01	5.199371e+02
2.030000e-06	5.188135e-06	7.871041e-09	3.608625e+01	5.159403e+02
2.040000e-06	5.101134e-06	7.805160e-09	3.548111e+01	5.118220e+02
2.050000e-06	5.012293e-06	7.762912e-09	3.486317e+01	5.075775e+02
2.060000e-06	4.921901e-06	7.690154e-09	3.423445e+01	5.032020e+02
2.070000e-06	4.829942e-06	7.615346e-09	3.359482e+01	4.986915e+02
2.080000e-06	4.736210e-06	7.542671e-09	3.294286e+01	4.940438e+02
2.090000e-06	4.640674e-06	7.472799e-09	3.227836e+01	4.892576e+02
2.100000e-06	4.543552e-06	7.405780e-09	3.160283e+01	4.843327e+02
2.110000e-06	4.444984e-06	7.323387e-09	3.091723e+01	4.792690e+02
2.120000e-06	4.344933e-06	7.245038e-09	3.022133e+01	4.740653e+02
2.130000e-06	4.243349e-06	7.151405e-09	2.951475e+01	4.687194e+02
2.140000e-06	4.140060e-06	7.067761e-09	2.879633e+01	4.632277e+02
2.150000e-06	4.035173e-06	6.990192e-09	2.806678e+01	4.575852e+02
2.160000e-06	3.928951e-06	6.914526e-09	2.732795e+01	4.517867e+02
2.170000e-06	3.821375e-06	6.825169e-09	2.657970e+01	4.458274e+02
2.180000e-06	3.712496e-06	6.720083e-09	2.582239e+01	4.397034e+02
2.190000e-06	3.602156e-06	6.616882e-09	2.505492e+01	4.334117e+02
2.200000e-06	3.490414e-06	6.523405e-09	2.427769e+01	4.269510e+02
2.210000e-06	3.377383e-06	6.435602e-09	2.349150e+01	4.203204e+02
2.220000e-06	3.263035e-06	6.334564e-09	2.269615e+01	4.135192e+02
2.230000e-06	3.147359e-06	6.225008e-09	2.189156e+01	4.065461e+02
2.240000e-06	3.030397e-06	6.112181e-09	2.107803e+01	3.993988e+02
2.250000e-06	2.912229e-06	6.001292e-09	2.025611e+01	3.920732e+02
2.260000e-06	2.792770e-06	5.886296e-09	1.942520e+01	3.845635e+02
2.270000e-06	2.672260e-06	5.771306e-09	1.858699e+01	3.768623e+02
2.280000e-06	2.550880e-06	5.653725e-09	1.774273e+01	3.689607e+02
2.290000e-06	2.428666e-06	5.528764e-09	1.689266e+01	3.608488e+02
2.300000e-06	2.305650e-06	5.401171e-09	1.603702e+01	3.525158e+02
2.310000e-06	2.181884e-06	5.276500e-09	1.517617e+01	3.439509e+02
2.320000e-06	2.057370e-06	5.147559e-09	1.431010e+01	3.351437e+02
2.330000e-06	1.932122e-06	5.004616e-09	1.343894e+01	3.260846e+02
2.340000e-06	1.806248e-06	4.854603e-09	1.256342e+01	3.167659e+02
2.350000e-06	1.679728e-06	4.706908e-09	1.168341e+01	3.071816e+02
2.360000e-06	1.552593e-06	4.563423e-09	1.079911e+01	2.973278e+02
2.370000e-06	1.424848e-06	4.416256e-09	9.910577e+00	2.872022e+02
2.380000e-06	1.296535e-06	4.261595e-09	9.018091e+00	2.768031e+02
2.390000e-06	1.167841e-06	4.097227e-09	8.122957e+00	2.661283e+02
2.400000e-06	1.038831e-06	3.924913e-09	7.225620e+00	2.551730e+02
2.410000e-06	9.095225e-07	3.753102e-09	6.326214e+00	2.439290e+02
2.420000e-06	7.799604e-07	3.580792e-09	5.425041e+00	2.323837e+02
2.430000e-06	6.501361e-07	3.402773e-09	4.522043e+00	2.205201e+02
2.440000e-06	5.201480e-07	3.216735e-09	3.617906e+00	2.083184e+02
2.450000e-06	3.900404e-07	3.021909e-09	2.712939e+00	1.957570e+02
2.460000e-06	2.597134e-07	2.821637e-09	1.806445e+00	1.828155e+02
2.470000e-06	1.292256e-07	2.616411e-09	8.988328e-01	1.694763e+02
2.480000e-06	-1.277311e-09	2.406945e-09	-8.884382e-03	1.557254e+02
2.490000e-06	-1.317570e-07	2.192789e-09	-9.164399e-01	1.415520e+02
2.500000e-06	-2.622184e-07	1.968750e-09	-1.823869e+00	1.269464e+02
2.510000e-06	-3.926432e-07	1.734968e-09	-2.731043e+00	1.118971e+02
2.520000e-06	-5.229461e-07	1.497194e-09	-3.637369e+00	9.638721e+01
2.530000e-06	-6.530751e-07	1.254486e-09	-4.542485e+00	8.039229e+01
2.540000e-06	-7.829848e-07	1.002924e-09	-5.446076e+00	6.388010e+01
2.550000e-06	-9.126668e-07	7.401926e-10	-6.348084e+00	4.681334e+01
2.560000e-06	-1.042093e-06	4.669812e-10	-7.248314e+00	2.915581e+01
2.570000e-06	-1.171206e-06	1.868691e-10	-8.146365e+00	1.088121e+01
2.580000e-06	-1.299973e-06	-1.009590e-10	-9.042005e+00	-8.016535e+00
2.590000e-06	-1.428302e-06	-3.977482e-10	-9.934599e+00	-2.751342e+01
2.600000e-06	-1.556028e-06	-7.037420e-10	-1.082301e+01	-4.754807e+01
2.610000e-06	-1.683050e-06	-1.018115e-09	-1.170651e+01	-6.801884e+01
2.620000e-06	-1.809362e-06	-1.335783e-09	-1.258508e+01	-8.878649e+01
2.630000e-06	-1.935005e-06	-1.652881e-09	-1.345899e+01	-1.096825e+02
2.640000e-06	-2.060004e-06	-1.967187e-09	-1.432843e+01	-1.305223e+02
2.650000e-06	-2.184170e-06	-2.279018e-09	-1.519207e+01	-1.511204e+02
2.660000e-06	-2.307425e-06	-2.588751e-09	-1.604937e+01	-1.713071e+02
2.670000e-06	-2.429797e-06	-2.890771e-09	-1.690054e+01	-1.909409e+02
2.680000e-06	-2.551265e-06	-3.180890e-09	-1.774540e+01	-2.099180e+02
2.690000e-06	-2.671890e-06	-3.459834e-09	-1.858442e+01	-2.281744e+02
2.700000e-06	-2.791473e-06	-3.729238e-09	-1.941619e+01	-2.456837e+02
2.710000e-06	-2.909858e-06	-3.988574e-09	-2.023961e+01	-2.624491e+02
2.720000e-06	-3.027151e-06	-4.236987e-09	-2.105545e+01	-2.784932e+02
2.730000e-06	-3.143286e-06	-4.472614e-09	-2.186323e+01	-2.938476e+02
2.740000e-06	-3.258154e-06	-4.696744e-09	-2.266220e+01	-3.085444e+02
2.750000e-06	-3.371629e-06	-4.913104e-09	-2.345147e+01	-3.226103e+02
2.760000e-06	-3.483677e-06	-5.122332e-09	-2.423083e+01	-3.360658e+02
2.770000e-06	-3.594391e-06	-5.321062e-09	-2.500091e+01	-3.489263e+02
2.780000e-06	-3.703861e-06	-5.508717e-09	-2.576233e+01	-3.612063e+02
2.790000e-06	-3.812165e-06	-5.687093e-09	-2.651564e+01	-3.729233e+02
2.800000e-06	-3.919234e-06	-5.858222e-09	-2.726036e+01	-3.841008e+02
2.810000e-06	-4.025026e-06	-6.021448e-09	-2.799620e+01	-3.947691e+02
2.820000e-06	-4.129451e-06	-6.176908e-09	-2.872253e+01	-4.049628e+02
2.830000e-06	-4.232221e-06	-6.326060e-09	-2.943735e+01	-4.147178e+02
2.840000e-06	-4.333351e-06	-6.467551e-09	-3.014076e+01	-4.240658e+02
2.850000e-06	-4.432971e-06	-6.603439e-09	-3.083367e+01	-4.330304e+02
2.860000e-06	-4.531089e-06	-6.735726e-09	-3.151614e+01	-4.416253e+02
2.870000e-06	-4.627712e-06	-6.864325e-09	-3.218820e+01	-4.498537e+02
2.880000e-06	-4.722586e-06	-6.984908e-09	-3.284810e+01	-4.577122e+02
2.890000e-06	-4.815716e-06	-7.097981e-09	-3.349587e+01	-4.651949e+02
2.900000e-06	-4.907221e-06	-7.206680e-09	-3.413234e+01	-4.722993e+02
2.910000e-06	-4.996969e-06	-7.310950e-09	-3.475658e+01	-4.790304e+02
2.920000e-06	-5.084865e-06	-7.410364e-09	-3.536795e+01	-4.854038e+02
2.930000e-06	-5.170877e-06	-7.502756e-09	-3.596620e+01	-4.914456e+02
2.940000e-06	-5.254994e-06	-7.590485e-09	-3.655129e+01	-4.971897e+02
