# Temperatura_=_71.63
# Concentracion g/m^3_=_15000.0
# C_Vs_to_Am_M_A/Vsm_=_65563218390.804596
# pendiente_HvsI_1/m_=_3716.3
# ordenada_HvsI_A/m_=_1297.0
# frecuencia_Hz_=_301902.9487279093

Tiempo_(s)	Campo_(V.s)	Magnetizacion_(V.s)	Campo_(kA/m)	Magnetizacion_(A/m)
0.000000e+00	-6.866416e-06	-1.011431e-08	-4.749929e+01	-6.608661e+02
1.000000e-08	-6.863857e-06	-1.011124e-08	-4.748158e+01	-6.606622e+02
2.000000e-08	-6.859006e-06	-1.010796e-08	-4.744803e+01	-6.603464e+02
3.000000e-08	-6.852046e-06	-1.010271e-08	-4.739988e+01	-6.599118e+02
4.000000e-08	-6.842887e-06	-1.009566e-08	-4.733652e+01	-6.593494e+02
5.000000e-08	-6.831259e-06	-1.008432e-08	-4.725608e+01	-6.586511e+02
6.000000e-08	-6.817050e-06	-1.006962e-08	-4.715779e+01	-6.578133e+02
7.000000e-08	-6.800425e-06	-1.005536e-08	-4.704278e+01	-6.568399e+02
8.000000e-08	-6.781613e-06	-1.003907e-08	-4.691265e+01	-6.557442e+02
9.000000e-08	-6.760522e-06	-1.003052e-08	-4.676675e+01	-6.545482e+02
1.000000e-07	-6.736794e-06	-1.003162e-08	-4.660261e+01	-6.532801e+02
1.100000e-07	-6.710242e-06	-1.000390e-08	-4.641893e+01	-6.519692e+02
1.200000e-07	-6.681156e-06	-9.961563e-09	-4.621773e+01	-6.506405e+02
1.300000e-07	-6.650025e-06	-9.935365e-09	-4.600238e+01	-6.493086e+02
1.400000e-07	-6.617046e-06	-9.898194e-09	-4.577424e+01	-6.479737e+02
1.500000e-07	-6.582151e-06	-9.836376e-09	-4.553284e+01	-6.466197e+02
1.600000e-07	-6.545165e-06	-9.870178e-09	-4.527699e+01	-6.452154e+02
1.700000e-07	-6.506067e-06	-9.831153e-09	-4.500652e+01	-6.437188e+02
1.800000e-07	-6.464705e-06	-9.764738e-09	-4.472040e+01	-6.420828e+02
1.900000e-07	-6.420838e-06	-9.785148e-09	-4.441694e+01	-6.402632e+02
2.000000e-07	-6.374626e-06	-9.730442e-09	-4.409727e+01	-6.382250e+02
2.100000e-07	-6.325961e-06	-9.726319e-09	-4.376062e+01	-6.359475e+02
2.200000e-07	-6.274596e-06	-9.690241e-09	-4.340530e+01	-6.334265e+02
2.300000e-07	-6.220663e-06	-9.601622e-09	-4.303221e+01	-6.306733e+02
2.400000e-07	-6.164342e-06	-9.553921e-09	-4.264260e+01	-6.277112e+02
2.500000e-07	-6.105700e-06	-9.498648e-09	-4.223694e+01	-6.245700e+02
2.600000e-07	-6.044783e-06	-9.464944e-09	-4.181553e+01	-6.212798e+02
2.700000e-07	-5.981718e-06	-9.422349e-09	-4.137928e+01	-6.178655e+02
2.800000e-07	-5.916431e-06	-9.360733e-09	-4.092764e+01	-6.143434e+02
2.900000e-07	-5.848849e-06	-9.299308e-09	-4.046014e+01	-6.107193e+02
3.000000e-07	-5.779140e-06	-9.236917e-09	-3.997792e+01	-6.069900e+02
3.100000e-07	-5.707364e-06	-9.203978e-09	-3.948140e+01	-6.031453e+02
3.200000e-07	-5.633383e-06	-9.135897e-09	-3.896963e+01	-5.991725e+02
3.300000e-07	-5.557057e-06	-9.064811e-09	-3.844163e+01	-5.950593e+02
3.400000e-07	-5.478519e-06	-9.001007e-09	-3.789834e+01	-5.907970e+02
3.500000e-07	-5.397875e-06	-8.928283e-09	-3.734047e+01	-5.863817e+02
3.600000e-07	-5.315257e-06	-8.870778e-09	-3.676895e+01	-5.818143e+02
3.700000e-07	-5.230895e-06	-8.801024e-09	-3.618537e+01	-5.770987e+02
3.800000e-07	-5.144801e-06	-8.730072e-09	-3.558980e+01	-5.722400e+02
3.900000e-07	-5.056920e-06	-8.641196e-09	-3.498187e+01	-5.672421e+02
4.000000e-07	-4.967213e-06	-8.556057e-09	-3.436131e+01	-5.621065e+02
4.100000e-07	-4.875709e-06	-8.481898e-09	-3.372832e+01	-5.568313e+02
4.200000e-07	-4.782556e-06	-8.403986e-09	-3.308393e+01	-5.514116e+02
4.300000e-07	-4.687808e-06	-8.315077e-09	-3.242850e+01	-5.458411e+02
4.400000e-07	-4.591363e-06	-8.218661e-09	-3.176132e+01	-5.401130e+02
4.500000e-07	-4.493179e-06	-8.130594e-09	-3.108212e+01	-5.342219e+02
4.600000e-07	-4.393386e-06	-8.039179e-09	-3.039179e+01	-5.281639e+02
4.700000e-07	-4.292087e-06	-7.947555e-09	-2.969104e+01	-5.219374e+02
4.800000e-07	-4.189359e-06	-7.852121e-09	-2.898041e+01	-5.155420e+02
4.900000e-07	-4.085144e-06	-7.749008e-09	-2.825949e+01	-5.089777e+02
5.000000e-07	-3.979317e-06	-7.638409e-09	-2.752742e+01	-5.022438e+02
5.100000e-07	-3.871906e-06	-7.533681e-09	-2.678439e+01	-4.953384e+02
5.200000e-07	-3.763136e-06	-7.432660e-09	-2.603196e+01	-4.882580e+02
5.300000e-07	-3.653189e-06	-7.320868e-09	-2.527139e+01	-4.809981e+02
5.400000e-07	-3.541925e-06	-7.199055e-09	-2.450171e+01	-4.735538e+02
5.500000e-07	-3.429152e-06	-7.076048e-09	-2.372158e+01	-4.659211e+02
5.600000e-07	-3.314886e-06	-6.956999e-09	-2.293114e+01	-4.580971e+02
5.700000e-07	-3.199241e-06	-6.837753e-09	-2.213115e+01	-4.500803e+02
5.800000e-07	-3.082281e-06	-6.716231e-09	-2.132206e+01	-4.418702e+02
5.900000e-07	-2.964205e-06	-6.586539e-09	-2.050526e+01	-4.334659e+02
6.000000e-07	-2.845133e-06	-6.451707e-09	-1.968156e+01	-4.248652e+02
6.100000e-07	-2.724986e-06	-6.314137e-09	-1.885043e+01	-4.160628e+02
6.200000e-07	-2.603783e-06	-6.176608e-09	-1.801199e+01	-4.070506e+02
6.300000e-07	-2.481600e-06	-6.034998e-09	-1.716678e+01	-3.978174e+02
6.400000e-07	-2.358464e-06	-5.886610e-09	-1.631497e+01	-3.883502e+02
6.500000e-07	-2.234407e-06	-5.737080e-09	-1.545679e+01	-3.786360e+02
6.600000e-07	-2.109567e-06	-5.585271e-09	-1.459319e+01	-3.686638e+02
6.700000e-07	-1.984103e-06	-5.430063e-09	-1.372528e+01	-3.584260e+02
6.800000e-07	-1.858063e-06	-5.269814e-09	-1.285338e+01	-3.479193e+02
6.900000e-07	-1.731449e-06	-5.104158e-09	-1.197751e+01	-3.371444e+02
7.000000e-07	-1.604174e-06	-4.932574e-09	-1.109707e+01	-3.261041e+02
7.100000e-07	-1.476216e-06	-4.758063e-09	-1.021191e+01	-3.148011e+02
7.200000e-07	-1.347775e-06	-4.583091e-09	-9.323402e+00	-3.032351e+02
7.300000e-07	-1.218941e-06	-4.404887e-09	-8.432176e+00	-2.914003e+02
7.400000e-07	-1.089673e-06	-4.221458e-09	-7.537951e+00	-2.792841e+02
7.500000e-07	-9.600347e-07	-4.032697e-09	-6.641159e+00	-2.668669e+02
7.600000e-07	-8.300894e-07	-3.838462e-09	-5.742246e+00	-2.541239e+02
7.700000e-07	-6.999071e-07	-3.637395e-09	-4.841694e+00	-2.410279e+02
7.800000e-07	-5.694461e-07	-3.429954e-09	-3.939214e+00	-2.275520e+02
7.900000e-07	-4.388082e-07	-3.217760e-09	-3.035510e+00	-2.136736e+02
8.000000e-07	-3.080989e-07	-3.001512e-09	-2.131312e+00	-1.993757e+02
8.100000e-07	-1.771968e-07	-2.778405e-09	-1.225781e+00	-1.846473e+02
8.200000e-07	-4.609812e-08	-2.547995e-09	-3.188895e-01	-1.694816e+02
8.300000e-07	8.510018e-08	-2.312024e-09	5.886911e-01	-1.538723e+02
8.400000e-07	2.162891e-07	-2.069984e-09	1.496206e+00	-1.378091e+02
8.500000e-07	3.473770e-07	-1.819418e-09	2.403023e+00	-1.212734e+02
8.600000e-07	4.783331e-07	-1.561397e-09	3.308929e+00	-1.042349e+02
8.700000e-07	6.091383e-07	-1.295586e-09	4.213790e+00	-8.665148e+01
8.800000e-07	7.397770e-07	-1.017699e-09	5.117499e+00	-6.847179e+01
8.900000e-07	8.701857e-07	-7.295206e-10	6.019618e+00	-4.964154e+01
9.000000e-07	1.000263e-06	-4.322564e-10	6.919446e+00	-3.011278e+01
9.100000e-07	1.129996e-06	-1.233385e-10	7.816885e+00	-9.854770e+00
9.200000e-07	1.259363e-06	1.974004e-10	8.711800e+00	1.113502e+01
9.300000e-07	1.388294e-06	5.267166e-10	9.603697e+00	3.282178e+01
9.400000e-07	1.516677e-06	8.628444e-10	1.049180e+01	5.512786e+01
9.500000e-07	1.644500e-06	1.207017e-09	1.137603e+01	7.793202e+01
9.600000e-07	1.771719e-06	1.557618e-09	1.225609e+01	1.010742e+02
9.700000e-07	1.898201e-06	1.911691e-09	1.313104e+01	1.243653e+02
9.800000e-07	2.024018e-06	2.264835e-09	1.400140e+01	1.476005e+02
9.900000e-07	2.149247e-06	2.614233e-09	1.486768e+01	1.705756e+02
1.000000e-06	2.273777e-06	2.955996e-09	1.572913e+01	1.931017e+02
1.010000e-06	2.397517e-06	3.288258e-09	1.658512e+01	2.150190e+02
1.020000e-06	2.520323e-06	3.610271e-09	1.743464e+01	2.362059e+02
1.030000e-06	2.642113e-06	3.920101e-09	1.827715e+01	2.565829e+02
1.040000e-06	2.762948e-06	4.217654e-09	1.911303e+01	2.761117e+02
1.050000e-06	2.882724e-06	4.501297e-09	1.994160e+01	2.947890e+02
1.060000e-06	3.001371e-06	4.771084e-09	2.076235e+01	3.126381e+02
1.070000e-06	3.118967e-06	5.028558e-09	2.157584e+01	3.296981e+02
1.080000e-06	3.235451e-06	5.275711e-09	2.238163e+01	3.460141e+02
1.090000e-06	3.350682e-06	5.512174e-09	2.317876e+01	3.616297e+02
1.100000e-06	3.464514e-06	5.736736e-09	2.396620e+01	3.765816e+02
1.110000e-06	3.576933e-06	5.950767e-09	2.474388e+01	3.908985e+02
1.120000e-06	3.688017e-06	6.156401e-09	2.551231e+01	4.046023e+02
1.130000e-06	3.797853e-06	6.354579e-09	2.627212e+01	4.177115e+02
1.140000e-06	3.906525e-06	6.546375e-09	2.702388e+01	4.302448e+02
1.150000e-06	4.013956e-06	6.729908e-09	2.776704e+01	4.422244e+02
1.160000e-06	4.119960e-06	6.904859e-09	2.850034e+01	4.536775e+02
1.170000e-06	4.224395e-06	7.073180e-09	2.922278e+01	4.646362e+02
1.180000e-06	4.327270e-06	7.232556e-09	2.993443e+01	4.751350e+02
1.190000e-06	4.428578e-06	7.385824e-09	3.063524e+01	4.852073e+02
1.200000e-06	4.528331e-06	7.533304e-09	3.132529e+01	4.948820e+02
1.210000e-06	4.626443e-06	7.674033e-09	3.200400e+01	5.041806e+02
1.220000e-06	4.722774e-06	7.810105e-09	3.267037e+01	5.131154e+02
1.230000e-06	4.817388e-06	7.940357e-09	3.332488e+01	5.216906e+02
1.240000e-06	4.910424e-06	8.066890e-09	3.396847e+01	5.299045e+02
1.250000e-06	5.001855e-06	8.187813e-09	3.460095e+01	5.377531e+02
1.260000e-06	5.091476e-06	8.302572e-09	3.522092e+01	5.452343e+02
1.270000e-06	5.179132e-06	8.411368e-09	3.582729e+01	5.523514e+02
1.280000e-06	5.264893e-06	8.514260e-09	3.642055e+01	5.591153e+02
1.290000e-06	5.348901e-06	8.611801e-09	3.700169e+01	5.655449e+02
1.300000e-06	5.431054e-06	8.702945e-09	3.756999e+01	5.716655e+02
1.310000e-06	5.511178e-06	8.789434e-09	3.812426e+01	5.775058e+02
1.320000e-06	5.589264e-06	8.871700e-09	3.866443e+01	5.830950e+02
1.330000e-06	5.665271e-06	8.951353e-09	3.919022e+01	5.884585e+02
1.340000e-06	5.739032e-06	9.029906e-09	3.970047e+01	5.936161e+02
1.350000e-06	5.810598e-06	9.106807e-09	4.019554e+01	5.985806e+02
1.360000e-06	5.880117e-06	9.179862e-09	4.067644e+01	6.033582e+02
1.370000e-06	5.947591e-06	9.249606e-09	4.114320e+01	6.079497e+02
1.380000e-06	6.012918e-06	9.316424e-09	4.159511e+01	6.123535e+02
1.390000e-06	6.076074e-06	9.380676e-09	4.203199e+01	6.165668e+02
1.400000e-06	6.137184e-06	9.442467e-09	4.245473e+01	6.205880e+02
1.410000e-06	6.196242e-06	9.499620e-09	4.286327e+01	6.244172e+02
1.420000e-06	6.253063e-06	9.551694e-09	4.325634e+01	6.280561e+02
1.430000e-06	6.307615e-06	9.601781e-09	4.363371e+01	6.315072e+02
1.440000e-06	6.359821e-06	9.651809e-09	4.399485e+01	6.347726e+02
1.450000e-06	6.409432e-06	9.699237e-09	4.433804e+01	6.378532e+02
1.460000e-06	6.456517e-06	9.744327e-09	4.466376e+01	6.407486e+02
1.470000e-06	6.501411e-06	9.786074e-09	4.497432e+01	6.434570e+02
1.480000e-06	6.544155e-06	9.823356e-09	4.527000e+01	6.459766e+02
1.490000e-06	6.584462e-06	9.858271e-09	4.554884e+01	6.483071e+02
1.500000e-06	6.622416e-06	9.890965e-09	4.581138e+01	6.504500e+02
1.510000e-06	6.658189e-06	9.921223e-09	4.605885e+01	6.524102e+02
1.520000e-06	6.691539e-06	9.947376e-09	4.628955e+01	6.541952e+02
1.530000e-06	6.722425e-06	9.968926e-09	4.650321e+01	6.558142e+02
1.540000e-06	6.751097e-06	9.988486e-09	4.670155e+01	6.572768e+02
1.550000e-06	6.777403e-06	1.000732e-08	4.688353e+01	6.585913e+02
1.560000e-06	6.801129e-06	1.002490e-08	4.704765e+01	6.597633e+02
1.570000e-06	6.822469e-06	1.003986e-08	4.719528e+01	6.607957e+02
1.580000e-06	6.841512e-06	1.005321e-08	4.732701e+01	6.616888e+02
1.590000e-06	6.858036e-06	1.006403e-08	4.744132e+01	6.624416e+02
1.600000e-06	6.871983e-06	1.007321e-08	4.753780e+01	6.630534e+02
1.610000e-06	6.883239e-06	1.008101e-08	4.761566e+01	6.635256e+02
1.620000e-06	6.891721e-06	1.008656e-08	4.767434e+01	6.638622e+02
1.630000e-06	6.897747e-06	1.009006e-08	4.771602e+01	6.640695e+02
1.640000e-06	6.901494e-06	1.009116e-08	4.774194e+01	6.641554e+02
1.650000e-06	6.902767e-06	1.009159e-08	4.775075e+01	6.641269e+02
1.660000e-06	6.901572e-06	1.009265e-08	4.774248e+01	6.639886e+02
1.670000e-06	6.898225e-06	1.008978e-08	4.771933e+01	6.637406e+02
1.680000e-06	6.892565e-06	1.008324e-08	4.768018e+01	6.633785e+02
1.690000e-06	6.884538e-06	1.007489e-08	4.762464e+01	6.628942e+02
1.700000e-06	6.874378e-06	1.006591e-08	4.755436e+01	6.622786e+02
1.710000e-06	6.861950e-06	1.005605e-08	4.746839e+01	6.615249e+02
1.720000e-06	6.847112e-06	1.004074e-08	4.736575e+01	6.606321e+02
1.730000e-06	6.830078e-06	1.002244e-08	4.724791e+01	6.596079e+02
1.740000e-06	6.810857e-06	9.995442e-09	4.711495e+01	6.584691e+02
1.750000e-06	6.788648e-06	9.951961e-09	4.696132e+01	6.572406e+02
1.760000e-06	6.763079e-06	9.942024e-09	4.678444e+01	6.559517e+02
1.770000e-06	6.734814e-06	9.943563e-09	4.658891e+01	6.546306e+02
1.780000e-06	6.704399e-06	9.915098e-09	4.637851e+01	6.532990e+02
1.790000e-06	6.672403e-06	9.941035e-09	4.615718e+01	6.519661e+02
1.800000e-06	6.638956e-06	9.932371e-09	4.592580e+01	6.506259e+02
1.810000e-06	6.603168e-06	9.845352e-09	4.567823e+01	6.492559e+02
1.820000e-06	6.564815e-06	9.887428e-09	4.541292e+01	6.478202e+02
1.830000e-06	6.524412e-06	9.856474e-09	4.513343e+01	6.462737e+02
1.840000e-06	6.481867e-06	9.814142e-09	4.483912e+01	6.445698e+02
1.850000e-06	6.437019e-06	9.821559e-09	4.452888e+01	6.426672e+02
1.860000e-06	6.389819e-06	9.727727e-09	4.420236e+01	6.405359e+02
1.870000e-06	6.340237e-06	9.738272e-09	4.385938e+01	6.381617e+02
1.880000e-06	6.288363e-06	9.704719e-09	4.350054e+01	6.355467e+02
1.890000e-06	6.233808e-06	9.667322e-09	4.312314e+01	6.327075e+02
1.900000e-06	6.176712e-06	9.654325e-09	4.272817e+01	6.296707e+02
1.910000e-06	6.117354e-06	9.545121e-09	4.231756e+01	6.264669e+02
1.920000e-06	6.055559e-06	9.514368e-09	4.189008e+01	6.231247e+02
1.930000e-06	5.991593e-06	9.460978e-09	4.144759e+01	6.196660e+02
1.940000e-06	5.925535e-06	9.414641e-09	4.099062e+01	6.161030e+02
1.950000e-06	5.857322e-06	9.371693e-09	4.051875e+01	6.124378e+02
1.960000e-06	5.786761e-06	9.284059e-09	4.003064e+01	6.086640e+02
1.970000e-06	5.713831e-06	9.256429e-09	3.952614e+01	6.047699e+02
1.980000e-06	5.638831e-06	9.167844e-09	3.900731e+01	6.007426e+02
1.990000e-06	5.561583e-06	9.120787e-09	3.847294e+01	5.965709e+02
2.000000e-06	5.482152e-06	9.059007e-09	3.792347e+01	5.922480e+02
2.010000e-06	5.400803e-06	8.966177e-09	3.736073e+01	5.877720e+02
2.020000e-06	5.317697e-06	8.901715e-09	3.678583e+01	5.831451e+02
2.030000e-06	5.232652e-06	8.817836e-09	3.619752e+01	5.783721e+02
2.040000e-06	5.145493e-06	8.771769e-09	3.559459e+01	5.734577e+02
2.050000e-06	5.056557e-06	8.686492e-09	3.497936e+01	5.684051e+02
2.060000e-06	4.966004e-06	8.609404e-09	3.435295e+01	5.632144e+02
2.070000e-06	4.873846e-06	8.532406e-09	3.371544e+01	5.578824e+02
2.080000e-06	4.779925e-06	8.446163e-09	3.306572e+01	5.524037e+02
2.090000e-06	4.684221e-06	8.363041e-09	3.240368e+01	5.467714e+02
2.100000e-06	4.586941e-06	8.268192e-09	3.173073e+01	5.409792e+02
2.110000e-06	4.488183e-06	8.186672e-09	3.104756e+01	5.350222e+02
2.120000e-06	4.387872e-06	8.083805e-09	3.035365e+01	5.288974e+02
2.130000e-06	4.285984e-06	7.985968e-09	2.964883e+01	5.226039e+02
2.140000e-06	4.182490e-06	7.888793e-09	2.893289e+01	5.161415e+02
2.150000e-06	4.077407e-06	7.795659e-09	2.820597e+01	5.095101e+02
2.160000e-06	3.970965e-06	7.691943e-09	2.746965e+01	5.027085e+02
2.170000e-06	3.863193e-06	7.585416e-09	2.672412e+01	4.957342e+02
2.180000e-06	3.754031e-06	7.478439e-09	2.596897e+01	4.885832e+02
2.190000e-06	3.643379e-06	7.365818e-09	2.520353e+01	4.812507e+02
2.200000e-06	3.531331e-06	7.256050e-09	2.442842e+01	4.737322e+02
2.210000e-06	3.418000e-06	7.138350e-09	2.364444e+01	4.660239e+02
2.220000e-06	3.303316e-06	7.016914e-09	2.285110e+01	4.581236e+02
2.230000e-06	3.187201e-06	6.887850e-09	2.204786e+01	4.500303e+02
2.240000e-06	3.069663e-06	6.763270e-09	2.123478e+01	4.417434e+02
2.250000e-06	2.950942e-06	6.637023e-09	2.041351e+01	4.332617e+02
2.260000e-06	2.831098e-06	6.509477e-09	1.958448e+01	4.245819e+02
2.270000e-06	2.710161e-06	6.376847e-09	1.874788e+01	4.156976e+02
2.280000e-06	2.588287e-06	6.240448e-09	1.790479e+01	4.065994e+02
2.290000e-06	2.465611e-06	6.097536e-09	1.705617e+01	3.972752e+02
2.300000e-06	2.342116e-06	5.949537e-09	1.620188e+01	3.877118e+02
2.310000e-06	2.217786e-06	5.801637e-09	1.534181e+01	3.778968e+02
2.320000e-06	2.092687e-06	5.648775e-09	1.447642e+01	3.678202e+02
2.330000e-06	1.966848e-06	5.490142e-09	1.360592e+01	3.574762e+02
2.340000e-06	1.840343e-06	5.327852e-09	1.273080e+01	3.468633e+02
2.350000e-06	1.713167e-06	5.165147e-09	1.185105e+01	3.359831e+02
2.360000e-06	1.585334e-06	4.997637e-09	1.096675e+01	3.248387e+02
2.370000e-06	1.456913e-06	4.825596e-09	1.007838e+01	3.134320e+02
2.380000e-06	1.328048e-06	4.647434e-09	9.186936e+00	3.017608e+02
2.390000e-06	1.198849e-06	4.463024e-09	8.293186e+00	2.898167e+02
2.400000e-06	1.069350e-06	4.273767e-09	7.397358e+00	2.775843e+02
2.410000e-06	9.395102e-07	4.082298e-09	6.499178e+00	2.650416e+02
2.420000e-06	8.093662e-07	3.888093e-09	5.598891e+00	2.521626e+02
2.430000e-06	6.789737e-07	3.686989e-09	4.696885e+00	2.389197e+02
2.440000e-06	5.483884e-07	3.478775e-09	3.793545e+00	2.252875e+02
2.450000e-06	4.176182e-07	3.263077e-09	2.888925e+00	2.112453e+02
2.460000e-06	2.866628e-07	3.041017e-09	1.983026e+00	1.967787e+02
2.470000e-06	1.556073e-07	2.811879e-09	1.076433e+00	1.818785e+02
2.480000e-06	2.451917e-08	2.576433e-09	1.696144e-01	1.665387e+02
2.490000e-06	-1.065714e-07	2.337151e-09	-7.372207e-01	1.507520e+02
2.500000e-06	-2.377217e-07	2.088695e-09	-1.644469e+00	1.345053e+02
2.510000e-06	-3.688555e-07	1.829401e-09	-2.551604e+00	1.177757e+02
2.520000e-06	-4.998670e-07	1.562655e-09	-3.457892e+00	1.005282e+02
2.530000e-06	-6.307225e-07	1.289174e-09	-4.363101e+00	8.271631e+01
2.540000e-06	-7.613895e-07	1.009170e-09	-5.267006e+00	6.428674e+01
2.550000e-06	-8.917820e-07	7.187153e-10	-6.169013e+00	4.518645e+01
2.560000e-06	-1.021851e-06	4.165797e-10	-7.068780e+00	2.537288e+01
2.570000e-06	-1.151642e-06	1.049967e-10	-7.966624e+00	4.825138e+00
2.580000e-06	-1.281122e-06	-2.187830e-10	-8.862324e+00	-1.644556e+01
2.590000e-06	-1.410186e-06	-5.559219e-10	-9.755134e+00	-3.838800e+01
2.600000e-06	-1.538730e-06	-9.020364e-10	-1.064435e+01	-6.090717e+01
2.610000e-06	-1.666728e-06	-1.254458e-09	-1.152980e+01	-8.386575e+01
2.620000e-06	-1.794039e-06	-1.612194e-09	-1.241049e+01	-1.070908e+02
2.630000e-06	-1.920559e-06	-1.971565e-09	-1.328570e+01	-1.303854e+02
2.640000e-06	-2.046354e-06	-2.327432e-09	-1.415591e+01	-1.535429e+02
2.650000e-06	-2.171414e-06	-2.677127e-09	-1.502102e+01	-1.763634e+02
2.660000e-06	-2.295629e-06	-3.019152e-09	-1.588030e+01	-1.986681e+02
2.670000e-06	-2.418861e-06	-3.348817e-09	-1.673277e+01	-2.203113e+02
2.680000e-06	-2.541131e-06	-3.664632e-09	-1.757859e+01	-2.411878e+02
2.690000e-06	-2.662499e-06	-3.969230e-09	-1.841817e+01	-2.612347e+02
2.700000e-06	-2.782945e-06	-4.263501e-09	-1.925137e+01	-2.804283e+02
2.710000e-06	-2.902431e-06	-4.547484e-09	-2.007793e+01	-2.987770e+02
2.720000e-06	-3.020725e-06	-4.820046e-09	-2.089624e+01	-3.163116e+02
2.730000e-06	-3.137749e-06	-5.079703e-09	-2.170577e+01	-3.330745e+02
2.740000e-06	-3.253480e-06	-5.326320e-09	-2.250635e+01	-3.491112e+02
2.750000e-06	-3.367864e-06	-5.560412e-09	-2.329761e+01	-3.644627e+02
2.760000e-06	-3.480917e-06	-5.784787e-09	-2.407967e+01	-3.791628e+02
2.770000e-06	-3.592592e-06	-6.000854e-09	-2.485220e+01	-3.932371e+02
2.780000e-06	-3.702896e-06	-6.207946e-09	-2.561524e+01	-4.067059e+02
2.790000e-06	-3.811925e-06	-6.406878e-09	-2.636946e+01	-4.195871e+02
2.800000e-06	-3.919756e-06	-6.598260e-09	-2.711540e+01	-4.319006e+02
2.810000e-06	-4.026305e-06	-6.780895e-09	-2.785247e+01	-4.436705e+02
2.820000e-06	-4.131458e-06	-6.953810e-09	-2.857987e+01	-4.549261e+02
2.830000e-06	-4.235101e-06	-7.117050e-09	-2.929684e+01	-4.657006e+02
2.840000e-06	-4.337132e-06	-7.271883e-09	-3.000265e+01	-4.760286e+02
2.850000e-06	-4.437544e-06	-7.421960e-09	-3.069726e+01	-4.859423e+02
2.860000e-06	-4.536409e-06	-7.567102e-09	-3.138117e+01	-4.954679e+02
2.870000e-06	-4.633772e-06	-7.707160e-09	-3.205469e+01	-5.046232e+02
2.880000e-06	-4.729541e-06	-7.842011e-09	-3.271719e+01	-5.134173e+02
2.890000e-06	-4.823553e-06	-7.971660e-09	-3.336753e+01	-5.218516e+02
2.900000e-06	-4.915830e-06	-8.096797e-09	-3.400586e+01	-5.299231e+02
2.910000e-06	-5.006427e-06	-8.215321e-09	-3.463258e+01	-5.376280e+02
2.920000e-06	-5.095225e-06	-8.327358e-09	-3.524685e+01	-5.449660e+02
2.930000e-06	-5.182090e-06	-8.433821e-09	-3.584775e+01	-5.519433e+02
2.940000e-06	-5.266982e-06	-8.533711e-09	-3.643500e+01	-5.585739e+02
