# Temperatura_=_29.73
# Concentracion g/m^3_=_15000.0
# C_Vs_to_Am_M_A/Vsm_=_65563218390.804596
# pendiente_HvsI_1/m_=_3716.3
# ordenada_HvsI_A/m_=_1297.0
# frecuencia_Hz_=_301892.5979371707

Tiempo_(s)	Campo_(V.s)	Magnetizacion_(V.s)	Campo_(kA/m)	Magnetizacion_(A/m)
0.000000e+00	-6.865814e-06	-8.156885e-09	-4.749849e+01	-5.332540e+02
1.000000e-08	-6.863007e-06	-8.153998e-09	-4.747907e+01	-5.331375e+02
2.000000e-08	-6.857927e-06	-8.152143e-09	-4.744392e+01	-5.329336e+02
3.000000e-08	-6.850729e-06	-8.149096e-09	-4.739413e+01	-5.326329e+02
4.000000e-08	-6.841191e-06	-8.143319e-09	-4.732815e+01	-5.322288e+02
5.000000e-08	-6.829178e-06	-8.134737e-09	-4.724504e+01	-5.317201e+02
6.000000e-08	-6.814706e-06	-8.124023e-09	-4.714492e+01	-5.311123e+02
7.000000e-08	-6.797840e-06	-8.116793e-09	-4.702824e+01	-5.304178e+02
8.000000e-08	-6.778738e-06	-8.111424e-09	-4.689609e+01	-5.296538e+02
9.000000e-08	-6.757299e-06	-8.090247e-09	-4.674777e+01	-5.288397e+02
1.000000e-07	-6.733088e-06	-8.083735e-09	-4.658028e+01	-5.279936e+02
1.100000e-07	-6.706105e-06	-8.071075e-09	-4.639360e+01	-5.271291e+02
1.200000e-07	-6.676791e-06	-8.037728e-09	-4.619081e+01	-5.262533e+02
1.300000e-07	-6.645480e-06	-8.015680e-09	-4.597419e+01	-5.253657e+02
1.400000e-07	-6.612248e-06	-8.017240e-09	-4.574429e+01	-5.244586e+02
1.500000e-07	-6.577069e-06	-7.974444e-09	-4.550092e+01	-5.235185e+02
1.600000e-07	-6.539811e-06	-7.967496e-09	-4.524317e+01	-5.225277e+02
1.700000e-07	-6.500458e-06	-7.978809e-09	-4.497091e+01	-5.214668e+02
1.800000e-07	-6.458816e-06	-7.911326e-09	-4.468283e+01	-5.203160e+02
1.900000e-07	-6.414671e-06	-7.919694e-09	-4.437743e+01	-5.190570e+02
2.000000e-07	-6.368232e-06	-7.918480e-09	-4.405616e+01	-5.176738e+02
2.100000e-07	-6.319247e-06	-7.904569e-09	-4.371728e+01	-5.161536e+02
2.200000e-07	-6.267514e-06	-7.903721e-09	-4.335938e+01	-5.144878e+02
2.300000e-07	-6.213334e-06	-7.834252e-09	-4.298456e+01	-5.126724e+02
2.400000e-07	-6.156789e-06	-7.784178e-09	-4.259337e+01	-5.107092e+02
2.500000e-07	-6.097901e-06	-7.752670e-09	-4.218598e+01	-5.086053e+02
2.600000e-07	-6.036795e-06	-7.712171e-09	-4.176324e+01	-5.063732e+02
2.700000e-07	-5.973472e-06	-7.679165e-09	-4.132517e+01	-5.040292e+02
2.800000e-07	-5.907914e-06	-7.644358e-09	-4.087163e+01	-5.015909e+02
2.900000e-07	-5.840155e-06	-7.601095e-09	-4.040286e+01	-4.990747e+02
3.000000e-07	-5.770244e-06	-7.547648e-09	-3.991921e+01	-4.964923e+02
3.100000e-07	-5.698184e-06	-7.539503e-09	-3.942069e+01	-4.938485e+02
3.200000e-07	-5.623815e-06	-7.513979e-09	-3.890620e+01	-4.911395e+02
3.300000e-07	-5.547152e-06	-7.446759e-09	-3.837584e+01	-4.883539e+02
3.400000e-07	-5.468308e-06	-7.400375e-09	-3.783038e+01	-4.854744e+02
3.500000e-07	-5.387291e-06	-7.354621e-09	-3.726990e+01	-4.824814e+02
3.600000e-07	-5.304379e-06	-7.314333e-09	-3.669630e+01	-4.793574e+02
3.700000e-07	-5.219806e-06	-7.264940e-09	-3.611122e+01	-4.760903e+02
3.800000e-07	-5.133522e-06	-7.210249e-09	-3.551429e+01	-4.726761e+02
3.900000e-07	-5.045463e-06	-7.145613e-09	-3.490509e+01	-4.691197e+02
4.000000e-07	-4.955585e-06	-7.075344e-09	-3.428330e+01	-4.654327e+02
4.100000e-07	-4.863968e-06	-7.025672e-09	-3.364949e+01	-4.616304e+02
4.200000e-07	-4.770726e-06	-6.981764e-09	-3.300443e+01	-4.577275e+02
4.300000e-07	-4.675781e-06	-6.923674e-09	-3.234759e+01	-4.537335e+02
4.400000e-07	-4.579145e-06	-6.848371e-09	-3.167905e+01	-4.496504e+02
4.500000e-07	-4.480799e-06	-6.776490e-09	-3.099868e+01	-4.454713e+02
4.600000e-07	-4.380791e-06	-6.711007e-09	-3.030682e+01	-4.411820e+02
4.700000e-07	-4.279329e-06	-6.644606e-09	-2.960489e+01	-4.367637e+02
4.800000e-07	-4.176402e-06	-6.580471e-09	-2.889283e+01	-4.321977e+02
4.900000e-07	-4.071967e-06	-6.509838e-09	-2.817034e+01	-4.274688e+02
5.000000e-07	-3.966014e-06	-6.428509e-09	-2.743734e+01	-4.225688e+02
5.100000e-07	-3.858500e-06	-6.349249e-09	-2.669355e+01	-4.174969e+02
5.200000e-07	-3.749589e-06	-6.274563e-09	-2.594009e+01	-4.122588e+02
5.300000e-07	-3.639473e-06	-6.190455e-09	-2.517829e+01	-4.068637e+02
5.400000e-07	-3.528047e-06	-6.094489e-09	-2.440744e+01	-4.013209e+02
5.500000e-07	-3.415072e-06	-6.000358e-09	-2.362586e+01	-3.956358e+02
5.600000e-07	-3.300620e-06	-5.911361e-09	-2.283407e+01	-3.898079e+02
5.700000e-07	-3.184826e-06	-5.826709e-09	-2.203299e+01	-3.838304e+02
5.800000e-07	-3.067759e-06	-5.741565e-09	-2.122311e+01	-3.776913e+02
5.900000e-07	-2.949556e-06	-5.648630e-09	-2.040537e+01	-3.713763e+02
6.000000e-07	-2.830358e-06	-5.545083e-09	-1.958074e+01	-3.648724e+02
6.100000e-07	-2.710158e-06	-5.436149e-09	-1.874918e+01	-3.581701e+02
6.200000e-07	-2.588869e-06	-5.330526e-09	-1.791009e+01	-3.512651e+02
6.300000e-07	-2.466601e-06	-5.223611e-09	-1.706423e+01	-3.441579e+02
6.400000e-07	-2.343452e-06	-5.108410e-09	-1.621227e+01	-3.368519e+02
6.500000e-07	-2.219411e-06	-4.987664e-09	-1.535414e+01	-3.293497e+02
6.600000e-07	-2.094550e-06	-4.867304e-09	-1.449034e+01	-3.216506e+02
6.700000e-07	-1.969068e-06	-4.747623e-09	-1.362224e+01	-3.137477e+02
6.800000e-07	-1.842995e-06	-4.626582e-09	-1.275005e+01	-3.056277e+02
6.900000e-07	-1.716255e-06	-4.503174e-09	-1.187325e+01	-2.972718e+02
7.000000e-07	-1.588899e-06	-4.372646e-09	-1.099219e+01	-2.886589e+02
7.100000e-07	-1.461013e-06	-4.235097e-09	-1.010745e+01	-2.797687e+02
7.200000e-07	-1.332595e-06	-4.093462e-09	-9.219042e+00	-2.705854e+02
7.300000e-07	-1.203712e-06	-3.947666e-09	-8.327418e+00	-2.610998e+02
7.400000e-07	-1.074413e-06	-3.797415e-09	-7.432913e+00	-2.513090e+02
7.500000e-07	-9.447171e-07	-3.641336e-09	-6.535661e+00	-2.412153e+02
7.600000e-07	-8.147173e-07	-3.478052e-09	-5.636308e+00	-2.308227e+02
7.700000e-07	-6.844505e-07	-3.311306e-09	-4.735107e+00	-2.201331e+02
7.800000e-07	-5.539353e-07	-3.143506e-09	-3.832188e+00	-2.091439e+02
7.900000e-07	-4.232427e-07	-2.973912e-09	-2.928042e+00	-1.978454e+02
8.000000e-07	-2.924366e-07	-2.799974e-09	-2.023110e+00	-1.862222e+02
8.100000e-07	-1.615514e-07	-2.618445e-09	-1.117631e+00	-1.742545e+02
8.200000e-07	-3.058664e-08	-2.431565e-09	-2.116019e-01	-1.619212e+02
8.300000e-07	1.004387e-07	-2.240305e-09	6.948461e-01	-1.492033e+02
8.400000e-07	2.314693e-07	-2.043692e-09	1.601331e+00	-1.360856e+02
8.500000e-07	3.624773e-07	-1.839562e-09	2.507659e+00	-1.225568e+02
8.600000e-07	4.933977e-07	-1.627676e-09	3.413382e+00	-1.086081e+02
8.700000e-07	6.242005e-07	-1.407951e-09	4.318291e+00	-9.422978e+01
8.800000e-07	7.548625e-07	-1.180317e-09	5.222225e+00	-7.940805e+01
8.900000e-07	8.852768e-07	-9.467719e-10	6.124447e+00	-6.412333e+01
9.000000e-07	1.015342e-06	-7.079002e-10	7.024255e+00	-4.835065e+01
9.100000e-07	1.145056e-06	-4.613964e-10	7.921631e+00	-3.206335e+01
9.200000e-07	1.274393e-06	-2.052442e-10	8.816394e+00	-1.523998e+01
9.300000e-07	1.403211e-06	5.877944e-11	9.707578e+00	2.126927e+00
9.400000e-07	1.531447e-06	3.287134e-10	1.059473e+01	2.002171e+01
9.500000e-07	1.659161e-06	6.056652e-10	1.147826e+01	3.839823e+01
9.600000e-07	1.786287e-06	8.883501e-10	1.235774e+01	5.717617e+01
9.700000e-07	1.912680e-06	1.176825e-09	1.323214e+01	7.624223e+01
9.800000e-07	2.038417e-06	1.469684e-09	1.410200e+01	9.545649e+01
9.900000e-07	2.163553e-06	1.763906e-09	1.496771e+01	1.146630e+02
1.000000e-06	2.287961e-06	2.056717e-09	1.582838e+01	1.337029e+02
1.010000e-06	2.411509e-06	2.343247e-09	1.668310e+01	1.524278e+02
1.020000e-06	2.534153e-06	2.621713e-09	1.753156e+01	1.707109e+02
1.030000e-06	2.655840e-06	2.889405e-09	1.837341e+01	1.884546e+02
1.040000e-06	2.776453e-06	3.145813e-09	1.920782e+01	2.055925e+02
1.050000e-06	2.895995e-06	3.393978e-09	2.003483e+01	2.220880e+02
1.060000e-06	3.014494e-06	3.632431e-09	2.085461e+01	2.379279e+02
1.070000e-06	3.131958e-06	3.860898e-09	2.166724e+01	2.531154e+02
1.080000e-06	3.248289e-06	4.080397e-09	2.247203e+01	2.676628e+02
1.090000e-06	3.363313e-06	4.291743e-09	2.326779e+01	2.815853e+02
1.100000e-06	3.476935e-06	4.492915e-09	2.405383e+01	2.948978e+02
1.110000e-06	3.589168e-06	4.686037e-09	2.483028e+01	3.076145e+02
1.120000e-06	3.700082e-06	4.871614e-09	2.559760e+01	3.197497e+02
1.130000e-06	3.809776e-06	5.047276e-09	2.635647e+01	3.313203e+02
1.140000e-06	3.918326e-06	5.215555e-09	2.710743e+01	3.423470e+02
1.150000e-06	4.025571e-06	5.377045e-09	2.784937e+01	3.528551e+02
1.160000e-06	4.131349e-06	5.531086e-09	2.858114e+01	3.628729e+02
1.170000e-06	4.235590e-06	5.677354e-09	2.930229e+01	3.724295e+02
1.180000e-06	4.338290e-06	5.816015e-09	3.001279e+01	3.815511e+02
1.190000e-06	4.439531e-06	5.948690e-09	3.071318e+01	3.902587e+02
1.200000e-06	4.539258e-06	6.076108e-09	3.140311e+01	3.985664e+02
1.210000e-06	4.637300e-06	6.195466e-09	3.208137e+01	4.064822e+02
1.220000e-06	4.733528e-06	6.307674e-09	3.274709e+01	4.140101e+02
1.230000e-06	4.827970e-06	6.414596e-09	3.340045e+01	4.211537e+02
1.240000e-06	4.920766e-06	6.516996e-09	3.404243e+01	4.279205e+02
1.250000e-06	5.011942e-06	6.614658e-09	3.467319e+01	4.343246e+02
1.260000e-06	5.101277e-06	6.707519e-09	3.529122e+01	4.403884e+02
1.270000e-06	5.188687e-06	6.796419e-09	3.589593e+01	4.461414e+02
1.280000e-06	5.274280e-06	6.881612e-09	3.648808e+01	4.516179e+02
1.290000e-06	5.358085e-06	6.962877e-09	3.706784e+01	4.568525e+02
1.300000e-06	5.439957e-06	7.037497e-09	3.763425e+01	4.618761e+02
1.310000e-06	5.519809e-06	7.107300e-09	3.818667e+01	4.667124e+02
1.320000e-06	5.597676e-06	7.174864e-09	3.872536e+01	4.713759e+02
1.330000e-06	5.673431e-06	7.240515e-09	3.924945e+01	4.758723e+02
1.340000e-06	5.746972e-06	7.307847e-09	3.975821e+01	4.802002e+02
1.350000e-06	5.818320e-06	7.374971e-09	4.025181e+01	4.843546e+02
1.360000e-06	5.887607e-06	7.437949e-09	4.073114e+01	4.883300e+02
1.370000e-06	5.954877e-06	7.495130e-09	4.119652e+01	4.921229e+02
1.380000e-06	6.019912e-06	7.547813e-09	4.164645e+01	4.957333e+02
1.390000e-06	6.082768e-06	7.598626e-09	4.208129e+01	4.991644e+02
1.400000e-06	6.143710e-06	7.646768e-09	4.250289e+01	5.024209e+02
1.410000e-06	6.202624e-06	7.690671e-09	4.291047e+01	5.055074e+02
1.420000e-06	6.259332e-06	7.732182e-09	4.330278e+01	5.084263e+02
1.430000e-06	6.313756e-06	7.773111e-09	4.367929e+01	5.111770e+02
1.440000e-06	6.365632e-06	7.813384e-09	4.403818e+01	5.137565e+02
1.450000e-06	6.414826e-06	7.850818e-09	4.437850e+01	5.161605e+02
1.460000e-06	6.461601e-06	7.884834e-09	4.470210e+01	5.183862e+02
1.470000e-06	6.506234e-06	7.915387e-09	4.501087e+01	5.204340e+02
1.480000e-06	6.548588e-06	7.943415e-09	4.530389e+01	5.223095e+02
1.490000e-06	6.588500e-06	7.970484e-09	4.558000e+01	5.240234e+02
1.500000e-06	6.626140e-06	7.994360e-09	4.584040e+01	5.255900e+02
1.510000e-06	6.661607e-06	8.014151e-09	4.608576e+01	5.270253e+02
1.520000e-06	6.694670e-06	8.031942e-09	4.631450e+01	5.283438e+02
1.530000e-06	6.725318e-06	8.049056e-09	4.652652e+01	5.295559e+02
1.540000e-06	6.753767e-06	8.067275e-09	4.672333e+01	5.306665e+02
1.550000e-06	6.779767e-06	8.083581e-09	4.690320e+01	5.316751e+02
1.560000e-06	6.803216e-06	8.095730e-09	4.706543e+01	5.325771e+02
1.570000e-06	6.824306e-06	8.105965e-09	4.721133e+01	5.333664e+02
1.580000e-06	6.842988e-06	8.116687e-09	4.734057e+01	5.340383e+02
1.590000e-06	6.859137e-06	8.126929e-09	4.745230e+01	5.345919e+02
1.600000e-06	6.872739e-06	8.134303e-09	4.754640e+01	5.350312e+02
1.610000e-06	6.883673e-06	8.140616e-09	4.762204e+01	5.353644e+02
1.620000e-06	6.891911e-06	8.145456e-09	4.767903e+01	5.356028e+02
1.630000e-06	6.897705e-06	8.149088e-09	4.771911e+01	5.357573e+02
1.640000e-06	6.901205e-06	8.152795e-09	4.774333e+01	5.358362e+02
1.650000e-06	6.902278e-06	8.154928e-09	4.775075e+01	5.358426e+02
1.660000e-06	6.900879e-06	8.155550e-09	4.774107e+01	5.357743e+02
1.670000e-06	6.897290e-06	8.153606e-09	4.771625e+01	5.356243e+02
1.680000e-06	6.891388e-06	8.147161e-09	4.767541e+01	5.353831e+02
1.690000e-06	6.883096e-06	8.141386e-09	4.761805e+01	5.350420e+02
1.700000e-06	6.872637e-06	8.136239e-09	4.754569e+01	5.345963e+02
1.710000e-06	6.859849e-06	8.129740e-09	4.745722e+01	5.340473e+02
1.720000e-06	6.844681e-06	8.117474e-09	4.735229e+01	5.334033e+02
1.730000e-06	6.827401e-06	8.095584e-09	4.723275e+01	5.326790e+02
1.740000e-06	6.807862e-06	8.092545e-09	4.709757e+01	5.318927e+02
1.750000e-06	6.785190e-06	8.072281e-09	4.694072e+01	5.310637e+02
1.760000e-06	6.759195e-06	8.057312e-09	4.676089e+01	5.302087e+02
1.770000e-06	6.730617e-06	8.066025e-09	4.656318e+01	5.293390e+02
1.780000e-06	6.699976e-06	8.046111e-09	4.635121e+01	5.284587e+02
1.790000e-06	6.667845e-06	8.031823e-09	4.612892e+01	5.275644e+02
1.800000e-06	6.634207e-06	8.064052e-09	4.589621e+01	5.266459e+02
1.810000e-06	6.598114e-06	8.002891e-09	4.564651e+01	5.256878e+02
1.820000e-06	6.559483e-06	8.006298e-09	4.537925e+01	5.246716e+02
1.830000e-06	6.518795e-06	8.021314e-09	4.509777e+01	5.235774e+02
1.840000e-06	6.475928e-06	7.928206e-09	4.480121e+01	5.223859e+02
1.850000e-06	6.430831e-06	7.931180e-09	4.448922e+01	5.210795e+02
1.860000e-06	6.383351e-06	7.881863e-09	4.416075e+01	5.196435e+02
1.870000e-06	6.333470e-06	7.846897e-09	4.381567e+01	5.180665e+02
1.880000e-06	6.281288e-06	7.864173e-09	4.345467e+01	5.163418e+02
1.890000e-06	6.226420e-06	7.831192e-09	4.307509e+01	5.144675e+02
1.900000e-06	6.169034e-06	7.834447e-09	4.267809e+01	5.124475e+02
1.910000e-06	6.109367e-06	7.788174e-09	4.226530e+01	5.102912e+02
1.920000e-06	6.047338e-06	7.732351e-09	4.183618e+01	5.080127e+02
1.930000e-06	5.983160e-06	7.713560e-09	4.139219e+01	5.056293e+02
1.940000e-06	5.916822e-06	7.674925e-09	4.093325e+01	5.031583e+02
1.950000e-06	5.848327e-06	7.649467e-09	4.045940e+01	5.006148e+02
1.960000e-06	5.777465e-06	7.578230e-09	3.996917e+01	4.980078e+02
1.970000e-06	5.704273e-06	7.549047e-09	3.946281e+01	4.953389e+02
1.980000e-06	5.629036e-06	7.510418e-09	3.894232e+01	4.926013e+02
1.990000e-06	5.551513e-06	7.459492e-09	3.840600e+01	4.897807e+02
2.000000e-06	5.471827e-06	7.432178e-09	3.785472e+01	4.868587e+02
2.010000e-06	5.390259e-06	7.369034e-09	3.729043e+01	4.838158e+02
2.020000e-06	5.306912e-06	7.321643e-09	3.671382e+01	4.806362e+02
2.030000e-06	5.221623e-06	7.265099e-09	3.612379e+01	4.773110e+02
2.040000e-06	5.134278e-06	7.230676e-09	3.551952e+01	4.738396e+02
2.050000e-06	5.045200e-06	7.179676e-09	3.490328e+01	4.702299e+02
2.060000e-06	4.954604e-06	7.110603e-09	3.427652e+01	4.664954e+02
2.070000e-06	4.862392e-06	7.054537e-09	3.363859e+01	4.626517e+02
2.080000e-06	4.768334e-06	6.992602e-09	3.298788e+01	4.587119e+02
2.090000e-06	4.672504e-06	6.943825e-09	3.232492e+01	4.546829e+02
2.100000e-06	4.575083e-06	6.882762e-09	3.165095e+01	4.505630e+02
2.110000e-06	4.476197e-06	6.828200e-09	3.096685e+01	4.463424e+02
2.120000e-06	4.375754e-06	6.755615e-09	3.027197e+01	4.420044e+02
2.130000e-06	4.273623e-06	6.669672e-09	2.956541e+01	4.375299e+02
2.140000e-06	4.169889e-06	6.591711e-09	2.884777e+01	4.329010e+02
2.150000e-06	4.064633e-06	6.524591e-09	2.811960e+01	4.281052e+02
2.160000e-06	3.958007e-06	6.461029e-09	2.738195e+01	4.231370e+02
2.170000e-06	3.850005e-06	6.389578e-09	2.663478e+01	4.179985e+02
2.180000e-06	3.740596e-06	6.313491e-09	2.587787e+01	4.126972e+02
2.190000e-06	3.629798e-06	6.228780e-09	2.511136e+01	4.072428e+02
2.200000e-06	3.517585e-06	6.148295e-09	2.433506e+01	4.016434e+02
2.210000e-06	3.404034e-06	6.061566e-09	2.354950e+01	3.959023e+02
2.220000e-06	3.289193e-06	5.968315e-09	2.275501e+01	3.900165e+02
2.230000e-06	3.172902e-06	5.867564e-09	2.195050e+01	3.839768e+02
2.240000e-06	3.055233e-06	5.769490e-09	2.113645e+01	3.777700e+02
2.250000e-06	2.936436e-06	5.674335e-09	2.031460e+01	3.713820e+02
2.260000e-06	2.816534e-06	5.578361e-09	1.948511e+01	3.648006e+02
2.270000e-06	2.695573e-06	5.480313e-09	1.864828e+01	3.580185e+02
2.280000e-06	2.573651e-06	5.377321e-09	1.780481e+01	3.510335e+02
2.290000e-06	2.450872e-06	5.268377e-09	1.695541e+01	3.438475e+02
2.300000e-06	2.327296e-06	5.157622e-09	1.610050e+01	3.364639e+02
2.310000e-06	2.202946e-06	5.050278e-09	1.524024e+01	3.288844e+02
2.320000e-06	2.077740e-06	4.935237e-09	1.437405e+01	3.211061e+02
2.330000e-06	1.951705e-06	4.807671e-09	1.350212e+01	3.131196e+02
2.340000e-06	1.825035e-06	4.671747e-09	1.262580e+01	3.049090e+02
2.350000e-06	1.697827e-06	4.538139e-09	1.174576e+01	2.964544e+02
2.360000e-06	1.570074e-06	4.408037e-09	1.086195e+01	2.877344e+02
2.370000e-06	1.441698e-06	4.277781e-09	9.973835e+00	2.787303e+02
2.380000e-06	1.312769e-06	4.142497e-09	9.081884e+00	2.694287e+02
2.390000e-06	1.183427e-06	3.997030e-09	8.187081e+00	2.598229e+02
2.400000e-06	1.053753e-06	3.843959e-09	7.289984e+00	2.499123e+02
2.410000e-06	9.238303e-07	3.690405e-09	6.391164e+00	2.397004e+02
2.420000e-06	7.936989e-07	3.535469e-09	5.490900e+00	2.291908e+02
2.430000e-06	6.633597e-07	3.371151e-09	4.589199e+00	2.183839e+02
2.440000e-06	5.328341e-07	3.198367e-09	3.686208e+00	2.072743e+02
2.450000e-06	4.021130e-07	3.021748e-09	2.781864e+00	1.958502e+02
2.460000e-06	2.711619e-07	2.842885e-09	1.875929e+00	1.840938e+02
2.470000e-06	1.400544e-07	2.657683e-09	9.689121e-01	1.719845e+02
2.480000e-06	8.882142e-09	2.462982e-09	6.144768e-02	1.595019e+02
2.490000e-06	-1.222651e-07	2.263350e-09	-8.458437e-01	1.466282e+02
2.500000e-06	-2.533634e-07	2.057850e-09	-1.752797e+00	1.333499e+02
2.510000e-06	-3.844095e-07	1.846125e-09	-2.659389e+00	1.196569e+02
2.520000e-06	-5.153201e-07	1.631744e-09	-3.565044e+00	1.055404e+02
2.530000e-06	-6.460489e-07	1.413102e-09	-4.469441e+00	9.098945e+01
2.540000e-06	-7.765660e-07	1.186986e-09	-5.372373e+00	7.598820e+01
2.550000e-06	-9.068458e-07	9.484515e-10	-6.273663e+00	6.051465e+01
2.560000e-06	-1.036855e-06	7.004943e-10	-7.173084e+00	4.454255e+01
2.570000e-06	-1.166604e-06	4.480166e-10	-8.070699e+00	2.804633e+01
2.580000e-06	-1.296028e-06	1.872429e-10	-8.966073e+00	1.100891e+01
2.590000e-06	-1.425028e-06	-8.334474e-11	-9.858510e+00	-6.569115e+00
2.600000e-06	-1.553463e-06	-3.614298e-10	-1.074703e+01	-2.466083e+01
2.610000e-06	-1.681236e-06	-6.467195e-10	-1.163098e+01	-4.320685e+01
2.620000e-06	-1.808375e-06	-9.386980e-10	-1.251055e+01	-6.211348e+01
2.630000e-06	-1.934855e-06	-1.231224e-09	-1.338555e+01	-8.125593e+01
2.640000e-06	-2.060640e-06	-1.521725e-09	-1.425574e+01	-1.004865e+02
2.650000e-06	-2.185616e-06	-1.812019e-09	-1.512034e+01	-1.196465e+02
2.660000e-06	-2.309685e-06	-2.103417e-09	-1.597867e+01	-1.385797e+02
2.670000e-06	-2.432871e-06	-2.390108e-09	-1.683088e+01	-1.571450e+02
2.680000e-06	-2.555090e-06	-2.666392e-09	-1.767641e+01	-1.752265e+02
2.690000e-06	-2.676343e-06	-2.934869e-09	-1.851525e+01	-1.927386e+02
2.700000e-06	-2.796592e-06	-3.194971e-09	-1.934714e+01	-2.096274e+02
2.710000e-06	-2.915720e-06	-3.445123e-09	-2.017129e+01	-2.258661e+02
2.720000e-06	-3.033725e-06	-3.684823e-09	-2.098766e+01	-2.414490e+02
2.730000e-06	-3.150551e-06	-3.913816e-09	-2.179588e+01	-2.563837e+02
2.740000e-06	-3.266169e-06	-4.134007e-09	-2.259573e+01	-2.706840e+02
2.750000e-06	-3.380494e-06	-4.346580e-09	-2.338664e+01	-2.843655e+02
2.760000e-06	-3.493350e-06	-4.551252e-09	-2.416740e+01	-2.974426e+02
2.770000e-06	-3.604727e-06	-4.744013e-09	-2.493792e+01	-3.099293e+02
2.780000e-06	-3.714774e-06	-4.923145e-09	-2.569923e+01	-3.218408e+02
2.790000e-06	-3.823620e-06	-5.091931e-09	-2.645224e+01	-3.331953e+02
2.800000e-06	-3.931291e-06	-5.255376e-09	-2.719712e+01	-3.440154e+02
2.810000e-06	-4.037685e-06	-5.413075e-09	-2.793317e+01	-3.543277e+02
2.820000e-06	-4.142707e-06	-5.563302e-09	-2.865972e+01	-3.641613e+02
2.830000e-06	-4.246234e-06	-5.706423e-09	-2.937593e+01	-3.735444e+02
2.840000e-06	-4.348125e-06	-5.842222e-09	-3.008083e+01	-3.825015e+02
2.850000e-06	-4.448387e-06	-5.972772e-09	-3.077445e+01	-3.910510e+02
2.860000e-06	-4.547112e-06	-6.097994e-09	-3.145744e+01	-3.992045e+02
2.870000e-06	-4.644352e-06	-6.217028e-09	-3.213016e+01	-4.069678e+02
2.880000e-06	-4.740001e-06	-6.329719e-09	-3.279187e+01	-4.143445e+02
2.890000e-06	-4.833832e-06	-6.437155e-09	-3.344101e+01	-4.213391e+02
2.900000e-06	-4.925915e-06	-6.541176e-09	-3.407804e+01	-4.279617e+02
2.910000e-06	-5.016293e-06	-6.639592e-09	-3.470329e+01	-4.342293e+02
2.920000e-06	-5.104865e-06	-6.730120e-09	-3.531604e+01	-4.401674e+02
2.930000e-06	-5.191526e-06	-6.813484e-09	-3.591557e+01	-4.458079e+02
2.940000e-06	-5.276215e-06	-6.893018e-09	-3.650146e+01	-4.511857e+02
