# Temperatura_=_46.12
# Concentracion g/m^3_=_15000.0
# C_Vs_to_Am_M_A/Vsm_=_65563218390.804596
# pendiente_HvsI_1/m_=_3716.3
# ordenada_HvsI_A/m_=_1297.0
# frecuencia_Hz_=_301897.4563700595

Tiempo_(s)	Campo_(V.s)	Magnetizacion_(V.s)	Campo_(kA/m)	Magnetizacion_(A/m)
0.000000e+00	-6.878764e-06	-8.635111e-09	-4.750181e+01	-5.644465e+02
1.000000e-08	-6.875620e-06	-8.633235e-09	-4.748010e+01	-5.642922e+02
2.000000e-08	-6.870222e-06	-8.629462e-09	-4.744282e+01	-5.640390e+02
3.000000e-08	-6.862704e-06	-8.625883e-09	-4.739091e+01	-5.636808e+02
4.000000e-08	-6.852857e-06	-8.620161e-09	-4.732290e+01	-5.632145e+02
5.000000e-08	-6.840470e-06	-8.610786e-09	-4.723737e+01	-5.626418e+02
6.000000e-08	-6.825513e-06	-8.594742e-09	-4.713408e+01	-5.619700e+02
7.000000e-08	-6.808202e-06	-8.578030e-09	-4.701454e+01	-5.612118e+02
8.000000e-08	-6.788799e-06	-8.590645e-09	-4.688055e+01	-5.603832e+02
9.000000e-08	-6.767016e-06	-8.595723e-09	-4.673013e+01	-5.595016e+02
1.000000e-07	-6.742428e-06	-8.562460e-09	-4.656033e+01	-5.585827e+02
1.100000e-07	-6.715119e-06	-8.534728e-09	-4.637174e+01	-5.576381e+02
1.200000e-07	-6.685475e-06	-8.520228e-09	-4.616703e+01	-5.566732e+02
1.300000e-07	-6.653825e-06	-8.469657e-09	-4.594847e+01	-5.556869e+02
1.400000e-07	-6.620197e-06	-8.449589e-09	-4.571626e+01	-5.546710e+02
1.500000e-07	-6.584600e-06	-8.479607e-09	-4.547044e+01	-5.536115e+02
1.600000e-07	-6.546977e-06	-8.421531e-09	-4.521063e+01	-5.524899e+02
1.700000e-07	-6.507228e-06	-8.405722e-09	-4.493614e+01	-5.512850e+02
1.800000e-07	-6.465136e-06	-8.392147e-09	-4.464547e+01	-5.499744e+02
1.900000e-07	-6.420541e-06	-8.337770e-09	-4.433751e+01	-5.485366e+02
2.000000e-07	-6.373665e-06	-8.348266e-09	-4.401381e+01	-5.469523e+02
2.100000e-07	-6.324226e-06	-8.351140e-09	-4.367241e+01	-5.452064e+02
2.200000e-07	-6.272069e-06	-8.359702e-09	-4.331223e+01	-5.432890e+02
2.300000e-07	-6.217472e-06	-8.295659e-09	-4.293521e+01	-5.411970e+02
2.400000e-07	-6.160488e-06	-8.195551e-09	-4.254170e+01	-5.389344e+02
2.500000e-07	-6.101162e-06	-8.163298e-09	-4.213202e+01	-5.365125e+02
2.600000e-07	-6.039609e-06	-8.122424e-09	-4.170696e+01	-5.339486e+02
2.700000e-07	-5.975858e-06	-8.096163e-09	-4.126673e+01	-5.312638e+02
2.800000e-07	-5.909854e-06	-8.073185e-09	-4.081093e+01	-5.284798e+02
2.900000e-07	-5.841609e-06	-8.014101e-09	-4.033966e+01	-5.256158e+02
3.000000e-07	-5.771247e-06	-7.949391e-09	-3.985377e+01	-5.226849e+02
3.100000e-07	-5.698702e-06	-7.913070e-09	-3.935280e+01	-5.196917e+02
3.200000e-07	-5.623890e-06	-7.902740e-09	-3.883618e+01	-5.166317e+02
3.300000e-07	-5.546778e-06	-7.841341e-09	-3.830368e+01	-5.134917e+02
3.400000e-07	-5.467473e-06	-7.776160e-09	-3.775603e+01	-5.102533e+02
3.500000e-07	-5.386178e-06	-7.725155e-09	-3.719464e+01	-5.068958e+02
3.600000e-07	-5.303051e-06	-7.676364e-09	-3.662061e+01	-5.034009e+02
3.700000e-07	-5.218148e-06	-7.636924e-09	-3.603430e+01	-4.997564e+02
3.800000e-07	-5.131489e-06	-7.572083e-09	-3.543587e+01	-4.959580e+02
3.900000e-07	-5.042992e-06	-7.499373e-09	-3.482475e+01	-4.920099e+02
4.000000e-07	-4.952613e-06	-7.419233e-09	-3.420063e+01	-4.879229e+02
4.100000e-07	-4.860504e-06	-7.359478e-09	-3.356457e+01	-4.837110e+02
4.200000e-07	-4.766778e-06	-7.318170e-09	-3.291733e+01	-4.793874e+02
4.300000e-07	-4.671467e-06	-7.256021e-09	-3.225915e+01	-4.749607e+02
4.400000e-07	-4.574428e-06	-7.169318e-09	-3.158905e+01	-4.704324e+02
4.500000e-07	-4.475674e-06	-7.077678e-09	-3.090709e+01	-4.657959e+02
4.600000e-07	-4.375281e-06	-7.002050e-09	-3.021382e+01	-4.610383e+02
4.700000e-07	-4.273376e-06	-6.931679e-09	-2.951011e+01	-4.561427e+02
4.800000e-07	-4.170081e-06	-6.872937e-09	-2.879680e+01	-4.510921e+02
4.900000e-07	-4.065284e-06	-6.801508e-09	-2.807311e+01	-4.458730e+02
5.000000e-07	-3.958871e-06	-6.703927e-09	-2.733828e+01	-4.404781e+02
5.100000e-07	-3.850943e-06	-6.607252e-09	-2.659297e+01	-4.349065e+02
5.200000e-07	-3.741704e-06	-6.525471e-09	-2.583861e+01	-4.291635e+02
5.300000e-07	-3.631215e-06	-6.443477e-09	-2.507562e+01	-4.232576e+02
5.400000e-07	-3.519407e-06	-6.343946e-09	-2.430353e+01	-4.171978e+02
5.500000e-07	-3.406092e-06	-6.240890e-09	-2.352101e+01	-4.109903e+02
5.600000e-07	-3.291198e-06	-6.139469e-09	-2.272761e+01	-4.046366e+02
5.700000e-07	-3.174894e-06	-6.043930e-09	-2.192447e+01	-3.981327e+02
5.800000e-07	-3.057419e-06	-5.953420e-09	-2.111323e+01	-3.914698e+02
5.900000e-07	-2.938880e-06	-5.856984e-09	-2.029465e+01	-3.846362e+02
6.000000e-07	-2.819228e-06	-5.742204e-09	-1.946838e+01	-3.776195e+02
6.100000e-07	-2.698536e-06	-5.619583e-09	-1.863494e+01	-3.704086e+02
6.200000e-07	-2.576877e-06	-5.507214e-09	-1.779481e+01	-3.629947e+02
6.300000e-07	-2.454196e-06	-5.398063e-09	-1.694763e+01	-3.553716e+02
6.400000e-07	-2.330547e-06	-5.278076e-09	-1.609376e+01	-3.475343e+02
6.500000e-07	-2.206098e-06	-5.147900e-09	-1.523437e+01	-3.394774e+02
6.600000e-07	-2.080969e-06	-5.015349e-09	-1.437028e+01	-3.311943e+02
6.700000e-07	-1.955189e-06	-4.884074e-09	-1.350170e+01	-3.226752e+02
6.800000e-07	-1.828860e-06	-4.755714e-09	-1.262933e+01	-3.139082e+02
6.900000e-07	-1.701897e-06	-4.626752e-09	-1.175257e+01	-3.048799e+02
7.000000e-07	-1.574149e-06	-4.487393e-09	-1.087040e+01	-2.955773e+02
7.100000e-07	-1.445765e-06	-4.334337e-09	-9.983834e+00	-2.859898e+02
7.200000e-07	-1.316946e-06	-4.177668e-09	-9.094269e+00	-2.761099e+02
7.300000e-07	-1.187804e-06	-4.023019e-09	-8.202470e+00	-2.659340e+02
7.400000e-07	-1.058404e-06	-3.865278e-09	-7.308883e+00	-2.554606e+02
7.500000e-07	-9.286763e-07	-3.701508e-09	-6.413042e+00	-2.446888e+02
7.600000e-07	-7.985770e-07	-3.531301e-09	-5.514632e+00	-2.336155e+02
7.700000e-07	-6.681276e-07	-3.355360e-09	-4.613804e+00	-2.222336e+02
7.800000e-07	-5.373696e-07	-3.176015e-09	-3.710845e+00	-2.105303e+02
7.900000e-07	-4.064359e-07	-2.994995e-09	-2.806673e+00	-1.984884e+02
8.000000e-07	-2.752784e-07	-2.808840e-09	-1.900955e+00	-1.860871e+02
8.100000e-07	-1.439287e-07	-2.613056e-09	-9.939100e-01	-1.733047e+02
8.200000e-07	-1.246920e-08	-2.410304e-09	-8.610701e-02	-1.601214e+02
8.300000e-07	1.190460e-07	-2.206197e-09	8.220810e-01	-1.465203e+02
8.400000e-07	2.505200e-07	-1.997777e-09	1.729985e+00	-1.324873e+02
8.500000e-07	3.818807e-07	-1.780192e-09	2.637105e+00	-1.180098e+02
8.600000e-07	5.131016e-07	-1.552984e-09	3.543261e+00	-1.030736e+02
8.700000e-07	6.441589e-07	-1.314458e-09	4.448286e+00	-8.765971e+01
8.800000e-07	7.749544e-07	-1.069457e-09	5.351505e+00	-7.174283e+01
8.900000e-07	9.054313e-07	-8.197942e-10	6.252522e+00	-5.529159e+01
9.000000e-07	1.035499e-06	-5.649923e-10	7.150716e+00	-3.827257e+01
9.100000e-07	1.165171e-06	-3.009633e-10	8.046176e+00	-2.065723e+01
9.200000e-07	1.294534e-06	-2.393190e-11	8.939502e+00	-2.431354e+00
9.300000e-07	1.423600e-06	2.630873e-10	9.830774e+00	1.639481e+01
9.400000e-07	1.552227e-06	5.578718e-10	1.071902e+01	3.577788e+01
9.500000e-07	1.680243e-06	8.596524e-10	1.160304e+01	5.563609e+01
9.600000e-07	1.807499e-06	1.168230e-09	1.248182e+01	7.584924e+01
9.700000e-07	1.933975e-06	1.481911e-09	1.335520e+01	9.626436e+01
9.800000e-07	2.059784e-06	1.795824e-09	1.422399e+01	1.167065e+02
9.900000e-07	2.184939e-06	2.107772e-09	1.508826e+01	1.369934e+02
1.000000e-06	2.309479e-06	2.413613e-09	1.594828e+01	1.569509e+02
1.010000e-06	2.433263e-06	2.708919e-09	1.680308e+01	1.764276e+02
1.020000e-06	2.555954e-06	2.994083e-09	1.765033e+01	1.953048e+02
1.030000e-06	2.677557e-06	3.267436e-09	1.849006e+01	2.135021e+02
1.040000e-06	2.798293e-06	3.530180e-09	1.932382e+01	2.309765e+02
1.050000e-06	2.917971e-06	3.783907e-09	2.015026e+01	2.477169e+02
1.060000e-06	3.036485e-06	4.026692e-09	2.096867e+01	2.637352e+02
1.070000e-06	3.153985e-06	4.259624e-09	2.178007e+01	2.790563e+02
1.080000e-06	3.270385e-06	4.479609e-09	2.258389e+01	2.937092e+02
1.090000e-06	3.385434e-06	4.688249e-09	2.337836e+01	3.077209e+02
1.100000e-06	3.499087e-06	4.888600e-09	2.416320e+01	3.211136e+02
1.110000e-06	3.611413e-06	5.082560e-09	2.493888e+01	3.339051e+02
1.120000e-06	3.722372e-06	5.270321e-09	2.570512e+01	3.461117e+02
1.130000e-06	3.832088e-06	5.448551e-09	2.646277e+01	3.577514e+02
1.140000e-06	3.940632e-06	5.618513e-09	2.721232e+01	3.688465e+02
1.150000e-06	4.047842e-06	5.781484e-09	2.795267e+01	3.794251e+02
1.160000e-06	4.153616e-06	5.937309e-09	2.868310e+01	3.895191e+02
1.170000e-06	4.257836e-06	6.086026e-09	2.940280e+01	3.991616e+02
1.180000e-06	4.360434e-06	6.227327e-09	3.011130e+01	4.083831e+02
1.190000e-06	4.461552e-06	6.361864e-09	3.080957e+01	4.172074e+02
1.200000e-06	4.561210e-06	6.490244e-09	3.149777e+01	4.256498e+02
1.210000e-06	4.659222e-06	6.611594e-09	3.217460e+01	4.337174e+02
1.220000e-06	4.755428e-06	6.726703e-09	3.283895e+01	4.414109e+02
1.230000e-06	4.849834e-06	6.835700e-09	3.349088e+01	4.487291e+02
1.240000e-06	4.942581e-06	6.940134e-09	3.413135e+01	4.556735e+02
1.250000e-06	5.033695e-06	7.039637e-09	3.476055e+01	4.622521e+02
1.260000e-06	5.122977e-06	7.134872e-09	3.537709e+01	4.684820e+02
1.270000e-06	5.210340e-06	7.225865e-09	3.598038e+01	4.743895e+02
1.280000e-06	5.295847e-06	7.311854e-09	3.657086e+01	4.800075e+02
1.290000e-06	5.379506e-06	7.393620e-09	3.714857e+01	4.853720e+02
1.300000e-06	5.461206e-06	7.471666e-09	3.771276e+01	4.905173e+02
1.310000e-06	5.540867e-06	7.545665e-09	3.826286e+01	4.954713e+02
1.320000e-06	5.618527e-06	7.616070e-09	3.879915e+01	5.002531e+02
1.330000e-06	5.694110e-06	7.685350e-09	3.932110e+01	5.048719e+02
1.340000e-06	5.767503e-06	7.754572e-09	3.982791e+01	5.093278e+02
1.350000e-06	5.838701e-06	7.821723e-09	4.031958e+01	5.136150e+02
1.360000e-06	5.907816e-06	7.885168e-09	4.079686e+01	5.177246e+02
1.370000e-06	5.974907e-06	7.944904e-09	4.126015e+01	5.216483e+02
1.380000e-06	6.039826e-06	8.000711e-09	4.170846e+01	5.253804e+02
1.390000e-06	6.102596e-06	8.053028e-09	4.214192e+01	5.289190e+02
1.400000e-06	6.163371e-06	8.103888e-09	4.256161e+01	5.322659e+02
1.410000e-06	6.222005e-06	8.152729e-09	4.296651e+01	5.354255e+02
1.420000e-06	6.278385e-06	8.197268e-09	4.335585e+01	5.384029e+02
1.430000e-06	6.332547e-06	8.237549e-09	4.372986e+01	5.412032e+02
1.440000e-06	6.384244e-06	8.275874e-09	4.408686e+01	5.438304e+02
1.450000e-06	6.433245e-06	8.313298e-09	4.442525e+01	5.462879e+02
1.460000e-06	6.479792e-06	8.349034e-09	4.474667e+01	5.485790e+02
1.470000e-06	6.524215e-06	8.380523e-09	4.505344e+01	5.507082e+02
1.480000e-06	6.566400e-06	8.409317e-09	4.534475e+01	5.526815e+02
1.490000e-06	6.606152e-06	8.438205e-09	4.561926e+01	5.545068e+02
1.500000e-06	6.643611e-06	8.463525e-09	4.587794e+01	5.561931e+02
1.510000e-06	6.678822e-06	8.486009e-09	4.612110e+01	5.577495e+02
1.520000e-06	6.711592e-06	8.506076e-09	4.634739e+01	5.591834e+02
1.530000e-06	6.741960e-06	8.523292e-09	4.655710e+01	5.604997e+02
1.540000e-06	6.770078e-06	8.539662e-09	4.675127e+01	5.616999e+02
1.550000e-06	6.795816e-06	8.555336e-09	4.692900e+01	5.627826e+02
1.560000e-06	6.818994e-06	8.570388e-09	4.708906e+01	5.637446e+02
1.570000e-06	6.839712e-06	8.583731e-09	4.723213e+01	5.645828e+02
1.580000e-06	6.858052e-06	8.595671e-09	4.735878e+01	5.652958e+02
1.590000e-06	6.873893e-06	8.604736e-09	4.746817e+01	5.658854e+02
1.600000e-06	6.887165e-06	8.612404e-09	4.755982e+01	5.663565e+02
1.610000e-06	6.897734e-06	8.619083e-09	4.763281e+01	5.667172e+02
1.620000e-06	6.905625e-06	8.623564e-09	4.768730e+01	5.669763e+02
1.630000e-06	6.911093e-06	8.627866e-09	4.772506e+01	5.671421e+02
1.640000e-06	6.914196e-06	8.631690e-09	4.774648e+01	5.672199e+02
1.650000e-06	6.914813e-06	8.634164e-09	4.775075e+01	5.672112e+02
1.660000e-06	6.913045e-06	8.629685e-09	4.773854e+01	5.671133e+02
1.670000e-06	6.909126e-06	8.626100e-09	4.771147e+01	5.669204e+02
1.680000e-06	6.902929e-06	8.622326e-09	4.766868e+01	5.666261e+02
1.690000e-06	6.894423e-06	8.616634e-09	4.760994e+01	5.662251e+02
1.700000e-06	6.883727e-06	8.610024e-09	4.753608e+01	5.657160e+02
1.710000e-06	6.870624e-06	8.604575e-09	4.744559e+01	5.651028e+02
1.720000e-06	6.855093e-06	8.604392e-09	4.733834e+01	5.643948e+02
1.730000e-06	6.837444e-06	8.559958e-09	4.721647e+01	5.636064e+02
1.740000e-06	6.817468e-06	8.522606e-09	4.707853e+01	5.627545e+02
1.750000e-06	6.794353e-06	8.533122e-09	4.691890e+01	5.618561e+02
1.760000e-06	6.768043e-06	8.524004e-09	4.673722e+01	5.609256e+02
1.770000e-06	6.739206e-06	8.512983e-09	4.653808e+01	5.599723e+02
1.780000e-06	6.708307e-06	8.544570e-09	4.632470e+01	5.589991e+02
1.790000e-06	6.675894e-06	8.490496e-09	4.610087e+01	5.580020e+02
1.800000e-06	6.641883e-06	8.478347e-09	4.586601e+01	5.569704e+02
1.810000e-06	6.605398e-06	8.500778e-09	4.561406e+01	5.558885e+02
1.820000e-06	6.566439e-06	8.440289e-09	4.534502e+01	5.547364e+02
1.830000e-06	6.525380e-06	8.479793e-09	4.506149e+01	5.534921e+02
1.840000e-06	6.482115e-06	8.431828e-09	4.476272e+01	5.521336e+02
1.850000e-06	6.436612e-06	8.362739e-09	4.444849e+01	5.506398e+02
1.860000e-06	6.388677e-06	8.361076e-09	4.411748e+01	5.489932e+02
1.870000e-06	6.338415e-06	8.251212e-09	4.377039e+01	5.471802e+02
1.880000e-06	6.285828e-06	8.278486e-09	4.340724e+01	5.451938e+02
1.890000e-06	6.230482e-06	8.307435e-09	4.302505e+01	5.430334e+02
1.900000e-06	6.172672e-06	8.267873e-09	4.262584e+01	5.407061e+02
1.910000e-06	6.112600e-06	8.264067e-09	4.221101e+01	5.382256e+02
1.920000e-06	6.050134e-06	8.131612e-09	4.177964e+01	5.356111e+02
1.930000e-06	5.985535e-06	8.098927e-09	4.133355e+01	5.328843e+02
1.940000e-06	5.918865e-06	8.089849e-09	4.087315e+01	5.300664e+02
1.950000e-06	5.849984e-06	8.054196e-09	4.039749e+01	5.271746e+02
1.960000e-06	5.778696e-06	8.023987e-09	3.990521e+01	5.242187e+02
1.970000e-06	5.705134e-06	7.935530e-09	3.939722e+01	5.211998e+02
1.980000e-06	5.629436e-06	7.909722e-09	3.887448e+01	5.181099e+02
1.990000e-06	5.551441e-06	7.839440e-09	3.833588e+01	5.149332e+02
2.000000e-06	5.471334e-06	7.806845e-09	3.778270e+01	5.116500e+02
2.010000e-06	5.389341e-06	7.760936e-09	3.721649e+01	5.082399e+02
2.020000e-06	5.305635e-06	7.676223e-09	3.663845e+01	5.046868e+02
2.030000e-06	5.219948e-06	7.630382e-09	3.604674e+01	5.009814e+02
2.040000e-06	5.132189e-06	7.569587e-09	3.544071e+01	4.971228e+02
2.050000e-06	5.042736e-06	7.544511e-09	3.482298e+01	4.931182e+02
2.060000e-06	4.951699e-06	7.469622e-09	3.419432e+01	4.889799e+02
2.070000e-06	4.858979e-06	7.391450e-09	3.355403e+01	4.847223e+02
2.080000e-06	4.764387e-06	7.319567e-09	3.290082e+01	4.803571e+02
2.090000e-06	4.668053e-06	7.257312e-09	3.223558e+01	4.758903e+02
2.100000e-06	4.570177e-06	7.208912e-09	3.155969e+01	4.713202e+02
2.110000e-06	4.470858e-06	7.147403e-09	3.087384e+01	4.666376e+02
2.120000e-06	4.369999e-06	7.076072e-09	3.017735e+01	4.618273e+02
2.130000e-06	4.267445e-06	6.966161e-09	2.946915e+01	4.568723e+02
2.140000e-06	4.163241e-06	6.875934e-09	2.874956e+01	4.517563e+02
2.150000e-06	4.057533e-06	6.799405e-09	2.801959e+01	4.464682e+02
2.160000e-06	3.950507e-06	6.742413e-09	2.728052e+01	4.410032e+02
2.170000e-06	3.842179e-06	6.670659e-09	2.653245e+01	4.353629e+02
2.180000e-06	3.732465e-06	6.576295e-09	2.577481e+01	4.295543e+02
2.190000e-06	3.621234e-06	6.473768e-09	2.500669e+01	4.235865e+02
2.200000e-06	3.508602e-06	6.378453e-09	2.422891e+01	4.174677e+02
2.210000e-06	3.394718e-06	6.295038e-09	2.344247e+01	4.112025e+02
2.220000e-06	3.279437e-06	6.197232e-09	2.264639e+01	4.047901e+02
2.230000e-06	3.162700e-06	6.089106e-09	2.184026e+01	3.982245e+02
2.240000e-06	3.044732e-06	5.977725e-09	2.102562e+01	3.914956e+02
2.250000e-06	2.925557e-06	5.877041e-09	2.020265e+01	3.845911e+02
2.260000e-06	2.805148e-06	5.772576e-09	1.937115e+01	3.774988e+02
2.270000e-06	2.683740e-06	5.669110e-09	1.853276e+01	3.702086e+02
2.280000e-06	2.561471e-06	5.557565e-09	1.768842e+01	3.627127e+02
2.290000e-06	2.438358e-06	5.436082e-09	1.683826e+01	3.550056e+02
2.300000e-06	2.314320e-06	5.313327e-09	1.598170e+01	3.470822e+02
2.310000e-06	2.189448e-06	5.198392e-09	1.511939e+01	3.389370e+02
2.320000e-06	2.063891e-06	5.082311e-09	1.425235e+01	3.305619e+02
2.330000e-06	1.937702e-06	4.944785e-09	1.338094e+01	3.219465e+02
2.340000e-06	1.810791e-06	4.792238e-09	1.250455e+01	3.130780e+02
2.350000e-06	1.683086e-06	4.643512e-09	1.162267e+01	3.039430e+02
2.360000e-06	1.554749e-06	4.506291e-09	1.073643e+01	2.945291e+02
2.370000e-06	1.425959e-06	4.370707e-09	9.847066e+00	2.848270e+02
2.380000e-06	1.296774e-06	4.228140e-09	8.954967e+00	2.748306e+02
2.390000e-06	1.167191e-06	4.070536e-09	8.060123e+00	2.645374e+02
2.400000e-06	1.037259e-06	3.902084e-09	7.162869e+00	2.539465e+02
2.410000e-06	9.070416e-07	3.733261e-09	6.263642e+00	2.430564e+02
2.420000e-06	7.766087e-07	3.566725e-09	5.362928e+00	2.318626e+02
2.430000e-06	6.459875e-07	3.394823e-09	4.460914e+00	2.203557e+02
2.440000e-06	5.152231e-07	3.211754e-09	3.557911e+00	2.085213e+02
2.450000e-06	3.842925e-07	3.019674e-09	2.653760e+00	1.963403e+02
2.460000e-06	2.531581e-07	2.825852e-09	1.748202e+00	1.837913e+02
2.470000e-06	1.219077e-07	2.630377e-09	8.418426e-01	1.708532e+02
2.480000e-06	-9.397369e-09	2.429688e-09	-6.489422e-02	1.575072e+02
2.490000e-06	-1.406632e-07	2.221781e-09	-9.713597e-01	1.437374e+02
2.500000e-06	-2.718574e-07	2.002649e-09	-1.877331e+00	1.295309e+02
2.510000e-06	-4.030291e-07	1.775253e-09	-2.783147e+00	1.148746e+02
2.520000e-06	-5.340979e-07	1.544261e-09	-3.688252e+00	9.975287e+01
2.530000e-06	-6.649912e-07	1.308413e-09	-4.592145e+00	8.414434e+01
2.540000e-06	-7.957288e-07	1.061951e-09	-5.494963e+00	6.802105e+01
2.550000e-06	-9.262428e-07	8.010303e-10	-6.396237e+00	5.135020e+01
2.560000e-06	-1.056444e-06	5.315111e-10	-7.295354e+00	3.409928e+01
2.570000e-06	-1.186357e-06	2.604190e-10	-8.192473e+00	1.624419e+01
2.580000e-06	-1.315909e-06	-1.569606e-11	-9.087108e+00	-2.220859e+00
2.590000e-06	-1.445049e-06	-3.033995e-10	-9.978891e+00	-2.127350e+01
2.600000e-06	-1.573727e-06	-6.043734e-10	-1.086749e+01	-4.085562e+01
2.610000e-06	-1.701738e-06	-9.148715e-10	-1.175148e+01	-6.087007e+01
2.620000e-06	-1.828930e-06	-1.228732e-09	-1.262981e+01	-8.118278e+01
2.630000e-06	-1.955319e-06	-1.540143e-09	-1.350260e+01	-1.016306e+02
2.640000e-06	-2.081086e-06	-1.847010e-09	-1.437109e+01	-1.220338e+02
2.650000e-06	-2.206192e-06	-2.151687e-09	-1.523502e+01	-1.422116e+02
2.660000e-06	-2.330414e-06	-2.453418e-09	-1.609285e+01	-1.619971e+02
2.670000e-06	-2.453594e-06	-2.747658e-09	-1.694347e+01	-1.812508e+02
2.680000e-06	-2.575763e-06	-3.030296e-09	-1.778712e+01	-1.998688e+02
2.690000e-06	-2.697099e-06	-3.304415e-09	-1.862501e+01	-2.177858e+02
2.700000e-06	-2.817529e-06	-3.572396e-09	-1.945666e+01	-2.349721e+02
2.710000e-06	-2.936779e-06	-3.830082e-09	-2.028014e+01	-2.514270e+02
2.720000e-06	-3.054809e-06	-4.074865e-09	-2.109520e+01	-2.671684e+02
2.730000e-06	-3.171717e-06	-4.305692e-09	-2.190253e+01	-2.822240e+02
2.740000e-06	-3.287407e-06	-4.525238e-09	-2.270143e+01	-2.966225e+02
2.750000e-06	-3.401710e-06	-4.736769e-09	-2.349076e+01	-3.103891e+02
2.760000e-06	-3.514602e-06	-4.940819e-09	-2.427034e+01	-3.235441e+02
2.770000e-06	-3.626159e-06	-5.135023e-09	-2.504071e+01	-3.361043e+02
2.780000e-06	-3.736348e-06	-5.317001e-09	-2.580162e+01	-3.480863e+02
2.790000e-06	-3.845283e-06	-5.487614e-09	-2.655388e+01	-3.595095e+02
2.800000e-06	-3.953034e-06	-5.651664e-09	-2.729796e+01	-3.703986e+02
2.810000e-06	-4.059499e-06	-5.810934e-09	-2.803317e+01	-3.807833e+02
2.820000e-06	-4.164597e-06	-5.963868e-09	-2.875893e+01	-3.906965e+02
2.830000e-06	-4.268093e-06	-6.108722e-09	-2.947363e+01	-4.001708e+02
2.840000e-06	-4.369972e-06	-6.244231e-09	-3.017716e+01	-4.092343e+02
2.850000e-06	-4.470253e-06	-6.374494e-09	-3.086966e+01	-4.179077e+02
2.860000e-06	-4.568917e-06	-6.502931e-09	-3.155099e+01	-4.262029e+02
2.870000e-06	-4.666064e-06	-6.626793e-09	-3.222185e+01	-4.341240e+02
2.880000e-06	-4.761559e-06	-6.742864e-09	-3.288130e+01	-4.416706e+02
2.890000e-06	-4.855309e-06	-6.852295e-09	-3.352869e+01	-4.488420e+02
2.900000e-06	-4.947352e-06	-6.957398e-09	-3.416430e+01	-4.556417e+02
2.910000e-06	-5.037705e-06	-7.058291e-09	-3.478824e+01	-4.620812e+02
2.920000e-06	-5.126231e-06	-7.153699e-09	-3.539956e+01	-4.681814e+02
2.930000e-06	-5.212763e-06	-7.242219e-09	-3.599712e+01	-4.739713e+02
2.940000e-06	-5.297396e-06	-7.324669e-09	-3.658156e+01	-4.794860e+02
