# Temperatura_=_77.5
# Concentracion g/m^3_=_15000.0
# C_Vs_to_Am_M_A/Vsm_=_65563218390.804596
# pendiente_HvsI_1/m_=_3716.3
# ordenada_HvsI_A/m_=_1297.0
# frecuencia_Hz_=_301893.6630960785

Tiempo_(s)	Campo_(V.s)	Magnetizacion_(V.s)	Campo_(kA/m)	Magnetizacion_(A/m)
0.000000e+00	-6.807461e-06	-1.052725e-08	-4.750334e+01	-6.882451e+02
1.000000e-08	-6.804835e-06	-1.052831e-08	-4.748502e+01	-6.879750e+02
2.000000e-08	-6.799890e-06	-1.052786e-08	-4.745052e+01	-6.875897e+02
3.000000e-08	-6.792865e-06	-1.052342e-08	-4.740149e+01	-6.870884e+02
4.000000e-08	-6.783507e-06	-1.051506e-08	-4.733619e+01	-6.864667e+02
5.000000e-08	-6.771660e-06	-1.050058e-08	-4.725352e+01	-6.857177e+02
6.000000e-08	-6.757382e-06	-1.048267e-08	-4.715389e+01	-6.848347e+02
7.000000e-08	-6.740702e-06	-1.045762e-08	-4.703749e+01	-6.838140e+02
8.000000e-08	-6.721890e-06	-1.042423e-08	-4.690622e+01	-6.826577e+02
9.000000e-08	-6.700797e-06	-1.043741e-08	-4.675903e+01	-6.813761e+02
1.000000e-07	-6.676975e-06	-1.044903e-08	-4.659279e+01	-6.799882e+02
1.100000e-07	-6.650382e-06	-1.040564e-08	-4.640723e+01	-6.785198e+02
1.200000e-07	-6.621326e-06	-1.036647e-08	-4.620447e+01	-6.770001e+02
1.300000e-07	-6.590269e-06	-1.034353e-08	-4.598775e+01	-6.754564e+02
1.400000e-07	-6.557407e-06	-1.027107e-08	-4.575844e+01	-6.739074e+02
1.500000e-07	-6.522634e-06	-1.023727e-08	-4.551578e+01	-6.723585e+02
1.600000e-07	-6.485787e-06	-1.028922e-08	-4.525866e+01	-6.707982e+02
1.700000e-07	-6.446883e-06	-1.017763e-08	-4.498718e+01	-6.691969e+02
1.800000e-07	-6.405720e-06	-1.015696e-08	-4.469994e+01	-6.675102e+02
1.900000e-07	-6.362055e-06	-1.018043e-08	-4.439524e+01	-6.656849e+02
2.000000e-07	-6.316089e-06	-1.010680e-08	-4.407448e+01	-6.636663e+02
2.100000e-07	-6.267708e-06	-1.015484e-08	-4.373688e+01	-6.614074e+02
2.200000e-07	-6.216656e-06	-1.009591e-08	-4.338063e+01	-6.588764e+02
2.300000e-07	-6.163049e-06	-9.989000e-09	-4.300655e+01	-6.560615e+02
2.400000e-07	-6.107109e-06	-9.932368e-09	-4.261620e+01	-6.529725e+02
2.500000e-07	-6.048839e-06	-9.874583e-09	-4.220958e+01	-6.496376e+02
2.600000e-07	-5.988261e-06	-9.853147e-09	-4.178686e+01	-6.460981e+02
2.700000e-07	-5.925545e-06	-9.795347e-09	-4.134922e+01	-6.423991e+02
2.800000e-07	-5.860641e-06	-9.729536e-09	-4.089631e+01	-6.385816e+02
2.900000e-07	-5.793481e-06	-9.642038e-09	-4.042766e+01	-6.346750e+02
3.000000e-07	-5.724189e-06	-9.574714e-09	-3.994413e+01	-6.306923e+02
3.100000e-07	-5.652872e-06	-9.558786e-09	-3.944647e+01	-6.266296e+02
3.200000e-07	-5.579413e-06	-9.495164e-09	-3.893387e+01	-6.224686e+02
3.300000e-07	-5.503628e-06	-9.438085e-09	-3.840503e+01	-6.181822e+02
3.400000e-07	-5.425659e-06	-9.353710e-09	-3.786095e+01	-6.137416e+02
3.500000e-07	-5.345567e-06	-9.272064e-09	-3.730206e+01	-6.091227e+02
3.600000e-07	-5.263447e-06	-9.212833e-09	-3.672902e+01	-6.043113e+02
3.700000e-07	-5.179641e-06	-9.135125e-09	-3.614420e+01	-5.993047e+02
3.800000e-07	-5.094141e-06	-9.055281e-09	-3.554757e+01	-5.941118e+02
3.900000e-07	-5.006905e-06	-8.956634e-09	-3.493883e+01	-5.887485e+02
4.000000e-07	-4.917912e-06	-8.877709e-09	-3.431783e+01	-5.832335e+02
4.100000e-07	-4.827088e-06	-8.802596e-09	-3.368405e+01	-5.775829e+02
4.200000e-07	-4.734615e-06	-8.725517e-09	-3.303876e+01	-5.718057e+02
4.300000e-07	-4.640571e-06	-8.628643e-09	-3.238250e+01	-5.659024e+02
4.400000e-07	-4.544918e-06	-8.514208e-09	-3.171503e+01	-5.598646e+02
4.500000e-07	-4.447498e-06	-8.412383e-09	-3.103522e+01	-5.536777e+02
4.600000e-07	-4.348362e-06	-8.318020e-09	-3.034343e+01	-5.473248e+02
4.700000e-07	-4.247835e-06	-8.237206e-09	-2.964194e+01	-5.407905e+02
4.800000e-07	-4.145881e-06	-8.142375e-09	-2.893050e+01	-5.340643e+02
4.900000e-07	-4.042494e-06	-8.029905e-09	-2.820904e+01	-5.271421e+02
5.000000e-07	-3.937603e-06	-7.909130e-09	-2.747710e+01	-5.200261e+02
5.100000e-07	-3.831018e-06	-7.800193e-09	-2.673334e+01	-5.127231e+02
5.200000e-07	-3.723007e-06	-7.695654e-09	-2.597963e+01	-5.052413e+02
5.300000e-07	-3.613801e-06	-7.576802e-09	-2.521757e+01	-4.975870e+02
5.400000e-07	-3.503328e-06	-7.448348e-09	-2.444668e+01	-4.897627e+02
5.500000e-07	-3.391603e-06	-7.316617e-09	-2.366705e+01	-4.817654e+02
5.600000e-07	-3.278528e-06	-7.190917e-09	-2.287799e+01	-4.735868e+02
5.700000e-07	-3.163946e-06	-7.068993e-09	-2.207843e+01	-4.652154e+02
5.800000e-07	-3.047929e-06	-6.948335e-09	-2.126884e+01	-4.566382e+02
5.900000e-07	-2.930667e-06	-6.814552e-09	-2.045058e+01	-4.478434e+02
6.000000e-07	-2.812388e-06	-6.671752e-09	-1.962521e+01	-4.388219e+02
6.100000e-07	-2.693187e-06	-6.527871e-09	-1.879341e+01	-4.295685e+02
6.200000e-07	-2.573115e-06	-6.385497e-09	-1.795553e+01	-4.200809e+02
6.300000e-07	-2.452051e-06	-6.235640e-09	-1.711073e+01	-4.103593e+02
6.400000e-07	-2.329857e-06	-6.073693e-09	-1.625805e+01	-4.004038e+02
6.500000e-07	-2.206729e-06	-5.909702e-09	-1.539884e+01	-3.902136e+02
6.600000e-07	-2.082866e-06	-5.746472e-09	-1.453451e+01	-3.797854e+02
6.700000e-07	-1.958358e-06	-5.586753e-09	-1.366568e+01	-3.691135e+02
6.800000e-07	-1.833225e-06	-5.427270e-09	-1.279248e+01	-3.581899e+02
6.900000e-07	-1.707485e-06	-5.262901e-09	-1.191505e+01	-3.470053e+02
7.000000e-07	-1.581174e-06	-5.087902e-09	-1.103364e+01	-3.355497e+02
7.100000e-07	-1.454351e-06	-4.906869e-09	-1.014865e+01	-3.238134e+02
7.200000e-07	-1.327083e-06	-4.725014e-09	-9.260560e+00	-3.117862e+02
7.300000e-07	-1.199423e-06	-4.538744e-09	-8.369728e+00	-2.994578e+02
7.400000e-07	-1.071437e-06	-4.345330e-09	-7.476625e+00	-2.868160e+02
7.500000e-07	-9.431546e-07	-4.143122e-09	-6.581455e+00	-2.738465e+02
7.600000e-07	-8.145337e-07	-3.935359e-09	-5.683921e+00	-2.605325e+02
7.700000e-07	-6.855690e-07	-3.724827e-09	-4.783989e+00	-2.468555e+02
7.800000e-07	-5.563565e-07	-3.512125e-09	-3.882328e+00	-2.327960e+02
7.900000e-07	-4.268896e-07	-3.295147e-09	-2.978891e+00	-2.183355e+02
8.000000e-07	-2.971596e-07	-3.070036e-09	-2.073618e+00	-2.034578e+02
8.100000e-07	-1.672714e-07	-2.836381e-09	-1.167241e+00	-1.881492e+02
8.200000e-07	-3.726569e-08	-2.596637e-09	-2.600448e-01	-1.723985e+02
8.300000e-07	9.280901e-08	-2.352647e-09	6.476333e-01	-1.561941e+02
8.400000e-07	2.228873e-07	-2.102120e-09	1.555336e+00	-1.395210e+02
8.500000e-07	3.529041e-07	-1.842621e-09	2.462611e+00	-1.223573e+02
8.600000e-07	4.827758e-07	-1.573389e-09	3.368872e+00	-1.046714e+02
8.700000e-07	6.124209e-07	-1.294775e-09	4.273552e+00	-8.642089e+01
8.800000e-07	7.418584e-07	-1.005481e-09	5.176784e+00	-6.755504e+01
8.900000e-07	8.710625e-07	-7.067991e-10	6.078387e+00	-4.802015e+01
9.000000e-07	9.999092e-07	-3.984593e-10	6.977496e+00	-2.776834e+01
9.100000e-07	1.128347e-06	-7.756053e-11	7.873751e+00	-6.768399e+00
9.200000e-07	1.256394e-06	2.537675e-10	8.767281e+00	1.498286e+01
9.300000e-07	1.384064e-06	5.930895e-10	9.658181e+00	3.745079e+01
9.400000e-07	1.511321e-06	9.407974e-10	1.054619e+01	6.055657e+01
9.500000e-07	1.638053e-06	1.299290e-09	1.143055e+01	8.417582e+01
9.600000e-07	1.764189e-06	1.665042e-09	1.231074e+01	1.081430e+02
9.700000e-07	1.889703e-06	2.033950e-09	1.318659e+01	1.322613e+02
9.800000e-07	2.014535e-06	2.400178e-09	1.405769e+01	1.563167e+02
9.900000e-07	2.138690e-06	2.760573e-09	1.492406e+01	1.800948e+02
1.000000e-06	2.262169e-06	3.112693e-09	1.578571e+01	2.033970e+02
1.010000e-06	2.384879e-06	3.455661e-09	1.664199e+01	2.260549e+02
1.020000e-06	2.506542e-06	3.789667e-09	1.749098e+01	2.479402e+02
1.030000e-06	2.627058e-06	4.110706e-09	1.833195e+01	2.689692e+02
1.040000e-06	2.746627e-06	4.418963e-09	1.916632e+01	2.891017e+02
1.050000e-06	2.865259e-06	4.711768e-09	1.999415e+01	3.083355e+02
1.060000e-06	2.982843e-06	4.990488e-09	2.081467e+01	3.266973e+02
1.070000e-06	3.099370e-06	5.255233e-09	2.162780e+01	3.442316e+02
1.080000e-06	3.214682e-06	5.507487e-09	2.243246e+01	3.609907e+02
1.090000e-06	3.328600e-06	5.749928e-09	2.322740e+01	3.770261e+02
1.100000e-06	3.441094e-06	5.981204e-09	2.401240e+01	3.923833e+02
1.110000e-06	3.552350e-06	6.202911e-09	2.478876e+01	4.070986e+02
1.120000e-06	3.662462e-06	6.417445e-09	2.555713e+01	4.212003e+02
1.130000e-06	3.771397e-06	6.621887e-09	2.631730e+01	4.347106e+02
1.140000e-06	3.879223e-06	6.817765e-09	2.706972e+01	4.476490e+02
1.150000e-06	3.985716e-06	7.006189e-09	2.781284e+01	4.600354e+02
1.160000e-06	4.090567e-06	7.185497e-09	2.854451e+01	4.718925e+02
1.170000e-06	4.193848e-06	7.359008e-09	2.926521e+01	4.832463e+02
1.180000e-06	4.295724e-06	7.523124e-09	2.997612e+01	4.941253e+02
1.190000e-06	4.396209e-06	7.679797e-09	3.067732e+01	5.045587e+02
1.200000e-06	4.495194e-06	7.832803e-09	3.136804e+01	5.145742e+02
1.210000e-06	4.592377e-06	7.980354e-09	3.204620e+01	5.241951e+02
1.220000e-06	4.687761e-06	8.122114e-09	3.271181e+01	5.334392e+02
1.230000e-06	4.781524e-06	8.256834e-09	3.336610e+01	5.423179e+02
1.240000e-06	4.873780e-06	8.387415e-09	3.400987e+01	5.508370e+02
1.250000e-06	4.964353e-06	8.513686e-09	3.464190e+01	5.589987e+02
1.260000e-06	5.052941e-06	8.634078e-09	3.526008e+01	5.668034e+02
1.270000e-06	5.139690e-06	8.748589e-09	3.586542e+01	5.742530e+02
1.280000e-06	5.224696e-06	8.856100e-09	3.645860e+01	5.813524e+02
1.290000e-06	5.307878e-06	8.957729e-09	3.703906e+01	5.881116e+02
1.300000e-06	5.389079e-06	9.052171e-09	3.760569e+01	5.945456e+02
1.310000e-06	5.468247e-06	9.141054e-09	3.815813e+01	6.006743e+02
1.320000e-06	5.545492e-06	9.225759e-09	3.869716e+01	6.065205e+02
1.330000e-06	5.620668e-06	9.308840e-09	3.922175e+01	6.121084e+02
1.340000e-06	5.693609e-06	9.392490e-09	3.973074e+01	6.174610e+02
1.350000e-06	5.764449e-06	9.473873e-09	4.022507e+01	6.225986e+02
1.360000e-06	5.833304e-06	9.550246e-09	4.070555e+01	6.275370e+02
1.370000e-06	5.900126e-06	9.622118e-09	4.117184e+01	6.322874e+02
1.380000e-06	5.964792e-06	9.690025e-09	4.162309e+01	6.368559e+02
1.390000e-06	6.027340e-06	9.755178e-09	4.205956e+01	6.412448e+02
1.400000e-06	6.087960e-06	9.817978e-09	4.248257e+01	6.454531e+02
1.410000e-06	6.146482e-06	9.877578e-09	4.289095e+01	6.494784e+02
1.420000e-06	6.202770e-06	9.933567e-09	4.328373e+01	6.533174e+02
1.430000e-06	6.256820e-06	9.987077e-09	4.366090e+01	6.569668e+02
1.440000e-06	6.308372e-06	1.004015e-08	4.402064e+01	6.604241e+02
1.450000e-06	6.357296e-06	1.009171e-08	4.436203e+01	6.636875e+02
1.460000e-06	6.403819e-06	1.014041e-08	4.468668e+01	6.667557e+02
1.470000e-06	6.448222e-06	1.018513e-08	4.499653e+01	6.696283e+02
1.480000e-06	6.490327e-06	1.022634e-08	4.529034e+01	6.723055e+02
1.490000e-06	6.529940e-06	1.026552e-08	4.556677e+01	6.747882e+02
1.500000e-06	6.567339e-06	1.030029e-08	4.582774e+01	6.770784e+02
1.510000e-06	6.602616e-06	1.032973e-08	4.607391e+01	6.791791e+02
1.520000e-06	6.635497e-06	1.035516e-08	4.630336e+01	6.810949e+02
1.530000e-06	6.666010e-06	1.037849e-08	4.651628e+01	6.828312e+02
1.540000e-06	6.694377e-06	1.040101e-08	4.671423e+01	6.843942e+02
1.550000e-06	6.720326e-06	1.042115e-08	4.689531e+01	6.857903e+02
1.560000e-06	6.743630e-06	1.043899e-08	4.705792e+01	6.870249e+02
1.570000e-06	6.764583e-06	1.045570e-08	4.720414e+01	6.881029e+02
1.580000e-06	6.783324e-06	1.047290e-08	4.733491e+01	6.890273e+02
1.590000e-06	6.799524e-06	1.048747e-08	4.744796e+01	6.898002e+02
1.600000e-06	6.813116e-06	1.049715e-08	4.754281e+01	6.904232e+02
1.610000e-06	6.824109e-06	1.050319e-08	4.761951e+01	6.908979e+02
1.620000e-06	6.832409e-06	1.050622e-08	4.767744e+01	6.912273e+02
1.630000e-06	6.838240e-06	1.050783e-08	4.771812e+01	6.914159e+02
1.640000e-06	6.841794e-06	1.050940e-08	4.774293e+01	6.914695e+02
1.650000e-06	6.842915e-06	1.051005e-08	4.775075e+01	6.913953e+02
1.660000e-06	6.841613e-06	1.050938e-08	4.774166e+01	6.911997e+02
1.670000e-06	6.838202e-06	1.050266e-08	4.771786e+01	6.908875e+02
1.680000e-06	6.832507e-06	1.049567e-08	4.767812e+01	6.904602e+02
1.690000e-06	6.824499e-06	1.048790e-08	4.762224e+01	6.899157e+02
1.700000e-06	6.814321e-06	1.047812e-08	4.755121e+01	6.892485e+02
1.710000e-06	6.801832e-06	1.046860e-08	4.746406e+01	6.884515e+02
1.720000e-06	6.786987e-06	1.045980e-08	4.736048e+01	6.875187e+02
1.730000e-06	6.769990e-06	1.045768e-08	4.724187e+01	6.864480e+02
1.740000e-06	6.750811e-06	1.040030e-08	4.710803e+01	6.852445e+02
1.750000e-06	6.728601e-06	1.034904e-08	4.695305e+01	6.839215e+02
1.760000e-06	6.703013e-06	1.035345e-08	4.677449e+01	6.825007e+02
1.770000e-06	6.674839e-06	1.033897e-08	4.657789e+01	6.810098e+02
1.780000e-06	6.644549e-06	1.032736e-08	4.636652e+01	6.794779e+02
1.790000e-06	6.612632e-06	1.036626e-08	4.614380e+01	6.779299e+02
1.800000e-06	6.579331e-06	1.028754e-08	4.591142e+01	6.763803e+02
1.810000e-06	6.543774e-06	1.025049e-08	4.566331e+01	6.748288e+02
1.820000e-06	6.505681e-06	1.030286e-08	4.539749e+01	6.732572e+02
1.830000e-06	6.465475e-06	1.021642e-08	4.511692e+01	6.716303e+02
1.840000e-06	6.423074e-06	1.024423e-08	4.482104e+01	6.698997e+02
1.850000e-06	6.378570e-06	1.018171e-08	4.451049e+01	6.680105e+02
1.860000e-06	6.331741e-06	1.008189e-08	4.418371e+01	6.659100e+02
1.870000e-06	6.282399e-06	1.013890e-08	4.383939e+01	6.635557e+02
1.880000e-06	6.230847e-06	1.005943e-08	4.347966e+01	6.609227e+02
1.890000e-06	6.176581e-06	1.008205e-08	4.310098e+01	6.580069e+02
1.900000e-06	6.119766e-06	1.004125e-08	4.270452e+01	6.548252e+02
1.910000e-06	6.060811e-06	9.919174e-09	4.229312e+01	6.514113e+02
1.920000e-06	5.999510e-06	9.905267e-09	4.186535e+01	6.478088e+02
1.930000e-06	5.935984e-06	9.799157e-09	4.142206e+01	6.440624e+02
1.940000e-06	5.870257e-06	9.812863e-09	4.096341e+01	6.402097e+02
1.950000e-06	5.802500e-06	9.748542e-09	4.049060e+01	6.362744e+02
1.960000e-06	5.732551e-06	9.659020e-09	4.000248e+01	6.322636e+02
1.970000e-06	5.660246e-06	9.615456e-09	3.949793e+01	6.281676e+02
1.980000e-06	5.585874e-06	9.497381e-09	3.897895e+01	6.239644e+02
1.990000e-06	5.509278e-06	9.490309e-09	3.844445e+01	6.196252e+02
2.000000e-06	5.430446e-06	9.396103e-09	3.789436e+01	6.151225e+02
2.010000e-06	5.349599e-06	9.325747e-09	3.733019e+01	6.104350e+02
2.020000e-06	5.266992e-06	9.252443e-09	3.675375e+01	6.055527e+02
2.030000e-06	5.182601e-06	9.153240e-09	3.616486e+01	6.004773e+02
2.040000e-06	5.096120e-06	9.099482e-09	3.556138e+01	5.952205e+02
2.050000e-06	5.007754e-06	8.999581e-09	3.494475e+01	5.898001e+02
2.060000e-06	4.917775e-06	8.940244e-09	3.431687e+01	5.842343e+02
2.070000e-06	4.826283e-06	8.835826e-09	3.367843e+01	5.785370e+02
2.080000e-06	4.733168e-06	8.755608e-09	3.302866e+01	5.727144e+02
2.090000e-06	4.638220e-06	8.676054e-09	3.236610e+01	5.667636e+02
2.100000e-06	4.541609e-06	8.591429e-09	3.169193e+01	5.606736e+02
2.110000e-06	4.443576e-06	8.496447e-09	3.100785e+01	5.544285e+02
2.120000e-06	4.344083e-06	8.370495e-09	3.031357e+01	5.480116e+02
2.130000e-06	4.243000e-06	8.267527e-09	2.960821e+01	5.414088e+02
2.140000e-06	4.140211e-06	8.158290e-09	2.889093e+01	5.346118e+02
2.150000e-06	4.035847e-06	8.069051e-09	2.816266e+01	5.276190e+02
2.160000e-06	3.930137e-06	7.964898e-09	2.742500e+01	5.204345e+02
2.170000e-06	3.823081e-06	7.861224e-09	2.667795e+01	5.130659e+02
2.180000e-06	3.714815e-06	7.736061e-09	2.592246e+01	5.055210e+02
2.190000e-06	3.605160e-06	7.612493e-09	2.515728e+01	4.978052e+02
2.200000e-06	3.494073e-06	7.500449e-09	2.438210e+01	4.899189e+02
2.210000e-06	3.381671e-06	7.387394e-09	2.359774e+01	4.818571e+02
2.220000e-06	3.267947e-06	7.262095e-09	2.280416e+01	4.736103e+02
2.230000e-06	3.152938e-06	7.120616e-09	2.200161e+01	4.651661e+02
2.240000e-06	3.036636e-06	6.984666e-09	2.119004e+01	4.565115e+02
2.250000e-06	2.919081e-06	6.846261e-09	2.036973e+01	4.476358e+02
2.260000e-06	2.800222e-06	6.713273e-09	1.954031e+01	4.385310e+02
2.270000e-06	2.680235e-06	6.574998e-09	1.870303e+01	4.291932e+02
2.280000e-06	2.559342e-06	6.436966e-09	1.785942e+01	4.196212e+02
2.290000e-06	2.437607e-06	6.289026e-09	1.700994e+01	4.098152e+02
2.300000e-06	2.315012e-06	6.141390e-09	1.615445e+01	3.997752e+02
2.310000e-06	2.191644e-06	5.992202e-09	1.529357e+01	3.894997e+02
2.320000e-06	2.067641e-06	5.832319e-09	1.442827e+01	3.789844e+02
2.330000e-06	1.943001e-06	5.657569e-09	1.355851e+01	3.682228e+02
2.340000e-06	1.817678e-06	5.477816e-09	1.268399e+01	3.572063e+02
2.350000e-06	1.691583e-06	5.304914e-09	1.180408e+01	3.459252e+02
2.360000e-06	1.564708e-06	5.134107e-09	1.091873e+01	3.343696e+02
2.370000e-06	1.437205e-06	4.960863e-09	1.002900e+01	3.225297e+02
2.380000e-06	1.309246e-06	4.776240e-09	9.136091e+00	3.103954e+02
2.390000e-06	1.180970e-06	4.583999e-09	8.240961e+00	2.979557e+02
2.400000e-06	1.052438e-06	4.386609e-09	7.344047e+00	2.851978e+02
2.410000e-06	9.236133e-07	4.189985e-09	6.445093e+00	2.721064e+02
2.420000e-06	7.945059e-07	3.990381e-09	5.544165e+00	2.586642e+02
2.430000e-06	6.651694e-07	3.778923e-09	4.641638e+00	2.448520e+02
2.440000e-06	5.355819e-07	3.556639e-09	3.737360e+00	2.306504e+02
2.450000e-06	4.057720e-07	3.328274e-09	2.831530e+00	2.160418e+02
2.460000e-06	2.758311e-07	3.098039e-09	1.924785e+00	2.010107e+02
2.470000e-06	1.457771e-07	2.864438e-09	1.017252e+00	1.855447e+02
2.480000e-06	1.562406e-08	2.623514e-09	1.090267e-01	1.696325e+02
2.490000e-06	-1.145767e-07	2.374489e-09	-7.995314e-01	1.532618e+02
2.500000e-06	-2.447555e-07	2.114490e-09	-1.707935e+00	1.364157e+02
2.510000e-06	-3.748175e-07	1.845303e-09	-2.615525e+00	1.190689e+02
2.520000e-06	-5.047538e-07	1.570348e-09	-3.522237e+00	1.011859e+02
2.530000e-06	-6.345547e-07	1.287433e-09	-4.428005e+00	8.272088e+01
2.540000e-06	-7.641181e-07	9.957641e-10	-5.332115e+00	6.362131e+01
2.550000e-06	-8.934604e-07	6.935511e-10	-6.234682e+00	4.383441e+01
2.560000e-06	-1.022548e-06	3.814622e-10	-7.135469e+00	2.331693e+01
2.570000e-06	-1.151266e-06	6.061871e-11	-8.033685e+00	2.046407e+00
2.580000e-06	-1.279604e-06	-2.719400e-10	-8.929240e+00	-1.996783e+01
2.590000e-06	-1.407578e-06	-6.193796e-10	-9.822260e+00	-4.267585e+01
2.600000e-06	-1.535095e-06	-9.792146e-10	-1.071209e+01	-6.598242e+01
2.610000e-06	-1.662016e-06	-1.346461e-09	-1.159776e+01	-8.974766e+01
2.620000e-06	-1.788217e-06	-1.717589e-09	-1.247841e+01	-1.137935e+02
2.630000e-06	-1.913547e-06	-2.088445e-09	-1.335298e+01	-1.379151e+02
2.640000e-06	-2.038007e-06	-2.455791e-09	-1.422148e+01	-1.618964e+02
2.650000e-06	-2.161718e-06	-2.818122e-09	-1.508475e+01	-1.855269e+02
2.660000e-06	-2.284657e-06	-3.172763e-09	-1.594263e+01	-2.086173e+02
2.670000e-06	-2.406749e-06	-3.514094e-09	-1.679460e+01	-2.310126e+02
2.680000e-06	-2.527948e-06	-3.840369e-09	-1.764035e+01	-2.526001e+02
2.690000e-06	-2.648234e-06	-4.153872e-09	-1.847972e+01	-2.733122e+02
2.700000e-06	-2.767650e-06	-4.456679e-09	-1.931302e+01	-2.931232e+02
2.710000e-06	-2.885979e-06	-4.750553e-09	-2.013874e+01	-3.120422e+02
2.720000e-06	-3.002930e-06	-5.032324e-09	-2.095483e+01	-3.301036e+02
2.730000e-06	-3.118621e-06	-5.299028e-09	-2.176214e+01	-3.473557e+02
2.740000e-06	-3.233159e-06	-5.551953e-09	-2.256140e+01	-3.638515e+02
2.750000e-06	-3.346385e-06	-5.793082e-09	-2.335151e+01	-3.796408e+02
2.760000e-06	-3.458230e-06	-6.024724e-09	-2.413198e+01	-3.947658e+02
2.770000e-06	-3.568728e-06	-6.246357e-09	-2.490304e+01	-4.092600e+02
2.780000e-06	-3.677962e-06	-6.459219e-09	-2.566529e+01	-4.231490e+02
2.790000e-06	-3.786065e-06	-6.663402e-09	-2.641965e+01	-4.364537e+02
2.800000e-06	-3.893015e-06	-6.859524e-09	-2.716596e+01	-4.491934e+02
2.810000e-06	-3.998611e-06	-7.049816e-09	-2.790282e+01	-4.613888e+02
2.820000e-06	-4.102767e-06	-7.231804e-09	-2.862964e+01	-4.730639e+02
2.830000e-06	-4.205336e-06	-7.403521e-09	-2.934538e+01	-4.842455e+02
2.840000e-06	-4.306251e-06	-7.565864e-09	-3.004958e+01	-4.949629e+02
2.850000e-06	-4.405754e-06	-7.721399e-09	-3.074393e+01	-5.052450e+02
2.860000e-06	-4.503826e-06	-7.872237e-09	-3.142828e+01	-5.151180e+02
2.870000e-06	-4.600371e-06	-8.017741e-09	-3.210198e+01	-5.246034e+02
2.880000e-06	-4.695275e-06	-8.155079e-09	-3.276424e+01	-5.337168e+02
2.890000e-06	-4.788348e-06	-8.286359e-09	-3.341372e+01	-5.424675e+02
2.900000e-06	-4.879727e-06	-8.414449e-09	-3.405137e+01	-5.508597e+02
2.910000e-06	-4.969423e-06	-8.537810e-09	-3.467727e+01	-5.588947e+02
2.920000e-06	-5.057323e-06	-8.655877e-09	-3.529066e+01	-5.665731e+02
2.930000e-06	-5.143226e-06	-8.768561e-09	-3.589010e+01	-5.738976e+02
2.940000e-06	-5.227153e-06	-8.875596e-09	-3.647575e+01	-5.808750e+02
