# Temperatura_=_57.22
# Concentracion g/m^3_=_15000.0
# C_Vs_to_Am_M_A/Vsm_=_65563218390.804596
# pendiente_HvsI_1/m_=_3716.3
# ordenada_HvsI_A/m_=_1297.0
# frecuencia_Hz_=_301897.4914921977

Tiempo_(s)	Campo_(V.s)	Magnetizacion_(V.s)	Campo_(kA/m)	Magnetizacion_(A/m)
0.000000e+00	-6.859815e-06	-9.163463e-09	-4.749845e+01	-5.991833e+02
1.000000e-08	-6.857037e-06	-9.157333e-09	-4.747921e+01	-5.989595e+02
2.000000e-08	-6.852002e-06	-9.154645e-09	-4.744436e+01	-5.986319e+02
3.000000e-08	-6.844886e-06	-9.151261e-09	-4.739508e+01	-5.982023e+02
4.000000e-08	-6.835412e-06	-9.143560e-09	-4.732948e+01	-5.976723e+02
5.000000e-08	-6.823428e-06	-9.133261e-09	-4.724650e+01	-5.970432e+02
6.000000e-08	-6.809010e-06	-9.120751e-09	-4.714667e+01	-5.963162e+02
7.000000e-08	-6.792203e-06	-9.112750e-09	-4.703029e+01	-5.954932e+02
8.000000e-08	-6.773197e-06	-9.106290e-09	-4.689869e+01	-5.945777e+02
9.000000e-08	-6.751826e-06	-9.074256e-09	-4.675072e+01	-5.935754e+02
1.000000e-07	-6.727684e-06	-9.066479e-09	-4.658356e+01	-5.924956e+02
1.100000e-07	-6.700831e-06	-9.058976e-09	-4.639762e+01	-5.913500e+02
1.200000e-07	-6.671574e-06	-9.025119e-09	-4.619504e+01	-5.901527e+02
1.300000e-07	-6.640194e-06	-9.005633e-09	-4.597776e+01	-5.889176e+02
1.400000e-07	-6.606923e-06	-9.010262e-09	-4.574739e+01	-5.876555e+02
1.500000e-07	-6.571777e-06	-8.930850e-09	-4.550403e+01	-5.863711e+02
1.600000e-07	-6.534597e-06	-8.900468e-09	-4.524659e+01	-5.850598e+02
1.700000e-07	-6.495366e-06	-8.925862e-09	-4.497495e+01	-5.837066e+02
1.800000e-07	-6.453816e-06	-8.830693e-09	-4.468725e+01	-5.822854e+02
1.900000e-07	-6.409707e-06	-8.855644e-09	-4.438183e+01	-5.807621e+02
2.000000e-07	-6.363253e-06	-8.872720e-09	-4.406018e+01	-5.790980e+02
2.100000e-07	-6.314357e-06	-8.838083e-09	-4.372161e+01	-5.772562e+02
2.200000e-07	-6.262704e-06	-8.846929e-09	-4.336396e+01	-5.752071e+02
2.300000e-07	-6.208479e-06	-8.763741e-09	-4.298850e+01	-5.729337e+02
2.400000e-07	-6.151934e-06	-8.680462e-09	-4.259697e+01	-5.704351e+02
2.500000e-07	-6.093088e-06	-8.629579e-09	-4.218952e+01	-5.677263e+02
2.600000e-07	-6.032028e-06	-8.583212e-09	-4.176672e+01	-5.648361e+02
2.700000e-07	-5.968807e-06	-8.551372e-09	-4.132897e+01	-5.618014e+02
2.800000e-07	-5.903363e-06	-8.512966e-09	-4.087583e+01	-5.586601e+02
2.900000e-07	-5.835643e-06	-8.465018e-09	-4.040692e+01	-5.554444e+02
3.000000e-07	-5.765702e-06	-8.387656e-09	-3.992264e+01	-5.521741e+02
3.100000e-07	-5.693650e-06	-8.366284e-09	-3.942374e+01	-5.488541e+02
3.200000e-07	-5.619444e-06	-8.341527e-09	-3.890993e+01	-5.454733e+02
3.300000e-07	-5.542950e-06	-8.260297e-09	-3.838027e+01	-5.420086e+02
3.400000e-07	-5.464213e-06	-8.205479e-09	-3.783508e+01	-5.384299e+02
3.500000e-07	-5.383323e-06	-8.146866e-09	-3.727499e+01	-5.347074e+02
3.600000e-07	-5.300568e-06	-8.092966e-09	-3.670198e+01	-5.308174e+02
3.700000e-07	-5.216134e-06	-8.035327e-09	-3.611734e+01	-5.267474e+02
3.800000e-07	-5.129942e-06	-7.972107e-09	-3.552054e+01	-5.224979e+02
3.900000e-07	-5.042012e-06	-7.894595e-09	-3.491170e+01	-5.180806e+02
4.000000e-07	-4.952233e-06	-7.812210e-09	-3.429005e+01	-5.135150e+02
4.100000e-07	-4.860625e-06	-7.751641e-09	-3.365574e+01	-5.088222e+02
4.200000e-07	-4.767425e-06	-7.690865e-09	-3.301041e+01	-5.040200e+02
4.300000e-07	-4.672596e-06	-7.618876e-09	-3.235380e+01	-4.991177e+02
4.400000e-07	-4.576082e-06	-7.525226e-09	-3.168552e+01	-4.941141e+02
4.500000e-07	-4.477820e-06	-7.429967e-09	-3.100514e+01	-4.889982e+02
4.600000e-07	-4.377917e-06	-7.352663e-09	-3.031340e+01	-4.837515e+02
4.700000e-07	-4.276579e-06	-7.282370e-09	-2.961171e+01	-4.783529e+02
4.800000e-07	-4.173790e-06	-7.209680e-09	-2.889999e+01	-4.727833e+02
4.900000e-07	-4.069553e-06	-7.124249e-09	-2.817823e+01	-4.670296e+02
5.000000e-07	-3.963689e-06	-7.024277e-09	-2.744521e+01	-4.610863e+02
5.100000e-07	-3.856207e-06	-6.924950e-09	-2.670099e+01	-4.549563e+02
5.200000e-07	-3.747399e-06	-6.833202e-09	-2.594759e+01	-4.486480e+02
5.300000e-07	-3.637390e-06	-6.735336e-09	-2.518587e+01	-4.421722e+02
5.400000e-07	-3.526095e-06	-6.623360e-09	-2.441524e+01	-4.355383e+02
5.500000e-07	-3.413307e-06	-6.508417e-09	-2.363428e+01	-4.287511e+02
5.600000e-07	-3.299004e-06	-6.399822e-09	-2.284283e+01	-4.218094e+02
5.700000e-07	-3.183316e-06	-6.302425e-09	-2.204179e+01	-4.147059e+02
5.800000e-07	-3.066325e-06	-6.207383e-09	-2.123172e+01	-4.074293e+02
5.900000e-07	-2.948233e-06	-6.098750e-09	-2.041403e+01	-3.999664e+02
6.000000e-07	-2.829202e-06	-5.973699e-09	-1.958985e+01	-3.923052e+02
6.100000e-07	-2.709171e-06	-5.843112e-09	-1.875873e+01	-3.844367e+02
6.200000e-07	-2.588085e-06	-5.717738e-09	-1.792031e+01	-3.763559e+02
6.300000e-07	-2.465905e-06	-5.591099e-09	-1.707432e+01	-3.680608e+02
6.400000e-07	-2.342695e-06	-5.455654e-09	-1.622119e+01	-3.595511e+02
6.500000e-07	-2.218615e-06	-5.314257e-09	-1.536204e+01	-3.508257e+02
6.600000e-07	-2.093824e-06	-5.174521e-09	-1.449797e+01	-3.418809e+02
6.700000e-07	-1.968430e-06	-5.039266e-09	-1.362972e+01	-3.327097e+02
6.800000e-07	-1.842416e-06	-4.904276e-09	-1.275718e+01	-3.233011e+02
6.900000e-07	-1.715759e-06	-4.762351e-09	-1.188019e+01	-3.136422e+02
7.000000e-07	-1.588505e-06	-4.609560e-09	-1.099906e+01	-3.037195e+02
7.100000e-07	-1.460711e-06	-4.449609e-09	-1.011419e+01	-2.935210e+02
7.200000e-07	-1.332410e-06	-4.287184e-09	-9.225819e+00	-2.830373e+02
7.300000e-07	-1.203704e-06	-4.124574e-09	-8.334636e+00	-2.722618e+02
7.400000e-07	-1.074613e-06	-3.956390e-09	-7.440794e+00	-2.611900e+02
7.500000e-07	-9.450904e-07	-3.779458e-09	-6.543957e+00	-2.498175e+02
7.600000e-07	-8.151739e-07	-3.595125e-09	-5.644394e+00	-2.381378e+02
7.700000e-07	-6.849766e-07	-3.409355e-09	-4.742887e+00	-2.261409e+02
7.800000e-07	-5.545964e-07	-3.225670e-09	-3.840114e+00	-2.138126e+02
7.900000e-07	-4.240278e-07	-3.040174e-09	-2.936036e+00	-2.011350e+02
8.000000e-07	-2.932465e-07	-2.845773e-09	-2.030485e+00	-1.880881e+02
8.100000e-07	-1.623208e-07	-2.640081e-09	-1.123935e+00	-1.746519e+02
8.200000e-07	-3.128491e-08	-2.427587e-09	-2.166217e-01	-1.608079e+02
8.300000e-07	9.980396e-08	-2.210262e-09	6.910585e-01	-1.465402e+02
8.400000e-07	2.308996e-07	-1.987586e-09	1.598785e+00	-1.318347e+02
8.500000e-07	3.619625e-07	-1.756910e-09	2.506286e+00	-1.166771e+02
8.600000e-07	4.928989e-07	-1.517682e-09	3.412910e+00	-1.010497e+02
8.700000e-07	6.236635e-07	-1.270554e-09	4.318345e+00	-8.492948e+01
8.800000e-07	7.542075e-07	-1.019565e-09	5.222253e+00	-6.828664e+01
8.900000e-07	8.845148e-07	-7.630872e-10	6.124521e+00	-5.108621e+01
9.000000e-07	1.014524e-06	-4.964260e-10	7.024724e+00	-3.329277e+01
9.100000e-07	1.144129e-06	-2.164070e-10	7.922132e+00	-1.487801e+01
9.200000e-07	1.273308e-06	7.649885e-11	8.816590e+00	4.169642e+00
9.300000e-07	1.402040e-06	3.773917e-10	9.707948e+00	2.383522e+01
9.400000e-07	1.530174e-06	6.855237e-10	1.059517e+01	4.406903e+01
9.500000e-07	1.657691e-06	1.000864e-09	1.147812e+01	6.478220e+01
9.600000e-07	1.784625e-06	1.322327e-09	1.235703e+01	8.584728e+01
9.700000e-07	1.910934e-06	1.647351e-09	1.323161e+01	1.071044e+02
9.800000e-07	2.036631e-06	1.970763e-09	1.410196e+01	1.283723e+02
9.900000e-07	2.161634e-06	2.291571e-09	1.496750e+01	1.494629e+02
1.000000e-06	2.285853e-06	2.607611e-09	1.582761e+01	1.701970e+02
1.010000e-06	2.409286e-06	2.916483e-09	1.668228e+01	1.904185e+02
1.020000e-06	2.531928e-06	3.216661e-09	1.753147e+01	2.100051e+02
1.030000e-06	2.653584e-06	3.503895e-09	1.837384e+01	2.288739e+02
1.040000e-06	2.774032e-06	3.777636e-09	1.920784e+01	2.469811e+02
1.050000e-06	2.893408e-06	4.039436e-09	2.003442e+01	2.643175e+02
1.060000e-06	3.011804e-06	4.289026e-09	2.085421e+01	2.808992e+02
1.070000e-06	3.129168e-06	4.528069e-09	2.166686e+01	2.967578e+02
1.080000e-06	3.245469e-06	4.755333e-09	2.247215e+01	3.119307e+02
1.090000e-06	3.360537e-06	4.972183e-09	2.326890e+01	3.264535e+02
1.100000e-06	3.474130e-06	5.179801e-09	2.405543e+01	3.403560e+02
1.110000e-06	3.586241e-06	5.380574e-09	2.483171e+01	3.536606e+02
1.120000e-06	3.697095e-06	5.575374e-09	2.559928e+01	3.663850e+02
1.130000e-06	3.806725e-06	5.761860e-09	2.635837e+01	3.785449e+02
1.140000e-06	3.915133e-06	5.940391e-09	2.710900e+01	3.901576e+02
1.150000e-06	4.022333e-06	6.109866e-09	2.785127e+01	4.012447e+02
1.160000e-06	4.128113e-06	6.271572e-09	2.858371e+01	4.118328e+02
1.170000e-06	4.232268e-06	6.427040e-09	2.930490e+01	4.219521e+02
1.180000e-06	4.334840e-06	6.573906e-09	3.001512e+01	4.316339e+02
1.190000e-06	4.435944e-06	6.713669e-09	3.071518e+01	4.409073e+02
1.200000e-06	4.535529e-06	6.847294e-09	3.140472e+01	4.497957e+02
1.210000e-06	4.633387e-06	6.975227e-09	3.208231e+01	4.583153e+02
1.220000e-06	4.729443e-06	7.100260e-09	3.274742e+01	4.664745e+02
1.230000e-06	4.823790e-06	7.218876e-09	3.340069e+01	4.742761e+02
1.240000e-06	4.916522e-06	7.332341e-09	3.404278e+01	4.817196e+02
1.250000e-06	5.007679e-06	7.440899e-09	3.467396e+01	4.888049e+02
1.260000e-06	5.096956e-06	7.543286e-09	3.529214e+01	4.955361e+02
1.270000e-06	5.184204e-06	7.639866e-09	3.589626e+01	5.019239e+02
1.280000e-06	5.269678e-06	7.731813e-09	3.648809e+01	5.079862e+02
1.290000e-06	5.353437e-06	7.818691e-09	3.706805e+01	5.137478e+02
1.300000e-06	5.435256e-06	7.900727e-09	3.763458e+01	5.192380e+02
1.310000e-06	5.515025e-06	7.978832e-09	3.818691e+01	5.244877e+02
1.320000e-06	5.592807e-06	8.053619e-09	3.872549e+01	5.295261e+02
1.330000e-06	5.668526e-06	8.126097e-09	3.924978e+01	5.343774e+02
1.340000e-06	5.741923e-06	8.198664e-09	3.975799e+01	5.390592e+02
1.350000e-06	5.813123e-06	8.270015e-09	4.025099e+01	5.435815e+02
1.360000e-06	5.882363e-06	8.337034e-09	4.073042e+01	5.479470e+02
1.370000e-06	5.949603e-06	8.400231e-09	4.119600e+01	5.521527e+02
1.380000e-06	6.014691e-06	8.459087e-09	4.164668e+01	5.561916e+02
1.390000e-06	6.077555e-06	8.515506e-09	4.208196e+01	5.600555e+02
1.400000e-06	6.138372e-06	8.570234e-09	4.250306e+01	5.637363e+02
1.410000e-06	6.197147e-06	8.622356e-09	4.291004e+01	5.672281e+02
1.420000e-06	6.253741e-06	8.671321e-09	4.330190e+01	5.705278e+02
1.430000e-06	6.308073e-06	8.717919e-09	4.367810e+01	5.736354e+02
1.440000e-06	6.360022e-06	8.763365e-09	4.403780e+01	5.765536e+02
1.450000e-06	6.409286e-06	8.806609e-09	4.437892e+01	5.792870e+02
1.460000e-06	6.456027e-06	8.846292e-09	4.470256e+01	5.818414e+02
1.470000e-06	6.500631e-06	8.881004e-09	4.501141e+01	5.842230e+02
1.480000e-06	6.543000e-06	8.912291e-09	4.530477e+01	5.864375e+02
1.490000e-06	6.582951e-06	8.942995e-09	4.558140e+01	5.884896e+02
1.500000e-06	6.620591e-06	8.971934e-09	4.584203e+01	5.903833e+02
1.510000e-06	6.656027e-06	8.997018e-09	4.608739e+01	5.921218e+02
1.520000e-06	6.689059e-06	9.019410e-09	4.631611e+01	5.937080e+02
1.530000e-06	6.719657e-06	9.038884e-09	4.652798e+01	5.951445e+02
1.540000e-06	6.748020e-06	9.057844e-09	4.672437e+01	5.964346e+02
1.550000e-06	6.773974e-06	9.076479e-09	4.690408e+01	5.975821e+02
1.560000e-06	6.797336e-06	9.092299e-09	4.706584e+01	5.985914e+02
1.570000e-06	6.818333e-06	9.105978e-09	4.721122e+01	5.994673e+02
1.580000e-06	6.837041e-06	9.117620e-09	4.734076e+01	6.002151e+02
1.590000e-06	6.853224e-06	9.126553e-09	4.745281e+01	6.008394e+02
1.600000e-06	6.866840e-06	9.133955e-09	4.754709e+01	6.013444e+02
1.610000e-06	6.877818e-06	9.140399e-09	4.762311e+01	6.017336e+02
1.620000e-06	6.886075e-06	9.145192e-09	4.768028e+01	6.020094e+02
1.630000e-06	6.891855e-06	9.148679e-09	4.772030e+01	6.021738e+02
1.640000e-06	6.895283e-06	9.150930e-09	4.774404e+01	6.022282e+02
1.650000e-06	6.896252e-06	9.151093e-09	4.775075e+01	6.021743e+02
1.660000e-06	6.894806e-06	9.150661e-09	4.774073e+01	6.020136e+02
1.670000e-06	6.891177e-06	9.150346e-09	4.771561e+01	6.017480e+02
1.680000e-06	6.885301e-06	9.143320e-09	4.767492e+01	6.013794e+02
1.690000e-06	6.877093e-06	9.134542e-09	4.761809e+01	6.009095e+02
1.700000e-06	6.866654e-06	9.125462e-09	4.754581e+01	6.003396e+02
1.710000e-06	6.853880e-06	9.114843e-09	4.745736e+01	5.996711e+02
1.720000e-06	6.838713e-06	9.098806e-09	4.735234e+01	5.989054e+02
1.730000e-06	6.821385e-06	9.070634e-09	4.723236e+01	5.980447e+02
1.740000e-06	6.801804e-06	9.077275e-09	4.709677e+01	5.970935e+02
1.750000e-06	6.779189e-06	9.053972e-09	4.694019e+01	5.960588e+02
1.760000e-06	6.753317e-06	9.024106e-09	4.676104e+01	5.949507e+02
1.770000e-06	6.724851e-06	9.027228e-09	4.656394e+01	5.937824e+02
1.780000e-06	6.694288e-06	8.988586e-09	4.635231e+01	5.925679e+02
1.790000e-06	6.662111e-06	8.964437e-09	4.612952e+01	5.913205e+02
1.800000e-06	6.628391e-06	9.027480e-09	4.589604e+01	5.900487e+02
1.810000e-06	6.592308e-06	8.957459e-09	4.564619e+01	5.887541e+02
1.820000e-06	6.553726e-06	8.959638e-09	4.537904e+01	5.874280e+02
1.830000e-06	6.513072e-06	8.998413e-09	4.509755e+01	5.860509e+02
1.840000e-06	6.470268e-06	8.877716e-09	4.480116e+01	5.845933e+02
1.850000e-06	6.425280e-06	8.892752e-09	4.448966e+01	5.830185e+02
1.860000e-06	6.377924e-06	8.832280e-09	4.416176e+01	5.812880e+02
1.870000e-06	6.328162e-06	8.762624e-09	4.381720e+01	5.793669e+02
1.880000e-06	6.276139e-06	8.801387e-09	4.345699e+01	5.772302e+02
1.890000e-06	6.221445e-06	8.779607e-09	4.307828e+01	5.748668e+02
1.900000e-06	6.164164e-06	8.794017e-09	4.268165e+01	5.722822e+02
1.910000e-06	6.104568e-06	8.723261e-09	4.226900e+01	5.694973e+02
1.920000e-06	6.042628e-06	8.636303e-09	4.184012e+01	5.665450e+02
1.930000e-06	5.978495e-06	8.611256e-09	4.139605e+01	5.634632e+02
1.940000e-06	5.912215e-06	8.551343e-09	4.093712e+01	5.602887e+02
1.950000e-06	5.843858e-06	8.543547e-09	4.046380e+01	5.570492e+02
1.960000e-06	5.773203e-06	8.464314e-09	3.997458e+01	5.537590e+02
1.970000e-06	5.700199e-06	8.421245e-09	3.946908e+01	5.504164e+02
1.980000e-06	5.625024e-06	8.366749e-09	3.894856e+01	5.470051e+02
1.990000e-06	5.547559e-06	8.285208e-09	3.841218e+01	5.434986e+02
2.000000e-06	5.467953e-06	8.260851e-09	3.786098e+01	5.398660e+02
2.010000e-06	5.386434e-06	8.183647e-09	3.729653e+01	5.360792e+02
2.020000e-06	5.303149e-06	8.124623e-09	3.671985e+01	5.321186e+02
2.030000e-06	5.218005e-06	8.053833e-09	3.613030e+01	5.279766e+02
2.040000e-06	5.130820e-06	8.007570e-09	3.552662e+01	5.236585e+02
2.050000e-06	5.041827e-06	7.944987e-09	3.491041e+01	5.191796e+02
2.060000e-06	4.951218e-06	7.859239e-09	3.428302e+01	5.145608e+02
2.070000e-06	4.858998e-06	7.793459e-09	3.364447e+01	5.098225e+02
2.080000e-06	4.764998e-06	7.709039e-09	3.299361e+01	5.049797e+02
2.090000e-06	4.669211e-06	7.651105e-09	3.233036e+01	5.000375e+02
2.100000e-06	4.571831e-06	7.578314e-09	3.165609e+01	4.949909e+02
2.110000e-06	4.472983e-06	7.510372e-09	3.097164e+01	4.898252e+02
2.120000e-06	4.372671e-06	7.423172e-09	3.027707e+01	4.845206e+02
2.130000e-06	4.270723e-06	7.317004e-09	2.957117e+01	4.790562e+02
2.140000e-06	4.167110e-06	7.219586e-09	2.885374e+01	4.734146e+02
2.150000e-06	4.061971e-06	7.135805e-09	2.812574e+01	4.675858e+02
2.160000e-06	3.955456e-06	7.061816e-09	2.738821e+01	4.615677e+02
2.170000e-06	3.847559e-06	6.974208e-09	2.664111e+01	4.553657e+02
2.180000e-06	3.738264e-06	6.878438e-09	2.588434e+01	4.489895e+02
2.190000e-06	3.627503e-06	6.773309e-09	2.511741e+01	4.424499e+02
2.200000e-06	3.515352e-06	6.678251e-09	2.434085e+01	4.357548e+02
2.210000e-06	3.401939e-06	6.575381e-09	2.355557e+01	4.289066e+02
2.220000e-06	3.287195e-06	6.464429e-09	2.276106e+01	4.219018e+02
2.230000e-06	3.171064e-06	6.344983e-09	2.195695e+01	4.147311e+02
2.240000e-06	3.053568e-06	6.227025e-09	2.114339e+01	4.073821e+02
2.250000e-06	2.934792e-06	6.114045e-09	2.032097e+01	3.998418e+02
2.260000e-06	2.814886e-06	6.003435e-09	1.949072e+01	3.920992e+02
2.270000e-06	2.693972e-06	5.893898e-09	1.865349e+01	3.841470e+02
2.280000e-06	2.572112e-06	5.773554e-09	1.780972e+01	3.759813e+02
2.290000e-06	2.449385e-06	5.642574e-09	1.695993e+01	3.676012e+02
2.300000e-06	2.325853e-06	5.510156e-09	1.610458e+01	3.590062e+02
2.310000e-06	2.201626e-06	5.384026e-09	1.524441e+01	3.501945e+02
2.320000e-06	2.076654e-06	5.250651e-09	1.437908e+01	3.411611e+02
2.330000e-06	1.950912e-06	5.104686e-09	1.350842e+01	3.318973e+02
2.340000e-06	1.824419e-06	4.949277e-09	1.263257e+01	3.223912e+02
2.350000e-06	1.697173e-06	4.794755e-09	1.175150e+01	3.126295e+02
2.360000e-06	1.569333e-06	4.644854e-09	1.086631e+01	3.025990e+02
2.370000e-06	1.441049e-06	4.495657e-09	9.978056e+00	2.922886e+02
2.380000e-06	1.312337e-06	4.340403e-09	9.086832e+00	2.816901e+02
2.390000e-06	1.183165e-06	4.173021e-09	8.192422e+00	2.707980e+02
2.400000e-06	1.053590e-06	3.998689e-09	7.295227e+00	2.596079e+02
2.410000e-06	9.237236e-07	3.825118e-09	6.396009e+00	2.481149e+02
2.420000e-06	7.936212e-07	3.648657e-09	5.495160e+00	2.363112e+02
2.430000e-06	6.632934e-07	3.462783e-09	4.592749e+00	2.241853e+02
2.440000e-06	5.327496e-07	3.267640e-09	3.688843e+00	2.117213e+02
2.450000e-06	4.020242e-07	3.066485e-09	2.783679e+00	1.989003e+02
2.460000e-06	2.711886e-07	2.864448e-09	1.877753e+00	1.857020e+02
2.470000e-06	1.402769e-07	2.659779e-09	9.712993e-01	1.721069e+02
2.480000e-06	9.309939e-09	2.448228e-09	6.446350e-02	1.580975e+02
2.490000e-06	-1.216649e-07	2.228062e-09	-8.424268e-01	1.436587e+02
2.500000e-06	-2.526006e-07	1.996161e-09	-1.749046e+00	1.287766e+02
2.510000e-06	-3.835064e-07	1.755530e-09	-2.655459e+00	1.134360e+02
2.520000e-06	-5.143201e-07	1.513550e-09	-3.561234e+00	9.761741e+01
2.530000e-06	-6.449393e-07	1.268133e-09	-4.465663e+00	8.129502e+01
2.540000e-06	-7.754341e-07	1.012793e-09	-5.369229e+00	6.443670e+01
2.550000e-06	-9.057487e-07	7.432610e-10	-6.271549e+00	4.700657e+01
2.560000e-06	-1.035722e-06	4.632682e-10	-7.171507e+00	2.897095e+01
2.570000e-06	-1.165344e-06	1.798144e-10	-8.069029e+00	1.030692e+01
2.580000e-06	-1.294554e-06	-1.106636e-10	-8.963700e+00	-8.987806e+00
2.590000e-06	-1.423290e-06	-4.137723e-10	-9.855090e+00	-2.888542e+01
2.600000e-06	-1.551541e-06	-7.289998e-10	-1.074312e+01	-4.932112e+01
2.610000e-06	-1.679252e-06	-1.051540e-09	-1.162741e+01	-7.019049e+01
2.620000e-06	-1.806393e-06	-1.376055e-09	-1.250775e+01	-9.135232e+01
2.630000e-06	-1.932903e-06	-1.698914e-09	-1.338373e+01	-1.126367e+02
2.640000e-06	-2.058577e-06	-2.019949e-09	-1.425392e+01	-1.338580e+02
2.650000e-06	-2.183338e-06	-2.339461e-09	-1.511778e+01	-1.548297e+02
2.660000e-06	-2.307164e-06	-2.654422e-09	-1.597517e+01	-1.753802e+02
2.670000e-06	-2.430061e-06	-2.958421e-09	-1.682613e+01	-1.953655e+02
2.680000e-06	-2.552115e-06	-3.249679e-09	-1.767125e+01	-2.146785e+02
2.690000e-06	-2.673235e-06	-3.533425e-09	-1.850991e+01	-2.332520e+02
2.700000e-06	-2.793371e-06	-3.810742e-09	-1.934175e+01	-2.510567e+02
2.710000e-06	-2.912579e-06	-4.078752e-09	-2.016716e+01	-2.680943e+02
2.720000e-06	-3.030691e-06	-4.333034e-09	-2.098498e+01	-2.843883e+02
2.730000e-06	-3.147469e-06	-4.571945e-09	-2.179358e+01	-2.999738e+02
2.740000e-06	-3.262916e-06	-4.798390e-09	-2.259295e+01	-3.148882e+02
2.750000e-06	-3.377091e-06	-5.016871e-09	-2.338352e+01	-3.291649e+02
2.760000e-06	-3.489929e-06	-5.228749e-09	-2.416482e+01	-3.428309e+02
2.770000e-06	-3.601317e-06	-5.430540e-09	-2.493609e+01	-3.559065e+02
2.780000e-06	-3.711375e-06	-5.620999e-09	-2.569815e+01	-3.684079e+02
2.790000e-06	-3.820205e-06	-5.801953e-09	-2.645171e+01	-3.803513e+02
2.800000e-06	-3.927804e-06	-5.978067e-09	-2.719674e+01	-3.917554e+02
2.810000e-06	-4.034159e-06	-6.148753e-09	-2.793316e+01	-4.026438e+02
2.820000e-06	-4.139063e-06	-6.310251e-09	-2.865953e+01	-4.130448e+02
2.830000e-06	-4.242464e-06	-6.460694e-09	-2.937550e+01	-4.229893e+02
2.840000e-06	-4.344249e-06	-6.601770e-09	-3.008027e+01	-4.325083e+02
2.850000e-06	-4.444404e-06	-6.738253e-09	-3.077376e+01	-4.416287e+02
2.860000e-06	-4.543067e-06	-6.872098e-09	-3.145692e+01	-4.503715e+02
2.870000e-06	-4.640143e-06	-7.002409e-09	-3.212909e+01	-4.587496e+02
2.880000e-06	-4.735640e-06	-7.126065e-09	-3.279033e+01	-4.667691e+02
2.890000e-06	-4.829404e-06	-7.244327e-09	-3.343957e+01	-4.744309e+02
2.900000e-06	-4.921401e-06	-7.358860e-09	-3.407656e+01	-4.817342e+02
2.910000e-06	-5.011712e-06	-7.467977e-09	-3.470189e+01	-4.886803e+02
2.920000e-06	-5.100248e-06	-7.569810e-09	-3.531493e+01	-4.952758e+02
2.930000e-06	-5.186856e-06	-7.663890e-09	-3.591462e+01	-5.015339e+02
2.940000e-06	-5.271474e-06	-7.751955e-09	-3.650053e+01	-5.074755e+02
