# Temperatura_=_30.96
# Concentracion g/m^3_=_15000.0
# C_Vs_to_Am_M_A/Vsm_=_65563218390.804596
# pendiente_HvsI_1/m_=_3716.3
# ordenada_HvsI_A/m_=_1297.0
# frecuencia_Hz_=_301891.013851752

Tiempo_(s)	Campo_(V.s)	Magnetizacion_(V.s)	Campo_(kA/m)	Magnetizacion_(A/m)
0.000000e+00	-6.851960e-06	-8.154444e-09	-4.749593e+01	-5.326296e+02
1.000000e-08	-6.848937e-06	-8.152239e-09	-4.747497e+01	-5.324773e+02
2.000000e-08	-6.843649e-06	-8.149400e-09	-4.743832e+01	-5.322345e+02
3.000000e-08	-6.836283e-06	-8.144905e-09	-4.738725e+01	-5.318975e+02
4.000000e-08	-6.826576e-06	-8.136444e-09	-4.731997e+01	-5.314657e+02
5.000000e-08	-6.814369e-06	-8.127288e-09	-4.723536e+01	-5.309432e+02
6.000000e-08	-6.799701e-06	-8.114528e-09	-4.713368e+01	-5.303391e+02
7.000000e-08	-6.782674e-06	-8.102507e-09	-4.701566e+01	-5.296658e+02
8.000000e-08	-6.763527e-06	-8.109530e-09	-4.688293e+01	-5.289381e+02
9.000000e-08	-6.742009e-06	-8.095672e-09	-4.673377e+01	-5.281696e+02
1.000000e-07	-6.717644e-06	-8.077003e-09	-4.656488e+01	-5.273712e+02
1.100000e-07	-6.690493e-06	-8.068175e-09	-4.637668e+01	-5.265492e+02
1.200000e-07	-6.660998e-06	-8.042922e-09	-4.617223e+01	-5.257042e+02
1.300000e-07	-6.629567e-06	-7.995736e-09	-4.595436e+01	-5.248315e+02
1.400000e-07	-6.596241e-06	-8.005592e-09	-4.572335e+01	-5.239219e+02
1.500000e-07	-6.560946e-06	-8.004113e-09	-4.547870e+01	-5.229632e+02
1.600000e-07	-6.523613e-06	-7.936633e-09	-4.521991e+01	-5.219418e+02
1.700000e-07	-6.484258e-06	-7.973171e-09	-4.494711e+01	-5.208432e+02
1.800000e-07	-6.442565e-06	-7.927125e-09	-4.465811e+01	-5.196537e+02
1.900000e-07	-6.398266e-06	-7.886760e-09	-4.435104e+01	-5.183601e+02
2.000000e-07	-6.351644e-06	-7.929001e-09	-4.402787e+01	-5.169507e+02
2.100000e-07	-6.302506e-06	-7.891275e-09	-4.368726e+01	-5.154154e+02
2.200000e-07	-6.250696e-06	-7.870670e-09	-4.332813e+01	-5.137469e+02
2.300000e-07	-6.196419e-06	-7.816834e-09	-4.295189e+01	-5.119414e+02
2.400000e-07	-6.139695e-06	-7.760117e-09	-4.255870e+01	-5.099993e+02
2.500000e-07	-6.080660e-06	-7.738799e-09	-4.214949e+01	-5.079263e+02
2.600000e-07	-6.019445e-06	-7.706547e-09	-4.172516e+01	-5.057326e+02
2.700000e-07	-5.956069e-06	-7.682259e-09	-4.128585e+01	-5.034319e+02
2.800000e-07	-5.890456e-06	-7.641142e-09	-4.083104e+01	-5.010393e+02
2.900000e-07	-5.822592e-06	-7.609100e-09	-4.036063e+01	-4.985680e+02
3.000000e-07	-5.752592e-06	-7.564026e-09	-3.987540e+01	-4.960269e+02
3.100000e-07	-5.680533e-06	-7.521548e-09	-3.937591e+01	-4.934183e+02
3.200000e-07	-5.606272e-06	-7.496208e-09	-3.886115e+01	-4.907367e+02
3.300000e-07	-5.529668e-06	-7.429769e-09	-3.833016e+01	-4.879699e+02
3.400000e-07	-5.450788e-06	-7.389489e-09	-3.778338e+01	-4.851012e+02
3.500000e-07	-5.369819e-06	-7.359978e-09	-3.722213e+01	-4.821128e+02
3.600000e-07	-5.287028e-06	-7.318463e-09	-3.664824e+01	-4.789899e+02
3.700000e-07	-5.202539e-06	-7.264820e-09	-3.606258e+01	-4.757235e+02
3.800000e-07	-5.116266e-06	-7.198181e-09	-3.546456e+01	-4.723125e+02
3.900000e-07	-5.028146e-06	-7.140605e-09	-3.485374e+01	-4.687632e+02
4.000000e-07	-4.938200e-06	-7.078299e-09	-3.423026e+01	-4.650876e+02
4.100000e-07	-4.846531e-06	-7.031366e-09	-3.359484e+01	-4.612995e+02
4.200000e-07	-4.753293e-06	-6.979209e-09	-3.294854e+01	-4.574104e+02
4.300000e-07	-4.658425e-06	-6.914525e-09	-3.229093e+01	-4.534262e+02
4.400000e-07	-4.561866e-06	-6.843892e-09	-3.162161e+01	-4.493451e+02
4.500000e-07	-4.463586e-06	-6.770016e-09	-3.094036e+01	-4.451574e+02
4.600000e-07	-4.363642e-06	-6.707811e-09	-3.024758e+01	-4.408475e+02
4.700000e-07	-4.262250e-06	-6.642519e-09	-2.954476e+01	-4.363978e+02
4.800000e-07	-4.159388e-06	-6.575192e-09	-2.883175e+01	-4.317919e+02
4.900000e-07	-4.055000e-06	-6.503068e-09	-2.810816e+01	-4.270186e+02
5.000000e-07	-3.949052e-06	-6.428239e-09	-2.737376e+01	-4.220740e+02
5.100000e-07	-3.841569e-06	-6.350636e-09	-2.662871e+01	-4.169611e+02
5.200000e-07	-3.732805e-06	-6.267686e-09	-2.587479e+01	-4.116881e+02
5.300000e-07	-3.622812e-06	-6.177815e-09	-2.511235e+01	-4.062650e+02
5.400000e-07	-3.511444e-06	-6.082391e-09	-2.434037e+01	-4.007000e+02
5.500000e-07	-3.398612e-06	-5.994669e-09	-2.355825e+01	-3.949964e+02
5.600000e-07	-3.284399e-06	-5.908935e-09	-2.276656e+01	-3.891510e+02
5.700000e-07	-3.168825e-06	-5.823325e-09	-2.196544e+01	-3.831542e+02
5.800000e-07	-3.051900e-06	-5.731046e-09	-2.115494e+01	-3.769927e+02
5.900000e-07	-2.933771e-06	-5.630818e-09	-2.033610e+01	-3.706519e+02
6.000000e-07	-2.814617e-06	-5.525530e-09	-1.951016e+01	-3.641199e+02
6.100000e-07	-2.694510e-06	-5.420930e-09	-1.867761e+01	-3.573893e+02
6.200000e-07	-2.573403e-06	-5.319202e-09	-1.783813e+01	-3.504583e+02
6.300000e-07	-2.451303e-06	-5.211904e-09	-1.699177e+01	-3.433296e+02
6.400000e-07	-2.328244e-06	-5.096933e-09	-1.613875e+01	-3.360076e+02
6.500000e-07	-2.204270e-06	-4.977554e-09	-1.527940e+01	-3.284948e+02
6.600000e-07	-2.079511e-06	-4.858204e-09	-1.441461e+01	-3.207893e+02
6.700000e-07	-1.954173e-06	-4.736568e-09	-1.354579e+01	-3.128820e+02
6.800000e-07	-1.828262e-06	-4.612859e-09	-1.267301e+01	-3.047573e+02
6.900000e-07	-1.701632e-06	-4.486690e-09	-1.179525e+01	-2.963945e+02
7.000000e-07	-1.574410e-06	-4.355778e-09	-1.091338e+01	-2.877712e+02
7.100000e-07	-1.446694e-06	-4.220500e-09	-1.002809e+01	-2.788672e+02
7.200000e-07	-1.318409e-06	-4.080493e-09	-9.138851e+00	-2.696677e+02
7.300000e-07	-1.189718e-06	-3.933859e-09	-8.246802e+00	-2.601648e+02
7.400000e-07	-1.060762e-06	-3.780112e-09	-7.352911e+00	-2.503576e+02
7.500000e-07	-9.315041e-07	-3.622797e-09	-6.456934e+00	-2.402496e+02
7.600000e-07	-8.018997e-07	-3.462572e-09	-5.558551e+00	-2.298455e+02
7.700000e-07	-6.720132e-07	-3.298559e-09	-4.658213e+00	-2.191473e+02
7.800000e-07	-5.419317e-07	-3.130620e-09	-3.756523e+00	-2.081513e+02
7.900000e-07	-4.116394e-07	-2.958454e-09	-2.853372e+00	-1.968469e+02
8.000000e-07	-2.811690e-07	-2.780429e-09	-1.948987e+00	-1.852169e+02
8.100000e-07	-1.505255e-07	-2.597230e-09	-1.043402e+00	-1.732404e+02
8.200000e-07	-1.976510e-08	-2.409147e-09	-1.370063e-01	-1.608953e+02
8.300000e-07	1.110210e-07	-2.219225e-09	7.695674e-01	-1.481616e+02
8.400000e-07	2.417945e-07	-2.025535e-09	1.676054e+00	-1.350231e+02
8.500000e-07	3.725153e-07	-1.822352e-09	2.582175e+00	-1.214671e+02
8.600000e-07	5.031499e-07	-1.611050e-09	3.487699e+00	-1.074823e+02
8.700000e-07	6.336401e-07	-1.389005e-09	4.392221e+00	-9.305620e+01
8.800000e-07	7.639107e-07	-1.159052e-09	5.295222e+00	-7.817155e+01
8.900000e-07	8.938726e-07	-9.232186e-10	6.196082e+00	-6.280537e+01
9.000000e-07	1.023493e-06	-6.824727e-10	7.094574e+00	-4.693006e+01
9.100000e-07	1.152797e-06	-4.341122e-10	7.990877e+00	-3.051797e+01
9.200000e-07	1.281810e-06	-1.756360e-10	8.885160e+00	-1.354889e+01
9.300000e-07	1.410458e-06	8.865346e-11	9.776911e+00	3.980753e+00
9.400000e-07	1.538581e-06	3.595770e-10	1.066503e+01	2.204882e+01
9.500000e-07	1.666078e-06	6.384875e-10	1.154880e+01	4.060057e+01
9.600000e-07	1.792910e-06	9.266454e-10	1.242796e+01	5.954583e+01
9.700000e-07	1.919062e-06	1.221455e-09	1.330242e+01	7.876132e+01
9.800000e-07	2.044561e-06	1.516010e-09	1.417234e+01	9.809814e+01
9.900000e-07	2.169436e-06	1.809281e-09	1.503794e+01	1.173934e+02
1.000000e-06	2.293627e-06	2.099376e-09	1.589880e+01	1.364843e+02
1.010000e-06	2.416874e-06	2.385701e-09	1.675311e+01	1.552215e+02
1.020000e-06	2.539003e-06	2.664923e-09	1.759968e+01	1.734804e+02
1.030000e-06	2.660221e-06	2.931191e-09	1.843993e+01	1.911684e+02
1.040000e-06	2.780525e-06	3.187483e-09	1.927385e+01	2.082260e+02
1.050000e-06	2.899701e-06	3.434487e-09	2.009994e+01	2.246247e+02
1.060000e-06	3.017846e-06	3.672221e-09	2.091889e+01	2.403598e+02
1.070000e-06	3.134998e-06	3.901197e-09	2.173096e+01	2.554423e+02
1.080000e-06	3.250960e-06	4.118511e-09	2.253477e+01	2.698909e+02
1.090000e-06	3.365538e-06	4.325550e-09	2.332899e+01	2.837255e+02
1.100000e-06	3.478804e-06	4.524009e-09	2.411413e+01	2.969638e+02
1.110000e-06	3.590763e-06	4.716683e-09	2.489019e+01	3.096203e+02
1.120000e-06	3.701390e-06	4.901720e-09	2.565703e+01	3.217080e+02
1.130000e-06	3.810823e-06	5.077931e-09	2.641559e+01	3.332407e+02
1.140000e-06	3.919129e-06	5.246183e-09	2.716634e+01	3.442349e+02
1.150000e-06	4.026084e-06	5.406376e-09	2.790772e+01	3.547116e+02
1.160000e-06	4.131516e-06	5.559928e-09	2.863854e+01	3.646952e+02
1.170000e-06	4.235367e-06	5.706063e-09	2.935841e+01	3.742116e+02
1.180000e-06	4.337635e-06	5.844424e-09	3.006731e+01	3.832857e+02
1.190000e-06	4.438517e-06	5.975394e-09	3.076659e+01	3.919384e+02
1.200000e-06	4.537794e-06	6.098739e-09	3.145476e+01	4.001855e+02
1.210000e-06	4.635337e-06	6.216192e-09	3.213090e+01	4.080372e+02
1.220000e-06	4.731134e-06	6.329494e-09	3.279493e+01	4.155006e+02
1.230000e-06	4.825227e-06	6.437281e-09	3.344717e+01	4.225821e+02
1.240000e-06	4.917779e-06	6.539610e-09	3.408871e+01	4.292908e+02
1.250000e-06	5.008698e-06	6.635780e-09	3.471893e+01	4.356417e+02
1.260000e-06	5.097768e-06	6.727482e-09	3.533634e+01	4.416565e+02
1.270000e-06	5.184903e-06	6.816164e-09	3.594034e+01	4.473637e+02
1.280000e-06	5.270249e-06	6.899934e-09	3.653193e+01	4.527957e+02
1.290000e-06	5.353778e-06	6.978047e-09	3.711094e+01	4.579860e+02
1.300000e-06	5.435350e-06	7.052179e-09	3.767637e+01	4.629650e+02
1.310000e-06	5.514884e-06	7.123672e-09	3.822768e+01	4.677566e+02
1.320000e-06	5.592427e-06	7.192515e-09	3.876519e+01	4.723766e+02
1.330000e-06	5.667926e-06	7.259778e-09	3.928852e+01	4.768322e+02
1.340000e-06	5.741112e-06	7.326091e-09	3.979583e+01	4.811236e+02
1.350000e-06	5.812171e-06	7.389684e-09	4.028839e+01	4.852461e+02
1.360000e-06	5.881219e-06	7.451082e-09	4.076701e+01	4.891932e+02
1.370000e-06	5.948168e-06	7.509712e-09	4.123109e+01	4.929589e+02
1.380000e-06	6.012901e-06	7.564492e-09	4.167979e+01	4.965394e+02
1.390000e-06	6.075461e-06	7.614470e-09	4.211345e+01	4.999335e+02
1.400000e-06	6.136131e-06	7.660015e-09	4.253399e+01	5.031422e+02
1.410000e-06	6.194755e-06	7.703760e-09	4.294036e+01	5.061675e+02
1.420000e-06	6.251120e-06	7.744676e-09	4.333107e+01	5.090112e+02
1.430000e-06	6.305209e-06	7.783263e-09	4.370599e+01	5.116745e+02
1.440000e-06	6.356845e-06	7.820887e-09	4.406392e+01	5.141582e+02
1.450000e-06	6.405836e-06	7.857357e-09	4.440351e+01	5.164635e+02
1.460000e-06	6.452404e-06	7.890966e-09	4.472631e+01	5.185929e+02
1.470000e-06	6.496874e-06	7.919552e-09	4.503457e+01	5.205518e+02
1.480000e-06	6.539103e-06	7.946050e-09	4.532728e+01	5.223486e+02
1.490000e-06	6.578860e-06	7.972885e-09	4.560287e+01	5.239947e+02
1.500000e-06	6.616339e-06	7.995974e-09	4.586266e+01	5.255033e+02
1.510000e-06	6.651630e-06	8.013984e-09	4.610729e+01	5.268873e+02
1.520000e-06	6.684464e-06	8.030568e-09	4.633489e+01	5.281579e+02
1.530000e-06	6.714857e-06	8.046180e-09	4.654556e+01	5.293224e+02
1.540000e-06	6.743031e-06	8.061750e-09	4.674086e+01	5.303842e+02
1.550000e-06	6.768758e-06	8.076472e-09	4.691919e+01	5.313430e+02
1.560000e-06	6.791919e-06	8.089773e-09	4.707974e+01	5.321959e+02
1.570000e-06	6.812732e-06	8.100433e-09	4.722400e+01	5.329398e+02
1.580000e-06	6.831167e-06	8.109848e-09	4.735179e+01	5.335728e+02
1.590000e-06	6.847083e-06	8.120764e-09	4.746212e+01	5.340960e+02
1.600000e-06	6.860448e-06	8.129484e-09	4.755476e+01	5.345135e+02
1.610000e-06	6.871120e-06	8.133770e-09	4.762874e+01	5.348321e+02
1.620000e-06	6.879095e-06	8.133911e-09	4.768402e+01	5.350594e+02
1.630000e-06	6.884663e-06	8.133432e-09	4.772262e+01	5.352021e+02
1.640000e-06	6.887936e-06	8.136491e-09	4.774530e+01	5.352643e+02
1.650000e-06	6.888722e-06	8.140867e-09	4.775075e+01	5.352465e+02
1.660000e-06	6.887076e-06	8.140097e-09	4.773934e+01	5.351462e+02
1.670000e-06	6.883331e-06	8.138052e-09	4.771338e+01	5.349585e+02
1.680000e-06	6.877300e-06	8.130855e-09	4.767158e+01	5.346785e+02
1.690000e-06	6.868891e-06	8.123837e-09	4.761329e+01	5.343036e+02
1.700000e-06	6.858337e-06	8.119527e-09	4.754013e+01	5.338349e+02
1.710000e-06	6.845445e-06	8.114588e-09	4.745077e+01	5.332786e+02
1.720000e-06	6.830112e-06	8.108627e-09	4.734448e+01	5.326452e+02
1.730000e-06	6.812641e-06	8.070682e-09	4.722338e+01	5.319483e+02
1.740000e-06	6.792905e-06	8.062591e-09	4.708657e+01	5.312025e+02
1.750000e-06	6.770033e-06	8.059882e-09	4.692803e+01	5.304208e+02
1.760000e-06	6.743869e-06	8.035713e-09	4.674666e+01	5.296122e+02
1.770000e-06	6.715182e-06	8.045294e-09	4.654782e+01	5.287810e+02
1.780000e-06	6.684502e-06	8.065902e-09	4.633515e+01	5.279254e+02
1.790000e-06	6.652304e-06	8.004449e-09	4.611196e+01	5.270390e+02
1.800000e-06	6.618519e-06	8.041173e-09	4.587777e+01	5.261112e+02
1.810000e-06	6.582276e-06	8.029934e-09	4.562655e+01	5.251292e+02
1.820000e-06	6.543566e-06	7.953910e-09	4.535822e+01	5.240786e+02
1.830000e-06	6.502752e-06	8.008556e-09	4.507531e+01	5.229455e+02
1.840000e-06	6.459727e-06	7.914263e-09	4.477707e+01	5.217161e+02
1.850000e-06	6.414522e-06	7.879377e-09	4.446372e+01	5.203779e+02
1.860000e-06	6.366909e-06	7.900642e-09	4.413368e+01	5.189196e+02
1.870000e-06	6.316926e-06	7.833296e-09	4.378721e+01	5.173323e+02
1.880000e-06	6.264622e-06	7.881677e-09	4.342466e+01	5.156097e+02
1.890000e-06	6.209601e-06	7.844224e-09	4.304327e+01	5.137497e+02
1.900000e-06	6.152190e-06	7.802974e-09	4.264531e+01	5.117547e+02
1.910000e-06	6.092512e-06	7.786221e-09	4.223164e+01	5.096324e+02
1.920000e-06	6.030434e-06	7.694069e-09	4.180133e+01	5.073944e+02
1.930000e-06	5.966145e-06	7.710281e-09	4.135570e+01	5.050554e+02
1.940000e-06	5.899715e-06	7.658427e-09	4.089522e+01	5.026300e+02
1.950000e-06	5.831244e-06	7.627754e-09	4.042060e+01	5.001301e+02
1.960000e-06	5.760438e-06	7.592234e-09	3.992979e+01	4.975621e+02
1.970000e-06	5.687311e-06	7.536854e-09	3.942290e+01	4.949254e+02
1.980000e-06	5.612080e-06	7.531606e-09	3.890142e+01	4.922117e+02
1.990000e-06	5.534516e-06	7.450648e-09	3.836376e+01	4.894065e+02
2.000000e-06	5.454776e-06	7.413842e-09	3.781103e+01	4.864923e+02
2.010000e-06	5.373184e-06	7.357769e-09	3.724545e+01	4.834522e+02
2.020000e-06	5.289843e-06	7.310658e-09	3.666775e+01	4.802731e+02
2.030000e-06	5.204564e-06	7.275650e-09	3.607662e+01	4.769491e+02
2.040000e-06	5.117281e-06	7.226005e-09	3.547160e+01	4.734821e+02
2.050000e-06	5.028211e-06	7.182099e-09	3.485419e+01	4.698812e+02
2.060000e-06	4.937549e-06	7.094358e-09	3.422575e+01	4.661593e+02
2.070000e-06	4.845321e-06	7.043424e-09	3.358645e+01	4.623299e+02
2.080000e-06	4.751256e-06	6.988988e-09	3.293442e+01	4.584027e+02
2.090000e-06	4.655396e-06	6.946896e-09	3.226994e+01	4.543806e+02
2.100000e-06	4.557993e-06	6.886431e-09	3.159477e+01	4.502587e+02
2.110000e-06	4.459109e-06	6.814698e-09	3.090933e+01	4.460246e+02
2.120000e-06	4.358706e-06	6.747047e-09	3.021336e+01	4.416614e+02
2.130000e-06	4.256701e-06	6.663373e-09	2.950629e+01	4.371516e+02
2.140000e-06	4.153071e-06	6.592451e-09	2.878796e+01	4.324804e+02
2.150000e-06	4.047951e-06	6.517830e-09	2.805930e+01	4.276394e+02
2.160000e-06	3.941485e-06	6.451347e-09	2.732130e+01	4.226275e+02
2.170000e-06	3.833635e-06	6.376757e-09	2.657372e+01	4.174501e+02
2.180000e-06	3.724372e-06	6.304259e-09	2.581634e+01	4.121165e+02
2.190000e-06	3.613661e-06	6.222322e-09	2.504892e+01	4.066364e+02
2.200000e-06	3.501581e-06	6.137484e-09	2.427201e+01	4.010165e+02
2.210000e-06	3.388172e-06	6.044070e-09	2.348589e+01	3.952574e+02
2.220000e-06	3.273392e-06	5.946419e-09	2.269027e+01	3.893535e+02
2.230000e-06	3.157260e-06	5.855137e-09	2.188527e+01	3.832933e+02
2.240000e-06	3.039863e-06	5.764500e-09	2.107150e+01	3.770625e+02
2.250000e-06	2.921268e-06	5.672913e-09	2.024943e+01	3.706473e+02
2.260000e-06	2.801485e-06	5.568509e-09	1.941913e+01	3.640374e+02
2.270000e-06	2.680604e-06	5.462538e-09	1.858122e+01	3.572275e+02
2.280000e-06	2.558765e-06	5.356596e-09	1.773666e+01	3.502179e+02
2.290000e-06	2.436104e-06	5.251674e-09	1.688641e+01	3.430123e+02
2.300000e-06	2.312576e-06	5.143870e-09	1.603015e+01	3.356147e+02
2.310000e-06	2.188280e-06	5.033600e-09	1.516856e+01	3.280264e+02
2.320000e-06	2.063333e-06	4.912661e-09	1.430246e+01	3.202426e+02
2.330000e-06	1.937697e-06	4.782923e-09	1.343159e+01	3.122517e+02
2.340000e-06	1.811346e-06	4.651927e-09	1.255576e+01	3.040356e+02
2.350000e-06	1.684269e-06	4.521791e-09	1.167489e+01	2.955726e+02
2.360000e-06	1.556558e-06	4.391780e-09	1.078964e+01	2.868407e+02
2.370000e-06	1.428316e-06	4.258693e-09	9.900700e+00	2.778216e+02
2.380000e-06	1.299611e-06	4.123698e-09	9.008550e+00	2.685029e+02
2.390000e-06	1.170512e-06	3.982653e-09	8.113668e+00	2.588798e+02
2.400000e-06	1.041072e-06	3.831305e-09	7.216426e+00	2.489533e+02
2.410000e-06	9.113657e-07	3.673188e-09	6.317340e+00	2.387281e+02
2.420000e-06	7.814073e-07	3.509655e-09	5.416503e+00	2.282080e+02
2.430000e-06	6.512148e-07	3.340925e-09	4.514044e+00	2.173932e+02
2.440000e-06	5.208927e-07	3.173423e-09	3.610687e+00	2.062772e+02
2.450000e-06	3.904390e-07	3.005171e-09	2.706417e+00	1.948467e+02
2.460000e-06	2.598051e-07	2.830614e-09	1.800898e+00	1.830828e+02
2.470000e-06	1.289954e-07	2.644788e-09	8.941611e-01	1.709635e+02
2.480000e-06	-1.898743e-09	2.448862e-09	-1.316157e-02	1.584675e+02
2.490000e-06	-1.327777e-07	2.249734e-09	-9.203787e-01	1.455760e+02
2.500000e-06	-2.636154e-07	2.043910e-09	-1.827311e+00	1.322744e+02
2.510000e-06	-3.943700e-07	1.829717e-09	-2.733665e+00	1.185508e+02
2.520000e-06	-5.249721e-07	1.612049e-09	-3.638964e+00	1.043939e+02
2.530000e-06	-6.554570e-07	1.390772e-09	-4.543450e+00	8.978955e+01
2.540000e-06	-7.858008e-07	1.164878e-09	-5.446958e+00	7.471832e+01
2.550000e-06	-9.158485e-07	9.284837e-10	-6.348413e+00	5.915508e+01
2.560000e-06	-1.045613e-06	6.831951e-10	-7.247903e+00	4.307151e+01
2.570000e-06	-1.175089e-06	4.325681e-10	-8.145395e+00	2.644183e+01
2.580000e-06	-1.304203e-06	1.703349e-10	-9.040378e+00	9.251251e+00
2.590000e-06	-1.432968e-06	-1.051460e-10	-9.932943e+00	-8.494719e+00
2.600000e-06	-1.561269e-06	-3.891768e-10	-1.082229e+01	-2.676176e+01
2.610000e-06	-1.688913e-06	-6.777763e-10	-1.170709e+01	-4.548126e+01
2.620000e-06	-1.815738e-06	-9.724372e-10	-1.258620e+01	-6.454949e+01
2.630000e-06	-1.941746e-06	-1.269330e-09	-1.345965e+01	-8.383194e+01
2.640000e-06	-2.067172e-06	-1.563641e-09	-1.432907e+01	-1.031727e+02
2.650000e-06	-2.191910e-06	-1.853017e-09	-1.519372e+01	-1.224071e+02
2.660000e-06	-2.315650e-06	-2.139331e-09	-1.605146e+01	-1.413761e+02
2.670000e-06	-2.438377e-06	-2.421957e-09	-1.690217e+01	-1.599391e+02
2.680000e-06	-2.560203e-06	-2.697526e-09	-1.774663e+01	-1.779834e+02
2.690000e-06	-2.681187e-06	-2.967987e-09	-1.858526e+01	-1.954294e+02
2.700000e-06	-2.801202e-06	-3.229930e-09	-1.941717e+01	-2.122306e+02
2.710000e-06	-2.920057e-06	-3.479008e-09	-2.024104e+01	-2.283686e+02
2.720000e-06	-3.037788e-06	-3.716208e-09	-2.105712e+01	-2.438458e+02
2.730000e-06	-3.154342e-06	-3.943657e-09	-2.186504e+01	-2.586774e+02
2.740000e-06	-3.269555e-06	-4.162815e-09	-2.266367e+01	-2.728829e+02
2.750000e-06	-3.383428e-06	-4.374098e-09	-2.345301e+01	-2.864818e+02
2.760000e-06	-3.495951e-06	-4.574502e-09	-2.423298e+01	-2.994904e+02
2.770000e-06	-3.607053e-06	-4.762337e-09	-2.500311e+01	-3.119224e+02
2.780000e-06	-3.716803e-06	-4.942508e-09	-2.576387e+01	-3.237908e+02
2.790000e-06	-3.825397e-06	-5.115945e-09	-2.651662e+01	-3.351101e+02
2.800000e-06	-3.932810e-06	-5.282954e-09	-2.726117e+01	-3.458988e+02
2.810000e-06	-4.038907e-06	-5.440234e-09	-2.799661e+01	-3.561792e+02
2.820000e-06	-4.143606e-06	-5.587746e-09	-2.872235e+01	-3.659767e+02
2.830000e-06	-4.246737e-06	-5.729350e-09	-2.943723e+01	-3.753170e+02
2.840000e-06	-4.348246e-06	-5.865301e-09	-3.014086e+01	-3.842238e+02
2.850000e-06	-4.448170e-06	-5.996650e-09	-3.083351e+01	-3.927160e+02
2.860000e-06	-4.546569e-06	-6.120956e-09	-3.151558e+01	-4.008072e+02
2.870000e-06	-4.643491e-06	-6.238170e-09	-3.218742e+01	-4.085062e+02
2.880000e-06	-4.738739e-06	-6.348977e-09	-3.284765e+01	-4.158192e+02
2.890000e-06	-4.832225e-06	-6.455924e-09	-3.349567e+01	-4.227533e+02
2.900000e-06	-4.923998e-06	-6.559488e-09	-3.413182e+01	-4.293198e+02
2.910000e-06	-5.014073e-06	-6.656295e-09	-3.475619e+01	-4.355361e+02
2.920000e-06	-5.102326e-06	-6.747079e-09	-3.536794e+01	-4.414269e+02
2.930000e-06	-5.188611e-06	-6.831028e-09	-3.596604e+01	-4.470224e+02
2.940000e-06	-5.272952e-06	-6.910222e-09	-3.655067e+01	-4.523560e+02
