# Temperatura_=_51.87
# Concentracion g/m^3_=_15000.0
# C_Vs_to_Am_M_A/Vsm_=_65563218390.804596
# pendiente_HvsI_1/m_=_3716.3
# ordenada_HvsI_A/m_=_1297.0
# frecuencia_Hz_=_301894.33046059817

Tiempo_(s)	Campo_(V.s)	Magnetizacion_(V.s)	Campo_(kA/m)	Magnetizacion_(A/m)
0.000000e+00	-6.884020e-06	-8.862935e-09	-4.750258e+01	-5.793376e+02
1.000000e-08	-6.881182e-06	-8.861500e-09	-4.748300e+01	-5.791701e+02
2.000000e-08	-6.876031e-06	-8.861797e-09	-4.744745e+01	-5.789054e+02
3.000000e-08	-6.868731e-06	-8.860571e-09	-4.739708e+01	-5.785365e+02
4.000000e-08	-6.859087e-06	-8.856460e-09	-4.733054e+01	-5.780582e+02
5.000000e-08	-6.846911e-06	-8.847860e-09	-4.724651e+01	-5.774687e+02
6.000000e-08	-6.832220e-06	-8.833946e-09	-4.714514e+01	-5.767708e+02
7.000000e-08	-6.815195e-06	-8.823221e-09	-4.702766e+01	-5.759727e+02
8.000000e-08	-6.796029e-06	-8.813321e-09	-4.689541e+01	-5.750873e+02
9.000000e-08	-6.774498e-06	-8.785666e-09	-4.674684e+01	-5.741307e+02
1.000000e-07	-6.750215e-06	-8.780831e-09	-4.657927e+01	-5.731203e+02
1.100000e-07	-6.723141e-06	-8.773538e-09	-4.639245e+01	-5.720728e+02
1.200000e-07	-6.693706e-06	-8.742733e-09	-4.618934e+01	-5.710015e+02
1.300000e-07	-6.662249e-06	-8.726931e-09	-4.597227e+01	-5.699146e+02
1.400000e-07	-6.628796e-06	-8.724181e-09	-4.574143e+01	-5.688130e+02
1.500000e-07	-6.593376e-06	-8.634895e-09	-4.549702e+01	-5.676898e+02
1.600000e-07	-6.555946e-06	-8.642270e-09	-4.523873e+01	-5.665297e+02
1.700000e-07	-6.516444e-06	-8.646777e-09	-4.496616e+01	-5.653101e+02
1.800000e-07	-6.474579e-06	-8.552574e-09	-4.467727e+01	-5.640024e+02
1.900000e-07	-6.430146e-06	-8.595700e-09	-4.437066e+01	-5.625751e+02
2.000000e-07	-6.383411e-06	-8.575192e-09	-4.404817e+01	-5.609970e+02
2.100000e-07	-6.334164e-06	-8.553873e-09	-4.370835e+01	-5.592416e+02
2.200000e-07	-6.282215e-06	-8.558611e-09	-4.334988e+01	-5.572903e+02
2.300000e-07	-6.227795e-06	-8.468707e-09	-4.297436e+01	-5.551355e+02
2.400000e-07	-6.170978e-06	-8.401897e-09	-4.258230e+01	-5.527821e+02
2.500000e-07	-6.111808e-06	-8.360646e-09	-4.217400e+01	-5.502465e+02
2.600000e-07	-6.050433e-06	-8.331451e-09	-4.175049e+01	-5.475544e+02
2.700000e-07	-5.986892e-06	-8.311846e-09	-4.131203e+01	-5.447362e+02
2.800000e-07	-5.921089e-06	-8.265033e-09	-4.085796e+01	-5.418215e+02
2.900000e-07	-5.853045e-06	-8.198392e-09	-4.038843e+01	-5.388342e+02
3.000000e-07	-5.782906e-06	-8.119673e-09	-3.990444e+01	-5.357875e+02
3.100000e-07	-5.710604e-06	-8.113252e-09	-3.940553e+01	-5.326822e+02
3.200000e-07	-5.635983e-06	-8.093322e-09	-3.889061e+01	-5.295068e+02
3.300000e-07	-5.559044e-06	-8.029338e-09	-3.835970e+01	-5.262402e+02
3.400000e-07	-5.479875e-06	-7.978982e-09	-3.781340e+01	-5.228571e+02
3.500000e-07	-5.398624e-06	-7.909923e-09	-3.725273e+01	-5.193330e+02
3.600000e-07	-5.315543e-06	-7.855111e-09	-3.667944e+01	-5.156499e+02
3.700000e-07	-5.230768e-06	-7.798682e-09	-3.609446e+01	-5.117999e+02
3.800000e-07	-5.144318e-06	-7.741244e-09	-3.549792e+01	-5.077863e+02
3.900000e-07	-5.056023e-06	-7.666401e-09	-3.488865e+01	-5.036221e+02
4.000000e-07	-4.965820e-06	-7.590495e-09	-3.426621e+01	-4.993260e+02
4.100000e-07	-4.873879e-06	-7.538041e-09	-3.363178e+01	-4.949172e+02
4.200000e-07	-4.780320e-06	-7.485579e-09	-3.298618e+01	-4.904101e+02
4.300000e-07	-4.685178e-06	-7.412414e-09	-3.232966e+01	-4.858105e+02
4.400000e-07	-4.588224e-06	-7.316407e-09	-3.166064e+01	-4.811137e+02
4.500000e-07	-4.489484e-06	-7.231663e-09	-3.097930e+01	-4.763055e+02
4.600000e-07	-4.389131e-06	-7.162219e-09	-3.028682e+01	-4.713653e+02
4.700000e-07	-4.287318e-06	-7.099120e-09	-2.958426e+01	-4.662707e+02
4.800000e-07	-4.184082e-06	-7.036328e-09	-2.887190e+01	-4.610030e+02
4.900000e-07	-4.079210e-06	-6.953330e-09	-2.814824e+01	-4.555500e+02
5.000000e-07	-3.972773e-06	-6.845694e-09	-2.741377e+01	-4.499089e+02
5.100000e-07	-3.864870e-06	-6.746583e-09	-2.666920e+01	-4.440850e+02
5.200000e-07	-3.755619e-06	-6.665524e-09	-2.591532e+01	-4.380896e+02
5.300000e-07	-3.645238e-06	-6.579537e-09	-2.515365e+01	-4.319354e+02
5.400000e-07	-3.533525e-06	-6.477267e-09	-2.438278e+01	-4.256329e+02
5.500000e-07	-3.420193e-06	-6.369323e-09	-2.360074e+01	-4.191865e+02
5.600000e-07	-3.305357e-06	-6.264894e-09	-2.280833e+01	-4.125935e+02
5.700000e-07	-3.189174e-06	-6.165777e-09	-2.200662e+01	-4.058441e+02
5.800000e-07	-3.071745e-06	-6.071198e-09	-2.119631e+01	-3.989238e+02
5.900000e-07	-2.953292e-06	-5.968238e-09	-2.037894e+01	-3.918168e+02
6.000000e-07	-2.833854e-06	-5.849784e-09	-1.955477e+01	-3.845094e+02
6.100000e-07	-2.713231e-06	-5.725769e-09	-1.872241e+01	-3.769921e+02
6.200000e-07	-2.591505e-06	-5.609978e-09	-1.788246e+01	-3.692602e+02
6.300000e-07	-2.468836e-06	-5.492481e-09	-1.703599e+01	-3.613136e+02
6.400000e-07	-2.345237e-06	-5.363009e-09	-1.618311e+01	-3.531534e+02
6.500000e-07	-2.220825e-06	-5.226889e-09	-1.532461e+01	-3.447802e+02
6.600000e-07	-2.095668e-06	-5.091845e-09	-1.446098e+01	-3.361904e+02
6.700000e-07	-1.969859e-06	-4.962332e-09	-1.359284e+01	-3.273758e+02
6.800000e-07	-1.843515e-06	-4.833058e-09	-1.272101e+01	-3.183233e+02
6.900000e-07	-1.716577e-06	-4.698379e-09	-1.184509e+01	-3.090166e+02
7.000000e-07	-1.588907e-06	-4.549348e-09	-1.096411e+01	-2.994390e+02
7.100000e-07	-1.460605e-06	-4.389672e-09	-1.007878e+01	-2.895763e+02
7.200000e-07	-1.331791e-06	-4.230642e-09	-9.189912e+00	-2.794182e+02
7.300000e-07	-1.202524e-06	-4.074330e-09	-8.297913e+00	-2.689596e+02
7.400000e-07	-1.072864e-06	-3.913179e-09	-7.403203e+00	-2.581991e+02
7.500000e-07	-9.428464e-07	-3.742845e-09	-6.506030e+00	-2.471369e+02
7.600000e-07	-8.125428e-07	-3.565221e-09	-5.606881e+00	-2.357718e+02
7.700000e-07	-6.819554e-07	-3.383382e-09	-4.705774e+00	-2.240986e+02
7.800000e-07	-5.511226e-07	-3.201254e-09	-3.802974e+00	-2.121067e+02
7.900000e-07	-4.201039e-07	-3.017444e-09	-2.898891e+00	-1.997799e+02
8.000000e-07	-2.889247e-07	-2.827579e-09	-1.993700e+00	-1.870979e+02
8.100000e-07	-1.575899e-07	-2.628569e-09	-1.087436e+00	-1.740389e+02
8.200000e-07	-2.616072e-08	-2.424352e-09	-1.805198e-01	-1.605818e+02
8.300000e-07	1.052758e-07	-2.215751e-09	7.264464e-01	-1.467077e+02
8.400000e-07	2.366541e-07	-1.999983e-09	1.633011e+00	-1.324000e+02
8.500000e-07	3.680273e-07	-1.774380e-09	2.539541e+00	-1.176430e+02
8.600000e-07	4.993596e-07	-1.539828e-09	3.445787e+00	-1.024186e+02
8.700000e-07	6.305185e-07	-1.298034e-09	4.350838e+00	-8.670421e+01
8.800000e-07	7.615090e-07	-1.050491e-09	5.254727e+00	-7.047085e+01
8.900000e-07	8.923016e-07	-7.981867e-10	6.157250e+00	-5.368456e+01
9.000000e-07	1.022787e-06	-5.391622e-10	7.057652e+00	-3.631066e+01
9.100000e-07	1.152863e-06	-2.675576e-10	7.955232e+00	-1.832125e+01
9.200000e-07	1.282508e-06	1.737267e-11	8.849835e+00	2.950896e-01
9.300000e-07	1.411705e-06	3.110501e-10	9.741350e+00	1.952332e+01
9.400000e-07	1.540408e-06	6.113654e-10	1.062945e+01	3.931364e+01
9.500000e-07	1.668512e-06	9.194639e-10	1.151342e+01	5.957711e+01
9.600000e-07	1.795886e-06	1.234756e-09	1.239235e+01	8.018649e+01
9.700000e-07	1.922545e-06	1.554147e-09	1.326636e+01	1.009829e+02
9.800000e-07	2.048564e-06	1.873682e-09	1.413594e+01	1.217873e+02
9.900000e-07	2.173927e-06	2.191097e-09	1.500100e+01	1.424158e+02
1.000000e-06	2.298538e-06	2.501890e-09	1.586086e+01	1.626945e+02
1.010000e-06	2.422308e-06	2.802911e-09	1.671493e+01	1.824744e+02
1.020000e-06	2.545225e-06	3.093651e-09	1.756310e+01	2.016401e+02
1.030000e-06	2.667258e-06	3.372480e-09	1.840518e+01	2.201146e+02
1.040000e-06	2.788246e-06	3.639897e-09	1.924005e+01	2.378578e+02
1.050000e-06	2.908063e-06	3.897095e-09	2.006684e+01	2.548603e+02
1.060000e-06	3.026777e-06	4.143649e-09	2.088601e+01	2.711343e+02
1.070000e-06	3.144496e-06	4.379416e-09	2.169832e+01	2.867043e+02
1.080000e-06	3.261141e-06	4.603542e-09	2.250322e+01	3.015980e+02
1.090000e-06	3.376511e-06	4.815986e-09	2.329932e+01	3.158411e+02
1.100000e-06	3.490476e-06	5.018920e-09	2.408573e+01	3.294551e+02
1.110000e-06	3.602984e-06	5.215757e-09	2.486208e+01	3.424582e+02
1.120000e-06	3.714118e-06	5.405890e-09	2.562895e+01	3.548675e+02
1.130000e-06	3.824032e-06	5.586875e-09	2.638740e+01	3.667031e+02
1.140000e-06	3.932751e-06	5.759428e-09	2.713761e+01	3.779900e+02
1.150000e-06	4.040166e-06	5.923973e-09	2.787882e+01	3.887587e+02
1.160000e-06	4.146210e-06	6.081192e-09	2.861056e+01	3.990438e+02
1.170000e-06	4.250721e-06	6.230946e-09	2.933173e+01	4.088804e+02
1.180000e-06	4.353606e-06	6.373283e-09	3.004168e+01	4.183002e+02
1.190000e-06	4.454982e-06	6.511207e-09	3.074122e+01	4.273281e+02
1.200000e-06	4.554844e-06	6.644881e-09	3.143031e+01	4.359797e+02
1.210000e-06	4.653020e-06	6.770383e-09	3.210776e+01	4.442618e+02
1.220000e-06	4.749344e-06	6.889123e-09	3.277244e+01	4.521744e+02
1.230000e-06	4.843917e-06	7.003909e-09	3.342503e+01	4.597149e+02
1.240000e-06	4.936916e-06	7.114760e-09	3.406676e+01	4.668824e+02
1.250000e-06	5.028271e-06	7.217182e-09	3.469715e+01	4.736816e+02
1.260000e-06	5.117748e-06	7.313450e-09	3.531458e+01	4.801258e+02
1.270000e-06	5.205281e-06	7.405791e-09	3.591859e+01	4.862367e+02
1.280000e-06	5.290989e-06	7.494654e-09	3.651001e+01	4.920432e+02
1.290000e-06	5.374894e-06	7.579739e-09	3.708899e+01	4.975782e+02
1.300000e-06	5.456883e-06	7.661082e-09	3.765475e+01	5.028741e+02
1.310000e-06	5.536838e-06	7.738728e-09	3.820647e+01	5.079595e+02
1.320000e-06	5.614773e-06	7.811127e-09	3.874426e+01	5.128566e+02
1.330000e-06	5.690666e-06	7.880114e-09	3.926795e+01	5.175796e+02
1.340000e-06	5.764330e-06	7.948841e-09	3.977626e+01	5.221351e+02
1.350000e-06	5.835802e-06	8.017341e-09	4.026944e+01	5.265244e+02
1.360000e-06	5.905215e-06	8.082548e-09	4.074843e+01	5.307448e+02
1.370000e-06	5.972591e-06	8.144492e-09	4.121335e+01	5.347924e+02
1.380000e-06	6.037804e-06	8.202614e-09	4.166334e+01	5.386635e+02
1.390000e-06	6.100830e-06	8.258855e-09	4.209825e+01	5.423555e+02
1.400000e-06	6.161800e-06	8.313219e-09	4.251896e+01	5.458666e+02
1.410000e-06	6.220694e-06	8.364723e-09	4.292536e+01	5.491960e+02
1.420000e-06	6.277348e-06	8.411803e-09	4.331629e+01	5.523428e+02
1.430000e-06	6.331731e-06	8.453113e-09	4.369156e+01	5.553061e+02
1.440000e-06	6.383723e-06	8.492791e-09	4.405033e+01	5.580850e+02
1.450000e-06	6.433028e-06	8.531819e-09	4.439055e+01	5.606796e+02
1.460000e-06	6.479834e-06	8.568611e-09	4.471353e+01	5.630916e+02
1.470000e-06	6.524458e-06	8.602483e-09	4.502146e+01	5.653256e+02
1.480000e-06	6.566821e-06	8.633790e-09	4.531378e+01	5.673885e+02
1.490000e-06	6.606778e-06	8.664776e-09	4.558950e+01	5.692900e+02
1.500000e-06	6.644460e-06	8.691975e-09	4.584952e+01	5.710407e+02
1.510000e-06	6.679962e-06	8.714764e-09	4.609450e+01	5.726510e+02
1.520000e-06	6.713081e-06	8.734410e-09	4.632303e+01	5.741294e+02
1.530000e-06	6.743780e-06	8.751123e-09	4.653487e+01	5.754815e+02
1.540000e-06	6.772254e-06	8.767618e-09	4.673135e+01	5.767092e+02
1.550000e-06	6.798286e-06	8.782340e-09	4.691098e+01	5.778118e+02
1.560000e-06	6.821671e-06	8.796328e-09	4.707235e+01	5.787867e+02
1.570000e-06	6.842605e-06	8.809421e-09	4.721680e+01	5.796318e+02
1.580000e-06	6.861197e-06	8.821589e-09	4.734510e+01	5.803465e+02
1.590000e-06	6.877314e-06	8.832245e-09	4.745631e+01	5.809333e+02
1.600000e-06	6.890889e-06	8.839685e-09	4.754998e+01	5.813982e+02
1.610000e-06	6.901774e-06	8.844274e-09	4.762509e+01	5.817495e+02
1.620000e-06	6.909993e-06	8.847163e-09	4.768180e+01	5.819967e+02
1.630000e-06	6.915771e-06	8.849451e-09	4.772168e+01	5.821485e+02
1.640000e-06	6.919115e-06	8.851955e-09	4.774475e+01	5.822112e+02
1.650000e-06	6.919984e-06	8.852518e-09	4.775075e+01	5.821873e+02
1.660000e-06	6.918459e-06	8.851829e-09	4.774023e+01	5.820752e+02
1.670000e-06	6.914770e-06	8.849516e-09	4.771477e+01	5.818698e+02
1.680000e-06	6.908820e-06	8.843137e-09	4.767371e+01	5.815644e+02
1.690000e-06	6.900514e-06	8.835152e-09	4.761640e+01	5.811525e+02
1.700000e-06	6.890014e-06	8.826830e-09	4.754394e+01	5.806299e+02
1.710000e-06	6.877169e-06	8.818241e-09	4.745531e+01	5.799967e+02
1.720000e-06	6.861863e-06	8.802654e-09	4.734969e+01	5.792577e+02
1.730000e-06	6.844376e-06	8.777215e-09	4.722902e+01	5.784230e+02
1.740000e-06	6.824643e-06	8.778429e-09	4.709286e+01	5.775070e+02
1.750000e-06	6.801855e-06	8.752576e-09	4.693561e+01	5.765266e+02
1.760000e-06	6.775797e-06	8.726450e-09	4.675580e+01	5.754993e+02
1.770000e-06	6.747133e-06	8.728272e-09	4.655801e+01	5.744406e+02
1.780000e-06	6.716382e-06	8.681433e-09	4.634581e+01	5.733621e+02
1.790000e-06	6.684090e-06	8.689731e-09	4.612298e+01	5.722691e+02
1.800000e-06	6.650278e-06	8.744784e-09	4.588966e+01	5.711598e+02
1.810000e-06	6.614006e-06	8.649693e-09	4.563937e+01	5.700239e+02
1.820000e-06	6.575180e-06	8.671648e-09	4.537146e+01	5.688430e+02
1.830000e-06	6.534280e-06	8.675008e-09	4.508923e+01	5.675919e+02
1.840000e-06	6.491182e-06	8.578282e-09	4.479184e+01	5.662404e+02
1.850000e-06	6.445916e-06	8.616582e-09	4.447948e+01	5.647569e+02
1.860000e-06	6.398299e-06	8.534929e-09	4.415091e+01	5.631115e+02
1.870000e-06	6.348218e-06	8.503466e-09	4.380533e+01	5.612802e+02
1.880000e-06	6.295765e-06	8.534501e-09	4.344338e+01	5.592487e+02
1.890000e-06	6.240577e-06	8.509997e-09	4.306256e+01	5.570141e+02
1.900000e-06	6.182952e-06	8.525587e-09	4.266492e+01	5.545860e+02
1.910000e-06	6.123132e-06	8.421967e-09	4.225214e+01	5.519850e+02
1.920000e-06	6.060908e-06	8.345225e-09	4.182277e+01	5.492391e+02
1.930000e-06	5.996438e-06	8.331729e-09	4.137790e+01	5.463791e+02
1.940000e-06	5.929883e-06	8.300596e-09	4.091864e+01	5.434331e+02
1.950000e-06	5.861247e-06	8.298499e-09	4.044503e+01	5.404210e+02
1.960000e-06	5.790205e-06	8.207614e-09	3.995481e+01	5.373514e+02
1.970000e-06	5.716857e-06	8.162324e-09	3.944867e+01	5.342200e+02
1.980000e-06	5.641403e-06	8.087223e-09	3.892801e+01	5.310111e+02
1.990000e-06	5.563611e-06	8.024800e-09	3.839121e+01	5.277013e+02
2.000000e-06	5.483678e-06	8.020556e-09	3.783965e+01	5.242650e+02
2.010000e-06	5.401823e-06	7.951905e-09	3.727481e+01	5.206795e+02
2.020000e-06	5.318170e-06	7.898053e-09	3.669757e+01	5.169306e+02
2.030000e-06	5.232588e-06	7.821718e-09	3.610702e+01	5.130148e+02
2.040000e-06	5.144946e-06	7.774015e-09	3.550225e+01	5.089396e+02
2.050000e-06	5.055547e-06	7.707714e-09	3.488537e+01	5.047207e+02
2.060000e-06	4.964639e-06	7.629924e-09	3.425806e+01	5.003776e+02
2.070000e-06	4.872068e-06	7.575998e-09	3.361928e+01	4.959284e+02
2.080000e-06	4.777623e-06	7.504740e-09	3.296757e+01	4.913843e+02
2.090000e-06	4.681456e-06	7.449411e-09	3.230398e+01	4.867471e+02
2.100000e-06	4.583657e-06	7.376521e-09	3.162913e+01	4.820082e+02
2.110000e-06	4.484472e-06	7.313309e-09	3.094471e+01	4.771502e+02
2.120000e-06	4.383756e-06	7.219880e-09	3.024973e+01	4.721514e+02
2.130000e-06	4.281288e-06	7.111249e-09	2.954265e+01	4.669903e+02
2.140000e-06	4.177207e-06	7.025645e-09	2.882446e+01	4.616502e+02
2.150000e-06	4.071616e-06	6.960668e-09	2.809583e+01	4.561226e+02
2.160000e-06	3.964705e-06	6.899126e-09	2.735810e+01	4.504081e+02
2.170000e-06	3.856393e-06	6.813706e-09	2.661071e+01	4.445148e+02
2.180000e-06	3.746633e-06	6.712372e-09	2.585332e+01	4.384550e+02
2.190000e-06	3.635475e-06	6.600460e-09	2.508628e+01	4.322410e+02
2.200000e-06	3.522983e-06	6.507194e-09	2.431004e+01	4.258813e+02
2.210000e-06	3.409202e-06	6.419844e-09	2.352490e+01	4.193776e+02
2.220000e-06	3.294058e-06	6.325321e-09	2.273036e+01	4.127241e+02
2.230000e-06	3.177413e-06	6.211669e-09	2.192546e+01	4.059089e+02
2.240000e-06	3.059358e-06	6.095346e-09	2.111083e+01	3.989166e+02
2.250000e-06	2.940164e-06	5.983853e-09	2.028835e+01	3.917318e+02
2.260000e-06	2.819866e-06	5.876452e-09	1.945824e+01	3.843422e+02
2.270000e-06	2.698495e-06	5.771666e-09	1.862073e+01	3.767403e+02
2.280000e-06	2.576205e-06	5.658167e-09	1.777688e+01	3.689235e+02
2.290000e-06	2.453125e-06	5.533414e-09	1.692757e+01	3.608922e+02
2.300000e-06	2.329171e-06	5.403652e-09	1.607224e+01	3.526480e+02
2.310000e-06	2.204376e-06	5.282383e-09	1.521111e+01	3.441898e+02
2.320000e-06	2.078795e-06	5.156299e-09	1.434455e+01	3.355124e+02
2.330000e-06	1.952473e-06	5.013650e-09	1.347287e+01	3.266056e+02
2.340000e-06	1.825471e-06	4.859756e-09	1.259650e+01	3.174547e+02
2.350000e-06	1.697796e-06	4.711431e-09	1.171550e+01	3.080430e+02
2.360000e-06	1.569565e-06	4.571360e-09	1.083065e+01	2.983544e+02
2.370000e-06	1.440871e-06	4.432177e-09	9.942607e+00	2.883761e+02
2.380000e-06	1.311736e-06	4.282553e-09	9.051521e+00	2.780998e+02
2.390000e-06	1.182136e-06	4.116067e-09	8.157224e+00	2.675220e+02
2.400000e-06	1.052115e-06	3.941050e-09	7.260031e+00	2.566425e+02
2.410000e-06	9.217832e-07	3.771059e-09	6.360685e+00	2.454611e+02
2.420000e-06	7.912062e-07	3.605418e-09	5.459650e+00	2.339753e+02
2.430000e-06	6.604351e-07	3.428936e-09	4.557275e+00	2.221780e+02
2.440000e-06	5.295035e-07	3.237934e-09	3.653793e+00	2.100562e+02
2.450000e-06	3.984136e-07	3.038269e-09	2.749218e+00	1.975919e+02
2.460000e-06	2.671774e-07	2.838673e-09	1.843634e+00	1.847639e+02
2.470000e-06	1.358570e-07	2.639787e-09	9.374693e-01	1.715503e+02
2.480000e-06	4.525742e-09	2.437209e-09	3.122949e-02	1.579310e+02
2.490000e-06	-1.268207e-07	2.227789e-09	-8.751152e-01	1.438879e+02
2.500000e-06	-2.581557e-07	2.003983e-09	-1.781381e+00	1.294052e+02
2.510000e-06	-3.894449e-07	1.768405e-09	-2.687331e+00	1.144663e+02
2.520000e-06	-5.206305e-07	1.530498e-09	-3.592565e+00	9.905197e+01
2.530000e-06	-6.516414e-07	1.290611e-09	-4.496595e+00	8.313695e+01
2.540000e-06	-7.824628e-07	1.041935e-09	-5.399316e+00	6.669006e+01
2.550000e-06	-9.130909e-07	7.775991e-10	-6.300705e+00	4.967635e+01
2.560000e-06	-1.043474e-06	5.030469e-10	-7.200401e+00	3.206276e+01
2.570000e-06	-1.173490e-06	2.253361e-10	-8.097564e+00	1.382665e+01
2.580000e-06	-1.303116e-06	-5.837489e-11	-8.992036e+00	-5.034170e+00
2.590000e-06	-1.432319e-06	-3.532884e-10	-9.883595e+00	-2.449180e+01
2.600000e-06	-1.561040e-06	-6.597845e-10	-1.077182e+01	-4.448134e+01
2.610000e-06	-1.689193e-06	-9.755945e-10	-1.165613e+01	-6.489837e+01
2.620000e-06	-1.816670e-06	-1.293732e-09	-1.253578e+01	-8.560211e+01
2.630000e-06	-1.943466e-06	-1.607992e-09	-1.341072e+01	-1.064242e+02
2.640000e-06	-2.069602e-06	-1.919316e-09	-1.428111e+01	-1.271817e+02
2.650000e-06	-2.194968e-06	-2.229424e-09	-1.514618e+01	-1.476929e+02
2.660000e-06	-2.319348e-06	-2.539332e-09	-1.600446e+01	-1.677923e+02
2.670000e-06	-2.442714e-06	-2.839717e-09	-1.685574e+01	-1.873431e+02
2.680000e-06	-2.565176e-06	-3.125825e-09	-1.770077e+01	-2.062448e+02
2.690000e-06	-2.686709e-06	-3.401693e-09	-1.853940e+01	-2.244355e+02
2.700000e-06	-2.807240e-06	-3.669221e-09	-1.937111e+01	-2.418879e+02
2.710000e-06	-2.926737e-06	-3.930550e-09	-2.019569e+01	-2.586024e+02
2.720000e-06	-3.045146e-06	-4.181228e-09	-2.101276e+01	-2.745971e+02
2.730000e-06	-3.162370e-06	-4.416854e-09	-2.182166e+01	-2.898986e+02
2.740000e-06	-3.278259e-06	-4.639387e-09	-2.262134e+01	-3.045344e+02
2.750000e-06	-3.392840e-06	-4.854383e-09	-2.341200e+01	-3.185286e+02
2.760000e-06	-3.506052e-06	-5.063272e-09	-2.419320e+01	-3.319011e+02
2.770000e-06	-3.617790e-06	-5.260546e-09	-2.496425e+01	-3.446692e+02
2.780000e-06	-3.728165e-06	-5.445813e-09	-2.572588e+01	-3.568511e+02
2.790000e-06	-3.837254e-06	-5.621077e-09	-2.647864e+01	-3.684683e+02
2.800000e-06	-3.945145e-06	-5.789274e-09	-2.722313e+01	-3.795483e+02
2.810000e-06	-4.051846e-06	-5.951676e-09	-2.795941e+01	-3.901233e+02
2.820000e-06	-4.157200e-06	-6.106792e-09	-2.868640e+01	-4.002286e+02
2.830000e-06	-4.260949e-06	-6.254710e-09	-2.940231e+01	-4.098985e+02
2.840000e-06	-4.363034e-06	-6.395135e-09	-3.010674e+01	-4.191624e+02
2.850000e-06	-4.463497e-06	-6.529405e-09	-3.079998e+01	-4.280417e+02
2.860000e-06	-4.562399e-06	-6.659459e-09	-3.148244e+01	-4.365483e+02
2.870000e-06	-4.659847e-06	-6.785709e-09	-3.215487e+01	-4.446860e+02
2.880000e-06	-4.755708e-06	-6.905325e-09	-3.281635e+01	-4.524533e+02
2.890000e-06	-4.849801e-06	-7.017570e-09	-3.346563e+01	-4.598476e+02
2.900000e-06	-4.942104e-06	-7.126146e-09	-3.410256e+01	-4.668699e+02
2.910000e-06	-5.032702e-06	-7.230642e-09	-3.472772e+01	-4.735281e+02
2.920000e-06	-5.121531e-06	-7.328678e-09	-3.534068e+01	-4.798388e+02
2.930000e-06	-5.208359e-06	-7.419783e-09	-3.593983e+01	-4.858270e+02
2.940000e-06	-5.293172e-06	-7.506834e-09	-3.652508e+01	-4.915234e+02
