# Temperatura_=_64.85
# Concentracion g/m^3_=_15000.0
# C_Vs_to_Am_M_A/Vsm_=_65563218390.804596
# pendiente_HvsI_1/m_=_3716.3
# ordenada_HvsI_A/m_=_1297.0
# frecuencia_Hz_=_301896.7680398903

Tiempo_(s)	Campo_(V.s)	Magnetizacion_(V.s)	Campo_(kA/m)	Magnetizacion_(A/m)
0.000000e+00	-6.846190e-06	-9.542661e-09	-4.749799e+01	-6.233035e+02
1.000000e-08	-6.843160e-06	-9.540646e-09	-4.747697e+01	-6.230630e+02
2.000000e-08	-6.837874e-06	-9.533816e-09	-4.744030e+01	-6.227107e+02
3.000000e-08	-6.830463e-06	-9.527238e-09	-4.738888e+01	-6.222459e+02
4.000000e-08	-6.820748e-06	-9.518678e-09	-4.732148e+01	-6.216670e+02
5.000000e-08	-6.808549e-06	-9.506935e-09	-4.723684e+01	-6.209728e+02
6.000000e-08	-6.793812e-06	-9.488339e-09	-4.713460e+01	-6.201636e+02
7.000000e-08	-6.776706e-06	-9.462895e-09	-4.701592e+01	-6.192433e+02
8.000000e-08	-6.757519e-06	-9.472076e-09	-4.688280e+01	-6.182201e+02
9.000000e-08	-6.736026e-06	-9.495028e-09	-4.673368e+01	-6.171076e+02
1.000000e-07	-6.711690e-06	-9.458639e-09	-4.656485e+01	-6.159236e+02
1.100000e-07	-6.684532e-06	-9.417356e-09	-4.637643e+01	-6.146883e+02
1.200000e-07	-6.655024e-06	-9.401740e-09	-4.617171e+01	-6.134212e+02
1.300000e-07	-6.623536e-06	-9.336918e-09	-4.595325e+01	-6.121370e+02
1.400000e-07	-6.590148e-06	-9.295017e-09	-4.572161e+01	-6.108420e+02
1.500000e-07	-6.554860e-06	-9.358429e-09	-4.547678e+01	-6.095312e+02
1.600000e-07	-6.517523e-06	-9.276411e-09	-4.521774e+01	-6.081864e+02
1.700000e-07	-6.478138e-06	-9.236144e-09	-4.494449e+01	-6.067779e+02
1.800000e-07	-6.436397e-06	-9.261177e-09	-4.465490e+01	-6.052668e+02
1.900000e-07	-6.392007e-06	-9.166697e-09	-4.434693e+01	-6.036106e+02
2.000000e-07	-6.345370e-06	-9.187102e-09	-4.402336e+01	-6.017692e+02
2.100000e-07	-6.296255e-06	-9.184268e-09	-4.368261e+01	-5.997111e+02
2.200000e-07	-6.244418e-06	-9.128699e-09	-4.332297e+01	-5.974182e+02
2.300000e-07	-6.190160e-06	-9.086323e-09	-4.294654e+01	-5.948888e+02
2.400000e-07	-6.133519e-06	-9.008490e-09	-4.255357e+01	-5.921374e+02
2.500000e-07	-6.074544e-06	-8.964300e-09	-4.214441e+01	-5.891917e+02
2.600000e-07	-6.013364e-06	-8.924724e-09	-4.171995e+01	-5.860872e+02
2.700000e-07	-5.950061e-06	-8.876259e-09	-4.128076e+01	-5.828607e+02
2.800000e-07	-5.884567e-06	-8.823133e-09	-4.082637e+01	-5.795435e+02
2.900000e-07	-5.816790e-06	-8.759510e-09	-4.035615e+01	-5.761563e+02
3.000000e-07	-5.746851e-06	-8.719125e-09	-3.987092e+01	-5.727058e+02
3.100000e-07	-5.674812e-06	-8.664562e-09	-3.937112e+01	-5.691852e+02
3.200000e-07	-5.600570e-06	-8.628718e-09	-3.885604e+01	-5.655764e+02
3.300000e-07	-5.524015e-06	-8.566039e-09	-3.832491e+01	-5.618551e+02
3.400000e-07	-5.445151e-06	-8.484659e-09	-3.777776e+01	-5.579957e+02
3.500000e-07	-5.364094e-06	-8.434085e-09	-3.721540e+01	-5.539778e+02
3.600000e-07	-5.281217e-06	-8.376278e-09	-3.664041e+01	-5.497888e+02
3.700000e-07	-5.196719e-06	-8.321314e-09	-3.605417e+01	-5.454265e+02
3.800000e-07	-5.110471e-06	-8.242444e-09	-3.545579e+01	-5.408980e+02
3.900000e-07	-5.022490e-06	-8.159886e-09	-3.484539e+01	-5.362164e+02
4.000000e-07	-4.932726e-06	-8.076388e-09	-3.422263e+01	-5.313976e+02
4.100000e-07	-4.841165e-06	-8.006683e-09	-3.358739e+01	-5.264550e+02
4.200000e-07	-4.747977e-06	-7.945547e-09	-3.294086e+01	-5.213969e+02
4.300000e-07	-4.653187e-06	-7.863736e-09	-3.228322e+01	-5.162238e+02
4.400000e-07	-4.556675e-06	-7.777087e-09	-3.161363e+01	-5.109291e+02
4.500000e-07	-4.458426e-06	-7.682785e-09	-3.093199e+01	-5.055002e+02
4.600000e-07	-4.358564e-06	-7.598800e-09	-3.023916e+01	-4.999218e+02
4.700000e-07	-4.257189e-06	-7.518327e-09	-2.953584e+01	-4.941791e+02
4.800000e-07	-4.154392e-06	-7.433747e-09	-2.882264e+01	-4.882604e+02
4.900000e-07	-4.050157e-06	-7.339463e-09	-2.809947e+01	-4.821591e+02
5.000000e-07	-3.944356e-06	-7.236411e-09	-2.736544e+01	-4.758737e+02
5.100000e-07	-3.836993e-06	-7.137350e-09	-2.662057e+01	-4.694070e+02
5.200000e-07	-3.728292e-06	-7.039609e-09	-2.586641e+01	-4.627636e+02
5.300000e-07	-3.618376e-06	-6.935996e-09	-2.510383e+01	-4.559483e+02
5.400000e-07	-3.507213e-06	-6.821115e-09	-2.433260e+01	-4.489637e+02
5.500000e-07	-3.394587e-06	-6.706528e-09	-2.355121e+01	-4.418090e+02
5.600000e-07	-3.280450e-06	-6.593844e-09	-2.275934e+01	-4.344802e+02
5.700000e-07	-3.164909e-06	-6.485414e-09	-2.195773e+01	-4.269706e+02
5.800000e-07	-3.048060e-06	-6.374695e-09	-2.114705e+01	-4.192725e+02
5.900000e-07	-2.930089e-06	-6.256151e-09	-2.032858e+01	-4.113780e+02
6.000000e-07	-2.811102e-06	-6.128370e-09	-1.950307e+01	-4.032808e+02
6.100000e-07	-2.691141e-06	-5.995727e-09	-1.867079e+01	-3.949762e+02
6.200000e-07	-2.570132e-06	-5.865135e-09	-1.783125e+01	-3.864608e+02
6.300000e-07	-2.448093e-06	-5.732100e-09	-1.698455e+01	-3.777320e+02
6.400000e-07	-2.325101e-06	-5.593064e-09	-1.613125e+01	-3.687865e+02
6.500000e-07	-2.201220e-06	-5.448365e-09	-1.527178e+01	-3.596196e+02
6.600000e-07	-2.076583e-06	-5.300379e-09	-1.440707e+01	-3.502246e+02
6.700000e-07	-1.951357e-06	-5.153346e-09	-1.353827e+01	-3.405932e+02
6.800000e-07	-1.825506e-06	-5.008582e-09	-1.266513e+01	-3.307158e+02
6.900000e-07	-1.698974e-06	-4.859035e-09	-1.178727e+01	-3.205825e+02
7.000000e-07	-1.571861e-06	-4.700184e-09	-1.090537e+01	-3.101840e+02
7.100000e-07	-1.444273e-06	-4.534009e-09	-1.002018e+01	-2.995119e+02
7.200000e-07	-1.316241e-06	-4.364622e-09	-9.131914e+00	-2.885582e+02
7.300000e-07	-1.187729e-06	-4.192972e-09	-8.240315e+00	-2.773151e+02
7.400000e-07	-1.058790e-06	-4.018052e-09	-7.345752e+00	-2.657736e+02
7.500000e-07	-9.295085e-07	-3.836518e-09	-6.448811e+00	-2.539230e+02
7.600000e-07	-7.999130e-07	-3.648547e-09	-5.549694e+00	-2.417499e+02
7.700000e-07	-6.700063e-07	-3.456137e-09	-4.648418e+00	-2.292389e+02
7.800000e-07	-5.398323e-07	-3.260405e-09	-3.745287e+00	-2.163736e+02
7.900000e-07	-4.094755e-07	-3.062920e-09	-2.840889e+00	-2.031376e+02
8.000000e-07	-2.789515e-07	-2.858734e-09	-1.935330e+00	-1.895161e+02
8.100000e-07	-1.483168e-07	-2.644462e-09	-1.029003e+00	-1.754964e+02
8.200000e-07	-1.763719e-08	-2.422520e-09	-1.223646e-01	-1.610678e+02
8.300000e-07	1.131092e-07	-2.196484e-09	7.847372e-01	-1.462194e+02
8.400000e-07	2.438899e-07	-1.967140e-09	1.692077e+00	-1.309381e+02
8.500000e-07	3.746342e-07	-1.730443e-09	2.599164e+00	-1.152049e+02
8.600000e-07	5.052193e-07	-1.484702e-09	3.505147e+00	-9.899291e+01
8.700000e-07	6.356151e-07	-1.228337e-09	4.409816e+00	-8.226622e+01
8.800000e-07	7.658660e-07	-9.633224e-10	5.313480e+00	-6.498179e+01
8.900000e-07	8.958313e-07	-6.918286e-10	6.215163e+00	-4.709399e+01
9.000000e-07	1.025434e-06	-4.126243e-10	7.114327e+00	-2.856212e+01
9.100000e-07	1.154692e-06	-1.215131e-10	8.011105e+00	-9.359876e+00
9.200000e-07	1.283512e-06	1.816747e-10	8.904840e+00	1.051471e+01
9.300000e-07	1.411874e-06	4.940067e-10	9.795404e+00	3.103044e+01
9.400000e-07	1.539812e-06	8.143347e-10	1.068302e+01	5.211725e+01
9.500000e-07	1.667244e-06	1.140712e-09	1.156712e+01	7.366473e+01
9.600000e-07	1.794012e-06	1.471987e-09	1.244663e+01	9.552597e+01
9.700000e-07	1.920025e-06	1.807554e-09	1.332089e+01	1.175261e+02
9.800000e-07	2.045370e-06	2.143932e-09	1.419051e+01	1.394749e+02
9.900000e-07	2.170091e-06	2.477854e-09	1.505582e+01	1.611815e+02
1.000000e-06	2.294066e-06	2.803179e-09	1.591594e+01	1.824693e+02
1.010000e-06	2.417174e-06	3.116807e-09	1.677004e+01	2.031881e+02
1.020000e-06	2.539306e-06	3.421755e-09	1.761738e+01	2.232235e+02
1.030000e-06	2.660458e-06	3.714548e-09	1.845792e+01	2.425000e+02
1.040000e-06	2.780663e-06	3.993799e-09	1.929189e+01	2.609809e+02
1.050000e-06	2.899800e-06	4.259321e-09	2.011844e+01	2.786618e+02
1.060000e-06	3.017829e-06	4.512836e-09	2.093731e+01	2.955632e+02
1.070000e-06	3.134798e-06	4.757161e-09	2.174883e+01	3.117203e+02
1.080000e-06	3.250596e-06	4.990829e-09	2.255222e+01	3.271742e+02
1.090000e-06	3.365033e-06	5.214564e-09	2.334617e+01	3.419651e+02
1.100000e-06	3.478126e-06	5.427803e-09	2.413079e+01	3.561272e+02
1.110000e-06	3.589968e-06	5.632324e-09	2.490674e+01	3.696878e+02
1.120000e-06	3.700499e-06	5.828308e-09	2.567359e+01	3.826683e+02
1.130000e-06	3.809785e-06	6.016161e-09	2.643180e+01	3.950862e+02
1.140000e-06	3.917951e-06	6.196644e-09	2.718224e+01	4.069589e+02
1.150000e-06	4.024734e-06	6.368281e-09	2.792309e+01	4.183057e+02
1.160000e-06	4.129967e-06	6.532454e-09	2.865318e+01	4.291493e+02
1.170000e-06	4.233709e-06	6.690873e-09	2.937293e+01	4.395162e+02
1.180000e-06	4.335963e-06	6.843269e-09	3.008236e+01	4.494344e+02
1.190000e-06	4.436740e-06	6.989822e-09	3.078154e+01	4.589319e+02
1.200000e-06	4.535945e-06	7.129518e-09	3.146981e+01	4.680338e+02
1.210000e-06	4.633466e-06	7.261251e-09	3.214640e+01	4.767605e+02
1.220000e-06	4.729264e-06	7.387441e-09	3.281103e+01	4.851263e+02
1.230000e-06	4.823345e-06	7.508636e-09	3.346375e+01	4.931406e+02
1.240000e-06	4.915824e-06	7.623986e-09	3.410536e+01	5.008083e+02
1.250000e-06	5.006583e-06	7.734606e-09	3.473503e+01	5.081328e+02
1.260000e-06	5.095447e-06	7.841753e-09	3.535156e+01	5.151183e+02
1.270000e-06	5.182448e-06	7.944567e-09	3.595516e+01	5.217721e+02
1.280000e-06	5.267657e-06	8.042565e-09	3.654633e+01	5.281060e+02
1.290000e-06	5.351080e-06	8.135095e-09	3.712511e+01	5.341370e+02
1.300000e-06	5.432521e-06	8.221520e-09	3.769014e+01	5.398862e+02
1.310000e-06	5.511877e-06	8.302495e-09	3.824070e+01	5.453775e+02
1.320000e-06	5.589275e-06	8.379823e-09	3.877768e+01	5.506351e+02
1.330000e-06	5.664604e-06	8.454383e-09	3.930030e+01	5.556815e+02
1.340000e-06	5.737692e-06	8.527926e-09	3.980737e+01	5.605351e+02
1.350000e-06	5.808608e-06	8.600634e-09	4.029938e+01	5.652093e+02
1.360000e-06	5.877497e-06	8.671474e-09	4.077733e+01	5.697119e+02
1.370000e-06	5.944357e-06	8.739394e-09	4.124119e+01	5.740454e+02
1.380000e-06	6.009086e-06	8.802958e-09	4.169027e+01	5.782084e+02
1.390000e-06	6.071686e-06	8.863620e-09	4.212458e+01	5.821965e+02
1.400000e-06	6.132278e-06	8.920213e-09	4.254496e+01	5.860049e+02
1.410000e-06	6.190754e-06	8.972183e-09	4.295066e+01	5.896287e+02
1.420000e-06	6.246955e-06	9.021101e-09	4.334058e+01	5.930646e+02
1.430000e-06	6.300931e-06	9.068577e-09	4.371506e+01	5.963112e+02
1.440000e-06	6.352420e-06	9.115783e-09	4.407228e+01	5.993688e+02
1.450000e-06	6.401280e-06	9.160885e-09	4.441126e+01	6.022395e+02
1.460000e-06	6.447774e-06	9.203447e-09	4.473383e+01	6.049263e+02
1.470000e-06	6.492123e-06	9.242175e-09	4.504152e+01	6.074329e+02
1.480000e-06	6.534121e-06	9.276968e-09	4.533290e+01	6.097632e+02
1.490000e-06	6.573701e-06	9.310573e-09	4.560750e+01	6.119212e+02
1.500000e-06	6.611071e-06	9.341354e-09	4.586676e+01	6.139109e+02
1.510000e-06	6.646210e-06	9.368107e-09	4.611055e+01	6.157364e+02
1.520000e-06	6.678973e-06	9.390738e-09	4.633786e+01	6.174024e+02
1.530000e-06	6.709333e-06	9.409545e-09	4.654849e+01	6.189134e+02
1.540000e-06	6.737476e-06	9.427775e-09	4.674375e+01	6.202745e+02
1.550000e-06	6.763182e-06	9.445283e-09	4.692209e+01	6.214907e+02
1.560000e-06	6.786230e-06	9.461392e-09	4.708199e+01	6.225663e+02
1.570000e-06	6.806915e-06	9.476256e-09	4.722550e+01	6.235056e+02
1.580000e-06	6.825331e-06	9.490068e-09	4.735327e+01	6.243116e+02
1.590000e-06	6.841245e-06	9.500847e-09	4.746368e+01	6.249869e+02
1.600000e-06	6.854599e-06	9.509924e-09	4.755633e+01	6.255338e+02
1.610000e-06	6.865254e-06	9.517043e-09	4.763026e+01	6.259541e+02
1.620000e-06	6.873198e-06	9.520530e-09	4.768537e+01	6.262502e+02
1.630000e-06	6.878745e-06	9.522746e-09	4.772385e+01	6.264247e+02
1.640000e-06	6.881917e-06	9.524652e-09	4.774586e+01	6.264805e+02
1.650000e-06	6.882622e-06	9.527565e-09	4.775075e+01	6.264206e+02
1.660000e-06	6.881032e-06	9.524104e-09	4.773972e+01	6.262474e+02
1.670000e-06	6.877290e-06	9.520366e-09	4.771376e+01	6.259622e+02
1.680000e-06	6.871176e-06	9.513947e-09	4.767134e+01	6.255650e+02
1.690000e-06	6.862702e-06	9.505576e-09	4.761255e+01	6.250548e+02
1.700000e-06	6.852084e-06	9.499325e-09	4.753888e+01	6.244299e+02
1.710000e-06	6.839099e-06	9.493255e-09	4.744880e+01	6.236894e+02
1.720000e-06	6.823721e-06	9.496677e-09	4.734210e+01	6.228351e+02
1.730000e-06	6.806267e-06	9.456832e-09	4.722101e+01	6.218723e+02
1.740000e-06	6.786530e-06	9.392454e-09	4.708408e+01	6.208113e+02
1.750000e-06	6.763674e-06	9.396049e-09	4.692551e+01	6.196676e+02
1.760000e-06	6.737540e-06	9.389628e-09	4.674419e+01	6.184602e+02
1.770000e-06	6.708880e-06	9.361858e-09	4.654535e+01	6.172094e+02
1.780000e-06	6.678159e-06	9.417084e-09	4.633221e+01	6.159333e+02
1.790000e-06	6.645906e-06	9.366062e-09	4.610845e+01	6.146439e+02
1.800000e-06	6.612140e-06	9.309114e-09	4.587418e+01	6.133432e+02
1.810000e-06	6.575943e-06	9.358425e-09	4.562305e+01	6.120211e+02
1.820000e-06	6.537246e-06	9.272140e-09	4.535458e+01	6.106546e+02
1.830000e-06	6.496493e-06	9.301500e-09	4.507184e+01	6.092099e+02
1.840000e-06	6.453523e-06	9.310853e-09	4.477372e+01	6.076461e+02
1.850000e-06	6.408354e-06	9.191123e-09	4.446034e+01	6.059208e+02
1.860000e-06	6.360757e-06	9.229599e-09	4.413012e+01	6.039965e+02
1.870000e-06	6.310729e-06	9.146159e-09	4.378303e+01	6.018466e+02
1.880000e-06	6.258438e-06	9.113402e-09	4.342024e+01	5.994593e+02
1.890000e-06	6.203424e-06	9.150786e-09	4.303856e+01	5.968393e+02
1.900000e-06	6.146004e-06	9.059551e-09	4.264019e+01	5.940069e+02
1.910000e-06	6.086393e-06	9.060982e-09	4.222662e+01	5.909935e+02
1.920000e-06	6.024358e-06	8.962425e-09	4.179622e+01	5.878361e+02
1.930000e-06	5.960092e-06	8.908161e-09	4.135036e+01	5.845699e+02
1.940000e-06	5.893701e-06	8.903252e-09	4.088974e+01	5.812226e+02
1.950000e-06	5.825220e-06	8.819483e-09	4.041463e+01	5.778096e+02
1.960000e-06	5.754362e-06	8.799554e-09	3.992303e+01	5.743323e+02
1.970000e-06	5.681212e-06	8.696265e-09	3.941552e+01	5.707789e+02
1.980000e-06	5.606006e-06	8.661576e-09	3.889375e+01	5.671282e+02
1.990000e-06	5.528476e-06	8.614264e-09	3.835586e+01	5.633547e+02
2.000000e-06	5.448800e-06	8.536089e-09	3.780307e+01	5.594343e+02
2.010000e-06	5.367290e-06	8.495372e-09	3.723757e+01	5.553492e+02
2.020000e-06	5.284062e-06	8.396247e-09	3.666015e+01	5.510911e+02
2.030000e-06	5.198868e-06	8.342646e-09	3.606908e+01	5.466614e+02
2.040000e-06	5.111592e-06	8.272299e-09	3.546357e+01	5.420701e+02
2.050000e-06	5.022533e-06	8.223857e-09	3.484569e+01	5.373319e+02
2.060000e-06	4.931855e-06	8.147710e-09	3.421658e+01	5.324623e+02
2.070000e-06	4.839599e-06	8.053856e-09	3.357652e+01	5.274729e+02
2.080000e-06	4.745568e-06	7.975576e-09	3.292414e+01	5.223692e+02
2.090000e-06	4.649753e-06	7.893293e-09	3.225939e+01	5.171487e+02
2.100000e-06	4.552364e-06	7.836265e-09	3.158372e+01	5.118022e+02
2.110000e-06	4.453496e-06	7.746680e-09	3.089779e+01	5.063156e+02
2.120000e-06	4.353196e-06	7.661394e-09	3.020192e+01	5.006734e+02
2.130000e-06	4.251278e-06	7.557926e-09	2.949482e+01	4.948619e+02
2.140000e-06	4.147643e-06	7.460313e-09	2.877582e+01	4.888712e+02
2.150000e-06	4.042503e-06	7.368522e-09	2.804637e+01	4.826967e+02
2.160000e-06	3.936029e-06	7.279803e-09	2.730766e+01	4.763387e+02
2.170000e-06	3.828267e-06	7.190651e-09	2.656003e+01	4.698012e+02
2.180000e-06	3.719151e-06	7.084568e-09	2.580299e+01	4.630890e+02
2.190000e-06	3.608534e-06	6.978688e-09	2.503555e+01	4.562062e+02
2.200000e-06	3.496521e-06	6.873439e-09	2.425841e+01	4.491542e+02
2.210000e-06	3.383185e-06	6.773517e-09	2.347210e+01	4.419309e+02
2.220000e-06	3.268517e-06	6.653725e-09	2.267656e+01	4.345312e+02
2.230000e-06	3.152527e-06	6.529559e-09	2.187183e+01	4.269477e+02
2.240000e-06	3.035176e-06	6.404467e-09	2.105766e+01	4.191724e+02
2.250000e-06	2.916625e-06	6.288736e-09	2.023517e+01	4.111982e+02
2.260000e-06	2.796936e-06	6.171638e-09	1.940478e+01	4.030191e+02
2.270000e-06	2.676119e-06	6.048444e-09	1.856657e+01	3.946312e+02
2.280000e-06	2.554399e-06	5.919263e-09	1.772209e+01	3.860315e+02
2.290000e-06	2.431820e-06	5.781333e-09	1.687166e+01	3.772172e+02
2.300000e-06	2.308392e-06	5.644216e-09	1.601533e+01	3.681846e+02
2.310000e-06	2.184310e-06	5.510899e-09	1.515446e+01	3.589281e+02
2.320000e-06	2.059489e-06	5.374258e-09	1.428847e+01	3.494405e+02
2.330000e-06	1.933843e-06	5.220840e-09	1.341676e+01	3.397128e+02
2.340000e-06	1.807554e-06	5.059286e-09	1.254058e+01	3.297353e+02
2.350000e-06	1.680696e-06	4.895657e-09	1.166046e+01	3.194981e+02
2.360000e-06	1.553190e-06	4.737492e-09	1.077583e+01	3.089922e+02
2.370000e-06	1.425101e-06	4.579254e-09	9.887170e+00	2.982095e+02
2.380000e-06	1.296513e-06	4.415244e-09	8.995043e+00	2.871423e+02
2.390000e-06	1.167491e-06	4.242331e-09	8.099903e+00	2.757823e+02
2.400000e-06	1.038147e-06	4.061046e-09	7.202528e+00	2.641200e+02
2.410000e-06	9.085092e-07	3.879825e-09	6.303121e+00	2.521436e+02
2.420000e-06	7.786229e-07	3.694981e-09	5.401986e+00	2.398389e+02
2.430000e-06	6.485491e-07	3.502997e-09	4.499551e+00	2.271899e+02
2.440000e-06	5.183635e-07	3.302078e-09	3.596340e+00	2.141800e+02
2.450000e-06	3.880138e-07	3.092010e-09	2.691990e+00	2.007934e+02
2.460000e-06	2.574393e-07	2.878517e-09	1.786081e+00	1.870160e+02
2.470000e-06	1.266911e-07	2.662658e-09	8.789670e-01	1.728361e+02
2.480000e-06	-4.112763e-09	2.443095e-09	-2.853383e-02	1.582431e+02
2.490000e-06	-1.349414e-07	2.215135e-09	-9.362065e-01	1.432257e+02
2.500000e-06	-2.657013e-07	1.975250e-09	-1.843402e+00	1.277687e+02
2.510000e-06	-3.963007e-07	1.727911e-09	-2.749484e+00	1.118503e+02
2.520000e-06	-5.268318e-07	1.478590e-09	-3.655091e+00	9.543997e+01
2.530000e-06	-6.572650e-07	1.223526e-09	-4.560021e+00	7.849877e+01
2.540000e-06	-7.874539e-07	9.558615e-10	-5.463254e+00	6.098184e+01
2.550000e-06	-9.173714e-07	6.753204e-10	-6.364605e+00	4.284448e+01
2.560000e-06	-1.047029e-06	3.828114e-10	-7.264156e+00	2.405044e+01
2.570000e-06	-1.176364e-06	8.338928e-11	-8.161462e+00	4.581805e+00
2.580000e-06	-1.305375e-06	-2.221802e-10	-9.056523e+00	-1.555127e+01
2.590000e-06	-1.433929e-06	-5.378759e-10	-9.948416e+00	-3.630278e+01
2.600000e-06	-1.561913e-06	-8.624270e-10	-1.083635e+01	-5.758671e+01
2.610000e-06	-1.689315e-06	-1.195419e-09	-1.172025e+01	-7.927759e+01
2.620000e-06	-1.816045e-06	-1.529627e-09	-1.259949e+01	-1.012162e+02
2.630000e-06	-1.942072e-06	-1.863095e-09	-1.347385e+01	-1.232201e+02
2.640000e-06	-2.067351e-06	-2.197192e-09	-1.434302e+01	-1.450968e+02
2.650000e-06	-2.191797e-06	-2.527604e-09	-1.520641e+01	-1.666596e+02
2.660000e-06	-2.315339e-06	-2.852491e-09	-1.606353e+01	-1.877407e+02
2.670000e-06	-2.437961e-06	-3.166550e-09	-1.691426e+01	-2.082034e+02
2.680000e-06	-2.559725e-06	-3.466163e-09	-1.775905e+01	-2.279482e+02
2.690000e-06	-2.680630e-06	-3.753702e-09	-1.859787e+01	-2.469154e+02
2.700000e-06	-2.800524e-06	-4.031866e-09	-1.942968e+01	-2.650818e+02
2.710000e-06	-2.919257e-06	-4.301694e-09	-2.025343e+01	-2.824538e+02
2.720000e-06	-3.036828e-06	-4.560454e-09	-2.106913e+01	-2.990589e+02
2.730000e-06	-3.153237e-06	-4.804679e-09	-2.187676e+01	-3.149356e+02
2.740000e-06	-3.268361e-06	-5.037458e-09	-2.267547e+01	-3.301253e+02
2.750000e-06	-3.382123e-06	-5.261908e-09	-2.346474e+01	-3.446663e+02
2.760000e-06	-3.494484e-06	-5.479036e-09	-2.424428e+01	-3.585900e+02
2.770000e-06	-3.605453e-06	-5.685716e-09	-2.501417e+01	-3.719213e+02
2.780000e-06	-3.715132e-06	-5.880963e-09	-2.577511e+01	-3.846796e+02
2.790000e-06	-3.823636e-06	-6.066555e-09	-2.652790e+01	-3.968820e+02
2.800000e-06	-3.930980e-06	-6.244465e-09	-2.727264e+01	-4.085464e+02
2.810000e-06	-4.037031e-06	-6.415388e-09	-2.800840e+01	-4.196934e+02
2.820000e-06	-4.141624e-06	-6.578520e-09	-2.873406e+01	-4.303473e+02
2.830000e-06	-4.244583e-06	-6.733601e-09	-2.944838e+01	-4.405353e+02
2.840000e-06	-4.345986e-06	-6.881488e-09	-3.015190e+01	-4.502859e+02
2.850000e-06	-4.445894e-06	-7.024399e-09	-3.084504e+01	-4.596260e+02
2.860000e-06	-4.544206e-06	-7.162960e-09	-3.152712e+01	-4.685792e+02
2.870000e-06	-4.640984e-06	-7.296272e-09	-3.219855e+01	-4.771635e+02
2.880000e-06	-4.736066e-06	-7.421078e-09	-3.285822e+01	-4.853912e+02
2.890000e-06	-4.829374e-06	-7.539592e-09	-3.350558e+01	-4.932697e+02
2.900000e-06	-4.921002e-06	-7.654771e-09	-3.414128e+01	-5.008030e+02
2.910000e-06	-5.010909e-06	-7.765058e-09	-3.476505e+01	-5.079945e+02
2.920000e-06	-5.099049e-06	-7.869893e-09	-3.537655e+01	-5.148494e+02
2.930000e-06	-5.185259e-06	-7.969523e-09	-3.597467e+01	-5.213767e+02
2.940000e-06	-5.269522e-06	-8.065559e-09	-3.655927e+01	-5.275901e+02
