# Temperatura_=_32.81
# Concentracion g/m^3_=_15000.0
# C_Vs_to_Am_M_A/Vsm_=_65563218390.804596
# pendiente_HvsI_1/m_=_3716.3
# ordenada_HvsI_A/m_=_1297.0
# frecuencia_Hz_=_301892.72673998453

Tiempo_(s)	Campo_(V.s)	Magnetizacion_(V.s)	Campo_(kA/m)	Magnetizacion_(A/m)
0.000000e+00	-6.898390e-06	-8.270332e-09	-4.750195e+01	-5.405722e+02
1.000000e-08	-6.895488e-06	-8.271352e-09	-4.748197e+01	-5.404548e+02
2.000000e-08	-6.890278e-06	-8.272016e-09	-4.744609e+01	-5.402483e+02
3.000000e-08	-6.882968e-06	-8.269287e-09	-4.739576e+01	-5.399464e+02
4.000000e-08	-6.873325e-06	-8.262440e-09	-4.732936e+01	-5.395448e+02
5.000000e-08	-6.861134e-06	-8.252882e-09	-4.724541e+01	-5.390434e+02
6.000000e-08	-6.846378e-06	-8.239794e-09	-4.714380e+01	-5.384466e+02
7.000000e-08	-6.829263e-06	-8.228121e-09	-4.702595e+01	-5.377640e+02
8.000000e-08	-6.810060e-06	-8.231352e-09	-4.689372e+01	-5.370093e+02
9.000000e-08	-6.788444e-06	-8.224487e-09	-4.674487e+01	-5.361978e+02
1.000000e-07	-6.763995e-06	-8.204630e-09	-4.657652e+01	-5.353451e+02
1.100000e-07	-6.736807e-06	-8.186789e-09	-4.638930e+01	-5.344640e+02
1.200000e-07	-6.707185e-06	-8.164730e-09	-4.618533e+01	-5.335628e+02
1.300000e-07	-6.675502e-06	-8.132123e-09	-4.596716e+01	-5.326440e+02
1.400000e-07	-6.641963e-06	-8.115983e-09	-4.573621e+01	-5.317038e+02
1.500000e-07	-6.606529e-06	-8.110068e-09	-4.549221e+01	-5.307319e+02
1.600000e-07	-6.568975e-06	-8.077488e-09	-4.523362e+01	-5.297126e+02
1.700000e-07	-6.529313e-06	-8.067478e-09	-4.496051e+01	-5.286259e+02
1.800000e-07	-6.487355e-06	-8.042591e-09	-4.467159e+01	-5.274496e+02
1.900000e-07	-6.442844e-06	-8.021830e-09	-4.436509e+01	-5.261612e+02
2.000000e-07	-6.396055e-06	-8.020629e-09	-4.404290e+01	-5.247400e+02
2.100000e-07	-6.346698e-06	-7.997260e-09	-4.370303e+01	-5.231695e+02
2.200000e-07	-6.294590e-06	-7.983639e-09	-4.334422e+01	-5.214390e+02
2.300000e-07	-6.240003e-06	-7.932488e-09	-4.296834e+01	-5.195456e+02
2.400000e-07	-6.182988e-06	-7.878661e-09	-4.257573e+01	-5.174941e+02
2.500000e-07	-6.123663e-06	-7.856605e-09	-4.216722e+01	-5.152969e+02
2.600000e-07	-6.062163e-06	-7.815713e-09	-4.174374e+01	-5.129720e+02
2.700000e-07	-5.998454e-06	-7.773206e-09	-4.130504e+01	-5.105406e+02
2.800000e-07	-5.932475e-06	-7.731650e-09	-4.085071e+01	-5.080235e+02
2.900000e-07	-5.864221e-06	-7.698575e-09	-4.038072e+01	-5.054377e+02
3.000000e-07	-5.793821e-06	-7.666191e-09	-3.989595e+01	-5.027933e+02
3.100000e-07	-5.721277e-06	-7.632806e-09	-3.939642e+01	-5.000919e+02
3.200000e-07	-5.646462e-06	-7.596772e-09	-3.888124e+01	-4.973264e+02
3.300000e-07	-5.569374e-06	-7.534293e-09	-3.835042e+01	-4.944826e+02
3.400000e-07	-5.490006e-06	-7.488617e-09	-3.780390e+01	-4.915420e+02
3.500000e-07	-5.408557e-06	-7.449143e-09	-3.724304e+01	-4.884859e+02
3.600000e-07	-5.325329e-06	-7.408014e-09	-3.666994e+01	-4.852989e+02
3.700000e-07	-5.240365e-06	-7.359262e-09	-3.608488e+01	-4.819720e+02
3.800000e-07	-5.153662e-06	-7.294324e-09	-3.548785e+01	-4.785038e+02
3.900000e-07	-5.065143e-06	-7.236060e-09	-3.487831e+01	-4.749000e+02
4.000000e-07	-4.974767e-06	-7.176154e-09	-3.425599e+01	-4.711713e+02
4.100000e-07	-4.882661e-06	-7.124582e-09	-3.362175e+01	-4.673300e+02
4.200000e-07	-4.788939e-06	-7.065922e-09	-3.297638e+01	-4.633861e+02
4.300000e-07	-4.693519e-06	-7.000632e-09	-3.231933e+01	-4.593446e+02
4.400000e-07	-4.596264e-06	-6.934356e-09	-3.164964e+01	-4.552039e+02
4.500000e-07	-4.497308e-06	-6.865981e-09	-3.096823e+01	-4.509554e+02
4.600000e-07	-4.396854e-06	-6.801587e-09	-3.027651e+01	-4.465858e+02
4.700000e-07	-4.294904e-06	-6.731019e-09	-2.957449e+01	-4.420797e+02
4.800000e-07	-4.191452e-06	-6.659464e-09	-2.886212e+01	-4.374229e+02
4.900000e-07	-4.086412e-06	-6.584676e-09	-2.813882e+01	-4.326054e+02
5.000000e-07	-3.979786e-06	-6.509421e-09	-2.740460e+01	-4.276224e+02
5.100000e-07	-3.871722e-06	-6.435339e-09	-2.666048e+01	-4.224748e+02
5.200000e-07	-3.762330e-06	-6.356665e-09	-2.590721e+01	-4.171673e+02
5.300000e-07	-3.651719e-06	-6.265837e-09	-2.514555e+01	-4.117061e+02
5.400000e-07	-3.539757e-06	-6.167640e-09	-2.437458e+01	-4.060959e+02
5.500000e-07	-3.426184e-06	-6.074965e-09	-2.359252e+01	-4.003380e+02
5.600000e-07	-3.311093e-06	-5.986750e-09	-2.280002e+01	-3.944288e+02
5.700000e-07	-3.194651e-06	-5.901480e-09	-2.199820e+01	-3.883609e+02
5.800000e-07	-3.076985e-06	-5.812088e-09	-2.118796e+01	-3.821238e+02
5.900000e-07	-2.958299e-06	-5.715907e-09	-2.037069e+01	-3.757067e+02
6.000000e-07	-2.838552e-06	-5.612186e-09	-1.954612e+01	-3.691005e+02
6.100000e-07	-2.717651e-06	-5.504417e-09	-1.871361e+01	-3.622988e+02
6.200000e-07	-2.595642e-06	-5.396385e-09	-1.787346e+01	-3.552988e+02
6.300000e-07	-2.472626e-06	-5.284585e-09	-1.702637e+01	-3.480995e+02
6.400000e-07	-2.348767e-06	-5.169042e-09	-1.617349e+01	-3.407002e+02
6.500000e-07	-2.224141e-06	-5.052932e-09	-1.531532e+01	-3.330975e+02
6.600000e-07	-2.098745e-06	-4.935980e-09	-1.445185e+01	-3.252843e+02
6.700000e-07	-1.972712e-06	-4.813493e-09	-1.358399e+01	-3.172484e+02
6.800000e-07	-1.846106e-06	-4.685403e-09	-1.271219e+01	-3.089735e+02
6.900000e-07	-1.718834e-06	-4.554740e-09	-1.183580e+01	-3.004412e+02
7.000000e-07	-1.590862e-06	-4.420541e-09	-1.095459e+01	-2.916338e+02
7.100000e-07	-1.462273e-06	-4.282169e-09	-1.006914e+01	-2.825369e+02
7.200000e-07	-1.333132e-06	-4.139351e-09	-9.179878e+00	-2.731413e+02
7.300000e-07	-1.203545e-06	-3.990833e-09	-8.287545e+00	-2.634435e+02
7.400000e-07	-1.073603e-06	-3.835851e-09	-7.392777e+00	-2.534448e+02
7.500000e-07	-9.433000e-07	-3.675753e-09	-6.495515e+00	-2.431483e+02
7.600000e-07	-8.126198e-07	-3.512776e-09	-5.595658e+00	-2.325558e+02
7.700000e-07	-6.816666e-07	-3.346255e-09	-4.693921e+00	-2.216650e+02
7.800000e-07	-5.504979e-07	-3.174462e-09	-3.790700e+00	-2.104674e+02
7.900000e-07	-4.191272e-07	-2.999108e-09	-2.886088e+00	-1.989482e+02
8.000000e-07	-2.876733e-07	-2.819678e-09	-1.980904e+00	-1.870873e+02
8.100000e-07	-1.560997e-07	-2.634176e-09	-1.074894e+00	-1.748623e+02
8.200000e-07	-2.443764e-08	-2.441545e-09	-1.682763e-01	-1.622509e+02
8.300000e-07	1.072467e-07	-2.244215e-09	7.384955e-01	-1.492340e+02
8.400000e-07	2.389563e-07	-2.043201e-09	1.645440e+00	-1.357957e+02
8.500000e-07	3.705974e-07	-1.835374e-09	2.551914e+00	-1.219234e+02
8.600000e-07	5.021083e-07	-1.619719e-09	3.457492e+00	-1.076051e+02
8.700000e-07	6.334580e-07	-1.394434e-09	4.361959e+00	-9.282643e+01
8.800000e-07	7.646544e-07	-1.160534e-09	5.265370e+00	-7.756829e+01
8.900000e-07	8.955980e-07	-9.183059e-10	6.167041e+00	-6.180626e+01
9.000000e-07	1.026261e-06	-6.693426e-10	7.066781e+00	-4.551271e+01
9.100000e-07	1.156624e-06	-4.143987e-10	7.964450e+00	-2.866200e+01
9.200000e-07	1.286561e-06	-1.516057e-10	8.859193e+00	-1.123828e+01
9.300000e-07	1.416077e-06	1.204426e-10	9.751032e+00	6.755523e+00
9.400000e-07	1.545069e-06	4.011389e-10	1.063926e+01	2.528912e+01
9.500000e-07	1.673365e-06	6.882937e-10	1.152270e+01	4.429887e+01
9.600000e-07	1.800927e-06	9.810958e-10	1.240109e+01	6.368584e+01
9.700000e-07	1.927807e-06	1.281222e-09	1.327478e+01	8.331888e+01
9.800000e-07	2.054029e-06	1.583502e-09	1.414393e+01	1.030426e+02
9.900000e-07	2.179610e-06	1.886239e-09	1.500868e+01	1.226891e+02
1.000000e-06	2.304502e-06	2.186233e-09	1.586868e+01	1.420919e+02
1.010000e-06	2.428591e-06	2.476852e-09	1.672315e+01	1.610990e+02
1.020000e-06	2.551800e-06	2.756572e-09	1.757156e+01	1.795840e+02
1.030000e-06	2.674106e-06	3.025037e-09	1.841375e+01	1.974527e+02
1.040000e-06	2.795334e-06	3.282952e-09	1.924852e+01	2.146451e+02
1.050000e-06	2.915300e-06	3.530781e-09	2.007461e+01	2.311327e+02
1.060000e-06	3.034193e-06	3.768297e-09	2.089330e+01	2.469124e+02
1.070000e-06	3.152147e-06	3.996196e-09	2.170552e+01	2.619985e+02
1.080000e-06	3.269041e-06	4.214441e-09	2.251044e+01	2.764149e+02
1.090000e-06	3.384705e-06	4.423544e-09	2.330690e+01	2.901889e+02
1.100000e-06	3.498914e-06	4.621729e-09	2.409334e+01	3.033464e+02
1.110000e-06	3.611545e-06	4.811741e-09	2.486891e+01	3.159113e+02
1.120000e-06	3.722809e-06	4.995417e-09	2.563507e+01	3.279051e+02
1.130000e-06	3.832879e-06	5.170029e-09	2.639300e+01	3.393491e+02
1.140000e-06	3.941758e-06	5.336161e-09	2.714274e+01	3.502655e+02
1.150000e-06	4.049434e-06	5.495183e-09	2.788419e+01	3.606784e+02
1.160000e-06	4.155699e-06	5.647968e-09	2.861593e+01	3.706131e+02
1.170000e-06	4.260335e-06	5.793832e-09	2.933645e+01	3.800945e+02
1.180000e-06	4.363391e-06	5.932300e-09	3.004608e+01	3.891451e+02
1.190000e-06	4.464969e-06	6.064543e-09	3.074555e+01	3.977832e+02
1.200000e-06	4.565038e-06	6.189222e-09	3.143461e+01	4.060214e+02
1.210000e-06	4.663437e-06	6.306262e-09	3.211218e+01	4.138677e+02
1.220000e-06	4.759948e-06	6.419149e-09	3.277675e+01	4.213271e+02
1.230000e-06	4.854751e-06	6.526293e-09	3.342957e+01	4.284046e+02
1.240000e-06	4.947932e-06	6.628563e-09	3.407120e+01	4.351086e+02
1.250000e-06	5.039454e-06	6.724744e-09	3.470142e+01	4.414535e+02
1.260000e-06	5.129140e-06	6.815359e-09	3.531899e+01	4.474609e+02
1.270000e-06	5.216818e-06	6.901697e-09	3.592274e+01	4.531593e+02
1.280000e-06	5.302648e-06	6.985420e-09	3.651376e+01	4.585819e+02
1.290000e-06	5.386739e-06	7.064803e-09	3.709280e+01	4.637630e+02
1.300000e-06	5.468906e-06	7.138831e-09	3.765861e+01	4.687346e+02
1.310000e-06	5.548997e-06	7.210085e-09	3.821011e+01	4.735225e+02
1.320000e-06	5.627108e-06	7.279420e-09	3.874797e+01	4.781444e+02
1.330000e-06	5.703181e-06	7.346195e-09	3.927181e+01	4.826094e+02
1.340000e-06	5.776993e-06	7.411229e-09	3.978008e+01	4.869185e+02
1.350000e-06	5.848549e-06	7.475359e-09	4.027281e+01	4.910672e+02
1.360000e-06	5.918052e-06	7.536680e-09	4.075140e+01	4.950482e+02
1.370000e-06	5.985544e-06	7.594168e-09	4.121614e+01	4.988538e+02
1.380000e-06	6.050866e-06	7.647409e-09	4.166595e+01	5.024786e+02
1.390000e-06	6.113969e-06	7.699339e-09	4.210047e+01	5.059198e+02
1.400000e-06	6.175088e-06	7.749482e-09	4.252134e+01	5.091776e+02
1.410000e-06	6.234174e-06	7.795557e-09	4.292820e+01	5.122545e+02
1.420000e-06	6.290961e-06	7.837611e-09	4.331923e+01	5.151542e+02
1.430000e-06	6.345464e-06	7.877024e-09	4.369454e+01	5.178807e+02
1.440000e-06	6.397582e-06	7.914868e-09	4.405342e+01	5.204381e+02
1.450000e-06	6.446979e-06	7.949442e-09	4.439356e+01	5.228299e+02
1.460000e-06	6.493902e-06	7.982271e-09	4.471667e+01	5.250605e+02
1.470000e-06	6.538730e-06	8.014008e-09	4.502535e+01	5.271347e+02
1.480000e-06	6.581263e-06	8.043559e-09	4.531824e+01	5.290589e+02
1.490000e-06	6.621305e-06	8.071870e-09	4.559396e+01	5.308404e+02
1.500000e-06	6.659030e-06	8.098083e-09	4.585373e+01	5.324871e+02
1.510000e-06	6.694529e-06	8.121246e-09	4.609818e+01	5.340064e+02
1.520000e-06	6.727597e-06	8.139997e-09	4.632589e+01	5.354042e+02
1.530000e-06	6.758235e-06	8.156533e-09	4.653685e+01	5.366839e+02
1.540000e-06	6.786679e-06	8.172912e-09	4.673272e+01	5.378466e+02
1.550000e-06	6.812693e-06	8.188402e-09	4.691185e+01	5.388911e+02
1.560000e-06	6.836082e-06	8.201218e-09	4.707291e+01	5.398155e+02
1.570000e-06	6.857132e-06	8.211605e-09	4.721786e+01	5.406181e+02
1.580000e-06	6.875857e-06	8.222553e-09	4.734679e+01	5.412996e+02
1.590000e-06	6.892024e-06	8.232589e-09	4.745812e+01	5.418631e+02
1.600000e-06	6.905622e-06	8.240468e-09	4.755175e+01	5.423151e+02
1.610000e-06	6.916553e-06	8.247126e-09	4.762703e+01	5.426641e+02
1.620000e-06	6.924727e-06	8.251624e-09	4.768331e+01	5.429197e+02
1.630000e-06	6.930382e-06	8.253980e-09	4.772225e+01	5.430900e+02
1.640000e-06	6.933680e-06	8.255427e-09	4.774496e+01	5.431807e+02
1.650000e-06	6.934521e-06	8.257808e-09	4.775075e+01	5.431937e+02
1.660000e-06	6.932993e-06	8.257825e-09	4.774023e+01	5.431269e+02
1.670000e-06	6.929307e-06	8.255403e-09	4.771485e+01	5.429749e+02
1.680000e-06	6.923216e-06	8.249908e-09	4.767290e+01	5.427313e+02
1.690000e-06	6.914721e-06	8.244150e-09	4.761441e+01	5.423903e+02
1.700000e-06	6.904086e-06	8.239533e-09	4.754118e+01	5.419489e+02
1.710000e-06	6.891141e-06	8.234099e-09	4.745204e+01	5.414089e+02
1.720000e-06	6.875760e-06	8.225833e-09	4.734613e+01	5.407767e+02
1.730000e-06	6.858237e-06	8.193749e-09	4.722547e+01	5.400637e+02
1.740000e-06	6.838464e-06	8.173759e-09	4.708931e+01	5.392844e+02
1.750000e-06	6.815504e-06	8.171078e-09	4.693121e+01	5.384547e+02
1.760000e-06	6.789196e-06	8.158319e-09	4.675005e+01	5.375892e+02
1.770000e-06	6.760317e-06	8.155990e-09	4.655119e+01	5.366992e+02
1.780000e-06	6.729427e-06	8.168525e-09	4.633848e+01	5.357908e+02
1.790000e-06	6.697013e-06	8.147278e-09	4.611528e+01	5.348642e+02
1.800000e-06	6.663095e-06	8.138032e-09	4.588173e+01	5.339127e+02
1.810000e-06	6.626767e-06	8.124162e-09	4.563157e+01	5.329240e+02
1.820000e-06	6.587938e-06	8.110713e-09	4.536420e+01	5.318805e+02
1.830000e-06	6.546988e-06	8.130291e-09	4.508222e+01	5.307610e+02
1.840000e-06	6.503741e-06	8.068221e-09	4.478442e+01	5.295430e+02
1.850000e-06	6.458318e-06	8.034584e-09	4.447164e+01	5.282044e+02
1.860000e-06	6.410512e-06	8.033762e-09	4.414246e+01	5.267259e+02
1.870000e-06	6.360287e-06	7.973855e-09	4.379660e+01	5.250931e+02
1.880000e-06	6.307707e-06	7.987875e-09	4.343454e+01	5.232982e+02
1.890000e-06	6.252411e-06	7.973841e-09	4.305378e+01	5.213414e+02
1.900000e-06	6.194701e-06	7.924748e-09	4.265639e+01	5.192305e+02
1.910000e-06	6.134676e-06	7.903121e-09	4.224306e+01	5.169804e+02
1.920000e-06	6.072256e-06	7.843984e-09	4.181324e+01	5.146107e+02
1.930000e-06	6.007702e-06	7.834308e-09	4.136872e+01	5.121430e+02
1.940000e-06	5.941037e-06	7.786051e-09	4.090967e+01	5.095969e+02
1.950000e-06	5.872207e-06	7.733324e-09	4.043571e+01	5.069870e+02
1.960000e-06	5.800982e-06	7.694367e-09	3.994526e+01	5.043202e+02
1.970000e-06	5.727451e-06	7.645558e-09	3.943893e+01	5.015947e+02
1.980000e-06	5.651715e-06	7.630822e-09	3.891741e+01	4.988001e+02
1.990000e-06	5.573681e-06	7.574566e-09	3.838008e+01	4.959202e+02
2.000000e-06	5.493579e-06	7.532623e-09	3.782850e+01	4.929361e+02
2.010000e-06	5.411582e-06	7.466866e-09	3.726387e+01	4.898298e+02
2.020000e-06	5.327782e-06	7.405909e-09	3.668683e+01	4.865882e+02
2.030000e-06	5.242022e-06	7.368511e-09	3.609629e+01	4.832052e+02
2.040000e-06	5.154233e-06	7.322924e-09	3.549178e+01	4.796824e+02
2.050000e-06	5.064661e-06	7.279180e-09	3.487499e+01	4.760278e+02
2.060000e-06	4.973507e-06	7.204682e-09	3.424731e+01	4.722531e+02
2.070000e-06	4.880705e-06	7.152142e-09	3.360828e+01	4.683702e+02
2.080000e-06	4.786058e-06	7.089898e-09	3.295655e+01	4.643874e+02
2.090000e-06	4.689724e-06	7.036248e-09	3.229319e+01	4.603072e+02
2.100000e-06	4.591831e-06	6.972464e-09	3.161911e+01	4.561251e+02
2.110000e-06	4.492440e-06	6.901584e-09	3.093471e+01	4.518305e+02
2.120000e-06	4.391433e-06	6.837731e-09	3.023918e+01	4.474088e+02
2.130000e-06	4.288720e-06	6.761386e-09	2.953190e+01	4.428448e+02
2.140000e-06	4.184493e-06	6.693008e-09	2.881420e+01	4.381255e+02
2.150000e-06	4.078810e-06	6.615650e-09	2.808647e+01	4.332428e+02
2.160000e-06	3.971713e-06	6.541540e-09	2.734901e+01	4.281945e+02
2.170000e-06	3.863231e-06	6.461051e-09	2.660201e+01	4.229831e+02
2.180000e-06	3.753312e-06	6.388261e-09	2.584511e+01	4.176142e+02
2.190000e-06	3.641903e-06	6.312117e-09	2.507796e+01	4.120937e+02
2.200000e-06	3.529132e-06	6.232828e-09	2.430142e+01	4.064253e+02
2.210000e-06	3.415047e-06	6.140332e-09	2.351583e+01	4.006083e+02
2.220000e-06	3.299557e-06	6.038010e-09	2.272058e+01	3.946376e+02
2.230000e-06	3.182613e-06	5.940715e-09	2.191530e+01	3.885042e+02
2.240000e-06	3.064314e-06	5.844828e-09	2.110071e+01	3.821973e+02
2.250000e-06	2.944838e-06	5.752755e-09	2.027800e+01	3.757066e+02
2.260000e-06	2.824251e-06	5.652504e-09	1.944765e+01	3.690237e+02
2.270000e-06	2.702652e-06	5.550008e-09	1.861032e+01	3.621441e+02
2.280000e-06	2.580130e-06	5.442052e-09	1.776664e+01	3.550655e+02
2.290000e-06	2.456769e-06	5.332669e-09	1.691718e+01	3.477875e+02
2.300000e-06	2.332553e-06	5.221039e-09	1.606184e+01	3.403085e+02
2.310000e-06	2.207490e-06	5.108196e-09	1.520066e+01	3.326240e+02
2.320000e-06	2.081595e-06	4.987122e-09	1.433376e+01	3.247247e+02
2.330000e-06	1.954847e-06	4.858725e-09	1.346098e+01	3.165967e+02
2.340000e-06	1.827423e-06	4.728900e-09	1.258354e+01	3.082226e+02
2.350000e-06	1.699509e-06	4.596088e-09	1.170273e+01	2.995839e+02
2.360000e-06	1.571078e-06	4.459812e-09	1.081836e+01	2.906639e+02
2.370000e-06	1.442130e-06	4.318990e-09	9.930432e+00	2.814501e+02
2.380000e-06	1.312688e-06	4.177566e-09	9.039100e+00	2.719356e+02
2.390000e-06	1.182764e-06	4.034207e-09	8.144450e+00	2.621190e+02
2.400000e-06	1.052518e-06	3.884172e-09	7.247585e+00	2.520026e+02
2.410000e-06	9.220482e-07	3.728101e-09	6.349176e+00	2.415894e+02
2.420000e-06	7.913196e-07	3.563117e-09	5.448986e+00	2.308800e+02
2.430000e-06	6.603576e-07	3.389056e-09	4.547188e+00	2.198697e+02
2.440000e-06	5.291891e-07	3.213581e-09	3.643969e+00	2.085476e+02
2.450000e-06	3.978548e-07	3.037595e-09	2.739607e+00	1.968964e+02
2.460000e-06	2.663831e-07	2.858584e-09	1.834300e+00	1.848949e+02
2.470000e-06	1.348066e-07	2.669958e-09	9.282714e-01	1.725203e+02
2.480000e-06	3.157252e-09	2.471515e-09	2.174067e-02	1.597514e+02
2.490000e-06	-1.285234e-07	2.269697e-09	-8.850056e-01	1.465703e+02
2.500000e-06	-2.601435e-07	2.061271e-09	-1.791334e+00	1.329626e+02
2.510000e-06	-3.916866e-07	1.843451e-09	-2.697134e+00	1.189163e+02
2.520000e-06	-5.230976e-07	1.618360e-09	-3.602023e+00	1.044188e+02
2.530000e-06	-6.543425e-07	1.388555e-09	-4.505768e+00	8.945400e+01
2.540000e-06	-7.853972e-07	1.154729e-09	-5.408204e+00	7.400076e+01
2.550000e-06	-9.161775e-07	9.120737e-10	-6.308751e+00	5.803294e+01
2.560000e-06	-1.046697e-06	6.588619e-10	-7.207498e+00	4.152290e+01
2.570000e-06	-1.176955e-06	3.963069e-10	-8.104450e+00	2.444783e+01
2.580000e-06	-1.306836e-06	1.246383e-10	-8.998804e+00	6.798138e+00
2.590000e-06	-1.436264e-06	-1.548835e-10	-9.890037e+00	-1.141340e+01
2.600000e-06	-1.565185e-06	-4.406840e-10	-1.077778e+01	-3.014392e+01
2.610000e-06	-1.693522e-06	-7.353730e-10	-1.166150e+01	-4.931589e+01
2.620000e-06	-1.821222e-06	-1.037030e-09	-1.254084e+01	-6.881705e+01
2.630000e-06	-1.948275e-06	-1.339396e-09	-1.341572e+01	-8.850553e+01
2.640000e-06	-2.074697e-06	-1.639243e-09	-1.428626e+01	-1.082195e+02
2.650000e-06	-2.200357e-06	-1.934762e-09	-1.515155e+01	-1.277899e+02
2.660000e-06	-2.325055e-06	-2.227413e-09	-1.601021e+01	-1.470545e+02
2.670000e-06	-2.448750e-06	-2.513777e-09	-1.686197e+01	-1.658702e+02
2.680000e-06	-2.571474e-06	-2.792928e-09	-1.770703e+01	-1.841227e+02
2.690000e-06	-2.693237e-06	-3.064849e-09	-1.854549e+01	-2.017313e+02
2.700000e-06	-2.814055e-06	-3.325162e-09	-1.937743e+01	-2.186490e+02
2.710000e-06	-2.933810e-06	-3.575139e-09	-2.020207e+01	-2.348580e+02
2.720000e-06	-3.052528e-06	-3.816136e-09	-2.101955e+01	-2.503631e+02
2.730000e-06	-3.170070e-06	-4.046310e-09	-2.182894e+01	-2.651833e+02
2.740000e-06	-3.286179e-06	-4.264708e-09	-2.262845e+01	-2.793444e+02
2.750000e-06	-3.400942e-06	-4.473505e-09	-2.341871e+01	-2.928735e+02
2.760000e-06	-3.514385e-06	-4.673877e-09	-2.419988e+01	-3.057958e+02
2.770000e-06	-3.626413e-06	-4.862647e-09	-2.497129e+01	-3.181342e+02
2.780000e-06	-3.736962e-06	-5.040501e-09	-2.573252e+01	-3.299097e+02
2.790000e-06	-3.846199e-06	-5.210251e-09	-2.648472e+01	-3.411440e+02
2.800000e-06	-3.954262e-06	-5.374041e-09	-2.722885e+01	-3.518600e+02
2.810000e-06	-4.061082e-06	-5.530013e-09	-2.796440e+01	-3.620823e+02
2.820000e-06	-4.166566e-06	-5.677606e-09	-2.869076e+01	-3.718363e+02
2.830000e-06	-4.270542e-06	-5.820273e-09	-2.940673e+01	-3.811463e+02
2.840000e-06	-4.372867e-06	-5.956494e-09	-3.011134e+01	-3.900333e+02
2.850000e-06	-4.473540e-06	-6.087034e-09	-3.080456e+01	-3.985134e+02
2.860000e-06	-4.572701e-06	-6.211373e-09	-3.148738e+01	-4.065972e+02
2.870000e-06	-4.670331e-06	-6.330697e-09	-3.215966e+01	-4.142913e+02
2.880000e-06	-4.766325e-06	-6.442361e-09	-3.282067e+01	-4.216002e+02
2.890000e-06	-4.860550e-06	-6.546523e-09	-3.346949e+01	-4.285300e+02
2.900000e-06	-4.952994e-06	-6.647226e-09	-3.410606e+01	-4.350911e+02
2.910000e-06	-5.043796e-06	-6.742908e-09	-3.473132e+01	-4.413008e+02
2.920000e-06	-5.132806e-06	-6.832977e-09	-3.534423e+01	-4.471834e+02
2.930000e-06	-5.219795e-06	-6.916124e-09	-3.594324e+01	-4.527696e+02
2.940000e-06	-5.304755e-06	-6.997987e-09	-3.652826e+01	-4.580936e+02
