# Temperatura_=_25.3
# Concentracion g/m^3_=_15000.0
# C_Vs_to_Am_M_A/Vsm_=_65563218390.804596
# pendiente_HvsI_1/m_=_3716.3
# ordenada_HvsI_A/m_=_1297.0
# frecuencia_Hz_=_301886.960488481

Tiempo_(s)	Campo_(V.s)	Magnetizacion_(V.s)	Campo_(kA/m)	Magnetizacion_(A/m)
0.000000e+00	-6.869268e-06	-8.303982e-09	-4.750142e+01	-5.415224e+02
1.000000e-08	-6.866157e-06	-8.303952e-09	-4.747991e+01	-5.413258e+02
2.000000e-08	-6.860785e-06	-8.299991e-09	-4.744276e+01	-5.410566e+02
3.000000e-08	-6.853268e-06	-8.294531e-09	-4.739078e+01	-5.407131e+02
4.000000e-08	-6.843392e-06	-8.283961e-09	-4.732249e+01	-5.402892e+02
5.000000e-08	-6.830992e-06	-8.270540e-09	-4.723674e+01	-5.397759e+02
6.000000e-08	-6.816129e-06	-8.254893e-09	-4.713396e+01	-5.391647e+02
7.000000e-08	-6.798929e-06	-8.238066e-09	-4.701502e+01	-5.384502e+02
8.000000e-08	-6.779652e-06	-8.247995e-09	-4.688172e+01	-5.376331e+02
9.000000e-08	-6.757977e-06	-8.261949e-09	-4.673183e+01	-5.367226e+02
1.000000e-07	-6.733360e-06	-8.222272e-09	-4.656161e+01	-5.357361e+02
1.100000e-07	-6.706015e-06	-8.193744e-09	-4.637252e+01	-5.346975e+02
1.200000e-07	-6.676317e-06	-8.186266e-09	-4.616716e+01	-5.336334e+02
1.300000e-07	-6.644597e-06	-8.134016e-09	-4.594781e+01	-5.325678e+02
1.400000e-07	-6.610961e-06	-8.108570e-09	-4.571521e+01	-5.315176e+02
1.500000e-07	-6.575409e-06	-8.157681e-09	-4.546937e+01	-5.304872e+02
1.600000e-07	-6.537774e-06	-8.068258e-09	-4.520912e+01	-5.294662e+02
1.700000e-07	-6.498076e-06	-8.043757e-09	-4.493461e+01	-5.284296e+02
1.800000e-07	-6.456068e-06	-8.071397e-09	-4.464412e+01	-5.273407e+02
1.900000e-07	-6.411458e-06	-7.990638e-09	-4.433564e+01	-5.261561e+02
2.000000e-07	-6.364566e-06	-8.033804e-09	-4.401137e+01	-5.248326e+02
2.100000e-07	-6.315099e-06	-8.015497e-09	-4.366931e+01	-5.233344e+02
2.200000e-07	-6.262950e-06	-7.956027e-09	-4.330870e+01	-5.216390e+02
2.300000e-07	-6.208363e-06	-7.928708e-09	-4.293122e+01	-5.197404e+02
2.400000e-07	-6.151337e-06	-7.867593e-09	-4.253689e+01	-5.176497e+02
2.500000e-07	-6.092006e-06	-7.850014e-09	-4.212660e+01	-5.153922e+02
2.600000e-07	-6.030505e-06	-7.811831e-09	-4.170132e+01	-5.130018e+02
2.700000e-07	-5.966858e-06	-7.769466e-09	-4.126120e+01	-5.105143e+02
2.800000e-07	-5.900970e-06	-7.727817e-09	-4.080558e+01	-5.079601e+02
2.900000e-07	-5.832850e-06	-7.669073e-09	-4.033453e+01	-5.053590e+02
3.000000e-07	-5.762624e-06	-7.648449e-09	-3.984891e+01	-5.027167e+02
3.100000e-07	-5.690234e-06	-7.610765e-09	-3.934833e+01	-5.000250e+02
3.200000e-07	-5.615547e-06	-7.587120e-09	-3.883186e+01	-4.972646e+02
3.300000e-07	-5.538514e-06	-7.537078e-09	-3.829917e+01	-4.944103e+02
3.400000e-07	-5.459257e-06	-7.476098e-09	-3.775111e+01	-4.914363e+02
3.500000e-07	-5.377929e-06	-7.435816e-09	-3.718872e+01	-4.883225e+02
3.600000e-07	-5.294817e-06	-7.376860e-09	-3.661400e+01	-4.850576e+02
3.700000e-07	-5.210054e-06	-7.335605e-09	-3.602785e+01	-4.816410e+02
3.800000e-07	-5.123548e-06	-7.274798e-09	-3.542966e+01	-4.780814e+02
3.900000e-07	-5.035261e-06	-7.215362e-09	-3.481915e+01	-4.743934e+02
4.000000e-07	-4.945087e-06	-7.158876e-09	-3.419559e+01	-4.705933e+02
4.100000e-07	-4.853138e-06	-7.104167e-09	-3.355976e+01	-4.666943e+02
4.200000e-07	-4.759617e-06	-7.047465e-09	-3.291305e+01	-4.627032e+02
4.300000e-07	-4.664437e-06	-6.972602e-09	-3.225488e+01	-4.586184e+02
4.400000e-07	-4.567526e-06	-6.901305e-09	-3.158473e+01	-4.544308e+02
4.500000e-07	-4.468816e-06	-6.827903e-09	-3.090215e+01	-4.501257e+02
4.600000e-07	-4.368536e-06	-6.769271e-09	-3.020870e+01	-4.456866e+02
4.700000e-07	-4.266844e-06	-6.708860e-09	-2.950549e+01	-4.410987e+02
4.800000e-07	-4.163680e-06	-6.638294e-09	-2.879211e+01	-4.363519e+02
4.900000e-07	-4.059017e-06	-6.556882e-09	-2.806836e+01	-4.314419e+02
5.000000e-07	-3.952746e-06	-6.470166e-09	-2.733349e+01	-4.263702e+02
5.100000e-07	-3.844965e-06	-6.391159e-09	-2.658817e+01	-4.211417e+02
5.200000e-07	-3.735870e-06	-6.314719e-09	-2.583378e+01	-4.157623e+02
5.300000e-07	-3.625573e-06	-6.233475e-09	-2.507107e+01	-4.102362e+02
5.400000e-07	-3.513957e-06	-6.140638e-09	-2.429924e+01	-4.045630e+02
5.500000e-07	-3.400876e-06	-6.045235e-09	-2.351727e+01	-3.987378e+02
5.600000e-07	-3.286207e-06	-5.949248e-09	-2.272433e+01	-3.927514e+02
5.700000e-07	-3.170081e-06	-5.856912e-09	-2.192131e+01	-3.865927e+02
5.800000e-07	-3.052756e-06	-5.763872e-09	-2.111000e+01	-3.802508e+02
5.900000e-07	-2.934372e-06	-5.668039e-09	-2.029137e+01	-3.737181e+02
6.000000e-07	-2.814993e-06	-5.567645e-09	-1.946585e+01	-3.669911e+02
6.100000e-07	-2.694557e-06	-5.461249e-09	-1.863303e+01	-3.600711e+02
6.200000e-07	-2.573092e-06	-5.351409e-09	-1.779309e+01	-3.529623e+02
6.300000e-07	-2.450637e-06	-5.237599e-09	-1.694631e+01	-3.456696e+02
6.400000e-07	-2.327202e-06	-5.118925e-09	-1.609275e+01	-3.381951e+02
6.500000e-07	-2.202927e-06	-4.996109e-09	-1.523338e+01	-3.305360e+02
6.600000e-07	-2.077989e-06	-4.874250e-09	-1.436942e+01	-3.226828e+02
6.700000e-07	-1.952364e-06	-4.755054e-09	-1.350072e+01	-3.146197e+02
6.800000e-07	-1.826122e-06	-4.633895e-09	-1.262775e+01	-3.063260e+02
6.900000e-07	-1.699247e-06	-4.506639e-09	-1.175040e+01	-2.977797e+02
7.000000e-07	-1.571748e-06	-4.370419e-09	-1.086873e+01	-2.889607e+02
7.100000e-07	-1.443730e-06	-4.228206e-09	-9.983485e+00	-2.798537e+02
7.200000e-07	-1.315201e-06	-4.082694e-09	-9.094700e+00	-2.704507e+02
7.300000e-07	-1.186242e-06	-3.934033e-09	-8.202937e+00	-2.607506e+02
7.400000e-07	-1.056915e-06	-3.783170e-09	-7.308634e+00	-2.507578e+02
7.500000e-07	-9.272766e-07	-3.624945e-09	-6.412177e+00	-2.404793e+02
7.600000e-07	-7.972828e-07	-3.458900e-09	-5.513261e+00	-2.299212e+02
7.700000e-07	-6.669152e-07	-3.289007e-09	-4.611761e+00	-2.190855e+02
7.800000e-07	-5.362732e-07	-3.116656e-09	-3.708363e+00	-2.079678e+02
7.900000e-07	-4.054303e-07	-2.943253e-09	-2.803576e+00	-1.965574e+02
8.000000e-07	-2.744487e-07	-2.766767e-09	-1.897830e+00	-1.848385e+02
8.100000e-07	-1.433525e-07	-2.586155e-09	-9.912914e-01	-1.727923e+02
8.200000e-07	-1.211282e-08	-2.400243e-09	-8.376089e-02	-1.604003e+02
8.300000e-07	1.192124e-07	-2.209905e-09	8.243610e-01	-1.476464e+02
8.400000e-07	2.504715e-07	-2.013529e-09	1.732027e+00	-1.345185e+02
8.500000e-07	3.816338e-07	-1.808580e-09	2.639022e+00	-1.210079e+02
8.600000e-07	5.126671e-07	-1.597148e-09	3.545126e+00	-1.071076e+02
8.700000e-07	6.435176e-07	-1.377175e-09	4.449965e+00	-9.280927e+01
8.800000e-07	7.742149e-07	-1.150048e-09	5.353745e+00	-7.810116e+01
8.900000e-07	9.046750e-07	-9.196744e-10	6.255885e+00	-6.296643e+01
9.000000e-07	1.034780e-06	-6.860314e-10	7.155566e+00	-4.738393e+01
9.100000e-07	1.164457e-06	-4.445859e-10	8.052296e+00	-3.133145e+01
9.200000e-07	1.293678e-06	-1.932660e-10	8.945863e+00	-1.479121e+01
9.300000e-07	1.422459e-06	6.622993e-11	9.836395e+00	2.243039e+00
9.400000e-07	1.550754e-06	3.302485e-10	1.072356e+01	1.975879e+01
9.500000e-07	1.678500e-06	6.011516e-10	1.160693e+01	3.771884e+01
9.600000e-07	1.805556e-06	8.783201e-10	1.248553e+01	5.605799e+01
9.700000e-07	1.931882e-06	1.161816e-09	1.335909e+01	7.468341e+01
9.800000e-07	2.057576e-06	1.448842e-09	1.422827e+01	9.347884e+01
9.900000e-07	2.182587e-06	1.736357e-09	1.509272e+01	1.123122e+02
1.000000e-06	2.306870e-06	2.020569e-09	1.595215e+01	1.310453e+02
1.010000e-06	2.430403e-06	2.299218e-09	1.680639e+01	1.495447e+02
1.020000e-06	2.553026e-06	2.574762e-09	1.765434e+01	1.676907e+02
1.030000e-06	2.674636e-06	2.841852e-09	1.849528e+01	1.853849e+02
1.040000e-06	2.795199e-06	3.101685e-09	1.932898e+01	2.025537e+02
1.050000e-06	2.914652e-06	3.351668e-09	2.015500e+01	2.191484e+02
1.060000e-06	3.033024e-06	3.591856e-09	2.097355e+01	2.351431e+02
1.070000e-06	3.150352e-06	3.825004e-09	2.178488e+01	2.505291e+02
1.080000e-06	3.266558e-06	4.049577e-09	2.258846e+01	2.653094e+02
1.090000e-06	3.381455e-06	4.263064e-09	2.338298e+01	2.794939e+02
1.100000e-06	3.494892e-06	4.465635e-09	2.416740e+01	2.930948e+02
1.110000e-06	3.606921e-06	4.662095e-09	2.494209e+01	3.061248e+02
1.120000e-06	3.717701e-06	4.852210e-09	2.570814e+01	3.185967e+02
1.130000e-06	3.827295e-06	5.034110e-09	2.646599e+01	3.305239e+02
1.140000e-06	3.935722e-06	5.207774e-09	2.721576e+01	3.419220e+02
1.150000e-06	4.042856e-06	5.374607e-09	2.795661e+01	3.528094e+02
1.160000e-06	4.148489e-06	5.534206e-09	2.868706e+01	3.632078e+02
1.170000e-06	4.252563e-06	5.685588e-09	2.940674e+01	3.731412e+02
1.180000e-06	4.355069e-06	5.828698e-09	3.011558e+01	3.826340e+02
1.190000e-06	4.456086e-06	5.966130e-09	3.081412e+01	3.917088e+02
1.200000e-06	4.555594e-06	6.097108e-09	3.150222e+01	4.003844e+02
1.210000e-06	4.653362e-06	6.221681e-09	3.217829e+01	4.086746e+02
1.220000e-06	4.749292e-06	6.342042e-09	3.284165e+01	4.165881e+02
1.230000e-06	4.843542e-06	6.456945e-09	3.349340e+01	4.241299e+02
1.240000e-06	4.936193e-06	6.566930e-09	3.413409e+01	4.313038e+02
1.250000e-06	5.027154e-06	6.671607e-09	3.476309e+01	4.381149e+02
1.260000e-06	5.116287e-06	6.769259e-09	3.537945e+01	4.445728e+02
1.270000e-06	5.203502e-06	6.860679e-09	3.598255e+01	4.506928e+02
1.280000e-06	5.288867e-06	6.948801e-09	3.657285e+01	4.564968e+02
1.290000e-06	5.372401e-06	7.033174e-09	3.715049e+01	4.620120e+02
1.300000e-06	5.454009e-06	7.111117e-09	3.771482e+01	4.672686e+02
1.310000e-06	5.533587e-06	7.184554e-09	3.826510e+01	4.722967e+02
1.320000e-06	5.611144e-06	7.256083e-09	3.880141e+01	4.771229e+02
1.330000e-06	5.686624e-06	7.326074e-09	3.932336e+01	4.817679e+02
1.340000e-06	5.759876e-06	7.395688e-09	3.982991e+01	4.862444e+02
1.350000e-06	5.830954e-06	7.464006e-09	4.032141e+01	4.905574e+02
1.360000e-06	5.900027e-06	7.528615e-09	4.079906e+01	4.947052e+02
1.370000e-06	5.967075e-06	7.588273e-09	4.126270e+01	4.986813e+02
1.380000e-06	6.031882e-06	7.643571e-09	4.171085e+01	5.024776e+02
1.390000e-06	6.094487e-06	7.697163e-09	4.214376e+01	5.060863e+02
1.400000e-06	6.155091e-06	7.747582e-09	4.256284e+01	5.095026e+02
1.410000e-06	6.213569e-06	7.793549e-09	4.296722e+01	5.127247e+02
1.420000e-06	6.269782e-06	7.836533e-09	4.335594e+01	5.157550e+02
1.430000e-06	6.323836e-06	7.878506e-09	4.372973e+01	5.185984e+02
1.440000e-06	6.375526e-06	7.920274e-09	4.408717e+01	5.212615e+02
1.450000e-06	6.424479e-06	7.958815e-09	4.442568e+01	5.237512e+02
1.460000e-06	6.470911e-06	7.994453e-09	4.474676e+01	5.260738e+02
1.470000e-06	6.515264e-06	8.027084e-09	4.505346e+01	5.282345e+02
1.480000e-06	6.557372e-06	8.056398e-09	4.534464e+01	5.302374e+02
1.490000e-06	6.596998e-06	8.083675e-09	4.561866e+01	5.320864e+02
1.500000e-06	6.634390e-06	8.107955e-09	4.587722e+01	5.337854e+02
1.510000e-06	6.669600e-06	8.130044e-09	4.612070e+01	5.353393e+02
1.520000e-06	6.702353e-06	8.149890e-09	4.634719e+01	5.367538e+02
1.530000e-06	6.732651e-06	8.167104e-09	4.655671e+01	5.380350e+02
1.540000e-06	6.760736e-06	8.184639e-09	4.675092e+01	5.391894e+02
1.550000e-06	6.786363e-06	8.200511e-09	4.692813e+01	5.402221e+02
1.560000e-06	6.809346e-06	8.214248e-09	4.708706e+01	5.411369e+02
1.570000e-06	6.830030e-06	8.226583e-09	4.723009e+01	5.419354e+02
1.580000e-06	6.848403e-06	8.237827e-09	4.735714e+01	5.426177e+02
1.590000e-06	6.864226e-06	8.246856e-09	4.746655e+01	5.431829e+02
1.600000e-06	6.877533e-06	8.252529e-09	4.755857e+01	5.436306e+02
1.610000e-06	6.888163e-06	8.256627e-09	4.763208e+01	5.439619e+02
1.620000e-06	6.896071e-06	8.260408e-09	4.768677e+01	5.441805e+02
1.630000e-06	6.901547e-06	8.264648e-09	4.772463e+01	5.442929e+02
1.640000e-06	6.904666e-06	8.268295e-09	4.774620e+01	5.443080e+02
1.650000e-06	6.905324e-06	8.270485e-09	4.775075e+01	5.442351e+02
1.660000e-06	6.903568e-06	8.266839e-09	4.773861e+01	5.440830e+02
1.670000e-06	6.899630e-06	8.262922e-09	4.771138e+01	5.438570e+02
1.680000e-06	6.893372e-06	8.257997e-09	4.766810e+01	5.435584e+02
1.690000e-06	6.884779e-06	8.251150e-09	4.760868e+01	5.431835e+02
1.700000e-06	6.874026e-06	8.243935e-09	4.753433e+01	5.427249e+02
1.710000e-06	6.860972e-06	8.238908e-09	4.744406e+01	5.421734e+02
1.720000e-06	6.845551e-06	8.241814e-09	4.733742e+01	5.415212e+02
1.730000e-06	6.827947e-06	8.215220e-09	4.721569e+01	5.407651e+02
1.740000e-06	6.808037e-06	8.172566e-09	4.707800e+01	5.399090e+02
1.750000e-06	6.784922e-06	8.178094e-09	4.691817e+01	5.389655e+02
1.760000e-06	6.758460e-06	8.167460e-09	4.673518e+01	5.379547e+02
1.770000e-06	6.729609e-06	8.152037e-09	4.653567e+01	5.369022e+02
1.780000e-06	6.698745e-06	8.191791e-09	4.632224e+01	5.358341e+02
1.790000e-06	6.666351e-06	8.133960e-09	4.609824e+01	5.347725e+02
1.800000e-06	6.632464e-06	8.089077e-09	4.586391e+01	5.337296e+02
1.810000e-06	6.596012e-06	8.138120e-09	4.561184e+01	5.327042e+02
1.820000e-06	6.557033e-06	8.079998e-09	4.534229e+01	5.316801e+02
1.830000e-06	6.515991e-06	8.122748e-09	4.505849e+01	5.306272e+02
1.840000e-06	6.472723e-06	8.110136e-09	4.475929e+01	5.295053e+02
1.850000e-06	6.427225e-06	8.009510e-09	4.444467e+01	5.282702e+02
1.860000e-06	6.379353e-06	8.058263e-09	4.411363e+01	5.268810e+02
1.870000e-06	6.329134e-06	7.983780e-09	4.376636e+01	5.253064e+02
1.880000e-06	6.276566e-06	7.979567e-09	4.340285e+01	5.235302e+02
1.890000e-06	6.221235e-06	7.998708e-09	4.302023e+01	5.215532e+02
1.900000e-06	6.163464e-06	7.907522e-09	4.262074e+01	5.193927e+02
1.910000e-06	6.103513e-06	7.916067e-09	4.220618e+01	5.170779e+02
1.920000e-06	6.041221e-06	7.840213e-09	4.177543e+01	5.146446e+02
1.930000e-06	5.976739e-06	7.820635e-09	4.132953e+01	5.121270e+02
1.940000e-06	5.910075e-06	7.815110e-09	4.086854e+01	5.095520e+02
1.950000e-06	5.841248e-06	7.748844e-09	4.039260e+01	5.069341e+02
1.960000e-06	5.769985e-06	7.728465e-09	3.989981e+01	5.042733e+02
1.970000e-06	5.696466e-06	7.629931e-09	3.939142e+01	5.015567e+02
1.980000e-06	5.620945e-06	7.617315e-09	3.886919e+01	4.987619e+02
1.990000e-06	5.543055e-06	7.570855e-09	3.833057e+01	4.958627e+02
2.000000e-06	5.463043e-06	7.528705e-09	3.777729e+01	4.928351e+02
2.010000e-06	5.381188e-06	7.505174e-09	3.721126e+01	4.896619e+02
2.020000e-06	5.297562e-06	7.414713e-09	3.663297e+01	4.863362e+02
2.030000e-06	5.211997e-06	7.374630e-09	3.604129e+01	4.828612e+02
2.040000e-06	5.124308e-06	7.300227e-09	3.543491e+01	4.792485e+02
2.050000e-06	5.034811e-06	7.267668e-09	3.481604e+01	4.755139e+02
2.060000e-06	4.943839e-06	7.212860e-09	3.418696e+01	4.716729e+02
2.070000e-06	4.851336e-06	7.146898e-09	3.354729e+01	4.677367e+02
2.080000e-06	4.757003e-06	7.093376e-09	3.289498e+01	4.637087e+02
2.090000e-06	4.660869e-06	7.029290e-09	3.223020e+01	4.595843e+02
2.100000e-06	4.563149e-06	6.982574e-09	3.155447e+01	4.553517e+02
2.110000e-06	4.463975e-06	6.896891e-09	3.086867e+01	4.509951e+02
2.120000e-06	4.363274e-06	6.824413e-09	3.017232e+01	4.464984e+02
2.130000e-06	4.260899e-06	6.741804e-09	2.946438e+01	4.418483e+02
2.140000e-06	4.156840e-06	6.675950e-09	2.874481e+01	4.370368e+02
2.150000e-06	4.051280e-06	6.611370e-09	2.801485e+01	4.320622e+02
2.160000e-06	3.944394e-06	6.542916e-09	2.727573e+01	4.269274e+02
2.170000e-06	3.836215e-06	6.464076e-09	2.652767e+01	4.216383e+02
2.180000e-06	3.726709e-06	6.367689e-09	2.577043e+01	4.162002e+02
2.190000e-06	3.615692e-06	6.279987e-09	2.500274e+01	4.106159e+02
2.200000e-06	3.503234e-06	6.198021e-09	2.422509e+01	4.048831e+02
2.210000e-06	3.389440e-06	6.124731e-09	2.343819e+01	3.989951e+02
2.220000e-06	3.274327e-06	6.030713e-09	2.264218e+01	3.929417e+02
2.230000e-06	3.157849e-06	5.928429e-09	2.183673e+01	3.867115e+02
2.240000e-06	3.040056e-06	5.817734e-09	2.102218e+01	3.802946e+02
2.250000e-06	2.921038e-06	5.716203e-09	2.019916e+01	3.736850e+02
2.260000e-06	2.800812e-06	5.618586e-09	1.936779e+01	3.668811e+02
2.270000e-06	2.679584e-06	5.519669e-09	1.852949e+01	3.598856e+02
2.280000e-06	2.557473e-06	5.414562e-09	1.768509e+01	3.527033e+02
2.290000e-06	2.434535e-06	5.302270e-09	1.683497e+01	3.453384e+02
2.300000e-06	2.310750e-06	5.190234e-09	1.597898e+01	3.377913e+02
2.310000e-06	2.186200e-06	5.075543e-09	1.511771e+01	3.300568e+02
2.320000e-06	2.060951e-06	4.953980e-09	1.425161e+01	3.221226e+02
2.330000e-06	1.934981e-06	4.818791e-09	1.338051e+01	3.139708e+02
2.340000e-06	1.808289e-06	4.682508e-09	1.250443e+01	3.055798e+02
2.350000e-06	1.680870e-06	4.549971e-09	1.162332e+01	2.969278e+02
2.360000e-06	1.552823e-06	4.422905e-09	1.073787e+01	2.879964e+02
2.370000e-06	1.424223e-06	4.290903e-09	9.848594e+00	2.787729e+02
2.380000e-06	1.295184e-06	4.147670e-09	8.956279e+00	2.692523e+02
2.390000e-06	1.165811e-06	3.993447e-09	8.061659e+00	2.594357e+02
2.400000e-06	1.036092e-06	3.834832e-09	7.164644e+00	2.493291e+02
2.410000e-06	9.060358e-07	3.680882e-09	6.265295e+00	2.389395e+02
2.420000e-06	7.757187e-07	3.526187e-09	5.364144e+00	2.282717e+02
2.430000e-06	6.451840e-07	3.361374e-09	4.461488e+00	2.173253e+02
2.440000e-06	5.144943e-07	3.184988e-09	3.557760e+00	2.060935e+02
2.450000e-06	3.837022e-07	3.004419e-09	2.653325e+00	1.945634e+02
2.460000e-06	2.527457e-07	2.824849e-09	1.747752e+00	1.827174e+02
2.470000e-06	1.216545e-07	2.641222e-09	8.412484e-01	1.705368e+02
2.480000e-06	-9.469373e-09	2.449239e-09	-6.548131e-02	1.580036e+02
2.490000e-06	-1.405817e-07	2.251718e-09	-9.721313e-01	1.451033e+02
2.500000e-06	-2.716796e-07	2.046191e-09	-1.878681e+00	1.318252e+02
2.510000e-06	-4.027441e-07	1.831166e-09	-2.785001e+00	1.181616e+02
2.520000e-06	-5.336707e-07	1.613348e-09	-3.690367e+00	1.041053e+02
2.530000e-06	-6.644394e-07	1.393549e-09	-4.594641e+00	8.964697e+01
2.540000e-06	-7.950597e-07	1.167811e-09	-5.497888e+00	7.477283e+01
2.550000e-06	-9.254162e-07	9.321177e-10	-6.399312e+00	5.946415e+01
2.560000e-06	-1.055540e-06	6.911569e-10	-7.299125e+00	4.369884e+01
2.570000e-06	-1.185338e-06	4.465302e-10	-8.196690e+00	2.745566e+01
2.580000e-06	-1.314718e-06	1.917768e-10	-9.091361e+00	1.072048e+01
2.590000e-06	-1.443674e-06	-7.467020e-11	-9.983097e+00	-6.506397e+00
2.600000e-06	-1.572139e-06	-3.500188e-10	-1.087144e+01	-2.420337e+01
2.610000e-06	-1.700000e-06	-6.315549e-10	-1.175561e+01	-4.232242e+01
2.620000e-06	-1.827099e-06	-9.181618e-10	-1.263450e+01	-6.078726e+01
2.630000e-06	-1.953497e-06	-1.205605e-09	-1.350856e+01	-7.949513e+01
2.640000e-06	-2.079187e-06	-1.491405e-09	-1.437771e+01	-9.832250e+01
2.650000e-06	-2.204036e-06	-1.776672e-09	-1.524105e+01	-1.171336e+02
2.660000e-06	-2.327955e-06	-2.063165e-09	-1.609795e+01	-1.357910e+02
2.670000e-06	-2.450937e-06	-2.344901e-09	-1.694839e+01	-1.541655e+02
2.680000e-06	-2.573032e-06	-2.618718e-09	-1.779268e+01	-1.721452e+02
2.690000e-06	-2.694282e-06	-2.887197e-09	-1.863113e+01	-1.896410e+02
2.700000e-06	-2.814562e-06	-3.149986e-09	-1.946287e+01	-2.065895e+02
2.710000e-06	-2.933700e-06	-3.404503e-09	-2.028672e+01	-2.229512e+02
2.720000e-06	-3.051631e-06	-3.649121e-09	-2.110222e+01	-2.387077e+02
2.730000e-06	-3.168325e-06	-3.882984e-09	-2.190917e+01	-2.538557e+02
2.740000e-06	-3.283698e-06	-4.106477e-09	-2.270698e+01	-2.684013e+02
2.750000e-06	-3.397776e-06	-4.321087e-09	-2.349583e+01	-2.823557e+02
2.760000e-06	-3.510577e-06	-4.527647e-09	-2.427586e+01	-2.957315e+02
2.770000e-06	-3.621932e-06	-4.724136e-09	-2.504589e+01	-3.085415e+02
2.780000e-06	-3.731909e-06	-4.911037e-09	-2.580639e+01	-3.207984e+02
2.790000e-06	-3.840688e-06	-5.089759e-09	-2.655860e+01	-3.325165e+02
2.800000e-06	-3.948251e-06	-5.261524e-09	-2.730240e+01	-3.437122e+02
2.810000e-06	-4.054515e-06	-5.426193e-09	-2.803723e+01	-3.544055e+02
2.820000e-06	-4.159354e-06	-5.582760e-09	-2.876219e+01	-3.646190e+02
2.830000e-06	-4.262578e-06	-5.731467e-09	-2.947600e+01	-3.743772e+02
2.840000e-06	-4.364178e-06	-5.873344e-09	-3.017857e+01	-3.837040e+02
2.850000e-06	-4.464242e-06	-6.009961e-09	-3.087051e+01	-3.926207e+02
2.860000e-06	-4.562809e-06	-6.140535e-09	-3.155211e+01	-4.011443e+02
2.870000e-06	-4.659904e-06	-6.264315e-09	-3.222353e+01	-4.092864e+02
2.880000e-06	-4.755362e-06	-6.380756e-09	-3.288363e+01	-4.170542e+02
2.890000e-06	-4.848981e-06	-6.493633e-09	-3.353101e+01	-4.244517e+02
2.900000e-06	-4.940826e-06	-6.603152e-09	-3.416612e+01	-4.314830e+02
2.910000e-06	-5.030984e-06	-6.707685e-09	-3.478958e+01	-4.381546e+02
2.920000e-06	-5.119388e-06	-6.805969e-09	-3.540089e+01	-4.444783e+02
2.930000e-06	-5.205805e-06	-6.896588e-09	-3.599847e+01	-4.504719e+02
2.940000e-06	-5.290183e-06	-6.981134e-09	-3.658195e+01	-4.561597e+02
