# Temperatura_=_36.4
# Concentracion g/m^3_=_15000.0
# C_Vs_to_Am_M_A/Vsm_=_65563218390.804596
# pendiente_HvsI_1/m_=_3716.3
# ordenada_HvsI_A/m_=_1297.0
# frecuencia_Hz_=_301891.6999052761

Tiempo_(s)	Campo_(V.s)	Magnetizacion_(V.s)	Campo_(kA/m)	Magnetizacion_(A/m)
0.000000e+00	-6.853389e-06	-8.347736e-09	-4.749975e+01	-5.450192e+02
1.000000e-08	-6.850371e-06	-8.347375e-09	-4.747884e+01	-5.448168e+02
2.000000e-08	-6.845144e-06	-8.343608e-09	-4.744261e+01	-5.445150e+02
3.000000e-08	-6.837838e-06	-8.339747e-09	-4.739198e+01	-5.441269e+02
4.000000e-08	-6.828161e-06	-8.333571e-09	-4.732490e+01	-5.436668e+02
5.000000e-08	-6.815990e-06	-8.324142e-09	-4.724055e+01	-5.431459e+02
6.000000e-08	-6.801316e-06	-8.309694e-09	-4.713885e+01	-5.425692e+02
7.000000e-08	-6.784258e-06	-8.290359e-09	-4.702062e+01	-5.419343e+02
8.000000e-08	-6.765067e-06	-8.290306e-09	-4.688761e+01	-5.412323e+02
9.000000e-08	-6.743470e-06	-8.310377e-09	-4.673792e+01	-5.404514e+02
1.000000e-07	-6.719079e-06	-8.287298e-09	-4.656887e+01	-5.395818e+02
1.100000e-07	-6.691959e-06	-8.251162e-09	-4.638090e+01	-5.386205e+02
1.200000e-07	-6.662486e-06	-8.235884e-09	-4.617664e+01	-5.375751e+02
1.300000e-07	-6.631035e-06	-8.196593e-09	-4.595865e+01	-5.364638e+02
1.400000e-07	-6.597671e-06	-8.159874e-09	-4.572741e+01	-5.353129e+02
1.500000e-07	-6.562341e-06	-8.197911e-09	-4.548254e+01	-5.341508e+02
1.600000e-07	-6.524985e-06	-8.149681e-09	-4.522364e+01	-5.329997e+02
1.700000e-07	-6.485605e-06	-8.082986e-09	-4.495070e+01	-5.318688e+02
1.800000e-07	-6.443808e-06	-8.097298e-09	-4.466101e+01	-5.307480e+02
1.900000e-07	-6.399398e-06	-8.058542e-09	-4.435321e+01	-5.296073e+02
2.000000e-07	-6.352779e-06	-8.091310e-09	-4.403010e+01	-5.284001e+02
2.100000e-07	-6.303715e-06	-8.121569e-09	-4.369005e+01	-5.270706e+02
2.200000e-07	-6.251928e-06	-8.075840e-09	-4.333113e+01	-5.255652e+02
2.300000e-07	-6.197647e-06	-8.017450e-09	-4.295491e+01	-5.238428e+02
2.400000e-07	-6.140969e-06	-7.933673e-09	-4.256208e+01	-5.218842e+02
2.500000e-07	-6.081950e-06	-7.892507e-09	-4.215303e+01	-5.196955e+02
2.600000e-07	-6.020707e-06	-7.876814e-09	-4.172857e+01	-5.173076e+02
2.700000e-07	-5.957329e-06	-7.839965e-09	-4.128931e+01	-5.147683e+02
2.800000e-07	-5.891766e-06	-7.796906e-09	-4.083489e+01	-5.121317e+02
2.900000e-07	-5.823935e-06	-7.745803e-09	-4.036477e+01	-5.094459e+02
3.000000e-07	-5.753924e-06	-7.713539e-09	-3.987954e+01	-5.067424e+02
3.100000e-07	-5.681766e-06	-7.685162e-09	-3.937942e+01	-5.040290e+02
3.200000e-07	-5.607341e-06	-7.666553e-09	-3.886360e+01	-5.012895e+02
3.300000e-07	-5.530579e-06	-7.618476e-09	-3.833157e+01	-4.984884e+02
3.400000e-07	-5.451618e-06	-7.549015e-09	-3.778430e+01	-4.955806e+02
3.500000e-07	-5.370609e-06	-7.509443e-09	-3.722284e+01	-4.925223e+02
3.600000e-07	-5.287750e-06	-7.467534e-09	-3.664856e+01	-4.892821e+02
3.700000e-07	-5.203224e-06	-7.420993e-09	-3.606272e+01	-4.858477e+02
3.800000e-07	-5.116943e-06	-7.352395e-09	-3.546472e+01	-4.822276e+02
3.900000e-07	-5.028846e-06	-7.279642e-09	-3.485414e+01	-4.784477e+02
4.000000e-07	-4.938951e-06	-7.218541e-09	-3.423109e+01	-4.745428e+02
4.100000e-07	-4.847303e-06	-7.173726e-09	-3.359589e+01	-4.705471e+02
4.200000e-07	-4.754017e-06	-7.129635e-09	-3.294934e+01	-4.664842e+02
4.300000e-07	-4.659078e-06	-7.060608e-09	-3.229133e+01	-4.623611e+02
4.400000e-07	-4.562479e-06	-6.979359e-09	-3.162182e+01	-4.581665e+02
4.500000e-07	-4.464172e-06	-6.896089e-09	-3.094047e+01	-4.538741e+02
4.600000e-07	-4.364233e-06	-6.829527e-09	-3.024781e+01	-4.494498e+02
4.700000e-07	-4.262800e-06	-6.774226e-09	-2.954479e+01	-4.448603e+02
4.800000e-07	-4.159935e-06	-6.709460e-09	-2.883185e+01	-4.400816e+02
4.900000e-07	-4.055575e-06	-6.628998e-09	-2.810855e+01	-4.351040e+02
5.000000e-07	-3.949644e-06	-6.540998e-09	-2.737435e+01	-4.299332e+02
5.100000e-07	-3.842171e-06	-6.459986e-09	-2.662948e+01	-4.245874e+02
5.200000e-07	-3.733339e-06	-6.383474e-09	-2.587518e+01	-4.190899e+02
5.300000e-07	-3.623288e-06	-6.299293e-09	-2.511244e+01	-4.134624e+02
5.400000e-07	-3.511883e-06	-6.201980e-09	-2.434030e+01	-4.077169e+02
5.500000e-07	-3.399051e-06	-6.101811e-09	-2.355828e+01	-4.018528e+02
5.600000e-07	-3.284804e-06	-6.006032e-09	-2.276645e+01	-3.958560e+02
5.700000e-07	-3.169170e-06	-5.919108e-09	-2.196501e+01	-3.897028e+02
5.800000e-07	-3.052265e-06	-5.834168e-09	-2.115477e+01	-3.833660e+02
5.900000e-07	-2.934207e-06	-5.736867e-09	-2.033653e+01	-3.768219e+02
6.000000e-07	-2.815101e-06	-5.626481e-09	-1.951102e+01	-3.700560e+02
6.100000e-07	-2.694981e-06	-5.514614e-09	-1.867849e+01	-3.630653e+02
6.200000e-07	-2.573853e-06	-5.408463e-09	-1.783896e+01	-3.558582e+02
6.300000e-07	-2.451764e-06	-5.298070e-09	-1.699279e+01	-3.484495e+02
6.400000e-07	-2.328674e-06	-5.175825e-09	-1.613967e+01	-3.408551e+02
6.500000e-07	-2.204656e-06	-5.046839e-09	-1.528012e+01	-3.330851e+02
6.600000e-07	-2.079922e-06	-4.920521e-09	-1.441561e+01	-3.251393e+02
6.700000e-07	-1.954601e-06	-4.799556e-09	-1.354703e+01	-3.170057e+02
6.800000e-07	-1.828686e-06	-4.679669e-09	-1.267434e+01	-3.086622e+02
6.900000e-07	-1.702096e-06	-4.552054e-09	-1.179696e+01	-3.000805e+02
7.000000e-07	-1.574880e-06	-4.414067e-09	-1.091524e+01	-2.912325e+02
7.100000e-07	-1.447161e-06	-4.271824e-09	-1.003004e+01	-2.820956e+02
7.200000e-07	-1.318933e-06	-4.129246e-09	-9.141313e+00	-2.726562e+02
7.300000e-07	-1.190263e-06	-3.982776e-09	-8.249521e+00	-2.629105e+02
7.400000e-07	-1.061262e-06	-3.829015e-09	-7.355442e+00	-2.528623e+02
7.500000e-07	-9.319082e-07	-3.665621e-09	-6.458908e+00	-2.425181e+02
7.600000e-07	-8.021961e-07	-3.494091e-09	-5.559894e+00	-2.318821e+02
7.700000e-07	-6.722107e-07	-3.321436e-09	-4.658986e+00	-2.209518e+02
7.800000e-07	-5.420149e-07	-3.150335e-09	-3.756619e+00	-2.097158e+02
7.900000e-07	-4.115960e-07	-2.979222e-09	-2.852706e+00	-1.981540e+02
8.000000e-07	-2.809990e-07	-2.801082e-09	-1.947560e+00	-1.862415e+02
8.100000e-07	-1.502786e-07	-2.613531e-09	-1.041557e+00	-1.739523e+02
8.200000e-07	-1.947205e-08	-2.419446e-09	-1.349577e-01	-1.612646e+02
8.300000e-07	1.114169e-07	-2.223256e-09	7.722131e-01	-1.481631e+02
8.400000e-07	2.423513e-07	-2.021595e-09	1.679699e+00	-1.346392e+02
8.500000e-07	3.732005e-07	-1.808646e-09	2.586593e+00	-1.206885e+02
8.600000e-07	5.038906e-07	-1.586598e-09	3.492386e+00	-1.063061e+02
8.700000e-07	6.344249e-07	-1.358640e-09	4.397098e+00	-9.148113e+01
8.800000e-07	7.648086e-07	-1.126063e-09	5.300767e+00	-7.619296e+01
8.900000e-07	8.949220e-07	-8.871927e-10	6.202563e+00	-6.041093e+01
9.000000e-07	1.024680e-06	-6.415228e-10	7.101897e+00	-4.409778e+01
9.100000e-07	1.154050e-06	-3.867174e-10	7.998539e+00	-2.721744e+01
9.200000e-07	1.282992e-06	-1.228962e-10	8.892217e+00	-9.745745e+00
9.300000e-07	1.411459e-06	1.505026e-10	9.782600e+00	8.318168e+00
9.400000e-07	1.539418e-06	4.333062e-10	1.066946e+01	2.694210e+01
9.500000e-07	1.666855e-06	7.233008e-10	1.155271e+01	4.605517e+01
9.600000e-07	1.793682e-06	1.019773e-09	1.243172e+01	6.554777e+01
9.700000e-07	1.919865e-06	1.323732e-09	1.330628e+01	8.527757e+01
9.800000e-07	2.045382e-06	1.628225e-09	1.417622e+01	1.050806e+02
9.900000e-07	2.170241e-06	1.927689e-09	1.504160e+01	1.247853e+02
1.000000e-06	2.294425e-06	2.221429e-09	1.590229e+01	1.442278e+02
1.010000e-06	2.417792e-06	2.509564e-09	1.675733e+01	1.632640e+02
1.020000e-06	2.540161e-06	2.792129e-09	1.760546e+01	1.817790e+02
1.030000e-06	2.661447e-06	3.063285e-09	1.844606e+01	1.996904e+02
1.040000e-06	2.781714e-06	3.324023e-09	1.927962e+01	2.169475e+02
1.050000e-06	2.900986e-06	3.575420e-09	2.010627e+01	2.335258e+02
1.060000e-06	3.019184e-06	3.815574e-09	2.092549e+01	2.494204e+02
1.070000e-06	3.136334e-06	4.045053e-09	2.173743e+01	2.646381e+02
1.080000e-06	3.252393e-06	4.264340e-09	2.254182e+01	2.791920e+02
1.090000e-06	3.367098e-06	4.472432e-09	2.333682e+01	2.930975e+02
1.100000e-06	3.480342e-06	4.670277e-09	2.412170e+01	3.063713e+02
1.110000e-06	3.592192e-06	4.861137e-09	2.489691e+01	3.190316e+02
1.120000e-06	3.702783e-06	5.044535e-09	2.566340e+01	3.311000e+02
1.130000e-06	3.812189e-06	5.220194e-09	2.642168e+01	3.426023e+02
1.140000e-06	3.920411e-06	5.389342e-09	2.717175e+01	3.535685e+02
1.150000e-06	4.027290e-06	5.552601e-09	2.791251e+01	3.640317e+02
1.160000e-06	4.132658e-06	5.708765e-09	2.864280e+01	3.740251e+02
1.170000e-06	4.236463e-06	5.856297e-09	2.936225e+01	3.835791e+02
1.180000e-06	4.338766e-06	5.994562e-09	3.007130e+01	3.927182e+02
1.190000e-06	4.439676e-06	6.124915e-09	3.077069e+01	4.014600e+02
1.200000e-06	4.539030e-06	6.248096e-09	3.145930e+01	4.098142e+02
1.210000e-06	4.636616e-06	6.364555e-09	3.213565e+01	4.177851e+02
1.220000e-06	4.732386e-06	6.478806e-09	3.279942e+01	4.253741e+02
1.230000e-06	4.826479e-06	6.590287e-09	3.345156e+01	4.325833e+02
1.240000e-06	4.919022e-06	6.695947e-09	3.409296e+01	4.394185e+02
1.250000e-06	5.009916e-06	6.795199e-09	3.472294e+01	4.458915e+02
1.260000e-06	5.098931e-06	6.889468e-09	3.533988e+01	4.520209e+02
1.270000e-06	5.186020e-06	6.978813e-09	3.594348e+01	4.578313e+02
1.280000e-06	5.271304e-06	7.062775e-09	3.653457e+01	4.633514e+02
1.290000e-06	5.354803e-06	7.140910e-09	3.711329e+01	4.686115e+02
1.300000e-06	5.436397e-06	7.215188e-09	3.767880e+01	4.736410e+02
1.310000e-06	5.515948e-06	7.287827e-09	3.823016e+01	4.784656e+02
1.320000e-06	5.593472e-06	7.357323e-09	3.876747e+01	4.831063e+02
1.330000e-06	5.668923e-06	7.424191e-09	3.929041e+01	4.875785e+02
1.340000e-06	5.742106e-06	7.490404e-09	3.979763e+01	4.918914e+02
1.350000e-06	5.813155e-06	7.555589e-09	4.029006e+01	4.960487e+02
1.360000e-06	5.882215e-06	7.617706e-09	4.076870e+01	5.000495e+02
1.370000e-06	5.949174e-06	7.675888e-09	4.123278e+01	5.038887e+02
1.380000e-06	6.013915e-06	7.729953e-09	4.168149e+01	5.075587e+02
1.390000e-06	6.076543e-06	7.781058e-09	4.211556e+01	5.110507e+02
1.400000e-06	6.137244e-06	7.828916e-09	4.253627e+01	5.143559e+02
1.410000e-06	6.195794e-06	7.873909e-09	4.294207e+01	5.174678e+02
1.420000e-06	6.252083e-06	7.916810e-09	4.333220e+01	5.203833e+02
1.430000e-06	6.306195e-06	7.957924e-09	4.370724e+01	5.231036e+02
1.440000e-06	6.357874e-06	7.997124e-09	4.406542e+01	5.256350e+02
1.450000e-06	6.406852e-06	8.032925e-09	4.440487e+01	5.279875e+02
1.460000e-06	6.453320e-06	8.065997e-09	4.472694e+01	5.301741e+02
1.470000e-06	6.497716e-06	8.096214e-09	4.503464e+01	5.322079e+02
1.480000e-06	6.539862e-06	8.123444e-09	4.532675e+01	5.341006e+02
1.490000e-06	6.579525e-06	8.149818e-09	4.560165e+01	5.358601e+02
1.500000e-06	6.616929e-06	8.174030e-09	4.586089e+01	5.374902e+02
1.510000e-06	6.652140e-06	8.194829e-09	4.610493e+01	5.389907e+02
1.520000e-06	6.684921e-06	8.214159e-09	4.633213e+01	5.403589e+02
1.530000e-06	6.715260e-06	8.231723e-09	4.654240e+01	5.415922e+02
1.540000e-06	6.743429e-06	8.248013e-09	4.673764e+01	5.426899e+02
1.550000e-06	6.769174e-06	8.261518e-09	4.691608e+01	5.436555e+02
1.560000e-06	6.792287e-06	8.273046e-09	4.707627e+01	5.444964e+02
1.570000e-06	6.813086e-06	8.284287e-09	4.722042e+01	5.452236e+02
1.580000e-06	6.831616e-06	8.295208e-09	4.734885e+01	5.458494e+02
1.590000e-06	6.847614e-06	8.304565e-09	4.745973e+01	5.463847e+02
1.600000e-06	6.861068e-06	8.310767e-09	4.755298e+01	5.468360e+02
1.610000e-06	6.871812e-06	8.315178e-09	4.762744e+01	5.472047e+02
1.620000e-06	6.879861e-06	8.318080e-09	4.768323e+01	5.474865e+02
1.630000e-06	6.885526e-06	8.320481e-09	4.772249e+01	5.476734e+02
1.640000e-06	6.888802e-06	8.323000e-09	4.774520e+01	5.477567e+02
1.650000e-06	6.889603e-06	8.327146e-09	4.775075e+01	5.477300e+02
1.660000e-06	6.888043e-06	8.326787e-09	4.773994e+01	5.475923e+02
1.670000e-06	6.884356e-06	8.322772e-09	4.771438e+01	5.473488e+02
1.680000e-06	6.878287e-06	8.317228e-09	4.767232e+01	5.470106e+02
1.690000e-06	6.869827e-06	8.310376e-09	4.761369e+01	5.465920e+02
1.700000e-06	6.859223e-06	8.303189e-09	4.754019e+01	5.461063e+02
1.710000e-06	6.846276e-06	8.296789e-09	4.745046e+01	5.455627e+02
1.720000e-06	6.830908e-06	8.297512e-09	4.734394e+01	5.449632e+02
1.730000e-06	6.813412e-06	8.272324e-09	4.722268e+01	5.443026e+02
1.740000e-06	6.793730e-06	8.222400e-09	4.708627e+01	5.435704e+02
1.750000e-06	6.770924e-06	8.226508e-09	4.692820e+01	5.427548e+02
1.760000e-06	6.744801e-06	8.229770e-09	4.674715e+01	5.418484e+02
1.770000e-06	6.716185e-06	8.214011e-09	4.654882e+01	5.408519e+02
1.780000e-06	6.685508e-06	8.247055e-09	4.633620e+01	5.397772e+02
1.790000e-06	6.653290e-06	8.210186e-09	4.611290e+01	5.386463e+02
1.800000e-06	6.619577e-06	8.150161e-09	4.587924e+01	5.374871e+02
1.810000e-06	6.583409e-06	8.192825e-09	4.562857e+01	5.363266e+02
1.820000e-06	6.544727e-06	8.160067e-09	4.536047e+01	5.351826e+02
1.830000e-06	6.503937e-06	8.166134e-09	4.507776e+01	5.340573e+02
1.840000e-06	6.460939e-06	8.153466e-09	4.477975e+01	5.329327e+02
1.850000e-06	6.415802e-06	8.027247e-09	4.446691e+01	5.317715e+02
1.860000e-06	6.368269e-06	8.042142e-09	4.413746e+01	5.305224e+02
1.870000e-06	6.318302e-06	8.007759e-09	4.379115e+01	5.291291e+02
1.880000e-06	6.266016e-06	8.006764e-09	4.342876e+01	5.275417e+02
1.890000e-06	6.210999e-06	8.076032e-09	4.304745e+01	5.257267e+02
1.900000e-06	6.153550e-06	8.005783e-09	4.264928e+01	5.236749e+02
1.910000e-06	6.093906e-06	7.978952e-09	4.223590e+01	5.214025e+02
1.920000e-06	6.031848e-06	7.900558e-09	4.180579e+01	5.189481e+02
1.930000e-06	5.967555e-06	7.849896e-09	4.136018e+01	5.163635e+02
1.940000e-06	5.901148e-06	7.865717e-09	4.089992e+01	5.137019e+02
1.950000e-06	5.832634e-06	7.803368e-09	4.042506e+01	5.110060e+02
1.960000e-06	5.761710e-06	7.777405e-09	3.993350e+01	5.082983e+02
1.970000e-06	5.688473e-06	7.699012e-09	3.942591e+01	5.055772e+02
1.980000e-06	5.613169e-06	7.669600e-09	3.890398e+01	5.028179e+02
1.990000e-06	5.535564e-06	7.639813e-09	3.836612e+01	4.999798e+02
2.000000e-06	5.455835e-06	7.574085e-09	3.781353e+01	4.970169e+02
2.010000e-06	5.374222e-06	7.538096e-09	3.724789e+01	4.938893e+02
2.020000e-06	5.290859e-06	7.462414e-09	3.667011e+01	4.905724e+02
2.030000e-06	5.205560e-06	7.423755e-09	3.607891e+01	4.870623e+02
2.040000e-06	5.118217e-06	7.373310e-09	3.547355e+01	4.833750e+02
2.050000e-06	5.029141e-06	7.328098e-09	3.485618e+01	4.795410e+02
2.060000e-06	4.938488e-06	7.262350e-09	3.422788e+01	4.755961e+02
2.070000e-06	4.846250e-06	7.183829e-09	3.358859e+01	4.715713e+02
2.080000e-06	4.752196e-06	7.128792e-09	3.293672e+01	4.674843e+02
2.090000e-06	4.656355e-06	7.078112e-09	3.227246e+01	4.633348e+02
2.100000e-06	4.558908e-06	7.040002e-09	3.159707e+01	4.591049e+02
2.110000e-06	4.459954e-06	6.964185e-09	3.091123e+01	4.547643e+02
2.120000e-06	4.359533e-06	6.882948e-09	3.021524e+01	4.502780e+02
2.130000e-06	4.257532e-06	6.789789e-09	2.950828e+01	4.456157e+02
2.140000e-06	4.153796e-06	6.710681e-09	2.878930e+01	4.407584e+02
2.150000e-06	4.048503e-06	6.645445e-09	2.805954e+01	4.357028e+02
2.160000e-06	3.941983e-06	6.582640e-09	2.732126e+01	4.304600e+02
2.170000e-06	3.834147e-06	6.511715e-09	2.657386e+01	4.250511e+02
2.180000e-06	3.724924e-06	6.418818e-09	2.581686e+01	4.194997e+02
2.190000e-06	3.614221e-06	6.331139e-09	2.504959e+01	4.138243e+02
2.200000e-06	3.502120e-06	6.248789e-09	2.427264e+01	4.080325e+02
2.210000e-06	3.388754e-06	6.168223e-09	2.348691e+01	4.021179e+02
2.220000e-06	3.274068e-06	6.066318e-09	2.269205e+01	3.960622e+02
2.230000e-06	3.157975e-06	5.959239e-09	2.188743e+01	3.898394e+02
2.240000e-06	3.040514e-06	5.854023e-09	2.107332e+01	3.834229e+02
2.250000e-06	2.921865e-06	5.756359e-09	2.025098e+01	3.767921e+02
2.260000e-06	2.802083e-06	5.659254e-09	1.942079e+01	3.699369e+02
2.270000e-06	2.681259e-06	5.559124e-09	1.858338e+01	3.628591e+02
2.280000e-06	2.559487e-06	5.452787e-09	1.773940e+01	3.555702e+02
2.290000e-06	2.436835e-06	5.337436e-09	1.688932e+01	3.480862e+02
2.300000e-06	2.313323e-06	5.224857e-09	1.603327e+01	3.404214e+02
2.310000e-06	2.189089e-06	5.114019e-09	1.517223e+01	3.325823e+02
2.320000e-06	2.064180e-06	4.993748e-09	1.430650e+01	3.245642e+02
2.330000e-06	1.938533e-06	4.856287e-09	1.343567e+01	3.163506e+02
2.340000e-06	1.812111e-06	4.714818e-09	1.255945e+01	3.079163e+02
2.350000e-06	1.684935e-06	4.577948e-09	1.167802e+01	2.992325e+02
2.360000e-06	1.557144e-06	4.447740e-09	1.079232e+01	2.902726e+02
2.370000e-06	1.428823e-06	4.316051e-09	9.902944e+00	2.810173e+02
2.380000e-06	1.300111e-06	4.176519e-09	9.010862e+00	2.714569e+02
2.390000e-06	1.171042e-06	4.026584e-09	8.116309e+00	2.615910e+02
2.400000e-06	1.041609e-06	3.870238e-09	7.219229e+00	2.514250e+02
2.410000e-06	9.118640e-07	3.716536e-09	6.319985e+00	2.409653e+02
2.420000e-06	7.818261e-07	3.557077e-09	5.418713e+00	2.302139e+02
2.430000e-06	6.515534e-07	3.385084e-09	4.515814e+00	2.191647e+02
2.440000e-06	5.211155e-07	3.204333e-09	3.611769e+00	2.078028e+02
2.450000e-06	3.904863e-07	3.020212e-09	2.706398e+00	1.961057e+02
2.460000e-06	2.596893e-07	2.837175e-09	1.799865e+00	1.840475e+02
2.470000e-06	1.287657e-07	2.651604e-09	8.924546e-01	1.716034e+02
2.480000e-06	-2.224399e-09	2.458996e-09	-1.541696e-02	1.587539e+02
2.490000e-06	-1.331451e-07	2.258864e-09	-9.228073e-01	1.454865e+02
2.500000e-06	-2.639973e-07	2.048044e-09	-1.829724e+00	1.317947e+02
2.510000e-06	-3.948159e-07	1.827271e-09	-2.736407e+00	1.176746e+02
2.520000e-06	-5.255570e-07	1.603346e-09	-3.642552e+00	1.031195e+02
2.530000e-06	-6.561145e-07	1.374672e-09	-4.547426e+00	8.811488e+01
2.540000e-06	-7.864862e-07	1.136928e-09	-5.451011e+00	7.263619e+01
2.550000e-06	-9.166138e-07	8.885231e-10	-6.352905e+00	5.664943e+01
2.560000e-06	-1.046361e-06	6.327527e-10	-7.252162e+00	4.011670e+01
2.570000e-06	-1.175803e-06	3.735049e-10	-8.149302e+00	2.300523e+01
2.580000e-06	-1.304938e-06	1.061000e-10	-9.044319e+00	5.298681e+00
2.590000e-06	-1.433639e-06	-1.727977e-10	-9.936325e+00	-1.299181e+01
2.600000e-06	-1.561916e-06	-4.616699e-10	-1.082539e+01	-3.181922e+01
2.610000e-06	-1.689644e-06	-7.579526e-10	-1.171065e+01	-5.109712e+01
2.620000e-06	-1.816628e-06	-1.058442e-09	-1.259076e+01	-7.070202e+01
2.630000e-06	-1.942835e-06	-1.361491e-09	-1.346548e+01	-9.048154e+01
2.640000e-06	-2.068208e-06	-1.664050e-09	-1.433442e+01	-1.102670e+02
2.650000e-06	-2.192748e-06	-1.964045e-09	-1.519759e+01	-1.298880e+02
2.660000e-06	-2.316454e-06	-2.261364e-09	-1.605497e+01	-1.491872e+02
2.670000e-06	-2.439226e-06	-2.550052e-09	-1.690589e+01	-1.680313e+02
2.680000e-06	-2.561028e-06	-2.825445e-09	-1.775008e+01	-1.863178e+02
2.690000e-06	-2.681967e-06	-3.092552e-09	-1.858829e+01	-2.039773e+02
2.700000e-06	-2.802029e-06	-3.353776e-09	-1.942042e+01	-2.209700e+02
2.710000e-06	-2.920992e-06	-3.606744e-09	-2.024493e+01	-2.372802e+02
2.720000e-06	-3.038684e-06	-3.849297e-09	-2.106064e+01	-2.529082e+02
2.730000e-06	-3.155096e-06	-4.080324e-09	-2.186747e+01	-2.678640e+02
2.740000e-06	-3.270272e-06	-4.302764e-09	-2.266574e+01	-2.821620e+02
2.750000e-06	-3.384107e-06	-4.516757e-09	-2.345471e+01	-2.958179e+02
2.760000e-06	-3.496517e-06	-4.720407e-09	-2.423380e+01	-3.088490e+02
2.770000e-06	-3.607606e-06	-4.909224e-09	-2.500375e+01	-3.212746e+02
2.780000e-06	-3.717405e-06	-5.084897e-09	-2.576474e+01	-3.331179e+02
2.790000e-06	-3.826020e-06	-5.253255e-09	-2.651754e+01	-3.444065e+02
2.800000e-06	-3.933464e-06	-5.415761e-09	-2.726221e+01	-3.551718e+02
2.810000e-06	-4.039533e-06	-5.572820e-09	-2.799736e+01	-3.654472e+02
2.820000e-06	-4.144241e-06	-5.724172e-09	-2.872308e+01	-3.752652e+02
2.830000e-06	-4.247455e-06	-5.868452e-09	-2.943844e+01	-3.846543e+02
2.840000e-06	-4.348934e-06	-6.006306e-09	-3.014177e+01	-3.936364e+02
2.850000e-06	-4.448826e-06	-6.140225e-09	-3.083411e+01	-4.022257e+02
2.860000e-06	-4.547274e-06	-6.269859e-09	-3.151644e+01	-4.104297e+02
2.870000e-06	-4.644205e-06	-6.390726e-09	-3.218825e+01	-4.182512e+02
2.880000e-06	-4.739491e-06	-6.501062e-09	-3.284866e+01	-4.256912e+02
2.890000e-06	-4.832998e-06	-6.606422e-09	-3.349674e+01	-4.327531e+02
2.900000e-06	-4.924760e-06	-6.709880e-09	-3.413273e+01	-4.394449e+02
2.910000e-06	-5.014814e-06	-6.809297e-09	-3.475688e+01	-4.457810e+02
2.920000e-06	-5.103089e-06	-6.903065e-09	-3.536870e+01	-4.517825e+02
2.930000e-06	-5.189389e-06	-6.991527e-09	-3.596684e+01	-4.574759e+02
2.940000e-06	-5.273770e-06	-7.074964e-09	-3.655167e+01	-4.628909e+02
