# Temperatura_=_31.45
# Concentracion g/m^3_=_15000.0
# C_Vs_to_Am_M_A/Vsm_=_65563218390.804596
# pendiente_HvsI_1/m_=_3716.3
# ordenada_HvsI_A/m_=_1297.0
# frecuencia_Hz_=_301888.4404574444

Tiempo_(s)	Campo_(V.s)	Magnetizacion_(V.s)	Campo_(kA/m)	Magnetizacion_(A/m)
0.000000e+00	-6.871516e-06	-8.271925e-09	-4.750086e+01	-5.406046e+02
1.000000e-08	-6.868564e-06	-8.269082e-09	-4.748046e+01	-5.404434e+02
2.000000e-08	-6.863393e-06	-8.268647e-09	-4.744471e+01	-5.401669e+02
3.000000e-08	-6.856103e-06	-8.265838e-09	-4.739431e+01	-5.397744e+02
4.000000e-08	-6.846378e-06	-8.257697e-09	-4.732709e+01	-5.392733e+02
5.000000e-08	-6.834136e-06	-8.246546e-09	-4.724246e+01	-5.386780e+02
6.000000e-08	-6.819434e-06	-8.232469e-09	-4.714083e+01	-5.380081e+02
7.000000e-08	-6.802384e-06	-8.221839e-09	-4.702297e+01	-5.372848e+02
8.000000e-08	-6.783202e-06	-8.220957e-09	-4.689037e+01	-5.365268e+02
9.000000e-08	-6.761663e-06	-8.210571e-09	-4.674148e+01	-5.357469e+02
1.000000e-07	-6.737356e-06	-8.200805e-09	-4.657345e+01	-5.349500e+02
1.100000e-07	-6.710204e-06	-8.183511e-09	-4.638576e+01	-5.341327e+02
1.200000e-07	-6.680617e-06	-8.154513e-09	-4.618123e+01	-5.332847e+02
1.300000e-07	-6.649062e-06	-8.127076e-09	-4.596310e+01	-5.323916e+02
1.400000e-07	-6.615637e-06	-8.123263e-09	-4.573204e+01	-5.314378e+02
1.500000e-07	-6.580301e-06	-8.090508e-09	-4.548777e+01	-5.304095e+02
1.600000e-07	-6.542910e-06	-8.077938e-09	-4.522930e+01	-5.292960e+02
1.700000e-07	-6.503426e-06	-8.067513e-09	-4.495636e+01	-5.280899e+02
1.800000e-07	-6.461577e-06	-8.010647e-09	-4.466707e+01	-5.267863e+02
1.900000e-07	-6.417167e-06	-8.005128e-09	-4.436007e+01	-5.253807e+02
2.000000e-07	-6.370433e-06	-7.982641e-09	-4.403701e+01	-5.238681e+02
2.100000e-07	-6.321176e-06	-7.983669e-09	-4.369651e+01	-5.222411e+02
2.200000e-07	-6.269201e-06	-7.985941e-09	-4.333723e+01	-5.204915e+02
2.300000e-07	-6.214711e-06	-7.912520e-09	-4.296055e+01	-5.186110e+02
2.400000e-07	-6.157827e-06	-7.861716e-09	-4.256733e+01	-5.165937e+02
2.500000e-07	-6.098680e-06	-7.832810e-09	-4.215846e+01	-5.144387e+02
2.600000e-07	-6.037411e-06	-7.788358e-09	-4.173492e+01	-5.121513e+02
2.700000e-07	-5.973952e-06	-7.763399e-09	-4.129625e+01	-5.097428e+02
2.800000e-07	-5.908196e-06	-7.736569e-09	-4.084170e+01	-5.072291e+02
2.900000e-07	-5.840191e-06	-7.682473e-09	-4.037160e+01	-5.046271e+02
3.000000e-07	-5.770050e-06	-7.623257e-09	-3.988673e+01	-5.019511e+02
3.100000e-07	-5.697805e-06	-7.608423e-09	-3.938732e+01	-4.992088e+02
3.200000e-07	-5.623322e-06	-7.579710e-09	-3.887245e+01	-4.963997e+02
3.300000e-07	-5.546512e-06	-7.518960e-09	-3.834148e+01	-4.935145e+02
3.400000e-07	-5.467442e-06	-7.474029e-09	-3.779489e+01	-4.905370e+02
3.500000e-07	-5.386292e-06	-7.424358e-09	-3.723393e+01	-4.874484e+02
3.600000e-07	-5.303297e-06	-7.379165e-09	-3.666020e+01	-4.842312e+02
3.700000e-07	-5.218559e-06	-7.331203e-09	-3.607443e+01	-4.808740e+02
3.800000e-07	-5.132061e-06	-7.279403e-09	-3.547649e+01	-4.773735e+02
3.900000e-07	-5.043786e-06	-7.218223e-09	-3.486627e+01	-4.737356e+02
4.000000e-07	-4.953730e-06	-7.149886e-09	-3.424374e+01	-4.699727e+02
4.100000e-07	-4.861944e-06	-7.094358e-09	-3.360926e+01	-4.661003e+02
4.200000e-07	-4.768517e-06	-7.046111e-09	-3.296342e+01	-4.621321e+02
4.300000e-07	-4.673404e-06	-6.983978e-09	-3.230593e+01	-4.580754e+02
4.400000e-07	-4.576558e-06	-6.907505e-09	-3.163646e+01	-4.539286e+02
4.500000e-07	-4.477963e-06	-6.836943e-09	-3.095490e+01	-4.496807e+02
4.600000e-07	-4.377742e-06	-6.772298e-09	-3.026210e+01	-4.453133e+02
4.700000e-07	-4.276055e-06	-6.705781e-09	-2.955916e+01	-4.408041e+02
4.800000e-07	-4.172848e-06	-6.640996e-09	-2.884573e+01	-4.361325e+02
4.900000e-07	-4.068187e-06	-6.570638e-09	-2.812223e+01	-4.312827e+02
5.000000e-07	-3.962039e-06	-6.483701e-09	-2.738846e+01	-4.262476e+02
5.100000e-07	-3.854316e-06	-6.398208e-09	-2.664381e+01	-4.210288e+02
5.200000e-07	-3.745290e-06	-6.320161e-09	-2.589014e+01	-4.156349e+02
5.300000e-07	-3.635075e-06	-6.236065e-09	-2.512825e+01	-4.100784e+02
5.400000e-07	-3.523433e-06	-6.143960e-09	-2.435650e+01	-4.043714e+02
5.500000e-07	-3.410330e-06	-6.051527e-09	-2.357466e+01	-3.985218e+02
5.600000e-07	-3.295778e-06	-5.958708e-09	-2.278279e+01	-3.925314e+02
5.700000e-07	-3.179748e-06	-5.866608e-09	-2.198071e+01	-3.863951e+02
5.800000e-07	-3.062437e-06	-5.776774e-09	-2.116977e+01	-3.801027e+02
5.900000e-07	-2.944047e-06	-5.682297e-09	-2.035137e+01	-3.736412e+02
6.000000e-07	-2.824631e-06	-5.577466e-09	-1.952588e+01	-3.669980e+02
6.100000e-07	-2.704163e-06	-5.465693e-09	-1.869312e+01	-3.601637e+02
6.200000e-07	-2.582782e-06	-5.358751e-09	-1.785405e+01	-3.531323e+02
6.300000e-07	-2.460415e-06	-5.251476e-09	-1.700816e+01	-3.459013e+02
6.400000e-07	-2.336923e-06	-5.135247e-09	-1.615450e+01	-3.384697e+02
6.500000e-07	-2.212551e-06	-5.014373e-09	-1.529474e+01	-3.308351e+02
6.600000e-07	-2.087569e-06	-4.893360e-09	-1.443078e+01	-3.229917e+02
6.700000e-07	-1.961961e-06	-4.772692e-09	-1.356249e+01	-3.149291e+02
6.800000e-07	-1.835677e-06	-4.649673e-09	-1.268952e+01	-3.066327e+02
6.900000e-07	-1.708726e-06	-4.521229e-09	-1.181194e+01	-2.980853e+02
7.000000e-07	-1.581124e-06	-4.384095e-09	-1.092987e+01	-2.892700e+02
7.100000e-07	-1.452919e-06	-4.238855e-09	-1.004362e+01	-2.801730e+02
7.200000e-07	-1.324224e-06	-4.090964e-09	-9.153987e+00	-2.707855e+02
7.300000e-07	-1.195187e-06	-3.943740e-09	-8.261991e+00	-2.611043e+02
7.400000e-07	-1.065891e-06	-3.792358e-09	-7.368206e+00	-2.511302e+02
7.500000e-07	-9.363034e-07	-3.635683e-09	-6.472402e+00	-2.408657e+02
7.600000e-07	-8.063559e-07	-3.473665e-09	-5.574112e+00	-2.303112e+02
7.700000e-07	-6.760619e-07	-3.306577e-09	-4.673426e+00	-2.194624e+02
7.800000e-07	-5.455103e-07	-3.135848e-09	-3.770959e+00	-2.083085e+02
7.900000e-07	-4.147362e-07	-2.960995e-09	-2.866955e+00	-1.968322e+02
8.000000e-07	-2.837408e-07	-2.781480e-09	-1.961420e+00	-1.850123e+02
8.100000e-07	-1.525571e-07	-2.594858e-09	-1.054584e+00	-1.728263e+02
8.200000e-07	-2.126108e-08	-2.403408e-09	-1.469719e-01	-1.602540e+02
8.300000e-07	1.100356e-07	-2.209056e-09	7.606451e-01	-1.472802e+02
8.400000e-07	2.413067e-07	-2.010242e-09	1.668085e+00	-1.338942e+02
8.500000e-07	3.725554e-07	-1.805043e-09	2.575371e+00	-1.200893e+02
8.600000e-07	5.037082e-07	-1.591294e-09	3.481993e+00	-1.058582e+02
8.700000e-07	6.346698e-07	-1.366605e-09	4.387294e+00	-9.118950e+01
8.800000e-07	7.654147e-07	-1.133181e-09	5.291096e+00	-7.606449e+01
8.900000e-07	8.958670e-07	-8.941117e-10	6.192877e+00	-6.045593e+01
9.000000e-07	1.025947e-06	-6.490044e-10	7.092083e+00	-4.433083e+01
9.100000e-07	1.155644e-06	-3.946483e-10	7.988642e+00	-2.765666e+01
9.200000e-07	1.284935e-06	-1.319033e-10	8.882397e+00	-1.041042e+01
9.300000e-07	1.413817e-06	1.361597e-10	9.773322e+00	7.410920e+00
9.400000e-07	1.542258e-06	4.106073e-10	1.066120e+01	2.578087e+01
9.500000e-07	1.670135e-06	6.940079e-10	1.154517e+01	4.463708e+01
9.600000e-07	1.797273e-06	9.860567e-10	1.242404e+01	6.387971e+01
9.700000e-07	1.923671e-06	1.284304e-09	1.329780e+01	8.337557e+01
9.800000e-07	2.049446e-06	1.586049e-09	1.416725e+01	1.029674e+02
9.900000e-07	2.174589e-06	1.887791e-09	1.503232e+01	1.224868e+02
1.000000e-06	2.298984e-06	2.183603e-09	1.589223e+01	1.417692e+02
1.010000e-06	2.422511e-06	2.470175e-09	1.674614e+01	1.606669e+02
1.020000e-06	2.545170e-06	2.747909e-09	1.759405e+01	1.790595e+02
1.030000e-06	2.666874e-06	3.014832e-09	1.843535e+01	1.968595e+02
1.040000e-06	2.787530e-06	3.270032e-09	1.926941e+01	2.140121e+02
1.050000e-06	2.907154e-06	3.516425e-09	2.009634e+01	2.304915e+02
1.060000e-06	3.025694e-06	3.754929e-09	2.091577e+01	2.462934e+02
1.070000e-06	3.143144e-06	3.985053e-09	2.172767e+01	2.614271e+02
1.080000e-06	3.259472e-06	4.204624e-09	2.253181e+01	2.759087e+02
1.090000e-06	3.374492e-06	4.411983e-09	2.332692e+01	2.897553e+02
1.100000e-06	3.488102e-06	4.608778e-09	2.411227e+01	3.029837e+02
1.110000e-06	3.600290e-06	4.799800e-09	2.488779e+01	3.156105e+02
1.120000e-06	3.711155e-06	4.984005e-09	2.565417e+01	3.276535e+02
1.130000e-06	3.820878e-06	5.159514e-09	2.641266e+01	3.391343e+02
1.140000e-06	3.929421e-06	5.326718e-09	2.716299e+01	3.500788e+02
1.150000e-06	4.036656e-06	5.485394e-09	2.790427e+01	3.605175e+02
1.160000e-06	4.142478e-06	5.637628e-09	2.863579e+01	3.704826e+02
1.170000e-06	4.246706e-06	5.783163e-09	2.935628e+01	3.800050e+02
1.180000e-06	4.349331e-06	5.922273e-09	3.006571e+01	3.891109e+02
1.190000e-06	4.450513e-06	6.056036e-09	3.076515e+01	3.978190e+02
1.200000e-06	4.550138e-06	6.183133e-09	3.145382e+01	4.061395e+02
1.210000e-06	4.648067e-06	6.302343e-09	3.213078e+01	4.140760e+02
1.220000e-06	4.744166e-06	6.415465e-09	3.279509e+01	4.216278e+02
1.230000e-06	4.838529e-06	6.523701e-09	3.344739e+01	4.287947e+02
1.240000e-06	4.931352e-06	6.626549e-09	3.408905e+01	4.355811e+02
1.250000e-06	5.022505e-06	6.721988e-09	3.471917e+01	4.419988e+02
1.260000e-06	5.111746e-06	6.812592e-09	3.533607e+01	4.480689e+02
1.270000e-06	5.199052e-06	6.900954e-09	3.593958e+01	4.538204e+02
1.280000e-06	5.284572e-06	6.986360e-09	3.653077e+01	4.592876e+02
1.290000e-06	5.368297e-06	7.065228e-09	3.710953e+01	4.645062e+02
1.300000e-06	5.450064e-06	7.139353e-09	3.767476e+01	4.695087e+02
1.310000e-06	5.529778e-06	7.212046e-09	3.822580e+01	4.743215e+02
1.320000e-06	5.607501e-06	7.281977e-09	3.876308e+01	4.789629e+02
1.330000e-06	5.683182e-06	7.348736e-09	3.928624e+01	4.834422e+02
1.340000e-06	5.756591e-06	7.414268e-09	3.979370e+01	4.877619e+02
1.350000e-06	5.827799e-06	7.478194e-09	4.028594e+01	4.919193e+02
1.360000e-06	5.897019e-06	7.538695e-09	4.076444e+01	4.959092e+02
1.370000e-06	5.964181e-06	7.596188e-09	4.122871e+01	4.997264e+02
1.380000e-06	6.029116e-06	7.649735e-09	4.167758e+01	5.033667e+02
1.390000e-06	6.091888e-06	7.700870e-09	4.211151e+01	5.068273e+02
1.400000e-06	6.152699e-06	7.749902e-09	4.253188e+01	5.101069e+02
1.410000e-06	6.211476e-06	7.796749e-09	4.293819e+01	5.132049e+02
1.420000e-06	6.268002e-06	7.840094e-09	4.332894e+01	5.161210e+02
1.430000e-06	6.322215e-06	7.880001e-09	4.370370e+01	5.188554e+02
1.440000e-06	6.374005e-06	7.917865e-09	4.406170e+01	5.214088e+02
1.450000e-06	6.423152e-06	7.952721e-09	4.440144e+01	5.237835e+02
1.460000e-06	6.469853e-06	7.984944e-09	4.472427e+01	5.259841e+02
1.470000e-06	6.514418e-06	8.014704e-09	4.503234e+01	5.280174e+02
1.480000e-06	6.556766e-06	8.042251e-09	4.532508e+01	5.298924e+02
1.490000e-06	6.596687e-06	8.068484e-09	4.560104e+01	5.316194e+02
1.500000e-06	6.634273e-06	8.093039e-09	4.586087e+01	5.332081e+02
1.510000e-06	6.669657e-06	8.115071e-09	4.610546e+01	5.346666e+02
1.520000e-06	6.702599e-06	8.134205e-09	4.633318e+01	5.360000e+02
1.530000e-06	6.733089e-06	8.149858e-09	4.654395e+01	5.372109e+02
1.540000e-06	6.761371e-06	8.165299e-09	4.673946e+01	5.382994e+02
1.550000e-06	6.787198e-06	8.179799e-09	4.691800e+01	5.392650e+02
1.560000e-06	6.810429e-06	8.190944e-09	4.707858e+01	5.401086e+02
1.570000e-06	6.831327e-06	8.200280e-09	4.722304e+01	5.408335e+02
1.580000e-06	6.849843e-06	8.210184e-09	4.735104e+01	5.414462e+02
1.590000e-06	6.865811e-06	8.219826e-09	4.746142e+01	5.419560e+02
1.600000e-06	6.879227e-06	8.227478e-09	4.755416e+01	5.423735e+02
1.610000e-06	6.889978e-06	8.234124e-09	4.762848e+01	5.427078e+02
1.620000e-06	6.898017e-06	8.239967e-09	4.768406e+01	5.429648e+02
1.630000e-06	6.903598e-06	8.244963e-09	4.772263e+01	5.431450e+02
1.640000e-06	6.906849e-06	8.248200e-09	4.774511e+01	5.432434e+02
1.650000e-06	6.907665e-06	8.248419e-09	4.775075e+01	5.432508e+02
1.660000e-06	6.906119e-06	8.245486e-09	4.774006e+01	5.431561e+02
1.670000e-06	6.902361e-06	8.240929e-09	4.771408e+01	5.429496e+02
1.680000e-06	6.896234e-06	8.235629e-09	4.767173e+01	5.426268e+02
1.690000e-06	6.887775e-06	8.230166e-09	4.761325e+01	5.421899e+02
1.700000e-06	6.877135e-06	8.224622e-09	4.753970e+01	5.416493e+02
1.710000e-06	6.864162e-06	8.219825e-09	4.745002e+01	5.410217e+02
1.720000e-06	6.848786e-06	8.210873e-09	4.734373e+01	5.403279e+02
1.730000e-06	6.831276e-06	8.183171e-09	4.722269e+01	5.395886e+02
1.740000e-06	6.811528e-06	8.170506e-09	4.708618e+01	5.388204e+02
1.750000e-06	6.788635e-06	8.154581e-09	4.692793e+01	5.380333e+02
1.760000e-06	6.762432e-06	8.136455e-09	4.674679e+01	5.372288e+02
1.770000e-06	6.733683e-06	8.141428e-09	4.654806e+01	5.364005e+02
1.780000e-06	6.702882e-06	8.133002e-09	4.633514e+01	5.355361e+02
1.790000e-06	6.670540e-06	8.120163e-09	4.611157e+01	5.346206e+02
1.800000e-06	6.636721e-06	8.144043e-09	4.587779e+01	5.336386e+02
1.810000e-06	6.600477e-06	8.097021e-09	4.562724e+01	5.325774e+02
1.820000e-06	6.561645e-06	8.091540e-09	4.535881e+01	5.314278e+02
1.830000e-06	6.520720e-06	8.106915e-09	4.507590e+01	5.301835e+02
1.840000e-06	6.477639e-06	8.048711e-09	4.477810e+01	5.288399e+02
1.850000e-06	6.432370e-06	8.051875e-09	4.446517e+01	5.273926e+02
1.860000e-06	6.384664e-06	7.996903e-09	4.413539e+01	5.258355e+02
1.870000e-06	6.334567e-06	7.946167e-09	4.378908e+01	5.241610e+02
1.880000e-06	6.282162e-06	7.967875e-09	4.342682e+01	5.223604e+02
1.890000e-06	6.227008e-06	7.952731e-09	4.304556e+01	5.204262e+02
1.900000e-06	6.169396e-06	7.949741e-09	4.264730e+01	5.183541e+02
1.910000e-06	6.109548e-06	7.903747e-09	4.223359e+01	5.161457e+02
1.920000e-06	6.047358e-06	7.825860e-09	4.180369e+01	5.138086e+02
1.930000e-06	5.982971e-06	7.806449e-09	4.135860e+01	5.113564e+02
1.940000e-06	5.916419e-06	7.780314e-09	4.089854e+01	5.088056e+02
1.950000e-06	5.847719e-06	7.751660e-09	4.042364e+01	5.061726e+02
1.960000e-06	5.776621e-06	7.690934e-09	3.993216e+01	5.034696e+02
1.970000e-06	5.703245e-06	7.649475e-09	3.942493e+01	5.007013e+02
1.980000e-06	5.627818e-06	7.607236e-09	3.890353e+01	4.978634e+02
1.990000e-06	5.550128e-06	7.553343e-09	3.836648e+01	4.949436e+02
2.000000e-06	5.470245e-06	7.526655e-09	3.781426e+01	4.919243e+02
2.010000e-06	5.388463e-06	7.469378e-09	3.724893e+01	4.887866e+02
2.020000e-06	5.304920e-06	7.412987e-09	3.667143e+01	4.855149e+02
2.030000e-06	5.219469e-06	7.355262e-09	3.608072e+01	4.821008e+02
2.040000e-06	5.131987e-06	7.315172e-09	3.547599e+01	4.785448e+02
2.050000e-06	5.042675e-06	7.267807e-09	3.485860e+01	4.748555e+02
2.060000e-06	4.951817e-06	7.195073e-09	3.423052e+01	4.710474e+02
2.070000e-06	4.859323e-06	7.136558e-09	3.359113e+01	4.671355e+02
2.080000e-06	4.764958e-06	7.075888e-09	3.293881e+01	4.631317e+02
2.090000e-06	4.668858e-06	7.022941e-09	3.227450e+01	4.590399e+02
2.100000e-06	4.571222e-06	6.958718e-09	3.159958e+01	4.548547e+02
2.110000e-06	4.472135e-06	6.900074e-09	3.091462e+01	4.505619e+02
2.120000e-06	4.371493e-06	6.834497e-09	3.021890e+01	4.461410e+02
2.130000e-06	4.269205e-06	6.749375e-09	2.951182e+01	4.415699e+02
2.140000e-06	4.165265e-06	6.674648e-09	2.879331e+01	4.368293e+02
2.150000e-06	4.059758e-06	6.606096e-09	2.806397e+01	4.319066e+02
2.160000e-06	3.952953e-06	6.532909e-09	2.732565e+01	4.267983e+02
2.170000e-06	3.844800e-06	6.452982e-09	2.657802e+01	4.215089e+02
2.180000e-06	3.735302e-06	6.370995e-09	2.582109e+01	4.160491e+02
2.190000e-06	3.624347e-06	6.286263e-09	2.505409e+01	4.104318e+02
2.200000e-06	3.511979e-06	6.205781e-09	2.427732e+01	4.046676e+02
2.210000e-06	3.398306e-06	6.119734e-09	2.349154e+01	3.987625e+02
2.220000e-06	3.283260e-06	6.026388e-09	2.269625e+01	3.927153e+02
2.230000e-06	3.166804e-06	5.923562e-09	2.189122e+01	3.865187e+02
2.240000e-06	3.049089e-06	5.820884e-09	2.107750e+01	3.801609e+02
2.250000e-06	2.930184e-06	5.722752e-09	2.025554e+01	3.736290e+02
2.260000e-06	2.810027e-06	5.623582e-09	1.942493e+01	3.669112e+02
2.270000e-06	2.688869e-06	5.522569e-09	1.858739e+01	3.599995e+02
2.280000e-06	2.566842e-06	5.418393e-09	1.774386e+01	3.528895e+02
2.290000e-06	2.443982e-06	5.308943e-09	1.689456e+01	3.455794e+02
2.300000e-06	2.320164e-06	5.194019e-09	1.603864e+01	3.380680e+02
2.310000e-06	2.195424e-06	5.080331e-09	1.517635e+01	3.303518e+02
2.320000e-06	2.070037e-06	4.960661e-09	1.430959e+01	3.224234e+02
2.330000e-06	1.944102e-06	4.831354e-09	1.343903e+01	3.142705e+02
2.340000e-06	1.817435e-06	4.696757e-09	1.256342e+01	3.058771e+02
2.350000e-06	1.689927e-06	4.564095e-09	1.168199e+01	2.972260e+02
2.360000e-06	1.561767e-06	4.430981e-09	1.079605e+01	2.883010e+02
2.370000e-06	1.433159e-06	4.293175e-09	9.907027e+00	2.790901e+02
2.380000e-06	1.304178e-06	4.153185e-09	9.015414e+00	2.695869e+02
2.390000e-06	1.174818e-06	4.006836e-09	8.121187e+00	2.597899e+02
2.400000e-06	1.045081e-06	3.852861e-09	7.224349e+00	2.497010e+02
2.410000e-06	9.150376e-07	3.696454e-09	6.325398e+00	2.393223e+02
2.420000e-06	7.847705e-07	3.537323e-09	5.424898e+00	2.286526e+02
2.430000e-06	6.543438e-07	3.369956e-09	4.523295e+00	2.176852e+02
2.440000e-06	5.237573e-07	3.193927e-09	3.620587e+00	2.064065e+02
2.450000e-06	3.929841e-07	3.012287e-09	2.716589e+00	1.947975e+02
2.460000e-06	2.620252e-07	2.828519e-09	1.811306e+00	1.828359e+02
2.470000e-06	1.309438e-07	2.639608e-09	9.051779e-01	1.704999e+02
2.480000e-06	-1.614173e-10	2.444146e-09	-1.115832e-03	1.577710e+02
2.490000e-06	-1.312878e-07	2.245986e-09	-9.075554e-01	1.446358e+02
2.500000e-06	-2.624059e-07	2.038729e-09	-1.813938e+00	1.310855e+02
2.510000e-06	-3.933999e-07	1.820122e-09	-2.719463e+00	1.171137e+02
2.520000e-06	-5.242823e-07	1.596382e-09	-3.624216e+00	1.027120e+02
2.530000e-06	-6.550492e-07	1.369506e-09	-4.528171e+00	8.786632e+01
2.540000e-06	-7.856251e-07	1.138114e-09	-5.430806e+00	7.255456e+01
2.550000e-06	-9.159659e-07	8.967915e-10	-6.331815e+00	5.674672e+01
2.560000e-06	-1.046063e-06	6.453586e-10	-7.231139e+00	4.040906e+01
2.570000e-06	-1.175869e-06	3.863364e-10	-8.128452e+00	2.351157e+01
2.580000e-06	-1.305291e-06	1.186241e-10	-9.023108e+00	6.037869e+00
2.590000e-06	-1.434322e-06	-1.588187e-10	-9.915066e+00	-1.200448e+01
2.600000e-06	-1.562909e-06	-4.439538e-10	-1.080395e+01	-3.057544e+01
2.610000e-06	-1.690908e-06	-7.348757e-10	-1.168877e+01	-4.959780e+01
2.620000e-06	-1.818117e-06	-1.031844e-09	-1.256813e+01	-6.895783e+01
2.630000e-06	-1.944506e-06	-1.330681e-09	-1.344183e+01	-8.851150e+01
2.640000e-06	-2.070181e-06	-1.628040e-09	-1.431058e+01	-1.080955e+02
2.650000e-06	-2.195142e-06	-1.923261e-09	-1.517440e+01	-1.275412e+02
2.660000e-06	-2.319269e-06	-2.218126e-09	-1.603246e+01	-1.466892e+02
2.670000e-06	-2.442408e-06	-2.506938e-09	-1.688368e+01	-1.654015e+02
2.680000e-06	-2.564591e-06	-2.784212e-09	-1.772830e+01	-1.835704e+02
2.690000e-06	-2.685851e-06	-3.052802e-09	-1.856653e+01	-2.011213e+02
2.700000e-06	-2.806112e-06	-3.311692e-09	-1.939786e+01	-2.180115e+02
2.710000e-06	-2.925331e-06	-3.561581e-09	-2.022199e+01	-2.342248e+02
2.720000e-06	-3.043454e-06	-3.801950e-09	-2.103854e+01	-2.497630e+02
2.730000e-06	-3.160323e-06	-4.032077e-09	-2.184642e+01	-2.646389e+02
2.740000e-06	-3.275812e-06	-4.253407e-09	-2.264477e+01	-2.788694e+02
2.750000e-06	-3.390009e-06	-4.465456e-09	-2.343418e+01	-2.924716e+02
2.760000e-06	-3.502910e-06	-4.667206e-09	-2.421463e+01	-3.054622e+02
2.770000e-06	-3.614415e-06	-4.856443e-09	-2.498544e+01	-3.178578e+02
2.780000e-06	-3.724550e-06	-5.035470e-09	-2.574677e+01	-3.296775e+02
2.790000e-06	-3.833440e-06	-5.205629e-09	-2.649950e+01	-3.409447e+02
2.800000e-06	-3.941138e-06	-5.367953e-09	-2.724398e+01	-3.516871e+02
2.810000e-06	-4.047586e-06	-5.524114e-09	-2.797983e+01	-3.619364e+02
2.820000e-06	-4.152670e-06	-5.673794e-09	-2.870624e+01	-3.717245e+02
2.830000e-06	-4.256206e-06	-5.816496e-09	-2.942195e+01	-3.810810e+02
2.840000e-06	-4.358092e-06	-5.952945e-09	-3.012626e+01	-3.900293e+02
2.850000e-06	-4.458291e-06	-6.085387e-09	-3.081891e+01	-3.985847e+02
2.860000e-06	-4.556956e-06	-6.212604e-09	-3.150096e+01	-4.067547e+02
2.870000e-06	-4.654188e-06	-6.332949e-09	-3.217309e+01	-4.145407e+02
2.880000e-06	-4.749809e-06	-6.446160e-09	-3.283410e+01	-4.219416e+02
2.890000e-06	-4.843629e-06	-6.552465e-09	-3.348265e+01	-4.289585e+02
2.900000e-06	-4.935674e-06	-6.652654e-09	-3.411893e+01	-4.355986e+02
2.910000e-06	-5.026010e-06	-6.748250e-09	-3.474339e+01	-4.418772e+02
2.920000e-06	-5.114532e-06	-6.840381e-09	-3.535532e+01	-4.478188e+02
2.930000e-06	-5.201154e-06	-6.927763e-09	-3.595412e+01	-4.534548e+02
2.940000e-06	-5.285788e-06	-7.011006e-09	-3.653917e+01	-4.588205e+02
