# Temperatura_=_70.18
# Concentracion g/m^3_=_15000.0
# C_Vs_to_Am_M_A/Vsm_=_65563218390.804596
# pendiente_HvsI_1/m_=_3716.3
# ordenada_HvsI_A/m_=_1297.0
# frecuencia_Hz_=_301901.0116851527

Tiempo_(s)	Campo_(V.s)	Magnetizacion_(V.s)	Campo_(kA/m)	Magnetizacion_(A/m)
0.000000e+00	-6.877769e-06	-9.997891e-09	-4.750047e+01	-6.537731e+02
1.000000e-08	-6.875233e-06	-9.994198e-09	-4.748296e+01	-6.535432e+02
2.000000e-08	-6.870427e-06	-9.991434e-09	-4.744976e+01	-6.532008e+02
3.000000e-08	-6.863500e-06	-9.987067e-09	-4.740193e+01	-6.527478e+02
4.000000e-08	-6.854296e-06	-9.981278e-09	-4.733835e+01	-6.521846e+02
5.000000e-08	-6.842575e-06	-9.971840e-09	-4.725741e+01	-6.515095e+02
6.000000e-08	-6.828305e-06	-9.958597e-09	-4.715885e+01	-6.507196e+02
7.000000e-08	-6.811661e-06	-9.946178e-09	-4.704390e+01	-6.498123e+02
8.000000e-08	-6.792842e-06	-9.929516e-09	-4.691393e+01	-6.487879e+02
9.000000e-08	-6.771711e-06	-9.910328e-09	-4.676800e+01	-6.476519e+02
1.000000e-07	-6.747861e-06	-9.912695e-09	-4.660328e+01	-6.464167e+02
1.100000e-07	-6.721164e-06	-9.889718e-09	-4.641890e+01	-6.451013e+02
1.200000e-07	-6.691992e-06	-9.846950e-09	-4.621743e+01	-6.437296e+02
1.300000e-07	-6.660776e-06	-9.831266e-09	-4.600184e+01	-6.423261e+02
1.400000e-07	-6.627598e-06	-9.806890e-09	-4.577270e+01	-6.409104e+02
1.500000e-07	-6.592472e-06	-9.724124e-09	-4.553010e+01	-6.394916e+02
1.600000e-07	-6.555374e-06	-9.754597e-09	-4.527389e+01	-6.380638e+02
1.700000e-07	-6.516258e-06	-9.719446e-09	-4.500374e+01	-6.366038e+02
1.800000e-07	-6.474869e-06	-9.634892e-09	-4.471789e+01	-6.350726e+02
1.900000e-07	-6.430887e-06	-9.686393e-09	-4.441413e+01	-6.334200e+02
2.000000e-07	-6.384531e-06	-9.648504e-09	-4.409398e+01	-6.315920e+02
2.100000e-07	-6.335785e-06	-9.651075e-09	-4.375732e+01	-6.295399e+02
2.200000e-07	-6.284374e-06	-9.636604e-09	-4.340226e+01	-6.272286e+02
2.300000e-07	-6.230354e-06	-9.529786e-09	-4.302918e+01	-6.246427e+02
2.400000e-07	-6.173876e-06	-9.458441e-09	-4.263912e+01	-6.217891e+02
2.500000e-07	-6.115128e-06	-9.394765e-09	-4.223338e+01	-6.186949e+02
2.600000e-07	-6.054150e-06	-9.361407e-09	-4.181225e+01	-6.154018e+02
2.700000e-07	-5.990957e-06	-9.334018e-09	-4.137581e+01	-6.119571e+02
2.800000e-07	-5.925515e-06	-9.273533e-09	-4.092385e+01	-6.084048e+02
2.900000e-07	-5.857789e-06	-9.202731e-09	-4.045611e+01	-6.047765e+02
3.000000e-07	-5.787958e-06	-9.131659e-09	-3.997383e+01	-6.010868e+02
3.100000e-07	-5.716002e-06	-9.109162e-09	-3.947687e+01	-5.973316e+02
3.200000e-07	-5.641737e-06	-9.056519e-09	-3.896397e+01	-5.934912e+02
3.300000e-07	-5.565186e-06	-8.990788e-09	-3.843528e+01	-5.895358e+02
3.400000e-07	-5.486464e-06	-8.932579e-09	-3.789159e+01	-5.854337e+02
3.500000e-07	-5.405628e-06	-8.854617e-09	-3.733331e+01	-5.811585e+02
3.600000e-07	-5.322880e-06	-8.797003e-09	-3.676182e+01	-5.766944e+02
3.700000e-07	-5.238404e-06	-8.728400e-09	-3.617839e+01	-5.720392e+02
3.800000e-07	-5.152198e-06	-8.653876e-09	-3.558302e+01	-5.672024e+02
3.900000e-07	-5.064208e-06	-8.561275e-09	-3.497533e+01	-5.622019e+02
4.000000e-07	-4.974370e-06	-8.480236e-09	-3.435488e+01	-5.570579e+02
4.100000e-07	-4.882730e-06	-8.416368e-09	-3.372198e+01	-5.517876e+02
4.200000e-07	-4.789445e-06	-8.341795e-09	-3.307772e+01	-5.464001e+02
4.300000e-07	-4.694557e-06	-8.249516e-09	-3.242239e+01	-5.408953e+02
4.400000e-07	-4.597908e-06	-8.143107e-09	-3.175489e+01	-5.352636e+02
4.500000e-07	-4.499534e-06	-8.047485e-09	-3.107548e+01	-5.294894e+02
4.600000e-07	-4.399596e-06	-7.959378e-09	-3.038528e+01	-5.235551e+02
4.700000e-07	-4.298164e-06	-7.879142e-09	-2.968474e+01	-5.174455e+02
4.800000e-07	-4.195290e-06	-7.794600e-09	-2.897426e+01	-5.111506e+02
4.900000e-07	-4.090826e-06	-7.692863e-09	-2.825279e+01	-5.046674e+02
5.000000e-07	-3.984771e-06	-7.577676e-09	-2.752033e+01	-4.979989e+02
5.100000e-07	-3.877240e-06	-7.471229e-09	-2.677768e+01	-4.911516e+02
5.200000e-07	-3.768366e-06	-7.371807e-09	-2.602576e+01	-4.841327e+02
5.300000e-07	-3.658274e-06	-7.261810e-09	-2.526542e+01	-4.769472e+02
5.400000e-07	-3.546798e-06	-7.142039e-09	-2.449552e+01	-4.695954e+02
5.500000e-07	-3.433731e-06	-7.020080e-09	-2.371464e+01	-4.620729e+02
5.600000e-07	-3.319153e-06	-6.901356e-09	-2.292332e+01	-4.543715e+02
5.700000e-07	-3.203207e-06	-6.784968e-09	-2.212256e+01	-4.464811e+02
5.800000e-07	-3.085994e-06	-6.668414e-09	-2.131304e+01	-4.383918e+02
5.900000e-07	-2.967723e-06	-6.541150e-09	-2.049621e+01	-4.300962e+02
6.000000e-07	-2.848437e-06	-6.406425e-09	-1.967238e+01	-4.215895e+02
6.100000e-07	-2.728053e-06	-6.270183e-09	-1.884097e+01	-4.128695e+02
6.200000e-07	-2.606629e-06	-6.136350e-09	-1.800236e+01	-4.039347e+02
6.300000e-07	-2.484234e-06	-5.996228e-09	-1.715706e+01	-3.947831e+02
6.400000e-07	-2.360883e-06	-5.844431e-09	-1.630515e+01	-3.854100e+02
6.500000e-07	-2.236654e-06	-5.690958e-09	-1.544718e+01	-3.758079e+02
6.600000e-07	-2.111655e-06	-5.539476e-09	-1.458388e+01	-3.659664e+02
6.700000e-07	-1.985985e-06	-5.389982e-09	-1.371596e+01	-3.558742e+02
6.800000e-07	-1.859697e-06	-5.236422e-09	-1.284377e+01	-3.455203e+02
6.900000e-07	-1.732789e-06	-5.076486e-09	-1.196730e+01	-3.348965e+02
7.000000e-07	-1.605271e-06	-4.907605e-09	-1.108661e+01	-3.239975e+02
7.100000e-07	-1.477206e-06	-4.732961e-09	-1.020214e+01	-3.128209e+02
7.200000e-07	-1.348607e-06	-4.558093e-09	-9.313991e+00	-3.013653e+02
7.300000e-07	-1.219470e-06	-4.380803e-09	-8.422117e+00	-2.896278e+02
7.400000e-07	-1.089918e-06	-4.197549e-09	-7.527386e+00	-2.776012e+02
7.500000e-07	-9.600412e-07	-4.007843e-09	-6.630407e+00	-2.652722e+02
7.600000e-07	-8.298391e-07	-3.811920e-09	-5.731183e+00	-2.526214e+02
7.700000e-07	-6.993604e-07	-3.611983e-09	-4.830047e+00	-2.396242e+02
7.800000e-07	-5.686371e-07	-3.409479e-09	-3.927223e+00	-2.262542e+02
7.900000e-07	-4.377130e-07	-3.202940e-09	-3.023011e+00	-2.124864e+02
8.000000e-07	-3.066644e-07	-2.990073e-09	-2.117940e+00	-1.983009e+02
8.100000e-07	-1.754981e-07	-2.766943e-09	-1.212056e+00	-1.836845e+02
8.200000e-07	-4.420248e-08	-2.535895e-09	-3.052790e-01	-1.686299e+02
8.300000e-07	8.715721e-08	-2.299708e-09	6.019406e-01	-1.531329e+02
8.400000e-07	2.185071e-07	-2.057702e-09	1.509092e+00	-1.371876e+02
8.500000e-07	3.497950e-07	-1.808356e-09	2.415817e+00	-1.207803e+02
8.600000e-07	4.809787e-07	-1.553508e-09	3.321820e+00	-1.038852e+02
8.700000e-07	6.120521e-07	-1.292518e-09	4.227063e+00	-8.646248e+01
8.800000e-07	7.429586e-07	-1.020751e-09	5.131152e+00	-6.845966e+01
8.900000e-07	8.735964e-07	-7.377216e-10	6.033387e+00	-4.981838e+01
9.000000e-07	1.003922e-06	-4.420402e-10	6.933468e+00	-3.048426e+01
9.100000e-07	1.133909e-06	-1.333301e-10	7.831207e+00	-1.041949e+01
9.200000e-07	1.263501e-06	1.861580e-10	8.726214e+00	1.038436e+01
9.300000e-07	1.392629e-06	5.138822e-10	9.618023e+00	3.189574e+01
9.400000e-07	1.521227e-06	8.478619e-10	1.050617e+01	5.403687e+01
9.500000e-07	1.649245e-06	1.189249e-09	1.139031e+01	7.668326e+01
9.600000e-07	1.776614e-06	1.536489e-09	1.226997e+01	9.966956e+01
9.700000e-07	1.903338e-06	1.886334e-09	1.314517e+01	1.228010e+02
9.800000e-07	2.029408e-06	2.235827e-09	1.401586e+01	1.458688e+02
9.900000e-07	2.154779e-06	2.583471e-09	1.488172e+01	1.686668e+02
1.000000e-06	2.279443e-06	2.924698e-09	1.574270e+01	1.910076e+02
1.010000e-06	2.403329e-06	3.256266e-09	1.659830e+01	2.127354e+02
1.020000e-06	2.526360e-06	3.577102e-09	1.744799e+01	2.337334e+02
1.030000e-06	2.648386e-06	3.884783e-09	1.829076e+01	2.539272e+02
1.040000e-06	2.769302e-06	4.179717e-09	1.912585e+01	2.732813e+02
1.050000e-06	2.889123e-06	4.461111e-09	1.995337e+01	2.917934e+02
1.060000e-06	3.007927e-06	4.728603e-09	2.077388e+01	3.094853e+02
1.070000e-06	3.125741e-06	4.983909e-09	2.158755e+01	3.263933e+02
1.080000e-06	3.242424e-06	5.227310e-09	2.239341e+01	3.425596e+02
1.090000e-06	3.357828e-06	5.460677e-09	2.319043e+01	3.580261e+02
1.100000e-06	3.471830e-06	5.684966e-09	2.397777e+01	3.728302e+02
1.110000e-06	3.584409e-06	5.900956e-09	2.475529e+01	3.870031e+02
1.120000e-06	3.695669e-06	6.108442e-09	2.552369e+01	4.005709e+02
1.130000e-06	3.805671e-06	6.304908e-09	2.628340e+01	4.135557e+02
1.140000e-06	3.914467e-06	6.493370e-09	2.703479e+01	4.259785e+02
1.150000e-06	4.022094e-06	6.674495e-09	2.777810e+01	4.378611e+02
1.160000e-06	4.128262e-06	6.846943e-09	2.851134e+01	4.492271e+02
1.170000e-06	4.232804e-06	7.011481e-09	2.923334e+01	4.601025e+02
1.180000e-06	4.335799e-06	7.169086e-09	2.994467e+01	4.705150e+02
1.190000e-06	4.437280e-06	7.321549e-09	3.064553e+01	4.804923e+02
1.200000e-06	4.537282e-06	7.468328e-09	3.133619e+01	4.900607e+02
1.210000e-06	4.635568e-06	7.608754e-09	3.201499e+01	4.992427e+02
1.220000e-06	4.732001e-06	7.744119e-09	3.268099e+01	5.080561e+02
1.230000e-06	4.826747e-06	7.874339e-09	3.333534e+01	5.165130e+02
1.240000e-06	4.919884e-06	7.999455e-09	3.397858e+01	5.246199e+02
1.250000e-06	5.011396e-06	8.117447e-09	3.461060e+01	5.323793e+02
1.260000e-06	5.101084e-06	8.229185e-09	3.523001e+01	5.397912e+02
1.270000e-06	5.188842e-06	8.336762e-09	3.583611e+01	5.468563e+02
1.280000e-06	5.274753e-06	8.439736e-09	3.642944e+01	5.535779e+02
1.290000e-06	5.358896e-06	8.536610e-09	3.701056e+01	5.599647e+02
1.300000e-06	5.441151e-06	8.627964e-09	3.757864e+01	5.660317e+02
1.310000e-06	5.521316e-06	8.714491e-09	3.813229e+01	5.718004e+02
1.320000e-06	5.599479e-06	8.796561e-09	3.867212e+01	5.772976e+02
1.330000e-06	5.675617e-06	8.875945e-09	3.919796e+01	5.825527e+02
1.340000e-06	5.749485e-06	8.953630e-09	3.970811e+01	5.875945e+02
1.350000e-06	5.821140e-06	9.029348e-09	4.020299e+01	5.924478e+02
1.360000e-06	5.890770e-06	9.100035e-09	4.068388e+01	5.971306e+02
1.370000e-06	5.958345e-06	9.166167e-09	4.115058e+01	6.016525e+02
1.380000e-06	6.023698e-06	9.229646e-09	4.160193e+01	6.060142e+02
1.390000e-06	6.086863e-06	9.292205e-09	4.203817e+01	6.102091e+02
1.400000e-06	6.148024e-06	9.353462e-09	4.246057e+01	6.142260e+02
1.410000e-06	6.207155e-06	9.412561e-09	4.286896e+01	6.180523e+02
1.420000e-06	6.264084e-06	9.468976e-09	4.326213e+01	6.216774e+02
1.430000e-06	6.318763e-06	9.520741e-09	4.363977e+01	6.250950e+02
1.440000e-06	6.371074e-06	9.568081e-09	4.400105e+01	6.283046e+02
1.450000e-06	6.420705e-06	9.613124e-09	4.434382e+01	6.313114e+02
1.460000e-06	6.467822e-06	9.656484e-09	4.466922e+01	6.341242e+02
1.470000e-06	6.512778e-06	9.695905e-09	4.497971e+01	6.367539e+02
1.480000e-06	6.555574e-06	9.732177e-09	4.527527e+01	6.392104e+02
1.490000e-06	6.595915e-06	9.767994e-09	4.555388e+01	6.415009e+02
1.500000e-06	6.633828e-06	9.802820e-09	4.581573e+01	6.436293e+02
1.510000e-06	6.669596e-06	9.832551e-09	4.606275e+01	6.455957e+02
1.520000e-06	6.702979e-06	9.857746e-09	4.629331e+01	6.473980e+02
1.530000e-06	6.733863e-06	9.879765e-09	4.650660e+01	6.490338e+02
1.540000e-06	6.762539e-06	9.899407e-09	4.670465e+01	6.505017e+02
1.550000e-06	6.788859e-06	9.916736e-09	4.688642e+01	6.518033e+02
1.560000e-06	6.812550e-06	9.931455e-09	4.705005e+01	6.529429e+02
1.570000e-06	6.833808e-06	9.945465e-09	4.719686e+01	6.539275e+02
1.580000e-06	6.852770e-06	9.959249e-09	4.732782e+01	6.547654e+02
1.590000e-06	6.869213e-06	9.971280e-09	4.744138e+01	6.554651e+02
1.600000e-06	6.883070e-06	9.980743e-09	4.753708e+01	6.560334e+02
1.610000e-06	6.894319e-06	9.988099e-09	4.761477e+01	6.564754e+02
1.620000e-06	6.902875e-06	9.993293e-09	4.767386e+01	6.567939e+02
1.630000e-06	6.908953e-06	9.996007e-09	4.771584e+01	6.569905e+02
1.640000e-06	6.912725e-06	9.997155e-09	4.774189e+01	6.570661e+02
1.650000e-06	6.914008e-06	9.996417e-09	4.775075e+01	6.570222e+02
1.660000e-06	6.912817e-06	9.995073e-09	4.774253e+01	6.568613e+02
1.670000e-06	6.909445e-06	9.990594e-09	4.771924e+01	6.565861e+02
1.680000e-06	6.903802e-06	9.983287e-09	4.768026e+01	6.561993e+02
1.690000e-06	6.895792e-06	9.975675e-09	4.762494e+01	6.557023e+02
1.700000e-06	6.885552e-06	9.967382e-09	4.755422e+01	6.550947e+02
1.710000e-06	6.872985e-06	9.958214e-09	4.746743e+01	6.543741e+02
1.720000e-06	6.857984e-06	9.943092e-09	4.736383e+01	6.535375e+02
1.730000e-06	6.840834e-06	9.925352e-09	4.724538e+01	6.525832e+02
1.740000e-06	6.821531e-06	9.911505e-09	4.711207e+01	6.515132e+02
1.750000e-06	6.799269e-06	9.868808e-09	4.695832e+01	6.503356e+02
1.760000e-06	6.773652e-06	9.849892e-09	4.678140e+01	6.490655e+02
1.770000e-06	6.745320e-06	9.847323e-09	4.658573e+01	6.477243e+02
1.780000e-06	6.714848e-06	9.804105e-09	4.637528e+01	6.463365e+02
1.790000e-06	6.682716e-06	9.831672e-09	4.615336e+01	6.449256e+02
1.800000e-06	6.649146e-06	9.841751e-09	4.592152e+01	6.435076e+02
1.810000e-06	6.613370e-06	9.749482e-09	4.567443e+01	6.420861e+02
1.820000e-06	6.575001e-06	9.805314e-09	4.540944e+01	6.406486e+02
1.830000e-06	6.534436e-06	9.765088e-09	4.512928e+01	6.391653e+02
1.840000e-06	6.491679e-06	9.683893e-09	4.483399e+01	6.375920e+02
1.850000e-06	6.446690e-06	9.696603e-09	4.452328e+01	6.358761e+02
1.860000e-06	6.399328e-06	9.581157e-09	4.419618e+01	6.339645e+02
1.870000e-06	6.349544e-06	9.585539e-09	4.385235e+01	6.318130e+02
1.880000e-06	6.297491e-06	9.590401e-09	4.349285e+01	6.293937e+02
1.890000e-06	6.242819e-06	9.577518e-09	4.311527e+01	6.266998e+02
1.900000e-06	6.185628e-06	9.588628e-09	4.272028e+01	6.237467e+02
1.910000e-06	6.126166e-06	9.450614e-09	4.230962e+01	6.205681e+02
1.920000e-06	6.064306e-06	9.395522e-09	4.188238e+01	6.172091e+02
1.930000e-06	6.000200e-06	9.358717e-09	4.143965e+01	6.137166e+02
1.940000e-06	5.933977e-06	9.314280e-09	4.098229e+01	6.101308e+02
1.950000e-06	5.865623e-06	9.294571e-09	4.051021e+01	6.064769e+02
1.960000e-06	5.794925e-06	9.197120e-09	4.002194e+01	6.027622e+02
1.970000e-06	5.721914e-06	9.156646e-09	3.951770e+01	5.989758e+02
1.980000e-06	5.646789e-06	9.060839e-09	3.899886e+01	5.950933e+02
1.990000e-06	5.569431e-06	9.006816e-09	3.846459e+01	5.910832e+02
2.000000e-06	5.489902e-06	8.968501e-09	3.791534e+01	5.869149e+02
2.010000e-06	5.408375e-06	8.875380e-09	3.735228e+01	5.825659e+02
2.020000e-06	5.325020e-06	8.815766e-09	3.677660e+01	5.780256e+02
2.030000e-06	5.239790e-06	8.731600e-09	3.618797e+01	5.732965e+02
2.040000e-06	5.152601e-06	8.680700e-09	3.558581e+01	5.683923e+02
2.050000e-06	5.063588e-06	8.589067e-09	3.497105e+01	5.633323e+02
2.060000e-06	4.972978e-06	8.502588e-09	3.434526e+01	5.581362e+02
2.070000e-06	4.880788e-06	8.431788e-09	3.370857e+01	5.528185e+02
2.080000e-06	4.786741e-06	8.348554e-09	3.305904e+01	5.473848e+02
2.090000e-06	4.690873e-06	8.282669e-09	3.239694e+01	5.418309e+02
2.100000e-06	4.593378e-06	8.199341e-09	3.172360e+01	5.361445e+02
2.110000e-06	4.494400e-06	8.118889e-09	3.104002e+01	5.303087e+02
2.120000e-06	4.393859e-06	8.003852e-09	3.034565e+01	5.243064e+02
2.130000e-06	4.291666e-06	7.892838e-09	2.963986e+01	5.181240e+02
2.140000e-06	4.187923e-06	7.795412e-09	2.892338e+01	5.117544e+02
2.150000e-06	4.082676e-06	7.708951e-09	2.819650e+01	5.051970e+02
2.160000e-06	3.976065e-06	7.617965e-09	2.746020e+01	4.984565e+02
2.170000e-06	3.868140e-06	7.512929e-09	2.671484e+01	4.915403e+02
2.180000e-06	3.758774e-06	7.401834e-09	2.595952e+01	4.844549e+02
2.190000e-06	3.647909e-06	7.285025e-09	2.519384e+01	4.772035e+02
2.200000e-06	3.535662e-06	7.182817e-09	2.441862e+01	4.697846e+02
2.210000e-06	3.422069e-06	7.072795e-09	2.363410e+01	4.621922e+02
2.220000e-06	3.307143e-06	6.952858e-09	2.284038e+01	4.544170e+02
2.230000e-06	3.190802e-06	6.820290e-09	2.203688e+01	4.464488e+02
2.240000e-06	3.073012e-06	6.691457e-09	2.122338e+01	4.382785e+02
2.250000e-06	2.954075e-06	6.564194e-09	2.040196e+01	4.298996e+02
2.260000e-06	2.834062e-06	6.436781e-09	1.957310e+01	4.213085e+02
2.270000e-06	2.712923e-06	6.308836e-09	1.873647e+01	4.125035e+02
2.280000e-06	2.590816e-06	6.176350e-09	1.789315e+01	4.034831e+02
2.290000e-06	2.467918e-06	6.038431e-09	1.704438e+01	3.942445e+02
2.300000e-06	2.344316e-06	5.897372e-09	1.619073e+01	3.847817e+02
2.310000e-06	2.219895e-06	5.756454e-09	1.533143e+01	3.750861e+02
2.320000e-06	2.094530e-06	5.603871e-09	1.446561e+01	3.651468e+02
2.330000e-06	1.968360e-06	5.439295e-09	1.359423e+01	3.549522e+02
2.340000e-06	1.841518e-06	5.270897e-09	1.271822e+01	3.444923e+02
2.350000e-06	1.714089e-06	5.108799e-09	1.183814e+01	3.337601e+02
2.360000e-06	1.586093e-06	4.947194e-09	1.095415e+01	3.227514e+02
2.370000e-06	1.457547e-06	4.780946e-09	1.006637e+01	3.114647e+02
2.380000e-06	1.328557e-06	4.606965e-09	9.175519e+00	2.998981e+02
2.390000e-06	1.199156e-06	4.423942e-09	8.281823e+00	2.880474e+02
2.400000e-06	1.069398e-06	4.236182e-09	7.385664e+00	2.759032e+02
2.410000e-06	9.392633e-07	4.048285e-09	6.486907e+00	2.634497e+02
2.420000e-06	8.087566e-07	3.857762e-09	5.585578e+00	2.506651e+02
2.430000e-06	6.780830e-07	3.657122e-09	4.683097e+00	2.375238e+02
2.440000e-06	5.473289e-07	3.446444e-09	3.780060e+00	2.239995e+02
2.450000e-06	4.163792e-07	3.229025e-09	2.875672e+00	2.100689e+02
2.460000e-06	2.852473e-07	3.008367e-09	1.970026e+00	1.957146e+02
2.470000e-06	1.540061e-07	2.783645e-09	1.063624e+00	1.809259e+02
2.480000e-06	2.267452e-08	2.553319e-09	1.565988e-01	1.656972e+02
2.490000e-06	-1.086195e-07	2.316915e-09	-7.501675e-01	1.500243e+02
2.500000e-06	-2.398684e-07	2.069706e-09	-1.656621e+00	1.338990e+02
2.510000e-06	-3.710907e-07	1.812666e-09	-2.562892e+00	1.173031e+02
2.520000e-06	-5.022273e-07	1.549763e-09	-3.468572e+00	1.002056e+02
2.530000e-06	-6.332330e-07	1.279323e-09	-4.373346e+00	8.256092e+01
2.540000e-06	-7.640402e-07	9.998860e-10	-5.276750e+00	6.431352e+01
2.550000e-06	-8.946186e-07	7.090350e-10	-6.178574e+00	4.540515e+01
2.560000e-06	-1.024908e-06	4.088321e-10	-7.078404e+00	2.578638e+01
2.570000e-06	-1.154890e-06	1.017053e-10	-7.976107e+00	5.429487e+00
2.580000e-06	-1.284540e-06	-2.169278e-10	-8.871520e+00	-1.565933e+01
2.590000e-06	-1.413742e-06	-5.504680e-10	-9.763833e+00	-3.743080e+01
2.600000e-06	-1.542426e-06	-8.939978e-10	-1.065258e+01	-5.978848e+01
2.610000e-06	-1.670532e-06	-1.245454e-09	-1.153732e+01	-8.259082e+01
2.620000e-06	-1.797997e-06	-1.600926e-09	-1.241764e+01	-1.056593e+02
2.630000e-06	-1.924820e-06	-1.955788e-09	-1.329353e+01	-1.287916e+02
2.640000e-06	-2.050914e-06	-2.307686e-09	-1.416439e+01	-1.517780e+02
2.650000e-06	-2.176149e-06	-2.654493e-09	-1.502931e+01	-1.744180e+02
2.660000e-06	-2.300486e-06	-2.994394e-09	-1.588802e+01	-1.965353e+02
2.670000e-06	-2.423853e-06	-3.320891e-09	-1.674005e+01	-2.179887e+02
2.680000e-06	-2.546266e-06	-3.631858e-09	-1.758548e+01	-2.386782e+02
2.690000e-06	-2.667735e-06	-3.932033e-09	-1.842439e+01	-2.585450e+02
2.700000e-06	-2.788267e-06	-4.224185e-09	-1.925682e+01	-2.775679e+02
2.710000e-06	-2.907850e-06	-4.506363e-09	-2.008271e+01	-2.957550e+02
2.720000e-06	-3.026306e-06	-4.775747e-09	-2.090081e+01	-3.131348e+02
2.730000e-06	-3.143522e-06	-5.030079e-09	-2.171035e+01	-3.297470e+02
2.740000e-06	-3.259457e-06	-5.272644e-09	-2.251104e+01	-3.456344e+02
2.750000e-06	-3.374094e-06	-5.505165e-09	-2.330277e+01	-3.608373e+02
2.760000e-06	-3.487375e-06	-5.728698e-09	-2.408513e+01	-3.753908e+02
2.770000e-06	-3.599228e-06	-5.941068e-09	-2.485763e+01	-3.893239e+02
2.780000e-06	-3.709693e-06	-6.144276e-09	-2.562054e+01	-4.026608e+02
2.790000e-06	-3.818871e-06	-6.341664e-09	-2.637456e+01	-4.154231e+02
2.800000e-06	-3.926874e-06	-6.532370e-09	-2.712048e+01	-4.276318e+02
2.810000e-06	-4.033658e-06	-6.714199e-09	-2.785796e+01	-4.393093e+02
2.820000e-06	-4.139011e-06	-6.885040e-09	-2.858557e+01	-4.504801e+02
2.830000e-06	-4.242884e-06	-7.046294e-09	-2.930296e+01	-4.611710e+02
2.840000e-06	-4.345146e-06	-7.199844e-09	-3.000922e+01	-4.714100e+02
2.850000e-06	-4.445740e-06	-7.347453e-09	-3.070396e+01	-4.812245e+02
2.860000e-06	-4.544798e-06	-7.491201e-09	-3.138809e+01	-4.906394e+02
2.870000e-06	-4.642305e-06	-7.631079e-09	-3.206151e+01	-4.996756e+02
2.880000e-06	-4.738219e-06	-7.765122e-09	-3.272393e+01	-5.083486e+02
2.890000e-06	-4.832374e-06	-7.892895e-09	-3.337420e+01	-5.166682e+02
2.900000e-06	-4.924749e-06	-8.015207e-09	-3.401218e+01	-5.246393e+02
2.910000e-06	-5.015462e-06	-8.133375e-09	-3.463867e+01	-5.322629e+02
2.920000e-06	-5.104463e-06	-8.244540e-09	-3.525335e+01	-5.395392e+02
2.930000e-06	-5.191491e-06	-8.347098e-09	-3.585440e+01	-5.464694e+02
2.940000e-06	-5.276411e-06	-8.444042e-09	-3.644089e+01	-5.530589e+02
