# Temperatura_=_27.38
# Concentracion g/m^3_=_15000.0
# C_Vs_to_Am_M_A/Vsm_=_65563218390.804596
# pendiente_HvsI_1/m_=_3716.3
# ordenada_HvsI_A/m_=_1297.0
# frecuencia_Hz_=_301888.11179330543

Tiempo_(s)	Campo_(V.s)	Magnetizacion_(V.s)	Campo_(kA/m)	Magnetizacion_(A/m)
0.000000e+00	-6.857373e-06	-8.133676e-09	-4.750228e+01	-5.311712e+02
1.000000e-08	-6.854226e-06	-8.134586e-09	-4.748048e+01	-5.310329e+02
2.000000e-08	-6.848796e-06	-8.129864e-09	-4.744287e+01	-5.308126e+02
3.000000e-08	-6.841309e-06	-8.125421e-09	-4.739100e+01	-5.304961e+02
4.000000e-08	-6.831478e-06	-8.116219e-09	-4.732290e+01	-5.300709e+02
5.000000e-08	-6.819050e-06	-8.102658e-09	-4.723681e+01	-5.295307e+02
6.000000e-08	-6.804091e-06	-8.082425e-09	-4.713319e+01	-5.288798e+02
7.000000e-08	-6.786852e-06	-8.058167e-09	-4.701377e+01	-5.281342e+02
8.000000e-08	-6.767563e-06	-8.083350e-09	-4.688015e+01	-5.273198e+02
9.000000e-08	-6.745814e-06	-8.130045e-09	-4.672949e+01	-5.264684e+02
1.000000e-07	-6.721166e-06	-8.082451e-09	-4.655875e+01	-5.256113e+02
1.100000e-07	-6.693822e-06	-8.037418e-09	-4.636933e+01	-5.247720e+02
1.200000e-07	-6.664163e-06	-8.028077e-09	-4.616388e+01	-5.239610e+02
1.300000e-07	-6.632522e-06	-7.932511e-09	-4.594469e+01	-5.231724e+02
1.400000e-07	-6.598959e-06	-7.878315e-09	-4.571220e+01	-5.223837e+02
1.500000e-07	-6.563416e-06	-8.032974e-09	-4.546599e+01	-5.215594e+02
1.600000e-07	-6.525913e-06	-7.939219e-09	-4.520620e+01	-5.206570e+02
1.700000e-07	-6.486430e-06	-7.908096e-09	-4.493269e+01	-5.196340e+02
1.800000e-07	-6.444540e-06	-7.982364e-09	-4.464251e+01	-5.184554e+02
1.900000e-07	-6.400037e-06	-7.821373e-09	-4.433423e+01	-5.170987e+02
2.000000e-07	-6.353271e-06	-7.871123e-09	-4.401027e+01	-5.155567e+02
2.100000e-07	-6.303888e-06	-7.876913e-09	-4.366819e+01	-5.138372e+02
2.200000e-07	-6.251762e-06	-7.837435e-09	-4.330710e+01	-5.119597e+02
2.300000e-07	-6.197294e-06	-7.816526e-09	-4.292979e+01	-5.099508e+02
2.400000e-07	-6.140414e-06	-7.701625e-09	-4.253577e+01	-5.078385e+02
2.500000e-07	-6.081181e-06	-7.701082e-09	-4.212546e+01	-5.056472e+02
2.600000e-07	-6.019796e-06	-7.698774e-09	-4.170023e+01	-5.033942e+02
2.700000e-07	-5.956309e-06	-7.641377e-09	-4.126045e+01	-5.010878e+02
2.800000e-07	-5.890552e-06	-7.599602e-09	-4.080494e+01	-4.987279e+02
2.900000e-07	-5.822443e-06	-7.549389e-09	-4.033313e+01	-4.963074e+02
3.000000e-07	-5.752252e-06	-7.522890e-09	-3.984690e+01	-4.938143e+02
3.100000e-07	-5.679975e-06	-7.476865e-09	-3.934623e+01	-4.912352e+02
3.200000e-07	-5.605431e-06	-7.496563e-09	-3.882985e+01	-4.885567e+02
3.300000e-07	-5.528532e-06	-7.438491e-09	-3.829716e+01	-4.857677e+02
3.400000e-07	-5.449392e-06	-7.329310e-09	-3.774894e+01	-4.828598e+02
3.500000e-07	-5.368195e-06	-7.299131e-09	-3.718647e+01	-4.798281e+02
3.600000e-07	-5.285171e-06	-7.265818e-09	-3.661135e+01	-4.766708e+02
3.700000e-07	-5.200434e-06	-7.244297e-09	-3.602436e+01	-4.733887e+02
3.800000e-07	-5.113989e-06	-7.177761e-09	-3.542554e+01	-4.699850e+02
3.900000e-07	-5.025881e-06	-7.110620e-09	-3.481520e+01	-4.664642e+02
4.000000e-07	-4.935893e-06	-7.030771e-09	-3.419184e+01	-4.628314e+02
4.100000e-07	-4.844080e-06	-6.967783e-09	-3.355583e+01	-4.590908e+02
4.200000e-07	-4.750667e-06	-6.936606e-09	-3.290874e+01	-4.552450e+02
4.300000e-07	-4.655573e-06	-6.884794e-09	-3.225001e+01	-4.512934e+02
4.400000e-07	-4.558795e-06	-6.816165e-09	-3.157961e+01	-4.472320e+02
4.500000e-07	-4.460241e-06	-6.728480e-09	-3.089691e+01	-4.430528e+02
4.600000e-07	-4.360111e-06	-6.664268e-09	-3.020329e+01	-4.387452e+02
4.700000e-07	-4.258540e-06	-6.606665e-09	-2.949969e+01	-4.342974e+02
4.800000e-07	-4.155468e-06	-6.545669e-09	-2.878569e+01	-4.296979e+02
4.900000e-07	-4.050986e-06	-6.471325e-09	-2.806193e+01	-4.249384e+02
5.000000e-07	-3.944892e-06	-6.382768e-09	-2.732699e+01	-4.200142e+02
5.100000e-07	-3.837209e-06	-6.298287e-09	-2.658105e+01	-4.149258e+02
5.200000e-07	-3.728235e-06	-6.226286e-09	-2.582616e+01	-4.096774e+02
5.300000e-07	-3.618070e-06	-6.153994e-09	-2.506303e+01	-4.042754e+02
5.400000e-07	-3.506533e-06	-6.057827e-09	-2.429039e+01	-3.987265e+02
5.500000e-07	-3.393522e-06	-5.958061e-09	-2.350755e+01	-3.930343e+02
5.600000e-07	-3.279094e-06	-5.862863e-09	-2.271489e+01	-3.871985e+02
5.700000e-07	-3.163235e-06	-5.778030e-09	-2.191231e+01	-3.812135e+02
5.800000e-07	-3.046113e-06	-5.697631e-09	-2.110099e+01	-3.750691e+02
5.900000e-07	-2.927893e-06	-5.610191e-09	-2.028205e+01	-3.687528e+02
6.000000e-07	-2.808669e-06	-5.501621e-09	-1.945617e+01	-3.622518e+02
6.100000e-07	-2.688488e-06	-5.383146e-09	-1.862365e+01	-3.555556e+02
6.200000e-07	-2.567275e-06	-5.275716e-09	-1.778399e+01	-3.486575e+02
6.300000e-07	-2.444972e-06	-5.174465e-09	-1.693677e+01	-3.415550e+02
6.400000e-07	-2.321659e-06	-5.067675e-09	-1.608255e+01	-3.342488e+02
6.500000e-07	-2.197535e-06	-4.951355e-09	-1.522273e+01	-3.267401e+02
6.600000e-07	-2.072741e-06	-4.830769e-09	-1.435825e+01	-3.190284e+02
6.700000e-07	-1.947333e-06	-4.706485e-09	-1.348953e+01	-3.111088e+02
6.800000e-07	-1.821317e-06	-4.583972e-09	-1.261660e+01	-3.029707e+02
6.900000e-07	-1.694630e-06	-4.461825e-09	-1.173901e+01	-2.945985e+02
7.000000e-07	-1.567309e-06	-4.333395e-09	-1.085704e+01	-2.859732e+02
7.100000e-07	-1.439494e-06	-4.194394e-09	-9.971640e+00	-2.770754e+02
7.200000e-07	-1.311233e-06	-4.050204e-09	-9.083154e+00	-2.678889e+02
7.300000e-07	-1.182528e-06	-3.904465e-09	-8.191588e+00	-2.584028e+02
7.400000e-07	-1.053470e-06	-3.755275e-09	-7.297582e+00	-2.486131e+02
7.500000e-07	-9.240790e-07	-3.599640e-09	-6.401265e+00	-2.385218e+02
7.600000e-07	-7.943441e-07	-3.437125e-09	-5.502567e+00	-2.281342e+02
7.700000e-07	-6.642721e-07	-3.269716e-09	-4.601535e+00	-2.174556e+02
7.800000e-07	-5.338670e-07	-3.099255e-09	-3.698195e+00	-2.064878e+02
7.900000e-07	-4.032343e-07	-2.930345e-09	-2.793278e+00	-1.952259e+02
8.000000e-07	-2.724660e-07	-2.757916e-09	-1.887422e+00	-1.836576e+02
8.100000e-07	-1.415843e-07	-2.577158e-09	-9.807804e-01	-1.717638e+02
8.200000e-07	-1.060963e-08	-2.388419e-09	-7.349487e-02	-1.595212e+02
8.300000e-07	1.204191e-07	-2.196644e-09	8.341654e-01	-1.469056e+02
8.400000e-07	2.514728e-07	-2.002016e-09	1.741999e+00	-1.338950e+02
8.500000e-07	3.824708e-07	-1.802650e-09	2.649445e+00	-1.204716e+02
8.600000e-07	5.133440e-07	-1.596873e-09	3.556028e+00	-1.066217e+02
8.700000e-07	6.440859e-07	-1.378669e-09	4.461701e+00	-9.233472e+01
8.800000e-07	7.745774e-07	-1.149864e-09	5.365640e+00	-7.760009e+01
8.900000e-07	9.047025e-07	-9.150626e-10	6.267040e+00	-6.240521e+01
9.000000e-07	1.034507e-06	-6.767282e-10	7.166217e+00	-4.673428e+01
9.100000e-07	1.163977e-06	-4.329041e-10	8.063082e+00	-3.056996e+01
9.200000e-07	1.293002e-06	-1.814404e-10	8.956863e+00	-1.389773e+01
9.300000e-07	1.421513e-06	7.870564e-11	9.847084e+00	3.287048e+00
9.400000e-07	1.549545e-06	3.460356e-10	1.073399e+01	2.097087e+01
9.500000e-07	1.677071e-06	6.195767e-10	1.161738e+01	3.911438e+01
9.600000e-07	1.803985e-06	8.980292e-10	1.249654e+01	5.764720e+01
9.700000e-07	1.930173e-06	1.183343e-09	1.337066e+01	7.646694e+01
9.800000e-07	2.055622e-06	1.474707e-09	1.423967e+01	9.544323e+01
9.900000e-07	2.180452e-06	1.767015e-09	1.510439e+01	1.144266e+02
1.000000e-06	2.304620e-06	2.054687e-09	1.596452e+01	1.332610e+02
1.010000e-06	2.428003e-06	2.334718e-09	1.681922e+01	1.517971e+02
1.020000e-06	2.550396e-06	2.608233e-09	1.766706e+01	1.699052e+02
1.030000e-06	2.671661e-06	2.871519e-09	1.850709e+01	1.874845e+02
1.040000e-06	2.791957e-06	3.127618e-09	1.934040e+01	2.044671e+02
1.050000e-06	2.911295e-06	3.374718e-09	2.016707e+01	2.208173e+02
1.060000e-06	3.029503e-06	3.611823e-09	2.098592e+01	2.365258e+02
1.070000e-06	3.146670e-06	3.840608e-09	2.179756e+01	2.516017e+02
1.080000e-06	3.262676e-06	4.059909e-09	2.260115e+01	2.660630e+02
1.090000e-06	3.377266e-06	4.270298e-09	2.339494e+01	2.799288e+02
1.100000e-06	3.490446e-06	4.469959e-09	2.417896e+01	2.932147e+02
1.110000e-06	3.602281e-06	4.661338e-09	2.495366e+01	3.059311e+02
1.120000e-06	3.712881e-06	4.843785e-09	2.571981e+01	3.180854e+02
1.130000e-06	3.822309e-06	5.018897e-09	2.647784e+01	3.296847e+02
1.140000e-06	3.930604e-06	5.188158e-09	2.722801e+01	3.407408e+02
1.150000e-06	4.037555e-06	5.351592e-09	2.796888e+01	3.512720e+02
1.160000e-06	4.142948e-06	5.506971e-09	2.869896e+01	3.613040e+02
1.170000e-06	4.246765e-06	5.654157e-09	2.941812e+01	3.708677e+02
1.180000e-06	4.349047e-06	5.794175e-09	3.012665e+01	3.799951e+02
1.190000e-06	4.449912e-06	5.928721e-09	3.082536e+01	3.887149e+02
1.200000e-06	4.549216e-06	6.056863e-09	3.151326e+01	3.970482e+02
1.210000e-06	4.646736e-06	6.177102e-09	3.218879e+01	4.050071e+02
1.220000e-06	4.742457e-06	6.290920e-09	3.285187e+01	4.125952e+02
1.230000e-06	4.836509e-06	6.399486e-09	3.350338e+01	4.198113e+02
1.240000e-06	4.929045e-06	6.503090e-09	3.414440e+01	4.266537e+02
1.250000e-06	5.019906e-06	6.600614e-09	3.477381e+01	4.331262e+02
1.260000e-06	5.108821e-06	6.693973e-09	3.538974e+01	4.392419e+02
1.270000e-06	5.195796e-06	6.783006e-09	3.599223e+01	4.450245e+02
1.280000e-06	5.280980e-06	6.868113e-09	3.658232e+01	4.505075e+02
1.290000e-06	5.364399e-06	6.948868e-09	3.716017e+01	4.557298e+02
1.300000e-06	5.445825e-06	7.025988e-09	3.772423e+01	4.607305e+02
1.310000e-06	5.525150e-06	7.100019e-09	3.827373e+01	4.655428e+02
1.320000e-06	5.602568e-06	7.169512e-09	3.881002e+01	4.701897e+02
1.330000e-06	5.677961e-06	7.234532e-09	3.933228e+01	4.746814e+02
1.340000e-06	5.751050e-06	7.299018e-09	3.983858e+01	4.790167e+02
1.350000e-06	5.821974e-06	7.363036e-09	4.032988e+01	4.831857e+02
1.360000e-06	5.890915e-06	7.424018e-09	4.080745e+01	4.871750e+02
1.370000e-06	5.957751e-06	7.482299e-09	4.127044e+01	4.909721e+02
1.380000e-06	6.022372e-06	7.537065e-09	4.171807e+01	4.945702e+02
1.390000e-06	6.084870e-06	7.589786e-09	4.215101e+01	4.979693e+02
1.400000e-06	6.145415e-06	7.640094e-09	4.257041e+01	5.011761e+02
1.410000e-06	6.203887e-06	7.687126e-09	4.297546e+01	5.042015e+02
1.420000e-06	6.260055e-06	7.730275e-09	4.336455e+01	5.070571e+02
1.430000e-06	6.313950e-06	7.768486e-09	4.373789e+01	5.097519e+02
1.440000e-06	6.365403e-06	7.804694e-09	4.409431e+01	5.122901e+02
1.450000e-06	6.414202e-06	7.838365e-09	4.443235e+01	5.146706e+02
1.460000e-06	6.460583e-06	7.870427e-09	4.475364e+01	5.168890e+02
1.470000e-06	6.504870e-06	7.901732e-09	4.506043e+01	5.189399e+02
1.480000e-06	6.546856e-06	7.932205e-09	4.535127e+01	5.208204e+02
1.490000e-06	6.586359e-06	7.960177e-09	4.562491e+01	5.225328e+02
1.500000e-06	6.623630e-06	7.984147e-09	4.588310e+01	5.240852e+02
1.510000e-06	6.658717e-06	8.004328e-09	4.612616e+01	5.254909e+02
1.520000e-06	6.691355e-06	8.021612e-09	4.635224e+01	5.267661e+02
1.530000e-06	6.721557e-06	8.037033e-09	4.656146e+01	5.279261e+02
1.540000e-06	6.749617e-06	8.051131e-09	4.675584e+01	5.289825e+02
1.550000e-06	6.775211e-06	8.064692e-09	4.693313e+01	5.299408e+02
1.560000e-06	6.798142e-06	8.077633e-09	4.709198e+01	5.308005e+02
1.570000e-06	6.818795e-06	8.090219e-09	4.723504e+01	5.315565e+02
1.580000e-06	6.837088e-06	8.101524e-09	4.736177e+01	5.322018e+02
1.590000e-06	6.852758e-06	8.111594e-09	4.747031e+01	5.327313e+02
1.600000e-06	6.865906e-06	8.119158e-09	4.756139e+01	5.331446e+02
1.610000e-06	6.876364e-06	8.123061e-09	4.763384e+01	5.334471e+02
1.620000e-06	6.884144e-06	8.125296e-09	4.768773e+01	5.336494e+02
1.630000e-06	6.889583e-06	8.127674e-09	4.772541e+01	5.337646e+02
1.640000e-06	6.892643e-06	8.130369e-09	4.774661e+01	5.338048e+02
1.650000e-06	6.893242e-06	8.135460e-09	4.775075e+01	5.337774e+02
1.660000e-06	6.891486e-06	8.131826e-09	4.773859e+01	5.336826e+02
1.670000e-06	6.887595e-06	8.129408e-09	4.771164e+01	5.335132e+02
1.680000e-06	6.881354e-06	8.126130e-09	4.766840e+01	5.332564e+02
1.690000e-06	6.872773e-06	8.118945e-09	4.760896e+01	5.328980e+02
1.700000e-06	6.862071e-06	8.113365e-09	4.753483e+01	5.324274e+02
1.710000e-06	6.848928e-06	8.111080e-09	4.744378e+01	5.318421e+02
1.720000e-06	6.833364e-06	8.125535e-09	4.733596e+01	5.311511e+02
1.730000e-06	6.815760e-06	8.082908e-09	4.721402e+01	5.303744e+02
1.740000e-06	6.795943e-06	8.002657e-09	4.707675e+01	5.295411e+02
1.750000e-06	6.772917e-06	8.033320e-09	4.691724e+01	5.286836e+02
1.760000e-06	6.746513e-06	8.033046e-09	4.673433e+01	5.278308e+02
1.770000e-06	6.717630e-06	8.004070e-09	4.653426e+01	5.270018e+02
1.780000e-06	6.686755e-06	8.128423e-09	4.632038e+01	5.262009e+02
1.790000e-06	6.654463e-06	8.053355e-09	4.609669e+01	5.254153e+02
1.800000e-06	6.620672e-06	7.946357e-09	4.586261e+01	5.246170e+02
1.810000e-06	6.584257e-06	8.067378e-09	4.561036e+01	5.237668e+02
1.820000e-06	6.545294e-06	7.933626e-09	4.534045e+01	5.228213e+02
1.830000e-06	6.504265e-06	7.981613e-09	4.505624e+01	5.217403e+02
1.840000e-06	6.461046e-06	8.013744e-09	4.475685e+01	5.204932e+02
1.850000e-06	6.415618e-06	7.830803e-09	4.444216e+01	5.190632e+02
1.860000e-06	6.367730e-06	7.933021e-09	4.411044e+01	5.174494e+02
1.870000e-06	6.317561e-06	7.789497e-09	4.376290e+01	5.156645e+02
1.880000e-06	6.265106e-06	7.777311e-09	4.339954e+01	5.137316e+02
1.890000e-06	6.209900e-06	7.864751e-09	4.301712e+01	5.116784e+02
1.900000e-06	6.152287e-06	7.722349e-09	4.261802e+01	5.095321e+02
1.910000e-06	6.092440e-06	7.791361e-09	4.220345e+01	5.073145e+02
1.920000e-06	6.030154e-06	7.665797e-09	4.177198e+01	5.050395e+02
1.930000e-06	5.965629e-06	7.629471e-09	4.132501e+01	5.027122e+02
1.940000e-06	5.899036e-06	7.677079e-09	4.086371e+01	5.003292e+02
1.950000e-06	5.830408e-06	7.587041e-09	4.038830e+01	4.978813e+02
1.960000e-06	5.759352e-06	7.589907e-09	3.989609e+01	4.953556e+02
1.970000e-06	5.685977e-06	7.434404e-09	3.938780e+01	4.927385e+02
1.980000e-06	5.610521e-06	7.460625e-09	3.886511e+01	4.900173e+02
1.990000e-06	5.532740e-06	7.438432e-09	3.832631e+01	4.871820e+02
2.000000e-06	5.452857e-06	7.383390e-09	3.777294e+01	4.842254e+02
2.010000e-06	5.371083e-06	7.378578e-09	3.720648e+01	4.811440e+02
2.020000e-06	5.287555e-06	7.250850e-09	3.662786e+01	4.779370e+02
2.030000e-06	5.202049e-06	7.217055e-09	3.603554e+01	4.746062e+02
2.040000e-06	5.114502e-06	7.143800e-09	3.542909e+01	4.711555e+02
2.050000e-06	5.025236e-06	7.161596e-09	3.481073e+01	4.675896e+02
2.060000e-06	4.934407e-06	7.113426e-09	3.418154e+01	4.639136e+02
2.070000e-06	4.842044e-06	7.020313e-09	3.354173e+01	4.601311e+02
2.080000e-06	4.747868e-06	6.949709e-09	3.288935e+01	4.562435e+02
2.090000e-06	4.651886e-06	6.873953e-09	3.222447e+01	4.522491e+02
2.100000e-06	4.554330e-06	6.856698e-09	3.154868e+01	4.481420e+02
2.110000e-06	4.455308e-06	6.785522e-09	3.086274e+01	4.439133e+02
2.120000e-06	4.354814e-06	6.732067e-09	3.016660e+01	4.395516e+02
2.130000e-06	4.252653e-06	6.633105e-09	2.945890e+01	4.350450e+02
2.140000e-06	4.148792e-06	6.549550e-09	2.873944e+01	4.303831e+02
2.150000e-06	4.043451e-06	6.482854e-09	2.800972e+01	4.255587e+02
2.160000e-06	3.936814e-06	6.429218e-09	2.727103e+01	4.205693e+02
2.170000e-06	3.828805e-06	6.361029e-09	2.652284e+01	4.154169e+02
2.180000e-06	3.719427e-06	6.259921e-09	2.576515e+01	4.101069e+02
2.190000e-06	3.608599e-06	6.172468e-09	2.499743e+01	4.046460e+02
2.200000e-06	3.496338e-06	6.093481e-09	2.421977e+01	3.990401e+02
2.210000e-06	3.382757e-06	6.034621e-09	2.343298e+01	3.932915e+02
2.220000e-06	3.267888e-06	5.938276e-09	2.263726e+01	3.873975e+02
2.230000e-06	3.151676e-06	5.828687e-09	2.183224e+01	3.813508e+02
2.240000e-06	3.034099e-06	5.714242e-09	2.101776e+01	3.751401e+02
2.250000e-06	2.915187e-06	5.624441e-09	2.019404e+01	3.687522e+02
2.260000e-06	2.795051e-06	5.540978e-09	1.936183e+01	3.621751e+02
2.270000e-06	2.674008e-06	5.452772e-09	1.852334e+01	3.553997e+02
2.280000e-06	2.552125e-06	5.347886e-09	1.767904e+01	3.484210e+02
2.290000e-06	2.429348e-06	5.222316e-09	1.682854e+01	3.412378e+02
2.300000e-06	2.305691e-06	5.099111e-09	1.597195e+01	3.338515e+02
2.310000e-06	2.181334e-06	4.991599e-09	1.511050e+01	3.262629e+02
2.320000e-06	2.056344e-06	4.892527e-09	1.424467e+01	3.184699e+02
2.330000e-06	1.930676e-06	4.768140e-09	1.337415e+01	3.104656e+02
2.340000e-06	1.804231e-06	4.626353e-09	1.249824e+01	3.022372e+02
2.350000e-06	1.676963e-06	4.481187e-09	1.161663e+01	2.937675e+02
2.360000e-06	1.549038e-06	4.351983e-09	1.073047e+01	2.850369e+02
2.370000e-06	1.420637e-06	4.229531e-09	9.841011e+00	2.760269e+02
2.380000e-06	1.291822e-06	4.097414e-09	8.948688e+00	2.667232e+02
2.390000e-06	1.162653e-06	3.950117e-09	8.053914e+00	2.571175e+02
2.400000e-06	1.033217e-06	3.791712e-09	7.157281e+00	2.472084e+02
2.410000e-06	9.034927e-07	3.636811e-09	6.258660e+00	2.369995e+02
2.420000e-06	7.734780e-07	3.484599e-09	5.358024e+00	2.264967e+02
2.430000e-06	6.431919e-07	3.324935e-09	4.455508e+00	2.157041e+02
2.440000e-06	5.126842e-07	3.150673e-09	3.551457e+00	2.046213e+02
2.450000e-06	3.819772e-07	2.967091e-09	2.646026e+00	1.932405e+02
2.460000e-06	2.510559e-07	2.786599e-09	1.739110e+00	1.815464e+02
2.470000e-06	1.200679e-07	2.609906e-09	8.317325e-01	1.695180e+02
2.480000e-06	-1.090543e-08	2.428374e-09	-7.554394e-02	1.571313e+02
2.490000e-06	-1.419208e-07	2.233163e-09	-9.831116e-01	1.443625e+02
2.500000e-06	-2.729405e-07	2.021122e-09	-1.890709e+00	1.311912e+02
2.510000e-06	-4.038673e-07	1.802634e-09	-2.797663e+00	1.176012e+02
2.520000e-06	-5.346406e-07	1.587826e-09	-3.703553e+00	1.035804e+02
2.530000e-06	-6.652083e-07	1.373099e-09	-4.608020e+00	8.911840e+01
2.540000e-06	-7.955733e-07	1.150389e-09	-5.511082e+00	7.420419e+01
2.550000e-06	-9.257070e-07	9.134317e-10	-6.412542e+00	5.882388e+01
2.560000e-06	-1.055527e-06	6.661325e-10	-7.311827e+00	4.296072e+01
2.570000e-06	-1.185039e-06	4.160117e-10	-8.208984e+00	2.659778e+01
2.580000e-06	-1.314216e-06	1.618875e-10	-9.103817e+00	9.723489e+00
2.590000e-06	-1.443007e-06	-1.019900e-10	-9.995971e+00	-7.660670e+00
2.600000e-06	-1.571301e-06	-3.777502e-10	-1.088469e+01	-2.553186e+01
2.610000e-06	-1.698952e-06	-6.640080e-10	-1.176895e+01	-4.383896e+01
2.620000e-06	-1.825854e-06	-9.544094e-10	-1.264803e+01	-6.249884e+01
2.630000e-06	-1.951993e-06	-1.243613e-09	-1.352181e+01	-8.139737e+01
2.640000e-06	-2.077382e-06	-1.530914e-09	-1.439040e+01	-1.003954e+02
2.650000e-06	-2.201986e-06	-1.818376e-09	-1.525356e+01	-1.193392e+02
2.660000e-06	-2.325741e-06	-2.107520e-09	-1.611084e+01	-1.380738e+02
2.670000e-06	-2.448558e-06	-2.391902e-09	-1.696161e+01	-1.564562e+02
2.680000e-06	-2.570443e-06	-2.665738e-09	-1.780593e+01	-1.743673e+02
2.690000e-06	-2.691468e-06	-2.930029e-09	-1.864429e+01	-1.917189e+02
2.700000e-06	-2.811534e-06	-3.185658e-09	-1.947601e+01	-2.084561e+02
2.710000e-06	-2.930449e-06	-3.433758e-09	-2.029976e+01	-2.245545e+02
2.720000e-06	-3.048227e-06	-3.674202e-09	-2.111562e+01	-2.400132e+02
2.730000e-06	-3.164826e-06	-3.903697e-09	-2.192333e+01	-2.548457e+02
2.740000e-06	-3.280111e-06	-4.121756e-09	-2.272193e+01	-2.690713e+02
2.750000e-06	-3.393940e-06	-4.331323e-09	-2.351045e+01	-2.827082e+02
2.760000e-06	-3.506343e-06	-4.534366e-09	-2.428908e+01	-2.957698e+02
2.770000e-06	-3.617468e-06	-4.726602e-09	-2.505886e+01	-3.082651e+02
2.780000e-06	-3.727268e-06	-4.908099e-09	-2.581947e+01	-3.202007e+02
2.790000e-06	-3.835841e-06	-5.080835e-09	-2.657158e+01	-3.315853e+02
2.800000e-06	-3.943245e-06	-5.245940e-09	-2.731558e+01	-3.424330e+02
2.810000e-06	-4.049335e-06	-5.403669e-09	-2.805049e+01	-3.527652e+02
2.820000e-06	-4.154038e-06	-5.553618e-09	-2.877578e+01	-3.626098e+02
2.830000e-06	-4.257164e-06	-5.696663e-09	-2.949016e+01	-3.719988e+02
2.840000e-06	-4.358614e-06	-5.832614e-09	-3.019292e+01	-3.809634e+02
2.850000e-06	-4.458481e-06	-5.962325e-09	-3.088471e+01	-3.895298e+02
2.860000e-06	-4.556870e-06	-6.087013e-09	-3.156627e+01	-3.977155e+02
2.870000e-06	-4.653752e-06	-6.206905e-09	-3.223740e+01	-4.055291e+02
2.880000e-06	-4.748942e-06	-6.321471e-09	-3.289679e+01	-4.129718e+02
2.890000e-06	-4.842362e-06	-6.431110e-09	-3.354393e+01	-4.200415e+02
2.900000e-06	-4.934064e-06	-6.535485e-09	-3.417917e+01	-4.267382e+02
2.910000e-06	-5.024081e-06	-6.633025e-09	-3.480273e+01	-4.330689e+02
2.920000e-06	-5.112295e-06	-6.723856e-09	-3.541381e+01	-4.390507e+02
2.930000e-06	-5.198510e-06	-6.808282e-09	-3.601103e+01	-4.447116e+02
2.940000e-06	-5.282751e-06	-6.888612e-09	-3.659458e+01	-4.500878e+02
