# Temperatura_=_70.25
# Concentracion g/m^3_=_15000.0
# C_Vs_to_Am_M_A/Vsm_=_65563218390.804596
# pendiente_HvsI_1/m_=_3716.3
# ordenada_HvsI_A/m_=_1297.0
# frecuencia_Hz_=_301898.0227188427

Tiempo_(s)	Campo_(V.s)	Magnetizacion_(V.s)	Campo_(kA/m)	Magnetizacion_(A/m)
0.000000e+00	-6.831739e-06	-9.977352e-09	-4.749899e+01	-6.525402e+02
1.000000e-08	-6.828956e-06	-9.974899e-09	-4.747964e+01	-6.522785e+02
2.000000e-08	-6.823866e-06	-9.970436e-09	-4.744425e+01	-6.518737e+02
3.000000e-08	-6.816707e-06	-9.965379e-09	-4.739448e+01	-6.513306e+02
4.000000e-08	-6.807275e-06	-9.958563e-09	-4.732890e+01	-6.506578e+02
5.000000e-08	-6.795304e-06	-9.948709e-09	-4.724567e+01	-6.498673e+02
6.000000e-08	-6.780801e-06	-9.933083e-09	-4.714484e+01	-6.489734e+02
7.000000e-08	-6.764007e-06	-9.912330e-09	-4.702807e+01	-6.479914e+02
8.000000e-08	-6.745114e-06	-9.899282e-09	-4.689671e+01	-6.469360e+02
9.000000e-08	-6.723798e-06	-9.897917e-09	-4.674851e+01	-6.458199e+02
1.000000e-07	-6.699704e-06	-9.886216e-09	-4.658099e+01	-6.446526e+02
1.100000e-07	-6.672836e-06	-9.860267e-09	-4.639419e+01	-6.434391e+02
1.200000e-07	-6.643561e-06	-9.831850e-09	-4.619065e+01	-6.421794e+02
1.300000e-07	-6.612299e-06	-9.789290e-09	-4.597329e+01	-6.408688e+02
1.400000e-07	-6.579187e-06	-9.749244e-09	-4.574308e+01	-6.394978e+02
1.500000e-07	-6.544192e-06	-9.747335e-09	-4.549976e+01	-6.380528e+02
1.600000e-07	-6.507135e-06	-9.722657e-09	-4.524212e+01	-6.365174e+02
1.700000e-07	-6.467961e-06	-9.681829e-09	-4.496975e+01	-6.348735e+02
1.800000e-07	-6.426494e-06	-9.660053e-09	-4.468144e+01	-6.331027e+02
1.900000e-07	-6.382481e-06	-9.623146e-09	-4.437544e+01	-6.311873e+02
2.000000e-07	-6.336173e-06	-9.606467e-09	-4.405347e+01	-6.291120e+02
2.100000e-07	-6.287464e-06	-9.605354e-09	-4.371481e+01	-6.268643e+02
2.200000e-07	-6.236032e-06	-9.562667e-09	-4.335722e+01	-6.244355e+02
2.300000e-07	-6.182041e-06	-9.490715e-09	-4.298184e+01	-6.218210e+02
2.400000e-07	-6.125669e-06	-9.429938e-09	-4.258990e+01	-6.190202e+02
2.500000e-07	-6.066986e-06	-9.385823e-09	-4.218190e+01	-6.160364e+02
2.600000e-07	-6.006073e-06	-9.339295e-09	-4.175839e+01	-6.128764e+02
2.700000e-07	-5.943015e-06	-9.286683e-09	-4.131997e+01	-6.095493e+02
2.800000e-07	-5.877741e-06	-9.236724e-09	-4.086614e+01	-6.060660e+02
2.900000e-07	-5.810236e-06	-9.174900e-09	-4.039679e+01	-6.024379e+02
3.000000e-07	-5.740557e-06	-9.116475e-09	-3.991234e+01	-5.986762e+02
3.100000e-07	-5.668809e-06	-9.071372e-09	-3.941349e+01	-5.947902e+02
3.200000e-07	-5.594896e-06	-9.018282e-09	-3.889960e+01	-5.907874e+02
3.300000e-07	-5.518654e-06	-8.949534e-09	-3.836951e+01	-5.866720e+02
3.400000e-07	-5.440221e-06	-8.877122e-09	-3.782419e+01	-5.824450e+02
3.500000e-07	-5.359676e-06	-8.815671e-09	-3.726418e+01	-5.781041e+02
3.600000e-07	-5.277205e-06	-8.757899e-09	-3.669079e+01	-5.736440e+02
3.700000e-07	-5.193010e-06	-8.689763e-09	-3.610541e+01	-5.690568e+02
3.800000e-07	-5.107085e-06	-8.608230e-09	-3.550800e+01	-5.643332e+02
3.900000e-07	-5.019381e-06	-8.523653e-09	-3.489822e+01	-5.594632e+02
4.000000e-07	-4.929900e-06	-8.442470e-09	-3.427608e+01	-5.544373e+02
4.100000e-07	-4.838673e-06	-8.367260e-09	-3.364181e+01	-5.492476e+02
4.200000e-07	-4.745815e-06	-8.293617e-09	-3.299620e+01	-5.438885e+02
4.300000e-07	-4.651320e-06	-8.210607e-09	-3.233920e+01	-5.383570e+02
4.400000e-07	-4.555158e-06	-8.119380e-09	-3.167062e+01	-5.326531e+02
4.500000e-07	-4.457312e-06	-8.024365e-09	-3.099033e+01	-5.267795e+02
4.600000e-07	-4.357764e-06	-7.931401e-09	-3.029820e+01	-5.207407e+02
4.700000e-07	-4.256699e-06	-7.840428e-09	-2.959553e+01	-5.145422e+02
4.800000e-07	-4.154270e-06	-7.745840e-09	-2.888337e+01	-5.081895e+02
4.900000e-07	-4.050410e-06	-7.644010e-09	-2.816126e+01	-5.016865e+02
5.000000e-07	-3.944978e-06	-7.538159e-09	-2.742823e+01	-4.950350e+02
5.100000e-07	-3.837979e-06	-7.436422e-09	-2.668429e+01	-4.882336e+02
5.200000e-07	-3.729599e-06	-7.332348e-09	-2.593076e+01	-4.812777e+02
5.300000e-07	-3.619987e-06	-7.217682e-09	-2.516866e+01	-4.741593e+02
5.400000e-07	-3.509076e-06	-7.096232e-09	-2.439753e+01	-4.668681e+02
5.500000e-07	-3.396709e-06	-6.977033e-09	-2.361628e+01	-4.593920e+02
5.600000e-07	-3.282939e-06	-6.860969e-09	-2.282527e+01	-4.517188e+02
5.700000e-07	-3.167779e-06	-6.746827e-09	-2.202460e+01	-4.438374e+02
5.800000e-07	-3.051272e-06	-6.628448e-09	-2.121456e+01	-4.357386e+02
5.900000e-07	-2.933604e-06	-6.499980e-09	-2.039645e+01	-4.274166e+02
6.000000e-07	-2.814895e-06	-6.366254e-09	-1.957111e+01	-4.188686e+02
6.100000e-07	-2.695201e-06	-6.229905e-09	-1.873891e+01	-4.100955e+02
6.200000e-07	-2.574519e-06	-6.093263e-09	-1.789984e+01	-4.011002e+02
6.300000e-07	-2.452846e-06	-5.952152e-09	-1.705389e+01	-3.918870e+02
6.400000e-07	-2.330177e-06	-5.803568e-09	-1.620101e+01	-3.824600e+02
6.500000e-07	-2.206607e-06	-5.653614e-09	-1.534186e+01	-3.728212e+02
6.600000e-07	-2.082264e-06	-5.500995e-09	-1.447734e+01	-3.629695e+02
6.700000e-07	-1.957266e-06	-5.345672e-09	-1.360827e+01	-3.528993e+02
6.800000e-07	-1.831659e-06	-5.189002e-09	-1.273496e+01	-3.426001e+02
6.900000e-07	-1.705441e-06	-5.029358e-09	-1.185741e+01	-3.320571e+02
7.000000e-07	-1.578679e-06	-4.865208e-09	-1.097607e+01	-3.212517e+02
7.100000e-07	-1.451413e-06	-4.695411e-09	-1.009123e+01	-3.101634e+02
7.200000e-07	-1.323674e-06	-4.520946e-09	-9.203098e+00	-2.987715e+02
7.300000e-07	-1.195465e-06	-4.341237e-09	-8.311703e+00	-2.870570e+02
7.400000e-07	-1.066788e-06	-4.157003e-09	-7.417048e+00	-2.750043e+02
7.500000e-07	-9.377474e-07	-3.967288e-09	-6.519870e+00	-2.626026e+02
7.600000e-07	-8.084249e-07	-3.773032e-09	-5.620731e+00	-2.498458e+02
7.700000e-07	-6.788640e-07	-3.574613e-09	-4.719933e+00	-2.367321e+02
7.800000e-07	-5.491022e-07	-3.370483e-09	-3.817740e+00	-2.232624e+02
7.900000e-07	-4.191639e-07	-3.162642e-09	-2.914319e+00	-2.094376e+02
8.000000e-07	-2.891222e-07	-2.948866e-09	-2.010178e+00	-1.952562e+02
8.100000e-07	-1.589508e-07	-2.726460e-09	-1.105136e+00	-1.807107e+02
8.200000e-07	-2.864581e-08	-2.496163e-09	-1.991655e-01	-1.657856e+02
8.300000e-07	1.017241e-07	-2.260715e-09	7.072563e-01	-1.504551e+02
8.400000e-07	2.321049e-07	-2.021596e-09	1.613754e+00	-1.346831e+02
8.500000e-07	3.624154e-07	-1.775394e-09	2.519763e+00	-1.184240e+02
8.600000e-07	4.926107e-07	-1.520090e-09	3.424972e+00	-1.016257e+02
8.700000e-07	6.226717e-07	-1.255206e-09	4.329246e+00	-8.423407e+01
8.800000e-07	7.525679e-07	-9.804985e-10	5.232374e+00	-6.619851e+01
8.900000e-07	8.822327e-07	-6.973583e-10	6.133894e+00	-4.747849e+01
9.000000e-07	1.011620e-06	-4.053410e-10	7.033482e+00	-2.805027e+01
9.100000e-07	1.140672e-06	-1.000590e-10	7.930740e+00	-7.912885e+00
9.200000e-07	1.269307e-06	2.182624e-10	8.825105e+00	1.290699e+01
9.300000e-07	1.397489e-06	5.454979e-10	9.716313e+00	3.435216e+01
9.400000e-07	1.525142e-06	8.790760e-10	1.060385e+01	5.633429e+01
9.500000e-07	1.652204e-06	1.218815e-09	1.148727e+01	7.873586e+01
9.600000e-07	1.778709e-06	1.563024e-09	1.236682e+01	1.014146e+02
9.700000e-07	1.904597e-06	1.910336e-09	1.324208e+01	1.242100e+02
9.800000e-07	2.029802e-06	2.257371e-09	1.411259e+01	1.469515e+02
9.900000e-07	2.154425e-06	2.602048e-09	1.497905e+01	1.694677e+02
1.000000e-06	2.278324e-06	2.940659e-09	1.584049e+01	1.915955e+02
1.010000e-06	2.401288e-06	3.268791e-09	1.669542e+01	2.131884e+02
1.020000e-06	2.523288e-06	3.586677e-09	1.754365e+01	2.341234e+02
1.030000e-06	2.644296e-06	3.891314e-09	1.838498e+01	2.543061e+02
1.040000e-06	2.764228e-06	4.184264e-09	1.921883e+01	2.736729e+02
1.050000e-06	2.883095e-06	4.463632e-09	2.004528e+01	2.921911e+02
1.060000e-06	3.000990e-06	4.728798e-09	2.086497e+01	3.098563e+02
1.070000e-06	3.117869e-06	4.983302e-09	2.167759e+01	3.266884e+02
1.080000e-06	3.233556e-06	5.225599e-09	2.248193e+01	3.427255e+02
1.090000e-06	3.347897e-06	5.457223e-09	2.327690e+01	3.580179e+02
1.100000e-06	3.460914e-06	5.678901e-09	2.406268e+01	3.726215e+02
1.110000e-06	3.572583e-06	5.890899e-09	2.483908e+01	3.865918e+02
1.120000e-06	3.682942e-06	6.094245e-09	2.560637e+01	3.999800e+02
1.130000e-06	3.792152e-06	6.290226e-09	2.636567e+01	4.128290e+02
1.140000e-06	3.900243e-06	6.478874e-09	2.711719e+01	4.251726e+02
1.150000e-06	4.006977e-06	6.658454e-09	2.785929e+01	4.370347e+02
1.160000e-06	4.112167e-06	6.829815e-09	2.859064e+01	4.484313e+02
1.170000e-06	4.215819e-06	6.994377e-09	2.931130e+01	4.593720e+02
1.180000e-06	4.317958e-06	7.151827e-09	3.002144e+01	4.698626e+02
1.190000e-06	4.418672e-06	7.303287e-09	3.072167e+01	4.799083e+02
1.200000e-06	4.517848e-06	7.450271e-09	3.141122e+01	4.895152e+02
1.210000e-06	4.615253e-06	7.591063e-09	3.208844e+01	4.986923e+02
1.220000e-06	4.710815e-06	7.725026e-09	3.275286e+01	5.074523e+02
1.230000e-06	4.804730e-06	7.852917e-09	3.340582e+01	5.158113e+02
1.240000e-06	4.897154e-06	7.976597e-09	3.404841e+01	5.237886e+02
1.250000e-06	4.987899e-06	8.095623e-09	3.467934e+01	5.314055e+02
1.260000e-06	5.076758e-06	8.208489e-09	3.529715e+01	5.386833e+02
1.270000e-06	5.163716e-06	8.315206e-09	3.590173e+01	5.456428e+02
1.280000e-06	5.248852e-06	8.416907e-09	3.649366e+01	5.523029e+02
1.290000e-06	5.332232e-06	8.513307e-09	3.707338e+01	5.586795e+02
1.300000e-06	5.413660e-06	8.602668e-09	3.763952e+01	5.647862e+02
1.310000e-06	5.493052e-06	8.686934e-09	3.819151e+01	5.706337e+02
1.320000e-06	5.570503e-06	8.767914e-09	3.873000e+01	5.762312e+02
1.330000e-06	5.645853e-06	8.847567e-09	3.925389e+01	5.815867e+02
1.340000e-06	5.718939e-06	8.926096e-09	3.976203e+01	5.867082e+02
1.350000e-06	5.789911e-06	9.001627e-09	4.025548e+01	5.916042e+02
1.360000e-06	5.858911e-06	9.073894e-09	4.073522e+01	5.962841e+02
1.370000e-06	5.925816e-06	9.143163e-09	4.120039e+01	6.007582e+02
1.380000e-06	5.990525e-06	9.208221e-09	4.165029e+01	6.050373e+02
1.390000e-06	6.053142e-06	9.270465e-09	4.208564e+01	6.091319e+02
1.400000e-06	6.113793e-06	9.331338e-09	4.250733e+01	6.130512e+02
1.410000e-06	6.172290e-06	9.388804e-09	4.291404e+01	6.168024e+02
1.420000e-06	6.228555e-06	9.442305e-09	4.330524e+01	6.203897e+02
1.430000e-06	6.282671e-06	9.492999e-09	4.368149e+01	6.238138e+02
1.440000e-06	6.334306e-06	9.542299e-09	4.404049e+01	6.270724e+02
1.450000e-06	6.383250e-06	9.588672e-09	4.438079e+01	6.301599e+02
1.460000e-06	6.429748e-06	9.631550e-09	4.470407e+01	6.330690e+02
1.470000e-06	6.474135e-06	9.671634e-09	4.501268e+01	6.357914e+02
1.480000e-06	6.516308e-06	9.710277e-09	4.530590e+01	6.383197e+02
1.490000e-06	6.556010e-06	9.747707e-09	4.558193e+01	6.406482e+02
1.500000e-06	6.593430e-06	9.781120e-09	4.584210e+01	6.427745e+02
1.510000e-06	6.628727e-06	9.809865e-09	4.608751e+01	6.447001e+02
1.520000e-06	6.661659e-06	9.834458e-09	4.631647e+01	6.464305e+02
1.530000e-06	6.692132e-06	9.854704e-09	4.652835e+01	6.479751e+02
1.540000e-06	6.720417e-06	9.874421e-09	4.672500e+01	6.493461e+02
1.550000e-06	6.746294e-06	9.892449e-09	4.690491e+01	6.505577e+02
1.560000e-06	6.769577e-06	9.907737e-09	4.706680e+01	6.516241e+02
1.570000e-06	6.790529e-06	9.922325e-09	4.721247e+01	6.525583e+02
1.580000e-06	6.809108e-06	9.935068e-09	4.734164e+01	6.533711e+02
1.590000e-06	6.825171e-06	9.945818e-09	4.745333e+01	6.540693e+02
1.600000e-06	6.838714e-06	9.953675e-09	4.754749e+01	6.546561e+02
1.610000e-06	6.849589e-06	9.958795e-09	4.762309e+01	6.551304e+02
1.620000e-06	6.857780e-06	9.961920e-09	4.768004e+01	6.554882e+02
1.630000e-06	6.863548e-06	9.964995e-09	4.772015e+01	6.557229e+02
1.640000e-06	6.866990e-06	9.968382e-09	4.774408e+01	6.558272e+02
1.650000e-06	6.867949e-06	9.970576e-09	4.775075e+01	6.557941e+02
1.660000e-06	6.866470e-06	9.968700e-09	4.774046e+01	6.556189e+02
1.670000e-06	6.862870e-06	9.964884e-09	4.771544e+01	6.552999e+02
1.680000e-06	6.857011e-06	9.957840e-09	4.767470e+01	6.548392e+02
1.690000e-06	6.848749e-06	9.948201e-09	4.761726e+01	6.542431e+02
1.700000e-06	6.838290e-06	9.938709e-09	4.754454e+01	6.535216e+02
1.710000e-06	6.825543e-06	9.928387e-09	4.745591e+01	6.526878e+02
1.720000e-06	6.810404e-06	9.919328e-09	4.735066e+01	6.517567e+02
1.730000e-06	6.793130e-06	9.895580e-09	4.723055e+01	6.507433e+02
1.740000e-06	6.773690e-06	9.859011e-09	4.709539e+01	6.496619e+02
1.750000e-06	6.751184e-06	9.836849e-09	4.693892e+01	6.485240e+02
1.760000e-06	6.725279e-06	9.819880e-09	4.675881e+01	6.473374e+02
1.770000e-06	6.696798e-06	9.806233e-09	4.656079e+01	6.461051e+02
1.780000e-06	6.666252e-06	9.821486e-09	4.634841e+01	6.448255e+02
1.790000e-06	6.634131e-06	9.801818e-09	4.612508e+01	6.434917e+02
1.800000e-06	6.600590e-06	9.768056e-09	4.589188e+01	6.420926e+02
1.810000e-06	6.564750e-06	9.766011e-09	4.564270e+01	6.406133e+02
1.820000e-06	6.526405e-06	9.744580e-09	4.537610e+01	6.390367e+02
1.830000e-06	6.485945e-06	9.729791e-09	4.509479e+01	6.373443e+02
1.840000e-06	6.443252e-06	9.698158e-09	4.479796e+01	6.355178e+02
1.850000e-06	6.398347e-06	9.633256e-09	4.448575e+01	6.335405e+02
1.860000e-06	6.351079e-06	9.605639e-09	4.415711e+01	6.313979e+02
1.870000e-06	6.301408e-06	9.567283e-09	4.381176e+01	6.290791e+02
1.880000e-06	6.249537e-06	9.542239e-09	4.345112e+01	6.265768e+02
1.890000e-06	6.195003e-06	9.540678e-09	4.307196e+01	6.238881e+02
1.900000e-06	6.137927e-06	9.484605e-09	4.267513e+01	6.210140e+02
1.910000e-06	6.078607e-06	9.436468e-09	4.226270e+01	6.179592e+02
1.920000e-06	6.016923e-06	9.371605e-09	4.183383e+01	6.147315e+02
1.930000e-06	5.953040e-06	9.315323e-09	4.138967e+01	6.113409e+02
1.940000e-06	5.886992e-06	9.287228e-09	4.093046e+01	6.077985e+02
1.950000e-06	5.818842e-06	9.220367e-09	4.045662e+01	6.041159e+02
1.960000e-06	5.748392e-06	9.162565e-09	3.996681e+01	6.003035e+02
1.970000e-06	5.675607e-06	9.098151e-09	3.946076e+01	5.963701e+02
1.980000e-06	5.600745e-06	9.042290e-09	3.894027e+01	5.923218e+02
1.990000e-06	5.523677e-06	8.991277e-09	3.840443e+01	5.881618e+02
2.000000e-06	5.444436e-06	8.913855e-09	3.785350e+01	5.838897e+02
2.010000e-06	5.363235e-06	8.845423e-09	3.728893e+01	5.795020e+02
2.020000e-06	5.280250e-06	8.764326e-09	3.671196e+01	5.749921e+02
2.030000e-06	5.195408e-06	8.694899e-09	3.612208e+01	5.703517e+02
2.040000e-06	5.108506e-06	8.634887e-09	3.551788e+01	5.655709e+02
2.050000e-06	5.019764e-06	8.563810e-09	3.490088e+01	5.606399e+02
2.060000e-06	4.929482e-06	8.483456e-09	3.427318e+01	5.555497e+02
2.070000e-06	4.837634e-06	8.393010e-09	3.363459e+01	5.502932e+02
2.080000e-06	4.744006e-06	8.311675e-09	3.298362e+01	5.448657e+02
2.090000e-06	4.648582e-06	8.232878e-09	3.232017e+01	5.392655e+02
2.100000e-06	4.551566e-06	8.152687e-09	3.164565e+01	5.334936e+02
2.110000e-06	4.453085e-06	8.061513e-09	3.096094e+01	5.275537e+02
2.120000e-06	4.353091e-06	7.966191e-09	3.026571e+01	5.214507e+02
2.130000e-06	4.251546e-06	7.866071e-09	2.955970e+01	5.151902e+02
2.140000e-06	4.148351e-06	7.763949e-09	2.884221e+01	5.087772e+02
2.150000e-06	4.043572e-06	7.668350e-09	2.811372e+01	5.022150e+02
2.160000e-06	3.937477e-06	7.572388e-09	2.737607e+01	4.955042e+02
2.170000e-06	3.830032e-06	7.475934e-09	2.662904e+01	4.886420e+02
2.180000e-06	3.721177e-06	7.368381e-09	2.587221e+01	4.816225e+02
2.190000e-06	3.610905e-06	7.257901e-09	2.510552e+01	4.744367e+02
2.200000e-06	3.499286e-06	7.148539e-09	2.432946e+01	4.670735e+02
2.210000e-06	3.386357e-06	7.032042e-09	2.354431e+01	4.595206e+02
2.220000e-06	3.272078e-06	6.906880e-09	2.274976e+01	4.517660e+02
2.230000e-06	3.156472e-06	6.781224e-09	2.194599e+01	4.437993e+02
2.240000e-06	3.039570e-06	6.658601e-09	2.113320e+01	4.356125e+02
2.250000e-06	2.921468e-06	6.535885e-09	2.031207e+01	4.272010e+02
2.260000e-06	2.802183e-06	6.409570e-09	1.948272e+01	4.185636e+02
2.270000e-06	2.681755e-06	6.278200e-09	1.864542e+01	4.097018e+02
2.280000e-06	2.560368e-06	6.142292e-09	1.780146e+01	4.006196e+02
2.290000e-06	2.438170e-06	6.000222e-09	1.695185e+01	3.913212e+02
2.300000e-06	2.315154e-06	5.858487e-09	1.609656e+01	3.818101e+02
2.310000e-06	2.191378e-06	5.717594e-09	1.523598e+01	3.720872e+02
2.320000e-06	2.066834e-06	5.569615e-09	1.437007e+01	3.621497e+02
2.330000e-06	1.941543e-06	5.408662e-09	1.349895e+01	3.519902e+02
2.340000e-06	1.815607e-06	5.242238e-09	1.262336e+01	3.415964e+02
2.350000e-06	1.689058e-06	5.076444e-09	1.174350e+01	3.309519e+02
2.360000e-06	1.561932e-06	4.910419e-09	1.085964e+01	3.200370e+02
2.370000e-06	1.434181e-06	4.742875e-09	9.971424e+00	3.088310e+02
2.380000e-06	1.305858e-06	4.570185e-09	9.079229e+00	2.973137e+02
2.390000e-06	1.177111e-06	4.390697e-09	8.184095e+00	2.854671e+02
2.400000e-06	1.048036e-06	4.202788e-09	7.286673e+00	2.732775e+02
2.410000e-06	9.186410e-07	4.011970e-09	6.387030e+00	2.607359e+02
2.420000e-06	7.889896e-07	3.817869e-09	5.485603e+00	2.478381e+02
2.430000e-06	6.591637e-07	3.616846e-09	4.582963e+00	2.345836e+02
2.440000e-06	5.291561e-07	3.410632e-09	3.679061e+00	2.209735e+02
2.450000e-06	3.989785e-07	3.198202e-09	2.773976e+00	2.070082e+02
2.460000e-06	2.686238e-07	2.979684e-09	1.867659e+00	1.926842e+02
2.470000e-06	1.381187e-07	2.753181e-09	9.602973e-01	1.779912e+02
2.480000e-06	7.506773e-09	2.519972e-09	5.219230e-02	1.629096e+02
2.490000e-06	-1.231192e-07	2.281822e-09	-8.560098e-01	1.474097e+02
2.500000e-06	-2.536914e-07	2.034151e-09	-1.763839e+00	1.314514e+02
2.510000e-06	-3.841541e-07	1.778320e-09	-2.670906e+00	1.149861e+02
2.520000e-06	-5.144681e-07	1.516275e-09	-3.576939e+00	9.796030e+01
2.530000e-06	-6.446458e-07	1.247847e-09	-4.482025e+00	8.032050e+01
2.540000e-06	-7.746610e-07	9.711385e-10	-5.385981e+00	6.201927e+01
2.550000e-06	-9.044625e-07	6.814047e-10	-6.288451e+00	4.302190e+01
2.560000e-06	-1.033960e-06	3.805993e-10	-7.188805e+00	2.331292e+01
2.570000e-06	-1.163149e-06	7.375442e-11	-8.087020e+00	2.901759e+00
2.580000e-06	-1.291993e-06	-2.419639e-10	-8.982829e+00	-1.817315e+01
2.590000e-06	-1.420412e-06	-5.721977e-10	-9.875693e+00	-3.984231e+01
2.600000e-06	-1.548263e-06	-9.134133e-10	-1.076460e+01	-6.200556e+01
2.610000e-06	-1.675452e-06	-1.260788e-09	-1.164891e+01	-8.453499e+01
2.620000e-06	-1.801917e-06	-1.614427e-09	-1.252818e+01	-1.072803e+02
2.630000e-06	-1.927665e-06	-1.969675e-09	-1.340246e+01	-1.300759e+02
2.640000e-06	-2.052773e-06	-2.320413e-09	-1.427230e+01	-1.527499e+02
2.650000e-06	-2.177046e-06	-2.661315e-09	-1.513634e+01	-1.751331e+02
2.660000e-06	-2.300403e-06	-2.994464e-09	-1.599400e+01	-1.970679e+02
2.670000e-06	-2.422820e-06	-3.318094e-09	-1.684513e+01	-2.184163e+02
2.680000e-06	-2.544333e-06	-3.629464e-09	-1.768997e+01	-2.390662e+02
2.690000e-06	-2.664990e-06	-3.930571e-09	-1.852886e+01	-2.589350e+02
2.700000e-06	-2.784620e-06	-4.220151e-09	-1.936061e+01	-2.779715e+02
2.710000e-06	-2.903171e-06	-4.500553e-09	-2.018486e+01	-2.961545e+02
2.720000e-06	-3.020588e-06	-4.768127e-09	-2.100122e+01	-3.134897e+02
2.730000e-06	-3.136773e-06	-5.021700e-09	-2.180903e+01	-3.300050e+02
2.740000e-06	-3.251712e-06	-5.264144e-09	-2.260816e+01	-3.457439e+02
2.750000e-06	-3.365333e-06	-5.496538e-09	-2.339813e+01	-3.607597e+02
2.760000e-06	-3.477618e-06	-5.720542e-09	-2.417882e+01	-3.751089e+02
2.770000e-06	-3.588482e-06	-5.934172e-09	-2.494962e+01	-3.888456e+02
2.780000e-06	-3.698031e-06	-6.138646e-09	-2.571128e+01	-4.020182e+02
2.790000e-06	-3.806445e-06	-6.334789e-09	-2.646505e+01	-4.146660e+02
2.800000e-06	-3.913640e-06	-6.523896e-09	-2.721034e+01	-4.268189e+02
2.810000e-06	-4.019574e-06	-6.704736e-09	-2.794687e+01	-4.384975e+02
2.820000e-06	-4.124132e-06	-6.873151e-09	-2.867383e+01	-4.497149e+02
2.830000e-06	-4.227088e-06	-7.032967e-09	-2.938965e+01	-4.604790e+02
2.840000e-06	-4.328348e-06	-7.186159e-09	-3.009368e+01	-4.707950e+02
2.850000e-06	-4.428079e-06	-7.334408e-09	-3.078708e+01	-4.806683e+02
2.860000e-06	-4.526385e-06	-7.477820e-09	-3.147057e+01	-4.901059e+02
2.870000e-06	-4.623119e-06	-7.615707e-09	-3.214313e+01	-4.991183e+02
2.880000e-06	-4.718117e-06	-7.748815e-09	-3.280362e+01	-5.077194e+02
2.890000e-06	-4.811345e-06	-7.877678e-09	-3.345181e+01	-5.159269e+02
2.900000e-06	-4.902898e-06	-8.002483e-09	-3.408835e+01	-5.237608e+02
2.910000e-06	-4.992811e-06	-8.120174e-09	-3.471349e+01	-5.312428e+02
2.920000e-06	-5.080956e-06	-8.230077e-09	-3.532633e+01	-5.383940e+02
2.930000e-06	-5.167158e-06	-8.332163e-09	-3.592566e+01	-5.452346e+02
2.940000e-06	-5.251396e-06	-8.428352e-09	-3.651135e+01	-5.517824e+02
