# Temperatura_=_42.16
# Concentracion g/m^3_=_15000.0
# C_Vs_to_Am_M_A/Vsm_=_65563218390.804596
# pendiente_HvsI_1/m_=_3716.3
# ordenada_HvsI_A/m_=_1297.0
# frecuencia_Hz_=_301892.6392329155

Tiempo_(s)	Campo_(V.s)	Magnetizacion_(V.s)	Campo_(kA/m)	Magnetizacion_(A/m)
0.000000e+00	-6.830066e-06	-8.455237e-09	-4.750536e+01	-5.529046e+02
1.000000e-08	-6.827705e-06	-8.456459e-09	-4.748894e+01	-5.527738e+02
2.000000e-08	-6.823069e-06	-8.455920e-09	-4.745669e+01	-5.525366e+02
3.000000e-08	-6.816318e-06	-8.452541e-09	-4.740973e+01	-5.521960e+02
4.000000e-08	-6.807309e-06	-8.449232e-09	-4.734708e+01	-5.517579e+02
5.000000e-08	-6.795864e-06	-8.440342e-09	-4.726747e+01	-5.512308e+02
6.000000e-08	-6.781903e-06	-8.428392e-09	-4.717037e+01	-5.506248e+02
7.000000e-08	-6.765519e-06	-8.408104e-09	-4.705641e+01	-5.499510e+02
8.000000e-08	-6.746958e-06	-8.379272e-09	-4.692732e+01	-5.492202e+02
9.000000e-08	-6.726177e-06	-8.412864e-09	-4.678278e+01	-5.484415e+02
1.000000e-07	-6.702773e-06	-8.439084e-09	-4.662000e+01	-5.476213e+02
1.100000e-07	-6.676538e-06	-8.381203e-09	-4.643752e+01	-5.467623e+02
1.200000e-07	-6.647758e-06	-8.346888e-09	-4.623735e+01	-5.458635e+02
1.300000e-07	-6.616885e-06	-8.346222e-09	-4.602262e+01	-5.449195e+02
1.400000e-07	-6.584155e-06	-8.251823e-09	-4.579497e+01	-5.439213e+02
1.500000e-07	-6.549545e-06	-8.233439e-09	-4.555424e+01	-5.428570e+02
1.600000e-07	-6.512891e-06	-8.368626e-09	-4.529930e+01	-5.417129e+02
1.700000e-07	-6.474162e-06	-8.196935e-09	-4.502993e+01	-5.404743e+02
1.800000e-07	-6.433195e-06	-8.190610e-09	-4.474499e+01	-5.391274e+02
1.900000e-07	-6.389739e-06	-8.254460e-09	-4.444274e+01	-5.376602e+02
2.000000e-07	-6.343915e-06	-8.116755e-09	-4.412402e+01	-5.360629e+02
2.100000e-07	-6.295671e-06	-8.217072e-09	-4.378847e+01	-5.343294e+02
2.200000e-07	-6.244760e-06	-8.188884e-09	-4.343436e+01	-5.324566e+02
2.300000e-07	-6.191326e-06	-8.098135e-09	-4.306272e+01	-5.304452e+02
2.400000e-07	-6.135533e-06	-8.055558e-09	-4.267465e+01	-5.282983e+02
2.500000e-07	-6.077359e-06	-7.988115e-09	-4.227004e+01	-5.260218e+02
2.600000e-07	-6.016896e-06	-7.992571e-09	-4.184949e+01	-5.236226e+02
2.700000e-07	-5.954277e-06	-7.949638e-09	-4.141396e+01	-5.211084e+02
2.800000e-07	-5.889492e-06	-7.898479e-09	-4.096336e+01	-5.184867e+02
2.900000e-07	-5.822481e-06	-7.828642e-09	-4.049727e+01	-5.157641e+02
3.000000e-07	-5.753314e-06	-7.774225e-09	-4.001619e+01	-5.129456e+02
3.100000e-07	-5.682024e-06	-7.782594e-09	-3.952035e+01	-5.100349e+02
3.200000e-07	-5.608503e-06	-7.737949e-09	-3.900899e+01	-5.070333e+02
3.300000e-07	-5.532707e-06	-7.719349e-09	-3.848180e+01	-5.039407e+02
3.400000e-07	-5.454733e-06	-7.640877e-09	-3.793946e+01	-5.007550e+02
3.500000e-07	-5.374627e-06	-7.555888e-09	-3.738230e+01	-4.974731e+02
3.600000e-07	-5.292556e-06	-7.523688e-09	-3.681147e+01	-4.940905e+02
3.700000e-07	-5.208768e-06	-7.479584e-09	-3.622870e+01	-4.906024e+02
3.800000e-07	-5.123257e-06	-7.439280e-09	-3.563394e+01	-4.870035e+02
3.900000e-07	-5.036007e-06	-7.355006e-09	-3.502709e+01	-4.832886e+02
4.000000e-07	-4.947013e-06	-7.290205e-09	-3.440810e+01	-4.794530e+02
4.100000e-07	-4.856173e-06	-7.230112e-09	-3.377628e+01	-4.754922e+02
4.200000e-07	-4.763608e-06	-7.182261e-09	-3.313246e+01	-4.714026e+02
4.300000e-07	-4.669500e-06	-7.124475e-09	-3.247791e+01	-4.671815e+02
4.400000e-07	-4.573737e-06	-7.035651e-09	-3.181184e+01	-4.628266e+02
4.500000e-07	-4.476179e-06	-6.958501e-09	-3.113330e+01	-4.583368e+02
4.600000e-07	-4.376915e-06	-6.881457e-09	-3.044289e+01	-4.537111e+02
4.700000e-07	-4.276195e-06	-6.827394e-09	-2.974234e+01	-4.489490e+02
4.800000e-07	-4.174047e-06	-6.771254e-09	-2.903188e+01	-4.440500e+02
4.900000e-07	-4.070478e-06	-6.693344e-09	-2.831152e+01	-4.390134e+02
5.000000e-07	-3.965439e-06	-6.590780e-09	-2.758094e+01	-4.338379e+02
5.100000e-07	-3.858725e-06	-6.501375e-09	-2.683870e+01	-4.285216e+02
5.200000e-07	-3.750547e-06	-6.429549e-09	-2.608629e+01	-4.230614e+02
5.300000e-07	-3.641173e-06	-6.349477e-09	-2.532556e+01	-4.174534e+02
5.400000e-07	-3.530537e-06	-6.255682e-09	-2.455605e+01	-4.116929e+02
5.500000e-07	-3.418572e-06	-6.150405e-09	-2.377729e+01	-4.057743e+02
5.600000e-07	-3.305196e-06	-6.053475e-09	-2.298873e+01	-3.996918e+02
5.700000e-07	-3.190361e-06	-5.958843e-09	-2.219001e+01	-3.934395e+02
5.800000e-07	-3.074130e-06	-5.873034e-09	-2.138158e+01	-3.870121e+02
5.900000e-07	-2.956689e-06	-5.780699e-09	-2.056475e+01	-3.804048e+02
6.000000e-07	-2.838208e-06	-5.674289e-09	-1.974067e+01	-3.736134e+02
6.100000e-07	-2.718779e-06	-5.557935e-09	-1.891000e+01	-3.666349e+02
6.200000e-07	-2.598421e-06	-5.447196e-09	-1.807287e+01	-3.594666e+02
6.300000e-07	-2.477017e-06	-5.339353e-09	-1.722847e+01	-3.521060e+02
6.400000e-07	-2.354588e-06	-5.220270e-09	-1.637694e+01	-3.445502e+02
6.500000e-07	-2.231237e-06	-5.094820e-09	-1.551899e+01	-3.367952e+02
6.600000e-07	-2.107089e-06	-4.968222e-09	-1.465550e+01	-3.288350e+02
6.700000e-07	-1.982331e-06	-4.845724e-09	-1.378776e+01	-3.206617e+02
6.800000e-07	-1.857014e-06	-4.722403e-09	-1.291614e+01	-3.122647e+02
6.900000e-07	-1.731043e-06	-4.598134e-09	-1.203997e+01	-3.036309e+02
7.000000e-07	-1.604397e-06	-4.462643e-09	-1.115911e+01	-2.947451e+02
7.100000e-07	-1.477221e-06	-4.317345e-09	-1.027456e+01	-2.855910e+02
7.200000e-07	-1.349613e-06	-4.170477e-09	-9.387001e+00	-2.761517e+02
7.300000e-07	-1.221610e-06	-4.022647e-09	-8.496698e+00	-2.664115e+02
7.400000e-07	-1.093260e-06	-3.871122e-09	-7.603986e+00	-2.563565e+02
7.500000e-07	-9.645237e-07	-3.711599e-09	-6.708580e+00	-2.459757e+02
7.600000e-07	-8.354002e-07	-3.544409e-09	-5.810484e+00	-2.352616e+02
7.700000e-07	-7.059790e-07	-3.370676e-09	-4.910316e+00	-2.242100e+02
7.800000e-07	-5.762949e-07	-3.195665e-09	-4.008321e+00	-2.128195e+02
7.900000e-07	-4.463601e-07	-3.020047e-09	-3.104581e+00	-2.010903e+02
8.000000e-07	-3.162138e-07	-2.842817e-09	-2.199371e+00	-1.890222e+02
8.100000e-07	-1.858541e-07	-2.658116e-09	-1.292677e+00	-1.766128e+02
8.200000e-07	-5.534479e-08	-2.464229e-09	-3.849413e-01	-1.638554e+02
8.300000e-07	7.517936e-08	-2.264912e-09	5.228972e-01	-1.507371e+02
8.400000e-07	2.057019e-07	-2.060986e-09	1.430725e+00	-1.372377e+02
8.500000e-07	3.361722e-07	-1.850402e-09	2.338188e+00	-1.233298e+02
8.600000e-07	4.665594e-07	-1.629870e-09	3.245075e+00	-1.089793e+02
8.700000e-07	5.967908e-07	-1.400399e-09	4.150877e+00	-9.414772e+01
8.800000e-07	7.267745e-07	-1.163685e-09	5.054956e+00	-7.879556e+01
8.900000e-07	8.564869e-07	-9.226628e-10	5.957149e+00	-6.288659e+01
9.000000e-07	9.858003e-07	-6.768135e-10	6.856566e+00	-4.639274e+01
9.100000e-07	1.114676e-06	-4.210403e-10	7.752936e+00	-2.929921e+01
9.200000e-07	1.243180e-06	-1.542635e-10	8.646725e+00	-1.160912e+01
9.300000e-07	1.371260e-06	1.215172e-10	9.537566e+00	6.652561e+00
9.400000e-07	1.498939e-06	4.052751e-10	1.042562e+01	2.543667e+01
9.500000e-07	1.626164e-06	6.964610e-10	1.131051e+01	4.466911e+01
9.600000e-07	1.752762e-06	9.935624e-10	1.219104e+01	6.425210e+01
9.700000e-07	1.878692e-06	1.297158e-09	1.306692e+01	8.406743e+01
9.800000e-07	2.003972e-06	1.605621e-09	1.393829e+01	1.039814e+02
9.900000e-07	2.128583e-06	1.913952e-09	1.480499e+01	1.238513e+02
1.000000e-06	2.252503e-06	2.216349e-09	1.566690e+01	1.435325e+02
1.010000e-06	2.375664e-06	2.510359e-09	1.652352e+01	1.628861e+02
1.020000e-06	2.497823e-06	2.796446e-09	1.737318e+01	1.817857e+02
1.030000e-06	2.618882e-06	3.072413e-09	1.821518e+01	2.001237e+02
1.040000e-06	2.738997e-06	3.337083e-09	1.905063e+01	2.178153e+02
1.050000e-06	2.858143e-06	3.591664e-09	1.987932e+01	2.348014e+02
1.060000e-06	2.976246e-06	3.835790e-09	2.070077e+01	2.510486e+02
1.070000e-06	3.093287e-06	4.068472e-09	2.151483e+01	2.665479e+02
1.080000e-06	3.209186e-06	4.292558e-09	2.232094e+01	2.813111e+02
1.090000e-06	3.323764e-06	4.505044e-09	2.311787e+01	2.953666e+02
1.100000e-06	3.436899e-06	4.706040e-09	2.390476e+01	3.087537e+02
1.110000e-06	3.548711e-06	4.898467e-09	2.468246e+01	3.215174e+02
1.120000e-06	3.659290e-06	5.085068e-09	2.545157e+01	3.337030e+02
1.130000e-06	3.768684e-06	5.265515e-09	2.621244e+01	3.453523e+02
1.140000e-06	3.876967e-06	5.438381e-09	2.696558e+01	3.565002e+02
1.150000e-06	3.984043e-06	5.603385e-09	2.771033e+01	3.671736e+02
1.160000e-06	4.089563e-06	5.759365e-09	2.844426e+01	3.773910e+02
1.170000e-06	4.193461e-06	5.907222e-09	2.916690e+01	3.871637e+02
1.180000e-06	4.295851e-06	6.046951e-09	2.987906e+01	3.964978e+02
1.190000e-06	4.396771e-06	6.181264e-09	3.058099e+01	4.053969e+02
1.200000e-06	4.496264e-06	6.308706e-09	3.127300e+01	4.138643e+02
1.210000e-06	4.594043e-06	6.427292e-09	3.195308e+01	4.219062e+02
1.220000e-06	4.689955e-06	6.540569e-09	3.262018e+01	4.295327e+02
1.230000e-06	4.784197e-06	6.651221e-09	3.327567e+01	4.367593e+02
1.240000e-06	4.876887e-06	6.758970e-09	3.392036e+01	4.436067e+02
1.250000e-06	4.968017e-06	6.859692e-09	3.455419e+01	4.501003e+02
1.260000e-06	5.057279e-06	6.954578e-09	3.517504e+01	4.562688e+02
1.270000e-06	5.144548e-06	7.044511e-09	3.578203e+01	4.621420e+02
1.280000e-06	5.230019e-06	7.129211e-09	3.637651e+01	4.677491e+02
1.290000e-06	5.313759e-06	7.210229e-09	3.695894e+01	4.731169e+02
1.300000e-06	5.395578e-06	7.286230e-09	3.752802e+01	4.782680e+02
1.310000e-06	5.475340e-06	7.359075e-09	3.808279e+01	4.832203e+02
1.320000e-06	5.553102e-06	7.427517e-09	3.862365e+01	4.879862e+02
1.330000e-06	5.628879e-06	7.493869e-09	3.915071e+01	4.925731e+02
1.340000e-06	5.702476e-06	7.561247e-09	3.966260e+01	4.969845e+02
1.350000e-06	5.773873e-06	7.628189e-09	4.015919e+01	5.012206e+02
1.360000e-06	5.843193e-06	7.691684e-09	4.064133e+01	5.052800e+02
1.370000e-06	5.910479e-06	7.749528e-09	4.110933e+01	5.091606e+02
1.380000e-06	5.975628e-06	7.804038e-09	4.156246e+01	5.128611e+02
1.390000e-06	6.038590e-06	7.856518e-09	4.200038e+01	5.163812e+02
1.400000e-06	6.099578e-06	7.906901e-09	4.242457e+01	5.197222e+02
1.410000e-06	6.158572e-06	7.954029e-09	4.283490e+01	5.228868e+02
1.420000e-06	6.215340e-06	7.995988e-09	4.322974e+01	5.258790e+02
1.430000e-06	6.269836e-06	8.036632e-09	4.360877e+01	5.287030e+02
1.440000e-06	6.321995e-06	8.077305e-09	4.397156e+01	5.313632e+02
1.450000e-06	6.371462e-06	8.116398e-09	4.431562e+01	5.338633e+02
1.460000e-06	6.418406e-06	8.152664e-09	4.464213e+01	5.362064e+02
1.470000e-06	6.463244e-06	8.184088e-09	4.495399e+01	5.383945e+02
1.480000e-06	6.505890e-06	8.212712e-09	4.525061e+01	5.404290e+02
1.490000e-06	6.546102e-06	8.240826e-09	4.553030e+01	5.423110e+02
1.500000e-06	6.583973e-06	8.266519e-09	4.579370e+01	5.440421e+02
1.510000e-06	6.619742e-06	8.287896e-09	4.604249e+01	5.456243e+02
1.520000e-06	6.653144e-06	8.306986e-09	4.627481e+01	5.470614e+02
1.530000e-06	6.684028e-06	8.324632e-09	4.648961e+01	5.483584e+02
1.540000e-06	6.712708e-06	8.342400e-09	4.668910e+01	5.495218e+02
1.550000e-06	6.739060e-06	8.359650e-09	4.687238e+01	5.505595e+02
1.560000e-06	6.762796e-06	8.374185e-09	4.703747e+01	5.514799e+02
1.570000e-06	6.784105e-06	8.386561e-09	4.718568e+01	5.522912e+02
1.580000e-06	6.803157e-06	8.397689e-09	4.731820e+01	5.530008e+02
1.590000e-06	6.819715e-06	8.407107e-09	4.743336e+01	5.536147e+02
1.600000e-06	6.833678e-06	8.414750e-09	4.753048e+01	5.541363e+02
1.610000e-06	6.845059e-06	8.421782e-09	4.760964e+01	5.545670e+02
1.620000e-06	6.853754e-06	8.427262e-09	4.767012e+01	5.549059e+02
1.630000e-06	6.859950e-06	8.431609e-09	4.771321e+01	5.551500e+02
1.640000e-06	6.863869e-06	8.436132e-09	4.774047e+01	5.552957e+02
1.650000e-06	6.865347e-06	8.438939e-09	4.775075e+01	5.553389e+02
1.660000e-06	6.864370e-06	8.441667e-09	4.774395e+01	5.552765e+02
1.670000e-06	6.861171e-06	8.433887e-09	4.772171e+01	5.551073e+02
1.680000e-06	6.855679e-06	8.429070e-09	4.768351e+01	5.548324e+02
1.690000e-06	6.847857e-06	8.424814e-09	4.762910e+01	5.544559e+02
1.700000e-06	6.837850e-06	8.418853e-09	4.755950e+01	5.539847e+02
1.710000e-06	6.825634e-06	8.414330e-09	4.747453e+01	5.534278e+02
1.720000e-06	6.811042e-06	8.411716e-09	4.737304e+01	5.527961e+02
1.730000e-06	6.794178e-06	8.426003e-09	4.725574e+01	5.521005e+02
1.740000e-06	6.775152e-06	8.361840e-09	4.712342e+01	5.513514e+02
1.750000e-06	6.753321e-06	8.304288e-09	4.697158e+01	5.505571e+02
1.760000e-06	6.728132e-06	8.340733e-09	4.679637e+01	5.497226e+02
1.770000e-06	6.700208e-06	8.327048e-09	4.660216e+01	5.488495e+02
1.780000e-06	6.670174e-06	8.307725e-09	4.639326e+01	5.479351e+02
1.790000e-06	6.638365e-06	8.420142e-09	4.617201e+01	5.469727e+02
1.800000e-06	6.605113e-06	8.296946e-09	4.594074e+01	5.459521e+02
1.810000e-06	6.569756e-06	8.241273e-09	4.569482e+01	5.448607e+02
1.820000e-06	6.531849e-06	8.361891e-09	4.543116e+01	5.436842e+02
1.830000e-06	6.491763e-06	8.194218e-09	4.515235e+01	5.424082e+02
1.840000e-06	6.449479e-06	8.286211e-09	4.485825e+01	5.410193e+02
1.850000e-06	6.405082e-06	8.253798e-09	4.454946e+01	5.395063e+02
1.860000e-06	6.358394e-06	8.080062e-09	4.422472e+01	5.378607e+02
1.870000e-06	6.309217e-06	8.195159e-09	4.388268e+01	5.360773e+02
1.880000e-06	6.257831e-06	8.067711e-09	4.352528e+01	5.341545e+02
1.890000e-06	6.203843e-06	8.127798e-09	4.314977e+01	5.320940e+02
1.900000e-06	6.147229e-06	8.150095e-09	4.275600e+01	5.298998e+02
1.910000e-06	6.088346e-06	7.999479e-09	4.234646e+01	5.275783e+02
1.920000e-06	6.027158e-06	8.052820e-09	4.192087e+01	5.251369e+02
1.930000e-06	5.963754e-06	7.916894e-09	4.147988e+01	5.225832e+02
1.940000e-06	5.898211e-06	7.954328e-09	4.102400e+01	5.199245e+02
1.950000e-06	5.830570e-06	7.938478e-09	4.055353e+01	5.171669e+02
1.960000e-06	5.760678e-06	7.840420e-09	4.006741e+01	5.143149e+02
1.970000e-06	5.688443e-06	7.824568e-09	3.956499e+01	5.113714e+02
1.980000e-06	5.614050e-06	7.677397e-09	3.904757e+01	5.083372e+02
1.990000e-06	5.537439e-06	7.725794e-09	3.851472e+01	5.052113e+02
2.000000e-06	5.458623e-06	7.671489e-09	3.796652e+01	5.019914e+02
2.010000e-06	5.377806e-06	7.617858e-09	3.740441e+01	4.986738e+02
2.020000e-06	5.295180e-06	7.576656e-09	3.682972e+01	4.952539e+02
2.030000e-06	5.210759e-06	7.473983e-09	3.624254e+01	4.917265e+02
2.040000e-06	5.124356e-06	7.448783e-09	3.564159e+01	4.880865e+02
2.050000e-06	5.036101e-06	7.367726e-09	3.502774e+01	4.843288e+02
2.060000e-06	4.946208e-06	7.363669e-09	3.440250e+01	4.804486e+02
2.070000e-06	4.854714e-06	7.278738e-09	3.376613e+01	4.764420e+02
2.080000e-06	4.761561e-06	7.198757e-09	3.311822e+01	4.723054e+02
2.090000e-06	4.666635e-06	7.136700e-09	3.245798e+01	4.680365e+02
2.100000e-06	4.569982e-06	7.083989e-09	3.178573e+01	4.636333e+02
2.110000e-06	4.471827e-06	7.048128e-09	3.110303e+01	4.590947e+02
2.120000e-06	4.372247e-06	6.942713e-09	3.041042e+01	4.544201e+02
2.130000e-06	4.271125e-06	6.861861e-09	2.970708e+01	4.496089e+02
2.140000e-06	4.168335e-06	6.772450e-09	2.899214e+01	4.446606e+02
2.150000e-06	4.063901e-06	6.711491e-09	2.826577e+01	4.395743e+02
2.160000e-06	3.958099e-06	6.642828e-09	2.752988e+01	4.343486e+02
2.170000e-06	3.850979e-06	6.576562e-09	2.678483e+01	4.289810e+02
2.180000e-06	3.742493e-06	6.479284e-09	2.603027e+01	4.234682e+02
2.190000e-06	3.632647e-06	6.374733e-09	2.526625e+01	4.178061e+02
2.200000e-06	3.521342e-06	6.292484e-09	2.449209e+01	4.119895e+02
2.210000e-06	3.408638e-06	6.221495e-09	2.370820e+01	4.060127e+02
2.220000e-06	3.294664e-06	6.144555e-09	2.291548e+01	3.998700e+02
2.230000e-06	3.179406e-06	6.027249e-09	2.211382e+01	3.935556e+02
2.240000e-06	3.062784e-06	5.913027e-09	2.130267e+01	3.870641e+02
2.250000e-06	2.944917e-06	5.804578e-09	2.048287e+01	3.803912e+02
2.260000e-06	2.825804e-06	5.713458e-09	1.965440e+01	3.735331e+02
2.270000e-06	2.705564e-06	5.617360e-09	1.881809e+01	3.664868e+02
2.280000e-06	2.584429e-06	5.514320e-09	1.797556e+01	3.592498e+02
2.290000e-06	2.462408e-06	5.396182e-09	1.712686e+01	3.518197e+02
2.300000e-06	2.339519e-06	5.275832e-09	1.627213e+01	3.441930e+02
2.310000e-06	2.215870e-06	5.163348e-09	1.541210e+01	3.363652e+02
2.320000e-06	2.091585e-06	5.050793e-09	1.454766e+01	3.283297e+02
2.330000e-06	1.966613e-06	4.922196e-09	1.367844e+01	3.200776e+02
2.340000e-06	1.840928e-06	4.776300e-09	1.280426e+01	3.115973e+02
2.350000e-06	1.714539e-06	4.634808e-09	1.192518e+01	3.028751e+02
2.360000e-06	1.587447e-06	4.500298e-09	1.104122e+01	2.938951e+02
2.370000e-06	1.459760e-06	4.372299e-09	1.015311e+01	2.846408e+02
2.380000e-06	1.331569e-06	4.234877e-09	9.261504e+00	2.750956e+02
2.390000e-06	1.202938e-06	4.081933e-09	8.366830e+00	2.652441e+02
2.400000e-06	1.073961e-06	3.918918e-09	7.469756e+00	2.550735e+02
2.410000e-06	9.446894e-07	3.759663e-09	6.570626e+00	2.445741e+02
2.420000e-06	8.151809e-07	3.603786e-09	5.669852e+00	2.337395e+02
2.430000e-06	6.854539e-07	3.437827e-09	4.767558e+00	2.225667e+02
2.440000e-06	5.555190e-07	3.257277e-09	3.863818e+00	2.110549e+02
2.450000e-06	4.254460e-07	3.067562e-09	2.959117e+00	1.992045e+02
2.460000e-06	2.952159e-07	2.879152e-09	2.053324e+00	1.870147e+02
2.470000e-06	1.648265e-07	2.693137e-09	1.146423e+00	1.744818e+02
2.480000e-06	3.434117e-08	2.503713e-09	2.388542e-01	1.615971e+02
2.490000e-06	-9.617934e-08	2.305236e-09	-6.689590e-01	1.483451e+02
2.500000e-06	-2.266632e-07	2.090889e-09	-1.576517e+00	1.347031e+02
2.510000e-06	-3.570982e-07	1.865796e-09	-2.483736e+00	1.206411e+02
2.520000e-06	-4.874017e-07	1.639615e-09	-3.390039e+00	1.061230e+02
2.530000e-06	-6.175224e-07	1.412412e-09	-4.295072e+00	9.110970e+01
2.540000e-06	-7.475021e-07	1.176720e-09	-5.199123e+00	7.556225e+01
2.550000e-06	-8.773091e-07	9.260538e-10	-6.101974e+00	5.944678e+01
2.560000e-06	-1.006877e-06	6.671297e-10	-7.003163e+00	4.273935e+01
2.570000e-06	-1.136107e-06	4.057213e-10	-7.902001e+00	2.543107e+01
2.580000e-06	-1.264952e-06	1.385576e-10	-8.798159e+00	7.532489e+00
2.590000e-06	-1.393427e-06	-1.389965e-10	-9.691741e+00	-1.092299e+01
2.600000e-06	-1.521478e-06	-4.291806e-10	-1.058238e+01	-2.987726e+01
2.610000e-06	-1.648957e-06	-7.304931e-10	-1.146904e+01	-4.924754e+01
2.620000e-06	-1.775669e-06	-1.036836e-09	-1.235036e+01	-6.892827e+01
2.630000e-06	-1.901524e-06	-1.342205e-09	-1.322573e+01	-8.879506e+01
2.640000e-06	-2.026571e-06	-1.645977e-09	-1.409547e+01	-1.087102e+02
2.650000e-06	-2.150875e-06	-1.948513e-09	-1.496004e+01	-1.285294e+02
2.660000e-06	-2.274338e-06	-2.249036e-09	-1.581877e+01	-1.481093e+02
2.670000e-06	-2.396885e-06	-2.542957e-09	-1.667112e+01	-1.673147e+02
2.680000e-06	-2.518567e-06	-2.825605e-09	-1.751747e+01	-1.860252e+02
2.690000e-06	-2.639410e-06	-3.098271e-09	-1.835797e+01	-2.041411e+02
2.700000e-06	-2.759366e-06	-3.363998e-09	-1.919230e+01	-2.215865e+02
2.710000e-06	-2.878189e-06	-3.623522e-09	-2.001875e+01	-2.383114e+02
2.720000e-06	-2.995756e-06	-3.874015e-09	-2.083647e+01	-2.542916e+02
2.730000e-06	-3.112080e-06	-4.110404e-09	-2.164554e+01	-2.695260e+02
2.740000e-06	-3.227144e-06	-4.332708e-09	-2.244585e+01	-2.840327e+02
2.750000e-06	-3.340906e-06	-4.545508e-09	-2.323710e+01	-2.978449e+02
2.760000e-06	-3.453266e-06	-4.750657e-09	-2.401861e+01	-3.110044e+02
2.770000e-06	-3.564275e-06	-4.945929e-09	-2.479070e+01	-3.235568e+02
2.780000e-06	-3.674035e-06	-5.130198e-09	-2.555413e+01	-3.355466e+02
2.790000e-06	-3.782650e-06	-5.303726e-09	-2.630957e+01	-3.470135e+02
2.800000e-06	-3.890165e-06	-5.468651e-09	-2.705738e+01	-3.579895e+02
2.810000e-06	-3.996404e-06	-5.627382e-09	-2.779631e+01	-3.684986e+02
2.820000e-06	-4.101221e-06	-5.781214e-09	-2.852534e+01	-3.785565e+02
2.830000e-06	-4.204429e-06	-5.928762e-09	-2.924319e+01	-3.881723e+02
2.840000e-06	-4.305939e-06	-6.067348e-09	-2.994922e+01	-3.973510e+02
2.850000e-06	-4.405921e-06	-6.198471e-09	-3.064463e+01	-4.060957e+02
2.860000e-06	-4.504483e-06	-6.325497e-09	-3.133017e+01	-4.144105e+02
2.870000e-06	-4.601597e-06	-6.448932e-09	-3.200563e+01	-4.223029e+02
2.880000e-06	-4.697054e-06	-6.565707e-09	-3.266956e+01	-4.297848e+02
2.890000e-06	-4.790708e-06	-6.674447e-09	-3.332095e+01	-4.368735e+02
2.900000e-06	-4.882665e-06	-6.777983e-09	-3.396055e+01	-4.435918e+02
2.910000e-06	-4.972945e-06	-6.877240e-09	-3.458847e+01	-4.499661e+02
2.920000e-06	-5.061441e-06	-6.971589e-09	-3.520399e+01	-4.560260e+02
2.930000e-06	-5.147959e-06	-7.062199e-09	-3.580575e+01	-4.618011e+02
2.940000e-06	-5.232520e-06	-7.148117e-09	-3.639390e+01	-4.673201e+02
