# Temperatura_=_31.96
# Concentracion g/m^3_=_15000.0
# C_Vs_to_Am_M_A/Vsm_=_65563218390.804596
# pendiente_HvsI_1/m_=_3716.3
# ordenada_HvsI_A/m_=_1297.0
# frecuencia_Hz_=_301886.67223267147

Tiempo_(s)	Campo_(V.s)	Magnetizacion_(V.s)	Campo_(kA/m)	Magnetizacion_(A/m)
0.000000e+00	-6.828636e-06	-8.215448e-09	-4.749845e+01	-5.363362e+02
1.000000e-08	-6.825520e-06	-8.215046e-09	-4.747678e+01	-5.361561e+02
2.000000e-08	-6.820182e-06	-8.212019e-09	-4.743965e+01	-5.358767e+02
3.000000e-08	-6.812714e-06	-8.206427e-09	-4.738770e+01	-5.354997e+02
4.000000e-08	-6.802909e-06	-8.196307e-09	-4.731950e+01	-5.350301e+02
5.000000e-08	-6.790617e-06	-8.185271e-09	-4.723400e+01	-5.344755e+02
6.000000e-08	-6.775831e-06	-8.170143e-09	-4.713116e+01	-5.338459e+02
7.000000e-08	-6.758716e-06	-8.152946e-09	-4.701211e+01	-5.331523e+02
8.000000e-08	-6.739447e-06	-8.163391e-09	-4.687807e+01	-5.324063e+02
9.000000e-08	-6.717726e-06	-8.174059e-09	-4.672699e+01	-5.316181e+02
1.000000e-07	-6.693206e-06	-8.148403e-09	-4.655643e+01	-5.307957e+02
1.100000e-07	-6.665966e-06	-8.124501e-09	-4.636696e+01	-5.299441e+02
1.200000e-07	-6.636412e-06	-8.104543e-09	-4.616139e+01	-5.290640e+02
1.300000e-07	-6.604948e-06	-8.043733e-09	-4.594253e+01	-5.281523e+02
1.400000e-07	-6.571617e-06	-8.033535e-09	-4.571068e+01	-5.272016e+02
1.500000e-07	-6.536297e-06	-8.078192e-09	-4.546501e+01	-5.262014e+02
1.600000e-07	-6.498887e-06	-7.993071e-09	-4.520479e+01	-5.251385e+02
1.700000e-07	-6.459456e-06	-7.982358e-09	-4.493052e+01	-5.239986e+02
1.800000e-07	-6.417706e-06	-7.991314e-09	-4.464011e+01	-5.227675e+02
1.900000e-07	-6.373397e-06	-7.931589e-09	-4.433191e+01	-5.214320e+02
2.000000e-07	-6.326844e-06	-7.980130e-09	-4.400810e+01	-5.199811e+02
2.100000e-07	-6.277817e-06	-7.972300e-09	-4.366708e+01	-5.184069e+02
2.200000e-07	-6.226030e-06	-7.911569e-09	-4.330686e+01	-5.167044e+02
2.300000e-07	-6.171690e-06	-7.854869e-09	-4.292889e+01	-5.148722e+02
2.400000e-07	-6.115008e-06	-7.803346e-09	-4.253461e+01	-5.129118e+02
2.500000e-07	-6.056041e-06	-7.791067e-09	-4.212446e+01	-5.108268e+02
2.600000e-07	-5.994883e-06	-7.756604e-09	-4.169905e+01	-5.086226e+02
2.700000e-07	-5.931601e-06	-7.707680e-09	-4.125888e+01	-5.063055e+02
2.800000e-07	-5.866017e-06	-7.657778e-09	-4.080269e+01	-5.038813e+02
2.900000e-07	-5.798188e-06	-7.617258e-09	-4.033089e+01	-5.013555e+02
3.000000e-07	-5.728301e-06	-7.599225e-09	-3.984477e+01	-4.987321e+02
3.100000e-07	-5.656327e-06	-7.570168e-09	-3.934414e+01	-4.960138e+02
3.200000e-07	-5.582129e-06	-7.540734e-09	-3.882803e+01	-4.932013e+02
3.300000e-07	-5.505577e-06	-7.474460e-09	-3.829555e+01	-4.902940e+02
3.400000e-07	-5.426826e-06	-7.413993e-09	-3.774778e+01	-4.872900e+02
3.500000e-07	-5.345957e-06	-7.384395e-09	-3.718527e+01	-4.841863e+02
3.600000e-07	-5.263175e-06	-7.344711e-09	-3.660946e+01	-4.809792e+02
3.700000e-07	-5.178744e-06	-7.293239e-09	-3.602218e+01	-4.776648e+02
3.800000e-07	-5.092624e-06	-7.222824e-09	-3.542315e+01	-4.742393e+02
3.900000e-07	-5.004805e-06	-7.165269e-09	-3.481230e+01	-4.706988e+02
4.000000e-07	-4.915161e-06	-7.110282e-09	-3.418875e+01	-4.670401e+02
4.100000e-07	-4.823654e-06	-7.061430e-09	-3.355225e+01	-4.632602e+02
4.200000e-07	-4.730531e-06	-7.008099e-09	-3.290451e+01	-4.593564e+02
4.300000e-07	-4.635812e-06	-6.933894e-09	-3.224566e+01	-4.553265e+02
4.400000e-07	-4.539464e-06	-6.861454e-09	-3.157548e+01	-4.511683e+02
4.500000e-07	-4.441367e-06	-6.794189e-09	-3.089315e+01	-4.468798e+02
4.600000e-07	-4.341631e-06	-6.739477e-09	-3.019941e+01	-4.424590e+02
4.700000e-07	-4.240517e-06	-6.678279e-09	-2.949608e+01	-4.379034e+02
4.800000e-07	-4.137910e-06	-6.604336e-09	-2.878237e+01	-4.332103e+02
4.900000e-07	-4.033816e-06	-6.522865e-09	-2.805832e+01	-4.283769e+02
5.000000e-07	-3.928175e-06	-6.443336e-09	-2.732350e+01	-4.233996e+02
5.100000e-07	-3.820943e-06	-6.370670e-09	-2.657762e+01	-4.182745e+02
5.200000e-07	-3.712395e-06	-6.292326e-09	-2.582259e+01	-4.129973e+02
5.300000e-07	-3.602669e-06	-6.201282e-09	-2.505935e+01	-4.075634e+02
5.400000e-07	-3.491603e-06	-6.101219e-09	-2.428681e+01	-4.019682e+02
5.500000e-07	-3.379113e-06	-6.010865e-09	-2.350435e+01	-3.962068e+02
5.600000e-07	-3.265219e-06	-5.926915e-09	-2.271212e+01	-3.902748e+02
5.700000e-07	-3.149869e-06	-5.843037e-09	-2.190978e+01	-3.841682e+02
5.800000e-07	-3.033204e-06	-5.751750e-09	-2.109828e+01	-3.778836e+02
5.900000e-07	-2.915426e-06	-5.650949e-09	-2.027905e+01	-3.714182e+02
6.000000e-07	-2.796650e-06	-5.545518e-09	-1.945287e+01	-3.647697e+02
6.100000e-07	-2.676918e-06	-5.439763e-09	-1.862004e+01	-3.579364e+02
6.200000e-07	-2.556233e-06	-5.333405e-09	-1.778058e+01	-3.509165e+02
6.300000e-07	-2.434520e-06	-5.220159e-09	-1.693397e+01	-3.437081e+02
6.400000e-07	-2.311797e-06	-5.098566e-09	-1.608034e+01	-3.363081e+02
6.500000e-07	-2.188189e-06	-4.976960e-09	-1.522055e+01	-3.287123e+02
6.600000e-07	-2.063786e-06	-4.860943e-09	-1.435523e+01	-3.209144e+02
6.700000e-07	-1.938770e-06	-4.744118e-09	-1.348565e+01	-3.129060e+02
6.800000e-07	-1.813200e-06	-4.623947e-09	-1.261221e+01	-3.046764e+02
6.900000e-07	-1.687023e-06	-4.497951e-09	-1.173455e+01	-2.962128e+02
7.000000e-07	-1.560241e-06	-4.364160e-09	-1.085268e+01	-2.875004e+02
7.100000e-07	-1.432914e-06	-4.225471e-09	-9.967028e+00	-2.785240e+02
7.200000e-07	-1.305119e-06	-4.082423e-09	-9.078115e+00	-2.692678e+02
7.300000e-07	-1.176913e-06	-3.933351e-09	-8.186342e+00	-2.597174e+02
7.400000e-07	-1.048320e-06	-3.776682e-09	-7.291875e+00	-2.498602e+02
7.500000e-07	-9.193695e-07	-3.615212e-09	-6.394927e+00	-2.396861e+02
7.600000e-07	-7.901174e-07	-3.453017e-09	-5.495878e+00	-2.291882e+02
7.700000e-07	-6.606324e-07	-3.289776e-09	-4.595210e+00	-2.183625e+02
7.800000e-07	-5.309448e-07	-3.123578e-09	-3.693132e+00	-2.072070e+02
7.900000e-07	-4.010837e-07	-2.951656e-09	-2.789848e+00	-1.957213e+02
8.000000e-07	-2.710070e-07	-2.773573e-09	-1.885064e+00	-1.839041e+02
8.100000e-07	-1.407267e-07	-2.588192e-09	-9.788631e-01	-1.717520e+02
8.200000e-07	-1.038291e-08	-2.395789e-09	-7.222121e-02	-1.592578e+02
8.300000e-07	1.200192e-07	-2.198374e-09	8.348263e-01	-1.464085e+02
8.400000e-07	2.503639e-07	-1.996743e-09	1.741475e+00	-1.331847e+02
8.500000e-07	3.805618e-07	-1.789131e-09	2.647102e+00	-1.195607e+02
8.600000e-07	5.107259e-07	-1.574881e-09	3.552494e+00	-1.055049e+02
8.700000e-07	6.408053e-07	-1.352245e-09	4.457297e+00	-9.098260e+01
8.800000e-07	7.706117e-07	-1.124106e-09	5.360201e+00	-7.595836e+01
8.900000e-07	9.001160e-07	-8.907393e-10	6.261004e+00	-6.040041e+01
9.000000e-07	1.029319e-06	-6.480600e-10	7.159710e+00	-4.428496e+01
9.100000e-07	1.158210e-06	-3.957040e-10	8.056249e+00	-2.760090e+01
9.200000e-07	1.286775e-06	-1.352550e-10	8.950519e+00	-1.035399e+01
9.300000e-07	1.414829e-06	1.328336e-10	9.841233e+00	7.429625e+00
9.400000e-07	1.542311e-06	4.096452e-10	1.072797e+01	2.570128e+01
9.500000e-07	1.669256e-06	6.934115e-10	1.161097e+01	4.438923e+01
9.600000e-07	1.795554e-06	9.815252e-10	1.248947e+01	6.339989e+01
9.700000e-07	1.921163e-06	1.274604e-09	1.336318e+01	8.262087e+01
9.800000e-07	2.046178e-06	1.570807e-09	1.423275e+01	1.019256e+02
9.900000e-07	2.170607e-06	1.866399e-09	1.509825e+01	1.211795e+02
1.000000e-06	2.294367e-06	2.157311e-09	1.595910e+01	1.402464e+02
1.010000e-06	2.417177e-06	2.442571e-09	1.681334e+01	1.589958e+02
1.020000e-06	2.538892e-06	2.720695e-09	1.765996e+01	1.773092e+02
1.030000e-06	2.659683e-06	2.985882e-09	1.850016e+01	1.950857e+02
1.040000e-06	2.779545e-06	3.240655e-09	1.933389e+01	2.122464e+02
1.050000e-06	2.898339e-06	3.488020e-09	2.016020e+01	2.287359e+02
1.060000e-06	3.016052e-06	3.725509e-09	2.097898e+01	2.445235e+02
1.070000e-06	3.132706e-06	3.950871e-09	2.179039e+01	2.596009e+02
1.080000e-06	3.248138e-06	4.167249e-09	2.259331e+01	2.739796e+02
1.090000e-06	3.362192e-06	4.376713e-09	2.338665e+01	2.876859e+02
1.100000e-06	3.474981e-06	4.577045e-09	2.417119e+01	3.007565e+02
1.110000e-06	3.586463e-06	4.769204e-09	2.494663e+01	3.132326e+02
1.120000e-06	3.696592e-06	4.952613e-09	2.571266e+01	3.251556e+02
1.130000e-06	3.805586e-06	5.126738e-09	2.647080e+01	3.365628e+02
1.140000e-06	3.913450e-06	5.292546e-09	2.722107e+01	3.474849e+02
1.150000e-06	4.019841e-06	5.450269e-09	2.796111e+01	3.579447e+02
1.160000e-06	4.124702e-06	5.602765e-09	2.869050e+01	3.679570e+02
1.170000e-06	4.228102e-06	5.750549e-09	2.940973e+01	3.775297e+02
1.180000e-06	4.330005e-06	5.888711e-09	3.011853e+01	3.866664e+02
1.190000e-06	4.430463e-06	6.019258e-09	3.081730e+01	3.953687e+02
1.200000e-06	4.529314e-06	6.145014e-09	3.150488e+01	4.036389e+02
1.210000e-06	4.626414e-06	6.263458e-09	3.218029e+01	4.114828e+02
1.220000e-06	4.721810e-06	6.375596e-09	3.284384e+01	4.189109e+02
1.230000e-06	4.815541e-06	6.481949e-09	3.349582e+01	4.259399e+02
1.240000e-06	4.907726e-06	6.583716e-09	3.413703e+01	4.325922e+02
1.250000e-06	4.998199e-06	6.679511e-09	3.476635e+01	4.388954e+02
1.260000e-06	5.086747e-06	6.769711e-09	3.538227e+01	4.448803e+02
1.270000e-06	5.173409e-06	6.856814e-09	3.598507e+01	4.505792e+02
1.280000e-06	5.258317e-06	6.941678e-09	3.657567e+01	4.560233e+02
1.290000e-06	5.341458e-06	7.021632e-09	3.715398e+01	4.612407e+02
1.300000e-06	5.422601e-06	7.096039e-09	3.771839e+01	4.662550e+02
1.310000e-06	5.501674e-06	7.167526e-09	3.826840e+01	4.710837e+02
1.320000e-06	5.578734e-06	7.236074e-09	3.880442e+01	4.757381e+02
1.330000e-06	5.653677e-06	7.301770e-09	3.932570e+01	4.802239e+02
1.340000e-06	5.726418e-06	7.366798e-09	3.983168e+01	4.845417e+02
1.350000e-06	5.797056e-06	7.430742e-09	4.032302e+01	4.886882e+02
1.360000e-06	5.865673e-06	7.491700e-09	4.080030e+01	4.926586e+02
1.370000e-06	5.932220e-06	7.549988e-09	4.126318e+01	4.964473e+02
1.380000e-06	5.996568e-06	7.605005e-09	4.171078e+01	5.000496e+02
1.390000e-06	6.058828e-06	7.657163e-09	4.214384e+01	5.034625e+02
1.400000e-06	6.119150e-06	7.705591e-09	4.256343e+01	5.066857e+02
1.410000e-06	6.177380e-06	7.750036e-09	4.296846e+01	5.097210e+02
1.420000e-06	6.233388e-06	7.791759e-09	4.335804e+01	5.125724e+02
1.430000e-06	6.287160e-06	7.832094e-09	4.373207e+01	5.152452e+02
1.440000e-06	6.338387e-06	7.869630e-09	4.408839e+01	5.177457e+02
1.450000e-06	6.386964e-06	7.903792e-09	4.442628e+01	5.200799e+02
1.460000e-06	6.433190e-06	7.936764e-09	4.474782e+01	5.222534e+02
1.470000e-06	6.477307e-06	7.967112e-09	4.505469e+01	5.242709e+02
1.480000e-06	6.519141e-06	7.994859e-09	4.534568e+01	5.261361e+02
1.490000e-06	6.558524e-06	8.021930e-09	4.561961e+01	5.278521e+02
1.500000e-06	6.595706e-06	8.046475e-09	4.587824e+01	5.294217e+02
1.510000e-06	6.630634e-06	8.066613e-09	4.612119e+01	5.308481e+02
1.520000e-06	6.663098e-06	8.083045e-09	4.634701e+01	5.321351e+02
1.530000e-06	6.693232e-06	8.097058e-09	4.655661e+01	5.332878e+02
1.540000e-06	6.721204e-06	8.112030e-09	4.675118e+01	5.343125e+02
1.550000e-06	6.746743e-06	8.126015e-09	4.692882e+01	5.352167e+02
1.560000e-06	6.769666e-06	8.137193e-09	4.708827e+01	5.360084e+02
1.570000e-06	6.790265e-06	8.147656e-09	4.723155e+01	5.366960e+02
1.580000e-06	6.808486e-06	8.158635e-09	4.735829e+01	5.372871e+02
1.590000e-06	6.824146e-06	8.168686e-09	4.746722e+01	5.377879e+02
1.600000e-06	6.837312e-06	8.175223e-09	4.755880e+01	5.382028e+02
1.610000e-06	6.847790e-06	8.179252e-09	4.763168e+01	5.385339e+02
1.620000e-06	6.855614e-06	8.182291e-09	4.768610e+01	5.387808e+02
1.630000e-06	6.861104e-06	8.185095e-09	4.772429e+01	5.389415e+02
1.640000e-06	6.864264e-06	8.186698e-09	4.774627e+01	5.390123e+02
1.650000e-06	6.864908e-06	8.188405e-09	4.775075e+01	5.389893e+02
1.660000e-06	6.863111e-06	8.185976e-09	4.773825e+01	5.388689e+02
1.670000e-06	6.859203e-06	8.184215e-09	4.771107e+01	5.386492e+02
1.680000e-06	6.853038e-06	8.181050e-09	4.766819e+01	5.383304e+02
1.690000e-06	6.844519e-06	8.176546e-09	4.760893e+01	5.379158e+02
1.700000e-06	6.833783e-06	8.172761e-09	4.753425e+01	5.374112e+02
1.710000e-06	6.820664e-06	8.168559e-09	4.744300e+01	5.368253e+02
1.720000e-06	6.805168e-06	8.169275e-09	4.733521e+01	5.361686e+02
1.730000e-06	6.787619e-06	8.132466e-09	4.721315e+01	5.354525e+02
1.740000e-06	6.767805e-06	8.095476e-09	4.707533e+01	5.346882e+02
1.750000e-06	6.744827e-06	8.098991e-09	4.691549e+01	5.338852e+02
1.760000e-06	6.718600e-06	8.086927e-09	4.673306e+01	5.330504e+02
1.770000e-06	6.689859e-06	8.084853e-09	4.653315e+01	5.321872e+02
1.780000e-06	6.659056e-06	8.130298e-09	4.631889e+01	5.312947e+02
1.790000e-06	6.626798e-06	8.067370e-09	4.609451e+01	5.303682e+02
1.800000e-06	6.593032e-06	8.055216e-09	4.585964e+01	5.293989e+02
1.810000e-06	6.556790e-06	8.089148e-09	4.560755e+01	5.283751e+02
1.820000e-06	6.518076e-06	8.016129e-09	4.533826e+01	5.272832e+02
1.830000e-06	6.477273e-06	8.055262e-09	4.505445e+01	5.261086e+02
1.840000e-06	6.434287e-06	8.002479e-09	4.475545e+01	5.248373e+02
1.850000e-06	6.389111e-06	7.904703e-09	4.444122e+01	5.234571e+02
1.860000e-06	6.341507e-06	7.945838e-09	4.411009e+01	5.219580e+02
1.870000e-06	6.291602e-06	7.901858e-09	4.376296e+01	5.203332e+02
1.880000e-06	6.239389e-06	7.920322e-09	4.339979e+01	5.185792e+02
1.890000e-06	6.184385e-06	7.918335e-09	4.301719e+01	5.166957e+02
1.900000e-06	6.126970e-06	7.841279e-09	4.261782e+01	5.146852e+02
1.910000e-06	6.067355e-06	7.844048e-09	4.220315e+01	5.125522e+02
1.920000e-06	6.005356e-06	7.768353e-09	4.177190e+01	5.103023e+02
1.930000e-06	5.941164e-06	7.761870e-09	4.132540e+01	5.079418e+02
1.940000e-06	5.874848e-06	7.745040e-09	4.086412e+01	5.054766e+02
1.950000e-06	5.806483e-06	7.672663e-09	4.038859e+01	5.029115e+02
1.960000e-06	5.735766e-06	7.638267e-09	3.989670e+01	5.002500e+02
1.970000e-06	5.662692e-06	7.567133e-09	3.938841e+01	4.974941e+02
1.980000e-06	5.587548e-06	7.566980e-09	3.886572e+01	4.946440e+02
1.990000e-06	5.510085e-06	7.521821e-09	3.832691e+01	4.916984e+02
2.000000e-06	5.430497e-06	7.458641e-09	3.777332e+01	4.886551e+02
2.010000e-06	5.349096e-06	7.417537e-09	3.720710e+01	4.855106e+02
2.020000e-06	5.265893e-06	7.351576e-09	3.662836e+01	4.822613e+02
2.030000e-06	5.180839e-06	7.313655e-09	3.603675e+01	4.789032e+02
2.040000e-06	5.093826e-06	7.259776e-09	3.543151e+01	4.754323e+02
2.050000e-06	5.004969e-06	7.217733e-09	3.481343e+01	4.718452e+02
2.060000e-06	4.914525e-06	7.145244e-09	3.418433e+01	4.681386e+02
2.070000e-06	4.822535e-06	7.079364e-09	3.354447e+01	4.643098e+02
2.080000e-06	4.728747e-06	7.032251e-09	3.289210e+01	4.603561e+02
2.090000e-06	4.633153e-06	6.983850e-09	3.222716e+01	4.562755e+02
2.100000e-06	4.535979e-06	6.927711e-09	3.155125e+01	4.520658e+02
2.110000e-06	4.437290e-06	6.843311e-09	3.086479e+01	4.477251e+02
2.120000e-06	4.337119e-06	6.773441e-09	3.016802e+01	4.432510e+02
2.130000e-06	4.235407e-06	6.698322e-09	2.946054e+01	4.386411e+02
2.140000e-06	4.132009e-06	6.629908e-09	2.874132e+01	4.338928e+02
2.150000e-06	4.027075e-06	6.557925e-09	2.801142e+01	4.290027e+02
2.160000e-06	3.920816e-06	6.485166e-09	2.727231e+01	4.239673e+02
2.170000e-06	3.813208e-06	6.410009e-09	2.652381e+01	4.187824e+02
2.180000e-06	3.704271e-06	6.329094e-09	2.576607e+01	4.134436e+02
2.190000e-06	3.593885e-06	6.251115e-09	2.499826e+01	4.079463e+02
2.200000e-06	3.482072e-06	6.169994e-09	2.422051e+01	4.022858e+02
2.210000e-06	3.368917e-06	6.080845e-09	2.343343e+01	3.964573e+02
2.220000e-06	3.254428e-06	5.975447e-09	2.263707e+01	3.904566e+02
2.230000e-06	3.138619e-06	5.874282e-09	2.183153e+01	3.842800e+02
2.240000e-06	3.021521e-06	5.778633e-09	2.101702e+01	3.779240e+02
2.250000e-06	2.903252e-06	5.687367e-09	2.019436e+01	3.713864e+02
2.260000e-06	2.783746e-06	5.588371e-09	1.936311e+01	3.646649e+02
2.270000e-06	2.663156e-06	5.483922e-09	1.852431e+01	3.577579e+02
2.280000e-06	2.541726e-06	5.379564e-09	1.767967e+01	3.506637e+02
2.290000e-06	2.419455e-06	5.272195e-09	1.682918e+01	3.433799e+02
2.300000e-06	2.296299e-06	5.161505e-09	1.597254e+01	3.359030e+02
2.310000e-06	2.172456e-06	5.046544e-09	1.511111e+01	3.282281e+02
2.320000e-06	2.047971e-06	4.923704e-09	1.424522e+01	3.203481e+02
2.330000e-06	1.922770e-06	4.789865e-09	1.337435e+01	3.122536e+02
2.340000e-06	1.796858e-06	4.655349e-09	1.249854e+01	3.039331e+02
2.350000e-06	1.670275e-06	4.524293e-09	1.161805e+01	2.953730e+02
2.360000e-06	1.543043e-06	4.396565e-09	1.073306e+01	2.865582e+02
2.370000e-06	1.415224e-06	4.264235e-09	9.843978e+00	2.774731e+02
2.380000e-06	1.286919e-06	4.124728e-09	8.951519e+00	2.681025e+02
2.390000e-06	1.158164e-06	3.979849e-09	8.055928e+00	2.584324e+02
2.400000e-06	1.029085e-06	3.828978e-09	7.158086e+00	2.484511e+02
2.410000e-06	8.997499e-07	3.674548e-09	6.258458e+00	2.381499e+02
2.420000e-06	7.701643e-07	3.510624e-09	5.357089e+00	2.275230e+02
2.430000e-06	6.403775e-07	3.338969e-09	4.454322e+00	2.165673e+02
2.440000e-06	5.104518e-07	3.165656e-09	3.550588e+00	2.052816e+02
2.450000e-06	3.803752e-07	2.990607e-09	2.645804e+00	1.936652e+02
2.460000e-06	2.500989e-07	2.813733e-09	1.739631e+00	1.817165e+02
2.470000e-06	1.196567e-07	2.628956e-09	8.323051e-01	1.694306e+02
2.480000e-06	-1.080884e-08	2.435311e-09	-7.518386e-02	1.567982e+02
2.490000e-06	-1.413064e-07	2.235559e-09	-9.828958e-01	1.438039e+02
2.500000e-06	-2.717802e-07	2.027824e-09	-1.890442e+00	1.304257e+02
2.510000e-06	-4.021197e-07	1.812917e-09	-2.797054e+00	1.166355e+02
2.520000e-06	-5.323516e-07	1.592307e-09	-3.702918e+00	1.024002e+02
2.530000e-06	-6.624231e-07	1.365232e-09	-4.607665e+00	8.768422e+01
2.540000e-06	-7.922732e-07	1.131800e-09	-5.510874e+00	7.245319e+01
2.550000e-06	-9.219190e-07	8.909411e-10	-6.412661e+00	5.667789e+01
2.560000e-06	-1.051356e-06	6.433638e-10	-7.312993e+00	4.033897e+01
2.570000e-06	-1.180501e-06	3.894056e-10	-8.211295e+00	2.343146e+01
2.580000e-06	-1.309232e-06	1.249775e-10	-9.106723e+00	5.968810e+00
2.590000e-06	-1.437484e-06	-1.501193e-10	-9.998815e+00	-1.201419e+01
2.600000e-06	-1.565203e-06	-4.330099e-10	-1.088720e+01	-3.045977e+01
2.610000e-06	-1.692271e-06	-7.233593e-10	-1.177106e+01	-4.928736e+01
2.620000e-06	-1.818574e-06	-1.019308e-09	-1.264959e+01	-6.839551e+01
2.630000e-06	-1.944135e-06	-1.317074e-09	-1.352296e+01	-8.766565e+01
2.640000e-06	-2.069013e-06	-1.613992e-09	-1.439159e+01	-1.069673e+02
2.650000e-06	-2.193103e-06	-1.907540e-09	-1.525473e+01	-1.261644e+02
2.660000e-06	-2.316262e-06	-2.198116e-09	-1.611140e+01	-1.451221e+02
2.670000e-06	-2.438470e-06	-2.482114e-09	-1.696145e+01	-1.637140e+02
2.680000e-06	-2.559811e-06	-2.756108e-09	-1.780547e+01	-1.818280e+02
2.690000e-06	-2.680277e-06	-3.023922e-09	-1.864340e+01	-1.993713e+02
2.700000e-06	-2.799695e-06	-3.283781e-09	-1.947405e+01	-2.162741e+02
2.710000e-06	-2.917983e-06	-3.533008e-09	-2.029683e+01	-2.324908e+02
2.720000e-06	-3.035190e-06	-3.771194e-09	-2.111209e+01	-2.479998e+02
2.730000e-06	-3.151221e-06	-3.998863e-09	-2.191918e+01	-2.628009e+02
2.740000e-06	-3.265922e-06	-4.217939e-09	-2.271702e+01	-2.769122e+02
2.750000e-06	-3.379240e-06	-4.428179e-09	-2.350523e+01	-2.903646e+02
2.760000e-06	-3.491220e-06	-4.628415e-09	-2.428414e+01	-3.031972e+02
2.770000e-06	-3.601860e-06	-4.815517e-09	-2.505373e+01	-3.154518e+02
2.780000e-06	-3.711203e-06	-4.992366e-09	-2.581429e+01	-3.271686e+02
2.790000e-06	-3.819383e-06	-5.162647e-09	-2.656677e+01	-3.383826e+02
2.800000e-06	-3.926362e-06	-5.326470e-09	-2.731089e+01	-3.491214e+02
2.810000e-06	-4.032056e-06	-5.482865e-09	-2.804607e+01	-3.594045e+02
2.820000e-06	-4.136359e-06	-5.632413e-09	-2.877158e+01	-3.692440e+02
2.830000e-06	-4.239036e-06	-5.775208e-09	-2.948578e+01	-3.786458e+02
2.840000e-06	-4.340114e-06	-5.911922e-09	-3.018886e+01	-3.876122e+02
2.850000e-06	-4.439654e-06	-6.042615e-09	-3.088123e+01	-3.961449e+02
2.860000e-06	-4.537614e-06	-6.166262e-09	-3.156262e+01	-4.042473e+02
2.870000e-06	-4.634089e-06	-6.283816e-09	-3.223368e+01	-4.119268e+02
2.880000e-06	-4.728888e-06	-6.393330e-09	-3.289308e+01	-4.191964e+02
2.890000e-06	-4.821945e-06	-6.499845e-09	-3.354036e+01	-4.260750e+02
2.900000e-06	-4.913324e-06	-6.605353e-09	-3.417597e+01	-4.325872e+02
2.910000e-06	-5.002976e-06	-6.704321e-09	-3.479957e+01	-4.387621e+02
2.920000e-06	-5.090811e-06	-6.795964e-09	-3.541053e+01	-4.446314e+02
2.930000e-06	-5.176678e-06	-6.880264e-09	-3.600780e+01	-4.502271e+02
2.940000e-06	-5.260598e-06	-6.962087e-09	-3.659154e+01	-4.555796e+02
