# Temperatura_=_35.05
# Concentracion g/m^3_=_15000.0
# C_Vs_to_Am_M_A/Vsm_=_65563218390.804596
# pendiente_HvsI_1/m_=_3716.3
# ordenada_HvsI_A/m_=_1297.0
# frecuencia_Hz_=_301889.9809485295

Tiempo_(s)	Campo_(V.s)	Magnetizacion_(V.s)	Campo_(kA/m)	Magnetizacion_(A/m)
0.000000e+00	-6.861912e-06	-8.313540e-09	-4.750312e+01	-5.427457e+02
1.000000e-08	-6.858995e-06	-8.311912e-09	-4.748292e+01	-5.426003e+02
2.000000e-08	-6.853769e-06	-8.310436e-09	-4.744675e+01	-5.423481e+02
3.000000e-08	-6.846377e-06	-8.307205e-09	-4.739557e+01	-5.419911e+02
4.000000e-08	-6.836639e-06	-8.299888e-09	-4.732816e+01	-5.415346e+02
5.000000e-08	-6.824433e-06	-8.289435e-09	-4.724366e+01	-5.409877e+02
6.000000e-08	-6.809776e-06	-8.276308e-09	-4.714219e+01	-5.403625e+02
7.000000e-08	-6.792726e-06	-8.265022e-09	-4.702416e+01	-5.396723e+02
8.000000e-08	-6.773502e-06	-8.259792e-09	-4.689108e+01	-5.389309e+02
9.000000e-08	-6.752000e-06	-8.252574e-09	-4.674222e+01	-5.381506e+02
1.000000e-07	-6.727761e-06	-8.244092e-09	-4.657442e+01	-5.373410e+02
1.100000e-07	-6.700695e-06	-8.226989e-09	-4.638706e+01	-5.365074e+02
1.200000e-07	-6.671202e-06	-8.198951e-09	-4.618288e+01	-5.356508e+02
1.300000e-07	-6.639705e-06	-8.173545e-09	-4.596484e+01	-5.347666e+02
1.400000e-07	-6.606304e-06	-8.165125e-09	-4.573361e+01	-5.338460e+02
1.500000e-07	-6.570975e-06	-8.129550e-09	-4.548904e+01	-5.328760e+02
1.600000e-07	-6.533571e-06	-8.115150e-09	-4.523010e+01	-5.318412e+02
1.700000e-07	-6.494082e-06	-8.098408e-09	-4.495673e+01	-5.307250e+02
1.800000e-07	-6.452344e-06	-8.053662e-09	-4.466779e+01	-5.295109e+02
1.900000e-07	-6.408056e-06	-8.054931e-09	-4.436119e+01	-5.281846e+02
2.000000e-07	-6.361428e-06	-8.046102e-09	-4.403840e+01	-5.267342e+02
2.100000e-07	-6.312343e-06	-8.043134e-09	-4.369860e+01	-5.251520e+02
2.200000e-07	-6.260538e-06	-8.019392e-09	-4.333997e+01	-5.234337e+02
2.300000e-07	-6.206273e-06	-7.953967e-09	-4.296431e+01	-5.215793e+02
2.400000e-07	-6.149653e-06	-7.911064e-09	-4.257235e+01	-5.195916e+02
2.500000e-07	-6.090655e-06	-7.877977e-09	-4.216392e+01	-5.174761e+02
2.600000e-07	-6.029416e-06	-7.838853e-09	-4.173998e+01	-5.152396e+02
2.700000e-07	-5.966033e-06	-7.802657e-09	-4.130120e+01	-5.128892e+02
2.800000e-07	-5.900357e-06	-7.767953e-09	-4.084653e+01	-5.104315e+02
2.900000e-07	-5.832383e-06	-7.730191e-09	-4.037597e+01	-5.078719e+02
3.000000e-07	-5.762346e-06	-7.689843e-09	-3.989113e+01	-5.052137e+02
3.100000e-07	-5.690173e-06	-7.665695e-09	-3.939149e+01	-5.024586e+02
3.200000e-07	-5.615726e-06	-7.622737e-09	-3.887612e+01	-4.996062e+02
3.300000e-07	-5.538971e-06	-7.563496e-09	-3.834476e+01	-4.966547e+02
3.400000e-07	-5.460015e-06	-7.514054e-09	-3.779817e+01	-4.936008e+02
3.500000e-07	-5.378962e-06	-7.469693e-09	-3.723706e+01	-4.904410e+02
3.600000e-07	-5.296016e-06	-7.431540e-09	-3.666285e+01	-4.871713e+02
3.700000e-07	-5.211352e-06	-7.379319e-09	-3.607674e+01	-4.837881e+02
3.800000e-07	-5.124946e-06	-7.320354e-09	-3.547858e+01	-4.802881e+02
3.900000e-07	-5.036819e-06	-7.258055e-09	-3.486850e+01	-4.766687e+02
4.000000e-07	-4.946948e-06	-7.195749e-09	-3.424635e+01	-4.729279e+02
4.100000e-07	-4.855255e-06	-7.140053e-09	-3.361158e+01	-4.690640e+02
4.200000e-07	-4.761865e-06	-7.083741e-09	-3.296507e+01	-4.650757e+02
4.300000e-07	-4.666890e-06	-7.017935e-09	-3.230758e+01	-4.609614e+02
4.400000e-07	-4.570191e-06	-6.945554e-09	-3.163817e+01	-4.567197e+02
4.500000e-07	-4.471834e-06	-6.876781e-09	-3.095727e+01	-4.523484e+02
4.600000e-07	-4.371886e-06	-6.812037e-09	-3.026536e+01	-4.478452e+02
4.700000e-07	-4.270343e-06	-6.746288e-09	-2.956240e+01	-4.432070e+02
4.800000e-07	-4.167384e-06	-6.675174e-09	-2.884964e+01	-4.384303e+02
4.900000e-07	-4.062974e-06	-6.599359e-09	-2.812684e+01	-4.335114e+02
5.000000e-07	-3.956987e-06	-6.518900e-09	-2.739312e+01	-4.284459e+02
5.100000e-07	-3.849466e-06	-6.439048e-09	-2.664879e+01	-4.232295e+02
5.200000e-07	-3.740590e-06	-6.356327e-09	-2.589507e+01	-4.178580e+02
5.300000e-07	-3.630494e-06	-6.265979e-09	-2.513291e+01	-4.123270e+02
5.400000e-07	-3.519039e-06	-6.170271e-09	-2.436133e+01	-4.066325e+02
5.500000e-07	-3.406054e-06	-6.075428e-09	-2.357917e+01	-4.007708e+02
5.600000e-07	-3.291659e-06	-5.984082e-09	-2.278724e+01	-3.947385e+02
5.700000e-07	-3.175914e-06	-5.895281e-09	-2.198597e+01	-3.885326e+02
5.800000e-07	-3.058865e-06	-5.804632e-09	-2.117567e+01	-3.821507e+02
5.900000e-07	-2.940730e-06	-5.705100e-09	-2.035786e+01	-3.755905e+02
6.000000e-07	-2.821583e-06	-5.599122e-09	-1.953304e+01	-3.688501e+02
6.100000e-07	-2.701363e-06	-5.490299e-09	-1.870079e+01	-3.619275e+02
6.200000e-07	-2.580095e-06	-5.381326e-09	-1.786128e+01	-3.548204e+02
6.300000e-07	-2.457812e-06	-5.269731e-09	-1.701475e+01	-3.475259e+02
6.400000e-07	-2.334602e-06	-5.153352e-09	-1.616181e+01	-3.400401e+02
6.500000e-07	-2.210542e-06	-5.034893e-09	-1.530297e+01	-3.323574e+02
6.600000e-07	-2.085677e-06	-4.913617e-09	-1.443857e+01	-3.244708e+02
6.700000e-07	-1.960188e-06	-4.790039e-09	-1.356984e+01	-3.163712e+02
6.800000e-07	-1.834125e-06	-4.664155e-09	-1.269714e+01	-3.080476e+02
6.900000e-07	-1.707473e-06	-4.535321e-09	-1.182036e+01	-2.994872e+02
7.000000e-07	-1.580192e-06	-4.400884e-09	-1.093923e+01	-2.906761e+02
7.100000e-07	-1.452323e-06	-4.261926e-09	-1.005403e+01	-2.815997e+02
7.200000e-07	-1.323983e-06	-4.118365e-09	-9.165570e+00	-2.722435e+02
7.300000e-07	-1.195194e-06	-3.968388e-09	-8.273997e+00	-2.625944e+02
7.400000e-07	-1.065954e-06	-3.813705e-09	-7.379302e+00	-2.526408e+02
7.500000e-07	-9.362863e-07	-3.654762e-09	-6.481651e+00	-2.423737e+02
7.600000e-07	-8.063011e-07	-3.491637e-09	-5.581799e+00	-2.317867e+02
7.700000e-07	-6.760549e-07	-3.324174e-09	-4.680141e+00	-2.208757e+02
7.800000e-07	-5.455890e-07	-3.152464e-09	-3.776962e+00	-2.096383e+02
7.900000e-07	-4.149605e-07	-2.977064e-09	-2.872657e+00	-1.980727e+02
8.000000e-07	-2.841986e-07	-2.797916e-09	-1.967428e+00	-1.861759e+02
8.100000e-07	-1.533185e-07	-2.613566e-09	-1.061382e+00	-1.739421e+02
8.200000e-07	-2.233308e-08	-2.424033e-09	-1.546057e-01	-1.613612e+02
8.300000e-07	1.087103e-07	-2.229266e-09	7.525712e-01	-1.484170e+02
8.400000e-07	2.397114e-07	-2.027428e-09	1.659456e+00	-1.350870e+02
8.500000e-07	3.706176e-07	-1.818081e-09	2.565683e+00	-1.213420e+02
8.600000e-07	5.014741e-07	-1.602128e-09	3.471567e+00	-1.071477e+02
8.700000e-07	6.322002e-07	-1.376624e-09	4.376547e+00	-9.246655e+01
8.800000e-07	7.627223e-07	-1.142170e-09	5.280115e+00	-7.726120e+01
8.900000e-07	8.930033e-07	-9.017052e-10	6.182014e+00	-6.149858e+01
9.000000e-07	1.022960e-06	-6.561526e-10	7.081671e+00	-4.515450e+01
9.100000e-07	1.152575e-06	-4.036284e-10	7.978955e+00	-2.821833e+01
9.200000e-07	1.281771e-06	-1.421845e-10	8.873342e+00	-1.069733e+01
9.300000e-07	1.410464e-06	1.291708e-10	9.764250e+00	7.379909e+00
9.400000e-07	1.538629e-06	4.098723e-10	1.065150e+01	2.596140e+01
9.500000e-07	1.666239e-06	6.976502e-10	1.153491e+01	4.497131e+01
9.600000e-07	1.793236e-06	9.914698e-10	1.241407e+01	6.431135e+01
9.700000e-07	1.919557e-06	1.292701e-09	1.328856e+01	8.386408e+01
9.800000e-07	2.045199e-06	1.595587e-09	1.415835e+01	1.034978e+02
9.900000e-07	2.170144e-06	1.896319e-09	1.502330e+01	1.230729e+02
1.000000e-06	2.294380e-06	2.192178e-09	1.588336e+01	1.424486e+02
1.010000e-06	2.417784e-06	2.481552e-09	1.673765e+01	1.614905e+02
1.020000e-06	2.540267e-06	2.764109e-09	1.758556e+01	1.800770e+02
1.030000e-06	2.661785e-06	3.035854e-09	1.842680e+01	1.981051e+02
1.040000e-06	2.782242e-06	3.295978e-09	1.926069e+01	2.154946e+02
1.050000e-06	2.901656e-06	3.544536e-09	2.008736e+01	2.321901e+02
1.060000e-06	3.020004e-06	3.783888e-09	2.090665e+01	2.481616e+02
1.070000e-06	3.137303e-06	4.014419e-09	2.171868e+01	2.634023e+02
1.080000e-06	3.253467e-06	4.235424e-09	2.252285e+01	2.779257e+02
1.090000e-06	3.368326e-06	4.443928e-09	2.331799e+01	2.917605e+02
1.100000e-06	3.481760e-06	4.640555e-09	2.410326e+01	3.049457e+02
1.110000e-06	3.593807e-06	4.832094e-09	2.487893e+01	3.175250e+02
1.120000e-06	3.704563e-06	5.017824e-09	2.564566e+01	3.295418e+02
1.130000e-06	3.814150e-06	5.195652e-09	2.640430e+01	3.410352e+02
1.140000e-06	3.922625e-06	5.364954e-09	2.715525e+01	3.520375e+02
1.150000e-06	4.029796e-06	5.526626e-09	2.789716e+01	3.625726e+02
1.160000e-06	4.135455e-06	5.680781e-09	2.862861e+01	3.726562e+02
1.170000e-06	4.239513e-06	5.826502e-09	2.934898e+01	3.822971e+02
1.180000e-06	4.342030e-06	5.964630e-09	3.005867e+01	3.914995e+02
1.190000e-06	4.443013e-06	6.096368e-09	3.075775e+01	4.002656e+02
1.200000e-06	4.542494e-06	6.221688e-09	3.144643e+01	4.085986e+02
1.210000e-06	4.640386e-06	6.338951e-09	3.212411e+01	4.165048e+02
1.220000e-06	4.736488e-06	6.452161e-09	3.278939e+01	4.239953e+02
1.230000e-06	4.830819e-06	6.562759e-09	3.344242e+01	4.310874e+02
1.240000e-06	4.923547e-06	6.668589e-09	3.408435e+01	4.378036e+02
1.250000e-06	5.014622e-06	6.766159e-09	3.471484e+01	4.441714e+02
1.260000e-06	5.103810e-06	6.858202e-09	3.533226e+01	4.502212e+02
1.270000e-06	5.191059e-06	6.946111e-09	3.593627e+01	4.559843e+02
1.280000e-06	5.276464e-06	7.029552e-09	3.652750e+01	4.614904e+02
1.290000e-06	5.360101e-06	7.109396e-09	3.710649e+01	4.667662e+02
1.300000e-06	5.441795e-06	7.184782e-09	3.767204e+01	4.718332e+02
1.310000e-06	5.521416e-06	7.256536e-09	3.822324e+01	4.767074e+02
1.320000e-06	5.599069e-06	7.324920e-09	3.876080e+01	4.813986e+02
1.330000e-06	5.674645e-06	7.392199e-09	3.928400e+01	4.859115e+02
1.340000e-06	5.747985e-06	7.459198e-09	3.979171e+01	4.902462e+02
1.350000e-06	5.819142e-06	7.524097e-09	4.028431e+01	4.944002e+02
1.360000e-06	5.888258e-06	7.585006e-09	4.076278e+01	4.983696e+02
1.370000e-06	5.955301e-06	7.642634e-09	4.122690e+01	5.021507e+02
1.380000e-06	6.020159e-06	7.696403e-09	4.167590e+01	5.057414e+02
1.390000e-06	6.082893e-06	7.747339e-09	4.211018e+01	5.091416e+02
1.400000e-06	6.143646e-06	7.795838e-09	4.253076e+01	5.123535e+02
1.410000e-06	6.202296e-06	7.840962e-09	4.293677e+01	5.153816e+02
1.420000e-06	6.258684e-06	7.882604e-09	4.332714e+01	5.182318e+02
1.430000e-06	6.312857e-06	7.922137e-09	4.370216e+01	5.209109e+02
1.440000e-06	6.364591e-06	7.960768e-09	4.406030e+01	5.234255e+02
1.450000e-06	6.413637e-06	7.996245e-09	4.439983e+01	5.257812e+02
1.460000e-06	6.460238e-06	8.028246e-09	4.472244e+01	5.279827e+02
1.470000e-06	6.504693e-06	8.056731e-09	4.503018e+01	5.300327e+02
1.480000e-06	6.546905e-06	8.084200e-09	4.532241e+01	5.319331e+02
1.490000e-06	6.586697e-06	8.111432e-09	4.559788e+01	5.336850e+02
1.500000e-06	6.624177e-06	8.134711e-09	4.585734e+01	5.352894e+02
1.510000e-06	6.659485e-06	8.154890e-09	4.610177e+01	5.367483e+02
1.520000e-06	6.692415e-06	8.173448e-09	4.632973e+01	5.380649e+02
1.530000e-06	6.722887e-06	8.190382e-09	4.654069e+01	5.392445e+02
1.540000e-06	6.751150e-06	8.206572e-09	4.673634e+01	5.402941e+02
1.550000e-06	6.777000e-06	8.220921e-09	4.691529e+01	5.412225e+02
1.560000e-06	6.800225e-06	8.232230e-09	4.707607e+01	5.420394e+02
1.570000e-06	6.821075e-06	8.242005e-09	4.722041e+01	5.427546e+02
1.580000e-06	6.839596e-06	8.252093e-09	4.734863e+01	5.433772e+02
1.590000e-06	6.855584e-06	8.260828e-09	4.745931e+01	5.439141e+02
1.600000e-06	6.869013e-06	8.267235e-09	4.755227e+01	5.443698e+02
1.610000e-06	6.879785e-06	8.271592e-09	4.762685e+01	5.447459e+02
1.620000e-06	6.887842e-06	8.275380e-09	4.768262e+01	5.450406e+02
1.630000e-06	6.893490e-06	8.279611e-09	4.772172e+01	5.452501e+02
1.640000e-06	6.896841e-06	8.284618e-09	4.774492e+01	5.453685e+02
1.650000e-06	6.897683e-06	8.286373e-09	4.775075e+01	5.453896e+02
1.660000e-06	6.896089e-06	8.284725e-09	4.773971e+01	5.453080e+02
1.670000e-06	6.892348e-06	8.281453e-09	4.771382e+01	5.451203e+02
1.680000e-06	6.886309e-06	8.275844e-09	4.767201e+01	5.448261e+02
1.690000e-06	6.877905e-06	8.270014e-09	4.761383e+01	5.444287e+02
1.700000e-06	6.867354e-06	8.263628e-09	4.754079e+01	5.439351e+02
1.710000e-06	6.854502e-06	8.257141e-09	4.745182e+01	5.433556e+02
1.720000e-06	6.839195e-06	8.248090e-09	4.734585e+01	5.427028e+02
1.730000e-06	6.821724e-06	8.227179e-09	4.722491e+01	5.419905e+02
1.740000e-06	6.802017e-06	8.211060e-09	4.708848e+01	5.412321e+02
1.750000e-06	6.779187e-06	8.194915e-09	4.693044e+01	5.404389e+02
1.760000e-06	6.753031e-06	8.181836e-09	4.674936e+01	5.396191e+02
1.770000e-06	6.724301e-06	8.186126e-09	4.655047e+01	5.387763e+02
1.780000e-06	6.693512e-06	8.176683e-09	4.633733e+01	5.379092e+02
1.790000e-06	6.661215e-06	8.165734e-09	4.611375e+01	5.370117e+02
1.800000e-06	6.627460e-06	8.172140e-09	4.588007e+01	5.360730e+02
1.810000e-06	6.591321e-06	8.123904e-09	4.562989e+01	5.350791e+02
1.820000e-06	6.552660e-06	8.131878e-09	4.536225e+01	5.340139e+02
1.830000e-06	6.511885e-06	8.148459e-09	4.507998e+01	5.328608e+02
1.840000e-06	6.468863e-06	8.091110e-09	4.478214e+01	5.316038e+02
1.850000e-06	6.423655e-06	8.069804e-09	4.446919e+01	5.302296e+02
1.860000e-06	6.376096e-06	8.034559e-09	4.413994e+01	5.287278e+02
1.870000e-06	6.326138e-06	8.010447e-09	4.379410e+01	5.270920e+02
1.880000e-06	6.273843e-06	8.010616e-09	4.343207e+01	5.253197e+02
1.890000e-06	6.218817e-06	7.999174e-09	4.305115e+01	5.234120e+02
1.900000e-06	6.161340e-06	7.981586e-09	4.265325e+01	5.213729e+02
1.910000e-06	6.101611e-06	7.936149e-09	4.223976e+01	5.192087e+02
1.920000e-06	6.039507e-06	7.885314e-09	4.180983e+01	5.169262e+02
1.930000e-06	5.975214e-06	7.855504e-09	4.136475e+01	5.145325e+02
1.940000e-06	5.908805e-06	7.823340e-09	4.090502e+01	5.120339e+02
1.950000e-06	5.840260e-06	7.778949e-09	4.043050e+01	5.094348e+02
1.960000e-06	5.769269e-06	7.728103e-09	3.993905e+01	5.067381e+02
1.970000e-06	5.696003e-06	7.697817e-09	3.943185e+01	5.039446e+02
1.980000e-06	5.620749e-06	7.660565e-09	3.891088e+01	5.010532e+02
1.990000e-06	5.543198e-06	7.614762e-09	3.837402e+01	4.980614e+02
2.000000e-06	5.463431e-06	7.564194e-09	3.782182e+01	4.949660e+02
2.010000e-06	5.381779e-06	7.505488e-09	3.725656e+01	4.917631e+02
2.020000e-06	5.298437e-06	7.450761e-09	3.667961e+01	4.884489e+02
2.030000e-06	5.213179e-06	7.399987e-09	3.608940e+01	4.850197e+02
2.040000e-06	5.125848e-06	7.364181e-09	3.548482e+01	4.814727e+02
2.050000e-06	5.036714e-06	7.309585e-09	3.486778e+01	4.778055e+02
2.060000e-06	4.945974e-06	7.240620e-09	3.423961e+01	4.740161e+02
2.070000e-06	4.853614e-06	7.176589e-09	3.360023e+01	4.701031e+02
2.080000e-06	4.759472e-06	7.117233e-09	3.294850e+01	4.660651e+02
2.090000e-06	4.663579e-06	7.063823e-09	3.228467e+01	4.619006e+02
2.100000e-06	4.566111e-06	6.999929e-09	3.160992e+01	4.576078e+02
2.110000e-06	4.467216e-06	6.933970e-09	3.092530e+01	4.531847e+02
2.120000e-06	4.366773e-06	6.862955e-09	3.022996e+01	4.486284e+02
2.130000e-06	4.264626e-06	6.782739e-09	2.952282e+01	4.439359e+02
2.140000e-06	4.160850e-06	6.704932e-09	2.880441e+01	4.391034e+02
2.150000e-06	4.055560e-06	6.634133e-09	2.807552e+01	4.341270e+02
2.160000e-06	3.948947e-06	6.563055e-09	2.733747e+01	4.290024e+02
2.170000e-06	3.841005e-06	6.486164e-09	2.659021e+01	4.237253e+02
2.180000e-06	3.731655e-06	6.405335e-09	2.583321e+01	4.182912e+02
2.190000e-06	3.620862e-06	6.323017e-09	2.506623e+01	4.126961e+02
2.200000e-06	3.508673e-06	6.239766e-09	2.428957e+01	4.069359e+02
2.210000e-06	3.395158e-06	6.146008e-09	2.350374e+01	4.010072e+02
2.220000e-06	3.280354e-06	6.045557e-09	2.270898e+01	3.949066e+02
2.230000e-06	3.164153e-06	5.946335e-09	2.190455e+01	3.886315e+02
2.240000e-06	3.046525e-06	5.849316e-09	2.109025e+01	3.821794e+02
2.250000e-06	2.927683e-06	5.752305e-09	2.026754e+01	3.755483e+02
2.260000e-06	2.807764e-06	5.652134e-09	1.943738e+01	3.687361e+02
2.270000e-06	2.686781e-06	5.548222e-09	1.859984e+01	3.617410e+02
2.280000e-06	2.564767e-06	5.439546e-09	1.775517e+01	3.545603e+02
2.290000e-06	2.441985e-06	5.325898e-09	1.690518e+01	3.471908e+02
2.300000e-06	2.318446e-06	5.211566e-09	1.604996e+01	3.396279e+02
2.310000e-06	2.194133e-06	5.098420e-09	1.518938e+01	3.318657e+02
2.320000e-06	2.069038e-06	4.977055e-09	1.432338e+01	3.238963e+02
2.330000e-06	1.943105e-06	4.846561e-09	1.345158e+01	3.157097e+02
2.340000e-06	1.816500e-06	4.713239e-09	1.257513e+01	3.072943e+02
2.350000e-06	1.689293e-06	4.580287e-09	1.169451e+01	2.986368e+02
2.360000e-06	1.561519e-06	4.446477e-09	1.080996e+01	2.897228e+02
2.370000e-06	1.433230e-06	4.309469e-09	9.921852e+00	2.805377e+02
2.380000e-06	1.304447e-06	4.169067e-09	9.030324e+00	2.710676e+02
2.390000e-06	1.175215e-06	4.023483e-09	8.135689e+00	2.612997e+02
2.400000e-06	1.045588e-06	3.870421e-09	7.238319e+00	2.512235e+02
2.410000e-06	9.156538e-07	3.712248e-09	6.338818e+00	2.408310e+02
2.420000e-06	7.854951e-07	3.548659e-09	5.437765e+00	2.301166e+02
2.430000e-06	6.551131e-07	3.378898e-09	4.535167e+00	2.190773e+02
2.440000e-06	5.245868e-07	3.205981e-09	3.631569e+00	2.077108e+02
2.450000e-06	3.939983e-07	3.029688e-09	2.727541e+00	1.960152e+02
2.460000e-06	2.632450e-07	2.848863e-09	1.822372e+00	1.839865e+02
2.470000e-06	1.322898e-07	2.659108e-09	9.158057e-01	1.716175e+02
2.480000e-06	1.279016e-09	2.460888e-09	8.854276e-03	1.588958e+02
2.490000e-06	-1.297433e-07	2.259900e-09	-8.981771e-01	1.458027e+02
2.500000e-06	-2.607603e-07	2.051652e-09	-1.805171e+00	1.323131e+02
2.510000e-06	-3.917211e-07	1.834067e-09	-2.711776e+00	1.183955e+02
2.520000e-06	-5.225400e-07	1.611974e-09	-3.617399e+00	1.040141e+02
2.530000e-06	-6.531558e-07	1.384768e-09	-4.521617e+00	8.913094e+01
2.540000e-06	-7.836047e-07	1.151239e-09	-5.424679e+00	7.370984e+01
2.550000e-06	-9.138656e-07	9.062973e-10	-6.326439e+00	5.772065e+01
2.560000e-06	-1.043844e-06	6.517434e-10	-7.226242e+00	4.114394e+01
2.570000e-06	-1.173529e-06	3.915720e-10	-8.124018e+00	2.397565e+01
2.580000e-06	-1.302864e-06	1.228785e-10	-9.019368e+00	6.231070e+00
2.590000e-06	-1.431732e-06	-1.562682e-10	-9.911484e+00	-1.205218e+01
2.600000e-06	-1.560023e-06	-4.456604e-10	-1.079961e+01	-3.081271e+01
2.610000e-06	-1.687703e-06	-7.421326e-10	-1.168350e+01	-4.996556e+01
2.620000e-06	-1.814783e-06	-1.043519e-09	-1.256324e+01	-6.940447e+01
2.630000e-06	-1.941149e-06	-1.345640e-09	-1.343804e+01	-8.900571e+01
2.640000e-06	-2.066708e-06	-1.644883e-09	-1.430725e+01	-1.086337e+02
2.650000e-06	-2.191439e-06	-1.940410e-09	-1.517073e+01	-1.281474e+02
2.660000e-06	-2.315333e-06	-2.234859e-09	-1.602841e+01	-1.474078e+02
2.670000e-06	-2.438301e-06	-2.524888e-09	-1.687968e+01	-1.662847e+02
2.680000e-06	-2.560326e-06	-2.804600e-09	-1.772443e+01	-1.846633e+02
2.690000e-06	-2.681451e-06	-3.075652e-09	-1.856294e+01	-2.024491e+02
2.700000e-06	-2.801550e-06	-3.338003e-09	-1.939435e+01	-2.195716e+02
2.710000e-06	-2.920582e-06	-3.590278e-09	-2.021838e+01	-2.359853e+02
2.720000e-06	-3.038515e-06	-3.830985e-09	-2.103479e+01	-2.516697e+02
2.730000e-06	-3.155253e-06	-4.060890e-09	-2.184294e+01	-2.666264e+02
2.740000e-06	-3.270732e-06	-4.282290e-09	-2.264237e+01	-2.808756e+02
2.750000e-06	-3.384839e-06	-4.494336e-09	-2.343230e+01	-2.944505e+02
2.760000e-06	-3.497563e-06	-4.696675e-09	-2.421266e+01	-3.073928e+02
2.770000e-06	-3.608895e-06	-4.887938e-09	-2.498338e+01	-3.197464e+02
2.780000e-06	-3.718899e-06	-5.068671e-09	-2.574491e+01	-3.315536e+02
2.790000e-06	-3.827654e-06	-5.240060e-09	-2.649779e+01	-3.428511e+02
2.800000e-06	-3.935191e-06	-5.403582e-09	-2.724224e+01	-3.536679e+02
2.810000e-06	-4.041505e-06	-5.560594e-09	-2.797822e+01	-3.640245e+02
2.820000e-06	-4.146463e-06	-5.710001e-09	-2.870481e+01	-3.739338e+02
2.830000e-06	-4.249827e-06	-5.852876e-09	-2.942038e+01	-3.834025e+02
2.840000e-06	-4.351529e-06	-5.989836e-09	-3.012443e+01	-3.924337e+02
2.850000e-06	-4.451626e-06	-6.121946e-09	-3.081738e+01	-4.010295e+02
2.860000e-06	-4.550165e-06	-6.248623e-09	-3.149953e+01	-4.091942e+02
2.870000e-06	-4.647218e-06	-6.368015e-09	-3.217140e+01	-4.169358e+02
2.880000e-06	-4.742633e-06	-6.480537e-09	-3.283193e+01	-4.242678e+02
2.890000e-06	-4.836294e-06	-6.588431e-09	-3.348032e+01	-4.312096e+02
2.900000e-06	-4.928266e-06	-6.691783e-09	-3.411702e+01	-4.377859e+02
2.910000e-06	-5.018528e-06	-6.789870e-09	-3.474188e+01	-4.440254e+02
2.920000e-06	-5.107016e-06	-6.882496e-09	-3.535446e+01	-4.499593e+02
2.930000e-06	-5.193570e-06	-6.967458e-09	-3.595364e+01	-4.556184e+02
2.940000e-06	-5.278134e-06	-7.048346e-09	-3.653906e+01	-4.610314e+02
