# Temperatura_=_76.82
# Concentracion g/m^3_=_15000.0
# C_Vs_to_Am_M_A/Vsm_=_65563218390.804596
# pendiente_HvsI_1/m_=_3716.3
# ordenada_HvsI_A/m_=_1297.0
# frecuencia_Hz_=_301897.73691247404

Tiempo_(s)	Campo_(V.s)	Magnetizacion_(V.s)	Campo_(kA/m)	Magnetizacion_(A/m)
0.000000e+00	-6.867064e-06	-1.050507e-08	-4.749586e+01	-6.870505e+02
1.000000e-08	-6.864282e-06	-1.049985e-08	-4.747662e+01	-6.867997e+02
2.000000e-08	-6.859227e-06	-1.049755e-08	-4.744166e+01	-6.863939e+02
3.000000e-08	-6.852085e-06	-1.049407e-08	-4.739226e+01	-6.858360e+02
4.000000e-08	-6.842689e-06	-1.048563e-08	-4.732727e+01	-6.851334e+02
5.000000e-08	-6.830762e-06	-1.047387e-08	-4.724478e+01	-6.842972e+02
6.000000e-08	-6.816188e-06	-1.045793e-08	-4.714398e+01	-6.833417e+02
7.000000e-08	-6.799230e-06	-1.044371e-08	-4.702669e+01	-6.822827e+02
8.000000e-08	-6.780214e-06	-1.043147e-08	-4.689517e+01	-6.811366e+02
9.000000e-08	-6.758886e-06	-1.039687e-08	-4.674765e+01	-6.799185e+02
1.000000e-07	-6.734738e-06	-1.038946e-08	-4.658064e+01	-6.786410e+02
1.100000e-07	-6.707796e-06	-1.038505e-08	-4.639429e+01	-6.773127e+02
1.200000e-07	-6.678451e-06	-1.034836e-08	-4.619133e+01	-6.759374e+02
1.300000e-07	-6.647070e-06	-1.031827e-08	-4.597428e+01	-6.745138e+02
1.400000e-07	-6.613838e-06	-1.030878e-08	-4.574443e+01	-6.730350e+02
1.500000e-07	-6.578661e-06	-1.022466e-08	-4.550113e+01	-6.714894e+02
1.600000e-07	-6.541392e-06	-1.019019e-08	-4.524336e+01	-6.698610e+02
1.700000e-07	-6.502066e-06	-1.021426e-08	-4.497136e+01	-6.681307e+02
1.800000e-07	-6.460445e-06	-1.011901e-08	-4.468349e+01	-6.662777e+02
1.900000e-07	-6.416246e-06	-1.013151e-08	-4.437779e+01	-6.642807e+02
2.000000e-07	-6.369714e-06	-1.013972e-08	-4.405596e+01	-6.621195e+02
2.100000e-07	-6.320717e-06	-1.009661e-08	-4.371707e+01	-6.597766e+02
2.200000e-07	-6.268985e-06	-1.008915e-08	-4.335927e+01	-6.572378e+02
2.300000e-07	-6.214736e-06	-9.988375e-09	-4.298405e+01	-6.544937e+02
2.400000e-07	-6.158129e-06	-9.901774e-09	-4.259253e+01	-6.515399e+02
2.500000e-07	-6.099216e-06	-9.847457e-09	-4.218506e+01	-6.483771e+02
2.600000e-07	-6.038106e-06	-9.799316e-09	-4.176239e+01	-6.450109e+02
2.700000e-07	-5.974817e-06	-9.776144e-09	-4.132466e+01	-6.414511e+02
2.800000e-07	-5.909272e-06	-9.718907e-09	-4.087132e+01	-6.377106e+02
2.900000e-07	-5.841467e-06	-9.641036e-09	-4.040235e+01	-6.338042e+02
3.000000e-07	-5.771511e-06	-9.554280e-09	-3.991850e+01	-6.297470e+02
3.100000e-07	-5.699393e-06	-9.520257e-09	-3.941970e+01	-6.255530e+02
3.200000e-07	-5.625060e-06	-9.484187e-09	-3.890558e+01	-6.212334e+02
3.300000e-07	-5.548436e-06	-9.402680e-09	-3.837560e+01	-6.167961e+02
3.400000e-07	-5.469590e-06	-9.344194e-09	-3.783027e+01	-6.122448e+02
3.500000e-07	-5.388650e-06	-9.268774e-09	-3.727045e+01	-6.075782e+02
3.600000e-07	-5.305816e-06	-9.195151e-09	-3.669754e+01	-6.027912e+02
3.700000e-07	-5.221289e-06	-9.119948e-09	-3.611291e+01	-5.978748e+02
3.800000e-07	-5.134997e-06	-9.038398e-09	-3.551607e+01	-5.928178e+02
3.900000e-07	-5.046869e-06	-8.948313e-09	-3.490653e+01	-5.876081e+02
4.000000e-07	-4.956947e-06	-8.853589e-09	-3.428459e+01	-5.822340e+02
4.100000e-07	-4.865285e-06	-8.782842e-09	-3.365061e+01	-5.766855e+02
4.200000e-07	-4.771999e-06	-8.707090e-09	-3.300540e+01	-5.709561e+02
4.300000e-07	-4.677168e-06	-8.612770e-09	-3.234951e+01	-5.650426e+02
4.400000e-07	-4.580579e-06	-8.502477e-09	-3.168145e+01	-5.589459e+02
4.500000e-07	-4.482225e-06	-8.396212e-09	-3.100119e+01	-5.526701e+02
4.600000e-07	-4.382274e-06	-8.305121e-09	-3.030988e+01	-5.462222e+02
4.700000e-07	-4.280793e-06	-8.217489e-09	-2.960799e+01	-5.396101e+02
4.800000e-07	-4.177840e-06	-8.127895e-09	-2.889591e+01	-5.328416e+02
4.900000e-07	-4.073392e-06	-8.021561e-09	-2.817351e+01	-5.259225e+02
5.000000e-07	-3.967399e-06	-7.898607e-09	-2.744041e+01	-5.188556e+02
5.100000e-07	-3.859876e-06	-7.779735e-09	-2.669673e+01	-5.116395e+02
5.200000e-07	-3.750993e-06	-7.671334e-09	-2.594364e+01	-5.042686e+02
5.300000e-07	-3.640901e-06	-7.556749e-09	-2.518220e+01	-4.967332e+02
5.400000e-07	-3.529482e-06	-7.432337e-09	-2.441157e+01	-4.890204e+02
5.500000e-07	-3.416541e-06	-7.306744e-09	-2.363041e+01	-4.811154e+02
5.600000e-07	-3.302117e-06	-7.181939e-09	-2.283900e+01	-4.730035e+02
5.700000e-07	-3.186326e-06	-7.060421e-09	-2.203814e+01	-4.646711e+02
5.800000e-07	-3.069251e-06	-6.936509e-09	-2.122839e+01	-4.561081e+02
5.900000e-07	-2.951055e-06	-6.804697e-09	-2.041090e+01	-4.473079e+02
6.000000e-07	-2.831867e-06	-6.661388e-09	-1.958653e+01	-4.382684e+02
6.100000e-07	-2.711642e-06	-6.514543e-09	-1.875500e+01	-4.289917e+02
6.200000e-07	-2.590313e-06	-6.371732e-09	-1.791583e+01	-4.194828e+02
6.300000e-07	-2.467999e-06	-6.223846e-09	-1.706985e+01	-4.097478e+02
6.400000e-07	-2.344761e-06	-6.065642e-09	-1.621748e+01	-3.997929e+02
6.500000e-07	-2.220611e-06	-5.902644e-09	-1.535880e+01	-3.896214e+02
6.600000e-07	-2.095704e-06	-5.740600e-09	-1.449488e+01	-3.792325e+02
6.700000e-07	-1.970137e-06	-5.580889e-09	-1.362640e+01	-3.686202e+02
6.800000e-07	-1.843976e-06	-5.420564e-09	-1.275381e+01	-3.577727e+02
6.900000e-07	-1.717232e-06	-5.255487e-09	-1.187719e+01	-3.466730e+02
7.000000e-07	-1.589849e-06	-5.080524e-09	-1.099615e+01	-3.352998e+02
7.100000e-07	-1.461862e-06	-4.896777e-09	-1.011093e+01	-3.236300e+02
7.200000e-07	-1.333392e-06	-4.711740e-09	-9.222369e+00	-3.116402e+02
7.300000e-07	-1.204510e-06	-4.527489e-09	-8.330962e+00	-2.993099e+02
7.400000e-07	-1.075201e-06	-4.336848e-09	-7.436598e+00	-2.866225e+02
7.500000e-07	-9.454542e-07	-4.136290e-09	-6.539209e+00	-2.735671e+02
7.600000e-07	-8.153404e-07	-3.929425e-09	-5.639280e+00	-2.601386e+02
7.700000e-07	-6.849417e-07	-3.718976e-09	-4.737381e+00	-2.463366e+02
7.800000e-07	-5.543409e-07	-3.505264e-09	-3.834084e+00	-2.321634e+02
7.900000e-07	-4.236094e-07	-3.286814e-09	-2.929883e+00	-2.176209e+02
8.000000e-07	-2.926884e-07	-3.060073e-09	-2.024372e+00	-2.027077e+02
8.100000e-07	-1.616385e-07	-2.824247e-09	-1.117968e+00	-1.874149e+02
8.200000e-07	-3.053054e-08	-2.582456e-09	-2.111637e-01	-1.717238e+02
8.300000e-07	1.006531e-07	-2.336908e-09	6.961645e-01	-1.556038e+02
8.400000e-07	2.318125e-07	-2.087354e-09	1.603325e+00	-1.390124e+02
8.500000e-07	3.629244e-07	-1.828564e-09	2.510157e+00	-1.218965e+02
8.600000e-07	4.939992e-07	-1.558490e-09	3.416732e+00	-1.041961e+02
8.700000e-07	6.249432e-07	-1.277233e-09	4.322403e+00	-8.584975e+01
8.800000e-07	7.556937e-07	-9.860497e-10	5.226735e+00	-6.680098e+01
8.900000e-07	8.861840e-07	-6.844598e-10	6.129268e+00	-4.700581e+01
9.000000e-07	1.016321e-06	-3.717502e-10	7.029360e+00	-2.644016e+01
9.100000e-07	1.146056e-06	-4.789291e-11	7.926662e+00	-5.106446e+00
9.200000e-07	1.275324e-06	2.871358e-10	8.820746e+00	1.696144e+01
9.300000e-07	1.404098e-06	6.305811e-10	9.711405e+00	3.969534e+01
9.400000e-07	1.532407e-06	9.801326e-10	1.059885e+01	6.299282e+01
9.500000e-07	1.660193e-06	1.337973e-09	1.148268e+01	8.671990e+01
9.600000e-07	1.787322e-06	1.704015e-09	1.236197e+01	1.107166e+02
9.700000e-07	1.913751e-06	2.075093e-09	1.323641e+01	1.348045e+02
9.800000e-07	2.039541e-06	2.444304e-09	1.410643e+01	1.587966e+02
9.900000e-07	2.164699e-06	2.807208e-09	1.497208e+01	1.825072e+02
1.000000e-06	2.289147e-06	3.161663e-09	1.583283e+01	2.057618e+02
1.010000e-06	2.412812e-06	3.506794e-09	1.668815e+01	2.284066e+02
1.020000e-06	2.535563e-06	3.839894e-09	1.753715e+01	2.503152e+02
1.030000e-06	2.657246e-06	4.158520e-09	1.837877e+01	2.713934e+02
1.040000e-06	2.777856e-06	4.462811e-09	1.921296e+01	2.915815e+02
1.050000e-06	2.897370e-06	4.751780e-09	2.003958e+01	3.108534e+02
1.060000e-06	3.015840e-06	5.026252e-09	2.085898e+01	3.292131e+02
1.070000e-06	3.133319e-06	5.289213e-09	2.167152e+01	3.466899e+02
1.080000e-06	3.249674e-06	5.541053e-09	2.247628e+01	3.633313e+02
1.090000e-06	3.364744e-06	5.782658e-09	2.327216e+01	3.791963e+02
1.100000e-06	3.478404e-06	6.014241e-09	2.405828e+01	3.943482e+02
1.110000e-06	3.590691e-06	6.238055e-09	2.483492e+01	4.088483e+02
1.120000e-06	3.701680e-06	6.452801e-09	2.560257e+01	4.227518e+02
1.130000e-06	3.811409e-06	6.655579e-09	2.636151e+01	4.361040e+02
1.140000e-06	3.919949e-06	6.849017e-09	2.711222e+01	4.489394e+02
1.150000e-06	4.027221e-06	7.034328e-09	2.785417e+01	4.612820e+02
1.160000e-06	4.133025e-06	7.211946e-09	2.858596e+01	4.731471e+02
1.170000e-06	4.237252e-06	7.382939e-09	2.930684e+01	4.845433e+02
1.180000e-06	4.339958e-06	7.547216e-09	3.001720e+01	4.954759e+02
1.190000e-06	4.441182e-06	7.705701e-09	3.071732e+01	5.059493e+02
1.200000e-06	4.540873e-06	7.859469e-09	3.140683e+01	5.159699e+02
1.210000e-06	4.638881e-06	8.007181e-09	3.208469e+01	5.255468e+02
1.220000e-06	4.735071e-06	8.148753e-09	3.274999e+01	5.346936e+02
1.230000e-06	4.829528e-06	8.283395e-09	3.340330e+01	5.434270e+02
1.240000e-06	4.922382e-06	8.413273e-09	3.404552e+01	5.517672e+02
1.250000e-06	5.013562e-06	8.535947e-09	3.467616e+01	5.597356e+02
1.260000e-06	5.102861e-06	8.651869e-09	3.529380e+01	5.673538e+02
1.270000e-06	5.190258e-06	8.764021e-09	3.589828e+01	5.746421e+02
1.280000e-06	5.275859e-06	8.872062e-09	3.649034e+01	5.816185e+02
1.290000e-06	5.359675e-06	8.973545e-09	3.707005e+01	5.882979e+02
1.300000e-06	5.441589e-06	9.067113e-09	3.763660e+01	5.946927e+02
1.310000e-06	5.521441e-06	9.155295e-09	3.818890e+01	6.008125e+02
1.320000e-06	5.599278e-06	9.239091e-09	3.872725e+01	6.066658e+02
1.330000e-06	5.675116e-06	9.319507e-09	3.925179e+01	6.122601e+02
1.340000e-06	5.748700e-06	9.400183e-09	3.976073e+01	6.176039e+02
1.350000e-06	5.820046e-06	9.479381e-09	4.025419e+01	6.227064e+02
1.360000e-06	5.889383e-06	9.554081e-09	4.073376e+01	6.275786e+02
1.370000e-06	5.956642e-06	9.625903e-09	4.119895e+01	6.322328e+02
1.380000e-06	6.021660e-06	9.696475e-09	4.164865e+01	6.366821e+02
1.390000e-06	6.084538e-06	9.765188e-09	4.208354e+01	6.409394e+02
1.400000e-06	6.145463e-06	9.829407e-09	4.250493e+01	6.450165e+02
1.410000e-06	6.204320e-06	9.887529e-09	4.291201e+01	6.489225e+02
1.420000e-06	6.260915e-06	9.941319e-09	4.330345e+01	6.526633e+02
1.430000e-06	6.315264e-06	9.992468e-09	4.367935e+01	6.562411e+02
1.440000e-06	6.367232e-06	1.004179e-08	4.403879e+01	6.596537e+02
1.450000e-06	6.416557e-06	1.009085e-08	4.437994e+01	6.628958e+02
1.460000e-06	6.463401e-06	1.013933e-08	4.470394e+01	6.659594e+02
1.470000e-06	6.508079e-06	1.018444e-08	4.501295e+01	6.688352e+02
1.480000e-06	6.550468e-06	1.022566e-08	4.530613e+01	6.715145e+02
1.490000e-06	6.590428e-06	1.026400e-08	4.558252e+01	6.739901e+02
1.500000e-06	6.628106e-06	1.029731e-08	4.584312e+01	6.762583e+02
1.510000e-06	6.663574e-06	1.032556e-08	4.608843e+01	6.783190e+02
1.520000e-06	6.696612e-06	1.035051e-08	4.631694e+01	6.801766e+02
1.530000e-06	6.727244e-06	1.037263e-08	4.652880e+01	6.818398e+02
1.540000e-06	6.755716e-06	1.039539e-08	4.672573e+01	6.833202e+02
1.550000e-06	6.781754e-06	1.041766e-08	4.690582e+01	6.846319e+02
1.560000e-06	6.805122e-06	1.043737e-08	4.706744e+01	6.857893e+02
1.570000e-06	6.826095e-06	1.045413e-08	4.721250e+01	6.868059e+02
1.580000e-06	6.844787e-06	1.046815e-08	4.734179e+01	6.876930e+02
1.590000e-06	6.860982e-06	1.047964e-08	4.745380e+01	6.884583e+02
1.600000e-06	6.874574e-06	1.048915e-08	4.754781e+01	6.891054e+02
1.610000e-06	6.885482e-06	1.049572e-08	4.762325e+01	6.896340e+02
1.620000e-06	6.893732e-06	1.049996e-08	4.768031e+01	6.900399e+02
1.630000e-06	6.899540e-06	1.050289e-08	4.772048e+01	6.903164e+02
1.640000e-06	6.902963e-06	1.050527e-08	4.774416e+01	6.904555e+02
1.650000e-06	6.903916e-06	1.050672e-08	4.775075e+01	6.904493e+02
1.660000e-06	6.902467e-06	1.050386e-08	4.774072e+01	6.902916e+02
1.670000e-06	6.898829e-06	1.050151e-08	4.771556e+01	6.899791e+02
1.680000e-06	6.892880e-06	1.049395e-08	4.767442e+01	6.895122e+02
1.690000e-06	6.884620e-06	1.048484e-08	4.761729e+01	6.888956e+02
1.700000e-06	6.874182e-06	1.047561e-08	4.754509e+01	6.881383e+02
1.710000e-06	6.861351e-06	1.046471e-08	4.745635e+01	6.872527e+02
1.720000e-06	6.846153e-06	1.044762e-08	4.735124e+01	6.862537e+02
1.730000e-06	6.828826e-06	1.041384e-08	4.723139e+01	6.851579e+02
1.740000e-06	6.809183e-06	1.041583e-08	4.709553e+01	6.839811e+02
1.750000e-06	6.786474e-06	1.038871e-08	4.693846e+01	6.827376e+02
1.760000e-06	6.760534e-06	1.034835e-08	4.675905e+01	6.814386e+02
1.770000e-06	6.731986e-06	1.034635e-08	4.656160e+01	6.800909e+02
1.780000e-06	6.701338e-06	1.031533e-08	4.634962e+01	6.786964e+02
1.790000e-06	6.669099e-06	1.028185e-08	4.612665e+01	6.772515e+02
1.800000e-06	6.635346e-06	1.034266e-08	4.589319e+01	6.757474e+02
1.810000e-06	6.599251e-06	1.027391e-08	4.564354e+01	6.741706e+02
1.820000e-06	6.560644e-06	1.025962e-08	4.537652e+01	6.725038e+02
1.830000e-06	6.519949e-06	1.029590e-08	4.509505e+01	6.707271e+02
1.840000e-06	6.477083e-06	1.014933e-08	4.479857e+01	6.688193e+02
1.850000e-06	6.432010e-06	1.014777e-08	4.448682e+01	6.667593e+02
1.860000e-06	6.384487e-06	1.009735e-08	4.415813e+01	6.645279e+02
1.870000e-06	6.334526e-06	1.002809e-08	4.381258e+01	6.621087e+02
1.880000e-06	6.282283e-06	1.008247e-08	4.345124e+01	6.594894e+02
1.890000e-06	6.227381e-06	1.003619e-08	4.307151e+01	6.566625e+02
1.900000e-06	6.170020e-06	1.002464e-08	4.267478e+01	6.536254e+02
1.910000e-06	6.110395e-06	9.938886e-09	4.226239e+01	6.503810e+02
1.920000e-06	6.048415e-06	9.821309e-09	4.183370e+01	6.469367e+02
1.930000e-06	5.984257e-06	9.818387e-09	4.138995e+01	6.433035e+02
1.940000e-06	5.917928e-06	9.755728e-09	4.093119e+01	6.394953e+02
1.950000e-06	5.849444e-06	9.730453e-09	4.045752e+01	6.355271e+02
1.960000e-06	5.778552e-06	9.642844e-09	3.996720e+01	6.314139e+02
1.970000e-06	5.705317e-06	9.571525e-09	3.946067e+01	6.271686e+02
1.980000e-06	5.630022e-06	9.507262e-09	3.893990e+01	6.228013e+02
1.990000e-06	5.552499e-06	9.407390e-09	3.840371e+01	6.183183e+02
2.000000e-06	5.472763e-06	9.379303e-09	3.785222e+01	6.137213e+02
2.010000e-06	5.391087e-06	9.292910e-09	3.728731e+01	6.090075e+02
2.020000e-06	5.307732e-06	9.218248e-09	3.671079e+01	6.041702e+02
2.030000e-06	5.222497e-06	9.136215e-09	3.612126e+01	5.991992e+02
2.040000e-06	5.135173e-06	9.064685e-09	3.551729e+01	5.940830e+02
2.050000e-06	5.046051e-06	8.985844e-09	3.490088e+01	5.888093e+02
2.060000e-06	4.955351e-06	8.876199e-09	3.427355e+01	5.833669e+02
2.070000e-06	4.863029e-06	8.806077e-09	3.363501e+01	5.777473e+02
2.080000e-06	4.768898e-06	8.720375e-09	3.298395e+01	5.719449e+02
2.090000e-06	4.672996e-06	8.649828e-09	3.232065e+01	5.659584e+02
2.100000e-06	4.575530e-06	8.556620e-09	3.164653e+01	5.597899e+02
2.110000e-06	4.476618e-06	8.461972e-09	3.096240e+01	5.534449e+02
2.120000e-06	4.376152e-06	8.352467e-09	3.026754e+01	5.469307e+02
2.130000e-06	4.273987e-06	8.227230e-09	2.956092e+01	5.402556e+02
2.140000e-06	4.170164e-06	8.124472e-09	2.884283e+01	5.334266e+02
2.150000e-06	4.064864e-06	8.032672e-09	2.811452e+01	5.264486e+02
2.160000e-06	3.958288e-06	7.943029e-09	2.737739e+01	5.193227e+02
2.170000e-06	3.850418e-06	7.831099e-09	2.663131e+01	5.120460e+02
2.180000e-06	3.741129e-06	7.711263e-09	2.587542e+01	5.046111e+02
2.190000e-06	3.630360e-06	7.584810e-09	2.510928e+01	4.970069e+02
2.200000e-06	3.518176e-06	7.472558e-09	2.433337e+01	4.892197e+02
2.210000e-06	3.404663e-06	7.354789e-09	2.354826e+01	4.812344e+02
2.220000e-06	3.289825e-06	7.228514e-09	2.275398e+01	4.730366e+02
2.230000e-06	3.173573e-06	7.092734e-09	2.194993e+01	4.646139e+02
2.240000e-06	3.055863e-06	6.954590e-09	2.113579e+01	4.559575e+02
2.250000e-06	2.936904e-06	6.819120e-09	2.031302e+01	4.470625e+02
2.260000e-06	2.816882e-06	6.682700e-09	1.948289e+01	4.379287e+02
2.270000e-06	2.695822e-06	6.550591e-09	1.864558e+01	4.285593e+02
2.280000e-06	2.573828e-06	6.410896e-09	1.780181e+01	4.189600e+02
2.290000e-06	2.451009e-06	6.263513e-09	1.695234e+01	4.091373e+02
2.300000e-06	2.327356e-06	6.113647e-09	1.609710e+01	3.990964e+02
2.310000e-06	2.202926e-06	5.966212e-09	1.523648e+01	3.888390e+02
2.320000e-06	2.077757e-06	5.806523e-09	1.437075e+01	3.783627e+02
2.330000e-06	1.951812e-06	5.631126e-09	1.349966e+01	3.676590e+02
2.340000e-06	1.825153e-06	5.450619e-09	1.262362e+01	3.567140e+02
2.350000e-06	1.697833e-06	5.276965e-09	1.174301e+01	3.455088e+02
2.360000e-06	1.569951e-06	5.108125e-09	1.085852e+01	3.340211e+02
2.370000e-06	1.441545e-06	4.935882e-09	9.970405e+00	3.222276e+02
2.380000e-06	1.312651e-06	4.755366e-09	9.078915e+00	3.101055e+02
2.390000e-06	1.183331e-06	4.562758e-09	8.184476e+00	2.976358e+02
2.400000e-06	1.053634e-06	4.362036e-09	7.287433e+00	2.848041e+02
2.410000e-06	9.236357e-07	4.161753e-09	6.388302e+00	2.716017e+02
2.420000e-06	7.933684e-07	3.960982e-09	5.487311e+00	2.580256e+02
2.430000e-06	6.629278e-07	3.750992e-09	4.585122e+00	2.440767e+02
2.440000e-06	5.323413e-07	3.531076e-09	3.681925e+00	2.297575e+02
2.450000e-06	4.015843e-07	3.304062e-09	2.777547e+00	2.150692e+02
2.460000e-06	2.706377e-07	3.073722e-09	1.871859e+00	2.000076e+02
2.470000e-06	1.395358e-07	2.839723e-09	9.650957e-01	1.845605e+02
2.480000e-06	8.392505e-09	2.599005e-09	5.804653e-02	1.687045e+02
2.490000e-06	-1.227502e-07	2.348448e-09	-8.489985e-01	1.524042e+02
2.500000e-06	-2.538583e-07	2.085594e-09	-1.755804e+00	1.356128e+02
2.510000e-06	-3.848781e-07	1.814136e-09	-2.661999e+00	1.182739e+02
2.520000e-06	-5.157917e-07	1.538899e-09	-3.567460e+00	1.003263e+02
2.530000e-06	-6.465653e-07	1.256864e-09	-4.471952e+00	8.170945e+01
2.540000e-06	-7.771231e-07	9.642594e-10	-5.374951e+00	6.237101e+01
2.550000e-06	-9.074450e-07	6.593449e-10	-6.276319e+00	4.227395e+01
2.560000e-06	-1.037486e-06	3.436465e-10	-7.175745e+00	2.140387e+01
2.570000e-06	-1.167169e-06	2.102679e-11	-8.072693e+00	-2.249131e-01
2.580000e-06	-1.296474e-06	-3.150033e-10	-8.967027e+00	-2.256524e+01
2.590000e-06	-1.425350e-06	-6.679002e-10	-9.858394e+00	-4.553535e+01
2.600000e-06	-1.553751e-06	-1.031225e-09	-1.074647e+01	-6.901992e+01
2.610000e-06	-1.681608e-06	-1.401354e-09	-1.163079e+01	-9.287393e+01
2.620000e-06	-1.808827e-06	-1.773633e-09	-1.251070e+01	-1.169292e+02
2.630000e-06	-1.935319e-06	-2.144769e-09	-1.338558e+01	-1.410027e+02
2.640000e-06	-2.061029e-06	-2.512415e-09	-1.425505e+01	-1.649067e+02
2.650000e-06	-2.185879e-06	-2.874729e-09	-1.511857e+01	-1.884587e+02
2.660000e-06	-2.309862e-06	-3.228681e-09	-1.597610e+01	-2.114915e+02
2.670000e-06	-2.433045e-06	-3.566620e-09	-1.682809e+01	-2.338611e+02
2.680000e-06	-2.555291e-06	-3.888187e-09	-1.767360e+01	-2.554535e+02
2.690000e-06	-2.676575e-06	-4.198375e-09	-1.851246e+01	-2.761880e+02
2.700000e-06	-2.796930e-06	-4.499058e-09	-1.934489e+01	-2.960183e+02
2.710000e-06	-2.916214e-06	-4.790697e-09	-2.016992e+01	-3.149306e+02
2.720000e-06	-3.034325e-06	-5.071922e-09	-2.098683e+01	-3.329395e+02
2.730000e-06	-3.151190e-06	-5.338485e-09	-2.179512e+01	-3.500824e+02
2.740000e-06	-3.266765e-06	-5.590237e-09	-2.259449e+01	-3.664121e+02
2.750000e-06	-3.380984e-06	-5.830687e-09	-2.338448e+01	-3.819901e+02
2.760000e-06	-3.493829e-06	-6.060966e-09	-2.416497e+01	-3.968797e+02
2.770000e-06	-3.605337e-06	-6.279088e-09	-2.493621e+01	-4.111401e+02
2.780000e-06	-3.715481e-06	-6.488469e-09	-2.569802e+01	-4.248229e+02
2.790000e-06	-3.824333e-06	-6.691036e-09	-2.645090e+01	-4.379692e+02
2.800000e-06	-3.931998e-06	-6.887540e-09	-2.719556e+01	-4.506095e+02
2.810000e-06	-4.038468e-06	-7.076860e-09	-2.793196e+01	-4.627639e+02
2.820000e-06	-4.143580e-06	-7.256188e-09	-2.865896e+01	-4.744447e+02
2.830000e-06	-4.247112e-06	-7.425622e-09	-2.937504e+01	-4.856590e+02
2.840000e-06	-4.349029e-06	-7.586442e-09	-3.007994e+01	-4.964114e+02
2.850000e-06	-4.449356e-06	-7.741040e-09	-3.077385e+01	-5.067067e+02
2.860000e-06	-4.548114e-06	-7.889867e-09	-3.145691e+01	-5.165524e+02
2.870000e-06	-4.645348e-06	-8.033191e-09	-3.212942e+01	-5.259593e+02
2.880000e-06	-4.741007e-06	-8.170449e-09	-3.279105e+01	-5.349422e+02
2.890000e-06	-4.834890e-06	-8.300928e-09	-3.344039e+01	-5.435194e+02
2.900000e-06	-4.926982e-06	-8.425952e-09	-3.407734e+01	-5.517117e+02
2.910000e-06	-5.017374e-06	-8.546731e-09	-3.470253e+01	-5.595407e+02
2.920000e-06	-5.105962e-06	-8.663753e-09	-3.531525e+01	-5.670277e+02
2.930000e-06	-5.192618e-06	-8.774562e-09	-3.591460e+01	-5.741922e+02
2.940000e-06	-5.277304e-06	-8.879604e-09	-3.650033e+01	-5.810511e+02
