# Temperatura_=_47.35
# Concentracion g/m^3_=_15000.0
# C_Vs_to_Am_M_A/Vsm_=_65563218390.804596
# pendiente_HvsI_1/m_=_3716.3
# ordenada_HvsI_A/m_=_1297.0
# frecuencia_Hz_=_301895.7759549554

Tiempo_(s)	Campo_(V.s)	Magnetizacion_(V.s)	Campo_(kA/m)	Magnetizacion_(A/m)
0.000000e+00	-6.869901e-06	-8.696999e-09	-4.750124e+01	-5.684399e+02
1.000000e-08	-6.867270e-06	-8.697082e-09	-4.748304e+01	-5.683060e+02
2.000000e-08	-6.862301e-06	-8.696035e-09	-4.744869e+01	-5.680561e+02
3.000000e-08	-6.855195e-06	-8.691895e-09	-4.739955e+01	-5.676925e+02
4.000000e-08	-6.845843e-06	-8.685992e-09	-4.733489e+01	-5.672211e+02
5.000000e-08	-6.833994e-06	-8.677672e-09	-4.725296e+01	-5.666510e+02
6.000000e-08	-6.819534e-06	-8.666993e-09	-4.715298e+01	-5.659936e+02
7.000000e-08	-6.802690e-06	-8.653430e-09	-4.703651e+01	-5.652621e+02
8.000000e-08	-6.783772e-06	-8.639097e-09	-4.690571e+01	-5.644695e+02
9.000000e-08	-6.762561e-06	-8.648438e-09	-4.675905e+01	-5.636276e+02
1.000000e-07	-6.738612e-06	-8.644893e-09	-4.659345e+01	-5.627454e+02
1.100000e-07	-6.711868e-06	-8.608096e-09	-4.640853e+01	-5.618281e+02
1.200000e-07	-6.682664e-06	-8.579711e-09	-4.620660e+01	-5.608763e+02
1.300000e-07	-6.651402e-06	-8.560049e-09	-4.599044e+01	-5.598859e+02
1.400000e-07	-6.618247e-06	-8.508954e-09	-4.576120e+01	-5.588483e+02
1.500000e-07	-6.583169e-06	-8.490684e-09	-4.551865e+01	-5.577511e+02
1.600000e-07	-6.546001e-06	-8.538081e-09	-4.526166e+01	-5.565792e+02
1.700000e-07	-6.506776e-06	-8.470687e-09	-4.499045e+01	-5.553160e+02
1.800000e-07	-6.465277e-06	-8.439511e-09	-4.470351e+01	-5.539453e+02
1.900000e-07	-6.421234e-06	-8.444321e-09	-4.439898e+01	-5.524518e+02
2.000000e-07	-6.374946e-06	-8.386066e-09	-4.407892e+01	-5.508233e+02
2.100000e-07	-6.326197e-06	-8.404229e-09	-4.374185e+01	-5.490507e+02
2.200000e-07	-6.274650e-06	-8.391106e-09	-4.338543e+01	-5.471286e+02
2.300000e-07	-6.220529e-06	-8.333440e-09	-4.301122e+01	-5.450557e+02
2.400000e-07	-6.164016e-06	-8.269442e-09	-4.262047e+01	-5.428341e+02
2.500000e-07	-6.105190e-06	-8.217942e-09	-4.221372e+01	-5.404689e+02
2.600000e-07	-6.044120e-06	-8.202246e-09	-4.179146e+01	-5.379672e+02
2.700000e-07	-5.980871e-06	-8.164586e-09	-4.135413e+01	-5.353370e+02
2.800000e-07	-5.915403e-06	-8.123548e-09	-4.090146e+01	-5.325869e+02
2.900000e-07	-5.847697e-06	-8.066095e-09	-4.043331e+01	-5.297244e+02
3.000000e-07	-5.777858e-06	-8.007747e-09	-3.995042e+01	-5.267558e+02
3.100000e-07	-5.705897e-06	-7.985494e-09	-3.945285e+01	-5.236856e+02
3.200000e-07	-5.631674e-06	-7.949449e-09	-3.893964e+01	-5.205162e+02
3.300000e-07	-5.555145e-06	-7.901166e-09	-3.841049e+01	-5.172481e+02
3.400000e-07	-5.476383e-06	-7.832268e-09	-3.786590e+01	-5.138796e+02
3.500000e-07	-5.395474e-06	-7.772781e-09	-3.730646e+01	-5.104077e+02
3.600000e-07	-5.312658e-06	-7.730114e-09	-3.673384e+01	-5.068282e+02
3.700000e-07	-5.228119e-06	-7.685401e-09	-3.614930e+01	-5.031362e+02
3.800000e-07	-5.141880e-06	-7.632355e-09	-3.555301e+01	-4.993265e+02
3.900000e-07	-5.053903e-06	-7.550604e-09	-3.494470e+01	-4.953941e+02
4.000000e-07	-4.964043e-06	-7.471472e-09	-3.432337e+01	-4.913347e+02
4.100000e-07	-4.872425e-06	-7.406503e-09	-3.368989e+01	-4.871443e+02
4.200000e-07	-4.779254e-06	-7.358489e-09	-3.304567e+01	-4.828201e+02
4.300000e-07	-4.684440e-06	-7.297965e-09	-3.239009e+01	-4.783600e+02
4.400000e-07	-4.587894e-06	-7.215481e-09	-3.172253e+01	-4.737627e+02
4.500000e-07	-4.489560e-06	-7.135638e-09	-3.104261e+01	-4.690276e+02
4.600000e-07	-4.389622e-06	-7.056304e-09	-3.035160e+01	-4.641543e+02
4.700000e-07	-4.288208e-06	-6.982718e-09	-2.965038e+01	-4.591427e+02
4.800000e-07	-4.185288e-06	-6.916113e-09	-2.893875e+01	-4.539921e+02
4.900000e-07	-4.080938e-06	-6.841335e-09	-2.821723e+01	-4.487017e+02
5.000000e-07	-3.975032e-06	-6.743693e-09	-2.748495e+01	-4.432696e+02
5.100000e-07	-3.867548e-06	-6.650542e-09	-2.674177e+01	-4.376932e+02
5.200000e-07	-3.758687e-06	-6.570583e-09	-2.598906e+01	-4.319687e+02
5.300000e-07	-3.648552e-06	-6.485247e-09	-2.522754e+01	-4.260914e+02
5.400000e-07	-3.537159e-06	-6.383779e-09	-2.445733e+01	-4.200561e+02
5.500000e-07	-3.424319e-06	-6.277086e-09	-2.367710e+01	-4.138569e+02
5.600000e-07	-3.309916e-06	-6.177661e-09	-2.288608e+01	-4.074880e+02
5.700000e-07	-3.194061e-06	-6.081223e-09	-2.208501e+01	-4.009435e+02
5.800000e-07	-3.076967e-06	-5.989668e-09	-2.127538e+01	-3.942186e+02
5.900000e-07	-2.958787e-06	-5.892021e-09	-2.045824e+01	-3.873088e+02
6.000000e-07	-2.839604e-06	-5.778396e-09	-1.963416e+01	-3.802107e+02
6.100000e-07	-2.719470e-06	-5.654999e-09	-1.880350e+01	-3.729216e+02
6.200000e-07	-2.598270e-06	-5.538875e-09	-1.796548e+01	-3.654390e+02
6.300000e-07	-2.475937e-06	-5.427048e-09	-1.711962e+01	-3.577605e+02
6.400000e-07	-2.352619e-06	-5.307066e-09	-1.626695e+01	-3.498827e+02
6.500000e-07	-2.228448e-06	-5.179278e-09	-1.540838e+01	-3.418010e+02
6.600000e-07	-2.103562e-06	-5.047331e-09	-1.454487e+01	-3.335087e+02
6.700000e-07	-1.978077e-06	-4.916384e-09	-1.367721e+01	-3.249970e+02
6.800000e-07	-1.851961e-06	-4.785708e-09	-1.280520e+01	-3.162546e+02
6.900000e-07	-1.725181e-06	-4.655241e-09	-1.192859e+01	-3.072679e+02
7.000000e-07	-1.597825e-06	-4.516419e-09	-1.104800e+01	-2.980218e+02
7.100000e-07	-1.469946e-06	-4.366203e-09	-1.016379e+01	-2.885005e+02
7.200000e-07	-1.341551e-06	-4.212189e-09	-9.276022e+00	-2.786882e+02
7.300000e-07	-1.212690e-06	-4.056419e-09	-8.385019e+00	-2.685707e+02
7.400000e-07	-1.083374e-06	-3.896800e-09	-7.490877e+00	-2.581362e+02
7.500000e-07	-9.536187e-07	-3.731627e-09	-6.593700e+00	-2.473758e+02
7.600000e-07	-8.235178e-07	-3.560374e-09	-5.694131e+00	-2.362837e+02
7.700000e-07	-6.931416e-07	-3.384046e-09	-4.792658e+00	-2.248575e+02
7.800000e-07	-5.624629e-07	-3.205038e-09	-3.889093e+00	-2.130963e+02
7.900000e-07	-4.315827e-07	-3.024913e-09	-2.984135e+00	-2.009997e+02
8.000000e-07	-3.005971e-07	-2.841392e-09	-2.078449e+00	-1.885662e+02
8.100000e-07	-1.694641e-07	-2.647481e-09	-1.171743e+00	-1.757903e+02
8.200000e-07	-3.825160e-08	-2.444289e-09	-2.644868e-01	-1.626613e+02
8.300000e-07	9.299402e-08	-2.238228e-09	6.429978e-01	-1.491613e+02
8.400000e-07	2.242812e-07	-2.029790e-09	1.550769e+00	-1.352646e+02
8.500000e-07	3.555147e-07	-1.813905e-09	2.458171e+00	-1.209382e+02
8.600000e-07	4.866102e-07	-1.587992e-09	3.364617e+00	-1.061429e+02
8.700000e-07	6.176215e-07	-1.352152e-09	4.270481e+00	-9.083641e+01
8.800000e-07	7.485097e-07	-1.108883e-09	5.175495e+00	-7.497698e+01
8.900000e-07	8.791002e-07	-8.608716e-10	6.078449e+00	-5.852823e+01
9.000000e-07	1.009332e-06	-6.066388e-10	6.978924e+00	-4.146433e+01
9.100000e-07	1.139145e-06	-3.423056e-10	7.876503e+00	-2.377520e+01
9.200000e-07	1.268482e-06	-6.584498e-11	8.770792e+00	-5.471046e+00
9.300000e-07	1.397311e-06	2.208310e-10	9.661568e+00	1.341409e+01
9.400000e-07	1.525612e-06	5.145598e-10	1.054869e+01	3.282045e+01
9.500000e-07	1.653400e-06	8.156287e-10	1.143227e+01	5.266253e+01
9.600000e-07	1.780548e-06	1.124214e-09	1.231142e+01	7.283108e+01
9.700000e-07	1.906992e-06	1.438861e-09	1.318571e+01	9.319713e+01
9.800000e-07	2.032852e-06	1.753675e-09	1.405595e+01	1.136177e+02
9.900000e-07	2.158084e-06	2.067025e-09	1.492185e+01	1.339429e+02
1.000000e-06	2.282566e-06	2.375922e-09	1.578257e+01	1.540235e+02
1.010000e-06	2.406284e-06	2.676264e-09	1.663801e+01	1.737187e+02
1.020000e-06	2.529097e-06	2.968333e-09	1.748719e+01	1.929033e+02
1.030000e-06	2.650865e-06	3.247950e-09	1.832914e+01	2.114732e+02
1.040000e-06	2.771580e-06	3.515052e-09	1.916381e+01	2.293498e+02
1.050000e-06	2.891186e-06	3.770133e-09	1.999081e+01	2.464815e+02
1.060000e-06	3.009716e-06	4.014505e-09	2.081038e+01	2.628438e+02
1.070000e-06	3.127271e-06	4.250302e-09	2.162320e+01	2.784368e+02
1.080000e-06	3.243714e-06	4.476803e-09	2.242834e+01	2.932815e+02
1.090000e-06	3.358864e-06	4.691323e-09	2.322453e+01	3.074142e+02
1.100000e-06	3.472634e-06	4.894125e-09	2.401118e+01	3.208811e+02
1.110000e-06	3.584944e-06	5.087917e-09	2.478774e+01	3.337321e+02
1.120000e-06	3.695954e-06	5.274416e-09	2.555530e+01	3.460160e+02
1.130000e-06	3.805827e-06	5.454346e-09	2.631501e+01	3.577761e+02
1.140000e-06	3.914511e-06	5.627832e-09	2.706649e+01	3.690474e+02
1.150000e-06	4.021928e-06	5.793815e-09	2.780921e+01	3.798554e+02
1.160000e-06	4.127892e-06	5.952415e-09	2.854189e+01	3.902163e+02
1.170000e-06	4.232182e-06	6.104310e-09	2.926300e+01	4.001385e+02
1.180000e-06	4.334913e-06	6.247594e-09	2.997332e+01	4.096248e+02
1.190000e-06	4.436248e-06	6.384446e-09	3.067399e+01	4.186758e+02
1.200000e-06	4.536113e-06	6.515078e-09	3.136450e+01	4.272922e+02
1.210000e-06	4.634268e-06	6.637910e-09	3.204318e+01	4.354777e+02
1.220000e-06	4.730532e-06	6.754388e-09	3.270879e+01	4.432410e+02
1.230000e-06	4.825063e-06	6.863955e-09	3.336241e+01	4.505963e+02
1.240000e-06	4.918042e-06	6.970084e-09	3.400530e+01	4.575641e+02
1.250000e-06	5.009389e-06	7.073130e-09	3.463692e+01	4.641695e+02
1.260000e-06	5.098883e-06	7.171216e-09	3.525571e+01	4.704414e+02
1.270000e-06	5.186421e-06	7.264051e-09	3.586099e+01	4.764101e+02
1.280000e-06	5.272096e-06	7.351232e-09	3.645337e+01	4.821052e+02
1.290000e-06	5.355996e-06	7.432758e-09	3.703349e+01	4.875540e+02
1.300000e-06	5.438036e-06	7.508728e-09	3.760075e+01	4.927797e+02
1.310000e-06	5.518035e-06	7.581240e-09	3.815390e+01	4.978005e+02
1.320000e-06	5.595980e-06	7.650797e-09	3.869284e+01	5.026293e+02
1.330000e-06	5.671881e-06	7.719592e-09	3.921765e+01	5.072743e+02
1.340000e-06	5.745551e-06	7.789084e-09	3.972703e+01	5.117394e+02
1.350000e-06	5.817003e-06	7.857283e-09	4.022108e+01	5.160257e+02
1.360000e-06	5.886452e-06	7.921696e-09	4.070128e+01	5.201324e+02
1.370000e-06	5.953880e-06	7.981562e-09	4.116750e+01	5.240587e+02
1.380000e-06	6.019076e-06	8.036223e-09	4.161829e+01	5.278040e+02
1.390000e-06	6.082134e-06	8.088272e-09	4.205430e+01	5.313692e+02
1.400000e-06	6.143262e-06	8.138837e-09	4.247696e+01	5.347563e+02
1.410000e-06	6.202343e-06	8.187352e-09	4.288547e+01	5.379687e+02
1.420000e-06	6.259167e-06	8.232144e-09	4.327838e+01	5.410105e+02
1.430000e-06	6.313754e-06	8.274584e-09	4.365581e+01	5.438861e+02
1.440000e-06	6.365988e-06	8.316725e-09	4.401698e+01	5.465994e+02
1.450000e-06	6.415529e-06	8.355381e-09	4.435952e+01	5.491536e+02
1.460000e-06	6.462519e-06	8.390752e-09	4.468443e+01	5.515505e+02
1.470000e-06	6.507309e-06	8.422431e-09	4.499413e+01	5.537912e+02
1.480000e-06	6.549840e-06	8.451039e-09	4.528821e+01	5.558759e+02
1.490000e-06	6.589888e-06	8.479662e-09	4.556511e+01	5.578048e+02
1.500000e-06	6.627599e-06	8.507256e-09	4.582586e+01	5.595785e+02
1.510000e-06	6.663179e-06	8.531160e-09	4.607188e+01	5.611987e+02
1.520000e-06	6.696420e-06	8.551644e-09	4.630172e+01	5.626690e+02
1.530000e-06	6.727251e-06	8.569788e-09	4.651490e+01	5.639947e+02
1.540000e-06	6.755879e-06	8.587772e-09	4.671285e+01	5.651830e+02
1.550000e-06	6.782082e-06	8.604932e-09	4.689402e+01	5.662426e+02
1.560000e-06	6.805642e-06	8.620021e-09	4.705693e+01	5.671829e+02
1.570000e-06	6.826788e-06	8.632974e-09	4.720313e+01	5.680131e+02
1.580000e-06	6.845625e-06	8.644121e-09	4.733338e+01	5.687414e+02
1.590000e-06	6.861992e-06	8.653111e-09	4.744655e+01	5.693742e+02
1.600000e-06	6.875796e-06	8.659319e-09	4.754199e+01	5.699150e+02
1.610000e-06	6.886938e-06	8.664588e-09	4.761904e+01	5.703647e+02
1.620000e-06	6.895358e-06	8.669045e-09	4.767725e+01	5.707215e+02
1.630000e-06	6.901250e-06	8.673259e-09	4.771799e+01	5.709811e+02
1.640000e-06	6.904837e-06	8.677883e-09	4.774280e+01	5.711383e+02
1.650000e-06	6.905987e-06	8.682124e-09	4.775075e+01	5.711871e+02
1.660000e-06	6.904675e-06	8.684883e-09	4.774168e+01	5.711230e+02
1.670000e-06	6.901176e-06	8.680641e-09	4.771749e+01	5.709432e+02
1.680000e-06	6.895356e-06	8.674366e-09	4.767724e+01	5.706478e+02
1.690000e-06	6.887180e-06	8.668082e-09	4.762071e+01	5.702407e+02
1.700000e-06	6.876905e-06	8.661019e-09	4.754967e+01	5.697290e+02
1.710000e-06	6.864364e-06	8.655762e-09	4.746295e+01	5.691228e+02
1.720000e-06	6.849376e-06	8.649692e-09	4.735932e+01	5.684344e+02
1.730000e-06	6.832176e-06	8.640288e-09	4.724039e+01	5.676771e+02
1.740000e-06	6.812747e-06	8.598387e-09	4.710605e+01	5.668635e+02
1.750000e-06	6.790259e-06	8.572068e-09	4.695056e+01	5.660046e+02
1.760000e-06	6.764384e-06	8.579253e-09	4.677165e+01	5.651079e+02
1.770000e-06	6.735937e-06	8.566473e-09	4.657495e+01	5.641769e+02
1.780000e-06	6.705416e-06	8.558203e-09	4.636392e+01	5.632105e+02
1.790000e-06	6.673312e-06	8.594266e-09	4.614194e+01	5.622025e+02
1.800000e-06	6.639748e-06	8.545824e-09	4.590987e+01	5.611429e+02
1.810000e-06	6.603809e-06	8.501313e-09	4.566137e+01	5.600179e+02
1.820000e-06	6.565327e-06	8.535292e-09	4.539529e+01	5.588118e+02
1.830000e-06	6.524730e-06	8.486921e-09	4.511459e+01	5.575080e+02
1.840000e-06	6.481897e-06	8.497727e-09	4.481842e+01	5.560904e+02
1.850000e-06	6.436908e-06	8.467651e-09	4.450735e+01	5.545449e+02
1.860000e-06	6.389590e-06	8.384629e-09	4.418017e+01	5.528603e+02
1.870000e-06	6.339803e-06	8.374361e-09	4.383593e+01	5.510291e+02
1.880000e-06	6.287767e-06	8.323855e-09	4.347613e+01	5.490474e+02
1.890000e-06	6.233032e-06	8.354522e-09	4.309767e+01	5.469154e+02
1.900000e-06	6.175727e-06	8.341165e-09	4.270144e+01	5.446364e+02
1.910000e-06	6.116208e-06	8.275095e-09	4.228990e+01	5.422163e+02
1.920000e-06	6.054313e-06	8.242724e-09	4.186194e+01	5.396628e+02
1.930000e-06	5.990220e-06	8.155592e-09	4.141877e+01	5.369842e+02
1.940000e-06	5.923985e-06	8.160151e-09	4.096080e+01	5.341888e+02
1.950000e-06	5.855641e-06	8.122651e-09	4.048824e+01	5.312836e+02
1.960000e-06	5.784936e-06	8.060152e-09	3.999936e+01	5.282744e+02
1.970000e-06	5.711852e-06	8.017164e-09	3.949403e+01	5.251648e+02
1.980000e-06	5.636755e-06	7.938330e-09	3.897477e+01	5.219564e+02
1.990000e-06	5.559403e-06	7.923485e-09	3.843993e+01	5.186488e+02
2.000000e-06	5.479834e-06	7.875892e-09	3.788976e+01	5.152398e+02
2.010000e-06	5.398288e-06	7.819832e-09	3.732592e+01	5.117259e+02
2.020000e-06	5.314938e-06	7.742384e-09	3.674961e+01	5.081025e+02
2.030000e-06	5.229736e-06	7.674694e-09	3.616048e+01	5.043645e+02
2.040000e-06	5.142436e-06	7.635164e-09	3.555686e+01	5.005069e+02
2.050000e-06	5.053338e-06	7.578107e-09	3.494079e+01	4.965249e+02
2.060000e-06	4.962713e-06	7.535347e-09	3.431418e+01	4.924141e+02
2.070000e-06	4.870519e-06	7.454567e-09	3.367671e+01	4.881711e+02
2.080000e-06	4.776530e-06	7.379224e-09	3.302684e+01	4.837934e+02
2.090000e-06	4.680734e-06	7.303035e-09	3.236446e+01	4.792792e+02
2.100000e-06	4.583335e-06	7.245760e-09	3.169101e+01	4.746276e+02
2.110000e-06	4.484430e-06	7.199596e-09	3.100714e+01	4.698379e+02
2.120000e-06	4.384073e-06	7.119303e-09	3.031323e+01	4.649100e+02
2.130000e-06	4.282058e-06	7.022618e-09	2.960786e+01	4.598436e+02
2.140000e-06	4.178336e-06	6.930141e-09	2.889068e+01	4.546379e+02
2.150000e-06	4.073120e-06	6.855607e-09	2.816318e+01	4.492918e+02
2.160000e-06	3.966567e-06	6.781444e-09	2.742642e+01	4.438031e+02
2.170000e-06	3.858669e-06	6.709090e-09	2.668038e+01	4.381687e+02
2.180000e-06	3.749444e-06	6.617041e-09	2.592515e+01	4.323845e+02
2.190000e-06	3.638763e-06	6.519772e-09	2.515986e+01	4.264455e+02
2.200000e-06	3.526624e-06	6.424629e-09	2.438448e+01	4.203462e+02
2.210000e-06	3.413133e-06	6.340109e-09	2.359976e+01	4.140807e+02
2.220000e-06	3.298306e-06	6.247549e-09	2.280580e+01	4.076432e+02
2.230000e-06	3.182128e-06	6.131750e-09	2.200251e+01	4.010281e+02
2.240000e-06	3.064539e-06	6.016407e-09	2.118944e+01	3.942307e+02
2.250000e-06	2.945616e-06	5.912175e-09	2.036716e+01	3.872470e+02
2.260000e-06	2.825532e-06	5.814467e-09	1.953685e+01	3.800739e+02
2.270000e-06	2.704522e-06	5.711975e-09	1.870015e+01	3.727087e+02
2.280000e-06	2.582646e-06	5.601420e-09	1.785744e+01	3.651492e+02
2.290000e-06	2.459878e-06	5.476313e-09	1.700857e+01	3.573926e+02
2.300000e-06	2.336225e-06	5.349032e-09	1.615359e+01	3.494350e+02
2.310000e-06	2.211820e-06	5.227842e-09	1.529340e+01	3.412712e+02
2.320000e-06	2.086707e-06	5.111448e-09	1.442832e+01	3.328936e+02
2.330000e-06	1.960781e-06	4.982406e-09	1.355762e+01	3.242924e+02
2.340000e-06	1.834083e-06	4.836573e-09	1.268158e+01	3.154554e+02
2.350000e-06	1.706704e-06	4.688059e-09	1.180083e+01	3.063684e+02
2.360000e-06	1.578732e-06	4.545343e-09	1.091598e+01	2.970158e+02
2.370000e-06	1.450249e-06	4.408711e-09	1.002760e+01	2.873817e+02
2.380000e-06	1.321286e-06	4.267950e-09	9.135900e+00	2.774508e+02
2.390000e-06	1.191914e-06	4.113790e-09	8.241370e+00	2.672097e+02
2.400000e-06	1.062226e-06	3.947302e-09	7.344654e+00	2.566477e+02
2.410000e-06	9.322960e-07	3.779010e-09	6.446267e+00	2.457572e+02
2.420000e-06	8.021207e-07	3.612036e-09	5.546183e+00	2.345338e+02
2.430000e-06	6.716799e-07	3.439369e-09	4.644263e+00	2.229757e+02
2.440000e-06	5.410585e-07	3.256131e-09	3.741095e+00	2.110825e+02
2.450000e-06	4.102349e-07	3.064831e-09	2.836528e+00	1.988536e+02
2.460000e-06	2.792014e-07	2.871764e-09	1.930510e+00	1.862862e+02
2.470000e-06	1.479705e-07	2.678513e-09	1.023127e+00	1.733729e+02
2.480000e-06	1.664957e-08	2.480301e-09	1.151218e-01	1.601004e+02
2.490000e-06	-1.146018e-07	2.274295e-09	-7.924023e-01	1.464478e+02
2.500000e-06	-2.457857e-07	2.053742e-09	-1.699460e+00	1.323863e+02
2.510000e-06	-3.768543e-07	1.820790e-09	-2.605721e+00	1.178803e+02
2.520000e-06	-5.078120e-07	1.586550e-09	-3.511215e+00	1.028890e+02
2.530000e-06	-6.386550e-07	1.351455e-09	-4.415916e+00	8.736973e+01
2.540000e-06	-7.692952e-07	1.110538e-09	-5.319214e+00	7.128235e+01
2.550000e-06	-8.996462e-07	8.551494e-10	-6.220513e+00	5.459396e+01
2.560000e-06	-1.029721e-06	5.877230e-10	-7.119902e+00	3.728430e+01
2.570000e-06	-1.159514e-06	3.154393e-10	-8.017344e+00	1.935078e+01
2.580000e-06	-1.288917e-06	3.659428e-11	-8.912085e+00	8.126233e-01
2.590000e-06	-1.417899e-06	-2.523639e-10	-9.803917e+00	-1.828616e+01
2.600000e-06	-1.546449e-06	-5.534672e-10	-1.069277e+01	-3.787557e+01
2.610000e-06	-1.674498e-06	-8.639632e-10	-1.157814e+01	-5.786044e+01
2.620000e-06	-1.801887e-06	-1.178323e-09	-1.245896e+01	-7.812318e+01
2.630000e-06	-1.928492e-06	-1.490228e-09	-1.333436e+01	-9.852856e+01
2.640000e-06	-2.054318e-06	-1.798497e-09	-1.420437e+01	-1.189300e+02
2.650000e-06	-2.179338e-06	-2.104678e-09	-1.506881e+01	-1.391769e+02
2.660000e-06	-2.303470e-06	-2.409766e-09	-1.592711e+01	-1.591224e+02
2.670000e-06	-2.426644e-06	-2.708610e-09	-1.677879e+01	-1.786312e+02
2.680000e-06	-2.548870e-06	-2.995166e-09	-1.762390e+01	-1.975857e+02
2.690000e-06	-2.670233e-06	-3.272225e-09	-1.846306e+01	-2.158914e+02
2.700000e-06	-2.790703e-06	-3.541950e-09	-1.929603e+01	-2.334803e+02
2.710000e-06	-2.910132e-06	-3.803897e-09	-2.012181e+01	-2.503115e+02
2.720000e-06	-3.028381e-06	-4.054844e-09	-2.093944e+01	-2.663707e+02
2.730000e-06	-3.145378e-06	-4.291041e-09	-2.174840e+01	-2.816665e+02
2.740000e-06	-3.261077e-06	-4.514106e-09	-2.254839e+01	-2.962268e+02
2.750000e-06	-3.375485e-06	-4.727838e-09	-2.333945e+01	-3.100924e+02
2.760000e-06	-3.488528e-06	-4.935021e-09	-2.412107e+01	-3.233116e+02
2.770000e-06	-3.600133e-06	-5.133514e-09	-2.489276e+01	-3.359345e+02
2.780000e-06	-3.710329e-06	-5.320658e-09	-2.565470e+01	-3.480082e+02
2.790000e-06	-3.819305e-06	-5.496073e-09	-2.640820e+01	-3.595729e+02
2.800000e-06	-3.927144e-06	-5.662913e-09	-2.715384e+01	-3.706600e+02
2.810000e-06	-4.033681e-06	-5.824336e-09	-2.789048e+01	-3.812912e+02
2.820000e-06	-4.138837e-06	-5.979853e-09	-2.861757e+01	-3.914794e+02
2.830000e-06	-4.242434e-06	-6.127199e-09	-2.933388e+01	-4.012305e+02
2.840000e-06	-4.344395e-06	-6.266178e-09	-3.003888e+01	-4.105461e+02
2.850000e-06	-4.444760e-06	-6.400010e-09	-3.073285e+01	-4.194265e+02
2.860000e-06	-4.543598e-06	-6.529567e-09	-3.141625e+01	-4.278732e+02
2.870000e-06	-4.640958e-06	-6.654259e-09	-3.208944e+01	-4.358918e+02
2.880000e-06	-4.736694e-06	-6.772381e-09	-3.275139e+01	-4.434931e+02
2.890000e-06	-4.830693e-06	-6.884912e-09	-3.340134e+01	-4.506938e+02
2.900000e-06	-4.922943e-06	-6.992388e-09	-3.403919e+01	-4.575162e+02
2.910000e-06	-5.013424e-06	-7.094176e-09	-3.466481e+01	-4.639874e+02
2.920000e-06	-5.102164e-06	-7.189834e-09	-3.527840e+01	-4.701368e+02
2.930000e-06	-5.189000e-06	-7.278065e-09	-3.587882e+01	-4.759948e+02
2.940000e-06	-5.273814e-06	-7.361054e-09	-3.646526e+01	-4.815904e+02
