# Temperatura_=_58.76
# Concentracion g/m^3_=_15000.0
# C_Vs_to_Am_M_A/Vsm_=_65563218390.804596
# pendiente_HvsI_1/m_=_3716.3
# ordenada_HvsI_A/m_=_1297.0
# frecuencia_Hz_=_301892.95055812714

Tiempo_(s)	Campo_(V.s)	Magnetizacion_(V.s)	Campo_(kA/m)	Magnetizacion_(A/m)
0.000000e+00	-6.848313e-06	-9.194823e-09	-4.750533e+01	-6.015251e+02
1.000000e-08	-6.846007e-06	-9.195369e-09	-4.748933e+01	-6.013368e+02
2.000000e-08	-6.841347e-06	-9.193192e-09	-4.745700e+01	-6.010179e+02
3.000000e-08	-6.834570e-06	-9.188486e-09	-4.740999e+01	-6.005681e+02
4.000000e-08	-6.825439e-06	-9.184445e-09	-4.734666e+01	-5.999918e+02
5.000000e-08	-6.813834e-06	-9.174868e-09	-4.726615e+01	-5.992976e+02
6.000000e-08	-6.799797e-06	-9.161299e-09	-4.716878e+01	-5.984983e+02
7.000000e-08	-6.783322e-06	-9.136968e-09	-4.705450e+01	-5.976097e+02
8.000000e-08	-6.764678e-06	-9.106450e-09	-4.692517e+01	-5.966491e+02
9.000000e-08	-6.743795e-06	-9.145473e-09	-4.678030e+01	-5.956340e+02
1.000000e-07	-6.720207e-06	-9.159075e-09	-4.661668e+01	-5.945798e+02
1.100000e-07	-6.693787e-06	-9.095684e-09	-4.643341e+01	-5.934983e+02
1.200000e-07	-6.664880e-06	-9.063520e-09	-4.623289e+01	-5.923962e+02
1.300000e-07	-6.633975e-06	-9.053681e-09	-4.601851e+01	-5.912746e+02
1.400000e-07	-6.601167e-06	-8.957012e-09	-4.579092e+01	-5.901278e+02
1.500000e-07	-6.566385e-06	-8.958491e-09	-4.554965e+01	-5.889443e+02
1.600000e-07	-6.529559e-06	-9.054339e-09	-4.529420e+01	-5.877073e+02
1.700000e-07	-6.490719e-06	-8.874561e-09	-4.502477e+01	-5.863958e+02
1.800000e-07	-6.449559e-06	-8.888700e-09	-4.473925e+01	-5.849868e+02
1.900000e-07	-6.405828e-06	-8.929708e-09	-4.443590e+01	-5.834569e+02
2.000000e-07	-6.359836e-06	-8.829103e-09	-4.411686e+01	-5.817844e+02
2.100000e-07	-6.311438e-06	-8.927365e-09	-4.378113e+01	-5.799508e+02
2.200000e-07	-6.260399e-06	-8.884774e-09	-4.342709e+01	-5.779423e+02
2.300000e-07	-6.206801e-06	-8.795837e-09	-4.305529e+01	-5.757506e+02
2.400000e-07	-6.150759e-06	-8.730687e-09	-4.266654e+01	-5.733736e+02
2.500000e-07	-6.092404e-06	-8.660094e-09	-4.226174e+01	-5.708143e+02
2.600000e-07	-6.031822e-06	-8.649530e-09	-4.184150e+01	-5.680809e+02
2.700000e-07	-5.969085e-06	-8.596641e-09	-4.140630e+01	-5.651852e+02
2.800000e-07	-5.904139e-06	-8.556318e-09	-4.095578e+01	-5.621410e+02
2.900000e-07	-5.836906e-06	-8.490857e-09	-4.048941e+01	-5.589627e+02
3.000000e-07	-5.767506e-06	-8.444937e-09	-4.000799e+01	-5.556638e+02
3.100000e-07	-5.696024e-06	-8.428734e-09	-3.951214e+01	-5.522553e+02
3.200000e-07	-5.622356e-06	-8.359449e-09	-3.900111e+01	-5.487447e+02
3.300000e-07	-5.546356e-06	-8.328992e-09	-3.847392e+01	-5.451357e+02
3.400000e-07	-5.468066e-06	-8.255591e-09	-3.793084e+01	-5.414279e+02
3.500000e-07	-5.387613e-06	-8.185431e-09	-3.737276e+01	-5.376170e+02
3.600000e-07	-5.305246e-06	-8.144132e-09	-3.680139e+01	-5.336956e+02
3.700000e-07	-5.221136e-06	-8.088644e-09	-3.621794e+01	-5.296543e+02
3.800000e-07	-5.135318e-06	-8.022244e-09	-3.562264e+01	-5.254828e+02
3.900000e-07	-5.047823e-06	-7.925974e-09	-3.501570e+01	-5.211712e+02
4.000000e-07	-4.958551e-06	-7.860385e-09	-3.439644e+01	-5.167106e+02
4.100000e-07	-4.867463e-06	-7.798715e-09	-3.376458e+01	-5.120945e+02
4.200000e-07	-4.774709e-06	-7.742672e-09	-3.312116e+01	-5.073188e+02
4.300000e-07	-4.680372e-06	-7.667820e-09	-3.246677e+01	-5.023824e+02
4.400000e-07	-4.584331e-06	-7.572444e-09	-3.180055e+01	-4.972864e+02
4.500000e-07	-4.486510e-06	-7.481220e-09	-3.112199e+01	-4.920339e+02
4.600000e-07	-4.387046e-06	-7.391626e-09	-3.043203e+01	-4.866290e+02
4.700000e-07	-4.286058e-06	-7.323207e-09	-2.973150e+01	-4.810759e+02
4.800000e-07	-4.183589e-06	-7.247834e-09	-2.902069e+01	-4.753779e+02
4.900000e-07	-4.079700e-06	-7.159374e-09	-2.830003e+01	-4.695366e+02
5.000000e-07	-3.974281e-06	-7.056600e-09	-2.756876e+01	-4.635514e+02
5.100000e-07	-3.867246e-06	-6.962088e-09	-2.682629e+01	-4.574192e+02
5.200000e-07	-3.758803e-06	-6.871769e-09	-2.607403e+01	-4.511345e+02
5.300000e-07	-3.649179e-06	-6.770360e-09	-2.531360e+01	-4.446897e+02
5.400000e-07	-3.538345e-06	-6.660124e-09	-2.454476e+01	-4.380760e+02
5.500000e-07	-3.426080e-06	-6.543891e-09	-2.376600e+01	-4.312845e+02
5.600000e-07	-3.312271e-06	-6.436808e-09	-2.297654e+01	-4.243065e+02
5.700000e-07	-3.196972e-06	-6.335543e-09	-2.217673e+01	-4.171351e+02
5.800000e-07	-3.080372e-06	-6.235422e-09	-2.136790e+01	-4.097653e+02
5.900000e-07	-2.962708e-06	-6.119996e-09	-2.055169e+01	-4.021945e+02
6.000000e-07	-2.844075e-06	-5.995276e-09	-1.972875e+01	-3.944225e+02
6.100000e-07	-2.724446e-06	-5.866949e-09	-1.889891e+01	-3.864506e+02
6.200000e-07	-2.603771e-06	-5.742226e-09	-1.806182e+01	-3.782815e+02
6.300000e-07	-2.482034e-06	-5.617227e-09	-1.721736e+01	-3.699175e+02
6.400000e-07	-2.359272e-06	-5.482098e-09	-1.636578e+01	-3.613597e+02
6.500000e-07	-2.235634e-06	-5.341450e-09	-1.550813e+01	-3.526067e+02
6.600000e-07	-2.111234e-06	-5.198742e-09	-1.464519e+01	-3.436541e+02
6.700000e-07	-1.986118e-06	-5.059940e-09	-1.377728e+01	-3.344935e+02
6.800000e-07	-1.860418e-06	-4.923156e-09	-1.290533e+01	-3.251129e+02
6.900000e-07	-1.734123e-06	-4.783019e-09	-1.202925e+01	-3.154971e+02
7.000000e-07	-1.607188e-06	-4.632258e-09	-1.114873e+01	-3.056285e+02
7.100000e-07	-1.479711e-06	-4.475006e-09	-1.026445e+01	-2.954885e+02
7.200000e-07	-1.351770e-06	-4.314702e-09	-9.376948e+00	-2.850592e+02
7.300000e-07	-1.223379e-06	-4.149839e-09	-8.486323e+00	-2.743248e+02
7.400000e-07	-1.094571e-06	-3.979217e-09	-7.592810e+00	-2.632724e+02
7.500000e-07	-9.654378e-07	-3.801682e-09	-6.697041e+00	-2.518932e+02
7.600000e-07	-8.359657e-07	-3.620626e-09	-5.798920e+00	-2.401823e+02
7.700000e-07	-7.061112e-07	-3.436815e-09	-4.898147e+00	-2.281380e+02
7.800000e-07	-5.759535e-07	-3.251458e-09	-3.995270e+00	-2.157605e+02
7.900000e-07	-4.455867e-07	-3.063799e-09	-3.090943e+00	-2.030499e+02
8.000000e-07	-3.150111e-07	-2.870217e-09	-2.185167e+00	-1.900038e+02
8.100000e-07	-1.842627e-07	-2.666223e-09	-1.278192e+00	-1.766150e+02
8.200000e-07	-5.348274e-08	-2.454290e-09	-3.709987e-01	-1.628695e+02
8.300000e-07	7.730675e-08	-2.238074e-09	5.362609e-01	-1.487451e+02
8.400000e-07	2.081192e-07	-2.015905e-09	1.443680e+00	-1.342109e+02
8.500000e-07	3.389141e-07	-1.786292e-09	2.350977e+00	-1.192283e+02
8.600000e-07	4.696361e-07	-1.549348e-09	3.257768e+00	-1.037531e+02
8.700000e-07	6.002204e-07	-1.305992e-09	4.163605e+00	-8.773872e+01
8.800000e-07	7.305939e-07	-1.054219e-09	5.067978e+00	-7.114109e+01
8.900000e-07	8.606858e-07	-7.955864e-10	5.970399e+00	-5.392352e+01
9.000000e-07	9.904319e-07	-5.294489e-10	6.870420e+00	-3.606233e+01
9.100000e-07	1.119813e-06	-2.523685e-10	7.767909e+00	-1.755196e+01
9.200000e-07	1.248795e-06	3.769008e-11	8.662634e+00	1.590674e+00
9.300000e-07	1.377297e-06	3.376222e-10	9.554020e+00	2.132321e+01
9.400000e-07	1.505268e-06	6.440740e-10	1.044173e+01	4.157659e+01
9.500000e-07	1.632730e-06	9.584218e-10	1.132591e+01	6.225582e+01
9.600000e-07	1.759654e-06	1.279584e-09	1.220636e+01	8.324276e+01
9.700000e-07	1.885926e-06	1.606313e-09	1.308228e+01	1.044009e+02
9.800000e-07	2.011487e-06	1.932788e-09	1.395327e+01	1.255814e+02
9.900000e-07	2.136363e-06	2.256381e-09	1.481951e+01	1.466307e+02
1.000000e-06	2.260587e-06	2.575210e-09	1.568122e+01	1.673981e+02
1.010000e-06	2.384089e-06	2.885646e-09	1.653793e+01	1.877435e+02
1.020000e-06	2.506621e-06	3.187134e-09	1.738791e+01	2.075437e+02
1.030000e-06	2.628028e-06	3.475316e-09	1.823008e+01	2.266982e+02
1.040000e-06	2.748383e-06	3.752042e-09	1.906496e+01	2.451323e+02
1.050000e-06	2.867716e-06	4.017447e-09	1.989275e+01	2.627986e+02
1.060000e-06	2.986061e-06	4.270801e-09	2.071369e+01	2.796764e+02
1.070000e-06	3.103408e-06	4.513352e-09	2.152770e+01	2.957689e+02
1.080000e-06	3.219616e-06	4.747034e-09	2.233381e+01	3.110997e+02
1.090000e-06	3.334525e-06	4.968289e-09	2.313090e+01	3.257069e+02
1.100000e-06	3.448022e-06	5.178428e-09	2.391822e+01	3.396380e+02
1.110000e-06	3.560121e-06	5.381854e-09	2.469582e+01	3.529440e+02
1.120000e-06	3.670936e-06	5.577130e-09	2.546452e+01	3.656750e+02
1.130000e-06	3.780529e-06	5.763258e-09	2.622475e+01	3.778755e+02
1.140000e-06	3.889011e-06	5.940914e-09	2.697726e+01	3.895825e+02
1.150000e-06	3.996345e-06	6.112191e-09	2.772182e+01	4.008239e+02
1.160000e-06	4.102158e-06	6.277309e-09	2.845582e+01	4.116186e+02
1.170000e-06	4.206335e-06	6.437015e-09	2.917848e+01	4.219778e+02
1.180000e-06	4.308980e-06	6.588606e-09	2.989050e+01	4.319074e+02
1.190000e-06	4.410188e-06	6.732270e-09	3.059256e+01	4.414098e+02
1.200000e-06	4.509934e-06	6.868401e-09	3.128448e+01	4.504872e+02
1.210000e-06	4.607957e-06	6.996068e-09	3.196444e+01	4.591433e+02
1.220000e-06	4.704162e-06	7.119040e-09	3.263180e+01	4.673857e+02
1.230000e-06	4.798617e-06	7.239197e-09	3.328701e+01	4.752260e+02
1.240000e-06	4.891456e-06	7.354592e-09	3.393102e+01	4.826809e+02
1.250000e-06	4.982734e-06	7.464608e-09	3.456419e+01	4.897710e+02
1.260000e-06	5.072205e-06	7.569275e-09	3.518483e+01	4.965201e+02
1.270000e-06	5.159709e-06	7.669237e-09	3.579183e+01	5.029532e+02
1.280000e-06	5.245362e-06	7.764613e-09	3.638599e+01	5.090956e+02
1.290000e-06	5.329288e-06	7.853531e-09	3.696816e+01	5.149708e+02
1.300000e-06	5.411306e-06	7.934060e-09	3.753711e+01	5.205994e+02
1.310000e-06	5.491262e-06	8.010951e-09	3.809175e+01	5.259987e+02
1.320000e-06	5.569253e-06	8.085737e-09	3.863275e+01	5.311819e+02
1.330000e-06	5.645206e-06	8.159383e-09	3.915962e+01	5.361585e+02
1.340000e-06	5.718876e-06	8.233109e-09	3.967066e+01	5.409351e+02
1.350000e-06	5.790309e-06	8.305557e-09	4.016617e+01	5.455158e+02
1.360000e-06	5.859749e-06	8.375100e-09	4.064786e+01	5.499034e+02
1.370000e-06	5.927183e-06	8.439974e-09	4.111564e+01	5.541002e+02
1.380000e-06	5.992441e-06	8.500130e-09	4.156832e+01	5.581084e+02
1.390000e-06	6.055547e-06	8.557096e-09	4.200607e+01	5.619304e+02
1.400000e-06	6.116691e-06	8.611712e-09	4.243021e+01	5.655696e+02
1.410000e-06	6.175741e-06	8.663572e-09	4.283983e+01	5.690292e+02
1.420000e-06	6.232559e-06	8.712234e-09	4.323397e+01	5.723124e+02
1.430000e-06	6.287157e-06	8.758348e-09	4.361270e+01	5.754220e+02
1.440000e-06	6.339338e-06	8.803877e-09	4.397467e+01	5.783599e+02
1.450000e-06	6.388900e-06	8.847064e-09	4.431848e+01	5.811267e+02
1.460000e-06	6.436013e-06	8.888103e-09	4.464529e+01	5.837221e+02
1.470000e-06	6.480969e-06	8.924090e-09	4.495714e+01	5.861448e+02
1.480000e-06	6.523660e-06	8.955541e-09	4.525327e+01	5.883934e+02
1.490000e-06	6.563895e-06	8.986701e-09	4.553237e+01	5.904665e+02
1.500000e-06	6.601822e-06	9.015634e-09	4.579547e+01	5.923642e+02
1.510000e-06	6.637619e-06	9.039211e-09	4.604379e+01	5.940880e+02
1.520000e-06	6.671073e-06	9.059343e-09	4.627585e+01	5.956420e+02
1.530000e-06	6.702090e-06	9.078332e-09	4.649101e+01	5.970326e+02
1.540000e-06	6.730878e-06	9.096723e-09	4.669070e+01	5.982686e+02
1.550000e-06	6.757251e-06	9.114257e-09	4.687365e+01	5.993606e+02
1.560000e-06	6.781015e-06	9.129440e-09	4.703849e+01	6.003203e+02
1.570000e-06	6.802385e-06	9.143157e-09	4.718673e+01	6.011593e+02
1.580000e-06	6.821462e-06	9.156061e-09	4.731907e+01	6.018881e+02
1.590000e-06	6.838022e-06	9.166390e-09	4.743394e+01	6.025153e+02
1.600000e-06	6.852052e-06	9.173869e-09	4.753126e+01	6.030460e+02
1.610000e-06	6.863473e-06	9.178150e-09	4.761049e+01	6.034823e+02
1.620000e-06	6.872137e-06	9.179067e-09	4.767059e+01	6.038226e+02
1.630000e-06	6.878323e-06	9.180308e-09	4.771350e+01	6.040621e+02
1.640000e-06	6.882254e-06	9.184070e-09	4.774077e+01	6.041941e+02
1.650000e-06	6.883693e-06	9.189509e-09	4.775075e+01	6.042106e+02
1.660000e-06	6.882643e-06	9.191002e-09	4.774346e+01	6.041041e+02
1.670000e-06	6.879472e-06	9.180511e-09	4.772147e+01	6.038691e+02
1.680000e-06	6.874047e-06	9.173458e-09	4.768384e+01	6.035027e+02
1.690000e-06	6.866278e-06	9.166746e-09	4.762994e+01	6.030066e+02
1.700000e-06	6.856298e-06	9.157819e-09	4.756072e+01	6.023865e+02
1.710000e-06	6.843988e-06	9.148943e-09	4.747533e+01	6.016526e+02
1.720000e-06	6.829272e-06	9.145603e-09	4.737324e+01	6.008190e+02
1.730000e-06	6.812376e-06	9.154949e-09	4.725604e+01	5.999022e+02
1.740000e-06	6.793381e-06	9.073754e-09	4.712428e+01	5.989198e+02
1.750000e-06	6.771503e-06	9.023609e-09	4.697251e+01	5.978887e+02
1.760000e-06	6.746187e-06	9.057026e-09	4.679690e+01	5.968231e+02
1.770000e-06	6.718122e-06	9.032536e-09	4.660222e+01	5.957333e+02
1.780000e-06	6.687886e-06	9.030266e-09	4.639247e+01	5.946241e+02
1.790000e-06	6.655986e-06	9.121859e-09	4.617119e+01	5.934940e+02
1.800000e-06	6.622756e-06	8.975903e-09	4.594068e+01	5.923353e+02
1.810000e-06	6.587328e-06	8.953454e-09	4.569493e+01	5.911344e+02
1.820000e-06	6.549202e-06	9.060178e-09	4.543045e+01	5.898728e+02
1.830000e-06	6.508942e-06	8.914291e-09	4.515118e+01	5.885287e+02
1.840000e-06	6.466549e-06	9.011450e-09	4.485711e+01	5.870788e+02
1.850000e-06	6.421942e-06	8.929820e-09	4.454768e+01	5.854999e+02
1.860000e-06	6.375067e-06	8.794728e-09	4.422251e+01	5.837713e+02
1.870000e-06	6.325691e-06	8.883372e-09	4.388001e+01	5.818760e+02
1.880000e-06	6.274053e-06	8.760406e-09	4.352180e+01	5.798023e+02
1.890000e-06	6.219807e-06	8.852890e-09	4.314551e+01	5.775440e+02
1.900000e-06	6.163011e-06	8.834068e-09	4.275152e+01	5.751007e+02
1.910000e-06	6.104018e-06	8.709012e-09	4.234230e+01	5.724776e+02
1.920000e-06	6.042577e-06	8.733439e-09	4.191610e+01	5.696843e+02
1.930000e-06	5.978893e-06	8.581791e-09	4.147434e+01	5.667335e+02
1.940000e-06	5.913121e-06	8.620022e-09	4.101809e+01	5.636393e+02
1.950000e-06	5.845238e-06	8.562479e-09	4.054720e+01	5.604161e+02
1.960000e-06	5.775025e-06	8.498452e-09	4.006015e+01	5.570765e+02
1.970000e-06	5.702436e-06	8.472274e-09	3.955661e+01	5.536304e+02
1.980000e-06	5.627787e-06	8.344366e-09	3.903879e+01	5.500840e+02
1.990000e-06	5.550919e-06	8.379597e-09	3.850557e+01	5.464395e+02
2.000000e-06	5.471812e-06	8.280561e-09	3.795682e+01	5.426951e+02
2.010000e-06	5.390734e-06	8.223205e-09	3.739440e+01	5.388452e+02
2.020000e-06	5.307939e-06	8.157598e-09	3.682007e+01	5.348817e+02
2.030000e-06	5.223278e-06	8.074018e-09	3.623279e+01	5.307947e+02
2.040000e-06	5.136536e-06	8.042633e-09	3.563108e+01	5.265738e+02
2.050000e-06	5.047977e-06	7.956821e-09	3.501677e+01	5.222094e+02
2.060000e-06	4.957784e-06	7.923818e-09	3.439112e+01	5.176934e+02
2.070000e-06	4.866049e-06	7.815760e-09	3.375477e+01	5.130202e+02
2.080000e-06	4.772611e-06	7.738244e-09	3.310661e+01	5.081867e+02
2.090000e-06	4.677350e-06	7.669364e-09	3.244580e+01	5.031925e+02
2.100000e-06	4.580394e-06	7.619901e-09	3.177324e+01	4.980398e+02
2.110000e-06	4.481942e-06	7.553862e-09	3.109030e+01	4.927319e+02
2.120000e-06	4.382047e-06	7.444820e-09	3.039735e+01	4.872732e+02
2.130000e-06	4.280549e-06	7.353049e-09	2.969328e+01	4.816675e+02
2.140000e-06	4.177386e-06	7.248739e-09	2.897766e+01	4.759178e+02
2.150000e-06	4.072615e-06	7.172492e-09	2.825089e+01	4.700249e+02
2.160000e-06	3.966521e-06	7.087011e-09	2.751493e+01	4.639873e+02
2.170000e-06	3.859172e-06	7.008809e-09	2.677028e+01	4.578009e+02
2.180000e-06	3.750442e-06	6.904828e-09	2.601604e+01	4.514595e+02
2.190000e-06	3.640247e-06	6.800702e-09	2.525164e+01	4.449549e+02
2.200000e-06	3.528622e-06	6.703218e-09	2.447732e+01	4.382783e+02
2.210000e-06	3.415627e-06	6.606919e-09	2.369350e+01	4.314207e+02
2.220000e-06	3.301285e-06	6.496179e-09	2.290033e+01	4.243739e+02
2.230000e-06	3.185579e-06	6.370937e-09	2.209770e+01	4.171316e+02
2.240000e-06	3.068511e-06	6.253105e-09	2.128562e+01	4.096898e+02
2.250000e-06	2.950229e-06	6.139438e-09	2.046513e+01	4.020466e+02
2.260000e-06	2.830808e-06	6.033827e-09	1.963672e+01	3.942025e+02
2.270000e-06	2.710335e-06	5.915437e-09	1.880103e+01	3.861594e+02
2.280000e-06	2.588853e-06	5.792359e-09	1.795833e+01	3.779200e+02
2.290000e-06	2.466515e-06	5.659247e-09	1.710970e+01	3.694863e+02
2.300000e-06	2.343352e-06	5.530756e-09	1.625535e+01	3.608586e+02
2.310000e-06	2.219440e-06	5.405996e-09	1.539580e+01	3.520346e+02
2.320000e-06	2.094854e-06	5.276763e-09	1.453157e+01	3.430084e+02
2.330000e-06	1.969519e-06	5.129690e-09	1.366215e+01	3.337704e+02
2.340000e-06	1.843454e-06	4.971224e-09	1.278766e+01	3.243072e+02
2.350000e-06	1.716655e-06	4.815197e-09	1.190808e+01	3.146028e+02
2.360000e-06	1.589153e-06	4.664674e-09	1.102362e+01	3.046389e+02
2.370000e-06	1.461093e-06	4.517734e-09	1.013530e+01	2.943971e+02
2.380000e-06	1.332654e-06	4.359816e-09	9.244342e+00	2.838601e+02
2.390000e-06	1.203821e-06	4.192273e-09	8.350657e+00	2.730129e+02
2.400000e-06	1.074571e-06	4.019423e-09	7.454077e+00	2.618442e+02
2.410000e-06	9.449670e-07	3.847520e-09	6.555040e+00	2.503464e+02
2.420000e-06	8.151140e-07	3.673271e-09	5.654276e+00	2.385161e+02
2.430000e-06	6.850797e-07	3.487984e-09	4.752255e+00	2.263523e+02
2.440000e-06	5.548202e-07	3.293295e-09	3.848672e+00	2.138554e+02
2.450000e-06	4.243885e-07	3.094652e-09	2.943895e+00	2.010250e+02
2.460000e-06	2.938446e-07	2.895762e-09	2.038339e+00	1.878572e+02
2.470000e-06	1.631335e-07	2.691512e-09	1.131623e+00	1.743426e+02
2.480000e-06	3.233341e-08	2.478191e-09	2.242901e-01	1.604643e+02
2.490000e-06	-9.848664e-08	2.258678e-09	-6.831813e-01	1.461971e+02
2.500000e-06	-2.293158e-07	2.030388e-09	-1.590716e+00	1.315071e+02
2.510000e-06	-3.601112e-07	1.795554e-09	-2.498017e+00	1.163533e+02
2.520000e-06	-4.907756e-07	1.556005e-09	-3.404408e+00	1.006904e+02
2.530000e-06	-6.212434e-07	1.309386e-09	-4.309437e+00	8.447209e+01
2.540000e-06	-7.515458e-07	1.051749e-09	-5.213317e+00	6.765625e+01
2.550000e-06	-8.816068e-07	7.812097e-10	-6.115523e+00	5.021025e+01
2.560000e-06	-1.011399e-06	5.038346e-10	-7.015865e+00	3.211631e+01
2.570000e-06	-1.140896e-06	2.197791e-10	-7.914156e+00	1.337646e+01
2.580000e-06	-1.269997e-06	-7.387089e-11	-8.809707e+00	-5.983552e+00
2.590000e-06	-1.398727e-06	-3.769269e-10	-9.702675e+00	-2.591187e+01
2.600000e-06	-1.527065e-06	-6.874551e-10	-1.059293e+01	-4.632998e+01
2.610000e-06	-1.654864e-06	-1.005484e-09	-1.147945e+01	-6.713419e+01
2.620000e-06	-1.781906e-06	-1.328489e-09	-1.236071e+01	-8.819917e+01
2.630000e-06	-1.908130e-06	-1.652910e-09	-1.323630e+01	-1.093832e+02
2.640000e-06	-2.033602e-06	-1.980139e-09	-1.410668e+01	-1.305350e+02
2.650000e-06	-2.158312e-06	-2.304322e-09	-1.497176e+01	-1.515010e+02
2.660000e-06	-2.282177e-06	-2.620370e-09	-1.583099e+01	-1.721335e+02
2.670000e-06	-2.405087e-06	-2.925511e-09	-1.668359e+01	-1.922976e+02
2.680000e-06	-2.527033e-06	-3.219995e-09	-1.752950e+01	-2.118780e+02
2.690000e-06	-2.648106e-06	-3.505708e-09	-1.836936e+01	-2.307828e+02
2.700000e-06	-2.768287e-06	-3.782053e-09	-1.920303e+01	-2.489472e+02
2.710000e-06	-2.887351e-06	-4.049638e-09	-2.002895e+01	-2.663333e+02
2.720000e-06	-3.005239e-06	-4.305255e-09	-2.084672e+01	-2.829296e+02
2.730000e-06	-3.121962e-06	-4.547802e-09	-2.165641e+01	-2.987470e+02
2.740000e-06	-3.237416e-06	-4.779624e-09	-2.245728e+01	-3.138148e+02
2.750000e-06	-3.351537e-06	-5.003507e-09	-2.324892e+01	-3.281752e+02
2.760000e-06	-3.464297e-06	-5.220723e-09	-2.403111e+01	-3.418776e+02
2.770000e-06	-3.575700e-06	-5.424924e-09	-2.480389e+01	-3.549732e+02
2.780000e-06	-3.685749e-06	-5.615342e-09	-2.556727e+01	-3.675104e+02
2.790000e-06	-3.794607e-06	-5.796997e-09	-2.632240e+01	-3.795313e+02
2.800000e-06	-3.902320e-06	-5.972457e-09	-2.706959e+01	-3.910698e+02
2.810000e-06	-4.008727e-06	-6.142079e-09	-2.780771e+01	-4.021503e+02
2.820000e-06	-4.113763e-06	-6.303824e-09	-2.853632e+01	-4.127890e+02
2.830000e-06	-4.217277e-06	-6.457652e-09	-2.925437e+01	-4.229948e+02
2.840000e-06	-4.319134e-06	-6.603563e-09	-2.996094e+01	-4.327721e+02
2.850000e-06	-4.419387e-06	-6.743900e-09	-3.065637e+01	-4.421229e+02
2.860000e-06	-4.518150e-06	-6.880605e-09	-3.134147e+01	-4.510497e+02
2.870000e-06	-4.615441e-06	-7.011907e-09	-3.201636e+01	-4.595574e+02
2.880000e-06	-4.711085e-06	-7.136758e-09	-3.267982e+01	-4.676550e+02
2.890000e-06	-4.804937e-06	-7.254860e-09	-3.333085e+01	-4.753560e+02
2.900000e-06	-4.897061e-06	-7.369464e-09	-3.396990e+01	-4.826786e+02
2.910000e-06	-4.987525e-06	-7.479868e-09	-3.459743e+01	-4.896445e+02
2.920000e-06	-5.076285e-06	-7.583029e-09	-3.521313e+01	-4.962782e+02
2.930000e-06	-5.163030e-06	-7.679617e-09	-3.581487e+01	-5.026051e+02
2.940000e-06	-5.247742e-06	-7.771270e-09	-3.640249e+01	-5.086500e+02
