# Temperatura_=_81.61
# Concentracion g/m^3_=_15000.0
# C_Vs_to_Am_M_A/Vsm_=_65563218390.804596
# pendiente_HvsI_1/m_=_3716.3
# ordenada_HvsI_A/m_=_1297.0
# frecuencia_Hz_=_301900.7782573818

Tiempo_(s)	Campo_(V.s)	Magnetizacion_(V.s)	Campo_(kA/m)	Magnetizacion_(A/m)
0.000000e+00	-6.896445e-06	-1.084506e-08	-4.749650e+01	-7.096010e+02
1.000000e-08	-6.893708e-06	-1.084212e-08	-4.747765e+01	-7.093257e+02
2.000000e-08	-6.888670e-06	-1.083840e-08	-4.744296e+01	-7.088730e+02
3.000000e-08	-6.881476e-06	-1.083055e-08	-4.739341e+01	-7.082494e+02
4.000000e-08	-6.871936e-06	-1.081820e-08	-4.732771e+01	-7.074678e+02
5.000000e-08	-6.859912e-06	-1.080551e-08	-4.724490e+01	-7.065462e+02
6.000000e-08	-6.845349e-06	-1.078983e-08	-4.714460e+01	-7.055058e+02
7.000000e-08	-6.828382e-06	-1.077748e-08	-4.702775e+01	-7.043691e+02
8.000000e-08	-6.809316e-06	-1.077151e-08	-4.689644e+01	-7.031568e+02
9.000000e-08	-6.787907e-06	-1.075019e-08	-4.674899e+01	-7.018864e+02
1.000000e-07	-6.763710e-06	-1.073474e-08	-4.658235e+01	-7.005694e+02
1.100000e-07	-6.736736e-06	-1.071466e-08	-4.639657e+01	-6.992109e+02
1.200000e-07	-6.707362e-06	-1.067949e-08	-4.619427e+01	-6.978085e+02
1.300000e-07	-6.675949e-06	-1.064355e-08	-4.597792e+01	-6.963530e+02
1.400000e-07	-6.642616e-06	-1.060436e-08	-4.574836e+01	-6.948291e+02
1.500000e-07	-6.607324e-06	-1.053461e-08	-4.550530e+01	-6.932166e+02
1.600000e-07	-6.569951e-06	-1.053969e-08	-4.524791e+01	-6.914930e+02
1.700000e-07	-6.530520e-06	-1.054824e-08	-4.497634e+01	-6.896350e+02
1.800000e-07	-6.488790e-06	-1.047262e-08	-4.468895e+01	-6.876204e+02
1.900000e-07	-6.444511e-06	-1.046427e-08	-4.438399e+01	-6.854300e+02
2.000000e-07	-6.397858e-06	-1.041334e-08	-4.406268e+01	-6.830489e+02
2.100000e-07	-6.348641e-06	-1.037676e-08	-4.372372e+01	-6.804668e+02
2.200000e-07	-6.296725e-06	-1.038691e-08	-4.336617e+01	-6.776789e+02
2.300000e-07	-6.242336e-06	-1.030397e-08	-4.299159e+01	-6.746854e+02
2.400000e-07	-6.185543e-06	-1.021467e-08	-4.260045e+01	-6.714910e+02
2.500000e-07	-6.126421e-06	-1.015410e-08	-4.219327e+01	-6.681038e+02
2.600000e-07	-6.065102e-06	-1.010874e-08	-4.177096e+01	-6.645343e+02
2.700000e-07	-6.001570e-06	-1.008303e-08	-4.133341e+01	-6.607945e+02
2.800000e-07	-5.935798e-06	-1.003219e-08	-4.088043e+01	-6.568965e+02
2.900000e-07	-5.867762e-06	-9.948502e-09	-4.041186e+01	-6.528515e+02
3.000000e-07	-5.797546e-06	-9.850436e-09	-3.992827e+01	-6.486690e+02
3.100000e-07	-5.725227e-06	-9.811857e-09	-3.943021e+01	-6.443562e+02
3.200000e-07	-5.650695e-06	-9.779606e-09	-3.891690e+01	-6.399176e+02
3.300000e-07	-5.573807e-06	-9.700004e-09	-3.838736e+01	-6.353544e+02
3.400000e-07	-5.494617e-06	-9.618681e-09	-3.784197e+01	-6.306652e+02
3.500000e-07	-5.413366e-06	-9.527032e-09	-3.728239e+01	-6.258457e+02
3.600000e-07	-5.330287e-06	-9.455997e-09	-3.671022e+01	-6.208897e+02
3.700000e-07	-5.245436e-06	-9.398218e-09	-3.612584e+01	-6.157890e+02
3.800000e-07	-5.158803e-06	-9.329676e-09	-3.552919e+01	-6.105350e+02
3.900000e-07	-5.070327e-06	-9.233700e-09	-3.491985e+01	-6.051189e+02
4.000000e-07	-4.979986e-06	-9.120015e-09	-3.429766e+01	-5.995326e+02
4.100000e-07	-4.887939e-06	-9.029172e-09	-3.366372e+01	-5.937696e+02
4.200000e-07	-4.794313e-06	-8.958990e-09	-3.301891e+01	-5.878256e+02
4.300000e-07	-4.699087e-06	-8.877496e-09	-3.236308e+01	-5.816985e+02
4.400000e-07	-4.602090e-06	-8.768309e-09	-3.169505e+01	-5.753885e+02
4.500000e-07	-4.503314e-06	-8.658321e-09	-3.101477e+01	-5.688981e+02
4.600000e-07	-4.402946e-06	-8.555230e-09	-3.032353e+01	-5.622309e+02
4.700000e-07	-4.301099e-06	-8.454202e-09	-2.962210e+01	-5.553914e+02
4.800000e-07	-4.197821e-06	-8.366980e-09	-2.891081e+01	-5.483837e+02
4.900000e-07	-4.092965e-06	-8.265624e-09	-2.818866e+01	-5.412106e+02
5.000000e-07	-3.986533e-06	-8.132729e-09	-2.745565e+01	-5.338727e+02
5.100000e-07	-3.878638e-06	-8.002868e-09	-2.671257e+01	-5.263680e+02
5.200000e-07	-3.769329e-06	-7.894430e-09	-2.595975e+01	-5.186913e+02
5.300000e-07	-3.658776e-06	-7.786170e-09	-2.519835e+01	-5.108349e+02
5.400000e-07	-3.546848e-06	-7.656931e-09	-2.442750e+01	-5.027889e+02
5.500000e-07	-3.433402e-06	-7.517947e-09	-2.364618e+01	-4.945419e+02
5.600000e-07	-3.318487e-06	-7.382038e-09	-2.285475e+01	-4.860827e+02
5.700000e-07	-3.202116e-06	-7.250946e-09	-2.205329e+01	-4.774011e+02
5.800000e-07	-3.084467e-06	-7.126667e-09	-2.124303e+01	-4.684890e+02
5.900000e-07	-2.965822e-06	-6.999130e-09	-2.042591e+01	-4.593413e+02
6.000000e-07	-2.846186e-06	-6.850232e-09	-1.960197e+01	-4.499559e+02
6.100000e-07	-2.725342e-06	-6.687668e-09	-1.876971e+01	-4.403338e+02
6.200000e-07	-2.603380e-06	-6.534971e-09	-1.792974e+01	-4.304782e+02
6.300000e-07	-2.480495e-06	-6.389231e-09	-1.708342e+01	-4.203931e+02
6.400000e-07	-2.356697e-06	-6.234169e-09	-1.623080e+01	-4.100819e+02
6.500000e-07	-2.232052e-06	-6.068142e-09	-1.537236e+01	-3.995460e+02
6.600000e-07	-2.106679e-06	-5.897928e-09	-1.450891e+01	-3.887832e+02
6.700000e-07	-1.980662e-06	-5.727465e-09	-1.364101e+01	-3.777868e+02
6.800000e-07	-1.854071e-06	-5.556497e-09	-1.276917e+01	-3.665453e+02
6.900000e-07	-1.726900e-06	-5.385649e-09	-1.189333e+01	-3.550429e+02
7.000000e-07	-1.599036e-06	-5.206076e-09	-1.101272e+01	-3.432601e+02
7.100000e-07	-1.470504e-06	-5.013195e-09	-1.012751e+01	-3.311758e+02
7.200000e-07	-1.341394e-06	-4.818471e-09	-9.238313e+00	-3.187690e+02
7.300000e-07	-1.211776e-06	-4.628172e-09	-8.345620e+00	-3.060207e+02
7.400000e-07	-1.081771e-06	-4.435195e-09	-7.450263e+00	-2.929155e+02
7.500000e-07	-9.514846e-07	-4.232363e-09	-6.552969e+00	-2.794429e+02
7.600000e-07	-8.209374e-07	-4.019825e-09	-5.653877e+00	-2.655968e+02
7.700000e-07	-6.900811e-07	-3.800272e-09	-4.752658e+00	-2.513752e+02
7.800000e-07	-5.589821e-07	-3.576202e-09	-3.849765e+00	-2.367777e+02
7.900000e-07	-4.277280e-07	-3.350209e-09	-2.945806e+00	-2.218030e+02
8.000000e-07	-2.963084e-07	-3.118977e-09	-2.040705e+00	-2.064455e+02
8.100000e-07	-1.647101e-07	-2.878921e-09	-1.134375e+00	-1.906923e+02
8.200000e-07	-3.303321e-08	-2.630658e-09	-2.275030e-01	-1.745206e+02
8.300000e-07	9.864976e-08	-2.377424e-09	6.794107e-01	-1.578957e+02
8.400000e-07	2.303265e-07	-2.119823e-09	1.586281e+00	-1.407715e+02
8.500000e-07	3.619142e-07	-1.853633e-09	2.492539e+00	-1.230918e+02
8.600000e-07	4.934050e-07	-1.577671e-09	3.398129e+00	-1.047943e+02
8.700000e-07	6.247441e-07	-1.286803e-09	4.302675e+00	-8.581607e+01
8.800000e-07	7.558849e-07	-9.821199e-10	5.205855e+00	-6.610011e+01
8.900000e-07	8.868153e-07	-6.689539e-10	6.107585e+00	-4.560318e+01
9.000000e-07	1.017517e-06	-3.486577e-10	7.007738e+00	-2.430320e+01
9.100000e-07	1.147958e-06	-1.797878e-11	7.906104e+00	-2.205983e+00
9.200000e-07	1.278062e-06	3.265069e-10	8.802137e+00	2.064973e+01
9.300000e-07	1.407717e-06	6.838379e-10	9.695087e+00	4.418951e+01
9.400000e-07	1.536704e-06	1.050677e-09	1.058343e+01	6.830336e+01
9.500000e-07	1.664930e-06	1.424865e-09	1.146654e+01	9.284868e+01
9.600000e-07	1.792461e-06	1.805326e-09	1.234486e+01	1.176562e+02
9.700000e-07	1.919390e-06	2.188324e-09	1.321903e+01	1.425382e+02
9.800000e-07	2.045725e-06	2.569133e-09	1.408912e+01	1.672984e+02
9.900000e-07	2.171385e-06	2.944167e-09	1.495455e+01	1.917428e+02
1.000000e-06	2.296284e-06	3.307536e-09	1.581474e+01	2.156905e+02
1.010000e-06	2.420336e-06	3.658618e-09	1.666910e+01	2.389826e+02
1.020000e-06	2.543515e-06	3.998311e-09	1.751744e+01	2.614900e+02
1.030000e-06	2.665863e-06	4.325293e-09	1.836006e+01	2.831183e+02
1.040000e-06	2.787189e-06	4.638069e-09	1.919565e+01	3.038094e+02
1.050000e-06	2.907293e-06	4.937675e-09	2.002282e+01	3.235408e+02
1.060000e-06	3.026275e-06	5.223425e-09	2.084226e+01	3.423217e+02
1.070000e-06	3.144247e-06	5.492951e-09	2.165474e+01	3.601870e+02
1.080000e-06	3.261149e-06	5.748985e-09	2.245986e+01	3.771904e+02
1.090000e-06	3.376833e-06	5.995298e-09	2.325659e+01	3.933963e+02
1.100000e-06	3.491123e-06	6.230181e-09	2.404371e+01	4.088729e+02
1.110000e-06	3.603891e-06	6.456120e-09	2.482035e+01	4.236852e+02
1.120000e-06	3.715275e-06	6.672797e-09	2.558747e+01	4.378904e+02
1.130000e-06	3.825469e-06	6.880335e-09	2.634639e+01	4.515352e+02
1.140000e-06	3.934455e-06	7.081007e-09	2.709698e+01	4.646543e+02
1.150000e-06	4.042195e-06	7.272591e-09	2.783900e+01	4.772713e+02
1.160000e-06	4.148568e-06	7.455907e-09	2.857160e+01	4.894011e+02
1.170000e-06	4.253324e-06	7.630277e-09	2.929307e+01	5.010523e+02
1.180000e-06	4.356496e-06	7.794797e-09	3.000362e+01	5.122306e+02
1.190000e-06	4.458166e-06	7.952900e-09	3.070384e+01	5.229419e+02
1.200000e-06	4.558330e-06	8.108102e-09	3.139367e+01	5.331944e+02
1.210000e-06	4.656890e-06	8.258808e-09	3.207247e+01	5.430001e+02
1.220000e-06	4.753618e-06	8.404149e-09	3.273864e+01	5.523750e+02
1.230000e-06	4.848513e-06	8.542630e-09	3.339219e+01	5.613387e+02
1.240000e-06	4.941725e-06	8.677042e-09	3.403415e+01	5.699127e+02
1.250000e-06	5.033282e-06	8.806364e-09	3.466472e+01	5.781193e+02
1.260000e-06	5.123016e-06	8.929732e-09	3.528272e+01	5.859790e+02
1.270000e-06	5.210808e-06	9.046889e-09	3.588735e+01	5.935098e+02
1.280000e-06	5.296737e-06	9.156520e-09	3.647916e+01	6.007259e+02
1.290000e-06	5.380905e-06	9.259273e-09	3.705883e+01	6.076380e+02
1.300000e-06	5.463195e-06	9.357310e-09	3.762557e+01	6.142532e+02
1.310000e-06	5.543447e-06	9.451310e-09	3.817827e+01	6.205768e+02
1.320000e-06	5.621682e-06	9.539422e-09	3.871708e+01	6.266134e+02
1.330000e-06	5.697853e-06	9.623809e-09	3.924168e+01	6.323689e+02
1.340000e-06	5.771785e-06	9.707390e-09	3.975086e+01	6.378513e+02
1.350000e-06	5.843469e-06	9.790093e-09	4.024455e+01	6.430720e+02
1.360000e-06	5.913090e-06	9.869319e-09	4.072404e+01	6.480461e+02
1.370000e-06	5.980729e-06	9.942361e-09	4.118988e+01	6.527912e+02
1.380000e-06	6.046197e-06	1.000997e-08	4.164076e+01	6.573267e+02
1.390000e-06	6.109449e-06	1.007524e-08	4.207638e+01	6.616720e+02
1.400000e-06	6.170669e-06	1.013892e-08	4.249801e+01	6.658441e+02
1.410000e-06	6.229813e-06	1.020059e-08	4.290534e+01	6.698565e+02
1.420000e-06	6.286678e-06	1.025972e-08	4.329698e+01	6.737169e+02
1.430000e-06	6.341301e-06	1.031622e-08	4.367317e+01	6.774269e+02
1.440000e-06	6.393563e-06	1.037065e-08	4.403311e+01	6.809817e+02
1.450000e-06	6.443133e-06	1.042241e-08	4.437450e+01	6.843713e+02
1.460000e-06	6.490172e-06	1.047136e-08	4.469846e+01	6.875816e+02
1.470000e-06	6.535028e-06	1.051694e-08	4.500739e+01	6.905971e+02
1.480000e-06	6.577636e-06	1.055849e-08	4.530084e+01	6.934028e+02
1.490000e-06	6.617797e-06	1.059698e-08	4.557743e+01	6.959870e+02
1.500000e-06	6.655663e-06	1.063217e-08	4.583822e+01	6.983431e+02
1.510000e-06	6.691377e-06	1.066431e-08	4.608418e+01	7.004707e+02
1.520000e-06	6.724685e-06	1.069328e-08	4.631358e+01	7.023760e+02
1.530000e-06	6.755502e-06	1.071791e-08	4.652582e+01	7.040716e+02
1.540000e-06	6.784060e-06	1.074108e-08	4.672250e+01	7.055747e+02
1.550000e-06	6.810190e-06	1.076212e-08	4.690245e+01	7.069053e+02
1.560000e-06	6.833687e-06	1.078004e-08	4.706428e+01	7.080837e+02
1.570000e-06	6.854797e-06	1.079543e-08	4.720967e+01	7.091279e+02
1.580000e-06	6.873628e-06	1.080938e-08	4.733936e+01	7.100519e+02
1.590000e-06	6.889917e-06	1.082136e-08	4.745155e+01	7.108639e+02
1.600000e-06	6.903627e-06	1.083046e-08	4.754597e+01	7.115653e+02
1.610000e-06	6.914687e-06	1.083730e-08	4.762214e+01	7.121517e+02
1.620000e-06	6.922981e-06	1.084247e-08	4.767926e+01	7.126132e+02
1.630000e-06	6.928827e-06	1.084624e-08	4.771952e+01	7.129367e+02
1.640000e-06	6.932337e-06	1.085008e-08	4.774369e+01	7.131080e+02
1.650000e-06	6.933361e-06	1.085297e-08	4.775075e+01	7.131143e+02
1.660000e-06	6.931957e-06	1.085134e-08	4.774108e+01	7.129463e+02
1.670000e-06	6.928362e-06	1.084565e-08	4.771632e+01	7.126002e+02
1.680000e-06	6.922447e-06	1.083403e-08	4.767558e+01	7.120784e+02
1.690000e-06	6.914166e-06	1.082255e-08	4.761855e+01	7.113900e+02
1.700000e-06	6.903743e-06	1.081125e-08	4.754677e+01	7.105503e+02
1.710000e-06	6.891013e-06	1.079936e-08	4.745909e+01	7.095786e+02
1.720000e-06	6.875815e-06	1.078365e-08	4.735442e+01	7.084969e+02
1.730000e-06	6.858413e-06	1.075135e-08	4.723457e+01	7.073274e+02
1.740000e-06	6.838828e-06	1.073717e-08	4.709969e+01	7.060897e+02
1.750000e-06	6.816195e-06	1.071400e-08	4.694381e+01	7.047991e+02
1.760000e-06	6.790207e-06	1.068582e-08	4.676484e+01	7.034648e+02
1.770000e-06	6.761563e-06	1.066853e-08	4.656756e+01	7.020890e+02
1.780000e-06	6.730775e-06	1.063977e-08	4.635552e+01	7.006665e+02
1.790000e-06	6.698382e-06	1.063717e-08	4.613243e+01	6.991854e+02
1.800000e-06	6.664509e-06	1.066449e-08	4.589914e+01	6.976284e+02
1.810000e-06	6.628305e-06	1.059370e-08	4.564980e+01	6.959743e+02
1.820000e-06	6.589564e-06	1.058573e-08	4.538299e+01	6.941999e+02
1.830000e-06	6.548718e-06	1.058639e-08	4.510167e+01	6.922821e+02
1.840000e-06	6.505654e-06	1.050931e-08	4.480509e+01	6.901997e+02
1.850000e-06	6.460378e-06	1.053396e-08	4.449327e+01	6.879351e+02
1.860000e-06	6.412748e-06	1.046384e-08	4.416523e+01	6.854751e+02
1.870000e-06	6.362642e-06	1.036872e-08	4.382015e+01	6.828117e+02
1.880000e-06	6.310191e-06	1.035862e-08	4.345892e+01	6.799420e+02
1.890000e-06	6.255040e-06	1.032609e-08	4.307909e+01	6.768680e+02
1.900000e-06	6.197372e-06	1.032659e-08	4.268192e+01	6.735959e+02
1.910000e-06	6.137507e-06	1.024944e-08	4.226962e+01	6.701349e+02
1.920000e-06	6.075219e-06	1.013451e-08	4.184064e+01	6.664963e+02
1.930000e-06	6.010653e-06	1.009035e-08	4.139597e+01	6.626922e+02
1.940000e-06	5.943997e-06	1.004392e-08	4.093690e+01	6.587343e+02
1.950000e-06	5.875279e-06	1.002418e-08	4.046363e+01	6.546335e+02
1.960000e-06	5.804166e-06	9.945633e-09	3.997387e+01	6.503984e+02
1.970000e-06	5.730730e-06	9.868607e-09	3.946811e+01	6.460350e+02
1.980000e-06	5.655243e-06	9.779257e-09	3.894822e+01	6.415466e+02
1.990000e-06	5.577489e-06	9.690681e-09	3.841272e+01	6.369334e+02
2.000000e-06	5.497577e-06	9.671571e-09	3.786236e+01	6.321929e+02
2.010000e-06	5.415672e-06	9.592381e-09	3.729827e+01	6.273199e+02
2.020000e-06	5.331959e-06	9.494824e-09	3.672173e+01	6.223073e+02
2.030000e-06	5.246337e-06	9.400340e-09	3.613205e+01	6.171467e+02
2.040000e-06	5.158683e-06	9.325579e-09	3.552836e+01	6.118292e+02
2.050000e-06	5.069254e-06	9.261491e-09	3.491246e+01	6.063463e+02
2.060000e-06	4.978249e-06	9.178335e-09	3.428569e+01	6.006904e+02
2.070000e-06	4.885579e-06	9.096933e-09	3.364747e+01	5.948560e+02
2.080000e-06	4.791059e-06	8.988051e-09	3.299650e+01	5.888393e+02
2.090000e-06	4.694829e-06	8.881521e-09	3.233376e+01	5.826394e+02
2.100000e-06	4.597030e-06	8.784422e-09	3.166021e+01	5.762574e+02
2.110000e-06	4.497735e-06	8.716855e-09	3.097635e+01	5.696962e+02
2.120000e-06	4.396859e-06	8.619026e-09	3.028160e+01	5.629600e+02
2.130000e-06	4.294313e-06	8.483030e-09	2.957536e+01	5.560533e+02
2.140000e-06	4.190135e-06	8.366275e-09	2.885788e+01	5.489796e+02
2.150000e-06	4.084393e-06	8.266156e-09	2.812962e+01	5.417410e+02
2.160000e-06	3.977299e-06	8.174959e-09	2.739205e+01	5.343372e+02
2.170000e-06	3.868843e-06	8.065769e-09	2.664511e+01	5.267648e+02
2.180000e-06	3.758927e-06	7.938510e-09	2.588811e+01	5.190178e+02
2.190000e-06	3.647543e-06	7.797798e-09	2.512099e+01	5.110874e+02
2.200000e-06	3.534824e-06	7.670071e-09	2.434468e+01	5.029630e+02
2.210000e-06	3.420803e-06	7.559897e-09	2.355941e+01	4.946332e+02
2.220000e-06	3.305427e-06	7.446587e-09	2.276480e+01	4.860870e+02
2.230000e-06	3.188598e-06	7.302746e-09	2.196019e+01	4.773149e+02
2.240000e-06	3.070314e-06	7.147012e-09	2.114556e+01	4.683098e+02
2.250000e-06	2.950875e-06	7.004385e-09	2.032297e+01	4.590680e+02
2.260000e-06	2.830413e-06	6.870560e-09	1.949334e+01	4.495886e+02
2.270000e-06	2.708938e-06	6.740782e-09	1.865673e+01	4.398735e+02
2.280000e-06	2.586551e-06	6.597094e-09	1.781383e+01	4.299265e+02
2.290000e-06	2.463336e-06	6.433703e-09	1.696524e+01	4.197514e+02
2.300000e-06	2.339254e-06	6.263078e-09	1.611068e+01	4.093512e+02
2.310000e-06	2.214290e-06	6.104136e-09	1.525003e+01	3.987258e+02
2.320000e-06	2.088458e-06	5.953081e-09	1.438342e+01	3.878715e+02
2.330000e-06	1.961851e-06	5.788519e-09	1.351146e+01	3.767797e+02
2.340000e-06	1.834586e-06	5.602468e-09	1.263497e+01	3.654370e+02
2.350000e-06	1.706709e-06	5.414613e-09	1.175428e+01	3.538261e+02
2.360000e-06	1.578261e-06	5.234426e-09	1.086964e+01	3.419266e+02
2.370000e-06	1.449291e-06	5.058391e-09	9.981408e+00	3.297173e+02
2.380000e-06	1.319884e-06	4.876818e-09	9.090175e+00	3.171776e+02
2.390000e-06	1.190069e-06	4.677085e-09	8.196126e+00	3.042899e+02
2.400000e-06	1.059862e-06	4.462373e-09	7.299374e+00	2.910406e+02
2.410000e-06	9.293590e-07	4.248227e-09	6.400588e+00	2.774209e+02
2.420000e-06	7.986143e-07	4.042265e-09	5.500136e+00	2.634267e+02
2.430000e-06	6.676776e-07	3.835056e-09	4.598362e+00	2.490566e+02
2.440000e-06	5.366135e-07	3.612673e-09	3.695711e+00	2.343104e+02
2.450000e-06	4.053968e-07	3.374441e-09	2.792008e+00	2.191855e+02
2.460000e-06	2.739780e-07	3.133598e-09	1.886914e+00	2.036738e+02
2.470000e-06	1.424105e-07	2.893173e-09	9.807951e-01	1.877588e+02
2.480000e-06	1.083291e-08	2.648425e-09	7.460734e-02	1.714131e+02
2.490000e-06	-1.207008e-07	2.391820e-09	-8.312783e-01	1.545974e+02
2.500000e-06	-2.522137e-07	2.116134e-09	-1.737021e+00	1.372613e+02
2.510000e-06	-3.836916e-07	1.827698e-09	-2.642522e+00	1.193457e+02
2.520000e-06	-5.150952e-07	1.538273e-09	-3.547512e+00	1.007873e+02
2.530000e-06	-6.463882e-07	1.250319e-09	-4.451740e+00	8.152464e+01
2.540000e-06	-7.775102e-07	9.546058e-10	-5.354790e+00	6.150523e+01
2.550000e-06	-9.083876e-07	6.393257e-10	-6.256156e+00	4.069325e+01
2.560000e-06	-1.038999e-06	3.078548e-10	-7.155687e+00	1.907685e+01
2.570000e-06	-1.169249e-06	-3.111039e-11	-8.052732e+00	-3.325699e+00
2.580000e-06	-1.299077e-06	-3.784458e-10	-8.946872e+00	-2.646182e+01
2.590000e-06	-1.428494e-06	-7.388463e-10	-9.838182e+00	-5.024294e+01
2.600000e-06	-1.557392e-06	-1.112509e-09	-1.072592e+01	-7.454573e+01
2.610000e-06	-1.685673e-06	-1.497104e-09	-1.160940e+01	-9.921627e+01
2.620000e-06	-1.813336e-06	-1.885260e-09	-1.248862e+01	-1.240769e+02
2.630000e-06	-1.940410e-06	-2.266962e-09	-1.336380e+01	-1.489353e+02
2.640000e-06	-2.066872e-06	-2.639927e-09	-1.423476e+01	-1.735949e+02
2.650000e-06	-2.192545e-06	-3.009121e-09	-1.510028e+01	-1.978656e+02
2.660000e-06	-2.317219e-06	-3.375813e-09	-1.595892e+01	-2.215739e+02
2.670000e-06	-2.440876e-06	-3.728849e-09	-1.681055e+01	-2.445721e+02
2.680000e-06	-2.563587e-06	-4.061886e-09	-1.765568e+01	-2.667442e+02
2.690000e-06	-2.685365e-06	-4.379354e-09	-1.849438e+01	-2.880100e+02
2.700000e-06	-2.806120e-06	-4.685340e-09	-1.932603e+01	-3.083257e+02
2.710000e-06	-2.925812e-06	-4.983477e-09	-2.015036e+01	-3.276818e+02
2.720000e-06	-3.044481e-06	-5.272183e-09	-2.096764e+01	-3.460984e+02
2.730000e-06	-3.161996e-06	-5.544445e-09	-2.177698e+01	-3.636187e+02
2.740000e-06	-3.278137e-06	-5.798552e-09	-2.257686e+01	-3.803016e+02
2.750000e-06	-3.392912e-06	-6.040523e-09	-2.336732e+01	-3.962137e+02
2.760000e-06	-3.506380e-06	-6.275168e-09	-2.414879e+01	-4.114227e+02
2.770000e-06	-3.618449e-06	-6.501388e-09	-2.492062e+01	-4.259910e+02
2.780000e-06	-3.729046e-06	-6.718697e-09	-2.568231e+01	-4.399719e+02
2.790000e-06	-3.838291e-06	-6.926279e-09	-2.643470e+01	-4.534074e+02
2.800000e-06	-3.946394e-06	-7.126837e-09	-2.717921e+01	-4.663278e+02
2.810000e-06	-4.053382e-06	-7.321794e-09	-2.791605e+01	-4.787529e+02
2.820000e-06	-4.158952e-06	-7.506713e-09	-2.864312e+01	-4.906947e+02
2.830000e-06	-4.262966e-06	-7.679783e-09	-2.935947e+01	-5.021602e+02
2.840000e-06	-4.365409e-06	-7.842700e-09	-3.006501e+01	-5.131551e+02
2.850000e-06	-4.466139e-06	-7.998070e-09	-3.075874e+01	-5.236857e+02
2.860000e-06	-4.565310e-06	-8.149258e-09	-3.144175e+01	-5.337618e+02
2.870000e-06	-4.662998e-06	-8.297458e-09	-3.211453e+01	-5.433970e+02
2.880000e-06	-4.759097e-06	-8.440001e-09	-3.277637e+01	-5.526086e+02
2.890000e-06	-4.853430e-06	-8.576371e-09	-3.342606e+01	-5.614174e+02
2.900000e-06	-4.945935e-06	-8.707715e-09	-3.406315e+01	-5.698453e+02
2.910000e-06	-5.036723e-06	-8.833326e-09	-3.468841e+01	-5.779140e+02
2.920000e-06	-5.125709e-06	-8.952380e-09	-3.530127e+01	-5.856433e+02
2.930000e-06	-5.212811e-06	-9.064816e-09	-3.590115e+01	-5.930498e+02
2.940000e-06	-5.297902e-06	-9.170745e-09	-3.648718e+01	-6.001462e+02
