# Temperatura_=_58.19
# Concentracion g/m^3_=_15000.0
# C_Vs_to_Am_M_A/Vsm_=_65563218390.804596
# pendiente_HvsI_1/m_=_3716.3
# ordenada_HvsI_A/m_=_1297.0
# frecuencia_Hz_=_301595.5972251345

Tiempo_(s)	Campo_(V.s)	Magnetizacion_(V.s)	Campo_(kA/m)	Magnetizacion_(A/m)
0.000000e+00	-5.391261e-06	-6.584177e-09	-3.833454e+01	-4.300031e+02
1.000000e-08	-5.388608e-06	-6.584868e-09	-3.831567e+01	-4.298773e+02
2.000000e-08	-5.384176e-06	-6.577344e-09	-3.828416e+01	-4.296481e+02
3.000000e-08	-5.378157e-06	-6.568881e-09	-3.824136e+01	-4.293113e+02
4.000000e-08	-5.370586e-06	-6.560052e-09	-3.818752e+01	-4.288657e+02
5.000000e-08	-5.361200e-06	-6.549539e-09	-3.812079e+01	-4.283136e+02
6.000000e-08	-5.349693e-06	-6.537814e-09	-3.803896e+01	-4.276609e+02
7.000000e-08	-5.336321e-06	-6.520040e-09	-3.794388e+01	-4.269167e+02
8.000000e-08	-5.320873e-06	-6.508592e-09	-3.783404e+01	-4.260923e+02
9.000000e-08	-5.303138e-06	-6.552335e-09	-3.770794e+01	-4.252000e+02
1.000000e-07	-5.283368e-06	-6.549052e-09	-3.756736e+01	-4.242514e+02
1.100000e-07	-5.261678e-06	-6.490898e-09	-3.741314e+01	-4.232563e+02
1.200000e-07	-5.238242e-06	-6.471438e-09	-3.724650e+01	-4.222208e+02
1.300000e-07	-5.213268e-06	-6.372072e-09	-3.706892e+01	-4.211470e+02
1.400000e-07	-5.186684e-06	-6.339949e-09	-3.687989e+01	-4.200323e+02
1.500000e-07	-5.158445e-06	-6.478746e-09	-3.667910e+01	-4.188698e+02
1.600000e-07	-5.128782e-06	-6.361256e-09	-3.646818e+01	-4.176490e+02
1.700000e-07	-5.097661e-06	-6.342923e-09	-3.624689e+01	-4.163567e+02
1.800000e-07	-5.064414e-06	-6.437742e-09	-3.601050e+01	-4.149790e+02
1.900000e-07	-5.029146e-06	-6.247766e-09	-3.575972e+01	-4.135023e+02
2.000000e-07	-4.992487e-06	-6.255820e-09	-3.549906e+01	-4.119151e+02
2.100000e-07	-4.954129e-06	-6.309391e-09	-3.522631e+01	-4.102092e+02
2.200000e-07	-4.913892e-06	-6.193878e-09	-3.494021e+01	-4.083798e+02
2.300000e-07	-4.871741e-06	-6.197749e-09	-3.464049e+01	-4.064268e+02
2.400000e-07	-4.827648e-06	-6.161914e-09	-3.432697e+01	-4.043535e+02
2.500000e-07	-4.781860e-06	-6.101861e-09	-3.400139e+01	-4.021662e+02
2.600000e-07	-4.734184e-06	-6.123559e-09	-3.366239e+01	-3.998735e+02
2.700000e-07	-4.684389e-06	-6.052716e-09	-3.330832e+01	-3.974846e+02
2.800000e-07	-4.632504e-06	-6.033667e-09	-3.293940e+01	-3.950083e+02
2.900000e-07	-4.578699e-06	-5.992123e-09	-3.255682e+01	-3.924519e+02
3.000000e-07	-4.523292e-06	-5.904462e-09	-3.216285e+01	-3.898204e+02
3.100000e-07	-4.466269e-06	-5.899436e-09	-3.175738e+01	-3.871161e+02
3.200000e-07	-4.407383e-06	-5.900229e-09	-3.133867e+01	-3.843388e+02
3.300000e-07	-4.346867e-06	-5.842630e-09	-3.090838e+01	-3.814858e+02
3.400000e-07	-4.284931e-06	-5.739441e-09	-3.046798e+01	-3.785526e+02
3.500000e-07	-4.221601e-06	-5.702281e-09	-3.001767e+01	-3.755340e+02
3.600000e-07	-4.156837e-06	-5.677184e-09	-2.955717e+01	-3.724244e+02
3.700000e-07	-4.090397e-06	-5.627078e-09	-2.908475e+01	-3.692190e+02
3.800000e-07	-4.022391e-06	-5.594965e-09	-2.860120e+01	-3.659140e+02
3.900000e-07	-3.953025e-06	-5.529550e-09	-2.810796e+01	-3.625069e+02
4.000000e-07	-3.882355e-06	-5.453307e-09	-2.760546e+01	-3.589968e+02
4.100000e-07	-3.810423e-06	-5.388754e-09	-2.709400e+01	-3.553838e+02
4.200000e-07	-3.737132e-06	-5.344413e-09	-2.657286e+01	-3.516690e+02
4.300000e-07	-3.662299e-06	-5.312674e-09	-2.604076e+01	-3.478539e+02
4.400000e-07	-3.585900e-06	-5.248901e-09	-2.549753e+01	-3.439398e+02
4.500000e-07	-3.508051e-06	-5.174507e-09	-2.494398e+01	-3.399276e+02
4.600000e-07	-3.428746e-06	-5.105511e-09	-2.438008e+01	-3.358173e+02
4.700000e-07	-3.348127e-06	-5.050854e-09	-2.380684e+01	-3.316083e+02
4.800000e-07	-3.266327e-06	-4.995284e-09	-2.322520e+01	-3.272991e+02
4.900000e-07	-3.183396e-06	-4.916236e-09	-2.263552e+01	-3.228875e+02
5.000000e-07	-3.099458e-06	-4.838564e-09	-2.203868e+01	-3.183713e+02
5.100000e-07	-3.014621e-06	-4.760743e-09	-2.143545e+01	-3.137481e+02
5.200000e-07	-2.928888e-06	-4.692411e-09	-2.082584e+01	-3.090159e+02
5.300000e-07	-2.842203e-06	-4.628075e-09	-2.020947e+01	-3.041731e+02
5.400000e-07	-2.754592e-06	-4.555894e-09	-1.958651e+01	-2.992184e+02
5.500000e-07	-2.665890e-06	-4.474447e-09	-1.895580e+01	-2.941511e+02
5.600000e-07	-2.575976e-06	-4.381313e-09	-1.831646e+01	-2.889706e+02
5.700000e-07	-2.484990e-06	-4.298850e-09	-1.766951e+01	-2.836764e+02
5.800000e-07	-2.393094e-06	-4.229534e-09	-1.701608e+01	-2.782679e+02
5.900000e-07	-2.300455e-06	-4.154796e-09	-1.635737e+01	-2.727441e+02
6.000000e-07	-2.207017e-06	-4.057792e-09	-1.569299e+01	-2.671033e+02
6.100000e-07	-2.112752e-06	-3.959044e-09	-1.502272e+01	-2.613440e+02
6.200000e-07	-2.017833e-06	-3.869717e-09	-1.434779e+01	-2.554639e+02
6.300000e-07	-1.922292e-06	-3.782337e-09	-1.366845e+01	-2.494609e+02
6.400000e-07	-1.826016e-06	-3.696176e-09	-1.298388e+01	-2.433330e+02
6.500000e-07	-1.728927e-06	-3.605564e-09	-1.229352e+01	-2.370785e+02
6.600000e-07	-1.631062e-06	-3.505599e-09	-1.159766e+01	-2.306962e+02
6.700000e-07	-1.532515e-06	-3.394038e-09	-1.089694e+01	-2.241850e+02
6.800000e-07	-1.433398e-06	-3.286819e-09	-1.019217e+01	-2.175441e+02
6.900000e-07	-1.333824e-06	-3.188359e-09	-9.484147e+00	-2.107726e+02
7.000000e-07	-1.233866e-06	-3.090125e-09	-8.773401e+00	-2.038691e+02
7.100000e-07	-1.133552e-06	-2.982282e-09	-8.060113e+00	-1.968311e+02
7.200000e-07	-1.032908e-06	-2.867850e-09	-7.344489e+00	-1.896549e+02
7.300000e-07	-9.319499e-07	-2.754724e-09	-6.626625e+00	-1.823351e+02
7.400000e-07	-8.306544e-07	-2.641953e-09	-5.906364e+00	-1.748650e+02
7.500000e-07	-7.290035e-07	-2.529623e-09	-5.183576e+00	-1.672360e+02
7.600000e-07	-6.270789e-07	-2.412295e-09	-4.458841e+00	-1.594388e+02
7.700000e-07	-5.249518e-07	-2.288383e-09	-3.732667e+00	-1.514634e+02
7.800000e-07	-4.226744e-07	-2.160461e-09	-3.005424e+00	-1.433000e+02
7.900000e-07	-3.202524e-07	-2.033706e-09	-2.277153e+00	-1.349394e+02
8.000000e-07	-2.177240e-07	-1.905672e-09	-1.548126e+00	-1.263738e+02
8.100000e-07	-1.151323e-07	-1.772619e-09	-8.186477e-01	-1.175971e+02
8.200000e-07	-1.245292e-08	-1.633419e-09	-8.854644e-02	-1.086049e+02
8.300000e-07	9.024771e-08	-1.486644e-09	6.417059e-01	-9.939425e+01
8.400000e-07	1.929189e-07	-1.341161e-09	1.371749e+00	-8.996343e+01
8.500000e-07	2.955301e-07	-1.198849e-09	2.101366e+00	-8.031107e+01
8.600000e-07	3.980470e-07	-1.052764e-09	2.830311e+00	-7.043557e+01
8.700000e-07	5.004594e-07	-8.961567e-10	3.558514e+00	-6.033441e+01
8.800000e-07	6.027850e-07	-7.312348e-10	4.286100e+00	-5.000376e+01
8.900000e-07	7.049392e-07	-5.654454e-10	5.012467e+00	-3.943838e+01
9.000000e-07	8.068023e-07	-3.992154e-10	5.736764e+00	-2.863207e+01
9.100000e-07	9.083653e-07	-2.318871e-10	6.458927e+00	-1.757846e+01
9.200000e-07	1.009627e-06	-6.206586e-11	7.178948e+00	-6.272379e+00
9.300000e-07	1.110525e-06	1.134961e-10	7.896385e+00	5.288573e+00
9.400000e-07	1.210995e-06	2.957796e-10	8.610772e+00	1.710220e+01
9.500000e-07	1.311103e-06	4.794137e-10	9.322589e+00	2.915996e+01
9.600000e-07	1.410833e-06	6.616343e-10	1.003172e+01	4.144556e+01
9.700000e-07	1.510048e-06	8.461021e-10	1.073719e+01	5.393390e+01
9.800000e-07	1.608678e-06	1.036761e-09	1.143850e+01	6.659082e+01
9.900000e-07	1.706558e-06	1.231650e-09	1.213447e+01	7.937348e+01
1.000000e-06	1.803575e-06	1.425226e-09	1.282431e+01	9.223163e+01
1.010000e-06	1.899791e-06	1.617916e-09	1.350845e+01	1.051094e+02
1.020000e-06	1.995260e-06	1.810474e-09	1.418729e+01	1.179478e+02
1.030000e-06	2.090064e-06	2.003537e-09	1.486139e+01	1.306875e+02
1.040000e-06	2.184147e-06	2.195730e-09	1.553037e+01	1.432711e+02
1.050000e-06	2.277458e-06	2.383054e-09	1.619386e+01	1.556463e+02
1.060000e-06	2.370033e-06	2.565309e-09	1.685211e+01	1.677674e+02
1.070000e-06	2.461929e-06	2.741132e-09	1.750553e+01	1.795968e+02
1.080000e-06	2.553162e-06	2.913004e-09	1.815424e+01	1.911055e+02
1.090000e-06	2.643309e-06	3.083182e-09	1.879524e+01	2.022732e+02
1.100000e-06	2.732096e-06	3.251410e-09	1.942656e+01	2.130868e+02
1.110000e-06	2.819911e-06	3.413088e-09	2.005096e+01	2.235400e+02
1.120000e-06	2.906930e-06	3.566715e-09	2.066971e+01	2.336309e+02
1.130000e-06	2.993000e-06	3.713806e-09	2.128171e+01	2.433605e+02
1.140000e-06	3.078034e-06	3.858043e-09	2.188634e+01	2.527316e+02
1.150000e-06	3.162122e-06	3.997696e-09	2.248426e+01	2.617474e+02
1.160000e-06	3.245329e-06	4.129330e-09	2.307590e+01	2.704110e+02
1.170000e-06	3.327382e-06	4.253283e-09	2.365933e+01	2.787255e+02
1.180000e-06	3.408109e-06	4.370554e-09	2.423335e+01	2.866941e+02
1.190000e-06	3.487549e-06	4.483629e-09	2.479820e+01	2.943212e+02
1.200000e-06	3.565784e-06	4.592958e-09	2.535449e+01	3.016128e+02
1.210000e-06	3.642819e-06	4.699817e-09	2.590225e+01	3.085779e+02
1.220000e-06	3.718597e-06	4.800984e-09	2.644107e+01	3.152288e+02
1.230000e-06	3.792785e-06	4.894318e-09	2.696858e+01	3.215810e+02
1.240000e-06	3.865252e-06	4.981887e-09	2.748386e+01	3.276533e+02
1.250000e-06	3.936333e-06	5.070825e-09	2.798928e+01	3.334670e+02
1.260000e-06	4.006041e-06	5.159509e-09	2.848493e+01	3.390443e+02
1.270000e-06	4.074422e-06	5.243322e-09	2.897116e+01	3.444071e+02
1.280000e-06	4.141440e-06	5.321835e-09	2.944769e+01	3.495754e+02
1.290000e-06	4.206770e-06	5.397275e-09	2.991222e+01	3.545657e+02
1.300000e-06	4.270479e-06	5.470635e-09	3.036522e+01	3.593901e+02
1.310000e-06	4.332743e-06	5.541331e-09	3.080795e+01	3.640558e+02
1.320000e-06	4.393566e-06	5.609451e-09	3.124043e+01	3.685647e+02
1.330000e-06	4.453032e-06	5.674296e-09	3.166326e+01	3.729143e+02
1.340000e-06	4.510809e-06	5.735742e-09	3.207409e+01	3.770987e+02
1.350000e-06	4.566742e-06	5.796146e-09	3.247180e+01	3.811101e+02
1.360000e-06	4.621051e-06	5.856382e-09	3.285796e+01	3.849404e+02
1.370000e-06	4.673694e-06	5.910754e-09	3.323228e+01	3.885829e+02
1.380000e-06	4.724405e-06	5.959118e-09	3.359286e+01	3.920334e+02
1.390000e-06	4.773057e-06	6.006004e-09	3.393880e+01	3.952912e+02
1.400000e-06	4.819921e-06	6.052514e-09	3.427202e+01	3.983596e+02
1.410000e-06	4.865190e-06	6.097220e-09	3.459391e+01	4.012452e+02
1.420000e-06	4.908945e-06	6.138613e-09	3.490503e+01	4.039577e+02
1.430000e-06	4.950871e-06	6.176853e-09	3.520314e+01	4.065085e+02
1.440000e-06	4.990887e-06	6.211956e-09	3.548768e+01	4.089094e+02
1.450000e-06	5.029278e-06	6.244679e-09	3.576066e+01	4.111711e+02
1.460000e-06	5.066062e-06	6.275339e-09	3.602221e+01	4.133025e+02
1.470000e-06	5.101168e-06	6.305210e-09	3.627183e+01	4.153096e+02
1.480000e-06	5.134297e-06	6.333066e-09	3.650739e+01	4.171953e+02
1.490000e-06	5.165501e-06	6.357904e-09	3.672927e+01	4.189598e+02
1.500000e-06	5.195018e-06	6.381178e-09	3.693915e+01	4.206009e+02
1.510000e-06	5.222884e-06	6.402968e-09	3.713730e+01	4.221155e+02
1.520000e-06	5.248832e-06	6.423271e-09	3.732180e+01	4.235004e+02
1.530000e-06	5.272693e-06	6.441363e-09	3.749146e+01	4.247533e+02
1.540000e-06	5.294659e-06	6.458118e-09	3.764765e+01	4.258741e+02
1.550000e-06	5.314913e-06	6.473438e-09	3.779166e+01	4.268654e+02
1.560000e-06	5.333404e-06	6.487882e-09	3.792315e+01	4.277321e+02
1.570000e-06	5.349891e-06	6.500684e-09	3.804038e+01	4.284817e+02
1.580000e-06	5.364317e-06	6.511344e-09	3.814295e+01	4.291230e+02
1.590000e-06	5.376781e-06	6.521392e-09	3.823158e+01	4.296653e+02
1.600000e-06	5.387076e-06	6.529020e-09	3.830478e+01	4.301172e+02
1.610000e-06	5.395163e-06	6.535068e-09	3.836228e+01	4.304854e+02
1.620000e-06	5.401367e-06	6.540223e-09	3.840640e+01	4.307738e+02
1.630000e-06	5.405837e-06	6.544373e-09	3.843818e+01	4.309835e+02
1.640000e-06	5.408409e-06	6.547386e-09	3.845646e+01	4.311123e+02
1.650000e-06	5.408906e-06	6.552254e-09	3.846000e+01	4.311553e+02
1.660000e-06	5.407571e-06	6.554009e-09	3.845051e+01	4.311064e+02
1.670000e-06	5.404592e-06	6.548945e-09	3.842933e+01	4.309588e+02
1.680000e-06	5.399990e-06	6.546154e-09	3.839661e+01	4.307067e+02
1.690000e-06	5.393450e-06	6.542298e-09	3.835010e+01	4.303464e+02
1.700000e-06	5.385027e-06	6.537237e-09	3.829021e+01	4.298776e+02
1.710000e-06	5.375093e-06	6.532863e-09	3.821957e+01	4.293032e+02
1.720000e-06	5.363501e-06	6.531250e-09	3.813715e+01	4.286299e+02
1.730000e-06	5.349883e-06	6.538455e-09	3.804032e+01	4.278673e+02
1.740000e-06	5.334192e-06	6.460668e-09	3.792875e+01	4.270272e+02
1.750000e-06	5.316238e-06	6.420016e-09	3.780109e+01	4.261218e+02
1.760000e-06	5.295598e-06	6.452909e-09	3.765432e+01	4.251624e+02
1.770000e-06	5.272592e-06	6.435241e-09	3.749074e+01	4.241581e+02
1.780000e-06	5.248147e-06	6.526922e-09	3.731693e+01	4.231143e+02
1.790000e-06	5.222976e-06	6.463763e-09	3.713794e+01	4.220319e+02
1.800000e-06	5.196539e-06	6.286373e-09	3.694996e+01	4.209076e+02
1.810000e-06	5.167791e-06	6.432306e-09	3.674555e+01	4.197335e+02
1.820000e-06	5.137115e-06	6.345038e-09	3.652743e+01	4.184984e+02
1.830000e-06	5.104930e-06	6.238552e-09	3.629858e+01	4.171889e+02
1.840000e-06	5.070814e-06	6.448026e-09	3.605600e+01	4.157909e+02
1.850000e-06	5.035107e-06	6.317837e-09	3.580210e+01	4.142913e+02
1.860000e-06	4.997705e-06	6.253953e-09	3.553616e+01	4.126792e+02
1.870000e-06	4.958317e-06	6.343549e-09	3.525609e+01	4.109469e+02
1.880000e-06	4.917298e-06	6.176198e-09	3.496443e+01	4.090908e+02
1.890000e-06	4.874450e-06	6.219601e-09	3.465975e+01	4.071115e+02
1.900000e-06	4.829913e-06	6.184105e-09	3.434308e+01	4.050130e+02
1.910000e-06	4.783660e-06	6.093458e-09	3.401419e+01	4.028022e+02
1.920000e-06	4.735348e-06	6.196183e-09	3.367067e+01	4.004880e+02
1.930000e-06	4.685393e-06	6.008034e-09	3.331547e+01	3.980796e+02
1.940000e-06	4.633716e-06	6.015319e-09	3.294802e+01	3.955854e+02
1.950000e-06	4.579878e-06	6.085989e-09	3.256520e+01	3.930125e+02
1.960000e-06	4.524065e-06	5.932364e-09	3.216835e+01	3.903651e+02
1.970000e-06	4.466526e-06	5.897120e-09	3.175921e+01	3.876452e+02
1.980000e-06	4.407534e-06	5.826510e-09	3.133975e+01	3.848518e+02
1.990000e-06	4.347177e-06	5.849825e-09	3.091058e+01	3.819819e+02
2.000000e-06	4.285131e-06	5.814541e-09	3.046941e+01	3.790308e+02
2.010000e-06	4.221414e-06	5.714566e-09	3.001634e+01	3.759930e+02
2.020000e-06	4.156173e-06	5.735874e-09	2.955245e+01	3.728631e+02
2.030000e-06	4.089510e-06	5.619200e-09	2.907844e+01	3.696366e+02
2.040000e-06	4.021457e-06	5.563902e-09	2.859455e+01	3.663097e+02
2.050000e-06	3.951937e-06	5.542104e-09	2.810023e+01	3.628804e+02
2.060000e-06	3.880884e-06	5.516435e-09	2.759501e+01	3.593481e+02
2.070000e-06	3.808418e-06	5.479854e-09	2.707974e+01	3.557131e+02
2.080000e-06	3.734713e-06	5.341538e-09	2.655566e+01	3.519766e+02
2.090000e-06	3.659615e-06	5.303401e-09	2.602168e+01	3.481400e+02
2.100000e-06	3.583039e-06	5.258834e-09	2.547718e+01	3.442047e+02
2.110000e-06	3.504912e-06	5.209716e-09	2.492166e+01	3.401714e+02
2.120000e-06	3.425378e-06	5.144100e-09	2.435614e+01	3.360399e+02
2.130000e-06	3.344710e-06	5.063725e-09	2.378254e+01	3.318095e+02
2.140000e-06	3.262901e-06	5.016268e-09	2.320084e+01	3.274783e+02
2.150000e-06	3.180000e-06	4.924357e-09	2.261138e+01	3.230444e+02
2.160000e-06	3.096028e-06	4.875206e-09	2.201429e+01	3.185053e+02
2.170000e-06	3.010912e-06	4.820342e-09	2.140908e+01	3.138589e+02
2.180000e-06	2.924512e-06	4.742065e-09	2.079473e+01	3.091030e+02
2.190000e-06	2.836906e-06	4.645781e-09	2.017180e+01	3.042361e+02
2.200000e-06	2.748375e-06	4.559665e-09	1.954231e+01	2.992572e+02
2.210000e-06	2.658913e-06	4.519907e-09	1.890619e+01	2.941655e+02
2.220000e-06	2.568520e-06	4.450575e-09	1.826345e+01	2.889606e+02
2.230000e-06	2.477338e-06	4.351188e-09	1.761510e+01	2.836419e+02
2.240000e-06	2.385369e-06	4.248730e-09	1.696115e+01	2.782087e+02
2.250000e-06	2.292507e-06	4.169727e-09	1.630086e+01	2.726598e+02
2.260000e-06	2.198810e-06	4.089381e-09	1.563463e+01	2.669937e+02
2.270000e-06	2.104206e-06	4.008695e-09	1.496194e+01	2.612085e+02
2.280000e-06	2.008633e-06	3.928155e-09	1.428238e+01	2.553021e+02
2.290000e-06	1.912286e-06	3.829403e-09	1.359730e+01	2.492724e+02
2.300000e-06	1.815341e-06	3.719862e-09	1.290797e+01	2.431174e+02
2.310000e-06	1.717937e-06	3.618827e-09	1.221538e+01	2.368355e+02
2.320000e-06	1.619977e-06	3.541230e-09	1.151884e+01	2.304255e+02
2.330000e-06	1.521463e-06	3.453668e-09	1.081836e+01	2.238864e+02
2.340000e-06	1.422500e-06	3.341852e-09	1.011468e+01	2.172175e+02
2.350000e-06	1.323080e-06	3.223646e-09	9.407753e+00	2.104178e+02
2.360000e-06	1.223336e-06	3.118693e-09	8.698522e+00	2.034856e+02
2.370000e-06	1.123351e-06	3.020359e-09	7.987579e+00	1.964182e+02
2.380000e-06	1.023005e-06	2.917140e-09	7.274069e+00	1.892116e+02
2.390000e-06	9.222136e-07	2.805975e-09	6.557395e+00	1.818602e+02
2.400000e-06	8.209450e-07	2.686623e-09	5.837325e+00	1.743566e+02
2.410000e-06	7.192640e-07	2.565278e-09	5.114324e+00	1.666923e+02
2.420000e-06	6.173527e-07	2.444347e-09	4.389683e+00	1.588576e+02
2.430000e-06	5.152275e-07	2.326966e-09	3.663523e+00	1.508426e+02
2.440000e-06	4.128988e-07	2.203563e-09	2.935915e+00	1.426375e+02
2.450000e-06	3.104595e-07	2.068075e-09	2.207521e+00	1.342335e+02
2.460000e-06	2.078896e-07	1.927572e-09	1.478198e+00	1.256230e+02
2.470000e-06	1.051386e-07	1.796000e-09	7.475872e-01	1.168003e+02
2.480000e-06	2.258361e-09	1.670444e-09	1.605806e-02	1.077614e+02
2.490000e-06	-1.006183e-07	1.535726e-09	-7.154461e-01	9.850355e+01
2.500000e-06	-2.034469e-07	1.388019e-09	-1.446608e+00	8.902524e+01
2.510000e-06	-3.062059e-07	1.234412e-09	-2.177275e+00	7.932510e+01
2.520000e-06	-4.088478e-07	1.083092e-09	-2.907110e+00	6.940138e+01
2.530000e-06	-5.113284e-07	9.307701e-10	-3.635798e+00	5.925129e+01
2.540000e-06	-6.135935e-07	7.763297e-10	-4.362954e+00	4.887070e+01
2.550000e-06	-7.155929e-07	6.174503e-10	-5.088220e+00	3.825411e+01
2.560000e-06	-8.172049e-07	4.494746e-10	-5.810732e+00	2.739520e+01
2.570000e-06	-9.184331e-07	2.758111e-10	-6.530514e+00	1.628774e+01
2.580000e-06	-1.019293e-06	1.034307e-10	-7.247681e+00	4.926989e+00
2.590000e-06	-1.119670e-06	-6.671933e-11	-7.961409e+00	-6.688605e+00
2.600000e-06	-1.219578e-06	-2.458007e-10	-8.671801e+00	-1.855563e+01
2.610000e-06	-1.319079e-06	-4.363447e-10	-9.379305e+00	-3.066401e+01
2.620000e-06	-1.418210e-06	-6.293944e-10	-1.008417e+01	-4.299559e+01
2.630000e-06	-1.516903e-06	-8.224411e-10	-1.078593e+01	-5.552336e+01
2.640000e-06	-1.615053e-06	-1.016446e-09	-1.148383e+01	-6.821123e+01
2.650000e-06	-1.712597e-06	-1.211845e-09	-1.217741e+01	-8.101465e+01
2.660000e-06	-1.809573e-06	-1.410263e-09	-1.286696e+01	-9.388197e+01
2.670000e-06	-1.906008e-06	-1.612487e-09	-1.355266e+01	-1.067565e+02
2.680000e-06	-2.001921e-06	-1.813965e-09	-1.423465e+01	-1.195788e+02
2.690000e-06	-2.097222e-06	-2.010357e-09	-1.491229e+01	-1.322898e+02
2.700000e-06	-2.191589e-06	-2.201965e-09	-1.558329e+01	-1.448331e+02
2.710000e-06	-2.284935e-06	-2.392998e-09	-1.624702e+01	-1.571576e+02
2.720000e-06	-2.377349e-06	-2.582109e-09	-1.690413e+01	-1.692192e+02
2.730000e-06	-2.468873e-06	-2.762834e-09	-1.755491e+01	-1.809821e+02
2.740000e-06	-2.559511e-06	-2.933826e-09	-1.819939e+01	-1.924193e+02
2.750000e-06	-2.649212e-06	-3.097521e-09	-1.883721e+01	-2.035121e+02
2.760000e-06	-2.737988e-06	-3.258026e-09	-1.946845e+01	-2.142490e+02
2.770000e-06	-2.825943e-06	-3.417388e-09	-2.009386e+01	-2.246247e+02
2.780000e-06	-2.913028e-06	-3.574273e-09	-2.071307e+01	-2.346381e+02
2.790000e-06	-2.998996e-06	-3.723888e-09	-2.132435e+01	-2.442907e+02
2.800000e-06	-3.083726e-06	-3.864427e-09	-2.192682e+01	-2.535855e+02
2.810000e-06	-3.167384e-06	-3.998702e-09	-2.252167e+01	-2.625257e+02
2.820000e-06	-3.249985e-06	-4.129866e-09	-2.310900e+01	-2.711144e+02
2.830000e-06	-3.331483e-06	-4.258868e-09	-2.368849e+01	-2.793546e+02
2.840000e-06	-3.411975e-06	-4.384547e-09	-2.426083e+01	-2.872498e+02
2.850000e-06	-3.491357e-06	-4.503430e-09	-2.482528e+01	-2.948045e+02
2.860000e-06	-3.569295e-06	-4.613969e-09	-2.537946e+01	-3.020254e+02
2.870000e-06	-3.645672e-06	-4.717988e-09	-2.592254e+01	-3.089222e+02
2.880000e-06	-3.720596e-06	-4.818740e-09	-2.645528e+01	-3.155077e+02
2.890000e-06	-3.794119e-06	-4.916674e-09	-2.697806e+01	-3.217984e+02
2.900000e-06	-3.866339e-06	-5.008876e-09	-2.749159e+01	-3.278136e+02
2.910000e-06	-3.937234e-06	-5.096857e-09	-2.799568e+01	-3.335748e+02
2.920000e-06	-4.006542e-06	-5.182434e-09	-2.848850e+01	-3.391045e+02
2.930000e-06	-4.074332e-06	-5.265231e-09	-2.897052e+01	-3.444241e+02
2.940000e-06	-4.140751e-06	-5.344310e-09	-2.944279e+01	-3.495531e+02
