# Temperatura_=_42.78
# Concentracion g/m^3_=_15000.0
# C_Vs_to_Am_M_A/Vsm_=_65563218390.804596
# pendiente_HvsI_1/m_=_3716.3
# ordenada_HvsI_A/m_=_1297.0
# frecuencia_Hz_=_301592.41638780653

Tiempo_(s)	Campo_(V.s)	Magnetizacion_(V.s)	Campo_(kA/m)	Magnetizacion_(A/m)
0.000000e+00	-5.379958e-06	-5.993113e-09	-3.833256e+01	-3.917132e+02
1.000000e-08	-5.377033e-06	-5.987717e-09	-3.831172e+01	-3.915393e+02
2.000000e-08	-5.372361e-06	-5.981879e-09	-3.827844e+01	-3.912790e+02
3.000000e-08	-5.366052e-06	-5.974649e-09	-3.823348e+01	-3.909315e+02
4.000000e-08	-5.358169e-06	-5.967377e-09	-3.817732e+01	-3.904974e+02
5.000000e-08	-5.348503e-06	-5.960650e-09	-3.810845e+01	-3.899795e+02
6.000000e-08	-5.336761e-06	-5.953189e-09	-3.802479e+01	-3.893830e+02
7.000000e-08	-5.323092e-06	-5.950661e-09	-3.792739e+01	-3.887148e+02
8.000000e-08	-5.307333e-06	-5.946285e-09	-3.781511e+01	-3.879832e+02
9.000000e-08	-5.289266e-06	-5.930473e-09	-3.768638e+01	-3.871969e+02
1.000000e-07	-5.269156e-06	-5.925466e-09	-3.754310e+01	-3.863639e+02
1.100000e-07	-5.247243e-06	-5.907259e-09	-3.738697e+01	-3.854909e+02
1.200000e-07	-5.223647e-06	-5.867366e-09	-3.721884e+01	-3.845821e+02
1.300000e-07	-5.198538e-06	-5.863218e-09	-3.703994e+01	-3.836387e+02
1.400000e-07	-5.171805e-06	-5.829583e-09	-3.684946e+01	-3.826587e+02
1.500000e-07	-5.143415e-06	-5.802764e-09	-3.664718e+01	-3.816369e+02
1.600000e-07	-5.113583e-06	-5.853355e-09	-3.643463e+01	-3.805656e+02
1.700000e-07	-5.082065e-06	-5.815950e-09	-3.621006e+01	-3.794351e+02
1.800000e-07	-5.048417e-06	-5.777731e-09	-3.597031e+01	-3.782349e+02
1.900000e-07	-5.012940e-06	-5.776769e-09	-3.571754e+01	-3.769548e+02
2.000000e-07	-4.975987e-06	-5.689580e-09	-3.545425e+01	-3.755858e+02
2.100000e-07	-4.937310e-06	-5.670904e-09	-3.517867e+01	-3.741211e+02
2.200000e-07	-4.896843e-06	-5.690906e-09	-3.489034e+01	-3.725565e+02
2.300000e-07	-4.854442e-06	-5.647112e-09	-3.458823e+01	-3.708908e+02
2.400000e-07	-4.810096e-06	-5.614514e-09	-3.427226e+01	-3.691255e+02
2.500000e-07	-4.763967e-06	-5.590465e-09	-3.394359e+01	-3.672648e+02
2.600000e-07	-4.715944e-06	-5.569544e-09	-3.360142e+01	-3.653140e+02
2.700000e-07	-4.665913e-06	-5.543235e-09	-3.324495e+01	-3.632797e+02
2.800000e-07	-4.613806e-06	-5.520113e-09	-3.287368e+01	-3.611681e+02
2.900000e-07	-4.559805e-06	-5.487337e-09	-3.248892e+01	-3.589846e+02
3.000000e-07	-4.504212e-06	-5.417569e-09	-3.209282e+01	-3.567332e+02
3.100000e-07	-4.446962e-06	-5.393580e-09	-3.168491e+01	-3.544157e+02
3.200000e-07	-4.387911e-06	-5.377733e-09	-3.126416e+01	-3.520322e+02
3.300000e-07	-4.327251e-06	-5.330921e-09	-3.083196e+01	-3.495806e+02
3.400000e-07	-4.265133e-06	-5.295982e-09	-3.038936e+01	-3.470578e+02
3.500000e-07	-4.201665e-06	-5.243166e-09	-2.993715e+01	-3.444592e+02
3.600000e-07	-4.136790e-06	-5.206483e-09	-2.947491e+01	-3.417804e+02
3.700000e-07	-4.070239e-06	-5.183806e-09	-2.900073e+01	-3.390169e+02
3.800000e-07	-4.002048e-06	-5.140193e-09	-2.851487e+01	-3.361649e+02
3.900000e-07	-3.932453e-06	-5.085203e-09	-2.801900e+01	-3.332218e+02
4.000000e-07	-3.861581e-06	-5.023605e-09	-2.751403e+01	-3.301860e+02
4.100000e-07	-3.789502e-06	-4.976758e-09	-2.700046e+01	-3.270570e+02
4.200000e-07	-3.716149e-06	-4.929413e-09	-2.647781e+01	-3.238351e+02
4.300000e-07	-3.641188e-06	-4.893181e-09	-2.594371e+01	-3.205212e+02
4.400000e-07	-3.564619e-06	-4.855276e-09	-2.539815e+01	-3.171162e+02
4.500000e-07	-3.486640e-06	-4.794856e-09	-2.484255e+01	-3.136208e+02
4.600000e-07	-3.407267e-06	-4.727132e-09	-2.427701e+01	-3.100351e+02
4.700000e-07	-3.326561e-06	-4.667088e-09	-2.370198e+01	-3.063587e+02
4.800000e-07	-3.244609e-06	-4.622169e-09	-2.311806e+01	-3.025899e+02
4.900000e-07	-3.161528e-06	-4.565490e-09	-2.252610e+01	-2.987268e+02
5.000000e-07	-3.077434e-06	-4.495216e-09	-2.192693e+01	-2.947667e+02
5.100000e-07	-2.992448e-06	-4.425959e-09	-2.132139e+01	-2.907064e+02
5.200000e-07	-2.906523e-06	-4.361787e-09	-2.070917e+01	-2.865430e+02
5.300000e-07	-2.819618e-06	-4.298899e-09	-2.008997e+01	-2.822735e+02
5.400000e-07	-2.731857e-06	-4.237017e-09	-1.946467e+01	-2.778952e+02
5.500000e-07	-2.643149e-06	-4.170107e-09	-1.883262e+01	-2.734062e+02
5.600000e-07	-2.553323e-06	-4.093217e-09	-1.819260e+01	-2.688048e+02
5.700000e-07	-2.462382e-06	-4.018459e-09	-1.754464e+01	-2.640898e+02
5.800000e-07	-2.370506e-06	-3.954014e-09	-1.689002e+01	-2.592606e+02
5.900000e-07	-2.277898e-06	-3.884665e-09	-1.623018e+01	-2.543164e+02
6.000000e-07	-2.184527e-06	-3.800753e-09	-1.556490e+01	-2.492569e+02
6.100000e-07	-2.090330e-06	-3.714519e-09	-1.489374e+01	-2.440814e+02
6.200000e-07	-1.995442e-06	-3.632239e-09	-1.421766e+01	-2.387893e+02
6.300000e-07	-1.899892e-06	-3.553161e-09	-1.353686e+01	-2.333798e+02
6.400000e-07	-1.803632e-06	-3.475616e-09	-1.285100e+01	-2.278518e+02
6.500000e-07	-1.706606e-06	-3.395777e-09	-1.215969e+01	-2.222042e+02
6.600000e-07	-1.608833e-06	-3.304652e-09	-1.146305e+01	-2.164357e+02
6.700000e-07	-1.510416e-06	-3.203742e-09	-1.076182e+01	-2.105449e+02
6.800000e-07	-1.411416e-06	-3.106157e-09	-1.005643e+01	-2.045302e+02
6.900000e-07	-1.311909e-06	-3.017612e-09	-9.347441e+00	-1.983898e+02
7.000000e-07	-1.212019e-06	-2.928840e-09	-8.635719e+00	-1.921216e+02
7.100000e-07	-1.111795e-06	-2.831244e-09	-7.921617e+00	-1.857233e+02
7.200000e-07	-1.011236e-06	-2.727256e-09	-7.205124e+00	-1.791920e+02
7.300000e-07	-9.103749e-07	-2.621682e-09	-6.486483e+00	-1.725241e+02
7.400000e-07	-8.092269e-07	-2.518906e-09	-5.765797e+00	-1.657157e+02
7.500000e-07	-7.077991e-07	-2.417722e-09	-5.043117e+00	-1.587622e+02
7.600000e-07	-6.060639e-07	-2.311942e-09	-4.318247e+00	-1.516584e+02
7.700000e-07	-5.041317e-07	-2.198761e-09	-3.591973e+00	-1.443988e+02
7.800000e-07	-4.020750e-07	-2.081181e-09	-2.864812e+00	-1.369775e+02
7.900000e-07	-2.998785e-07	-1.963905e-09	-2.136655e+00	-1.293885e+02
8.000000e-07	-1.975633e-07	-1.848581e-09	-1.407652e+00	-1.216255e+02
8.100000e-07	-9.511231e-08	-1.730833e-09	-6.776817e-01	-1.136824e+02
8.200000e-07	7.420616e-09	-1.606111e-09	5.287239e-02	-1.055527e+02
8.300000e-07	1.099737e-07	-1.475616e-09	7.835700e-01	-9.722982e+01
8.400000e-07	2.125072e-07	-1.344550e-09	1.514128e+00	-8.870677e+01
8.500000e-07	3.149946e-07	-1.216580e-09	2.244358e+00	-7.997610e+01
8.600000e-07	4.173779e-07	-1.084043e-09	2.973846e+00	-7.102979e+01
8.700000e-07	5.195755e-07	-9.411365e-10	3.702011e+00	-6.185937e+01
8.800000e-07	6.215877e-07	-7.916342e-10	4.428855e+00	-5.245610e+01
8.900000e-07	7.233944e-07	-6.407863e-10	5.154235e+00	-4.281149e+01
9.000000e-07	8.249421e-07	-4.883110e-10	5.877769e+00	-3.291794e+01
9.100000e-07	9.262065e-07	-3.318094e-10	6.599285e+00	-2.276967e+01
9.200000e-07	1.027132e-06	-1.725381e-10	7.318385e+00	-1.236377e+01
9.300000e-07	1.127730e-06	-8.754040e-12	8.035151e+00	-1.701374e+00
9.400000e-07	1.228004e-06	1.587659e-10	8.749614e+00	9.211250e+00
9.500000e-07	1.327880e-06	3.284731e-10	9.461233e+00	2.036171e+01
9.600000e-07	1.427332e-06	4.989404e-10	1.016984e+01	3.173082e+01
9.700000e-07	1.526304e-06	6.723784e-10	1.087502e+01	4.329225e+01
9.800000e-07	1.624582e-06	8.523338e-10	1.157526e+01	5.501267e+01
9.900000e-07	1.721978e-06	1.036469e-09	1.226921e+01	6.685239e+01
1.000000e-06	1.818508e-06	1.219046e-09	1.295699e+01	7.876641e+01
1.010000e-06	1.914349e-06	1.399099e-09	1.363986e+01	9.070589e+01
1.020000e-06	2.009576e-06	1.579737e-09	1.431837e+01	1.026199e+02
1.030000e-06	2.104067e-06	1.759905e-09	1.499162e+01	1.144574e+02
1.040000e-06	2.197827e-06	1.937568e-09	1.565966e+01	1.261688e+02
1.050000e-06	2.290894e-06	2.112734e-09	1.632277e+01	1.377082e+02
1.060000e-06	2.383248e-06	2.285471e-09	1.698080e+01	1.490340e+02
1.070000e-06	2.474905e-06	2.453036e-09	1.763386e+01	1.601107e+02
1.080000e-06	2.565735e-06	2.616832e-09	1.828103e+01	1.709085e+02
1.090000e-06	2.655385e-06	2.778607e-09	1.891980e+01	1.814041e+02
1.100000e-06	2.743797e-06	2.935441e-09	1.954974e+01	1.915798e+02
1.110000e-06	2.831320e-06	3.084748e-09	2.017335e+01	2.014234e+02
1.120000e-06	2.917957e-06	3.227551e-09	2.079065e+01	2.109266e+02
1.130000e-06	3.003606e-06	3.366347e-09	2.140090e+01	2.200850e+02
1.140000e-06	3.088347e-06	3.500673e-09	2.200468e+01	2.288966e+02
1.150000e-06	3.172251e-06	3.629091e-09	2.260250e+01	2.373617e+02
1.160000e-06	3.255107e-06	3.750791e-09	2.319286e+01	2.454824e+02
1.170000e-06	3.336596e-06	3.866526e-09	2.377347e+01	2.532625e+02
1.180000e-06	3.416826e-06	3.977926e-09	2.434512e+01	2.607075e+02
1.190000e-06	3.495896e-06	4.084648e-09	2.490849e+01	2.678249e+02
1.200000e-06	3.573748e-06	4.188184e-09	2.546320e+01	2.746246e+02
1.210000e-06	3.650412e-06	4.288908e-09	2.600943e+01	2.811188e+02
1.220000e-06	3.725716e-06	4.384092e-09	2.654598e+01	2.873221e+02
1.230000e-06	3.799347e-06	4.471929e-09	2.707061e+01	2.932513e+02
1.240000e-06	3.871385e-06	4.553995e-09	2.758388e+01	2.989248e+02
1.250000e-06	3.942084e-06	4.635742e-09	2.808762e+01	3.043617e+02
1.260000e-06	4.011426e-06	4.718196e-09	2.858168e+01	3.095809e+02
1.270000e-06	4.079475e-06	4.797020e-09	2.906653e+01	3.146001e+02
1.280000e-06	4.146031e-06	4.871056e-09	2.954075e+01	3.194345e+02
1.290000e-06	4.210848e-06	4.942379e-09	3.000258e+01	3.240961e+02
1.300000e-06	4.274118e-06	5.011111e-09	3.045338e+01	3.285934e+02
1.310000e-06	4.335943e-06	5.076586e-09	3.089389e+01	3.329304e+02
1.320000e-06	4.396423e-06	5.139482e-09	3.132482e+01	3.371079e+02
1.330000e-06	4.455518e-06	5.199626e-09	3.174587e+01	3.411231e+02
1.340000e-06	4.512838e-06	5.255395e-09	3.215427e+01	3.449713e+02
1.350000e-06	4.568392e-06	5.307768e-09	3.255010e+01	3.486465e+02
1.360000e-06	4.622356e-06	5.358702e-09	3.293460e+01	3.521430e+02
1.370000e-06	4.674463e-06	5.407455e-09	3.330587e+01	3.554566e+02
1.380000e-06	4.724517e-06	5.451465e-09	3.366250e+01	3.585849e+02
1.390000e-06	4.772702e-06	5.492261e-09	3.400583e+01	3.615289e+02
1.400000e-06	4.819217e-06	5.533718e-09	3.433725e+01	3.642925e+02
1.410000e-06	4.864163e-06	5.574282e-09	3.465749e+01	3.668823e+02
1.420000e-06	4.907467e-06	5.611319e-09	3.496604e+01	3.693073e+02
1.430000e-06	4.948854e-06	5.643399e-09	3.526092e+01	3.715783e+02
1.440000e-06	4.988444e-06	5.671498e-09	3.554301e+01	3.737060e+02
1.450000e-06	5.026425e-06	5.698316e-09	3.581362e+01	3.757010e+02
1.460000e-06	5.062842e-06	5.725052e-09	3.607309e+01	3.775723e+02
1.470000e-06	5.097491e-06	5.752573e-09	3.631997e+01	3.793269e+02
1.480000e-06	5.130174e-06	5.778223e-09	3.655284e+01	3.809694e+02
1.490000e-06	5.161090e-06	5.800286e-09	3.677312e+01	3.825023e+02
1.500000e-06	5.190346e-06	5.819009e-09	3.698157e+01	3.839260e+02
1.510000e-06	5.217872e-06	5.836164e-09	3.717769e+01	3.852397e+02
1.520000e-06	5.243346e-06	5.853683e-09	3.735920e+01	3.864420e+02
1.530000e-06	5.266781e-06	5.870642e-09	3.752617e+01	3.875318e+02
1.540000e-06	5.288456e-06	5.885561e-09	3.768061e+01	3.885090e+02
1.550000e-06	5.308356e-06	5.898657e-09	3.782240e+01	3.893747e+02
1.560000e-06	5.326317e-06	5.911148e-09	3.795037e+01	3.901316e+02
1.570000e-06	5.342232e-06	5.922182e-09	3.806377e+01	3.907840e+02
1.580000e-06	5.356171e-06	5.931228e-09	3.816308e+01	3.913373e+02
1.590000e-06	5.368072e-06	5.939831e-09	3.824788e+01	3.917972e+02
1.600000e-06	5.377799e-06	5.946917e-09	3.831719e+01	3.921693e+02
1.610000e-06	5.385515e-06	5.952609e-09	3.837216e+01	3.924584e+02
1.620000e-06	5.391407e-06	5.958193e-09	3.841414e+01	3.926679e+02
1.630000e-06	5.395524e-06	5.962292e-09	3.844348e+01	3.927993e+02
1.640000e-06	5.397692e-06	5.963734e-09	3.845892e+01	3.928528e+02
1.650000e-06	5.397843e-06	5.963135e-09	3.846000e+01	3.928267e+02
1.660000e-06	5.396232e-06	5.963450e-09	3.844852e+01	3.927187e+02
1.670000e-06	5.393021e-06	5.962154e-09	3.842564e+01	3.925262e+02
1.680000e-06	5.388083e-06	5.957805e-09	3.839046e+01	3.922470e+02
1.690000e-06	5.381193e-06	5.953337e-09	3.834137e+01	3.918805e+02
1.700000e-06	5.372563e-06	5.948550e-09	3.827988e+01	3.914278e+02
1.710000e-06	5.362343e-06	5.942869e-09	3.820706e+01	3.908923e+02
1.720000e-06	5.350317e-06	5.933423e-09	3.812137e+01	3.902796e+02
1.730000e-06	5.336273e-06	5.912824e-09	3.802131e+01	3.895968e+02
1.740000e-06	5.320186e-06	5.907484e-09	3.790668e+01	3.888524e+02
1.750000e-06	5.301802e-06	5.885415e-09	3.777570e+01	3.880552e+02
1.760000e-06	5.280737e-06	5.875969e-09	3.762561e+01	3.872128e+02
1.770000e-06	5.257401e-06	5.885134e-09	3.745934e+01	3.863316e+02
1.780000e-06	5.232824e-06	5.850643e-09	3.728423e+01	3.854151e+02
1.790000e-06	5.207497e-06	5.858739e-09	3.710377e+01	3.844639e+02
1.800000e-06	5.180678e-06	5.823003e-09	3.691268e+01	3.834752e+02
1.810000e-06	5.151657e-06	5.762181e-09	3.670591e+01	3.824433e+02
1.820000e-06	5.120857e-06	5.797572e-09	3.648645e+01	3.813599e+02
1.830000e-06	5.088406e-06	5.758955e-09	3.625524e+01	3.802150e+02
1.840000e-06	5.054076e-06	5.747669e-09	3.601063e+01	3.789983e+02
1.850000e-06	5.018200e-06	5.828547e-09	3.575502e+01	3.776996e+02
1.860000e-06	4.980533e-06	5.769338e-09	3.548664e+01	3.763103e+02
1.870000e-06	4.940941e-06	5.711752e-09	3.520454e+01	3.748241e+02
1.880000e-06	4.899651e-06	5.707000e-09	3.491035e+01	3.732376e+02
1.890000e-06	4.856534e-06	5.660504e-09	3.460314e+01	3.715500e+02
1.900000e-06	4.811746e-06	5.658260e-09	3.428402e+01	3.697636e+02
1.910000e-06	4.765125e-06	5.621167e-09	3.395184e+01	3.678828e+02
1.920000e-06	4.716507e-06	5.598384e-09	3.360543e+01	3.659133e+02
1.930000e-06	4.666267e-06	5.571383e-09	3.324747e+01	3.638617e+02
1.940000e-06	4.614245e-06	5.496040e-09	3.287681e+01	3.617340e+02
1.950000e-06	4.560131e-06	5.522851e-09	3.249125e+01	3.595354e+02
1.960000e-06	4.504149e-06	5.485660e-09	3.209237e+01	3.572694e+02
1.970000e-06	4.446543e-06	5.414984e-09	3.168192e+01	3.549376e+02
1.980000e-06	4.387520e-06	5.387416e-09	3.126138e+01	3.525394e+02
1.990000e-06	4.326931e-06	5.338021e-09	3.082968e+01	3.500726e+02
2.000000e-06	4.264585e-06	5.342626e-09	3.038546e+01	3.475337e+02
2.010000e-06	4.200649e-06	5.273820e-09	2.992991e+01	3.449180e+02
2.020000e-06	4.135284e-06	5.218143e-09	2.946418e+01	3.422211e+02
2.030000e-06	4.068516e-06	5.205423e-09	2.898845e+01	3.394386e+02
2.040000e-06	4.000296e-06	5.139279e-09	2.850238e+01	3.365671e+02
2.050000e-06	3.930597e-06	5.105760e-09	2.800577e+01	3.336039e+02
2.060000e-06	3.859387e-06	5.060830e-09	2.749839e+01	3.305479e+02
2.070000e-06	3.786817e-06	5.030027e-09	2.698133e+01	3.273986e+02
2.080000e-06	3.712962e-06	4.959064e-09	2.645511e+01	3.241567e+02
2.090000e-06	3.637696e-06	4.874351e-09	2.591883e+01	3.208229e+02
2.100000e-06	3.560934e-06	4.846498e-09	2.537190e+01	3.173982e+02
2.110000e-06	3.482654e-06	4.803773e-09	2.481415e+01	3.138832e+02
2.120000e-06	3.403065e-06	4.760641e-09	2.424707e+01	3.102779e+02
2.130000e-06	3.322347e-06	4.690120e-09	2.367195e+01	3.065815e+02
2.140000e-06	3.240497e-06	4.635246e-09	2.308876e+01	3.027925e+02
2.150000e-06	3.157589e-06	4.576553e-09	2.249804e+01	2.989085e+02
2.160000e-06	3.073656e-06	4.508534e-09	2.190001e+01	2.949269e+02
2.170000e-06	2.988572e-06	4.463416e-09	2.129378e+01	2.908445e+02
2.180000e-06	2.902167e-06	4.396659e-09	2.067814e+01	2.866583e+02
2.190000e-06	2.814530e-06	4.318894e-09	2.005372e+01	2.823654e+02
2.200000e-06	2.725960e-06	4.240045e-09	1.942265e+01	2.779633e+02
2.210000e-06	2.636512e-06	4.185485e-09	1.878533e+01	2.734500e+02
2.220000e-06	2.546135e-06	4.128366e-09	1.814139e+01	2.688241e+02
2.230000e-06	2.454912e-06	4.050235e-09	1.749142e+01	2.640844e+02
2.240000e-06	2.362923e-06	3.972842e-09	1.683599e+01	2.592303e+02
2.250000e-06	2.270130e-06	3.895864e-09	1.617483e+01	2.542612e+02
2.260000e-06	2.176455e-06	3.817528e-09	1.550739e+01	2.491766e+02
2.270000e-06	2.081801e-06	3.738247e-09	1.483298e+01	2.439759e+02
2.280000e-06	1.986179e-06	3.662262e-09	1.415166e+01	2.386584e+02
2.290000e-06	1.889851e-06	3.574930e-09	1.346532e+01	2.332233e+02
2.300000e-06	1.793019e-06	3.477996e-09	1.277538e+01	2.276696e+02
2.310000e-06	1.695672e-06	3.387338e-09	1.208178e+01	2.219959e+02
2.320000e-06	1.597749e-06	3.311282e-09	1.138407e+01	2.162011e+02
2.330000e-06	1.499310e-06	3.234311e-09	1.068269e+01	2.102836e+02
2.340000e-06	1.400453e-06	3.139953e-09	9.978325e+00	2.042418e+02
2.350000e-06	1.301179e-06	3.037264e-09	9.270987e+00	1.980739e+02
2.360000e-06	1.201547e-06	2.935823e-09	8.561105e+00	1.917778e+02
2.370000e-06	1.101659e-06	2.839156e-09	7.849393e+00	1.853510e+02
2.380000e-06	1.001406e-06	2.744820e-09	7.135084e+00	1.787904e+02
2.390000e-06	9.006978e-07	2.646800e-09	6.417533e+00	1.720925e+02
2.400000e-06	7.995645e-07	2.539404e-09	5.696951e+00	1.652532e+02
2.410000e-06	6.980981e-07	2.428102e-09	4.973996e+00	1.582676e+02
2.420000e-06	5.964683e-07	2.318716e-09	4.249877e+00	1.511307e+02
2.430000e-06	4.945932e-07	2.213573e-09	3.524010e+00	1.438366e+02
2.440000e-06	3.924302e-07	2.104652e-09	2.796092e+00	1.363796e+02
2.450000e-06	2.901045e-07	1.983660e-09	2.067014e+00	1.287536e+02
2.460000e-06	1.876241e-07	1.856167e-09	1.336835e+00	1.209522e+02
2.470000e-06	8.500909e-08	1.729930e-09	6.056955e-01	1.129694e+02
2.480000e-06	-1.761268e-08	1.608221e-09	-1.254915e-01	1.047986e+02
2.490000e-06	-1.202154e-07	1.485222e-09	-8.565430e-01	9.643315e+01
2.500000e-06	-2.227821e-07	1.355162e-09	-1.587338e+00	8.786598e+01
2.510000e-06	-3.252781e-07	1.219413e-09	-2.317628e+00	7.908952e+01
2.520000e-06	-4.277248e-07	1.083189e-09	-3.047568e+00	7.009564e+01
2.530000e-06	-5.299687e-07	9.451038e-10	-3.776063e+00	6.087577e+01
2.540000e-06	-6.320117e-07	8.045233e-10	-4.503126e+00	5.142121e+01
2.550000e-06	-7.338154e-07	6.597755e-10	-5.228485e+00	4.172357e+01
2.560000e-06	-8.351171e-07	5.047604e-10	-5.950266e+00	3.177557e+01
2.570000e-06	-9.359848e-07	3.427839e-10	-6.668955e+00	2.157194e+01
2.580000e-06	-1.036434e-06	1.821463e-10	-7.384662e+00	1.111054e+01
2.590000e-06	-1.136432e-06	2.491470e-11	-8.097158e+00	3.935247e-01
2.600000e-06	-1.236089e-06	-1.364654e-10	-8.807216e+00	-1.057161e+01
2.610000e-06	-1.335401e-06	-3.078455e-10	-9.514821e+00	-2.177106e+01
2.620000e-06	-1.434292e-06	-4.827388e-10	-1.021943e+01	-3.318411e+01
2.630000e-06	-1.532657e-06	-6.573084e-10	-1.092029e+01	-4.478292e+01
2.640000e-06	-1.630452e-06	-8.343981e-10	-1.161708e+01	-5.653273e+01
2.650000e-06	-1.727678e-06	-1.015769e-09	-1.230983e+01	-6.839260e+01
2.660000e-06	-1.824318e-06	-1.200406e-09	-1.299839e+01	-8.031656e+01
2.670000e-06	-1.920411e-06	-1.386410e-09	-1.368306e+01	-9.225518e+01
2.680000e-06	-2.015985e-06	-1.573077e-09	-1.436403e+01	-1.041574e+02
2.690000e-06	-2.110939e-06	-1.754770e-09	-1.504058e+01	-1.159722e+02
2.700000e-06	-2.205000e-06	-1.930107e-09	-1.571077e+01	-1.276508e+02
2.710000e-06	-2.297928e-06	-2.102356e-09	-1.637289e+01	-1.391479e+02
2.720000e-06	-2.389847e-06	-2.274826e-09	-1.702782e+01	-1.504235e+02
2.730000e-06	-2.481001e-06	-2.443375e-09	-1.767730e+01	-1.614429e+02
2.740000e-06	-2.571286e-06	-2.603627e-09	-1.832059e+01	-1.721780e+02
2.750000e-06	-2.660616e-06	-2.759967e-09	-1.895707e+01	-1.826066e+02
2.760000e-06	-2.749084e-06	-2.914365e-09	-1.958741e+01	-1.927123e+02
2.770000e-06	-2.836763e-06	-3.065927e-09	-2.021213e+01	-2.024838e+02
2.780000e-06	-2.923612e-06	-3.212895e-09	-2.083094e+01	-2.119137e+02
2.790000e-06	-3.009213e-06	-3.353031e-09	-2.144085e+01	-2.209981e+02
2.800000e-06	-3.093487e-06	-3.485739e-09	-2.204131e+01	-2.297356e+02
2.810000e-06	-3.176754e-06	-3.612436e-09	-2.263459e+01	-2.381270e+02
2.820000e-06	-3.259000e-06	-3.735408e-09	-2.322059e+01	-2.461746e+02
2.830000e-06	-3.340171e-06	-3.855338e-09	-2.379895e+01	-2.538827e+02
2.840000e-06	-3.420301e-06	-3.971530e-09	-2.436988e+01	-2.612570e+02
2.850000e-06	-3.499280e-06	-4.081692e-09	-2.493261e+01	-2.683057e+02
2.860000e-06	-3.576753e-06	-4.184481e-09	-2.548461e+01	-2.750391e+02
2.870000e-06	-3.652689e-06	-4.282052e-09	-2.602566e+01	-2.814699e+02
2.880000e-06	-3.727216e-06	-4.376949e-09	-2.655666e+01	-2.876133e+02
2.890000e-06	-3.800336e-06	-4.467952e-09	-2.707765e+01	-2.934864e+02
2.900000e-06	-3.872221e-06	-4.553369e-09	-2.758984e+01	-2.991079e+02
2.910000e-06	-3.942755e-06	-4.633434e-09	-2.809240e+01	-3.044969e+02
2.920000e-06	-4.011632e-06	-4.711500e-09	-2.858315e+01	-3.096721e+02
2.930000e-06	-4.078961e-06	-4.788908e-09	-2.906288e+01	-3.146507e+02
2.940000e-06	-4.144932e-06	-4.863064e-09	-2.953293e+01	-3.194475e+02
