# Temperatura_=_82.92
# Concentracion g/m^3_=_15000.0
# C_Vs_to_Am_M_A/Vsm_=_65563218390.804596
# pendiente_HvsI_1/m_=_3716.3
# ordenada_HvsI_A/m_=_1297.0
# frecuencia_Hz_=_301584.7194217167

Tiempo_(s)	Campo_(V.s)	Magnetizacion_(V.s)	Campo_(kA/m)	Magnetizacion_(A/m)
0.000000e+00	-5.381461e-06	-8.075149e-09	-3.833299e+01	-5.278123e+02
1.000000e-08	-5.378474e-06	-8.071667e-09	-3.831171e+01	-5.275345e+02
2.000000e-08	-5.373665e-06	-8.064256e-09	-3.827745e+01	-5.271334e+02
3.000000e-08	-5.367303e-06	-8.055216e-09	-3.823214e+01	-5.266065e+02
4.000000e-08	-5.359420e-06	-8.045528e-09	-3.817598e+01	-5.259530e+02
5.000000e-08	-5.349683e-06	-8.032805e-09	-3.810663e+01	-5.251749e+02
6.000000e-08	-5.337856e-06	-8.018654e-09	-3.802238e+01	-5.242767e+02
7.000000e-08	-5.324127e-06	-8.003137e-09	-3.792459e+01	-5.232663e+02
8.000000e-08	-5.308273e-06	-7.992198e-09	-3.781166e+01	-5.221534e+02
9.000000e-08	-5.290131e-06	-8.009496e-09	-3.768243e+01	-5.209493e+02
1.000000e-07	-5.269966e-06	-7.985358e-09	-3.753879e+01	-5.196656e+02
1.100000e-07	-5.247945e-06	-7.930010e-09	-3.738193e+01	-5.183125e+02
1.200000e-07	-5.224218e-06	-7.899341e-09	-3.721292e+01	-5.168980e+02
1.300000e-07	-5.198994e-06	-7.834683e-09	-3.703324e+01	-5.154263e+02
1.400000e-07	-5.172183e-06	-7.819014e-09	-3.684226e+01	-5.138973e+02
1.500000e-07	-5.143677e-06	-7.865909e-09	-3.663922e+01	-5.123065e+02
1.600000e-07	-5.113758e-06	-7.779841e-09	-3.642609e+01	-5.106450e+02
1.700000e-07	-5.082273e-06	-7.780539e-09	-3.620182e+01	-5.089004e+02
1.800000e-07	-5.048593e-06	-7.796189e-09	-3.596191e+01	-5.070581e+02
1.900000e-07	-5.013054e-06	-7.652270e-09	-3.570877e+01	-5.051028e+02
2.000000e-07	-4.976150e-06	-7.640031e-09	-3.544589e+01	-5.030202e+02
2.100000e-07	-4.937479e-06	-7.640809e-09	-3.517043e+01	-5.007982e+02
2.200000e-07	-4.896987e-06	-7.589937e-09	-3.488200e+01	-4.984285e+02
2.300000e-07	-4.854551e-06	-7.579963e-09	-3.457972e+01	-4.959071e+02
2.400000e-07	-4.810152e-06	-7.502333e-09	-3.426346e+01	-4.932347e+02
2.500000e-07	-4.764006e-06	-7.440736e-09	-3.393476e+01	-4.904162e+02
2.600000e-07	-4.715970e-06	-7.420623e-09	-3.359259e+01	-4.874601e+02
2.700000e-07	-4.665940e-06	-7.366371e-09	-3.323622e+01	-4.843768e+02
2.800000e-07	-4.613792e-06	-7.353192e-09	-3.286476e+01	-4.811779e+02
2.900000e-07	-4.559693e-06	-7.277134e-09	-3.247940e+01	-4.778741e+02
3.000000e-07	-4.504072e-06	-7.189440e-09	-3.208321e+01	-4.744740e+02
3.100000e-07	-4.446808e-06	-7.176992e-09	-3.167530e+01	-4.709834e+02
3.200000e-07	-4.387679e-06	-7.140224e-09	-3.125412e+01	-4.674043e+02
3.300000e-07	-4.326962e-06	-7.069748e-09	-3.082162e+01	-4.637353e+02
3.400000e-07	-4.264816e-06	-6.988880e-09	-3.037895e+01	-4.599717e+02
3.500000e-07	-4.201372e-06	-6.929507e-09	-2.992703e+01	-4.561062e+02
3.600000e-07	-4.136475e-06	-6.872548e-09	-2.946475e+01	-4.521305e+02
3.700000e-07	-4.069837e-06	-6.828715e-09	-2.899008e+01	-4.480357e+02
3.800000e-07	-4.001626e-06	-6.779925e-09	-2.850420e+01	-4.438143e+02
3.900000e-07	-3.932046e-06	-6.684703e-09	-2.800858e+01	-4.394603e+02
4.000000e-07	-3.861194e-06	-6.594320e-09	-2.750389e+01	-4.349705e+02
4.100000e-07	-3.789066e-06	-6.522619e-09	-2.699011e+01	-4.303440e+02
4.200000e-07	-3.715521e-06	-6.470090e-09	-2.646624e+01	-4.255828e+02
4.300000e-07	-3.640446e-06	-6.418190e-09	-2.593147e+01	-4.206905e+02
4.400000e-07	-3.563910e-06	-6.342561e-09	-2.538629e+01	-4.156719e+02
4.500000e-07	-3.485947e-06	-6.252313e-09	-2.483094e+01	-4.105320e+02
4.600000e-07	-3.406510e-06	-6.156607e-09	-2.426510e+01	-4.052752e+02
4.700000e-07	-3.325760e-06	-6.076951e-09	-2.368991e+01	-3.999042e+02
4.800000e-07	-3.243823e-06	-6.010069e-09	-2.310626e+01	-3.944199e+02
4.900000e-07	-3.160732e-06	-5.926382e-09	-2.251439e+01	-3.888208e+02
5.000000e-07	-3.076616e-06	-5.826092e-09	-2.191521e+01	-3.831032e+02
5.100000e-07	-2.991598e-06	-5.726616e-09	-2.130962e+01	-3.772619e+02
5.200000e-07	-2.905660e-06	-5.640341e-09	-2.069747e+01	-3.712906e+02
5.300000e-07	-2.818780e-06	-5.554419e-09	-2.007861e+01	-3.651825e+02
5.400000e-07	-2.731095e-06	-5.460991e-09	-1.945402e+01	-3.589314e+02
5.500000e-07	-2.642524e-06	-5.358328e-09	-1.882311e+01	-3.525320e+02
5.600000e-07	-2.552683e-06	-5.245772e-09	-1.818316e+01	-3.459809e+02
5.700000e-07	-2.461617e-06	-5.144868e-09	-1.753448e+01	-3.392763e+02
5.800000e-07	-2.369673e-06	-5.056388e-09	-1.687955e+01	-3.324182e+02
5.900000e-07	-2.276971e-06	-4.958692e-09	-1.621922e+01	-3.254080e+02
6.000000e-07	-2.183555e-06	-4.838750e-09	-1.555380e+01	-3.182482e+02
6.100000e-07	-2.089432e-06	-4.715691e-09	-1.488335e+01	-3.109418e+02
6.200000e-07	-1.994561e-06	-4.601075e-09	-1.420757e+01	-3.034911e+02
6.300000e-07	-1.899010e-06	-4.489337e-09	-1.352695e+01	-2.958981e+02
6.400000e-07	-1.802840e-06	-4.379434e-09	-1.284191e+01	-2.881629e+02
6.500000e-07	-1.705896e-06	-4.263790e-09	-1.215136e+01	-2.802844e+02
6.600000e-07	-1.608098e-06	-4.135334e-09	-1.145473e+01	-2.722596e+02
6.700000e-07	-1.509590e-06	-3.995994e-09	-1.075304e+01	-2.640841e+02
6.800000e-07	-1.410516e-06	-3.864786e-09	-1.004732e+01	-2.557519e+02
6.900000e-07	-1.310979e-06	-3.743607e-09	-9.338310e+00	-2.472564e+02
7.000000e-07	-1.211080e-06	-3.618723e-09	-8.626712e+00	-2.385905e+02
7.100000e-07	-1.110838e-06	-3.482800e-09	-7.912670e+00	-2.297471e+02
7.200000e-07	-1.010254e-06	-3.340293e-09	-7.196198e+00	-2.207197e+02
7.300000e-07	-9.094227e-07	-3.198404e-09	-6.477960e+00	-2.115024e+02
7.400000e-07	-8.083701e-07	-3.056980e-09	-5.758146e+00	-2.020904e+02
7.500000e-07	-7.069668e-07	-2.914398e-09	-5.035835e+00	-1.924797e+02
7.600000e-07	-6.052174e-07	-2.763194e-09	-4.311058e+00	-1.826672e+02
7.700000e-07	-5.032228e-07	-2.603418e-09	-3.584535e+00	-1.726502e+02
7.800000e-07	-4.010400e-07	-2.442070e-09	-2.856670e+00	-1.624266e+02
7.900000e-07	-2.987178e-07	-2.282968e-09	-2.127814e+00	-1.519938e+02
8.000000e-07	-1.962975e-07	-2.122669e-09	-1.398258e+00	-1.413488e+02
8.100000e-07	-9.380799e-08	-1.956626e-09	-6.682089e-01	-1.304875e+02
8.200000e-07	8.696606e-09	-1.784470e-09	6.194728e-02	-1.194046e+02
8.300000e-07	1.112118e-07	-1.607641e-09	7.921791e-01	-1.080932e+02
8.400000e-07	2.137592e-07	-1.429909e-09	1.522640e+00	-9.654462e+01
8.500000e-07	3.162666e-07	-1.253275e-09	2.252816e+00	-8.474843e+01
8.600000e-07	4.186510e-07	-1.074323e-09	2.982116e+00	-7.269278e+01
8.700000e-07	5.208791e-07	-8.869772e-10	3.710303e+00	-6.036477e+01
8.800000e-07	6.229478e-07	-6.922588e-10	4.437354e+00	-4.775117e+01
8.900000e-07	7.248203e-07	-4.957256e-10	5.163008e+00	-3.483935e+01
9.000000e-07	8.264577e-07	-2.985121e-10	5.886987e+00	-2.161851e+01
9.100000e-07	9.277374e-07	-9.712069e-11	6.608418e+00	-8.081015e+00
9.200000e-07	1.028610e-06	1.116314e-10	7.326951e+00	5.776030e+00
9.300000e-07	1.129176e-06	3.278893e-10	8.043295e+00	1.994930e+01
9.400000e-07	1.229445e-06	5.498626e-10	8.757529e+00	3.442783e+01
9.500000e-07	1.329366e-06	7.729765e-10	9.469279e+00	4.919178e+01
9.600000e-07	1.428906e-06	9.968174e-10	1.017832e+01	6.421173e+01
9.700000e-07	1.527849e-06	1.226176e-09	1.088311e+01	7.944832e+01
9.800000e-07	1.626038e-06	1.462002e-09	1.158252e+01	9.485266e+01
9.900000e-07	1.723390e-06	1.702666e-09	1.227598e+01	1.103673e+02
1.000000e-06	1.819974e-06	1.941147e-09	1.296396e+01	1.259277e+02
1.010000e-06	1.915942e-06	2.176493e-09	1.364756e+01	1.414648e+02
1.020000e-06	2.011218e-06	2.411015e-09	1.432622e+01	1.569072e+02
1.030000e-06	2.105763e-06	2.642719e-09	1.499968e+01	1.721846e+02
1.040000e-06	2.199566e-06	2.872130e-09	1.566785e+01	1.872301e+02
1.050000e-06	2.292623e-06	3.096325e-09	1.633071e+01	2.019833e+02
1.060000e-06	2.384982e-06	3.313707e-09	1.698860e+01	2.163924e+02
1.070000e-06	2.476633e-06	3.522363e-09	1.764144e+01	2.304158e+02
1.080000e-06	2.567397e-06	3.724311e-09	1.828797e+01	2.440229e+02
1.090000e-06	2.657010e-06	3.923250e-09	1.892630e+01	2.571941e+02
1.100000e-06	2.745519e-06	4.118170e-09	1.955676e+01	2.699202e+02
1.110000e-06	2.833110e-06	4.305596e-09	2.018068e+01	2.822008e+02
1.120000e-06	2.919780e-06	4.484853e-09	2.079805e+01	2.940422e+02
1.130000e-06	3.005500e-06	4.657978e-09	2.140865e+01	3.054555e+02
1.140000e-06	3.090255e-06	4.826275e-09	2.201237e+01	3.164542e+02
1.150000e-06	3.174107e-06	4.990094e-09	2.260966e+01	3.270522e+02
1.160000e-06	3.256921e-06	5.146170e-09	2.319956e+01	3.372623e+02
1.170000e-06	3.338478e-06	5.294130e-09	2.378050e+01	3.470951e+02
1.180000e-06	3.418805e-06	5.437079e-09	2.435268e+01	3.565586e+02
1.190000e-06	3.497890e-06	5.575239e-09	2.491602e+01	3.656584e+02
1.200000e-06	3.575726e-06	5.709276e-09	2.547045e+01	3.743986e+02
1.210000e-06	3.652341e-06	5.839528e-09	2.601619e+01	3.827825e+02
1.220000e-06	3.727617e-06	5.960291e-09	2.655240e+01	3.908142e+02
1.230000e-06	3.801266e-06	6.071478e-09	2.707701e+01	3.984998e+02
1.240000e-06	3.873354e-06	6.177343e-09	2.759050e+01	4.058477e+02
1.250000e-06	3.944069e-06	6.283408e-09	2.809422e+01	4.128697e+02
1.260000e-06	4.013377e-06	6.387820e-09	2.858791e+01	4.195812e+02
1.270000e-06	4.081381e-06	6.485808e-09	2.907231e+01	4.259998e+02
1.280000e-06	4.147935e-06	6.578846e-09	2.954639e+01	4.321454e+02
1.290000e-06	4.212806e-06	6.668838e-09	3.000848e+01	4.380387e+02
1.300000e-06	4.276106e-06	6.755944e-09	3.045937e+01	4.436994e+02
1.310000e-06	4.337984e-06	6.839531e-09	3.090014e+01	4.491455e+02
1.320000e-06	4.398504e-06	6.919278e-09	3.133123e+01	4.543920e+02
1.330000e-06	4.457560e-06	6.995497e-09	3.175190e+01	4.594499e+02
1.340000e-06	4.514793e-06	7.068212e-09	3.215957e+01	4.643262e+02
1.350000e-06	4.570256e-06	7.137911e-09	3.255465e+01	4.690241e+02
1.360000e-06	4.624155e-06	7.206336e-09	3.293858e+01	4.735433e+02
1.370000e-06	4.676281e-06	7.272802e-09	3.330988e+01	4.778810e+02
1.380000e-06	4.726345e-06	7.336052e-09	3.366649e+01	4.820330e+02
1.390000e-06	4.774441e-06	7.397329e-09	3.400908e+01	4.859952e+02
1.400000e-06	4.820881e-06	7.456184e-09	3.433989e+01	4.897640e+02
1.410000e-06	4.865846e-06	7.510360e-09	3.466018e+01	4.933374e+02
1.420000e-06	4.909278e-06	7.562138e-09	3.496955e+01	4.967154e+02
1.430000e-06	4.950760e-06	7.610709e-09	3.526504e+01	4.999001e+02
1.440000e-06	4.990394e-06	7.654897e-09	3.554736e+01	5.028956e+02
1.450000e-06	5.028397e-06	7.695562e-09	3.581806e+01	5.057068e+02
1.460000e-06	5.064767e-06	7.734550e-09	3.607713e+01	5.083398e+02
1.470000e-06	5.099353e-06	7.773059e-09	3.632348e+01	5.108003e+02
1.480000e-06	5.131969e-06	7.807995e-09	3.655582e+01	5.130935e+02
1.490000e-06	5.162796e-06	7.839071e-09	3.677540e+01	5.152235e+02
1.500000e-06	5.191989e-06	7.867293e-09	3.698335e+01	5.171934e+02
1.510000e-06	5.219519e-06	7.893100e-09	3.717945e+01	5.190051e+02
1.520000e-06	5.244971e-06	7.916629e-09	3.736074e+01	5.206601e+02
1.530000e-06	5.268299e-06	7.937624e-09	3.752691e+01	5.221594e+02
1.540000e-06	5.289832e-06	7.956638e-09	3.768030e+01	5.235047e+02
1.550000e-06	5.309727e-06	7.974797e-09	3.782201e+01	5.246982e+02
1.560000e-06	5.327722e-06	7.992342e-09	3.795019e+01	5.257435e+02
1.570000e-06	5.343662e-06	8.007148e-09	3.806374e+01	5.266454e+02
1.580000e-06	5.357666e-06	8.019847e-09	3.816349e+01	5.274096e+02
1.590000e-06	5.369665e-06	8.031259e-09	3.824896e+01	5.280423e+02
1.600000e-06	5.379452e-06	8.041057e-09	3.831868e+01	5.285499e+02
1.610000e-06	5.387134e-06	8.048297e-09	3.837339e+01	5.289379e+02
1.620000e-06	5.393026e-06	8.052627e-09	3.841537e+01	5.292106e+02
1.630000e-06	5.397124e-06	8.055131e-09	3.844455e+01	5.293703e+02
1.640000e-06	5.399222e-06	8.056755e-09	3.845950e+01	5.294174e+02
1.650000e-06	5.399292e-06	8.058917e-09	3.846000e+01	5.293505e+02
1.660000e-06	5.397605e-06	8.057721e-09	3.844798e+01	5.291666e+02
1.670000e-06	5.394333e-06	8.051911e-09	3.842468e+01	5.288622e+02
1.680000e-06	5.389347e-06	8.046751e-09	3.838916e+01	5.284339e+02
1.690000e-06	5.382365e-06	8.040041e-09	3.833942e+01	5.278793e+02
1.700000e-06	5.373598e-06	8.031142e-09	3.827698e+01	5.271984e+02
1.710000e-06	5.363312e-06	8.022247e-09	3.820371e+01	5.263936e+02
1.720000e-06	5.351290e-06	8.011797e-09	3.811807e+01	5.254702e+02
1.730000e-06	5.337278e-06	8.002268e-09	3.801826e+01	5.244364e+02
1.740000e-06	5.321229e-06	7.935551e-09	3.790394e+01	5.233025e+02
1.750000e-06	5.302792e-06	7.911712e-09	3.777262e+01	5.220799e+02
1.760000e-06	5.281571e-06	7.926772e-09	3.762146e+01	5.207800e+02
1.770000e-06	5.258163e-06	7.904918e-09	3.745472e+01	5.194128e+02
1.780000e-06	5.233633e-06	7.949732e-09	3.727999e+01	5.179853e+02
1.790000e-06	5.208403e-06	7.885930e-09	3.710027e+01	5.165010e+02
1.800000e-06	5.181655e-06	7.784537e-09	3.690974e+01	5.149589e+02
1.810000e-06	5.152482e-06	7.861797e-09	3.670193e+01	5.133534e+02
1.820000e-06	5.121564e-06	7.779729e-09	3.648170e+01	5.116747e+02
1.830000e-06	5.089107e-06	7.723213e-09	3.625050e+01	5.099100e+02
1.840000e-06	5.054688e-06	7.827989e-09	3.600533e+01	5.080443e+02
1.850000e-06	5.018777e-06	7.737598e-09	3.574953e+01	5.060624e+02
1.860000e-06	4.981078e-06	7.708820e-09	3.548099e+01	5.039503e+02
1.870000e-06	4.941379e-06	7.688789e-09	3.519821e+01	5.016967e+02
1.880000e-06	4.900050e-06	7.551576e-09	3.490382e+01	4.992942e+02
1.890000e-06	4.856902e-06	7.591978e-09	3.459647e+01	4.967398e+02
1.900000e-06	4.812161e-06	7.544781e-09	3.427777e+01	4.940351e+02
1.910000e-06	4.765646e-06	7.498955e-09	3.394644e+01	4.911858e+02
1.920000e-06	4.717014e-06	7.511431e-09	3.360003e+01	4.882010e+02
1.930000e-06	4.666750e-06	7.333479e-09	3.324199e+01	4.850916e+02
1.940000e-06	4.614685e-06	7.353658e-09	3.287112e+01	4.818689e+02
1.950000e-06	4.560503e-06	7.347413e-09	3.248517e+01	4.785433e+02
1.960000e-06	4.504450e-06	7.225250e-09	3.208590e+01	4.751230e+02
1.970000e-06	4.446763e-06	7.205347e-09	3.167499e+01	4.716128e+02
1.980000e-06	4.387726e-06	7.113650e-09	3.125446e+01	4.680143e+02
1.990000e-06	4.327145e-06	7.097525e-09	3.082293e+01	4.643250e+02
2.000000e-06	4.264750e-06	7.050289e-09	3.037848e+01	4.605398e+02
2.010000e-06	4.200784e-06	6.972480e-09	2.992284e+01	4.566510e+02
2.020000e-06	4.135376e-06	6.937018e-09	2.945693e+01	4.526500e+02
2.030000e-06	4.068569e-06	6.816250e-09	2.898105e+01	4.485282e+02
2.040000e-06	4.000297e-06	6.771984e-09	2.849474e+01	4.442783e+02
2.050000e-06	3.930433e-06	6.718325e-09	2.799708e+01	4.398949e+02
2.060000e-06	3.859079e-06	6.666204e-09	2.748882e+01	4.353753e+02
2.070000e-06	3.786441e-06	6.603188e-09	2.697141e+01	4.307193e+02
2.080000e-06	3.712534e-06	6.478447e-09	2.644496e+01	4.259291e+02
2.090000e-06	3.637221e-06	6.411985e-09	2.590849e+01	4.210088e+02
2.100000e-06	3.560372e-06	6.335205e-09	2.536108e+01	4.159634e+02
2.110000e-06	3.481975e-06	6.290265e-09	2.480265e+01	4.107976e+02
2.120000e-06	3.402315e-06	6.217950e-09	2.423522e+01	4.055157e+02
2.130000e-06	3.321522e-06	6.113473e-09	2.365972e+01	4.001200e+02
2.140000e-06	3.239559e-06	6.026023e-09	2.307589e+01	3.946108e+02
2.150000e-06	3.156581e-06	5.923699e-09	2.248482e+01	3.889862e+02
2.160000e-06	3.072675e-06	5.853398e-09	2.188714e+01	3.832421e+02
2.170000e-06	2.987564e-06	5.772718e-09	2.128088e+01	3.773731e+02
2.180000e-06	2.901059e-06	5.682703e-09	2.066470e+01	3.713725e+02
2.190000e-06	2.813445e-06	5.572482e-09	2.004060e+01	3.652338e+02
2.200000e-06	2.724919e-06	5.470771e-09	1.941002e+01	3.589508e+02
2.210000e-06	2.635471e-06	5.397736e-09	1.877287e+01	3.525187e+02
2.220000e-06	2.545105e-06	5.304853e-09	1.812918e+01	3.459344e+02
2.230000e-06	2.453870e-06	5.191544e-09	1.747930e+01	3.391963e+02
2.240000e-06	2.361874e-06	5.070810e-09	1.682400e+01	3.323050e+02
2.250000e-06	2.269040e-06	4.964374e-09	1.616273e+01	3.252620e+02
2.260000e-06	2.175260e-06	4.857512e-09	1.549472e+01	3.180701e+02
2.270000e-06	2.080491e-06	4.757084e-09	1.481966e+01	3.107321e+02
2.280000e-06	1.984823e-06	4.652331e-09	1.413821e+01	3.032503e+02
2.290000e-06	1.888469e-06	4.527370e-09	1.345186e+01	2.956264e+02
2.300000e-06	1.791585e-06	4.392319e-09	1.276174e+01	2.878602e+02
2.310000e-06	1.694271e-06	4.269454e-09	1.206856e+01	2.799502e+02
2.320000e-06	1.596449e-06	4.167085e-09	1.137176e+01	2.718931e+02
2.330000e-06	1.498031e-06	4.053325e-09	1.067071e+01	2.636840e+02
2.340000e-06	1.399115e-06	3.918837e-09	9.966115e+00	2.553169e+02
2.350000e-06	1.299797e-06	3.775003e-09	9.258655e+00	2.467850e+02
2.360000e-06	1.200177e-06	3.637983e-09	8.549045e+00	2.380812e+02
2.370000e-06	1.100361e-06	3.507580e-09	7.838044e+00	2.291984e+02
2.380000e-06	1.000213e-06	3.379131e-09	7.124674e+00	2.201303e+02
2.390000e-06	8.996556e-07	3.243237e-09	6.408387e+00	2.108712e+02
2.400000e-06	7.986694e-07	3.092858e-09	5.689047e+00	2.014165e+02
2.410000e-06	6.972485e-07	2.937702e-09	4.966609e+00	1.917623e+02
2.420000e-06	5.955274e-07	2.787542e-09	4.242034e+00	1.819057e+02
2.430000e-06	4.935827e-07	2.643332e-09	3.515867e+00	1.718442e+02
2.440000e-06	3.914258e-07	2.492388e-09	2.788187e+00	1.615755e+02
2.450000e-06	2.890293e-07	2.328512e-09	2.058800e+00	1.510970e+02
2.460000e-06	1.864426e-07	2.159660e-09	1.328060e+00	1.404056e+02
2.470000e-06	8.371322e-08	1.995331e-09	5.963023e-01	1.294968e+02
2.480000e-06	-1.907686e-08	1.833642e-09	-1.358874e-01	1.183652e+02
2.490000e-06	-1.218148e-07	1.665480e-09	-8.677061e-01	1.070032e+02
2.500000e-06	-2.244976e-07	1.485063e-09	-1.599131e+00	9.540204e+01
2.510000e-06	-3.270739e-07	1.297644e-09	-2.329798e+00	8.355082e+01
2.520000e-06	-4.295718e-07	1.111029e-09	-3.059907e+00	7.143744e+01
2.530000e-06	-5.319259e-07	9.231015e-10	-3.788991e+00	5.904887e+01
2.540000e-06	-6.339772e-07	7.320992e-10	-4.515919e+00	4.637192e+01
2.550000e-06	-7.356746e-07	5.327660e-10	-5.240325e+00	3.339423e+01
2.560000e-06	-8.370161e-07	3.221794e-10	-5.962196e+00	2.010556e+01
2.570000e-06	-9.379711e-07	1.066687e-10	-6.681314e+00	6.499178e+00
2.580000e-06	-1.038437e-06	-1.070423e-10	-7.396951e+00	-7.426624e+00
2.590000e-06	-1.138473e-06	-3.203029e-10	-8.109517e+00	-2.166699e+01
2.600000e-06	-1.238160e-06	-5.405510e-10	-8.819605e+00	-3.620914e+01
2.610000e-06	-1.337433e-06	-7.716550e-10	-9.526747e+00	-5.103124e+01
2.620000e-06	-1.436257e-06	-1.008170e-09	-1.023069e+01	-6.610173e+01
2.630000e-06	-1.534622e-06	-1.241093e-09	-1.093135e+01	-8.137917e+01
2.640000e-06	-1.632458e-06	-1.471080e-09	-1.162825e+01	-9.681271e+01
2.650000e-06	-1.729699e-06	-1.703248e-09	-1.232091e+01	-1.123432e+02
2.660000e-06	-1.826338e-06	-1.940391e-09	-1.300929e+01	-1.279050e+02
2.670000e-06	-1.922435e-06	-2.181975e-09	-1.369380e+01	-1.434283e+02
2.680000e-06	-2.018000e-06	-2.422282e-09	-1.437453e+01	-1.588418e+02
2.690000e-06	-2.112899e-06	-2.655540e-09	-1.505051e+01	-1.740754e+02
2.700000e-06	-2.206905e-06	-2.882692e-09	-1.572013e+01	-1.890635e+02
2.710000e-06	-2.299853e-06	-3.107203e-09	-1.638221e+01	-2.037475e+02
2.720000e-06	-2.391848e-06	-3.330727e-09	-1.703751e+01	-2.180776e+02
2.730000e-06	-2.482973e-06	-3.546421e-09	-1.768660e+01	-2.320144e+02
2.740000e-06	-2.573197e-06	-3.751287e-09	-1.832929e+01	-2.455298e+02
2.750000e-06	-2.662507e-06	-3.949019e-09	-1.896545e+01	-2.586066e+02
2.760000e-06	-2.750955e-06	-4.144060e-09	-1.959548e+01	-2.712375e+02
2.770000e-06	-2.838654e-06	-4.336320e-09	-2.022017e+01	-2.834237e+02
2.780000e-06	-2.925481e-06	-4.521524e-09	-2.083865e+01	-2.951728e+02
2.790000e-06	-3.011061e-06	-4.694781e-09	-2.144826e+01	-3.064965e+02
2.800000e-06	-3.095391e-06	-4.856877e-09	-2.204895e+01	-3.174087e+02
2.810000e-06	-3.178686e-06	-5.011868e-09	-2.264227e+01	-3.279231e+02
2.820000e-06	-3.260964e-06	-5.163348e-09	-2.322836e+01	-3.380520e+02
2.830000e-06	-3.342192e-06	-5.312499e-09	-2.380695e+01	-3.478055e+02
2.840000e-06	-3.422327e-06	-5.457191e-09	-2.437777e+01	-3.571912e+02
2.850000e-06	-3.501253e-06	-5.595842e-09	-2.493997e+01	-3.662141e+02
2.860000e-06	-3.578714e-06	-5.728302e-09	-2.549174e+01	-3.748780e+02
2.870000e-06	-3.654651e-06	-5.857074e-09	-2.603265e+01	-3.831866e+02
2.880000e-06	-3.729148e-06	-5.983175e-09	-2.656330e+01	-3.911441e+02
2.890000e-06	-3.802283e-06	-6.101567e-09	-2.708425e+01	-3.987569e+02
2.900000e-06	-3.874149e-06	-6.211519e-09	-2.759617e+01	-4.060343e+02
2.910000e-06	-3.944560e-06	-6.316625e-09	-2.809771e+01	-4.129889e+02
2.920000e-06	-4.013313e-06	-6.417999e-09	-2.858746e+01	-4.196365e+02
2.930000e-06	-4.080592e-06	-6.516534e-09	-2.906669e+01	-4.259954e+02
2.940000e-06	-4.146541e-06	-6.611251e-09	-2.953646e+01	-4.320857e+02
