# Temperatura_=_39.67
# Concentracion g/m^3_=_15000.0
# C_Vs_to_Am_M_A/Vsm_=_65563218390.804596
# pendiente_HvsI_1/m_=_3716.3
# ordenada_HvsI_A/m_=_1297.0
# frecuencia_Hz_=_301596.5227639849

Tiempo_(s)	Campo_(V.s)	Magnetizacion_(V.s)	Campo_(kA/m)	Magnetizacion_(A/m)
0.000000e+00	-5.367047e-06	-5.881313e-09	-3.834034e+01	-3.843175e+02
1.000000e-08	-5.364595e-06	-5.880268e-09	-3.832282e+01	-3.841729e+02
2.000000e-08	-5.360342e-06	-5.873083e-09	-3.829244e+01	-3.839400e+02
3.000000e-08	-5.354447e-06	-5.865206e-09	-3.825033e+01	-3.836181e+02
4.000000e-08	-5.346929e-06	-5.858014e-09	-3.819662e+01	-3.832079e+02
5.000000e-08	-5.337699e-06	-5.848362e-09	-3.813069e+01	-3.827127e+02
6.000000e-08	-5.326405e-06	-5.839397e-09	-3.805001e+01	-3.821378e+02
7.000000e-08	-5.313139e-06	-5.830728e-09	-3.795524e+01	-3.814906e+02
8.000000e-08	-5.297883e-06	-5.803741e-09	-3.784625e+01	-3.807800e+02
9.000000e-08	-5.280418e-06	-5.839158e-09	-3.772149e+01	-3.800154e+02
1.000000e-07	-5.260859e-06	-5.858475e-09	-3.758177e+01	-3.792058e+02
1.100000e-07	-5.239385e-06	-5.796462e-09	-3.742836e+01	-3.783590e+02
1.200000e-07	-5.216111e-06	-5.782264e-09	-3.726211e+01	-3.774799e+02
1.300000e-07	-5.191349e-06	-5.722286e-09	-3.708521e+01	-3.765708e+02
1.400000e-07	-5.165070e-06	-5.631796e-09	-3.689748e+01	-3.756302e+02
1.500000e-07	-5.137114e-06	-5.795924e-09	-3.669778e+01	-3.746535e+02
1.600000e-07	-5.107668e-06	-5.731583e-09	-3.648742e+01	-3.736328e+02
1.700000e-07	-5.076719e-06	-5.635481e-09	-3.626634e+01	-3.725582e+02
1.800000e-07	-5.043784e-06	-5.772535e-09	-3.603106e+01	-3.714185e+02
1.900000e-07	-5.008803e-06	-5.590413e-09	-3.578117e+01	-3.702025e+02
2.000000e-07	-4.972338e-06	-5.543050e-09	-3.552067e+01	-3.689001e+02
2.100000e-07	-4.934208e-06	-5.669299e-09	-3.524828e+01	-3.675033e+02
2.200000e-07	-4.894259e-06	-5.551404e-09	-3.496290e+01	-3.660069e+02
2.300000e-07	-4.852382e-06	-5.537479e-09	-3.466375e+01	-3.644088e+02
2.400000e-07	-4.808561e-06	-5.553760e-09	-3.435070e+01	-3.627099e+02
2.500000e-07	-4.763073e-06	-5.452228e-09	-3.402576e+01	-3.609139e+02
2.600000e-07	-4.715684e-06	-5.485356e-09	-3.368723e+01	-3.590265e+02
2.700000e-07	-4.666171e-06	-5.444520e-09	-3.333352e+01	-3.570544e+02
2.800000e-07	-4.614571e-06	-5.418692e-09	-3.296491e+01	-3.550044e+02
2.900000e-07	-4.561123e-06	-5.395172e-09	-3.258309e+01	-3.528827e+02
3.000000e-07	-4.506104e-06	-5.311066e-09	-3.219006e+01	-3.506936e+02
3.100000e-07	-4.449526e-06	-5.286531e-09	-3.178588e+01	-3.484397e+02
3.200000e-07	-4.391124e-06	-5.278584e-09	-3.136868e+01	-3.461215e+02
3.300000e-07	-4.331000e-06	-5.260337e-09	-3.093918e+01	-3.437371e+02
3.400000e-07	-4.269446e-06	-5.175982e-09	-3.049945e+01	-3.412834e+02
3.500000e-07	-4.206473e-06	-5.132544e-09	-3.004960e+01	-3.387559e+02
3.600000e-07	-4.142048e-06	-5.129552e-09	-2.958937e+01	-3.361500e+02
3.700000e-07	-4.075996e-06	-5.074566e-09	-2.911752e+01	-3.334612e+02
3.800000e-07	-4.008336e-06	-5.038746e-09	-2.863417e+01	-3.306860e+02
3.900000e-07	-3.939265e-06	-4.996490e-09	-2.814075e+01	-3.278218e+02
4.000000e-07	-3.868927e-06	-4.931217e-09	-2.763828e+01	-3.248677e+02
4.100000e-07	-3.797383e-06	-4.878516e-09	-2.712720e+01	-3.218238e+02
4.200000e-07	-3.724531e-06	-4.835169e-09	-2.660677e+01	-3.186911e+02
4.300000e-07	-3.650114e-06	-4.816711e-09	-2.607516e+01	-3.154713e+02
4.400000e-07	-3.574115e-06	-4.766291e-09	-2.553225e+01	-3.121658e+02
4.500000e-07	-3.496699e-06	-4.697768e-09	-2.497921e+01	-3.087758e+02
4.600000e-07	-3.417905e-06	-4.631353e-09	-2.441634e+01	-3.053015e+02
4.700000e-07	-3.337757e-06	-4.580388e-09	-2.384379e+01	-3.017420e+02
4.800000e-07	-3.256344e-06	-4.542137e-09	-2.326220e+01	-2.980954e+02
4.900000e-07	-3.173805e-06	-4.475779e-09	-2.267257e+01	-2.943587e+02
5.000000e-07	-3.090207e-06	-4.417877e-09	-2.207537e+01	-2.905281e+02
5.100000e-07	-3.005665e-06	-4.352560e-09	-2.147144e+01	-2.865996e+02
5.200000e-07	-2.920215e-06	-4.285751e-09	-2.086101e+01	-2.825694e+02
5.300000e-07	-2.833774e-06	-4.228401e-09	-2.024351e+01	-2.784340e+02
5.400000e-07	-2.746365e-06	-4.171615e-09	-1.961909e+01	-2.741908e+02
5.500000e-07	-2.658089e-06	-4.106226e-09	-1.898848e+01	-2.698382e+02
5.600000e-07	-2.568774e-06	-4.024197e-09	-1.835044e+01	-2.653754e+02
5.700000e-07	-2.478284e-06	-3.950751e-09	-1.770401e+01	-2.608026e+02
5.800000e-07	-2.386781e-06	-3.887131e-09	-1.705034e+01	-2.561207e+02
5.900000e-07	-2.294529e-06	-3.822045e-09	-1.639133e+01	-2.513304e+02
6.000000e-07	-2.201615e-06	-3.738851e-09	-1.572758e+01	-2.464329e+02
6.100000e-07	-2.107873e-06	-3.656066e-09	-1.505792e+01	-2.414284e+02
6.200000e-07	-2.013354e-06	-3.580777e-09	-1.438271e+01	-2.363167e+02
6.300000e-07	-1.918181e-06	-3.504466e-09	-1.370282e+01	-2.310968e+02
6.400000e-07	-1.822332e-06	-3.429255e-09	-1.301812e+01	-2.257669e+02
6.500000e-07	-1.725857e-06	-3.350640e-09	-1.232893e+01	-2.203243e+02
6.600000e-07	-1.628669e-06	-3.264252e-09	-1.163465e+01	-2.147660e+02
6.700000e-07	-1.530698e-06	-3.165267e-09	-1.093478e+01	-2.090886e+02
6.800000e-07	-1.432047e-06	-3.069825e-09	-1.023005e+01	-2.032887e+02
6.900000e-07	-1.332799e-06	-2.983715e-09	-9.521058e+00	-1.973629e+02
7.000000e-07	-1.233107e-06	-2.897528e-09	-8.808895e+00	-1.913083e+02
7.100000e-07	-1.133095e-06	-2.802960e-09	-8.094444e+00	-1.851220e+02
7.200000e-07	-1.032810e-06	-2.702898e-09	-7.378039e+00	-1.788015e+02
7.300000e-07	-9.322539e-07	-2.602858e-09	-6.659701e+00	-1.723444e+02
7.400000e-07	-8.314380e-07	-2.504759e-09	-5.939507e+00	-1.657479e+02
7.500000e-07	-7.303486e-07	-2.406460e-09	-5.217359e+00	-1.590091e+02
7.600000e-07	-6.289501e-07	-2.302796e-09	-4.493003e+00	-1.521243e+02
7.700000e-07	-5.273330e-07	-2.192983e-09	-3.767086e+00	-1.450893e+02
7.800000e-07	-4.255977e-07	-2.077990e-09	-3.040324e+00	-1.378989e+02
7.900000e-07	-3.237213e-07	-1.965799e-09	-2.312553e+00	-1.305470e+02
8.000000e-07	-2.216884e-07	-1.856154e-09	-1.583665e+00	-1.230268e+02
8.100000e-07	-1.195269e-07	-1.744427e-09	-8.538593e-01	-1.153306e+02
8.200000e-07	-1.733725e-08	-1.625512e-09	-1.238513e-01	-1.074505e+02
8.300000e-07	8.484852e-08	-1.499376e-09	6.061286e-01	-9.937781e+01
8.400000e-07	1.870399e-07	-1.370923e-09	1.336149e+00	-9.110371e+01
8.500000e-07	2.891935e-07	-1.242966e-09	2.065899e+00	-8.261935e+01
8.600000e-07	3.912861e-07	-1.113618e-09	2.795213e+00	-7.391595e+01
8.700000e-07	4.932857e-07	-9.757654e-10	3.523863e+00	-6.498504e+01
8.800000e-07	5.951619e-07	-8.317698e-10	4.251632e+00	-5.581878e+01
8.900000e-07	6.968158e-07	-6.859557e-10	4.977812e+00	-4.641026e+01
9.000000e-07	7.982036e-07	-5.384782e-10	5.702092e+00	-3.675401e+01
9.100000e-07	8.993397e-07	-3.872622e-10	6.424574e+00	-2.684655e+01
9.200000e-07	1.000169e-06	-2.337234e-10	7.144864e+00	-1.668709e+01
9.300000e-07	1.100642e-06	-7.617156e-11	7.862608e+00	-6.278283e+00
9.400000e-07	1.200806e-06	8.807074e-11	8.578148e+00	4.373017e+00
9.500000e-07	1.300683e-06	2.556476e-10	9.291629e+00	1.525504e+01
9.600000e-07	1.400162e-06	4.240333e-10	1.000228e+01	2.635053e+01
9.700000e-07	1.498979e-06	5.937358e-10	1.070819e+01	3.763640e+01
9.800000e-07	1.596961e-06	7.686227e-10	1.140814e+01	4.908366e+01
9.900000e-07	1.694133e-06	9.473591e-10	1.210230e+01	6.065774e+01
1.000000e-06	1.790662e-06	1.124988e-09	1.279188e+01	7.231908e+01
1.010000e-06	1.886569e-06	1.299907e-09	1.347700e+01	8.402416e+01
1.020000e-06	1.981727e-06	1.473838e-09	1.415677e+01	9.572674e+01
1.030000e-06	2.076195e-06	1.648640e-09	1.483162e+01	1.073793e+02
1.040000e-06	2.169942e-06	1.825422e-09	1.550132e+01	1.189346e+02
1.050000e-06	2.262926e-06	2.002173e-09	1.616557e+01	1.303472e+02
1.060000e-06	2.355234e-06	2.176636e-09	1.682498e+01	1.415747e+02
1.070000e-06	2.446826e-06	2.345061e-09	1.747928e+01	1.525791e+02
1.080000e-06	2.537520e-06	2.509212e-09	1.812717e+01	1.633273e+02
1.090000e-06	2.627079e-06	2.669947e-09	1.876695e+01	1.737914e+02
1.100000e-06	2.715530e-06	2.826457e-09	1.939881e+01	1.839494e+02
1.110000e-06	2.803107e-06	2.974766e-09	2.002443e+01	1.937841e+02
1.120000e-06	2.889798e-06	3.116462e-09	2.064373e+01	2.032835e+02
1.130000e-06	2.975513e-06	3.253156e-09	2.125604e+01	2.124397e+02
1.140000e-06	3.060249e-06	3.386793e-09	2.186137e+01	2.212484e+02
1.150000e-06	3.144064e-06	3.516745e-09	2.246011e+01	2.297086e+02
1.160000e-06	3.226912e-06	3.639879e-09	2.305195e+01	2.378218e+02
1.170000e-06	3.308579e-06	3.756365e-09	2.363535e+01	2.455921e+02
1.180000e-06	3.388992e-06	3.866986e-09	2.420979e+01	2.530259e+02
1.190000e-06	3.468187e-06	3.972833e-09	2.477554e+01	2.601317e+02
1.200000e-06	3.546181e-06	4.074619e-09	2.533270e+01	2.669205e+02
1.210000e-06	3.622943e-06	4.174126e-09	2.588106e+01	2.734053e+02
1.220000e-06	3.698359e-06	4.269618e-09	2.641980e+01	2.796014e+02
1.230000e-06	3.772146e-06	4.359526e-09	2.694692e+01	2.855256e+02
1.240000e-06	3.844350e-06	4.442310e-09	2.746272e+01	2.911963e+02
1.250000e-06	3.915230e-06	4.524167e-09	2.796906e+01	2.966320e+02
1.260000e-06	3.984746e-06	4.605950e-09	2.846566e+01	3.018512e+02
1.270000e-06	4.052907e-06	4.684343e-09	2.895257e+01	3.068708e+02
1.280000e-06	4.119601e-06	4.756611e-09	2.942901e+01	3.117055e+02
1.290000e-06	4.184578e-06	4.826342e-09	2.989319e+01	3.163672e+02
1.300000e-06	4.247982e-06	4.894765e-09	3.034612e+01	3.208640e+02
1.310000e-06	4.310018e-06	4.960933e-09	3.078929e+01	3.252003e+02
1.320000e-06	4.370653e-06	5.023882e-09	3.122244e+01	3.293768e+02
1.330000e-06	4.429952e-06	5.083183e-09	3.164605e+01	3.333913e+02
1.340000e-06	4.487579e-06	5.140500e-09	3.205772e+01	3.372390e+02
1.350000e-06	4.543409e-06	5.195591e-09	3.245655e+01	3.409141e+02
1.360000e-06	4.597654e-06	5.247814e-09	3.284406e+01	3.444106e+02
1.370000e-06	4.650181e-06	5.295642e-09	3.321930e+01	3.477238e+02
1.380000e-06	4.700670e-06	5.337827e-09	3.357997e+01	3.508508e+02
1.390000e-06	4.749122e-06	5.378403e-09	3.392610e+01	3.537916e+02
1.400000e-06	4.795877e-06	5.420427e-09	3.426010e+01	3.565493e+02
1.410000e-06	4.841046e-06	5.460129e-09	3.458277e+01	3.591300e+02
1.420000e-06	4.884654e-06	5.496222e-09	3.489429e+01	3.615422e+02
1.430000e-06	4.926423e-06	5.528261e-09	3.519267e+01	3.637966e+02
1.440000e-06	4.966298e-06	5.557243e-09	3.547753e+01	3.659046e+02
1.450000e-06	5.004556e-06	5.584992e-09	3.575083e+01	3.678776e+02
1.460000e-06	5.041240e-06	5.611225e-09	3.601289e+01	3.697261e+02
1.470000e-06	5.076205e-06	5.636526e-09	3.626266e+01	3.714586e+02
1.480000e-06	5.109215e-06	5.661085e-09	3.649847e+01	3.730818e+02
1.490000e-06	5.140367e-06	5.683671e-09	3.672101e+01	3.745997e+02
1.500000e-06	5.169844e-06	5.704003e-09	3.693159e+01	3.760146e+02
1.510000e-06	5.197703e-06	5.722094e-09	3.713060e+01	3.773267e+02
1.520000e-06	5.223600e-06	5.739028e-09	3.731560e+01	3.785355e+02
1.530000e-06	5.247345e-06	5.755777e-09	3.748523e+01	3.796399e+02
1.540000e-06	5.269235e-06	5.771268e-09	3.764161e+01	3.806395e+02
1.550000e-06	5.289489e-06	5.785589e-09	3.778629e+01	3.815346e+02
1.560000e-06	5.307969e-06	5.798882e-09	3.791831e+01	3.823267e+02
1.570000e-06	5.324425e-06	5.810497e-09	3.803586e+01	3.830185e+02
1.580000e-06	5.338897e-06	5.820595e-09	3.813924e+01	3.836139e+02
1.590000e-06	5.351372e-06	5.829495e-09	3.822836e+01	3.841172e+02
1.600000e-06	5.361635e-06	5.837090e-09	3.830167e+01	3.845326e+02
1.610000e-06	5.369772e-06	5.843949e-09	3.835980e+01	3.848640e+02
1.620000e-06	5.376070e-06	5.849886e-09	3.840479e+01	3.851140e+02
1.630000e-06	5.380584e-06	5.853800e-09	3.843704e+01	3.852838e+02
1.640000e-06	5.383201e-06	5.855107e-09	3.845573e+01	3.853731e+02
1.650000e-06	5.383798e-06	5.857526e-09	3.846000e+01	3.853805e+02
1.660000e-06	5.382562e-06	5.859200e-09	3.845118e+01	3.853037e+02
1.670000e-06	5.379639e-06	5.853333e-09	3.843029e+01	3.851401e+02
1.680000e-06	5.375016e-06	5.851205e-09	3.839727e+01	3.848880e+02
1.690000e-06	5.368560e-06	5.849184e-09	3.835115e+01	3.845468e+02
1.700000e-06	5.360349e-06	5.845787e-09	3.829249e+01	3.841179e+02
1.710000e-06	5.350580e-06	5.841268e-09	3.822270e+01	3.836048e+02
1.720000e-06	5.339115e-06	5.831906e-09	3.814080e+01	3.830136e+02
1.730000e-06	5.325688e-06	5.851169e-09	3.804488e+01	3.823518e+02
1.740000e-06	5.310211e-06	5.796036e-09	3.793432e+01	3.816286e+02
1.750000e-06	5.292463e-06	5.730103e-09	3.780753e+01	3.808535e+02
1.760000e-06	5.272049e-06	5.765576e-09	3.766171e+01	3.800352e+02
1.770000e-06	5.249177e-06	5.740002e-09	3.749832e+01	3.791809e+02
1.780000e-06	5.224837e-06	5.819628e-09	3.732444e+01	3.782951e+02
1.790000e-06	5.199856e-06	5.852802e-09	3.714598e+01	3.773793e+02
1.800000e-06	5.173699e-06	5.602273e-09	3.695912e+01	3.764313e+02
1.810000e-06	5.145372e-06	5.723047e-09	3.675677e+01	3.754457e+02
1.820000e-06	5.115072e-06	5.741542e-09	3.654032e+01	3.744142e+02
1.830000e-06	5.083142e-06	5.533229e-09	3.631222e+01	3.733264e+02
1.840000e-06	5.049276e-06	5.772088e-09	3.607029e+01	3.721710e+02
1.850000e-06	5.013773e-06	5.722276e-09	3.581667e+01	3.709371e+02
1.860000e-06	4.976651e-06	5.542467e-09	3.555148e+01	3.696149e+02
1.870000e-06	4.937550e-06	5.703770e-09	3.527216e+01	3.681969e+02
1.880000e-06	4.896759e-06	5.538825e-09	3.498076e+01	3.666785e+02
1.890000e-06	4.854181e-06	5.522658e-09	3.467660e+01	3.650584e+02
1.900000e-06	4.809835e-06	5.603760e-09	3.435981e+01	3.633381e+02
1.910000e-06	4.763823e-06	5.432174e-09	3.403111e+01	3.615219e+02
1.920000e-06	4.715806e-06	5.550761e-09	3.368809e+01	3.596155e+02
1.930000e-06	4.666105e-06	5.418370e-09	3.333305e+01	3.576260e+02
1.940000e-06	4.614749e-06	5.346142e-09	3.296618e+01	3.555600e+02
1.950000e-06	4.561311e-06	5.481344e-09	3.258444e+01	3.534233e+02
1.960000e-06	4.505895e-06	5.341730e-09	3.218856e+01	3.512200e+02
1.970000e-06	4.448716e-06	5.318801e-09	3.178010e+01	3.489522e+02
1.980000e-06	4.390096e-06	5.244029e-09	3.136134e+01	3.466198e+02
1.990000e-06	4.330063e-06	5.241722e-09	3.093248e+01	3.442207e+02
2.000000e-06	4.268340e-06	5.261087e-09	3.049155e+01	3.417513e+02
2.010000e-06	4.204961e-06	5.113967e-09	3.003880e+01	3.392072e+02
2.020000e-06	4.140090e-06	5.175929e-09	2.957538e+01	3.365837e+02
2.030000e-06	4.073808e-06	5.093588e-09	2.910188e+01	3.338765e+02
2.040000e-06	4.006099e-06	5.014903e-09	2.861819e+01	3.310821e+02
2.050000e-06	3.936980e-06	5.014615e-09	2.812443e+01	3.281985e+02
2.060000e-06	3.866383e-06	4.962706e-09	2.762011e+01	3.252249e+02
2.070000e-06	3.794324e-06	4.966639e-09	2.710535e+01	3.221617e+02
2.080000e-06	3.721002e-06	4.826921e-09	2.658156e+01	3.190100e+02
2.090000e-06	3.646386e-06	4.786529e-09	2.604852e+01	3.157715e+02
2.100000e-06	3.570345e-06	4.768742e-09	2.550531e+01	3.124476e+02
2.110000e-06	3.492702e-06	4.718296e-09	2.495066e+01	3.090394e+02
2.120000e-06	3.413565e-06	4.676723e-09	2.438534e+01	3.055468e+02
2.130000e-06	3.333293e-06	4.595206e-09	2.381190e+01	3.019686e+02
2.140000e-06	3.251920e-06	4.573100e-09	2.323060e+01	2.983028e+02
2.150000e-06	3.169444e-06	4.481284e-09	2.264142e+01	2.945461e+02
2.160000e-06	3.085920e-06	4.430873e-09	2.204475e+01	2.906947e+02
2.170000e-06	3.001302e-06	4.396489e-09	2.144027e+01	2.867445e+02
2.180000e-06	2.915404e-06	4.328123e-09	2.082665e+01	2.826918e+02
2.190000e-06	2.828232e-06	4.247828e-09	2.020391e+01	2.785333e+02
2.200000e-06	2.740074e-06	4.160636e-09	1.957415e+01	2.742666e+02
2.210000e-06	2.651069e-06	4.127188e-09	1.893832e+01	2.698901e+02
2.220000e-06	2.561147e-06	4.068643e-09	1.829595e+01	2.654036e+02
2.230000e-06	2.470292e-06	3.993781e-09	1.764691e+01	2.608071e+02
2.240000e-06	2.378676e-06	3.911331e-09	1.699245e+01	2.561017e+02
2.250000e-06	2.286340e-06	3.842228e-09	1.633282e+01	2.512882e+02
2.260000e-06	2.193207e-06	3.766564e-09	1.566752e+01	2.463675e+02
2.270000e-06	2.099132e-06	3.687854e-09	1.499548e+01	2.413399e+02
2.280000e-06	2.004016e-06	3.618154e-09	1.431600e+01	2.362050e+02
2.290000e-06	1.908049e-06	3.532118e-09	1.363045e+01	2.309615e+02
2.300000e-06	1.811521e-06	3.439171e-09	1.294088e+01	2.256074e+02
2.310000e-06	1.714564e-06	3.348231e-09	1.224826e+01	2.201402e+02
2.320000e-06	1.617059e-06	3.280407e-09	1.155172e+01	2.145564e+02
2.330000e-06	1.518984e-06	3.207036e-09	1.085110e+01	2.088529e+02
2.340000e-06	1.420402e-06	3.115751e-09	1.014686e+01	2.030260e+02
2.350000e-06	1.321322e-06	3.013073e-09	9.439067e+00	1.970727e+02
2.360000e-06	1.221891e-06	2.914152e-09	8.728771e+00	1.909899e+02
2.370000e-06	1.122263e-06	2.824156e-09	8.017059e+00	1.847749e+02
2.380000e-06	1.022375e-06	2.734204e-09	7.303495e+00	1.784251e+02
2.390000e-06	9.220910e-07	2.639250e-09	6.587101e+00	1.719381e+02
2.400000e-06	8.213926e-07	2.533853e-09	5.867746e+00	1.653112e+02
2.410000e-06	7.202974e-07	2.425844e-09	5.145557e+00	1.585413e+02
2.420000e-06	6.189887e-07	2.317577e-09	4.421842e+00	1.516245e+02
2.430000e-06	5.175554e-07	2.213487e-09	3.697238e+00	1.445565e+02
2.440000e-06	4.159112e-07	2.108747e-09	2.971126e+00	1.373318e+02
2.450000e-06	3.140689e-07	1.995416e-09	2.243600e+00	1.299442e+02
2.460000e-06	2.120227e-07	1.871731e-09	1.514617e+00	1.223867e+02
2.470000e-06	1.098120e-07	1.749110e-09	7.844591e-01	1.146517e+02
2.480000e-06	7.521192e-09	1.631748e-09	5.372881e-02	1.067308e+02
2.490000e-06	-9.477512e-08	1.511466e-09	-6.770408e-01	9.861554e+01
2.500000e-06	-1.970472e-07	1.383497e-09	-1.407637e+00	9.029694e+01
2.510000e-06	-2.992219e-07	1.250831e-09	-2.137538e+00	8.176617e+01
2.520000e-06	-4.012638e-07	1.119328e-09	-2.866491e+00	7.301451e+01
2.530000e-06	-5.031187e-07	9.841785e-10	-3.594107e+00	6.403361e+01
2.540000e-06	-6.047315e-07	8.463009e-10	-4.319994e+00	5.481578e+01
2.550000e-06	-7.060807e-07	7.051905e-10	-5.043998e+00	4.535438e+01
2.560000e-06	-8.071250e-07	5.554118e-10	-5.765823e+00	3.564431e+01
2.570000e-06	-9.078419e-07	3.977039e-10	-6.485310e+00	2.568262e+01
2.580000e-06	-1.008206e-06	2.408449e-10	-7.202277e+00	1.546918e+01
2.590000e-06	-1.108217e-06	8.881118e-11	-7.916725e+00	5.007475e+00
2.600000e-06	-1.207830e-06	-6.835191e-11	-8.628325e+00	-5.694633e+00
2.610000e-06	-1.307014e-06	-2.362911e-10	-9.336860e+00	-1.662424e+01
2.620000e-06	-1.405750e-06	-4.091153e-10	-1.004220e+01	-2.776287e+01
2.630000e-06	-1.504029e-06	-5.823932e-10	-1.074427e+01	-3.908616e+01
2.640000e-06	-1.601806e-06	-7.575910e-10	-1.144275e+01	-5.056389e+01
2.650000e-06	-1.698944e-06	-9.337143e-10	-1.213667e+01	-6.216034e+01
2.660000e-06	-1.795492e-06	-1.111948e-09	-1.282638e+01	-7.383503e+01
2.670000e-06	-1.891629e-06	-1.294064e-09	-1.351315e+01	-8.554373e+01
2.680000e-06	-1.987247e-06	-1.477490e-09	-1.419621e+01	-9.723980e+01
2.690000e-06	-2.082078e-06	-1.655212e-09	-1.487365e+01	-1.088756e+02
2.700000e-06	-2.175924e-06	-1.828018e-09	-1.554405e+01	-1.204043e+02
2.710000e-06	-2.268789e-06	-2.001159e-09	-1.620745e+01	-1.317809e+02
2.720000e-06	-2.360805e-06	-2.173343e-09	-1.686478e+01	-1.429639e+02
2.730000e-06	-2.451967e-06	-2.340305e-09	-1.751601e+01	-1.539162e+02
2.740000e-06	-2.542235e-06	-2.498901e-09	-1.816085e+01	-1.646058e+02
2.750000e-06	-2.631587e-06	-2.652965e-09	-1.879916e+01	-1.750062e+02
2.760000e-06	-2.720102e-06	-2.805344e-09	-1.943147e+01	-1.850963e+02
2.770000e-06	-2.807880e-06	-2.956988e-09	-2.005853e+01	-1.948603e+02
2.780000e-06	-2.894730e-06	-3.106458e-09	-2.067895e+01	-2.042869e+02
2.790000e-06	-2.980363e-06	-3.247803e-09	-2.129069e+01	-2.133690e+02
2.800000e-06	-3.064790e-06	-3.379968e-09	-2.189380e+01	-2.221033e+02
2.810000e-06	-3.148167e-06	-3.507098e-09	-2.248942e+01	-2.304891e+02
2.820000e-06	-3.230513e-06	-3.630722e-09	-2.307767e+01	-2.385286e+02
2.830000e-06	-3.311796e-06	-3.750314e-09	-2.365833e+01	-2.462264e+02
2.840000e-06	-3.392046e-06	-3.866646e-09	-2.423161e+01	-2.535893e+02
2.850000e-06	-3.471002e-06	-3.976227e-09	-2.479564e+01	-2.606264e+02
2.860000e-06	-3.548493e-06	-4.078405e-09	-2.534921e+01	-2.673490e+02
2.870000e-06	-3.624632e-06	-4.176149e-09	-2.589312e+01	-2.737708e+02
2.880000e-06	-3.699330e-06	-4.271455e-09	-2.642674e+01	-2.799073e+02
2.890000e-06	-3.772634e-06	-4.363027e-09	-2.695040e+01	-2.857759e+02
2.900000e-06	-3.844655e-06	-4.446757e-09	-2.746489e+01	-2.913948e+02
2.910000e-06	-3.915277e-06	-4.525627e-09	-2.796939e+01	-2.967828e+02
2.920000e-06	-3.984318e-06	-4.604157e-09	-2.846260e+01	-3.019581e+02
2.930000e-06	-4.051850e-06	-4.681854e-09	-2.894502e+01	-3.069371e+02
2.940000e-06	-4.118002e-06	-4.756273e-09	-2.941759e+01	-3.117341e+02
