# Temperatura_=_73.97
# Concentracion g/m^3_=_15000.0
# C_Vs_to_Am_M_A/Vsm_=_65563218390.804596
# pendiente_HvsI_1/m_=_3716.3
# ordenada_HvsI_A/m_=_1297.0
# frecuencia_Hz_=_301582.1715374555

Tiempo_(s)	Campo_(V.s)	Magnetizacion_(V.s)	Campo_(kA/m)	Magnetizacion_(A/m)
0.000000e+00	-5.362225e-06	-7.253253e-09	-3.834327e+01	-4.742114e+02
1.000000e-08	-5.359543e-06	-7.249436e-09	-3.832409e+01	-4.740357e+02
2.000000e-08	-5.355098e-06	-7.242575e-09	-3.829231e+01	-4.737386e+02
3.000000e-08	-5.349028e-06	-7.235603e-09	-3.824890e+01	-4.733152e+02
4.000000e-08	-5.341369e-06	-7.227747e-09	-3.819414e+01	-4.727643e+02
5.000000e-08	-5.331941e-06	-7.217606e-09	-3.812672e+01	-4.720895e+02
6.000000e-08	-5.320398e-06	-7.205181e-09	-3.804418e+01	-4.712987e+02
7.000000e-08	-5.306881e-06	-7.187482e-09	-3.794753e+01	-4.704045e+02
8.000000e-08	-5.291306e-06	-7.172818e-09	-3.783615e+01	-4.694220e+02
9.000000e-08	-5.273486e-06	-7.205075e-09	-3.770873e+01	-4.683679e+02
1.000000e-07	-5.253655e-06	-7.199358e-09	-3.756692e+01	-4.672578e+02
1.100000e-07	-5.231964e-06	-7.141617e-09	-3.741182e+01	-4.661049e+02
1.200000e-07	-5.208624e-06	-7.106765e-09	-3.724493e+01	-4.649172e+02
1.300000e-07	-5.183808e-06	-7.030561e-09	-3.706747e+01	-4.636975e+02
1.400000e-07	-5.157324e-06	-7.018290e-09	-3.687810e+01	-4.624418e+02
1.500000e-07	-5.129189e-06	-7.116688e-09	-3.667691e+01	-4.611400e+02
1.600000e-07	-5.099609e-06	-7.009624e-09	-3.646540e+01	-4.597769e+02
1.700000e-07	-5.068427e-06	-6.984576e-09	-3.624243e+01	-4.583338e+02
1.800000e-07	-5.035198e-06	-7.040195e-09	-3.600482e+01	-4.567902e+02
1.900000e-07	-5.000075e-06	-6.897114e-09	-3.575367e+01	-4.551267e+02
2.000000e-07	-4.963530e-06	-6.929598e-09	-3.549235e+01	-4.533263e+02
2.100000e-07	-4.925270e-06	-6.930538e-09	-3.521877e+01	-4.513768e+02
2.200000e-07	-4.885195e-06	-6.771893e-09	-3.493221e+01	-4.492715e+02
2.300000e-07	-4.843187e-06	-6.786018e-09	-3.463183e+01	-4.470095e+02
2.400000e-07	-4.799226e-06	-6.782838e-09	-3.431747e+01	-4.445956e+02
2.500000e-07	-4.753559e-06	-6.730478e-09	-3.399092e+01	-4.420393e+02
2.600000e-07	-4.706013e-06	-6.743129e-09	-3.365094e+01	-4.393531e+02
2.700000e-07	-4.656401e-06	-6.636409e-09	-3.329618e+01	-4.365510e+02
2.800000e-07	-4.604667e-06	-6.573476e-09	-3.292626e+01	-4.336463e+02
2.900000e-07	-4.551010e-06	-6.566523e-09	-3.254257e+01	-4.306504e+02
3.000000e-07	-4.495760e-06	-6.523622e-09	-3.214750e+01	-4.275715e+02
3.100000e-07	-4.438938e-06	-6.476865e-09	-3.174119e+01	-4.244139e+02
3.200000e-07	-4.380270e-06	-6.423160e-09	-3.132168e+01	-4.211780e+02
3.300000e-07	-4.319949e-06	-6.359759e-09	-3.089035e+01	-4.178609e+02
3.400000e-07	-4.258232e-06	-6.281501e-09	-3.044903e+01	-4.144572e+02
3.500000e-07	-4.195153e-06	-6.270135e-09	-2.999798e+01	-4.109600e+02
3.600000e-07	-4.130681e-06	-6.234472e-09	-2.953696e+01	-4.073625e+02
3.700000e-07	-4.064545e-06	-6.135658e-09	-2.906405e+01	-4.036589e+02
3.800000e-07	-3.996737e-06	-6.081203e-09	-2.857918e+01	-3.998450e+02
3.900000e-07	-3.927522e-06	-6.029515e-09	-2.808424e+01	-3.959190e+02
4.000000e-07	-3.857104e-06	-5.968429e-09	-2.758071e+01	-3.918812e+02
4.100000e-07	-3.785544e-06	-5.906455e-09	-2.706901e+01	-3.877337e+02
4.200000e-07	-3.712665e-06	-5.833440e-09	-2.654788e+01	-3.834797e+02
4.300000e-07	-3.638163e-06	-5.768176e-09	-2.601514e+01	-3.791228e+02
4.400000e-07	-3.561998e-06	-5.697695e-09	-2.547052e+01	-3.746660e+02
4.500000e-07	-3.484433e-06	-5.641294e-09	-2.491588e+01	-3.701108e+02
4.600000e-07	-3.405585e-06	-5.588278e-09	-2.435207e+01	-3.654572e+02
4.700000e-07	-3.325408e-06	-5.510661e-09	-2.377875e+01	-3.607032e+02
4.800000e-07	-3.243933e-06	-5.411425e-09	-2.319615e+01	-3.558452e+02
4.900000e-07	-3.161290e-06	-5.324392e-09	-2.260520e+01	-3.508781e+02
5.000000e-07	-3.077648e-06	-5.266344e-09	-2.200712e+01	-3.457963e+02
5.100000e-07	-2.993112e-06	-5.191254e-09	-2.140263e+01	-3.405944e+02
5.200000e-07	-2.907660e-06	-5.106442e-09	-2.079159e+01	-3.352673e+02
5.300000e-07	-2.821168e-06	-5.017120e-09	-2.017312e+01	-3.298116e+02
5.400000e-07	-2.733732e-06	-4.924545e-09	-1.954790e+01	-3.242251e+02
5.500000e-07	-2.645494e-06	-4.841694e-09	-1.891694e+01	-3.185072e+02
5.600000e-07	-2.556161e-06	-4.761078e-09	-1.827815e+01	-3.126584e+02
5.700000e-07	-2.465600e-06	-4.673793e-09	-1.763059e+01	-3.066803e+02
5.800000e-07	-2.374120e-06	-4.568444e-09	-1.697644e+01	-3.005746e+02
5.900000e-07	-2.281873e-06	-4.466385e-09	-1.631682e+01	-2.943428e+02
6.000000e-07	-2.188846e-06	-4.374051e-09	-1.565162e+01	-2.879859e+02
6.100000e-07	-2.095062e-06	-4.281718e-09	-1.498101e+01	-2.815038e+02
6.200000e-07	-2.000528e-06	-4.180930e-09	-1.430503e+01	-2.748952e+02
6.300000e-07	-1.905314e-06	-4.074486e-09	-1.362419e+01	-2.681581e+02
6.400000e-07	-1.809558e-06	-3.969613e-09	-1.293947e+01	-2.612898e+02
6.500000e-07	-1.713139e-06	-3.866374e-09	-1.225001e+01	-2.542871e+02
6.600000e-07	-1.615876e-06	-3.763344e-09	-1.155453e+01	-2.471470e+02
6.700000e-07	-1.517885e-06	-3.650650e-09	-1.085383e+01	-2.398666e+02
6.800000e-07	-1.419231e-06	-3.527886e-09	-1.014839e+01	-2.324435e+02
6.900000e-07	-1.320039e-06	-3.402757e-09	-9.439104e+00	-2.248755e+02
7.000000e-07	-1.220491e-06	-3.286805e-09	-8.727276e+00	-2.171606e+02
7.100000e-07	-1.120605e-06	-3.174438e-09	-8.013025e+00	-2.092965e+02
7.200000e-07	-1.020387e-06	-3.055467e-09	-7.296405e+00	-2.012801e+02
7.300000e-07	-9.198924e-07	-2.930028e-09	-6.577807e+00	-1.931070e+02
7.400000e-07	-8.191219e-07	-2.800332e-09	-5.857235e+00	-1.847719e+02
7.500000e-07	-7.180757e-07	-2.669509e-09	-5.134691e+00	-1.762674e+02
7.600000e-07	-6.168282e-07	-2.539414e-09	-4.410708e+00	-1.675853e+02
7.700000e-07	-5.153798e-07	-2.406889e-09	-3.685289e+00	-1.587163e+02
7.800000e-07	-4.136726e-07	-2.265601e-09	-2.958018e+00	-1.496506e+02
7.900000e-07	-3.118062e-07	-2.117069e-09	-2.229610e+00	-1.403789e+02
8.000000e-07	-2.098367e-07	-1.967603e-09	-1.500464e+00	-1.308930e+02
8.100000e-07	-1.078076e-07	-1.821416e-09	-7.708916e-01	-1.211860e+02
8.200000e-07	-5.686478e-09	-1.672983e-09	-4.066188e-02	-1.112526e+02
8.300000e-07	9.652652e-08	-1.515940e-09	6.902251e-01	-1.010895e+02
8.400000e-07	1.987168e-07	-1.352965e-09	1.420950e+00	-9.069447e+01
8.500000e-07	3.008498e-07	-1.189456e-09	2.151265e+00	-8.006619e+01
8.600000e-07	4.028799e-07	-1.025069e-09	2.880844e+00	-6.920313e+01
8.700000e-07	5.047228e-07	-8.570684e-10	3.609084e+00	-5.810298e+01
8.800000e-07	6.064175e-07	-6.831264e-10	4.336265e+00	-4.676197e+01
8.900000e-07	7.079626e-07	-5.048526e-10	5.062376e+00	-3.517470e+01
9.000000e-07	8.092323e-07	-3.247027e-10	5.786519e+00	-2.333437e+01
9.100000e-07	9.102126e-07	-1.405980e-10	6.508591e+00	-1.123359e+01
9.200000e-07	1.010898e-06	4.630656e-11	7.228554e+00	1.134180e+00
9.300000e-07	1.111296e-06	2.372231e-10	7.946464e+00	1.377283e+01
9.400000e-07	1.211360e-06	4.330753e-10	8.661986e+00	2.668144e+01
9.500000e-07	1.310985e-06	6.313973e-10	9.374367e+00	3.985210e+01
9.600000e-07	1.410108e-06	8.322371e-10	1.008315e+01	5.326804e+01
9.700000e-07	1.508674e-06	1.034282e-09	1.078797e+01	6.690218e+01
9.800000e-07	1.606550e-06	1.240551e-09	1.148784e+01	8.071654e+01
9.900000e-07	1.703667e-06	1.453143e-09	1.218229e+01	9.466255e+01
1.000000e-06	1.799986e-06	1.667249e-09	1.287103e+01	1.086823e+02
1.010000e-06	1.895541e-06	1.881156e-09	1.355430e+01	1.227110e+02
1.020000e-06	1.990475e-06	2.091934e-09	1.423314e+01	1.366795e+02
1.030000e-06	2.084794e-06	2.299893e-09	1.490759e+01	1.505182e+02
1.040000e-06	2.178382e-06	2.506797e-09	1.557680e+01	1.641605e+02
1.050000e-06	2.271241e-06	2.708325e-09	1.624080e+01	1.775459e+02
1.060000e-06	2.363423e-06	2.903622e-09	1.689995e+01	1.906232e+02
1.070000e-06	2.454833e-06	3.092079e-09	1.755360e+01	2.033521e+02
1.080000e-06	2.545295e-06	3.276927e-09	1.820046e+01	2.157039e+02
1.090000e-06	2.634670e-06	3.459612e-09	1.883954e+01	2.276617e+02
1.100000e-06	2.722923e-06	3.638783e-09	1.947060e+01	2.392190e+02
1.110000e-06	2.810239e-06	3.810278e-09	2.009497e+01	2.503775e+02
1.120000e-06	2.896720e-06	3.974108e-09	2.071337e+01	2.611446e+02
1.130000e-06	2.982266e-06	4.131598e-09	2.132507e+01	2.715310e+02
1.140000e-06	3.066883e-06	4.285185e-09	2.193014e+01	2.815480e+02
1.150000e-06	3.150580e-06	4.434192e-09	2.252862e+01	2.912054e+02
1.160000e-06	3.233215e-06	4.576303e-09	2.311951e+01	3.005106e+02
1.170000e-06	3.314660e-06	4.711109e-09	2.370190e+01	3.094677e+02
1.180000e-06	3.394826e-06	4.840271e-09	2.427513e+01	3.180786e+02
1.190000e-06	3.473752e-06	4.965768e-09	2.483951e+01	3.263431e+02
1.200000e-06	3.551492e-06	5.086277e-09	2.539540e+01	3.342616e+02
1.210000e-06	3.628065e-06	5.202399e-09	2.594294e+01	3.418356e+02
1.220000e-06	3.703300e-06	5.310734e-09	2.648092e+01	3.490702e+02
1.230000e-06	3.776912e-06	5.412246e-09	2.700729e+01	3.559746e+02
1.240000e-06	3.848956e-06	5.510415e-09	2.752245e+01	3.625632e+02
1.250000e-06	3.919612e-06	5.607412e-09	2.802768e+01	3.688546e+02
1.260000e-06	3.988922e-06	5.700100e-09	2.852329e+01	3.748712e+02
1.270000e-06	4.056878e-06	5.788027e-09	2.900922e+01	3.806377e+02
1.280000e-06	4.123319e-06	5.872546e-09	2.948432e+01	3.861787e+02
1.290000e-06	4.188088e-06	5.954867e-09	2.994746e+01	3.915171e+02
1.300000e-06	4.251310e-06	6.034522e-09	3.039953e+01	3.966723e+02
1.310000e-06	4.313088e-06	6.110628e-09	3.084128e+01	4.016585e+02
1.320000e-06	4.373507e-06	6.184046e-09	3.127331e+01	4.064840e+02
1.330000e-06	4.432510e-06	6.254178e-09	3.169522e+01	4.111514e+02
1.340000e-06	4.489799e-06	6.320677e-09	3.210488e+01	4.156581e+02
1.350000e-06	4.545342e-06	6.385564e-09	3.250204e+01	4.199978e+02
1.360000e-06	4.599256e-06	6.448729e-09	3.288757e+01	4.241618e+02
1.370000e-06	4.651453e-06	6.507301e-09	3.326080e+01	4.281415e+02
1.380000e-06	4.701652e-06	6.562774e-09	3.361976e+01	4.319297e+02
1.390000e-06	4.749831e-06	6.617180e-09	3.396427e+01	4.355223e+02
1.400000e-06	4.796309e-06	6.670971e-09	3.429662e+01	4.389188e+02
1.410000e-06	4.841290e-06	6.719630e-09	3.461826e+01	4.421231e+02
1.420000e-06	4.884668e-06	6.762067e-09	3.492844e+01	4.451423e+02
1.430000e-06	4.926139e-06	6.801644e-09	3.522498e+01	4.479864e+02
1.440000e-06	4.965788e-06	6.840748e-09	3.550850e+01	4.506665e+02
1.450000e-06	5.003822e-06	6.879111e-09	3.578046e+01	4.531936e+02
1.460000e-06	5.040279e-06	6.914763e-09	3.604115e+01	4.555770e+02
1.470000e-06	5.075009e-06	6.948937e-09	3.628950e+01	4.578233e+02
1.480000e-06	5.107796e-06	6.978498e-09	3.652394e+01	4.599361e+02
1.490000e-06	5.138757e-06	7.005296e-09	3.674534e+01	4.619155e+02
1.500000e-06	5.168076e-06	7.031294e-09	3.695498e+01	4.637593e+02
1.510000e-06	5.195689e-06	7.055259e-09	3.715243e+01	4.654635e+02
1.520000e-06	5.221339e-06	7.077119e-09	3.733585e+01	4.670237e+02
1.530000e-06	5.244980e-06	7.097287e-09	3.750490e+01	4.684367e+02
1.540000e-06	5.266742e-06	7.116667e-09	3.766051e+01	4.697011e+02
1.550000e-06	5.286803e-06	7.134542e-09	3.780395e+01	4.708186e+02
1.560000e-06	5.305028e-06	7.151200e-09	3.793428e+01	4.717941e+02
1.570000e-06	5.321155e-06	7.165487e-09	3.804959e+01	4.726350e+02
1.580000e-06	5.335298e-06	7.176670e-09	3.815072e+01	4.733510e+02
1.590000e-06	5.347496e-06	7.185882e-09	3.823795e+01	4.739523e+02
1.600000e-06	5.357528e-06	7.194280e-09	3.830968e+01	4.744487e+02
1.610000e-06	5.365449e-06	7.202029e-09	3.836633e+01	4.748480e+02
1.620000e-06	5.371523e-06	7.208747e-09	3.840976e+01	4.751548e+02
1.630000e-06	5.375841e-06	7.213203e-09	3.844063e+01	4.753702e+02
1.640000e-06	5.378213e-06	7.215455e-09	3.845760e+01	4.754917e+02
1.650000e-06	5.378549e-06	7.219012e-09	3.846000e+01	4.755133e+02
1.660000e-06	5.377132e-06	7.219365e-09	3.844987e+01	4.754276e+02
1.670000e-06	5.374117e-06	7.213041e-09	3.842830e+01	4.752262e+02
1.680000e-06	5.369410e-06	7.208617e-09	3.839465e+01	4.749021e+02
1.690000e-06	5.362726e-06	7.203044e-09	3.834685e+01	4.744511e+02
1.700000e-06	5.354209e-06	7.197424e-09	3.828595e+01	4.738730e+02
1.710000e-06	5.344180e-06	7.193060e-09	3.821424e+01	4.731723e+02
1.720000e-06	5.332504e-06	7.189593e-09	3.813075e+01	4.723580e+02
1.730000e-06	5.318860e-06	7.193719e-09	3.803318e+01	4.714432e+02
1.740000e-06	5.303160e-06	7.124495e-09	3.792092e+01	4.704438e+02
1.750000e-06	5.285188e-06	7.077748e-09	3.779240e+01	4.693762e+02
1.760000e-06	5.264565e-06	7.097451e-09	3.764494e+01	4.682558e+02
1.770000e-06	5.241559e-06	7.085312e-09	3.748043e+01	4.670947e+02
1.780000e-06	5.217206e-06	7.158103e-09	3.730630e+01	4.659000e+02
1.790000e-06	5.192189e-06	7.101984e-09	3.712741e+01	4.646728e+02
1.800000e-06	5.165842e-06	6.928023e-09	3.693901e+01	4.634081e+02
1.810000e-06	5.137318e-06	7.042619e-09	3.673504e+01	4.620944e+02
1.820000e-06	5.106882e-06	6.985602e-09	3.651741e+01	4.607156e+02
1.830000e-06	5.074804e-06	6.889670e-09	3.628803e+01	4.592524e+02
1.840000e-06	5.040769e-06	7.068977e-09	3.604466e+01	4.576845e+02
1.850000e-06	5.005098e-06	6.949126e-09	3.578959e+01	4.559927e+02
1.860000e-06	4.967721e-06	6.897238e-09	3.552232e+01	4.541610e+02
1.870000e-06	4.928405e-06	7.018542e-09	3.524118e+01	4.521783e+02
1.880000e-06	4.887475e-06	6.846034e-09	3.494851e+01	4.500390e+02
1.890000e-06	4.844730e-06	6.846376e-09	3.464286e+01	4.477437e+02
1.900000e-06	4.800346e-06	6.804724e-09	3.432548e+01	4.452981e+02
1.910000e-06	4.754203e-06	6.674781e-09	3.399553e+01	4.427127e+02
1.920000e-06	4.705945e-06	6.798742e-09	3.365045e+01	4.400003e+02
1.930000e-06	4.656079e-06	6.673813e-09	3.329388e+01	4.371748e+02
1.940000e-06	4.604544e-06	6.631723e-09	3.292538e+01	4.342495e+02
1.950000e-06	4.550951e-06	6.652419e-09	3.254215e+01	4.312351e+02
1.960000e-06	4.495396e-06	6.504740e-09	3.214490e+01	4.281388e+02
1.970000e-06	4.438149e-06	6.494283e-09	3.173554e+01	4.249643e+02
1.980000e-06	4.379513e-06	6.440973e-09	3.131626e+01	4.217112e+02
1.990000e-06	4.319465e-06	6.439339e-09	3.088688e+01	4.183758e+02
2.000000e-06	4.257712e-06	6.360312e-09	3.044531e+01	4.149524e+02
2.010000e-06	4.194242e-06	6.244578e-09	2.999146e+01	4.114341e+02
2.020000e-06	4.129230e-06	6.285586e-09	2.952658e+01	4.078141e+02
2.030000e-06	4.062779e-06	6.163315e-09	2.905142e+01	4.040869e+02
2.040000e-06	3.994981e-06	6.114586e-09	2.856662e+01	4.002489e+02
2.050000e-06	3.925715e-06	6.083199e-09	2.807132e+01	3.962986e+02
2.060000e-06	3.854832e-06	6.001415e-09	2.756447e+01	3.922368e+02
2.070000e-06	3.782570e-06	5.956722e-09	2.704774e+01	3.880660e+02
2.080000e-06	3.709077e-06	5.839393e-09	2.652223e+01	3.837895e+02
2.090000e-06	3.634230e-06	5.821774e-09	2.598702e+01	3.794107e+02
2.100000e-06	3.558001e-06	5.748875e-09	2.544194e+01	3.749325e+02
2.110000e-06	3.480145e-06	5.647978e-09	2.488522e+01	3.703560e+02
2.120000e-06	3.400800e-06	5.588103e-09	2.431785e+01	3.656809e+02
2.130000e-06	3.320437e-06	5.524224e-09	2.374321e+01	3.609048e+02
2.140000e-06	3.239007e-06	5.476234e-09	2.316093e+01	3.560236e+02
2.150000e-06	3.156468e-06	5.377210e-09	2.257073e+01	3.510323e+02
2.160000e-06	3.072940e-06	5.308424e-09	2.197345e+01	3.459250e+02
2.170000e-06	2.988388e-06	5.213844e-09	2.136884e+01	3.406964e+02
2.180000e-06	2.902515e-06	5.123705e-09	2.075480e+01	3.353418e+02
2.190000e-06	2.815344e-06	5.052678e-09	2.013148e+01	3.298580e+02
2.200000e-06	2.727184e-06	4.971694e-09	1.950108e+01	3.242431e+02
2.210000e-06	2.638126e-06	4.892620e-09	1.886425e+01	3.184968e+02
2.220000e-06	2.548185e-06	4.786888e-09	1.822112e+01	3.126200e+02
2.230000e-06	2.457342e-06	4.700084e-09	1.757154e+01	3.066141e+02
2.240000e-06	2.365754e-06	4.608332e-09	1.691662e+01	3.004811e+02
2.250000e-06	2.273501e-06	4.519683e-09	1.625696e+01	2.942223e+02
2.260000e-06	2.180447e-06	4.424718e-09	1.559156e+01	2.878383e+02
2.270000e-06	2.086341e-06	4.318673e-09	1.491865e+01	2.813290e+02
2.280000e-06	1.991155e-06	4.210252e-09	1.423801e+01	2.746929e+02
2.290000e-06	1.895196e-06	4.105173e-09	1.355184e+01	2.679277e+02
2.300000e-06	1.798696e-06	4.007655e-09	1.286180e+01	2.610306e+02
2.310000e-06	1.701781e-06	3.898254e-09	1.216880e+01	2.539986e+02
2.320000e-06	1.604354e-06	3.784854e-09	1.147214e+01	2.468284e+02
2.330000e-06	1.506325e-06	3.671650e-09	1.077117e+01	2.395174e+02
2.340000e-06	1.407744e-06	3.566912e-09	1.006625e+01	2.320632e+02
2.350000e-06	1.308703e-06	3.456323e-09	9.358045e+00	2.244637e+02
2.360000e-06	1.209369e-06	3.339829e-09	8.647747e+00	2.167168e+02
2.370000e-06	1.109817e-06	3.217119e-09	7.935884e+00	2.088201e+02
2.380000e-06	1.009993e-06	3.086518e-09	7.222084e+00	2.007703e+02
2.390000e-06	9.098477e-07	2.959103e-09	6.505982e+00	1.925629e+02
2.400000e-06	8.093741e-07	2.837295e-09	5.787532e+00	1.841918e+02
2.410000e-06	7.085516e-07	2.714252e-09	5.066588e+00	1.756498e+02
2.420000e-06	6.073706e-07	2.577746e-09	4.343081e+00	1.669283e+02
2.430000e-06	5.059049e-07	2.436166e-09	3.617537e+00	1.580177e+02
2.440000e-06	4.042717e-07	2.299880e-09	2.890796e+00	1.489084e+02
2.450000e-06	3.024680e-07	2.165085e-09	2.162836e+00	1.395913e+02
2.460000e-06	2.004742e-07	2.020796e-09	1.433516e+00	1.300583e+02
2.470000e-06	9.835846e-08	1.869412e-09	7.033247e-01	1.203029e+02
2.480000e-06	-3.819760e-09	1.713993e-09	-2.731368e-02	1.103203e+02
2.490000e-06	-1.059713e-07	1.556218e-09	-7.577610e-01	1.001074e+02
2.500000e-06	-2.080820e-07	1.400982e-09	-1.487917e+00	8.966233e+01
2.510000e-06	-3.101062e-07	1.245291e-09	-2.217454e+00	7.898366e+01
2.520000e-06	-4.120359e-07	1.084753e-09	-2.946315e+00	6.806982e+01
2.530000e-06	-5.138484e-07	9.123417e-10	-3.674338e+00	5.691821e+01
2.540000e-06	-6.153987e-07	7.338364e-10	-4.400487e+00	4.552472e+01
2.550000e-06	-7.166176e-07	5.567117e-10	-5.124265e+00	3.388362e+01
2.560000e-06	-8.175402e-07	3.767233e-10	-5.845925e+00	2.198787e+01
2.570000e-06	-9.181842e-07	1.895296e-10	-6.565593e+00	9.830156e+00
2.580000e-06	-1.018485e-06	-5.209559e-12	-7.282806e+00	-2.595682e+00
2.590000e-06	-1.118342e-06	-2.037414e-10	-7.996849e+00	-1.529268e+01
2.600000e-06	-1.217757e-06	-4.028813e-10	-8.707728e+00	-2.825860e+01
2.610000e-06	-1.316825e-06	-6.021374e-10	-9.416126e+00	-4.148379e+01
2.620000e-06	-1.415525e-06	-8.063270e-10	-1.012189e+01	-5.494935e+01
2.630000e-06	-1.513751e-06	-1.018848e-09	-1.082427e+01	-6.862589e+01
2.640000e-06	-1.611357e-06	-1.234512e-09	-1.152221e+01	-8.247311e+01
2.650000e-06	-1.708390e-06	-1.449898e-09	-1.221606e+01	-9.644030e+01
2.660000e-06	-1.804924e-06	-1.665443e-09	-1.290634e+01	-1.104679e+02
2.670000e-06	-1.900895e-06	-1.881943e-09	-1.359259e+01	-1.244897e+02
2.680000e-06	-1.996237e-06	-2.100108e-09	-1.427434e+01	-1.384365e+02
2.690000e-06	-2.090783e-06	-2.316610e-09	-1.495041e+01	-1.522387e+02
2.700000e-06	-2.184385e-06	-2.527808e-09	-1.561972e+01	-1.658310e+02
2.710000e-06	-2.277036e-06	-2.731211e-09	-1.628224e+01	-1.791546e+02
2.720000e-06	-2.368780e-06	-2.927011e-09	-1.693826e+01	-1.921604e+02
2.730000e-06	-2.459711e-06	-3.118873e-09	-1.758847e+01	-2.048107e+02
2.740000e-06	-2.549792e-06	-3.307304e-09	-1.823261e+01	-2.170794e+02
2.750000e-06	-2.638992e-06	-3.489908e-09	-1.887044e+01	-2.289518e+02
2.760000e-06	-2.727314e-06	-3.665811e-09	-1.950200e+01	-2.404235e+02
2.770000e-06	-2.814799e-06	-3.836569e-09	-2.012757e+01	-2.514975e+02
2.780000e-06	-2.901410e-06	-4.001813e-09	-2.074690e+01	-2.621823e+02
2.790000e-06	-2.986892e-06	-4.159476e-09	-2.135815e+01	-2.724889e+02
2.800000e-06	-3.071142e-06	-4.310071e-09	-2.196059e+01	-2.824283e+02
2.810000e-06	-3.154317e-06	-4.454673e-09	-2.255534e+01	-2.920099e+02
2.820000e-06	-3.236508e-06	-4.593341e-09	-2.314306e+01	-3.012405e+02
2.830000e-06	-3.317584e-06	-4.726895e-09	-2.372281e+01	-3.101236e+02
2.840000e-06	-3.397548e-06	-4.858520e-09	-2.429459e+01	-3.186604e+02
2.850000e-06	-3.476341e-06	-4.987053e-09	-2.485802e+01	-3.268510e+02
2.860000e-06	-3.553701e-06	-5.108658e-09	-2.541119e+01	-3.346956e+02
2.870000e-06	-3.629556e-06	-5.222511e-09	-2.595360e+01	-3.421966e+02
2.880000e-06	-3.703942e-06	-5.332005e-09	-2.648551e+01	-3.493597e+02
2.890000e-06	-3.776975e-06	-5.438067e-09	-2.700774e+01	-3.561953e+02
2.900000e-06	-3.848781e-06	-5.539249e-09	-2.752120e+01	-3.627187e+02
2.910000e-06	-3.919173e-06	-5.635700e-09	-2.802455e+01	-3.689495e+02
2.920000e-06	-3.987985e-06	-5.725868e-09	-2.851659e+01	-3.749106e+02
2.930000e-06	-4.055355e-06	-5.811050e-09	-2.899833e+01	-3.806269e+02
2.940000e-06	-4.121297e-06	-5.894770e-09	-2.946986e+01	-3.861229e+02
