# Temperatura_=_41.8
# Concentracion g/m^3_=_15000.0
# C_Vs_to_Am_M_A/Vsm_=_65563218390.804596
# pendiente_HvsI_1/m_=_3716.3
# ordenada_HvsI_A/m_=_1297.0
# frecuencia_Hz_=_301593.9099460452

Tiempo_(s)	Campo_(V.s)	Magnetizacion_(V.s)	Campo_(kA/m)	Magnetizacion_(A/m)
0.000000e+00	-5.361917e-06	-5.933173e-09	-3.833645e+01	-3.878155e+02
1.000000e-08	-5.359251e-06	-5.931177e-09	-3.831739e+01	-3.876325e+02
2.000000e-08	-5.354742e-06	-5.925312e-09	-3.828515e+01	-3.873611e+02
3.000000e-08	-5.348641e-06	-5.917035e-09	-3.824153e+01	-3.870044e+02
4.000000e-08	-5.340987e-06	-5.908829e-09	-3.818680e+01	-3.865672e+02
5.000000e-08	-5.331490e-06	-5.900853e-09	-3.811890e+01	-3.860562e+02
6.000000e-08	-5.319995e-06	-5.893509e-09	-3.803672e+01	-3.854792e+02
7.000000e-08	-5.306627e-06	-5.886333e-09	-3.794114e+01	-3.848443e+02
8.000000e-08	-5.291153e-06	-5.874218e-09	-3.783051e+01	-3.841595e+02
9.000000e-08	-5.273393e-06	-5.885130e-09	-3.770353e+01	-3.834312e+02
1.000000e-07	-5.253603e-06	-5.891897e-09	-3.756203e+01	-3.826637e+02
1.100000e-07	-5.231981e-06	-5.857836e-09	-3.740744e+01	-3.818588e+02
1.200000e-07	-5.208648e-06	-5.827476e-09	-3.724061e+01	-3.810153e+02
1.300000e-07	-5.183781e-06	-5.798339e-09	-3.706282e+01	-3.801290e+02
1.400000e-07	-5.157308e-06	-5.746037e-09	-3.687354e+01	-3.791937e+02
1.500000e-07	-5.129204e-06	-5.794420e-09	-3.667261e+01	-3.782014e+02
1.600000e-07	-5.099641e-06	-5.795198e-09	-3.646124e+01	-3.771432e+02
1.700000e-07	-5.068518e-06	-5.743856e-09	-3.623871e+01	-3.760105e+02
1.800000e-07	-5.035322e-06	-5.778808e-09	-3.600137e+01	-3.747959e+02
1.900000e-07	-5.000176e-06	-5.696651e-09	-3.575009e+01	-3.734937e+02
2.000000e-07	-4.963549e-06	-5.622944e-09	-3.548821e+01	-3.721007e+02
2.100000e-07	-4.925214e-06	-5.650964e-09	-3.521413e+01	-3.706158e+02
2.200000e-07	-4.885164e-06	-5.613430e-09	-3.492778e+01	-3.690404e+02
2.300000e-07	-4.843223e-06	-5.601011e-09	-3.462791e+01	-3.673776e+02
2.400000e-07	-4.799331e-06	-5.593999e-09	-3.431409e+01	-3.656318e+02
2.500000e-07	-4.753704e-06	-5.530761e-09	-3.398787e+01	-3.638077e+02
2.600000e-07	-4.706242e-06	-5.524314e-09	-3.364853e+01	-3.619096e+02
2.700000e-07	-4.656699e-06	-5.495771e-09	-3.329431e+01	-3.599409e+02
2.800000e-07	-4.605012e-06	-5.471651e-09	-3.292476e+01	-3.579038e+02
2.900000e-07	-4.551428e-06	-5.436994e-09	-3.254164e+01	-3.557987e+02
3.000000e-07	-4.496250e-06	-5.371614e-09	-3.214714e+01	-3.536246e+02
3.100000e-07	-4.439497e-06	-5.350879e-09	-3.174137e+01	-3.513793e+02
3.200000e-07	-4.380929e-06	-5.332791e-09	-3.132261e+01	-3.490599e+02
3.300000e-07	-4.320700e-06	-5.298372e-09	-3.089199e+01	-3.466632e+02
3.400000e-07	-4.259000e-06	-5.243177e-09	-3.045085e+01	-3.441862e+02
3.500000e-07	-4.195954e-06	-5.193298e-09	-3.000009e+01	-3.416266e+02
3.600000e-07	-4.131485e-06	-5.162895e-09	-2.953915e+01	-3.389829e+02
3.700000e-07	-4.065254e-06	-5.126183e-09	-2.906561e+01	-3.362547e+02
3.800000e-07	-3.997453e-06	-5.095602e-09	-2.858085e+01	-3.334420e+02
3.900000e-07	-3.928336e-06	-5.048381e-09	-2.808668e+01	-3.305456e+02
4.000000e-07	-3.857915e-06	-4.982607e-09	-2.758319e+01	-3.275663e+02
4.100000e-07	-3.786349e-06	-4.932481e-09	-2.707151e+01	-3.245043e+02
4.200000e-07	-3.713467e-06	-4.889426e-09	-2.655042e+01	-3.213593e+02
4.300000e-07	-3.638934e-06	-4.859625e-09	-2.601752e+01	-3.181302e+02
4.400000e-07	-3.562871e-06	-4.818471e-09	-2.547369e+01	-3.148146e+02
4.500000e-07	-3.485460e-06	-4.763768e-09	-2.492022e+01	-3.114096e+02
4.600000e-07	-3.406602e-06	-4.698446e-09	-2.435640e+01	-3.079112e+02
4.700000e-07	-3.326345e-06	-4.636565e-09	-2.378259e+01	-3.043156e+02
4.800000e-07	-3.244921e-06	-4.589160e-09	-2.320042e+01	-3.006191e+02
4.900000e-07	-3.162333e-06	-4.528694e-09	-2.260994e+01	-2.968184e+02
5.000000e-07	-3.078717e-06	-4.464046e-09	-2.201211e+01	-2.929114e+02
5.100000e-07	-2.994249e-06	-4.396343e-09	-2.140818e+01	-2.888968e+02
5.200000e-07	-2.908837e-06	-4.334509e-09	-2.079750e+01	-2.847744e+02
5.300000e-07	-2.822393e-06	-4.277933e-09	-2.017945e+01	-2.805451e+02
5.400000e-07	-2.735034e-06	-4.219909e-09	-1.955485e+01	-2.762100e+02
5.500000e-07	-2.646861e-06	-4.152580e-09	-1.892443e+01	-2.717704e+02
5.600000e-07	-2.557518e-06	-4.072513e-09	-1.828565e+01	-2.672274e+02
5.700000e-07	-2.466888e-06	-3.995697e-09	-1.763767e+01	-2.625812e+02
5.800000e-07	-2.375379e-06	-3.928503e-09	-1.698340e+01	-2.578311e+02
5.900000e-07	-2.283177e-06	-3.861007e-09	-1.632418e+01	-2.529756e+02
6.000000e-07	-2.190156e-06	-3.779821e-09	-1.565910e+01	-2.480117e+02
6.100000e-07	-2.096319e-06	-3.696660e-09	-1.498819e+01	-2.429363e+02
6.200000e-07	-2.001745e-06	-3.616165e-09	-1.431201e+01	-2.377453e+02
6.300000e-07	-1.906468e-06	-3.536086e-09	-1.363080e+01	-2.324353e+02
6.400000e-07	-1.810636e-06	-3.459406e-09	-1.294563e+01	-2.270030e+02
6.500000e-07	-1.714255e-06	-3.383140e-09	-1.225652e+01	-2.214458e+02
6.600000e-07	-1.617114e-06	-3.296650e-09	-1.156199e+01	-2.157624e+02
6.700000e-07	-1.519129e-06	-3.197355e-09	-1.086142e+01	-2.099523e+02
6.800000e-07	-1.420392e-06	-3.099297e-09	-1.015547e+01	-2.040154e+02
6.900000e-07	-1.321093e-06	-3.008983e-09	-9.445503e+00	-1.979524e+02
7.000000e-07	-1.221436e-06	-2.920392e-09	-8.732979e+00	-1.917635e+02
7.100000e-07	-1.121509e-06	-2.824922e-09	-8.018527e+00	-1.854485e+02
7.200000e-07	-1.021331e-06	-2.723570e-09	-7.302281e+00	-1.790061e+02
7.300000e-07	-9.208952e-07	-2.620999e-09	-6.584185e+00	-1.724334e+02
7.400000e-07	-8.201687e-07	-2.520646e-09	-5.864014e+00	-1.657262e+02
7.500000e-07	-7.191401e-07	-2.422256e-09	-5.141683e+00	-1.588787e+02
7.600000e-07	-6.178699e-07	-2.319297e-09	-4.417625e+00	-1.518839e+02
7.700000e-07	-5.163805e-07	-2.207610e-09	-3.692000e+00	-1.447340e+02
7.800000e-07	-4.146405e-07	-2.090023e-09	-2.964582e+00	-1.374207e+02
7.900000e-07	-3.127402e-07	-1.973727e-09	-2.236019e+00	-1.299362e+02
8.000000e-07	-2.107696e-07	-1.860129e-09	-1.506953e+00	-1.222728e+02
8.100000e-07	-1.087219e-07	-1.745295e-09	-7.773359e-01	-1.144242e+02
8.200000e-07	-6.638482e-09	-1.622578e-09	-4.746359e-02	-1.063844e+02
8.300000e-07	9.547286e-08	-1.492871e-09	6.826086e-01	-9.814853e+01
8.400000e-07	1.976125e-07	-1.361700e-09	1.412883e+00	-8.971207e+01
8.500000e-07	2.997231e-07	-1.232155e-09	2.142950e+00	-8.107048e+01
8.600000e-07	4.017312e-07	-1.101104e-09	2.872284e+00	-7.221886e+01
8.700000e-07	5.036161e-07	-9.617831e-10	3.600737e+00	-6.315165e+01
8.800000e-07	6.053844e-07	-8.158412e-10	4.328356e+00	-5.386251e+01
8.900000e-07	7.069771e-07	-6.670872e-10	5.054721e+00	-4.434455e+01
9.000000e-07	8.082874e-07	-5.165546e-10	5.779065e+00	-3.459082e+01
9.100000e-07	9.092375e-07	-3.634661e-10	6.500835e+00	-2.459521e+01
9.200000e-07	1.009870e-06	-2.081190e-10	7.220335e+00	-1.435358e+01
9.300000e-07	1.110224e-06	-4.752777e-11	7.937841e+00	-3.865040e+00
9.400000e-07	1.210262e-06	1.189009e-10	8.653092e+00	6.866703e+00
9.500000e-07	1.309951e-06	2.876494e-10	9.365844e+00	1.783213e+01
9.600000e-07	1.409196e-06	4.574728e-10	1.007542e+01	2.901501e+01
9.700000e-07	1.507798e-06	6.296851e-10	1.078040e+01	4.039185e+01
9.800000e-07	1.605702e-06	8.066570e-10	1.148039e+01	5.193195e+01
9.900000e-07	1.702905e-06	9.876923e-10	1.217537e+01	6.359790e+01
1.000000e-06	1.799318e-06	1.167862e-09	1.286470e+01	7.534664e+01
1.010000e-06	1.894989e-06	1.345631e-09	1.354873e+01	8.713096e+01
1.020000e-06	1.990022e-06	1.521967e-09	1.422819e+01	9.890128e+01
1.030000e-06	2.084379e-06	1.697887e-09	1.490282e+01	1.106076e+02
1.040000e-06	2.177981e-06	1.874399e-09	1.557206e+01	1.222011e+02
1.050000e-06	2.270829e-06	2.049939e-09	1.623590e+01	1.336364e+02
1.060000e-06	2.362981e-06	2.223013e-09	1.689476e+01	1.448722e+02
1.070000e-06	2.454371e-06	2.391008e-09	1.754818e+01	1.558726e+02
1.080000e-06	2.544814e-06	2.554554e-09	1.819482e+01	1.666072e+02
1.090000e-06	2.634163e-06	2.715186e-09	1.883364e+01	1.770515e+02
1.100000e-06	2.722427e-06	2.870979e-09	1.946471e+01	1.871862e+02
1.110000e-06	2.809731e-06	3.019613e-09	2.008892e+01	1.969968e+02
1.120000e-06	2.896189e-06	3.161685e-09	2.070707e+01	2.064729e+02
1.130000e-06	2.981720e-06	3.298894e-09	2.131860e+01	2.156075e+02
1.140000e-06	3.066330e-06	3.432177e-09	2.192354e+01	2.243964e+02
1.150000e-06	3.150047e-06	3.560528e-09	2.252209e+01	2.328380e+02
1.160000e-06	3.232738e-06	3.683421e-09	2.311332e+01	2.409334e+02
1.170000e-06	3.314270e-06	3.799073e-09	2.369626e+01	2.486858e+02
1.180000e-06	3.394517e-06	3.908409e-09	2.427000e+01	2.561012e+02
1.190000e-06	3.473467e-06	4.014747e-09	2.483447e+01	2.631885e+02
1.200000e-06	3.551216e-06	4.118429e-09	2.539036e+01	2.699596e+02
1.210000e-06	3.627771e-06	4.217988e-09	2.593771e+01	2.764290e+02
1.220000e-06	3.702912e-06	4.312373e-09	2.647495e+01	2.826137e+02
1.230000e-06	3.776516e-06	4.399958e-09	2.700121e+01	2.885329e+02
1.240000e-06	3.848581e-06	4.482756e-09	2.751645e+01	2.942063e+02
1.250000e-06	3.919193e-06	4.563823e-09	2.802131e+01	2.996537e+02
1.260000e-06	3.988466e-06	4.644077e-09	2.851659e+01	3.048937e+02
1.270000e-06	4.056398e-06	4.722252e-09	2.900230e+01	3.099426e+02
1.280000e-06	4.122868e-06	4.797171e-09	2.947754e+01	3.148132e+02
1.290000e-06	4.187685e-06	4.870997e-09	2.994097e+01	3.195147e+02
1.300000e-06	4.250900e-06	4.941178e-09	3.039294e+01	3.240522e+02
1.310000e-06	4.312673e-06	5.007549e-09	3.083460e+01	3.284268e+02
1.320000e-06	4.373078e-06	5.070698e-09	3.126648e+01	3.326365e+02
1.330000e-06	4.432110e-06	5.130261e-09	3.168855e+01	3.366770e+02
1.340000e-06	4.489456e-06	5.186706e-09	3.209855e+01	3.405427e+02
1.350000e-06	4.545014e-06	5.240689e-09	3.249578e+01	3.442283e+02
1.360000e-06	4.598974e-06	5.291596e-09	3.288158e+01	3.477294e+02
1.370000e-06	4.651179e-06	5.338988e-09	3.325484e+01	3.510439e+02
1.380000e-06	4.701402e-06	5.383688e-09	3.361392e+01	3.541725e+02
1.390000e-06	4.749675e-06	5.427889e-09	3.395906e+01	3.571185e+02
1.400000e-06	4.796224e-06	5.470537e-09	3.429188e+01	3.598882e+02
1.410000e-06	4.841228e-06	5.508422e-09	3.461365e+01	3.624899e+02
1.420000e-06	4.884649e-06	5.543459e-09	3.492410e+01	3.649333e+02
1.430000e-06	4.926273e-06	5.575136e-09	3.522169e+01	3.672285e+02
1.440000e-06	4.966019e-06	5.604751e-09	3.550587e+01	3.693852e+02
1.450000e-06	5.004065e-06	5.633164e-09	3.577789e+01	3.714120e+02
1.460000e-06	5.040544e-06	5.659922e-09	3.603871e+01	3.733154e+02
1.470000e-06	5.075316e-06	5.686924e-09	3.628732e+01	3.751001e+02
1.480000e-06	5.108150e-06	5.711753e-09	3.652207e+01	3.767689e+02
1.490000e-06	5.139150e-06	5.734562e-09	3.674372e+01	3.783231e+02
1.500000e-06	5.168470e-06	5.755139e-09	3.695335e+01	3.797627e+02
1.510000e-06	5.196122e-06	5.773463e-09	3.715105e+01	3.810877e+02
1.520000e-06	5.221834e-06	5.791097e-09	3.733489e+01	3.822983e+02
1.530000e-06	5.245473e-06	5.807337e-09	3.750390e+01	3.833953e+02
1.540000e-06	5.267265e-06	5.822559e-09	3.765971e+01	3.843808e+02
1.550000e-06	5.287348e-06	5.836453e-09	3.780330e+01	3.852582e+02
1.560000e-06	5.305540e-06	5.848614e-09	3.793337e+01	3.860317e+02
1.570000e-06	5.321710e-06	5.858702e-09	3.804898e+01	3.867060e+02
1.580000e-06	5.335948e-06	5.867280e-09	3.815078e+01	3.872861e+02
1.590000e-06	5.348156e-06	5.876714e-09	3.823806e+01	3.877762e+02
1.600000e-06	5.358159e-06	5.885925e-09	3.830958e+01	3.881797e+02
1.610000e-06	5.366069e-06	5.892592e-09	3.836613e+01	3.884985e+02
1.620000e-06	5.372134e-06	5.896500e-09	3.840950e+01	3.887334e+02
1.630000e-06	5.376456e-06	5.899045e-09	3.844040e+01	3.888835e+02
1.640000e-06	5.378853e-06	5.901165e-09	3.845753e+01	3.889475e+02
1.650000e-06	5.379197e-06	5.903030e-09	3.846000e+01	3.889235e+02
1.660000e-06	5.377751e-06	5.904019e-09	3.844966e+01	3.888105e+02
1.670000e-06	5.374711e-06	5.899900e-09	3.842792e+01	3.886081e+02
1.680000e-06	5.370049e-06	5.896491e-09	3.839459e+01	3.883179e+02
1.690000e-06	5.363498e-06	5.893393e-09	3.834775e+01	3.879431e+02
1.700000e-06	5.355086e-06	5.888313e-09	3.828761e+01	3.874892e+02
1.710000e-06	5.345092e-06	5.882249e-09	3.821616e+01	3.869631e+02
1.720000e-06	5.333411e-06	5.874927e-09	3.813264e+01	3.863727e+02
1.730000e-06	5.319771e-06	5.869517e-09	3.803512e+01	3.857262e+02
1.740000e-06	5.304101e-06	5.836934e-09	3.792308e+01	3.850313e+02
1.750000e-06	5.286117e-06	5.798278e-09	3.779450e+01	3.842940e+02
1.760000e-06	5.265449e-06	5.806834e-09	3.764673e+01	3.835182e+02
1.770000e-06	5.242473e-06	5.804677e-09	3.748245e+01	3.827049e+02
1.780000e-06	5.218163e-06	5.821036e-09	3.730864e+01	3.818523e+02
1.790000e-06	5.193085e-06	5.828279e-09	3.712934e+01	3.809559e+02
1.800000e-06	5.166676e-06	5.715486e-09	3.694052e+01	3.800088e+02
1.810000e-06	5.138091e-06	5.740279e-09	3.673615e+01	3.790028e+02
1.820000e-06	5.107613e-06	5.757853e-09	3.651824e+01	3.779290e+02
1.830000e-06	5.075551e-06	5.665941e-09	3.628900e+01	3.767791e+02
1.840000e-06	5.041566e-06	5.766167e-09	3.604601e+01	3.755458e+02
1.850000e-06	5.005920e-06	5.775476e-09	3.579116e+01	3.742241e+02
1.860000e-06	4.968545e-06	5.688086e-09	3.552393e+01	3.728111e+02
1.870000e-06	4.929235e-06	5.718512e-09	3.524287e+01	3.713063e+02
1.880000e-06	4.888288e-06	5.616233e-09	3.495012e+01	3.697116e+02
1.890000e-06	4.845580e-06	5.589560e-09	3.464476e+01	3.680304e+02
1.900000e-06	4.801222e-06	5.625244e-09	3.432761e+01	3.662671e+02
1.910000e-06	4.755048e-06	5.538506e-09	3.399748e+01	3.644265e+02
1.920000e-06	4.706764e-06	5.566434e-09	3.365226e+01	3.625127e+02
1.930000e-06	4.656886e-06	5.499365e-09	3.329565e+01	3.605290e+02
1.940000e-06	4.605379e-06	5.447696e-09	3.292738e+01	3.584770e+02
1.950000e-06	4.551719e-06	5.490575e-09	3.254373e+01	3.563569e+02
1.960000e-06	4.496096e-06	5.413863e-09	3.214603e+01	3.541675e+02
1.970000e-06	4.438865e-06	5.377013e-09	3.173685e+01	3.519063e+02
1.980000e-06	4.380183e-06	5.318739e-09	3.131728e+01	3.495703e+02
1.990000e-06	4.320064e-06	5.299832e-09	3.088744e+01	3.471563e+02
2.000000e-06	4.258214e-06	5.304856e-09	3.044523e+01	3.446615e+02
2.010000e-06	4.194662e-06	5.220839e-09	2.999085e+01	3.420837e+02
2.020000e-06	4.129682e-06	5.208938e-09	2.952625e+01	3.394216e+02
2.030000e-06	4.063283e-06	5.140941e-09	2.905152e+01	3.366750e+02
2.040000e-06	3.995520e-06	5.082256e-09	2.856703e+01	3.338440e+02
2.050000e-06	3.926373e-06	5.063211e-09	2.807265e+01	3.309295e+02
2.060000e-06	3.855588e-06	5.022961e-09	2.756655e+01	3.279321e+02
2.070000e-06	3.783305e-06	5.005001e-09	2.704975e+01	3.248521e+02
2.080000e-06	3.709821e-06	4.909510e-09	2.652435e+01	3.216890e+02
2.090000e-06	3.635031e-06	4.847436e-09	2.598962e+01	3.184413e+02
2.100000e-06	3.558805e-06	4.808454e-09	2.544462e+01	3.151065e+02
2.110000e-06	3.480956e-06	4.766210e-09	2.488802e+01	3.116815e+02
2.120000e-06	3.401665e-06	4.724030e-09	2.432110e+01	3.081623e+02
2.130000e-06	3.321289e-06	4.655900e-09	2.374644e+01	3.045452e+02
2.140000e-06	3.239799e-06	4.613214e-09	2.316380e+01	3.008262e+02
2.150000e-06	3.157169e-06	4.541845e-09	2.257302e+01	2.970026e+02
2.160000e-06	3.073544e-06	4.486659e-09	2.197512e+01	2.930723e+02
2.170000e-06	2.988963e-06	4.436925e-09	2.137038e+01	2.890343e+02
2.180000e-06	2.903014e-06	4.364863e-09	2.075587e+01	2.848887e+02
2.190000e-06	2.815726e-06	4.284353e-09	2.013178e+01	2.806363e+02
2.200000e-06	2.727536e-06	4.209854e-09	1.950124e+01	2.762784e+02
2.210000e-06	2.638462e-06	4.165149e-09	1.886438e+01	2.718163e+02
2.220000e-06	2.548424e-06	4.106240e-09	1.822063e+01	2.672508e+02
2.230000e-06	2.457476e-06	4.031326e-09	1.757038e+01	2.625822e+02
2.240000e-06	2.365821e-06	3.952354e-09	1.691506e+01	2.578094e+02
2.250000e-06	2.273523e-06	3.877378e-09	1.625516e+01	2.529306e+02
2.260000e-06	2.180434e-06	3.797699e-09	1.558959e+01	2.479429e+02
2.270000e-06	2.086242e-06	3.722773e-09	1.491614e+01	2.428427e+02
2.280000e-06	1.990931e-06	3.650432e-09	1.423469e+01	2.376263e+02
2.290000e-06	1.894864e-06	3.562853e-09	1.354783e+01	2.322900e+02
2.300000e-06	1.798341e-06	3.468430e-09	1.285771e+01	2.268308e+02
2.310000e-06	1.701424e-06	3.380731e-09	1.216478e+01	2.212464e+02
2.320000e-06	1.603953e-06	3.307213e-09	1.146788e+01	2.155356e+02
2.330000e-06	1.505892e-06	3.227973e-09	1.076677e+01	2.096979e+02
2.340000e-06	1.407286e-06	3.135611e-09	1.006176e+01	2.037337e+02
2.350000e-06	1.308191e-06	3.036076e-09	9.353258e+00	1.976434e+02
2.360000e-06	1.208750e-06	2.936656e-09	8.642281e+00	1.914272e+02
2.370000e-06	1.109142e-06	2.839260e-09	7.930103e+00	1.850848e+02
2.380000e-06	1.009288e-06	2.744971e-09	7.216176e+00	1.786145e+02
2.390000e-06	9.090776e-07	2.647159e-09	6.499692e+00	1.720131e+02
2.400000e-06	8.085436e-07	2.539559e-09	5.780897e+00	1.652761e+02
2.410000e-06	7.076687e-07	2.430901e-09	5.059665e+00	1.583974e+02
2.420000e-06	6.066027e-07	2.324654e-09	4.337067e+00	1.513697e+02
2.430000e-06	5.053252e-07	2.220901e-09	3.612957e+00	1.441852e+02
2.440000e-06	4.037669e-07	2.111646e-09	2.886839e+00	1.368356e+02
2.450000e-06	3.020518e-07	1.990904e-09	2.159599e+00	1.293130e+02
2.460000e-06	2.002027e-07	1.863660e-09	1.431402e+00	1.216102e+02
2.470000e-06	9.824381e-08	1.739176e-09	7.024202e-01	1.137207e+02
2.480000e-06	-3.818594e-09	1.619268e-09	-2.730205e-02	1.056390e+02
2.490000e-06	-1.059165e-07	1.499450e-09	-7.572780e-01	9.736028e+01
2.500000e-06	-2.079462e-07	1.372994e-09	-1.486767e+00	8.887996e+01
2.510000e-06	-3.098820e-07	1.238788e-09	-2.215584e+00	8.019350e+01
2.520000e-06	-4.117596e-07	1.103110e-09	-2.943985e+00	7.129589e+01
2.530000e-06	-5.135086e-07	9.664100e-10	-3.671466e+00	6.218139e+01
2.540000e-06	-6.149739e-07	8.273616e-10	-4.396919e+00	5.284352e+01
2.550000e-06	-7.161437e-07	6.824978e-10	-5.120259e+00	4.327531e+01
2.560000e-06	-8.170332e-07	5.284647e-10	-5.841596e+00	3.346993e+01
2.570000e-06	-9.176031e-07	3.698908e-10	-6.560647e+00	2.342157e+01
2.580000e-06	-1.017823e-06	2.140942e-10	-7.277195e+00	1.312668e+01
2.590000e-06	-1.117654e-06	6.077906e-11	-7.990963e+00	2.585236e+00
2.600000e-06	-1.217105e-06	-9.711804e-11	-8.702017e+00	-8.197892e+00
2.610000e-06	-1.316175e-06	-2.649401e-10	-9.410344e+00	-1.921182e+01
2.620000e-06	-1.414810e-06	-4.374591e-10	-1.011556e+01	-3.043878e+01
2.630000e-06	-1.512912e-06	-6.111685e-10	-1.081697e+01	-4.185372e+01
2.640000e-06	-1.610470e-06	-7.870472e-10	-1.151448e+01	-5.342444e+01
2.650000e-06	-1.707503e-06	-9.651676e-10	-1.220825e+01	-6.511221e+01
2.660000e-06	-1.804012e-06	-1.147767e-09	-1.289826e+01	-7.687295e+01
2.670000e-06	-1.900022e-06	-1.333468e-09	-1.358471e+01	-8.865878e+01
2.680000e-06	-1.995419e-06	-1.516491e-09	-1.426677e+01	-1.004199e+02
2.690000e-06	-2.090009e-06	-1.693394e-09	-1.494308e+01	-1.121063e+02
2.700000e-06	-2.183657e-06	-1.865765e-09	-1.561264e+01	-1.236700e+02
2.710000e-06	-2.276366e-06	-2.036958e-09	-1.627548e+01	-1.350661e+02
2.720000e-06	-2.368186e-06	-2.209025e-09	-1.693197e+01	-1.462546e+02
2.730000e-06	-2.459179e-06	-2.376530e-09	-1.758255e+01	-1.572006e+02
2.740000e-06	-2.549323e-06	-2.537150e-09	-1.822706e+01	-1.678752e+02
2.750000e-06	-2.638584e-06	-2.692954e-09	-1.886526e+01	-1.782549e+02
2.760000e-06	-2.726979e-06	-2.844929e-09	-1.949726e+01	-1.883215e+02
2.770000e-06	-2.814468e-06	-2.996195e-09	-2.012279e+01	-1.980615e+02
2.780000e-06	-2.901011e-06	-3.145329e-09	-2.074155e+01	-2.074652e+02
2.790000e-06	-2.986456e-06	-3.285283e-09	-2.135246e+01	-2.165262e+02
2.800000e-06	-3.070714e-06	-3.414171e-09	-2.195489e+01	-2.252410e+02
2.810000e-06	-3.153918e-06	-3.538139e-09	-2.254977e+01	-2.336086e+02
2.820000e-06	-3.236106e-06	-3.661946e-09	-2.313740e+01	-2.416304e+02
2.830000e-06	-3.317264e-06	-3.783169e-09	-2.371766e+01	-2.493103e+02
2.840000e-06	-3.397321e-06	-3.898665e-09	-2.429005e+01	-2.566548e+02
2.850000e-06	-3.476085e-06	-4.008944e-09	-2.485319e+01	-2.636736e+02
2.860000e-06	-3.553302e-06	-4.112577e-09	-2.540528e+01	-2.703790e+02
2.870000e-06	-3.629036e-06	-4.209296e-09	-2.594676e+01	-2.767862e+02
2.880000e-06	-3.703431e-06	-4.303338e-09	-2.647867e+01	-2.829127e+02
2.890000e-06	-3.776470e-06	-4.394305e-09	-2.700088e+01	-2.887777e+02
2.900000e-06	-3.848247e-06	-4.479305e-09	-2.751407e+01	-2.944014e+02
2.910000e-06	-3.918634e-06	-4.559320e-09	-2.801732e+01	-2.998031e+02
2.920000e-06	-3.987422e-06	-4.638408e-09	-2.850913e+01	-3.050012e+02
2.930000e-06	-4.054745e-06	-4.717310e-09	-2.899047e+01	-3.100112e+02
2.940000e-06	-4.120739e-06	-4.792684e-09	-2.946232e+01	-3.148452e+02
