# Temperatura_=_73.33
# Concentracion g/m^3_=_15000.0
# C_Vs_to_Am_M_A/Vsm_=_65563218390.804596
# pendiente_HvsI_1/m_=_3716.3
# ordenada_HvsI_A/m_=_1297.0
# frecuencia_Hz_=_301582.6993856851

Tiempo_(s)	Campo_(V.s)	Magnetizacion_(V.s)	Campo_(kA/m)	Magnetizacion_(A/m)
0.000000e+00	-5.374494e-06	-7.246252e-09	-3.834716e+01	-4.729089e+02
1.000000e-08	-5.373109e-06	-7.242424e-09	-3.833727e+01	-4.728108e+02
2.000000e-08	-5.369816e-06	-7.235333e-09	-3.831378e+01	-4.726048e+02
3.000000e-08	-5.364855e-06	-7.227247e-09	-3.827839e+01	-4.722846e+02
4.000000e-08	-5.358286e-06	-7.218443e-09	-3.823151e+01	-4.718458e+02
5.000000e-08	-5.350111e-06	-7.207847e-09	-3.817318e+01	-4.712869e+02
6.000000e-08	-5.340068e-06	-7.197812e-09	-3.810153e+01	-4.706100e+02
7.000000e-08	-5.327966e-06	-7.186522e-09	-3.801518e+01	-4.698208e+02
8.000000e-08	-5.313934e-06	-7.175793e-09	-3.791506e+01	-4.689288e+02
9.000000e-08	-5.297770e-06	-7.187066e-09	-3.779973e+01	-4.679461e+02
1.000000e-07	-5.279397e-06	-7.188182e-09	-3.766864e+01	-4.668858e+02
1.100000e-07	-5.259048e-06	-7.154592e-09	-3.752345e+01	-4.657610e+02
1.200000e-07	-5.236812e-06	-7.117450e-09	-3.736479e+01	-4.645828e+02
1.300000e-07	-5.212898e-06	-7.056028e-09	-3.719417e+01	-4.633590e+02
1.400000e-07	-5.187454e-06	-7.020557e-09	-3.701262e+01	-4.620927e+02
1.500000e-07	-5.160391e-06	-7.070167e-09	-3.681953e+01	-4.607825e+02
1.600000e-07	-5.131741e-06	-7.029164e-09	-3.661511e+01	-4.594214e+02
1.700000e-07	-5.101652e-06	-6.986803e-09	-3.640042e+01	-4.579985e+02
1.800000e-07	-5.069918e-06	-7.009524e-09	-3.617400e+01	-4.564995e+02
1.900000e-07	-5.036018e-06	-6.938687e-09	-3.593212e+01	-4.549087e+02
2.000000e-07	-5.000350e-06	-6.919020e-09	-3.567763e+01	-4.532100e+02
2.100000e-07	-4.963248e-06	-6.921020e-09	-3.541291e+01	-4.513894e+02
2.200000e-07	-4.924351e-06	-6.827806e-09	-3.513537e+01	-4.494359e+02
2.300000e-07	-4.883604e-06	-6.790587e-09	-3.484465e+01	-4.473426e+02
2.400000e-07	-4.840886e-06	-6.785381e-09	-3.453985e+01	-4.451070e+02
2.500000e-07	-4.796272e-06	-6.754337e-09	-3.422153e+01	-4.427313e+02
2.600000e-07	-4.749909e-06	-6.740074e-09	-3.389072e+01	-4.402214e+02
2.700000e-07	-4.701637e-06	-6.664854e-09	-3.354630e+01	-4.375861e+02
2.800000e-07	-4.651284e-06	-6.598091e-09	-3.318703e+01	-4.348355e+02
2.900000e-07	-4.598851e-06	-6.581226e-09	-3.281292e+01	-4.319800e+02
3.000000e-07	-4.544601e-06	-6.552506e-09	-3.242585e+01	-4.290287e+02
3.100000e-07	-4.488858e-06	-6.512973e-09	-3.202812e+01	-4.259883e+02
3.200000e-07	-4.431433e-06	-6.461744e-09	-3.161839e+01	-4.228632e+02
3.300000e-07	-4.372140e-06	-6.387478e-09	-3.119533e+01	-4.196541e+02
3.400000e-07	-4.311288e-06	-6.315271e-09	-3.076116e+01	-4.163593e+02
3.500000e-07	-4.249027e-06	-6.290377e-09	-3.031692e+01	-4.129747e+02
3.600000e-07	-4.185426e-06	-6.260398e-09	-2.986313e+01	-4.094947e+02
3.700000e-07	-4.120313e-06	-6.186347e-09	-2.939854e+01	-4.059129e+02
3.800000e-07	-4.053514e-06	-6.121066e-09	-2.892193e+01	-4.022237e+02
3.900000e-07	-3.985203e-06	-6.067028e-09	-2.843453e+01	-3.984222e+02
4.000000e-07	-3.915502e-06	-6.007200e-09	-2.793721e+01	-3.945052e+02
4.100000e-07	-3.844549e-06	-5.944872e-09	-2.743096e+01	-3.904711e+02
4.200000e-07	-3.772448e-06	-5.878158e-09	-2.691652e+01	-3.863201e+02
4.300000e-07	-3.698962e-06	-5.809672e-09	-2.639219e+01	-3.820539e+02
4.400000e-07	-3.623844e-06	-5.739583e-09	-2.585623e+01	-3.776746e+02
4.500000e-07	-3.547164e-06	-5.683058e-09	-2.530911e+01	-3.731851e+02
4.600000e-07	-3.469087e-06	-5.631555e-09	-2.475203e+01	-3.685876e+02
4.700000e-07	-3.389646e-06	-5.559023e-09	-2.418521e+01	-3.638837e+02
4.800000e-07	-3.308938e-06	-5.460709e-09	-2.360936e+01	-3.590741e+02
4.900000e-07	-3.226997e-06	-5.370493e-09	-2.302471e+01	-3.541581e+02
5.000000e-07	-3.143907e-06	-5.307570e-09	-2.243186e+01	-3.491340e+02
5.100000e-07	-3.059879e-06	-5.240145e-09	-2.183231e+01	-3.439995e+02
5.200000e-07	-2.974972e-06	-5.162352e-09	-2.122651e+01	-3.387514e+02
5.300000e-07	-2.889104e-06	-5.075690e-09	-2.061383e+01	-3.333866e+02
5.400000e-07	-2.802188e-06	-4.977190e-09	-1.999369e+01	-3.279020e+02
5.500000e-07	-2.714426e-06	-4.887616e-09	-1.936750e+01	-3.222946e+02
5.600000e-07	-2.625747e-06	-4.810435e-09	-1.873478e+01	-3.165624e+02
5.700000e-07	-2.535800e-06	-4.728838e-09	-1.809300e+01	-3.107034e+02
5.800000e-07	-2.444725e-06	-4.631921e-09	-1.744318e+01	-3.047162e+02
5.900000e-07	-2.352872e-06	-4.530376e-09	-1.678781e+01	-2.985997e+02
6.000000e-07	-2.260252e-06	-4.437775e-09	-1.612696e+01	-2.923531e+02
6.100000e-07	-2.166817e-06	-4.346422e-09	-1.546029e+01	-2.859753e+02
6.200000e-07	-2.072600e-06	-4.246313e-09	-1.478806e+01	-2.794655e+02
6.300000e-07	-1.977670e-06	-4.142017e-09	-1.411073e+01	-2.728224e+02
6.400000e-07	-1.882186e-06	-4.035727e-09	-1.342944e+01	-2.660451e+02
6.500000e-07	-1.786092e-06	-3.929522e-09	-1.274381e+01	-2.591323e+02
6.600000e-07	-1.689183e-06	-3.827685e-09	-1.205236e+01	-2.520828e+02
6.700000e-07	-1.591457e-06	-3.721274e-09	-1.135509e+01	-2.448957e+02
6.800000e-07	-1.493020e-06	-3.602222e-09	-1.065274e+01	-2.375696e+02
6.900000e-07	-1.393981e-06	-3.477100e-09	-9.946091e+00	-2.301031e+02
7.000000e-07	-1.294446e-06	-3.359263e-09	-9.235909e+00	-2.224944e+02
7.100000e-07	-1.194544e-06	-3.249257e-09	-8.523101e+00	-2.147410e+02
7.200000e-07	-1.094366e-06	-3.135787e-09	-7.808332e+00	-2.068394e+02
7.300000e-07	-9.938854e-07	-3.012859e-09	-7.091399e+00	-1.987851e+02
7.400000e-07	-8.931202e-07	-2.883904e-09	-6.372436e+00	-1.905722e+02
7.500000e-07	-7.921206e-07	-2.751225e-09	-5.651802e+00	-1.821938e+02
7.600000e-07	-6.908377e-07	-2.618278e-09	-4.929145e+00	-1.736420e+02
7.700000e-07	-5.892468e-07	-2.487606e-09	-4.204291e+00	-1.649083e+02
7.800000e-07	-4.874562e-07	-2.353135e-09	-3.478013e+00	-1.559840e+02
7.900000e-07	-3.855588e-07	-2.210929e-09	-2.750972e+00	-1.468611e+02
8.000000e-07	-2.835333e-07	-2.063614e-09	-2.023017e+00	-1.375322e+02
8.100000e-07	-1.813364e-07	-1.917062e-09	-1.293840e+00	-1.279912e+02
8.200000e-07	-7.899326e-08	-1.771412e-09	-5.636190e-01	-1.182336e+02
8.300000e-07	2.345358e-08	-1.619593e-09	1.673419e-01	-1.082560e+02
8.400000e-07	1.259250e-07	-1.460526e-09	8.984780e-01	-9.805596e+01
8.500000e-07	2.282832e-07	-1.298050e-09	1.628807e+00	-8.763141e+01
8.600000e-07	3.305350e-07	-1.134733e-09	2.358376e+00	-7.698007e+01
8.700000e-07	4.327333e-07	-9.699439e-10	3.087563e+00	-6.609866e+01
8.800000e-07	5.348132e-07	-7.999019e-10	3.815906e+00	-5.498244e+01
8.900000e-07	6.367514e-07	-6.234194e-10	4.543238e+00	-4.362499e+01
9.000000e-07	7.385209e-07	-4.436821e-10	5.269366e+00	-3.201839e+01
9.100000e-07	8.399718e-07	-2.621017e-10	5.993221e+00	-2.015398e+01
9.200000e-07	9.410573e-07	-7.846258e-11	6.714469e+00	-8.023489e+00
9.300000e-07	1.041813e-06	1.070654e-10	7.433362e+00	4.379274e+00
9.400000e-07	1.142242e-06	2.973325e-10	8.149926e+00	1.705649e+01
9.500000e-07	1.242349e-06	4.936486e-10	8.864194e+00	3.000427e+01
9.600000e-07	1.342078e-06	6.929830e-10	9.575763e+00	4.321075e+01
9.700000e-07	1.441377e-06	8.933602e-10	1.028426e+01	5.665457e+01
9.800000e-07	1.540037e-06	1.096368e-09	1.098820e+01	7.030394e+01
9.900000e-07	1.637886e-06	1.304125e-09	1.168636e+01	8.411655e+01
1.000000e-06	1.734927e-06	1.515390e-09	1.237875e+01	9.804036e+01
1.010000e-06	1.831212e-06	1.727671e-09	1.306574e+01	1.120152e+02
1.020000e-06	1.926834e-06	1.939139e-09	1.374801e+01	1.259754e+02
1.030000e-06	2.021769e-06	2.148564e-09	1.442537e+01	1.398525e+02
1.040000e-06	2.116013e-06	2.355402e-09	1.509781e+01	1.535788e+02
1.050000e-06	2.209549e-06	2.557674e-09	1.576519e+01	1.670909e+02
1.060000e-06	2.302346e-06	2.755217e-09	1.642730e+01	1.803319e+02
1.070000e-06	2.394454e-06	2.949558e-09	1.708450e+01	1.932549e+02
1.080000e-06	2.485880e-06	3.139398e-09	1.773682e+01	2.058232e+02
1.090000e-06	2.576387e-06	3.322537e-09	1.838259e+01	2.180118e+02
1.100000e-06	2.665675e-06	3.501377e-09	1.901966e+01	2.298065e+02
1.110000e-06	2.753824e-06	3.677198e-09	1.964860e+01	2.412026e+02
1.120000e-06	2.841061e-06	3.846231e-09	2.027105e+01	2.522031e+02
1.130000e-06	2.927441e-06	4.007368e-09	2.088737e+01	2.628159e+02
1.140000e-06	3.012919e-06	4.163546e-09	2.149725e+01	2.730521e+02
1.150000e-06	3.097486e-06	4.315067e-09	2.210064e+01	2.829227e+02
1.160000e-06	3.181151e-06	4.460985e-09	2.269759e+01	2.924380e+02
1.170000e-06	3.263710e-06	4.601253e-09	2.328665e+01	3.016058e+02
1.180000e-06	3.344945e-06	4.736532e-09	2.386627e+01	3.104313e+02
1.190000e-06	3.424908e-06	4.865243e-09	2.443681e+01	3.189174e+02
1.200000e-06	3.503689e-06	4.986161e-09	2.499891e+01	3.270658e+02
1.210000e-06	3.581251e-06	5.101667e-09	2.555232e+01	3.348782e+02
1.220000e-06	3.657547e-06	5.212969e-09	2.609669e+01	3.423577e+02
1.230000e-06	3.732486e-06	5.320019e-09	2.663139e+01	3.495103e+02
1.240000e-06	3.805827e-06	5.422292e-09	2.715468e+01	3.563456e+02
1.250000e-06	3.877618e-06	5.519991e-09	2.766691e+01	3.628771e+02
1.260000e-06	3.948034e-06	5.615023e-09	2.816932e+01	3.691221e+02
1.270000e-06	4.017060e-06	5.708436e-09	2.866183e+01	3.751010e+02
1.280000e-06	4.084768e-06	5.798264e-09	2.914493e+01	3.808357e+02
1.290000e-06	4.150932e-06	5.882956e-09	2.961701e+01	3.863479e+02
1.300000e-06	4.215366e-06	5.962786e-09	3.007675e+01	3.916578e+02
1.310000e-06	4.278335e-06	6.038434e-09	3.052603e+01	3.967823e+02
1.320000e-06	4.339890e-06	6.112267e-09	3.096523e+01	4.017337e+02
1.330000e-06	4.400051e-06	6.185319e-09	3.139448e+01	4.065194e+02
1.340000e-06	4.458728e-06	6.255412e-09	3.181314e+01	4.111419e+02
1.350000e-06	4.515610e-06	6.321891e-09	3.221900e+01	4.155991e+02
1.360000e-06	4.570765e-06	6.386121e-09	3.261253e+01	4.198859e+02
1.370000e-06	4.624330e-06	6.448575e-09	3.299472e+01	4.239954e+02
1.380000e-06	4.676064e-06	6.508389e-09	3.336384e+01	4.279203e+02
1.390000e-06	4.725716e-06	6.565393e-09	3.371811e+01	4.316549e+02
1.400000e-06	4.773478e-06	6.619402e-09	3.405889e+01	4.351960e+02
1.410000e-06	4.819638e-06	6.668240e-09	3.438824e+01	4.385434e+02
1.420000e-06	4.864279e-06	6.712178e-09	3.470676e+01	4.417007e+02
1.430000e-06	4.907312e-06	6.754784e-09	3.501380e+01	4.446742e+02
1.440000e-06	4.948463e-06	6.796233e-09	3.530741e+01	4.474727e+02
1.450000e-06	4.987780e-06	6.836373e-09	3.558794e+01	4.501060e+02
1.460000e-06	5.025472e-06	6.874450e-09	3.585687e+01	4.525839e+02
1.470000e-06	5.061570e-06	6.909575e-09	3.611443e+01	4.549148e+02
1.480000e-06	5.095862e-06	6.943014e-09	3.635911e+01	4.571051e+02
1.490000e-06	5.128187e-06	6.973211e-09	3.658975e+01	4.591586e+02
1.500000e-06	5.158748e-06	6.999824e-09	3.680781e+01	4.610763e+02
1.510000e-06	5.187676e-06	7.023475e-09	3.701420e+01	4.628571e+02
1.520000e-06	5.214816e-06	7.044938e-09	3.720785e+01	4.644986e+02
1.530000e-06	5.239870e-06	7.066838e-09	3.738661e+01	4.659980e+02
1.540000e-06	5.262902e-06	7.088007e-09	3.755094e+01	4.673531e+02
1.550000e-06	5.284208e-06	7.106870e-09	3.770296e+01	4.685636e+02
1.560000e-06	5.303792e-06	7.123852e-09	3.784270e+01	4.696314e+02
1.570000e-06	5.321401e-06	7.138975e-09	3.796834e+01	4.705610e+02
1.580000e-06	5.336999e-06	7.151370e-09	3.807963e+01	4.713591e+02
1.590000e-06	5.350704e-06	7.162101e-09	3.817741e+01	4.720343e+02
1.600000e-06	5.362359e-06	7.172642e-09	3.826057e+01	4.725958e+02
1.610000e-06	5.371789e-06	7.181056e-09	3.832786e+01	4.730524e+02
1.620000e-06	5.379178e-06	7.187156e-09	3.838058e+01	4.734112e+02
1.630000e-06	5.384748e-06	7.191363e-09	3.842032e+01	4.736772e+02
1.640000e-06	5.388524e-06	7.194710e-09	3.844726e+01	4.738520e+02
1.650000e-06	5.390309e-06	7.197542e-09	3.846000e+01	4.739342e+02
1.660000e-06	5.390106e-06	7.198109e-09	3.845855e+01	4.739199e+02
1.670000e-06	5.388169e-06	7.196003e-09	3.844473e+01	4.738031e+02
1.680000e-06	5.384656e-06	7.193432e-09	3.841966e+01	4.735770e+02
1.690000e-06	5.379384e-06	7.189052e-09	3.838205e+01	4.732359e+02
1.700000e-06	5.372151e-06	7.184050e-09	3.833044e+01	4.727757e+02
1.710000e-06	5.363195e-06	7.178049e-09	3.826654e+01	4.721954e+02
1.720000e-06	5.352697e-06	7.171375e-09	3.819164e+01	4.714978e+02
1.730000e-06	5.340472e-06	7.168951e-09	3.810441e+01	4.706895e+02
1.740000e-06	5.326254e-06	7.135602e-09	3.800296e+01	4.697803e+02
1.750000e-06	5.309912e-06	7.090944e-09	3.788636e+01	4.687827e+02
1.760000e-06	5.291096e-06	7.082818e-09	3.775211e+01	4.677100e+02
1.770000e-06	5.269581e-06	7.077510e-09	3.759860e+01	4.665749e+02
1.780000e-06	5.245992e-06	7.106200e-09	3.743029e+01	4.653880e+02
1.790000e-06	5.221348e-06	7.103631e-09	3.725445e+01	4.641565e+02
1.800000e-06	5.195979e-06	7.008490e-09	3.707345e+01	4.628827e+02
1.810000e-06	5.168951e-06	7.003365e-09	3.688060e+01	4.615639e+02
1.820000e-06	5.139647e-06	6.995025e-09	3.667152e+01	4.601927e+02
1.830000e-06	5.108682e-06	6.946481e-09	3.645058e+01	4.587573e+02
1.840000e-06	5.076003e-06	6.988711e-09	3.621742e+01	4.572431e+02
1.850000e-06	5.041426e-06	6.951248e-09	3.597071e+01	4.556341e+02
1.860000e-06	5.005293e-06	6.902961e-09	3.571290e+01	4.539146e+02
1.870000e-06	4.967256e-06	6.941651e-09	3.544150e+01	4.520709e+02
1.880000e-06	4.927404e-06	6.876607e-09	3.515716e+01	4.500928e+02
1.890000e-06	4.885926e-06	6.830877e-09	3.486121e+01	4.479740e+02
1.900000e-06	4.842609e-06	6.799375e-09	3.455215e+01	4.457131e+02
1.910000e-06	4.797684e-06	6.712682e-09	3.423160e+01	4.433129e+02
1.920000e-06	4.750826e-06	6.745637e-09	3.389727e+01	4.407799e+02
1.930000e-06	4.701995e-06	6.711360e-09	3.354886e+01	4.381233e+02
1.940000e-06	4.651615e-06	6.633299e-09	3.318939e+01	4.353532e+02
1.950000e-06	4.599342e-06	6.620016e-09	3.281642e+01	4.324799e+02
1.960000e-06	4.544978e-06	6.534095e-09	3.242854e+01	4.295122e+02
1.970000e-06	4.488786e-06	6.475151e-09	3.202760e+01	4.264565e+02
1.980000e-06	4.430999e-06	6.458465e-09	3.161529e+01	4.233163e+02
1.990000e-06	4.371813e-06	6.438822e-09	3.119300e+01	4.200921e+02
2.000000e-06	4.311049e-06	6.384982e-09	3.075945e+01	4.167816e+02
2.010000e-06	4.248549e-06	6.296373e-09	3.031351e+01	4.133804e+02
2.020000e-06	4.184479e-06	6.265326e-09	2.985637e+01	4.098826e+02
2.030000e-06	4.118917e-06	6.199920e-09	2.938858e+01	4.062821e+02
2.040000e-06	4.051966e-06	6.132163e-09	2.891088e+01	4.025731e+02
2.050000e-06	3.983620e-06	6.102355e-09	2.842323e+01	3.987511e+02
2.060000e-06	3.913752e-06	6.039659e-09	2.792472e+01	3.948132e+02
2.070000e-06	3.842379e-06	5.972193e-09	2.741548e+01	3.907581e+02
2.080000e-06	3.769655e-06	5.898131e-09	2.689659e+01	3.865864e+02
2.090000e-06	3.695602e-06	5.846728e-09	2.636822e+01	3.822998e+02
2.100000e-06	3.620190e-06	5.784546e-09	2.583015e+01	3.779006e+02
2.110000e-06	3.543284e-06	5.689404e-09	2.528142e+01	3.733916e+02
2.120000e-06	3.464808e-06	5.617738e-09	2.472150e+01	3.687750e+02
2.130000e-06	3.385119e-06	5.566241e-09	2.415291e+01	3.640522e+02
2.140000e-06	3.304345e-06	5.502948e-09	2.357659e+01	3.592236e+02
2.150000e-06	3.222394e-06	5.422970e-09	2.299187e+01	3.542884e+02
2.160000e-06	3.139401e-06	5.348074e-09	2.239971e+01	3.492448e+02
2.170000e-06	3.055491e-06	5.255340e-09	2.180101e+01	3.440902e+02
2.180000e-06	2.970353e-06	5.164792e-09	2.119355e+01	3.388215e+02
2.190000e-06	2.883811e-06	5.098736e-09	2.057607e+01	3.334355e+02
2.200000e-06	2.796178e-06	5.028293e-09	1.995081e+01	3.279291e+02
2.210000e-06	2.707620e-06	4.942799e-09	1.931894e+01	3.222996e+02
2.220000e-06	2.618158e-06	4.842950e-09	1.868063e+01	3.165448e+02
2.230000e-06	2.527747e-06	4.748948e-09	1.803554e+01	3.106630e+02
2.240000e-06	2.436483e-06	4.658972e-09	1.738437e+01	3.046527e+02
2.250000e-06	2.344540e-06	4.568054e-09	1.672836e+01	2.985131e+02
2.260000e-06	2.251787e-06	4.480826e-09	1.606656e+01	2.922431e+02
2.270000e-06	2.158099e-06	4.386732e-09	1.539810e+01	2.858418e+02
2.280000e-06	2.063412e-06	4.279529e-09	1.472250e+01	2.793082e+02
2.290000e-06	1.967816e-06	4.175044e-09	1.404042e+01	2.726412e+02
2.300000e-06	1.871551e-06	4.077817e-09	1.335357e+01	2.658397e+02
2.310000e-06	1.774798e-06	3.972294e-09	1.266323e+01	2.589026e+02
2.320000e-06	1.677554e-06	3.858686e-09	1.196939e+01	2.518286e+02
2.330000e-06	1.579735e-06	3.746385e-09	1.127145e+01	2.446167e+02
2.340000e-06	1.481366e-06	3.640490e-09	1.056958e+01	2.372656e+02
2.350000e-06	1.382515e-06	3.532369e-09	9.864283e+00	2.297738e+02
2.360000e-06	1.283306e-06	3.417166e-09	9.156422e+00	2.221395e+02
2.370000e-06	1.183830e-06	3.297436e-09	8.446659e+00	2.143599e+02
2.380000e-06	1.084089e-06	3.169605e-09	7.735005e+00	2.064314e+02
2.390000e-06	9.840461e-07	3.041259e-09	7.021195e+00	1.983492e+02
2.400000e-06	8.836105e-07	2.922886e-09	6.304584e+00	1.901073e+02
2.410000e-06	7.827133e-07	2.804947e-09	5.584680e+00	1.816985e+02
2.420000e-06	6.814724e-07	2.675324e-09	4.862324e+00	1.731148e+02
2.430000e-06	5.799459e-07	2.534706e-09	4.137929e+00	1.643476e+02
2.440000e-06	4.781540e-07	2.393613e-09	3.411642e+00	1.553884e+02
2.450000e-06	3.762064e-07	2.257311e-09	2.684242e+00	1.462292e+02
2.460000e-06	2.741113e-07	2.118686e-09	1.955791e+00	1.368628e+02
2.470000e-06	1.718270e-07	1.974697e-09	1.225990e+00	1.272834e+02
2.480000e-06	6.938748e-08	1.825744e-09	4.950815e-01	1.174867e+02
2.490000e-06	-3.310655e-08	1.671721e-09	-2.362161e-01	1.074695e+02
2.500000e-06	-1.355925e-07	1.517215e-09	-9.674563e-01	9.722948e+01
2.510000e-06	-2.380878e-07	1.363251e-09	-1.698763e+00	8.676460e+01
2.520000e-06	-3.404959e-07	1.203663e-09	-2.429447e+00	7.607243e+01
2.530000e-06	-4.427141e-07	1.036386e-09	-3.158777e+00	6.514945e+01
2.540000e-06	-5.447507e-07	8.624625e-10	-3.886810e+00	5.399064e+01
2.550000e-06	-6.465434e-07	6.880522e-10	-4.613104e+00	4.258928e+01
2.560000e-06	-7.480233e-07	5.153683e-10	-5.337166e+00	3.093727e+01
2.570000e-06	-8.491291e-07	3.358623e-10	-6.058559e+00	1.902588e+01
2.580000e-06	-9.498217e-07	1.477356e-10	-6.777003e+00	6.847107e+00
2.590000e-06	-1.050108e-06	-4.695594e-11	-7.492545e+00	-5.604682e+00
2.600000e-06	-1.149978e-06	-2.441722e-10	-8.205126e+00	-1.833073e+01
2.610000e-06	-1.249455e-06	-4.424984e-10	-8.914893e+00	-3.132586e+01
2.620000e-06	-1.348564e-06	-6.454526e-10	-9.622042e+00	-4.457662e+01
2.630000e-06	-1.447254e-06	-8.546421e-10	-1.032620e+01	-5.805980e+01
2.640000e-06	-1.545432e-06	-1.069015e-09	-1.102670e+01	-7.174175e+01
2.650000e-06	-1.643018e-06	-1.283635e-09	-1.172298e+01	-8.557833e+01
2.660000e-06	-1.740016e-06	-1.497461e-09	-1.241506e+01	-9.951590e+01
2.670000e-06	-1.836435e-06	-1.711310e-09	-1.310301e+01	-1.134931e+02
2.680000e-06	-1.932331e-06	-1.926754e-09	-1.378724e+01	-1.274435e+02
2.690000e-06	-2.027726e-06	-2.143834e-09	-1.446788e+01	-1.412986e+02
2.700000e-06	-2.122430e-06	-2.358001e-09	-1.514359e+01	-1.549912e+02
2.710000e-06	-2.216088e-06	-2.566099e-09	-1.581184e+01	-1.684588e+02
2.720000e-06	-2.308653e-06	-2.767736e-09	-1.647230e+01	-1.816462e+02
2.730000e-06	-2.400381e-06	-2.965111e-09	-1.712678e+01	-1.945082e+02
2.740000e-06	-2.491306e-06	-3.157939e-09	-1.777553e+01	-2.070102e+02
2.750000e-06	-2.581304e-06	-3.343645e-09	-1.841767e+01	-2.191293e+02
2.760000e-06	-2.670312e-06	-3.521833e-09	-1.905274e+01	-2.308529e+02
2.770000e-06	-2.758465e-06	-3.693866e-09	-1.968172e+01	-2.421780e+02
2.780000e-06	-2.845936e-06	-3.861871e-09	-2.030583e+01	-2.531086e+02
2.790000e-06	-2.932504e-06	-4.024754e-09	-2.092350e+01	-2.636534e+02
2.800000e-06	-3.017807e-06	-4.180151e-09	-2.153213e+01	-2.738235e+02
2.810000e-06	-3.101888e-06	-4.328116e-09	-2.213205e+01	-2.836300e+02
2.820000e-06	-3.184939e-06	-4.470186e-09	-2.272462e+01	-2.930828e+02
2.830000e-06	-3.266988e-06	-4.607862e-09	-2.331005e+01	-3.021892e+02
2.840000e-06	-3.347939e-06	-4.742935e-09	-2.388763e+01	-3.109539e+02
2.850000e-06	-3.427853e-06	-4.875785e-09	-2.445782e+01	-3.193797e+02
2.860000e-06	-3.506561e-06	-5.003276e-09	-2.501941e+01	-3.274679e+02
2.870000e-06	-3.583680e-06	-5.122298e-09	-2.556965e+01	-3.352206e+02
2.880000e-06	-3.659270e-06	-5.234645e-09	-2.610899e+01	-3.426413e+02
2.890000e-06	-3.733453e-06	-5.343443e-09	-2.663829e+01	-3.497364e+02
2.900000e-06	-3.806262e-06	-5.447664e-09	-2.715778e+01	-3.565164e+02
2.910000e-06	-3.877823e-06	-5.548092e-09	-2.766837e+01	-3.629953e+02
2.920000e-06	-3.947929e-06	-5.643989e-09	-2.816858e+01	-3.691913e+02
2.930000e-06	-4.016421e-06	-5.733878e-09	-2.865727e+01	-3.751250e+02
2.940000e-06	-4.083506e-06	-5.820110e-09	-2.913592e+01	-3.808184e+02
