# Temperatura_=_52.54
# Concentracion g/m^3_=_15000.0
# C_Vs_to_Am_M_A/Vsm_=_65563218390.804596
# pendiente_HvsI_1/m_=_3716.3
# ordenada_HvsI_A/m_=_1297.0
# frecuencia_Hz_=_301593.53385301126

Tiempo_(s)	Campo_(V.s)	Magnetizacion_(V.s)	Campo_(kA/m)	Magnetizacion_(A/m)
0.000000e+00	-5.371261e-06	-6.353077e-09	-3.833365e+01	-4.148971e+02
1.000000e-08	-5.368334e-06	-6.347919e-09	-3.831275e+01	-4.147449e+02
2.000000e-08	-5.363620e-06	-6.341836e-09	-3.827911e+01	-4.144855e+02
3.000000e-08	-5.357296e-06	-6.334926e-09	-3.823398e+01	-4.141163e+02
4.000000e-08	-5.349421e-06	-6.325774e-09	-3.817777e+01	-4.136385e+02
5.000000e-08	-5.339640e-06	-6.316729e-09	-3.810797e+01	-4.130579e+02
6.000000e-08	-5.327740e-06	-6.306477e-09	-3.802304e+01	-4.123843e+02
7.000000e-08	-5.314021e-06	-6.294698e-09	-3.792513e+01	-4.116311e+02
8.000000e-08	-5.298196e-06	-6.298268e-09	-3.781220e+01	-4.108137e+02
9.000000e-08	-5.280048e-06	-6.310435e-09	-3.768267e+01	-4.099481e+02
1.000000e-07	-5.259868e-06	-6.290267e-09	-3.753866e+01	-4.090487e+02
1.100000e-07	-5.237862e-06	-6.256694e-09	-3.738160e+01	-4.081268e+02
1.200000e-07	-5.214222e-06	-6.215627e-09	-3.721289e+01	-4.071887e+02
1.300000e-07	-5.189053e-06	-6.166808e-09	-3.703326e+01	-4.062351e+02
1.400000e-07	-5.162218e-06	-6.194885e-09	-3.684174e+01	-4.052604e+02
1.500000e-07	-5.133785e-06	-6.197437e-09	-3.663882e+01	-4.042534e+02
1.600000e-07	-5.103946e-06	-6.138051e-09	-3.642587e+01	-4.031984e+02
1.700000e-07	-5.072486e-06	-6.156126e-09	-3.620134e+01	-4.020764e+02
1.800000e-07	-5.038865e-06	-6.124382e-09	-3.596140e+01	-4.008676e+02
1.900000e-07	-5.003398e-06	-6.076006e-09	-3.570828e+01	-3.995529e+02
2.000000e-07	-4.966562e-06	-6.095469e-09	-3.544538e+01	-3.981163e+02
2.100000e-07	-4.927992e-06	-6.028649e-09	-3.517012e+01	-3.965462e+02
2.200000e-07	-4.887536e-06	-5.975968e-09	-3.488139e+01	-3.948366e+02
2.300000e-07	-4.845063e-06	-5.978137e-09	-3.457827e+01	-3.929870e+02
2.400000e-07	-4.800706e-06	-5.929240e-09	-3.426170e+01	-3.910024e+02
2.500000e-07	-4.754637e-06	-5.926471e-09	-3.393292e+01	-3.888922e+02
2.600000e-07	-4.706658e-06	-5.905864e-09	-3.359050e+01	-3.866688e+02
2.700000e-07	-4.656618e-06	-5.825877e-09	-3.323337e+01	-3.843460e+02
2.800000e-07	-4.604476e-06	-5.808219e-09	-3.286125e+01	-3.819372e+02
2.900000e-07	-4.550461e-06	-5.796145e-09	-3.247575e+01	-3.794539e+02
3.000000e-07	-4.494943e-06	-5.747768e-09	-3.207954e+01	-3.769046e+02
3.100000e-07	-4.437808e-06	-5.709399e-09	-3.167177e+01	-3.742940e+02
3.200000e-07	-4.378833e-06	-5.664615e-09	-3.125088e+01	-3.716228e+02
3.300000e-07	-4.318258e-06	-5.598269e-09	-3.081856e+01	-3.688884e+02
3.400000e-07	-4.256256e-06	-5.560996e-09	-3.037607e+01	-3.660854e+02
3.500000e-07	-4.192888e-06	-5.548439e-09	-2.992383e+01	-3.632064e+02
3.600000e-07	-4.128041e-06	-5.493951e-09	-2.946103e+01	-3.602437e+02
3.700000e-07	-4.061475e-06	-5.429687e-09	-2.898596e+01	-3.571899e+02
3.800000e-07	-3.993324e-06	-5.384031e-09	-2.849958e+01	-3.540392e+02
3.900000e-07	-3.923861e-06	-5.331327e-09	-2.800383e+01	-3.507875e+02
4.000000e-07	-3.853179e-06	-5.285498e-09	-2.749939e+01	-3.474331e+02
4.100000e-07	-3.781295e-06	-5.237695e-09	-2.698636e+01	-3.439759e+02
4.200000e-07	-3.708012e-06	-5.180493e-09	-2.646336e+01	-3.404177e+02
4.300000e-07	-3.633108e-06	-5.120220e-09	-2.592878e+01	-3.367611e+02
4.400000e-07	-3.556643e-06	-5.064040e-09	-2.538307e+01	-3.330089e+02
4.500000e-07	-3.478827e-06	-5.017927e-09	-2.482771e+01	-3.291633e+02
4.600000e-07	-3.399614e-06	-4.970391e-09	-2.426238e+01	-3.252255e+02
4.700000e-07	-3.319018e-06	-4.897464e-09	-2.368719e+01	-3.211957e+02
4.800000e-07	-3.237228e-06	-4.815796e-09	-2.310347e+01	-3.170721e+02
4.900000e-07	-3.154305e-06	-4.755975e-09	-2.251166e+01	-3.128522e+02
5.000000e-07	-3.070386e-06	-4.695137e-09	-2.191275e+01	-3.085325e+02
5.100000e-07	-2.985610e-06	-4.624938e-09	-2.130772e+01	-3.041088e+02
5.200000e-07	-2.899876e-06	-4.555488e-09	-2.069585e+01	-2.995773e+02
5.300000e-07	-2.813096e-06	-4.479089e-09	-2.007652e+01	-2.949346e+02
5.400000e-07	-2.725460e-06	-4.400481e-09	-1.945107e+01	-2.901782e+02
5.500000e-07	-2.636982e-06	-4.331260e-09	-1.881963e+01	-2.853066e+02
5.600000e-07	-2.547370e-06	-4.265908e-09	-1.818008e+01	-2.803190e+02
5.700000e-07	-2.456532e-06	-4.189424e-09	-1.753179e+01	-2.752157e+02
5.800000e-07	-2.364728e-06	-4.100983e-09	-1.687660e+01	-2.699974e+02
5.900000e-07	-2.272181e-06	-4.016334e-09	-1.621612e+01	-2.646647e+02
6.000000e-07	-2.178860e-06	-3.937527e-09	-1.555010e+01	-2.592184e+02
6.100000e-07	-2.084770e-06	-3.854150e-09	-1.487860e+01	-2.536585e+02
6.200000e-07	-1.989980e-06	-3.766612e-09	-1.420210e+01	-2.479846e+02
6.300000e-07	-1.894506e-06	-3.675833e-09	-1.352072e+01	-2.421956e+02
6.400000e-07	-1.798382e-06	-3.582862e-09	-1.283471e+01	-2.362895e+02
6.500000e-07	-1.701583e-06	-3.492840e-09	-1.214386e+01	-2.302643e+02
6.600000e-07	-1.604063e-06	-3.404747e-09	-1.144788e+01	-2.241173e+02
6.700000e-07	-1.505851e-06	-3.308872e-09	-1.074697e+01	-2.178457e+02
6.800000e-07	-1.406956e-06	-3.202626e-09	-1.004117e+01	-2.114465e+02
6.900000e-07	-1.307486e-06	-3.097774e-09	-9.331276e+00	-2.049166e+02
7.000000e-07	-1.207659e-06	-3.001936e-09	-8.618829e+00	-1.982530e+02
7.100000e-07	-1.107581e-06	-2.905567e-09	-7.904588e+00	-1.914520e+02
7.200000e-07	-1.007255e-06	-2.799300e-09	-7.188580e+00	-1.845097e+02
7.300000e-07	-9.066140e-07	-2.687586e-09	-6.470327e+00	-1.774214e+02
7.400000e-07	-8.056425e-07	-2.572924e-09	-5.749714e+00	-1.701819e+02
7.500000e-07	-7.043757e-07	-2.457917e-09	-5.026992e+00	-1.627852e+02
7.600000e-07	-6.027891e-07	-2.344145e-09	-4.301989e+00	-1.552247e+02
7.700000e-07	-5.009495e-07	-2.227648e-09	-3.575179e+00	-1.474934e+02
7.800000e-07	-3.989956e-07	-2.105582e-09	-2.847554e+00	-1.395844e+02
7.900000e-07	-2.969361e-07	-1.979066e-09	-2.119175e+00	-1.314909e+02
8.000000e-07	-1.947361e-07	-1.853950e-09	-1.389794e+00	-1.232063e+02
8.100000e-07	-9.244371e-08	-1.730146e-09	-6.597528e-01	-1.147250e+02
8.200000e-07	9.891832e-09	-1.600372e-09	7.059608e-02	-1.060418e+02
8.300000e-07	1.122550e-07	-1.460819e-09	8.011419e-01	-9.715230e+01
8.400000e-07	2.145660e-07	-1.316032e-09	1.531315e+00	-8.805214e+01
8.500000e-07	3.167811e-07	-1.170760e-09	2.260805e+00	-7.873700e+01
8.600000e-07	4.189513e-07	-1.026358e-09	2.989974e+00	-6.920216e+01
8.700000e-07	5.210162e-07	-8.785816e-10	3.718391e+00	-5.944219e+01
8.800000e-07	6.229332e-07	-7.239002e-10	4.445753e+00	-4.945092e+01
8.900000e-07	7.246006e-07	-5.659035e-10	5.171333e+00	-3.922161e+01
9.000000e-07	8.260027e-07	-4.053454e-10	5.895020e+00	-2.874749e+01
9.100000e-07	9.271634e-07	-2.413559e-10	6.616984e+00	-1.802267e+01
9.200000e-07	1.027961e-06	-7.429445e-11	7.336360e+00	-7.043299e+00
9.300000e-07	1.128435e-06	9.836893e-11	8.053420e+00	4.190982e+00
9.400000e-07	1.228617e-06	2.761114e-10	8.768397e+00	1.567557e+01
9.500000e-07	1.328434e-06	4.571506e-10	9.480773e+00	2.739949e+01
9.600000e-07	1.427745e-06	6.382167e-10	1.018954e+01	3.934427e+01
9.700000e-07	1.526433e-06	8.184331e-10	1.089385e+01	5.148326e+01
9.800000e-07	1.624376e-06	1.001302e-09	1.159285e+01	6.378155e+01
9.900000e-07	1.721509e-06	1.188870e-09	1.228608e+01	7.619653e+01
1.000000e-06	1.817935e-06	1.377624e-09	1.297425e+01	8.867904e+01
1.010000e-06	1.913679e-06	1.566500e-09	1.365756e+01	1.011752e+02
1.020000e-06	2.008728e-06	1.755568e-09	1.433590e+01	1.136287e+02
1.030000e-06	2.103084e-06	1.942769e-09	1.500930e+01	1.259830e+02
1.040000e-06	2.196700e-06	2.128695e-09	1.567742e+01	1.381840e+02
1.050000e-06	2.289575e-06	2.311722e-09	1.634025e+01	1.501823e+02
1.060000e-06	2.381797e-06	2.492108e-09	1.699842e+01	1.619345e+02
1.070000e-06	2.473308e-06	2.666811e-09	1.765152e+01	1.734049e+02
1.080000e-06	2.563886e-06	2.834195e-09	1.829796e+01	1.845658e+02
1.090000e-06	2.653331e-06	2.998147e-09	1.893631e+01	1.953972e+02
1.100000e-06	2.741642e-06	3.159060e-09	1.956657e+01	2.058861e+02
1.110000e-06	2.828968e-06	3.314230e-09	2.018979e+01	2.160255e+02
1.120000e-06	2.915375e-06	3.463659e-09	2.080646e+01	2.258125e+02
1.130000e-06	3.000865e-06	3.609008e-09	2.141659e+01	2.352476e+02
1.140000e-06	3.085465e-06	3.749011e-09	2.202036e+01	2.443325e+02
1.150000e-06	3.169229e-06	3.881777e-09	2.261817e+01	2.530701e+02
1.160000e-06	3.251952e-06	4.007617e-09	2.320855e+01	2.614631e+02
1.170000e-06	3.333326e-06	4.127718e-09	2.378930e+01	2.695149e+02
1.180000e-06	3.413403e-06	4.243082e-09	2.436079e+01	2.772293e+02
1.190000e-06	3.492304e-06	4.352211e-09	2.492389e+01	2.846112e+02
1.200000e-06	3.569964e-06	4.457124e-09	2.547814e+01	2.916676e+02
1.210000e-06	3.646343e-06	4.560340e-09	2.602324e+01	2.984083e+02
1.220000e-06	3.721338e-06	4.658585e-09	2.655846e+01	3.048459e+02
1.230000e-06	3.794745e-06	4.750070e-09	2.708236e+01	3.109964e+02
1.240000e-06	3.866629e-06	4.837336e-09	2.759538e+01	3.168784e+02
1.250000e-06	3.937157e-06	4.923330e-09	2.809872e+01	3.225123e+02
1.260000e-06	4.006322e-06	5.007691e-09	2.859234e+01	3.279192e+02
1.270000e-06	4.074200e-06	5.087973e-09	2.907677e+01	3.331198e+02
1.280000e-06	4.140637e-06	5.165246e-09	2.955092e+01	3.381321e+02
1.290000e-06	4.205326e-06	5.240307e-09	3.001259e+01	3.429709e+02
1.300000e-06	4.268426e-06	5.311245e-09	3.046293e+01	3.476466e+02
1.310000e-06	4.330123e-06	5.379016e-09	3.090324e+01	3.521646e+02
1.320000e-06	4.390480e-06	5.445449e-09	3.133400e+01	3.565256e+02
1.330000e-06	4.449408e-06	5.509602e-09	3.175456e+01	3.607262e+02
1.340000e-06	4.506561e-06	5.570049e-09	3.216245e+01	3.647600e+02
1.350000e-06	4.561976e-06	5.627244e-09	3.255794e+01	3.686192e+02
1.360000e-06	4.615794e-06	5.681483e-09	3.294203e+01	3.722959e+02
1.370000e-06	4.667839e-06	5.731977e-09	3.331346e+01	3.757841e+02
1.380000e-06	4.717859e-06	5.779293e-09	3.367044e+01	3.790805e+02
1.390000e-06	4.765928e-06	5.825819e-09	3.401350e+01	3.821854e+02
1.400000e-06	4.812315e-06	5.869744e-09	3.434455e+01	3.851030e+02
1.410000e-06	4.857133e-06	5.909536e-09	3.466441e+01	3.878411e+02
1.420000e-06	4.900388e-06	5.946409e-09	3.497312e+01	3.904101e+02
1.430000e-06	4.941800e-06	5.980608e-09	3.526867e+01	3.928220e+02
1.440000e-06	4.981371e-06	6.012986e-09	3.555108e+01	3.950890e+02
1.450000e-06	5.019279e-06	6.043692e-09	3.582161e+01	3.972224e+02
1.460000e-06	5.055566e-06	6.073117e-09	3.608059e+01	3.992311e+02
1.470000e-06	5.090040e-06	6.101179e-09	3.632663e+01	4.011213e+02
1.480000e-06	5.122509e-06	6.126602e-09	3.655835e+01	4.028961e+02
1.490000e-06	5.153281e-06	6.149134e-09	3.677797e+01	4.045559e+02
1.500000e-06	5.182497e-06	6.169795e-09	3.698647e+01	4.060988e+02
1.510000e-06	5.209982e-06	6.189387e-09	3.718262e+01	4.075222e+02
1.520000e-06	5.235381e-06	6.208224e-09	3.736389e+01	4.088232e+02
1.530000e-06	5.258728e-06	6.226535e-09	3.753052e+01	4.100002e+02
1.540000e-06	5.280284e-06	6.243833e-09	3.768436e+01	4.110536e+02
1.550000e-06	5.300095e-06	6.258485e-09	3.782574e+01	4.119863e+02
1.560000e-06	5.318002e-06	6.270386e-09	3.795354e+01	4.128035e+02
1.570000e-06	5.333838e-06	6.281016e-09	3.806656e+01	4.135123e+02
1.580000e-06	5.347761e-06	6.291461e-09	3.816593e+01	4.141210e+02
1.590000e-06	5.359713e-06	6.301566e-09	3.825123e+01	4.146380e+02
1.600000e-06	5.369423e-06	6.310190e-09	3.832053e+01	4.150705e+02
1.610000e-06	5.377059e-06	6.316594e-09	3.837502e+01	4.154232e+02
1.620000e-06	5.382855e-06	6.321194e-09	3.841639e+01	4.156984e+02
1.630000e-06	5.386864e-06	6.324692e-09	3.844500e+01	4.158947e+02
1.640000e-06	5.388918e-06	6.327158e-09	3.845965e+01	4.160083e+02
1.650000e-06	5.388966e-06	6.329506e-09	3.846000e+01	4.160328e+02
1.660000e-06	5.387245e-06	6.330363e-09	3.844772e+01	4.159610e+02
1.670000e-06	5.383934e-06	6.329027e-09	3.842409e+01	4.157860e+02
1.680000e-06	5.378918e-06	6.325585e-09	3.838829e+01	4.155030e+02
1.690000e-06	5.371946e-06	6.321523e-09	3.833853e+01	4.151101e+02
1.700000e-06	5.363247e-06	6.316247e-09	3.827645e+01	4.146094e+02
1.710000e-06	5.353027e-06	6.311330e-09	3.820351e+01	4.140077e+02
1.720000e-06	5.341044e-06	6.307579e-09	3.811799e+01	4.133157e+02
1.730000e-06	5.327067e-06	6.288695e-09	3.801824e+01	4.125471e+02
1.740000e-06	5.311043e-06	6.243382e-09	3.790388e+01	4.117179e+02
1.750000e-06	5.292656e-06	6.232606e-09	3.777265e+01	4.108438e+02
1.760000e-06	5.271530e-06	6.234524e-09	3.762188e+01	4.099386e+02
1.770000e-06	5.248213e-06	6.244859e-09	3.745548e+01	4.090127e+02
1.780000e-06	5.223781e-06	6.266904e-09	3.728111e+01	4.080713e+02
1.790000e-06	5.198614e-06	6.190425e-09	3.710149e+01	4.071136e+02
1.800000e-06	5.171932e-06	6.157534e-09	3.691107e+01	4.061329e+02
1.810000e-06	5.142877e-06	6.177026e-09	3.670371e+01	4.051170e+02
1.820000e-06	5.112023e-06	6.113113e-09	3.648351e+01	4.040491e+02
1.830000e-06	5.079567e-06	6.128059e-09	3.625188e+01	4.029100e+02
1.840000e-06	5.045150e-06	6.140140e-09	3.600626e+01	4.016798e+02
1.850000e-06	5.009186e-06	6.075031e-09	3.574959e+01	4.003400e+02
1.860000e-06	4.971391e-06	6.112554e-09	3.547985e+01	3.988754e+02
1.870000e-06	4.931726e-06	6.074943e-09	3.519677e+01	3.972756e+02
1.880000e-06	4.890457e-06	6.004406e-09	3.490224e+01	3.955356e+02
1.890000e-06	4.847315e-06	6.023004e-09	3.459434e+01	3.936563e+02
1.900000e-06	4.802592e-06	5.926615e-09	3.427516e+01	3.916437e+02
1.910000e-06	4.756047e-06	5.911598e-09	3.394298e+01	3.895079e+02
1.920000e-06	4.707409e-06	5.932637e-09	3.359586e+01	3.872619e+02
1.930000e-06	4.657205e-06	5.840383e-09	3.323756e+01	3.849194e+02
1.940000e-06	4.605290e-06	5.837201e-09	3.286706e+01	3.824936e+02
1.950000e-06	4.551293e-06	5.796054e-09	3.248169e+01	3.799954e+02
1.960000e-06	4.495377e-06	5.722464e-09	3.208263e+01	3.774325e+02
1.970000e-06	4.437806e-06	5.700585e-09	3.167176e+01	3.748087e+02
1.980000e-06	4.378852e-06	5.672726e-09	3.125101e+01	3.721242e+02
1.990000e-06	4.318343e-06	5.644805e-09	3.081917e+01	3.693754e+02
2.000000e-06	4.256060e-06	5.563858e-09	3.037467e+01	3.665566e+02
2.010000e-06	4.192154e-06	5.534215e-09	2.991858e+01	3.636601e+02
2.020000e-06	4.126770e-06	5.506733e-09	2.945195e+01	3.606783e+02
2.030000e-06	4.060012e-06	5.432559e-09	2.897551e+01	3.576040e+02
2.040000e-06	3.991835e-06	5.414658e-09	2.848895e+01	3.544318e+02
2.050000e-06	3.922170e-06	5.359041e-09	2.799176e+01	3.511580e+02
2.060000e-06	3.850967e-06	5.295744e-09	2.748360e+01	3.477812e+02
2.070000e-06	3.778384e-06	5.236891e-09	2.696559e+01	3.443020e+02
2.080000e-06	3.704549e-06	5.180443e-09	2.643865e+01	3.407224e+02
2.090000e-06	3.629364e-06	5.151199e-09	2.590207e+01	3.370449e+02
2.100000e-06	3.552712e-06	5.075808e-09	2.535501e+01	3.332723e+02
2.110000e-06	3.474407e-06	5.003437e-09	2.479616e+01	3.294067e+02
2.120000e-06	3.394765e-06	4.957861e-09	2.422777e+01	3.254491e+02
2.130000e-06	3.314093e-06	4.903785e-09	2.365203e+01	3.213991e+02
2.140000e-06	3.232294e-06	4.837453e-09	2.306825e+01	3.172550e+02
2.150000e-06	3.149430e-06	4.778173e-09	2.247687e+01	3.130139e+02
2.160000e-06	3.065633e-06	4.713823e-09	2.187882e+01	3.086720e+02
2.170000e-06	2.980707e-06	4.631393e-09	2.127273e+01	3.042253e+02
2.180000e-06	2.894331e-06	4.565876e-09	2.065627e+01	2.996701e+02
2.190000e-06	2.806738e-06	4.505834e-09	2.003114e+01	2.950031e+02
2.200000e-06	2.718279e-06	4.436172e-09	1.939982e+01	2.902219e+02
2.210000e-06	2.628927e-06	4.352429e-09	1.876214e+01	2.853252e+02
2.220000e-06	2.538652e-06	4.270976e-09	1.811786e+01	2.803127e+02
2.230000e-06	2.447540e-06	4.198326e-09	1.746762e+01	2.751845e+02
2.240000e-06	2.355680e-06	4.118404e-09	1.681203e+01	2.699414e+02
2.250000e-06	2.263063e-06	4.041820e-09	1.615104e+01	2.645842e+02
2.260000e-06	2.169597e-06	3.962223e-09	1.548399e+01	2.591133e+02
2.270000e-06	2.075075e-06	3.869365e-09	1.480940e+01	2.535289e+02
2.280000e-06	1.979563e-06	3.774279e-09	1.412775e+01	2.478302e+02
2.290000e-06	1.883400e-06	3.690338e-09	1.344146e+01	2.420161e+02
2.300000e-06	1.786782e-06	3.607860e-09	1.275192e+01	2.360846e+02
2.310000e-06	1.689668e-06	3.512256e-09	1.205883e+01	2.300333e+02
2.320000e-06	1.591938e-06	3.409243e-09	1.136135e+01	2.238596e+02
2.330000e-06	1.493659e-06	3.314107e-09	1.065996e+01	2.175607e+02
2.340000e-06	1.394878e-06	3.222347e-09	9.954976e+00	2.111336e+02
2.350000e-06	1.295655e-06	3.124426e-09	9.246837e+00	2.045752e+02
2.360000e-06	1.196129e-06	3.025137e-09	8.536542e+00	1.978823e+02
2.370000e-06	1.096379e-06	2.919737e-09	7.824642e+00	1.910512e+02
2.380000e-06	9.963293e-07	2.808231e-09	7.110608e+00	1.840778e+02
2.390000e-06	8.958804e-07	2.702078e-09	6.393724e+00	1.769574e+02
2.400000e-06	7.950294e-07	2.597930e-09	5.673970e+00	1.696845e+02
2.410000e-06	6.938687e-07	2.485985e-09	4.952006e+00	1.622531e+02
2.420000e-06	5.924860e-07	2.361886e-09	4.228457e+00	1.546564e+02
2.430000e-06	4.908837e-07	2.236567e-09	3.503341e+00	1.468875e+02
2.440000e-06	3.890615e-07	2.119727e-09	2.776656e+00	1.389393e+02
2.450000e-06	2.870381e-07	2.000723e-09	2.048535e+00	1.308051e+02
2.460000e-06	1.847777e-07	1.874552e-09	1.318722e+00	1.224787e+02
2.470000e-06	8.230210e-08	1.743826e-09	5.873741e-01	1.139544e+02
2.480000e-06	-2.021995e-08	1.608543e-09	-1.443059e-01	1.052272e+02
2.490000e-06	-1.226910e-07	1.472609e-09	-8.756221e-01	9.629269e+01
2.500000e-06	-2.250597e-07	1.337324e-09	-1.606207e+00	8.714665e+01
2.510000e-06	-3.272771e-07	1.199478e-09	-2.335713e+00	7.778467e+01
2.520000e-06	-4.293707e-07	1.056519e-09	-3.064335e+00	6.820189e+01
2.530000e-06	-5.313295e-07	9.037196e-10	-3.791995e+00	5.839272e+01
2.540000e-06	-6.330526e-07	7.474087e-10	-4.517973e+00	4.835084e+01
2.550000e-06	-7.344488e-07	5.939287e-10	-5.241618e+00	3.806944e+01
2.560000e-06	-8.354990e-07	4.365546e-10	-5.962794e+00	2.754186e+01
2.570000e-06	-9.361854e-07	2.721841e-10	-6.681373e+00	1.676254e+01
2.580000e-06	-1.036504e-06	1.029705e-10	-7.397324e+00	5.728249e+00
2.590000e-06	-1.136501e-06	-6.840605e-11	-8.110984e+00	-5.560437e+00
2.600000e-06	-1.236071e-06	-2.413900e-10	-8.821600e+00	-1.709766e+01
2.610000e-06	-1.335154e-06	-4.178782e-10	-9.528736e+00	-2.887091e+01
2.620000e-06	-1.433859e-06	-6.003213e-10	-1.023317e+01	-4.086001e+01
2.630000e-06	-1.532136e-06	-7.898519e-10	-1.093456e+01	-5.303654e+01
2.640000e-06	-1.629856e-06	-9.831261e-10	-1.163197e+01	-6.536385e+01
2.650000e-06	-1.726925e-06	-1.175896e-09	-1.232473e+01	-7.779781e+01
2.660000e-06	-1.823409e-06	-1.365299e-09	-1.301332e+01	-9.028809e+01
2.670000e-06	-1.919411e-06	-1.553940e-09	-1.369846e+01	-1.027801e+02
2.680000e-06	-2.014880e-06	-1.747203e-09	-1.437980e+01	-1.152172e+02
2.690000e-06	-2.109563e-06	-1.942709e-09	-1.505554e+01	-1.275433e+02
2.700000e-06	-2.203229e-06	-2.132774e-09	-1.572402e+01	-1.397050e+02
2.710000e-06	-2.295924e-06	-2.314072e-09	-1.638556e+01	-1.516541e+02
2.720000e-06	-2.387775e-06	-2.491308e-09	-1.704109e+01	-1.633488e+02
2.730000e-06	-2.478797e-06	-2.664384e-09	-1.769069e+01	-1.747552e+02
2.740000e-06	-2.568942e-06	-2.830442e-09	-1.833404e+01	-1.858471e+02
2.750000e-06	-2.658153e-06	-2.991240e-09	-1.897072e+01	-1.966061e+02
2.760000e-06	-2.746479e-06	-3.149267e-09	-1.960108e+01	-2.070208e+02
2.770000e-06	-2.834050e-06	-3.305182e-09	-2.022606e+01	-2.170849e+02
2.780000e-06	-2.920681e-06	-3.456454e-09	-2.084433e+01	-2.267967e+02
2.790000e-06	-3.006062e-06	-3.600125e-09	-2.145368e+01	-2.361567e+02
2.800000e-06	-3.090229e-06	-3.737198e-09	-2.205436e+01	-2.451671e+02
2.810000e-06	-3.173369e-06	-3.868716e-09	-2.264771e+01	-2.538308e+02
2.820000e-06	-3.255469e-06	-3.994455e-09	-2.323365e+01	-2.621506e+02
2.830000e-06	-3.336481e-06	-4.117905e-09	-2.381181e+01	-2.701299e+02
2.840000e-06	-3.416484e-06	-4.240147e-09	-2.438278e+01	-2.777727e+02
2.850000e-06	-3.495283e-06	-4.356355e-09	-2.494515e+01	-2.850844e+02
2.860000e-06	-3.572567e-06	-4.464133e-09	-2.549671e+01	-2.920724e+02
2.870000e-06	-3.648297e-06	-4.564978e-09	-2.603719e+01	-2.987472e+02
2.880000e-06	-3.722611e-06	-4.661922e-09	-2.656755e+01	-3.051220e+02
2.890000e-06	-3.795637e-06	-4.754352e-09	-2.708873e+01	-3.112135e+02
2.900000e-06	-3.867424e-06	-4.842247e-09	-2.760105e+01	-3.170407e+02
2.910000e-06	-3.937698e-06	-4.928327e-09	-2.810259e+01	-3.226244e+02
2.920000e-06	-4.006307e-06	-5.010426e-09	-2.859223e+01	-3.279856e+02
2.930000e-06	-4.073501e-06	-5.089397e-09	-2.907179e+01	-3.331446e+02
2.940000e-06	-4.139332e-06	-5.166230e-09	-2.954161e+01	-3.381188e+02
