# Temperatura_=_26.8
# Concentracion g/m^3_=_15000.0
# C_Vs_to_Am_M_A/Vsm_=_65563218390.804596
# pendiente_HvsI_1/m_=_3716.3
# ordenada_HvsI_A/m_=_1297.0
# frecuencia_Hz_=_301593.6446989116

Tiempo_(s)	Campo_(V.s)	Magnetizacion_(V.s)	Campo_(kA/m)	Magnetizacion_(A/m)
0.000000e+00	-5.358107e-06	-5.597983e-09	-3.833658e+01	-3.650279e+02
1.000000e-08	-5.355524e-06	-5.596066e-09	-3.831810e+01	-3.649438e+02
2.000000e-08	-5.351150e-06	-5.592948e-09	-3.828680e+01	-3.647878e+02
3.000000e-08	-5.345142e-06	-5.589203e-09	-3.824382e+01	-3.645602e+02
4.000000e-08	-5.337546e-06	-5.582259e-09	-3.818947e+01	-3.642623e+02
5.000000e-08	-5.328169e-06	-5.572218e-09	-3.812238e+01	-3.638962e+02
6.000000e-08	-5.316780e-06	-5.562211e-09	-3.804089e+01	-3.634652e+02
7.000000e-08	-5.303506e-06	-5.551384e-09	-3.794592e+01	-3.629733e+02
8.000000e-08	-5.288219e-06	-5.541208e-09	-3.783654e+01	-3.624251e+02
9.000000e-08	-5.270693e-06	-5.570070e-09	-3.771114e+01	-3.618249e+02
1.000000e-07	-5.251048e-06	-5.577689e-09	-3.757059e+01	-3.611765e+02
1.100000e-07	-5.229460e-06	-5.538379e-09	-3.741613e+01	-3.604823e+02
1.200000e-07	-5.206182e-06	-5.512499e-09	-3.724958e+01	-3.597431e+02
1.300000e-07	-5.181387e-06	-5.445342e-09	-3.707217e+01	-3.589579e+02
1.400000e-07	-5.154996e-06	-5.419829e-09	-3.688335e+01	-3.581233e+02
1.500000e-07	-5.127011e-06	-5.516603e-09	-3.668312e+01	-3.572344e+02
1.600000e-07	-5.097519e-06	-5.451445e-09	-3.647210e+01	-3.562848e+02
1.700000e-07	-5.066495e-06	-5.416045e-09	-3.625013e+01	-3.552672e+02
1.800000e-07	-5.033436e-06	-5.471653e-09	-3.601360e+01	-3.541742e+02
1.900000e-07	-4.998395e-06	-5.360542e-09	-3.576289e+01	-3.529992e+02
2.000000e-07	-4.961897e-06	-5.351324e-09	-3.550175e+01	-3.517368e+02
2.100000e-07	-4.923739e-06	-5.363243e-09	-3.522873e+01	-3.503834e+02
2.200000e-07	-4.883795e-06	-5.259712e-09	-3.494294e+01	-3.489377e+02
2.300000e-07	-4.841913e-06	-5.268290e-09	-3.464328e+01	-3.474001e+02
2.400000e-07	-4.798071e-06	-5.296570e-09	-3.432959e+01	-3.457734e+02
2.500000e-07	-4.752523e-06	-5.273648e-09	-3.400370e+01	-3.440616e+02
2.600000e-07	-4.705148e-06	-5.248986e-09	-3.366474e+01	-3.422697e+02
2.700000e-07	-4.655807e-06	-5.148073e-09	-3.331171e+01	-3.404029e+02
2.800000e-07	-4.604396e-06	-5.126537e-09	-3.294387e+01	-3.384660e+02
2.900000e-07	-4.550945e-06	-5.148650e-09	-3.256144e+01	-3.364626e+02
3.000000e-07	-4.495871e-06	-5.123441e-09	-3.216739e+01	-3.343949e+02
3.100000e-07	-4.439234e-06	-5.089926e-09	-3.176216e+01	-3.322636e+02
3.200000e-07	-4.380770e-06	-5.034951e-09	-3.134386e+01	-3.300673e+02
3.300000e-07	-4.320709e-06	-4.977932e-09	-3.091413e+01	-3.278037e+02
3.400000e-07	-4.259211e-06	-4.930798e-09	-3.047412e+01	-3.254691e+02
3.500000e-07	-4.196305e-06	-4.928352e-09	-3.002403e+01	-3.230593e+02
3.600000e-07	-4.131966e-06	-4.906288e-09	-2.956369e+01	-3.205702e+02
3.700000e-07	-4.065896e-06	-4.837072e-09	-2.909097e+01	-3.179982e+02
3.800000e-07	-3.998172e-06	-4.796269e-09	-2.860642e+01	-3.153405e+02
3.900000e-07	-3.929135e-06	-4.765136e-09	-2.811247e+01	-3.125957e+02
4.000000e-07	-3.858888e-06	-4.723314e-09	-2.760986e+01	-3.097632e+02
4.100000e-07	-3.787411e-06	-4.665204e-09	-2.709845e+01	-3.068439e+02
4.200000e-07	-3.714628e-06	-4.606115e-09	-2.657770e+01	-3.038393e+02
4.300000e-07	-3.640297e-06	-4.573622e-09	-2.604587e+01	-3.007514e+02
4.400000e-07	-3.564316e-06	-4.536237e-09	-2.550223e+01	-2.975822e+02
4.500000e-07	-3.486850e-06	-4.499395e-09	-2.494798e+01	-2.943337e+02
4.600000e-07	-3.408049e-06	-4.454382e-09	-2.438416e+01	-2.910070e+02
4.700000e-07	-3.328014e-06	-4.383943e-09	-2.381152e+01	-2.876022e+02
4.800000e-07	-3.246745e-06	-4.306663e-09	-2.323005e+01	-2.841188e+02
4.900000e-07	-3.164284e-06	-4.246512e-09	-2.264006e+01	-2.805553e+02
5.000000e-07	-3.080760e-06	-4.214095e-09	-2.204245e+01	-2.769093e+02
5.100000e-07	-2.996344e-06	-4.167651e-09	-2.143847e+01	-2.731781e+02
5.200000e-07	-2.911040e-06	-4.102385e-09	-2.082812e+01	-2.693589e+02
5.300000e-07	-2.824718e-06	-4.028459e-09	-2.021050e+01	-2.654488e+02
5.400000e-07	-2.737414e-06	-3.956948e-09	-1.958585e+01	-2.614451e+02
5.500000e-07	-2.649201e-06	-3.900317e-09	-1.895470e+01	-2.573458e+02
5.600000e-07	-2.559951e-06	-3.846189e-09	-1.831612e+01	-2.531491e+02
5.700000e-07	-2.469588e-06	-3.782106e-09	-1.766959e+01	-2.488537e+02
5.800000e-07	-2.378184e-06	-3.705512e-09	-1.701560e+01	-2.444585e+02
5.900000e-07	-2.285938e-06	-3.633753e-09	-1.635560e+01	-2.399626e+02
6.000000e-07	-2.192999e-06	-3.567266e-09	-1.569063e+01	-2.353647e+02
6.100000e-07	-2.099300e-06	-3.497925e-09	-1.502023e+01	-2.306635e+02
6.200000e-07	-2.004891e-06	-3.420302e-09	-1.434474e+01	-2.258572e+02
6.300000e-07	-1.909856e-06	-3.341010e-09	-1.366478e+01	-2.209434e+02
6.400000e-07	-1.814094e-06	-3.266720e-09	-1.297961e+01	-2.159195e+02
6.500000e-07	-1.717569e-06	-3.195594e-09	-1.228899e+01	-2.107825e+02
6.600000e-07	-1.620421e-06	-3.121763e-09	-1.159391e+01	-2.055292e+02
6.700000e-07	-1.522729e-06	-3.033597e-09	-1.089493e+01	-2.001566e+02
6.800000e-07	-1.424425e-06	-2.936084e-09	-1.019158e+01	-1.946621e+02
6.900000e-07	-1.325404e-06	-2.842529e-09	-9.483100e+00	-1.890434e+02
7.000000e-07	-1.225835e-06	-2.759547e-09	-8.770696e+00	-1.832985e+02
7.100000e-07	-1.125943e-06	-2.679417e-09	-8.055980e+00	-1.774265e+02
7.200000e-07	-1.025761e-06	-2.591013e-09	-7.339191e+00	-1.714265e+02
7.300000e-07	-9.253305e-07	-2.493882e-09	-6.620623e+00	-1.652979e+02
7.400000e-07	-8.246891e-07	-2.394657e-09	-5.900547e+00	-1.590405e+02
7.500000e-07	-7.237763e-07	-2.297833e-09	-5.178528e+00	-1.526535e+02
7.600000e-07	-6.225585e-07	-2.202888e-09	-4.454327e+00	-1.461358e+02
7.700000e-07	-5.211010e-07	-2.104238e-09	-3.728412e+00	-1.394856e+02
7.800000e-07	-4.195117e-07	-1.997748e-09	-3.001553e+00	-1.326998e+02
7.900000e-07	-3.177639e-07	-1.887833e-09	-2.273561e+00	-1.257747e+02
8.000000e-07	-2.158310e-07	-1.779971e-09	-1.544244e+00	-1.187049e+02
8.100000e-07	-1.138415e-07	-1.674186e-09	-8.145213e-01	-1.114842e+02
8.200000e-07	-1.184318e-08	-1.565051e-09	-8.473644e-02	-1.041053e+02
8.300000e-07	9.020729e-08	-1.450187e-09	6.454218e-01	-9.655981e+01
8.400000e-07	1.922682e-07	-1.331727e-09	1.375655e+00	-8.883885e+01
8.500000e-07	2.942857e-07	-1.212415e-09	2.105577e+00	-8.093311e+01
8.600000e-07	3.962772e-07	-1.092592e-09	2.835313e+00	-7.283323e+01
8.700000e-07	4.981593e-07	-9.687143e-10	3.564267e+00	-6.453012e+01
8.800000e-07	5.998554e-07	-8.370465e-10	4.291890e+00	-5.601541e+01
8.900000e-07	7.013082e-07	-6.992829e-10	5.017771e+00	-4.728181e+01
9.000000e-07	8.024489e-07	-5.611152e-10	5.741421e+00	-3.832365e+01
9.100000e-07	9.033207e-07	-4.237451e-10	6.463146e+00	-2.913729e+01
9.200000e-07	1.003904e-06	-2.855596e-10	7.182804e+00	-1.972168e+01
9.300000e-07	1.104197e-06	-1.414069e-10	7.900391e+00	-1.007881e+01
9.400000e-07	1.204218e-06	1.102964e-11	8.616026e+00	-2.142262e-01
9.500000e-07	1.303889e-06	1.676473e-10	9.329159e+00	9.862605e+00
9.600000e-07	1.403072e-06	3.257510e-10	1.003881e+01	2.013796e+01
9.700000e-07	1.501599e-06	4.848661e-10	1.074375e+01	3.059368e+01
9.800000e-07	1.599377e-06	6.468541e-10	1.144334e+01	4.120717e+01
9.900000e-07	1.696437e-06	8.120950e-10	1.213779e+01	5.195152e+01
1.000000e-06	1.792836e-06	9.790709e-10	1.282751e+01	6.279591e+01
1.010000e-06	1.888534e-06	1.145989e-09	1.351222e+01	7.370610e+01
1.020000e-06	1.983489e-06	1.311604e-09	1.419161e+01	8.464514e+01
1.030000e-06	2.077764e-06	1.476711e-09	1.486614e+01	9.557423e+01
1.040000e-06	2.171329e-06	1.643340e-09	1.553558e+01	1.064536e+02
1.050000e-06	2.264142e-06	1.810240e-09	1.619965e+01	1.172434e+02
1.060000e-06	2.356280e-06	1.975015e-09	1.685889e+01	1.279048e+02
1.070000e-06	2.447717e-06	2.135877e-09	1.751311e+01	1.384007e+02
1.080000e-06	2.538250e-06	2.293721e-09	1.816086e+01	1.486965e+02
1.090000e-06	2.627663e-06	2.447424e-09	1.880060e+01	1.587611e+02
1.100000e-06	2.715962e-06	2.597407e-09	1.943237e+01	1.685668e+02
1.110000e-06	2.803304e-06	2.742130e-09	2.005729e+01	1.780901e+02
1.120000e-06	2.889795e-06	2.879621e-09	2.067612e+01	1.873121e+02
1.130000e-06	2.975360e-06	3.013846e-09	2.128832e+01	1.962180e+02
1.140000e-06	3.059956e-06	3.146744e-09	2.189360e+01	2.047980e+02
1.150000e-06	3.143675e-06	3.274638e-09	2.249260e+01	2.130463e+02
1.160000e-06	3.226400e-06	3.393639e-09	2.308448e+01	2.209618e+02
1.170000e-06	3.307885e-06	3.504834e-09	2.366750e+01	2.285473e+02
1.180000e-06	3.388090e-06	3.613401e-09	2.424136e+01	2.358092e+02
1.190000e-06	3.467087e-06	3.719970e-09	2.480657e+01	2.427577e+02
1.200000e-06	3.544854e-06	3.821176e-09	2.536299e+01	2.494054e+02
1.210000e-06	3.621397e-06	3.918707e-09	2.591064e+01	2.557671e+02
1.220000e-06	3.696613e-06	4.010712e-09	2.644880e+01	2.618594e+02
1.230000e-06	3.770212e-06	4.097061e-09	2.697539e+01	2.676992e+02
1.240000e-06	3.842202e-06	4.178719e-09	2.749047e+01	2.733034e+02
1.250000e-06	3.912781e-06	4.259806e-09	2.799546e+01	2.786878e+02
1.260000e-06	3.982067e-06	4.341729e-09	2.849118e+01	2.838665e+02
1.270000e-06	4.050054e-06	4.420521e-09	2.897763e+01	2.888514e+02
1.280000e-06	4.116552e-06	4.495081e-09	2.945341e+01	2.936514e+02
1.290000e-06	4.181359e-06	4.565380e-09	2.991710e+01	2.982726e+02
1.300000e-06	4.244625e-06	4.631143e-09	3.036976e+01	3.027181e+02
1.310000e-06	4.306494e-06	4.692932e-09	3.081242e+01	3.069887e+02
1.320000e-06	4.366972e-06	4.751795e-09	3.124513e+01	3.110829e+02
1.330000e-06	4.426084e-06	4.809310e-09	3.166807e+01	3.149983e+02
1.340000e-06	4.483518e-06	4.865755e-09	3.207901e+01	3.187320e+02
1.350000e-06	4.539183e-06	4.920317e-09	3.247728e+01	3.222815e+02
1.360000e-06	4.593174e-06	4.972255e-09	3.286358e+01	3.256455e+02
1.370000e-06	4.645392e-06	5.018796e-09	3.323719e+01	3.288249e+02
1.380000e-06	4.695610e-06	5.060653e-09	3.359650e+01	3.318225e+02
1.390000e-06	4.743891e-06	5.101863e-09	3.394194e+01	3.346435e+02
1.400000e-06	4.790486e-06	5.142200e-09	3.427533e+01	3.372954e+02
1.410000e-06	4.835504e-06	5.178396e-09	3.459742e+01	3.397874e+02
1.420000e-06	4.879018e-06	5.209845e-09	3.490876e+01	3.421295e+02
1.430000e-06	4.920688e-06	5.239196e-09	3.520690e+01	3.443324e+02
1.440000e-06	4.960469e-06	5.268138e-09	3.549153e+01	3.464062e+02
1.450000e-06	4.998612e-06	5.296643e-09	3.576444e+01	3.483599e+02
1.460000e-06	5.035145e-06	5.325257e-09	3.602582e+01	3.502007e+02
1.470000e-06	5.069933e-06	5.352829e-09	3.627473e+01	3.519339e+02
1.480000e-06	5.102755e-06	5.377228e-09	3.650957e+01	3.535628e+02
1.490000e-06	5.133803e-06	5.397219e-09	3.673171e+01	3.550888e+02
1.500000e-06	5.163256e-06	5.414648e-09	3.694244e+01	3.565116e+02
1.510000e-06	5.191022e-06	5.431629e-09	3.714111e+01	3.578304e+02
1.520000e-06	5.216770e-06	5.447959e-09	3.732533e+01	3.590436e+02
1.530000e-06	5.240392e-06	5.463316e-09	3.749434e+01	3.601504e+02
1.540000e-06	5.262191e-06	5.478438e-09	3.765032e+01	3.611504e+02
1.550000e-06	5.282289e-06	5.494150e-09	3.779412e+01	3.620447e+02
1.560000e-06	5.300498e-06	5.509621e-09	3.792440e+01	3.628356e+02
1.570000e-06	5.316734e-06	5.521426e-09	3.804056e+01	3.635265e+02
1.580000e-06	5.331050e-06	5.529469e-09	3.814299e+01	3.641219e+02
1.590000e-06	5.343394e-06	5.537137e-09	3.823131e+01	3.646267e+02
1.600000e-06	5.353570e-06	5.543529e-09	3.830412e+01	3.650462e+02
1.610000e-06	5.361626e-06	5.548907e-09	3.836176e+01	3.653848e+02
1.620000e-06	5.367822e-06	5.554225e-09	3.840609e+01	3.656466e+02
1.630000e-06	5.372246e-06	5.558058e-09	3.843774e+01	3.658343e+02
1.640000e-06	5.374810e-06	5.560339e-09	3.845609e+01	3.659496e+02
1.650000e-06	5.375357e-06	5.563814e-09	3.846000e+01	3.659933e+02
1.660000e-06	5.374035e-06	5.566809e-09	3.845054e+01	3.659655e+02
1.670000e-06	5.371030e-06	5.565305e-09	3.842904e+01	3.658659e+02
1.680000e-06	5.366389e-06	5.563204e-09	3.839584e+01	3.656944e+02
1.690000e-06	5.359824e-06	5.561105e-09	3.834887e+01	3.654516e+02
1.700000e-06	5.351366e-06	5.559960e-09	3.828835e+01	3.651387e+02
1.710000e-06	5.341406e-06	5.558220e-09	3.821708e+01	3.647584e+02
1.720000e-06	5.329847e-06	5.556515e-09	3.813438e+01	3.643139e+02
1.730000e-06	5.316346e-06	5.564921e-09	3.803778e+01	3.638095e+02
1.740000e-06	5.300782e-06	5.517596e-09	3.792643e+01	3.632497e+02
1.750000e-06	5.282934e-06	5.477059e-09	3.779872e+01	3.626388e+02
1.760000e-06	5.262449e-06	5.490718e-09	3.765216e+01	3.619804e+02
1.770000e-06	5.239575e-06	5.490240e-09	3.748850e+01	3.612765e+02
1.780000e-06	5.215297e-06	5.563824e-09	3.731480e+01	3.605276e+02
1.790000e-06	5.190352e-06	5.538105e-09	3.713631e+01	3.597320e+02
1.800000e-06	5.164073e-06	5.395377e-09	3.694829e+01	3.588862e+02
1.810000e-06	5.135612e-06	5.474810e-09	3.674466e+01	3.579848e+02
1.820000e-06	5.105273e-06	5.436060e-09	3.652758e+01	3.570211e+02
1.830000e-06	5.073279e-06	5.351290e-09	3.629867e+01	3.559879e+02
1.840000e-06	5.039366e-06	5.483356e-09	3.605603e+01	3.548778e+02
1.850000e-06	5.003830e-06	5.395730e-09	3.580177e+01	3.536844e+02
1.860000e-06	4.966566e-06	5.337690e-09	3.553515e+01	3.524027e+02
1.870000e-06	4.927383e-06	5.431655e-09	3.525480e+01	3.510295e+02
1.880000e-06	4.886552e-06	5.314038e-09	3.496266e+01	3.495638e+02
1.890000e-06	4.843921e-06	5.283924e-09	3.465764e+01	3.480068e+02
1.900000e-06	4.799668e-06	5.249859e-09	3.434102e+01	3.463614e+02
1.910000e-06	4.753737e-06	5.188895e-09	3.401239e+01	3.446319e+02
1.920000e-06	4.705702e-06	5.304190e-09	3.366871e+01	3.428235e+02
1.930000e-06	4.655965e-06	5.197163e-09	3.331284e+01	3.409413e+02
1.940000e-06	4.604656e-06	5.133924e-09	3.294573e+01	3.389898e+02
1.950000e-06	4.551378e-06	5.158995e-09	3.256454e+01	3.369724e+02
1.960000e-06	4.496071e-06	5.054833e-09	3.216882e+01	3.348910e+02
1.970000e-06	4.438914e-06	5.052579e-09	3.175987e+01	3.327458e+02
1.980000e-06	4.380274e-06	5.046644e-09	3.134031e+01	3.305353e+02
1.990000e-06	4.320177e-06	5.047039e-09	3.091032e+01	3.282568e+02
2.000000e-06	4.258410e-06	4.981643e-09	3.046839e+01	3.259063e+02
2.010000e-06	4.195076e-06	4.882447e-09	3.001524e+01	3.234798e+02
2.020000e-06	4.130265e-06	4.909516e-09	2.955152e+01	3.209731e+02
2.030000e-06	4.063995e-06	4.842447e-09	2.907737e+01	3.183829e+02
2.040000e-06	3.996336e-06	4.800122e-09	2.859328e+01	3.157066e+02
2.050000e-06	3.927288e-06	4.785751e-09	2.809925e+01	3.129429e+02
2.060000e-06	3.856658e-06	4.746159e-09	2.759390e+01	3.100917e+02
2.070000e-06	3.784532e-06	4.708263e-09	2.707785e+01	3.071538e+02
2.080000e-06	3.711152e-06	4.612048e-09	2.655282e+01	3.041311e+02
2.090000e-06	3.636452e-06	4.589170e-09	2.601836e+01	3.010255e+02
2.100000e-06	3.560383e-06	4.538999e-09	2.547409e+01	2.978392e+02
2.110000e-06	3.482783e-06	4.468847e-09	2.491887e+01	2.945738e+02
2.120000e-06	3.403706e-06	4.431315e-09	2.435309e+01	2.912302e+02
2.130000e-06	3.323422e-06	4.398649e-09	2.377866e+01	2.878086e+02
2.140000e-06	3.242040e-06	4.368665e-09	2.319639e+01	2.843082e+02
2.150000e-06	3.159639e-06	4.284620e-09	2.260682e+01	2.807271e+02
2.160000e-06	3.076198e-06	4.220929e-09	2.200981e+01	2.770630e+02
2.170000e-06	2.991652e-06	4.157239e-09	2.140489e+01	2.733132e+02
2.180000e-06	2.905938e-06	4.104729e-09	2.079162e+01	2.694747e+02
2.190000e-06	2.819016e-06	4.062505e-09	2.016971e+01	2.655446e+02
2.200000e-06	2.730968e-06	3.999530e-09	1.953973e+01	2.615206e+02
2.210000e-06	2.641959e-06	3.934616e-09	1.890288e+01	2.574004e+02
2.220000e-06	2.552057e-06	3.856877e-09	1.825965e+01	2.531826e+02
2.230000e-06	2.461257e-06	3.793695e-09	1.760999e+01	2.488658e+02
2.240000e-06	2.369664e-06	3.733920e-09	1.695464e+01	2.444490e+02
2.250000e-06	2.277333e-06	3.676810e-09	1.629403e+01	2.399313e+02
2.260000e-06	2.184295e-06	3.610039e-09	1.562836e+01	2.353113e+02
2.270000e-06	2.090376e-06	3.529795e-09	1.495637e+01	2.305877e+02
2.280000e-06	1.995353e-06	3.445733e-09	1.427650e+01	2.257585e+02
2.290000e-06	1.899454e-06	3.367633e-09	1.359036e+01	2.208213e+02
2.300000e-06	1.803000e-06	3.295720e-09	1.290024e+01	2.157733e+02
2.310000e-06	1.706135e-06	3.212813e-09	1.220718e+01	2.106116e+02
2.320000e-06	1.608752e-06	3.131852e-09	1.151042e+01	2.053329e+02
2.330000e-06	1.510767e-06	3.056090e-09	1.080935e+01	1.999344e+02
2.340000e-06	1.412275e-06	2.981583e-09	1.010465e+01	1.944133e+02
2.350000e-06	1.313352e-06	2.898258e-09	9.396866e+00	1.887676e+02
2.360000e-06	1.214059e-06	2.805062e-09	8.686440e+00	1.829956e+02
2.370000e-06	1.114468e-06	2.708230e-09	7.973880e+00	1.770961e+02
2.380000e-06	1.014535e-06	2.613698e-09	7.258867e+00	1.710685e+02
2.390000e-06	9.142196e-07	2.525994e-09	6.541126e+00	1.649123e+02
2.400000e-06	8.135224e-07	2.438209e-09	5.820650e+00	1.586271e+02
2.410000e-06	7.124863e-07	2.340836e-09	5.097749e+00	1.522121e+02
2.420000e-06	6.113399e-07	2.231214e-09	4.374060e+00	1.456662e+02
2.430000e-06	5.100879e-07	2.121222e-09	3.649614e+00	1.389871e+02
2.440000e-06	4.086440e-07	2.019052e-09	2.923796e+00	1.321718e+02
2.450000e-06	3.070770e-07	1.921511e-09	2.197097e+00	1.252160e+02
2.460000e-06	2.053775e-07	1.818102e-09	1.469450e+00	1.181144e+02
2.470000e-06	1.035312e-07	1.703997e-09	7.407524e-01	1.108604e+02
2.480000e-06	1.611421e-09	1.581948e-09	1.152952e-02	1.034464e+02
2.490000e-06	-1.003119e-07	1.461710e-09	-7.177190e-01	9.586404e+01
2.500000e-06	-2.022034e-07	1.346605e-09	-1.446740e+00	8.810420e+01
2.510000e-06	-3.040277e-07	1.230133e-09	-2.175280e+00	8.015758e+01
2.520000e-06	-4.057508e-07	1.107417e-09	-2.903096e+00	7.201482e+01
2.530000e-06	-5.073648e-07	9.770621e-10	-3.630131e+00	6.366697e+01
2.540000e-06	-6.088090e-07	8.450935e-10	-4.355952e+00	5.510585e+01
2.550000e-06	-7.100295e-07	7.122872e-10	-5.080172e+00	4.632448e+01
2.560000e-06	-8.109980e-07	5.740239e-10	-5.802588e+00	3.731757e+01
2.570000e-06	-9.116795e-07	4.297601e-10	-6.522952e+00	2.808200e+01
2.580000e-06	-1.012002e-06	2.819546e-10	-7.240747e+00	1.861734e+01
2.590000e-06	-1.111838e-06	1.337947e-10	-7.955060e+00	8.926298e+00
2.600000e-06	-1.211180e-06	-1.440480e-11	-8.665838e+00	-9.847788e-01
2.610000e-06	-1.310150e-06	-1.648960e-10	-9.373960e+00	-1.110553e+01
2.620000e-06	-1.408755e-06	-3.200294e-10	-1.007946e+01	-2.142128e+01
2.630000e-06	-1.506913e-06	-4.819085e-10	-1.078177e+01	-3.191294e+01
2.640000e-06	-1.604499e-06	-6.466084e-10	-1.147999e+01	-4.255695e+01
2.650000e-06	-1.701483e-06	-8.090572e-10	-1.217390e+01	-5.332553e+01
2.660000e-06	-1.798025e-06	-9.705292e-10	-1.286464e+01	-6.418707e+01
2.670000e-06	-1.894085e-06	-1.134959e-09	-1.355194e+01	-7.510670e+01
2.680000e-06	-1.989423e-06	-1.304139e-09	-1.423407e+01	-8.604700e+01
2.690000e-06	-2.083897e-06	-1.475332e-09	-1.491002e+01	-9.696886e+01
2.700000e-06	-2.177509e-06	-1.644070e-09	-1.557980e+01	-1.078324e+02
2.710000e-06	-2.270249e-06	-1.806210e-09	-1.624334e+01	-1.185980e+02
2.720000e-06	-2.362068e-06	-1.963878e-09	-1.690030e+01	-1.292270e+02
2.730000e-06	-2.453010e-06	-2.121292e-09	-1.755098e+01	-1.396830e+02
2.740000e-06	-2.543089e-06	-2.277536e-09	-1.819548e+01	-1.499318e+02
2.750000e-06	-2.632273e-06	-2.428707e-09	-1.883358e+01	-1.599432e+02
2.760000e-06	-2.720612e-06	-2.575334e-09	-1.946564e+01	-1.696903e+02
2.770000e-06	-2.808102e-06	-2.721165e-09	-2.009161e+01	-1.791506e+02
2.780000e-06	-2.894613e-06	-2.864147e-09	-2.071059e+01	-1.883059e+02
2.790000e-06	-2.979977e-06	-3.000820e-09	-2.132136e+01	-1.971428e+02
2.800000e-06	-3.064210e-06	-3.131722e-09	-2.192403e+01	-2.056521e+02
2.810000e-06	-3.147429e-06	-3.258204e-09	-2.251946e+01	-2.138292e+02
2.820000e-06	-3.229644e-06	-3.377569e-09	-2.310770e+01	-2.216736e+02
2.830000e-06	-3.310833e-06	-3.490728e-09	-2.368860e+01	-2.291891e+02
2.840000e-06	-3.390940e-06	-3.602459e-09	-2.426175e+01	-2.363831e+02
2.850000e-06	-3.469748e-06	-3.712122e-09	-2.482561e+01	-2.432660e+02
2.860000e-06	-3.547060e-06	-3.814538e-09	-2.537877e+01	-2.498511e+02
2.870000e-06	-3.622908e-06	-3.909103e-09	-2.592145e+01	-2.561538e+02
2.880000e-06	-3.697330e-06	-4.001903e-09	-2.645393e+01	-2.621906e+02
2.890000e-06	-3.770376e-06	-4.092406e-09	-2.697657e+01	-2.679786e+02
2.900000e-06	-3.842186e-06	-4.177531e-09	-2.749036e+01	-2.735345e+02
2.910000e-06	-3.912616e-06	-4.258356e-09	-2.799427e+01	-2.788738e+02
2.920000e-06	-3.981420e-06	-4.335621e-09	-2.848656e+01	-2.840101e+02
2.930000e-06	-4.048783e-06	-4.410441e-09	-2.896853e+01	-2.889548e+02
2.940000e-06	-4.114836e-06	-4.484019e-09	-2.944114e+01	-2.937161e+02
