# Temperatura_=_48.9
# Concentracion g/m^3_=_15000.0
# C_Vs_to_Am_M_A/Vsm_=_65563218390.804596
# pendiente_HvsI_1/m_=_3716.3
# ordenada_HvsI_A/m_=_1297.0
# frecuencia_Hz_=_301595.64061829273

Tiempo_(s)	Campo_(V.s)	Magnetizacion_(V.s)	Campo_(kA/m)	Magnetizacion_(A/m)
0.000000e+00	-5.367694e-06	-6.250237e-09	-3.833625e+01	-4.083296e+02
1.000000e-08	-5.364968e-06	-6.247184e-09	-3.831678e+01	-4.081790e+02
2.000000e-08	-5.360514e-06	-6.242514e-09	-3.828497e+01	-4.079404e+02
3.000000e-08	-5.354443e-06	-6.235911e-09	-3.824161e+01	-4.076120e+02
4.000000e-08	-5.346813e-06	-6.227425e-09	-3.818712e+01	-4.071928e+02
5.000000e-08	-5.337352e-06	-6.218043e-09	-3.811954e+01	-4.066836e+02
6.000000e-08	-5.325797e-06	-6.207491e-09	-3.803702e+01	-4.060871e+02
7.000000e-08	-5.312345e-06	-6.197378e-09	-3.794095e+01	-4.054076e+02
8.000000e-08	-5.296837e-06	-6.189471e-09	-3.783019e+01	-4.046512e+02
9.000000e-08	-5.279072e-06	-6.199559e-09	-3.770331e+01	-4.038250e+02
1.000000e-07	-5.259273e-06	-6.196344e-09	-3.756190e+01	-4.029359e+02
1.100000e-07	-5.237562e-06	-6.160653e-09	-3.740684e+01	-4.019906e+02
1.200000e-07	-5.214124e-06	-6.126058e-09	-3.723945e+01	-4.009941e+02
1.300000e-07	-5.189160e-06	-6.091953e-09	-3.706115e+01	-3.999491e+02
1.400000e-07	-5.162592e-06	-6.071278e-09	-3.687140e+01	-3.988558e+02
1.500000e-07	-5.134417e-06	-6.100935e-09	-3.667018e+01	-3.977118e+02
1.600000e-07	-5.104816e-06	-6.070448e-09	-3.645876e+01	-3.965117e+02
1.700000e-07	-5.073621e-06	-6.031037e-09	-3.623597e+01	-3.952485e+02
1.800000e-07	-5.040335e-06	-6.039700e-09	-3.599824e+01	-3.939136e+02
1.900000e-07	-5.005202e-06	-5.985419e-09	-3.574732e+01	-3.924981e+02
2.000000e-07	-4.968671e-06	-5.958030e-09	-3.548641e+01	-3.909936e+02
2.100000e-07	-4.930437e-06	-5.944682e-09	-3.521334e+01	-3.893930e+02
2.200000e-07	-4.890328e-06	-5.889369e-09	-3.492689e+01	-3.876915e+02
2.300000e-07	-4.848259e-06	-5.883090e-09	-3.462642e+01	-3.858865e+02
2.400000e-07	-4.804253e-06	-5.870858e-09	-3.431213e+01	-3.839780e+02
2.500000e-07	-4.758519e-06	-5.832704e-09	-3.398550e+01	-3.819683e+02
2.600000e-07	-4.710900e-06	-5.808293e-09	-3.364540e+01	-3.798615e+02
2.700000e-07	-4.661210e-06	-5.739781e-09	-3.329051e+01	-3.776629e+02
2.800000e-07	-4.609477e-06	-5.708213e-09	-3.292104e+01	-3.753781e+02
2.900000e-07	-4.555891e-06	-5.700271e-09	-3.253832e+01	-3.730124e+02
3.000000e-07	-4.500698e-06	-5.659165e-09	-3.214414e+01	-3.705699e+02
3.100000e-07	-4.443843e-06	-5.622174e-09	-3.173807e+01	-3.680534e+02
3.200000e-07	-4.385161e-06	-5.573529e-09	-3.131897e+01	-3.654637e+02
3.300000e-07	-4.324836e-06	-5.518112e-09	-3.088812e+01	-3.628002e+02
3.400000e-07	-4.263081e-06	-5.474311e-09	-3.044707e+01	-3.600606e+02
3.500000e-07	-4.199986e-06	-5.447337e-09	-2.999644e+01	-3.572417e+02
3.600000e-07	-4.135447e-06	-5.407792e-09	-2.953550e+01	-3.543398e+02
3.700000e-07	-4.069199e-06	-5.347748e-09	-2.906235e+01	-3.513509e+02
3.800000e-07	-4.001354e-06	-5.303098e-09	-2.857780e+01	-3.482719e+02
3.900000e-07	-3.932139e-06	-5.255961e-09	-2.808347e+01	-3.451003e+02
4.000000e-07	-3.861626e-06	-5.203436e-09	-2.757986e+01	-3.418344e+02
4.100000e-07	-3.789972e-06	-5.153757e-09	-2.706811e+01	-3.384740e+02
4.200000e-07	-3.717034e-06	-5.095353e-09	-2.654718e+01	-3.350192e+02
4.300000e-07	-3.642470e-06	-5.043928e-09	-2.601464e+01	-3.314709e+02
4.400000e-07	-3.566252e-06	-4.994259e-09	-2.547029e+01	-3.278303e+02
4.500000e-07	-3.488621e-06	-4.945794e-09	-2.491585e+01	-3.240982e+02
4.600000e-07	-3.409589e-06	-4.891870e-09	-2.435140e+01	-3.202749e+02
4.700000e-07	-3.329209e-06	-4.819740e-09	-2.377732e+01	-3.163600e+02
4.800000e-07	-3.247668e-06	-4.746755e-09	-2.319495e+01	-3.123523e+02
4.900000e-07	-3.164975e-06	-4.688442e-09	-2.260435e+01	-3.082496e+02
5.000000e-07	-3.081269e-06	-4.633466e-09	-2.200652e+01	-3.040492e+02
5.100000e-07	-2.996696e-06	-4.566290e-09	-2.140250e+01	-2.997479e+02
5.200000e-07	-2.911192e-06	-4.496543e-09	-2.079183e+01	-2.953423e+02
5.300000e-07	-2.824690e-06	-4.421478e-09	-2.017403e+01	-2.908292e+02
5.400000e-07	-2.737293e-06	-4.345768e-09	-1.954984e+01	-2.862057e+02
5.500000e-07	-2.649013e-06	-4.276647e-09	-1.891933e+01	-2.814696e+02
5.600000e-07	-2.559585e-06	-4.207532e-09	-1.828064e+01	-2.766193e+02
5.700000e-07	-2.468891e-06	-4.132226e-09	-1.763290e+01	-2.716538e+02
5.800000e-07	-2.377226e-06	-4.048645e-09	-1.697822e+01	-2.665727e+02
5.900000e-07	-2.284867e-06	-3.969435e-09	-1.631860e+01	-2.613760e+02
6.000000e-07	-2.191775e-06	-3.892276e-09	-1.565373e+01	-2.560639e+02
6.100000e-07	-2.097901e-06	-3.809011e-09	-1.498327e+01	-2.506366e+02
6.200000e-07	-2.003292e-06	-3.720584e-09	-1.430758e+01	-2.450942e+02
6.300000e-07	-1.908018e-06	-3.630618e-09	-1.362713e+01	-2.394364e+02
6.400000e-07	-1.812132e-06	-3.542568e-09	-1.294231e+01	-2.336626e+02
6.500000e-07	-1.715584e-06	-3.456534e-09	-1.225276e+01	-2.277717e+02
6.600000e-07	-1.618262e-06	-3.369854e-09	-1.155768e+01	-2.217620e+02
6.700000e-07	-1.520168e-06	-3.274261e-09	-1.085709e+01	-2.156316e+02
6.800000e-07	-1.421413e-06	-3.170107e-09	-1.015178e+01	-2.093781e+02
6.900000e-07	-1.322118e-06	-3.067157e-09	-9.442607e+00	-2.029984e+02
7.000000e-07	-1.222428e-06	-2.971109e-09	-8.730624e+00	-1.964893e+02
7.100000e-07	-1.122452e-06	-2.875260e-09	-8.016588e+00	-1.898470e+02
7.200000e-07	-1.022186e-06	-2.771683e-09	-7.300488e+00	-1.830672e+02
7.300000e-07	-9.216406e-07	-2.664412e-09	-6.582387e+00	-1.761453e+02
7.400000e-07	-8.208077e-07	-2.555647e-09	-5.862235e+00	-1.690760e+02
7.500000e-07	-7.196755e-07	-2.444892e-09	-5.139946e+00	-1.618538e+02
7.600000e-07	-6.182702e-07	-2.334586e-09	-4.415706e+00	-1.544729e+02
7.700000e-07	-5.166531e-07	-2.220970e-09	-3.689954e+00	-1.469271e+02
7.800000e-07	-4.148805e-07	-2.101008e-09	-2.963090e+00	-1.392103e+02
7.900000e-07	-3.129646e-07	-1.977555e-09	-2.235203e+00	-1.313163e+02
8.000000e-07	-2.109109e-07	-1.854420e-09	-1.506332e+00	-1.232388e+02
8.100000e-07	-1.087204e-07	-1.733155e-09	-7.764848e-01	-1.149719e+02
8.200000e-07	-6.450107e-09	-1.606762e-09	-4.606688e-02	-1.065094e+02
8.300000e-07	9.581131e-08	-1.472202e-09	6.842876e-01	-9.784531e+01
8.400000e-07	1.980207e-07	-1.333521e-09	1.414271e+00	-8.897320e+01
8.500000e-07	3.002105e-07	-1.193042e-09	2.144113e+00	-7.988644e+01
8.600000e-07	4.023350e-07	-1.050734e-09	2.873490e+00	-7.057797e+01
8.700000e-07	5.043003e-07	-9.048804e-10	3.601730e+00	-6.104034e+01
8.800000e-07	6.061124e-07	-7.543718e-10	4.328875e+00	-5.126587e+01
8.900000e-07	7.077123e-07	-5.980070e-10	5.054505e+00	-4.124709e+01
9.000000e-07	8.090633e-07	-4.374028e-10	5.778357e+00	-3.097733e+01
9.100000e-07	9.101512e-07	-2.762702e-10	6.500330e+00	-2.045157e+01
9.200000e-07	1.010913e-06	-1.144989e-10	7.219974e+00	-9.667414e+00
9.300000e-07	1.111332e-06	5.206870e-11	7.937171e+00	1.373712e+00
9.400000e-07	1.211438e-06	2.246836e-10	8.652131e+00	1.266549e+01
9.500000e-07	1.311250e-06	4.017972e-10	9.364988e+00	2.419566e+01
9.600000e-07	1.410603e-06	5.811508e-10	1.007458e+01	3.594524e+01
9.700000e-07	1.509321e-06	7.621050e-10	1.077962e+01	4.788808e+01
9.800000e-07	1.607318e-06	9.450587e-10	1.147952e+01	5.999088e+01
9.900000e-07	1.704556e-06	1.131399e-09	1.217400e+01	7.221365e+01
1.000000e-06	1.801020e-06	1.318546e-09	1.286294e+01	8.451070e+01
1.010000e-06	1.896752e-06	1.504775e-09	1.354666e+01	9.683206e+01
1.020000e-06	1.991804e-06	1.689894e-09	1.422553e+01	1.091252e+02
1.030000e-06	2.086154e-06	1.872857e-09	1.489938e+01	1.213370e+02
1.040000e-06	2.179826e-06	2.055915e-09	1.556839e+01	1.334158e+02
1.050000e-06	2.272764e-06	2.237365e-09	1.623215e+01	1.453131e+02
1.060000e-06	2.364999e-06	2.415183e-09	1.689090e+01	1.569855e+02
1.070000e-06	2.456576e-06	2.588355e-09	1.754494e+01	1.683952e+02
1.080000e-06	2.547267e-06	2.757013e-09	1.819266e+01	1.795115e+02
1.090000e-06	2.636750e-06	2.922797e-09	1.883175e+01	1.903104e+02
1.100000e-06	2.725059e-06	3.085338e-09	1.946246e+01	2.007746e+02
1.110000e-06	2.812467e-06	3.242221e-09	2.008673e+01	2.108927e+02
1.120000e-06	2.899017e-06	3.391968e-09	2.070487e+01	2.206582e+02
1.130000e-06	2.984658e-06	3.534823e-09	2.131653e+01	2.300687e+02
1.140000e-06	3.069364e-06	3.671791e-09	2.192150e+01	2.391247e+02
1.150000e-06	3.153174e-06	3.802964e-09	2.252008e+01	2.478285e+02
1.160000e-06	3.235982e-06	3.928361e-09	2.311149e+01	2.561840e+02
1.170000e-06	3.317542e-06	4.048311e-09	2.369400e+01	2.641963e+02
1.180000e-06	3.397795e-06	4.164352e-09	2.426716e+01	2.718711e+02
1.190000e-06	3.476835e-06	4.274587e-09	2.483167e+01	2.792157e+02
1.200000e-06	3.554703e-06	4.379810e-09	2.538781e+01	2.862387e+02
1.210000e-06	3.631337e-06	4.483090e-09	2.593513e+01	2.929505e+02
1.220000e-06	3.706625e-06	4.581176e-09	2.647284e+01	2.993636e+02
1.230000e-06	3.780362e-06	4.672149e-09	2.699947e+01	3.054928e+02
1.240000e-06	3.852468e-06	4.757519e-09	2.751445e+01	3.113544e+02
1.250000e-06	3.923166e-06	4.841347e-09	2.801938e+01	3.169665e+02
1.260000e-06	3.992503e-06	4.924882e-09	2.851459e+01	3.223477e+02
1.270000e-06	4.060471e-06	5.005571e-09	2.900002e+01	3.275161e+02
1.280000e-06	4.127025e-06	5.082336e-09	2.947535e+01	3.324888e+02
1.290000e-06	4.191930e-06	5.155606e-09	2.993890e+01	3.372800e+02
1.300000e-06	4.255262e-06	5.225722e-09	3.039123e+01	3.419013e+02
1.310000e-06	4.317141e-06	5.293996e-09	3.083317e+01	3.463601e+02
1.320000e-06	4.377649e-06	5.360636e-09	3.126532e+01	3.506602e+02
1.330000e-06	4.436767e-06	5.423818e-09	3.168754e+01	3.548016e+02
1.340000e-06	4.494189e-06	5.483420e-09	3.209765e+01	3.587816e+02
1.350000e-06	4.549811e-06	5.539805e-09	3.249490e+01	3.625949e+02
1.360000e-06	4.603797e-06	5.592846e-09	3.288047e+01	3.662359e+02
1.370000e-06	4.656081e-06	5.643552e-09	3.325388e+01	3.696988e+02
1.380000e-06	4.706388e-06	5.691418e-09	3.361318e+01	3.729794e+02
1.390000e-06	4.754728e-06	5.737513e-09	3.395842e+01	3.760758e+02
1.400000e-06	4.801329e-06	5.780938e-09	3.429125e+01	3.789888e+02
1.410000e-06	4.846351e-06	5.820628e-09	3.461280e+01	3.817224e+02
1.420000e-06	4.889835e-06	5.858184e-09	3.492336e+01	3.842832e+02
1.430000e-06	4.931476e-06	5.892800e-09	3.522076e+01	3.866799e+02
1.440000e-06	4.971220e-06	5.924543e-09	3.550462e+01	3.889229e+02
1.450000e-06	5.009351e-06	5.953783e-09	3.577695e+01	3.910228e+02
1.460000e-06	5.045879e-06	5.980929e-09	3.603783e+01	3.929896e+02
1.470000e-06	5.080632e-06	6.008268e-09	3.628604e+01	3.948321e+02
1.480000e-06	5.113447e-06	6.035309e-09	3.652040e+01	3.965570e+02
1.490000e-06	5.144441e-06	6.060014e-09	3.674177e+01	3.981689e+02
1.500000e-06	5.173782e-06	6.081004e-09	3.695132e+01	3.996702e+02
1.510000e-06	5.201516e-06	6.099347e-09	3.714940e+01	4.010616e+02
1.520000e-06	5.227271e-06	6.117909e-09	3.733334e+01	4.023424e+02
1.530000e-06	5.250853e-06	6.135969e-09	3.750177e+01	4.035116e+02
1.540000e-06	5.272615e-06	6.151650e-09	3.765719e+01	4.045684e+02
1.550000e-06	5.292718e-06	6.165410e-09	3.780076e+01	4.055125e+02
1.560000e-06	5.310958e-06	6.179213e-09	3.793104e+01	4.063454e+02
1.570000e-06	5.327168e-06	6.192576e-09	3.804681e+01	4.070695e+02
1.580000e-06	5.341398e-06	6.203632e-09	3.814844e+01	4.076887e+02
1.590000e-06	5.353674e-06	6.212952e-09	3.823612e+01	4.082078e+02
1.600000e-06	5.363797e-06	6.220674e-09	3.830842e+01	4.086319e+02
1.610000e-06	5.371750e-06	6.226940e-09	3.836522e+01	4.089658e+02
1.620000e-06	5.377815e-06	6.232442e-09	3.840853e+01	4.092138e+02
1.630000e-06	5.382176e-06	6.236723e-09	3.843968e+01	4.093784e+02
1.640000e-06	5.384621e-06	6.239567e-09	3.845714e+01	4.094610e+02
1.650000e-06	5.385021e-06	6.242108e-09	3.846000e+01	4.094614e+02
1.660000e-06	5.383638e-06	6.242678e-09	3.845012e+01	4.093779e+02
1.670000e-06	5.380579e-06	6.239165e-09	3.842827e+01	4.092085e+02
1.680000e-06	5.375849e-06	6.235910e-09	3.839449e+01	4.089505e+02
1.690000e-06	5.369230e-06	6.233127e-09	3.834722e+01	4.086025e+02
1.700000e-06	5.360773e-06	6.229838e-09	3.828682e+01	4.081637e+02
1.710000e-06	5.350782e-06	6.225046e-09	3.821546e+01	4.076353e+02
1.720000e-06	5.339151e-06	6.217997e-09	3.813239e+01	4.070203e+02
1.730000e-06	5.325542e-06	6.209686e-09	3.803520e+01	4.063236e+02
1.740000e-06	5.309844e-06	6.171926e-09	3.792308e+01	4.055514e+02
1.750000e-06	5.291804e-06	6.143728e-09	3.779424e+01	4.047109e+02
1.760000e-06	5.271067e-06	6.150671e-09	3.764613e+01	4.038091e+02
1.770000e-06	5.247995e-06	6.153439e-09	3.748135e+01	4.028522e+02
1.780000e-06	5.223607e-06	6.173108e-09	3.730717e+01	4.018449e+02
1.790000e-06	5.198548e-06	6.140393e-09	3.712820e+01	4.007895e+02
1.800000e-06	5.172115e-06	6.056562e-09	3.693942e+01	3.996854e+02
1.810000e-06	5.143488e-06	6.082358e-09	3.673496e+01	3.985297e+02
1.820000e-06	5.113045e-06	6.068235e-09	3.651754e+01	3.973166e+02
1.830000e-06	5.080893e-06	6.012659e-09	3.628791e+01	3.960385e+02
1.840000e-06	5.046759e-06	6.047256e-09	3.604412e+01	3.946869e+02
1.850000e-06	5.011042e-06	6.006525e-09	3.578903e+01	3.932527e+02
1.860000e-06	4.973598e-06	5.977431e-09	3.552160e+01	3.917279e+02
1.870000e-06	4.934259e-06	5.980735e-09	3.524064e+01	3.901059e+02
1.880000e-06	4.893263e-06	5.886561e-09	3.494785e+01	3.883821e+02
1.890000e-06	4.850442e-06	5.874914e-09	3.464202e+01	3.865546e+02
1.900000e-06	4.806043e-06	5.845289e-09	3.432492e+01	3.846239e+02
1.910000e-06	4.759849e-06	5.793224e-09	3.399500e+01	3.825928e+02
1.920000e-06	4.711516e-06	5.840296e-09	3.364981e+01	3.804657e+02
1.930000e-06	4.661578e-06	5.757726e-09	3.329314e+01	3.782479e+02
1.940000e-06	4.610012e-06	5.704866e-09	3.292486e+01	3.759452e+02
1.950000e-06	4.556431e-06	5.701404e-09	3.254218e+01	3.735625e+02
1.960000e-06	4.500865e-06	5.617337e-09	3.214533e+01	3.711037e+02
1.970000e-06	4.443535e-06	5.597821e-09	3.173588e+01	3.685713e+02
1.980000e-06	4.384758e-06	5.573657e-09	3.131609e+01	3.659657e+02
1.990000e-06	4.324542e-06	5.544772e-09	3.088602e+01	3.632859e+02
2.000000e-06	4.262609e-06	5.494742e-09	3.044370e+01	3.605294e+02
2.010000e-06	4.199011e-06	5.429283e-09	2.998948e+01	3.576929e+02
2.020000e-06	4.133947e-06	5.416011e-09	2.952479e+01	3.547724e+02
2.030000e-06	4.067485e-06	5.344680e-09	2.905011e+01	3.517643e+02
2.040000e-06	3.999657e-06	5.306334e-09	2.856568e+01	3.486654e+02
2.050000e-06	3.930321e-06	5.273012e-09	2.807049e+01	3.454734e+02
2.060000e-06	3.859404e-06	5.209153e-09	2.756399e+01	3.421871e+02
2.070000e-06	3.787119e-06	5.167447e-09	2.704773e+01	3.388061e+02
2.080000e-06	3.713549e-06	5.092639e-09	2.652229e+01	3.353310e+02
2.090000e-06	3.638656e-06	5.051730e-09	2.598740e+01	3.317627e+02
2.100000e-06	3.562420e-06	4.989961e-09	2.544292e+01	3.281022e+02
2.110000e-06	3.484580e-06	4.918235e-09	2.488698e+01	3.243503e+02
2.120000e-06	3.405257e-06	4.880808e-09	2.432046e+01	3.205072e+02
2.130000e-06	3.324821e-06	4.823979e-09	2.374598e+01	3.165723e+02
2.140000e-06	3.243302e-06	4.765062e-09	2.316377e+01	3.125443e+02
2.150000e-06	3.160694e-06	4.696461e-09	2.257378e+01	3.084207e+02
2.160000e-06	3.077031e-06	4.633113e-09	2.197626e+01	3.041987e+02
2.170000e-06	2.992355e-06	4.561196e-09	2.137150e+01	2.998751e+02
2.180000e-06	2.906383e-06	4.493806e-09	2.075748e+01	2.954466e+02
2.190000e-06	2.819117e-06	4.434000e-09	2.013423e+01	2.909098e+02
2.200000e-06	2.730875e-06	4.364019e-09	1.950400e+01	2.862622e+02
2.210000e-06	2.641693e-06	4.290267e-09	1.886706e+01	2.815015e+02
2.220000e-06	2.551588e-06	4.208905e-09	1.822353e+01	2.766263e+02
2.230000e-06	2.460629e-06	4.136275e-09	1.757390e+01	2.716359e+02
2.240000e-06	2.368958e-06	4.058230e-09	1.691918e+01	2.665298e+02
2.250000e-06	2.276602e-06	3.981315e-09	1.625957e+01	2.613081e+02
2.260000e-06	2.183408e-06	3.904960e-09	1.559397e+01	2.559711e+02
2.270000e-06	2.089189e-06	3.819187e-09	1.492106e+01	2.505189e+02
2.280000e-06	1.993914e-06	3.729783e-09	1.424060e+01	2.449516e+02
2.290000e-06	1.897840e-06	3.642552e-09	1.355444e+01	2.392688e+02
2.300000e-06	1.801271e-06	3.557421e-09	1.286473e+01	2.334698e+02
2.310000e-06	1.704250e-06	3.465940e-09	1.217181e+01	2.275533e+02
2.320000e-06	1.606685e-06	3.372792e-09	1.147500e+01	2.215178e+02
2.330000e-06	1.508540e-06	3.283310e-09	1.077404e+01	2.153610e+02
2.340000e-06	1.409877e-06	3.194745e-09	1.006939e+01	2.090805e+02
2.350000e-06	1.310769e-06	3.095787e-09	9.361557e+00	2.026732e+02
2.360000e-06	1.211285e-06	2.993268e-09	8.651038e+00	1.961357e+02
2.370000e-06	1.111555e-06	2.889159e-09	7.938762e+00	1.894641e+02
2.380000e-06	1.011592e-06	2.781986e-09	7.224822e+00	1.826540e+02
2.390000e-06	9.113174e-07	2.678446e-09	6.508659e+00	1.757007e+02
2.400000e-06	8.106582e-07	2.575949e-09	5.789748e+00	1.685989e+02
2.410000e-06	7.096393e-07	2.469891e-09	5.068267e+00	1.613430e+02
2.420000e-06	6.084410e-07	2.354230e-09	4.345506e+00	1.539271e+02
2.430000e-06	5.070254e-07	2.233512e-09	3.621192e+00	1.463450e+02
2.440000e-06	4.053155e-07	2.114372e-09	2.894776e+00	1.385905e+02
2.450000e-06	3.033677e-07	1.994471e-09	2.166662e+00	1.306575e+02
2.460000e-06	2.012639e-07	1.869285e-09	1.437433e+00	1.225397e+02
2.470000e-06	9.900673e-08	1.741730e-09	7.071093e-01	1.142312e+02
2.480000e-06	-3.362731e-09	1.612517e-09	-2.401674e-02	1.057258e+02
2.490000e-06	-1.057366e-07	1.481704e-09	-7.551744e-01	9.701744e+01
2.500000e-06	-2.080673e-07	1.348967e-09	-1.486024e+00	8.809969e+01
2.510000e-06	-3.102742e-07	1.211771e-09	-2.215989e+00	7.896582e+01
2.520000e-06	-4.122961e-07	1.069783e-09	-2.944632e+00	6.960867e+01
2.530000e-06	-5.141443e-07	9.221132e-10	-3.672035e+00	6.002071e+01
2.540000e-06	-6.158114e-07	7.727001e-10	-4.398146e+00	5.019429e+01
2.550000e-06	-7.171692e-07	6.233552e-10	-5.122046e+00	4.012204e+01
2.560000e-06	-8.181616e-07	4.681541e-10	-5.843337e+00	2.979756e+01
2.570000e-06	-9.188144e-07	3.048696e-10	-6.562203e+00	1.921629e+01
2.580000e-06	-1.019138e-06	1.371684e-10	-7.278715e+00	8.376594e+00
2.590000e-06	-1.119084e-06	-3.191205e-11	-7.992536e+00	-2.719178e+00
2.600000e-06	-1.218662e-06	-2.021597e-10	-8.703722e+00	-1.406351e+01
2.610000e-06	-1.317872e-06	-3.756779e-10	-9.412286e+00	-2.564274e+01
2.620000e-06	-1.416654e-06	-5.534942e-10	-1.011779e+01	-3.743640e+01
2.630000e-06	-1.514956e-06	-7.376704e-10	-1.081987e+01	-4.941677e+01
2.640000e-06	-1.612691e-06	-9.274618e-10	-1.151789e+01	-6.154907e+01
2.650000e-06	-1.709767e-06	-1.118258e-09	-1.221121e+01	-7.379199e+01
2.660000e-06	-1.806286e-06	-1.308242e-09	-1.290056e+01	-8.609879e+01
2.670000e-06	-1.902395e-06	-1.497698e-09	-1.358697e+01	-9.841878e+01
2.680000e-06	-1.997986e-06	-1.686880e-09	-1.426968e+01	-1.106992e+02
2.690000e-06	-2.092741e-06	-1.875057e-09	-1.494642e+01	-1.228870e+02
2.700000e-06	-2.186432e-06	-2.060185e-09	-1.561557e+01	-1.349310e+02
2.710000e-06	-2.279159e-06	-2.240121e-09	-1.627783e+01	-1.467838e+02
2.720000e-06	-2.371048e-06	-2.416458e-09	-1.693411e+01	-1.584030e+02
2.730000e-06	-2.462113e-06	-2.589339e-09	-1.758450e+01	-1.697524e+02
2.740000e-06	-2.552325e-06	-2.757131e-09	-1.822879e+01	-1.808027e+02
2.750000e-06	-2.641605e-06	-2.919376e-09	-1.886643e+01	-1.915314e+02
2.760000e-06	-2.729989e-06	-3.076058e-09	-1.949767e+01	-2.019224e+02
2.770000e-06	-2.817604e-06	-3.229923e-09	-2.012342e+01	-2.119655e+02
2.780000e-06	-2.904315e-06	-3.380372e-09	-2.074271e+01	-2.216553e+02
2.790000e-06	-2.989779e-06	-3.523309e-09	-2.135310e+01	-2.309900e+02
2.800000e-06	-3.074055e-06	-3.658960e-09	-2.195500e+01	-2.399704e+02
2.810000e-06	-3.157346e-06	-3.790224e-09	-2.254987e+01	-2.485994e+02
2.820000e-06	-3.239622e-06	-3.916575e-09	-2.313749e+01	-2.568812e+02
2.830000e-06	-3.320822e-06	-4.038035e-09	-2.371742e+01	-2.648208e+02
2.840000e-06	-3.400980e-06	-4.156754e-09	-2.428991e+01	-2.724244e+02
2.850000e-06	-3.479963e-06	-4.272465e-09	-2.485401e+01	-2.796996e+02
2.860000e-06	-3.557489e-06	-4.382290e-09	-2.540770e+01	-2.866551e+02
2.870000e-06	-3.633508e-06	-4.483985e-09	-2.595063e+01	-2.933020e+02
2.880000e-06	-3.708063e-06	-4.580351e-09	-2.648311e+01	-2.996532e+02
2.890000e-06	-3.781260e-06	-4.673470e-09	-2.700588e+01	-3.057237e+02
2.900000e-06	-3.853194e-06	-4.761746e-09	-2.751964e+01	-3.115306e+02
2.910000e-06	-3.923652e-06	-4.845156e-09	-2.802286e+01	-3.170919e+02
2.920000e-06	-3.992520e-06	-4.925752e-09	-2.851471e+01	-3.224262e+02
2.930000e-06	-4.059957e-06	-5.004971e-09	-2.899635e+01	-3.275515e+02
2.940000e-06	-4.126013e-06	-5.081467e-09	-2.946812e+01	-3.324844e+02
