# Temperatura_=_38.95
# Concentracion g/m^3_=_15000.0
# C_Vs_to_Am_M_A/Vsm_=_65563218390.804596
# pendiente_HvsI_1/m_=_3716.3
# ordenada_HvsI_A/m_=_1297.0
# frecuencia_Hz_=_301594.62780691346

Tiempo_(s)	Campo_(V.s)	Magnetizacion_(V.s)	Campo_(kA/m)	Magnetizacion_(A/m)
0.000000e+00	-5.389550e-06	-5.938305e-09	-3.833315e+01	-3.879833e+02
1.000000e-08	-5.386639e-06	-5.935259e-09	-3.831244e+01	-3.878124e+02
2.000000e-08	-5.381954e-06	-5.929729e-09	-3.827912e+01	-3.875544e+02
3.000000e-08	-5.375675e-06	-5.922545e-09	-3.823446e+01	-3.872086e+02
4.000000e-08	-5.367844e-06	-5.914006e-09	-3.817876e+01	-3.867757e+02
5.000000e-08	-5.358200e-06	-5.904589e-09	-3.811017e+01	-3.862591e+02
6.000000e-08	-5.346512e-06	-5.894600e-09	-3.802704e+01	-3.856645e+02
7.000000e-08	-5.332888e-06	-5.884385e-09	-3.793014e+01	-3.849995e+02
8.000000e-08	-5.317133e-06	-5.885329e-09	-3.781808e+01	-3.842732e+02
9.000000e-08	-5.299126e-06	-5.893547e-09	-3.769000e+01	-3.834952e+02
1.000000e-07	-5.279112e-06	-5.882302e-09	-3.754766e+01	-3.826744e+02
1.100000e-07	-5.257170e-06	-5.856809e-09	-3.739159e+01	-3.818181e+02
1.200000e-07	-5.233468e-06	-5.824190e-09	-3.722301e+01	-3.809306e+02
1.300000e-07	-5.208262e-06	-5.774289e-09	-3.704373e+01	-3.800133e+02
1.400000e-07	-5.181499e-06	-5.774614e-09	-3.685339e+01	-3.790636e+02
1.500000e-07	-5.153082e-06	-5.789171e-09	-3.665127e+01	-3.780759e+02
1.600000e-07	-5.123218e-06	-5.761333e-09	-3.643886e+01	-3.770412e+02
1.700000e-07	-5.091812e-06	-5.765478e-09	-3.621548e+01	-3.759487e+02
1.800000e-07	-5.058257e-06	-5.742010e-09	-3.597683e+01	-3.747868e+02
1.900000e-07	-5.022811e-06	-5.672227e-09	-3.572472e+01	-3.735441e+02
2.000000e-07	-4.985940e-06	-5.648699e-09	-3.546247e+01	-3.722106e+02
2.100000e-07	-4.947350e-06	-5.641795e-09	-3.518800e+01	-3.707788e+02
2.200000e-07	-4.906955e-06	-5.628966e-09	-3.490069e+01	-3.692442e+02
2.300000e-07	-4.864576e-06	-5.614276e-09	-3.459927e+01	-3.676055e+02
2.400000e-07	-4.820227e-06	-5.569715e-09	-3.428384e+01	-3.658647e+02
2.500000e-07	-4.774146e-06	-5.534103e-09	-3.395609e+01	-3.640261e+02
2.600000e-07	-4.726146e-06	-5.509581e-09	-3.361469e+01	-3.620960e+02
2.700000e-07	-4.676089e-06	-5.489838e-09	-3.325866e+01	-3.600818e+02
2.800000e-07	-4.623996e-06	-5.477069e-09	-3.288814e+01	-3.579903e+02
2.900000e-07	-4.570033e-06	-5.426506e-09	-3.250434e+01	-3.558279e+02
3.000000e-07	-4.514439e-06	-5.364976e-09	-3.210892e+01	-3.535989e+02
3.100000e-07	-4.457133e-06	-5.349279e-09	-3.170133e+01	-3.513059e+02
3.200000e-07	-4.398010e-06	-5.337264e-09	-3.128082e+01	-3.489492e+02
3.300000e-07	-4.337312e-06	-5.291577e-09	-3.084911e+01	-3.465273e+02
3.400000e-07	-4.275220e-06	-5.241067e-09	-3.040748e+01	-3.440372e+02
3.500000e-07	-4.211759e-06	-5.195844e-09	-2.995611e+01	-3.414750e+02
3.600000e-07	-4.146743e-06	-5.159009e-09	-2.949369e+01	-3.388363e+02
3.700000e-07	-4.080029e-06	-5.135834e-09	-2.901918e+01	-3.361173e+02
3.800000e-07	-4.011780e-06	-5.102502e-09	-2.853376e+01	-3.333146e+02
3.900000e-07	-3.942136e-06	-5.042528e-09	-2.803842e+01	-3.304259e+02
4.000000e-07	-3.871279e-06	-4.976845e-09	-2.753445e+01	-3.274498e+02
4.100000e-07	-3.799192e-06	-4.926963e-09	-2.702173e+01	-3.243858e+02
4.200000e-07	-3.725607e-06	-4.893417e-09	-2.649836e+01	-3.212338e+02
4.300000e-07	-3.650443e-06	-4.858496e-09	-2.596375e+01	-3.179941e+02
4.400000e-07	-3.573821e-06	-4.814322e-09	-2.541878e+01	-3.146664e+02
4.500000e-07	-3.495828e-06	-4.753459e-09	-2.486406e+01	-3.112500e+02
4.600000e-07	-3.416436e-06	-4.683517e-09	-2.429938e+01	-3.077435e+02
4.700000e-07	-3.335682e-06	-4.627081e-09	-2.372502e+01	-3.041444e+02
4.800000e-07	-3.253706e-06	-4.582754e-09	-2.314197e+01	-3.004498e+02
4.900000e-07	-3.170641e-06	-4.527965e-09	-2.255117e+01	-2.966559e+02
5.000000e-07	-3.086546e-06	-4.458118e-09	-2.195304e+01	-2.927592e+02
5.100000e-07	-3.001550e-06	-4.390318e-09	-2.134851e+01	-2.887561e+02
5.200000e-07	-2.915615e-06	-4.329570e-09	-2.073729e+01	-2.846437e+02
5.300000e-07	-2.828702e-06	-4.271918e-09	-2.011913e+01	-2.804198e+02
5.400000e-07	-2.740951e-06	-4.211349e-09	-1.949500e+01	-2.760833e+02
5.500000e-07	-2.652155e-06	-4.138906e-09	-1.886344e+01	-2.716341e+02
5.600000e-07	-2.562117e-06	-4.055589e-09	-1.822304e+01	-2.670725e+02
5.700000e-07	-2.471040e-06	-3.979541e-09	-1.757526e+01	-2.623999e+02
5.800000e-07	-2.379092e-06	-3.919723e-09	-1.692128e+01	-2.576173e+02
5.900000e-07	-2.286369e-06	-3.855208e-09	-1.626178e+01	-2.527261e+02
6.000000e-07	-2.192897e-06	-3.772706e-09	-1.559697e+01	-2.477268e+02
6.100000e-07	-2.098637e-06	-3.685807e-09	-1.492654e+01	-2.426194e+02
6.200000e-07	-2.003645e-06	-3.604496e-09	-1.425091e+01	-2.374033e+02
6.300000e-07	-1.907990e-06	-3.526078e-09	-1.357057e+01	-2.320768e+02
6.400000e-07	-1.811599e-06	-3.449831e-09	-1.288499e+01	-2.266376e+02
6.500000e-07	-1.714407e-06	-3.372142e-09	-1.219371e+01	-2.210829e+02
6.600000e-07	-1.616442e-06	-3.282400e-09	-1.149694e+01	-2.154098e+02
6.700000e-07	-1.517787e-06	-3.182116e-09	-1.079525e+01	-2.096151e+02
6.800000e-07	-1.418604e-06	-3.086091e-09	-1.008981e+01	-2.036957e+02
6.900000e-07	-1.318997e-06	-2.999863e-09	-9.381360e+00	-1.976489e+02
7.000000e-07	-1.218945e-06	-2.910935e-09	-8.669741e+00	-1.914720e+02
7.100000e-07	-1.118532e-06	-2.812022e-09	-7.955554e+00	-1.851624e+02
7.200000e-07	-1.017867e-06	-2.708909e-09	-7.239576e+00	-1.787174e+02
7.300000e-07	-9.168763e-07	-2.608280e-09	-6.521278e+00	-1.721342e+02
7.400000e-07	-8.155513e-07	-2.510852e-09	-5.800604e+00	-1.654094e+02
7.500000e-07	-7.139538e-07	-2.412041e-09	-5.077992e+00	-1.585391e+02
7.600000e-07	-6.120478e-07	-2.305667e-09	-4.353187e+00	-1.515189e+02
7.700000e-07	-5.099210e-07	-2.190532e-09	-3.626810e+00	-1.443436e+02
7.800000e-07	-4.076778e-07	-2.072937e-09	-2.899606e+00	-1.370074e+02
7.900000e-07	-3.052936e-07	-1.958164e-09	-2.171399e+00	-1.295042e+02
8.000000e-07	-2.027825e-07	-1.845456e-09	-1.442289e+00	-1.218273e+02
8.100000e-07	-1.000939e-07	-1.729403e-09	-7.119175e-01	-1.139700e+02
8.200000e-07	2.675438e-09	-1.605606e-09	1.902904e-02	-1.059255e+02
8.300000e-07	1.054191e-07	-1.475331e-09	7.497929e-01	-9.768683e+01
8.400000e-07	2.081656e-07	-1.346654e-09	1.480576e+00	-8.924679e+01
8.500000e-07	3.108114e-07	-1.220926e-09	2.210645e+00	-8.059820e+01
8.600000e-07	4.133255e-07	-1.090229e-09	2.939775e+00	-7.173362e+01
8.700000e-07	5.157756e-07	-9.495396e-10	3.668451e+00	-6.264550e+01
8.800000e-07	6.180431e-07	-8.003400e-10	4.395828e+00	-5.332631e+01
8.900000e-07	7.200366e-07	-6.501107e-10	5.121256e+00	-4.376888e+01
9.000000e-07	8.217586e-07	-4.988921e-10	5.844753e+00	-3.396698e+01
9.100000e-07	9.231805e-07	-3.447335e-10	6.566116e+00	-2.391599e+01
9.200000e-07	1.024305e-06	-1.875611e-10	7.285365e+00	-1.361388e+01
9.300000e-07	1.125098e-06	-2.572397e-11	8.002255e+00	-3.062218e+00
9.400000e-07	1.225512e-06	1.397851e-10	8.716449e+00	7.732826e+00
9.500000e-07	1.325477e-06	3.064980e-10	9.427445e+00	1.875949e+01
9.600000e-07	1.425056e-06	4.734658e-10	1.013570e+01	2.999973e+01
9.700000e-07	1.524231e-06	6.446671e-10	1.084108e+01	4.142880e+01
9.800000e-07	1.622790e-06	8.224810e-10	1.154209e+01	5.301529e+01
9.900000e-07	1.720568e-06	1.004762e-09	1.223753e+01	6.472157e+01
1.000000e-06	1.817396e-06	1.186268e-09	1.292622e+01	7.650472e+01
1.010000e-06	1.913376e-06	1.366324e-09	1.360887e+01	8.831789e+01
1.020000e-06	2.008723e-06	1.545388e-09	1.428703e+01	1.001119e+02
1.030000e-06	2.103416e-06	1.722728e-09	1.496053e+01	1.118369e+02
1.040000e-06	2.197377e-06	1.898695e-09	1.562883e+01	1.234446e+02
1.050000e-06	2.290577e-06	2.072983e-09	1.629172e+01	1.348893e+02
1.060000e-06	2.383031e-06	2.244666e-09	1.694929e+01	1.461299e+02
1.070000e-06	2.474796e-06	2.412148e-09	1.760197e+01	1.571303e+02
1.080000e-06	2.565825e-06	2.576173e-09	1.824941e+01	1.678605e+02
1.090000e-06	2.655704e-06	2.737743e-09	1.888868e+01	1.782964e+02
1.100000e-06	2.744285e-06	2.894412e-09	1.951871e+01	1.884193e+02
1.110000e-06	2.831926e-06	3.042789e-09	2.014206e+01	1.982159e+02
1.120000e-06	2.918742e-06	3.183227e-09	2.075954e+01	2.076770e+02
1.130000e-06	3.004635e-06	3.319710e-09	2.137045e+01	2.167968e+02
1.140000e-06	3.089506e-06	3.452723e-09	2.197410e+01	2.255726e+02
1.150000e-06	3.173440e-06	3.580899e-09	2.257108e+01	2.340035e+02
1.160000e-06	3.256472e-06	3.702761e-09	2.316164e+01	2.420910e+02
1.170000e-06	3.338230e-06	3.818246e-09	2.374314e+01	2.498381e+02
1.180000e-06	3.418708e-06	3.928550e-09	2.431554e+01	2.572499e+02
1.190000e-06	3.498012e-06	4.034825e-09	2.487959e+01	2.643339e+02
1.200000e-06	3.576048e-06	4.137206e-09	2.543462e+01	2.711001e+02
1.210000e-06	3.652861e-06	4.235303e-09	2.598095e+01	2.775610e+02
1.220000e-06	3.728367e-06	4.329844e-09	2.651799e+01	2.837321e+02
1.230000e-06	3.802214e-06	4.418467e-09	2.704323e+01	2.896310e+02
1.240000e-06	3.874441e-06	4.501705e-09	2.755694e+01	2.952769e+02
1.250000e-06	3.945377e-06	4.584120e-09	2.806147e+01	3.006902e+02
1.260000e-06	4.014908e-06	4.665474e-09	2.855601e+01	3.058904e+02
1.270000e-06	4.083087e-06	4.742186e-09	2.904094e+01	3.108960e+02
1.280000e-06	4.149825e-06	4.814988e-09	2.951561e+01	3.157224e+02
1.290000e-06	4.214794e-06	4.885445e-09	2.997770e+01	3.203816e+02
1.300000e-06	4.278174e-06	4.953962e-09	3.042849e+01	3.248813e+02
1.310000e-06	4.340168e-06	5.019568e-09	3.086942e+01	3.292246e+02
1.320000e-06	4.400801e-06	5.082783e-09	3.130067e+01	3.334106e+02
1.330000e-06	4.460074e-06	5.143574e-09	3.172225e+01	3.374350e+02
1.340000e-06	4.517562e-06	5.200719e-09	3.213113e+01	3.412909e+02
1.350000e-06	4.573202e-06	5.255084e-09	3.252688e+01	3.449708e+02
1.360000e-06	4.627318e-06	5.307733e-09	3.291177e+01	3.484674e+02
1.370000e-06	4.679748e-06	5.355992e-09	3.328468e+01	3.517751e+02
1.380000e-06	4.730164e-06	5.398781e-09	3.364326e+01	3.548912e+02
1.390000e-06	4.778600e-06	5.440152e-09	3.398777e+01	3.578166e+02
1.400000e-06	4.825239e-06	5.480794e-09	3.431949e+01	3.605559e+02
1.410000e-06	4.870224e-06	5.519254e-09	3.463944e+01	3.631170e+02
1.420000e-06	4.913779e-06	5.555588e-09	3.494923e+01	3.655108e+02
1.430000e-06	4.955499e-06	5.588649e-09	3.524596e+01	3.677498e+02
1.440000e-06	4.995234e-06	5.618996e-09	3.552857e+01	3.698471e+02
1.450000e-06	5.033329e-06	5.646697e-09	3.579953e+01	3.718151e+02
1.460000e-06	5.069840e-06	5.672115e-09	3.605921e+01	3.736645e+02
1.470000e-06	5.104591e-06	5.697234e-09	3.630637e+01	3.754036e+02
1.480000e-06	5.137372e-06	5.721415e-09	3.653953e+01	3.770375e+02
1.490000e-06	5.168335e-06	5.742540e-09	3.675975e+01	3.785689e+02
1.500000e-06	5.197637e-06	5.762067e-09	3.696816e+01	3.799976e+02
1.510000e-06	5.225306e-06	5.782211e-09	3.716496e+01	3.813219e+02
1.520000e-06	5.250969e-06	5.801299e-09	3.734749e+01	3.825391e+02
1.530000e-06	5.274494e-06	5.819735e-09	3.751481e+01	3.836466e+02
1.540000e-06	5.296198e-06	5.835547e-09	3.766918e+01	3.846429e+02
1.550000e-06	5.316226e-06	5.847640e-09	3.781163e+01	3.855277e+02
1.560000e-06	5.334414e-06	5.858745e-09	3.794099e+01	3.863030e+02
1.570000e-06	5.350521e-06	5.869217e-09	3.805555e+01	3.869720e+02
1.580000e-06	5.364697e-06	5.878988e-09	3.815638e+01	3.875398e+02
1.590000e-06	5.376927e-06	5.887483e-09	3.824336e+01	3.880121e+02
1.600000e-06	5.386903e-06	5.894004e-09	3.831432e+01	3.883946e+02
1.610000e-06	5.394735e-06	5.899726e-09	3.837002e+01	3.886924e+02
1.620000e-06	5.400689e-06	5.906354e-09	3.841237e+01	3.889090e+02
1.630000e-06	5.404893e-06	5.912548e-09	3.844227e+01	3.890465e+02
1.640000e-06	5.407158e-06	5.916496e-09	3.845839e+01	3.891052e+02
1.650000e-06	5.407386e-06	5.918496e-09	3.846000e+01	3.890835e+02
1.660000e-06	5.405837e-06	5.916426e-09	3.844899e+01	3.889791e+02
1.670000e-06	5.402683e-06	5.910898e-09	3.842655e+01	3.887894e+02
1.680000e-06	5.397818e-06	5.905942e-09	3.839195e+01	3.885124e+02
1.690000e-06	5.391022e-06	5.903164e-09	3.834362e+01	3.881475e+02
1.700000e-06	5.382471e-06	5.899285e-09	3.828279e+01	3.876960e+02
1.710000e-06	5.372321e-06	5.894276e-09	3.821060e+01	3.871619e+02
1.720000e-06	5.360396e-06	5.890561e-09	3.812579e+01	3.865512e+02
1.730000e-06	5.346485e-06	5.875715e-09	3.802685e+01	3.858720e+02
1.740000e-06	5.330521e-06	5.840061e-09	3.791330e+01	3.851336e+02
1.750000e-06	5.312205e-06	5.824330e-09	3.778303e+01	3.843455e+02
1.760000e-06	5.291175e-06	5.823336e-09	3.763345e+01	3.835163e+02
1.770000e-06	5.267881e-06	5.824903e-09	3.746777e+01	3.826527e+02
1.780000e-06	5.243324e-06	5.847013e-09	3.729312e+01	3.817586e+02
1.790000e-06	5.218055e-06	5.801626e-09	3.711339e+01	3.808344e+02
1.800000e-06	5.191336e-06	5.749594e-09	3.692335e+01	3.798769e+02
1.810000e-06	5.162327e-06	5.757456e-09	3.671703e+01	3.788796e+02
1.820000e-06	5.131557e-06	5.713565e-09	3.649817e+01	3.778332e+02
1.830000e-06	5.099175e-06	5.702428e-09	3.626785e+01	3.767266e+02
1.840000e-06	5.064809e-06	5.746122e-09	3.602343e+01	3.755481e+02
1.850000e-06	5.028860e-06	5.724002e-09	3.576774e+01	3.742864e+02
1.860000e-06	4.991152e-06	5.707860e-09	3.549954e+01	3.729321e+02
1.870000e-06	4.951519e-06	5.672547e-09	3.521765e+01	3.714783e+02
1.880000e-06	4.910255e-06	5.612591e-09	3.492416e+01	3.699211e+02
1.890000e-06	4.867134e-06	5.622036e-09	3.461747e+01	3.682600e+02
1.900000e-06	4.822319e-06	5.601798e-09	3.429872e+01	3.664975e+02
1.910000e-06	4.775724e-06	5.579414e-09	3.396731e+01	3.646384e+02
1.920000e-06	4.727111e-06	5.554089e-09	3.362155e+01	3.626895e+02
1.930000e-06	4.676933e-06	5.477522e-09	3.326466e+01	3.606578e+02
1.940000e-06	4.625000e-06	5.466649e-09	3.289529e+01	3.585505e+02
1.950000e-06	4.570961e-06	5.463698e-09	3.251093e+01	3.563732e+02
1.960000e-06	4.515019e-06	5.414112e-09	3.211305e+01	3.541301e+02
1.970000e-06	4.457341e-06	5.362127e-09	3.170281e+01	3.518232e+02
1.980000e-06	4.398227e-06	5.314331e-09	3.128237e+01	3.494524e+02
1.990000e-06	4.337573e-06	5.300142e-09	3.085097e+01	3.470160e+02
2.000000e-06	4.275163e-06	5.275211e-09	3.040707e+01	3.445105e+02
2.010000e-06	4.211205e-06	5.226064e-09	2.995217e+01	3.419319e+02
2.020000e-06	4.145776e-06	5.179842e-09	2.948681e+01	3.392761e+02
2.030000e-06	4.078916e-06	5.126349e-09	2.901126e+01	3.365391e+02
2.040000e-06	4.010532e-06	5.083805e-09	2.852489e+01	3.337179e+02
2.050000e-06	3.940631e-06	5.050666e-09	2.802771e+01	3.308103e+02
2.060000e-06	3.869313e-06	5.023327e-09	2.752047e+01	3.278151e+02
2.070000e-06	3.796639e-06	4.979276e-09	2.700357e+01	3.247320e+02
2.080000e-06	3.722665e-06	4.901307e-09	2.647743e+01	3.215610e+02
2.090000e-06	3.647318e-06	4.834622e-09	2.594153e+01	3.183021e+02
2.100000e-06	3.570471e-06	4.797776e-09	2.539496e+01	3.149552e+02
2.110000e-06	3.492085e-06	4.766681e-09	2.483744e+01	3.115194e+02
2.120000e-06	3.412440e-06	4.717472e-09	2.427096e+01	3.079930e+02
2.130000e-06	3.331689e-06	4.654965e-09	2.369662e+01	3.043735e+02
2.140000e-06	3.249782e-06	4.595714e-09	2.311406e+01	3.006576e+02
2.150000e-06	3.166817e-06	4.531805e-09	2.252397e+01	2.968418e+02
2.160000e-06	3.082865e-06	4.474562e-09	2.192686e+01	2.929223e+02
2.170000e-06	2.997687e-06	4.429368e-09	2.132103e+01	2.888957e+02
2.180000e-06	2.911208e-06	4.366111e-09	2.070595e+01	2.847593e+02
2.190000e-06	2.823579e-06	4.284220e-09	2.008269e+01	2.805111e+02
2.200000e-06	2.734939e-06	4.213544e-09	1.945224e+01	2.761501e+02
2.210000e-06	2.645403e-06	4.164124e-09	1.881542e+01	2.716765e+02
2.220000e-06	2.554983e-06	4.104875e-09	1.817230e+01	2.670908e+02
2.230000e-06	2.463767e-06	4.021456e-09	1.752353e+01	2.623942e+02
2.240000e-06	2.371746e-06	3.940667e-09	1.686903e+01	2.575880e+02
2.250000e-06	2.278790e-06	3.866076e-09	1.620788e+01	2.526733e+02
2.260000e-06	2.184927e-06	3.789690e-09	1.554028e+01	2.476506e+02
2.270000e-06	2.090201e-06	3.717542e-09	1.486654e+01	2.425198e+02
2.280000e-06	1.994527e-06	3.644317e-09	1.418606e+01	2.372799e+02
2.290000e-06	1.898069e-06	3.554576e-09	1.350000e+01	2.319291e+02
2.300000e-06	1.801080e-06	3.455850e-09	1.281017e+01	2.264651e+02
2.310000e-06	1.703587e-06	3.370564e-09	1.211675e+01	2.208851e+02
2.320000e-06	1.605536e-06	3.300155e-09	1.141936e+01	2.151859e+02
2.330000e-06	1.506959e-06	3.223235e-09	1.071824e+01	2.093645e+02
2.340000e-06	1.407949e-06	3.128128e-09	1.001403e+01	2.034178e+02
2.350000e-06	1.308561e-06	3.025727e-09	9.307132e+00	1.973431e+02
2.360000e-06	1.208866e-06	2.926694e-09	8.598053e+00	1.911377e+02
2.370000e-06	1.108951e-06	2.832261e-09	7.887411e+00	1.847990e+02
2.380000e-06	1.008625e-06	2.739553e-09	7.173839e+00	1.783244e+02
2.390000e-06	9.077301e-07	2.641108e-09	6.456225e+00	1.717108e+02
2.400000e-06	8.063346e-07	2.532480e-09	5.735050e+00	1.649549e+02
2.410000e-06	7.045857e-07	2.422073e-09	5.011362e+00	1.580527e+02
2.420000e-06	6.026381e-07	2.315521e-09	4.286260e+00	1.509995e+02
2.430000e-06	5.004435e-07	2.211125e-09	3.559401e+00	1.437899e+02
2.440000e-06	3.979935e-07	2.101849e-09	2.830726e+00	1.364182e+02
2.450000e-06	2.954186e-07	1.980660e-09	2.101163e+00	1.288780e+02
2.460000e-06	1.927443e-07	1.855521e-09	1.370892e+00	1.211628e+02
2.470000e-06	8.991619e-08	1.734253e-09	6.395284e-01	1.132657e+02
2.480000e-06	-1.296977e-08	1.615851e-09	-9.224738e-02	1.051799e+02
2.490000e-06	-1.158076e-07	1.494527e-09	-8.236807e-01	9.689840e+01
2.500000e-06	-2.185835e-07	1.363330e-09	-1.554674e+00	8.841402e+01
2.510000e-06	-3.213046e-07	1.226185e-09	-2.285277e+00	7.971951e+01
2.520000e-06	-4.239532e-07	1.090526e-09	-3.015365e+00	7.080740e+01
2.530000e-06	-5.264273e-07	9.540356e-10	-3.744211e+00	6.167012e+01
2.540000e-06	-6.287079e-07	8.143351e-10	-4.471681e+00	5.230019e+01
2.550000e-06	-7.307816e-07	6.703083e-10	-5.197680e+00	4.269060e+01
2.560000e-06	-8.324427e-07	5.171144e-10	-5.920744e+00	3.283536e+01
2.570000e-06	-9.336255e-07	3.578419e-10	-6.640406e+00	2.273036e+01
2.580000e-06	-1.034271e-06	2.004715e-10	-7.356246e+00	1.237424e+01
2.590000e-06	-1.134408e-06	4.556647e-11	-8.068473e+00	1.769453e+00
2.600000e-06	-1.234164e-06	-1.152592e-10	-8.777984e+00	-9.076688e+00
2.610000e-06	-1.333571e-06	-2.869773e-10	-9.485013e+00	-2.015113e+01
2.620000e-06	-1.432651e-06	-4.612467e-10	-1.018972e+01	-3.143442e+01
2.630000e-06	-1.531240e-06	-6.344174e-10	-1.089094e+01	-4.290035e+01
2.640000e-06	-1.629233e-06	-8.092613e-10	-1.158791e+01	-5.451614e+01
2.650000e-06	-1.726627e-06	-9.874351e-10	-1.228063e+01	-6.624293e+01
2.660000e-06	-1.823449e-06	-1.170134e-09	-1.296927e+01	-7.803684e+01
2.670000e-06	-1.919710e-06	-1.354580e-09	-1.365393e+01	-8.985035e+01
2.680000e-06	-2.015436e-06	-1.537882e-09	-1.433478e+01	-1.016340e+02
2.690000e-06	-2.110573e-06	-1.715658e-09	-1.501144e+01	-1.133382e+02
2.700000e-06	-2.204840e-06	-1.888898e-09	-1.568191e+01	-1.249149e+02
2.710000e-06	-2.297982e-06	-2.061417e-09	-1.634439e+01	-1.363194e+02
2.720000e-06	-2.390063e-06	-2.234190e-09	-1.699931e+01	-1.475116e+02
2.730000e-06	-2.481394e-06	-2.401811e-09	-1.764890e+01	-1.584568e+02
2.740000e-06	-2.571956e-06	-2.560981e-09	-1.829302e+01	-1.691260e+02
2.750000e-06	-2.661548e-06	-2.715410e-09	-1.893024e+01	-1.794965e+02
2.760000e-06	-2.750143e-06	-2.868003e-09	-1.956038e+01	-1.895507e+02
2.770000e-06	-2.837931e-06	-3.019231e-09	-2.018477e+01	-1.992763e+02
2.780000e-06	-2.924922e-06	-3.167478e-09	-2.080349e+01	-2.086649e+02
2.790000e-06	-3.010702e-06	-3.307635e-09	-2.141360e+01	-2.177114e+02
2.800000e-06	-3.095168e-06	-3.439503e-09	-2.201437e+01	-2.264136e+02
2.810000e-06	-3.178616e-06	-3.566530e-09	-2.260789e+01	-2.347710e+02
2.820000e-06	-3.261065e-06	-3.690332e-09	-2.319431e+01	-2.427855e+02
2.830000e-06	-3.342435e-06	-3.811258e-09	-2.377305e+01	-2.504605e+02
2.840000e-06	-3.422748e-06	-3.926300e-09	-2.434427e+01	-2.578016e+02
2.850000e-06	-3.501942e-06	-4.035845e-09	-2.490754e+01	-2.648169e+02
2.860000e-06	-3.579675e-06	-4.139038e-09	-2.546042e+01	-2.715167e+02
2.870000e-06	-3.655786e-06	-4.236812e-09	-2.600176e+01	-2.779145e+02
2.880000e-06	-3.730462e-06	-4.331408e-09	-2.653289e+01	-2.840259e+02
2.890000e-06	-3.803733e-06	-4.420111e-09	-2.705403e+01	-2.898692e+02
2.900000e-06	-3.875757e-06	-4.503590e-09	-2.756630e+01	-2.954639e+02
2.910000e-06	-3.946475e-06	-4.583907e-09	-2.806928e+01	-3.008301e+02
2.920000e-06	-4.015532e-06	-4.662435e-09	-2.856045e+01	-3.059874e+02
2.930000e-06	-4.083041e-06	-4.740156e-09	-2.904060e+01	-3.109537e+02
2.940000e-06	-4.149126e-06	-4.814517e-09	-2.951064e+01	-3.157437e+02
