# Temperatura_=_48.39
# Concentracion g/m^3_=_15000.0
# C_Vs_to_Am_M_A/Vsm_=_65563218390.804596
# pendiente_HvsI_1/m_=_3716.3
# ordenada_HvsI_A/m_=_1297.0
# frecuencia_Hz_=_301591.31920642644

Tiempo_(s)	Campo_(V.s)	Magnetizacion_(V.s)	Campo_(kA/m)	Magnetizacion_(A/m)
0.000000e+00	-5.362355e-06	-6.176856e-09	-3.834000e+01	-4.037046e+02
1.000000e-08	-5.359541e-06	-6.173090e-09	-3.831988e+01	-4.035488e+02
2.000000e-08	-5.354990e-06	-6.167804e-09	-3.828734e+01	-4.033041e+02
3.000000e-08	-5.348786e-06	-6.162095e-09	-3.824298e+01	-4.029684e+02
4.000000e-08	-5.341059e-06	-6.153694e-09	-3.818774e+01	-4.025418e+02
5.000000e-08	-5.331495e-06	-6.143178e-09	-3.811935e+01	-4.020268e+02
6.000000e-08	-5.319806e-06	-6.131880e-09	-3.803578e+01	-4.014289e+02
7.000000e-08	-5.306294e-06	-6.115266e-09	-3.793917e+01	-4.007560e+02
8.000000e-08	-5.290633e-06	-6.115399e-09	-3.782720e+01	-4.000178e+02
9.000000e-08	-5.272669e-06	-6.143315e-09	-3.769876e+01	-3.992246e+02
1.000000e-07	-5.252731e-06	-6.130674e-09	-3.755621e+01	-3.983859e+02
1.100000e-07	-5.230914e-06	-6.092594e-09	-3.740022e+01	-3.975096e+02
1.200000e-07	-5.207454e-06	-6.057475e-09	-3.723248e+01	-3.966004e+02
1.300000e-07	-5.182466e-06	-5.980438e-09	-3.705382e+01	-3.956592e+02
1.400000e-07	-5.155828e-06	-6.008735e-09	-3.686336e+01	-3.946829e+02
1.500000e-07	-5.127575e-06	-6.063474e-09	-3.666136e+01	-3.936640e+02
1.600000e-07	-5.097885e-06	-5.976890e-09	-3.644908e+01	-3.925920e+02
1.700000e-07	-5.066653e-06	-5.994953e-09	-3.622578e+01	-3.914540e+02
1.800000e-07	-5.033264e-06	-5.997130e-09	-3.598705e+01	-3.902360e+02
1.900000e-07	-4.997990e-06	-5.886730e-09	-3.573484e+01	-3.889246e+02
2.000000e-07	-4.961345e-06	-5.905353e-09	-3.547284e+01	-3.875084e+02
2.100000e-07	-4.922940e-06	-5.874649e-09	-3.519825e+01	-3.859791e+02
2.200000e-07	-4.882752e-06	-5.789209e-09	-3.491091e+01	-3.843318e+02
2.300000e-07	-4.840625e-06	-5.819903e-09	-3.460971e+01	-3.825663e+02
2.400000e-07	-4.796513e-06	-5.822333e-09	-3.429432e+01	-3.806859e+02
2.500000e-07	-4.750679e-06	-5.794844e-09	-3.396661e+01	-3.786971e+02
2.600000e-07	-4.702946e-06	-5.745967e-09	-3.362533e+01	-3.766087e+02
2.700000e-07	-4.653137e-06	-5.677781e-09	-3.326920e+01	-3.744304e+02
2.800000e-07	-4.601293e-06	-5.662533e-09	-3.289852e+01	-3.721715e+02
2.900000e-07	-4.547581e-06	-5.634741e-09	-3.251449e+01	-3.698396e+02
3.000000e-07	-4.492298e-06	-5.603822e-09	-3.211922e+01	-3.674403e+02
3.100000e-07	-4.435354e-06	-5.574138e-09	-3.171209e+01	-3.649759e+02
3.200000e-07	-4.376575e-06	-5.521475e-09	-3.129182e+01	-3.624460e+02
3.300000e-07	-4.316213e-06	-5.472811e-09	-3.086024e+01	-3.598472e+02
3.400000e-07	-4.254401e-06	-5.431857e-09	-3.041830e+01	-3.571743e+02
3.500000e-07	-4.191255e-06	-5.412359e-09	-2.996682e+01	-3.544207e+02
3.600000e-07	-4.126659e-06	-5.365862e-09	-2.950496e+01	-3.515796e+02
3.700000e-07	-4.060353e-06	-5.298707e-09	-2.903089e+01	-3.486449e+02
3.800000e-07	-3.992438e-06	-5.261868e-09	-2.854531e+01	-3.456117e+02
3.900000e-07	-3.923155e-06	-5.220654e-09	-2.804994e+01	-3.424769e+02
4.000000e-07	-3.852697e-06	-5.169872e-09	-2.754618e+01	-3.392395e+02
4.100000e-07	-3.781048e-06	-5.112363e-09	-2.703390e+01	-3.359002e+02
4.200000e-07	-3.708006e-06	-5.059088e-09	-2.651166e+01	-3.324611e+02
4.300000e-07	-3.633386e-06	-5.006637e-09	-2.597814e+01	-3.289250e+02
4.400000e-07	-3.557228e-06	-4.959880e-09	-2.543363e+01	-3.252950e+02
4.500000e-07	-3.479683e-06	-4.921384e-09	-2.487919e+01	-3.215737e+02
4.600000e-07	-3.400709e-06	-4.865430e-09	-2.431454e+01	-3.177626e+02
4.700000e-07	-3.320370e-06	-4.788270e-09	-2.374012e+01	-3.138621e+02
4.800000e-07	-3.238765e-06	-4.709037e-09	-2.315667e+01	-3.098710e+02
4.900000e-07	-3.156025e-06	-4.649074e-09	-2.256508e+01	-3.057872e+02
5.000000e-07	-3.072305e-06	-4.594203e-09	-2.196650e+01	-3.016072e+02
5.100000e-07	-2.987743e-06	-4.531734e-09	-2.136190e+01	-2.973274e+02
5.200000e-07	-2.902225e-06	-4.462033e-09	-2.075045e+01	-2.929438e+02
5.300000e-07	-2.815665e-06	-4.386631e-09	-2.013157e+01	-2.884532e+02
5.400000e-07	-2.728221e-06	-4.316739e-09	-1.950635e+01	-2.838528e+02
5.500000e-07	-2.639835e-06	-4.252008e-09	-1.887441e+01	-2.791408e+02
5.600000e-07	-2.550381e-06	-4.180583e-09	-1.823482e+01	-2.743163e+02
5.700000e-07	-2.459800e-06	-4.099194e-09	-1.758718e+01	-2.693790e+02
5.800000e-07	-2.368230e-06	-4.014859e-09	-1.693247e+01	-2.643296e+02
5.900000e-07	-2.275920e-06	-3.937152e-09	-1.627247e+01	-2.591685e+02
6.000000e-07	-2.182889e-06	-3.861087e-09	-1.560731e+01	-2.538963e+02
6.100000e-07	-2.089075e-06	-3.779555e-09	-1.493656e+01	-2.485133e+02
6.200000e-07	-1.994538e-06	-3.693802e-09	-1.426063e+01	-2.430192e+02
6.300000e-07	-1.899380e-06	-3.604545e-09	-1.358027e+01	-2.374132e+02
6.400000e-07	-1.803531e-06	-3.517872e-09	-1.289496e+01	-2.316938e+02
6.500000e-07	-1.706937e-06	-3.437153e-09	-1.220433e+01	-2.258592e+02
6.600000e-07	-1.609696e-06	-3.351397e-09	-1.150907e+01	-2.199073e+02
6.700000e-07	-1.511756e-06	-3.251898e-09	-1.080882e+01	-2.138358e+02
6.800000e-07	-1.413132e-06	-3.145951e-09	-1.010367e+01	-2.076424e+02
6.900000e-07	-1.313958e-06	-3.044165e-09	-9.394590e+00	-2.013247e+02
7.000000e-07	-1.214356e-06	-2.949770e-09	-8.682454e+00	-1.948804e+02
7.100000e-07	-1.114396e-06	-2.855569e-09	-7.967756e+00	-1.883067e+02
7.200000e-07	-1.014150e-06	-2.754268e-09	-7.251015e+00	-1.816006e+02
7.300000e-07	-9.136464e-07	-2.648886e-09	-6.532428e+00	-1.747582e+02
7.400000e-07	-8.128644e-07	-2.541390e-09	-5.811853e+00	-1.677752e+02
7.500000e-07	-7.118262e-07	-2.434423e-09	-5.089446e+00	-1.606460e+02
7.600000e-07	-6.105120e-07	-2.327459e-09	-4.365065e+00	-1.533643e+02
7.700000e-07	-5.089548e-07	-2.213231e-09	-3.638947e+00	-1.459229e+02
7.800000e-07	-4.071966e-07	-2.091287e-09	-2.911392e+00	-1.383141e+02
7.900000e-07	-3.053262e-07	-1.968238e-09	-2.183035e+00	-1.305298e+02
8.000000e-07	-2.033586e-07	-1.848914e-09	-1.453982e+00	-1.225621e+02
8.100000e-07	-1.012200e-07	-1.730704e-09	-7.237070e-01	-1.144030e+02
8.200000e-07	9.570871e-10	-1.606140e-09	6.843023e-03	-1.060453e+02
8.300000e-07	1.031342e-07	-1.472612e-09	7.373935e-01	-9.748232e+01
8.400000e-07	2.053109e-07	-1.335399e-09	1.467941e+00	-8.870774e+01
8.500000e-07	3.073922e-07	-1.199035e-09	2.197806e+00	-7.971578e+01
8.600000e-07	4.093657e-07	-1.061550e-09	2.926900e+00	-7.050085e+01
8.700000e-07	5.111985e-07	-9.168612e-10	3.654989e+00	-6.105743e+01
8.800000e-07	6.129144e-07	-7.642167e-10	4.382242e+00	-5.137996e+01
8.900000e-07	7.144505e-07	-6.080546e-10	5.108209e+00	-4.146297e+01
9.000000e-07	8.157211e-07	-4.499129e-10	5.832278e+00	-3.130138e+01
9.100000e-07	9.166959e-07	-2.906819e-10	6.554232e+00	-2.089112e+01
9.200000e-07	1.017364e-06	-1.299453e-10	7.273995e+00	-1.023001e+01
9.300000e-07	1.117746e-06	3.540883e-11	7.991712e+00	6.812409e-01
9.400000e-07	1.217812e-06	2.057295e-10	8.707163e+00	1.183776e+01
9.500000e-07	1.317499e-06	3.793628e-10	9.419911e+00	2.322939e+01
9.600000e-07	1.416680e-06	5.549709e-10	1.012904e+01	3.483965e+01
9.700000e-07	1.515199e-06	7.332254e-10	1.083344e+01	4.664505e+01
9.800000e-07	1.612974e-06	9.153621e-10	1.153251e+01	5.861477e+01
9.900000e-07	1.709953e-06	1.100968e-09	1.222589e+01	7.071090e+01
1.000000e-06	1.806186e-06	1.285780e-09	1.291395e+01	8.288924e+01
1.010000e-06	1.901744e-06	1.469120e-09	1.359717e+01	9.510062e+01
1.020000e-06	1.996640e-06	1.652155e-09	1.427566e+01	1.072926e+02
1.030000e-06	2.090864e-06	1.834441e-09	1.494935e+01	1.194115e+02
1.040000e-06	2.184393e-06	2.015648e-09	1.561807e+01	1.314047e+02
1.050000e-06	2.277200e-06	2.194834e-09	1.628162e+01	1.432223e+02
1.060000e-06	2.369263e-06	2.372802e-09	1.693986e+01	1.548195e+02
1.070000e-06	2.460651e-06	2.546810e-09	1.759327e+01	1.661573e+02
1.080000e-06	2.551146e-06	2.714795e-09	1.824029e+01	1.772040e+02
1.090000e-06	2.640476e-06	2.879107e-09	1.887899e+01	1.879348e+02
1.100000e-06	2.728636e-06	3.038489e-09	1.950932e+01	1.983320e+02
1.110000e-06	2.815867e-06	3.190927e-09	2.013301e+01	2.083843e+02
1.120000e-06	2.902281e-06	3.337034e-09	2.075085e+01	2.180852e+02
1.130000e-06	2.987746e-06	3.479267e-09	2.136191e+01	2.274327e+02
1.140000e-06	3.072278e-06	3.618440e-09	2.196631e+01	2.364273e+02
1.150000e-06	3.155940e-06	3.750970e-09	2.256448e+01	2.450718e+02
1.160000e-06	3.238549e-06	3.876142e-09	2.315512e+01	2.533701e+02
1.170000e-06	3.319853e-06	3.995125e-09	2.373643e+01	2.613270e+02
1.180000e-06	3.399903e-06	4.109153e-09	2.430878e+01	2.689482e+02
1.190000e-06	3.478795e-06	4.218538e-09	2.487284e+01	2.762408e+02
1.200000e-06	3.556487e-06	4.324072e-09	2.542833e+01	2.832134e+02
1.210000e-06	3.632992e-06	4.426601e-09	2.597533e+01	2.898764e+02
1.220000e-06	3.708133e-06	4.524360e-09	2.651257e+01	2.962428e+02
1.230000e-06	3.781584e-06	4.614830e-09	2.703774e+01	3.023276e+02
1.240000e-06	3.853444e-06	4.699186e-09	2.755152e+01	3.081482e+02
1.250000e-06	3.923936e-06	4.782944e-09	2.805553e+01	3.137231e+02
1.260000e-06	3.993067e-06	4.866509e-09	2.854981e+01	3.190717e+02
1.270000e-06	4.060951e-06	4.947294e-09	2.903517e+01	3.242126e+02
1.280000e-06	4.127420e-06	5.023389e-09	2.951040e+01	3.291627e+02
1.290000e-06	4.192123e-06	5.095980e-09	2.997303e+01	3.339360e+02
1.300000e-06	4.255246e-06	5.165309e-09	3.042435e+01	3.385429e+02
1.310000e-06	4.316968e-06	5.232064e-09	3.086564e+01	3.429894e+02
1.320000e-06	4.377318e-06	5.297655e-09	3.129714e+01	3.472774e+02
1.330000e-06	4.436261e-06	5.360139e-09	3.171857e+01	3.514048e+02
1.340000e-06	4.493451e-06	5.418041e-09	3.212747e+01	3.553668e+02
1.350000e-06	4.548847e-06	5.472094e-09	3.252354e+01	3.591567e+02
1.360000e-06	4.602612e-06	5.524770e-09	3.290796e+01	3.627672e+02
1.370000e-06	4.654662e-06	5.575813e-09	3.328011e+01	3.661924e+02
1.380000e-06	4.704749e-06	5.623909e-09	3.363822e+01	3.694282e+02
1.390000e-06	4.752896e-06	5.670246e-09	3.398246e+01	3.724737e+02
1.400000e-06	4.799346e-06	5.713309e-09	3.431457e+01	3.753316e+02
1.410000e-06	4.844228e-06	5.751930e-09	3.463547e+01	3.780077e+02
1.420000e-06	4.887535e-06	5.787860e-09	3.494511e+01	3.805110e+02
1.430000e-06	4.928943e-06	5.821317e-09	3.524117e+01	3.828525e+02
1.440000e-06	4.968514e-06	5.852140e-09	3.552410e+01	3.850440e+02
1.450000e-06	5.006485e-06	5.880442e-09	3.579559e+01	3.870972e+02
1.460000e-06	5.042869e-06	5.907248e-09	3.605572e+01	3.890225e+02
1.470000e-06	5.077537e-06	5.933889e-09	3.630360e+01	3.908280e+02
1.480000e-06	5.110258e-06	5.959425e-09	3.653755e+01	3.925192e+02
1.490000e-06	5.141133e-06	5.982896e-09	3.675829e+01	3.940990e+02
1.500000e-06	5.170318e-06	6.003948e-09	3.696696e+01	3.955679e+02
1.510000e-06	5.197849e-06	6.021796e-09	3.716380e+01	3.969246e+02
1.520000e-06	5.223406e-06	6.038709e-09	3.734653e+01	3.981673e+02
1.530000e-06	5.246863e-06	6.055064e-09	3.751424e+01	3.992940e+02
1.540000e-06	5.268479e-06	6.070274e-09	3.766880e+01	4.003041e+02
1.550000e-06	5.288422e-06	6.083667e-09	3.781139e+01	4.011984e+02
1.560000e-06	5.306565e-06	6.095650e-09	3.794111e+01	4.019796e+02
1.570000e-06	5.322651e-06	6.106280e-09	3.805612e+01	4.026525e+02
1.580000e-06	5.336735e-06	6.116172e-09	3.815682e+01	4.032232e+02
1.590000e-06	5.348830e-06	6.126044e-09	3.824329e+01	4.036986e+02
1.600000e-06	5.358656e-06	6.134465e-09	3.831355e+01	4.040853e+02
1.610000e-06	5.366385e-06	6.140256e-09	3.836881e+01	4.043894e+02
1.620000e-06	5.372348e-06	6.144192e-09	3.841145e+01	4.046149e+02
1.630000e-06	5.376576e-06	6.146590e-09	3.844168e+01	4.047639e+02
1.640000e-06	5.378857e-06	6.147533e-09	3.845798e+01	4.048363e+02
1.650000e-06	5.379139e-06	6.149698e-09	3.846000e+01	4.048298e+02
1.660000e-06	5.377663e-06	6.149019e-09	3.844945e+01	4.047410e+02
1.670000e-06	5.374518e-06	6.145380e-09	3.842696e+01	4.045661e+02
1.680000e-06	5.369683e-06	6.141921e-09	3.839239e+01	4.043019e+02
1.690000e-06	5.362920e-06	6.138612e-09	3.834404e+01	4.039464e+02
1.700000e-06	5.354386e-06	6.135362e-09	3.828302e+01	4.035003e+02
1.710000e-06	5.344294e-06	6.130531e-09	3.821086e+01	4.029667e+02
1.720000e-06	5.332489e-06	6.127533e-09	3.812646e+01	4.023518e+02
1.730000e-06	5.318716e-06	6.120448e-09	3.802798e+01	4.016639e+02
1.740000e-06	5.302840e-06	6.064567e-09	3.791447e+01	4.009128e+02
1.750000e-06	5.284617e-06	6.048206e-09	3.778419e+01	4.001088e+02
1.760000e-06	5.263672e-06	6.058557e-09	3.763443e+01	3.992612e+02
1.770000e-06	5.240459e-06	6.062953e-09	3.746846e+01	3.983774e+02
1.780000e-06	5.216046e-06	6.117956e-09	3.729391e+01	3.974612e+02
1.790000e-06	5.190957e-06	6.022590e-09	3.711453e+01	3.965127e+02
1.800000e-06	5.164450e-06	5.950868e-09	3.692501e+01	3.955277e+02
1.810000e-06	5.135690e-06	6.006746e-09	3.671938e+01	3.944982e+02
1.820000e-06	5.105134e-06	5.906638e-09	3.650091e+01	3.934130e+02
1.830000e-06	5.072925e-06	5.917081e-09	3.627062e+01	3.922588e+02
1.840000e-06	5.038734e-06	6.002376e-09	3.602616e+01	3.910216e+02
1.850000e-06	5.002969e-06	5.903134e-09	3.577045e+01	3.896885e+02
1.860000e-06	4.965412e-06	5.944908e-09	3.550192e+01	3.882484e+02
1.870000e-06	4.925896e-06	5.959835e-09	3.521939e+01	3.866938e+02
1.880000e-06	4.884813e-06	5.830570e-09	3.492565e+01	3.850209e+02
1.890000e-06	4.841943e-06	5.838256e-09	3.461913e+01	3.832301e+02
1.900000e-06	4.797481e-06	5.775501e-09	3.430124e+01	3.813256e+02
1.910000e-06	4.751237e-06	5.769944e-09	3.397060e+01	3.793144e+02
1.920000e-06	4.702873e-06	5.802709e-09	3.362481e+01	3.772058e+02
1.930000e-06	4.652963e-06	5.693784e-09	3.326796e+01	3.750092e+02
1.940000e-06	4.601340e-06	5.715603e-09	3.289886e+01	3.727338e+02
1.950000e-06	4.547612e-06	5.664725e-09	3.251472e+01	3.703869e+02
1.960000e-06	4.491920e-06	5.574242e-09	3.211652e+01	3.679733e+02
1.970000e-06	4.434513e-06	5.578757e-09	3.170607e+01	3.654948e+02
1.980000e-06	4.375733e-06	5.535904e-09	3.128581e+01	3.629502e+02
1.990000e-06	4.315463e-06	5.529139e-09	3.085488e+01	3.603359e+02
2.000000e-06	4.253528e-06	5.449486e-09	3.041206e+01	3.576460e+02
2.010000e-06	4.190007e-06	5.408613e-09	2.995790e+01	3.548740e+02
2.020000e-06	4.124956e-06	5.400585e-09	2.949279e+01	3.520131e+02
2.030000e-06	4.058477e-06	5.299748e-09	2.901747e+01	3.490574e+02
2.040000e-06	3.990576e-06	5.283612e-09	2.853199e+01	3.460024e+02
2.050000e-06	3.921244e-06	5.242614e-09	2.803628e+01	3.428455e+02
2.060000e-06	3.850379e-06	5.189071e-09	2.752961e+01	3.395859e+02
2.070000e-06	3.778116e-06	5.137644e-09	2.701294e+01	3.362247e+02
2.080000e-06	3.704617e-06	5.068448e-09	2.648743e+01	3.327643e+02
2.090000e-06	3.629766e-06	5.037699e-09	2.595226e+01	3.292076e+02
2.100000e-06	3.553480e-06	4.956164e-09	2.540682e+01	3.255576e+02
2.110000e-06	3.475606e-06	4.892980e-09	2.485004e+01	3.218168e+02
2.120000e-06	3.396312e-06	4.850785e-09	2.428310e+01	3.179863e+02
2.130000e-06	3.315889e-06	4.802556e-09	2.370809e+01	3.140663e+02
2.140000e-06	3.234301e-06	4.748064e-09	2.312475e+01	3.100554e+02
2.150000e-06	3.151631e-06	4.676706e-09	2.253367e+01	3.059510e+02
2.160000e-06	3.068009e-06	4.607446e-09	2.193578e+01	3.017497e+02
2.170000e-06	2.983366e-06	4.529528e-09	2.133060e+01	2.974478e+02
2.180000e-06	2.897495e-06	4.470352e-09	2.071664e+01	2.930413e+02
2.190000e-06	2.810281e-06	4.408031e-09	2.009307e+01	2.885272e+02
2.200000e-06	2.721973e-06	4.341727e-09	1.946168e+01	2.839028e+02
2.210000e-06	2.632803e-06	4.270789e-09	1.882413e+01	2.791664e+02
2.220000e-06	2.542729e-06	4.192867e-09	1.818011e+01	2.743175e+02
2.230000e-06	2.451821e-06	4.121601e-09	1.753014e+01	2.693559e+02
2.240000e-06	2.360180e-06	4.043557e-09	1.687492e+01	2.642823e+02
2.250000e-06	2.267718e-06	3.967865e-09	1.621383e+01	2.590971e+02
2.260000e-06	2.174474e-06	3.884033e-09	1.554715e+01	2.538010e+02
2.270000e-06	2.080357e-06	3.793127e-09	1.487423e+01	2.483940e+02
2.280000e-06	1.985235e-06	3.707426e-09	1.419412e+01	2.428758e+02
2.290000e-06	1.889259e-06	3.625353e-09	1.350791e+01	2.372454e+02
2.300000e-06	1.792698e-06	3.538698e-09	1.281751e+01	2.315012e+02
2.310000e-06	1.695705e-06	3.446837e-09	1.212403e+01	2.256414e+02
2.320000e-06	1.598130e-06	3.356397e-09	1.142638e+01	2.196639e+02
2.330000e-06	1.499962e-06	3.269321e-09	1.072449e+01	2.135662e+02
2.340000e-06	1.401319e-06	3.181413e-09	1.001921e+01	2.073462e+02
2.350000e-06	1.302297e-06	3.083607e-09	9.311219e+00	2.010014e+02
2.360000e-06	1.202976e-06	2.980929e-09	8.601089e+00	1.945293e+02
2.370000e-06	1.103351e-06	2.874650e-09	7.888786e+00	1.879273e+02
2.380000e-06	1.003442e-06	2.767737e-09	7.174454e+00	1.811921e+02
2.390000e-06	9.031181e-07	2.667601e-09	6.457153e+00	1.743198e+02
2.400000e-06	8.023534e-07	2.567769e-09	5.736701e+00	1.673057e+02
2.410000e-06	7.013869e-07	2.461635e-09	5.014806e+00	1.601441e+02
2.420000e-06	6.002624e-07	2.345494e-09	4.291782e+00	1.528286e+02
2.430000e-06	4.989223e-07	2.224179e-09	3.567216e+00	1.453518e+02
2.440000e-06	3.973482e-07	2.108307e-09	2.840977e+00	1.377058e+02
2.450000e-06	2.955596e-07	1.991586e-09	2.113205e+00	1.298827e+02
2.460000e-06	1.936572e-07	1.866975e-09	1.384619e+00	1.218743e+02
2.470000e-06	9.166244e-08	1.738729e-09	6.553721e-01	1.136731e+02
2.480000e-06	-1.042233e-08	1.610010e-09	-7.451802e-02	1.052717e+02
2.490000e-06	-1.125903e-07	1.482811e-09	-8.050030e-01	9.666367e+01
2.500000e-06	-2.147554e-07	1.353550e-09	-1.535467e+00	8.784276e+01
2.510000e-06	-3.167766e-07	1.218709e-09	-2.264903e+00	7.880326e+01
2.520000e-06	-4.186476e-07	1.078142e-09	-2.993265e+00	6.953961e+01
2.530000e-06	-5.204187e-07	9.298073e-10	-3.720912e+00	6.004628e+01
2.540000e-06	-6.219805e-07	7.802813e-10	-4.447063e+00	5.031771e+01
2.550000e-06	-7.232262e-07	6.322679e-10	-5.170954e+00	4.034848e+01
2.560000e-06	-8.241364e-07	4.793015e-10	-5.892446e+00	3.013367e+01
2.570000e-06	-9.246719e-07	3.177274e-10	-6.611259e+00	1.966953e+01
2.580000e-06	-1.024843e-06	1.512918e-10	-7.327467e+00	8.954405e+00
2.590000e-06	-1.124629e-06	-1.561457e-11	-8.040918e+00	-2.010198e+00
2.600000e-06	-1.224049e-06	-1.828163e-10	-8.751762e+00	-1.321838e+01
2.610000e-06	-1.323156e-06	-3.507209e-10	-9.460357e+00	-2.465870e+01
2.620000e-06	-1.421846e-06	-5.256325e-10	-1.016598e+01	-3.631324e+01
2.630000e-06	-1.519999e-06	-7.096336e-10	-1.086775e+01	-4.815692e+01
2.640000e-06	-1.617574e-06	-8.980067e-10	-1.156540e+01	-6.015737e+01
2.650000e-06	-1.714589e-06	-1.085915e-09	-1.225904e+01	-7.227526e+01
2.660000e-06	-1.811073e-06	-1.272168e-09	-1.294889e+01	-8.446519e+01
2.670000e-06	-1.907060e-06	-1.459605e-09	-1.363518e+01	-9.667712e+01
2.680000e-06	-2.002458e-06	-1.647776e-09	-1.431726e+01	-1.088582e+02
2.690000e-06	-2.096951e-06	-1.835617e-09	-1.499287e+01	-1.209547e+02
2.700000e-06	-2.190419e-06	-2.020570e-09	-1.566115e+01	-1.329146e+02
2.710000e-06	-2.283019e-06	-2.198486e-09	-1.632323e+01	-1.446888e+02
2.720000e-06	-2.374806e-06	-2.371792e-09	-1.697949e+01	-1.562337e+02
2.730000e-06	-2.465733e-06	-2.542282e-09	-1.762961e+01	-1.675118e+02
2.740000e-06	-2.555755e-06	-2.707944e-09	-1.827325e+01	-1.784928e+02
2.750000e-06	-2.644927e-06	-2.868548e-09	-1.891081e+01	-1.891536e+02
2.760000e-06	-2.733247e-06	-3.023567e-09	-1.954229e+01	-1.994779e+02
2.770000e-06	-2.820708e-06	-3.175411e-09	-2.016762e+01	-2.094555e+02
2.780000e-06	-2.907223e-06	-3.325532e-09	-2.078619e+01	-2.190810e+02
2.790000e-06	-2.992543e-06	-3.469510e-09	-2.139621e+01	-2.283530e+02
2.800000e-06	-3.076711e-06	-3.605890e-09	-2.199800e+01	-2.372725e+02
2.810000e-06	-3.159873e-06	-3.735276e-09	-2.259260e+01	-2.458427e+02
2.820000e-06	-3.241996e-06	-3.858015e-09	-2.317976e+01	-2.540676e+02
2.830000e-06	-3.323023e-06	-3.977682e-09	-2.375910e+01	-2.619522e+02
2.840000e-06	-3.403034e-06	-4.096940e-09	-2.433116e+01	-2.695027e+02
2.850000e-06	-3.481793e-06	-4.213144e-09	-2.489428e+01	-2.767262e+02
2.860000e-06	-3.558991e-06	-4.322327e-09	-2.544623e+01	-2.836316e+02
2.870000e-06	-3.634722e-06	-4.424134e-09	-2.598769e+01	-2.902302e+02
2.880000e-06	-3.709026e-06	-4.520536e-09	-2.651896e+01	-2.965351e+02
2.890000e-06	-3.781934e-06	-4.611456e-09	-2.704023e+01	-3.025620e+02
2.900000e-06	-3.853623e-06	-4.697435e-09	-2.755280e+01	-3.083285e+02
2.910000e-06	-3.923884e-06	-4.779772e-09	-2.805516e+01	-3.138536e+02
2.920000e-06	-3.992548e-06	-4.859440e-09	-2.854610e+01	-3.191564e+02
2.930000e-06	-4.059842e-06	-4.938523e-09	-2.902724e+01	-3.242553e+02
2.940000e-06	-4.125763e-06	-5.016454e-09	-2.949856e+01	-3.291666e+02
