# Temperatura_=_27.45
# Concentracion g/m^3_=_15000.0
# C_Vs_to_Am_M_A/Vsm_=_65563218390.804596
# pendiente_HvsI_1/m_=_3716.3
# ordenada_HvsI_A/m_=_1297.0
# frecuencia_Hz_=_301598.5333507933

Tiempo_(s)	Campo_(V.s)	Magnetizacion_(V.s)	Campo_(kA/m)	Magnetizacion_(A/m)
0.000000e+00	-5.383570e-06	-5.656170e-09	-3.833151e+01	-3.699621e+02
1.000000e-08	-5.380686e-06	-5.652677e-09	-3.831097e+01	-3.698399e+02
2.000000e-08	-5.376021e-06	-5.646114e-09	-3.827776e+01	-3.696364e+02
3.000000e-08	-5.369750e-06	-5.640001e-09	-3.823311e+01	-3.693497e+02
4.000000e-08	-5.361974e-06	-5.633864e-09	-3.817774e+01	-3.689795e+02
5.000000e-08	-5.352341e-06	-5.626673e-09	-3.810915e+01	-3.685274e+02
6.000000e-08	-5.340632e-06	-5.615692e-09	-3.802579e+01	-3.679972e+02
7.000000e-08	-5.327051e-06	-5.598256e-09	-3.792909e+01	-3.673947e+02
8.000000e-08	-5.311305e-06	-5.602771e-09	-3.781698e+01	-3.667272e+02
9.000000e-08	-5.293241e-06	-5.631370e-09	-3.768836e+01	-3.660027e+02
1.000000e-07	-5.273179e-06	-5.610972e-09	-3.754551e+01	-3.652292e+02
1.100000e-07	-5.251298e-06	-5.575727e-09	-3.738972e+01	-3.644135e+02
1.200000e-07	-5.227692e-06	-5.549239e-09	-3.722165e+01	-3.635606e+02
1.300000e-07	-5.202510e-06	-5.467824e-09	-3.704234e+01	-3.626730e+02
1.400000e-07	-5.175718e-06	-5.500915e-09	-3.685158e+01	-3.617499e+02
1.500000e-07	-5.147292e-06	-5.550318e-09	-3.664919e+01	-3.607877e+02
1.600000e-07	-5.117462e-06	-5.455605e-09	-3.643679e+01	-3.597800e+02
1.700000e-07	-5.086088e-06	-5.498656e-09	-3.621341e+01	-3.587183e+02
1.800000e-07	-5.052480e-06	-5.494567e-09	-3.597412e+01	-3.575931e+02
1.900000e-07	-5.016983e-06	-5.375346e-09	-3.572138e+01	-3.563946e+02
2.000000e-07	-4.980155e-06	-5.410825e-09	-3.545915e+01	-3.551140e+02
2.100000e-07	-4.941586e-06	-5.385359e-09	-3.518454e+01	-3.537445e+02
2.200000e-07	-4.901215e-06	-5.329631e-09	-3.489710e+01	-3.522818e+02
2.300000e-07	-4.858862e-06	-5.354458e-09	-3.459554e+01	-3.507243e+02
2.400000e-07	-4.814530e-06	-5.302032e-09	-3.427989e+01	-3.490737e+02
2.500000e-07	-4.768478e-06	-5.284956e-09	-3.395200e+01	-3.473338e+02
2.600000e-07	-4.720487e-06	-5.278183e-09	-3.361030e+01	-3.455107e+02
2.700000e-07	-4.670418e-06	-5.220105e-09	-3.325380e+01	-3.436112e+02
2.800000e-07	-4.618253e-06	-5.206077e-09	-3.288238e+01	-3.416423e+02
2.900000e-07	-4.564193e-06	-5.169443e-09	-3.249747e+01	-3.396100e+02
3.000000e-07	-4.508617e-06	-5.116279e-09	-3.210177e+01	-3.375188e+02
3.100000e-07	-4.451392e-06	-5.109200e-09	-3.169432e+01	-3.353711e+02
3.200000e-07	-4.392324e-06	-5.107291e-09	-3.127375e+01	-3.331669e+02
3.300000e-07	-4.331696e-06	-5.050738e-09	-3.084207e+01	-3.309038e+02
3.400000e-07	-4.269635e-06	-4.981704e-09	-3.040019e+01	-3.285779e+02
3.500000e-07	-4.206199e-06	-4.963679e-09	-2.994852e+01	-3.261840e+02
3.600000e-07	-4.141248e-06	-4.933905e-09	-2.948606e+01	-3.237164e+02
3.700000e-07	-4.074596e-06	-4.895917e-09	-2.901149e+01	-3.211697e+02
3.800000e-07	-4.006426e-06	-4.864909e-09	-2.852611e+01	-3.185394e+02
3.900000e-07	-3.936877e-06	-4.806354e-09	-2.803092e+01	-3.158224e+02
4.000000e-07	-3.866041e-06	-4.751406e-09	-2.752656e+01	-3.130172e+02
4.100000e-07	-3.794070e-06	-4.702871e-09	-2.701413e+01	-3.101237e+02
4.200000e-07	-3.720691e-06	-4.673528e-09	-2.649165e+01	-3.071430e+02
4.300000e-07	-3.645625e-06	-4.638971e-09	-2.595718e+01	-3.040771e+02
4.400000e-07	-3.569041e-06	-4.590159e-09	-2.541189e+01	-3.009280e+02
4.500000e-07	-3.491084e-06	-4.535730e-09	-2.485684e+01	-2.976974e+02
4.600000e-07	-3.411765e-06	-4.481158e-09	-2.429207e+01	-2.943860e+02
4.700000e-07	-3.331109e-06	-4.436179e-09	-2.371780e+01	-2.909934e+02
4.800000e-07	-3.249196e-06	-4.379968e-09	-2.313457e+01	-2.875177e+02
4.900000e-07	-3.166179e-06	-4.319190e-09	-2.254348e+01	-2.839559e+02
5.000000e-07	-3.082184e-06	-4.258560e-09	-2.194543e+01	-2.803040e+02
5.100000e-07	-2.997269e-06	-4.198050e-09	-2.134083e+01	-2.765575e+02
5.200000e-07	-2.911410e-06	-4.142602e-09	-2.072951e+01	-2.727118e+02
5.300000e-07	-2.824584e-06	-4.088892e-09	-2.011129e+01	-2.687629e+02
5.400000e-07	-2.736906e-06	-4.028240e-09	-1.948702e+01	-2.647077e+02
5.500000e-07	-2.648297e-06	-3.956997e-09	-1.885611e+01	-2.605443e+02
5.600000e-07	-2.558413e-06	-3.881460e-09	-1.821613e+01	-2.562718e+02
5.700000e-07	-2.467330e-06	-3.818102e-09	-1.756761e+01	-2.518907e+02
5.800000e-07	-2.375427e-06	-3.765188e-09	-1.691326e+01	-2.474020e+02
5.900000e-07	-2.282760e-06	-3.700737e-09	-1.625346e+01	-2.428071e+02
6.000000e-07	-2.189302e-06	-3.620222e-09	-1.558803e+01	-2.381074e+02
6.100000e-07	-2.095044e-06	-3.539839e-09	-1.491691e+01	-2.333034e+02
6.200000e-07	-2.000067e-06	-3.464455e-09	-1.424066e+01	-2.283948e+02
6.300000e-07	-1.904476e-06	-3.389130e-09	-1.356004e+01	-2.233799e+02
6.400000e-07	-1.808169e-06	-3.316562e-09	-1.287433e+01	-2.182561e+02
6.500000e-07	-1.711087e-06	-3.242421e-09	-1.218310e+01	-2.130192e+02
6.600000e-07	-1.613259e-06	-3.159717e-09	-1.148655e+01	-2.076648e+02
6.700000e-07	-1.514755e-06	-3.067006e-09	-1.078519e+01	-2.021880e+02
6.800000e-07	-1.415666e-06	-2.976195e-09	-1.007967e+01	-1.965839e+02
6.900000e-07	-1.316128e-06	-2.892470e-09	-9.370950e+00	-1.908486e+02
7.000000e-07	-1.216208e-06	-2.806188e-09	-8.659511e+00	-1.849790e+02
7.100000e-07	-1.115912e-06	-2.714196e-09	-7.945397e+00	-1.789734e+02
7.200000e-07	-1.015283e-06	-2.618016e-09	-7.228909e+00	-1.728310e+02
7.300000e-07	-9.143599e-07	-2.523380e-09	-6.510326e+00	-1.665523e+02
7.400000e-07	-8.131251e-07	-2.430370e-09	-5.789525e+00	-1.601383e+02
7.500000e-07	-7.116202e-07	-2.335466e-09	-5.066801e+00	-1.535901e+02
7.600000e-07	-6.098802e-07	-2.233196e-09	-4.342403e+00	-1.469083e+02
7.700000e-07	-5.079336e-07	-2.123927e-09	-3.616534e+00	-1.400925e+02
7.800000e-07	-4.058012e-07	-2.014120e-09	-2.889341e+00	-1.331410e+02
7.900000e-07	-3.034939e-07	-1.905933e-09	-2.160904e+00	-1.260500e+02
8.000000e-07	-2.010905e-07	-1.799744e-09	-1.431783e+00	-1.188139e+02
8.100000e-07	-9.862035e-08	-1.690623e-09	-7.021859e-01	-1.114250e+02
8.200000e-07	3.912967e-09	-1.576655e-09	2.786068e-02	-1.038742e+02
8.300000e-07	1.064930e-07	-1.458802e-09	7.582395e-01	-9.615096e+01
8.400000e-07	2.090494e-07	-1.339173e-09	1.488451e+00	-8.824401e+01
8.500000e-07	3.115975e-07	-1.219463e-09	2.218603e+00	-8.014202e+01
8.600000e-07	4.140547e-07	-1.095069e-09	2.948107e+00	-7.183413e+01
8.700000e-07	5.163368e-07	-9.611229e-10	3.676365e+00	-6.331056e+01
8.800000e-07	6.184891e-07	-8.214737e-10	4.403698e+00	-5.456312e+01
8.900000e-07	7.204431e-07	-6.812805e-10	5.129620e+00	-4.558565e+01
9.000000e-07	8.221165e-07	-5.408330e-10	5.853544e+00	-3.637445e+01
9.100000e-07	9.234562e-07	-3.999300e-10	6.575092e+00	-2.692849e+01
9.200000e-07	1.024437e-06	-2.562795e-10	7.294086e+00	-1.724973e+01
9.300000e-07	1.125098e-06	-1.062558e-10	8.010802e+00	-7.343311e+00
9.400000e-07	1.225444e-06	5.138166e-11	8.725273e+00	2.782209e+00
9.500000e-07	1.325432e-06	2.119615e-10	9.437197e+00	1.311469e+01
9.600000e-07	1.424943e-06	3.728945e-10	1.014572e+01	2.363821e+01
9.700000e-07	1.523943e-06	5.366977e-10	1.085061e+01	3.433295e+01
9.800000e-07	1.622330e-06	7.042600e-10	1.155114e+01	4.517511e+01
9.900000e-07	1.719904e-06	8.748974e-10	1.224587e+01	5.613700e+01
1.000000e-06	1.816600e-06	1.043718e-09	1.293436e+01	6.718721e+01
1.010000e-06	1.912491e-06	1.211536e-09	1.361711e+01	7.829098e+01
1.020000e-06	2.007705e-06	1.379651e-09	1.429504e+01	8.941079e+01
1.030000e-06	2.102266e-06	1.547992e-09	1.496832e+01	1.005071e+02
1.040000e-06	2.196107e-06	1.717628e-09	1.563648e+01	1.115392e+02
1.050000e-06	2.289213e-06	1.887509e-09	1.629940e+01	1.224662e+02
1.060000e-06	2.381599e-06	2.055735e-09	1.695720e+01	1.332483e+02
1.070000e-06	2.473253e-06	2.217544e-09	1.760978e+01	1.438475e+02
1.080000e-06	2.564108e-06	2.374839e-09	1.825668e+01	1.542289e+02
1.090000e-06	2.653938e-06	2.530907e-09	1.889628e+01	1.643612e+02
1.100000e-06	2.742516e-06	2.682352e-09	1.952696e+01	1.742175e+02
1.110000e-06	2.830032e-06	2.826252e-09	2.015008e+01	1.837757e+02
1.120000e-06	2.916692e-06	2.964395e-09	2.076711e+01	1.930187e+02
1.130000e-06	3.002487e-06	3.098961e-09	2.137798e+01	2.019345e+02
1.140000e-06	3.087363e-06	3.229324e-09	2.198231e+01	2.105157e+02
1.150000e-06	3.171288e-06	3.355452e-09	2.257986e+01	2.187595e+02
1.160000e-06	3.254221e-06	3.476146e-09	2.317035e+01	2.266670e+02
1.170000e-06	3.335894e-06	3.590092e-09	2.375187e+01	2.342429e+02
1.180000e-06	3.416244e-06	3.697768e-09	2.432397e+01	2.414952e+02
1.190000e-06	3.495399e-06	3.800522e-09	2.488756e+01	2.484341e+02
1.200000e-06	3.573334e-06	3.900263e-09	2.544246e+01	2.550722e+02
1.210000e-06	3.650058e-06	3.997682e-09	2.598875e+01	2.614234e+02
1.220000e-06	3.725457e-06	4.091052e-09	2.652559e+01	2.675030e+02
1.230000e-06	3.799216e-06	4.177838e-09	2.705076e+01	2.733266e+02
1.240000e-06	3.871351e-06	4.260098e-09	2.756437e+01	2.789101e+02
1.250000e-06	3.942116e-06	4.342514e-09	2.806823e+01	2.842687e+02
1.260000e-06	4.011480e-06	4.424613e-09	2.856210e+01	2.894169e+02
1.270000e-06	4.079540e-06	4.501773e-09	2.904669e+01	2.943674e+02
1.280000e-06	4.146241e-06	4.574143e-09	2.952161e+01	2.991312e+02
1.290000e-06	4.211189e-06	4.643697e-09	2.998405e+01	3.037170e+02
1.300000e-06	4.274502e-06	4.711768e-09	3.043484e+01	3.081309e+02
1.310000e-06	4.336384e-06	4.775983e-09	3.087545e+01	3.123769e+02
1.320000e-06	4.396891e-06	4.836961e-09	3.130626e+01	3.164565e+02
1.330000e-06	4.456054e-06	4.894458e-09	3.172751e+01	3.203695e+02
1.340000e-06	4.513502e-06	4.948356e-09	3.213654e+01	3.241146e+02
1.350000e-06	4.569112e-06	5.001688e-09	3.253249e+01	3.276895e+02
1.360000e-06	4.623120e-06	5.053633e-09	3.291703e+01	3.310923e+02
1.370000e-06	4.675436e-06	5.102314e-09	3.328953e+01	3.343216e+02
1.380000e-06	4.725713e-06	5.146409e-09	3.364750e+01	3.373773e+02
1.390000e-06	4.773956e-06	5.189213e-09	3.399100e+01	3.402609e+02
1.400000e-06	4.820497e-06	5.229995e-09	3.432238e+01	3.429757e+02
1.410000e-06	4.865471e-06	5.267505e-09	3.464259e+01	3.455266e+02
1.420000e-06	4.908869e-06	5.303025e-09	3.495160e+01	3.479200e+02
1.430000e-06	4.950415e-06	5.335517e-09	3.524741e+01	3.501632e+02
1.440000e-06	4.990120e-06	5.365453e-09	3.553011e+01	3.522639e+02
1.450000e-06	5.028193e-06	5.392109e-09	3.580119e+01	3.542296e+02
1.460000e-06	5.064713e-06	5.418052e-09	3.606121e+01	3.560672e+02
1.470000e-06	5.099512e-06	5.445425e-09	3.630899e+01	3.577824e+02
1.480000e-06	5.132306e-06	5.470990e-09	3.654248e+01	3.593795e+02
1.490000e-06	5.163299e-06	5.493711e-09	3.676316e+01	3.608619e+02
1.500000e-06	5.192617e-06	5.514001e-09	3.697191e+01	3.622314e+02
1.510000e-06	5.220186e-06	5.532051e-09	3.716820e+01	3.634895e+02
1.520000e-06	5.245699e-06	5.548213e-09	3.734985e+01	3.646373e+02
1.530000e-06	5.269133e-06	5.562545e-09	3.751670e+01	3.656762e+02
1.540000e-06	5.290809e-06	5.575473e-09	3.767104e+01	3.666080e+02
1.550000e-06	5.310821e-06	5.587786e-09	3.781353e+01	3.674357e+02
1.560000e-06	5.328933e-06	5.600637e-09	3.794248e+01	3.681632e+02
1.570000e-06	5.344915e-06	5.613153e-09	3.805628e+01	3.687953e+02
1.580000e-06	5.358981e-06	5.624195e-09	3.815643e+01	3.693374e+02
1.590000e-06	5.371114e-06	5.634795e-09	3.824282e+01	3.697951e+02
1.600000e-06	5.380971e-06	5.643954e-09	3.831300e+01	3.701735e+02
1.610000e-06	5.388735e-06	5.650740e-09	3.836828e+01	3.704769e+02
1.620000e-06	5.394752e-06	5.655280e-09	3.841113e+01	3.707080e+02
1.630000e-06	5.399059e-06	5.658031e-09	3.844179e+01	3.708681e+02
1.640000e-06	5.401394e-06	5.659727e-09	3.845841e+01	3.709568e+02
1.650000e-06	5.401616e-06	5.662457e-09	3.846000e+01	3.709723e+02
1.660000e-06	5.400028e-06	5.662417e-09	3.844869e+01	3.709119e+02
1.670000e-06	5.396805e-06	5.660867e-09	3.842574e+01	3.707723e+02
1.680000e-06	5.391884e-06	5.660194e-09	3.839070e+01	3.705509e+02
1.690000e-06	5.385039e-06	5.658379e-09	3.834197e+01	3.702461e+02
1.700000e-06	5.376359e-06	5.655007e-09	3.828017e+01	3.698580e+02
1.710000e-06	5.366095e-06	5.651323e-09	3.820709e+01	3.693886e+02
1.720000e-06	5.354169e-06	5.651283e-09	3.812217e+01	3.688422e+02
1.730000e-06	5.340286e-06	5.642855e-09	3.802332e+01	3.682250e+02
1.740000e-06	5.324322e-06	5.581481e-09	3.790965e+01	3.675444e+02
1.750000e-06	5.306028e-06	5.573005e-09	3.777940e+01	3.668086e+02
1.760000e-06	5.284963e-06	5.587218e-09	3.762942e+01	3.660254e+02
1.770000e-06	5.261587e-06	5.585285e-09	3.746298e+01	3.652013e+02
1.780000e-06	5.237025e-06	5.643893e-09	3.728809e+01	3.643407e+02
1.790000e-06	5.211895e-06	5.550226e-09	3.710917e+01	3.634455e+02
1.800000e-06	5.185303e-06	5.496961e-09	3.691983e+01	3.625142e+02
1.810000e-06	5.156283e-06	5.564913e-09	3.671320e+01	3.615427e+02
1.820000e-06	5.125519e-06	5.444931e-09	3.649416e+01	3.605241e+02
1.830000e-06	5.093132e-06	5.445730e-09	3.626356e+01	3.594494e+02
1.840000e-06	5.058688e-06	5.526816e-09	3.601832e+01	3.583092e+02
1.850000e-06	5.022738e-06	5.413067e-09	3.576235e+01	3.570936e+02
1.860000e-06	4.985050e-06	5.446010e-09	3.549401e+01	3.557944e+02
1.870000e-06	4.945429e-06	5.433536e-09	3.521191e+01	3.544050e+02
1.880000e-06	4.904207e-06	5.322147e-09	3.491840e+01	3.529218e+02
1.890000e-06	4.861117e-06	5.375304e-09	3.461159e+01	3.513440e+02
1.900000e-06	4.816445e-06	5.297354e-09	3.429353e+01	3.496737e+02
1.910000e-06	4.769965e-06	5.290209e-09	3.396258e+01	3.479153e+02
1.920000e-06	4.721376e-06	5.319304e-09	3.361663e+01	3.460751e+02
1.930000e-06	4.671260e-06	5.187778e-09	3.325980e+01	3.441599e+02
1.940000e-06	4.619367e-06	5.221316e-09	3.289032e+01	3.421768e+02
1.950000e-06	4.565298e-06	5.208700e-09	3.250534e+01	3.401315e+02
1.960000e-06	4.509287e-06	5.134123e-09	3.210653e+01	3.380279e+02
1.970000e-06	4.451588e-06	5.097059e-09	3.169571e+01	3.358680e+02
1.980000e-06	4.392535e-06	5.046501e-09	3.127525e+01	3.336512e+02
1.990000e-06	4.332040e-06	5.079646e-09	3.084452e+01	3.313750e+02
2.000000e-06	4.269797e-06	5.013052e-09	3.040134e+01	3.290348e+02
2.010000e-06	4.205914e-06	4.966906e-09	2.994649e+01	3.266254e+02
2.020000e-06	4.140542e-06	4.950327e-09	2.948104e+01	3.241411e+02
2.030000e-06	4.073802e-06	4.865194e-09	2.900584e+01	3.215767e+02
2.040000e-06	4.005680e-06	4.844897e-09	2.852081e+01	3.189279e+02
2.050000e-06	3.935974e-06	4.810078e-09	2.802449e+01	3.161919e+02
2.060000e-06	3.864684e-06	4.801524e-09	2.751690e+01	3.133676e+02
2.070000e-06	3.792046e-06	4.748340e-09	2.699971e+01	3.104551e+02
2.080000e-06	3.718170e-06	4.658918e-09	2.647371e+01	3.074559e+02
2.090000e-06	3.642946e-06	4.623459e-09	2.593811e+01	3.043718e+02
2.100000e-06	3.566222e-06	4.576412e-09	2.539183e+01	3.012050e+02
2.110000e-06	3.487850e-06	4.540443e-09	2.483381e+01	2.979569e+02
2.120000e-06	3.408187e-06	4.480744e-09	2.426660e+01	2.946280e+02
2.130000e-06	3.327498e-06	4.438235e-09	2.369209e+01	2.912176e+02
2.140000e-06	3.245571e-06	4.388281e-09	2.310876e+01	2.877236e+02
2.150000e-06	3.162534e-06	4.318314e-09	2.251753e+01	2.841427e+02
2.160000e-06	3.078541e-06	4.275221e-09	2.191949e+01	2.804708e+02
2.170000e-06	2.993432e-06	4.222972e-09	2.131351e+01	2.767032e+02
2.180000e-06	2.906953e-06	4.161099e-09	2.069777e+01	2.728356e+02
2.190000e-06	2.819293e-06	4.082484e-09	2.007362e+01	2.688640e+02
2.200000e-06	2.730721e-06	4.025230e-09	1.944298e+01	2.647856e+02
2.210000e-06	2.641224e-06	3.982680e-09	1.880575e+01	2.605987e+02
2.220000e-06	2.550817e-06	3.917556e-09	1.816205e+01	2.563027e+02
2.230000e-06	2.459569e-06	3.835661e-09	1.751235e+01	2.518982e+02
2.240000e-06	2.367617e-06	3.761278e-09	1.685765e+01	2.473865e+02
2.250000e-06	2.274843e-06	3.699399e-09	1.619709e+01	2.427689e+02
2.260000e-06	2.181095e-06	3.629476e-09	1.552959e+01	2.380467e+02
2.270000e-06	2.086401e-06	3.560886e-09	1.485537e+01	2.332202e+02
2.280000e-06	1.990815e-06	3.487981e-09	1.417478e+01	2.282888e+02
2.290000e-06	1.894485e-06	3.402617e-09	1.348891e+01	2.232507e+02
2.300000e-06	1.797581e-06	3.309530e-09	1.279894e+01	2.181029e+02
2.310000e-06	1.700149e-06	3.226862e-09	1.210521e+01	2.128411e+02
2.320000e-06	1.602152e-06	3.160304e-09	1.140747e+01	2.074607e+02
2.330000e-06	1.503626e-06	3.087388e-09	1.070596e+01	2.019568e+02
2.340000e-06	1.404650e-06	2.997583e-09	1.000123e+01	1.963248e+02
2.350000e-06	1.305268e-06	2.902117e-09	9.293625e+00	1.905608e+02
2.360000e-06	1.205510e-06	2.812456e-09	8.583339e+00	1.846620e+02
2.370000e-06	1.105536e-06	2.722962e-09	7.871518e+00	1.786269e+02
2.380000e-06	1.005360e-06	2.630226e-09	7.158254e+00	1.724551e+02
2.390000e-06	9.047127e-07	2.533586e-09	6.441637e+00	1.661472e+02
2.400000e-06	8.034948e-07	2.433408e-09	5.720956e+00	1.597041e+02
2.410000e-06	7.019114e-07	2.332453e-09	4.997673e+00	1.531271e+02
2.420000e-06	6.001584e-07	2.229609e-09	4.273182e+00	1.464165e+02
2.430000e-06	4.981625e-07	2.126715e-09	3.546962e+00	1.395718e+02
2.440000e-06	3.959662e-07	2.020181e-09	2.819315e+00	1.325906e+02
2.450000e-06	2.936087e-07	1.905343e-09	2.090521e+00	1.254689e+02
2.460000e-06	1.910399e-07	1.788528e-09	1.360221e+00	1.182006e+02
2.470000e-06	8.839112e-08	1.676801e-09	6.293528e-01	1.107777e+02
2.480000e-06	-1.430739e-08	1.566473e-09	-1.018699e-01	1.031907e+02
2.490000e-06	-1.170425e-07	1.449742e-09	-8.333531e-01	9.542885e+01
2.500000e-06	-2.197385e-07	1.325416e-09	-1.564558e+00	8.748090e+01
2.510000e-06	-3.223192e-07	1.200006e-09	-2.294942e+00	7.933552e+01
2.520000e-06	-4.247519e-07	1.074713e-09	-3.024272e+00	7.098204e+01
2.530000e-06	-5.270646e-07	9.437376e-10	-3.752748e+00	6.241096e+01
2.540000e-06	-6.292712e-07	8.092071e-10	-4.480468e+00	5.361452e+01
2.550000e-06	-7.312235e-07	6.716858e-10	-5.206378e+00	4.458704e+01
2.560000e-06	-8.327626e-07	5.277688e-10	-5.929345e+00	3.532536e+01
2.570000e-06	-9.338707e-07	3.804157e-10	-6.649244e+00	2.582909e+01
2.580000e-06	-1.034425e-06	2.335851e-10	-7.365198e+00	1.610084e+01
2.590000e-06	-1.134483e-06	8.754695e-11	-8.077622e+00	6.146483e+00
2.600000e-06	-1.234146e-06	-6.391064e-11	-8.787233e+00	-4.024689e+00
2.610000e-06	-1.333446e-06	-2.242001e-10	-9.494255e+00	-1.439973e+01
2.620000e-06	-1.432376e-06	-3.859106e-10	-1.019865e+01	-2.496190e+01
2.630000e-06	-1.530822e-06	-5.472356e-10	-1.089959e+01	-3.569052e+01
2.640000e-06	-1.628719e-06	-7.101839e-10	-1.159662e+01	-4.656096e+01
2.650000e-06	-1.726031e-06	-8.754926e-10	-1.228950e+01	-5.754469e+01
2.660000e-06	-1.822759e-06	-1.044597e-09	-1.297821e+01	-6.860956e+01
2.670000e-06	-1.918903e-06	-1.216639e-09	-1.366276e+01	-7.972016e+01
2.680000e-06	-2.014484e-06	-1.389073e-09	-1.434331e+01	-9.083847e+01
2.690000e-06	-2.109394e-06	-1.557622e-09	-1.501908e+01	-1.019246e+02
2.700000e-06	-2.203408e-06	-1.722180e-09	-1.568846e+01	-1.129378e+02
2.710000e-06	-2.296385e-06	-1.885439e-09	-1.635047e+01	-1.238372e+02
2.720000e-06	-2.388409e-06	-2.049096e-09	-1.700569e+01	-1.345834e+02
2.730000e-06	-2.479645e-06	-2.210107e-09	-1.765529e+01	-1.451389e+02
2.740000e-06	-2.570029e-06	-2.364740e-09	-1.829884e+01	-1.554696e+02
2.750000e-06	-2.659441e-06	-2.515101e-09	-1.893546e+01	-1.655449e+02
2.760000e-06	-2.747968e-06	-2.663933e-09	-1.956578e+01	-1.753392e+02
2.770000e-06	-2.835705e-06	-2.811748e-09	-2.019048e+01	-1.848313e+02
2.780000e-06	-2.922569e-06	-2.954595e-09	-2.080895e+01	-1.940052e+02
2.790000e-06	-3.008236e-06	-3.088251e-09	-2.141891e+01	-2.028499e+02
2.800000e-06	-3.092625e-06	-3.215929e-09	-2.201977e+01	-2.113591e+02
2.810000e-06	-3.176002e-06	-3.340566e-09	-2.261343e+01	-2.195307e+02
2.820000e-06	-3.258362e-06	-3.462781e-09	-2.319983e+01	-2.273668e+02
2.830000e-06	-3.339648e-06	-3.581434e-09	-2.377860e+01	-2.348728e+02
2.840000e-06	-3.419881e-06	-3.695499e-09	-2.434987e+01	-2.420571e+02
2.850000e-06	-3.498914e-06	-3.804332e-09	-2.491258e+01	-2.489306e+02
2.860000e-06	-3.576424e-06	-3.904128e-09	-2.546446e+01	-2.555061e+02
2.870000e-06	-3.652366e-06	-3.997166e-09	-2.600518e+01	-2.617980e+02
2.880000e-06	-3.726923e-06	-4.088404e-09	-2.653603e+01	-2.678216e+02
2.890000e-06	-3.800154e-06	-4.177353e-09	-2.705745e+01	-2.735926e+02
2.900000e-06	-3.872151e-06	-4.260786e-09	-2.757007e+01	-2.791267e+02
2.910000e-06	-3.942765e-06	-4.338189e-09	-2.807285e+01	-2.844393e+02
2.920000e-06	-4.011728e-06	-4.415011e-09	-2.856387e+01	-2.895442e+02
2.930000e-06	-4.079213e-06	-4.492486e-09	-2.904437e+01	-2.944541e+02
2.940000e-06	-4.145333e-06	-4.567480e-09	-2.951515e+01	-2.991792e+02
