# Temperatura_=_26.83
# Concentracion g/m^3_=_15000.0
# C_Vs_to_Am_M_A/Vsm_=_65563218390.804596
# pendiente_HvsI_1/m_=_3716.3
# ordenada_HvsI_A/m_=_1297.0
# frecuencia_Hz_=_301595.0154506598

Tiempo_(s)	Campo_(V.s)	Magnetizacion_(V.s)	Campo_(kA/m)	Magnetizacion_(A/m)
0.000000e+00	-5.352161e-06	-5.608747e-09	-3.833666e+01	-3.667387e+02
1.000000e-08	-5.349440e-06	-5.606780e-09	-3.831717e+01	-3.666192e+02
2.000000e-08	-5.344915e-06	-5.603076e-09	-3.828476e+01	-3.664308e+02
3.000000e-08	-5.338782e-06	-5.598257e-09	-3.824083e+01	-3.661737e+02
4.000000e-08	-5.331126e-06	-5.593190e-09	-3.818600e+01	-3.658484e+02
5.000000e-08	-5.321724e-06	-5.586610e-09	-3.811865e+01	-3.654558e+02
6.000000e-08	-5.310324e-06	-5.578395e-09	-3.803699e+01	-3.649977e+02
7.000000e-08	-5.297014e-06	-5.569763e-09	-3.794166e+01	-3.644765e+02
8.000000e-08	-5.281587e-06	-5.558831e-09	-3.783115e+01	-3.638955e+02
9.000000e-08	-5.263884e-06	-5.569556e-09	-3.770435e+01	-3.632581e+02
1.000000e-07	-5.244159e-06	-5.577374e-09	-3.756306e+01	-3.625680e+02
1.100000e-07	-5.222570e-06	-5.543541e-09	-3.740843e+01	-3.618283e+02
1.200000e-07	-5.199278e-06	-5.506376e-09	-3.724159e+01	-3.610414e+02
1.300000e-07	-5.174460e-06	-5.477597e-09	-3.706382e+01	-3.602082e+02
1.400000e-07	-5.148076e-06	-5.444694e-09	-3.687483e+01	-3.593284e+02
1.500000e-07	-5.120058e-06	-5.496179e-09	-3.667415e+01	-3.583997e+02
1.600000e-07	-5.090550e-06	-5.500482e-09	-3.646279e+01	-3.574185e+02
1.700000e-07	-5.059525e-06	-5.438664e-09	-3.624056e+01	-3.563801e+02
1.800000e-07	-5.026420e-06	-5.451521e-09	-3.600343e+01	-3.552785e+02
1.900000e-07	-4.991393e-06	-5.397641e-09	-3.575254e+01	-3.541079e+02
2.000000e-07	-4.954965e-06	-5.343265e-09	-3.549161e+01	-3.528624e+02
2.100000e-07	-4.916810e-06	-5.351777e-09	-3.521832e+01	-3.515371e+02
2.200000e-07	-4.876835e-06	-5.297204e-09	-3.493198e+01	-3.501281e+02
2.300000e-07	-4.834966e-06	-5.286907e-09	-3.463208e+01	-3.486332e+02
2.400000e-07	-4.791115e-06	-5.313784e-09	-3.431798e+01	-3.470517e+02
2.500000e-07	-4.745467e-06	-5.285446e-09	-3.399101e+01	-3.453844e+02
2.600000e-07	-4.697937e-06	-5.254793e-09	-3.365056e+01	-3.436331e+02
2.700000e-07	-4.648431e-06	-5.184174e-09	-3.329596e+01	-3.418006e+02
2.800000e-07	-4.596900e-06	-5.165179e-09	-3.292685e+01	-3.398900e+02
2.900000e-07	-4.543426e-06	-5.175173e-09	-3.254383e+01	-3.379039e+02
3.000000e-07	-4.488321e-06	-5.127194e-09	-3.214912e+01	-3.358448e+02
3.100000e-07	-4.431647e-06	-5.082830e-09	-3.174317e+01	-3.337138e+02
3.200000e-07	-4.373138e-06	-5.041157e-09	-3.132408e+01	-3.315112e+02
3.300000e-07	-4.312968e-06	-5.002199e-09	-3.089310e+01	-3.292362e+02
3.400000e-07	-4.251428e-06	-4.975365e-09	-3.045229e+01	-3.268870e+02
3.500000e-07	-4.188548e-06	-4.959478e-09	-3.000189e+01	-3.244614e+02
3.600000e-07	-4.124234e-06	-4.925949e-09	-2.954122e+01	-3.219565e+02
3.700000e-07	-4.058218e-06	-4.858692e-09	-2.906836e+01	-3.193699e+02
3.800000e-07	-3.990539e-06	-4.813432e-09	-2.858359e+01	-3.166994e+02
3.900000e-07	-3.921463e-06	-4.782624e-09	-2.808880e+01	-3.139435e+02
4.000000e-07	-3.851179e-06	-4.737853e-09	-2.758538e+01	-3.111015e+02
4.100000e-07	-3.779763e-06	-4.690132e-09	-2.707383e+01	-3.081734e+02
4.200000e-07	-3.707018e-06	-4.637617e-09	-2.655277e+01	-3.051599e+02
4.300000e-07	-3.632626e-06	-4.602393e-09	-2.601991e+01	-3.020618e+02
4.400000e-07	-3.556578e-06	-4.567976e-09	-2.547519e+01	-2.988803e+02
4.500000e-07	-3.479155e-06	-4.530518e-09	-2.492063e+01	-2.956161e+02
4.600000e-07	-3.400402e-06	-4.477387e-09	-2.435653e+01	-2.922695e+02
4.700000e-07	-3.320303e-06	-4.401998e-09	-2.378279e+01	-2.888398e+02
4.800000e-07	-3.238967e-06	-4.334391e-09	-2.320020e+01	-2.853258e+02
4.900000e-07	-3.156439e-06	-4.282195e-09	-2.260906e+01	-2.817254e+02
5.000000e-07	-3.072930e-06	-4.241052e-09	-2.201090e+01	-2.780358e+02
5.100000e-07	-2.988591e-06	-4.184679e-09	-2.140679e+01	-2.742538e+02
5.200000e-07	-2.903325e-06	-4.116386e-09	-2.079605e+01	-2.703763e+02
5.300000e-07	-2.816998e-06	-4.046689e-09	-2.017770e+01	-2.664003e+02
5.400000e-07	-2.729712e-06	-3.985055e-09	-1.955249e+01	-2.623232e+02
5.500000e-07	-2.641643e-06	-3.933917e-09	-1.892166e+01	-2.581431e+02
5.600000e-07	-2.552481e-06	-3.877046e-09	-1.828301e+01	-2.538588e+02
5.700000e-07	-2.462084e-06	-3.804387e-09	-1.763551e+01	-2.494700e+02
5.800000e-07	-2.370733e-06	-3.724439e-09	-1.698118e+01	-2.449769e+02
5.900000e-07	-2.278580e-06	-3.652284e-09	-1.632110e+01	-2.403799e+02
6.000000e-07	-2.185651e-06	-3.582852e-09	-1.565546e+01	-2.356797e+02
6.100000e-07	-2.091968e-06	-3.510160e-09	-1.498443e+01	-2.308769e+02
6.200000e-07	-1.997570e-06	-3.433305e-09	-1.430827e+01	-2.259715e+02
6.300000e-07	-1.902534e-06	-3.356894e-09	-1.362754e+01	-2.209630e+02
6.400000e-07	-1.806926e-06	-3.282671e-09	-1.294272e+01	-2.158503e+02
6.500000e-07	-1.710722e-06	-3.211228e-09	-1.225362e+01	-2.106317e+02
6.600000e-07	-1.613787e-06	-3.135833e-09	-1.155929e+01	-2.053047e+02
6.700000e-07	-1.516021e-06	-3.044838e-09	-1.085901e+01	-1.998666e+02
6.800000e-07	-1.417544e-06	-2.945929e-09	-1.015364e+01	-1.943144e+02
6.900000e-07	-1.318555e-06	-2.854340e-09	-9.444598e+00	-1.886452e+02
7.000000e-07	-1.219154e-06	-2.772274e-09	-8.732600e+00	-1.828562e+02
7.100000e-07	-1.119445e-06	-2.687797e-09	-8.018401e+00	-1.769450e+02
7.200000e-07	-1.019461e-06	-2.594950e-09	-7.302232e+00	-1.709095e+02
7.300000e-07	-9.191831e-07	-2.497980e-09	-6.583960e+00	-1.647480e+02
7.400000e-07	-8.186607e-07	-2.402145e-09	-5.863934e+00	-1.584588e+02
7.500000e-07	-7.178090e-07	-2.307558e-09	-5.141550e+00	-1.520404e+02
7.600000e-07	-6.166644e-07	-2.212978e-09	-4.417067e+00	-1.454910e+02
7.700000e-07	-5.153010e-07	-2.112718e-09	-3.691018e+00	-1.388084e+02
7.800000e-07	-4.137373e-07	-2.001975e-09	-2.963534e+00	-1.319895e+02
7.900000e-07	-3.120995e-07	-1.888712e-09	-2.235518e+00	-1.250305e+02
8.000000e-07	-2.103700e-07	-1.779678e-09	-1.506847e+00	-1.179267e+02
8.100000e-07	-1.085240e-07	-1.673944e-09	-7.773401e-01	-1.106721e+02
8.200000e-07	-6.581200e-09	-1.566242e-09	-4.714007e-02	-1.032601e+02
8.300000e-07	9.540892e-08	-1.453114e-09	6.833987e-01	-9.568293e+01
8.400000e-07	1.973799e-07	-1.335091e-09	1.413801e+00	-8.793236e+01
8.500000e-07	2.992924e-07	-1.215741e-09	2.143783e+00	-7.999973e+01
8.600000e-07	4.011476e-07	-1.094599e-09	2.873355e+00	-7.187628e+01
8.700000e-07	5.028787e-07	-9.663094e-10	3.602039e+00	-6.355350e+01
8.800000e-07	6.044199e-07	-8.311833e-10	4.329362e+00	-5.502347e+01
8.900000e-07	7.057567e-07	-6.936411e-10	5.055221e+00	-4.627928e+01
9.000000e-07	8.068391e-07	-5.569729e-10	5.779258e+00	-3.731542e+01
9.100000e-07	9.076124e-07	-4.204285e-10	6.501081e+00	-2.812823e+01
9.200000e-07	1.008056e-06	-2.819735e-10	7.220543e+00	-1.871635e+01
9.300000e-07	1.108221e-06	-1.380895e-10	7.938007e+00	-9.081224e+00
9.400000e-07	1.208125e-06	1.262150e-11	8.653607e+00	7.724922e-01
9.500000e-07	1.307649e-06	1.678464e-10	9.366481e+00	1.083646e+01
9.600000e-07	1.406641e-06	3.253888e-10	1.007554e+01	2.109830e+01
9.700000e-07	1.505000e-06	4.850316e-10	1.078007e+01	3.154134e+01
9.800000e-07	1.602577e-06	6.488218e-10	1.147900e+01	4.214448e+01
9.900000e-07	1.699424e-06	8.169642e-10	1.217270e+01	5.288222e+01
1.000000e-06	1.795601e-06	9.843864e-10	1.286160e+01	6.372489e+01
1.010000e-06	1.891068e-06	1.149329e-09	1.354542e+01	7.463910e+01
1.020000e-06	1.985867e-06	1.313106e-09	1.422444e+01	8.558833e+01
1.030000e-06	2.080007e-06	1.477138e-09	1.489875e+01	9.653377e+01
1.040000e-06	2.173406e-06	1.643602e-09	1.556775e+01	1.074352e+02
1.050000e-06	2.266052e-06	1.810830e-09	1.623137e+01	1.182522e+02
1.060000e-06	2.358099e-06	1.977508e-09	1.689068e+01	1.289448e+02
1.070000e-06	2.449436e-06	2.139937e-09	1.754492e+01	1.394750e+02
1.080000e-06	2.539735e-06	2.298206e-09	1.819171e+01	1.498073e+02
1.090000e-06	2.628909e-06	2.454226e-09	1.883045e+01	1.599096e+02
1.100000e-06	2.717073e-06	2.605100e-09	1.946196e+01	1.697541e+02
1.110000e-06	2.804325e-06	2.746383e-09	2.008693e+01	1.793172e+02
1.120000e-06	2.890683e-06	2.880795e-09	2.070549e+01	1.885802e+02
1.130000e-06	2.976090e-06	3.013598e-09	2.131725e+01	1.975292e+02
1.140000e-06	3.060556e-06	3.145219e-09	2.192227e+01	2.061548e+02
1.150000e-06	3.144135e-06	3.271959e-09	2.252093e+01	2.144523e+02
1.160000e-06	3.226625e-06	3.393350e-09	2.311180e+01	2.224209e+02
1.170000e-06	3.307885e-06	3.509677e-09	2.369384e+01	2.300637e+02
1.180000e-06	3.387912e-06	3.620585e-09	2.426707e+01	2.373869e+02
1.190000e-06	3.466723e-06	3.725852e-09	2.483158e+01	2.443997e+02
1.200000e-06	3.544361e-06	3.826861e-09	2.538769e+01	2.511136e+02
1.210000e-06	3.620815e-06	3.924735e-09	2.593531e+01	2.575417e+02
1.220000e-06	3.695900e-06	4.017217e-09	2.647313e+01	2.636985e+02
1.230000e-06	3.769354e-06	4.104308e-09	2.699927e+01	2.695991e+02
1.240000e-06	3.841216e-06	4.186917e-09	2.751401e+01	2.752588e+02
1.250000e-06	3.911698e-06	4.268641e-09	2.801886e+01	2.806921e+02
1.260000e-06	3.980883e-06	4.350231e-09	2.851442e+01	2.859127e+02
1.270000e-06	4.048750e-06	4.429648e-09	2.900054e+01	2.909325e+02
1.280000e-06	4.115068e-06	4.504805e-09	2.947557e+01	2.957615e+02
1.290000e-06	4.179692e-06	4.575447e-09	2.993846e+01	3.004074e+02
1.300000e-06	4.242805e-06	4.641480e-09	3.039052e+01	3.048754e+02
1.310000e-06	4.304482e-06	4.704183e-09	3.083231e+01	3.091683e+02
1.320000e-06	4.364785e-06	4.764165e-09	3.126425e+01	3.132871e+02
1.330000e-06	4.423740e-06	4.820433e-09	3.168654e+01	3.172307e+02
1.340000e-06	4.481018e-06	4.873821e-09	3.209681e+01	3.209972e+02
1.350000e-06	4.536499e-06	4.926376e-09	3.249421e+01	3.245844e+02
1.360000e-06	4.590360e-06	4.977771e-09	3.288000e+01	3.279901e+02
1.370000e-06	4.642498e-06	5.025247e-09	3.325346e+01	3.312133e+02
1.380000e-06	4.692658e-06	5.069500e-09	3.361275e+01	3.342544e+02
1.390000e-06	4.740826e-06	5.111578e-09	3.395777e+01	3.371157e+02
1.400000e-06	4.787297e-06	5.150848e-09	3.429063e+01	3.398015e+02
1.410000e-06	4.832281e-06	5.186098e-09	3.461285e+01	3.423183e+02
1.420000e-06	4.875663e-06	5.217178e-09	3.492358e+01	3.446739e+02
1.430000e-06	4.917144e-06	5.247190e-09	3.522071e+01	3.468775e+02
1.440000e-06	4.956805e-06	5.276106e-09	3.550479e+01	3.489388e+02
1.450000e-06	4.994868e-06	5.302619e-09	3.577743e+01	3.508675e+02
1.460000e-06	5.031366e-06	5.328017e-09	3.603886e+01	3.526725e+02
1.470000e-06	5.066078e-06	5.354453e-09	3.628750e+01	3.543617e+02
1.480000e-06	5.098788e-06	5.379824e-09	3.652180e+01	3.559411e+02
1.490000e-06	5.129663e-06	5.401307e-09	3.674295e+01	3.574153e+02
1.500000e-06	5.158914e-06	5.419382e-09	3.695247e+01	3.587868e+02
1.510000e-06	5.186513e-06	5.435958e-09	3.715016e+01	3.600571e+02
1.520000e-06	5.212129e-06	5.452380e-09	3.733364e+01	3.612264e+02
1.530000e-06	5.235670e-06	5.467906e-09	3.750226e+01	3.622945e+02
1.540000e-06	5.257361e-06	5.482112e-09	3.765763e+01	3.632609e+02
1.550000e-06	5.277336e-06	5.495774e-09	3.780071e+01	3.641257e+02
1.560000e-06	5.295503e-06	5.508374e-09	3.793083e+01	3.648899e+02
1.570000e-06	5.311672e-06	5.519066e-09	3.804665e+01	3.655552e+02
1.580000e-06	5.325872e-06	5.528088e-09	3.814836e+01	3.661243e+02
1.590000e-06	5.338100e-06	5.535826e-09	3.823595e+01	3.666009e+02
1.600000e-06	5.348169e-06	5.542655e-09	3.830807e+01	3.669892e+02
1.610000e-06	5.356150e-06	5.548477e-09	3.836523e+01	3.672935e+02
1.620000e-06	5.362248e-06	5.552701e-09	3.840892e+01	3.675180e+02
1.630000e-06	5.366568e-06	5.555783e-09	3.843986e+01	3.676665e+02
1.640000e-06	5.368986e-06	5.558026e-09	3.845718e+01	3.677419e+02
1.650000e-06	5.369380e-06	5.560179e-09	3.846000e+01	3.677463e+02
1.660000e-06	5.367937e-06	5.560754e-09	3.844966e+01	3.676810e+02
1.670000e-06	5.364869e-06	5.557048e-09	3.842769e+01	3.675465e+02
1.680000e-06	5.360202e-06	5.555345e-09	3.839426e+01	3.673432e+02
1.690000e-06	5.353664e-06	5.555311e-09	3.834743e+01	3.670713e+02
1.700000e-06	5.345244e-06	5.554975e-09	3.828712e+01	3.667313e+02
1.710000e-06	5.335251e-06	5.551635e-09	3.821554e+01	3.663243e+02
1.720000e-06	5.323625e-06	5.546240e-09	3.813226e+01	3.658523e+02
1.730000e-06	5.310064e-06	5.542031e-09	3.803513e+01	3.653178e+02
1.740000e-06	5.294435e-06	5.511903e-09	3.792318e+01	3.647242e+02
1.750000e-06	5.276488e-06	5.472321e-09	3.779463e+01	3.640751e+02
1.760000e-06	5.255821e-06	5.482093e-09	3.764660e+01	3.633739e+02
1.770000e-06	5.232785e-06	5.496962e-09	3.748160e+01	3.626238e+02
1.780000e-06	5.208470e-06	5.518653e-09	3.730743e+01	3.618268e+02
1.790000e-06	5.183491e-06	5.512456e-09	3.712851e+01	3.609835e+02
1.800000e-06	5.157157e-06	5.397856e-09	3.693989e+01	3.600932e+02
1.810000e-06	5.128650e-06	5.405142e-09	3.673569e+01	3.591535e+02
1.820000e-06	5.098301e-06	5.422703e-09	3.651830e+01	3.581604e+02
1.830000e-06	5.066268e-06	5.363943e-09	3.628886e+01	3.571087e+02
1.840000e-06	5.032284e-06	5.459034e-09	3.604544e+01	3.559927e+02
1.850000e-06	4.996676e-06	5.457471e-09	3.579038e+01	3.548064e+02
1.860000e-06	4.959344e-06	5.384042e-09	3.552298e+01	3.535440e+02
1.870000e-06	4.920067e-06	5.445502e-09	3.524165e+01	3.522008e+02
1.880000e-06	4.879132e-06	5.369905e-09	3.494843e+01	3.507734e+02
1.890000e-06	4.836411e-06	5.305528e-09	3.464243e+01	3.492598e+02
1.900000e-06	4.792087e-06	5.307454e-09	3.432494e+01	3.476596e+02
1.910000e-06	4.746037e-06	5.255735e-09	3.399510e+01	3.459739e+02
1.920000e-06	4.697897e-06	5.321469e-09	3.365028e+01	3.442048e+02
1.930000e-06	4.648121e-06	5.254467e-09	3.329374e+01	3.423552e+02
1.940000e-06	4.596734e-06	5.174298e-09	3.292566e+01	3.404280e+02
1.950000e-06	4.543259e-06	5.205218e-09	3.254263e+01	3.384259e+02
1.960000e-06	4.487754e-06	5.125380e-09	3.214505e+01	3.363511e+02
1.970000e-06	4.430575e-06	5.109116e-09	3.173549e+01	3.342047e+02
1.980000e-06	4.371987e-06	5.099813e-09	3.131584e+01	3.319865e+02
1.990000e-06	4.311985e-06	5.065786e-09	3.088605e+01	3.296956e+02
2.000000e-06	4.250318e-06	5.025548e-09	3.044434e+01	3.273301e+02
2.010000e-06	4.186994e-06	4.939280e-09	2.999076e+01	3.248875e+02
2.020000e-06	4.122156e-06	4.954051e-09	2.952634e+01	3.223652e+02
2.030000e-06	4.055863e-06	4.913612e-09	2.905149e+01	3.197606e+02
2.040000e-06	3.988214e-06	4.860229e-09	2.856693e+01	3.170717e+02
2.050000e-06	3.919168e-06	4.833472e-09	2.807237e+01	3.142972e+02
2.060000e-06	3.848548e-06	4.769857e-09	2.756652e+01	3.114366e+02
2.070000e-06	3.776478e-06	4.739991e-09	2.705030e+01	3.084899e+02
2.080000e-06	3.703123e-06	4.668706e-09	2.652487e+01	3.054580e+02
2.090000e-06	3.628445e-06	4.630352e-09	2.598997e+01	3.023419e+02
2.100000e-06	3.552398e-06	4.582927e-09	2.544525e+01	2.991424e+02
2.110000e-06	3.474752e-06	4.516319e-09	2.488909e+01	2.958604e+02
2.120000e-06	3.395608e-06	4.480691e-09	2.432219e+01	2.924958e+02
2.130000e-06	3.315345e-06	4.432672e-09	2.374728e+01	2.890481e+02
2.140000e-06	3.234021e-06	4.395903e-09	2.316477e+01	2.855156e+02
2.150000e-06	3.151598e-06	4.323135e-09	2.257439e+01	2.818961e+02
2.160000e-06	3.068107e-06	4.258133e-09	2.197635e+01	2.781868e+02
2.170000e-06	2.983644e-06	4.203084e-09	2.137136e+01	2.743845e+02
2.180000e-06	2.897923e-06	4.153597e-09	2.075736e+01	2.704860e+02
2.190000e-06	2.810855e-06	4.104149e-09	2.013370e+01	2.664883e+02
2.200000e-06	2.722804e-06	4.026938e-09	1.950301e+01	2.623891e+02
2.210000e-06	2.633844e-06	3.957348e-09	1.886580e+01	2.581866e+02
2.220000e-06	2.543960e-06	3.888041e-09	1.822197e+01	2.538798e+02
2.230000e-06	2.453209e-06	3.828166e-09	1.757194e+01	2.494684e+02
2.240000e-06	2.361716e-06	3.768275e-09	1.691659e+01	2.449528e+02
2.250000e-06	2.269574e-06	3.705059e-09	1.625659e+01	2.403335e+02
2.260000e-06	2.176698e-06	3.628823e-09	1.559133e+01	2.356111e+02
2.270000e-06	2.082801e-06	3.540126e-09	1.491877e+01	2.307861e+02
2.280000e-06	1.987741e-06	3.460068e-09	1.423787e+01	2.258585e+02
2.290000e-06	1.891889e-06	3.389436e-09	1.355130e+01	2.208277e+02
2.300000e-06	1.795581e-06	3.316495e-09	1.286146e+01	2.156923e+02
2.310000e-06	1.698804e-06	3.230116e-09	1.216826e+01	2.104505e+02
2.320000e-06	1.601465e-06	3.147948e-09	1.147104e+01	2.050998e+02
2.330000e-06	1.503533e-06	3.071949e-09	1.076956e+01	1.996373e+02
2.340000e-06	1.405091e-06	2.992593e-09	1.006444e+01	1.940601e+02
2.350000e-06	1.306168e-06	2.904434e-09	9.355874e+00	1.883653e+02
2.360000e-06	1.206875e-06	2.811576e-09	8.644652e+00	1.825501e+02
2.370000e-06	1.107387e-06	2.717524e-09	7.932033e+00	1.766123e+02
2.380000e-06	1.007642e-06	2.624653e-09	7.217579e+00	1.705498e+02
2.390000e-06	9.075636e-07	2.537812e-09	6.500731e+00	1.643608e+02
2.400000e-06	8.071887e-07	2.449235e-09	5.781763e+00	1.580439e+02
2.410000e-06	7.065445e-07	2.347342e-09	5.060864e+00	1.515975e+02
2.420000e-06	6.057135e-07	2.233691e-09	4.338628e+00	1.450196e+02
2.430000e-06	5.046924e-07	2.125307e-09	3.615030e+00	1.383078e+02
2.440000e-06	4.034555e-07	2.026749e-09	2.889887e+00	1.314591e+02
2.450000e-06	3.019862e-07	1.927872e-09	2.163079e+00	1.244694e+02
2.460000e-06	2.003250e-07	1.819306e-09	1.434896e+00	1.173336e+02
2.470000e-06	9.857670e-08	1.702683e-09	7.060890e-01	1.100457e+02
2.480000e-06	-3.254107e-09	1.583393e-09	-2.330864e-02	1.025988e+02
2.490000e-06	-1.051342e-07	1.465954e-09	-7.530590e-01	9.498503e+01
2.500000e-06	-2.069732e-07	1.351048e-09	-1.482516e+00	8.719602e+01
2.510000e-06	-3.086931e-07	1.234585e-09	-2.211119e+00	7.922306e+01
2.520000e-06	-4.102490e-07	1.110801e-09	-2.938547e+00	7.105743e+01
2.530000e-06	-5.116613e-07	9.781114e-10	-3.664947e+00	6.269071e+01
2.540000e-06	-6.129068e-07	8.438861e-10	-4.390152e+00	5.411516e+01
2.550000e-06	-7.138614e-07	7.119310e-10	-5.113274e+00	4.532414e+01
2.560000e-06	-8.145252e-07	5.767294e-10	-5.834313e+00	3.631249e+01
2.570000e-06	-9.148820e-07	4.325313e-10	-6.553152e+00	2.707701e+01
2.580000e-06	-1.014909e-06	2.839485e-10	-7.269628e+00	1.761690e+01
2.590000e-06	-1.114634e-06	1.379207e-10	-7.983945e+00	7.934252e+00
2.600000e-06	-1.214032e-06	-7.391595e-12	-8.695915e+00	-1.965522e+00
2.610000e-06	-1.313019e-06	-1.581498e-10	-9.404944e+00	-1.207324e+01
2.620000e-06	-1.411521e-06	-3.144443e-10	-1.011050e+01	-2.237564e+01
2.630000e-06	-1.509473e-06	-4.752090e-10	-1.081211e+01	-3.285508e+01
2.640000e-06	-1.606910e-06	-6.379093e-10	-1.151004e+01	-4.348953e+01
2.650000e-06	-1.703853e-06	-8.012173e-10	-1.220442e+01	-5.425255e+01
2.660000e-06	-1.800279e-06	-9.654994e-10	-1.289511e+01	-6.511365e+01
2.670000e-06	-1.896200e-06	-1.130681e-09	-1.358217e+01	-7.603869e+01
2.680000e-06	-1.991487e-06	-1.299855e-09	-1.426470e+01	-8.699061e+01
2.690000e-06	-2.085896e-06	-1.468283e-09	-1.494093e+01	-9.793021e+01
2.700000e-06	-2.179293e-06	-1.632510e-09	-1.560992e+01	-1.088171e+02
2.710000e-06	-2.271804e-06	-1.792530e-09	-1.627257e+01	-1.196109e+02
2.720000e-06	-2.363498e-06	-1.953000e-09	-1.692936e+01	-1.302720e+02
2.730000e-06	-2.454358e-06	-2.114031e-09	-1.758017e+01	-1.407629e+02
2.740000e-06	-2.544307e-06	-2.269730e-09	-1.822446e+01	-1.510486e+02
2.750000e-06	-2.633353e-06	-2.420906e-09	-1.886228e+01	-1.610980e+02
2.760000e-06	-2.721605e-06	-2.569567e-09	-1.949442e+01	-1.708842e+02
2.770000e-06	-2.809051e-06	-2.717395e-09	-2.012078e+01	-1.803846e+02
2.780000e-06	-2.895463e-06	-2.861948e-09	-2.073973e+01	-1.895815e+02
2.790000e-06	-2.980662e-06	-2.999246e-09	-2.135000e+01	-1.984620e+02
2.800000e-06	-3.064709e-06	-3.129245e-09	-2.195202e+01	-2.070177e+02
2.810000e-06	-3.147744e-06	-3.253998e-09	-2.254678e+01	-2.152448e+02
2.820000e-06	-3.229777e-06	-3.374582e-09	-2.313437e+01	-2.231434e+02
2.830000e-06	-3.310748e-06	-3.492074e-09	-2.371436e+01	-2.307172e+02
2.840000e-06	-3.390663e-06	-3.607630e-09	-2.428677e+01	-2.379733e+02
2.850000e-06	-3.469356e-06	-3.717991e-09	-2.485044e+01	-2.449212e+02
2.860000e-06	-3.546537e-06	-3.819735e-09	-2.540327e+01	-2.515728e+02
2.870000e-06	-3.622210e-06	-3.916075e-09	-2.594531e+01	-2.579417e+02
2.880000e-06	-3.696540e-06	-4.009929e-09	-2.647772e+01	-2.640425e+02
2.890000e-06	-3.769562e-06	-4.099731e-09	-2.700076e+01	-2.698904e+02
2.900000e-06	-3.841276e-06	-4.184736e-09	-2.751444e+01	-2.755005e+02
2.910000e-06	-3.911563e-06	-4.266768e-09	-2.801790e+01	-2.808873e+02
2.920000e-06	-3.980276e-06	-4.347292e-09	-2.851008e+01	-2.860641e+02
2.930000e-06	-4.047543e-06	-4.425038e-09	-2.899190e+01	-2.910424e+02
2.940000e-06	-4.113456e-06	-4.498422e-09	-2.946402e+01	-2.958318e+02
