# Temperatura_=_39.43
# Concentracion g/m^3_=_15000.0
# C_Vs_to_Am_M_A/Vsm_=_65563218390.804596
# pendiente_HvsI_1/m_=_3716.3
# ordenada_HvsI_A/m_=_1297.0
# frecuencia_Hz_=_301593.7879225479

Tiempo_(s)	Campo_(V.s)	Magnetizacion_(V.s)	Campo_(kA/m)	Magnetizacion_(A/m)
0.000000e+00	-5.393707e-06	-5.961142e-09	-3.834064e+01	-3.894811e+02
1.000000e-08	-5.391161e-06	-5.957270e-09	-3.832254e+01	-3.893170e+02
2.000000e-08	-5.386780e-06	-5.948630e-09	-3.829140e+01	-3.890816e+02
3.000000e-08	-5.380743e-06	-5.941835e-09	-3.824848e+01	-3.887725e+02
4.000000e-08	-5.373109e-06	-5.936064e-09	-3.819422e+01	-3.883880e+02
5.000000e-08	-5.363647e-06	-5.928147e-09	-3.812696e+01	-3.879273e+02
6.000000e-08	-5.352094e-06	-5.918860e-09	-3.804484e+01	-3.873907e+02
7.000000e-08	-5.338670e-06	-5.903741e-09	-3.794942e+01	-3.867805e+02
8.000000e-08	-5.323221e-06	-5.898935e-09	-3.783959e+01	-3.861004e+02
9.000000e-08	-5.305488e-06	-5.943095e-09	-3.771355e+01	-3.853555e+02
1.000000e-07	-5.285663e-06	-5.932127e-09	-3.757262e+01	-3.845515e+02
1.100000e-07	-5.263961e-06	-5.875515e-09	-3.741835e+01	-3.836943e+02
1.200000e-07	-5.240525e-06	-5.856836e-09	-3.725176e+01	-3.827891e+02
1.300000e-07	-5.215486e-06	-5.758171e-09	-3.707378e+01	-3.818397e+02
1.400000e-07	-5.188867e-06	-5.754560e-09	-3.688456e+01	-3.808480e+02
1.500000e-07	-5.160647e-06	-5.890697e-09	-3.668395e+01	-3.798136e+02
1.600000e-07	-5.130933e-06	-5.764521e-09	-3.647274e+01	-3.787336e+02
1.700000e-07	-5.099675e-06	-5.755306e-09	-3.625054e+01	-3.776031e+02
1.800000e-07	-5.066301e-06	-5.827815e-09	-3.601331e+01	-3.764155e+02
1.900000e-07	-5.031005e-06	-5.653050e-09	-3.576241e+01	-3.751630e+02
2.000000e-07	-4.994291e-06	-5.692389e-09	-3.550143e+01	-3.738376e+02
2.100000e-07	-4.955841e-06	-5.738405e-09	-3.522811e+01	-3.724320e+02
2.200000e-07	-4.915583e-06	-5.622862e-09	-3.494194e+01	-3.709397e+02
2.300000e-07	-4.873387e-06	-5.625874e-09	-3.464200e+01	-3.693563e+02
2.400000e-07	-4.829228e-06	-5.599091e-09	-3.432809e+01	-3.676794e+02
2.500000e-07	-4.783297e-06	-5.563448e-09	-3.400160e+01	-3.659086e+02
2.600000e-07	-4.735471e-06	-5.576044e-09	-3.366164e+01	-3.640453e+02
2.700000e-07	-4.685584e-06	-5.517024e-09	-3.330701e+01	-3.620928e+02
2.800000e-07	-4.633615e-06	-5.505983e-09	-3.293760e+01	-3.600548e+02
2.900000e-07	-4.579775e-06	-5.459168e-09	-3.255488e+01	-3.579358e+02
3.000000e-07	-4.524378e-06	-5.391418e-09	-3.216110e+01	-3.557397e+02
3.100000e-07	-4.467362e-06	-5.389155e-09	-3.175581e+01	-3.534696e+02
3.200000e-07	-4.408501e-06	-5.382480e-09	-3.133740e+01	-3.511274e+02
3.300000e-07	-4.348024e-06	-5.333973e-09	-3.090751e+01	-3.487138e+02
3.400000e-07	-4.286122e-06	-5.251474e-09	-3.046748e+01	-3.462279e+02
3.500000e-07	-4.222809e-06	-5.230009e-09	-3.001743e+01	-3.436677e+02
3.600000e-07	-4.157952e-06	-5.211424e-09	-2.955640e+01	-3.410303e+02
3.700000e-07	-4.091426e-06	-5.165159e-09	-2.908350e+01	-3.383121e+02
3.800000e-07	-4.023356e-06	-5.132749e-09	-2.859964e+01	-3.355097e+02
3.900000e-07	-3.953904e-06	-5.075874e-09	-2.810594e+01	-3.326197e+02
4.000000e-07	-3.883195e-06	-5.014350e-09	-2.760331e+01	-3.296393e+02
4.100000e-07	-3.811252e-06	-4.958509e-09	-2.709191e+01	-3.265663e+02
4.200000e-07	-3.737849e-06	-4.924565e-09	-2.657013e+01	-3.233991e+02
4.300000e-07	-3.662812e-06	-4.892532e-09	-2.603674e+01	-3.201367e+02
4.400000e-07	-3.586282e-06	-4.835757e-09	-2.549274e+01	-3.167785e+02
4.500000e-07	-3.508363e-06	-4.776906e-09	-2.493886e+01	-3.133239e+02
4.600000e-07	-3.429066e-06	-4.719937e-09	-2.437518e+01	-3.097726e+02
4.700000e-07	-3.348461e-06	-4.673156e-09	-2.380221e+01	-3.061237e+02
4.800000e-07	-3.266642e-06	-4.619565e-09	-2.322061e+01	-3.023762e+02
4.900000e-07	-3.183714e-06	-4.549763e-09	-2.263112e+01	-2.985287e+02
5.000000e-07	-3.099781e-06	-4.484406e-09	-2.203449e+01	-2.945796e+02
5.100000e-07	-3.014916e-06	-4.420333e-09	-2.143123e+01	-2.905271e+02
5.200000e-07	-2.929093e-06	-4.360322e-09	-2.082117e+01	-2.863693e+02
5.300000e-07	-2.842268e-06	-4.301103e-09	-2.020398e+01	-2.821046e+02
5.400000e-07	-2.754453e-06	-4.237523e-09	-1.957976e+01	-2.777319e+02
5.500000e-07	-2.665609e-06	-4.165938e-09	-1.894822e+01	-2.732502e+02
5.600000e-07	-2.575649e-06	-4.083902e-09	-1.830875e+01	-2.686592e+02
5.700000e-07	-2.484657e-06	-4.010781e-09	-1.766195e+01	-2.639589e+02
5.800000e-07	-2.392771e-06	-3.948806e-09	-1.700878e+01	-2.591495e+02
5.900000e-07	-2.300050e-06	-3.881624e-09	-1.634968e+01	-2.542314e+02
6.000000e-07	-2.206540e-06	-3.796669e-09	-1.568497e+01	-2.492049e+02
6.100000e-07	-2.112260e-06	-3.711003e-09	-1.501479e+01	-2.440697e+02
6.200000e-07	-2.017249e-06	-3.631175e-09	-1.433942e+01	-2.388255e+02
6.300000e-07	-1.921536e-06	-3.549719e-09	-1.365905e+01	-2.334711e+02
6.400000e-07	-1.825054e-06	-3.469459e-09	-1.297322e+01	-2.280048e+02
6.500000e-07	-1.727740e-06	-3.389358e-09	-1.228147e+01	-2.224243e+02
6.600000e-07	-1.629670e-06	-3.303728e-09	-1.158435e+01	-2.167270e+02
6.700000e-07	-1.531003e-06	-3.206200e-09	-1.088299e+01	-2.109099e+02
6.800000e-07	-1.431857e-06	-3.109699e-09	-1.017822e+01	-2.049697e+02
6.900000e-07	-1.332269e-06	-3.019468e-09	-9.470301e+00	-1.989034e+02
7.000000e-07	-1.232232e-06	-2.927561e-09	-8.759198e+00	-1.927077e+02
7.100000e-07	-1.131797e-06	-2.830084e-09	-8.045269e+00	-1.863797e+02
7.200000e-07	-1.031038e-06	-2.728832e-09	-7.329036e+00	-1.799165e+02
7.300000e-07	-9.300107e-07	-2.627644e-09	-6.610891e+00	-1.733152e+02
7.400000e-07	-8.287426e-07	-2.525638e-09	-5.891036e+00	-1.665727e+02
7.500000e-07	-7.271400e-07	-2.422698e-09	-5.168804e+00	-1.596860e+02
7.600000e-07	-6.251678e-07	-2.315201e-09	-4.443945e+00	-1.526514e+02
7.700000e-07	-5.229577e-07	-2.203385e-09	-3.717394e+00	-1.454647e+02
7.800000e-07	-4.206101e-07	-2.089101e-09	-2.989866e+00	-1.381210e+02
7.900000e-07	-3.181343e-07	-1.975080e-09	-2.261427e+00	-1.306147e+02
8.000000e-07	-2.155565e-07	-1.860652e-09	-1.532263e+00	-1.229393e+02
8.100000e-07	-1.129161e-07	-1.743390e-09	-8.026532e-01	-1.150876e+02
8.200000e-07	-1.022666e-08	-1.620045e-09	-7.269519e-02	-1.070515e+02
8.300000e-07	9.250520e-08	-1.488913e-09	6.575642e-01	-9.882230e+01
8.400000e-07	1.952104e-07	-1.356789e-09	1.387634e+00	-9.039095e+01
8.500000e-07	2.978771e-07	-1.227417e-09	2.117431e+00	-8.174797e+01
8.600000e-07	4.004620e-07	-1.096039e-09	2.846645e+00	-7.288395e+01
8.700000e-07	5.029376e-07	-9.551455e-10	3.575083e+00	-6.378978e+01
8.800000e-07	6.053036e-07	-8.091968e-10	4.302741e+00	-5.445709e+01
8.900000e-07	7.074455e-07	-6.603669e-10	5.028808e+00	-4.487879e+01
9.000000e-07	8.092860e-07	-5.078057e-10	5.752731e+00	-3.504954e+01
9.100000e-07	9.108321e-07	-3.525137e-10	6.474561e+00	-2.496652e+01
9.200000e-07	1.012101e-06	-1.948110e-10	7.194420e+00	-1.463003e+01
9.300000e-07	1.113016e-06	-3.292992e-11	7.911768e+00	-4.044232e+00
9.400000e-07	1.213551e-06	1.352909e-10	8.626411e+00	6.782194e+00
9.500000e-07	1.313733e-06	3.049931e-10	9.338540e+00	1.783549e+01
9.600000e-07	1.413500e-06	4.733232e-10	1.004773e+01	2.909644e+01
9.700000e-07	1.512723e-06	6.441483e-10	1.075304e+01	4.054019e+01
9.800000e-07	1.611313e-06	8.209452e-10	1.145386e+01	5.213632e+01
9.900000e-07	1.709159e-06	1.001974e-09	1.214939e+01	6.384930e+01
1.000000e-06	1.806195e-06	1.182270e-09	1.283916e+01	7.563911e+01
1.010000e-06	1.902398e-06	1.361516e-09	1.352301e+01	8.746228e+01
1.020000e-06	1.997836e-06	1.539851e-09	1.420143e+01	9.927302e+01
1.030000e-06	2.092644e-06	1.717847e-09	1.487535e+01	1.110246e+02
1.040000e-06	2.186735e-06	1.895674e-09	1.554419e+01	1.226708e+02
1.050000e-06	2.280059e-06	2.071885e-09	1.620758e+01	1.341671e+02
1.060000e-06	2.372708e-06	2.245410e-09	1.686616e+01	1.454722e+02
1.070000e-06	2.464682e-06	2.412830e-09	1.751995e+01	1.565486e+02
1.080000e-06	2.555863e-06	2.575700e-09	1.816810e+01	1.673637e+02
1.090000e-06	2.646013e-06	2.737292e-09	1.880893e+01	1.778903e+02
1.100000e-06	2.734939e-06	2.895211e-09	1.944105e+01	1.881064e+02
1.110000e-06	2.822780e-06	3.045304e-09	2.006546e+01	1.979953e+02
1.120000e-06	2.909731e-06	3.188614e-09	2.068354e+01	2.075452e+02
1.130000e-06	2.995745e-06	3.328125e-09	2.129496e+01	2.167488e+02
1.140000e-06	3.080784e-06	3.463602e-09	2.189945e+01	2.256027e+02
1.150000e-06	3.164911e-06	3.593504e-09	2.249746e+01	2.341070e+02
1.160000e-06	3.248106e-06	3.717662e-09	2.308885e+01	2.422646e+02
1.170000e-06	3.330200e-06	3.834179e-09	2.367240e+01	2.500811e+02
1.180000e-06	3.411022e-06	3.944913e-09	2.424691e+01	2.575644e+02
1.190000e-06	3.490597e-06	4.052248e-09	2.481257e+01	2.647242e+02
1.200000e-06	3.568915e-06	4.156304e-09	2.536928e+01	2.715726e+02
1.210000e-06	3.645954e-06	4.257985e-09	2.591691e+01	2.781229e+02
1.220000e-06	3.721702e-06	4.353429e-09	2.645536e+01	2.843902e+02
1.230000e-06	3.795830e-06	4.441815e-09	2.698229e+01	2.903905e+02
1.240000e-06	3.868289e-06	4.525994e-09	2.749736e+01	2.961407e+02
1.250000e-06	3.939353e-06	4.610335e-09	2.800251e+01	3.016573e+02
1.260000e-06	4.009050e-06	4.694381e-09	2.849794e+01	3.069565e+02
1.270000e-06	4.077443e-06	4.772644e-09	2.898410e+01	3.120529e+02
1.280000e-06	4.144426e-06	4.845283e-09	2.946025e+01	3.169591e+02
1.290000e-06	4.209655e-06	4.915291e-09	2.992392e+01	3.216850e+02
1.300000e-06	4.273240e-06	4.983744e-09	3.037591e+01	3.262376e+02
1.310000e-06	4.335425e-06	5.051052e-09	3.081794e+01	3.306206e+02
1.320000e-06	4.396226e-06	5.117316e-09	3.125014e+01	3.348349e+02
1.330000e-06	4.455722e-06	5.179920e-09	3.167306e+01	3.388790e+02
1.340000e-06	4.513484e-06	5.237806e-09	3.208366e+01	3.427496e+02
1.350000e-06	4.569372e-06	5.292460e-09	3.248094e+01	3.464424e+02
1.360000e-06	4.623650e-06	5.343780e-09	3.286676e+01	3.499536e+02
1.370000e-06	4.676229e-06	5.389188e-09	3.324052e+01	3.532800e+02
1.380000e-06	4.726929e-06	5.431130e-09	3.360092e+01	3.564206e+02
1.390000e-06	4.775581e-06	5.474227e-09	3.394675e+01	3.593767e+02
1.400000e-06	4.822432e-06	5.517140e-09	3.427979e+01	3.621523e+02
1.410000e-06	4.867671e-06	5.557596e-09	3.460137e+01	3.647537e+02
1.420000e-06	4.911404e-06	5.595585e-09	3.491223e+01	3.671898e+02
1.430000e-06	4.953325e-06	5.629587e-09	3.521023e+01	3.694707e+02
1.440000e-06	4.993291e-06	5.659290e-09	3.549432e+01	3.716071e+02
1.450000e-06	5.031597e-06	5.686348e-09	3.576661e+01	3.736096e+02
1.460000e-06	5.068307e-06	5.712266e-09	3.602756e+01	3.754876e+02
1.470000e-06	5.103384e-06	5.737549e-09	3.627691e+01	3.772486e+02
1.480000e-06	5.136493e-06	5.762088e-09	3.651226e+01	3.788980e+02
1.490000e-06	5.167702e-06	5.785491e-09	3.673410e+01	3.804388e+02
1.500000e-06	5.197266e-06	5.806091e-09	3.694426e+01	3.818716e+02
1.510000e-06	5.225160e-06	5.824344e-09	3.714254e+01	3.831955e+02
1.520000e-06	5.251050e-06	5.842279e-09	3.732658e+01	3.844085e+02
1.530000e-06	5.274815e-06	5.860930e-09	3.749551e+01	3.855083e+02
1.540000e-06	5.296720e-06	5.877821e-09	3.765122e+01	3.864932e+02
1.550000e-06	5.316941e-06	5.890178e-09	3.779496e+01	3.873625e+02
1.560000e-06	5.335315e-06	5.900344e-09	3.792557e+01	3.881173e+02
1.570000e-06	5.351625e-06	5.910048e-09	3.804151e+01	3.887606e+02
1.580000e-06	5.366009e-06	5.917962e-09	3.814375e+01	3.892970e+02
1.590000e-06	5.378482e-06	5.924912e-09	3.823241e+01	3.897326e+02
1.600000e-06	5.388758e-06	5.931385e-09	3.830546e+01	3.900744e+02
1.610000e-06	5.396867e-06	5.937730e-09	3.836310e+01	3.903293e+02
1.620000e-06	5.403079e-06	5.943572e-09	3.840726e+01	3.905039e+02
1.630000e-06	5.407528e-06	5.948498e-09	3.843889e+01	3.906036e+02
1.640000e-06	5.410051e-06	5.951498e-09	3.845682e+01	3.906321e+02
1.650000e-06	5.410498e-06	5.953820e-09	3.846000e+01	3.905915e+02
1.660000e-06	5.409125e-06	5.950987e-09	3.845024e+01	3.904820e+02
1.670000e-06	5.406121e-06	5.943342e-09	3.842889e+01	3.903026e+02
1.680000e-06	5.401479e-06	5.939387e-09	3.839589e+01	3.900513e+02
1.690000e-06	5.394920e-06	5.936359e-09	3.834926e+01	3.897259e+02
1.700000e-06	5.386510e-06	5.933031e-09	3.828948e+01	3.893248e+02
1.710000e-06	5.376544e-06	5.930716e-09	3.821864e+01	3.888474e+02
1.720000e-06	5.364872e-06	5.932395e-09	3.813567e+01	3.882946e+02
1.730000e-06	5.351241e-06	5.940311e-09	3.803878e+01	3.876687e+02
1.740000e-06	5.335574e-06	5.862224e-09	3.792741e+01	3.869740e+02
1.750000e-06	5.317587e-06	5.830686e-09	3.779955e+01	3.862156e+02
1.760000e-06	5.296846e-06	5.860645e-09	3.765211e+01	3.853995e+02
1.770000e-06	5.273768e-06	5.843824e-09	3.748806e+01	3.845313e+02
1.780000e-06	5.249319e-06	5.948994e-09	3.731428e+01	3.836161e+02
1.790000e-06	5.224198e-06	5.878553e-09	3.713570e+01	3.826573e+02
1.800000e-06	5.197859e-06	5.715194e-09	3.694848e+01	3.816563e+02
1.810000e-06	5.169126e-06	5.857032e-09	3.674423e+01	3.806121e+02
1.820000e-06	5.138512e-06	5.758187e-09	3.652661e+01	3.795215e+02
1.830000e-06	5.106415e-06	5.679066e-09	3.629845e+01	3.783791e+02
1.840000e-06	5.072323e-06	5.861346e-09	3.605612e+01	3.771780e+02
1.850000e-06	5.036605e-06	5.703785e-09	3.580222e+01	3.759103e+02
1.860000e-06	4.999123e-06	5.665885e-09	3.553578e+01	3.745680e+02
1.870000e-06	4.959686e-06	5.752235e-09	3.525544e+01	3.731440e+02
1.880000e-06	4.918636e-06	5.604625e-09	3.496364e+01	3.716322e+02
1.890000e-06	4.875712e-06	5.661126e-09	3.465853e+01	3.700286e+02
1.900000e-06	4.831047e-06	5.612698e-09	3.434102e+01	3.683313e+02
1.910000e-06	4.784685e-06	5.543196e-09	3.401147e+01	3.665402e+02
1.920000e-06	4.736303e-06	5.622601e-09	3.366755e+01	3.646572e+02
1.930000e-06	4.686258e-06	5.447959e-09	3.331181e+01	3.626857e+02
1.940000e-06	4.634484e-06	5.486445e-09	3.294378e+01	3.606298e+02
1.950000e-06	4.580592e-06	5.531210e-09	3.256069e+01	3.584936e+02
1.960000e-06	4.524793e-06	5.400326e-09	3.216405e+01	3.562811e+02
1.970000e-06	4.467267e-06	5.376455e-09	3.175514e+01	3.539952e+02
1.980000e-06	4.408293e-06	5.310575e-09	3.133592e+01	3.516375e+02
1.990000e-06	4.347844e-06	5.347524e-09	3.090622e+01	3.492082e+02
2.000000e-06	4.285651e-06	5.297703e-09	3.046413e+01	3.467063e+02
2.010000e-06	4.221892e-06	5.215787e-09	3.001091e+01	3.441295e+02
2.020000e-06	4.156661e-06	5.236474e-09	2.954722e+01	3.414748e+02
2.030000e-06	4.089984e-06	5.128035e-09	2.907325e+01	3.387386e+02
2.040000e-06	4.021846e-06	5.092590e-09	2.858890e+01	3.359174e+02
2.050000e-06	3.952162e-06	5.068711e-09	2.809356e+01	3.330080e+02
2.060000e-06	3.881010e-06	5.047964e-09	2.758778e+01	3.300076e+02
2.070000e-06	3.808495e-06	5.005632e-09	2.707232e+01	3.269143e+02
2.080000e-06	3.734704e-06	4.892236e-09	2.654778e+01	3.237265e+02
2.090000e-06	3.659541e-06	4.869442e-09	2.601349e+01	3.204433e+02
2.100000e-06	3.582853e-06	4.826162e-09	2.546836e+01	3.170641e+02
2.110000e-06	3.504594e-06	4.784958e-09	2.491206e+01	3.135886e+02
2.120000e-06	3.424991e-06	4.723626e-09	2.434622e+01	3.100162e+02
2.130000e-06	3.344283e-06	4.662276e-09	2.377251e+01	3.063460e+02
2.140000e-06	3.262407e-06	4.620180e-09	2.319050e+01	3.025769e+02
2.150000e-06	3.179464e-06	4.539960e-09	2.260091e+01	2.987075e+02
2.160000e-06	3.095565e-06	4.495325e-09	2.200452e+01	2.947361e+02
2.170000e-06	3.010445e-06	4.441401e-09	2.139945e+01	2.906609e+02
2.180000e-06	2.923990e-06	4.371782e-09	2.078490e+01	2.864800e+02
2.190000e-06	2.836405e-06	4.284766e-09	2.016231e+01	2.821920e+02
2.200000e-06	2.747802e-06	4.214978e-09	1.953249e+01	2.777957e+02
2.210000e-06	2.658257e-06	4.176491e-09	1.889596e+01	2.732903e+02
2.220000e-06	2.567837e-06	4.112684e-09	1.825322e+01	2.686756e+02
2.230000e-06	2.476637e-06	4.027441e-09	1.760494e+01	2.639516e+02
2.240000e-06	2.384693e-06	3.940852e-09	1.695136e+01	2.591186e+02
2.250000e-06	2.291833e-06	3.873060e-09	1.629127e+01	2.541770e+02
2.260000e-06	2.198049e-06	3.798379e-09	1.562462e+01	2.491269e+02
2.270000e-06	2.103393e-06	3.723971e-09	1.495176e+01	2.439682e+02
2.280000e-06	2.007819e-06	3.647756e-09	1.427239e+01	2.387002e+02
2.290000e-06	1.911430e-06	3.558876e-09	1.358721e+01	2.333217e+02
2.300000e-06	1.814465e-06	3.462474e-09	1.289795e+01	2.278308e+02
2.310000e-06	1.717034e-06	3.373801e-09	1.220537e+01	2.222253e+02
2.320000e-06	1.619001e-06	3.304032e-09	1.150851e+01	2.165023e+02
2.330000e-06	1.520384e-06	3.225898e-09	1.080750e+01	2.106588e+02
2.340000e-06	1.421342e-06	3.129719e-09	1.010347e+01	2.046916e+02
2.350000e-06	1.321971e-06	3.025863e-09	9.397102e+00	1.985975e+02
2.360000e-06	1.222259e-06	2.930066e-09	8.688310e+00	1.923734e+02
2.370000e-06	1.122230e-06	2.837328e-09	7.977262e+00	1.860164e+02
2.380000e-06	1.021882e-06	2.740738e-09	7.263949e+00	1.795236e+02
2.390000e-06	9.210564e-07	2.638783e-09	6.547240e+00	1.728920e+02
2.400000e-06	8.196941e-07	2.531665e-09	5.826715e+00	1.661186e+02
2.410000e-06	7.179008e-07	2.425153e-09	5.103128e+00	1.592003e+02
2.420000e-06	6.159441e-07	2.319235e-09	4.378379e+00	1.521331e+02
2.430000e-06	5.138527e-07	2.214638e-09	3.652672e+00	1.449129e+02
2.440000e-06	4.114692e-07	2.105028e-09	2.924889e+00	1.375346e+02
2.450000e-06	3.088819e-07	1.983826e-09	2.195657e+00	1.299924e+02
2.460000e-06	2.061539e-07	1.857438e-09	1.465425e+00	1.222796e+02
2.470000e-06	1.033438e-07	1.738800e-09	7.346097e-01	1.143887e+02
2.480000e-06	5.916223e-10	1.624250e-09	4.205489e-03	1.063117e+02
2.490000e-06	-1.021819e-07	1.501258e-09	-7.263502e-01	9.803975e+01
2.500000e-06	-2.050111e-07	1.367665e-09	-1.457301e+00	8.956357e+01
2.510000e-06	-3.077673e-07	1.231595e-09	-2.187734e+00	8.087373e+01
2.520000e-06	-4.104182e-07	1.098003e-09	-2.917418e+00	7.196086e+01
2.530000e-06	-5.129290e-07	9.619653e-10	-3.646106e+00	6.281596e+01
2.540000e-06	-6.152763e-07	8.230232e-10	-4.373632e+00	5.343091e+01
2.550000e-06	-7.174244e-07	6.798617e-10	-5.099742e+00	4.379892e+01
2.560000e-06	-8.191934e-07	5.272581e-10	-5.823157e+00	3.391516e+01
2.570000e-06	-9.204875e-07	3.677309e-10	-6.543196e+00	2.377739e+01
2.580000e-06	-1.021329e-06	2.094309e-10	-7.260016e+00	1.338670e+01
2.590000e-06	-1.121692e-06	5.369329e-11	-7.973437e+00	2.748163e+00
2.600000e-06	-1.221647e-06	-1.091823e-10	-8.683957e+00	-8.128500e+00
2.610000e-06	-1.321212e-06	-2.815165e-10	-9.391710e+00	-1.922839e+01
2.620000e-06	-1.420337e-06	-4.548486e-10	-1.009633e+01	-3.053108e+01
2.630000e-06	-1.519036e-06	-6.282321e-10	-1.079792e+01	-4.201050e+01
2.640000e-06	-1.617230e-06	-8.044113e-10	-1.149592e+01	-5.363511e+01
2.650000e-06	-1.714795e-06	-9.827932e-10	-1.218946e+01	-6.536833e+01
2.660000e-06	-1.811740e-06	-1.163013e-09	-1.287857e+01	-7.716933e+01
2.670000e-06	-1.908137e-06	-1.346161e-09	-1.356381e+01	-8.899403e+01
2.680000e-06	-2.004008e-06	-1.529862e-09	-1.424530e+01	-1.007963e+02
2.690000e-06	-2.099210e-06	-1.709279e-09	-1.492203e+01	-1.125295e+02
2.700000e-06	-2.193546e-06	-1.884456e-09	-1.559261e+01	-1.241475e+02
2.710000e-06	-2.286884e-06	-2.058168e-09	-1.625609e+01	-1.356064e+02
2.720000e-06	-2.379219e-06	-2.231999e-09	-1.691244e+01	-1.468658e+02
2.730000e-06	-2.470705e-06	-2.401729e-09	-1.756276e+01	-1.578890e+02
2.740000e-06	-2.561396e-06	-2.561825e-09	-1.820744e+01	-1.686448e+02
2.750000e-06	-2.651164e-06	-2.715593e-09	-1.884554e+01	-1.791068e+02
2.760000e-06	-2.739957e-06	-2.867850e-09	-1.947672e+01	-1.892543e+02
2.770000e-06	-2.827905e-06	-3.020498e-09	-2.010189e+01	-1.990717e+02
2.780000e-06	-2.915061e-06	-3.170400e-09	-2.072143e+01	-2.085481e+02
2.790000e-06	-3.001086e-06	-3.311715e-09	-2.133293e+01	-2.176772e+02
2.800000e-06	-3.085802e-06	-3.444553e-09	-2.193513e+01	-2.264564e+02
2.810000e-06	-3.169474e-06	-3.572433e-09	-2.252990e+01	-2.348863e+02
2.820000e-06	-3.252134e-06	-3.696715e-09	-2.311748e+01	-2.429705e+02
2.830000e-06	-3.333686e-06	-3.816431e-09	-2.369718e+01	-2.507152e+02
2.840000e-06	-3.414169e-06	-3.931692e-09	-2.426929e+01	-2.581285e+02
2.850000e-06	-3.493588e-06	-4.041286e-09	-2.483383e+01	-2.652208e+02
2.860000e-06	-3.571602e-06	-4.144743e-09	-2.538838e+01	-2.720044e+02
2.870000e-06	-3.647999e-06	-4.242436e-09	-2.593144e+01	-2.784930e+02
2.880000e-06	-3.722927e-06	-4.338400e-09	-2.646406e+01	-2.847020e+02
2.890000e-06	-3.796449e-06	-4.431660e-09	-2.698669e+01	-2.906476e+02
2.900000e-06	-3.868682e-06	-4.518646e-09	-2.750015e+01	-2.963466e+02
2.910000e-06	-3.939561e-06	-4.600594e-09	-2.800399e+01	-3.018157e+02
2.920000e-06	-4.008792e-06	-4.679427e-09	-2.849611e+01	-3.070705e+02
2.930000e-06	-4.076486e-06	-4.757053e-09	-2.897731e+01	-3.121255e+02
2.940000e-06	-4.142835e-06	-4.832032e-09	-2.944894e+01	-3.169926e+02
