# Temperatura_=_54.68
# Concentracion g/m^3_=_15000.0
# C_Vs_to_Am_M_A/Vsm_=_65563218390.804596
# pendiente_HvsI_1/m_=_3716.3
# ordenada_HvsI_A/m_=_1297.0
# frecuencia_Hz_=_301600.01654443075

Tiempo_(s)	Campo_(V.s)	Magnetizacion_(V.s)	Campo_(kA/m)	Magnetizacion_(A/m)
0.000000e+00	-5.375792e-06	-6.455431e-09	-3.833512e+01	-4.220559e+02
1.000000e-08	-5.373130e-06	-6.452518e-09	-3.831613e+01	-4.218925e+02
2.000000e-08	-5.368693e-06	-6.448741e-09	-3.828449e+01	-4.216260e+02
3.000000e-08	-5.362627e-06	-6.442118e-09	-3.824123e+01	-4.212555e+02
4.000000e-08	-5.354949e-06	-6.434529e-09	-3.818648e+01	-4.207832e+02
5.000000e-08	-5.345511e-06	-6.425994e-09	-3.811917e+01	-4.202148e+02
6.000000e-08	-5.334078e-06	-6.416235e-09	-3.803765e+01	-4.195589e+02
7.000000e-08	-5.320659e-06	-6.412284e-09	-3.794195e+01	-4.188264e+02
8.000000e-08	-5.305073e-06	-6.396708e-09	-3.783081e+01	-4.180294e+02
9.000000e-08	-5.287269e-06	-6.388793e-09	-3.770385e+01	-4.171799e+02
1.000000e-07	-5.267453e-06	-6.397073e-09	-3.756254e+01	-4.162881e+02
1.100000e-07	-5.245745e-06	-6.365296e-09	-3.740774e+01	-4.153613e+02
1.200000e-07	-5.222363e-06	-6.328898e-09	-3.724100e+01	-4.144026e+02
1.300000e-07	-5.197481e-06	-6.329500e-09	-3.706356e+01	-4.134108e+02
1.400000e-07	-5.170980e-06	-6.261449e-09	-3.687459e+01	-4.123799e+02
1.500000e-07	-5.142810e-06	-6.278027e-09	-3.667371e+01	-4.112998e+02
1.600000e-07	-5.113153e-06	-6.311921e-09	-3.646221e+01	-4.101574e+02
1.700000e-07	-5.081895e-06	-6.224635e-09	-3.623932e+01	-4.089378e+02
1.800000e-07	-5.048598e-06	-6.255022e-09	-3.600187e+01	-4.076263e+02
1.900000e-07	-5.013414e-06	-6.247638e-09	-3.575097e+01	-4.062091e+02
2.000000e-07	-4.976774e-06	-6.144210e-09	-3.548969e+01	-4.046755e+02
2.100000e-07	-4.938478e-06	-6.131609e-09	-3.521660e+01	-4.030184e+02
2.200000e-07	-4.898314e-06	-6.078116e-09	-3.493018e+01	-4.012350e+02
2.300000e-07	-4.856189e-06	-6.039125e-09	-3.462979e+01	-3.993263e+02
2.400000e-07	-4.812155e-06	-6.071741e-09	-3.431578e+01	-3.972973e+02
2.500000e-07	-4.766392e-06	-6.051739e-09	-3.398944e+01	-3.951552e+02
2.600000e-07	-4.718709e-06	-6.034702e-09	-3.364941e+01	-3.929091e+02
2.700000e-07	-4.668951e-06	-5.948864e-09	-3.329459e+01	-3.905680e+02
2.800000e-07	-4.617144e-06	-5.885100e-09	-3.292515e+01	-3.881400e+02
2.900000e-07	-4.563426e-06	-5.888877e-09	-3.254208e+01	-3.856313e+02
3.000000e-07	-4.508148e-06	-5.849147e-09	-3.214789e+01	-3.830456e+02
3.100000e-07	-4.451278e-06	-5.807738e-09	-3.174235e+01	-3.803840e+02
3.200000e-07	-4.392578e-06	-5.754559e-09	-3.132375e+01	-3.776452e+02
3.300000e-07	-4.332221e-06	-5.703359e-09	-3.089334e+01	-3.748258e+02
3.400000e-07	-4.270366e-06	-5.669575e-09	-3.045225e+01	-3.719215e+02
3.500000e-07	-4.207110e-06	-5.629243e-09	-3.000117e+01	-3.689274e+02
3.600000e-07	-4.142440e-06	-5.586675e-09	-2.954000e+01	-3.658394e+02
3.700000e-07	-4.076125e-06	-5.513462e-09	-2.906711e+01	-3.626543e+02
3.800000e-07	-4.008184e-06	-5.455015e-09	-2.858261e+01	-3.593703e+02
3.900000e-07	-3.938855e-06	-5.425434e-09	-2.808822e+01	-3.559873e+02
4.000000e-07	-3.868324e-06	-5.382348e-09	-2.758526e+01	-3.525062e+02
4.100000e-07	-3.796641e-06	-5.330309e-09	-2.707409e+01	-3.489291e+02
4.200000e-07	-3.723548e-06	-5.247321e-09	-2.655285e+01	-3.452582e+02
4.300000e-07	-3.648790e-06	-5.183915e-09	-2.601975e+01	-3.414955e+02
4.400000e-07	-3.572491e-06	-5.137749e-09	-2.547566e+01	-3.376422e+02
4.500000e-07	-3.494777e-06	-5.097410e-09	-2.492147e+01	-3.336983e+02
4.600000e-07	-3.415646e-06	-5.052327e-09	-2.435719e+01	-3.296627e+02
4.700000e-07	-3.335193e-06	-4.972354e-09	-2.378347e+01	-3.255330e+02
4.800000e-07	-3.253558e-06	-4.887688e-09	-2.320133e+01	-3.213060e+02
4.900000e-07	-3.170827e-06	-4.814859e-09	-2.261136e+01	-3.169779e+02
5.000000e-07	-3.087076e-06	-4.758552e-09	-2.201413e+01	-3.125452e+02
5.100000e-07	-3.002437e-06	-4.695322e-09	-2.141057e+01	-3.080048e+02
5.200000e-07	-2.916854e-06	-4.622457e-09	-2.080027e+01	-3.033543e+02
5.300000e-07	-2.830222e-06	-4.541510e-09	-2.018249e+01	-2.985925e+02
5.400000e-07	-2.742677e-06	-4.462973e-09	-1.955820e+01	-2.937192e+02
5.500000e-07	-2.654230e-06	-4.395804e-09	-1.892748e+01	-2.887349e+02
5.600000e-07	-2.564675e-06	-4.325540e-09	-1.828886e+01	-2.836405e+02
5.700000e-07	-2.473957e-06	-4.240750e-09	-1.764194e+01	-2.784371e+02
5.800000e-07	-2.382254e-06	-4.143895e-09	-1.698801e+01	-2.731252e+02
5.900000e-07	-2.289755e-06	-4.057666e-09	-1.632839e+01	-2.677046e+02
6.000000e-07	-2.196485e-06	-3.984808e-09	-1.566327e+01	-2.621744e+02
6.100000e-07	-2.102446e-06	-3.908106e-09	-1.499267e+01	-2.565324e+02
6.200000e-07	-2.007736e-06	-3.817818e-09	-1.431729e+01	-2.507758e+02
6.300000e-07	-1.912398e-06	-3.720993e-09	-1.363743e+01	-2.449013e+02
6.400000e-07	-1.816355e-06	-3.625833e-09	-1.295254e+01	-2.389054e+02
6.500000e-07	-1.719489e-06	-3.537667e-09	-1.226179e+01	-2.327847e+02
6.600000e-07	-1.621876e-06	-3.451338e-09	-1.156570e+01	-2.265367e+02
6.700000e-07	-1.523600e-06	-3.353380e-09	-1.086489e+01	-2.201594e+02
6.800000e-07	-1.424672e-06	-3.242165e-09	-1.015943e+01	-2.136513e+02
6.900000e-07	-1.325216e-06	-3.130503e-09	-9.450202e+00	-2.070117e+02
7.000000e-07	-1.225383e-06	-3.031963e-09	-8.738285e+00	-2.002400e+02
7.100000e-07	-1.125261e-06	-2.937299e-09	-8.024309e+00	-1.933348e+02
7.200000e-07	-1.024873e-06	-2.833112e-09	-7.308431e+00	-1.862944e+02
7.300000e-07	-9.241762e-07	-2.719807e-09	-6.590359e+00	-1.791155e+02
7.400000e-07	-8.231576e-07	-2.604465e-09	-5.869989e+00	-1.717931e+02
7.500000e-07	-7.218717e-07	-2.492175e-09	-5.147713e+00	-1.643207e+02
7.600000e-07	-6.203035e-07	-2.382510e-09	-4.423423e+00	-1.566904e+02
7.700000e-07	-5.184741e-07	-2.268160e-09	-3.697271e+00	-1.488929e+02
7.800000e-07	-4.164226e-07	-2.142078e-09	-2.969536e+00	-1.409184e+02
7.900000e-07	-3.142513e-07	-2.009222e-09	-2.240946e+00	-1.327573e+02
8.000000e-07	-2.120111e-07	-1.878755e-09	-1.511864e+00	-1.244002e+02
8.100000e-07	-1.096649e-07	-1.753672e-09	-7.820271e-01	-1.158393e+02
8.200000e-07	-7.297394e-09	-1.625391e-09	-5.203818e-02	-1.070679e+02
8.300000e-07	9.511415e-08	-1.486022e-09	6.782650e-01	-9.808069e+01
8.400000e-07	1.975686e-07	-1.339561e-09	1.408874e+00	-8.887375e+01
8.500000e-07	2.999386e-07	-1.194197e-09	2.138881e+00	-7.944379e+01
8.600000e-07	4.021904e-07	-1.050464e-09	2.868045e+00	-6.978778e+01
8.700000e-07	5.043098e-07	-9.016817e-10	3.596265e+00	-5.990240e+01
8.800000e-07	6.062771e-07	-7.434081e-10	4.323400e+00	-4.978361e+01
8.900000e-07	7.080831e-07	-5.791762e-10	5.049385e+00	-3.942658e+01
9.000000e-07	8.096140e-07	-4.143447e-10	5.773409e+00	-2.882595e+01
9.100000e-07	9.107812e-07	-2.487095e-10	6.494839e+00	-1.797649e+01
9.200000e-07	1.011596e-06	-8.104121e-11	7.213751e+00	-6.874252e+00
9.300000e-07	1.112089e-06	9.135311e-11	7.930375e+00	4.482048e+00
9.400000e-07	1.212289e-06	2.689187e-10	8.644911e+00	1.608940e+01
9.500000e-07	1.312187e-06	4.498949e-10	9.357292e+00	2.793892e+01
9.600000e-07	1.411774e-06	6.310559e-10	1.006745e+01	4.001445e+01
9.700000e-07	1.510812e-06	8.131388e-10	1.077370e+01	5.229159e+01
9.800000e-07	1.609034e-06	9.997991e-10	1.147412e+01	6.473736e+01
9.900000e-07	1.706433e-06	1.191047e-09	1.216868e+01	7.731047e+01
1.000000e-06	1.803058e-06	1.383224e-09	1.285772e+01	8.996240e+01
1.010000e-06	1.898977e-06	1.573178e-09	1.354172e+01	1.026391e+02
1.020000e-06	1.994226e-06	1.761333e-09	1.422095e+01	1.152831e+02
1.030000e-06	2.088745e-06	1.950077e-09	1.489497e+01	1.278364e+02
1.040000e-06	2.182520e-06	2.139974e-09	1.556369e+01	1.402425e+02
1.050000e-06	2.275571e-06	2.326445e-09	1.622724e+01	1.524495e+02
1.060000e-06	2.367939e-06	2.507708e-09	1.688593e+01	1.644114e+02
1.070000e-06	2.459647e-06	2.683401e-09	1.753990e+01	1.760901e+02
1.080000e-06	2.550532e-06	2.854566e-09	1.818800e+01	1.874558e+02
1.090000e-06	2.640286e-06	3.023785e-09	1.882805e+01	1.984869e+02
1.100000e-06	2.728850e-06	3.190358e-09	1.945960e+01	2.091695e+02
1.110000e-06	2.816462e-06	3.349936e-09	2.008437e+01	2.194960e+02
1.120000e-06	2.903170e-06	3.502277e-09	2.070269e+01	2.294638e+02
1.130000e-06	2.988902e-06	3.647404e-09	2.131405e+01	2.390737e+02
1.140000e-06	3.073681e-06	3.788548e-09	2.191861e+01	2.483282e+02
1.150000e-06	3.157560e-06	3.924949e-09	2.251676e+01	2.572306e+02
1.160000e-06	3.240471e-06	4.054322e-09	2.310800e+01	2.657847e+02
1.170000e-06	3.322188e-06	4.176335e-09	2.369073e+01	2.739937e+02
1.180000e-06	3.402585e-06	4.293977e-09	2.426405e+01	2.818616e+02
1.190000e-06	3.481778e-06	4.408660e-09	2.482878e+01	2.893929e+02
1.200000e-06	3.559810e-06	4.518125e-09	2.538523e+01	2.965938e+02
1.210000e-06	3.636576e-06	4.623621e-09	2.593265e+01	3.034728e+02
1.220000e-06	3.712060e-06	4.723128e-09	2.647094e+01	3.100417e+02
1.230000e-06	3.785971e-06	4.815846e-09	2.699800e+01	3.163149e+02
1.240000e-06	3.858191e-06	4.904003e-09	2.751300e+01	3.223101e+02
1.250000e-06	3.928966e-06	4.991611e-09	2.801770e+01	3.280471e+02
1.260000e-06	3.998424e-06	5.077440e-09	2.851301e+01	3.335469e+02
1.270000e-06	4.066605e-06	5.158691e-09	2.899922e+01	3.388304e+02
1.280000e-06	4.133360e-06	5.235608e-09	2.947525e+01	3.439167e+02
1.290000e-06	4.198436e-06	5.310486e-09	2.993931e+01	3.488221e+02
1.300000e-06	4.261855e-06	5.382612e-09	3.039155e+01	3.535589e+02
1.310000e-06	4.323812e-06	5.452206e-09	3.083337e+01	3.581348e+02
1.320000e-06	4.384375e-06	5.519240e-09	3.126525e+01	3.625528e+02
1.330000e-06	4.443550e-06	5.583618e-09	3.168724e+01	3.668115e+02
1.340000e-06	4.501056e-06	5.644440e-09	3.209732e+01	3.709066e+02
1.350000e-06	4.556770e-06	5.701478e-09	3.249461e+01	3.748312e+02
1.360000e-06	4.610847e-06	5.757556e-09	3.288024e+01	3.785784e+02
1.370000e-06	4.663229e-06	5.810931e-09	3.325378e+01	3.821418e+02
1.380000e-06	4.713628e-06	5.859318e-09	3.361318e+01	3.855173e+02
1.390000e-06	4.761983e-06	5.905817e-09	3.395800e+01	3.887037e+02
1.400000e-06	4.808601e-06	5.951369e-09	3.429043e+01	3.917031e+02
1.410000e-06	4.853691e-06	5.993417e-09	3.461198e+01	3.945209e+02
1.420000e-06	4.897257e-06	6.031061e-09	3.492265e+01	3.971653e+02
1.430000e-06	4.938980e-06	6.065354e-09	3.522018e+01	3.996462e+02
1.440000e-06	4.978831e-06	6.098528e-09	3.550436e+01	4.019742e+02
1.450000e-06	5.017026e-06	6.130660e-09	3.577673e+01	4.041592e+02
1.460000e-06	5.053612e-06	6.160387e-09	3.603763e+01	4.062102e+02
1.470000e-06	5.088520e-06	6.189159e-09	3.628656e+01	4.081336e+02
1.480000e-06	5.121488e-06	6.215667e-09	3.652165e+01	4.099337e+02
1.490000e-06	5.152588e-06	6.239197e-09	3.674343e+01	4.116125e+02
1.500000e-06	5.182005e-06	6.260873e-09	3.695320e+01	4.131702e+02
1.510000e-06	5.209712e-06	6.280294e-09	3.715078e+01	4.146060e+02
1.520000e-06	5.235416e-06	6.299146e-09	3.733408e+01	4.159189e+02
1.530000e-06	5.259015e-06	6.316591e-09	3.750237e+01	4.171089e+02
1.540000e-06	5.280800e-06	6.332210e-09	3.765772e+01	4.181770e+02
1.550000e-06	5.300899e-06	6.346286e-09	3.780105e+01	4.191263e+02
1.560000e-06	5.319145e-06	6.359877e-09	3.793116e+01	4.199613e+02
1.570000e-06	5.335395e-06	6.371832e-09	3.804704e+01	4.206883e+02
1.580000e-06	5.349648e-06	6.382027e-09	3.814868e+01	4.213139e+02
1.590000e-06	5.361909e-06	6.391648e-09	3.823611e+01	4.218450e+02
1.600000e-06	5.372045e-06	6.400157e-09	3.830839e+01	4.222872e+02
1.610000e-06	5.380049e-06	6.407480e-09	3.836547e+01	4.226445e+02
1.620000e-06	5.386153e-06	6.413616e-09	3.840900e+01	4.229185e+02
1.630000e-06	5.390488e-06	6.418633e-09	3.843991e+01	4.231085e+02
1.640000e-06	5.392917e-06	6.420037e-09	3.845723e+01	4.232115e+02
1.650000e-06	5.393305e-06	6.419751e-09	3.846000e+01	4.232231e+02
1.660000e-06	5.391880e-06	6.419947e-09	3.844984e+01	4.231384e+02
1.670000e-06	5.388831e-06	6.415315e-09	3.842809e+01	4.229529e+02
1.680000e-06	5.384156e-06	6.411079e-09	3.839476e+01	4.226639e+02
1.690000e-06	5.377582e-06	6.407405e-09	3.834788e+01	4.222711e+02
1.700000e-06	5.369145e-06	6.403399e-09	3.828771e+01	4.217774e+02
1.710000e-06	5.359168e-06	6.397783e-09	3.821656e+01	4.211893e+02
1.720000e-06	5.347503e-06	6.385116e-09	3.813338e+01	4.205157e+02
1.730000e-06	5.333840e-06	6.373109e-09	3.803595e+01	4.197682e+02
1.740000e-06	5.318082e-06	6.362145e-09	3.792358e+01	4.189587e+02
1.750000e-06	5.300037e-06	6.319769e-09	3.779490e+01	4.180991e+02
1.760000e-06	5.279376e-06	6.319923e-09	3.764756e+01	4.171991e+02
1.770000e-06	5.256360e-06	6.322731e-09	3.748343e+01	4.162651e+02
1.780000e-06	5.231952e-06	6.303993e-09	3.730938e+01	4.152994e+02
1.790000e-06	5.206785e-06	6.340576e-09	3.712991e+01	4.142997e+02
1.800000e-06	5.180286e-06	6.231230e-09	3.694095e+01	4.132590e+02
1.810000e-06	5.151588e-06	6.208458e-09	3.673630e+01	4.121665e+02
1.820000e-06	5.121071e-06	6.286326e-09	3.651868e+01	4.110086e+02
1.830000e-06	5.089010e-06	6.171661e-09	3.629005e+01	4.097704e+02
1.840000e-06	5.054973e-06	6.206012e-09	3.604733e+01	4.084370e+02
1.850000e-06	5.019239e-06	6.286020e-09	3.579251e+01	4.069954e+02
1.860000e-06	4.981762e-06	6.191754e-09	3.552526e+01	4.054357e+02
1.870000e-06	4.942340e-06	6.223808e-09	3.524414e+01	4.037514e+02
1.880000e-06	4.901280e-06	6.172596e-09	3.495133e+01	4.019407e+02
1.890000e-06	4.858483e-06	6.072083e-09	3.464615e+01	4.000055e+02
1.900000e-06	4.813985e-06	6.068003e-09	3.432883e+01	3.979513e+02
1.910000e-06	4.767731e-06	5.971956e-09	3.399899e+01	3.957860e+02
1.920000e-06	4.719435e-06	6.040609e-09	3.365459e+01	3.935185e+02
1.930000e-06	4.669430e-06	6.035153e-09	3.329800e+01	3.911579e+02
1.940000e-06	4.617754e-06	5.906967e-09	3.292950e+01	3.887120e+02
1.950000e-06	4.564056e-06	5.932609e-09	3.254657e+01	3.861863e+02
1.960000e-06	4.508422e-06	5.845894e-09	3.214984e+01	3.835842e+02
1.970000e-06	4.451063e-06	5.798814e-09	3.174081e+01	3.809060e+02
1.980000e-06	4.392193e-06	5.788794e-09	3.132101e+01	3.781501e+02
1.990000e-06	4.331822e-06	5.730606e-09	3.089050e+01	3.753127e+02
2.000000e-06	4.269782e-06	5.726426e-09	3.044808e+01	3.723893e+02
2.010000e-06	4.206123e-06	5.630200e-09	2.999413e+01	3.693752e+02
2.020000e-06	4.140973e-06	5.614737e-09	2.952954e+01	3.662664e+02
2.030000e-06	4.074391e-06	5.573796e-09	2.905474e+01	3.630600e+02
2.040000e-06	4.006422e-06	5.486035e-09	2.857005e+01	3.597545e+02
2.050000e-06	3.937001e-06	5.457328e-09	2.807501e+01	3.563501e+02
2.060000e-06	3.866001e-06	5.379770e-09	2.756870e+01	3.528481e+02
2.070000e-06	3.793579e-06	5.364743e-09	2.705225e+01	3.492505e+02
2.080000e-06	3.719903e-06	5.299729e-09	2.652686e+01	3.455595e+02
2.090000e-06	3.644881e-06	5.236533e-09	2.599187e+01	3.417771e+02
2.100000e-06	3.568427e-06	5.180285e-09	2.544668e+01	3.379042e+02
2.110000e-06	3.490475e-06	5.079062e-09	2.489080e+01	3.339406e+02
2.120000e-06	3.411143e-06	5.041291e-09	2.432508e+01	3.298849e+02
2.130000e-06	3.330599e-06	4.982468e-09	2.375071e+01	3.257344e+02
2.140000e-06	3.248897e-06	4.938410e-09	2.316809e+01	3.214858e+02
2.150000e-06	3.166157e-06	4.875566e-09	2.257807e+01	3.171354e+02
2.160000e-06	3.082438e-06	4.793907e-09	2.198106e+01	3.126796e+02
2.170000e-06	2.997592e-06	4.714652e-09	2.137602e+01	3.081155e+02
2.180000e-06	2.911438e-06	4.635644e-09	2.076165e+01	3.034411e+02
2.190000e-06	2.824053e-06	4.582183e-09	2.013850e+01	2.986552e+02
2.200000e-06	2.735678e-06	4.507006e-09	1.950829e+01	2.937578e+02
2.210000e-06	2.646399e-06	4.427054e-09	1.887164e+01	2.887496e+02
2.220000e-06	2.556203e-06	4.346082e-09	1.822845e+01	2.836315e+02
2.230000e-06	2.465174e-06	4.275963e-09	1.757931e+01	2.784046e+02
2.240000e-06	2.373358e-06	4.198221e-09	1.692457e+01	2.730692e+02
2.250000e-06	2.280752e-06	4.111294e-09	1.626419e+01	2.676251e+02
2.260000e-06	2.187317e-06	4.026824e-09	1.559790e+01	2.620709e+02
2.270000e-06	2.092886e-06	3.932990e-09	1.492450e+01	2.564044e+02
2.280000e-06	1.997446e-06	3.842100e-09	1.424391e+01	2.506226e+02
2.290000e-06	1.901251e-06	3.758170e-09	1.355794e+01	2.447222e+02
2.300000e-06	1.804578e-06	3.675357e-09	1.286856e+01	2.386996e+02
2.310000e-06	1.707455e-06	3.574307e-09	1.217597e+01	2.325516e+02
2.320000e-06	1.609757e-06	3.466416e-09	1.147928e+01	2.262758e+02
2.330000e-06	1.511495e-06	3.370079e-09	1.077857e+01	2.198703e+02
2.340000e-06	1.412750e-06	3.282121e-09	1.007441e+01	2.133339e+02
2.350000e-06	1.313570e-06	3.185801e-09	9.367151e+00	2.066659e+02
2.360000e-06	1.214074e-06	3.079451e-09	8.657642e+00	1.998654e+02
2.370000e-06	1.114330e-06	2.969657e-09	7.946361e+00	1.929313e+02
2.380000e-06	1.014242e-06	2.855610e-09	7.232622e+00	1.858613e+02
2.390000e-06	9.137378e-07	2.746723e-09	6.515922e+00	1.786519e+02
2.400000e-06	8.128300e-07	2.641500e-09	5.796342e+00	1.712977e+02
2.410000e-06	7.115798e-07	2.529834e-09	5.074321e+00	1.637920e+02
2.420000e-06	6.100802e-07	2.404401e-09	4.350520e+00	1.561265e+02
2.430000e-06	5.084017e-07	2.274997e-09	3.625445e+00	1.482917e+02
2.440000e-06	4.065693e-07	2.153783e-09	2.899271e+00	1.402778e+02
2.450000e-06	3.045201e-07	2.036831e-09	2.171552e+00	1.320752e+02
2.460000e-06	2.022523e-07	1.911998e-09	1.442274e+00	1.236749e+02
2.470000e-06	9.985389e-08	1.777365e-09	7.120644e-01	1.150691e+02
2.480000e-06	-2.666009e-09	1.639029e-09	-1.901148e-02	1.062516e+02
2.490000e-06	-1.051697e-07	1.503264e-09	-7.499715e-01	9.721745e+01
2.500000e-06	-2.076096e-07	1.368914e-09	-1.480477e+00	8.796275e+01
2.510000e-06	-3.099909e-07	1.228615e-09	-2.210565e+00	7.848439e+01
2.520000e-06	-4.122332e-07	1.081654e-09	-2.939661e+00	6.877932e+01
2.530000e-06	-5.142500e-07	9.256426e-10	-3.667149e+00	5.884407e+01
2.540000e-06	-6.160233e-07	7.681562e-10	-4.392901e+00	4.867445e+01
2.550000e-06	-7.175805e-07	6.156507e-10	-5.117112e+00	3.826546e+01
2.560000e-06	-8.187936e-07	4.594878e-10	-5.838869e+00	2.761171e+01
2.570000e-06	-9.196307e-07	2.930825e-10	-6.557945e+00	1.670813e+01
2.580000e-06	-1.020094e-06	1.188797e-10	-7.274353e+00	5.551222e+00
2.590000e-06	-1.120167e-06	-5.767774e-11	-7.987984e+00	-5.859522e+00
2.600000e-06	-1.219881e-06	-2.337001e-10	-8.699047e+00	-1.751996e+01
2.610000e-06	-1.319216e-06	-4.123697e-10	-9.407411e+00	-2.941976e+01
2.620000e-06	-1.418125e-06	-5.961086e-10	-1.011274e+01	-4.154105e+01
2.630000e-06	-1.516557e-06	-7.878348e-10	-1.081466e+01	-5.385761e+01
2.640000e-06	-1.614442e-06	-9.845671e-10	-1.151269e+01	-6.633463e+01
2.650000e-06	-1.711697e-06	-1.179465e-09	-1.220622e+01	-7.892915e+01
2.660000e-06	-1.808384e-06	-1.371620e-09	-1.289570e+01	-9.159130e+01
2.670000e-06	-1.904569e-06	-1.563678e-09	-1.358160e+01	-1.042661e+02
2.680000e-06	-2.000226e-06	-1.760683e-09	-1.426374e+01	-1.168958e+02
2.690000e-06	-2.095191e-06	-1.959473e-09	-1.494094e+01	-1.294224e+02
2.700000e-06	-2.189214e-06	-2.153875e-09	-1.561142e+01	-1.417902e+02
2.710000e-06	-2.282182e-06	-2.339944e-09	-1.627438e+01	-1.539485e+02
2.720000e-06	-2.374212e-06	-2.520211e-09	-1.693066e+01	-1.658529e+02
2.730000e-06	-2.465442e-06	-2.696996e-09	-1.758122e+01	-1.774670e+02
2.740000e-06	-2.555818e-06	-2.867701e-09	-1.822570e+01	-1.887627e+02
2.750000e-06	-2.645214e-06	-3.032598e-09	-1.886319e+01	-1.997203e+02
2.760000e-06	-2.733711e-06	-3.193065e-09	-1.949426e+01	-2.103272e+02
2.770000e-06	-2.821488e-06	-3.348897e-09	-2.012021e+01	-2.205772e+02
2.780000e-06	-2.908368e-06	-3.501496e-09	-2.073975e+01	-2.304684e+02
2.790000e-06	-2.993994e-06	-3.649507e-09	-2.135036e+01	-2.400020e+02
2.800000e-06	-3.078379e-06	-3.789939e-09	-2.195212e+01	-2.491810e+02
2.810000e-06	-3.161752e-06	-3.922493e-09	-2.254666e+01	-2.580087e+02
2.820000e-06	-3.244155e-06	-4.049343e-09	-2.313428e+01	-2.664888e+02
2.830000e-06	-3.325476e-06	-4.175345e-09	-2.371418e+01	-2.746246e+02
2.840000e-06	-3.405706e-06	-4.300240e-09	-2.428631e+01	-2.824201e+02
2.850000e-06	-3.484846e-06	-4.418559e-09	-2.485066e+01	-2.898802e+02
2.860000e-06	-3.562481e-06	-4.528694e-09	-2.540427e+01	-2.970116e+02
2.870000e-06	-3.638456e-06	-4.631664e-09	-2.594606e+01	-3.038233e+02
2.880000e-06	-3.712992e-06	-4.730044e-09	-2.647758e+01	-3.103276e+02
2.890000e-06	-3.786203e-06	-4.824411e-09	-2.699966e+01	-3.165399e+02
2.900000e-06	-3.858259e-06	-4.915171e-09	-2.751349e+01	-3.224783e+02
2.910000e-06	-3.928970e-06	-5.002803e-09	-2.801773e+01	-3.281629e+02
2.920000e-06	-3.998011e-06	-5.086340e-09	-2.851007e+01	-3.336149e+02
2.930000e-06	-4.065528e-06	-5.167083e-09	-2.899153e+01	-3.388548e+02
2.940000e-06	-4.131641e-06	-5.245827e-09	-2.946299e+01	-3.439013e+02
