# Temperatura_=_44.02
# Concentracion g/m^3_=_15000.0
# C_Vs_to_Am_M_A/Vsm_=_65563218390.804596
# pendiente_HvsI_1/m_=_3716.3
# ordenada_HvsI_A/m_=_1297.0
# frecuencia_Hz_=_301591.2895968621

Tiempo_(s)	Campo_(V.s)	Magnetizacion_(V.s)	Campo_(kA/m)	Magnetizacion_(A/m)
0.000000e+00	-5.360001e-06	-6.047469e-09	-3.833482e+01	-3.949831e+02
1.000000e-08	-5.357298e-06	-6.042550e-09	-3.831549e+01	-3.948141e+02
2.000000e-08	-5.352786e-06	-6.036767e-09	-3.828322e+01	-3.945551e+02
3.000000e-08	-5.346642e-06	-6.030289e-09	-3.823928e+01	-3.942053e+02
4.000000e-08	-5.338944e-06	-6.023670e-09	-3.818422e+01	-3.937660e+02
5.000000e-08	-5.329403e-06	-6.016124e-09	-3.811598e+01	-3.932407e+02
6.000000e-08	-5.317808e-06	-6.007104e-09	-3.803305e+01	-3.926350e+02
7.000000e-08	-5.304350e-06	-5.997794e-09	-3.793680e+01	-3.919565e+02
8.000000e-08	-5.288802e-06	-5.987054e-09	-3.782560e+01	-3.912139e+02
9.000000e-08	-5.270960e-06	-5.991701e-09	-3.769800e+01	-3.904162e+02
1.000000e-07	-5.251113e-06	-5.990474e-09	-3.755605e+01	-3.895720e+02
1.100000e-07	-5.229446e-06	-5.956678e-09	-3.740109e+01	-3.886879e+02
1.200000e-07	-5.206098e-06	-5.923346e-09	-3.723411e+01	-3.877685e+02
1.300000e-07	-5.181220e-06	-5.894355e-09	-3.705617e+01	-3.868150e+02
1.400000e-07	-5.154683e-06	-5.861461e-09	-3.686638e+01	-3.858253e+02
1.500000e-07	-5.126422e-06	-5.887390e-09	-3.666426e+01	-3.847941e+02
1.600000e-07	-5.096707e-06	-5.885315e-09	-3.645174e+01	-3.837135e+02
1.700000e-07	-5.065488e-06	-5.844935e-09	-3.622846e+01	-3.825732e+02
1.800000e-07	-5.032187e-06	-5.856139e-09	-3.599029e+01	-3.813623e+02
1.900000e-07	-4.996964e-06	-5.795166e-09	-3.573838e+01	-3.800697e+02
2.000000e-07	-4.960286e-06	-5.726123e-09	-3.547605e+01	-3.786857e+02
2.100000e-07	-4.921905e-06	-5.742350e-09	-3.520155e+01	-3.772026e+02
2.200000e-07	-4.881774e-06	-5.721158e-09	-3.491453e+01	-3.756153e+02
2.300000e-07	-4.839750e-06	-5.691033e-09	-3.461398e+01	-3.739220e+02
2.400000e-07	-4.795722e-06	-5.682240e-09	-3.429909e+01	-3.721240e+02
2.500000e-07	-4.749950e-06	-5.642107e-09	-3.397172e+01	-3.702250e+02
2.600000e-07	-4.702376e-06	-5.599856e-09	-3.363147e+01	-3.682309e+02
2.700000e-07	-4.652794e-06	-5.570341e-09	-3.327686e+01	-3.661488e+02
2.800000e-07	-4.601113e-06	-5.563811e-09	-3.290724e+01	-3.639861e+02
2.900000e-07	-4.547472e-06	-5.516955e-09	-3.252360e+01	-3.617493e+02
3.000000e-07	-4.492218e-06	-5.459116e-09	-3.212842e+01	-3.594439e+02
3.100000e-07	-4.435369e-06	-5.450086e-09	-3.172183e+01	-3.570731e+02
3.200000e-07	-4.376720e-06	-5.413968e-09	-3.130237e+01	-3.546383e+02
3.300000e-07	-4.316440e-06	-5.366575e-09	-3.087125e+01	-3.521384e+02
3.400000e-07	-4.254694e-06	-5.325545e-09	-3.042965e+01	-3.495709e+02
3.500000e-07	-4.191614e-06	-5.274795e-09	-2.997849e+01	-3.469315e+02
3.600000e-07	-4.127107e-06	-5.241024e-09	-2.951714e+01	-3.442154e+02
3.700000e-07	-4.060908e-06	-5.210619e-09	-2.904368e+01	-3.414174e+02
3.800000e-07	-3.993130e-06	-5.169380e-09	-2.855894e+01	-3.385327e+02
3.900000e-07	-3.923989e-06	-5.113297e-09	-2.806444e+01	-3.355576e+02
4.000000e-07	-3.853579e-06	-5.047640e-09	-2.756086e+01	-3.324893e+02
4.100000e-07	-3.781985e-06	-4.996043e-09	-2.704882e+01	-3.293262e+02
4.200000e-07	-3.709056e-06	-4.956475e-09	-2.652724e+01	-3.260677e+02
4.300000e-07	-3.634537e-06	-4.921486e-09	-2.599427e+01	-3.227141e+02
4.400000e-07	-3.558475e-06	-4.876343e-09	-2.545028e+01	-3.192664e+02
4.500000e-07	-3.481047e-06	-4.819903e-09	-2.489651e+01	-3.157253e+02
4.600000e-07	-3.402222e-06	-4.750223e-09	-2.433275e+01	-3.120915e+02
4.700000e-07	-3.322008e-06	-4.685225e-09	-2.375906e+01	-3.083653e+02
4.800000e-07	-3.240516e-06	-4.639774e-09	-2.317623e+01	-3.045461e+02
4.900000e-07	-3.157856e-06	-4.583060e-09	-2.258504e+01	-3.006327e+02
5.000000e-07	-3.074226e-06	-4.515013e-09	-2.198692e+01	-2.966231e+02
5.100000e-07	-2.989715e-06	-4.448131e-09	-2.138250e+01	-2.925149e+02
5.200000e-07	-2.904311e-06	-4.383165e-09	-2.077168e+01	-2.883055e+02
5.300000e-07	-2.817903e-06	-4.316864e-09	-2.015369e+01	-2.839922e+02
5.400000e-07	-2.730535e-06	-4.253516e-09	-1.952883e+01	-2.795724e+02
5.500000e-07	-2.642299e-06	-4.187608e-09	-1.889777e+01	-2.750439e+02
5.600000e-07	-2.552979e-06	-4.111189e-09	-1.825895e+01	-2.704050e+02
5.700000e-07	-2.462457e-06	-4.036182e-09	-1.761153e+01	-2.656545e+02
5.800000e-07	-2.370967e-06	-3.969507e-09	-1.695720e+01	-2.607915e+02
5.900000e-07	-2.278719e-06	-3.899465e-09	-1.629744e+01	-2.558154e+02
6.000000e-07	-2.185686e-06	-3.814657e-09	-1.563207e+01	-2.507257e+02
6.100000e-07	-2.091852e-06	-3.727200e-09	-1.496096e+01	-2.455219e+02
6.200000e-07	-1.997293e-06	-3.646316e-09	-1.428468e+01	-2.402035e+02
6.300000e-07	-1.902107e-06	-3.567121e-09	-1.360391e+01	-2.347694e+02
6.400000e-07	-1.806321e-06	-3.488518e-09	-1.291884e+01	-2.292186e+02
6.500000e-07	-1.709849e-06	-3.408606e-09	-1.222887e+01	-2.235494e+02
6.600000e-07	-1.612681e-06	-3.317955e-09	-1.153392e+01	-2.177599e+02
6.700000e-07	-1.514774e-06	-3.214483e-09	-1.083369e+01	-2.118480e+02
6.800000e-07	-1.416135e-06	-3.114155e-09	-1.012822e+01	-2.058113e+02
6.900000e-07	-1.316939e-06	-3.025128e-09	-9.418770e+00	-1.996473e+02
7.000000e-07	-1.217313e-06	-2.936157e-09	-8.706242e+00	-1.933533e+02
7.100000e-07	-1.117367e-06	-2.839160e-09	-7.991426e+00	-1.869262e+02
7.200000e-07	-1.017172e-06	-2.736772e-09	-7.274829e+00	-1.803632e+02
7.300000e-07	-9.167651e-07	-2.632246e-09	-6.556720e+00	-1.736607e+02
7.400000e-07	-8.161178e-07	-2.527534e-09	-5.836888e+00	-1.668153e+02
7.500000e-07	-7.151657e-07	-2.424096e-09	-5.114877e+00	-1.598229e+02
7.600000e-07	-6.139345e-07	-2.317973e-09	-4.390870e+00	-1.526791e+02
7.700000e-07	-5.124870e-07	-2.204089e-09	-3.665316e+00	-1.453793e+02
7.800000e-07	-4.108290e-07	-2.084976e-09	-2.938256e+00	-1.379181e+02
7.900000e-07	-3.090074e-07	-1.967990e-09	-2.210027e+00	-1.302900e+02
8.000000e-07	-2.070554e-07	-1.853294e-09	-1.480864e+00	-1.224889e+02
8.100000e-07	-1.050098e-07	-1.735375e-09	-7.510321e-01	-1.145082e+02
8.200000e-07	-2.889771e-09	-1.609560e-09	-2.066769e-02	-1.063410e+02
8.300000e-07	9.923094e-08	-1.478604e-09	7.097014e-01	-9.797994e+01
8.400000e-07	2.013068e-07	-1.348200e-09	1.439750e+00	-8.941709e+01
8.500000e-07	3.033739e-07	-1.217741e-09	2.169735e+00	-8.064429e+01
8.600000e-07	4.053799e-07	-1.083135e-09	2.899284e+00	-7.165309e+01
8.700000e-07	5.072565e-07	-9.403985e-10	3.627907e+00	-6.243497e+01
8.800000e-07	6.090050e-07	-7.904287e-10	4.355614e+00	-5.298175e+01
8.900000e-07	7.105329e-07	-6.376118e-10	5.081744e+00	-4.328599e+01
9.000000e-07	8.117214e-07	-4.835744e-10	5.805445e+00	-3.334168e+01
9.100000e-07	9.126157e-07	-3.276976e-10	6.527043e+00	-2.314494e+01
9.200000e-07	1.013204e-06	-1.693410e-10	7.246451e+00	-1.269487e+01
9.300000e-07	1.113498e-06	-6.333821e-12	7.963759e+00	-1.994451e+00
9.400000e-07	1.213552e-06	1.618486e-10	8.679345e+00	8.948665e+00
9.500000e-07	1.313274e-06	3.319649e-10	9.392559e+00	2.012141e+01
9.600000e-07	1.412482e-06	5.022937e-10	1.010210e+01	3.150478e+01
9.700000e-07	1.511050e-06	6.760402e-10	1.080706e+01	4.307366e+01
9.800000e-07	1.608815e-06	8.555204e-10	1.150627e+01	5.479687e+01
9.900000e-07	1.705766e-06	1.039133e-09	1.219967e+01	6.663765e+01
1.000000e-06	1.802027e-06	1.222248e-09	1.288813e+01	7.855444e+01
1.010000e-06	1.897610e-06	1.403562e-09	1.357174e+01	9.050207e+01
1.020000e-06	1.992553e-06	1.583185e-09	1.425077e+01	1.024330e+02
1.030000e-06	2.086848e-06	1.761363e-09	1.492517e+01	1.142991e+02
1.040000e-06	2.180408e-06	1.938935e-09	1.559432e+01	1.260525e+02
1.050000e-06	2.273209e-06	2.116115e-09	1.625803e+01	1.376481e+02
1.060000e-06	2.365379e-06	2.291023e-09	1.691723e+01	1.490439e+02
1.070000e-06	2.456901e-06	2.459551e-09	1.757180e+01	1.602022e+02
1.080000e-06	2.547389e-06	2.623749e-09	1.821897e+01	1.710906e+02
1.090000e-06	2.636613e-06	2.786779e-09	1.885710e+01	1.816822e+02
1.100000e-06	2.724818e-06	2.945921e-09	1.948795e+01	1.919554e+02
1.110000e-06	2.812135e-06	3.097270e-09	2.011244e+01	2.018940e+02
1.120000e-06	2.898536e-06	3.241088e-09	2.073038e+01	2.114866e+02
1.130000e-06	2.983986e-06	3.379998e-09	2.134152e+01	2.207260e+02
1.140000e-06	3.068513e-06	3.515603e-09	2.194606e+01	2.296093e+02
1.150000e-06	3.152199e-06	3.645622e-09	2.254458e+01	2.381363e+02
1.160000e-06	3.234838e-06	3.768616e-09	2.313562e+01	2.463103e+02
1.170000e-06	3.316171e-06	3.885340e-09	2.371731e+01	2.541370e+02
1.180000e-06	3.396279e-06	3.996701e-09	2.429025e+01	2.616245e+02
1.190000e-06	3.475218e-06	4.103218e-09	2.485482e+01	2.687834e+02
1.200000e-06	3.552937e-06	4.206225e-09	2.541067e+01	2.756263e+02
1.210000e-06	3.629450e-06	4.307170e-09	2.595789e+01	2.821679e+02
1.220000e-06	3.704559e-06	4.402461e-09	2.649507e+01	2.884246e+02
1.230000e-06	3.778023e-06	4.490364e-09	2.702049e+01	2.944139e+02
1.240000e-06	3.849942e-06	4.574203e-09	2.753485e+01	3.001542e+02
1.250000e-06	3.920525e-06	4.658586e-09	2.803967e+01	3.056635e+02
1.260000e-06	3.989728e-06	4.742771e-09	2.853460e+01	3.109594e+02
1.270000e-06	4.057603e-06	4.821884e-09	2.902005e+01	3.160574e+02
1.280000e-06	4.123973e-06	4.896202e-09	2.949473e+01	3.209710e+02
1.290000e-06	4.188647e-06	4.968236e-09	2.995728e+01	3.257106e+02
1.300000e-06	4.251806e-06	5.037903e-09	3.040899e+01	3.302833e+02
1.310000e-06	4.313552e-06	5.104108e-09	3.085060e+01	3.346929e+02
1.320000e-06	4.373982e-06	5.168099e-09	3.128279e+01	3.389403e+02
1.330000e-06	4.432972e-06	5.229281e-09	3.170469e+01	3.430237e+02
1.340000e-06	4.490194e-06	5.285555e-09	3.211394e+01	3.469397e+02
1.350000e-06	4.545678e-06	5.340210e-09	3.251077e+01	3.506839e+02
1.360000e-06	4.599534e-06	5.394333e-09	3.289595e+01	3.542523e+02
1.370000e-06	4.651630e-06	5.444075e-09	3.326854e+01	3.576415e+02
1.380000e-06	4.701720e-06	5.488438e-09	3.362678e+01	3.608501e+02
1.390000e-06	4.749845e-06	5.532361e-09	3.397097e+01	3.638787e+02
1.400000e-06	4.796284e-06	5.576287e-09	3.430311e+01	3.667303e+02
1.410000e-06	4.841207e-06	5.616616e-09	3.462440e+01	3.694100e+02
1.420000e-06	4.884574e-06	5.653321e-09	3.493456e+01	3.719245e+02
1.430000e-06	4.926040e-06	5.687146e-09	3.523113e+01	3.742818e+02
1.440000e-06	4.965675e-06	5.718826e-09	3.551459e+01	3.764903e+02
1.450000e-06	5.003702e-06	5.747925e-09	3.578656e+01	3.785580e+02
1.460000e-06	5.040108e-06	5.774403e-09	3.604694e+01	3.804923e+02
1.470000e-06	5.074771e-06	5.800922e-09	3.629485e+01	3.822989e+02
1.480000e-06	5.107505e-06	5.825691e-09	3.652897e+01	3.839824e+02
1.490000e-06	5.138437e-06	5.847268e-09	3.675019e+01	3.855456e+02
1.500000e-06	5.167704e-06	5.867230e-09	3.695951e+01	3.869903e+02
1.510000e-06	5.195257e-06	5.885602e-09	3.715657e+01	3.883177e+02
1.520000e-06	5.220829e-06	5.902936e-09	3.733946e+01	3.895286e+02
1.530000e-06	5.244352e-06	5.919648e-09	3.750769e+01	3.906244e+02
1.540000e-06	5.266050e-06	5.936514e-09	3.766288e+01	3.916070e+02
1.550000e-06	5.286066e-06	5.951883e-09	3.780603e+01	3.924794e+02
1.560000e-06	5.304239e-06	5.963586e-09	3.793601e+01	3.932457e+02
1.570000e-06	5.320348e-06	5.972924e-09	3.805122e+01	3.939107e+02
1.580000e-06	5.334491e-06	5.981840e-09	3.815237e+01	3.944799e+02
1.590000e-06	5.346650e-06	5.990582e-09	3.823933e+01	3.949584e+02
1.600000e-06	5.356594e-06	5.997522e-09	3.831046e+01	3.953510e+02
1.610000e-06	5.364467e-06	6.002599e-09	3.836676e+01	3.956612e+02
1.620000e-06	5.370502e-06	6.007060e-09	3.840992e+01	3.958911e+02
1.630000e-06	5.374752e-06	6.010683e-09	3.844032e+01	3.960412e+02
1.640000e-06	5.377122e-06	6.013167e-09	3.845727e+01	3.961104e+02
1.650000e-06	5.377504e-06	6.015431e-09	3.846000e+01	3.960965e+02
1.660000e-06	5.376064e-06	6.015974e-09	3.844970e+01	3.959967e+02
1.670000e-06	5.372970e-06	6.011794e-09	3.842757e+01	3.958083e+02
1.680000e-06	5.368183e-06	6.007630e-09	3.839334e+01	3.955296e+02
1.690000e-06	5.361496e-06	6.004914e-09	3.834551e+01	3.951602e+02
1.700000e-06	5.353002e-06	6.000689e-09	3.828476e+01	3.947018e+02
1.710000e-06	5.342939e-06	5.993834e-09	3.821279e+01	3.941585e+02
1.720000e-06	5.331197e-06	5.985497e-09	3.812881e+01	3.935362e+02
1.730000e-06	5.317470e-06	5.978024e-09	3.803063e+01	3.928430e+02
1.740000e-06	5.301699e-06	5.950370e-09	3.791784e+01	3.920875e+02
1.750000e-06	5.283639e-06	5.920244e-09	3.778868e+01	3.912790e+02
1.760000e-06	5.262884e-06	5.924724e-09	3.764023e+01	3.904254e+02
1.770000e-06	5.239832e-06	5.924546e-09	3.747537e+01	3.895333e+02
1.780000e-06	5.215484e-06	5.932931e-09	3.730123e+01	3.886063e+02
1.790000e-06	5.190413e-06	5.923185e-09	3.712193e+01	3.876450e+02
1.800000e-06	5.163967e-06	5.843648e-09	3.693278e+01	3.866468e+02
1.810000e-06	5.135300e-06	5.848567e-09	3.672775e+01	3.856055e+02
1.820000e-06	5.104772e-06	5.841450e-09	3.650942e+01	3.845127e+02
1.830000e-06	5.072584e-06	5.775180e-09	3.627921e+01	3.833580e+02
1.840000e-06	5.038471e-06	5.837928e-09	3.603523e+01	3.821303e+02
1.850000e-06	5.002807e-06	5.846489e-09	3.578016e+01	3.808186e+02
1.860000e-06	4.965393e-06	5.780370e-09	3.551257e+01	3.794137e+02
1.870000e-06	4.926048e-06	5.782854e-09	3.523118e+01	3.779083e+02
1.880000e-06	4.885062e-06	5.719625e-09	3.493804e+01	3.762981e+02
1.890000e-06	4.842269e-06	5.684208e-09	3.463199e+01	3.745819e+02
1.900000e-06	4.797796e-06	5.690506e-09	3.431392e+01	3.727616e+02
1.910000e-06	4.751519e-06	5.657675e-09	3.398295e+01	3.708414e+02
1.920000e-06	4.703256e-06	5.653589e-09	3.363777e+01	3.688276e+02
1.930000e-06	4.653402e-06	5.571198e-09	3.328121e+01	3.667273e+02
1.940000e-06	4.601830e-06	5.543725e-09	3.291237e+01	3.645480e+02
1.950000e-06	4.548186e-06	5.558649e-09	3.252871e+01	3.622958e+02
1.960000e-06	4.492614e-06	5.482558e-09	3.213126e+01	3.599759e+02
1.970000e-06	4.435318e-06	5.456635e-09	3.172147e+01	3.575911e+02
1.980000e-06	4.376567e-06	5.404530e-09	3.130128e+01	3.551422e+02
1.990000e-06	4.316389e-06	5.373123e-09	3.087089e+01	3.526280e+02
2.000000e-06	4.254522e-06	5.367606e-09	3.042842e+01	3.500452e+02
2.010000e-06	4.191020e-06	5.293009e-09	2.997425e+01	3.473895e+02
2.020000e-06	4.126015e-06	5.265326e-09	2.950933e+01	3.446560e+02
2.030000e-06	4.059564e-06	5.210907e-09	2.903407e+01	3.418395e+02
2.040000e-06	3.991750e-06	5.161263e-09	2.854907e+01	3.389355e+02
2.050000e-06	3.922484e-06	5.138522e-09	2.805368e+01	3.359404e+02
2.060000e-06	3.851645e-06	5.093416e-09	2.754703e+01	3.328516e+02
2.070000e-06	3.779411e-06	5.058183e-09	2.703041e+01	3.296678e+02
2.080000e-06	3.705931e-06	4.975569e-09	2.650488e+01	3.263886e+02
2.090000e-06	3.631103e-06	4.911041e-09	2.596971e+01	3.230145e+02
2.100000e-06	3.554824e-06	4.867630e-09	2.542417e+01	3.195464e+02
2.110000e-06	3.476990e-06	4.829885e-09	2.486749e+01	3.159852e+02
2.120000e-06	3.397782e-06	4.786087e-09	2.430100e+01	3.123314e+02
2.130000e-06	3.317428e-06	4.712372e-09	2.372630e+01	3.085851e+02
2.140000e-06	3.235923e-06	4.661069e-09	2.314338e+01	3.047455e+02
2.150000e-06	3.153350e-06	4.593217e-09	2.255281e+01	3.008114e+02
2.160000e-06	3.069816e-06	4.530487e-09	2.195538e+01	2.967807e+02
2.170000e-06	2.985227e-06	4.481221e-09	2.135039e+01	2.926508e+02
2.180000e-06	2.899329e-06	4.419664e-09	2.073605e+01	2.884191e+02
2.190000e-06	2.812120e-06	4.342020e-09	2.011233e+01	2.840829e+02
2.200000e-06	2.723885e-06	4.262813e-09	1.948128e+01	2.796397e+02
2.210000e-06	2.634819e-06	4.208558e-09	1.884427e+01	2.750874e+02
2.220000e-06	2.544854e-06	4.143737e-09	1.820084e+01	2.704245e+02
2.230000e-06	2.453975e-06	4.062093e-09	1.755087e+01	2.656497e+02
2.240000e-06	2.362392e-06	3.983589e-09	1.689587e+01	2.607622e+02
2.250000e-06	2.270085e-06	3.914266e-09	1.623568e+01	2.557615e+02
2.260000e-06	2.176865e-06	3.838195e-09	1.556898e+01	2.506471e+02
2.270000e-06	2.082669e-06	3.758446e-09	1.489528e+01	2.454186e+02
2.280000e-06	1.987498e-06	3.679941e-09	1.421462e+01	2.400752e+02
2.290000e-06	1.891532e-06	3.591236e-09	1.352827e+01	2.346160e+02
2.300000e-06	1.795035e-06	3.494186e-09	1.283812e+01	2.290397e+02
2.310000e-06	1.698122e-06	3.404215e-09	1.214500e+01	2.233446e+02
2.320000e-06	1.600652e-06	3.330193e-09	1.144789e+01	2.175289e+02
2.330000e-06	1.502549e-06	3.250926e-09	1.074626e+01	2.115902e+02
2.340000e-06	1.403969e-06	3.156653e-09	1.004121e+01	2.055262e+02
2.350000e-06	1.304981e-06	3.056272e-09	9.333245e+00	1.993343e+02
2.360000e-06	1.205634e-06	2.956549e-09	8.622715e+00	1.930117e+02
2.370000e-06	1.106091e-06	2.856673e-09	7.910785e+00	1.865556e+02
2.380000e-06	1.006313e-06	2.759323e-09	7.197166e+00	1.799627e+02
2.390000e-06	9.061448e-07	2.662467e-09	6.480763e+00	1.732296e+02
2.400000e-06	8.055510e-07	2.556111e-09	5.761315e+00	1.663528e+02
2.410000e-06	7.046511e-07	2.442532e-09	5.039677e+00	1.593281e+02
2.420000e-06	6.036207e-07	2.329960e-09	4.317106e+00	1.521511e+02
2.430000e-06	5.023388e-07	2.222709e-09	3.592736e+00	1.448168e+02
2.440000e-06	4.007666e-07	2.113565e-09	2.866290e+00	1.373201e+02
2.450000e-06	2.990307e-07	1.994079e-09	2.138673e+00	1.296552e+02
2.460000e-06	1.971011e-07	1.868447e-09	1.409670e+00	1.218159e+02
2.470000e-06	9.497799e-08	1.744446e-09	6.792843e-01	1.137956e+02
2.480000e-06	-7.213517e-09	1.621647e-09	-5.159120e-02	1.055873e+02
2.490000e-06	-1.093691e-07	1.496591e-09	-7.822098e-01	9.718336e+01
2.500000e-06	-2.114939e-07	1.364395e-09	-1.512608e+00	8.857597e+01
2.510000e-06	-3.135956e-07	1.227371e-09	-2.242841e+00	7.975683e+01
2.520000e-06	-4.156018e-07	1.089973e-09	-2.972391e+00	7.071745e+01
2.530000e-06	-5.173781e-07	9.514341e-10	-3.700297e+00	6.144937e+01
2.540000e-06	-6.188810e-07	8.111672e-10	-4.426248e+00	5.194451e+01
2.550000e-06	-7.200765e-07	6.659058e-10	-5.149999e+00	4.219568e+01
2.560000e-06	-8.208989e-07	5.119522e-10	-5.871083e+00	3.219726e+01
2.570000e-06	-9.213603e-07	3.506608e-10	-6.589585e+00	2.194594e+01
2.580000e-06	-1.021502e-06	1.894217e-10	-7.305799e+00	1.144157e+01
2.590000e-06	-1.121283e-06	3.014546e-11	-8.019437e+00	6.880651e-01
2.600000e-06	-1.220677e-06	-1.328196e-10	-8.730304e+00	-1.030581e+01
2.610000e-06	-1.319697e-06	-3.032596e-10	-9.438496e+00	-2.152575e+01
2.620000e-06	-1.418256e-06	-4.776017e-10	-1.014339e+01	-3.295146e+01
2.630000e-06	-1.516388e-06	-6.542916e-10	-1.084524e+01	-4.455649e+01
2.640000e-06	-1.614008e-06	-8.339876e-10	-1.154341e+01	-5.630842e+01
2.650000e-06	-1.710986e-06	-1.014686e-09	-1.223700e+01	-6.816938e+01
2.660000e-06	-1.807403e-06	-1.198186e-09	-1.292657e+01	-8.009694e+01
2.670000e-06	-1.903389e-06	-1.384790e-09	-1.361307e+01	-9.204531e+01
2.680000e-06	-1.998883e-06	-1.571542e-09	-1.429605e+01	-1.039667e+02
2.690000e-06	-2.093540e-06	-1.752865e-09	-1.497303e+01	-1.158128e+02
2.700000e-06	-2.187117e-06	-1.929311e-09	-1.564230e+01	-1.275364e+02
2.710000e-06	-2.279657e-06	-2.104433e-09	-1.630415e+01	-1.390928e+02
2.720000e-06	-2.371372e-06	-2.278896e-09	-1.696009e+01	-1.504409e+02
2.730000e-06	-2.462299e-06	-2.449219e-09	-1.761041e+01	-1.615442e+02
2.740000e-06	-2.552390e-06	-2.611635e-09	-1.825474e+01	-1.723714e+02
2.750000e-06	-2.641552e-06	-2.768870e-09	-1.889243e+01	-1.828966e+02
2.760000e-06	-2.729795e-06	-2.923239e-09	-1.952354e+01	-1.930996e+02
2.770000e-06	-2.817302e-06	-3.077117e-09	-2.014939e+01	-2.029651e+02
2.780000e-06	-2.903893e-06	-3.228057e-09	-2.076869e+01	-2.124827e+02
2.790000e-06	-2.989220e-06	-3.370204e-09	-2.137896e+01	-2.216463e+02
2.800000e-06	-3.073342e-06	-3.502069e-09	-2.198060e+01	-2.304533e+02
2.810000e-06	-3.156467e-06	-3.629169e-09	-2.257511e+01	-2.389046e+02
2.820000e-06	-3.238514e-06	-3.754532e-09	-2.316191e+01	-2.470039e+02
2.830000e-06	-3.319439e-06	-3.875755e-09	-2.374069e+01	-2.547573e+02
2.840000e-06	-3.399378e-06	-3.990848e-09	-2.431241e+01	-2.621737e+02
2.850000e-06	-3.478241e-06	-4.101107e-09	-2.487644e+01	-2.692640e+02
2.860000e-06	-3.555636e-06	-4.205391e-09	-2.542997e+01	-2.760413e+02
2.870000e-06	-3.631424e-06	-4.303906e-09	-2.597201e+01	-2.825207e+02
2.880000e-06	-3.705803e-06	-4.400254e-09	-2.650397e+01	-2.887188e+02
2.890000e-06	-3.778816e-06	-4.492626e-09	-2.702616e+01	-2.946535e+02
2.900000e-06	-3.850523e-06	-4.578889e-09	-2.753901e+01	-3.003430e+02
2.910000e-06	-3.920871e-06	-4.659643e-09	-2.804214e+01	-3.058055e+02
2.920000e-06	-3.989610e-06	-4.738743e-09	-2.853376e+01	-3.110579e+02
2.930000e-06	-4.056824e-06	-4.817757e-09	-2.901448e+01	-3.161157e+02
2.940000e-06	-4.122648e-06	-4.893414e-09	-2.948525e+01	-3.209915e+02
