# Temperatura_=_38.24
# Concentracion g/m^3_=_15000.0
# C_Vs_to_Am_M_A/Vsm_=_65563218390.804596
# pendiente_HvsI_1/m_=_3716.3
# ordenada_HvsI_A/m_=_1297.0
# frecuencia_Hz_=_301598.13094779366

Tiempo_(s)	Campo_(V.s)	Magnetizacion_(V.s)	Campo_(kA/m)	Magnetizacion_(A/m)
0.000000e+00	-5.382264e-06	-5.918657e-09	-3.833701e+01	-3.867053e+02
1.000000e-08	-5.379730e-06	-5.916640e-09	-3.831896e+01	-3.865836e+02
2.000000e-08	-5.375383e-06	-5.910031e-09	-3.828799e+01	-3.863798e+02
3.000000e-08	-5.369411e-06	-5.904626e-09	-3.824546e+01	-3.860919e+02
4.000000e-08	-5.361900e-06	-5.898660e-09	-3.819196e+01	-3.857192e+02
5.000000e-08	-5.352564e-06	-5.890746e-09	-3.812546e+01	-3.852622e+02
6.000000e-08	-5.341189e-06	-5.881188e-09	-3.804444e+01	-3.847234e+02
7.000000e-08	-5.327998e-06	-5.865321e-09	-3.795048e+01	-3.841071e+02
8.000000e-08	-5.312694e-06	-5.856436e-09	-3.784147e+01	-3.834189e+02
9.000000e-08	-5.295061e-06	-5.901254e-09	-3.771588e+01	-3.826658e+02
1.000000e-07	-5.275372e-06	-5.898946e-09	-3.757563e+01	-3.818547e+02
1.100000e-07	-5.253789e-06	-5.841519e-09	-3.742190e+01	-3.809923e+02
1.200000e-07	-5.230497e-06	-5.816623e-09	-3.725600e+01	-3.800836e+02
1.300000e-07	-5.205668e-06	-5.725359e-09	-3.707914e+01	-3.791319e+02
1.400000e-07	-5.179182e-06	-5.710928e-09	-3.689049e+01	-3.781377e+02
1.500000e-07	-5.151092e-06	-5.844875e-09	-3.669041e+01	-3.770990e+02
1.600000e-07	-5.121594e-06	-5.741428e-09	-3.648030e+01	-3.760112e+02
1.700000e-07	-5.090521e-06	-5.726309e-09	-3.625897e+01	-3.748674e+02
1.800000e-07	-5.057356e-06	-5.800888e-09	-3.602274e+01	-3.736597e+02
1.900000e-07	-5.022229e-06	-5.612510e-09	-3.577253e+01	-3.723795e+02
2.000000e-07	-4.985652e-06	-5.623917e-09	-3.551201e+01	-3.710185e+02
2.100000e-07	-4.947404e-06	-5.677512e-09	-3.523957e+01	-3.695699e+02
2.200000e-07	-4.907352e-06	-5.564037e-09	-3.495429e+01	-3.680288e+02
2.300000e-07	-4.865387e-06	-5.588794e-09	-3.465538e+01	-3.663928e+02
2.400000e-07	-4.821460e-06	-5.580369e-09	-3.434249e+01	-3.646619e+02
2.500000e-07	-4.775731e-06	-5.511239e-09	-3.401677e+01	-3.628386e+02
2.600000e-07	-4.728113e-06	-5.518266e-09	-3.367760e+01	-3.609274e+02
2.700000e-07	-4.678480e-06	-5.469971e-09	-3.332407e+01	-3.589337e+02
2.800000e-07	-4.626766e-06	-5.458499e-09	-3.295572e+01	-3.568636e+02
2.900000e-07	-4.573125e-06	-5.425905e-09	-3.257364e+01	-3.547226e+02
3.000000e-07	-4.517898e-06	-5.358004e-09	-3.218026e+01	-3.525154e+02
3.100000e-07	-4.461056e-06	-5.331730e-09	-3.177539e+01	-3.502448e+02
3.200000e-07	-4.402360e-06	-5.313699e-09	-3.135731e+01	-3.479118e+02
3.300000e-07	-4.342040e-06	-5.279161e-09	-3.092766e+01	-3.455154e+02
3.400000e-07	-4.280305e-06	-5.204109e-09	-3.048793e+01	-3.430531e+02
3.500000e-07	-4.217200e-06	-5.182980e-09	-3.003844e+01	-3.405208e+02
3.600000e-07	-4.152570e-06	-5.166071e-09	-2.957810e+01	-3.379137e+02
3.700000e-07	-4.086214e-06	-5.112348e-09	-2.910545e+01	-3.352270e+02
3.800000e-07	-4.018310e-06	-5.083647e-09	-2.862178e+01	-3.324561e+02
3.900000e-07	-3.949047e-06	-5.031973e-09	-2.812844e+01	-3.295971e+02
4.000000e-07	-3.878540e-06	-4.965400e-09	-2.762622e+01	-3.266476e+02
4.100000e-07	-3.806801e-06	-4.910583e-09	-2.711524e+01	-3.236059e+02
4.200000e-07	-3.733648e-06	-4.877295e-09	-2.659418e+01	-3.204715e+02
4.300000e-07	-3.658906e-06	-4.852733e-09	-2.606180e+01	-3.172447e+02
4.400000e-07	-3.582637e-06	-4.802060e-09	-2.551855e+01	-3.139265e+02
4.500000e-07	-3.504941e-06	-4.741015e-09	-2.496514e+01	-3.105176e+02
4.600000e-07	-3.425800e-06	-4.674614e-09	-2.440142e+01	-3.070186e+02
4.700000e-07	-3.345332e-06	-4.620228e-09	-2.382826e+01	-3.034296e+02
4.800000e-07	-3.263671e-06	-4.570606e-09	-2.324661e+01	-2.997500e+02
4.900000e-07	-3.180918e-06	-4.510259e-09	-2.265717e+01	-2.959784e+02
5.000000e-07	-3.097131e-06	-4.454891e-09	-2.206037e+01	-2.921129e+02
5.100000e-07	-3.012406e-06	-4.388525e-09	-2.145689e+01	-2.881511e+02
5.200000e-07	-2.926743e-06	-4.319800e-09	-2.084673e+01	-2.840904e+02
5.300000e-07	-2.840102e-06	-4.257437e-09	-2.022959e+01	-2.799284e+02
5.400000e-07	-2.752603e-06	-4.198970e-09	-1.960635e+01	-2.756627e+02
5.500000e-07	-2.664143e-06	-4.135862e-09	-1.897626e+01	-2.712917e+02
5.600000e-07	-2.574508e-06	-4.059647e-09	-1.833781e+01	-2.668139e+02
5.700000e-07	-2.483755e-06	-3.987620e-09	-1.769139e+01	-2.622284e+02
5.800000e-07	-2.392041e-06	-3.921351e-09	-1.703812e+01	-2.575344e+02
5.900000e-07	-2.299510e-06	-3.850843e-09	-1.637904e+01	-2.527311e+02
6.000000e-07	-2.206194e-06	-3.766158e-09	-1.571437e+01	-2.478177e+02
6.100000e-07	-2.112091e-06	-3.682625e-09	-1.504409e+01	-2.427930e+02
6.200000e-07	-2.017332e-06	-3.606244e-09	-1.436914e+01	-2.376553e+02
6.300000e-07	-1.921905e-06	-3.528741e-09	-1.368943e+01	-2.324025e+02
6.400000e-07	-1.825747e-06	-3.453990e-09	-1.300451e+01	-2.270321e+02
6.500000e-07	-1.728817e-06	-3.378248e-09	-1.231409e+01	-2.215413e+02
6.600000e-07	-1.631087e-06	-3.291540e-09	-1.161798e+01	-2.159272e+02
6.700000e-07	-1.532730e-06	-3.190203e-09	-1.091739e+01	-2.101870e+02
6.800000e-07	-1.433829e-06	-3.091021e-09	-1.021294e+01	-2.043181e+02
6.900000e-07	-1.334380e-06	-3.001049e-09	-9.504573e+00	-1.983184e+02
7.000000e-07	-1.234482e-06	-2.912755e-09	-8.793021e+00	-1.921861e+02
7.100000e-07	-1.134214e-06	-2.818205e-09	-8.078823e+00	-1.859197e+02
7.200000e-07	-1.033668e-06	-2.717498e-09	-7.362652e+00	-1.795180e+02
7.300000e-07	-9.328869e-07	-2.616423e-09	-6.644804e+00	-1.729794e+02
7.400000e-07	-8.318191e-07	-2.515973e-09	-5.924915e+00	-1.663023e+02
7.500000e-07	-7.304200e-07	-2.417075e-09	-5.202665e+00	-1.594840e+02
7.600000e-07	-6.287015e-07	-2.315479e-09	-4.478140e+00	-1.525211e+02
7.700000e-07	-5.267522e-07	-2.205820e-09	-3.751972e+00	-1.454093e+02
7.800000e-07	-4.246649e-07	-2.089430e-09	-3.024820e+00	-1.381427e+02
7.900000e-07	-3.223941e-07	-1.973094e-09	-2.296362e+00	-1.307147e+02
8.000000e-07	-2.199975e-07	-1.859630e-09	-1.567007e+00	-1.231173e+02
8.100000e-07	-1.175526e-07	-1.745453e-09	-8.373083e-01	-1.153422e+02
8.200000e-07	-1.504471e-08	-1.624465e-09	-1.071611e-01	-1.073800e+02
8.300000e-07	8.746105e-08	-1.495719e-09	6.229711e-01	-9.922167e+01
8.400000e-07	1.899474e-07	-1.366774e-09	1.352965e+00	-9.085776e+01
8.500000e-07	2.923953e-07	-1.240006e-09	2.082685e+00	-8.227939e+01
8.600000e-07	3.947224e-07	-1.110061e-09	2.811545e+00	-7.347817e+01
8.700000e-07	4.969636e-07	-9.706625e-10	3.539793e+00	-6.444651e+01
8.800000e-07	5.991359e-07	-8.235409e-10	4.267550e+00	-5.517783e+01
8.900000e-07	7.010747e-07	-6.741995e-10	4.993643e+00	-4.566680e+01
9.000000e-07	8.027278e-07	-5.229509e-10	5.717702e+00	-3.590972e+01
9.100000e-07	9.040721e-07	-3.696739e-10	6.439561e+00	-2.590489e+01
9.200000e-07	1.005062e-06	-2.140218e-10	7.158898e+00	-1.565313e+01
9.300000e-07	1.105760e-06	-5.334505e-11	7.876155e+00	-5.158380e+00
9.400000e-07	1.206181e-06	1.130872e-10	8.591433e+00	5.571677e+00
9.500000e-07	1.306271e-06	2.808248e-10	9.304363e+00	1.652496e+01
9.600000e-07	1.405877e-06	4.487865e-10	1.001384e+01	2.768444e+01
9.700000e-07	1.504894e-06	6.197650e-10	1.071912e+01	3.902772e+01
9.800000e-07	1.603293e-06	7.960837e-10	1.142000e+01	5.052685e+01
9.900000e-07	1.700976e-06	9.765393e-10	1.211578e+01	6.214846e+01
1.000000e-06	1.797826e-06	1.156888e-09	1.280563e+01	7.385420e+01
1.010000e-06	1.893881e-06	1.335984e-09	1.348982e+01	8.560147e+01
1.020000e-06	1.989256e-06	1.513387e-09	1.416915e+01	9.734461e+01
1.030000e-06	2.083966e-06	1.689420e-09	1.484376e+01	1.090362e+02
1.040000e-06	2.177937e-06	1.865758e-09	1.551310e+01	1.206284e+02
1.050000e-06	2.271108e-06	2.040695e-09	1.617674e+01	1.320749e+02
1.060000e-06	2.363606e-06	2.212633e-09	1.683559e+01	1.433320e+02
1.070000e-06	2.455413e-06	2.379845e-09	1.748952e+01	1.543601e+02
1.080000e-06	2.546320e-06	2.543164e-09	1.813703e+01	1.651246e+02
1.090000e-06	2.636195e-06	2.704567e-09	1.877720e+01	1.755967e+02
1.100000e-06	2.724971e-06	2.862731e-09	1.940954e+01	1.857537e+02
1.110000e-06	2.812740e-06	3.012890e-09	2.003470e+01	1.955787e+02
1.120000e-06	2.899624e-06	3.155587e-09	2.065356e+01	2.050606e+02
1.130000e-06	2.985545e-06	3.291633e-09	2.126556e+01	2.141932e+02
1.140000e-06	3.070499e-06	3.422853e-09	2.187067e+01	2.229747e+02
1.150000e-06	3.154567e-06	3.551235e-09	2.246947e+01	2.314067e+02
1.160000e-06	3.237655e-06	3.674434e-09	2.306130e+01	2.394938e+02
1.170000e-06	3.319577e-06	3.790472e-09	2.364482e+01	2.472429e+02
1.180000e-06	3.400222e-06	3.900108e-09	2.421924e+01	2.546624e+02
1.190000e-06	3.479631e-06	4.006305e-09	2.478486e+01	2.617624e+02
1.200000e-06	3.557825e-06	4.110201e-09	2.534182e+01	2.685543e+02
1.210000e-06	3.634762e-06	4.211600e-09	2.588983e+01	2.750507e+02
1.220000e-06	3.710380e-06	4.307425e-09	2.642845e+01	2.812651e+02
1.230000e-06	3.784458e-06	4.395454e-09	2.695609e+01	2.872123e+02
1.240000e-06	3.856946e-06	4.476871e-09	2.747241e+01	2.929075e+02
1.250000e-06	3.928016e-06	4.558388e-09	2.797863e+01	2.983664e+02
1.260000e-06	3.997704e-06	4.640608e-09	2.847501e+01	3.036045e+02
1.270000e-06	4.066033e-06	4.719769e-09	2.896170e+01	3.086365e+02
1.280000e-06	4.132906e-06	4.793198e-09	2.943803e+01	3.134758e+02
1.290000e-06	4.198073e-06	4.862763e-09	2.990221e+01	3.181337e+02
1.300000e-06	4.261634e-06	4.930930e-09	3.035494e+01	3.226191e+02
1.310000e-06	4.323805e-06	4.996985e-09	3.079777e+01	3.269381e+02
1.320000e-06	4.384557e-06	5.060055e-09	3.123050e+01	3.310939e+02
1.330000e-06	4.443914e-06	5.119331e-09	3.165329e+01	3.350873e+02
1.340000e-06	4.501604e-06	5.175592e-09	3.206421e+01	3.389169e+02
1.350000e-06	4.557469e-06	5.229648e-09	3.246212e+01	3.425798e+02
1.360000e-06	4.611712e-06	5.281884e-09	3.284849e+01	3.460728e+02
1.370000e-06	4.664264e-06	5.329664e-09	3.322281e+01	3.493927e+02
1.380000e-06	4.714881e-06	5.373070e-09	3.358335e+01	3.525376e+02
1.390000e-06	4.763488e-06	5.416022e-09	3.392956e+01	3.555074e+02
1.400000e-06	4.810337e-06	5.458418e-09	3.426326e+01	3.583041e+02
1.410000e-06	4.855618e-06	5.498333e-09	3.458579e+01	3.609318e+02
1.420000e-06	4.899387e-06	5.534682e-09	3.489755e+01	3.633969e+02
1.430000e-06	4.941332e-06	5.566868e-09	3.519632e+01	3.657074e+02
1.440000e-06	4.981337e-06	5.596163e-09	3.548127e+01	3.678721e+02
1.450000e-06	5.019651e-06	5.624402e-09	3.575418e+01	3.699003e+02
1.460000e-06	5.056349e-06	5.652031e-09	3.601557e+01	3.718006e+02
1.470000e-06	5.091323e-06	5.678851e-09	3.626468e+01	3.735805e+02
1.480000e-06	5.124336e-06	5.703872e-09	3.649982e+01	3.752457e+02
1.490000e-06	5.155521e-06	5.725755e-09	3.672195e+01	3.768004e+02
1.500000e-06	5.185041e-06	5.745714e-09	3.693222e+01	3.782468e+02
1.510000e-06	5.212954e-06	5.764583e-09	3.713104e+01	3.795858e+02
1.520000e-06	5.238959e-06	5.783084e-09	3.731627e+01	3.808173e+02
1.530000e-06	5.262839e-06	5.800469e-09	3.748637e+01	3.819409e+02
1.540000e-06	5.284862e-06	5.816958e-09	3.764323e+01	3.829563e+02
1.550000e-06	5.305169e-06	5.832006e-09	3.778787e+01	3.838642e+02
1.560000e-06	5.323641e-06	5.844246e-09	3.791945e+01	3.846661e+02
1.570000e-06	5.340132e-06	5.854330e-09	3.803691e+01	3.853650e+02
1.580000e-06	5.354623e-06	5.863148e-09	3.814013e+01	3.859648e+02
1.590000e-06	5.367156e-06	5.872184e-09	3.822940e+01	3.864703e+02
1.600000e-06	5.377507e-06	5.879752e-09	3.830313e+01	3.868864e+02
1.610000e-06	5.385660e-06	5.886348e-09	3.836119e+01	3.872179e+02
1.620000e-06	5.391913e-06	5.892930e-09	3.840573e+01	3.874688e+02
1.630000e-06	5.396397e-06	5.898846e-09	3.843768e+01	3.876417e+02
1.640000e-06	5.398979e-06	5.901902e-09	3.845606e+01	3.877379e+02
1.650000e-06	5.399531e-06	5.904626e-09	3.846000e+01	3.877572e+02
1.660000e-06	5.398301e-06	5.904422e-09	3.845124e+01	3.876983e+02
1.670000e-06	5.395434e-06	5.899344e-09	3.843082e+01	3.875590e+02
1.680000e-06	5.390827e-06	5.897924e-09	3.839800e+01	3.873371e+02
1.690000e-06	5.384268e-06	5.895992e-09	3.835128e+01	3.870310e+02
1.700000e-06	5.375887e-06	5.892185e-09	3.829159e+01	3.866399e+02
1.710000e-06	5.365979e-06	5.889720e-09	3.822101e+01	3.861650e+02
1.720000e-06	5.354438e-06	5.889341e-09	3.813881e+01	3.856090e+02
1.730000e-06	5.340905e-06	5.898279e-09	3.804241e+01	3.849766e+02
1.740000e-06	5.325319e-06	5.823930e-09	3.793140e+01	3.842738e+02
1.750000e-06	5.307482e-06	5.783695e-09	3.780435e+01	3.835075e+02
1.760000e-06	5.286964e-06	5.816181e-09	3.765820e+01	3.826847e+02
1.770000e-06	5.264070e-06	5.804159e-09	3.749513e+01	3.818118e+02
1.780000e-06	5.239769e-06	5.899368e-09	3.732204e+01	3.808936e+02
1.790000e-06	5.214734e-06	5.845579e-09	3.714372e+01	3.799327e+02
1.800000e-06	5.188430e-06	5.671460e-09	3.695636e+01	3.789291e+02
1.810000e-06	5.159843e-06	5.798120e-09	3.675274e+01	3.778802e+02
1.820000e-06	5.129352e-06	5.715302e-09	3.653556e+01	3.767808e+02
1.830000e-06	5.097351e-06	5.616729e-09	3.630761e+01	3.756240e+02
1.840000e-06	5.063343e-06	5.819035e-09	3.606538e+01	3.744013e+02
1.850000e-06	5.027728e-06	5.685062e-09	3.581171e+01	3.731042e+02
1.860000e-06	4.990380e-06	5.619756e-09	3.554568e+01	3.717248e+02
1.870000e-06	4.951021e-06	5.723514e-09	3.526533e+01	3.702566e+02
1.880000e-06	4.910078e-06	5.542934e-09	3.497370e+01	3.686951e+02
1.890000e-06	4.867336e-06	5.575398e-09	3.466926e+01	3.670385e+02
1.900000e-06	4.822930e-06	5.583987e-09	3.435296e+01	3.652874e+02
1.910000e-06	4.776821e-06	5.495390e-09	3.402453e+01	3.634447e+02
1.920000e-06	4.728635e-06	5.573360e-09	3.368131e+01	3.615152e+02
1.930000e-06	4.678777e-06	5.411886e-09	3.332618e+01	3.595044e+02
1.940000e-06	4.627285e-06	5.415824e-09	3.295941e+01	3.574185e+02
1.950000e-06	4.573715e-06	5.467828e-09	3.257784e+01	3.552629e+02
1.960000e-06	4.518118e-06	5.351802e-09	3.218184e+01	3.530418e+02
1.970000e-06	4.460808e-06	5.345254e-09	3.177362e+01	3.507576e+02
1.980000e-06	4.402007e-06	5.270574e-09	3.135479e+01	3.484110e+02
1.990000e-06	4.341762e-06	5.292889e-09	3.092568e+01	3.460007e+02
2.000000e-06	4.279840e-06	5.250513e-09	3.048462e+01	3.435236e+02
2.010000e-06	4.216250e-06	5.155184e-09	3.003168e+01	3.409755e+02
2.020000e-06	4.151155e-06	5.190555e-09	2.956802e+01	3.383516e+02
2.030000e-06	4.084625e-06	5.084380e-09	2.909413e+01	3.356471e+02
2.040000e-06	4.016719e-06	5.051011e-09	2.861045e+01	3.328574e+02
2.050000e-06	3.947337e-06	5.034210e-09	2.811625e+01	3.299791e+02
2.060000e-06	3.876407e-06	4.998208e-09	2.761103e+01	3.270097e+02
2.070000e-06	3.804094e-06	4.964434e-09	2.709595e+01	3.239480e+02
2.080000e-06	3.730525e-06	4.842719e-09	2.657193e+01	3.207936e+02
2.090000e-06	3.655569e-06	4.816786e-09	2.603803e+01	3.175471e+02
2.100000e-06	3.579184e-06	4.777170e-09	2.549395e+01	3.142092e+02
2.110000e-06	3.501206e-06	4.739089e-09	2.493854e+01	3.107808e+02
2.120000e-06	3.421747e-06	4.688748e-09	2.437256e+01	3.072624e+02
2.130000e-06	3.341191e-06	4.626741e-09	2.379877e+01	3.036539e+02
2.140000e-06	3.259512e-06	4.584068e-09	2.321698e+01	2.999546e+02
2.150000e-06	3.176735e-06	4.490243e-09	2.262738e+01	2.961629e+02
2.160000e-06	3.093010e-06	4.446014e-09	2.203102e+01	2.922768e+02
2.170000e-06	3.008176e-06	4.401809e-09	2.142675e+01	2.882939e+02
2.180000e-06	2.922006e-06	4.340801e-09	2.081298e+01	2.842115e+02
2.190000e-06	2.834618e-06	4.259223e-09	2.019053e+01	2.800273e+02
2.200000e-06	2.746233e-06	4.183552e-09	1.956098e+01	2.757390e+02
2.210000e-06	2.656958e-06	4.141117e-09	1.892509e+01	2.713451e+02
2.220000e-06	2.566762e-06	4.074857e-09	1.828263e+01	2.668442e+02
2.230000e-06	2.475690e-06	3.998396e-09	1.763395e+01	2.622353e+02
2.240000e-06	2.383888e-06	3.922522e-09	1.698006e+01	2.575178e+02
2.250000e-06	2.291309e-06	3.860524e-09	1.632063e+01	2.526908e+02
2.260000e-06	2.197866e-06	3.782858e-09	1.565505e+01	2.477535e+02
2.270000e-06	2.103466e-06	3.703283e-09	1.498265e+01	2.427046e+02
2.280000e-06	2.008070e-06	3.628777e-09	1.430316e+01	2.375423e+02
2.290000e-06	1.911828e-06	3.542073e-09	1.361764e+01	2.322644e+02
2.300000e-06	1.815034e-06	3.449446e-09	1.292820e+01	2.268683e+02
2.310000e-06	1.717813e-06	3.364022e-09	1.223571e+01	2.213511e+02
2.320000e-06	1.620050e-06	3.296766e-09	1.153936e+01	2.157101e+02
2.330000e-06	1.521713e-06	3.220292e-09	1.083892e+01	2.099423e+02
2.340000e-06	1.422847e-06	3.127257e-09	1.013471e+01	2.040454e+02
2.350000e-06	1.323538e-06	3.025806e-09	9.427347e+00	1.980173e+02
2.360000e-06	1.223858e-06	2.928457e-09	8.717344e+00	1.918563e+02
2.370000e-06	1.123967e-06	2.834192e-09	8.005836e+00	1.855608e+02
2.380000e-06	1.023811e-06	2.740623e-09	7.292445e+00	1.791298e+02
2.390000e-06	9.231930e-07	2.645662e-09	6.575757e+00	1.725615e+02
2.400000e-06	8.221434e-07	2.542842e-09	5.855996e+00	1.658542e+02
2.410000e-06	7.207201e-07	2.434676e-09	5.133574e+00	1.590051e+02
2.420000e-06	6.190646e-07	2.323403e-09	4.409498e+00	1.520106e+02
2.430000e-06	5.172159e-07	2.215003e-09	3.684046e+00	1.448660e+02
2.440000e-06	4.151473e-07	2.107212e-09	2.957028e+00	1.375653e+02
2.450000e-06	3.128996e-07	1.993092e-09	2.228734e+00	1.301015e+02
2.460000e-06	2.104723e-07	1.871050e-09	1.499161e+00	1.224666e+02
2.470000e-06	1.079600e-07	1.750695e-09	7.689817e-01	1.146520e+02
2.480000e-06	5.388860e-09	1.633207e-09	3.838399e-02	1.066485e+02
2.490000e-06	-9.719752e-08	1.511295e-09	-6.923225e-01	9.844668e+01
2.500000e-06	-1.997211e-07	1.380890e-09	-1.422581e+00	9.003740e+01
2.510000e-06	-3.021620e-07	1.246556e-09	-2.152251e+00	8.141181e+01
2.520000e-06	-4.045069e-07	1.113331e-09	-2.881238e+00	7.256167e+01
2.530000e-06	-5.067816e-07	9.761371e-10	-3.609725e+00	6.347959e+01
2.540000e-06	-6.088984e-07	8.367415e-10	-4.337086e+00	5.415922e+01
2.550000e-06	-7.107535e-07	6.944951e-10	-5.062584e+00	4.459556e+01
2.560000e-06	-8.122832e-07	5.435435e-10	-5.785764e+00	3.478531e+01
2.570000e-06	-9.134110e-07	3.847430e-10	-6.506081e+00	2.472725e+01
2.580000e-06	-1.014075e-06	2.273779e-10	-7.223093e+00	1.442282e+01
2.590000e-06	-1.114299e-06	7.446765e-11	-7.936973e+00	3.876709e+00
2.600000e-06	-1.214102e-06	-8.452973e-11	-8.647856e+00	-6.902511e+00
2.610000e-06	-1.313486e-06	-2.534888e-10	-9.355752e+00	-1.790174e+01
2.620000e-06	-1.412488e-06	-4.264663e-10	-1.006093e+01	-2.910283e+01
2.630000e-06	-1.511088e-06	-6.012707e-10	-1.076324e+01	-4.048220e+01
2.640000e-06	-1.609143e-06	-7.775711e-10	-1.146167e+01	-5.201072e+01
2.650000e-06	-1.706580e-06	-9.540289e-10	-1.215570e+01	-6.365389e+01
2.660000e-06	-1.803466e-06	-1.132038e-09	-1.284580e+01	-7.537239e+01
2.670000e-06	-1.899799e-06	-1.313447e-09	-1.353197e+01	-8.712286e+01
2.680000e-06	-1.995508e-06	-1.496172e-09	-1.421368e+01	-9.885911e+01
2.690000e-06	-2.090510e-06	-1.674821e-09	-1.489037e+01	-1.105335e+02
2.700000e-06	-2.184687e-06	-1.849221e-09	-1.556118e+01	-1.220985e+02
2.710000e-06	-2.277898e-06	-2.022723e-09	-1.622510e+01	-1.335081e+02
2.720000e-06	-2.370111e-06	-2.195435e-09	-1.688192e+01	-1.447195e+02
2.730000e-06	-2.461421e-06	-2.364187e-09	-1.753231e+01	-1.556940e+02
2.740000e-06	-2.551875e-06	-2.524699e-09	-1.817660e+01	-1.663982e+02
2.750000e-06	-2.641431e-06	-2.678776e-09	-1.881449e+01	-1.768047e+02
2.760000e-06	-2.730120e-06	-2.830337e-09	-1.944621e+01	-1.868919e+02
2.770000e-06	-2.817979e-06	-2.982410e-09	-2.007201e+01	-1.966443e+02
2.780000e-06	-2.904943e-06	-3.132650e-09	-2.069144e+01	-2.060519e+02
2.790000e-06	-2.990851e-06	-3.273725e-09	-2.130336e+01	-2.151094e+02
2.800000e-06	-3.075557e-06	-3.404064e-09	-2.190670e+01	-2.238159e+02
2.810000e-06	-3.159120e-06	-3.528303e-09	-2.250191e+01	-2.321737e+02
2.820000e-06	-3.241620e-06	-3.650564e-09	-2.308954e+01	-2.401879e+02
2.830000e-06	-3.323131e-06	-3.770298e-09	-2.367013e+01	-2.478657e+02
2.840000e-06	-3.403628e-06	-3.887276e-09	-2.424350e+01	-2.552160e+02
2.850000e-06	-3.482970e-06	-3.998509e-09	-2.480864e+01	-2.622491e+02
2.860000e-06	-3.560844e-06	-4.102477e-09	-2.536332e+01	-2.689767e+02
2.870000e-06	-3.637159e-06	-4.200017e-09	-2.590690e+01	-2.754116e+02
2.880000e-06	-3.712030e-06	-4.294227e-09	-2.644020e+01	-2.815677e+02
2.890000e-06	-3.785478e-06	-4.385244e-09	-2.696336e+01	-2.874597e+02
2.900000e-06	-3.857650e-06	-4.469937e-09	-2.747743e+01	-2.931031e+02
2.910000e-06	-3.928472e-06	-4.550240e-09	-2.798188e+01	-2.985136e+02
2.920000e-06	-3.997724e-06	-4.628526e-09	-2.847515e+01	-3.037065e+02
2.930000e-06	-4.065414e-06	-4.706479e-09	-2.895729e+01	-3.086963e+02
2.940000e-06	-4.131688e-06	-4.781336e-09	-2.942936e+01	-3.134960e+02
