# Temperatura_=_30.74
# Concentracion g/m^3_=_15000.0
# C_Vs_to_Am_M_A/Vsm_=_65563218390.804596
# pendiente_HvsI_1/m_=_3716.3
# ordenada_HvsI_A/m_=_1297.0
# frecuencia_Hz_=_301600.2053616566

Tiempo_(s)	Campo_(V.s)	Magnetizacion_(V.s)	Campo_(kA/m)	Magnetizacion_(A/m)
0.000000e+00	-5.373514e-06	-5.753004e-09	-3.833906e+01	-3.759257e+02
1.000000e-08	-5.371037e-06	-5.750944e-09	-3.832139e+01	-3.758063e+02
2.000000e-08	-5.366673e-06	-5.744785e-09	-3.829025e+01	-3.756065e+02
3.000000e-08	-5.360632e-06	-5.739415e-09	-3.824715e+01	-3.753240e+02
4.000000e-08	-5.353072e-06	-5.733555e-09	-3.819321e+01	-3.749580e+02
5.000000e-08	-5.343793e-06	-5.726392e-09	-3.812701e+01	-3.745092e+02
6.000000e-08	-5.332419e-06	-5.716750e-09	-3.804585e+01	-3.739809e+02
7.000000e-08	-5.319103e-06	-5.702506e-09	-3.795085e+01	-3.733786e+02
8.000000e-08	-5.303703e-06	-5.691691e-09	-3.784097e+01	-3.727096e+02
9.000000e-08	-5.286072e-06	-5.718196e-09	-3.771517e+01	-3.719829e+02
1.000000e-07	-5.266422e-06	-5.720526e-09	-3.757497e+01	-3.712074e+02
1.100000e-07	-5.244840e-06	-5.676636e-09	-3.742099e+01	-3.703917e+02
1.200000e-07	-5.221509e-06	-5.647400e-09	-3.725453e+01	-3.695422e+02
1.300000e-07	-5.196612e-06	-5.587103e-09	-3.707690e+01	-3.686628e+02
1.400000e-07	-5.170137e-06	-5.570871e-09	-3.688800e+01	-3.677539e+02
1.500000e-07	-5.142020e-06	-5.666475e-09	-3.668739e+01	-3.668123e+02
1.600000e-07	-5.112453e-06	-5.602595e-09	-3.647644e+01	-3.658313e+02
1.700000e-07	-5.081382e-06	-5.553003e-09	-3.625475e+01	-3.648016e+02
1.800000e-07	-5.048208e-06	-5.592075e-09	-3.601806e+01	-3.637116e+02
1.900000e-07	-5.013082e-06	-5.490789e-09	-3.576744e+01	-3.625495e+02
2.000000e-07	-4.976555e-06	-5.505673e-09	-3.550683e+01	-3.613039e+02
2.100000e-07	-4.938352e-06	-5.538425e-09	-3.523426e+01	-3.599650e+02
2.200000e-07	-4.898289e-06	-5.425900e-09	-3.494842e+01	-3.585262e+02
2.300000e-07	-4.856271e-06	-5.415492e-09	-3.464862e+01	-3.569840e+02
2.400000e-07	-4.812340e-06	-5.429520e-09	-3.433518e+01	-3.553386e+02
2.500000e-07	-4.766707e-06	-5.397908e-09	-3.400960e+01	-3.535936e+02
2.600000e-07	-4.719204e-06	-5.393562e-09	-3.367068e+01	-3.517551e+02
2.700000e-07	-4.669642e-06	-5.318712e-09	-3.331706e+01	-3.498311e+02
2.800000e-07	-4.617956e-06	-5.284690e-09	-3.294828e+01	-3.478301e+02
2.900000e-07	-4.564344e-06	-5.280262e-09	-3.256578e+01	-3.457603e+02
3.000000e-07	-4.509164e-06	-5.241025e-09	-3.217208e+01	-3.436281e+02
3.100000e-07	-4.452371e-06	-5.209809e-09	-3.176687e+01	-3.414380e+02
3.200000e-07	-4.393699e-06	-5.173885e-09	-3.134826e+01	-3.391915e+02
3.300000e-07	-4.333409e-06	-5.129419e-09	-3.091810e+01	-3.368877e+02
3.400000e-07	-4.271731e-06	-5.080260e-09	-3.047803e+01	-3.345232e+02
3.500000e-07	-4.208646e-06	-5.071607e-09	-3.002794e+01	-3.320931e+02
3.600000e-07	-4.144098e-06	-5.046390e-09	-2.956739e+01	-3.295914e+02
3.700000e-07	-4.077889e-06	-4.972019e-09	-2.909501e+01	-3.270121e+02
3.800000e-07	-4.010074e-06	-4.926029e-09	-2.861116e+01	-3.243500e+02
3.900000e-07	-3.940892e-06	-4.891797e-09	-2.811756e+01	-3.216012e+02
4.000000e-07	-3.870467e-06	-4.852983e-09	-2.761509e+01	-3.187634e+02
4.100000e-07	-3.798865e-06	-4.812697e-09	-2.710422e+01	-3.158361e+02
4.200000e-07	-3.725912e-06	-4.762498e-09	-2.658371e+01	-3.128203e+02
4.300000e-07	-3.651281e-06	-4.716244e-09	-2.605123e+01	-3.097178e+02
4.400000e-07	-3.574995e-06	-4.664585e-09	-2.550695e+01	-3.065310e+02
4.500000e-07	-3.497353e-06	-4.623135e-09	-2.495299e+01	-3.032620e+02
4.600000e-07	-3.418359e-06	-4.584313e-09	-2.438938e+01	-2.999120e+02
4.700000e-07	-3.338013e-06	-4.526511e-09	-2.381612e+01	-2.964808e+02
4.800000e-07	-3.256487e-06	-4.457218e-09	-2.323445e+01	-2.929669e+02
4.900000e-07	-3.173838e-06	-4.395724e-09	-2.264477e+01	-2.893672e+02
5.000000e-07	-3.090173e-06	-4.349798e-09	-2.204783e+01	-2.856774e+02
5.100000e-07	-3.005600e-06	-4.292671e-09	-2.144442e+01	-2.818925e+02
5.200000e-07	-2.920067e-06	-4.228156e-09	-2.083415e+01	-2.780073e+02
5.300000e-07	-2.833486e-06	-4.161607e-09	-2.021642e+01	-2.740168e+02
5.400000e-07	-2.746001e-06	-4.096858e-09	-1.959222e+01	-2.699172e+02
5.500000e-07	-2.657663e-06	-4.040249e-09	-1.896195e+01	-2.657055e+02
5.600000e-07	-2.568210e-06	-3.981303e-09	-1.832372e+01	-2.613805e+02
5.700000e-07	-2.477563e-06	-3.912675e-09	-1.767697e+01	-2.569419e+02
5.800000e-07	-2.385985e-06	-3.832530e-09	-1.702358e+01	-2.523906e+02
5.900000e-07	-2.293612e-06	-3.755958e-09	-1.636451e+01	-2.477281e+02
6.000000e-07	-2.200414e-06	-3.687518e-09	-1.569956e+01	-2.429562e+02
6.100000e-07	-2.106429e-06	-3.621155e-09	-1.502899e+01	-2.380759e+02
6.200000e-07	-2.011737e-06	-3.549750e-09	-1.435338e+01	-2.330876e+02
6.300000e-07	-1.916344e-06	-3.469355e-09	-1.367277e+01	-2.279909e+02
6.400000e-07	-1.820295e-06	-3.384609e-09	-1.298748e+01	-2.227837e+02
6.500000e-07	-1.723603e-06	-3.302778e-09	-1.229760e+01	-2.174631e+02
6.600000e-07	-1.626158e-06	-3.222830e-09	-1.160234e+01	-2.120253e+02
6.700000e-07	-1.527967e-06	-3.136062e-09	-1.090177e+01	-2.064660e+02
6.800000e-07	-1.429113e-06	-3.042398e-09	-1.019646e+01	-2.007809e+02
6.900000e-07	-1.329781e-06	-2.947612e-09	-9.487750e+00	-1.949658e+02
7.000000e-07	-1.230089e-06	-2.859815e-09	-8.776465e+00	-1.890174e+02
7.100000e-07	-1.130060e-06	-2.773844e-09	-8.062779e+00	-1.829332e+02
7.200000e-07	-1.029733e-06	-2.681045e-09	-7.346957e+00	-1.767114e+02
7.300000e-07	-9.290983e-07	-2.583071e-09	-6.628950e+00	-1.703511e+02
7.400000e-07	-8.281283e-07	-2.481594e-09	-5.908547e+00	-1.638517e+02
7.500000e-07	-7.268807e-07	-2.379956e-09	-5.186163e+00	-1.572127e+02
7.600000e-07	-6.253666e-07	-2.279169e-09	-4.461879e+00	-1.504332e+02
7.700000e-07	-5.236116e-07	-2.175302e-09	-3.735875e+00	-1.435114e+02
7.800000e-07	-4.217595e-07	-2.063994e-09	-3.009179e+00	-1.364444e+02
7.900000e-07	-3.198077e-07	-1.948221e-09	-2.281771e+00	-1.292282e+02
8.000000e-07	-2.176992e-07	-1.834933e-09	-1.553245e+00	-1.218571e+02
8.100000e-07	-1.154568e-07	-1.726256e-09	-8.237634e-01	-1.143241e+02
8.200000e-07	-1.313016e-08	-1.615480e-09	-9.368136e-02	-1.066214e+02
8.300000e-07	8.918350e-08	-1.496532e-09	6.363082e-01	-9.873993e+01
8.400000e-07	1.914617e-07	-1.370949e-09	1.366045e+00	-9.067043e+01
8.500000e-07	2.937442e-07	-1.243422e-09	2.095812e+00	-8.240341e+01
8.600000e-07	3.959607e-07	-1.114919e-09	2.825108e+00	-7.392962e+01
8.700000e-07	4.980487e-07	-9.826734e-10	3.553488e+00	-6.524042e+01
8.800000e-07	6.000207e-07	-8.460893e-10	4.281040e+00	-5.632801e+01
8.900000e-07	7.018245e-07	-7.041179e-10	5.007392e+00	-4.718579e+01
9.000000e-07	8.033416e-07	-5.577439e-10	5.731698e+00	-3.780867e+01
9.100000e-07	9.045434e-07	-4.103157e-10	6.453755e+00	-2.819343e+01
9.200000e-07	1.005392e-06	-2.628920e-10	7.173291e+00	-1.833921e+01
9.300000e-07	1.105893e-06	-1.103505e-10	7.890351e+00	-8.248002e+00
9.400000e-07	1.206088e-06	4.845425e-11	8.605222e+00	2.074774e+00
9.500000e-07	1.305960e-06	2.110817e-10	9.317792e+00	1.261963e+01
9.600000e-07	1.405403e-06	3.749416e-10	1.002730e+01	2.337243e+01
9.700000e-07	1.504263e-06	5.400652e-10	1.073265e+01	3.431394e+01
9.800000e-07	1.602437e-06	7.095601e-10	1.143310e+01	4.541949e+01
9.900000e-07	1.699805e-06	8.832577e-10	1.212781e+01	5.665897e+01
1.000000e-06	1.796383e-06	1.058781e-09	1.281687e+01	6.799709e+01
1.010000e-06	1.892283e-06	1.234993e-09	1.350110e+01	7.939399e+01
1.020000e-06	1.987525e-06	1.409565e-09	1.418063e+01	9.080619e+01
1.030000e-06	2.082034e-06	1.581029e-09	1.485494e+01	1.021879e+02
1.040000e-06	2.175825e-06	1.751757e-09	1.552412e+01	1.134922e+02
1.050000e-06	2.268907e-06	1.922589e-09	1.618825e+01	1.246731e+02
1.060000e-06	2.361284e-06	2.091620e-09	1.684734e+01	1.356867e+02
1.070000e-06	2.452991e-06	2.255399e-09	1.750165e+01	1.464924e+02
1.080000e-06	2.543842e-06	2.415790e-09	1.814986e+01	1.570546e+02
1.090000e-06	2.633553e-06	2.575593e-09	1.878993e+01	1.673430e+02
1.100000e-06	2.722115e-06	2.731307e-09	1.942180e+01	1.773335e+02
1.110000e-06	2.809713e-06	2.878867e-09	2.004680e+01	1.870077e+02
1.120000e-06	2.896392e-06	3.019552e-09	2.066523e+01	1.963530e+02
1.130000e-06	2.982129e-06	3.155473e-09	2.127696e+01	2.053621e+02
1.140000e-06	3.066943e-06	3.287439e-09	2.188209e+01	2.140318e+02
1.150000e-06	3.150895e-06	3.413217e-09	2.248107e+01	2.223628e+02
1.160000e-06	3.233874e-06	3.532712e-09	2.307311e+01	2.303586e+02
1.170000e-06	3.315648e-06	3.647243e-09	2.365656e+01	2.380249e+02
1.180000e-06	3.396196e-06	3.757957e-09	2.423125e+01	2.453692e+02
1.190000e-06	3.475528e-06	3.864949e-09	2.479727e+01	2.524004e+02
1.200000e-06	3.553558e-06	3.967877e-09	2.535400e+01	2.591288e+02
1.210000e-06	3.630288e-06	4.067822e-09	2.590145e+01	2.655659e+02
1.220000e-06	3.705643e-06	4.162385e-09	2.643910e+01	2.717245e+02
1.230000e-06	3.779443e-06	4.251019e-09	2.696565e+01	2.776183e+02
1.240000e-06	3.851696e-06	4.334612e-09	2.748116e+01	2.832621e+02
1.250000e-06	3.922556e-06	4.415390e-09	2.798673e+01	2.886712e+02
1.260000e-06	3.992045e-06	4.494719e-09	2.848252e+01	2.938611e+02
1.270000e-06	4.060246e-06	4.571567e-09	2.896913e+01	2.988465e+02
1.280000e-06	4.127024e-06	4.645704e-09	2.944558e+01	3.036411e+02
1.290000e-06	4.192096e-06	4.717003e-09	2.990985e+01	3.082564e+02
1.300000e-06	4.255613e-06	4.785046e-09	3.036304e+01	3.127013e+02
1.310000e-06	4.317706e-06	4.849148e-09	3.080606e+01	3.169820e+02
1.320000e-06	4.378384e-06	4.909836e-09	3.123899e+01	3.211015e+02
1.330000e-06	4.437685e-06	4.967754e-09	3.166209e+01	3.250598e+02
1.340000e-06	4.495310e-06	5.023280e-09	3.207323e+01	3.288549e+02
1.350000e-06	4.551111e-06	5.076659e-09	3.247136e+01	3.324828e+02
1.360000e-06	4.605274e-06	5.126767e-09	3.285781e+01	3.359392e+02
1.370000e-06	4.657717e-06	5.174538e-09	3.323198e+01	3.392200e+02
1.380000e-06	4.708145e-06	5.221744e-09	3.359177e+01	3.423227e+02
1.390000e-06	4.756590e-06	5.267183e-09	3.393742e+01	3.452466e+02
1.400000e-06	4.803351e-06	5.308981e-09	3.427105e+01	3.479940e+02
1.410000e-06	4.848531e-06	5.345197e-09	3.459340e+01	3.505696e+02
1.420000e-06	4.892200e-06	5.377767e-09	3.490497e+01	3.529810e+02
1.430000e-06	4.934048e-06	5.408405e-09	3.520355e+01	3.552376e+02
1.440000e-06	4.973956e-06	5.438103e-09	3.548829e+01	3.573501e+02
1.450000e-06	5.012214e-06	5.468576e-09	3.576125e+01	3.593294e+02
1.460000e-06	5.048854e-06	5.497256e-09	3.602267e+01	3.611858e+02
1.470000e-06	5.083832e-06	5.522760e-09	3.627223e+01	3.629280e+02
1.480000e-06	5.116859e-06	5.545848e-09	3.650787e+01	3.645626e+02
1.490000e-06	5.147937e-06	5.569192e-09	3.672961e+01	3.660939e+02
1.500000e-06	5.177348e-06	5.591522e-09	3.693945e+01	3.675237e+02
1.510000e-06	5.205173e-06	5.610641e-09	3.713798e+01	3.688520e+02
1.520000e-06	5.231060e-06	5.627493e-09	3.732268e+01	3.700773e+02
1.530000e-06	5.254825e-06	5.643124e-09	3.749223e+01	3.711975e+02
1.540000e-06	5.276710e-06	5.657960e-09	3.764838e+01	3.722109e+02
1.550000e-06	5.296906e-06	5.671455e-09	3.779247e+01	3.731167e+02
1.560000e-06	5.315329e-06	5.683488e-09	3.792392e+01	3.739155e+02
1.570000e-06	5.331701e-06	5.694275e-09	3.804073e+01	3.746095e+02
1.580000e-06	5.346078e-06	5.703762e-09	3.814331e+01	3.752026e+02
1.590000e-06	5.358515e-06	5.713646e-09	3.823205e+01	3.756999e+02
1.600000e-06	5.368756e-06	5.724746e-09	3.830511e+01	3.761070e+02
1.610000e-06	5.376838e-06	5.733508e-09	3.836278e+01	3.764296e+02
1.620000e-06	5.383045e-06	5.738070e-09	3.840706e+01	3.766725e+02
1.630000e-06	5.387471e-06	5.739377e-09	3.843864e+01	3.768392e+02
1.640000e-06	5.389996e-06	5.739198e-09	3.845665e+01	3.769314e+02
1.650000e-06	5.390465e-06	5.741681e-09	3.846000e+01	3.769491e+02
1.660000e-06	5.389096e-06	5.743525e-09	3.845023e+01	3.768909e+02
1.670000e-06	5.386110e-06	5.740768e-09	3.842893e+01	3.767543e+02
1.680000e-06	5.381523e-06	5.739303e-09	3.839620e+01	3.765368e+02
1.690000e-06	5.375080e-06	5.737631e-09	3.835023e+01	3.762364e+02
1.700000e-06	5.366779e-06	5.734731e-09	3.829101e+01	3.758523e+02
1.710000e-06	5.356886e-06	5.730784e-09	3.822042e+01	3.753860e+02
1.720000e-06	5.345320e-06	5.727472e-09	3.813790e+01	3.748411e+02
1.730000e-06	5.331820e-06	5.729124e-09	3.804158e+01	3.742237e+02
1.740000e-06	5.316264e-06	5.678312e-09	3.793059e+01	3.735414e+02
1.750000e-06	5.298401e-06	5.638376e-09	3.780314e+01	3.728033e+02
1.760000e-06	5.277889e-06	5.656016e-09	3.765679e+01	3.720184e+02
1.770000e-06	5.254966e-06	5.657752e-09	3.749324e+01	3.711948e+02
1.780000e-06	5.230639e-06	5.719025e-09	3.731967e+01	3.703386e+02
1.790000e-06	5.205651e-06	5.685648e-09	3.714138e+01	3.694528e+02
1.800000e-06	5.179395e-06	5.541293e-09	3.695405e+01	3.685371e+02
1.810000e-06	5.150962e-06	5.609124e-09	3.675119e+01	3.675876e+02
1.820000e-06	5.120571e-06	5.583094e-09	3.653435e+01	3.665969e+02
1.830000e-06	5.088531e-06	5.504733e-09	3.630576e+01	3.655551e+02
1.840000e-06	5.054580e-06	5.612625e-09	3.606352e+01	3.644506e+02
1.850000e-06	5.019006e-06	5.523388e-09	3.580970e+01	3.632713e+02
1.860000e-06	4.981714e-06	5.465614e-09	3.554363e+01	3.620063e+02
1.870000e-06	4.942461e-06	5.554791e-09	3.526357e+01	3.606463e+02
1.880000e-06	4.901570e-06	5.450841e-09	3.497182e+01	3.591854e+02
1.890000e-06	4.858861e-06	5.439776e-09	3.466710e+01	3.576208e+02
1.900000e-06	4.814469e-06	5.419023e-09	3.435037e+01	3.559535e+02
1.910000e-06	4.768319e-06	5.332370e-09	3.402110e+01	3.541877e+02
1.920000e-06	4.720089e-06	5.404744e-09	3.367699e+01	3.523300e+02
1.930000e-06	4.670230e-06	5.314932e-09	3.332125e+01	3.503886e+02
1.940000e-06	4.618712e-06	5.282349e-09	3.295368e+01	3.483721e+02
1.950000e-06	4.565129e-06	5.308344e-09	3.257138e+01	3.462883e+02
1.960000e-06	4.509567e-06	5.205068e-09	3.217495e+01	3.441433e+02
1.970000e-06	4.452302e-06	5.193638e-09	3.176638e+01	3.419409e+02
1.980000e-06	4.393606e-06	5.167903e-09	3.134759e+01	3.396821e+02
1.990000e-06	4.333415e-06	5.159757e-09	3.091814e+01	3.373655e+02
2.000000e-06	4.271519e-06	5.103544e-09	3.047652e+01	3.349873e+02
2.010000e-06	4.208005e-06	5.020026e-09	3.002336e+01	3.325422e+02
2.020000e-06	4.142965e-06	5.051772e-09	2.955931e+01	3.300242e+02
2.030000e-06	4.076481e-06	4.983947e-09	2.908496e+01	3.274275e+02
2.040000e-06	4.008652e-06	4.943844e-09	2.860102e+01	3.247469e+02
2.050000e-06	3.939475e-06	4.914630e-09	2.810745e+01	3.219790e+02
2.060000e-06	3.868717e-06	4.850061e-09	2.760260e+01	3.191219e+02
2.070000e-06	3.796447e-06	4.818675e-09	2.708697e+01	3.161753e+02
2.080000e-06	3.722942e-06	4.744008e-09	2.656252e+01	3.131406e+02
2.090000e-06	3.648054e-06	4.728694e-09	2.602821e+01	3.100197e+02
2.100000e-06	3.571683e-06	4.680531e-09	2.548332e+01	3.068150e+02
2.110000e-06	3.493768e-06	4.605886e-09	2.492741e+01	3.035285e+02
2.120000e-06	3.414431e-06	4.561171e-09	2.436135e+01	3.001609e+02
2.130000e-06	3.333991e-06	4.514234e-09	2.378743e+01	2.967121e+02
2.140000e-06	3.252432e-06	4.480722e-09	2.320552e+01	2.931799e+02
2.150000e-06	3.169781e-06	4.411671e-09	2.261582e+01	2.895612e+02
2.160000e-06	3.086140e-06	4.354999e-09	2.201905e+01	2.858513e+02
2.170000e-06	3.001417e-06	4.293206e-09	2.141457e+01	2.820452e+02
2.180000e-06	2.915362e-06	4.233896e-09	2.080058e+01	2.781376e+02
2.190000e-06	2.828001e-06	4.180053e-09	2.017728e+01	2.741239e+02
2.200000e-06	2.739676e-06	4.114186e-09	1.954709e+01	2.700003e+02
2.210000e-06	2.650467e-06	4.052677e-09	1.891061e+01	2.657643e+02
2.220000e-06	2.560365e-06	3.979306e-09	1.826774e+01	2.614147e+02
2.230000e-06	2.469397e-06	3.914982e-09	1.761870e+01	2.569517e+02
2.240000e-06	2.377626e-06	3.848875e-09	1.696394e+01	2.523763e+02
2.250000e-06	2.285133e-06	3.782613e-09	1.630401e+01	2.476901e+02
2.260000e-06	2.191848e-06	3.706290e-09	1.563844e+01	2.428947e+02
2.270000e-06	2.097529e-06	3.619343e-09	1.496549e+01	2.379911e+02
2.280000e-06	2.002136e-06	3.539909e-09	1.428488e+01	2.329796e+02
2.290000e-06	1.906018e-06	3.469627e-09	1.359910e+01	2.278592e+02
2.300000e-06	1.809425e-06	3.398489e-09	1.290992e+01	2.226278e+02
2.310000e-06	1.712326e-06	3.313975e-09	1.221714e+01	2.172823e+02
2.320000e-06	1.614625e-06	3.226478e-09	1.152006e+01	2.118188e+02
2.330000e-06	1.516361e-06	3.142465e-09	1.081897e+01	2.062327e+02
2.340000e-06	1.417608e-06	3.061251e-09	1.011438e+01	2.005199e+02
2.350000e-06	1.318442e-06	2.973171e-09	9.406846e+00	1.946764e+02
2.360000e-06	1.218933e-06	2.881564e-09	8.696870e+00	1.886989e+02
2.370000e-06	1.119156e-06	2.786013e-09	7.984978e+00	1.825852e+02
2.380000e-06	1.019126e-06	2.684986e-09	7.271284e+00	1.763336e+02
2.390000e-06	9.187243e-07	2.588987e-09	6.554933e+00	1.699434e+02
2.400000e-06	8.179563e-07	2.496606e-09	5.835971e+00	1.634140e+02
2.410000e-06	7.169069e-07	2.398346e-09	5.115002e+00	1.567448e+02
2.420000e-06	6.156079e-07	2.288374e-09	4.392252e+00	1.499348e+02
2.430000e-06	5.140672e-07	2.176427e-09	3.667777e+00	1.429820e+02
2.440000e-06	4.123031e-07	2.070480e-09	2.941709e+00	1.358834e+02
2.450000e-06	3.102612e-07	1.964347e-09	2.213658e+00	1.286343e+02
2.460000e-06	2.080272e-07	1.849446e-09	1.484237e+00	1.212290e+02
2.470000e-06	1.056752e-07	1.728747e-09	7.539736e-01	1.136602e+02
2.480000e-06	3.201176e-09	1.606395e-09	2.283981e-02	1.059198e+02
2.490000e-06	-9.932018e-08	1.485980e-09	-7.086316e-01	9.799871e+01
2.500000e-06	-2.018085e-07	1.367022e-09	-1.439867e+00	8.988753e+01
2.510000e-06	-3.041718e-07	1.245511e-09	-2.170211e+00	8.157681e+01
2.520000e-06	-4.063437e-07	1.116255e-09	-2.899190e+00	7.305742e+01
2.530000e-06	-5.082919e-07	9.773549e-10	-3.626572e+00	6.432086e+01
2.540000e-06	-6.100748e-07	8.377281e-10	-4.352774e+00	5.535957e+01
2.550000e-06	-7.116424e-07	7.016452e-10	-5.077441e+00	4.616723e+01
2.560000e-06	-8.127629e-07	5.634356e-10	-5.798918e+00	3.673913e+01
2.570000e-06	-9.134811e-07	4.149669e-10	-6.517524e+00	2.707252e+01
2.580000e-06	-1.013927e-06	2.591269e-10	-7.234184e+00	1.716709e+01
2.590000e-06	-1.114018e-06	1.029098e-10	-7.948319e+00	7.025527e+00
2.600000e-06	-1.213730e-06	-5.174930e-11	-8.659742e+00	-3.345935e+00
2.610000e-06	-1.313054e-06	-2.081591e-10	-9.368403e+00	-1.393686e+01
2.620000e-06	-1.411910e-06	-3.695153e-10	-1.007372e+01	-2.473205e+01
2.630000e-06	-1.510261e-06	-5.363511e-10	-1.077544e+01	-3.571112e+01
2.640000e-06	-1.608074e-06	-7.079146e-10	-1.147332e+01	-4.684824e+01
2.650000e-06	-1.705287e-06	-8.794642e-10	-1.216692e+01	-5.811214e+01
2.660000e-06	-1.801914e-06	-1.050433e-09	-1.285633e+01	-6.946650e+01
2.670000e-06	-1.898057e-06	-1.224149e-09	-1.354230e+01	-8.087059e+01
2.680000e-06	-1.993711e-06	-1.401533e-09	-1.422477e+01	-9.228031e+01
2.690000e-06	-2.088639e-06	-1.578993e-09	-1.490206e+01	-1.036495e+02
2.700000e-06	-2.182580e-06	-1.751753e-09	-1.557232e+01	-1.149314e+02
2.710000e-06	-2.275480e-06	-1.917043e-09	-1.623514e+01	-1.260802e+02
2.720000e-06	-2.367482e-06	-2.078834e-09	-1.689156e+01	-1.370526e+02
2.730000e-06	-2.458689e-06	-2.241185e-09	-1.754230e+01	-1.478091e+02
2.740000e-06	-2.549048e-06	-2.401569e-09	-1.818700e+01	-1.583151e+02
2.750000e-06	-2.638467e-06	-2.557548e-09	-1.882499e+01	-1.685417e+02
2.760000e-06	-2.727010e-06	-2.707879e-09	-1.945673e+01	-1.784659e+02
2.770000e-06	-2.814831e-06	-2.854399e-09	-2.008332e+01	-1.880706e+02
2.780000e-06	-2.901778e-06	-2.997934e-09	-2.070366e+01	-1.973445e+02
2.790000e-06	-2.987502e-06	-3.136315e-09	-2.131529e+01	-2.062811e+02
2.800000e-06	-3.072000e-06	-3.268615e-09	-2.191817e+01	-2.148783e+02
2.810000e-06	-3.155460e-06	-3.394140e-09	-2.251364e+01	-2.231372e+02
2.820000e-06	-3.237924e-06	-3.513909e-09	-2.310201e+01	-2.310620e+02
2.830000e-06	-3.319253e-06	-3.629362e-09	-2.368227e+01	-2.386587e+02
2.840000e-06	-3.399483e-06	-3.743517e-09	-2.425470e+01	-2.459353e+02
2.850000e-06	-3.478634e-06	-3.854325e-09	-2.481943e+01	-2.529009e+02
2.860000e-06	-3.556376e-06	-3.957550e-09	-2.537411e+01	-2.595660e+02
2.870000e-06	-3.632532e-06	-4.053692e-09	-2.591747e+01	-2.659425e+02
2.880000e-06	-3.707229e-06	-4.145005e-09	-2.645041e+01	-2.720432e+02
2.890000e-06	-3.780537e-06	-4.233899e-09	-2.697346e+01	-2.778823e+02
2.900000e-06	-3.852602e-06	-4.320070e-09	-2.748762e+01	-2.834747e+02
2.910000e-06	-3.923296e-06	-4.401682e-09	-2.799201e+01	-2.888357e+02
2.920000e-06	-3.992328e-06	-4.477933e-09	-2.848455e+01	-2.939807e+02
2.930000e-06	-4.059890e-06	-4.551821e-09	-2.896659e+01	-2.989243e+02
2.940000e-06	-4.126038e-06	-4.625015e-09	-2.943854e+01	-3.036797e+02
