# Temperatura_=_36.51
# Concentracion g/m^3_=_15000.0
# C_Vs_to_Am_M_A/Vsm_=_65563218390.804596
# pendiente_HvsI_1/m_=_3716.3
# ordenada_HvsI_A/m_=_1297.0
# frecuencia_Hz_=_301595.15504338767

Tiempo_(s)	Campo_(V.s)	Magnetizacion_(V.s)	Campo_(kA/m)	Magnetizacion_(A/m)
0.000000e+00	-5.370218e-06	-5.819095e-09	-3.833785e+01	-3.806315e+02
1.000000e-08	-5.367353e-06	-5.816142e-09	-3.831739e+01	-3.805105e+02
2.000000e-08	-5.362710e-06	-5.810996e-09	-3.828425e+01	-3.803081e+02
3.000000e-08	-5.356455e-06	-5.804549e-09	-3.823959e+01	-3.800222e+02
4.000000e-08	-5.348696e-06	-5.799392e-09	-3.818420e+01	-3.796522e+02
5.000000e-08	-5.339124e-06	-5.794705e-09	-3.811586e+01	-3.791992e+02
6.000000e-08	-5.327456e-06	-5.788394e-09	-3.803257e+01	-3.786667e+02
7.000000e-08	-5.313923e-06	-5.785600e-09	-3.793596e+01	-3.780599e+02
8.000000e-08	-5.298316e-06	-5.773698e-09	-3.782454e+01	-3.773858e+02
9.000000e-08	-5.280395e-06	-5.757762e-09	-3.769660e+01	-3.766525e+02
1.000000e-07	-5.260430e-06	-5.760426e-09	-3.755407e+01	-3.758679e+02
1.100000e-07	-5.238619e-06	-5.741998e-09	-3.739836e+01	-3.750394e+02
1.200000e-07	-5.215106e-06	-5.710195e-09	-3.723051e+01	-3.741725e+02
1.300000e-07	-5.190104e-06	-5.717903e-09	-3.705202e+01	-3.732701e+02
1.400000e-07	-5.163468e-06	-5.668577e-09	-3.686186e+01	-3.723325e+02
1.500000e-07	-5.135202e-06	-5.641544e-09	-3.666007e+01	-3.713567e+02
1.600000e-07	-5.105513e-06	-5.697954e-09	-3.644812e+01	-3.703368e+02
1.700000e-07	-5.074237e-06	-5.638254e-09	-3.622485e+01	-3.692645e+02
1.800000e-07	-5.040846e-06	-5.609599e-09	-3.598647e+01	-3.681303e+02
1.900000e-07	-5.005524e-06	-5.608613e-09	-3.573431e+01	-3.669238e+02
2.000000e-07	-4.968784e-06	-5.511505e-09	-3.547202e+01	-3.656355e+02
2.100000e-07	-4.930320e-06	-5.528618e-09	-3.519743e+01	-3.642573e+02
2.200000e-07	-4.890076e-06	-5.564210e-09	-3.491012e+01	-3.627833e+02
2.300000e-07	-4.847927e-06	-5.512898e-09	-3.460922e+01	-3.612104e+02
2.400000e-07	-4.803808e-06	-5.476897e-09	-3.429426e+01	-3.595384e+02
2.500000e-07	-4.757894e-06	-5.424200e-09	-3.396648e+01	-3.577698e+02
2.600000e-07	-4.710079e-06	-5.399389e-09	-3.362513e+01	-3.559092e+02
2.700000e-07	-4.660322e-06	-5.407520e-09	-3.326992e+01	-3.539628e+02
2.800000e-07	-4.608489e-06	-5.387418e-09	-3.289988e+01	-3.519369e+02
2.900000e-07	-4.554700e-06	-5.329718e-09	-3.251588e+01	-3.498377e+02
3.000000e-07	-4.499321e-06	-5.263059e-09	-3.212054e+01	-3.476701e+02
3.100000e-07	-4.442357e-06	-5.251271e-09	-3.171387e+01	-3.454373e+02
3.200000e-07	-4.383565e-06	-5.235949e-09	-3.129415e+01	-3.431404e+02
3.300000e-07	-4.323093e-06	-5.204478e-09	-3.086245e+01	-3.407784e+02
3.400000e-07	-4.261226e-06	-5.169337e-09	-3.042078e+01	-3.383486e+02
3.500000e-07	-4.198028e-06	-5.097073e-09	-2.996961e+01	-3.358468e+02
3.600000e-07	-4.133398e-06	-5.059195e-09	-2.950822e+01	-3.332685e+02
3.700000e-07	-4.067059e-06	-5.047774e-09	-2.903462e+01	-3.306088e+02
3.800000e-07	-3.999067e-06	-5.010910e-09	-2.854924e+01	-3.278638e+02
3.900000e-07	-3.929687e-06	-4.951794e-09	-2.805393e+01	-3.250307e+02
4.000000e-07	-3.859070e-06	-4.883256e-09	-2.754980e+01	-3.221080e+02
4.100000e-07	-3.787262e-06	-4.840199e-09	-2.703716e+01	-3.190959e+02
4.200000e-07	-3.714166e-06	-4.804361e-09	-2.651533e+01	-3.159955e+02
4.300000e-07	-3.639484e-06	-4.774561e-09	-2.598218e+01	-3.128091e+02
4.400000e-07	-3.563170e-06	-4.735214e-09	-2.543737e+01	-3.095391e+02
4.500000e-07	-3.485474e-06	-4.670241e-09	-2.488271e+01	-3.061877e+02
4.600000e-07	-3.406369e-06	-4.595518e-09	-2.431798e+01	-3.027564e+02
4.700000e-07	-3.325875e-06	-4.538514e-09	-2.374333e+01	-2.992453e+02
4.800000e-07	-3.244184e-06	-4.509738e-09	-2.316015e+01	-2.956530e+02
4.900000e-07	-3.161369e-06	-4.461441e-09	-2.256893e+01	-2.919767e+02
5.000000e-07	-3.077529e-06	-4.389212e-09	-2.197040e+01	-2.882122e+02
5.100000e-07	-2.992830e-06	-4.319180e-09	-2.136574e+01	-2.843543e+02
5.200000e-07	-2.907161e-06	-4.260651e-09	-2.075414e+01	-2.803973e+02
5.300000e-07	-2.820403e-06	-4.209149e-09	-2.013478e+01	-2.763354e+02
5.400000e-07	-2.732745e-06	-4.153880e-09	-1.950899e+01	-2.721635e+02
5.500000e-07	-2.644269e-06	-4.082080e-09	-1.887736e+01	-2.678774e+02
5.600000e-07	-2.554629e-06	-3.997476e-09	-1.823743e+01	-2.634740e+02
5.700000e-07	-2.463761e-06	-3.924039e-09	-1.758872e+01	-2.589519e+02
5.800000e-07	-2.372024e-06	-3.870083e-09	-1.693382e+01	-2.543107e+02
5.900000e-07	-2.279546e-06	-3.811818e-09	-1.627362e+01	-2.495513e+02
6.000000e-07	-2.186343e-06	-3.730882e-09	-1.560825e+01	-2.446751e+02
6.100000e-07	-2.092397e-06	-3.642109e-09	-1.493757e+01	-2.396841e+02
6.200000e-07	-1.997650e-06	-3.559999e-09	-1.426117e+01	-2.345800e+02
6.300000e-07	-1.902206e-06	-3.483806e-09	-1.357980e+01	-2.293640e+02
6.400000e-07	-1.806165e-06	-3.409739e-09	-1.289416e+01	-2.240367e+02
6.500000e-07	-1.709546e-06	-3.331654e-09	-1.220440e+01	-2.185976e+02
6.600000e-07	-1.612220e-06	-3.241328e-09	-1.150960e+01	-2.130453e+02
6.700000e-07	-1.514040e-06	-3.143150e-09	-1.080869e+01	-2.073774e+02
6.800000e-07	-1.415165e-06	-3.052640e-09	-1.010282e+01	-2.015909e+02
6.900000e-07	-1.315817e-06	-2.971076e-09	-9.393586e+00	-1.956822e+02
7.000000e-07	-1.216089e-06	-2.885399e-09	-8.681629e+00	-1.896474e+02
7.100000e-07	-1.116046e-06	-2.788312e-09	-7.967425e+00	-1.834828e+02
7.200000e-07	-1.015694e-06	-2.685488e-09	-7.251015e+00	-1.771845e+02
7.300000e-07	-9.150315e-07	-2.584296e-09	-6.532385e+00	-1.707490e+02
7.400000e-07	-8.140944e-07	-2.488193e-09	-5.811798e+00	-1.641729e+02
7.500000e-07	-7.129006e-07	-2.392414e-09	-5.089379e+00	-1.574526e+02
7.600000e-07	-6.114339e-07	-2.288120e-09	-4.365010e+00	-1.505848e+02
7.700000e-07	-5.097117e-07	-2.175040e-09	-3.638818e+00	-1.435653e+02
7.800000e-07	-4.078013e-07	-2.060254e-09	-2.911283e+00	-1.363898e+02
7.900000e-07	-3.057934e-07	-1.950561e-09	-2.183051e+00	-1.290529e+02
8.000000e-07	-2.036389e-07	-1.844205e-09	-1.453773e+00	-1.215487e+02
8.100000e-07	-1.013516e-07	-1.732312e-09	-7.235462e-01	-1.138701e+02
8.200000e-07	9.075133e-10	-1.609612e-09	6.478713e-03	-1.060090e+02
8.300000e-07	1.031799e-07	-1.480424e-09	7.365984e-01	-9.795693e+01
8.400000e-07	2.054857e-07	-1.352638e-09	1.466957e+00	-8.970453e+01
8.500000e-07	3.077461e-07	-1.228513e-09	2.196991e+00	-8.124230e+01
8.600000e-07	4.099133e-07	-1.100594e-09	2.926360e+00	-7.256084e+01
8.700000e-07	5.119910e-07	-9.634535e-10	3.655091e+00	-6.365124e+01
8.800000e-07	6.139551e-07	-8.201818e-10	4.383009e+00	-5.450560e+01
8.900000e-07	7.156819e-07	-6.752925e-10	5.109234e+00	-4.511752e+01
9.000000e-07	8.171129e-07	-5.281165e-10	5.833347e+00	-3.548266e+01
9.100000e-07	9.182465e-07	-3.767036e-10	6.555338e+00	-2.559929e+01
9.200000e-07	1.019031e-06	-2.218216e-10	7.274837e+00	-1.546887e+01
9.300000e-07	1.119462e-06	-6.098987e-11	7.991811e+00	-5.096577e+00
9.400000e-07	1.219597e-06	1.039287e-10	8.706670e+00	5.508185e+00
9.500000e-07	1.319424e-06	2.688011e-10	9.419332e+00	1.633140e+01
9.600000e-07	1.418787e-06	4.338833e-10	1.012868e+01	2.735415e+01
9.700000e-07	1.517450e-06	6.032332e-10	1.083303e+01	3.855254e+01
9.800000e-07	1.615318e-06	7.791104e-10	1.153171e+01	4.989777e+01
9.900000e-07	1.712405e-06	9.584208e-10	1.222481e+01	6.135645e+01
1.000000e-06	1.808809e-06	1.136231e-09	1.291304e+01	7.289116e+01
1.010000e-06	1.904591e-06	1.311770e-09	1.359683e+01	8.446123e+01
1.020000e-06	1.999645e-06	1.486181e-09	1.427541e+01	9.602368e+01
1.030000e-06	2.093995e-06	1.660350e-09	1.494897e+01	1.075343e+02
1.040000e-06	2.187679e-06	1.836071e-09	1.561779e+01	1.189489e+02
1.050000e-06	2.280650e-06	2.009761e-09	1.628150e+01	1.302243e+02
1.060000e-06	2.372940e-06	2.178742e-09	1.694035e+01	1.413198e+02
1.070000e-06	2.464572e-06	2.342308e-09	1.759451e+01	1.521977e+02
1.080000e-06	2.555201e-06	2.503462e-09	1.824151e+01	1.628245e+02
1.090000e-06	2.644558e-06	2.664571e-09	1.887943e+01	1.731712e+02
1.100000e-06	2.732894e-06	2.820532e-09	1.951006e+01	1.832139e+02
1.110000e-06	2.820389e-06	2.968266e-09	2.013468e+01	1.929335e+02
1.120000e-06	2.906927e-06	3.110327e-09	2.075247e+01	2.023161e+02
1.130000e-06	2.992474e-06	3.248345e-09	2.136319e+01	2.113525e+02
1.140000e-06	3.077128e-06	3.381557e-09	2.196753e+01	2.200378e+02
1.150000e-06	3.160949e-06	3.508377e-09	2.256593e+01	2.283713e+02
1.160000e-06	3.243718e-06	3.629163e-09	2.315682e+01	2.363557e+02
1.170000e-06	3.325164e-06	3.743335e-09	2.373826e+01	2.439970e+02
1.180000e-06	3.405364e-06	3.851546e-09	2.431080e+01	2.513041e+02
1.190000e-06	3.484389e-06	3.955791e-09	2.487496e+01	2.582883e+02
1.200000e-06	3.562204e-06	4.057892e-09	2.543048e+01	2.649630e+02
1.210000e-06	3.638779e-06	4.157553e-09	2.597715e+01	2.713434e+02
1.220000e-06	3.713954e-06	4.251018e-09	2.651382e+01	2.774459e+02
1.230000e-06	3.787505e-06	4.338177e-09	2.703890e+01	2.832879e+02
1.240000e-06	3.859545e-06	4.420192e-09	2.755319e+01	2.888869e+02
1.250000e-06	3.930183e-06	4.501475e-09	2.805747e+01	2.942599e+02
1.260000e-06	3.999429e-06	4.583044e-09	2.855182e+01	2.994229e+02
1.270000e-06	4.067420e-06	4.659747e-09	2.903720e+01	3.043903e+02
1.280000e-06	4.133915e-06	4.731903e-09	2.951191e+01	3.091741e+02
1.290000e-06	4.198704e-06	4.801616e-09	2.997444e+01	3.137836e+02
1.300000e-06	4.262003e-06	4.869293e-09	3.042633e+01	3.182252e+02
1.310000e-06	4.323876e-06	4.935262e-09	3.086803e+01	3.225022e+02
1.320000e-06	4.384362e-06	4.997760e-09	3.129984e+01	3.266155e+02
1.330000e-06	4.443380e-06	5.056150e-09	3.172117e+01	3.305637e+02
1.340000e-06	4.500627e-06	5.111162e-09	3.212986e+01	3.343437e+02
1.350000e-06	4.556134e-06	5.165039e-09	3.252612e+01	3.379520e+02
1.360000e-06	4.610055e-06	5.216725e-09	3.291106e+01	3.413851e+02
1.370000e-06	4.662181e-06	5.264325e-09	3.328318e+01	3.446407e+02
1.380000e-06	4.712263e-06	5.307957e-09	3.364072e+01	3.477178e+02
1.390000e-06	4.760503e-06	5.349217e-09	3.398511e+01	3.506177e+02
1.400000e-06	4.807081e-06	5.390601e-09	3.431763e+01	3.533439e+02
1.410000e-06	4.852044e-06	5.429550e-09	3.463861e+01	3.559021e+02
1.420000e-06	4.895349e-06	5.464848e-09	3.494777e+01	3.582998e+02
1.430000e-06	4.936766e-06	5.497696e-09	3.524344e+01	3.605455e+02
1.440000e-06	4.976427e-06	5.528012e-09	3.552658e+01	3.626485e+02
1.450000e-06	5.014503e-06	5.555168e-09	3.579840e+01	3.646177e+02
1.460000e-06	5.050971e-06	5.580222e-09	3.605875e+01	3.664611e+02
1.470000e-06	5.085654e-06	5.605712e-09	3.630635e+01	3.681855e+02
1.480000e-06	5.118385e-06	5.629524e-09	3.654002e+01	3.697957e+02
1.490000e-06	5.149310e-06	5.650845e-09	3.676079e+01	3.712952e+02
1.500000e-06	5.178594e-06	5.671117e-09	3.696985e+01	3.726856e+02
1.510000e-06	5.206217e-06	5.690044e-09	3.716705e+01	3.739678e+02
1.520000e-06	5.231813e-06	5.707986e-09	3.734977e+01	3.751419e+02
1.530000e-06	5.255317e-06	5.725049e-09	3.751757e+01	3.762082e+02
1.540000e-06	5.277026e-06	5.740826e-09	3.767255e+01	3.771674e+02
1.550000e-06	5.297015e-06	5.753880e-09	3.781525e+01	3.780213e+02
1.560000e-06	5.315088e-06	5.765066e-09	3.794427e+01	3.787729e+02
1.570000e-06	5.331141e-06	5.774865e-09	3.805887e+01	3.794262e+02
1.580000e-06	5.345246e-06	5.783719e-09	3.815957e+01	3.799862e+02
1.590000e-06	5.357283e-06	5.792048e-09	3.824550e+01	3.804583e+02
1.600000e-06	5.367090e-06	5.799037e-09	3.831551e+01	3.808478e+02
1.610000e-06	5.374846e-06	5.805517e-09	3.837088e+01	3.811591e+02
1.620000e-06	5.380769e-06	5.811415e-09	3.841317e+01	3.813958e+02
1.630000e-06	5.384901e-06	5.817081e-09	3.844267e+01	3.815596e+02
1.640000e-06	5.387090e-06	5.821084e-09	3.845829e+01	3.816507e+02
1.650000e-06	5.387329e-06	5.822545e-09	3.846000e+01	3.816679e+02
1.660000e-06	5.385863e-06	5.823228e-09	3.844953e+01	3.816088e+02
1.670000e-06	5.382748e-06	5.819823e-09	3.842729e+01	3.814704e+02
1.680000e-06	5.377856e-06	5.815498e-09	3.839237e+01	3.812501e+02
1.690000e-06	5.371012e-06	5.813052e-09	3.834351e+01	3.809461e+02
1.700000e-06	5.362436e-06	5.809392e-09	3.828229e+01	3.805579e+02
1.710000e-06	5.352362e-06	5.803933e-09	3.821037e+01	3.800874e+02
1.720000e-06	5.340512e-06	5.793782e-09	3.812577e+01	3.795383e+02
1.730000e-06	5.326626e-06	5.781239e-09	3.802664e+01	3.789163e+02
1.740000e-06	5.310730e-06	5.778355e-09	3.791316e+01	3.782287e+02
1.750000e-06	5.292530e-06	5.750430e-09	3.778323e+01	3.774836e+02
1.760000e-06	5.271674e-06	5.742979e-09	3.763434e+01	3.766889e+02
1.770000e-06	5.248587e-06	5.745196e-09	3.746953e+01	3.758516e+02
1.780000e-06	5.224209e-06	5.709029e-09	3.729549e+01	3.749767e+02
1.790000e-06	5.199023e-06	5.736085e-09	3.711569e+01	3.740668e+02
1.800000e-06	5.172420e-06	5.692606e-09	3.692577e+01	3.731212e+02
1.810000e-06	5.143620e-06	5.633997e-09	3.672016e+01	3.721364e+02
1.820000e-06	5.112946e-06	5.684230e-09	3.650119e+01	3.711058e+02
1.830000e-06	5.080637e-06	5.616789e-09	3.627054e+01	3.700210e+02
1.840000e-06	5.046428e-06	5.600523e-09	3.602632e+01	3.688719e+02
1.850000e-06	5.010622e-06	5.678609e-09	3.577070e+01	3.676486e+02
1.860000e-06	4.973085e-06	5.586591e-09	3.550272e+01	3.663415e+02
1.870000e-06	4.933665e-06	5.531297e-09	3.522130e+01	3.649430e+02
1.880000e-06	4.892544e-06	5.516336e-09	3.492774e+01	3.634478e+02
1.890000e-06	4.849634e-06	5.476593e-09	3.462141e+01	3.618534e+02
1.900000e-06	4.805147e-06	5.518267e-09	3.430381e+01	3.601603e+02
1.910000e-06	4.758808e-06	5.466669e-09	3.397300e+01	3.583714e+02
1.920000e-06	4.710363e-06	5.421328e-09	3.362716e+01	3.564917e+02
1.930000e-06	4.660335e-06	5.397450e-09	3.327001e+01	3.545275e+02
1.940000e-06	4.608586e-06	5.333338e-09	3.290058e+01	3.524853e+02
1.950000e-06	4.554695e-06	5.358167e-09	3.251585e+01	3.503709e+02
1.960000e-06	4.498918e-06	5.322810e-09	3.211765e+01	3.481890e+02
1.970000e-06	4.441551e-06	5.271293e-09	3.170812e+01	3.459423e+02
1.980000e-06	4.382728e-06	5.216307e-09	3.128818e+01	3.436315e+02
1.990000e-06	4.322409e-06	5.159950e-09	3.085756e+01	3.412551e+02
2.000000e-06	4.260405e-06	5.190582e-09	3.041492e+01	3.388101e+02
2.010000e-06	4.196775e-06	5.127335e-09	2.996067e+01	3.362922e+02
2.020000e-06	4.131685e-06	5.074668e-09	2.949599e+01	3.336966e+02
2.030000e-06	4.065172e-06	5.048264e-09	2.902116e+01	3.310188e+02
2.040000e-06	3.997244e-06	4.985070e-09	2.853622e+01	3.282550e+02
2.050000e-06	3.927767e-06	4.953669e-09	2.804023e+01	3.254026e+02
2.060000e-06	3.856703e-06	4.906427e-09	2.753290e+01	3.224605e+02
2.070000e-06	3.784322e-06	4.890293e-09	2.701618e+01	3.194292e+02
2.080000e-06	3.710735e-06	4.818760e-09	2.649084e+01	3.163100e+02
2.090000e-06	3.635749e-06	4.733067e-09	2.595551e+01	3.131053e+02
2.100000e-06	3.559263e-06	4.705556e-09	2.540949e+01	3.098176e+02
2.110000e-06	3.481178e-06	4.678289e-09	2.485204e+01	3.064489e+02
2.120000e-06	3.401717e-06	4.640269e-09	2.428477e+01	3.030003e+02
2.130000e-06	3.321246e-06	4.556056e-09	2.371029e+01	2.994718e+02
2.140000e-06	3.239646e-06	4.497431e-09	2.312775e+01	2.958616e+02
2.150000e-06	3.156893e-06	4.438701e-09	2.253698e+01	2.921667e+02
2.160000e-06	3.073164e-06	4.382978e-09	2.193924e+01	2.883825e+02
2.170000e-06	2.988343e-06	4.347429e-09	2.133370e+01	2.845037e+02
2.180000e-06	2.902167e-06	4.282768e-09	2.071849e+01	2.805246e+02
2.190000e-06	2.814790e-06	4.201451e-09	2.009471e+01	2.764394e+02
2.200000e-06	2.726471e-06	4.122362e-09	1.946420e+01	2.722432e+02
2.210000e-06	2.637231e-06	4.076330e-09	1.882712e+01	2.679320e+02
2.220000e-06	2.547082e-06	4.026932e-09	1.818355e+01	2.635031e+02
2.230000e-06	2.456070e-06	3.953440e-09	1.753382e+01	2.589553e+02
2.240000e-06	2.364321e-06	3.871907e-09	1.687882e+01	2.542885e+02
2.250000e-06	2.271851e-06	3.791266e-09	1.621869e+01	2.495037e+02
2.260000e-06	2.178526e-06	3.714129e-09	1.555244e+01	2.446026e+02
2.270000e-06	2.084131e-06	3.644569e-09	1.487856e+01	2.395871e+02
2.280000e-06	1.988717e-06	3.579829e-09	1.419740e+01	2.344588e+02
2.290000e-06	1.892657e-06	3.494432e-09	1.351163e+01	2.292188e+02
2.300000e-06	1.796031e-06	3.397167e-09	1.282182e+01	2.238675e+02
2.310000e-06	1.698864e-06	3.309992e-09	1.212815e+01	2.184042e+02
2.320000e-06	1.601166e-06	3.240276e-09	1.143068e+01	2.128271e+02
2.330000e-06	1.502957e-06	3.166676e-09	1.072957e+01	2.071340e+02
2.340000e-06	1.404261e-06	3.074505e-09	1.002498e+01	2.013214e+02
2.350000e-06	1.305040e-06	2.973344e-09	9.316644e+00	1.953858e+02
2.360000e-06	1.205494e-06	2.874563e-09	8.605991e+00	1.893234e+02
2.370000e-06	1.105745e-06	2.783986e-09	7.893887e+00	1.831303e+02
2.380000e-06	1.005734e-06	2.698081e-09	7.179907e+00	1.768028e+02
2.390000e-06	9.053466e-07	2.604435e-09	6.463246e+00	1.703373e+02
2.400000e-06	8.045172e-07	2.494692e-09	5.743427e+00	1.637304e+02
2.410000e-06	7.033258e-07	2.381788e-09	5.021024e+00	1.569787e+02
2.420000e-06	6.019397e-07	2.276764e-09	4.297232e+00	1.500785e+02
2.430000e-06	5.003242e-07	2.179663e-09	3.571801e+00	1.430259e+02
2.440000e-06	3.984416e-07	2.076645e-09	2.844464e+00	1.358161e+02
2.450000e-06	2.963372e-07	1.957487e-09	2.115544e+00	1.284438e+02
2.460000e-06	1.940078e-07	1.829727e-09	1.385017e+00	1.209027e+02
2.470000e-06	9.159034e-08	1.707263e-09	6.538610e-01	1.131855e+02
2.480000e-06	-1.088417e-08	1.592615e-09	-7.770181e-02	1.052841e+02
2.490000e-06	-1.134219e-07	1.477365e-09	-8.097158e-01	9.718971e+01
2.500000e-06	-2.159218e-07	1.351998e-09	-1.541460e+00	8.889300e+01
2.510000e-06	-3.182844e-07	1.217023e-09	-2.272224e+00	8.038442e+01
2.520000e-06	-4.204900e-07	1.080952e-09	-3.001867e+00	7.165464e+01
2.530000e-06	-5.225199e-07	9.451658e-10	-3.730256e+00	6.269493e+01
2.540000e-06	-6.243033e-07	8.086198e-10	-4.456885e+00	5.349767e+01
2.550000e-06	-7.257209e-07	6.676426e-10	-5.180903e+00	4.405684e+01
2.560000e-06	-8.267270e-07	5.161714e-10	-5.901982e+00	3.436863e+01
2.570000e-06	-9.273700e-07	3.576083e-10	-6.620470e+00	2.443193e+01
2.580000e-06	-1.027637e-06	2.038482e-10	-7.336271e+00	1.424895e+01
2.590000e-06	-1.127551e-06	5.414594e-11	-8.049560e+00	3.825748e+00
2.600000e-06	-1.227100e-06	-1.016466e-10	-8.760236e+00	-6.827320e+00
2.610000e-06	-1.326282e-06	-2.702711e-10	-9.468296e+00	-1.769520e+01
2.620000e-06	-1.425001e-06	-4.428412e-10	-1.017304e+01	-2.875793e+01
2.630000e-06	-1.523181e-06	-6.121967e-10	-1.087395e+01	-3.999052e+01
2.640000e-06	-1.620856e-06	-7.812167e-10	-1.157125e+01	-5.136317e+01
2.650000e-06	-1.717940e-06	-9.522455e-10	-1.226433e+01	-6.284156e+01
2.660000e-06	-1.814414e-06	-1.129656e-09	-1.295305e+01	-7.438753e+01
2.670000e-06	-1.910376e-06	-1.312406e-09	-1.363813e+01	-8.595979e+01
2.680000e-06	-2.005837e-06	-1.494560e-09	-1.431962e+01	-9.751502e+01
2.690000e-06	-2.100625e-06	-1.667339e-09	-1.499630e+01	-1.090089e+02
2.700000e-06	-2.194451e-06	-1.834127e-09	-1.566613e+01	-1.203974e+02
2.710000e-06	-2.287192e-06	-2.002621e-09	-1.632820e+01	-1.316377e+02
2.720000e-06	-2.379041e-06	-2.174050e-09	-1.698391e+01	-1.426898e+02
2.730000e-06	-2.470090e-06	-2.339511e-09	-1.763391e+01	-1.535167e+02
2.740000e-06	-2.560254e-06	-2.495033e-09	-1.827759e+01	-1.640859e+02
2.750000e-06	-2.649491e-06	-2.647035e-09	-1.891464e+01	-1.743695e+02
2.760000e-06	-2.737859e-06	-2.798924e-09	-1.954550e+01	-1.843445e+02
2.770000e-06	-2.825465e-06	-2.950456e-09	-2.017092e+01	-1.939931e+02
2.780000e-06	-2.912138e-06	-3.097942e-09	-2.078968e+01	-2.033023e+02
2.790000e-06	-2.997551e-06	-3.235609e-09	-2.139944e+01	-2.122638e+02
2.800000e-06	-3.081800e-06	-3.361692e-09	-2.200089e+01	-2.208739e+02
2.810000e-06	-3.165042e-06	-3.483555e-09	-2.259515e+01	-2.291323e+02
2.820000e-06	-3.247228e-06	-3.605620e-09	-2.318188e+01	-2.370428e+02
2.830000e-06	-3.328346e-06	-3.725997e-09	-2.376098e+01	-2.446118e+02
2.840000e-06	-3.408459e-06	-3.840425e-09	-2.433290e+01	-2.518488e+02
2.850000e-06	-3.487388e-06	-3.946405e-09	-2.489637e+01	-2.587656e+02
2.860000e-06	-3.564807e-06	-4.045368e-09	-2.544906e+01	-2.653761e+02
2.870000e-06	-3.640714e-06	-4.142192e-09	-2.599096e+01	-2.716957e+02
2.880000e-06	-3.715177e-06	-4.237949e-09	-2.652255e+01	-2.777411e+02
2.890000e-06	-3.788258e-06	-4.328503e-09	-2.704428e+01	-2.835297e+02
2.900000e-06	-3.860094e-06	-4.412030e-09	-2.755711e+01	-2.890789e+02
2.910000e-06	-3.930513e-06	-4.488745e-09	-2.805983e+01	-2.944058e+02
2.920000e-06	-3.999289e-06	-4.564385e-09	-2.855082e+01	-2.995259e+02
2.930000e-06	-4.066565e-06	-4.642031e-09	-2.903110e+01	-3.044532e+02
2.940000e-06	-4.132475e-06	-4.716530e-09	-2.950163e+01	-3.091991e+02
