# Temperatura_=_59.11
# Concentracion g/m^3_=_15000.0
# C_Vs_to_Am_M_A/Vsm_=_65563218390.804596
# pendiente_HvsI_1/m_=_3716.3
# ordenada_HvsI_A/m_=_1297.0
# frecuencia_Hz_=_301587.6558564459

Tiempo_(s)	Campo_(V.s)	Magnetizacion_(V.s)	Campo_(kA/m)	Magnetizacion_(A/m)
0.000000e+00	-5.371629e-06	-6.630639e-09	-3.833695e+01	-4.333499e+02
1.000000e-08	-5.368977e-06	-6.628494e-09	-3.831802e+01	-4.331815e+02
2.000000e-08	-5.364583e-06	-6.621122e-09	-3.828666e+01	-4.329121e+02
3.000000e-08	-5.358573e-06	-6.615021e-09	-3.824377e+01	-4.325378e+02
4.000000e-08	-5.350969e-06	-6.607737e-09	-3.818950e+01	-4.320563e+02
5.000000e-08	-5.341510e-06	-6.596540e-09	-3.812200e+01	-4.314681e+02
6.000000e-08	-5.329968e-06	-6.582554e-09	-3.803962e+01	-4.307765e+02
7.000000e-08	-5.316592e-06	-6.558937e-09	-3.794415e+01	-4.299881e+02
8.000000e-08	-5.301145e-06	-6.547127e-09	-3.783391e+01	-4.291118e+02
9.000000e-08	-5.283427e-06	-6.608662e-09	-3.770746e+01	-4.281580e+02
1.000000e-07	-5.263718e-06	-6.596207e-09	-3.756680e+01	-4.271378e+02
1.100000e-07	-5.242108e-06	-6.524027e-09	-3.741257e+01	-4.260613e+02
1.200000e-07	-5.218764e-06	-6.503982e-09	-3.724597e+01	-4.249363e+02
1.300000e-07	-5.193944e-06	-6.381327e-09	-3.706882e+01	-4.237680e+02
1.400000e-07	-5.167528e-06	-6.393598e-09	-3.688030e+01	-4.225575e+02
1.500000e-07	-5.139437e-06	-6.567090e-09	-3.667981e+01	-4.213020e+02
1.600000e-07	-5.109876e-06	-6.371792e-09	-3.646884e+01	-4.199952e+02
1.700000e-07	-5.078814e-06	-6.368333e-09	-3.624715e+01	-4.186279e+02
1.800000e-07	-5.045579e-06	-6.466383e-09	-3.600995e+01	-4.171889e+02
1.900000e-07	-5.010393e-06	-6.243486e-09	-3.575883e+01	-4.156664e+02
2.000000e-07	-4.973868e-06	-6.350380e-09	-3.549816e+01	-4.140494e+02
2.100000e-07	-4.935645e-06	-6.390653e-09	-3.522536e+01	-4.123287e+02
2.200000e-07	-4.895597e-06	-6.189553e-09	-3.493954e+01	-4.104977e+02
2.300000e-07	-4.853580e-06	-6.220812e-09	-3.463967e+01	-4.085532e+02
2.400000e-07	-4.809609e-06	-6.208566e-09	-3.432585e+01	-4.064949e+02
2.500000e-07	-4.763944e-06	-6.161833e-09	-3.399994e+01	-4.043256e+02
2.600000e-07	-4.716439e-06	-6.187021e-09	-3.366090e+01	-4.020502e+02
2.700000e-07	-4.666873e-06	-6.082639e-09	-3.330715e+01	-3.996749e+02
2.800000e-07	-4.615132e-06	-6.043789e-09	-3.293788e+01	-3.972062e+02
2.900000e-07	-4.561458e-06	-6.019847e-09	-3.255482e+01	-3.946498e+02
3.000000e-07	-4.506241e-06	-5.981128e-09	-3.216073e+01	-3.920100e+02
3.100000e-07	-4.449414e-06	-5.955915e-09	-3.175517e+01	-3.892892e+02
3.200000e-07	-4.390731e-06	-5.907071e-09	-3.133635e+01	-3.864877e+02
3.300000e-07	-4.330412e-06	-5.851822e-09	-3.090586e+01	-3.836040e+02
3.400000e-07	-4.268644e-06	-5.762838e-09	-3.046502e+01	-3.806349e+02
3.500000e-07	-4.205515e-06	-5.767487e-09	-3.001447e+01	-3.775766e+02
3.600000e-07	-4.140942e-06	-5.749772e-09	-2.955362e+01	-3.744249e+02
3.700000e-07	-4.074633e-06	-5.657463e-09	-2.908037e+01	-3.711761e+02
3.800000e-07	-4.006760e-06	-5.605841e-09	-2.859597e+01	-3.678274e+02
3.900000e-07	-3.937572e-06	-5.548507e-09	-2.810218e+01	-3.643771e+02
4.000000e-07	-3.867153e-06	-5.500309e-09	-2.759961e+01	-3.608249e+02
4.100000e-07	-3.795499e-06	-5.445424e-09	-2.708822e+01	-3.571713e+02
4.200000e-07	-3.722447e-06	-5.389381e-09	-2.656685e+01	-3.534174e+02
4.300000e-07	-3.647838e-06	-5.335067e-09	-2.603437e+01	-3.495646e+02
4.400000e-07	-3.571662e-06	-5.262984e-09	-2.549071e+01	-3.456139e+02
4.500000e-07	-3.494038e-06	-5.205834e-09	-2.493671e+01	-3.415654e+02
4.600000e-07	-3.414978e-06	-5.158003e-09	-2.437246e+01	-3.374184e+02
4.700000e-07	-3.334630e-06	-5.100437e-09	-2.379903e+01	-3.331710e+02
4.800000e-07	-3.253096e-06	-5.013979e-09	-2.321713e+01	-3.288203e+02
4.900000e-07	-3.170375e-06	-4.928200e-09	-2.262675e+01	-3.243627e+02
5.000000e-07	-3.086592e-06	-4.871601e-09	-2.202879e+01	-3.197944e+02
5.100000e-07	-3.001902e-06	-4.807349e-09	-2.142437e+01	-3.151118e+02
5.200000e-07	-2.916303e-06	-4.733675e-09	-2.081346e+01	-3.103118e+02
5.300000e-07	-2.829764e-06	-4.650888e-09	-2.019583e+01	-3.053922e+02
5.400000e-07	-2.742316e-06	-4.566480e-09	-1.957172e+01	-3.003519e+02
5.500000e-07	-2.653889e-06	-4.490942e-09	-1.894062e+01	-2.951909e+02
5.600000e-07	-2.564361e-06	-4.414610e-09	-1.830167e+01	-2.899098e+02
5.700000e-07	-2.473715e-06	-4.338835e-09	-1.765474e+01	-2.845100e+02
5.800000e-07	-2.382113e-06	-4.250077e-09	-1.700097e+01	-2.789927e+02
5.900000e-07	-2.289741e-06	-4.159540e-09	-1.634172e+01	-2.733590e+02
6.000000e-07	-2.196590e-06	-4.070429e-09	-1.567691e+01	-2.676094e+02
6.100000e-07	-2.102598e-06	-3.982931e-09	-1.500610e+01	-2.617434e+02
6.200000e-07	-2.007936e-06	-3.893554e-09	-1.433050e+01	-2.557597e+02
6.300000e-07	-1.912656e-06	-3.796217e-09	-1.365049e+01	-2.496562e+02
6.400000e-07	-1.816630e-06	-3.697667e-09	-1.296516e+01	-2.434301e+02
6.500000e-07	-1.719831e-06	-3.600592e-09	-1.227431e+01	-2.370785e+02
6.600000e-07	-1.622334e-06	-3.507635e-09	-1.157848e+01	-2.305983e+02
6.700000e-07	-1.524278e-06	-3.406924e-09	-1.087867e+01	-2.239867e+02
6.800000e-07	-1.425682e-06	-3.299376e-09	-1.017500e+01	-2.172413e+02
6.900000e-07	-1.326510e-06	-3.189043e-09	-9.467210e+00	-2.103604e+02
7.000000e-07	-1.226833e-06	-3.082564e-09	-8.755826e+00	-2.033421e+02
7.100000e-07	-1.126787e-06	-2.978160e-09	-8.041804e+00	-1.961849e+02
7.200000e-07	-1.026432e-06	-2.867760e-09	-7.325576e+00	-1.888869e+02
7.300000e-07	-9.257404e-07	-2.754756e-09	-6.606946e+00	-1.814454e+02
7.400000e-07	-8.247994e-07	-2.636045e-09	-5.886537e+00	-1.738568e+02
7.500000e-07	-7.236154e-07	-2.514462e-09	-5.164394e+00	-1.661160e+02
7.600000e-07	-6.221364e-07	-2.394752e-09	-4.440145e+00	-1.582170e+02
7.700000e-07	-5.204440e-07	-2.275482e-09	-3.714374e+00	-1.501524e+02
7.800000e-07	-4.185705e-07	-2.150671e-09	-2.987309e+00	-1.419139e+02
7.900000e-07	-3.165579e-07	-2.018343e-09	-2.259252e+00	-1.334929e+02
8.000000e-07	-2.144745e-07	-1.881147e-09	-1.530690e+00	-1.248808e+02
8.100000e-07	-1.123079e-07	-1.746582e-09	-8.015341e-01	-1.160694e+02
8.200000e-07	-1.003126e-08	-1.610911e-09	-7.159241e-02	-1.070512e+02
8.300000e-07	9.232539e-08	-1.467561e-09	6.589200e-01	-9.781979e+01
8.400000e-07	1.946904e-07	-1.320090e-09	1.389492e+00	-8.836971e+01
8.500000e-07	2.969726e-07	-1.170925e-09	2.119473e+00	-7.869629e+01
8.600000e-07	3.991142e-07	-1.021634e-09	2.848451e+00	-6.879540e+01
8.700000e-07	5.011145e-07	-8.672785e-10	3.576420e+00	-5.866309e+01
8.800000e-07	6.029888e-07	-7.075773e-10	4.303490e+00	-4.829535e+01
8.900000e-07	7.046932e-07	-5.415176e-10	5.029347e+00	-3.768805e+01
9.000000e-07	8.061440e-07	-3.694257e-10	5.753394e+00	-2.683706e+01
9.100000e-07	9.073283e-07	-1.973577e-10	6.475540e+00	-1.573888e+01
9.200000e-07	1.008215e-06	-2.622111e-11	7.195564e+00	-4.391392e+00
9.300000e-07	1.108757e-06	1.473315e-10	7.913122e+00	7.204887e+00
9.400000e-07	1.208938e-06	3.259800e-10	8.628105e+00	1.904549e+01
9.500000e-07	1.308754e-06	5.092992e-10	9.340489e+00	3.112058e+01
9.600000e-07	1.408155e-06	6.952179e-10	1.004990e+01	4.341364e+01
9.700000e-07	1.506926e-06	8.827819e-10	1.075483e+01	5.590055e+01
9.800000e-07	1.604958e-06	1.073047e-09	1.145447e+01	6.854906e+01
9.900000e-07	1.702301e-06	1.267490e-09	1.214920e+01	8.131893e+01
1.000000e-06	1.798932e-06	1.463793e-09	1.283885e+01	9.416274e+01
1.010000e-06	1.894806e-06	1.659611e-09	1.352310e+01	1.070273e+02
1.020000e-06	1.989976e-06	1.852627e-09	1.420233e+01	1.198558e+02
1.030000e-06	2.084481e-06	2.042139e-09	1.487680e+01	1.325899e+02
1.040000e-06	2.178274e-06	2.231412e-09	1.554619e+01	1.451728e+02
1.050000e-06	2.271319e-06	2.418423e-09	1.621025e+01	1.575512e+02
1.060000e-06	2.363634e-06	2.601887e-09	1.686909e+01	1.696781e+02
1.070000e-06	2.455255e-06	2.781083e-09	1.752299e+01	1.815137e+02
1.080000e-06	2.546002e-06	2.954841e-09	1.817064e+01	1.930273e+02
1.090000e-06	2.635665e-06	3.125381e-09	1.881056e+01	2.041969e+02
1.100000e-06	2.724219e-06	3.292777e-09	1.944257e+01	2.150089e+02
1.110000e-06	2.811791e-06	3.453513e-09	2.006756e+01	2.254572e+02
1.120000e-06	2.898417e-06	3.606774e-09	2.068581e+01	2.355415e+02
1.130000e-06	2.984101e-06	3.754229e-09	2.129733e+01	2.452656e+02
1.140000e-06	3.068870e-06	3.897746e-09	2.190231e+01	2.546356e+02
1.150000e-06	3.152734e-06	4.036366e-09	2.250085e+01	2.636585e+02
1.160000e-06	3.235561e-06	4.166246e-09	2.309197e+01	2.723411e+02
1.170000e-06	3.317142e-06	4.290196e-09	2.367421e+01	2.806894e+02
1.180000e-06	3.397542e-06	4.411637e-09	2.424802e+01	2.887084e+02
1.190000e-06	3.476767e-06	4.528412e-09	2.481345e+01	2.964025e+02
1.200000e-06	3.554720e-06	4.640475e-09	2.536979e+01	3.037766e+02
1.210000e-06	3.631405e-06	4.748960e-09	2.591709e+01	3.108364e+02
1.220000e-06	3.706748e-06	4.850549e-09	2.645481e+01	3.175899e+02
1.230000e-06	3.780556e-06	4.945655e-09	2.698157e+01	3.240477e+02
1.240000e-06	3.852768e-06	5.037498e-09	2.749694e+01	3.302231e+02
1.250000e-06	3.923514e-06	5.128866e-09	2.800185e+01	3.361326e+02
1.260000e-06	3.992904e-06	5.217443e-09	2.849708e+01	3.417945e+02
1.270000e-06	4.061022e-06	5.300039e-09	2.898324e+01	3.472285e+02
1.280000e-06	4.127697e-06	5.378547e-09	2.945909e+01	3.524540e+02
1.290000e-06	4.192628e-06	5.455594e-09	2.992250e+01	3.574887e+02
1.300000e-06	4.255995e-06	5.530331e-09	3.037475e+01	3.623476e+02
1.310000e-06	4.317981e-06	5.601128e-09	3.081713e+01	3.670417e+02
1.320000e-06	4.378599e-06	5.670076e-09	3.124976e+01	3.715775e+02
1.330000e-06	4.437787e-06	5.736466e-09	3.167218e+01	3.759570e+02
1.340000e-06	4.495216e-06	5.800840e-09	3.208205e+01	3.801778e+02
1.350000e-06	4.550937e-06	5.863314e-09	3.247973e+01	3.842348e+02
1.360000e-06	4.605070e-06	5.921692e-09	3.286607e+01	3.881205e+02
1.370000e-06	4.657444e-06	5.974481e-09	3.323986e+01	3.918275e+02
1.380000e-06	4.707813e-06	6.024228e-09	3.359934e+01	3.953489e+02
1.390000e-06	4.756164e-06	6.075085e-09	3.394441e+01	3.986805e+02
1.400000e-06	4.802820e-06	6.123899e-09	3.427740e+01	4.018208e+02
1.410000e-06	4.847941e-06	6.168276e-09	3.459942e+01	4.047721e+02
1.420000e-06	4.891554e-06	6.208821e-09	3.491069e+01	4.075397e+02
1.430000e-06	4.933334e-06	6.246067e-09	3.520886e+01	4.101321e+02
1.440000e-06	4.973243e-06	6.281443e-09	3.549369e+01	4.125593e+02
1.450000e-06	5.011495e-06	6.314243e-09	3.576670e+01	4.148322e+02
1.460000e-06	5.048120e-06	6.345260e-09	3.602809e+01	4.169612e+02
1.470000e-06	5.083014e-06	6.376022e-09	3.627713e+01	4.189552e+02
1.480000e-06	5.115920e-06	6.404582e-09	3.651197e+01	4.208210e+02
1.490000e-06	5.146977e-06	6.430446e-09	3.673363e+01	4.225629e+02
1.500000e-06	5.176388e-06	6.453761e-09	3.694352e+01	4.241828e+02
1.510000e-06	5.204165e-06	6.474790e-09	3.714177e+01	4.256807e+02
1.520000e-06	5.229942e-06	6.493830e-09	3.732574e+01	4.270554e+02
1.530000e-06	5.253633e-06	6.511017e-09	3.749482e+01	4.283055e+02
1.540000e-06	5.275507e-06	6.527377e-09	3.765093e+01	4.294301e+02
1.550000e-06	5.295708e-06	6.542665e-09	3.779510e+01	4.304297e+02
1.560000e-06	5.314126e-06	6.557068e-09	3.792655e+01	4.313065e+02
1.570000e-06	5.330473e-06	6.569809e-09	3.804322e+01	4.320648e+02
1.580000e-06	5.344755e-06	6.579892e-09	3.814515e+01	4.327103e+02
1.590000e-06	5.357100e-06	6.588915e-09	3.823326e+01	4.332497e+02
1.600000e-06	5.367311e-06	6.597624e-09	3.830613e+01	4.336899e+02
1.610000e-06	5.375344e-06	6.605189e-09	3.836346e+01	4.340371e+02
1.620000e-06	5.381520e-06	6.610785e-09	3.840754e+01	4.342959e+02
1.630000e-06	5.385969e-06	6.614632e-09	3.843930e+01	4.344688e+02
1.640000e-06	5.388453e-06	6.617011e-09	3.845702e+01	4.345559e+02
1.650000e-06	5.388870e-06	6.620832e-09	3.846000e+01	4.345550e+02
1.660000e-06	5.387537e-06	6.619299e-09	3.845048e+01	4.344620e+02
1.670000e-06	5.384546e-06	6.611049e-09	3.842914e+01	4.342721e+02
1.680000e-06	5.379871e-06	6.606002e-09	3.839577e+01	4.339803e+02
1.690000e-06	5.373291e-06	6.600920e-09	3.834881e+01	4.335829e+02
1.700000e-06	5.364850e-06	6.596540e-09	3.828857e+01	4.330782e+02
1.710000e-06	5.354852e-06	6.594513e-09	3.821721e+01	4.324672e+02
1.720000e-06	5.343244e-06	6.594679e-09	3.813437e+01	4.317540e+02
1.730000e-06	5.329710e-06	6.608192e-09	3.803777e+01	4.309457e+02
1.740000e-06	5.314082e-06	6.502835e-09	3.792624e+01	4.300516e+02
1.750000e-06	5.296137e-06	6.467776e-09	3.779817e+01	4.290825e+02
1.760000e-06	5.275480e-06	6.510186e-09	3.765074e+01	4.280492e+02
1.770000e-06	5.252448e-06	6.488156e-09	3.748636e+01	4.269614e+02
1.780000e-06	5.228045e-06	6.626412e-09	3.731220e+01	4.258266e+02
1.790000e-06	5.203007e-06	6.508780e-09	3.713351e+01	4.246490e+02
1.800000e-06	5.176681e-06	6.309414e-09	3.694562e+01	4.234290e+02
1.810000e-06	5.148027e-06	6.518043e-09	3.674112e+01	4.221630e+02
1.820000e-06	5.117499e-06	6.373092e-09	3.652324e+01	4.208438e+02
1.830000e-06	5.085425e-06	6.293284e-09	3.629433e+01	4.194619e+02
1.840000e-06	5.051402e-06	6.519047e-09	3.605151e+01	4.180057e+02
1.850000e-06	5.015772e-06	6.263047e-09	3.579723e+01	4.164636e+02
1.860000e-06	4.978358e-06	6.263788e-09	3.553020e+01	4.148249e+02
1.870000e-06	4.938978e-06	6.413563e-09	3.524915e+01	4.130808e+02
1.880000e-06	4.898051e-06	6.190392e-09	3.495706e+01	4.112254e+02
1.890000e-06	4.855271e-06	6.271128e-09	3.465174e+01	4.092561e+02
1.900000e-06	4.810806e-06	6.189417e-09	3.433439e+01	4.071735e+02
1.910000e-06	4.764636e-06	6.082868e-09	3.400488e+01	4.049807e+02
1.920000e-06	4.716422e-06	6.226990e-09	3.366078e+01	4.026832e+02
1.930000e-06	4.666585e-06	6.020012e-09	3.330510e+01	4.002871e+02
1.940000e-06	4.615068e-06	6.068234e-09	3.293743e+01	3.977990e+02
1.950000e-06	4.561474e-06	6.077090e-09	3.255493e+01	3.952241e+02
1.960000e-06	4.505926e-06	5.910858e-09	3.215848e+01	3.925666e+02
1.970000e-06	4.448641e-06	5.935546e-09	3.174965e+01	3.898283e+02
1.980000e-06	4.389923e-06	5.862713e-09	3.133058e+01	3.870092e+02
1.990000e-06	4.329763e-06	5.917066e-09	3.090122e+01	3.841072e+02
2.000000e-06	4.267868e-06	5.805165e-09	3.045948e+01	3.811191e+02
2.010000e-06	4.204342e-06	5.702411e-09	3.000610e+01	3.780409e+02
2.020000e-06	4.139328e-06	5.770915e-09	2.954210e+01	3.748684e+02
2.030000e-06	4.072862e-06	5.618465e-09	2.906774e+01	3.715981e+02
2.040000e-06	4.004985e-06	5.606487e-09	2.858330e+01	3.682275e+02
2.050000e-06	3.935659e-06	5.565792e-09	2.808853e+01	3.647552e+02
2.060000e-06	3.864777e-06	5.508842e-09	2.758265e+01	3.611810e+02
2.070000e-06	3.792457e-06	5.461720e-09	2.706650e+01	3.575055e+02
2.080000e-06	3.718869e-06	5.337087e-09	2.654132e+01	3.537301e+02
2.090000e-06	3.643951e-06	5.353676e-09	2.600663e+01	3.498560e+02
2.100000e-06	3.567608e-06	5.280280e-09	2.546178e+01	3.458841e+02
2.110000e-06	3.489687e-06	5.198627e-09	2.490566e+01	3.418144e+02
2.120000e-06	3.410403e-06	5.128159e-09	2.433981e+01	3.376458e+02
2.130000e-06	3.330042e-06	5.075490e-09	2.376628e+01	3.333763e+02
2.140000e-06	3.248502e-06	5.038065e-09	2.318433e+01	3.290028e+02
2.150000e-06	3.165866e-06	4.939343e-09	2.259457e+01	3.245215e+02
2.160000e-06	3.082182e-06	4.887375e-09	2.199732e+01	3.199288e+02
2.170000e-06	2.997363e-06	4.801623e-09	2.139198e+01	3.152210e+02
2.180000e-06	2.911307e-06	4.727861e-09	2.077780e+01	3.103953e+02
2.190000e-06	2.824016e-06	4.652624e-09	2.015481e+01	3.054497e+02
2.200000e-06	2.735730e-06	4.582116e-09	1.952472e+01	3.003833e+02
2.210000e-06	2.646579e-06	4.520987e-09	1.888846e+01	2.951962e+02
2.220000e-06	2.556536e-06	4.423094e-09	1.824582e+01	2.898893e+02
2.230000e-06	2.465597e-06	4.337702e-09	1.759679e+01	2.844640e+02
2.240000e-06	2.373857e-06	4.249613e-09	1.694205e+01	2.789214e+02
2.250000e-06	2.281330e-06	4.176497e-09	1.628170e+01	2.732626e+02
2.260000e-06	2.188010e-06	4.090855e-09	1.561567e+01	2.674879e+02
2.270000e-06	2.093794e-06	3.994050e-09	1.494326e+01	2.615966e+02
2.280000e-06	1.998572e-06	3.896707e-09	1.426368e+01	2.555872e+02
2.290000e-06	1.902491e-06	3.804452e-09	1.357795e+01	2.494574e+02
2.300000e-06	1.805841e-06	3.716107e-09	1.288817e+01	2.432045e+02
2.310000e-06	1.708762e-06	3.618961e-09	1.219532e+01	2.368253e+02
2.320000e-06	1.611104e-06	3.520755e-09	1.149834e+01	2.303169e+02
2.330000e-06	1.512869e-06	3.417274e-09	1.079725e+01	2.236766e+02
2.340000e-06	1.414195e-06	3.317983e-09	1.009301e+01	2.169021e+02
2.350000e-06	1.315117e-06	3.212612e-09	9.385898e+00	2.099916e+02
2.360000e-06	1.215664e-06	3.106757e-09	8.676114e+00	2.029435e+02
2.370000e-06	1.115916e-06	2.995553e-09	7.964214e+00	1.957561e+02
2.380000e-06	1.015832e-06	2.874162e-09	7.249923e+00	1.884274e+02
2.390000e-06	9.153541e-07	2.757393e-09	6.532819e+00	1.809544e+02
2.400000e-06	8.145102e-07	2.648530e-09	5.813104e+00	1.733334e+02
2.410000e-06	7.133563e-07	2.539923e-09	5.091175e+00	1.655591e+02
2.420000e-06	6.120184e-07	2.418607e-09	4.367933e+00	1.576250e+02
2.430000e-06	5.104920e-07	2.289306e-09	3.643347e+00	1.495236e+02
2.440000e-06	4.087310e-07	2.162773e-09	2.917085e+00	1.412465e+02
2.450000e-06	3.068081e-07	2.036772e-09	2.189669e+00	1.327851e+02
2.460000e-06	2.046925e-07	1.903504e-09	1.460876e+00	1.241307e+02
2.470000e-06	1.023952e-07	1.768574e-09	7.307878e-01	1.152753e+02
2.480000e-06	8.073308e-11	1.630009e-09	5.761865e-04	1.062117e+02
2.490000e-06	-1.021709e-07	1.486468e-09	-7.291867e-01	9.693359e+01
2.500000e-06	-2.044210e-07	1.344007e-09	-1.458939e+00	8.743579e+01
2.510000e-06	-3.066645e-07	1.203771e-09	-2.188644e+00	7.771372e+01
2.520000e-06	-4.087718e-07	1.060194e-09	-2.917377e+00	6.776334e+01
2.530000e-06	-5.107284e-07	9.036141e-10	-3.645034e+00	5.758068e+01
2.540000e-06	-6.125084e-07	7.407296e-10	-4.371431e+00	4.716173e+01
2.550000e-06	-7.139949e-07	5.801319e-10	-5.095733e+00	3.650230e+01
2.560000e-06	-8.150989e-07	4.176920e-10	-5.817305e+00	2.559837e+01
2.570000e-06	-9.158687e-07	2.481077e-10	-6.536492e+00	1.444663e+01
2.580000e-06	-1.016364e-06	7.306669e-11	-7.253717e+00	3.045442e+00
2.590000e-06	-1.116446e-06	-1.056784e-10	-7.967999e+00	-8.603968e+00
2.600000e-06	-1.216094e-06	-2.879680e-10	-8.679180e+00	-2.049609e+01
2.610000e-06	-1.315338e-06	-4.703204e-10	-9.387476e+00	-3.261977e+01
2.620000e-06	-1.414104e-06	-6.551847e-10	-1.009236e+01	-4.495691e+01
2.630000e-06	-1.512394e-06	-8.481451e-10	-1.079385e+01	-5.748168e+01
2.640000e-06	-1.610197e-06	-1.047050e-09	-1.149187e+01	-7.016008e+01
2.650000e-06	-1.707429e-06	-1.246055e-09	-1.218580e+01	-8.295024e+01
2.660000e-06	-1.804088e-06	-1.443335e-09	-1.287566e+01	-9.580338e+01
2.670000e-06	-1.900249e-06	-1.641424e-09	-1.356194e+01	-1.086653e+02
2.680000e-06	-1.995823e-06	-1.841218e-09	-1.424405e+01	-1.214787e+02
2.690000e-06	-2.090614e-06	-2.040060e-09	-1.492057e+01	-1.341854e+02
2.700000e-06	-2.184428e-06	-2.234333e-09	-1.559011e+01	-1.467290e+02
2.710000e-06	-2.277322e-06	-2.421124e-09	-1.625309e+01	-1.590575e+02
2.720000e-06	-2.369379e-06	-2.602382e-09	-1.691009e+01	-1.711252e+02
2.730000e-06	-2.460568e-06	-2.781095e-09	-1.756090e+01	-1.828944e+02
2.740000e-06	-2.550900e-06	-2.954852e-09	-1.820560e+01	-1.943360e+02
2.750000e-06	-2.640267e-06	-3.122550e-09	-1.884340e+01	-2.054301e+02
2.760000e-06	-2.728745e-06	-3.285521e-09	-1.947487e+01	-2.161647e+02
2.770000e-06	-2.816517e-06	-3.445284e-09	-2.010129e+01	-2.265351e+02
2.780000e-06	-2.903338e-06	-3.600679e-09	-2.072093e+01	-2.365420e+02
2.790000e-06	-2.988944e-06	-3.748571e-09	-2.133189e+01	-2.461899e+02
2.800000e-06	-3.073417e-06	-3.889467e-09	-2.193477e+01	-2.554851e+02
2.810000e-06	-3.156836e-06	-4.025033e-09	-2.253012e+01	-2.644348e+02
2.820000e-06	-3.239194e-06	-4.155347e-09	-2.311791e+01	-2.730456e+02
2.830000e-06	-3.320478e-06	-4.280954e-09	-2.369803e+01	-2.813232e+02
2.840000e-06	-3.400747e-06	-4.405455e-09	-2.427090e+01	-2.892724e+02
2.850000e-06	-3.479808e-06	-4.527018e-09	-2.483515e+01	-2.968977e+02
2.860000e-06	-3.557310e-06	-4.640254e-09	-2.538828e+01	-3.042041e+02
2.870000e-06	-3.633305e-06	-4.746923e-09	-2.593065e+01	-3.111978e+02
2.880000e-06	-3.707939e-06	-4.850036e-09	-2.646331e+01	-3.178872e+02
2.890000e-06	-3.781226e-06	-4.948755e-09	-2.698635e+01	-3.242835e+02
2.900000e-06	-3.853221e-06	-5.041372e-09	-2.750017e+01	-3.304007e+02
2.910000e-06	-3.923805e-06	-5.129517e-09	-2.800393e+01	-3.362558e+02
2.920000e-06	-3.992809e-06	-5.214580e-09	-2.849641e+01	-3.418675e+02
2.930000e-06	-4.060319e-06	-5.296076e-09	-2.897822e+01	-3.472554e+02
2.940000e-06	-4.126383e-06	-5.375335e-09	-2.944971e+01	-3.524388e+02
