# Temperatura_=_62.82
# Concentracion g/m^3_=_15000.0
# C_Vs_to_Am_M_A/Vsm_=_65563218390.804596
# pendiente_HvsI_1/m_=_3716.3
# ordenada_HvsI_A/m_=_1297.0
# frecuencia_Hz_=_301592.1674604684

Tiempo_(s)	Campo_(V.s)	Magnetizacion_(V.s)	Campo_(kA/m)	Magnetizacion_(A/m)
0.000000e+00	-5.373888e-06	-6.785579e-09	-3.833636e+01	-4.434015e+02
1.000000e-08	-5.370935e-06	-6.780734e-09	-3.831529e+01	-4.432086e+02
2.000000e-08	-5.366240e-06	-6.775542e-09	-3.828179e+01	-4.428920e+02
3.000000e-08	-5.359968e-06	-6.767524e-09	-3.823705e+01	-4.424493e+02
4.000000e-08	-5.352151e-06	-6.757433e-09	-3.818129e+01	-4.418832e+02
5.000000e-08	-5.342499e-06	-6.747570e-09	-3.811243e+01	-4.412021e+02
6.000000e-08	-5.330788e-06	-6.735749e-09	-3.802888e+01	-4.404193e+02
7.000000e-08	-5.317206e-06	-6.725613e-09	-3.793199e+01	-4.395525e+02
8.000000e-08	-5.301464e-06	-6.721783e-09	-3.781970e+01	-4.386216e+02
9.000000e-08	-5.283453e-06	-6.709004e-09	-3.769121e+01	-4.376464e+02
1.000000e-07	-5.263445e-06	-6.700621e-09	-3.754848e+01	-4.366444e+02
1.100000e-07	-5.241545e-06	-6.681966e-09	-3.739224e+01	-4.356283e+02
1.200000e-07	-5.217950e-06	-6.642403e-09	-3.722392e+01	-4.346047e+02
1.300000e-07	-5.192860e-06	-6.633245e-09	-3.704493e+01	-4.335723e+02
1.400000e-07	-5.166170e-06	-6.606831e-09	-3.685453e+01	-4.325223e+02
1.500000e-07	-5.137825e-06	-6.556023e-09	-3.665233e+01	-4.314389e+02
1.600000e-07	-5.107942e-06	-6.583055e-09	-3.643914e+01	-4.303011e+02
1.700000e-07	-5.076491e-06	-6.557048e-09	-3.621478e+01	-4.290846e+02
1.800000e-07	-5.042994e-06	-6.524764e-09	-3.597581e+01	-4.277647e+02
1.900000e-07	-5.007630e-06	-6.535620e-09	-3.572353e+01	-4.263187e+02
2.000000e-07	-4.970780e-06	-6.445641e-09	-3.546066e+01	-4.247286e+02
2.100000e-07	-4.932162e-06	-6.399152e-09	-3.518516e+01	-4.229824e+02
2.200000e-07	-4.891755e-06	-6.407999e-09	-3.489690e+01	-4.210757e+02
2.300000e-07	-4.849410e-06	-6.364413e-09	-3.459482e+01	-4.190111e+02
2.400000e-07	-4.805184e-06	-6.337174e-09	-3.427932e+01	-4.167976e+02
2.500000e-07	-4.759256e-06	-6.319545e-09	-3.395168e+01	-4.144496e+02
2.600000e-07	-4.711402e-06	-6.267816e-09	-3.361030e+01	-4.119838e+02
2.700000e-07	-4.661472e-06	-6.226834e-09	-3.325411e+01	-4.094178e+02
2.800000e-07	-4.609482e-06	-6.192420e-09	-3.288322e+01	-4.067676e+02
2.900000e-07	-4.555599e-06	-6.148288e-09	-3.249883e+01	-4.040454e+02
3.000000e-07	-4.500096e-06	-6.098440e-09	-3.210288e+01	-4.012589e+02
3.100000e-07	-4.442904e-06	-6.070471e-09	-3.169488e+01	-3.984103e+02
3.200000e-07	-4.383939e-06	-6.027935e-09	-3.127424e+01	-3.954969e+02
3.300000e-07	-4.323429e-06	-5.974414e-09	-3.084257e+01	-3.925114e+02
3.400000e-07	-4.261462e-06	-5.938213e-09	-3.040051e+01	-3.894442e+02
3.500000e-07	-4.198112e-06	-5.875115e-09	-2.994858e+01	-3.862840e+02
3.600000e-07	-4.133367e-06	-5.820550e-09	-2.948670e+01	-3.830203e+02
3.700000e-07	-4.066934e-06	-5.779523e-09	-2.901278e+01	-3.796445e+02
3.800000e-07	-3.998855e-06	-5.726198e-09	-2.852712e+01	-3.761510e+02
3.900000e-07	-3.929450e-06	-5.671089e-09	-2.803199e+01	-3.725379e+02
4.000000e-07	-3.858862e-06	-5.610225e-09	-2.752843e+01	-3.688066e+02
4.100000e-07	-3.787084e-06	-5.552149e-09	-2.701638e+01	-3.649615e+02
4.200000e-07	-3.713863e-06	-5.487176e-09	-2.649403e+01	-3.610089e+02
4.300000e-07	-3.638965e-06	-5.425218e-09	-2.595973e+01	-3.569558e+02
4.400000e-07	-3.562574e-06	-5.370804e-09	-2.541477e+01	-3.528085e+02
4.500000e-07	-3.484801e-06	-5.314636e-09	-2.485995e+01	-3.485718e+02
4.600000e-07	-3.405543e-06	-5.250619e-09	-2.429454e+01	-3.442481e+02
4.700000e-07	-3.325011e-06	-5.171681e-09	-2.372003e+01	-3.398367e+02
4.800000e-07	-3.243312e-06	-5.099883e-09	-2.313720e+01	-3.353346e+02
4.900000e-07	-3.160427e-06	-5.032266e-09	-2.254592e+01	-3.307362e+02
5.000000e-07	-3.076532e-06	-4.953204e-09	-2.194743e+01	-3.260349e+02
5.100000e-07	-2.991754e-06	-4.878622e-09	-2.134264e+01	-3.212231e+02
5.200000e-07	-2.906033e-06	-4.809386e-09	-2.073112e+01	-3.162940e+02
5.300000e-07	-2.819307e-06	-4.731587e-09	-2.011243e+01	-3.112421e+02
5.400000e-07	-2.731694e-06	-4.649970e-09	-1.948741e+01	-3.060635e+02
5.500000e-07	-2.643131e-06	-4.567819e-09	-1.885563e+01	-3.007565e+02
5.600000e-07	-2.553387e-06	-4.484094e-09	-1.821540e+01	-2.953213e+02
5.700000e-07	-2.462544e-06	-4.396559e-09	-1.756735e+01	-2.897597e+02
5.800000e-07	-2.370811e-06	-4.310258e-09	-1.691294e+01	-2.840742e+02
5.900000e-07	-2.278288e-06	-4.226960e-09	-1.625290e+01	-2.782679e+02
6.000000e-07	-2.185000e-06	-4.140247e-09	-1.558740e+01	-2.723432e+02
6.100000e-07	-2.090948e-06	-4.044068e-09	-1.491645e+01	-2.663017e+02
6.200000e-07	-1.996145e-06	-3.946297e-09	-1.424014e+01	-2.601437e+02
6.300000e-07	-1.900700e-06	-3.851805e-09	-1.355925e+01	-2.538680e+02
6.400000e-07	-1.804642e-06	-3.754678e-09	-1.287399e+01	-2.474724e+02
6.500000e-07	-1.707873e-06	-3.656998e-09	-1.218366e+01	-2.409536e+02
6.600000e-07	-1.610309e-06	-3.555891e-09	-1.148766e+01	-2.343076e+02
6.700000e-07	-1.512004e-06	-3.449056e-09	-1.078637e+01	-2.275306e+02
6.800000e-07	-1.413137e-06	-3.339366e-09	-1.008106e+01	-2.206186e+02
6.900000e-07	-1.313772e-06	-3.231682e-09	-9.372213e+00	-2.135680e+02
7.000000e-07	-1.213966e-06	-3.125723e-09	-8.660215e+00	-2.063755e+02
7.100000e-07	-1.113840e-06	-3.015849e-09	-7.945938e+00	-1.990379e+02
7.200000e-07	-1.013431e-06	-2.900301e-09	-7.229632e+00	-1.915520e+02
7.300000e-07	-9.127146e-07	-2.783449e-09	-6.511143e+00	-1.839139e+02
7.400000e-07	-8.117178e-07	-2.666229e-09	-5.790650e+00	-1.761191e+02
7.500000e-07	-7.104319e-07	-2.545740e-09	-5.068094e+00	-1.681620e+02
7.600000e-07	-6.088531e-07	-2.420692e-09	-4.343449e+00	-1.600362e+02
7.700000e-07	-5.070597e-07	-2.291985e-09	-3.617273e+00	-1.517345e+02
7.800000e-07	-4.050993e-07	-2.160797e-09	-2.889906e+00	-1.432490e+02
7.900000e-07	-3.029539e-07	-2.026539e-09	-2.161219e+00	-1.345719e+02
8.000000e-07	-2.006884e-07	-1.891369e-09	-1.431675e+00	-1.256958e+02
8.100000e-07	-9.831895e-08	-1.754750e-09	-7.013898e-01	-1.166138e+02
8.200000e-07	4.108873e-09	-1.611961e-09	2.931196e-02	-1.073204e+02
8.300000e-07	1.065291e-07	-1.462532e-09	7.599598e-01	-9.781079e+01
8.400000e-07	2.089210e-07	-1.310337e-09	1.490405e+00	-8.808112e+01
8.500000e-07	3.112528e-07	-1.158957e-09	2.220422e+00	-7.812799e+01
8.600000e-07	4.134959e-07	-1.006344e-09	2.949806e+00	-6.794801e+01
8.700000e-07	5.156078e-07	-8.476641e-10	3.678254e+00	-5.753729e+01
8.800000e-07	6.176060e-07	-6.811974e-10	4.405891e+00	-4.689110e+01
8.900000e-07	7.193752e-07	-5.124624e-10	5.131894e+00	-3.600388e+01
9.000000e-07	8.208343e-07	-3.425343e-10	5.855685e+00	-2.486950e+01
9.100000e-07	9.220271e-07	-1.684492e-10	6.577576e+00	-1.348206e+01
9.200000e-07	1.022913e-06	9.049713e-12	7.297277e+00	-1.837119e+00
9.300000e-07	1.123484e-06	1.894611e-10	8.014737e+00	1.006680e+01
9.400000e-07	1.223744e-06	3.736353e-10	8.729973e+00	2.222642e+01
9.500000e-07	1.323618e-06	5.622137e-10	9.442450e+00	3.463198e+01
9.600000e-07	1.422988e-06	7.511790e-10	1.015134e+01	4.726573e+01
9.700000e-07	1.521750e-06	9.419549e-10	1.085589e+01	6.010088e+01
9.800000e-07	1.619832e-06	1.137851e-09	1.155559e+01	7.310122e+01
9.900000e-07	1.717132e-06	1.337563e-09	1.224971e+01	8.622150e+01
1.000000e-06	1.813601e-06	1.534974e-09	1.293791e+01	9.940872e+01
1.010000e-06	1.909343e-06	1.730437e-09	1.362091e+01	1.126040e+02
1.020000e-06	2.004445e-06	1.928463e-09	1.429935e+01	1.257455e+02
1.030000e-06	2.098887e-06	2.127653e-09	1.497308e+01	1.387707e+02
1.040000e-06	2.192595e-06	2.324475e-09	1.564158e+01	1.516202e+02
1.050000e-06	2.285562e-06	2.515599e-09	1.630479e+01	1.642400e+02
1.060000e-06	2.377892e-06	2.701434e-09	1.696345e+01	1.765839e+02
1.070000e-06	2.469507e-06	2.882407e-09	1.761702e+01	1.886150e+02
1.080000e-06	2.560155e-06	3.057440e-09	1.826369e+01	2.003065e+02
1.090000e-06	2.649645e-06	3.229363e-09	1.890209e+01	2.116410e+02
1.100000e-06	2.738014e-06	3.399144e-09	1.953250e+01	2.226098e+02
1.110000e-06	2.825430e-06	3.562913e-09	2.015611e+01	2.332113e+02
1.120000e-06	2.911932e-06	3.719756e-09	2.077320e+01	2.434483e+02
1.130000e-06	2.997499e-06	3.871402e-09	2.138362e+01	2.533265e+02
1.140000e-06	3.082159e-06	4.018526e-09	2.198757e+01	2.628525e+02
1.150000e-06	3.165929e-06	4.160053e-09	2.258517e+01	2.720319e+02
1.160000e-06	3.248646e-06	4.295009e-09	2.317526e+01	2.808689e+02
1.170000e-06	3.330129e-06	4.423040e-09	2.375654e+01	2.893658e+02
1.180000e-06	3.410387e-06	4.544614e-09	2.432909e+01	2.975240e+02
1.190000e-06	3.489429e-06	4.660174e-09	2.489296e+01	3.053444e+02
1.200000e-06	3.567249e-06	4.772347e-09	2.544811e+01	3.128290e+02
1.210000e-06	3.643854e-06	4.881472e-09	2.599460e+01	3.199821e+02
1.220000e-06	3.719074e-06	4.984941e-09	2.653121e+01	3.268116e+02
1.230000e-06	3.792665e-06	5.080821e-09	2.705619e+01	3.333292e+02
1.240000e-06	3.864686e-06	5.172704e-09	2.756998e+01	3.395511e+02
1.250000e-06	3.935304e-06	5.264581e-09	2.807375e+01	3.454968e+02
1.260000e-06	4.004573e-06	5.353893e-09	2.856790e+01	3.511883e+02
1.270000e-06	4.072591e-06	5.437490e-09	2.905313e+01	3.566487e+02
1.280000e-06	4.139115e-06	5.516387e-09	2.952770e+01	3.619001e+02
1.290000e-06	4.203932e-06	5.592589e-09	2.999010e+01	3.669619e+02
1.300000e-06	4.267198e-06	5.666960e-09	3.044143e+01	3.718495e+02
1.310000e-06	4.329010e-06	5.740508e-09	3.088238e+01	3.765733e+02
1.320000e-06	4.389467e-06	5.811190e-09	3.131367e+01	3.811381e+02
1.330000e-06	4.448495e-06	5.877354e-09	3.173477e+01	3.855438e+02
1.340000e-06	4.505760e-06	5.939269e-09	3.214329e+01	3.897862e+02
1.350000e-06	4.561277e-06	6.000054e-09	3.253933e+01	3.938582e+02
1.360000e-06	4.615158e-06	6.059580e-09	3.292371e+01	3.977519e+02
1.370000e-06	4.667245e-06	6.114207e-09	3.329529e+01	4.014599e+02
1.380000e-06	4.717330e-06	6.164944e-09	3.365259e+01	4.049774e+02
1.390000e-06	4.765463e-06	6.214764e-09	3.399596e+01	4.083024e+02
1.400000e-06	4.811932e-06	6.263174e-09	3.432746e+01	4.114372e+02
1.410000e-06	4.856863e-06	6.308578e-09	3.464799e+01	4.143873e+02
1.420000e-06	4.900189e-06	6.350630e-09	3.495707e+01	4.171616e+02
1.430000e-06	4.941676e-06	6.388920e-09	3.525303e+01	4.197705e+02
1.440000e-06	4.981325e-06	6.423981e-09	3.553588e+01	4.222253e+02
1.450000e-06	5.019305e-06	6.457800e-09	3.580682e+01	4.245362e+02
1.460000e-06	5.055721e-06	6.490488e-09	3.606661e+01	4.267114e+02
1.470000e-06	5.090336e-06	6.522530e-09	3.631355e+01	4.287565e+02
1.480000e-06	5.122988e-06	6.551863e-09	3.654648e+01	4.306739e+02
1.490000e-06	5.153898e-06	6.577167e-09	3.676699e+01	4.324635e+02
1.500000e-06	5.183117e-06	6.600047e-09	3.697543e+01	4.341231e+02
1.510000e-06	5.210563e-06	6.621074e-09	3.717122e+01	4.356496e+02
1.520000e-06	5.235992e-06	6.641450e-09	3.735263e+01	4.370405e+02
1.530000e-06	5.259427e-06	6.659957e-09	3.751981e+01	4.382946e+02
1.540000e-06	5.281084e-06	6.676740e-09	3.767431e+01	4.394133e+02
1.550000e-06	5.300986e-06	6.693085e-09	3.781629e+01	4.404007e+02
1.560000e-06	5.319017e-06	6.709473e-09	3.794491e+01	4.412636e+02
1.570000e-06	5.335054e-06	6.723207e-09	3.805932e+01	4.420109e+02
1.580000e-06	5.349155e-06	6.733566e-09	3.815991e+01	4.426523e+02
1.590000e-06	5.361212e-06	6.743204e-09	3.824593e+01	4.431972e+02
1.600000e-06	5.371024e-06	6.751737e-09	3.831592e+01	4.436534e+02
1.610000e-06	5.378775e-06	6.758655e-09	3.837122e+01	4.440254e+02
1.620000e-06	5.384702e-06	6.764413e-09	3.841350e+01	4.443144e+02
1.630000e-06	5.388845e-06	6.768224e-09	3.844306e+01	4.445174e+02
1.640000e-06	5.391034e-06	6.770570e-09	3.845867e+01	4.446282e+02
1.650000e-06	5.391220e-06	6.771367e-09	3.846000e+01	4.446382e+02
1.660000e-06	5.389634e-06	6.771271e-09	3.844868e+01	4.445377e+02
1.670000e-06	5.386478e-06	6.768670e-09	3.842617e+01	4.443184e+02
1.680000e-06	5.381625e-06	6.762748e-09	3.839155e+01	4.439746e+02
1.690000e-06	5.374791e-06	6.757539e-09	3.834280e+01	4.435048e+02
1.700000e-06	5.366150e-06	6.751995e-09	3.828115e+01	4.429130e+02
1.710000e-06	5.355911e-06	6.744239e-09	3.820811e+01	4.422085e+02
1.720000e-06	5.343982e-06	6.733131e-09	3.812301e+01	4.414059e+02
1.730000e-06	5.330110e-06	6.704719e-09	3.802405e+01	4.405234e+02
1.740000e-06	5.314127e-06	6.694882e-09	3.791003e+01	4.395811e+02
1.750000e-06	5.295773e-06	6.679617e-09	3.777910e+01	4.385985e+02
1.760000e-06	5.274731e-06	6.668034e-09	3.762899e+01	4.375924e+02
1.770000e-06	5.251458e-06	6.679398e-09	3.746296e+01	4.365742e+02
1.780000e-06	5.226986e-06	6.629571e-09	3.728838e+01	4.355487e+02
1.790000e-06	5.201787e-06	6.610481e-09	3.710861e+01	4.345133e+02
1.800000e-06	5.175078e-06	6.616605e-09	3.691808e+01	4.334574e+02
1.810000e-06	5.146155e-06	6.557677e-09	3.671175e+01	4.323641e+02
1.820000e-06	5.115448e-06	6.570837e-09	3.649269e+01	4.312113e+02
1.830000e-06	5.083049e-06	6.548656e-09	3.626156e+01	4.299744e+02
1.840000e-06	5.048761e-06	6.493457e-09	3.601696e+01	4.286290e+02
1.850000e-06	5.012900e-06	6.562430e-09	3.576113e+01	4.271532e+02
1.860000e-06	4.975270e-06	6.545333e-09	3.549269e+01	4.255301e+02
1.870000e-06	4.935733e-06	6.460411e-09	3.521064e+01	4.237495e+02
1.880000e-06	4.894522e-06	6.443927e-09	3.491664e+01	4.218082e+02
1.890000e-06	4.851505e-06	6.378458e-09	3.460977e+01	4.197104e+02
1.900000e-06	4.806825e-06	6.341419e-09	3.429103e+01	4.174666e+02
1.910000e-06	4.760298e-06	6.333165e-09	3.395911e+01	4.150915e+02
1.920000e-06	4.711753e-06	6.283735e-09	3.361280e+01	4.126026e+02
1.930000e-06	4.661651e-06	6.264946e-09	3.325539e+01	4.100171e+02
1.940000e-06	4.609783e-06	6.211912e-09	3.288536e+01	4.073503e+02
1.950000e-06	4.555799e-06	6.175615e-09	3.250025e+01	4.046136e+02
1.960000e-06	4.499909e-06	6.140068e-09	3.210154e+01	4.018135e+02
1.970000e-06	4.442338e-06	6.082000e-09	3.169085e+01	3.989512e+02
1.980000e-06	4.383338e-06	6.040332e-09	3.126995e+01	3.960228e+02
1.990000e-06	4.322797e-06	5.977665e-09	3.083806e+01	3.930204e+02
2.000000e-06	4.260563e-06	5.957874e-09	3.039409e+01	3.899339e+02
2.010000e-06	4.196773e-06	5.916889e-09	2.993903e+01	3.867521e+02
2.020000e-06	4.131494e-06	5.841669e-09	2.947334e+01	3.834648e+02
2.030000e-06	4.064851e-06	5.795952e-09	2.899792e+01	3.800639e+02
2.040000e-06	3.996828e-06	5.739699e-09	2.851265e+01	3.765446e+02
2.050000e-06	3.927232e-06	5.690583e-09	2.801617e+01	3.729056e+02
2.060000e-06	3.856107e-06	5.627490e-09	2.750878e+01	3.691492e+02
2.070000e-06	3.783682e-06	5.580581e-09	2.699211e+01	3.652803e+02
2.080000e-06	3.709972e-06	5.525060e-09	2.646628e+01	3.613053e+02
2.090000e-06	3.634910e-06	5.440663e-09	2.593080e+01	3.572312e+02
2.100000e-06	3.558412e-06	5.373867e-09	2.538508e+01	3.530642e+02
2.110000e-06	3.480321e-06	5.309528e-09	2.482799e+01	3.488085e+02
2.120000e-06	3.400829e-06	5.263464e-09	2.426091e+01	3.444659e+02
2.130000e-06	3.320209e-06	5.188245e-09	2.368577e+01	3.400352e+02
2.140000e-06	3.238480e-06	5.116783e-09	2.310274e+01	3.355127e+02
2.150000e-06	3.155669e-06	5.065283e-09	2.251198e+01	3.308926e+02
2.160000e-06	3.071864e-06	4.985045e-09	2.191413e+01	3.261680e+02
2.170000e-06	2.986914e-06	4.906566e-09	2.130811e+01	3.213313e+02
2.180000e-06	2.900555e-06	4.829931e-09	2.069204e+01	3.163761e+02
2.190000e-06	2.813043e-06	4.751395e-09	2.006774e+01	3.112971e+02
2.200000e-06	2.724637e-06	4.668169e-09	1.943707e+01	3.060908e+02
2.210000e-06	2.635318e-06	4.589945e-09	1.879989e+01	3.007560e+02
2.220000e-06	2.545093e-06	4.517563e-09	1.815624e+01	2.952933e+02
2.230000e-06	2.454042e-06	4.433295e-09	1.750669e+01	2.897046e+02
2.240000e-06	2.362267e-06	4.338719e-09	1.685199e+01	2.839927e+02
2.250000e-06	2.269679e-06	4.248121e-09	1.619148e+01	2.781606e+02
2.260000e-06	2.176180e-06	4.164622e-09	1.552448e+01	2.722105e+02
2.270000e-06	2.081685e-06	4.071621e-09	1.485036e+01	2.661438e+02
2.280000e-06	1.986235e-06	3.975967e-09	1.416944e+01	2.599605e+02
2.290000e-06	1.890054e-06	3.879098e-09	1.348331e+01	2.536591e+02
2.300000e-06	1.793303e-06	3.776366e-09	1.279310e+01	2.472371e+02
2.310000e-06	1.696083e-06	3.671599e-09	1.209955e+01	2.406911e+02
2.320000e-06	1.598367e-06	3.569924e-09	1.140246e+01	2.340172e+02
2.330000e-06	1.500109e-06	3.473904e-09	1.070151e+01	2.272113e+02
2.340000e-06	1.401324e-06	3.372292e-09	9.996797e+00	2.202696e+02
2.350000e-06	1.302099e-06	3.262645e-09	9.288945e+00	2.131886e+02
2.360000e-06	1.202616e-06	3.150747e-09	8.579249e+00	2.059650e+02
2.370000e-06	1.102893e-06	3.036506e-09	7.867838e+00	1.985957e+02
2.380000e-06	1.002829e-06	2.919658e-09	7.154004e+00	1.910773e+02
2.390000e-06	9.023687e-07	2.803039e-09	6.437337e+00	1.834057e+02
2.400000e-06	8.014433e-07	2.684787e-09	5.717353e+00	1.755764e+02
2.410000e-06	7.001749e-07	2.563968e-09	4.994922e+00	1.675835e+02
2.420000e-06	5.986705e-07	2.439135e-09	4.270808e+00	1.594204e+02
2.430000e-06	4.969040e-07	2.312308e-09	3.544824e+00	1.510797e+02
2.440000e-06	3.949914e-07	2.184753e-09	2.817798e+00	1.425535e+02
2.450000e-06	2.928935e-07	2.051593e-09	2.089450e+00	1.338341e+02
2.460000e-06	1.906304e-07	1.913341e-09	1.359923e+00	1.249142e+02
2.470000e-06	8.825553e-08	1.772733e-09	6.295992e-01	1.157871e+02
2.480000e-06	-1.420071e-08	1.631687e-09	-1.013053e-01	1.064475e+02
2.490000e-06	-1.166589e-07	1.490589e-09	-8.322238e-01	9.689074e+01
2.500000e-06	-2.190595e-07	1.344580e-09	-1.562731e+00	8.711320e+01
2.510000e-06	-3.213276e-07	1.191338e-09	-2.292294e+00	7.711151e+01
2.520000e-06	-4.235215e-07	1.034955e-09	-3.021327e+00	6.688218e+01
2.530000e-06	-5.256160e-07	8.766154e-10	-3.749650e+00	5.642117e+01
2.540000e-06	-6.274407e-07	7.166478e-10	-4.476050e+00	4.572358e+01
2.550000e-06	-7.289329e-07	5.545096e-10	-5.200077e+00	3.478366e+01
2.560000e-06	-8.300700e-07	3.849451e-10	-5.921570e+00	2.359526e+01
2.570000e-06	-9.308679e-07	2.079410e-10	-6.640645e+00	1.215269e+01
2.580000e-06	-1.031293e-06	2.619854e-11	-7.357059e+00	4.519856e-01
2.590000e-06	-1.131255e-06	-1.589364e-10	-8.070172e+00	-1.150745e+01
2.600000e-06	-1.230841e-06	-3.450426e-10	-8.780596e+00	-2.372110e+01
2.610000e-06	-1.330028e-06	-5.349714e-10	-9.488182e+00	-3.617761e+01
2.620000e-06	-1.428775e-06	-7.294555e-10	-1.019263e+01	-4.885735e+01
2.630000e-06	-1.527120e-06	-9.283008e-10	-1.089420e+01	-6.173152e+01
2.640000e-06	-1.624908e-06	-1.130016e-09	-1.159180e+01	-7.476191e+01
2.650000e-06	-1.722049e-06	-1.332241e-09	-1.228479e+01	-8.790148e+01
2.660000e-06	-1.818620e-06	-1.535852e-09	-1.297371e+01	-1.010958e+02
2.670000e-06	-1.914685e-06	-1.740751e-09	-1.365902e+01	-1.142851e+02
2.680000e-06	-2.010194e-06	-1.946491e-09	-1.434037e+01	-1.274071e+02
2.690000e-06	-2.104932e-06	-2.149219e-09	-1.501621e+01	-1.403997e+02
2.700000e-06	-2.198725e-06	-2.346420e-09	-1.568531e+01	-1.532046e+02
2.710000e-06	-2.291571e-06	-2.537286e-09	-1.634765e+01	-1.657691e+02
2.720000e-06	-2.383547e-06	-2.726037e-09	-1.700380e+01	-1.780490e+02
2.730000e-06	-2.474662e-06	-2.909929e-09	-1.765380e+01	-1.900095e+02
2.740000e-06	-2.564907e-06	-3.083616e-09	-1.829759e+01	-2.016259e+02
2.750000e-06	-2.654213e-06	-3.250934e-09	-1.893468e+01	-2.128828e+02
2.760000e-06	-2.742630e-06	-3.415365e-09	-1.956543e+01	-2.237731e+02
2.770000e-06	-2.830257e-06	-3.578585e-09	-2.019054e+01	-2.342963e+02
2.780000e-06	-2.916872e-06	-3.737761e-09	-2.080845e+01	-2.444562e+02
2.790000e-06	-3.002297e-06	-3.887765e-09	-2.141785e+01	-2.542587e+02
2.800000e-06	-3.086623e-06	-4.028938e-09	-2.201941e+01	-2.637102e+02
2.810000e-06	-3.169899e-06	-4.164548e-09	-2.261349e+01	-2.728162e+02
2.820000e-06	-3.252139e-06	-4.296549e-09	-2.320018e+01	-2.815804e+02
2.830000e-06	-3.333301e-06	-4.426921e-09	-2.377918e+01	-2.900049e+02
2.840000e-06	-3.413383e-06	-4.554414e-09	-2.435046e+01	-2.980909e+02
2.850000e-06	-3.492207e-06	-4.674817e-09	-2.491278e+01	-3.058393e+02
2.860000e-06	-3.569565e-06	-4.787156e-09	-2.546464e+01	-3.132527e+02
2.870000e-06	-3.645437e-06	-4.895510e-09	-2.600590e+01	-3.203359e+02
2.880000e-06	-3.719816e-06	-5.002125e-09	-2.653650e+01	-3.270977e+02
2.890000e-06	-3.792899e-06	-5.104032e-09	-2.705786e+01	-3.335508e+02
2.900000e-06	-3.864774e-06	-5.198312e-09	-2.757061e+01	-3.397120e+02
2.910000e-06	-3.935169e-06	-5.285898e-09	-2.807279e+01	-3.456015e+02
2.920000e-06	-4.003959e-06	-5.369982e-09	-2.856353e+01	-3.512419e+02
2.930000e-06	-4.071304e-06	-5.454172e-09	-2.904395e+01	-3.566559e+02
2.940000e-06	-4.137272e-06	-5.536858e-09	-2.951456e+01	-3.618654e+02
