# Temperatura_=_65.78
# Concentracion g/m^3_=_15000.0
# C_Vs_to_Am_M_A/Vsm_=_65563218390.804596
# pendiente_HvsI_1/m_=_3716.3
# ordenada_HvsI_A/m_=_1297.0
# frecuencia_Hz_=_301587.6013407547

Tiempo_(s)	Campo_(V.s)	Magnetizacion_(V.s)	Campo_(kA/m)	Magnetizacion_(A/m)
0.000000e+00	-5.353767e-06	-6.849065e-09	-3.833575e+01	-4.473864e+02
1.000000e-08	-5.350885e-06	-6.845882e-09	-3.831512e+01	-4.471965e+02
2.000000e-08	-5.346191e-06	-6.840065e-09	-3.828150e+01	-4.468992e+02
3.000000e-08	-5.339898e-06	-6.833186e-09	-3.823644e+01	-4.464933e+02
4.000000e-08	-5.332038e-06	-6.822724e-09	-3.818016e+01	-4.459806e+02
5.000000e-08	-5.322381e-06	-6.810022e-09	-3.811101e+01	-4.453658e+02
6.000000e-08	-5.310638e-06	-6.797320e-09	-3.802693e+01	-4.446565e+02
7.000000e-08	-5.297052e-06	-6.778901e-09	-3.792964e+01	-4.438623e+02
8.000000e-08	-5.281428e-06	-6.779810e-09	-3.781777e+01	-4.429943e+02
9.000000e-08	-5.263456e-06	-6.810510e-09	-3.768907e+01	-4.420633e+02
1.000000e-07	-5.243429e-06	-6.789017e-09	-3.754567e+01	-4.410785e+02
1.100000e-07	-5.221560e-06	-6.742545e-09	-3.738908e+01	-4.400467e+02
1.200000e-07	-5.198000e-06	-6.701472e-09	-3.722038e+01	-4.389706e+02
1.300000e-07	-5.173045e-06	-6.615561e-09	-3.704169e+01	-4.378489e+02
1.400000e-07	-5.146497e-06	-6.667402e-09	-3.685159e+01	-4.366759e+02
1.500000e-07	-5.118197e-06	-6.719593e-09	-3.664895e+01	-4.354423e+02
1.600000e-07	-5.088443e-06	-6.597380e-09	-3.643589e+01	-4.341358e+02
1.700000e-07	-5.057145e-06	-6.635213e-09	-3.621179e+01	-4.327427e+02
1.800000e-07	-5.023724e-06	-6.626734e-09	-3.597247e+01	-4.312491e+02
1.900000e-07	-4.988369e-06	-6.502296e-09	-3.571931e+01	-4.296427e+02
2.000000e-07	-4.951605e-06	-6.551311e-09	-3.545606e+01	-4.279137e+02
2.100000e-07	-4.913054e-06	-6.483865e-09	-3.518001e+01	-4.260558e+02
2.200000e-07	-4.872734e-06	-6.377005e-09	-3.489130e+01	-4.240667e+02
2.300000e-07	-4.830549e-06	-6.430490e-09	-3.458924e+01	-4.219480e+02
2.400000e-07	-4.786429e-06	-6.416437e-09	-3.427332e+01	-4.197044e+02
2.500000e-07	-4.740625e-06	-6.392363e-09	-3.394534e+01	-4.173434e+02
2.600000e-07	-4.692980e-06	-6.344167e-09	-3.360418e+01	-4.148736e+02
2.700000e-07	-4.643307e-06	-6.242910e-09	-3.324849e+01	-4.123038e+02
2.800000e-07	-4.591511e-06	-6.233717e-09	-3.287760e+01	-4.096419e+02
2.900000e-07	-4.537786e-06	-6.221259e-09	-3.249290e+01	-4.068942e+02
3.000000e-07	-4.482434e-06	-6.171131e-09	-3.209655e+01	-4.040643e+02
3.100000e-07	-4.425509e-06	-6.122956e-09	-3.168894e+01	-4.011537e+02
3.200000e-07	-4.366744e-06	-6.064749e-09	-3.126816e+01	-3.981617e+02
3.300000e-07	-4.306297e-06	-5.998314e-09	-3.083532e+01	-3.950855e+02
3.400000e-07	-4.244458e-06	-5.951847e-09	-3.039252e+01	-3.919214e+02
3.500000e-07	-4.181255e-06	-5.948010e-09	-2.993996e+01	-3.886653e+02
3.600000e-07	-4.116679e-06	-5.885132e-09	-2.947756e+01	-3.853132e+02
3.700000e-07	-4.050463e-06	-5.795535e-09	-2.900342e+01	-3.818622e+02
3.800000e-07	-3.982589e-06	-5.755239e-09	-2.851741e+01	-3.783100e+02
3.900000e-07	-3.913320e-06	-5.705671e-09	-2.802140e+01	-3.746556e+02
4.000000e-07	-3.842854e-06	-5.649107e-09	-2.751683e+01	-3.708990e+02
4.100000e-07	-3.771222e-06	-5.581248e-09	-2.700391e+01	-3.670405e+02
4.200000e-07	-3.698315e-06	-5.519600e-09	-2.648185e+01	-3.630806e+02
4.300000e-07	-3.623853e-06	-5.462600e-09	-2.594867e+01	-3.590196e+02
4.400000e-07	-3.547722e-06	-5.408181e-09	-2.540353e+01	-3.548572e+02
4.500000e-07	-3.470130e-06	-5.362133e-09	-2.484793e+01	-3.505921e+02
4.600000e-07	-3.391202e-06	-5.296910e-09	-2.428277e+01	-3.462226e+02
4.700000e-07	-3.311065e-06	-5.203431e-09	-2.370894e+01	-3.417462e+02
4.800000e-07	-3.229679e-06	-5.105819e-09	-2.312618e+01	-3.371602e+02
4.900000e-07	-3.147030e-06	-5.045739e-09	-2.253437e+01	-3.324622e+02
5.000000e-07	-3.063307e-06	-4.997069e-09	-2.193487e+01	-3.276501e+02
5.100000e-07	-2.978743e-06	-4.924134e-09	-2.132934e+01	-3.227226e+02
5.200000e-07	-2.893287e-06	-4.837002e-09	-2.071744e+01	-3.176792e+02
5.300000e-07	-2.806780e-06	-4.745129e-09	-2.009800e+01	-3.125204e+02
5.400000e-07	-2.719260e-06	-4.660943e-09	-1.947132e+01	-3.072471e+02
5.500000e-07	-2.630907e-06	-4.588319e-09	-1.883866e+01	-3.018603e+02
5.600000e-07	-2.541635e-06	-4.512058e-09	-1.819942e+01	-2.963611e+02
5.700000e-07	-2.451180e-06	-4.421008e-09	-1.755172e+01	-2.907496e+02
5.800000e-07	-2.359642e-06	-4.320090e-09	-1.689626e+01	-2.850252e+02
5.900000e-07	-2.267316e-06	-4.230444e-09	-1.623516e+01	-2.791860e+02
6.000000e-07	-2.174377e-06	-4.147629e-09	-1.556967e+01	-2.732292e+02
6.100000e-07	-2.080657e-06	-4.055168e-09	-1.489859e+01	-2.671511e+02
6.200000e-07	-1.986173e-06	-3.955870e-09	-1.422203e+01	-2.609475e+02
6.300000e-07	-1.891047e-06	-3.856192e-09	-1.354088e+01	-2.546142e+02
6.400000e-07	-1.795266e-06	-3.761423e-09	-1.285504e+01	-2.481479e+02
6.500000e-07	-1.698893e-06	-3.669501e-09	-1.216496e+01	-2.415458e+02
6.600000e-07	-1.601864e-06	-3.571048e-09	-1.147018e+01	-2.348065e+02
6.700000e-07	-1.504149e-06	-3.456728e-09	-1.077048e+01	-2.279298e+02
6.800000e-07	-1.405736e-06	-3.334049e-09	-1.006580e+01	-2.209162e+02
6.900000e-07	-1.306689e-06	-3.219129e-09	-9.356574e+00	-2.137669e+02
7.000000e-07	-1.207124e-06	-3.117280e-09	-8.643638e+00	-2.064825e+02
7.100000e-07	-1.107157e-06	-3.014638e-09	-7.927819e+00	-1.990632e+02
7.200000e-07	-1.006927e-06	-2.898344e-09	-7.210117e+00	-1.915070e+02
7.300000e-07	-9.064884e-07	-2.776222e-09	-6.490927e+00	-1.838103e+02
7.400000e-07	-8.058588e-07	-2.653835e-09	-5.770367e+00	-1.759671e+02
7.500000e-07	-7.049900e-07	-2.533621e-09	-5.048094e+00	-1.679691e+02
7.600000e-07	-6.038398e-07	-2.413331e-09	-4.323807e+00	-1.598063e+02
7.700000e-07	-5.024640e-07	-2.287248e-09	-3.597903e+00	-1.514677e+02
7.800000e-07	-4.008980e-07	-2.152540e-09	-2.870638e+00	-1.429418e+02
7.900000e-07	-2.991610e-07	-2.012602e-09	-2.142148e+00	-1.342179e+02
8.000000e-07	-1.972875e-07	-1.874756e-09	-1.412681e+00	-1.252866e+02
8.100000e-07	-9.533569e-08	-1.738770e-09	-6.826530e-01	-1.161405e+02
8.200000e-07	6.657954e-09	-1.597886e-09	4.767441e-02	-1.067743e+02
8.300000e-07	1.087101e-07	-1.448201e-09	7.784209e-01	-9.718502e+01
8.400000e-07	2.107006e-07	-1.296030e-09	1.508726e+00	-8.737101e+01
8.500000e-07	3.126080e-07	-1.144492e-09	2.238436e+00	-7.733157e+01
8.600000e-07	4.144592e-07	-9.902975e-10	2.967743e+00	-6.706593e+01
8.700000e-07	5.161585e-07	-8.289247e-10	3.695963e+00	-5.657248e+01
8.800000e-07	6.176971e-07	-6.592231e-10	4.423032e+00	-4.584811e+01
8.900000e-07	7.190466e-07	-4.853597e-10	5.148747e+00	-3.488806e+01
9.000000e-07	8.201099e-07	-3.107924e-10	5.872412e+00	-2.368618e+01
9.100000e-07	9.209182e-07	-1.367068e-10	6.594252e+00	-1.223583e+01
9.200000e-07	1.021460e-06	3.854201e-11	7.314187e+00	-5.312619e-01
9.300000e-07	1.121706e-06	2.181018e-10	8.031997e+00	1.143056e+01
9.400000e-07	1.221644e-06	4.034773e-10	8.747608e+00	2.364796e+01
9.500000e-07	1.321217e-06	5.923085e-10	9.460597e+00	3.611255e+01
9.600000e-07	1.420186e-06	7.824160e-10	1.016927e+01	4.880757e+01
9.700000e-07	1.518317e-06	9.739860e-10	1.087194e+01	6.170672e+01
9.800000e-07	1.615719e-06	1.170230e-09	1.156939e+01	7.477381e+01
9.900000e-07	1.712525e-06	1.370610e-09	1.226257e+01	8.796318e+01
1.000000e-06	1.808666e-06	1.569668e-09	1.295099e+01	1.012211e+02
1.010000e-06	1.904095e-06	1.768585e-09	1.363431e+01	1.144880e+02
1.020000e-06	1.998853e-06	1.966613e-09	1.431283e+01	1.277010e+02
1.030000e-06	2.092969e-06	2.162516e-09	1.498674e+01	1.407972e+02
1.040000e-06	2.186431e-06	2.357856e-09	1.565598e+01	1.537166e+02
1.050000e-06	2.279143e-06	2.549421e-09	1.631985e+01	1.664050e+02
1.060000e-06	2.371179e-06	2.737606e-09	1.697887e+01	1.788165e+02
1.070000e-06	2.462444e-06	2.920593e-09	1.763238e+01	1.909141e+02
1.080000e-06	2.552591e-06	3.096909e-09	1.827788e+01	2.026711e+02
1.090000e-06	2.641569e-06	3.269794e-09	1.891500e+01	2.140703e+02
1.100000e-06	2.729609e-06	3.437987e-09	1.954542e+01	2.251029e+02
1.110000e-06	2.816776e-06	3.600121e-09	2.016958e+01	2.357668e+02
1.120000e-06	2.903053e-06	3.757406e-09	2.078737e+01	2.460643e+02
1.130000e-06	2.988407e-06	3.910780e-09	2.139855e+01	2.560004e+02
1.140000e-06	3.072845e-06	4.059275e-09	2.200316e+01	2.655808e+02
1.150000e-06	3.156426e-06	4.200756e-09	2.260165e+01	2.748106e+02
1.160000e-06	3.238814e-06	4.334972e-09	2.319159e+01	2.836932e+02
1.170000e-06	3.319852e-06	4.463565e-09	2.377186e+01	2.922310e+02
1.180000e-06	3.399695e-06	4.587378e-09	2.434358e+01	3.004253e+02
1.190000e-06	3.478415e-06	4.705023e-09	2.490726e+01	3.082777e+02
1.200000e-06	3.555968e-06	4.816088e-09	2.546257e+01	3.157909e+02
1.210000e-06	3.632240e-06	4.923717e-09	2.600872e+01	3.229706e+02
1.220000e-06	3.707035e-06	5.026608e-09	2.654430e+01	3.298258e+02
1.230000e-06	3.780187e-06	5.124653e-09	2.706810e+01	3.363696e+02
1.240000e-06	3.851872e-06	5.219199e-09	2.758141e+01	3.426193e+02
1.250000e-06	3.922195e-06	5.311786e-09	2.808495e+01	3.485956e+02
1.260000e-06	3.991202e-06	5.401904e-09	2.857908e+01	3.543211e+02
1.270000e-06	4.058982e-06	5.487258e-09	2.906442e+01	3.598194e+02
1.280000e-06	4.125214e-06	5.568157e-09	2.953867e+01	3.651127e+02
1.290000e-06	4.189759e-06	5.645276e-09	3.000085e+01	3.702204e+02
1.300000e-06	4.252763e-06	5.717852e-09	3.045199e+01	3.751576e+02
1.310000e-06	4.314299e-06	5.787671e-09	3.089262e+01	3.799341e+02
1.320000e-06	4.374568e-06	5.857409e-09	3.132418e+01	3.845543e+02
1.330000e-06	4.433323e-06	5.926367e-09	3.174490e+01	3.890174e+02
1.340000e-06	4.490238e-06	5.993253e-09	3.215243e+01	3.933184e+02
1.350000e-06	4.545458e-06	6.056090e-09	3.254784e+01	3.974492e+02
1.360000e-06	4.599075e-06	6.115552e-09	3.293177e+01	4.014008e+02
1.370000e-06	4.650870e-06	6.169848e-09	3.330264e+01	4.051648e+02
1.380000e-06	4.700618e-06	6.220583e-09	3.365886e+01	4.087347e+02
1.390000e-06	4.748504e-06	6.272197e-09	3.400175e+01	4.121074e+02
1.400000e-06	4.794731e-06	6.321558e-09	3.433276e+01	4.152835e+02
1.410000e-06	4.839443e-06	6.365589e-09	3.465293e+01	4.182675e+02
1.420000e-06	4.882550e-06	6.406540e-09	3.496159e+01	4.210671e+02
1.430000e-06	4.923732e-06	6.445037e-09	3.525647e+01	4.236927e+02
1.440000e-06	4.963167e-06	6.480747e-09	3.553885e+01	4.261556e+02
1.450000e-06	5.001013e-06	6.514365e-09	3.580985e+01	4.284671e+02
1.460000e-06	5.037298e-06	6.546791e-09	3.606967e+01	4.306372e+02
1.470000e-06	5.071796e-06	6.576314e-09	3.631669e+01	4.326737e+02
1.480000e-06	5.104319e-06	6.603651e-09	3.654958e+01	4.345818e+02
1.490000e-06	5.135080e-06	6.629526e-09	3.676984e+01	4.363641e+02
1.500000e-06	5.164192e-06	6.653257e-09	3.697829e+01	4.380209e+02
1.510000e-06	5.191569e-06	6.674693e-09	3.717433e+01	4.395512e+02
1.520000e-06	5.216867e-06	6.694385e-09	3.735547e+01	4.409534e+02
1.530000e-06	5.240162e-06	6.713857e-09	3.752228e+01	4.422264e+02
1.540000e-06	5.261719e-06	6.731995e-09	3.767664e+01	4.433702e+02
1.550000e-06	5.281558e-06	6.747309e-09	3.781869e+01	4.443867e+02
1.560000e-06	5.299486e-06	6.759606e-09	3.794707e+01	4.452797e+02
1.570000e-06	5.315418e-06	6.770242e-09	3.806115e+01	4.460546e+02
1.580000e-06	5.329432e-06	6.780139e-09	3.816150e+01	4.467179e+02
1.590000e-06	5.341399e-06	6.790517e-09	3.824719e+01	4.472764e+02
1.600000e-06	5.351146e-06	6.799133e-09	3.831698e+01	4.477361e+02
1.610000e-06	5.358850e-06	6.806093e-09	3.837215e+01	4.481018e+02
1.620000e-06	5.364726e-06	6.812495e-09	3.841423e+01	4.483760e+02
1.630000e-06	5.368847e-06	6.817106e-09	3.844373e+01	4.485590e+02
1.640000e-06	5.371004e-06	6.820111e-09	3.845917e+01	4.486488e+02
1.650000e-06	5.371119e-06	6.822290e-09	3.846000e+01	4.486420e+02
1.660000e-06	5.369491e-06	6.819699e-09	3.844834e+01	4.485341e+02
1.670000e-06	5.366249e-06	6.814688e-09	3.842513e+01	4.483211e+02
1.680000e-06	5.361251e-06	6.810051e-09	3.838934e+01	4.480002e+02
1.690000e-06	5.354324e-06	6.805336e-09	3.833974e+01	4.475710e+02
1.700000e-06	5.345683e-06	6.800895e-09	3.827787e+01	4.470356e+02
1.710000e-06	5.335489e-06	6.796735e-09	3.820487e+01	4.463996e+02
1.720000e-06	5.323507e-06	6.795917e-09	3.811908e+01	4.456709e+02
1.730000e-06	5.309501e-06	6.788703e-09	3.801879e+01	4.448597e+02
1.740000e-06	5.293501e-06	6.716742e-09	3.790422e+01	4.439770e+02
1.750000e-06	5.275195e-06	6.698903e-09	3.777313e+01	4.430335e+02
1.760000e-06	5.254134e-06	6.713259e-09	3.762233e+01	4.420379e+02
1.770000e-06	5.230830e-06	6.719091e-09	3.745546e+01	4.409962e+02
1.780000e-06	5.206417e-06	6.785216e-09	3.728065e+01	4.399103e+02
1.790000e-06	5.181421e-06	6.660513e-09	3.710166e+01	4.387780e+02
1.800000e-06	5.154935e-06	6.584177e-09	3.691201e+01	4.375927e+02
1.810000e-06	5.126068e-06	6.671814e-09	3.670531e+01	4.363443e+02
1.820000e-06	5.095400e-06	6.552457e-09	3.648571e+01	4.350201e+02
1.830000e-06	5.063118e-06	6.569405e-09	3.625456e+01	4.336063e+02
1.840000e-06	5.028861e-06	6.661288e-09	3.600925e+01	4.320893e+02
1.850000e-06	4.993108e-06	6.513403e-09	3.575325e+01	4.304570e+02
1.860000e-06	4.955594e-06	6.569029e-09	3.548463e+01	4.287005e+02
1.870000e-06	4.916148e-06	6.585788e-09	3.520217e+01	4.268143e+02
1.880000e-06	4.875090e-06	6.419132e-09	3.490818e+01	4.247969e+02
1.890000e-06	4.832155e-06	6.435235e-09	3.460074e+01	4.226506e+02
1.900000e-06	4.787647e-06	6.343267e-09	3.428204e+01	4.203809e+02
1.910000e-06	4.741373e-06	6.340131e-09	3.395069e+01	4.179956e+02
1.920000e-06	4.693014e-06	6.403652e-09	3.360442e+01	4.155033e+02
1.930000e-06	4.643115e-06	6.250613e-09	3.324712e+01	4.129129e+02
1.940000e-06	4.591434e-06	6.267141e-09	3.287705e+01	4.102319e+02
1.950000e-06	4.537645e-06	6.219374e-09	3.249189e+01	4.074660e+02
1.960000e-06	4.481954e-06	6.110296e-09	3.209312e+01	4.046186e+02
1.970000e-06	4.424537e-06	6.117051e-09	3.168198e+01	4.016904e+02
1.980000e-06	4.365753e-06	6.073882e-09	3.126106e+01	3.986803e+02
1.990000e-06	4.305468e-06	6.065455e-09	3.082938e+01	3.955853e+02
2.000000e-06	4.243449e-06	5.950619e-09	3.038530e+01	3.924016e+02
2.010000e-06	4.179825e-06	5.907634e-09	2.992972e+01	3.891250e+02
2.020000e-06	4.114753e-06	5.916184e-09	2.946377e+01	3.857517e+02
2.030000e-06	4.048303e-06	5.794641e-09	2.898795e+01	3.822788e+02
2.040000e-06	3.980436e-06	5.779100e-09	2.850199e+01	3.787045e+02
2.050000e-06	3.911214e-06	5.726940e-09	2.800632e+01	3.750279e+02
2.060000e-06	3.840463e-06	5.663358e-09	2.749971e+01	3.712491e+02
2.070000e-06	3.768197e-06	5.599795e-09	2.698225e+01	3.673686e+02
2.080000e-06	3.694672e-06	5.515539e-09	2.645577e+01	3.633868e+02
2.090000e-06	3.619804e-06	5.493735e-09	2.591967e+01	3.593038e+02
2.100000e-06	3.543484e-06	5.398701e-09	2.537318e+01	3.551192e+02
2.110000e-06	3.465550e-06	5.322660e-09	2.481513e+01	3.508317e+02
2.120000e-06	3.386219e-06	5.276635e-09	2.424708e+01	3.464392e+02
2.130000e-06	3.305813e-06	5.227493e-09	2.367133e+01	3.419393e+02
2.140000e-06	3.224330e-06	5.159455e-09	2.308787e+01	3.373292e+02
2.150000e-06	3.141784e-06	5.066359e-09	2.249681e+01	3.326066e+02
2.160000e-06	3.058206e-06	4.993866e-09	2.189834e+01	3.277696e+02
2.170000e-06	2.973594e-06	4.905757e-09	2.129247e+01	3.228170e+02
2.180000e-06	2.887631e-06	4.842821e-09	2.067693e+01	3.177485e+02
2.190000e-06	2.800369e-06	4.776142e-09	2.005210e+01	3.125648e+02
2.200000e-06	2.712226e-06	4.695457e-09	1.942094e+01	3.072668e+02
2.210000e-06	2.623231e-06	4.607587e-09	1.878370e+01	3.018556e+02
2.220000e-06	2.533300e-06	4.514655e-09	1.813974e+01	2.963321e+02
2.230000e-06	2.442432e-06	4.438938e-09	1.748908e+01	2.906962e+02
2.240000e-06	2.350779e-06	4.355393e-09	1.683280e+01	2.849471e+02
2.250000e-06	2.258465e-06	4.273788e-09	1.617178e+01	2.790828e+02
2.260000e-06	2.165433e-06	4.180916e-09	1.550562e+01	2.731000e+02
2.270000e-06	2.071353e-06	4.077377e-09	1.483196e+01	2.669951e+02
2.280000e-06	1.976144e-06	3.976922e-09	1.415022e+01	2.607637e+02
2.290000e-06	1.880199e-06	3.883879e-09	1.346320e+01	2.544020e+02
2.300000e-06	1.783804e-06	3.789236e-09	1.277297e+01	2.479064e+02
2.310000e-06	1.686958e-06	3.684042e-09	1.207949e+01	2.412747e+02
2.320000e-06	1.589569e-06	3.580307e-09	1.138214e+01	2.345057e+02
2.330000e-06	1.491622e-06	3.483386e-09	1.068079e+01	2.275993e+02
2.340000e-06	1.393177e-06	3.385858e-09	9.975871e+00	2.205563e+02
2.350000e-06	1.294314e-06	3.274118e-09	9.267958e+00	2.133777e+02
2.360000e-06	1.195098e-06	3.158546e-09	8.557521e+00	2.060642e+02
2.370000e-06	1.095587e-06	3.039440e-09	7.844969e+00	1.986154e+02
2.380000e-06	9.957430e-07	2.918296e-09	7.130037e+00	1.910293e+02
2.390000e-06	8.955959e-07	2.806307e-09	6.412931e+00	1.833015e+02
2.400000e-06	7.951393e-07	2.696181e-09	5.693610e+00	1.754256e+02
2.410000e-06	6.944183e-07	2.575870e-09	4.972396e+00	1.673929e+02
2.420000e-06	5.934819e-07	2.441128e-09	4.249638e+00	1.591931e+02
2.430000e-06	4.922783e-07	2.306879e-09	3.524968e+00	1.508151e+02
2.440000e-06	3.909095e-07	2.182871e-09	2.799115e+00	1.422473e+02
2.450000e-06	2.893786e-07	2.057886e-09	2.072101e+00	1.334794e+02
2.460000e-06	1.876265e-07	1.922010e-09	1.343503e+00	1.245023e+02
2.470000e-06	8.568829e-08	1.779507e-09	6.135726e-01	1.153092e+02
2.480000e-06	-1.630303e-08	1.633809e-09	-1.167382e-01	1.058951e+02
2.490000e-06	-1.182692e-07	1.487662e-09	-8.468690e-01	9.625750e+01
2.500000e-06	-2.202206e-07	1.342719e-09	-1.576894e+00	8.639495e+01
2.510000e-06	-3.220901e-07	1.193621e-09	-2.306332e+00	7.630684e+01
2.520000e-06	-4.237905e-07	1.036838e-09	-3.034560e+00	6.599229e+01
2.530000e-06	-5.252992e-07	8.723370e-10	-3.761415e+00	5.544940e+01
2.540000e-06	-6.265844e-07	7.079579e-10	-4.486670e+00	4.467471e+01
2.550000e-06	-7.275413e-07	5.463297e-10	-5.209574e+00	3.366311e+01
2.560000e-06	-8.281714e-07	3.792482e-10	-5.930137e+00	2.240826e+01
2.570000e-06	-9.285084e-07	2.021275e-10	-6.648602e+00	1.090358e+01
2.580000e-06	-1.028521e-06	1.913916e-11	-7.364744e+00	-8.562618e-01
2.590000e-06	-1.128203e-06	-1.670099e-10	-8.078519e+00	-1.287347e+01
2.600000e-06	-1.227526e-06	-3.542027e-10	-8.789721e+00	-2.514508e+01
2.610000e-06	-1.326421e-06	-5.421094e-10	-9.497865e+00	-3.766105e+01
2.620000e-06	-1.424838e-06	-7.364253e-10	-1.020258e+01	-5.040264e+01
2.630000e-06	-1.522806e-06	-9.400148e-10	-1.090408e+01	-6.334144e+01
2.640000e-06	-1.620258e-06	-1.147503e-09	-1.160189e+01	-7.643914e+01
2.650000e-06	-1.717041e-06	-1.352257e-09	-1.229490e+01	-8.964825e+01
2.660000e-06	-1.813256e-06	-1.554066e-09	-1.298385e+01	-1.029136e+02
2.670000e-06	-1.909040e-06	-1.756854e-09	-1.366972e+01	-1.161745e+02
2.680000e-06	-2.004280e-06	-1.961695e-09	-1.435169e+01	-1.293680e+02
2.690000e-06	-2.098672e-06	-2.166260e-09	-1.502758e+01	-1.424314e+02
2.700000e-06	-2.192022e-06	-2.366149e-09	-1.569601e+01	-1.553059e+02
2.710000e-06	-2.284444e-06	-2.558267e-09	-1.635780e+01	-1.679389e+02
2.720000e-06	-2.376013e-06	-2.745594e-09	-1.701349e+01	-1.802861e+02
2.730000e-06	-2.466706e-06	-2.930528e-09	-1.766289e+01	-1.923129e+02
2.740000e-06	-2.556566e-06	-3.111443e-09	-1.830634e+01	-2.039947e+02
2.750000e-06	-2.645526e-06	-3.283908e-09	-1.894334e+01	-2.153161e+02
2.760000e-06	-2.733656e-06	-3.449464e-09	-1.957440e+01	-2.262700e+02
2.770000e-06	-2.821092e-06	-3.610723e-09	-2.020048e+01	-2.368553e+02
2.780000e-06	-2.907513e-06	-3.767066e-09	-2.081930e+01	-2.470752e+02
2.790000e-06	-2.992615e-06	-3.917998e-09	-2.142868e+01	-2.569349e+02
2.800000e-06	-3.076547e-06	-4.062621e-09	-2.202968e+01	-2.664401e+02
2.810000e-06	-3.159499e-06	-4.199416e-09	-2.262365e+01	-2.755954e+02
2.820000e-06	-3.241404e-06	-4.330551e-09	-2.321014e+01	-2.844043e+02
2.830000e-06	-3.322188e-06	-4.460902e-09	-2.378859e+01	-2.928687e+02
2.840000e-06	-3.401935e-06	-4.590349e-09	-2.435962e+01	-3.009898e+02
2.850000e-06	-3.480555e-06	-4.714501e-09	-2.492258e+01	-3.087695e+02
2.860000e-06	-3.557745e-06	-4.830004e-09	-2.547530e+01	-3.162110e+02
2.870000e-06	-3.633361e-06	-4.937489e-09	-2.601675e+01	-3.233205e+02
2.880000e-06	-3.707468e-06	-5.039048e-09	-2.654739e+01	-3.301080e+02
2.890000e-06	-3.780229e-06	-5.136380e-09	-2.706840e+01	-3.365875e+02
2.900000e-06	-3.851810e-06	-5.230458e-09	-2.758096e+01	-3.427770e+02
2.910000e-06	-3.921943e-06	-5.321518e-09	-2.808315e+01	-3.486978e+02
2.920000e-06	-3.990452e-06	-5.409467e-09	-2.857370e+01	-3.543730e+02
2.930000e-06	-4.057555e-06	-5.494361e-09	-2.905420e+01	-3.598259e+02
2.940000e-06	-4.123247e-06	-5.577106e-09	-2.952459e+01	-3.650782e+02
