# Temperatura_=_64.33
# Concentracion g/m^3_=_15000.0
# C_Vs_to_Am_M_A/Vsm_=_65563218390.804596
# pendiente_HvsI_1/m_=_3716.3
# ordenada_HvsI_A/m_=_1297.0
# frecuencia_Hz_=_301592.5202826555

Tiempo_(s)	Campo_(V.s)	Magnetizacion_(V.s)	Campo_(kA/m)	Magnetizacion_(A/m)
0.000000e+00	-5.373543e-06	-6.792386e-09	-3.833431e+01	-4.441936e+02
1.000000e-08	-5.370473e-06	-6.784911e-09	-3.831241e+01	-4.439839e+02
2.000000e-08	-5.365643e-06	-6.777432e-09	-3.827795e+01	-4.436638e+02
3.000000e-08	-5.359216e-06	-6.771223e-09	-3.823210e+01	-4.432324e+02
4.000000e-08	-5.351237e-06	-6.762134e-09	-3.817518e+01	-4.426922e+02
5.000000e-08	-5.341437e-06	-6.750893e-09	-3.810527e+01	-4.420492e+02
6.000000e-08	-5.329520e-06	-6.737295e-09	-3.802025e+01	-4.413123e+02
7.000000e-08	-5.315734e-06	-6.720754e-09	-3.792190e+01	-4.404927e+02
8.000000e-08	-5.299809e-06	-6.731680e-09	-3.780830e+01	-4.396026e+02
9.000000e-08	-5.281580e-06	-6.746967e-09	-3.767825e+01	-4.386536e+02
1.000000e-07	-5.261370e-06	-6.713540e-09	-3.753408e+01	-4.376555e+02
1.100000e-07	-5.239314e-06	-6.677651e-09	-3.737673e+01	-4.366147e+02
1.200000e-07	-5.215614e-06	-6.629432e-09	-3.720766e+01	-4.355335e+02
1.300000e-07	-5.190413e-06	-6.567200e-09	-3.702788e+01	-4.344095e+02
1.400000e-07	-5.163559e-06	-6.628805e-09	-3.683630e+01	-4.332360e+02
1.500000e-07	-5.135032e-06	-6.619682e-09	-3.663279e+01	-4.320023e+02
1.600000e-07	-5.105066e-06	-6.545684e-09	-3.641902e+01	-4.306953e+02
1.700000e-07	-5.073523e-06	-6.599055e-09	-3.619400e+01	-4.293005e+02
1.800000e-07	-5.039812e-06	-6.531553e-09	-3.595350e+01	-4.278042e+02
1.900000e-07	-5.004206e-06	-6.456387e-09	-3.569950e+01	-4.261943e+02
2.000000e-07	-4.967202e-06	-6.483309e-09	-3.543551e+01	-4.244620e+02
2.100000e-07	-4.928439e-06	-6.390207e-09	-3.515898e+01	-4.226025e+02
2.200000e-07	-4.887850e-06	-6.359006e-09	-3.486942e+01	-4.206151e+02
2.300000e-07	-4.845341e-06	-6.402719e-09	-3.456617e+01	-4.185030e+02
2.400000e-07	-4.800940e-06	-6.342401e-09	-3.424941e+01	-4.162727e+02
2.500000e-07	-4.754833e-06	-6.320038e-09	-3.392049e+01	-4.139328e+02
2.600000e-07	-4.706825e-06	-6.278550e-09	-3.357801e+01	-4.114927e+02
2.700000e-07	-4.656689e-06	-6.211216e-09	-3.322034e+01	-4.089612e+02
2.800000e-07	-4.604376e-06	-6.201068e-09	-3.284715e+01	-4.063457e+02
2.900000e-07	-4.550191e-06	-6.175529e-09	-3.246060e+01	-4.036510e+02
3.000000e-07	-4.494492e-06	-6.117326e-09	-3.206325e+01	-4.008792e+02
3.100000e-07	-4.437226e-06	-6.065690e-09	-3.165472e+01	-3.980293e+02
3.200000e-07	-4.378159e-06	-6.025307e-09	-3.123334e+01	-3.950984e+02
3.300000e-07	-4.317422e-06	-5.964989e-09	-3.080005e+01	-3.920813e+02
3.400000e-07	-4.255209e-06	-5.922697e-09	-3.035622e+01	-3.889725e+02
3.500000e-07	-4.191674e-06	-5.900056e-09	-2.990298e+01	-3.857662e+02
3.600000e-07	-4.126737e-06	-5.832579e-09	-2.943972e+01	-3.824577e+02
3.700000e-07	-4.060122e-06	-5.772548e-09	-2.896450e+01	-3.790438e+02
3.800000e-07	-3.991902e-06	-5.732648e-09	-2.847782e+01	-3.755230e+02
3.900000e-07	-3.922306e-06	-5.668985e-09	-2.798133e+01	-3.718956e+02
4.000000e-07	-3.851482e-06	-5.607299e-09	-2.747608e+01	-3.681631e+02
4.100000e-07	-3.779471e-06	-5.540913e-09	-2.696236e+01	-3.643281e+02
4.200000e-07	-3.706149e-06	-5.481343e-09	-2.643929e+01	-3.603934e+02
4.300000e-07	-3.631219e-06	-5.426949e-09	-2.590474e+01	-3.563615e+02
4.400000e-07	-3.554666e-06	-5.375898e-09	-2.535862e+01	-3.522336e+02
4.500000e-07	-3.476695e-06	-5.318653e-09	-2.480239e+01	-3.480102e+02
4.600000e-07	-3.397312e-06	-5.250723e-09	-2.423608e+01	-3.436899e+02
4.700000e-07	-3.316661e-06	-5.171450e-09	-2.366073e+01	-3.392704e+02
4.800000e-07	-3.234792e-06	-5.086629e-09	-2.307668e+01	-3.347484e+02
4.900000e-07	-3.151752e-06	-5.023015e-09	-2.248428e+01	-3.301200e+02
5.000000e-07	-3.067730e-06	-4.954608e-09	-2.188487e+01	-3.253814e+02
5.100000e-07	-2.982859e-06	-4.874788e-09	-2.127941e+01	-3.205294e+02
5.200000e-07	-2.897004e-06	-4.795640e-09	-2.066693e+01	-3.155612e+02
5.300000e-07	-2.810094e-06	-4.716862e-09	-2.004693e+01	-3.104753e+02
5.400000e-07	-2.722321e-06	-4.641783e-09	-1.942076e+01	-3.052708e+02
5.500000e-07	-2.633650e-06	-4.565751e-09	-1.878819e+01	-2.999477e+02
5.600000e-07	-2.543874e-06	-4.480975e-09	-1.814774e+01	-2.945062e+02
5.700000e-07	-2.453000e-06	-4.388666e-09	-1.749945e+01	-2.889465e+02
5.800000e-07	-2.361181e-06	-4.295381e-09	-1.684443e+01	-2.832686e+02
5.900000e-07	-2.268519e-06	-4.205786e-09	-1.618338e+01	-2.774719e+02
6.000000e-07	-2.175105e-06	-4.117112e-09	-1.551698e+01	-2.715549e+02
6.100000e-07	-2.080902e-06	-4.023237e-09	-1.484494e+01	-2.655158e+02
6.200000e-07	-1.985974e-06	-3.927313e-09	-1.416774e+01	-2.593524e+02
6.300000e-07	-1.890488e-06	-3.832120e-09	-1.348655e+01	-2.530621e+02
6.400000e-07	-1.794358e-06	-3.740128e-09	-1.280076e+01	-2.466427e+02
6.500000e-07	-1.697487e-06	-3.647003e-09	-1.210970e+01	-2.400924e+02
6.600000e-07	-1.599900e-06	-3.544977e-09	-1.141352e+01	-2.334101e+02
6.700000e-07	-1.501663e-06	-3.433192e-09	-1.071271e+01	-2.265949e+02
6.800000e-07	-1.402824e-06	-3.317932e-09	-1.000760e+01	-2.196467e+02
6.900000e-07	-1.303383e-06	-3.207014e-09	-9.298201e+00	-2.125649e+02
7.000000e-07	-1.203448e-06	-3.100327e-09	-8.585273e+00	-2.053488e+02
7.100000e-07	-1.103144e-06	-2.990876e-09	-7.869718e+00	-1.979964e+02
7.200000e-07	-1.002573e-06	-2.874548e-09	-7.152256e+00	-1.905044e+02
7.300000e-07	-9.017791e-07	-2.758213e-09	-6.433200e+00	-1.828676e+02
7.400000e-07	-8.007684e-07	-2.640863e-09	-5.712600e+00	-1.750792e+02
7.500000e-07	-6.995303e-07	-2.521654e-09	-4.990378e+00	-1.671304e+02
7.600000e-07	-5.980102e-07	-2.399437e-09	-4.266144e+00	-1.590116e+02
7.700000e-07	-4.962268e-07	-2.269396e-09	-3.540031e+00	-1.507126e+02
7.800000e-07	-3.942722e-07	-2.134925e-09	-2.812698e+00	-1.422230e+02
7.900000e-07	-2.921763e-07	-1.997772e-09	-2.084356e+00	-1.335337e+02
8.000000e-07	-1.899216e-07	-1.861792e-09	-1.354882e+00	-1.246369e+02
8.100000e-07	-8.757680e-08	-1.726650e-09	-6.247640e-01	-1.155267e+02
8.200000e-07	1.485238e-08	-1.584867e-09	1.059553e-01	-1.061989e+02
8.300000e-07	1.173468e-07	-1.435955e-09	8.371402e-01	-9.665106e+01
8.400000e-07	2.198106e-07	-1.284968e-09	1.568107e+00	-8.688169e+01
8.500000e-07	3.221751e-07	-1.132874e-09	2.298365e+00	-7.688950e+01
8.600000e-07	4.244251e-07	-9.778158e-10	3.027805e+00	-6.667262e+01
8.700000e-07	5.265312e-07	-8.166703e-10	3.756220e+00	-5.622791e+01
8.800000e-07	6.284695e-07	-6.478155e-10	4.483437e+00	-4.555052e+01
8.900000e-07	7.302169e-07	-4.754193e-10	5.209293e+00	-3.463392e+01
9.000000e-07	8.316813e-07	-3.026370e-10	5.933130e+00	-2.347043e+01
9.100000e-07	9.327954e-07	-1.293705e-10	6.654467e+00	-1.205232e+01
9.200000e-07	1.033602e-06	4.609541e-11	7.373612e+00	-3.733619e-01
9.300000e-07	1.134160e-06	2.254898e-10	8.090979e+00	1.156928e+01
9.400000e-07	1.234436e-06	4.095314e-10	8.806338e+00	2.377297e+01
9.500000e-07	1.334294e-06	5.974883e-10	9.518717e+00	3.622774e+01
9.600000e-07	1.433538e-06	7.881089e-10	1.022671e+01	4.891467e+01
9.700000e-07	1.532063e-06	9.818764e-10	1.092958e+01	6.180501e+01
9.800000e-07	1.629866e-06	1.179724e-09	1.162730e+01	7.485997e+01
9.900000e-07	1.726981e-06	1.381222e-09	1.232011e+01	8.803145e+01
1.000000e-06	1.823458e-06	1.580950e-09	1.300836e+01	1.012636e+02
1.010000e-06	1.919237e-06	1.777671e-09	1.369164e+01	1.144953e+02
1.020000e-06	2.014299e-06	1.971947e-09	1.436981e+01	1.276627e+02
1.030000e-06	2.108701e-06	2.165377e-09	1.504326e+01	1.407025e+02
1.040000e-06	2.202345e-06	2.359287e-09	1.571130e+01	1.535553e+02
1.050000e-06	2.295264e-06	2.550169e-09	1.637418e+01	1.661679e+02
1.060000e-06	2.387574e-06	2.737701e-09	1.703271e+01	1.784954e+02
1.070000e-06	2.479118e-06	2.920251e-09	1.768578e+01	1.905028e+02
1.080000e-06	2.569594e-06	3.097724e-09	1.833122e+01	2.021652e+02
1.090000e-06	2.658916e-06	3.271399e-09	1.896844e+01	2.134671e+02
1.100000e-06	2.747226e-06	3.437885e-09	1.959843e+01	2.244012e+02
1.110000e-06	2.834619e-06	3.597042e-09	2.022188e+01	2.349670e+02
1.120000e-06	2.921115e-06	3.749992e-09	2.083894e+01	2.451679e+02
1.130000e-06	3.006651e-06	3.899664e-09	2.144914e+01	2.550100e+02
1.140000e-06	3.091309e-06	4.045695e-09	2.205308e+01	2.644996e+02
1.150000e-06	3.175050e-06	4.187025e-09	2.265048e+01	2.736424e+02
1.160000e-06	3.257593e-06	4.321033e-09	2.323934e+01	2.824427e+02
1.170000e-06	3.338886e-06	4.447627e-09	2.381927e+01	2.909031e+02
1.180000e-06	3.418992e-06	4.569561e-09	2.439074e+01	2.990254e+02
1.190000e-06	3.497912e-06	4.686669e-09	2.495375e+01	3.068116e+02
1.200000e-06	3.575622e-06	4.799847e-09	2.550812e+01	3.142646e+02
1.210000e-06	3.652105e-06	4.908547e-09	2.605374e+01	3.213902e+02
1.220000e-06	3.727138e-06	5.010774e-09	2.658903e+01	3.281969e+02
1.230000e-06	3.800479e-06	5.106346e-09	2.711223e+01	3.346974e+02
1.240000e-06	3.872315e-06	5.198003e-09	2.762470e+01	3.409080e+02
1.250000e-06	3.942813e-06	5.288206e-09	2.812762e+01	3.468479e+02
1.260000e-06	4.011988e-06	5.376992e-09	2.862111e+01	3.525384e+02
1.270000e-06	4.079864e-06	5.460601e-09	2.910533e+01	3.580012e+02
1.280000e-06	4.146087e-06	5.541347e-09	2.957776e+01	3.632568e+02
1.290000e-06	4.210600e-06	5.620035e-09	3.003799e+01	3.683231e+02
1.300000e-06	4.273680e-06	5.695901e-09	3.048800e+01	3.732140e+02
1.310000e-06	4.335329e-06	5.768419e-09	3.092780e+01	3.779389e+02
1.320000e-06	4.395665e-06	5.837084e-09	3.135823e+01	3.825021e+02
1.330000e-06	4.454568e-06	5.902239e-09	3.177843e+01	3.869035e+02
1.340000e-06	4.511658e-06	5.964298e-09	3.218571e+01	3.911397e+02
1.350000e-06	4.566998e-06	6.024932e-09	3.258050e+01	3.952045e+02
1.360000e-06	4.620725e-06	6.083677e-09	3.296378e+01	3.990913e+02
1.370000e-06	4.672658e-06	6.139134e-09	3.333427e+01	4.027940e+02
1.380000e-06	4.722504e-06	6.191149e-09	3.368987e+01	4.063085e+02
1.390000e-06	4.770454e-06	6.242036e-09	3.403193e+01	4.096333e+02
1.400000e-06	4.816782e-06	6.290541e-09	3.436243e+01	4.127702e+02
1.410000e-06	4.861584e-06	6.335377e-09	3.468205e+01	4.157241e+02
1.420000e-06	4.904869e-06	6.376473e-09	3.499084e+01	4.185022e+02
1.430000e-06	4.946207e-06	6.413887e-09	3.528574e+01	4.211135e+02
1.440000e-06	4.985639e-06	6.449732e-09	3.556704e+01	4.235672e+02
1.450000e-06	5.023472e-06	6.483643e-09	3.583694e+01	4.258720e+02
1.460000e-06	5.059723e-06	6.516142e-09	3.609555e+01	4.280352e+02
1.470000e-06	5.094080e-06	6.547693e-09	3.634065e+01	4.300619e+02
1.480000e-06	5.126458e-06	6.577581e-09	3.657163e+01	4.319551e+02
1.490000e-06	5.157162e-06	6.604053e-09	3.679067e+01	4.337158e+02
1.500000e-06	5.186222e-06	6.627105e-09	3.699798e+01	4.353435e+02
1.510000e-06	5.213502e-06	6.647444e-09	3.719259e+01	4.368373e+02
1.520000e-06	5.238729e-06	6.666355e-09	3.737256e+01	4.381966e+02
1.530000e-06	5.261954e-06	6.684373e-09	3.753825e+01	4.394217e+02
1.540000e-06	5.283397e-06	6.702002e-09	3.769121e+01	4.405151e+02
1.550000e-06	5.303140e-06	6.718632e-09	3.783206e+01	4.414808e+02
1.560000e-06	5.321016e-06	6.733347e-09	3.795959e+01	4.423251e+02
1.570000e-06	5.336841e-06	6.745538e-09	3.807248e+01	4.430552e+02
1.580000e-06	5.350712e-06	6.755071e-09	3.817143e+01	4.436791e+02
1.590000e-06	5.362542e-06	6.764429e-09	3.825583e+01	4.442043e+02
1.600000e-06	5.372115e-06	6.772452e-09	3.832412e+01	4.446369e+02
1.610000e-06	5.379602e-06	6.778927e-09	3.837753e+01	4.449808e+02
1.620000e-06	5.385288e-06	6.784704e-09	3.841810e+01	4.452373e+02
1.630000e-06	5.389233e-06	6.789459e-09	3.844624e+01	4.454050e+02
1.640000e-06	5.391162e-06	6.792885e-09	3.846000e+01	4.454804e+02
1.650000e-06	5.391077e-06	6.794610e-09	3.845939e+01	4.454581e+02
1.660000e-06	5.389304e-06	6.791839e-09	3.844675e+01	4.453327e+02
1.670000e-06	5.385989e-06	6.787558e-09	3.842310e+01	4.450993e+02
1.680000e-06	5.380906e-06	6.782330e-09	3.838684e+01	4.447550e+02
1.690000e-06	5.373866e-06	6.778175e-09	3.833661e+01	4.442996e+02
1.700000e-06	5.365128e-06	6.774530e-09	3.827428e+01	4.437365e+02
1.710000e-06	5.354812e-06	6.770096e-09	3.820068e+01	4.430721e+02
1.720000e-06	5.342672e-06	6.768322e-09	3.811408e+01	4.423162e+02
1.730000e-06	5.328485e-06	6.744500e-09	3.801287e+01	4.414801e+02
1.740000e-06	5.312309e-06	6.689063e-09	3.789747e+01	4.405762e+02
1.750000e-06	5.293805e-06	6.689266e-09	3.776547e+01	4.396156e+02
1.760000e-06	5.272536e-06	6.693951e-09	3.761374e+01	4.386077e+02
1.770000e-06	5.249085e-06	6.709608e-09	3.744644e+01	4.375579e+02
1.780000e-06	5.224497e-06	6.727593e-09	3.727103e+01	4.364675e+02
1.790000e-06	5.199204e-06	6.606722e-09	3.709059e+01	4.353333e+02
1.800000e-06	5.172358e-06	6.605335e-09	3.689908e+01	4.341476e+02
1.810000e-06	5.143090e-06	6.613159e-09	3.669028e+01	4.328990e+02
1.820000e-06	5.112091e-06	6.491823e-09	3.646914e+01	4.315741e+02
1.830000e-06	5.079521e-06	6.549867e-09	3.623679e+01	4.301584e+02
1.840000e-06	5.045065e-06	6.548813e-09	3.599098e+01	4.286383e+02
1.850000e-06	5.009105e-06	6.461857e-09	3.573445e+01	4.270025e+02
1.860000e-06	4.971298e-06	6.546605e-09	3.546473e+01	4.252429e+02
1.870000e-06	4.931620e-06	6.455317e-09	3.518168e+01	4.233555e+02
1.880000e-06	4.890310e-06	6.346700e-09	3.488698e+01	4.213407e+02
1.890000e-06	4.847114e-06	6.385543e-09	3.457882e+01	4.192023e+02
1.900000e-06	4.802246e-06	6.286532e-09	3.425873e+01	4.169475e+02
1.910000e-06	4.755538e-06	6.304842e-09	3.392553e+01	4.145850e+02
1.920000e-06	4.706850e-06	6.299430e-09	3.357819e+01	4.121242e+02
1.930000e-06	4.656594e-06	6.189054e-09	3.321967e+01	4.095739e+02
1.940000e-06	4.604508e-06	6.194794e-09	3.284809e+01	4.069408e+02
1.950000e-06	4.550336e-06	6.133604e-09	3.246164e+01	4.042291e+02
1.960000e-06	4.494307e-06	6.087591e-09	3.206193e+01	4.014404e+02
1.970000e-06	4.436633e-06	6.052966e-09	3.165049e+01	3.985732e+02
1.980000e-06	4.377579e-06	6.010449e-09	3.122921e+01	3.956239e+02
1.990000e-06	4.316969e-06	5.989974e-09	3.079681e+01	3.925874e+02
2.000000e-06	4.254620e-06	5.886087e-09	3.035202e+01	3.894578e+02
2.010000e-06	4.190705e-06	5.872376e-09	2.989607e+01	3.862296e+02
2.020000e-06	4.125298e-06	5.827113e-09	2.942946e+01	3.828985e+02
2.030000e-06	4.058461e-06	5.741005e-09	2.895265e+01	3.794614e+02
2.040000e-06	3.990150e-06	5.725058e-09	2.846533e+01	3.759174e+02
2.050000e-06	3.920280e-06	5.656485e-09	2.796688e+01	3.722669e+02
2.060000e-06	3.848913e-06	5.613274e-09	2.745775e+01	3.685119e+02
2.070000e-06	3.776252e-06	5.543273e-09	2.693940e+01	3.646550e+02
2.080000e-06	3.702353e-06	5.470124e-09	2.641221e+01	3.606990e+02
2.090000e-06	3.627084e-06	5.423986e-09	2.587525e+01	3.566461e+02
2.100000e-06	3.550348e-06	5.343025e-09	2.532782e+01	3.524975e+02
2.110000e-06	3.472044e-06	5.278381e-09	2.476921e+01	3.482531e+02
2.120000e-06	3.392454e-06	5.223342e-09	2.420143e+01	3.439115e+02
2.130000e-06	3.311763e-06	5.175190e-09	2.362578e+01	3.394700e+02
2.140000e-06	3.229905e-06	5.098270e-09	2.304181e+01	3.349252e+02
2.150000e-06	3.147022e-06	5.021547e-09	2.245054e+01	3.302732e+02
2.160000e-06	3.063125e-06	4.950996e-09	2.185202e+01	3.255102e+02
2.170000e-06	2.978018e-06	4.871916e-09	2.124488e+01	3.206331e+02
2.180000e-06	2.891544e-06	4.801958e-09	2.062798e+01	3.156395e+02
2.190000e-06	2.803926e-06	4.719786e-09	2.000293e+01	3.105279e+02
2.200000e-06	2.715430e-06	4.643681e-09	1.937160e+01	3.052977e+02
2.210000e-06	2.625993e-06	4.562290e-09	1.873357e+01	2.999489e+02
2.220000e-06	2.535657e-06	4.480027e-09	1.808912e+01	2.944817e+02
2.230000e-06	2.444560e-06	4.402571e-09	1.743925e+01	2.888964e+02
2.240000e-06	2.352661e-06	4.320015e-09	1.678364e+01	2.831928e+02
2.250000e-06	2.259860e-06	4.234883e-09	1.612161e+01	2.773701e+02
2.260000e-06	2.166204e-06	4.140904e-09	1.545348e+01	2.714268e+02
2.270000e-06	2.071585e-06	4.042608e-09	1.477848e+01	2.653610e+02
2.280000e-06	1.975986e-06	3.946559e-09	1.409648e+01	2.591702e+02
2.290000e-06	1.879744e-06	3.851776e-09	1.340990e+01	2.528521e+02
2.300000e-06	1.783051e-06	3.751346e-09	1.272010e+01	2.464045e+02
2.310000e-06	1.685857e-06	3.648635e-09	1.202674e+01	2.398257e+02
2.320000e-06	1.588032e-06	3.547625e-09	1.132886e+01	2.331146e+02
2.330000e-06	1.489676e-06	3.452738e-09	1.062719e+01	2.262706e+02
2.340000e-06	1.390939e-06	3.354068e-09	9.922816e+00	2.192935e+02
2.350000e-06	1.291775e-06	3.243413e-09	9.215394e+00	2.121827e+02
2.360000e-06	1.192263e-06	3.129466e-09	8.505484e+00	2.049373e+02
2.370000e-06	1.092424e-06	3.012543e-09	7.793240e+00	1.975550e+02
2.380000e-06	9.922027e-07	2.895946e-09	7.078273e+00	1.900322e+02
2.390000e-06	8.915754e-07	2.783141e-09	6.360408e+00	1.823632e+02
2.400000e-06	7.905751e-07	2.667395e-09	5.639882e+00	1.745408e+02
2.410000e-06	6.892680e-07	2.544979e-09	4.917168e+00	1.665562e+02
2.420000e-06	5.877692e-07	2.416461e-09	4.193085e+00	1.583993e+02
2.430000e-06	4.861382e-07	2.289575e-09	3.468061e+00	1.500599e+02
2.440000e-06	3.842784e-07	2.167906e-09	2.741403e+00	1.415280e+02
2.450000e-06	2.821916e-07	2.038142e-09	2.013126e+00	1.327945e+02
2.460000e-06	1.799118e-07	1.897628e-09	1.283472e+00	1.238521e+02
2.470000e-06	7.746211e-08	1.754369e-09	5.526068e-01	1.146952e+02
2.480000e-06	-2.508358e-08	1.610590e-09	-1.789437e-01	1.053201e+02
2.490000e-06	-1.275964e-07	1.467789e-09	-9.102597e-01	9.572459e+01
2.500000e-06	-2.299629e-07	1.323666e-09	-1.640532e+00	8.590726e+01
2.510000e-06	-3.321911e-07	1.174495e-09	-2.369818e+00	7.586680e+01
2.520000e-06	-4.343155e-07	1.020425e-09	-3.098362e+00	6.560109e+01
2.530000e-06	-5.362616e-07	8.608439e-10	-3.825636e+00	5.510667e+01
2.540000e-06	-6.380103e-07	6.990312e-10	-4.551500e+00	4.437830e+01
2.550000e-06	-7.394720e-07	5.360334e-10	-5.275318e+00	3.340914e+01
2.560000e-06	-8.405484e-07	3.644656e-10	-5.996387e+00	2.219139e+01
2.570000e-06	-9.413181e-07	1.852309e-10	-6.715267e+00	1.071751e+01
2.580000e-06	-1.041775e-06	3.928865e-12	-7.431913e+00	-1.018193e+00
2.590000e-06	-1.141848e-06	-1.790508e-10	-8.145827e+00	-1.301754e+01
2.600000e-06	-1.241469e-06	-3.641157e-10	-8.856511e+00	-2.527648e+01
2.610000e-06	-1.340595e-06	-5.531264e-10	-9.563666e+00	-3.778324e+01
2.620000e-06	-1.439256e-06	-7.479447e-10	-1.026751e+01	-5.051684e+01
2.630000e-06	-1.537496e-06	-9.494237e-10	-1.096834e+01	-6.344638e+01
2.640000e-06	-1.635234e-06	-1.152987e-09	-1.166559e+01	-7.653097e+01
2.650000e-06	-1.732323e-06	-1.355182e-09	-1.235822e+01	-8.972071e+01
2.660000e-06	-1.828803e-06	-1.559199e-09	-1.304649e+01	-1.029584e+02
2.670000e-06	-1.924795e-06	-1.767302e-09	-1.373129e+01	-1.161820e+02
2.680000e-06	-2.020266e-06	-1.976592e-09	-1.441237e+01	-1.293276e+02
2.690000e-06	-2.114969e-06	-2.181051e-09	-1.508797e+01	-1.423325e+02
2.700000e-06	-2.208655e-06	-2.377240e-09	-1.575632e+01	-1.551384e+02
2.710000e-06	-2.301412e-06	-2.565375e-09	-1.641804e+01	-1.676936e+02
2.720000e-06	-2.393340e-06	-2.749217e-09	-1.707384e+01	-1.799555e+02
2.730000e-06	-2.484337e-06	-2.930024e-09	-1.772301e+01	-1.918911e+02
2.740000e-06	-2.574409e-06	-3.105890e-09	-1.836558e+01	-2.034775e+02
2.750000e-06	-2.663585e-06	-3.276854e-09	-1.900174e+01	-2.147013e+02
2.760000e-06	-2.751908e-06	-3.443154e-09	-1.963183e+01	-2.255567e+02
2.770000e-06	-2.839461e-06	-3.606229e-09	-2.025643e+01	-2.360441e+02
2.780000e-06	-2.926075e-06	-3.765397e-09	-2.087432e+01	-2.461680e+02
2.790000e-06	-3.011515e-06	-3.915317e-09	-2.148384e+01	-2.559343e+02
2.800000e-06	-3.095792e-06	-4.056364e-09	-2.208506e+01	-2.653495e+02
2.810000e-06	-3.178925e-06	-4.191576e-09	-2.267813e+01	-2.744189e+02
2.820000e-06	-3.260984e-06	-4.322179e-09	-2.326352e+01	-2.831465e+02
2.830000e-06	-3.341965e-06	-4.449771e-09	-2.384124e+01	-2.915346e+02
2.840000e-06	-3.421887e-06	-4.575879e-09	-2.441140e+01	-2.995851e+02
2.850000e-06	-3.500634e-06	-4.697456e-09	-2.497316e+01	-3.072999e+02
2.860000e-06	-3.577948e-06	-4.811352e-09	-2.552471e+01	-3.146825e+02
2.870000e-06	-3.653781e-06	-4.920228e-09	-2.606570e+01	-3.217391e+02
2.880000e-06	-3.728114e-06	-5.025271e-09	-2.659598e+01	-3.284794e+02
2.890000e-06	-3.801008e-06	-5.124252e-09	-2.711601e+01	-3.349166e+02
2.900000e-06	-3.872601e-06	-5.217368e-09	-2.762674e+01	-3.410678e+02
2.910000e-06	-3.942811e-06	-5.305613e-09	-2.812761e+01	-3.469528e+02
2.920000e-06	-4.011455e-06	-5.389711e-09	-2.861731e+01	-3.525930e+02
2.930000e-06	-4.078626e-06	-5.471988e-09	-2.909650e+01	-3.580101e+02
2.940000e-06	-4.144341e-06	-5.552955e-09	-2.956530e+01	-3.632240e+02
