# Temperatura_=_67.1
# Concentracion g/m^3_=_15000.0
# C_Vs_to_Am_M_A/Vsm_=_65563218390.804596
# pendiente_HvsI_1/m_=_3716.3
# ordenada_HvsI_A/m_=_1297.0
# frecuencia_Hz_=_301591.295761093

Tiempo_(s)	Campo_(V.s)	Magnetizacion_(V.s)	Campo_(kA/m)	Magnetizacion_(A/m)
0.000000e+00	-5.376455e-06	-6.971683e-09	-3.833445e+01	-4.559768e+02
1.000000e-08	-5.373715e-06	-6.966797e-09	-3.831491e+01	-4.557871e+02
2.000000e-08	-5.369140e-06	-6.960503e-09	-3.828230e+01	-4.554958e+02
3.000000e-08	-5.362921e-06	-6.951925e-09	-3.823795e+01	-4.551003e+02
4.000000e-08	-5.355087e-06	-6.943156e-09	-3.818209e+01	-4.545994e+02
5.000000e-08	-5.345502e-06	-6.935305e-09	-3.811375e+01	-4.539947e+02
6.000000e-08	-5.333883e-06	-6.927471e-09	-3.803091e+01	-4.532898e+02
7.000000e-08	-5.320293e-06	-6.924892e-09	-3.793401e+01	-4.524913e+02
8.000000e-08	-5.304641e-06	-6.909787e-09	-3.782241e+01	-4.516073e+02
9.000000e-08	-5.286747e-06	-6.897577e-09	-3.769482e+01	-4.506470e+02
1.000000e-07	-5.266806e-06	-6.898039e-09	-3.755265e+01	-4.496198e+02
1.100000e-07	-5.244982e-06	-6.862151e-09	-3.739704e+01	-4.485335e+02
1.200000e-07	-5.221454e-06	-6.821442e-09	-3.722928e+01	-4.473940e+02
1.300000e-07	-5.196418e-06	-6.822776e-09	-3.705077e+01	-4.462038e+02
1.400000e-07	-5.169786e-06	-6.763362e-09	-3.686088e+01	-4.449617e+02
1.500000e-07	-5.141524e-06	-6.770534e-09	-3.665938e+01	-4.436631e+02
1.600000e-07	-5.111759e-06	-6.807359e-09	-3.644715e+01	-4.422996e+02
1.700000e-07	-5.080384e-06	-6.719870e-09	-3.622345e+01	-4.408605e+02
1.800000e-07	-5.047008e-06	-6.724498e-09	-3.598547e+01	-4.393335e+02
1.900000e-07	-5.011751e-06	-6.703288e-09	-3.573408e+01	-4.377061e+02
2.000000e-07	-4.974972e-06	-6.589852e-09	-3.547185e+01	-4.359667e+02
2.100000e-07	-4.936465e-06	-6.587977e-09	-3.519729e+01	-4.341057e+02
2.200000e-07	-4.896154e-06	-6.569666e-09	-3.490987e+01	-4.321168e+02
2.300000e-07	-4.853867e-06	-6.539379e-09	-3.460836e+01	-4.299968e+02
2.400000e-07	-4.809627e-06	-6.557972e-09	-3.429293e+01	-4.277463e+02
2.500000e-07	-4.763713e-06	-6.498759e-09	-3.396556e+01	-4.253689e+02
2.600000e-07	-4.715969e-06	-6.438531e-09	-3.362514e+01	-4.228708e+02
2.700000e-07	-4.666147e-06	-6.379839e-09	-3.326991e+01	-4.202599e+02
2.800000e-07	-4.614179e-06	-6.349634e-09	-3.289938e+01	-4.175446e+02
2.900000e-07	-4.560313e-06	-6.345763e-09	-3.251531e+01	-4.147328e+02
3.000000e-07	-4.504850e-06	-6.295150e-09	-3.211985e+01	-4.118312e+02
3.100000e-07	-4.447764e-06	-6.235598e-09	-3.171282e+01	-4.088447e+02
3.200000e-07	-4.388897e-06	-6.167763e-09	-3.129310e+01	-4.057757e+02
3.300000e-07	-4.328386e-06	-6.123166e-09	-3.086165e+01	-4.026246e+02
3.400000e-07	-4.266413e-06	-6.089609e-09	-3.041978e+01	-3.993895e+02
3.500000e-07	-4.203079e-06	-6.031242e-09	-2.996821e+01	-3.960671e+02
3.600000e-07	-4.138303e-06	-5.984369e-09	-2.950635e+01	-3.926531e+02
3.700000e-07	-4.071874e-06	-5.925309e-09	-2.903271e+01	-3.891427e+02
3.800000e-07	-4.003886e-06	-5.865896e-09	-2.854795e+01	-3.855316e+02
3.900000e-07	-3.934512e-06	-5.818128e-09	-2.805331e+01	-3.818160e+02
4.000000e-07	-3.863794e-06	-5.752702e-09	-2.754909e+01	-3.779933e+02
4.100000e-07	-3.791901e-06	-5.687278e-09	-2.703649e+01	-3.740618e+02
4.200000e-07	-3.718792e-06	-5.611645e-09	-2.651521e+01	-3.700212e+02
4.300000e-07	-3.644055e-06	-5.561353e-09	-2.598233e+01	-3.658717e+02
4.400000e-07	-3.567642e-06	-5.521535e-09	-2.543750e+01	-3.616142e+02
4.500000e-07	-3.489820e-06	-5.466027e-09	-2.488263e+01	-3.572499e+02
4.600000e-07	-3.410637e-06	-5.389038e-09	-2.431805e+01	-3.527799e+02
4.700000e-07	-3.330175e-06	-5.293958e-09	-2.374435e+01	-3.482047e+02
4.800000e-07	-3.248475e-06	-5.217716e-09	-2.316182e+01	-3.435246e+02
4.900000e-07	-3.165578e-06	-5.150393e-09	-2.257076e+01	-3.387391e+02
5.000000e-07	-3.081644e-06	-5.084897e-09	-2.197231e+01	-3.338471e+02
5.100000e-07	-2.996829e-06	-5.010655e-09	-2.136757e+01	-3.288470e+02
5.200000e-07	-2.911115e-06	-4.926965e-09	-2.075642e+01	-3.237368e+02
5.300000e-07	-2.824420e-06	-4.837260e-09	-2.013829e+01	-3.185140e+02
5.400000e-07	-2.736814e-06	-4.755226e-09	-1.951365e+01	-3.131761e+02
5.500000e-07	-2.648264e-06	-4.682024e-09	-1.888228e+01	-3.077206e+02
5.600000e-07	-2.558654e-06	-4.601278e-09	-1.824336e+01	-3.021448e+02
5.700000e-07	-2.467911e-06	-4.509592e-09	-1.759636e+01	-2.964462e+02
5.800000e-07	-2.376170e-06	-4.414074e-09	-1.694224e+01	-2.906224e+02
5.900000e-07	-2.283632e-06	-4.326239e-09	-1.628243e+01	-2.846714e+02
6.000000e-07	-2.190336e-06	-4.236862e-09	-1.561723e+01	-2.785911e+02
6.100000e-07	-2.096286e-06	-4.138845e-09	-1.494665e+01	-2.723801e+02
6.200000e-07	-2.001508e-06	-4.035939e-09	-1.427087e+01	-2.660372e+02
6.300000e-07	-1.906021e-06	-3.935225e-09	-1.359005e+01	-2.595618e+02
6.400000e-07	-1.809835e-06	-3.839723e-09	-1.290423e+01	-2.529536e+02
6.500000e-07	-1.712963e-06	-3.746762e-09	-1.221353e+01	-2.462126e+02
6.600000e-07	-1.615398e-06	-3.646374e-09	-1.151789e+01	-2.393392e+02
6.700000e-07	-1.517133e-06	-3.529862e-09	-1.081725e+01	-2.323335e+02
6.800000e-07	-1.418253e-06	-3.406516e-09	-1.011223e+01	-2.251954e+02
6.900000e-07	-1.318813e-06	-3.290475e-09	-9.403217e+00	-2.179240e+02
7.000000e-07	-1.218936e-06	-3.184873e-09	-8.691085e+00	-2.105175e+02
7.100000e-07	-1.118724e-06	-3.076967e-09	-7.976568e+00	-2.029726e+02
7.200000e-07	-1.018204e-06	-2.960717e-09	-7.259856e+00	-1.952846e+02
7.300000e-07	-9.174277e-07	-2.838783e-09	-6.541315e+00	-1.874472e+02
7.400000e-07	-8.163851e-07	-2.715137e-09	-5.820875e+00	-1.794528e+02
7.500000e-07	-7.150649e-07	-2.591783e-09	-5.098456e+00	-1.712927e+02
7.600000e-07	-6.134652e-07	-2.467486e-09	-4.374044e+00	-1.629577e+02
7.700000e-07	-5.116132e-07	-2.337780e-09	-3.647833e+00	-1.544383e+02
7.800000e-07	-4.095758e-07	-2.200048e-09	-2.920300e+00	-1.457258e+02
7.900000e-07	-3.074433e-07	-2.059299e-09	-2.192089e+00	-1.368122e+02
8.000000e-07	-2.052192e-07	-1.918952e-09	-1.463225e+00	-1.276911e+02
8.100000e-07	-1.028726e-07	-1.778860e-09	-7.334881e-01	-1.183574e+02
8.200000e-07	-4.168105e-10	-1.633545e-09	-2.971884e-03	-1.088072e+02
8.300000e-07	1.020903e-07	-1.481493e-09	7.279099e-01	-9.903780e+01
8.400000e-07	2.045473e-07	-1.326099e-09	1.458434e+00	-8.904666e+01
8.500000e-07	3.069006e-07	-1.171600e-09	2.188220e+00	-7.883110e+01
8.600000e-07	4.091236e-07	-1.015233e-09	2.917076e+00	-6.838753e+01
8.700000e-07	5.112443e-07	-8.517170e-10	3.645203e+00	-5.771105e+01
8.800000e-07	6.132522e-07	-6.807042e-10	4.372525e+00	-4.679521e+01
8.900000e-07	7.150973e-07	-5.056857e-10	5.098687e+00	-3.563228e+01
9.000000e-07	8.167135e-07	-3.299492e-10	5.823216e+00	-2.421390e+01
9.100000e-07	9.179778e-07	-1.512794e-10	6.545237e+00	-1.253224e+01
9.200000e-07	1.018871e-06	2.932840e-11	7.264613e+00	-5.814663e-01
9.300000e-07	1.119469e-06	2.133008e-10	7.981879e+00	1.164043e+01
9.400000e-07	1.219763e-06	4.019279e-10	8.696982e+00	2.412982e+01
9.500000e-07	1.319660e-06	5.935399e-10	9.409254e+00	3.687567e+01
9.600000e-07	1.419117e-06	7.864998e-10	1.011839e+01	4.985822e+01
9.700000e-07	1.517938e-06	9.817427e-10	1.082299e+01	6.304814e+01
9.800000e-07	1.615982e-06	1.181666e-09	1.152205e+01	7.640646e+01
9.900000e-07	1.713245e-06	1.386365e-09	1.221554e+01	8.988523e+01
1.000000e-06	1.809747e-06	1.593364e-09	1.290361e+01	1.034290e+02
1.010000e-06	1.905583e-06	1.799247e-09	1.358692e+01	1.169769e+02
1.020000e-06	2.000776e-06	2.002296e-09	1.426565e+01	1.304654e+02
1.030000e-06	2.095318e-06	2.201937e-09	1.493974e+01	1.438313e+02
1.040000e-06	2.189100e-06	2.399079e-09	1.560842e+01	1.570142e+02
1.050000e-06	2.282131e-06	2.592330e-09	1.627173e+01	1.699599e+02
1.060000e-06	2.374532e-06	2.782996e-09	1.693056e+01	1.826216e+02
1.070000e-06	2.466224e-06	2.970623e-09	1.758433e+01	1.949620e+02
1.080000e-06	2.556946e-06	3.152593e-09	1.823118e+01	2.069534e+02
1.090000e-06	2.646494e-06	3.330210e-09	1.886966e+01	2.185776e+02
1.100000e-06	2.734982e-06	3.502876e-09	1.950059e+01	2.298250e+02
1.110000e-06	2.822548e-06	3.668726e-09	2.012494e+01	2.406927e+02
1.120000e-06	2.909229e-06	3.829381e-09	2.074297e+01	2.511829e+02
1.130000e-06	2.995010e-06	3.983642e-09	2.135460e+01	2.613008e+02
1.140000e-06	3.079821e-06	4.131242e-09	2.195931e+01	2.710527e+02
1.150000e-06	3.163736e-06	4.273088e-09	2.255763e+01	2.804447e+02
1.160000e-06	3.246615e-06	4.411200e-09	2.314856e+01	2.894822e+02
1.170000e-06	3.328181e-06	4.544029e-09	2.373013e+01	2.981688e+02
1.180000e-06	3.408477e-06	4.670632e-09	2.430265e+01	3.065073e+02
1.190000e-06	3.487612e-06	4.791325e-09	2.486689e+01	3.145005e+02
1.200000e-06	3.565594e-06	4.906995e-09	2.542290e+01	3.221517e+02
1.210000e-06	3.642356e-06	5.019177e-09	2.597022e+01	3.294663e+02
1.220000e-06	3.717688e-06	5.124513e-09	2.650734e+01	3.364526e+02
1.230000e-06	3.791324e-06	5.222342e-09	2.703237e+01	3.431224e+02
1.240000e-06	3.863403e-06	5.315070e-09	2.754630e+01	3.494913e+02
1.250000e-06	3.934158e-06	5.406215e-09	2.805079e+01	3.555780e+02
1.260000e-06	4.003556e-06	5.496694e-09	2.854559e+01	3.614041e+02
1.270000e-06	4.071638e-06	5.585388e-09	2.903102e+01	3.669918e+02
1.280000e-06	4.138261e-06	5.670263e-09	2.950605e+01	3.723633e+02
1.290000e-06	4.203199e-06	5.750545e-09	2.996906e+01	3.775386e+02
1.300000e-06	4.266560e-06	5.825701e-09	3.042083e+01	3.825345e+02
1.310000e-06	4.328456e-06	5.898643e-09	3.086215e+01	3.873630e+02
1.320000e-06	4.389003e-06	5.970101e-09	3.129386e+01	3.920315e+02
1.330000e-06	4.448096e-06	6.038634e-09	3.171519e+01	3.965421e+02
1.340000e-06	4.505390e-06	6.103435e-09	3.212370e+01	4.008925e+02
1.350000e-06	4.560996e-06	6.165040e-09	3.252018e+01	4.050771e+02
1.360000e-06	4.614994e-06	6.225427e-09	3.290519e+01	4.090883e+02
1.370000e-06	4.667150e-06	6.283019e-09	3.327706e+01	4.129183e+02
1.380000e-06	4.717286e-06	6.337099e-09	3.363453e+01	4.165600e+02
1.390000e-06	4.765528e-06	6.389499e-09	3.397850e+01	4.200088e+02
1.400000e-06	4.812144e-06	6.439561e-09	3.431088e+01	4.232634e+02
1.410000e-06	4.857185e-06	6.485760e-09	3.463202e+01	4.263256e+02
1.420000e-06	4.900595e-06	6.528003e-09	3.494154e+01	4.292010e+02
1.430000e-06	4.942153e-06	6.566677e-09	3.523785e+01	4.318975e+02
1.440000e-06	4.981882e-06	6.602890e-09	3.552112e+01	4.344249e+02
1.450000e-06	5.019977e-06	6.635575e-09	3.579274e+01	4.367938e+02
1.460000e-06	5.056487e-06	6.667410e-09	3.605306e+01	4.390141e+02
1.470000e-06	5.091231e-06	6.699632e-09	3.630078e+01	4.410944e+02
1.480000e-06	5.123994e-06	6.729983e-09	3.653438e+01	4.430409e+02
1.490000e-06	5.154962e-06	6.757498e-09	3.675519e+01	4.448578e+02
1.500000e-06	5.184307e-06	6.781794e-09	3.696442e+01	4.465467e+02
1.510000e-06	5.211954e-06	6.803264e-09	3.716154e+01	4.481077e+02
1.520000e-06	5.237579e-06	6.822789e-09	3.734425e+01	4.495394e+02
1.530000e-06	5.261143e-06	6.842219e-09	3.751227e+01	4.508406e+02
1.540000e-06	5.282887e-06	6.861454e-09	3.766730e+01	4.520107e+02
1.550000e-06	5.302910e-06	6.878267e-09	3.781007e+01	4.530503e+02
1.560000e-06	5.321090e-06	6.891924e-09	3.793969e+01	4.539616e+02
1.570000e-06	5.337232e-06	6.904010e-09	3.805478e+01	4.547488e+02
1.580000e-06	5.351369e-06	6.915073e-09	3.815558e+01	4.554176e+02
1.590000e-06	5.363483e-06	6.925019e-09	3.824196e+01	4.559744e+02
1.600000e-06	5.373345e-06	6.933224e-09	3.831227e+01	4.564260e+02
1.610000e-06	5.381112e-06	6.940104e-09	3.836765e+01	4.567784e+02
1.620000e-06	5.387114e-06	6.946017e-09	3.841044e+01	4.570362e+02
1.630000e-06	5.391372e-06	6.950942e-09	3.844081e+01	4.572023e+02
1.640000e-06	5.393715e-06	6.953804e-09	3.845751e+01	4.572773e+02
1.650000e-06	5.394064e-06	6.955778e-09	3.846000e+01	4.572599e+02
1.660000e-06	5.392650e-06	6.956975e-09	3.844992e+01	4.571473e+02
1.670000e-06	5.389578e-06	6.951926e-09	3.842802e+01	4.569358e+02
1.680000e-06	5.384742e-06	6.947822e-09	3.839354e+01	4.566221e+02
1.690000e-06	5.377956e-06	6.944340e-09	3.834515e+01	4.562036e+02
1.700000e-06	5.369424e-06	6.938645e-09	3.828431e+01	4.556800e+02
1.710000e-06	5.359356e-06	6.930667e-09	3.821253e+01	4.550531e+02
1.720000e-06	5.347482e-06	6.915059e-09	3.812787e+01	4.543273e+02
1.730000e-06	5.333614e-06	6.900630e-09	3.802899e+01	4.535094e+02
1.740000e-06	5.317732e-06	6.888938e-09	3.791575e+01	4.526080e+02
1.750000e-06	5.299560e-06	6.850276e-09	3.778618e+01	4.516323e+02
1.760000e-06	5.278702e-06	6.850730e-09	3.763746e+01	4.505915e+02
1.770000e-06	5.255522e-06	6.855858e-09	3.747219e+01	4.494932e+02
1.780000e-06	5.231058e-06	6.831692e-09	3.729776e+01	4.483424e+02
1.790000e-06	5.205862e-06	6.852442e-09	3.711811e+01	4.471410e+02
1.800000e-06	5.179243e-06	6.747875e-09	3.692832e+01	4.458871e+02
1.810000e-06	5.150399e-06	6.710226e-09	3.672266e+01	4.445750e+02
1.820000e-06	5.119688e-06	6.776054e-09	3.650369e+01	4.431961e+02
1.830000e-06	5.087383e-06	6.679349e-09	3.627335e+01	4.417389e+02
1.840000e-06	5.053185e-06	6.700348e-09	3.602952e+01	4.401912e+02
1.850000e-06	5.017368e-06	6.771384e-09	3.577413e+01	4.385404e+02
1.860000e-06	4.979824e-06	6.673114e-09	3.550644e+01	4.367753e+02
1.870000e-06	4.940367e-06	6.667465e-09	3.522511e+01	4.348871e+02
1.880000e-06	4.899247e-06	6.604035e-09	3.493193e+01	4.328699e+02
1.890000e-06	4.856309e-06	6.511759e-09	3.462577e+01	4.307215e+02
1.900000e-06	4.811653e-06	6.546145e-09	3.430738e+01	4.284431e+02
1.910000e-06	4.765200e-06	6.487295e-09	3.397616e+01	4.260390e+02
1.920000e-06	4.716783e-06	6.503620e-09	3.363095e+01	4.235158e+02
1.930000e-06	4.666710e-06	6.463296e-09	3.327392e+01	4.208815e+02
1.940000e-06	4.614869e-06	6.331070e-09	3.290430e+01	4.181445e+02
1.950000e-06	4.560978e-06	6.335164e-09	3.252005e+01	4.153127e+02
1.960000e-06	4.505157e-06	6.280663e-09	3.212204e+01	4.123923e+02
1.970000e-06	4.447591e-06	6.252532e-09	3.171159e+01	4.093877e+02
1.980000e-06	4.388617e-06	6.222332e-09	3.129111e+01	4.063009e+02
1.990000e-06	4.328217e-06	6.148373e-09	3.086045e+01	4.031317e+02
2.000000e-06	4.266134e-06	6.129226e-09	3.041780e+01	3.998779e+02
2.010000e-06	4.202465e-06	6.030299e-09	2.996383e+01	3.965360e+02
2.020000e-06	4.137300e-06	6.000730e-09	2.949920e+01	3.931014e+02
2.030000e-06	4.070686e-06	5.967885e-09	2.902423e+01	3.895695e+02
2.040000e-06	4.002594e-06	5.893693e-09	2.853873e+01	3.859360e+02
2.050000e-06	3.933007e-06	5.852440e-09	2.804257e+01	3.821974e+02
2.060000e-06	3.861907e-06	5.770162e-09	2.753563e+01	3.783512e+02
2.070000e-06	3.789419e-06	5.743021e-09	2.701878e+01	3.743961e+02
2.080000e-06	3.715714e-06	5.661933e-09	2.649327e+01	3.703317e+02
2.090000e-06	3.640696e-06	5.575117e-09	2.595839e+01	3.661587e+02
2.100000e-06	3.564194e-06	5.515991e-09	2.541292e+01	3.618780e+02
2.110000e-06	3.486057e-06	5.442114e-09	2.485580e+01	3.574907e+02
2.120000e-06	3.406508e-06	5.406297e-09	2.428861e+01	3.529978e+02
2.130000e-06	3.325853e-06	5.332558e-09	2.371353e+01	3.483998e+02
2.140000e-06	3.244099e-06	5.270369e-09	2.313062e+01	3.436969e+02
2.150000e-06	3.161330e-06	5.185532e-09	2.254047e+01	3.388884e+02
2.160000e-06	3.077516e-06	5.088271e-09	2.194288e+01	3.339731e+02
2.170000e-06	2.992509e-06	5.017480e-09	2.133677e+01	3.289493e+02
2.180000e-06	2.906227e-06	4.951843e-09	2.072157e+01	3.238148e+02
2.190000e-06	2.818732e-06	4.885194e-09	2.009773e+01	3.185673e+02
2.200000e-06	2.730263e-06	4.790174e-09	1.946694e+01	3.132042e+02
2.210000e-06	2.640895e-06	4.702669e-09	1.882974e+01	3.077228e+02
2.220000e-06	2.550610e-06	4.618870e-09	1.818600e+01	3.021206e+02
2.230000e-06	2.459476e-06	4.538000e-09	1.753621e+01	2.963951e+02
2.240000e-06	2.367601e-06	4.450033e-09	1.688114e+01	2.905439e+02
2.250000e-06	2.274940e-06	4.359958e-09	1.622046e+01	2.845651e+02
2.260000e-06	2.181415e-06	4.269002e-09	1.555362e+01	2.784566e+02
2.270000e-06	2.086964e-06	4.165427e-09	1.488018e+01	2.722171e+02
2.280000e-06	1.991526e-06	4.067302e-09	1.419970e+01	2.658456e+02
2.290000e-06	1.895296e-06	3.970672e-09	1.351357e+01	2.593415e+02
2.300000e-06	1.798505e-06	3.870328e-09	1.282345e+01	2.527045e+02
2.310000e-06	1.701225e-06	3.760201e-09	1.212983e+01	2.459348e+02
2.320000e-06	1.603424e-06	3.653834e-09	1.143251e+01	2.390327e+02
2.330000e-06	1.505121e-06	3.559004e-09	1.073160e+01	2.319984e+02
2.340000e-06	1.406389e-06	3.460502e-09	1.002764e+01	2.248316e+02
2.350000e-06	1.307248e-06	3.346953e-09	9.320761e+00	2.175312e+02
2.360000e-06	1.207722e-06	3.224726e-09	8.611131e+00	2.100950e+02
2.370000e-06	1.107889e-06	3.101785e-09	7.899315e+00	2.025196e+02
2.380000e-06	1.007702e-06	2.982080e-09	7.184977e+00	1.947999e+02
2.390000e-06	9.070960e-07	2.869191e-09	6.467649e+00	1.869293e+02
2.400000e-06	8.061145e-07	2.754052e-09	5.747645e+00	1.788998e+02
2.410000e-06	7.047716e-07	2.629213e-09	5.025064e+00	1.707027e+02
2.420000e-06	6.031523e-07	2.492517e-09	4.300513e+00	1.623287e+02
2.430000e-06	5.013109e-07	2.357223e-09	3.574377e+00	1.537683e+02
2.440000e-06	3.992613e-07	2.230791e-09	2.846757e+00	1.450131e+02
2.450000e-06	2.970745e-07	2.101052e-09	2.118159e+00	1.360552e+02
2.460000e-06	1.947572e-07	1.958436e-09	1.388631e+00	1.268887e+02
2.470000e-06	9.230887e-08	1.809432e-09	6.581678e-01	1.175086e+02
2.480000e-06	-1.021247e-08	1.662195e-09	-7.281555e-02	1.079113e+02
2.490000e-06	-1.126943e-07	1.517601e-09	-8.035172e-01	9.809432e+01
2.500000e-06	-2.151618e-07	1.371052e-09	-1.534116e+00	8.805505e+01
2.510000e-06	-3.176157e-07	1.217214e-09	-2.264619e+00	7.779068e+01
2.520000e-06	-4.199228e-07	1.056775e-09	-2.994075e+00	6.729738e+01
2.530000e-06	-5.220653e-07	8.901426e-10	-3.722357e+00	5.656991e+01
2.540000e-06	-6.239476e-07	7.219904e-10	-4.448784e+00	4.560152e+01
2.550000e-06	-7.255068e-07	5.563370e-10	-5.172908e+00	3.438427e+01
2.560000e-06	-8.267503e-07	3.854336e-10	-5.894780e+00	2.290980e+01
2.570000e-06	-9.276306e-07	2.030147e-10	-6.614062e+00	1.117057e+01
2.580000e-06	-1.028134e-06	1.420520e-11	-7.330659e+00	-8.385828e-01
2.590000e-06	-1.128238e-06	-1.749109e-10	-8.044403e+00	-1.311862e+01
2.600000e-06	-1.227886e-06	-3.644244e-10	-8.754901e+00	-2.566446e+01
2.610000e-06	-1.327095e-06	-5.599048e-10	-9.462266e+00	-3.846330e+01
2.620000e-06	-1.425889e-06	-7.617478e-10	-1.016667e+01	-5.149338e+01
2.630000e-06	-1.524196e-06	-9.665665e-10	-1.086761e+01	-6.472328e+01
2.640000e-06	-1.621933e-06	-1.173415e-09	-1.156448e+01	-7.811202e+01
2.650000e-06	-1.719058e-06	-1.381337e-09	-1.225699e+01	-9.160989e+01
2.660000e-06	-1.815634e-06	-1.591216e-09	-1.294558e+01	-1.051601e+02
2.670000e-06	-1.911697e-06	-1.803472e-09	-1.363052e+01	-1.187009e+02
2.680000e-06	-2.007195e-06	-2.016626e-09	-1.431142e+01	-1.321687e+02
2.690000e-06	-2.102018e-06	-2.225854e-09	-1.498751e+01	-1.455006e+02
2.700000e-06	-2.195951e-06	-2.427083e-09	-1.565726e+01	-1.586374e+02
2.710000e-06	-2.288818e-06	-2.620954e-09	-1.631941e+01	-1.715261e+02
2.720000e-06	-2.380715e-06	-2.812528e-09	-1.697464e+01	-1.841220e+02
2.730000e-06	-2.471806e-06	-3.001572e-09	-1.762413e+01	-1.963899e+02
2.740000e-06	-2.562089e-06	-3.183772e-09	-1.826785e+01	-2.083041e+02
2.750000e-06	-2.651447e-06	-3.358652e-09	-1.890497e+01	-2.198485e+02
2.760000e-06	-2.739934e-06	-3.527998e-09	-1.953589e+01	-2.310148e+02
2.770000e-06	-2.827680e-06	-3.694625e-09	-2.016153e+01	-2.418016e+02
2.780000e-06	-2.914516e-06	-3.856174e-09	-2.078067e+01	-2.522118e+02
2.790000e-06	-3.000156e-06	-4.010824e-09	-2.139129e+01	-2.622510e+02
2.800000e-06	-3.084536e-06	-4.157362e-09	-2.199293e+01	-2.719256e+02
2.810000e-06	-3.167824e-06	-4.296101e-09	-2.258677e+01	-2.812416e+02
2.820000e-06	-3.250052e-06	-4.430977e-09	-2.317307e+01	-2.902038e+02
2.830000e-06	-3.331221e-06	-4.562532e-09	-2.375181e+01	-2.988159e+02
2.840000e-06	-3.411396e-06	-4.691624e-09	-2.432346e+01	-3.070805e+02
2.850000e-06	-3.490422e-06	-4.814806e-09	-2.488692e+01	-3.150004e+02
2.860000e-06	-3.567961e-06	-4.930671e-09	-2.543977e+01	-3.225792e+02
2.870000e-06	-3.643960e-06	-5.042130e-09	-2.598166e+01	-3.298229e+02
2.880000e-06	-3.718566e-06	-5.150384e-09	-2.651360e+01	-3.367406e+02
2.890000e-06	-3.791786e-06	-5.253422e-09	-2.703567e+01	-3.433447e+02
2.900000e-06	-3.863739e-06	-5.349425e-09	-2.754869e+01	-3.496517e+02
2.910000e-06	-3.934247e-06	-5.440433e-09	-2.805142e+01	-3.556811e+02
2.920000e-06	-4.003102e-06	-5.527433e-09	-2.854236e+01	-3.614544e+02
2.930000e-06	-4.070487e-06	-5.611178e-09	-2.902281e+01	-3.669943e+02
2.940000e-06	-4.136505e-06	-5.691985e-09	-2.949353e+01	-3.723224e+02
