# Temperatura_=_61.06
# Concentracion g/m^3_=_15000.0
# C_Vs_to_Am_M_A/Vsm_=_65563218390.804596
# pendiente_HvsI_1/m_=_3716.3
# ordenada_HvsI_A/m_=_1297.0
# frecuencia_Hz_=_301596.5847820858

Tiempo_(s)	Campo_(V.s)	Magnetizacion_(V.s)	Campo_(kA/m)	Magnetizacion_(A/m)
0.000000e+00	-5.419196e-06	-8.897459e-09	-3.833789e+01	-5.805707e+02
1.000000e-08	-5.417117e-06	-8.893152e-09	-3.832318e+01	-5.803708e+02
2.000000e-08	-5.413153e-06	-8.887631e-09	-3.829514e+01	-5.800437e+02
3.000000e-08	-5.407479e-06	-8.880827e-09	-3.825500e+01	-5.795867e+02
4.000000e-08	-5.400199e-06	-8.873520e-09	-3.820350e+01	-5.789994e+02
5.000000e-08	-5.391190e-06	-8.862763e-09	-3.813976e+01	-5.782842e+02
6.000000e-08	-5.380142e-06	-8.848407e-09	-3.806160e+01	-5.774472e+02
7.000000e-08	-5.367120e-06	-8.837065e-09	-3.796948e+01	-5.764980e+02
8.000000e-08	-5.352063e-06	-8.816409e-09	-3.786296e+01	-5.754491e+02
9.000000e-08	-5.334794e-06	-8.810845e-09	-3.774079e+01	-5.743150e+02
1.000000e-07	-5.315421e-06	-8.812563e-09	-3.760374e+01	-5.731108e+02
1.100000e-07	-5.294102e-06	-8.774606e-09	-3.745292e+01	-5.718503e+02
1.200000e-07	-5.271003e-06	-8.735347e-09	-3.728950e+01	-5.705446e+02
1.300000e-07	-5.246263e-06	-8.708097e-09	-3.711448e+01	-5.692003e+02
1.400000e-07	-5.219902e-06	-8.645123e-09	-3.692799e+01	-5.678184e+02
1.500000e-07	-5.191955e-06	-8.666128e-09	-3.673028e+01	-5.663940e+02
1.600000e-07	-5.162516e-06	-8.666862e-09	-3.652202e+01	-5.649161e+02
1.700000e-07	-5.131600e-06	-8.590440e-09	-3.630331e+01	-5.633683e+02
1.800000e-07	-5.098723e-06	-8.599318e-09	-3.607071e+01	-5.617308e+02
1.900000e-07	-5.063810e-06	-8.536194e-09	-3.582372e+01	-5.599814e+02
2.000000e-07	-5.027377e-06	-8.469634e-09	-3.556598e+01	-5.580985e+02
2.100000e-07	-4.989266e-06	-8.498797e-09	-3.529636e+01	-5.560624e+02
2.200000e-07	-4.949276e-06	-8.438456e-09	-3.501346e+01	-5.538576e+02
2.300000e-07	-4.907339e-06	-8.394429e-09	-3.471678e+01	-5.514742e+02
2.400000e-07	-4.863457e-06	-8.385927e-09	-3.440634e+01	-5.489082e+02
2.500000e-07	-4.817793e-06	-8.300830e-09	-3.408329e+01	-5.461621e+02
2.600000e-07	-4.770277e-06	-8.272701e-09	-3.374713e+01	-5.432438e+02
2.700000e-07	-4.720687e-06	-8.237500e-09	-3.339631e+01	-5.401655e+02
2.800000e-07	-4.668999e-06	-8.170516e-09	-3.303065e+01	-5.369421e+02
2.900000e-07	-4.615380e-06	-8.116849e-09	-3.265132e+01	-5.335891e+02
3.000000e-07	-4.560134e-06	-8.056724e-09	-3.226049e+01	-5.301207e+02
3.100000e-07	-4.503286e-06	-8.012604e-09	-3.185832e+01	-5.265487e+02
3.200000e-07	-4.444583e-06	-7.967493e-09	-3.144303e+01	-5.228807e+02
3.300000e-07	-4.384163e-06	-7.920626e-09	-3.101559e+01	-5.191200e+02
3.400000e-07	-4.322234e-06	-7.851640e-09	-3.057747e+01	-5.152655e+02
3.500000e-07	-4.258991e-06	-7.780172e-09	-3.013007e+01	-5.113121e+02
3.600000e-07	-4.194277e-06	-7.728191e-09	-2.967225e+01	-5.072519e+02
3.700000e-07	-4.127799e-06	-7.656150e-09	-2.920195e+01	-5.030754e+02
3.800000e-07	-4.059756e-06	-7.592396e-09	-2.872059e+01	-4.987731e+02
3.900000e-07	-3.990384e-06	-7.528939e-09	-2.822982e+01	-4.943362e+02
4.000000e-07	-3.919733e-06	-7.446524e-09	-2.772999e+01	-4.897581e+02
4.100000e-07	-3.847847e-06	-7.377711e-09	-2.722144e+01	-4.850347e+02
4.200000e-07	-3.774502e-06	-7.304640e-09	-2.670256e+01	-4.801647e+02
4.300000e-07	-3.699511e-06	-7.232713e-09	-2.617204e+01	-4.751489e+02
4.400000e-07	-3.623029e-06	-7.152567e-09	-2.563097e+01	-4.699900e+02
4.500000e-07	-3.545062e-06	-7.068793e-09	-2.507940e+01	-4.646917e+02
4.600000e-07	-3.465641e-06	-6.988351e-09	-2.451754e+01	-4.592576e+02
4.700000e-07	-3.384908e-06	-6.905158e-09	-2.394640e+01	-4.536903e+02
4.800000e-07	-3.302953e-06	-6.823262e-09	-2.336661e+01	-4.479909e+02
4.900000e-07	-3.219948e-06	-6.733592e-09	-2.277940e+01	-4.421590e+02
5.000000e-07	-3.136011e-06	-6.640016e-09	-2.218559e+01	-4.361919e+02
5.100000e-07	-3.051083e-06	-6.537423e-09	-2.158477e+01	-4.300856e+02
5.200000e-07	-2.965134e-06	-6.438617e-09	-2.097673e+01	-4.238351e+02
5.300000e-07	-2.878215e-06	-6.348636e-09	-2.036182e+01	-4.174350e+02
5.400000e-07	-2.790355e-06	-6.254605e-09	-1.974025e+01	-4.108804e+02
5.500000e-07	-2.701449e-06	-6.149940e-09	-1.911129e+01	-4.041671e+02
5.600000e-07	-2.611358e-06	-6.037311e-09	-1.847395e+01	-3.972926e+02
5.700000e-07	-2.520192e-06	-5.928388e-09	-1.782900e+01	-3.902556e+02
5.800000e-07	-2.428153e-06	-5.817861e-09	-1.717787e+01	-3.830562e+02
5.900000e-07	-2.335299e-06	-5.702790e-09	-1.652098e+01	-3.756954e+02
6.000000e-07	-2.241582e-06	-5.587188e-09	-1.585798e+01	-3.681746e+02
6.100000e-07	-2.147066e-06	-5.471815e-09	-1.518933e+01	-3.604945e+02
6.200000e-07	-2.051892e-06	-5.352835e-09	-1.451603e+01	-3.526553e+02
6.300000e-07	-1.956024e-06	-5.230728e-09	-1.383781e+01	-3.446552e+02
6.400000e-07	-1.859305e-06	-5.107608e-09	-1.315358e+01	-3.364911e+02
6.500000e-07	-1.761708e-06	-4.980137e-09	-1.246313e+01	-3.281576e+02
6.600000e-07	-1.663357e-06	-4.845050e-09	-1.176735e+01	-3.196480e+02
6.700000e-07	-1.564390e-06	-4.706372e-09	-1.106721e+01	-3.109544e+02
6.800000e-07	-1.464957e-06	-4.569583e-09	-1.036378e+01	-3.020683e+02
6.900000e-07	-1.365096e-06	-4.431574e-09	-9.657319e+00	-2.929812e+02
7.000000e-07	-1.264809e-06	-4.289142e-09	-8.947845e+00	-2.836857e+02
7.100000e-07	-1.164085e-06	-4.142045e-09	-8.235274e+00	-2.741754e+02
7.200000e-07	-1.063011e-06	-3.990866e-09	-7.520228e+00	-2.644456e+02
7.300000e-07	-9.616449e-07	-3.836212e-09	-6.803119e+00	-2.544934e+02
7.400000e-07	-8.599009e-07	-3.680947e-09	-6.083335e+00	-2.443170e+02
7.500000e-07	-7.577982e-07	-3.523532e-09	-5.361013e+00	-2.339162e+02
7.600000e-07	-6.554118e-07	-3.359890e-09	-4.636685e+00	-2.232909e+02
7.700000e-07	-5.528382e-07	-3.188408e-09	-3.911032e+00	-2.124410e+02
7.800000e-07	-4.500879e-07	-3.014131e-09	-3.184129e+00	-2.013657e+02
7.900000e-07	-3.472347e-07	-2.841348e-09	-2.456498e+00	-1.900628e+02
8.000000e-07	-2.443167e-07	-2.665454e-09	-1.728409e+00	-1.785281e+02
8.100000e-07	-1.413253e-07	-2.485105e-09	-9.998004e-01	-1.667555e+02
8.200000e-07	-3.828143e-08	-2.301500e-09	-2.708205e-01	-1.547364e+02
8.300000e-07	6.482241e-08	-2.115288e-09	4.585836e-01	-1.424602e+02
8.400000e-07	1.679172e-07	-1.925009e-09	1.187923e+00	-1.299144e+02
8.500000e-07	2.709507e-07	-1.728365e-09	1.916830e+00	-1.170847e+02
8.600000e-07	3.739379e-07	-1.529160e-09	2.645409e+00	-1.039560e+02
8.700000e-07	4.768737e-07	-1.326207e-09	3.373624e+00	-9.051258e+01
8.800000e-07	5.796720e-07	-1.115922e-09	4.100866e+00	-7.673911e+01
8.900000e-07	6.822637e-07	-9.007370e-10	4.826648e+00	-6.262128e+01
9.000000e-07	7.846476e-07	-6.806211e-10	5.550958e+00	-4.814680e+01
9.100000e-07	8.868028e-07	-4.551086e-10	6.273651e+00	-3.330646e+01
9.200000e-07	9.886173e-07	-2.246025e-10	6.993934e+00	-1.809525e+01
9.300000e-07	1.090038e-06	1.306463e-11	7.711434e+00	-2.513613e+00
9.400000e-07	1.191124e-06	2.567902e-10	8.426560e+00	1.343128e+01
9.500000e-07	1.291825e-06	5.037641e-10	9.138963e+00	2.972437e+01
9.600000e-07	1.392078e-06	7.535528e-10	9.848204e+00	4.634170e+01
9.700000e-07	1.491861e-06	1.008511e-09	1.055411e+01	6.324966e+01
9.800000e-07	1.591086e-06	1.269814e-09	1.125607e+01	8.040478e+01
9.900000e-07	1.689733e-06	1.534393e-09	1.195395e+01	9.775391e+01
1.000000e-06	1.787603e-06	1.799272e-09	1.264633e+01	1.152352e+02
1.010000e-06	1.884563e-06	2.064771e-09	1.333227e+01	1.327794e+02
1.020000e-06	1.980705e-06	2.330854e-09	1.401242e+01	1.503121e+02
1.030000e-06	2.076112e-06	2.596125e-09	1.468737e+01	1.677565e+02
1.040000e-06	2.170842e-06	2.859752e-09	1.535754e+01	1.850358e+02
1.050000e-06	2.264817e-06	3.117635e-09	1.602236e+01	2.020765e+02
1.060000e-06	2.358016e-06	3.369021e-09	1.668169e+01	2.188112e+02
1.070000e-06	2.450486e-06	3.615868e-09	1.733586e+01	2.351810e+02
1.080000e-06	2.542220e-06	3.858723e-09	1.798483e+01	2.511371e+02
1.090000e-06	2.633121e-06	4.095805e-09	1.862791e+01	2.666425e+02
1.100000e-06	2.723017e-06	4.324507e-09	1.926388e+01	2.816713e+02
1.110000e-06	2.811715e-06	4.543120e-09	1.989137e+01	2.962090e+02
1.120000e-06	2.899298e-06	4.753588e-09	2.051097e+01	3.102505e+02
1.130000e-06	2.985929e-06	4.959276e-09	2.112384e+01	3.237985e+02
1.140000e-06	3.071585e-06	5.159463e-09	2.172981e+01	3.368612e+02
1.150000e-06	3.156295e-06	5.350901e-09	2.232908e+01	3.494497e+02
1.160000e-06	3.240043e-06	5.534201e-09	2.292155e+01	3.615763e+02
1.170000e-06	3.322786e-06	5.711137e-09	2.350692e+01	3.732524e+02
1.180000e-06	3.404341e-06	5.882630e-09	2.408388e+01	3.844875e+02
1.190000e-06	3.484559e-06	6.047630e-09	2.465137e+01	3.952887e+02
1.200000e-06	3.563481e-06	6.205920e-09	2.520971e+01	4.056605e+02
1.210000e-06	3.641133e-06	6.357305e-09	2.575905e+01	4.156061e+02
1.220000e-06	3.717497e-06	6.501106e-09	2.629928e+01	4.251279e+02
1.230000e-06	3.792465e-06	6.639238e-09	2.682964e+01	4.342291e+02
1.240000e-06	3.865854e-06	6.772054e-09	2.734883e+01	4.429149e+02
1.250000e-06	3.937666e-06	6.898642e-09	2.785686e+01	4.511938e+02
1.260000e-06	4.008071e-06	7.016563e-09	2.835494e+01	4.590777e+02
1.270000e-06	4.077132e-06	7.127326e-09	2.884351e+01	4.665824e+02
1.280000e-06	4.144807e-06	7.233789e-09	2.932228e+01	4.737271e+02
1.290000e-06	4.210967e-06	7.336813e-09	2.979032e+01	4.805336e+02
1.300000e-06	4.275454e-06	7.436596e-09	3.024653e+01	4.870250e+02
1.310000e-06	4.338370e-06	7.531021e-09	3.069163e+01	4.932242e+02
1.320000e-06	4.399856e-06	7.620022e-09	3.112661e+01	4.991529e+02
1.330000e-06	4.459946e-06	7.707012e-09	3.155172e+01	5.048298e+02
1.340000e-06	4.518548e-06	7.791326e-09	3.196629e+01	5.102701e+02
1.350000e-06	4.575344e-06	7.871478e-09	3.236809e+01	5.154852e+02
1.360000e-06	4.630361e-06	7.945180e-09	3.275730e+01	5.204821e+02
1.370000e-06	4.683753e-06	8.013235e-09	3.313503e+01	5.252646e+02
1.380000e-06	4.735305e-06	8.080764e-09	3.349973e+01	5.298337e+02
1.390000e-06	4.784787e-06	8.148781e-09	3.384979e+01	5.341887e+02
1.400000e-06	4.832354e-06	8.214874e-09	3.418629e+01	5.383283e+02
1.410000e-06	4.878255e-06	8.275353e-09	3.451103e+01	5.422517e+02
1.420000e-06	4.922567e-06	8.330350e-09	3.482450e+01	5.459591e+02
1.430000e-06	4.965261e-06	8.382465e-09	3.512654e+01	5.494522e+02
1.440000e-06	5.006092e-06	8.432290e-09	3.541540e+01	5.527346e+02
1.450000e-06	5.045080e-06	8.479286e-09	3.569122e+01	5.558112e+02
1.460000e-06	5.082417e-06	8.521456e-09	3.595536e+01	5.586881e+02
1.470000e-06	5.118132e-06	8.559109e-09	3.620802e+01	5.613718e+02
1.480000e-06	5.151996e-06	8.593959e-09	3.644759e+01	5.638687e+02
1.490000e-06	5.183882e-06	8.625716e-09	3.667317e+01	5.661847e+02
1.500000e-06	5.214012e-06	8.655070e-09	3.688632e+01	5.683249e+02
1.510000e-06	5.242479e-06	8.683110e-09	3.708771e+01	5.702935e+02
1.520000e-06	5.269113e-06	8.709795e-09	3.727613e+01	5.720940e+02
1.530000e-06	5.293607e-06	8.733848e-09	3.744941e+01	5.737295e+02
1.540000e-06	5.316059e-06	8.754191e-09	3.760825e+01	5.752032e+02
1.550000e-06	5.336755e-06	8.772785e-09	3.775466e+01	5.765187e+02
1.560000e-06	5.355794e-06	8.790010e-09	3.788935e+01	5.776807e+02
1.570000e-06	5.372917e-06	8.804687e-09	3.801049e+01	5.786944e+02
1.580000e-06	5.387915e-06	8.817432e-09	3.811659e+01	5.795662e+02
1.590000e-06	5.400933e-06	8.828459e-09	3.820869e+01	5.803027e+02
1.600000e-06	5.411884e-06	8.838029e-09	3.828616e+01	5.809105e+02
1.610000e-06	5.420614e-06	8.846126e-09	3.834792e+01	5.813953e+02
1.620000e-06	5.427329e-06	8.850883e-09	3.839543e+01	5.817616e+02
1.630000e-06	5.432257e-06	8.855433e-09	3.843029e+01	5.820119e+02
1.640000e-06	5.435355e-06	8.859853e-09	3.845221e+01	5.821465e+02
1.650000e-06	5.436457e-06	8.861484e-09	3.846000e+01	5.821640e+02
1.660000e-06	5.435622e-06	8.862666e-09	3.845409e+01	5.820611e+02
1.670000e-06	5.433055e-06	8.859380e-09	3.843593e+01	5.818340e+02
1.680000e-06	5.428803e-06	8.854089e-09	3.840585e+01	5.814789e+02
1.690000e-06	5.422681e-06	8.845879e-09	3.836254e+01	5.809937e+02
1.700000e-06	5.414699e-06	8.835615e-09	3.830607e+01	5.803784e+02
1.710000e-06	5.405095e-06	8.826478e-09	3.823813e+01	5.796362e+02
1.720000e-06	5.393849e-06	8.812875e-09	3.815857e+01	5.787740e+02
1.730000e-06	5.380726e-06	8.805978e-09	3.806573e+01	5.778020e+02
1.740000e-06	5.365541e-06	8.784888e-09	3.795831e+01	5.767333e+02
1.750000e-06	5.348113e-06	8.739146e-09	3.783501e+01	5.755827e+02
1.760000e-06	5.328024e-06	8.735650e-09	3.769289e+01	5.743650e+02
1.770000e-06	5.305407e-06	8.726508e-09	3.753289e+01	5.730938e+02
1.780000e-06	5.281193e-06	8.720826e-09	3.736159e+01	5.717792e+02
1.790000e-06	5.256210e-06	8.740539e-09	3.718485e+01	5.704267e+02
1.800000e-06	5.230120e-06	8.635452e-09	3.700028e+01	5.690361e+02
1.810000e-06	5.201968e-06	8.618659e-09	3.680112e+01	5.676010e+02
1.820000e-06	5.171734e-06	8.660605e-09	3.658723e+01	5.661094e+02
1.830000e-06	5.139842e-06	8.566897e-09	3.636161e+01	5.645439e+02
1.840000e-06	5.106095e-06	8.588255e-09	3.612287e+01	5.628840e+02
1.850000e-06	5.070600e-06	8.586976e-09	3.587176e+01	5.611076e+02
1.860000e-06	5.033420e-06	8.485587e-09	3.560873e+01	5.591931e+02
1.870000e-06	4.994267e-06	8.508076e-09	3.533174e+01	5.571217e+02
1.880000e-06	4.953389e-06	8.424872e-09	3.504256e+01	5.548791e+02
1.890000e-06	4.910773e-06	8.371592e-09	3.474107e+01	5.524563e+02
1.900000e-06	4.866371e-06	8.411987e-09	3.442695e+01	5.498511e+02
1.910000e-06	4.820275e-06	8.296012e-09	3.410085e+01	5.470670e+02
1.920000e-06	4.772175e-06	8.280045e-09	3.376056e+01	5.441130e+02
1.930000e-06	4.722297e-06	8.234455e-09	3.340770e+01	5.410021e+02
1.940000e-06	4.670746e-06	8.159582e-09	3.304301e+01	5.377493e+02
1.950000e-06	4.617046e-06	8.175749e-09	3.266311e+01	5.343702e+02
1.960000e-06	4.561349e-06	8.071363e-09	3.226909e+01	5.308785e+02
1.970000e-06	4.504009e-06	8.013858e-09	3.186343e+01	5.272851e+02
1.980000e-06	4.445159e-06	7.960750e-09	3.144710e+01	5.235969e+02
1.990000e-06	4.384839e-06	7.896563e-09	3.102037e+01	5.198161e+02
2.000000e-06	4.322860e-06	7.871842e-09	3.058191e+01	5.159406e+02
2.010000e-06	4.259238e-06	7.777285e-09	3.013181e+01	5.119648e+02
2.020000e-06	4.194100e-06	7.747374e-09	2.967099e+01	5.078803e+02
2.030000e-06	4.127501e-06	7.662232e-09	2.919984e+01	5.036774e+02
2.040000e-06	4.059457e-06	7.579033e-09	2.871847e+01	4.993466e+02
2.050000e-06	3.989878e-06	7.545199e-09	2.822624e+01	4.948797e+02
2.060000e-06	3.918759e-06	7.452214e-09	2.772311e+01	4.902704e+02
2.070000e-06	3.846203e-06	7.397208e-09	2.720981e+01	4.855154e+02
2.080000e-06	3.772373e-06	7.304251e-09	2.668750e+01	4.806137e+02
2.090000e-06	3.697234e-06	7.235964e-09	2.615594e+01	4.755667e+02
2.100000e-06	3.620647e-06	7.168945e-09	2.561412e+01	4.703774e+02
2.110000e-06	3.542443e-06	7.072129e-09	2.506087e+01	4.650494e+02
2.120000e-06	3.462788e-06	7.003308e-09	2.449736e+01	4.595863e+02
2.130000e-06	3.382026e-06	6.906522e-09	2.392601e+01	4.539904e+02
2.140000e-06	3.300077e-06	6.821488e-09	2.334626e+01	4.482625e+02
2.150000e-06	3.217059e-06	6.728169e-09	2.275896e+01	4.424016e+02
2.160000e-06	3.133082e-06	6.648337e-09	2.216486e+01	4.364048e+02
2.170000e-06	3.047930e-06	6.558814e-09	2.156246e+01	4.302678e+02
2.180000e-06	2.961394e-06	6.446918e-09	2.095027e+01	4.239854e+02
2.190000e-06	2.873654e-06	6.345298e-09	2.032955e+01	4.175524e+02
2.200000e-06	2.785002e-06	6.245547e-09	1.970238e+01	4.109637e+02
2.210000e-06	2.695374e-06	6.156780e-09	1.906832e+01	4.042159e+02
2.220000e-06	2.604806e-06	6.054026e-09	1.842759e+01	3.973063e+02
2.230000e-06	2.513385e-06	5.949286e-09	1.778084e+01	3.902342e+02
2.240000e-06	2.421150e-06	5.835827e-09	1.712833e+01	3.829999e+02
2.250000e-06	2.328055e-06	5.716607e-09	1.646973e+01	3.756044e+02
2.260000e-06	2.234040e-06	5.599621e-09	1.580463e+01	3.680491e+02
2.270000e-06	2.139052e-06	5.484360e-09	1.513264e+01	3.603347e+02
2.280000e-06	2.043135e-06	5.369527e-09	1.445408e+01	3.524609e+02
2.290000e-06	1.946508e-06	5.245904e-09	1.377049e+01	3.444258e+02
2.300000e-06	1.849352e-06	5.122072e-09	1.308317e+01	3.362256e+02
2.310000e-06	1.751690e-06	4.997354e-09	1.239226e+01	3.278548e+02
2.320000e-06	1.653404e-06	4.869827e-09	1.169694e+01	3.193062e+02
2.330000e-06	1.554547e-06	4.734704e-09	1.099758e+01	3.105718e+02
2.340000e-06	1.455221e-06	4.597421e-09	1.029490e+01	3.016430e+02
2.350000e-06	1.355466e-06	4.457564e-09	9.589191e+00	2.925116e+02
2.360000e-06	1.255372e-06	4.316639e-09	8.881079e+00	2.831703e+02
2.370000e-06	1.154982e-06	4.175582e-09	8.170875e+00	2.736130e+02
2.380000e-06	1.054265e-06	4.028402e-09	7.458359e+00	2.638355e+02
2.390000e-06	9.531856e-07	3.875507e-09	6.743274e+00	2.538351e+02
2.400000e-06	8.516698e-07	3.719140e-09	6.025105e+00	2.436104e+02
2.410000e-06	7.496428e-07	3.563191e-09	5.303318e+00	2.331612e+02
2.420000e-06	6.472112e-07	3.404894e-09	4.578670e+00	2.224875e+02
2.430000e-06	5.445097e-07	3.243177e-09	3.852113e+00	2.115892e+02
2.440000e-06	4.416135e-07	3.076333e-09	3.124177e+00	2.004651e+02
2.450000e-06	3.385565e-07	2.903157e-09	2.395104e+00	1.891126e+02
2.460000e-06	2.353232e-07	2.724126e-09	1.664785e+00	1.775273e+02
2.470000e-06	1.319298e-07	2.543858e-09	9.333320e-01	1.657024e+02
2.480000e-06	2.844288e-08	2.361113e-09	2.012181e-01	1.536289e+02
2.490000e-06	-7.508953e-08	2.173155e-09	-5.312179e-01	1.412958e+02
2.500000e-06	-1.786031e-07	1.981166e-09	-1.263520e+00	1.286901e+02
2.510000e-06	-2.819958e-07	1.784587e-09	-1.994968e+00	1.157974e+02
2.520000e-06	-3.852676e-07	1.584961e-09	-2.725560e+00	1.026023e+02
2.530000e-06	-4.884392e-07	1.380193e-09	-3.455444e+00	8.908918e+01
2.540000e-06	-5.913998e-07	1.169867e-09	-4.183834e+00	7.524281e+01
2.550000e-06	-6.941119e-07	9.534929e-10	-4.910467e+00	6.104924e+01
2.560000e-06	-7.964936e-07	7.281472e-10	-5.634763e+00	4.649675e+01
2.570000e-06	-8.984231e-07	4.957614e-10	-6.355859e+00	3.157693e+01
2.580000e-06	-9.998938e-07	2.600451e-10	-7.073710e+00	1.628583e+01
2.590000e-06	-1.100883e-06	2.154870e-11	-7.788156e+00	6.252340e-01
2.600000e-06	-1.201430e-06	-2.203194e-10	-8.499472e+00	-1.539609e+01
2.610000e-06	-1.301550e-06	-4.678270e-10	-9.207767e+00	-3.176127e+01
2.620000e-06	-1.401195e-06	-7.214197e-10	-9.912698e+00	-4.844430e+01
2.630000e-06	-1.500402e-06	-9.785239e-10	-1.061454e+01	-6.540948e+01
2.640000e-06	-1.599133e-06	-1.240692e-09	-1.131300e+01	-8.261123e+01
2.650000e-06	-1.697293e-06	-1.510244e-09	-1.200743e+01	-9.999442e+01
2.660000e-06	-1.794879e-06	-1.784154e-09	-1.269780e+01	-1.174955e+02
2.670000e-06	-1.891880e-06	-2.056127e-09	-1.338403e+01	-1.350439e+02
2.680000e-06	-1.988259e-06	-2.323448e-09	-1.406586e+01	-1.525645e+02
2.690000e-06	-2.084021e-06	-2.588045e-09	-1.474332e+01	-1.699801e+02
2.700000e-06	-2.179030e-06	-2.850634e-09	-1.541546e+01	-1.872146e+02
2.710000e-06	-2.273111e-06	-3.110108e-09	-1.608104e+01	-2.041954e+02
2.720000e-06	-2.366230e-06	-3.364128e-09	-1.673980e+01	-2.208568e+02
2.730000e-06	-2.458406e-06	-3.612126e-09	-1.739190e+01	-2.371419e+02
2.740000e-06	-2.549704e-06	-3.854646e-09	-1.803778e+01	-2.530045e+02
2.750000e-06	-2.640071e-06	-4.091271e-09	-1.867708e+01	-2.684097e+02
2.760000e-06	-2.729459e-06	-4.322092e-09	-1.930945e+01	-2.833345e+02
2.770000e-06	-2.817950e-06	-4.546389e-09	-1.993547e+01	-2.977663e+02
2.780000e-06	-2.905593e-06	-4.762467e-09	-2.055550e+01	-3.117018e+02
2.790000e-06	-2.992361e-06	-4.969139e-09	-2.116934e+01	-3.251453e+02
2.800000e-06	-3.078038e-06	-5.167418e-09	-2.177546e+01	-3.381055e+02
2.810000e-06	-3.162439e-06	-5.358275e-09	-2.237255e+01	-3.505943e+02
2.820000e-06	-3.245687e-06	-5.541880e-09	-2.296149e+01	-3.626237e+02
2.830000e-06	-3.327929e-06	-5.718592e-09	-2.354330e+01	-3.742049e+02
2.840000e-06	-3.409102e-06	-5.887555e-09	-2.411756e+01	-3.853468e+02
2.850000e-06	-3.489117e-06	-6.049495e-09	-2.468362e+01	-3.960559e+02
2.860000e-06	-3.567824e-06	-6.205446e-09	-2.524043e+01	-4.063365e+02
2.870000e-06	-3.645019e-06	-6.356276e-09	-2.578654e+01	-4.161913e+02
2.880000e-06	-3.720691e-06	-6.501935e-09	-2.632188e+01	-4.256228e+02
2.890000e-06	-3.794913e-06	-6.640555e-09	-2.684696e+01	-4.346348e+02
2.900000e-06	-3.867781e-06	-6.773515e-09	-2.736246e+01	-4.432329e+02
2.910000e-06	-3.939342e-06	-6.902665e-09	-2.786872e+01	-4.514262e+02
2.920000e-06	-4.009429e-06	-7.024769e-09	-2.836455e+01	-4.592277e+02
2.930000e-06	-4.077917e-06	-7.137999e-09	-2.884906e+01	-4.666538e+02
2.940000e-06	-4.144933e-06	-7.245706e-09	-2.932316e+01	-4.737244e+02
