# Temperatura_=_81.22
# Concentracion g/m^3_=_15000.0
# C_Vs_to_Am_M_A/Vsm_=_65563218390.804596
# pendiente_HvsI_1/m_=_3716.3
# ordenada_HvsI_A/m_=_1297.0
# frecuencia_Hz_=_301601.22730357136

Tiempo_(s)	Campo_(V.s)	Magnetizacion_(V.s)	Campo_(kA/m)	Magnetizacion_(A/m)
0.000000e+00	-5.413414e-06	-9.735101e-09	-3.833824e+01	-6.354032e+02
1.000000e-08	-5.410833e-06	-9.733294e-09	-3.831996e+01	-6.351162e+02
2.000000e-08	-5.406430e-06	-9.723660e-09	-3.828878e+01	-6.346794e+02
3.000000e-08	-5.400385e-06	-9.717140e-09	-3.824597e+01	-6.340918e+02
4.000000e-08	-5.392781e-06	-9.707978e-09	-3.819212e+01	-6.333555e+02
5.000000e-08	-5.383383e-06	-9.689906e-09	-3.812556e+01	-6.324758e+02
6.000000e-08	-5.371905e-06	-9.665922e-09	-3.804427e+01	-6.314619e+02
7.000000e-08	-5.358579e-06	-9.629335e-09	-3.794990e+01	-6.303253e+02
8.000000e-08	-5.343198e-06	-9.641770e-09	-3.784097e+01	-6.290799e+02
9.000000e-08	-5.325488e-06	-9.714111e-09	-3.771554e+01	-6.277397e+02
1.000000e-07	-5.305686e-06	-9.661114e-09	-3.757530e+01	-6.263180e+02
1.100000e-07	-5.283915e-06	-9.583188e-09	-3.742112e+01	-6.248257e+02
1.200000e-07	-5.260370e-06	-9.530463e-09	-3.725438e+01	-6.232702e+02
1.300000e-07	-5.235255e-06	-9.351542e-09	-3.707651e+01	-6.216541e+02
1.400000e-07	-5.208505e-06	-9.481102e-09	-3.688706e+01	-6.199747e+02
1.500000e-07	-5.180178e-06	-9.589511e-09	-3.668644e+01	-6.182248e+02
1.600000e-07	-5.150435e-06	-9.315405e-09	-3.647581e+01	-6.163921e+02
1.700000e-07	-5.119130e-06	-9.461655e-09	-3.625410e+01	-6.144611e+02
1.800000e-07	-5.085655e-06	-9.436014e-09	-3.601702e+01	-6.124144e+02
1.900000e-07	-5.050283e-06	-9.141364e-09	-3.576652e+01	-6.102340e+02
2.000000e-07	-5.013536e-06	-9.329730e-09	-3.550628e+01	-6.079028e+02
2.100000e-07	-4.975041e-06	-9.256623e-09	-3.523365e+01	-6.054067e+02
2.200000e-07	-4.934660e-06	-9.077227e-09	-3.494767e+01	-6.027351e+02
2.300000e-07	-4.892288e-06	-9.192135e-09	-3.464759e+01	-5.998819e+02
2.400000e-07	-4.848003e-06	-9.102913e-09	-3.433396e+01	-5.968455e+02
2.500000e-07	-4.802018e-06	-9.036003e-09	-3.400829e+01	-5.936287e+02
2.600000e-07	-4.754152e-06	-9.014358e-09	-3.366930e+01	-5.902381e+02
2.700000e-07	-4.704143e-06	-8.911501e-09	-3.331513e+01	-5.866825e+02
2.800000e-07	-4.652002e-06	-8.893892e-09	-3.294586e+01	-5.829726e+02
2.900000e-07	-4.597960e-06	-8.809475e-09	-3.256313e+01	-5.791188e+02
3.000000e-07	-4.542321e-06	-8.728296e-09	-3.216909e+01	-5.751306e+02
3.100000e-07	-4.485041e-06	-8.706716e-09	-3.176343e+01	-5.710157e+02
3.200000e-07	-4.425905e-06	-8.674716e-09	-3.134462e+01	-5.667791e+02
3.300000e-07	-4.365191e-06	-8.567891e-09	-3.091464e+01	-5.624230e+02
3.400000e-07	-4.303068e-06	-8.448330e-09	-3.047468e+01	-5.579471e+02
3.500000e-07	-4.239589e-06	-8.441172e-09	-3.002512e+01	-5.533485e+02
3.600000e-07	-4.174566e-06	-8.356821e-09	-2.956462e+01	-5.486227e+02
3.700000e-07	-4.107778e-06	-8.261416e-09	-2.909162e+01	-5.437642e+02
3.800000e-07	-4.039442e-06	-8.226832e-09	-2.860766e+01	-5.387671e+02
3.900000e-07	-3.969739e-06	-8.124730e-09	-2.811402e+01	-5.336259e+02
4.000000e-07	-3.898785e-06	-8.016512e-09	-2.761151e+01	-5.283360e+02
4.100000e-07	-3.826621e-06	-7.922788e-09	-2.710044e+01	-5.228940e+02
4.200000e-07	-3.752942e-06	-7.878141e-09	-2.657865e+01	-5.172976e+02
4.300000e-07	-3.677658e-06	-7.807844e-09	-2.604547e+01	-5.115457e+02
4.400000e-07	-3.600976e-06	-7.699618e-09	-2.550241e+01	-5.056385e+02
4.500000e-07	-3.522818e-06	-7.603495e-09	-2.494888e+01	-4.995764e+02
4.600000e-07	-3.443170e-06	-7.506773e-09	-2.438481e+01	-4.933606e+02
4.700000e-07	-3.362231e-06	-7.414674e-09	-2.381159e+01	-4.869919e+02
4.800000e-07	-3.280130e-06	-7.306027e-09	-2.323015e+01	-4.804710e+02
4.900000e-07	-3.196930e-06	-7.208686e-09	-2.264092e+01	-4.737981e+02
5.000000e-07	-3.112723e-06	-7.111628e-09	-2.204456e+01	-4.669727e+02
5.100000e-07	-3.027538e-06	-6.992296e-09	-2.144128e+01	-4.599938e+02
5.200000e-07	-2.941409e-06	-6.877382e-09	-2.083130e+01	-4.528597e+02
5.300000e-07	-2.854378e-06	-6.773414e-09	-2.021494e+01	-4.455685e+02
5.400000e-07	-2.766391e-06	-6.662624e-09	-1.959181e+01	-4.381176e+02
5.500000e-07	-2.677375e-06	-6.539850e-09	-1.896139e+01	-4.305046e+02
5.600000e-07	-2.587130e-06	-6.410701e-09	-1.832227e+01	-4.227265e+02
5.700000e-07	-2.495727e-06	-6.291614e-09	-1.767494e+01	-4.147808e+02
5.800000e-07	-2.403541e-06	-6.178835e-09	-1.702208e+01	-4.066646e+02
5.900000e-07	-2.310618e-06	-6.055744e-09	-1.636399e+01	-3.983753e+02
6.000000e-07	-2.216871e-06	-5.917018e-09	-1.570006e+01	-3.899103e+02
6.100000e-07	-2.122376e-06	-5.777702e-09	-1.503084e+01	-3.812671e+02
6.200000e-07	-2.027128e-06	-5.643053e-09	-1.435629e+01	-3.724432e+02
6.300000e-07	-1.931110e-06	-5.506844e-09	-1.367628e+01	-3.634362e+02
6.400000e-07	-1.834366e-06	-5.373865e-09	-1.299113e+01	-3.542436e+02
6.500000e-07	-1.736853e-06	-5.234799e-09	-1.230054e+01	-3.448631e+02
6.600000e-07	-1.638511e-06	-5.082299e-09	-1.160407e+01	-3.352918e+02
6.700000e-07	-1.539444e-06	-4.920544e-09	-1.090247e+01	-3.255271e+02
6.800000e-07	-1.439842e-06	-4.764596e-09	-1.019708e+01	-3.155658e+02
6.900000e-07	-1.339844e-06	-4.614896e-09	-9.488887e+00	-3.054044e+02
7.000000e-07	-1.239518e-06	-4.460415e-09	-8.778370e+00	-2.950387e+02
7.100000e-07	-1.138841e-06	-4.297387e-09	-8.065365e+00	-2.844643e+02
7.200000e-07	-1.037811e-06	-4.127329e-09	-7.349863e+00	-2.736760e+02
7.300000e-07	-9.364127e-07	-3.956847e-09	-6.631752e+00	-2.626682e+02
7.400000e-07	-8.347118e-07	-3.786031e-09	-5.911498e+00	-2.514351e+02
7.500000e-07	-7.327322e-07	-3.613051e-09	-5.189270e+00	-2.399705e+02
7.600000e-07	-6.304628e-07	-3.431844e-09	-4.464990e+00	-2.282684e+02
7.700000e-07	-5.280093e-07	-3.242662e-09	-3.739406e+00	-2.163228e+02
7.800000e-07	-4.253774e-07	-3.053655e-09	-3.012558e+00	-2.041280e+02
7.900000e-07	-3.226336e-07	-2.867516e-09	-2.284917e+00	-1.916785e+02
8.000000e-07	-2.198330e-07	-2.678303e-09	-1.556875e+00	-1.789687e+02
8.100000e-07	-1.168883e-07	-2.481128e-09	-8.278123e-01	-1.659930e+02
8.200000e-07	-1.385736e-08	-2.278713e-09	-9.813894e-02	-1.527450e+02
8.300000e-07	8.912718e-08	-2.073028e-09	6.312060e-01	-1.392170e+02
8.400000e-07	1.921163e-07	-1.865654e-09	1.360583e+00	-1.253998e+02
8.500000e-07	2.950859e-07	-1.654343e-09	2.089823e+00	-1.112820e+02
8.600000e-07	3.979827e-07	-1.437863e-09	2.818546e+00	-9.684994e+01
8.700000e-07	5.007775e-07	-1.210855e-09	3.546548e+00	-8.208789e+01
8.800000e-07	6.034346e-07	-9.740069e-10	4.273574e+00	-6.697852e+01
8.900000e-07	7.059322e-07	-7.338327e-10	4.999470e+00	-5.150401e+01
9.000000e-07	8.082154e-07	-4.906772e-10	5.723848e+00	-3.564749e+01
9.100000e-07	9.102257e-07	-2.445366e-10	6.446294e+00	-1.939502e+01
9.200000e-07	1.011848e-06	8.065563e-12	7.165991e+00	-2.737754e+00
9.300000e-07	1.113079e-06	2.665944e-10	7.882917e+00	1.432572e+01
9.400000e-07	1.213921e-06	5.315551e-10	8.597090e+00	3.178714e+01
9.500000e-07	1.314362e-06	8.003913e-10	9.308420e+00	4.962666e+01
9.600000e-07	1.414429e-06	1.072856e-09	1.001710e+01	6.781154e+01
9.700000e-07	1.514059e-06	1.350875e-09	1.072269e+01	8.629557e+01
9.800000e-07	1.613122e-06	1.633521e-09	1.142427e+01	1.050194e+02
9.900000e-07	1.711449e-06	1.920497e-09	1.212062e+01	1.239118e+02
1.000000e-06	1.808935e-06	2.207128e-09	1.281102e+01	1.428920e+02
1.010000e-06	1.905592e-06	2.492865e-09	1.349556e+01	1.618724e+02
1.020000e-06	2.001483e-06	2.777588e-09	1.417467e+01	1.807624e+02
1.030000e-06	2.096678e-06	3.062188e-09	1.484885e+01	1.994725e+02
1.040000e-06	2.191168e-06	3.344826e-09	1.551803e+01	2.179175e+02
1.050000e-06	2.284884e-06	3.618027e-09	1.618173e+01	2.360206e+02
1.060000e-06	2.377831e-06	3.883055e-09	1.684000e+01	2.537159e+02
1.070000e-06	2.470066e-06	4.140982e-09	1.749321e+01	2.709508e+02
1.080000e-06	2.561565e-06	4.394412e-09	1.814122e+01	2.876864e+02
1.090000e-06	2.652160e-06	4.642132e-09	1.878281e+01	3.038982e+02
1.100000e-06	2.741626e-06	4.881733e-09	1.941642e+01	3.195741e+02
1.110000e-06	2.829923e-06	5.109450e-09	2.004175e+01	3.347135e+02
1.120000e-06	2.917215e-06	5.328270e-09	2.065995e+01	3.493239e+02
1.130000e-06	3.003582e-06	5.542465e-09	2.127162e+01	3.634190e+02
1.140000e-06	3.088981e-06	5.752905e-09	2.187642e+01	3.770152e+02
1.150000e-06	3.173443e-06	5.954899e-09	2.247458e+01	3.901295e+02
1.160000e-06	3.256962e-06	6.145891e-09	2.306607e+01	4.027776e+02
1.170000e-06	3.339339e-06	6.330983e-09	2.364947e+01	4.149722e+02
1.180000e-06	3.420361e-06	6.508970e-09	2.422328e+01	4.267229e+02
1.190000e-06	3.500105e-06	6.679705e-09	2.478803e+01	4.380358e+02
1.200000e-06	3.578672e-06	6.842119e-09	2.534445e+01	4.489147e+02
1.210000e-06	3.655971e-06	6.999329e-09	2.589188e+01	4.593618e+02
1.220000e-06	3.731989e-06	7.151091e-09	2.643025e+01	4.693794e+02
1.230000e-06	3.806566e-06	7.297452e-09	2.695841e+01	4.789708e+02
1.240000e-06	3.879444e-06	7.438582e-09	2.747454e+01	4.881418e+02
1.250000e-06	3.950779e-06	7.575077e-09	2.797974e+01	4.969010e+02
1.260000e-06	4.020759e-06	7.703397e-09	2.847535e+01	5.052608e+02
1.270000e-06	4.089394e-06	7.824368e-09	2.896143e+01	5.132363e+02
1.280000e-06	4.156685e-06	7.939586e-09	2.943799e+01	5.208457e+02
1.290000e-06	4.222369e-06	8.048208e-09	2.990316e+01	5.281089e+02
1.300000e-06	4.286389e-06	8.150468e-09	3.035656e+01	5.350464e+02
1.310000e-06	4.348919e-06	8.247311e-09	3.079940e+01	5.416785e+02
1.320000e-06	4.410015e-06	8.343318e-09	3.123209e+01	5.480239e+02
1.330000e-06	4.469751e-06	8.436527e-09	3.165515e+01	5.540995e+02
1.340000e-06	4.527857e-06	8.526421e-09	3.206666e+01	5.599194e+02
1.350000e-06	4.584116e-06	8.612101e-09	3.246509e+01	5.654948e+02
1.360000e-06	4.638699e-06	8.693045e-09	3.285165e+01	5.708344e+02
1.370000e-06	4.691615e-06	8.770209e-09	3.322640e+01	5.759445e+02
1.380000e-06	4.742584e-06	8.844562e-09	3.358737e+01	5.808296e+02
1.390000e-06	4.791491e-06	8.916236e-09	3.393373e+01	5.854928e+02
1.400000e-06	4.838586e-06	8.982937e-09	3.426727e+01	5.899363e+02
1.410000e-06	4.884051e-06	9.046231e-09	3.458925e+01	5.941622e+02
1.420000e-06	4.927994e-06	9.108556e-09	3.490046e+01	5.981721e+02
1.430000e-06	4.970197e-06	9.168859e-09	3.519934e+01	6.019677e+02
1.440000e-06	5.010474e-06	9.224283e-09	3.548459e+01	6.055507e+02
1.450000e-06	5.049008e-06	9.274984e-09	3.575749e+01	6.089227e+02
1.460000e-06	5.085900e-06	9.322010e-09	3.601877e+01	6.120850e+02
1.470000e-06	5.121129e-06	9.365857e-09	3.626826e+01	6.150391e+02
1.480000e-06	5.154424e-06	9.406443e-09	3.650405e+01	6.177861e+02
1.490000e-06	5.185826e-06	9.441628e-09	3.672645e+01	6.203276e+02
1.500000e-06	5.215512e-06	9.472754e-09	3.693669e+01	6.226655e+02
1.510000e-06	5.243503e-06	9.502439e-09	3.713492e+01	6.248023e+02
1.520000e-06	5.269505e-06	9.529890e-09	3.731907e+01	6.267420e+02
1.530000e-06	5.293410e-06	9.555161e-09	3.748837e+01	6.284896e+02
1.540000e-06	5.315539e-06	9.577424e-09	3.764508e+01	6.300519e+02
1.550000e-06	5.335984e-06	9.596904e-09	3.778988e+01	6.314368e+02
1.560000e-06	5.354538e-06	9.614643e-09	3.792128e+01	6.326531e+02
1.570000e-06	5.371004e-06	9.631287e-09	3.803789e+01	6.337105e+02
1.580000e-06	5.385506e-06	9.646601e-09	3.814060e+01	6.346180e+02
1.590000e-06	5.398072e-06	9.659088e-09	3.822959e+01	6.353839e+02
1.600000e-06	5.408490e-06	9.667854e-09	3.830337e+01	6.360147e+02
1.610000e-06	5.416718e-06	9.675038e-09	3.836164e+01	6.365148e+02
1.620000e-06	5.422963e-06	9.680091e-09	3.840587e+01	6.368857e+02
1.630000e-06	5.427459e-06	9.684111e-09	3.843771e+01	6.371267e+02
1.640000e-06	5.430070e-06	9.688874e-09	3.845620e+01	6.372348e+02
1.650000e-06	5.430606e-06	9.693555e-09	3.846000e+01	6.372054e+02
1.660000e-06	5.429269e-06	9.688236e-09	3.845053e+01	6.370334e+02
1.670000e-06	5.426289e-06	9.679562e-09	3.842943e+01	6.367141e+02
1.680000e-06	5.421701e-06	9.673914e-09	3.839694e+01	6.362445e+02
1.690000e-06	5.415141e-06	9.663795e-09	3.835047e+01	6.356243e+02
1.700000e-06	5.406712e-06	9.652828e-09	3.829078e+01	6.348562e+02
1.710000e-06	5.396742e-06	9.645496e-09	3.822017e+01	6.339465e+02
1.720000e-06	5.385047e-06	9.653043e-09	3.813735e+01	6.329048e+02
1.730000e-06	5.371377e-06	9.645409e-09	3.804053e+01	6.317433e+02
1.740000e-06	5.355700e-06	9.507055e-09	3.792951e+01	6.304759e+02
1.750000e-06	5.337758e-06	9.494065e-09	3.780244e+01	6.291167e+02
1.760000e-06	5.317057e-06	9.523015e-09	3.765584e+01	6.276786e+02
1.770000e-06	5.293899e-06	9.527002e-09	3.749183e+01	6.261719e+02
1.780000e-06	5.269403e-06	9.676344e-09	3.731835e+01	6.246029e+02
1.790000e-06	5.244323e-06	9.431278e-09	3.714073e+01	6.229732e+02
1.800000e-06	5.217887e-06	9.349619e-09	3.695350e+01	6.212791e+02
1.810000e-06	5.189122e-06	9.561891e-09	3.674979e+01	6.195121e+02
1.820000e-06	5.158476e-06	9.267903e-09	3.653275e+01	6.176593e+02
1.830000e-06	5.126203e-06	9.354901e-09	3.630419e+01	6.157046e+02
1.840000e-06	5.091925e-06	9.547633e-09	3.606143e+01	6.136303e+02
1.850000e-06	5.056060e-06	9.192277e-09	3.580743e+01	6.114185e+02
1.860000e-06	5.018402e-06	9.329188e-09	3.554074e+01	6.090526e+02
1.870000e-06	4.978782e-06	9.345709e-09	3.526014e+01	6.065192e+02
1.880000e-06	4.937617e-06	9.061700e-09	3.496861e+01	6.038086e+02
1.890000e-06	4.894603e-06	9.216970e-09	3.466398e+01	6.009157e+02
1.900000e-06	4.849994e-06	9.077711e-09	3.434806e+01	5.978398e+02
1.910000e-06	4.803657e-06	9.064103e-09	3.401990e+01	5.945847e+02
1.920000e-06	4.755125e-06	9.101138e-09	3.367619e+01	5.911574e+02
1.930000e-06	4.704934e-06	8.819653e-09	3.332073e+01	5.875675e+02
1.940000e-06	4.653006e-06	8.969180e-09	3.295297e+01	5.838254e+02
1.950000e-06	4.598957e-06	8.891698e-09	3.257019e+01	5.799416e+02
1.960000e-06	4.543008e-06	8.711779e-09	3.217395e+01	5.759252e+02
1.970000e-06	4.485354e-06	8.713659e-09	3.176565e+01	5.717835e+02
1.980000e-06	4.426251e-06	8.620309e-09	3.134707e+01	5.675207e+02
1.990000e-06	4.365623e-06	8.660108e-09	3.091770e+01	5.631387e+02
2.000000e-06	4.303244e-06	8.486375e-09	3.047593e+01	5.586363e+02
2.010000e-06	4.239308e-06	8.452005e-09	3.002313e+01	5.540105e+02
2.020000e-06	4.173899e-06	8.434263e-09	2.955990e+01	5.492563e+02
2.030000e-06	4.107012e-06	8.211068e-09	2.908619e+01	5.443681e+02
2.040000e-06	4.038696e-06	8.219567e-09	2.860237e+01	5.393401e+02
2.050000e-06	3.968869e-06	8.162932e-09	2.810785e+01	5.341670e+02
2.060000e-06	3.897475e-06	8.118278e-09	2.760224e+01	5.288443e+02
2.070000e-06	3.824697e-06	7.984181e-09	2.708682e+01	5.233689e+02
2.080000e-06	3.750677e-06	7.840260e-09	2.656260e+01	5.177388e+02
2.090000e-06	3.675272e-06	7.828462e-09	2.602858e+01	5.119532e+02
2.100000e-06	3.598366e-06	7.706585e-09	2.548392e+01	5.060122e+02
2.110000e-06	3.519792e-06	7.635652e-09	2.492746e+01	4.999167e+02
2.120000e-06	3.439876e-06	7.531362e-09	2.436149e+01	4.936676e+02
2.130000e-06	3.358966e-06	7.448339e-09	2.378847e+01	4.872658e+02
2.140000e-06	3.276875e-06	7.338972e-09	2.320710e+01	4.807119e+02
2.150000e-06	3.193610e-06	7.203632e-09	2.261741e+01	4.740059e+02
2.160000e-06	3.109332e-06	7.142825e-09	2.202055e+01	4.671473e+02
2.170000e-06	3.023983e-06	7.032673e-09	2.141610e+01	4.601349e+02
2.180000e-06	2.937240e-06	6.917473e-09	2.080177e+01	4.529669e+02
2.190000e-06	2.849311e-06	6.784546e-09	2.017906e+01	4.456412e+02
2.200000e-06	2.760483e-06	6.688337e-09	1.954997e+01	4.381554e+02
2.210000e-06	2.670764e-06	6.599582e-09	1.891457e+01	4.305067e+02
2.220000e-06	2.580182e-06	6.469841e-09	1.827306e+01	4.226926e+02
2.230000e-06	2.488667e-06	6.331519e-09	1.762494e+01	4.147101e+02
2.240000e-06	2.396332e-06	6.199777e-09	1.697102e+01	4.065566e+02
2.250000e-06	2.303169e-06	6.087737e-09	1.631123e+01	3.982294e+02
2.260000e-06	2.209110e-06	5.957927e-09	1.564510e+01	3.897260e+02
2.270000e-06	2.114026e-06	5.833741e-09	1.497171e+01	3.810438e+02
2.280000e-06	2.018010e-06	5.702207e-09	1.429171e+01	3.721805e+02
2.290000e-06	1.921384e-06	5.552660e-09	1.360740e+01	3.631335e+02
2.300000e-06	1.824210e-06	5.398213e-09	1.291921e+01	3.539004e+02
2.310000e-06	1.726484e-06	5.260922e-09	1.222710e+01	3.444787e+02
2.320000e-06	1.628244e-06	5.136191e-09	1.153136e+01	3.348659e+02
2.330000e-06	1.529495e-06	4.988449e-09	1.083201e+01	3.250589e+02
2.340000e-06	1.430225e-06	4.825481e-09	1.012897e+01	3.150545e+02
2.350000e-06	1.330505e-06	4.662265e-09	9.422749e+00	3.048492e+02
2.360000e-06	1.230395e-06	4.509517e-09	8.713760e+00	2.944388e+02
2.370000e-06	1.129910e-06	4.354418e-09	8.002117e+00	2.838185e+02
2.380000e-06	1.029088e-06	4.192708e-09	7.288085e+00	2.729832e+02
2.390000e-06	9.279180e-07	4.025966e-09	6.571591e+00	2.619272e+02
2.400000e-06	8.263997e-07	3.852329e-09	5.852631e+00	2.506446e+02
2.410000e-06	7.244999e-07	3.676460e-09	5.130968e+00	2.391292e+02
2.420000e-06	6.221615e-07	3.500631e-09	4.406199e+00	2.273750e+02
2.430000e-06	5.195282e-07	3.322348e-09	3.679341e+00	2.153760e+02
2.440000e-06	4.167333e-07	3.135112e-09	2.951340e+00	2.031266e+02
2.450000e-06	3.137250e-07	2.938032e-09	2.221826e+00	1.906214e+02
2.460000e-06	2.104698e-07	2.738755e-09	1.490565e+00	1.778547e+02
2.470000e-06	1.071090e-07	2.545637e-09	7.585544e-01	1.648208e+02
2.480000e-06	3.717662e-09	2.347219e-09	2.632879e-02	1.515130e+02
2.490000e-06	-9.964934e-08	2.138069e-09	-7.057248e-01	1.379234e+02
2.500000e-06	-2.029563e-07	1.921915e-09	-1.437353e+00	1.240424e+02
2.510000e-06	-3.062028e-07	1.702379e-09	-2.168553e+00	1.098580e+02
2.520000e-06	-4.093261e-07	1.482289e-09	-2.898881e+00	9.535623e+01
2.530000e-06	-5.122472e-07	1.258142e-09	-3.627777e+00	8.052080e+01
2.540000e-06	-6.149727e-07	1.030755e-09	-4.355287e+00	6.533424e+01
2.550000e-06	-7.174570e-07	7.950840e-10	-5.081089e+00	4.977878e+01
2.560000e-06	-8.195154e-07	5.467555e-10	-5.803876e+00	3.383802e+01
2.570000e-06	-9.211480e-07	2.931592e-10	-6.523646e+00	1.749889e+01
2.580000e-06	-1.022322e-06	4.060385e-11	-7.240167e+00	7.539524e-01
2.590000e-06	-1.123062e-06	-2.157470e-10	-7.953617e+00	-1.639630e+01
2.600000e-06	-1.223449e-06	-4.838669e-10	-8.664566e+00	-3.394128e+01
2.610000e-06	-1.323403e-06	-7.602129e-10	-9.372451e+00	-5.185845e+01
2.620000e-06	-1.422873e-06	-1.041289e-09	-1.007690e+01	-7.011223e+01
2.630000e-06	-1.521855e-06	-1.326677e-09	-1.077790e+01	-8.865351e+01
2.640000e-06	-1.620315e-06	-1.615163e-09	-1.147521e+01	-1.074203e+02
2.650000e-06	-1.718205e-06	-1.908055e-09	-1.216847e+01	-1.263390e+02
2.660000e-06	-1.815483e-06	-2.204670e-09	-1.285740e+01	-1.453272e+02
2.670000e-06	-1.912143e-06	-2.500066e-09	-1.354196e+01	-1.642963e+02
2.680000e-06	-2.008241e-06	-2.788528e-09	-1.422253e+01	-1.831557e+02
2.690000e-06	-2.103757e-06	-3.072367e-09	-1.489898e+01	-2.018164e+02
2.700000e-06	-2.198507e-06	-3.353599e-09	-1.557001e+01	-2.201947e+02
2.710000e-06	-2.292273e-06	-3.631106e-09	-1.623407e+01	-2.382159e+02
2.720000e-06	-2.385036e-06	-3.902191e-09	-1.689102e+01	-2.558170e+02
2.730000e-06	-2.476919e-06	-4.164125e-09	-1.754175e+01	-2.729481e+02
2.740000e-06	-2.567928e-06	-4.416715e-09	-1.818628e+01	-2.895736e+02
2.750000e-06	-2.658008e-06	-4.660963e-09	-1.882423e+01	-3.056715e+02
2.760000e-06	-2.747186e-06	-4.900224e-09	-1.945580e+01	-3.212327e+02
2.770000e-06	-2.835564e-06	-5.133967e-09	-2.008169e+01	-3.362582e+02
2.780000e-06	-2.923099e-06	-5.358994e-09	-2.070163e+01	-3.507574e+02
2.790000e-06	-3.009510e-06	-5.573436e-09	-2.131360e+01	-3.647446e+02
2.800000e-06	-3.094630e-06	-5.780191e-09	-2.191643e+01	-3.782365e+02
2.810000e-06	-3.178613e-06	-5.981409e-09	-2.251120e+01	-3.912502e+02
2.820000e-06	-3.261570e-06	-6.174726e-09	-2.309870e+01	-4.038005e+02
2.830000e-06	-3.343463e-06	-6.360246e-09	-2.367868e+01	-4.158998e+02
2.840000e-06	-3.424278e-06	-6.537956e-09	-2.425101e+01	-4.275566e+02
2.850000e-06	-3.503970e-06	-6.707972e-09	-2.481540e+01	-4.387767e+02
2.860000e-06	-3.582301e-06	-6.869577e-09	-2.537015e+01	-4.495634e+02
2.870000e-06	-3.659064e-06	-7.025241e-09	-2.591379e+01	-4.599187e+02
2.880000e-06	-3.734332e-06	-7.177017e-09	-2.644684e+01	-4.698451e+02
2.890000e-06	-3.808154e-06	-7.322748e-09	-2.696966e+01	-4.793463e+02
2.900000e-06	-3.880664e-06	-7.462920e-09	-2.748318e+01	-4.884286e+02
2.910000e-06	-3.951868e-06	-7.599285e-09	-2.798746e+01	-4.971016e+02
2.920000e-06	-4.021451e-06	-7.729211e-09	-2.848025e+01	-5.053780e+02
2.930000e-06	-4.089494e-06	-7.850915e-09	-2.896213e+01	-5.132739e+02
2.940000e-06	-4.156208e-06	-7.966853e-09	-2.943460e+01	-5.208079e+02
